MR32 ASCII
Name	KneeFJC2
Frequency	1500
Date	31-08-2015 11:35:26
"Time,s"	"RT TIB.ANT.,uV"	"RT MED. GASTRO,uV"	"RT LAT. GASTRO,uV"	"RT BICEPS FEM.,uV"	"RT VMO,uV"	"RT VLO,uV"	"RT RECTUS FEM.,uV"	"RT SOLEUS,uV"	"RT SEMITEND.,uV"	"Channel 12,uV"
0.0000	-0.931515	4.9776	9.93119	-0.268165	-1.18843	-0.778561	-1.3889	36.7052	-0.488062	-5080.95
0.0007	-0.931515	6.20256	-32.7902	1.25921	-0.270098	0.155712	-0.441924	5.27149	0.122016	-10225.9
0.0013	-2.16245	2.52769	-44.6982	3.08973	0.324117	0.467136	0.757584	-4.81002	0.427054	-9982.45
0.0020	-0.931515	1.32218	-22.7178	-0.874451	0.648235	0.467136	0.441924	-11.2175	0.732093	-9588.6
0.0027	1.19766	1.01108	-10.8255	-7.89338	-0.270098	0.467136	-0.757584	-14.2703	0.122016	-9915.35
0.0033	2.42859	0.0972188	-6.85613	-9.42075	-1.51255	-0.467136	-1.70456	-8.1646	-0.793101	-9808.31
0.0040	0.898247	1.01108	-1.36495	-5.45657	-0.270098	-0.155712	-0.757584	11.9807	-0.183023	-9804.25
0.0047	-0.332684	0.699975	1.08255	-2.09868	1.24245	1.08998	0.441924	24.7955	0.732093	-9818.92
0.0053	0.299416	-4.18041	1.39633	-0.874451	0.972352	1.08998	0.757584	16.8617	0.732093	-9819.54
0.0060	1.19766	-7.54418	2.60439	-0.874451	-0.270098	-0.155712	0.441924	6.79792	0.122016	-9802.69
0.0067	1.19766	-5.09426	2.60439	-1.79554	-1.51255	-1.40141	-0.757584	1.91691	-0.488062	-9814.24
0.0073	0.598831	-0.524981	-1.05117	-1.17759	-0.594215	-0.155712	-0.441924	0.993952	-0.183023	-9913.79
0.0080	-0.332684	-1.12774	-4.11054	0.338121	0.648235	1.08998	0.441924	0.993952	0.427054	-9572.06
0.0087	-0.6321	-3.26655	-3.18488	-0.268165	0.972352	1.40141	0.441924	0.993952	0.427054	-10046.1
0.0093	-0.0332684	-1.43884	-1.05117	-1.4924	0.324117	0.467136	0.757584	2.52038	0.427054	-10128.5
0.0100	0.598831	0.408319	2.3063	-3.00811	-0.864313	-1.08998	0.126264	2.52038	0.732093	-4736.72
0.0107	-0.332684	0.699975	5.34998	-2.70497	-0.864313	-0.778561	0.126264	2.21864	1.03713	105.795
0.0113	-0.931515	3.14989	5.66376	-0.571308	0.648235	1.08998	0.757584	6.1767	1.03713	105.795
0.0120	-1.53035	6.49421	7.79748	-1.17759	1.24245	1.40141	1.3889	11.3772	0.732093	-229.065
0.0127	-0.931515	9.85798	9.6331	-3.62606	0.0540196	0.155712	0.441924	13.8088	0.122016	97.3684
0.0133	0.299416	9.85798	1.39633	-5.15343	-1.18843	-1.63498	-1.07324	13.5071	-0.488062	-9.67442
0.0140	-0.6321	5.58036	-3.79676	-3.62606	-0.594215	-0.778561	-0.189396	8.00486	-0.488062	-13.7314
0.0147	-0.6321	1.32218	2.3063	-2.40183	0.648235	0.778561	1.3889	-5.41349	0.122016	1.24831
0.0153	0.299416	1.32218	4.14192	-3.62606	0.648235	0.778561	1.3889	-9.38929	1.03713	-1.24831
0.0160	0.898247	2.52769	3.53004	-0.268165	0.0540196	-0.155712	0.757584	4.0468	0.122016	-0.936235
0.0167	1.49708	-2.64435	4.7381	5.22339	-0.864313	-1.08998	-0.757584	8.00486	-0.793101	-1.24831
0.0173	0.598831	-11.8024	-1.36495	5.84133	0.0540196	0.155712	-0.441924	-2.66237	0.122016	-1.56039
0.0180	-0.931515	-13.0273	-13.2573	4.31396	1.24245	2.02426	0.757584	-9.06981	1.03713	-0.936235
0.0187	-1.86303	-8.14693	-16.9285	2.78658	0.972352	1.40141	0.757584	-19.7548	0.122016	-0.936235
0.0193	-0.931515	-3.57765	-8.67606	0.956066	0.324117	0.467136	0.126264	-39.2966	-0.183023	-0.936235
0.0200	0.898247	0.0972188	-0.439294	1.8655	-0.864313	-0.155712	-1.07324	-50.585	-0.793101	-0.624156
0.0207	0.598831	2.52769	1.39633	6.44762	-0.594215	-0.155712	-0.189396	-50.8868	-1.09814	-0.624156
0.0213	-0.332684	4.37484	0.470673	7.97499	0.648235	0.778561	1.07324	-56.3713	-0.488062	-0.624156
0.0220	0.299416	4.6665	-0.439294	5.52653	0.972352	2.02426	1.07324	-62.1752	0.122016	-0.312078
0.0227	0.598831	-2.35269	-1.36495	2.48344	0.0540196	0.778561	0.126264	-48.7569	-0.183023	-0.312078
0.0233	0.299416	-12.1135	-1.05117	0.338121	-1.18843	-0.778561	-1.07324	-6.63818	-0.793101	-0.312078
0.0240	-0.6321	-15.1661	3.53004	1.8655	-0.270098	0.467136	-0.757584	55.3241	-0.793101	-0.624156
0.0247	-1.86303	-11.8024	5.05189	4.01082	1.24245	1.08998	0.757584	81.859	-0.183023	-0.624156
0.0253	-3.36011	-1.12774	1.39633	4.01082	0.972352	0.778561	1.64143	56.2293	0.427054	-0.312078
0.0260	-3.06069	11.6857	-2.27492	4.01082	-0.594215	1.08998	0.126264	24.1921	0.427054	-0.312078
0.0267	-0.6321	14.4273	-2.88679	4.01082	-0.864313	-0.778561	-0.757584	0.692216	-0.183023	-0.312078
0.0273	-1.53035	10.4607	-6.24426	4.92024	0.0540196	-0.778561	-0.441924	-6.01696	0.427054	-0.312078
0.0280	-3.06069	14.4273	-12.3473	6.44762	0.972352	1.40141	-0.189396	9.53129	1.03713	-0.312078
0.0287	-0.332684	24.2075	-7.46801	6.14448	1.24245	1.71283	0.441924	17.4652	0.427054	0
0.0293	1.82976	17.4799	1.99251	3.08973	0.0540196	-0.778561	-0.757584	-3.58533	-0.183023	-1.24831
0.0300	0.598831	-0.213881	4.14192	1.25921	-1.18843	-1.40141	-2.58841	-40.823	0.732093	-1.87247
0.0307	-0.6321	-5.69702	2.91817	2.48344	0.324117	0.778561	-1.07324	-51.1885	1.64721	-0.624156
0.0313	0.598831	-4.78316	-0.141202	3.08973	1.56657	1.40141	1.07324	-28.9133	0.732093	0
0.0320	0.598831	-6.61088	-0.753076	0.956066	1.56657	0.467136	1.3889	-29.2151	0.427054	-0.312078
0.0327	-1.53035	-6.31922	2.3063	-3.9292	0.324117	-0.155712	0.757584	-36.8472	0.732093	-0.624156
0.0333	-1.86303	-3.86931	2.3063	-6.68081	-0.864313	-1.08998	-0.441924	-6.93991	0.427054	-0.312078
0.0340	-0.931515	-2.35269	1.69442	-3.62606	0.0540196	0.467136	-0.189396	34.8771	0.122016	-0.312078
0.0347	-1.23093	-6.92198	3.53004	-0.268165	0.972352	0.778561	0.441924	55.0046	0.122016	-0.312078
0.0353	-1.53035	-14.2523	8.09557	0.338121	0.972352	0.155712	0.757584	51.0465	0.122016	-0.624156
0.0360	1.19766	-19.7354	15.4224	-0.571308	0.0540196	-0.155712	0.126264	34.2558	-0.183023	-0.624156
0.0367	4.25836	-27.6685	19.7055	-2.09868	-1.18843	-0.467136	-1.07324	18.0864	-0.488062	-0.312078
0.0373	1.82976	-36.8265	16.9599	-1.4924	-0.864313	-0.467136	-0.441924	8.62608	0.122016	0
0.0380	-2.76128	-45.3817	5.05189	-0.268165	0.648235	0.155712	1.3889	-9.06981	0.427054	-0.624156
0.0387	-3.36011	-59.4201	-12.3473	0.338121	1.56657	1.08998	0.757584	-19.7548	0.427054	-0.312078
0.0393	-3.69279	-49.6593	-22.7178	0.338121	0.972352	0.778561	0.126264	2.21864	0.122016	0
0.0400	-3.06069	8.34137	-18.7485	-0.571308	-0.864313	-0.467136	-0.441924	26.0202	-0.183023	-0.312078
0.0407	-0.0332684	47.0928	-7.15422	0.034978	-0.864313	-1.08998	-0.441924	28.4519	0.122016	-0.312078
0.0413	3.32684	29.0879	1.39633	1.56235	0.324117	0.155712	0.441924	18.6898	0.427054	0
0.0420	3.95894	-21.8742	3.53004	1.8655	0.324117	1.40141	0.757584	8.62608	0.122016	-0.312078
0.0427	3.65952	-101.827	2.60439	0.956066	-0.864313	0.467136	-0.189396	4.65027	-0.183023	-0.312078
0.0433	3.65952	-146.703	2.60439	0.034978	-1.51255	-1.63498	-1.07324	2.82211	-0.793101	-0.312078
0.0440	3.32684	-113.746	3.82814	0.034978	-0.594215	-1.40141	-0.441924	0.390481	-0.183023	0
0.0447	1.49708	-92.3773	4.44001	3.08973	0.648235	-0.155712	1.3889	-2.0589	0.427054	-0.312078
0.0453	0.299416	-97.2577	4.44001	4.31396	0.972352	0.778561	1.07324	-5.11175	0.122016	-0.312078
0.0460	0.299416	-41.1041	3.82814	2.1803	0.0540196	0.155712	-0.189396	-7.24165	-0.488062	-0.312078
0.0467	1.49708	55.9397	5.05189	-0.268165	-0.864313	-1.40141	-0.441924	-6.01696	-1.09814	-0.624156
0.0473	1.82976	124.615	4.44001	-1.4924	-0.270098	-0.467136	0.126264	2.21864	-0.488062	-0.624156
0.0480	-0.931515	143.825	-4.70673	-3.62606	0.648235	1.08998	0.757584	14.4301	0.122016	-0.312078
0.0487	-3.06069	111.782	-11.7354	-5.45657	1.24245	0.778561	1.64143	18.6898	0.122016	-0.624156
0.0493	-1.23093	73.0307	-7.7661	-7.59024	0.648235	0.778561	0.757584	15.637	0.427054	-0.312078
0.0500	0.598831	57.4757	-3.79676	-10.645	-1.51255	-0.155712	-1.3889	11.9807	0.427054	0
0.0507	-0.6321	53.4898	-2.57301	-12.4755	-1.51255	-0.467136	-1.3889	8.62608	0.427054	-0.312078
0.0513	-2.76128	50.1454	0.470673	-11.2513	0.324117	0.778561	0.126264	7.09966	0.732093	-0.312078
0.0520	-3.36011	32.7433	3.21626	-10.027	0.972352	1.40141	1.07324	8.00486	0.732093	-0.312078
0.0527	-1.23093	10.1691	5.34998	-12.7786	-0.270098	0.155712	0.126264	10.756	0.122016	-0.312078
0.0533	1.49708	9.54688	5.66376	-15.2154	-1.18843	-1.08998	-1.07324	14.4301	-0.488062	-0.312078
0.0540	2.12918	15.6522	5.05189	-2.70497	-0.270098	-0.155712	-0.441924	14.4301	-0.793101	-0.624156
0.0547	1.19766	10.7718	2.91817	17.7339	1.24245	1.71283	0.126264	8.32435	-1.40318	-0.624156
0.0553	-0.0332684	8.94413	-4.11054	20.7886	1.24245	1.71283	0.757584	2.21864	-0.488062	-0.312078
0.0560	-0.0332684	14.1356	-7.7661	13.1634	0.0540196	-0.155712	0.441924	1.59742	0.427054	0
0.0567	0.898247	19.6187	-4.70673	7.67185	-1.18843	-1.63498	-0.757584	4.65027	0.122016	-0.312078
0.0573	0.299416	17.791	-1.96114	4.31396	-0.270098	-0.778561	-0.757584	-2.36064	-0.183023	-0.624156
0.0580	-1.53035	10.7718	1.08255	3.39287	1.24245	0.778561	0.757584	-17.3232	0.122016	-0.312078
0.0587	-3.36011	8.94413	4.44001	3.69601	0.972352	1.08998	0.757584	-14.2703	0.122016	-0.624156
0.0593	-3.06069	9.54688	5.66376	3.08973	-0.594215	-0.155712	-0.757584	-3.58533	-0.183023	-1.87247
0.0600	-0.0332684	10.1691	7.1856	2.48344	-1.18843	-1.08998	-0.757584	-3.28359	0.732093	-1.56039
0.0607	1.19766	10.4607	5.05189	1.8655	0.0540196	-0.778561	0.126264	-2.36064	0.732093	-0.312078
0.0613	-0.0332684	7.71917	-1.66304	2.1803	0.972352	0.778561	-0.189396	0.692216	0.427054	-0.312078
0.0620	-0.332684	5.58036	-4.40863	2.48344	1.24245	1.71283	0.441924	0.692216	0.122016	-0.936235
0.0627	0.598831	4.6665	-3.79676	1.8655	0.0540196	0.467136	-0.189396	-0.83421	-0.488062	-0.624156
0.0633	0.598831	3.44154	-2.57301	0.338121	-1.78265	-1.08998	-1.07324	-1.13594	-0.183023	-0.312078
0.0640	-0.0332684	4.06374	-1.05117	0.338121	-1.51255	-0.778561	-0.757584	-0.532474	-0.183023	-0.624156
0.0647	-0.6321	4.9776	0.17258	4.6171	0.324117	0.778561	0.757584	-0.230739	0.122016	-0.624156
0.0653	-0.6321	4.37484	0.470673	11.9392	0.972352	0.778561	1.07324	0.0709966	0.427054	-0.312078
0.0660	-0.332684	3.14989	0.470673	14.6908	-0.594215	-0.467136	-0.189396	-0.230739	0.122016	-0.624156
0.0667	0.299416	1.92493	0.17258	7.67185	-1.78265	-1.08998	-1.07324	-2.36064	-0.183023	-0.624156
0.0673	0.299416	0.699975	0.17258	-0.874451	-0.864313	-0.778561	-0.189396	-3.88706	0.122016	-0.312078
0.0680	-0.332684	0.0972188	0.470673	-3.00811	0.972352	0.155712	1.07324	-3.28359	0.427054	-0.312078
0.0687	-0.6321	-0.213881	0.17258	-4.85029	1.24245	1.40141	1.07324	-2.36064	1.03713	-0.624156
0.0693	0.299416	-1.43884	-0.439294	-8.19652	-0.270098	1.08998	-0.189396	-3.28359	0.732093	-0.312078
0.0700	0.898247	-2.64435	-2.27492	-9.11761	-1.18843	-0.778561	-1.3889	-3.88706	0.732093	-0.312078
0.0707	-1.23093	-4.78316	-6.54235	-6.98395	-0.270098	-0.778561	-0.441924	-1.13594	1.03713	-0.312078
0.0713	-3.36011	-3.57765	-6.85613	-5.75972	1.56657	1.40141	0.441924	1.29569	0.732093	-0.624156
0.0720	-1.53035	3.14989	1.39633	-9.42075	1.56657	2.25783	0.126264	-0.83421	0.122016	-0.624156
0.0727	1.19766	6.49421	6.57373	-9.11761	-0.270098	0.467136	-0.189396	-3.58533	0.427054	-0.624156
0.0733	1.82976	3.75264	3.82814	-17.9671	-1.18843	-1.63498	-0.441924	-3.88706	0.427054	-0.624156
0.0740	1.19766	1.01108	1.99251	-68.9301	-0.594215	-1.40141	-0.189396	-2.96411	-0.183023	-0.312078
0.0747	-0.332684	1.32218	2.3063	-96.3995	0.972352	1.08998	0.757584	-2.0589	-0.793101	-0.312078
0.0753	-0.6321	1.01108	1.99251	-18.8881	1.56657	2.02426	1.07324	-1.45543	-1.70822	-0.624156
0.0760	0.299416	0.0972188	1.08255	71.7516	0.648235	1.08998	0.757584	-2.0589	-2.3183	-0.312078
0.0767	0.598831	-0.816638	-0.141202	71.7516	-0.594215	-1.08998	-0.757584	-2.96411	-1.70822	-0.312078
0.0773	-0.0332684	-1.12774	0.17258	32.3897	-0.594215	-0.778561	-0.757584	-2.66237	-1.09814	-0.312078
0.0780	-0.931515	-0.213881	1.39633	14.9939	0.972352	1.40141	1.3889	-1.13594	0.427054	0
0.0787	-1.23093	0.0972188	0.784454	9.80551	1.89068	1.08998	1.64143	-1.13594	0.427054	-0.312078
0.0793	-0.332684	-0.524981	-0.141202	5.22339	0.648235	0.467136	-0.441924	-2.0589	-0.488062	-0.624156
0.0800	0.598831	-1.43884	-0.439294	3.08973	-1.18843	-1.08998	-1.07324	-3.28359	-0.488062	-0.312078
0.0807	0.598831	-1.12774	-0.141202	3.08973	-0.864313	-1.08998	-0.441924	-2.66237	-0.488062	-0.312078
0.0813	-0.6321	-0.524981	0.17258	3.69601	0.648235	1.08998	0.126264	-1.45543	-0.183023	-0.312078
0.0820	-0.931515	-0.524981	0.17258	3.69601	0.648235	1.40141	0.441924	-1.45543	0.122016	-0.312078
0.0827	-0.0332684	-0.524981	2.3063	2.48344	-0.270098	0.155712	0.441924	-1.75716	-0.183023	-0.312078
0.0833	0.598831	-1.12774	2.91817	1.25921	-1.51255	-1.08998	-0.441924	-2.36064	-0.183023	-0.312078
0.0840	0.898247	-1.43884	0.470673	1.56235	-1.18843	-1.40141	-0.189396	-2.36064	-0.183023	-0.312078
0.0847	-0.332684	0.699975	0.470673	3.08973	0.648235	0.467136	0.757584	-1.75716	-0.183023	-0.624156
0.0853	-1.86303	2.83879	2.91817	3.39287	1.24245	1.08998	0.441924	-1.45543	0.122016	-0.312078
0.0860	-1.86303	4.37484	3.21626	2.1803	0.0540196	-0.467136	-0.189396	-1.75716	-0.183023	0
0.0867	-1.86303	5.2887	1.08255	0.956066	-1.51255	-1.63498	-0.441924	-2.66237	-1.09814	0
0.0873	-3.69279	3.44154	1.99251	1.25921	-0.270098	-0.155712	-0.441924	-2.0589	-0.183023	-0.312078
0.0880	-3.99221	2.23603	6.27563	2.1803	1.24245	0.778561	0.126264	-0.83421	0.122016	-0.312078
0.0887	-2.46186	4.37484	0.784454	1.8655	0.972352	0.467136	0.441924	-0.83421	-0.488062	-0.624156
0.0893	-0.0332684	2.23603	-10.8255	0.956066	-0.594215	-0.467136	-0.441924	-4.49053	-0.183023	-1.24831
0.0900	2.72801	-6.31922	-11.7354	0.652923	-1.18843	-1.40141	-1.70456	-12.1227	0.732093	-1.24831
0.0907	3.02742	-11.8024	-6.85613	1.25921	-0.270098	-0.155712	-0.441924	-17.0037	1.03713	-0.312078
0.0913	-0.6321	-10.8885	-5.3186	1.25921	0.648235	1.40141	0.441924	-16.0985	0.732093	0
0.0920	-2.76128	-9.06079	-6.85613	0.956066	1.24245	2.02426	0.757584	-6.33644	0.427054	-0.312078
0.0927	-0.931515	-10.8885	-8.98985	0.652923	0.648235	0.778561	0.126264	6.49619	0.122016	-0.312078
0.0933	-1.53035	-11.1996	-1.96114	-0.874451	-0.864313	-2.25783	-0.757584	16.2582	-0.488062	-0.312078
0.0940	-2.76128	-2.04159	19.0936	-0.571308	-0.864313	-1.40141	0.126264	17.7846	-0.183023	-0.312078
0.0947	-0.0332684	9.54688	29.7779	0.652923	0.648235	1.08998	0.757584	20.8375	0.122016	-0.312078
0.0953	2.12918	13.2218	18.7798	0.956066	1.56657	1.08998	1.07324	46.769	0.427054	-0.312078
0.0960	2.42859	10.1691	8.70744	-0.268165	0.324117	0.155712	0.757584	46.769	0.732093	-0.312078
0.0967	2.42859	8.34137	7.49938	-1.17759	-1.18843	-0.467136	-0.189396	-24.9375	0.122016	-0.312078
0.0973	0.898247	8.34137	8.70744	-0.571308	-0.594215	-0.778561	-0.189396	-74.9901	-0.183023	-0.312078
0.0980	-2.16245	-0.524981	9.02122	0.338121	0.324117	0.467136	0.441924	-39.9001	-0.183023	-0.312078
0.0987	-2.46186	-11.1996	-1.96114	0.338121	0.324117	1.71283	1.3889	4.34854	0.427054	0
0.0993	0.299416	-10.8885	-14.481	0.034978	-0.270098	0.778561	0.757584	6.49619	0.427054	0
0.1000	1.82976	-4.18041	-15.7048	-1.17759	-1.18843	-0.778561	-1.3889	-7.86287	-0.793101	-0.312078
0.1007	0.598831	0.408319	-15.0929	-1.17759	-0.270098	-0.467136	-1.70456	-17.0037	-0.793101	-0.312078
0.1013	-1.53035	1.61383	-12.9592	-0.268165	0.648235	0.778561	0.126264	-15.1755	0.122016	-0.312078
0.1020	-2.76128	-2.04159	-6.24426	-0.268165	0.324117	0.467136	1.07324	-11.5192	0.427054	-0.312078
0.1027	0.898247	-8.14693	-1.36495	-0.874451	0.0540196	-0.467136	0.441924	-18.8496	0.122016	0
0.1033	3.65952	-9.06079	-0.753076	-1.4924	-0.594215	-1.63498	-0.757584	-15.1755	-0.488062	0
0.1040	0.898247	-7.83583	-0.141202	-0.874451	-0.594215	-0.467136	-0.757584	-7.24165	-0.488062	-0.312078
0.1047	-1.53035	-8.45803	1.99251	-0.268165	0.648235	1.08998	0.441924	-17.9266	0.427054	-0.312078
0.1053	-1.86303	-8.14693	4.14192	0.034978	1.56657	0.778561	1.07324	-2.0589	0.427054	0
0.1060	-1.23093	-8.14693	5.05189	-0.268165	0.324117	-0.155712	0.126264	39.7581	-0.183023	0
0.1067	0.898247	-9.97464	-0.141202	-1.4924	-0.864313	-1.08998	-1.07324	43.7161	-0.488062	-0.312078
0.1073	2.72801	-8.14693	-9.28794	-0.874451	0.0540196	-0.467136	-0.441924	17.7846	0.122016	-0.312078
0.1080	2.42859	2.52769	-14.481	0.338121	0.972352	1.08998	1.07324	1.29569	0.122016	0
0.1087	1.19766	11.0829	-11.7354	0.956066	1.24245	0.778561	1.3889	-2.66237	-0.183023	0
0.1093	0.598831	8.94413	-4.11054	-0.268165	0.648235	0.155712	0.441924	-3.28359	-0.183023	-0.312078
0.1100	1.19766	4.37484	1.08255	-2.09868	-0.594215	-1.08998	-0.757584	-3.58533	-0.183023	-0.312078
0.1107	1.19766	1.92493	4.44001	-1.79554	-0.594215	-1.08998	-0.189396	-2.36064	-0.183023	-0.624156
0.1113	-0.332684	1.32218	7.1856	-0.571308	0.972352	1.08998	0.441924	0.993952	-0.488062	-0.624156
0.1120	-0.6321	0.408319	5.96185	-0.268165	1.24245	1.71283	0.441924	4.96976	0.122016	-0.624156
0.1127	0.598831	-2.95545	-0.141202	-0.571308	-0.270098	-0.467136	0.441924	-0.532474	0.427054	-0.312078
0.1133	2.12918	-5.09426	-5.02051	-1.79554	-1.51255	-1.40141	-0.757584	-7.24165	-0.183023	0
0.1140	2.12918	-2.95545	-4.70673	-1.17759	-0.594215	0.155712	-1.3889	-2.36064	-0.488062	-0.624156
0.1147	0.898247	-2.04159	-2.27492	0.034978	0.324117	0.778561	0.126264	-4.81002	-0.488062	-0.624156
0.1153	-1.23093	-2.95545	-1.96114	0.034978	0.648235	0.155712	1.07324	-14.8738	0.122016	-0.312078
0.1160	-1.23093	-0.524981	-2.88679	-0.571308	0.0540196	-0.467136	0.126264	-21.583	0.427054	-0.312078
0.1167	1.19766	1.61383	-2.57301	-1.79554	-1.18843	-1.08998	-1.70456	-36.2437	-0.183023	-0.312078
0.1173	1.19766	0.699975	0.470673	-1.17759	-0.270098	-0.155712	-1.3889	-38.3736	0.122016	-0.312078
0.1180	-0.6321	-2.35269	2.91817	0.652923	1.56657	1.08998	0.441924	-13.3474	0.122016	-0.312078
0.1187	-0.6321	-3.57765	1.99251	0.338121	1.56657	1.08998	0.757584	8.92782	0.122016	-0.312078
0.1193	-0.0332684	-2.35269	-0.439294	-0.571308	0.648235	0.467136	0.126264	17.7846	0.122016	-0.312078
0.1200	0.299416	-0.524981	-1.66304	-1.4924	-0.594215	-0.778561	-0.441924	27.5467	-0.183023	0
0.1207	0.299416	0.408319	-1.36495	-1.17759	-0.594215	-0.467136	-0.189396	38.5334	0.122016	-0.312078
0.1213	-0.6321	0.699975	0.17258	0.034978	0.0540196	0.778561	0.757584	33.6524	0.427054	-0.624156
0.1220	-0.931515	0.699975	1.99251	0.338121	0.648235	0.778561	0.757584	17.1634	0.427054	-0.312078
0.1227	0.299416	1.01108	1.39633	-0.571308	0.648235	-0.155712	0.126264	7.09966	0.427054	-0.312078
0.1233	1.19766	0.0972188	-0.141202	-0.874451	-0.594215	-1.08998	-0.757584	4.34854	-0.183023	0
0.1240	-0.0332684	-2.04159	0.17258	-1.17759	-1.18843	-1.08998	-1.3889	1.91691	-0.793101	-0.312078
0.1247	-1.53035	-3.86931	-1.36495	0.034978	0.648235	0.467136	-1.07324	-1.13594	0.427054	-1.24831
0.1253	-1.23093	-2.95545	-4.70673	1.56235	1.89068	1.71283	0.757584	-0.532474	1.64721	-0.624156
0.1260	-0.931515	-1.43884	-3.79676	0.034978	0.0540196	0.155712	0.126264	0.390481	0.427054	-0.624156
0.1267	-0.0332684	-2.35269	-1.05117	-0.571308	-1.18843	-0.778561	-1.70456	-4.1888	0.427054	-1.24831
0.1273	1.49708	-0.213881	0.470673	0.338121	-0.270098	0.467136	-0.757584	-4.49053	1.03713	-0.312078
0.1280	0.299416	3.75264	0.470673	0.338121	0.648235	0.155712	0.757584	-0.230739	-0.183023	0
0.1287	-0.931515	4.6665	0.470673	0.338121	0.972352	0.467136	1.3889	2.52038	-0.183023	-0.624156
0.1293	-0.332684	4.6665	1.39633	-0.268165	0.0540196	1.40141	0.441924	3.12385	0.122016	0
0.1300	0.898247	3.14989	0.784454	-1.4924	-1.18843	-0.467136	-1.07324	0.993952	-0.488062	0
0.1307	0.898247	0.408319	-0.141202	-1.17759	-0.864313	-1.63498	0.126264	-1.13594	-0.183023	0
0.1313	-0.0332684	1.01108	0.470673	0.034978	0.648235	0.155712	1.64143	-0.230739	0.122016	-0.312078
0.1320	-0.6321	3.44154	1.99251	0.338121	0.648235	1.71283	1.3889	0.692216	0.122016	-0.312078
0.1327	-0.332684	5.58036	3.21626	-0.571308	-0.594215	-0.155712	0.126264	-0.532474	-0.183023	-0.312078
0.1333	0.598831	7.42751	2.91817	-0.874451	-1.51255	-1.40141	-1.07324	-1.13594	-0.793101	-0.312078
0.1340	1.49708	7.11641	2.91817	0.034978	-1.18843	-0.778561	-0.757584	-0.83421	-0.793101	-0.312078
0.1347	0.898247	4.6665	2.91817	0.956066	0.324117	0.467136	0.757584	-0.532474	-0.183023	-0.312078
0.1353	-0.0332684	3.75264	2.3063	0.956066	0.972352	1.08998	0.757584	1.29569	0.427054	-0.312078
0.1360	0.598831	2.52769	-0.439294	-0.268165	0.0540196	0.778561	0.126264	2.82211	-0.183023	-0.312078
0.1367	1.49708	-6.31922	-3.18488	-1.4924	-0.594215	-0.155712	-1.07324	2.21864	-0.793101	-0.312078
0.1373	0.598831	-11.5107	-2.88679	-1.79554	0.0540196	-0.155712	-0.441924	2.21864	-0.183023	-0.312078
0.1380	-1.53035	-5.69702	-0.141202	-0.571308	0.972352	0.467136	0.757584	4.0468	0.732093	-0.312078
0.1387	-1.86303	-0.524981	1.08255	0.338121	0.972352	0.467136	1.07324	4.34854	0.427054	-0.312078
0.1393	-0.6321	2.23603	-0.439294	0.034978	0.324117	-0.155712	-0.189396	2.52038	-0.488062	-0.312078
0.1400	0.299416	1.32218	-1.96114	-0.874451	-1.18843	-1.08998	-1.3889	0.692216	-0.488062	-0.312078
0.1407	-0.332684	-4.78316	-1.66304	-1.17759	-1.18843	-1.08998	-0.189396	0.692216	0.122016	-0.312078
0.1413	-0.6321	-6.92198	-0.753076	0.034978	-0.270098	0.155712	1.07324	0.993952	0.427054	-0.312078
0.1420	-0.332684	-4.18041	0.470673	0.956066	0.648235	2.02426	0.441924	0.0709966	0.122016	-0.312078
0.1427	-0.931515	-2.64435	2.3063	0.338121	0.0540196	0.778561	-0.189396	-0.83421	-0.183023	-0.312078
0.1433	-0.332684	-3.26655	2.91817	-1.79554	-1.18843	-1.40141	-0.441924	-1.75716	-0.488062	-0.312078
0.1440	0.299416	-3.26655	1.69442	-0.874451	-0.594215	-0.467136	-0.189396	-2.36064	-0.183023	0
0.1447	-0.6321	-2.35269	1.08255	0.338121	0.324117	1.71283	0.757584	-0.83421	0.427054	0
0.1453	-1.23093	0.0972188	0.470673	0.034978	0.0540196	0.778561	0.441924	-2.36064	0.427054	0
0.1460	-0.6321	1.92493	0.17258	0.034978	-0.594215	-0.467136	0.441924	-5.71522	0.122016	-0.312078
0.1467	0.598831	2.23603	-0.439294	-0.268165	-1.51255	-0.778561	-0.189396	-5.11175	-0.488062	-0.312078
0.1473	-0.332684	8.63303	-1.05117	-0.268165	-0.594215	0.155712	-0.441924	-2.36064	-0.488062	-0.312078
0.1480	-1.86303	14.1356	-0.753076	0.652923	0.972352	1.71283	0.126264	-1.13594	-0.183023	-0.624156
0.1487	-3.06069	7.11641	-0.141202	0.338121	0.648235	1.08998	0.757584	-2.36064	-0.488062	-0.624156
0.1493	-4.59104	-4.49151	-1.96114	-0.268165	-0.270098	-1.08998	0.126264	-9.69103	0.122016	-1.56039
0.1500	-4.29162	-10.5968	-4.11054	-0.571308	-0.594215	-1.08998	-1.07324	-18.8496	1.34217	-1.24831
0.1507	-3.36011	-12.1135	-4.11054	-0.571308	0.0540196	-0.467136	-0.441924	-16.0985	0.427054	0
0.1513	-2.46186	-7.23308	-3.79676	-0.268165	0.0540196	-0.155712	0.441924	-4.81002	-0.183023	0
0.1520	-0.0332684	5.2887	-4.11054	1.56235	0.648235	1.40141	-0.189396	-0.83421	0.122016	-0.312078
0.1527	2.12918	8.94413	-3.79676	4.01082	0.648235	1.40141	-0.757584	-3.28359	-0.488062	-0.312078
0.1533	3.95894	1.92493	-0.439294	5.52653	-1.18843	-0.778561	-1.70456	-2.0589	-0.793101	-0.312078
0.1540	4.55777	0.0972188	3.21626	7.67185	-1.51255	-1.08998	-1.07324	8.62608	-0.183023	-0.312078
0.1547	3.32684	2.52769	1.39633	9.19923	0.0540196	0.467136	0.126264	21.441	-0.183023	0
0.1553	1.82976	4.37484	-1.36495	8.58128	0.972352	0.778561	0.757584	23.5709	0.122016	0
0.1560	1.19766	4.37484	-1.36495	7.35705	0.648235	-0.155712	0.441924	17.4652	0.427054	-0.312078
0.1567	0.898247	-0.213881	1.69442	6.75076	-1.18843	-1.08998	-0.189396	8.00486	0.122016	-0.312078
0.1573	-0.332684	-5.09426	6.57373	7.05391	-0.864313	-1.08998	-0.441924	0.692216	-0.183023	-0.312078
0.1580	-2.46186	-4.78316	8.09557	8.58128	0.972352	0.467136	0.441924	0.0709966	0.427054	-0.312078
0.1587	-2.16245	-4.78316	5.96185	9.19923	1.56657	1.40141	0.757584	1.59742	0.427054	-0.312078
0.1593	-0.0332684	-10.5968	6.27563	9.50237	0.324117	0.155712	0.757584	2.21864	0.122016	0
0.1600	0.299416	-10.8885	5.34998	10.4118	-1.18843	-1.40141	0.126264	-0.532474	-0.183023	-0.312078
0.1607	-0.6321	-2.35269	0.784454	-4.53549	-0.594215	-0.778561	-0.189396	-4.1888	-0.183023	-0.624156
0.1613	-0.6321	1.61383	1.99251	-30.4775	0.972352	1.40141	0.757584	-5.11175	-0.183023	-0.312078
0.1620	0.299416	-1.12774	0.784454	-37.1933	1.24245	2.02426	0.757584	-1.75716	-0.488062	-0.312078
0.1627	0.598831	-2.95545	-8.06419	-22.8523	0.324117	0.778561	-0.441924	4.65027	-0.488062	-0.312078
0.1633	0.898247	-2.35269	-8.67606	-10.3418	-0.864313	-1.63498	-1.3889	12.2824	-0.793101	-0.312078
0.1640	0.598831	-1.43884	-2.27492	-6.98395	-0.864313	-1.63498	-1.07324	17.1634	-0.793101	-0.312078
0.1647	-0.6321	-0.213881	1.39633	-5.75972	0.324117	0.778561	0.126264	33.0312	0.122016	-0.312078
0.1653	-0.931515	0.408319	7.1856	-4.85029	0.648235	1.40141	0.757584	56.531	0.427054	-0.312078
0.1660	-2.16245	0.0972188	11.7668	-5.75972	0.0540196	0.155712	0.441924	15.9565	-0.183023	-0.312078
0.1667	-3.06069	-0.816638	12.6768	-6.68081	-0.864313	-1.08998	-1.07324	-52.7149	-0.488062	-0.312078
0.1673	-1.86303	-1.12774	15.4224	-6.366	-0.864313	-1.40141	-1.3889	-42.6512	-0.488062	-0.624156
0.1680	-0.0332684	0.0972188	14.5124	-5.45657	0.0540196	0.155712	0.126264	-3.28359	-0.183023	-0.624156
0.1687	0.598831	1.61383	-2.88679	-5.45657	0.648235	1.08998	0.441924	3.12385	0.122016	0
0.1693	0.598831	1.32218	-24.8515	0.956066	0.0540196	0.467136	0.126264	-2.0589	0.122016	0
0.1700	1.19766	0.0972188	-22.7178	11.9392	-1.18843	-1.40141	-0.757584	-6.33644	-0.488062	-0.312078
0.1707	1.49708	-0.213881	-7.7661	14.376	-0.864313	-1.40141	-1.07324	-7.24165	-0.488062	-0.624156
0.1713	0.299416	1.01108	0.17258	7.67185	0.648235	0.467136	0.441924	-4.81002	0.122016	-0.312078
0.1720	-0.6321	1.32218	2.91817	2.78658	0.972352	1.40141	0.441924	-3.28359	0.427054	-0.312078
0.1727	-0.0332684	1.01108	3.53004	1.8655	0.0540196	1.08998	-0.189396	-3.58533	0.122016	0
0.1733	1.19766	0.408319	2.91817	0.338121	-0.594215	-0.778561	-0.441924	-3.88706	-0.183023	0
0.1740	1.19766	0.0972188	0.470673	-0.571308	-0.864313	-1.08998	-0.757584	-3.58533	-0.183023	-0.312078
0.1747	0.299416	1.01108	-4.70673	0.956066	0.648235	0.467136	0.441924	-2.0589	0.122016	-0.312078
0.1753	-0.931515	1.32218	-8.06419	1.25921	0.972352	0.467136	1.07324	-1.45543	0.427054	0
0.1760	-0.332684	1.32218	-5.3186	0.652923	0.0540196	-0.467136	0.126264	-1.75716	0.427054	-0.312078
0.1767	1.49708	1.32218	-2.27492	-0.571308	-0.594215	-1.40141	-0.757584	-2.96411	-0.183023	-0.312078
0.1773	1.49708	1.61383	-1.36495	-0.571308	-0.594215	-0.778561	-0.757584	-3.88706	0.122016	-0.312078
0.1780	0.299416	2.52769	-0.753076	0.652923	0.324117	0.778561	0.126264	-2.36064	0.732093	-0.312078
0.1787	-0.332684	1.01108	-1.05117	0.338121	0.324117	1.40141	0.126264	-1.75716	-0.183023	-0.312078
0.1793	-0.6321	-2.35269	-3.18488	0.338121	-0.270098	0.467136	-0.757584	-6.33644	-0.183023	-1.87247
0.1800	0.299416	-3.26655	-4.11054	0.956066	-0.594215	-1.08998	-1.3889	-8.46634	0.732093	-1.56039
0.1807	-0.0332684	-1.43884	-2.27492	0.956066	-0.594215	-1.08998	-0.441924	-3.58533	0.427054	0
0.1813	-1.23093	1.01108	0.470673	0.956066	0.0540196	0.467136	0.757584	-1.45543	-0.183023	-0.312078
0.1820	-0.332684	0.408319	2.60439	0.956066	0.0540196	1.08998	0.441924	-3.28359	0.427054	-0.312078
0.1827	0.898247	-0.524981	4.14192	0.652923	-0.270098	0.467136	-0.441924	-3.58533	0.427054	0
0.1833	1.19766	0.408319	5.96185	-0.268165	-0.594215	-0.778561	-0.757584	-0.532474	-0.488062	-0.312078
0.1840	0.598831	1.61383	8.70744	-0.571308	-0.594215	-1.40141	-0.189396	3.74507	-0.488062	-0.624156
0.1847	-0.6321	3.14989	9.6331	0.338121	0.324117	-0.155712	0.757584	4.65027	0.122016	-0.312078
0.1853	-1.53035	4.6665	4.7381	0.956066	0.324117	0.467136	1.07324	4.96976	0.427054	0
0.1860	-1.86303	4.06374	-2.88679	0.652923	0.0540196	0.155712	0.757584	0.0709966	0.122016	0
0.1867	-1.86303	0.699975	-6.24426	-0.874451	-1.51255	-1.63498	-0.441924	-13.0456	-0.488062	-0.312078
0.1873	-2.16245	1.32218	-9.89981	-0.268165	-1.51255	-1.40141	-0.189396	-13.9508	-0.183023	0
0.1880	-3.06069	4.37484	-12.6454	1.56235	0.972352	0.467136	0.757584	-2.0589	0.122016	-0.312078
0.1887	-2.46186	1.01108	-6.54235	1.56235	1.56657	1.08998	0.441924	1.91691	0.427054	-0.312078
0.1893	-0.6321	-2.35269	0.17258	0.652923	-0.270098	0.467136	-0.189396	4.65027	0.427054	0
0.1900	1.82976	-0.816638	0.470673	-0.874451	-1.51255	-0.778561	-0.757584	10.1525	-0.183023	0
0.1907	2.42859	0.699975	0.17258	-1.17759	-0.864313	-0.467136	-1.07324	8.32435	-0.183023	0
0.1913	1.19766	1.01108	1.08255	0.338121	0.0540196	0.778561	0.126264	4.0468	0.732093	0
0.1920	0.299416	0.0972188	1.08255	1.25921	0.324117	0.778561	0.126264	3.44333	0.427054	0
0.1927	0.299416	-2.04159	0.784454	0.652923	0.0540196	0.467136	-0.189396	0.993952	-0.488062	0
0.1933	1.19766	-2.95545	0.470673	-0.874451	-1.51255	-0.467136	-0.757584	-6.93991	-0.488062	-0.312078
0.1940	1.49708	-4.18041	1.08255	-1.17759	-1.51255	-0.778561	-0.441924	-13.9508	-0.488062	-0.624156
0.1947	-0.332684	-2.95545	5.66376	0.338121	-0.270098	0.467136	0.757584	-14.2703	0.122016	-0.312078
0.1953	-3.99221	4.06374	10.5431	0.956066	0.972352	0.778561	0.441924	-10.5962	0.122016	-0.312078
0.1960	-6.4208	11.0829	14.8105	0.338121	0.972352	0.467136	0.126264	-5.71522	0.122016	-0.624156
0.1967	-3.36011	16.8772	18.7798	-0.874451	-0.594215	-0.467136	-0.441924	-4.49053	0.122016	-0.312078
0.1973	0.299416	17.1883	14.8105	-0.874451	-0.594215	-1.08998	-0.189396	-11.5192	0.732093	-0.312078
0.1980	0.898247	7.42751	6.57373	0.338121	0.648235	0.467136	0.757584	-10.2945	0.732093	-0.312078
0.1987	1.19766	-1.73049	-1.96114	0.956066	0.972352	1.40141	0.126264	-0.532474	0.427054	0
0.1993	2.12918	-3.57765	-10.8255	0.034978	0.0540196	0.467136	-0.441924	0.390481	0.122016	-0.312078
0.2000	3.65952	-2.95545	-16.3167	-1.17759	-0.864313	-0.778561	-1.3889	-8.46634	-0.793101	-0.312078
0.2007	3.32684	-3.57765	-15.391	-1.17759	-0.864313	-1.08998	-2.02022	-17.3232	-0.793101	-0.312078
0.2013	0.299416	-4.18041	-8.98985	-0.268165	-0.270098	-0.155712	-0.189396	-17.9266	0.122016	-0.312078
0.2020	-2.16245	-3.57765	-6.24426	0.652923	0.972352	1.08998	1.3889	-4.1888	0.122016	-0.312078
0.2027	-1.53035	-7.83583	-4.40863	0.338121	0.972352	1.71283	0.441924	19.9145	0.122016	-0.312078
0.2033	-0.931515	-16.3911	-2.57301	-2.09868	-0.864313	-0.155712	-1.07324	36.7052	-0.183023	-0.312078
0.2040	-2.46186	-13.9412	-6.54235	-2.40183	-0.864313	-0.467136	-0.757584	41.888	-0.183023	-0.312078
0.2047	-2.76128	-2.35269	-8.37797	-0.874451	0.648235	0.467136	0.757584	44.9408	0.427054	-0.312078
0.2053	-1.53035	-0.524981	-9.28794	-0.874451	0.972352	0.778561	1.07324	27.5467	0.122016	-0.312078
0.2060	-1.23093	-4.78316	-15.7048	-3.32291	-0.270098	0.467136	0.126264	-23.7306	-0.488062	-0.312078
0.2067	1.19766	-2.35269	-12.9592	-6.06286	-1.51255	-1.08998	-1.07324	-63.3999	-0.793101	-0.624156
0.2073	3.32684	1.61383	-1.66304	-6.366	-1.18843	-1.08998	-0.441924	-56.6908	-0.183023	-0.624156
0.2080	2.42859	1.61383	4.7381	-6.366	0.648235	0.467136	0.441924	-31.0432	0.427054	-0.312078
0.2087	-0.0332684	4.6665	11.453	-7.59024	0.648235	0.467136	0.441924	-20.376	0.122016	-0.312078
0.2093	-1.23093	18.1021	18.7798	-7.89338	0.0540196	-1.08998	-0.441924	-28.9133	0.427054	-1.24831
0.2100	1.82976	27.8629	20.3174	-8.51132	-0.864313	-1.9464	-1.07324	-44.1776	1.34217	-1.56039
0.2107	2.42859	26.6379	17.8699	-11.8692	-0.594215	-0.778561	-0.441924	-45.704	1.64721	-0.312078
0.2113	-1.23093	21.7576	5.34998	-5.75972	0.648235	0.778561	0.441924	-11.2175	-0.488062	0
0.2120	-1.86303	17.791	-12.3473	16.2182	1.24245	1.71283	1.07324	36.084	-1.40318	-0.312078
0.2127	-0.332684	1.92493	-15.7048	24.1465	0.648235	0.778561	1.07324	33.6524	-0.183023	-0.312078
0.2133	-0.931515	-31.0322	-12.9592	15.6002	-1.18843	-1.63498	-0.189396	-2.36064	0.122016	-0.312078
0.2140	-1.86303	-49.3482	-12.0335	18.3518	-0.864313	-1.08998	-0.441924	-14.8738	-0.488062	-0.312078
0.2147	0.299416	-47.8122	-5.63238	18.9581	0.972352	1.40141	-0.189396	-24.9375	-0.488062	-0.624156
0.2153	2.42859	-49.0371	0.17258	0.956066	1.24245	1.08998	1.07324	-37.4507	0.427054	-0.624156
0.2160	1.82976	-49.951	1.08255	-18.5733	0.972352	0.467136	1.95709	-17.6249	0.427054	-0.312078
0.2167	0.898247	-46.8983	1.69442	-24.986	-0.594215	-0.467136	-0.189396	30.2978	-0.488062	-0.312078
0.2173	-0.0332684	-44.7595	1.99251	-22.8523	-0.594215	-0.778561	-0.441924	74.2447	0.122016	-0.624156
0.2180	-0.332684	-16.3911	2.3063	-21.3249	0.648235	0.467136	0.441924	76.3745	0.732093	-0.624156
0.2187	-0.0332684	45.2651	5.66376	-25.9071	0.972352	1.08998	0.757584	48.8989	0.122016	-0.312078
0.2193	-0.6321	67.8392	9.93119	-35.6659	0.972352	0.778561	0.441924	29.3748	-0.488062	-0.312078
0.2200	-0.0332684	38.2459	5.05189	-44.2122	-0.594215	-0.155712	-1.07324	20.2163	0.122016	-0.312078
0.2207	0.299416	15.3606	-4.40863	-46.3459	-0.864313	-0.778561	-0.757584	16.8617	0.427054	-0.312078
0.2213	-1.23093	8.34137	-5.02051	-45.4365	0.0540196	-0.778561	0.441924	15.0335	0.427054	-1.24831
0.2220	-0.332684	6.20256	-1.66304	-41.1575	0.972352	1.08998	0.441924	13.8088	1.64721	-0.936235
0.2227	1.49708	6.80531	-0.439294	-43.9091	0.324117	0.778561	0.441924	14.1106	1.03713	0
0.2233	1.82976	6.80531	1.39633	-45.7396	-1.18843	-1.40141	-1.07324	12.2824	-0.793101	-0.312078
0.2240	2.42859	5.89146	1.99251	11.636	-0.864313	-0.778561	-1.3889	10.4542	-1.40318	-0.312078
0.2247	1.49708	4.06374	-0.141202	95.56	0.324117	0.778561	0.126264	9.85077	-2.01326	0
0.2253	0.299416	3.14989	-1.05117	103.803	0.648235	1.08998	1.07324	8.62608	-2.62333	-0.312078
0.2260	-0.0332684	3.14989	-1.36495	57.4106	0.0540196	1.08998	0.441924	7.70313	-2.62333	-0.624156
0.2267	0.898247	2.52769	-1.36495	27.2013	-1.51255	-1.08998	-0.757584	5.57323	-2.01326	-0.312078
0.2273	0.598831	2.52769	-0.141202	18.3518	-0.864313	-1.63498	-0.441924	3.12385	-2.01326	-0.312078
0.2280	-0.332684	3.14989	0.470673	15.9033	0.324117	0.155712	0.441924	2.21864	-1.40318	-0.624156
0.2287	-1.23093	3.14989	-0.141202	18.0487	0.648235	0.467136	1.07324	2.21864	0.122016	-0.312078
0.2293	-1.23093	2.52769	-0.439294	25.0676	0.0540196	0.778561	0.441924	-0.532474	1.34217	-0.312078
0.2300	0.299416	1.92493	-0.141202	23.8434	-0.594215	-0.155712	-0.757584	-5.71522	1.64721	-0.624156
0.2307	0.598831	1.92493	0.470673	12.8603	-0.270098	-0.778561	-0.441924	-1.45543	2.56233	-0.312078
0.2313	0.299416	2.52769	1.39633	7.35705	0.648235	0.155712	0.441924	10.4542	2.25729	0
0.2320	0.299416	2.52769	1.99251	7.67185	0.972352	1.40141	-0.189396	14.4301	1.03713	-0.312078
0.2327	-0.0332684	1.61383	1.39633	7.05391	0.324117	0.467136	0.126264	9.85077	1.03713	-0.312078
0.2333	0.598831	1.01108	0.470673	5.22339	-0.864313	-1.63498	-0.757584	4.65027	0.427054	-0.312078
0.2340	0.898247	1.32218	0.470673	4.6171	-0.864313	-1.40141	-0.757584	3.12385	0.122016	-0.312078
0.2347	-0.332684	1.61383	1.08255	5.22339	0.324117	0.778561	0.126264	2.82211	0.427054	-0.312078
0.2353	-0.6321	1.32218	1.39633	5.22339	1.24245	1.40141	0.757584	1.91691	0.732093	-0.312078
0.2360	0.598831	0.408319	1.08255	4.01082	0.972352	0.778561	0.757584	0.692216	0.732093	-0.312078
0.2367	1.19766	0.0972188	0.470673	2.1803	-0.864313	-0.778561	-0.189396	-1.13594	0.427054	-0.312078
0.2373	0.898247	1.32218	0.784454	2.1803	-0.594215	-1.08998	-0.757584	-2.0589	0.427054	-0.312078
0.2380	-0.0332684	3.75264	1.99251	3.39287	1.24245	0.778561	-0.189396	-1.45543	1.03713	0
0.2387	-0.6321	5.58036	1.69442	3.39287	1.24245	1.08998	0.441924	-1.75716	0.732093	-0.312078
0.2393	-1.53035	5.89146	-0.753076	2.48344	0.0540196	-0.467136	0.126264	-5.11175	1.34217	-1.56039
0.2400	-0.0332684	4.9776	-2.27492	1.8655	-0.270098	-0.778561	-1.3889	-5.11175	1.64721	-1.56039
0.2407	0.299416	2.83879	-2.27492	0.956066	0.0540196	-0.155712	-1.07324	-1.13594	0.732093	-0.312078
0.2413	-1.86303	-1.73049	-3.18488	1.25921	0.972352	0.467136	0.441924	-2.96411	0.122016	0
0.2420	-2.46186	-2.95545	-2.88679	1.8655	0.972352	0.778561	1.07324	-9.69103	0.732093	-0.312078
0.2427	-1.86303	0.0972188	-0.753076	0.956066	-0.270098	0.155712	0.757584	-18.8496	0.732093	-0.312078
0.2433	-0.0332684	3.14989	1.99251	-0.571308	-0.864313	-0.778561	-0.441924	-33.4926	-0.183023	-0.624156
0.2440	1.82976	3.14989	3.53004	-0.571308	-0.594215	0.155712	-1.3889	-37.4507	-0.488062	-0.624156
0.2447	0.898247	-1.12774	2.60439	0.338121	0.324117	1.08998	-0.757584	-23.1094	-0.183023	-0.312078
0.2453	-0.332684	-3.57765	0.784454	0.338121	0.648235	1.08998	0.757584	-6.33644	0.427054	-0.312078
0.2460	0.299416	-2.04159	0.470673	-0.268165	-0.270098	0.155712	0.757584	11.0577	0.427054	-0.312078
0.2467	1.19766	-1.43884	2.3063	-0.874451	-1.18843	-1.08998	-0.189396	36.7052	-0.183023	-0.312078
0.2473	-0.0332684	-2.35269	5.96185	-1.17759	-0.864313	-0.467136	-0.189396	55.3241	0.122016	-0.312078
0.2480	-1.23093	-1.73049	7.79748	-0.571308	0.648235	0.778561	0.126264	50.7448	0.122016	-0.312078
0.2487	-1.23093	0.0972188	6.27563	0.034978	0.324117	1.08998	0.126264	43.1127	0.122016	-0.624156
0.2493	-0.6321	2.52769	5.05189	-0.571308	-0.594215	0.155712	0.126264	59.2821	0.427054	-0.624156
0.2500	0.299416	3.14989	4.44001	-2.09868	-1.18843	-1.9464	-0.441924	53.7976	-0.183023	-0.312078
0.2507	0.299416	-0.816638	4.7381	-2.09868	-1.18843	-1.08998	-1.07324	-15.1755	-0.793101	-0.312078
0.2513	-0.6321	-3.26655	3.82814	-0.874451	0.324117	1.40141	-0.189396	-68.2809	-0.183023	0
0.2520	-1.23093	-2.04159	-3.49867	-1.17759	0.972352	2.02426	1.07324	-53.9396	-0.183023	0
0.2527	-0.6321	-0.816638	-8.37797	-1.17759	0.324117	0.467136	0.757584	-25.257	-0.793101	-0.312078
0.2533	0.898247	-1.12774	-5.93047	2.48344	-0.864313	-1.40141	-0.441924	-14.572	-0.488062	-0.312078
0.2540	1.49708	-1.12774	-2.27492	7.97499	-1.18843	-0.778561	-0.441924	-13.0456	0.122016	-0.312078
0.2547	0.299416	0.408319	-0.753076	11.636	0.0540196	0.467136	-0.189396	-12.1227	0.122016	-0.312078
0.2553	-0.931515	0.699975	0.470673	14.0728	0.972352	1.08998	0.441924	-11.5192	0.427054	-0.312078
0.2560	-0.6321	-0.524981	0.17258	14.6908	0.324117	0.467136	0.126264	-10.5962	-0.183023	-0.624156
0.2567	0.898247	-1.12774	-0.753076	13.7697	-1.18843	-1.63498	-0.757584	-8.1646	-0.488062	-0.624156
0.2573	0.898247	-0.816638	-0.753076	15.6002	-1.51255	-1.63498	-0.757584	-3.58533	0.122016	-0.312078
0.2580	-0.332684	-0.213881	0.17258	18.3518	0.324117	-0.155712	-0.441924	3.44333	0.732093	0
0.2587	-0.6321	0.408319	0.17258	20.7886	0.324117	0.155712	0.441924	7.70313	1.03713	0
0.2593	-0.332684	0.408319	0.17258	22.6191	0.0540196	0.155712	0.126264	4.96976	0.732093	0
0.2600	-0.0332684	-1.43884	-1.05117	21.7097	-0.270098	-0.467136	-1.70456	-0.83421	0.427054	-0.312078
0.2607	0.299416	-1.73049	-1.05117	20.7886	-0.594215	-0.778561	-1.70456	-4.1888	0.732093	-0.624156
0.2613	-0.332684	0.699975	1.69442	26.2802	0.0540196	0.155712	-0.189396	-2.96411	1.34217	-0.312078
0.2620	-1.23093	3.75264	4.7381	11.0297	0.648235	1.08998	0.757584	-0.230739	0.427054	-0.312078
0.2627	-0.931515	5.58036	5.96185	-39.9449	0.324117	0.778561	0.441924	0.692216	-0.793101	-0.312078
0.2633	-0.0332684	5.89146	7.1856	-73.8153	-0.864313	-0.778561	-0.757584	-0.230739	-1.40318	-0.312078
0.2640	0.299416	5.89146	9.02122	-61.608	-0.594215	-1.08998	-1.07324	-0.532474	-1.70822	-0.312078
0.2647	-1.53035	6.80531	1.99251	-34.7565	0.324117	-0.155712	0.126264	2.82211	-1.40318	-0.312078
0.2653	-3.06069	6.80531	-10.5117	-17.6639	0.324117	0.155712	1.64143	5.57323	-0.488062	0
0.2660	-1.53035	0.0972188	-16.3167	-12.4755	-0.270098	0.155712	0.757584	4.0468	-0.183023	-0.624156
0.2667	1.49708	-6.92198	-11.4217	-12.4755	-1.18843	-1.08998	-0.441924	4.0468	-1.09814	-0.312078
0.2673	2.72801	-4.49151	-5.02051	-11.8692	-0.864313	-1.08998	-0.189396	3.44333	-0.793101	0
0.2680	1.49708	0.0972188	-6.24426	-9.7239	0.648235	0.467136	0.126264	-4.1888	-0.183023	0
0.2687	1.49708	3.44154	-3.79676	-9.42075	0.972352	-0.155712	0.441924	-7.86287	0.122016	-0.312078
0.2693	1.49708	8.34137	8.40935	-9.42075	0.0540196	-1.08998	-0.189396	-15.4773	0.122016	-1.24831
0.2700	0.898247	16.5661	16.0342	-8.51132	-0.864313	-1.08998	-1.70456	-31.9662	0.732093	-1.56039
0.2707	0.598831	24.4991	13.6024	-7.28709	-0.594215	-0.778561	-0.441924	-37.1489	0.732093	-0.312078
0.2713	-2.16245	26.6379	6.57373	-7.28709	0.648235	0.155712	0.441924	-16.0985	0.122016	0
0.2720	-4.59104	28.4657	4.14192	-7.28709	1.56657	1.08998	0.126264	27.5467	0.122016	-0.624156
0.2727	-5.18987	28.174	4.14192	-6.366	0.972352	0.155712	-0.189396	41.888	0.427054	-0.624156
0.2733	-4.89046	12.3079	-3.79676	-6.366	-0.864313	-1.40141	-0.757584	20.2163	-0.183023	-0.312078
0.2740	-2.76128	-26.4629	-13.2573	-6.98395	-1.78265	-1.40141	-1.3889	12.9036	-0.793101	-0.312078
0.2747	-1.86303	-66.731	-14.7791	-3.32291	-0.270098	-0.155712	-0.189396	4.34854	-0.793101	-0.624156
0.2753	-2.16245	-90.5496	-7.7661	5.84133	1.56657	0.778561	1.3889	-15.1755	-1.40318	-0.312078
0.2760	-2.76128	-105.793	2.60439	8.58128	0.972352	1.40141	0.757584	-13.6491	-2.01326	-0.312078
0.2767	-1.53035	-112.21	10.8568	2.48344	-0.270098	0.155712	-0.441924	-5.71522	-1.40318	-0.312078
0.2773	1.19766	-113.124	12.3787	-0.874451	-0.864313	-1.63498	-0.441924	-10.5962	-0.488062	-0.312078
0.2780	1.82976	-131.44	9.93119	-0.268165	-0.270098	-0.155712	1.07324	-14.2703	-0.183023	-0.312078
0.2787	0.898247	-145.478	12.0649	-2.40183	1.24245	1.40141	1.3889	-9.06981	-0.183023	-0.624156
0.2793	1.49708	-71.0086	7.1856	-7.59024	0.972352	0.778561	0.441924	-1.75716	0.122016	-0.312078
0.2800	3.02742	38.5375	-15.0929	-11.2513	-0.864313	-0.155712	0.126264	0.692216	-0.183023	0
0.2807	3.65952	67.5282	-25.4634	-11.8692	-1.51255	-1.08998	0.126264	0.390481	-0.793101	-0.312078
0.2813	3.32684	70.5808	-11.4217	-9.7239	0.0540196	-0.467136	0.126264	2.21864	-0.488062	-0.312078
0.2820	-0.6321	81.5665	-8.37797	-8.51132	0.648235	1.40141	0.757584	4.65027	-0.183023	-0.312078
0.2827	-3.99221	68.7531	-15.7048	-8.51132	-0.270098	0.155712	0.126264	4.34854	-0.488062	-0.312078
0.2833	-2.46186	51.9731	-4.70673	-7.59024	-1.18843	-1.63498	-1.3889	-5.71522	-1.09814	-0.312078
0.2840	-1.86303	47.6955	7.79748	-5.75972	-1.18843	-1.08998	-1.3889	-15.7967	-0.793101	-0.312078
0.2847	-4.59104	49.2316	6.88751	-3.62606	0.324117	-0.467136	0.441924	-13.6491	-0.488062	0
0.2853	-4.59104	47.0928	4.14192	-1.4924	1.24245	0.155712	1.3889	-6.93991	-0.793101	0
0.2860	-1.53035	38.2459	5.34998	0.956066	0.324117	0.778561	0.757584	3.74507	-0.793101	-0.312078
0.2867	0.598831	29.0879	4.14192	-2.70497	-1.18843	-0.155712	-0.441924	13.2054	-0.488062	-0.312078
0.2873	1.82976	24.2075	-2.57301	-0.268165	-0.594215	-0.467136	-0.757584	9.85077	-0.488062	0
0.2880	2.72801	20.5326	-6.54235	25.977	0.648235	1.08998	0.441924	-5.71522	-0.183023	-0.312078
0.2887	2.42859	13.8245	-4.11054	41.8454	1.24245	1.71283	0.441924	-25.8605	1.03713	-0.624156
0.2893	1.49708	9.54688	-1.66304	28.1107	0.648235	0.778561	-0.189396	-41.7282	1.95225	-0.624156
0.2900	1.82976	11.9968	-1.05117	21.0918	-0.864313	-1.08998	-0.189396	-38.9771	1.34217	0
0.2907	1.49708	16.2744	-0.141202	23.5402	-1.18843	-0.778561	-0.441924	-15.4773	0.427054	0
0.2913	0.598831	17.4799	-1.36495	18.655	0.324117	1.40141	-0.189396	-6.33644	0.122016	-0.312078
0.2920	-0.332684	16.8772	-5.63238	13.4665	1.24245	2.02426	0.757584	-10.2945	0.427054	-0.312078
0.2927	-0.6321	19.6187	-5.63238	16.2182	0.648235	0.155712	0.757584	26.6237	0.732093	-0.312078
0.2933	0.598831	22.6714	1.08255	17.7339	-0.594215	-1.40141	-0.189396	66.6125	0.427054	-0.312078
0.2940	1.19766	22.0687	5.66376	7.67185	-0.864313	-0.467136	-1.07324	51.0465	0.427054	0
0.2947	0.299416	13.2218	6.27563	2.78658	0.324117	1.08998	0.441924	15.637	1.34217	0
0.2953	0.299416	-6.00812	3.82814	7.97499	0.648235	2.02426	1.07324	-3.28359	1.34217	-0.312078
0.2960	1.19766	-17.616	-1.96114	5.84133	0.0540196	1.40141	0.441924	-6.33644	1.03713	-0.312078
0.2967	1.49708	-10.8885	-4.40863	0.034978	-0.270098	-1.08998	-0.189396	-4.49053	0.732093	0
0.2973	1.49708	-2.95545	-2.57301	3.69601	-0.594215	-1.40141	-0.441924	-8.1646	0.732093	0
0.2980	0.598831	0.0972188	-0.141202	12.8603	0.648235	0.467136	0.126264	-12.7439	1.34217	0
0.2987	-0.332684	1.61383	0.470673	19.5644	0.972352	0.778561	0.757584	-15.1755	1.34217	-0.624156
0.2993	-0.6321	-0.816638	-0.439294	22.6191	0.0540196	-0.467136	-0.757584	-11.2175	1.64721	-1.56039
0.3000	0.598831	-1.73049	-0.753076	23.5402	0.0540196	0.155712	-0.757584	8.00486	1.95225	-0.936235
0.3007	0.598831	-1.43884	-1.05117	23.5402	-1.18843	-0.778561	-1.07324	19.9145	0.732093	-0.936235
0.3013	-0.931515	-2.35269	-0.753076	25.3707	-0.864313	-1.08998	-0.757584	10.756	1.34217	-1.56039
0.3020	-0.6321	-0.524981	0.784454	10.4118	0.972352	0.778561	0.757584	4.65027	1.95225	-0.312078
0.3027	-0.0332684	0.699975	0.784454	-32.6112	0.972352	1.71283	0.126264	4.0468	-0.488062	0
0.3033	0.898247	-0.524981	0.17258	-68.0206	-0.864313	0.155712	-0.757584	0.993952	-2.92837	-0.312078
0.3040	1.19766	-0.524981	0.470673	-65.269	-0.864313	-0.467136	-0.441924	0.0709966	-3.23341	0
0.3047	-0.0332684	0.408319	0.470673	-39.0238	0.648235	0.778561	0.441924	1.59742	-2.62333	-0.312078
0.3053	-0.931515	0.699975	0.17258	-19.4944	1.24245	1.08998	1.07324	1.91691	-1.40318	-0.312078
0.3060	-0.931515	0.0972188	-0.141202	-12.7786	0.324117	0.467136	0.757584	1.29569	-0.488062	0.312078
0.3067	0.299416	-0.524981	-0.439294	-10.645	-0.864313	-0.467136	-0.757584	0.0709966	-0.793101	0
0.3073	1.19766	-0.524981	-0.141202	-9.11761	-0.270098	-0.467136	-1.07324	-0.532474	-0.793101	-0.312078
0.3080	-0.0332684	0.408319	0.470673	-6.98395	0.648235	0.778561	1.07324	0.692216	-0.183023	-0.312078
0.3087	-0.332684	0.699975	0.784454	-5.75972	0.648235	1.08998	1.3889	1.29569	0.122016	0
0.3093	-0.332684	0.699975	0.784454	-5.75972	0.648235	0.467136	0.757584	0.390481	-0.183023	-0.312078
0.3100	-0.0332684	-0.213881	0.17258	-6.366	-0.270098	-0.778561	-0.441924	-0.230739	-0.183023	-0.312078
0.3107	0.299416	-0.816638	-0.141202	-6.366	-1.18843	-1.40141	-1.70456	-0.532474	-0.488062	-0.312078
0.3113	-0.332684	-0.213881	0.470673	-4.85029	0.324117	0.467136	-0.441924	0.0709966	-0.183023	-0.312078
0.3120	-0.6321	0.0972188	0.784454	-3.9292	1.56657	1.40141	0.757584	0.993952	0.122016	0
0.3127	-0.332684	-0.213881	0.470673	-3.32291	0.972352	-0.467136	0.441924	0.692216	0.122016	0
0.3133	0.299416	-0.524981	0.470673	-1.17759	-0.594215	-1.9464	-0.189396	-0.230739	0.122016	0
0.3140	0.299416	-1.12774	0.470673	0.338121	-1.51255	-1.08998	-0.757584	-0.532474	-0.488062	0
0.3147	-0.332684	-0.524981	1.08255	3.08973	0.0540196	0.778561	-0.189396	0.0709966	-0.793101	-0.312078
0.3153	-0.6321	0.408319	1.39633	6.14448	1.24245	1.40141	0.757584	0.390481	0.427054	-0.312078
0.3160	-0.6321	0.0972188	0.784454	6.44762	0.972352	1.08998	0.757584	0.0709966	0.427054	-0.312078
0.3167	0.299416	-0.816638	-0.141202	4.31396	-0.270098	0.467136	-0.757584	-0.83421	-0.488062	-0.312078
0.3173	0.598831	-1.12774	-0.141202	5.22339	-0.594215	-0.778561	-1.3889	-0.83421	-0.488062	0
0.3180	0.299416	-0.524981	0.470673	7.67185	0.648235	0.467136	-0.189396	0.0709966	0.122016	-0.312078
0.3187	-0.931515	-0.816638	0.470673	7.05391	0.648235	1.08998	0.126264	0.390481	0.122016	-0.312078
0.3193	-0.931515	-0.816638	0.470673	6.14448	0.0540196	-0.155712	0.441924	0.0709966	-0.793101	-0.312078
0.3200	0.898247	-0.213881	-0.141202	5.22339	-0.594215	-0.778561	-0.189396	-1.13594	-0.488062	-0.312078
0.3207	1.49708	1.32218	-1.66304	5.22339	-0.864313	-0.778561	-1.07324	-1.45543	0.122016	-0.312078
0.3213	-0.332684	3.14989	-2.27492	-4.23234	0.0540196	-0.155712	-0.441924	-0.532474	-0.183023	-0.312078
0.3220	-0.6321	4.37484	-2.57301	-30.7807	0.648235	0.467136	0.757584	-0.83421	-0.793101	-0.312078
0.3227	0.299416	4.9776	-3.18488	-45.4365	0.324117	-0.155712	0.441924	-2.0589	-0.793101	-0.312078
0.3233	-0.332684	3.75264	-2.88679	-36.2722	-0.864313	-1.08998	-1.07324	-3.88706	0.122016	-1.24831
0.3240	-0.332684	1.61383	0.784454	-24.3797	-0.864313	-0.778561	-1.70456	-5.41349	1.03713	-0.936235
0.3247	-0.6321	1.92493	3.82814	-19.7976	0.324117	0.155712	-0.189396	-4.81002	1.03713	0
0.3253	-1.23093	1.92493	4.44001	-19.7976	0.648235	0.467136	0.757584	-4.1888	0.732093	-0.312078
0.3260	-0.0332684	-1.12774	4.7381	-22.8523	0.0540196	0.467136	0.126264	-4.1888	0.427054	-0.312078
0.3267	0.898247	-4.18041	1.39633	-17.9671	-0.864313	-0.778561	-0.757584	-0.83421	-1.09814	-0.312078
0.3273	-0.332684	-3.86931	-1.05117	2.1803	-0.864313	-1.40141	-1.3889	4.34854	-1.70822	-0.624156
0.3280	-1.53035	-2.64435	2.60439	14.376	0.648235	0.155712	-0.189396	3.12385	-0.793101	-0.312078
0.3287	-0.931515	-1.43884	1.39633	7.97499	0.648235	0.155712	0.757584	-1.45543	0.122016	0
0.3293	-0.332684	-0.816638	-3.79676	4.92024	-0.594215	-1.40141	-0.441924	-6.63818	0.122016	-1.56039
0.3300	0.299416	-7.54418	-1.36495	14.6908	-0.594215	-1.63498	-1.07324	-13.9508	1.03713	-1.56039
0.3307	1.19766	-14.855	4.14192	22.316	-0.864313	-1.40141	-0.189396	-12.7439	1.03713	0
0.3313	0.598831	-10.8885	10.245	18.0487	0.324117	0.155712	0.757584	-4.81002	-0.183023	0
0.3320	-0.0332684	-19.1327	16.6461	14.9939	1.56657	1.71283	0.757584	-0.230739	-1.70822	-0.312078
0.3327	-0.0332684	-59.7118	18.168	16.8244	0.648235	1.71283	0.441924	-3.88706	-1.70822	-0.312078
0.3333	-0.6321	-89.9274	13.9005	12.8603	-1.18843	-0.467136	-0.441924	-11.8209	-1.09814	-0.312078
0.3340	-2.46186	-92.6884	12.3787	7.97499	-1.51255	-1.08998	-0.757584	-6.63818	-0.488062	-0.312078
0.3347	-3.36011	-78.9416	10.8568	7.67185	0.324117	0.467136	0.441924	12.9036	0.122016	0
0.3353	-2.16245	-2.04159	-8.67606	7.35705	1.24245	1.40141	0.757584	29.6766	0.122016	0
0.3360	-2.16245	96.8299	-31.2683	6.14448	0.972352	1.08998	0.441924	26.322	-0.183023	-0.312078
0.3367	-3.69279	104.16	-25.4634	4.31396	-0.594215	-0.778561	-0.441924	5.87497	-0.183023	-0.312078
0.3373	-1.86303	59.9062	-3.79676	2.78658	-1.18843	-1.08998	-1.07324	-7.54338	-0.183023	0
0.3380	-0.0332684	30.3128	9.93119	1.56235	0.324117	1.08998	0.126264	-9.06981	0.427054	0
0.3387	0.299416	6.80531	7.49938	-0.571308	0.972352	1.40141	0.757584	-8.1646	1.03713	0
0.3393	2.42859	1.61383	-6.24426	-0.571308	0.648235	0.467136	1.07324	-7.24165	1.34217	-0.312078
0.3400	5.1566	8.63303	-10.5117	0.652923	-0.594215	-0.467136	-0.189396	-7.86287	0.427054	-0.312078
0.3407	3.32684	6.80531	-9.60172	0.956066	-1.18843	-1.40141	-0.757584	-8.76807	-0.183023	0
0.3413	-0.931515	2.83879	-12.9592	2.48344	0.324117	-0.778561	0.441924	-7.24165	0.427054	0
0.3420	-2.16245	2.83879	-10.5117	2.78658	0.972352	0.467136	0.757584	-5.41349	1.03713	-0.312078
0.3427	-2.46186	3.44154	-4.11054	2.1803	0.324117	0.155712	0.441924	-5.11175	0.427054	-0.312078
0.3433	-2.46186	3.75264	-0.439294	1.8655	-0.864313	-1.40141	-0.441924	-3.58533	-0.183023	0
0.3440	-1.53035	6.20256	2.91817	-2.70497	-0.864313	-1.40141	-1.07324	0.0709966	0.122016	-0.312078
0.3447	-1.23093	8.03027	4.14192	-12.7786	0.648235	0.467136	0.441924	3.44333	0.732093	-0.312078
0.3453	-0.332684	5.2887	1.99251	-20.1007	0.648235	1.08998	1.07324	-0.532474	0.732093	-0.312078
0.3460	1.19766	1.61383	0.470673	-22.8523	0.324117	0.467136	0.126264	-9.99277	0.427054	-0.312078
0.3467	1.19766	-0.524981	-2.57301	-27.1196	-1.18843	-1.63498	-0.757584	-2.96411	0.427054	0
0.3473	-0.0332684	2.52769	-1.96114	-29.5681	-1.51255	-2.56925	-1.07324	27.2449	0.122016	0
0.3480	-0.332684	7.71917	3.53004	-29.2533	-0.270098	-1.08998	0.126264	49.2184	0.427054	-0.312078
0.3487	0.299416	5.58036	-2.57301	-31.0955	0.0540196	0.155712	0.757584	46.769	0.732093	-0.312078
0.3493	0.598831	1.61383	-8.98985	-34.4417	0.0540196	0.467136	0.126264	33.9541	1.03713	0
0.3500	2.12918	3.75264	-0.753076	-39.0238	-0.594215	-1.08998	-0.441924	32.7294	0.732093	-0.312078
0.3507	3.02742	4.37484	4.7381	-39.9449	-1.18843	-1.63498	-0.757584	41.2845	1.03713	0
0.3513	1.82976	1.01108	3.53004	-40.2481	-0.270098	-0.155712	0.126264	7.09966	1.34217	0
0.3520	0.898247	-1.73049	4.44001	-44.5154	0.972352	0.467136	0.757584	-49.6621	1.03713	-0.312078
0.3527	-0.0332684	0.0972188	4.7381	-0.874451	0.648235	0.467136	0.441924	-48.1357	-0.183023	-0.312078
0.3533	-0.0332684	4.37484	2.91817	89.7653	-0.270098	-0.778561	-0.189396	-17.9266	-1.70822	0
0.3540	-0.0332684	1.32218	-0.753076	121.805	-0.594215	-0.778561	-1.07324	-14.572	-1.70822	0
0.3547	-1.53035	-4.49151	-7.7661	81.5222	0.324117	0.778561	0.126264	-15.4773	-0.488062	-0.312078
0.3553	-2.46186	-2.95545	-13.5711	38.1844	0.972352	1.40141	1.07324	-6.01696	0.427054	-0.312078
0.3560	-2.16245	1.61383	-9.28794	17.7339	1.24245	1.71283	0.757584	-1.75716	0.427054	0
0.3567	-0.0332684	3.44154	-1.05117	13.7697	0.0540196	0.155712	-0.441924	-5.71522	-0.793101	-0.312078
0.3573	1.49708	4.37484	2.3063	13.4665	-0.594215	-0.778561	-0.441924	-13.6491	-1.09814	-0.312078
0.3580	1.49708	6.20256	1.39633	12.2423	0.648235	0.778561	0.126264	-19.7548	-0.793101	-0.312078
0.3587	-0.0332684	4.37484	-0.753076	10.4118	0.324117	0.778561	-0.189396	-20.9795	-0.793101	-0.936235
0.3593	-2.16245	-2.35269	-2.57301	8.88442	-0.270098	-0.155712	-0.189396	-29.5168	0.732093	-1.87247
0.3600	-1.53035	-3.86931	-1.96114	8.27814	-0.594215	-0.467136	-0.441924	-30.138	1.64721	-1.24831
0.3607	-0.0332684	-0.213881	-0.439294	7.05391	-0.594215	-0.467136	-1.07324	-3.88706	0.732093	-0.312078
0.3613	0.299416	-2.35269	0.17258	7.05391	-0.270098	0.155712	-0.189396	25.4168	-0.183023	0
0.3620	1.49708	-6.92198	1.08255	7.35705	0.324117	0.467136	0.441924	32.7294	-0.183023	0
0.3627	1.82976	-6.92198	1.69442	6.14448	0.324117	0.467136	0.441924	21.1392	-0.183023	-0.312078
0.3633	2.12918	-6.00812	1.39633	4.01082	-0.594215	-0.778561	-0.441924	8.92782	-0.183023	-0.312078
0.3640	1.82976	-5.40536	3.21626	3.69601	-1.18843	-1.08998	-0.441924	5.87497	0.427054	0
0.3647	-0.6321	-0.816638	5.05189	5.22339	0.324117	1.08998	0.441924	7.40139	0.732093	-0.312078
0.3653	-1.53035	5.89146	4.14192	5.52653	0.972352	1.71283	0.441924	8.92782	0.427054	-0.312078
0.3660	-1.53035	7.42751	3.82814	5.22339	0.648235	0.778561	0.441924	8.32435	0.427054	0
0.3667	-1.86303	2.83879	1.39633	3.69601	-0.270098	-0.778561	-0.757584	0.390481	0.122016	0
0.3673	-1.86303	3.44154	-8.37797	2.1803	-0.270098	-1.08998	-1.07324	-7.86287	0.122016	0
0.3680	-1.53035	13.5134	-17.2266	2.78658	1.24245	0.778561	0.441924	-10.2945	0.427054	-0.312078
0.3687	-1.23093	19.9298	-14.1672	4.31396	1.56657	1.40141	0.441924	-13.0456	-0.183023	-0.312078
0.3693	-1.86303	17.791	-5.3186	4.01082	0.648235	0.778561	-0.189396	-14.8738	-0.183023	-0.312078
0.3700	-3.69279	16.2744	-1.96114	0.034978	-0.864313	-0.467136	-0.441924	-10.2945	-0.183023	-0.312078
0.3707	-2.76128	20.2409	-0.753076	-2.40183	-1.51255	-1.40141	-0.441924	-6.01696	0.122016	-0.312078
0.3713	-0.0332684	11.0829	3.82814	-0.874451	-0.594215	-0.467136	0.441924	-8.1646	0.732093	-0.312078
0.3720	0.898247	-11.5107	10.5431	0.956066	-0.270098	0.778561	1.3889	3.44333	1.03713	0
0.3727	0.898247	-20.0465	16.9599	0.034978	-0.270098	0.155712	1.3889	26.9432	1.03713	-0.312078
0.3733	3.02742	-12.1135	18.7798	-0.268165	-1.18843	-0.778561	-1.07324	26.0202	0.427054	-0.312078
0.3740	3.02742	-1.73049	15.7362	0.652923	-1.51255	-1.08998	-1.3889	16.2582	0.427054	-0.312078
0.3747	0.898247	3.75264	8.40935	1.8655	-0.270098	-0.467136	0.441924	21.1392	0.427054	-0.312078
0.3753	1.49708	4.06374	0.17258	3.69601	0.324117	0.778561	0.757584	-2.66237	0.122016	-0.312078
0.3760	3.02742	-0.816638	0.784454	3.08973	0.0540196	-0.155712	1.3889	-55.7678	0.122016	-0.312078
0.3767	3.02742	-6.31922	2.60439	-0.571308	-0.864313	-1.63498	0.757584	-69.5056	-0.793101	-0.624156
0.3773	0.898247	-7.23308	-4.70673	-0.874451	-0.864313	-0.778561	-0.189396	-33.4926	-1.09814	-0.312078
0.3780	-2.16245	-8.45803	-12.6454	1.8655	0.648235	0.467136	0.441924	-3.88706	0.427054	-0.624156
0.3787	-2.16245	-13.3384	-9.60172	15.9033	1.24245	0.778561	1.3889	-11.2175	1.03713	-0.312078
0.3793	0.299416	-18.8216	-5.63238	29.0318	0.648235	1.40141	0.441924	-29.2151	0.427054	-0.312078
0.3800	1.49708	-30.7211	-10.2136	5.22339	-0.594215	0.467136	-1.07324	-34.3978	-1.40318	-0.312078
0.3807	1.82976	-42.0179	-7.46801	-29.2533	-0.864313	-1.08998	-0.757584	-41.1248	-2.92837	-0.312078
0.3813	2.72801	-43.554	0.784454	-31.3986	-0.270098	0.155712	0.757584	-48.1357	-2.3183	-0.312078
0.3820	2.72801	-43.8457	1.39633	-16.7428	0.324117	1.40141	1.07324	-38.3736	-1.09814	-0.312078
0.3827	0.598831	-45.3817	0.470673	-8.19652	0.648235	0.778561	1.07324	-11.8209	-0.183023	-0.312078
0.3833	-0.6321	-46.2956	1.99251	-6.68081	-0.864313	-1.08998	-0.189396	34.2558	-0.793101	-0.312078
0.3840	-1.53035	-62.4728	4.44001	-5.75972	-1.51255	-1.40141	-0.757584	68.7424	-0.793101	-0.312078
0.3847	-4.29162	-72.2335	10.245	-3.62606	0.0540196	0.155712	-0.441924	52.573	-0.488062	-0.312078
0.3853	-4.89046	-2.04159	18.7798	-2.09868	0.972352	1.08998	0.126264	27.2449	0.122016	-0.312078
0.3860	-0.931515	85.2414	23.9729	-1.4924	0.972352	0.467136	1.07324	16.5599	0.427054	-0.312078
0.3867	2.72801	63.27	13.6024	-1.79554	0.0540196	-0.467136	0.126264	-10.2945	0.427054	0
0.3873	2.72801	-4.18041	-2.88679	-1.79554	-0.594215	-0.778561	-0.757584	-29.2151	-0.183023	-0.312078
0.3880	1.49708	-33.4821	-5.63238	-0.268165	0.648235	0.467136	0.757584	2.82211	0.427054	-0.312078
0.3887	0.299416	-52.4009	-7.7661	-0.571308	1.24245	1.08998	1.07324	67.5177	0.427054	-0.312078
0.3893	-0.332684	-75.2862	-19.0622	-1.4924	0.0540196	0.155712	-0.189396	94.6917	0.122016	-0.936235
0.3900	1.82976	-99.0854	-17.2266	-1.4924	-1.18843	-0.467136	-1.07324	70.5706	1.34217	-1.24831
0.3907	3.02742	-111.607	-4.11054	-1.17759	-1.18843	-0.778561	-0.189396	55.6258	1.03713	-0.312078
0.3913	2.42859	-59.109	4.14192	-1.17759	-0.270098	-0.155712	0.441924	69.6654	0.122016	-0.312078
0.3920	2.42859	39.7625	9.6331	-0.571308	0.324117	0.778561	0.757584	57.7557	0.122016	-0.624156
0.3927	2.12918	74.8584	12.3787	-0.571308	0.324117	-0.467136	0.757584	-14.2703	0.732093	-0.312078
0.3933	1.82976	56.8535	6.27563	-1.79554	-0.864313	-1.08998	-0.757584	-67.358	-0.183023	-0.624156
0.3940	1.82976	67.2365	-5.3186	-1.4924	-0.864313	-0.155712	-1.70456	-51.8097	-0.793101	-0.624156
0.3947	0.299416	81.8776	-10.5117	-0.268165	0.0540196	0.467136	0.126264	-19.4531	-0.183023	-0.312078
0.3953	-0.931515	65.4088	-8.06419	0.034978	0.972352	1.08998	1.07324	-5.11175	0.427054	0
0.3960	-1.86303	43.1262	-5.63238	-0.571308	0.972352	0.778561	0.441924	-3.58533	0.427054	-0.312078
0.3967	-1.53035	29.399	-5.93047	-1.4924	0.0540196	-0.467136	-0.189396	-5.41349	0.122016	-0.624156
0.3973	-1.53035	21.4465	-6.54235	-1.4924	-0.594215	-0.778561	-0.441924	-4.81002	0.427054	-0.312078
0.3980	-3.69279	18.1021	-6.54235	0.034978	0.324117	0.155712	0.126264	-2.36064	0.732093	0
0.3987	-4.89046	17.4799	-7.15422	0.652923	0.972352	0.778561	1.07324	-2.0589	0.427054	-0.312078
0.3993	-3.69279	19.6187	-8.67606	-0.268165	0.324117	0.155712	1.3889	-2.0589	0.427054	-0.312078
0.4000	-3.36011	21.4465	-9.89981	-0.874451	-0.594215	-0.778561	-0.189396	-2.96411	-0.183023	0
0.4007	-4.59104	17.4799	-11.1236	-1.17759	-0.270098	-1.40141	-1.07324	-5.71522	-0.488062	-0.312078
0.4013	-3.99221	10.4607	-7.46801	-0.571308	0.648235	0.155712	0.441924	-6.01696	0.122016	-0.624156
0.4020	-2.76128	9.54688	2.60439	0.338121	0.324117	1.71283	0.126264	2.82211	0.122016	-0.624156
0.4027	-2.46186	12.5996	16.9599	0.338121	-0.864313	0.467136	-0.189396	17.4652	-0.488062	-0.312078
0.4033	-0.6321	6.49421	27.3304	-0.268165	-1.51255	-1.08998	-0.441924	23.2691	-0.793101	-0.312078
0.4040	3.02742	-4.78316	19.0936	-1.17759	-1.51255	-1.08998	-1.3889	16.2582	-0.488062	-0.312078
0.4047	3.65952	-25.8407	8.40935	-3.62606	-0.594215	0.155712	0.126264	8.62608	-0.183023	-0.312078
0.4053	2.72801	-46.2956	5.34998	-6.06286	0.972352	1.40141	1.07324	4.34854	0.427054	-0.624156
0.4060	2.42859	-20.6493	-8.98985	-7.59024	0.324117	1.40141	0.126264	3.74507	0.427054	-0.312078
0.4067	1.82976	24.8102	-20.286	-8.51132	-1.18843	-1.08998	-0.441924	11.9807	-0.488062	0
0.4073	0.598831	33.3655	-12.3473	-7.89338	-0.864313	-1.40141	-0.441924	19.6128	-0.793101	0
0.4080	-0.332684	21.7576	-5.3186	-5.45657	0.648235	0.155712	0.441924	15.3353	-0.183023	-0.312078
0.4087	-1.23093	18.1021	-4.11054	-4.23234	0.972352	1.40141	1.3889	4.65027	0.427054	-0.312078
0.4093	-0.931515	20.2409	-0.753076	-3.00811	0.324117	0.778561	1.07324	-1.75716	-0.183023	-0.312078
0.4100	-0.332684	18.1021	3.21626	-2.70497	-0.594215	-0.778561	0.126264	-2.0589	-1.40318	-0.312078
0.4107	-0.0332684	13.8245	6.27563	-2.70497	-0.864313	-1.40141	-0.441924	-1.75716	-1.70822	-0.312078
0.4113	-0.332684	11.0829	7.79748	-0.571308	0.0540196	0.467136	-0.189396	-2.96411	-1.40318	-0.624156
0.4120	-0.931515	11.394	7.79748	1.8655	0.324117	1.40141	0.757584	-2.96411	-1.09814	-0.624156
0.4127	-0.6321	15.6522	8.40935	2.1803	0.0540196	0.778561	0.757584	-2.0589	-1.09814	-0.624156
0.4133	0.898247	15.9633	7.79748	1.8655	-0.864313	-1.08998	-0.757584	-3.58533	-1.09814	-0.312078
0.4140	1.19766	10.4607	-0.141202	6.44762	-0.864313	-1.40141	-1.07324	-3.88706	-0.183023	-0.312078
0.4147	-0.0332684	8.94413	-7.15422	16.2182	0.972352	0.155712	0.441924	-2.0589	1.34217	-0.312078
0.4153	-1.23093	10.1691	-5.93047	16.2182	1.56657	0.778561	1.07324	-2.0589	2.25729	-0.312078
0.4160	-0.931515	9.25523	-3.18488	5.22339	0.972352	1.08998	0.757584	-2.36064	2.86737	-0.312078
0.4167	-0.332684	5.2887	-2.57301	-0.874451	-0.270098	0.467136	-0.189396	-2.0589	1.64721	-0.312078
0.4173	-0.6321	1.61383	-2.27492	-0.571308	-0.864313	-1.08998	-1.07324	-1.75716	1.03713	-0.312078
0.4180	-0.931515	0.0972188	-1.05117	1.25921	0.324117	0.155712	-0.189396	-0.230739	1.03713	0
0.4187	-0.931515	-4.18041	-0.439294	1.56235	0.648235	1.40141	0.441924	-0.532474	0.427054	-0.312078
0.4193	-0.6321	-8.74969	-0.439294	1.56235	0.324117	0.778561	-0.757584	-4.81002	1.03713	-1.56039
0.4200	0.598831	-6.92198	-0.141202	1.8655	-0.270098	-0.155712	-1.70456	-6.01696	1.34217	-0.936235
0.4207	1.19766	-3.57765	0.470673	0.338121	-1.18843	-0.778561	-1.3889	-3.58533	0.427054	0
0.4213	0.598831	-2.04159	0.784454	0.034978	0.0540196	-0.155712	-0.189396	-2.0589	0.122016	-0.312078
0.4220	-0.332684	-1.12774	1.39633	0.956066	0.972352	0.467136	0.441924	-1.75716	0.732093	-0.312078
0.4227	-0.0332684	-1.43884	0.784454	0.956066	0.0540196	0.778561	0.126264	-2.0589	0.732093	-0.312078
0.4233	1.19766	-2.04159	-0.141202	0.034978	-1.51255	-0.155712	-0.757584	-3.28359	-0.183023	-0.312078
0.4240	1.19766	-1.73049	-0.141202	-0.874451	-1.51255	-1.08998	-1.3889	-3.88706	-0.183023	-0.312078
0.4247	-0.0332684	-0.816638	1.08255	0.338121	-0.270098	0.467136	-0.189396	-2.36064	0.732093	0
0.4253	-0.6321	-1.12774	0.784454	0.652923	0.0540196	1.08998	1.07324	-2.0589	0.732093	-0.312078
0.4260	-0.931515	-2.95545	-0.141202	0.338121	0.324117	0.467136	0.441924	-4.1888	1.03713	-0.936235
0.4267	0.598831	-2.64435	0.17258	0.034978	0.0540196	0.155712	-0.757584	-4.1888	1.03713	-0.312078
0.4273	1.19766	-1.73049	0.470673	-1.17759	-0.594215	-1.08998	-1.07324	-2.36064	-0.488062	-0.312078
0.4280	-0.0332684	-1.43884	1.08255	0.034978	0.324117	0.155712	-0.189396	-2.0589	-0.793101	-0.624156
0.4287	-0.332684	-1.12774	1.99251	1.56235	0.972352	1.40141	0.126264	-2.0589	-0.183023	-0.624156
0.4293	-0.0332684	-1.43884	2.3063	0.652923	0.648235	1.08998	0.126264	-1.75716	0.122016	-0.312078
0.4300	0.898247	-1.43884	1.99251	-0.874451	-0.270098	-0.155712	-0.757584	-2.66237	-0.488062	-0.312078
0.4307	0.598831	-2.04159	1.08255	-1.17759	-0.594215	-1.40141	-1.07324	-3.28359	-0.183023	-0.624156
0.4313	-0.332684	-2.04159	1.08255	-0.268165	0.648235	-0.467136	0.126264	-1.75716	0.122016	-0.624156
0.4320	-0.6321	-0.816638	0.470673	0.338121	1.24245	0.778561	0.757584	-1.45543	0.427054	-0.312078
0.4327	-0.6321	-0.213881	-2.27492	0.034978	0.324117	0.778561	0.441924	-1.75716	0.427054	-0.312078
0.4333	0.299416	-1.43884	-3.49867	-1.4924	-0.864313	-1.08998	-0.441924	-2.66237	0.122016	-0.312078
0.4340	1.49708	-2.04159	-1.05117	-2.09868	-1.18843	-1.9464	-0.441924	-3.28359	-0.793101	-0.312078
0.4347	0.299416	-1.12774	0.784454	-0.571308	0.0540196	-0.467136	0.441924	-2.0589	0.122016	-0.312078
0.4353	-0.332684	-0.524981	1.39633	0.338121	1.24245	1.40141	1.07324	-1.45543	0.732093	-0.312078
0.4360	-0.0332684	-0.524981	1.39633	-0.268165	0.972352	1.08998	0.441924	-2.0589	0.122016	-0.312078
0.4367	0.598831	-0.816638	0.17258	-2.09868	-0.594215	-0.467136	-0.441924	-2.36064	-0.488062	-0.312078
0.4373	0.598831	-1.73049	-0.141202	-2.40183	-0.864313	-0.778561	-1.07324	-2.36064	-0.488062	-0.312078
0.4380	-0.0332684	-1.43884	0.470673	-0.268165	0.972352	0.155712	0.126264	-1.75716	-0.183023	-0.312078
0.4387	-0.6321	-0.816638	0.784454	0.338121	1.56657	0.155712	1.07324	-0.83421	-0.183023	-0.312078
0.4393	-0.931515	-0.816638	0.470673	0.338121	0.648235	-0.467136	1.07324	-0.83421	0.122016	-0.312078
0.4400	-0.0332684	-1.73049	-0.439294	-0.874451	-0.594215	-1.9464	0.441924	-2.0589	-0.183023	-0.312078
0.4407	0.598831	-2.04159	-0.439294	-1.17759	-1.18843	-1.63498	-0.441924	-3.28359	-0.488062	-0.312078
0.4413	-0.332684	-1.12774	0.784454	0.034978	-0.270098	-0.155712	0.441924	-2.36064	-0.183023	-0.624156
0.4420	-0.931515	-0.524981	1.08255	0.338121	0.324117	1.08998	0.757584	-1.13594	0.427054	-0.312078
0.4427	-1.23093	-0.213881	0.17258	0.034978	0.324117	0.778561	0.441924	-1.13594	0.427054	-0.312078
0.4433	-0.931515	-0.213881	-0.753076	-0.571308	-0.594215	-0.467136	0.126264	-1.75716	-0.183023	-0.312078
0.4440	-0.6321	-1.12774	-1.36495	-1.4924	-1.18843	-1.40141	-0.189396	-2.0589	-0.488062	-0.624156
0.4447	-0.6321	0.0972188	-0.439294	-0.874451	0.0540196	-0.778561	0.441924	-1.75716	-0.488062	-0.312078
0.4453	-0.0332684	1.32218	1.39633	0.338121	1.24245	1.40141	0.757584	-0.83421	0.122016	-0.312078
0.4460	0.598831	0.0972188	1.99251	0.338121	0.972352	2.02426	0.441924	-0.532474	0.122016	-0.312078
0.4467	1.19766	-2.64435	0.784454	-1.4924	-0.594215	-0.155712	-0.757584	-0.83421	-0.183023	0
0.4473	0.898247	-3.57765	-0.439294	-1.79554	-0.864313	-1.08998	-1.07324	-1.75716	-0.488062	0
0.4480	0.299416	-2.04159	0.17258	-1.17759	0.648235	-0.155712	-0.189396	-2.66237	0.122016	0
0.4487	-0.332684	-0.213881	0.470673	-0.571308	0.972352	-0.155712	0.757584	-2.96411	0.122016	-0.312078
0.4493	-1.53035	-1.12774	-0.141202	-0.268165	0.0540196	-0.778561	-0.189396	-7.24165	0.427054	-1.56039
0.4500	-0.6321	-2.64435	-1.05117	-0.874451	-0.594215	-0.778561	-1.07324	-11.8209	1.34217	-1.24831
0.4507	0.299416	-0.816638	-3.49867	-3.62606	-0.594215	-0.778561	-0.757584	-10.5962	1.34217	0.312078
0.4513	-0.931515	1.92493	-3.18488	-4.85029	0.0540196	-0.778561	0.757584	-8.46634	0.122016	0.312078
0.4520	-1.53035	3.75264	-0.753076	-4.53549	1.24245	0.155712	1.3889	-9.38929	0.122016	-0.312078
0.4527	-1.23093	1.92493	-2.27492	-6.366	0.972352	0.778561	0.757584	-10.2945	0.427054	-0.312078
0.4533	-0.332684	-1.12774	-3.49867	-9.7239	-0.594215	-0.467136	-0.441924	-6.93991	0.427054	-0.312078
0.4540	-0.0332684	1.92493	1.99251	-10.027	-0.864313	-1.40141	-0.757584	-3.28359	0.427054	0
0.4547	-0.332684	10.1691	7.1856	-8.19652	0.0540196	-1.08998	0.126264	-3.28359	0.427054	0
0.4553	-0.0332684	16.2744	6.57373	-9.11761	0.648235	0.155712	1.3889	0.390481	0.732093	-0.312078
0.4560	-0.6321	17.4799	7.49938	-11.2513	0.972352	1.08998	1.07324	8.00486	1.03713	0
0.4567	-0.332684	13.5134	7.1856	-12.4755	-0.270098	-0.467136	-0.757584	7.40139	0.732093	-0.312078
0.4573	1.49708	4.9776	-0.141202	-13.6997	-0.864313	-1.40141	-1.07324	0.692216	0.122016	-0.624156
0.4580	1.82976	-4.18041	-5.3186	-15.5303	0.324117	0.155712	0.126264	-1.45543	0.122016	-0.624156
0.4587	-0.6321	-12.4246	-1.96114	-2.70497	0.648235	1.08998	0.757584	-2.96411	-0.488062	-0.312078
0.4593	-1.86303	-13.6301	0.17258	23.8434	0.972352	2.02426	0.757584	-6.01696	-1.70822	0
0.4600	-0.6321	-5.69702	-3.49867	29.9412	0.324117	1.08998	0.126264	-1.13594	-2.3183	0
0.4607	0.299416	1.92493	-2.88679	17.4307	-1.18843	-0.778561	-0.757584	15.0335	-1.09814	-0.312078
0.4613	-0.6321	3.14989	2.60439	10.1087	0.0540196	0.155712	0.126264	27.8484	0.122016	0
0.4620	-2.16245	-1.12774	4.7381	6.44762	1.24245	1.71283	0.757584	31.8242	-0.183023	0
0.4627	-1.53035	-5.09426	3.82814	3.69601	0.972352	1.71283	0.441924	27.8484	-0.183023	-0.312078
0.4633	1.49708	-5.40536	1.39633	2.48344	-0.594215	-0.155712	-0.189396	8.00486	-0.183023	-0.312078
0.4640	3.32684	-9.66354	-2.57301	1.25921	-1.18843	-1.08998	-0.441924	-12.4244	-0.793101	-0.312078
0.4647	0.299416	-25.5491	-4.70673	2.1803	0.0540196	-0.155712	0.126264	-6.01696	-0.488062	-0.312078
0.4653	-2.46186	-38.3625	1.08255	3.69601	1.24245	1.08998	0.126264	11.9807	0.122016	-0.312078
0.4660	-1.53035	-34.0849	6.88751	3.39287	1.24245	2.02426	0.441924	11.3772	0.122016	0
0.4667	0.898247	-28.8934	2.3063	1.8655	0.0540196	0.778561	-0.441924	-6.63818	-0.793101	-0.312078
0.4673	2.12918	-28.2907	3.21626	1.25921	-1.18843	-1.08998	-1.3889	-28.3099	-0.793101	-0.312078
0.4680	0.598831	-29.5156	10.245	2.48344	0.0540196	-0.155712	-0.189396	-35.9243	0.427054	-0.312078
0.4687	-1.86303	-42.329	5.96185	2.48344	0.972352	1.71283	0.441924	-30.4398	0.122016	-0.312078
0.4693	-2.46186	-41.4152	-7.15422	1.8655	0.972352	1.71283	-0.189396	-31.0432	-0.488062	-0.312078
0.4700	-1.86303	4.6665	-11.4217	0.652923	-0.270098	-0.467136	-0.441924	-45.704	0.122016	0
0.4707	-2.16245	48.6094	1.08255	0.034978	-1.18843	-1.63498	-0.441924	-82.0188	0.122016	0
0.4713	-2.46186	43.729	10.8568	0.956066	0.0540196	-0.155712	0.441924	-100.016	-0.183023	-0.312078
0.4720	-2.16245	20.2409	9.02122	2.1803	1.24245	0.778561	1.3889	-47.8339	0.122016	0
0.4727	-1.53035	8.94413	4.14192	1.8655	0.648235	0.155712	1.64143	43.1127	0.427054	0
0.4733	-0.332684	6.49421	-12.0335	0.652923	-0.594215	-0.778561	-0.189396	100.78	0.122016	-0.312078
0.4740	1.49708	4.9776	-28.209	0.338121	-1.18843	-1.40141	-1.07324	80.9538	-0.183023	-0.312078
0.4747	3.32684	-3.26655	-21.196	0.652923	0.0540196	0.155712	-0.189396	29.0731	0.122016	0
0.4753	2.12918	-13.6301	-10.5117	0.338121	0.972352	1.40141	1.07324	4.96976	0.427054	0
0.4760	-0.332684	-13.9412	-7.46801	0.034978	1.56657	1.71283	1.3889	0.390481	0.427054	0
0.4767	-1.86303	-10.5968	-4.40863	-1.4924	0.324117	0.467136	-0.189396	4.34854	-0.183023	-0.312078
0.4773	-0.6321	-9.06079	-0.439294	-1.79554	-0.594215	-1.40141	-0.441924	12.5841	-0.183023	-0.624156
0.4780	1.19766	-10.2857	3.21626	0.338121	0.324117	-0.467136	1.07324	14.1106	0.427054	-0.312078
0.4787	-0.0332684	-30.1184	-2.27492	0.338121	0.972352	1.08998	1.07324	9.53129	0.427054	-0.624156
0.4793	-3.06069	-28.6018	-8.67606	0.034978	0.972352	1.08998	-0.189396	5.27149	1.03713	-1.87247
0.4800	-0.931515	31.5183	-2.57301	0.034978	0.648235	-0.155712	-0.189396	6.79792	1.95225	-0.624156
0.4807	3.02742	67.5282	3.21626	-0.874451	-0.594215	-1.08998	-0.757584	2.82211	0.122016	0.312078
0.4813	2.42859	42.504	2.91817	-1.17759	-0.864313	-0.467136	-0.757584	-11.5192	-0.793101	-0.312078
0.4820	-0.0332684	15.9633	3.53004	0.034978	0.324117	0.467136	0.757584	-16.0985	0.427054	-0.312078
0.4827	-0.931515	7.11641	4.44001	0.652923	0.324117	0.155712	1.3889	0.390481	0.427054	0
0.4833	-0.0332684	2.52769	5.34998	0.652923	-0.270098	-0.778561	-0.189396	21.1392	-0.183023	0
0.4840	1.82976	-0.213881	6.57373	0.338121	-0.594215	-1.08998	-1.07324	23.8903	-0.793101	-0.312078
0.4847	2.12918	3.14989	5.34998	0.652923	-0.270098	-0.155712	0.441924	7.70313	-0.488062	-0.312078
0.4853	1.49708	8.94413	0.470673	0.956066	0.972352	0.778561	1.3889	2.21864	0.122016	-0.312078
0.4860	1.19766	11.6857	-3.79676	0.956066	0.648235	0.467136	0.441924	14.1106	0.122016	-0.312078
0.4867	1.49708	13.5134	-4.70673	0.338121	-0.864313	-1.40141	-0.441924	18.6898	-0.488062	-0.312078
0.4873	1.49708	15.9633	-4.40863	-0.268165	-1.18843	-2.25783	-1.07324	10.1525	-0.793101	-0.312078
0.4880	-0.0332684	19.6187	-3.18488	-0.268165	0.0540196	-0.778561	-0.441924	2.82211	-0.488062	0
0.4887	-1.23093	24.2075	-1.05117	4.6171	0.648235	0.778561	0.757584	-1.75716	0.427054	-0.312078
0.4893	-1.86303	28.4657	-0.439294	11.9392	0.324117	0.155712	0.441924	-3.88706	0.732093	-0.312078
0.4900	-0.931515	32.1405	-0.439294	14.6908	-0.594215	-1.40141	-0.189396	-2.36064	1.03713	-0.312078
0.4907	0.299416	19.016	2.3063	16.8244	-1.18843	-1.08998	-0.189396	0.0709966	1.03713	0
0.4913	-0.332684	-16.3911	1.99251	20.7886	-0.594215	-0.155712	0.126264	3.74507	1.03713	0
0.4920	-0.332684	-33.171	0.470673	23.2371	0.648235	0.155712	1.64143	6.1767	1.03713	0
0.4927	1.49708	-20.3576	2.91817	24.7528	0.0540196	-0.155712	1.64143	4.0468	0.732093	-0.312078
0.4933	2.42859	-6.61088	3.53004	23.2371	-1.51255	-0.778561	0.126264	0.390481	0.122016	-0.312078
0.4940	1.19766	-1.12774	1.08255	14.6908	-1.18843	-1.40141	-0.441924	-0.532474	0.427054	0
0.4947	0.598831	-2.64435	0.784454	7.35705	-0.270098	-0.778561	0.126264	0.692216	0.732093	-0.312078
0.4953	0.299416	-6.61088	1.08255	5.22339	0.972352	0.778561	1.07324	1.29569	1.03713	-0.312078
0.4960	-0.0332684	-6.00812	0.784454	0.652923	1.24245	1.40141	0.757584	0.692216	1.34217	0
0.4967	0.898247	-4.18041	0.784454	-4.23234	0.0540196	0.155712	-0.757584	-0.230739	1.34217	0
0.4973	1.19766	-3.86931	0.784454	-9.11761	-1.51255	-1.08998	-1.70456	-0.83421	1.03713	0
0.4980	0.598831	-3.26655	0.784454	-35.0597	-0.594215	0.155712	-0.757584	-0.83421	0.732093	-0.312078
0.4987	-0.332684	-2.35269	1.39633	-79.61	1.56657	1.40141	0.757584	-0.532474	-0.793101	-0.312078
0.4993	-0.332684	-1.73049	1.08255	-108.91	0.972352	1.40141	0.757584	-1.45543	-2.3183	-0.312078
0.5000	0.299416	-1.43884	-0.141202	-101.891	-0.864313	-0.467136	-0.189396	-2.36064	-2.92837	0
0.5007	0.898247	0.0972188	-0.439294	-74.4216	-0.864313	-1.63498	-0.189396	-0.532474	-1.70822	-0.312078
0.5013	0.299416	1.32218	-0.141202	-61.9111	-0.270098	-0.467136	0.126264	2.21864	0.122016	0
0.5020	-0.0332684	0.0972188	0.17258	-31.7018	0.0540196	0.467136	0.126264	2.21864	-0.183023	0
0.5027	-0.332684	0.0972188	0.470673	49.7854	-0.270098	0.155712	0.126264	0.0709966	-1.40318	-0.312078
0.5033	-0.0332684	-0.524981	0.470673	106.846	-0.864313	-0.155712	-0.441924	-1.13594	-1.70822	-0.312078
0.5040	0.299416	-6.31922	1.99251	96.1663	-1.18843	-0.155712	-0.441924	-1.75716	-2.01326	0
0.5047	-0.6321	-8.45803	2.60439	66.5632	0.0540196	0.467136	0.757584	-2.66237	-2.01326	-0.312078
0.5053	-1.23093	-4.18041	1.08255	38.4875	0.972352	0.778561	1.3889	-3.58533	-1.09814	-0.312078
0.5060	0.299416	-1.12774	0.784454	3.39287	0.972352	1.40141	1.07324	-3.58533	-1.09814	0
0.5067	1.19766	2.23603	1.08255	-15.8334	-0.594215	0.778561	-0.189396	-3.88706	-1.09814	0
0.5073	0.898247	4.06374	0.470673	-10.9481	-1.18843	-0.155712	-0.757584	-6.63818	-1.09814	-0.312078
0.5080	-0.0332684	1.01108	1.08255	-5.75972	0.0540196	0.155712	-0.189396	-8.46634	-0.488062	-0.312078
0.5087	-0.931515	-3.57765	1.08255	-4.85029	0.648235	0.155712	1.3889	-4.1888	0.122016	0
0.5093	-1.23093	-7.54418	-0.141202	-2.70497	0.0540196	0.467136	0.126264	0.993952	-0.183023	-1.24831
0.5100	-0.6321	-8.45803	-0.141202	-0.268165	0.0540196	0.467136	-1.3889	2.21864	1.03713	-1.56039
0.5107	0.598831	-5.40536	1.69442	0.956066	-0.864313	-0.778561	-0.441924	3.74507	1.95225	-0.312078
0.5113	-0.0332684	-0.816638	3.53004	1.8655	-0.864313	-0.778561	0.757584	4.65027	1.03713	0
0.5120	-0.931515	0.699975	4.44001	2.78658	0.972352	0.467136	1.07324	3.44333	1.03713	-0.312078
0.5127	-0.332684	0.408319	4.7381	2.78658	1.24245	1.08998	1.07324	2.21864	1.34217	-0.312078
0.5133	-0.0332684	-0.213881	3.21626	1.8655	-0.270098	0.155712	-0.189396	1.29569	0.427054	-0.624156
0.5140	0.598831	-1.12774	-1.66304	0.956066	-1.18843	-0.778561	-1.3889	0.390481	0.122016	-0.624156
0.5147	-0.0332684	-1.12774	-7.46801	1.56235	-0.270098	0.155712	-0.757584	0.692216	-0.183023	-0.312078
0.5153	-0.931515	-0.524981	-6.85613	1.8655	0.972352	0.778561	0.441924	0.993952	0.427054	-0.312078
0.5160	-0.332684	-0.524981	-2.57301	1.8655	0.648235	0.155712	0.757584	0.993952	1.34217	0
0.5167	-0.0332684	-0.524981	-1.05117	0.956066	-0.270098	-0.778561	0.441924	0.0709966	0.427054	0
0.5173	0.299416	-0.816638	-1.05117	-0.571308	-1.51255	-1.08998	-0.757584	-0.83421	-0.183023	-0.312078
0.5180	-0.6321	-0.524981	-0.439294	0.338121	-0.594215	0.155712	-0.441924	-0.230739	0.122016	-0.312078
0.5187	-0.931515	-0.213881	-0.439294	1.56235	0.324117	1.40141	0.441924	0.390481	0.427054	-0.312078
0.5193	-0.931515	-0.524981	-0.439294	0.956066	0.0540196	1.08998	0.126264	-0.230739	0.122016	-0.312078
0.5200	-0.0332684	-0.816638	-0.141202	0.338121	-0.594215	-0.155712	0.126264	-0.532474	-0.183023	-0.312078
0.5207	0.598831	-1.12774	-0.753076	-0.874451	-1.18843	-0.778561	-0.757584	-1.13594	-0.488062	-0.312078
0.5213	-0.332684	-0.816638	-1.05117	-2.40183	-0.594215	-0.155712	-0.757584	-1.13594	-0.488062	-0.624156
0.5220	-0.6321	0.408319	0.17258	-2.09868	0.648235	1.08998	-0.189396	-0.230739	-0.183023	-0.624156
0.5227	-0.332684	0.408319	0.784454	-1.17759	0.648235	1.40141	-0.189396	0.390481	0.427054	-0.312078
0.5233	0.299416	-0.524981	-0.141202	-1.17759	-0.270098	-0.155712	-0.189396	-0.230739	0.427054	0
0.5240	0.898247	-1.73049	-1.05117	-1.4924	-1.18843	-1.40141	-0.441924	-1.45543	-0.183023	0
0.5247	-0.0332684	-2.35269	-1.66304	-0.874451	-0.270098	-0.155712	-0.189396	-1.75716	0.122016	-0.312078
0.5253	-1.23093	-1.73049	-1.96114	0.338121	0.972352	1.08998	0.757584	-0.230739	0.427054	0
0.5260	-1.23093	-0.524981	-1.96114	0.652923	0.648235	0.778561	0.441924	0.692216	0.122016	-0.312078
0.5267	-0.0332684	1.32218	-2.27492	-0.268165	-0.270098	-0.778561	0.126264	0.692216	-0.183023	-0.312078
0.5273	-0.0332684	2.83879	-3.18488	-1.17759	-1.18843	-0.778561	-0.757584	1.91691	-0.183023	0
0.5280	-0.931515	6.49421	-0.753076	-0.874451	-0.270098	0.467136	0.126264	4.65027	-0.183023	0
0.5287	-1.53035	8.94413	3.82814	0.034978	0.0540196	0.155712	1.07324	-0.83421	-0.183023	-0.624156
0.5293	-0.332684	6.49421	4.14192	0.956066	-0.270098	0.155712	0.757584	-10.5962	0.732093	-1.24831
0.5300	1.49708	1.61383	3.21626	0.652923	-0.270098	1.08998	-0.189396	-11.5192	1.34217	-0.312078
0.5307	1.19766	-3.86931	5.66376	-1.4924	-1.51255	-0.467136	-1.3889	-8.46634	0.122016	0
0.5313	-0.931515	-3.26655	9.6331	-1.17759	-0.864313	-0.155712	-0.757584	-3.88706	0.427054	-0.312078
0.5320	-2.16245	-0.524981	9.02122	0.034978	0.972352	0.778561	0.757584	3.12385	0.732093	-0.624156
0.5327	-3.06069	-3.86931	7.49938	-0.268165	0.324117	0.155712	0.757584	6.1767	0.122016	-0.312078
0.5333	-2.46186	-5.09426	12.3787	-0.874451	-0.864313	-0.467136	-0.441924	6.1767	-0.183023	-0.312078
0.5340	-2.46186	-2.95545	10.245	-1.4924	-1.18843	-1.40141	-0.757584	1.59742	-0.488062	-0.312078
0.5347	-3.99221	-2.64435	-10.2136	-0.571308	0.0540196	-0.155712	-0.189396	-9.38929	0.122016	0
0.5353	-2.46186	-2.04159	-19.9722	0.338121	0.972352	1.71283	0.757584	-14.572	0.427054	0
0.5360	1.82976	4.37484	-2.57301	0.338121	0.972352	1.08998	1.07324	-10.9157	0.427054	-0.312078
0.5367	3.95894	9.25523	11.1549	-1.17759	0.0540196	-0.155712	0.126264	-6.01696	0.122016	-0.312078
0.5373	2.12918	7.11641	3.21626	-2.09868	-0.864313	-1.40141	-0.441924	-3.28359	0.122016	-0.312078
0.5380	0.898247	7.11641	-2.88679	-0.571308	0.0540196	-0.467136	-0.189396	-4.49053	0.427054	-0.312078
0.5387	0.898247	4.9776	-1.66304	0.034978	0.0540196	0.778561	0.126264	-8.76807	-0.183023	-0.312078
0.5393	-0.0332684	-3.86931	-9.28794	0.338121	-0.594215	-0.155712	-0.189396	-14.2703	0.122016	-1.56039
0.5400	0.898247	-8.45803	-16.3167	0.338121	0.0540196	-0.155712	-0.757584	-14.2703	1.34217	-1.56039
0.5407	2.12918	-4.78316	-11.4217	-1.17759	-0.270098	-0.155712	-1.07324	-11.5192	1.03713	-0.312078
0.5413	-0.332684	1.61383	-2.57301	-0.874451	0.0540196	0.467136	-0.441924	-8.1646	-0.183023	-0.312078
0.5420	-2.46186	5.2887	1.99251	0.652923	0.324117	0.778561	0.757584	2.82211	0.122016	-0.624156
0.5427	-2.46186	3.75264	5.05189	0.338121	0.0540196	0.155712	1.07324	7.70313	0.122016	0
0.5433	-1.53035	-2.35269	9.02122	-0.874451	-0.864313	-0.467136	0.126264	1.59742	-0.488062	0
0.5440	-0.6321	-5.40536	14.8105	-1.79554	-1.51255	-1.63498	-0.757584	-3.88706	-0.793101	-0.312078
0.5447	-1.23093	-2.64435	18.4817	-0.571308	-0.594215	-1.08998	0.126264	-6.93991	-0.488062	0
0.5453	-3.06069	0.699975	11.7668	0.652923	0.648235	1.40141	0.441924	-1.45543	-0.488062	-0.312078
0.5460	-2.16245	4.6665	4.44001	0.652923	0.648235	1.71283	0.441924	11.6789	-0.183023	-0.312078
0.5467	0.598831	7.42751	-1.96114	-0.268165	0.0540196	0.155712	-0.189396	24.4938	-0.488062	0
0.5473	1.49708	4.37484	-15.0929	-0.874451	-0.864313	-0.778561	-1.3889	35.1788	-1.09814	-0.312078
0.5480	1.82976	-0.816638	-18.7485	0.034978	-0.594215	0.155712	-0.441924	45.8638	-0.183023	-0.312078
0.5487	1.49708	-6.31922	-11.4217	0.652923	0.324117	1.08998	0.757584	51.3483	0.122016	-0.312078
0.5493	0.299416	-10.2857	-9.60172	1.25921	0.324117	0.778561	0.441924	61.412	-0.183023	-0.312078
0.5500	0.598831	-9.37189	-8.37797	0.956066	-0.594215	0.155712	0.126264	55.9275	0.122016	-0.312078
0.5507	1.19766	-8.14693	-4.70673	0.034978	-1.78265	-0.467136	-1.07324	-2.96411	-0.183023	0
0.5513	0.299416	-6.31922	-5.3186	1.25921	-0.594215	0.467136	-1.07324	-53.0167	-0.488062	-0.312078
0.5520	-0.0332684	-4.18041	-6.54235	1.56235	0.648235	1.08998	0.441924	-49.0586	0.122016	-0.312078
0.5527	-0.931515	-4.78316	-2.88679	0.034978	0.0540196	-0.155712	0.757584	-26.7835	0.122016	-0.312078
0.5533	-2.46186	-4.18041	1.69442	-0.874451	-0.594215	-1.40141	0.126264	-10.9157	-0.183023	-0.312078
0.5540	-3.36011	1.61383	0.470673	-1.4924	-1.18843	-1.40141	-0.441924	-7.54338	-0.793101	-0.312078
0.5547	-4.59104	3.75264	-8.37797	-0.874451	-0.270098	0.155712	-0.441924	-5.71522	-0.488062	-0.624156
0.5553	-4.59104	0.0972188	-10.5117	1.8655	1.56657	1.40141	0.441924	2.21864	0.427054	-0.312078
0.5560	-1.53035	0.408319	2.3063	7.05391	1.24245	0.778561	1.3889	8.00486	0.732093	0
0.5567	2.42859	1.92493	9.31932	10.7149	0.324117	-1.08998	0.757584	8.00486	0.732093	-0.312078
0.5573	5.48929	-1.12774	4.7381	9.50237	0.0540196	-1.08998	-0.757584	6.49619	-0.488062	-0.312078
0.5580	6.08812	-4.49151	-0.753076	9.19923	0.648235	0.467136	-0.441924	6.49619	-0.488062	-0.312078
0.5587	3.65952	-6.00812	-5.3186	13.7697	1.56657	1.08998	1.3889	-9.99277	0.427054	-0.312078
0.5593	1.19766	-2.95545	-5.02051	19.8792	1.56657	0.467136	1.64143	-35.0191	0.732093	-0.312078
0.5600	0.299416	3.14989	-2.57301	24.1465	-0.270098	-0.467136	-0.189396	-33.4926	1.03713	-0.312078
0.5607	0.299416	5.58036	-1.96114	25.977	-0.864313	-1.40141	-1.07324	-9.99277	1.03713	-0.312078
0.5613	0.299416	3.44154	-0.141202	28.1107	-0.270098	-0.467136	-0.189396	3.44333	0.732093	-0.312078
0.5620	-0.332684	-1.12774	1.69442	31.1654	0.324117	0.778561	0.441924	2.21864	0.732093	-0.312078
0.5627	-0.931515	-2.35269	2.3063	30.5591	0.324117	0.155712	0.441924	8.62608	1.03713	-0.312078
0.5633	-0.332684	-0.524981	4.14192	30.8623	-0.270098	-0.467136	0.126264	21.1392	1.34217	-0.312078
0.5640	0.299416	0.0972188	5.66376	34.5233	-1.18843	-1.08998	-1.07324	28.4519	0.732093	0
0.5647	-1.23093	2.83879	5.34998	11.636	-0.594215	-0.778561	-0.189396	31.8242	-0.488062	0
0.5653	-2.16245	5.58036	3.53004	-38.1144	0.648235	0.778561	1.07324	32.1259	-1.40318	-0.312078
0.5660	-1.86303	3.44154	0.470673	-60.6869	0.972352	1.08998	0.757584	47.9937	-1.70822	-0.312078
0.5667	-1.53035	-0.816638	-8.98985	-43.606	0.0540196	0.155712	-0.441924	52.8747	-1.70822	-0.312078
0.5673	-1.86303	-3.57765	-18.4504	-17.046	-0.864313	-1.08998	-1.3889	-10.2945	-1.40318	-0.312078
0.5680	-2.16245	-1.43884	-10.8255	-5.75972	0.324117	-0.155712	-0.441924	-73.4637	-0.793101	-0.312078
0.5687	-0.931515	7.42751	4.44001	-15.2154	1.24245	1.08998	0.757584	-62.477	-0.793101	-0.312078
0.5693	0.898247	12.5996	4.14192	-21.9312	-0.270098	0.778561	0.126264	-31.0432	-0.488062	-0.936235
0.5700	2.42859	8.34137	-1.96114	-17.046	-0.594215	-0.155712	-0.757584	-20.376	1.03713	-1.56039
0.5707	3.65952	8.34137	0.17258	-18.2702	-0.594215	-1.08998	-0.757584	-12.4244	1.03713	-0.312078
0.5713	3.32684	19.3271	3.53004	-23.1555	0.0540196	-0.155712	-0.189396	-9.69103	-0.488062	0
0.5720	0.898247	24.8102	2.3063	-20.4039	0.972352	1.08998	1.07324	-25.257	-0.488062	-0.312078
0.5727	-1.53035	19.3271	-1.66304	-15.2154	0.648235	0.155712	1.3889	-42.6512	0.122016	-0.312078
0.5733	-0.931515	13.5134	-0.439294	-13.6997	-0.864313	-1.40141	-0.189396	-46.3075	0.732093	0
0.5740	-0.0332684	-0.816638	8.40935	-12.4755	-0.594215	-1.63498	-1.07324	-52.4132	0.427054	-0.312078
0.5747	-1.23093	-18.8216	11.1549	-10.3418	0.0540196	-0.778561	-0.189396	-80.4923	-0.488062	-0.312078
0.5753	-1.86303	-20.3576	4.44001	-10.027	0.324117	0.467136	0.757584	-103.673	-0.183023	-0.312078
0.5760	-1.23093	-13.6301	-0.141202	-12.1724	0.648235	0.467136	0.757584	-81.0958	0.427054	-0.624156
0.5767	0.299416	-10.8885	-2.88679	-13.0818	0.648235	-0.155712	0.441924	-23.7306	0.122016	-0.312078
0.5773	1.49708	-10.5968	-4.70673	-13.0818	-0.594215	-0.467136	-0.441924	26.9432	-0.488062	-0.312078
0.5780	0.898247	-9.97464	-3.49867	-13.0818	-0.594215	0.778561	-0.441924	49.8218	-0.488062	-0.624156
0.5787	-0.0332684	-8.14693	-2.88679	-12.4755	0.648235	1.40141	1.07324	69.3459	0.732093	-0.624156
0.5793	-0.332684	-4.18041	-3.49867	-11.8692	0.648235	0.467136	1.07324	91.6388	0.732093	-0.312078
0.5800	-0.332684	-1.43884	-2.27492	-8.81447	-0.594215	-0.778561	-0.441924	77.901	0.122016	-0.312078
0.5807	0.299416	-0.816638	-0.141202	-2.70497	-0.864313	-0.155712	-1.70456	46.769	-0.793101	-0.624156
0.5813	0.598831	-0.524981	1.39633	1.25921	0.324117	1.40141	-0.441924	29.9783	-0.488062	-0.312078
0.5820	0.598831	-1.73049	1.99251	-1.4924	0.648235	1.08998	1.07324	16.8617	0.122016	0
0.5827	0.598831	-3.26655	2.3063	-7.59024	0.324117	0.467136	1.07324	10.1525	0.427054	-0.312078
0.5833	0.598831	-2.35269	0.784454	-13.6997	-0.270098	-0.155712	0.441924	11.6789	0.122016	-0.312078
0.5840	0.898247	-1.43884	-0.141202	-6.68081	-0.864313	-1.08998	-1.07324	12.2824	-0.793101	-0.312078
0.5847	-0.0332684	-0.524981	0.784454	15.2971	0.648235	0.467136	-0.189396	11.9807	-1.40318	-0.624156
0.5853	-0.6321	0.699975	1.08255	23.8434	1.89068	1.40141	1.64143	11.9807	0.122016	-0.312078
0.5860	-0.0332684	1.32218	1.08255	16.5213	1.24245	0.155712	1.64143	10.1525	1.64721	0
0.5867	0.598831	1.01108	2.60439	10.1087	0.324117	-0.155712	0.126264	8.62608	0.732093	-0.312078
0.5873	0.898247	0.699975	5.05189	5.84133	-0.594215	-1.40141	-0.441924	8.00486	-0.488062	-0.312078
0.5880	0.898247	1.92493	8.70744	4.92024	-0.594215	-1.08998	0.757584	6.49619	0.122016	-0.312078
0.5887	0.299416	2.52769	12.9906	5.22339	0.972352	0.778561	0.757584	2.52038	0.427054	-0.312078
0.5893	-0.0332684	1.61383	18.168	4.6171	0.972352	1.40141	0.126264	-2.66237	-0.183023	-0.312078
0.5900	-0.332684	1.01108	22.4511	3.39287	-0.594215	-0.155712	-0.189396	-7.24165	-0.488062	-0.312078
0.5907	-0.931515	-0.524981	14.5124	2.1803	-1.51255	-1.63498	-1.07324	-10.2945	-0.488062	-0.312078
0.5913	-1.86303	-2.64435	-2.88679	3.08973	-0.594215	-0.778561	-0.441924	-12.1227	0.122016	-0.624156
0.5920	-2.46186	-0.213881	-15.7048	4.01082	0.648235	0.155712	1.3889	-17.0037	0.427054	-0.312078
0.5927	-3.06069	8.34137	-17.8385	3.39287	0.972352	0.155712	1.3889	-17.3232	1.03713	0
0.5933	-2.46186	19.9298	-9.60172	0.956066	0.324117	-0.155712	-0.441924	-9.69103	0.427054	0
0.5940	-2.46186	24.4991	-6.24426	-0.571308	-0.594215	-1.08998	-1.07324	-13.6491	-0.183023	-0.312078
0.5947	-4.59104	18.4132	-5.93047	-0.571308	0.0540196	-0.467136	-0.189396	-19.7548	0.732093	-0.312078
0.5953	-4.29162	12.9107	4.14192	0.338121	0.972352	1.40141	0.126264	-15.4773	1.03713	-0.312078
0.5960	-0.6321	5.2887	11.1549	0.956066	1.24245	1.40141	0.757584	-11.5192	1.03713	-0.312078
0.5967	2.12918	-8.14693	2.91817	0.034978	0.324117	-0.155712	0.441924	-1.45543	1.34217	-0.312078
0.5973	3.65952	-14.855	-11.1236	-0.874451	-0.864313	-1.40141	-1.07324	-2.66237	0.732093	-0.624156
0.5980	3.32684	-13.6301	-15.391	1.56235	0.648235	-0.155712	0.126264	-16.0985	-0.183023	-0.312078
0.5987	1.82976	-11.8024	-9.89981	3.69601	0.972352	0.467136	1.3889	-3.58533	-0.488062	-0.312078
0.5993	1.49708	-10.5968	-9.89981	2.78658	-0.594215	-0.467136	-0.189396	33.6524	0.427054	-1.56039
0.6000	2.42859	-10.2857	-9.60172	2.48344	-0.270098	-0.155712	-0.757584	61.1103	1.34217	-0.936235
0.6007	1.82976	-9.06079	-2.57301	2.78658	-0.594215	0.467136	-0.757584	59.2821	0.427054	0
0.6013	-1.23093	-6.31922	1.69442	4.01082	-0.864313	0.778561	-0.757584	40.965	-0.488062	-0.312078
0.6020	-3.06069	-2.04159	1.08255	7.67185	0.648235	1.08998	0.126264	25.4168	-0.183023	-0.312078
0.6027	-3.06069	1.92493	-1.36495	7.67185	1.24245	1.08998	0.757584	14.1106	-0.183023	0
0.6033	-1.23093	4.9776	-1.66304	4.01082	-0.270098	0.467136	-0.441924	5.87497	-0.488062	-0.312078
0.6040	0.898247	4.6665	1.69442	1.8655	-1.51255	-0.778561	-1.3889	-0.532474	-0.793101	-0.312078
0.6047	1.19766	-2.04159	3.82814	2.1803	-0.594215	-0.778561	-0.441924	-7.54338	-0.488062	-0.312078
0.6053	-0.332684	-11.1996	1.69442	2.48344	0.324117	0.155712	0.757584	-8.76807	0.122016	-0.312078
0.6060	-1.53035	-16.3911	-1.05117	2.48344	0.324117	0.778561	0.126264	-0.230739	-0.183023	-0.312078
0.6067	-0.931515	-18.8216	-2.27492	1.8655	-0.270098	-0.155712	-0.441924	6.49619	-0.488062	-0.312078
0.6073	0.598831	-25.5491	-1.96114	0.956066	-1.18843	-1.40141	-1.07324	5.57323	-0.488062	-0.312078
0.6080	1.82976	-39.2764	-1.36495	1.56235	-1.18843	-0.467136	-1.70456	1.29569	-0.488062	-0.624156
0.6087	0.898247	-50.2621	-1.05117	2.48344	0.0540196	0.778561	-0.441924	-0.230739	-0.183023	-0.312078
0.6093	0.299416	-60.6451	0.17258	2.78658	0.972352	0.778561	0.757584	1.29569	0.122016	-0.312078
0.6100	1.82976	-63.9894	3.21626	1.56235	0.648235	-0.155712	0.126264	0.390481	0.122016	-0.312078
0.6107	2.42859	-31.0322	4.44001	-1.17759	-0.594215	-1.40141	-0.757584	-0.532474	-0.488062	-0.312078
0.6113	0.598831	1.01108	2.91817	-5.75972	-0.594215	-1.08998	0.126264	1.59742	0.122016	0
0.6120	-0.0332684	-4.18041	2.3063	-9.11761	0.972352	0.467136	1.07324	3.44333	0.732093	0
0.6127	0.299416	21.7576	2.60439	-9.11761	1.24245	1.08998	1.3889	1.59742	0.732093	-0.312078
0.6133	1.19766	73.6335	1.69442	-9.42075	-0.864313	-0.467136	0.126264	-1.13594	0.427054	0
0.6140	0.898247	65.4088	0.784454	-8.51132	-1.51255	-1.63498	-0.757584	-1.75716	-0.183023	0
0.6147	0.299416	16.8772	1.39633	-5.45657	-0.270098	-0.467136	-0.441924	-0.83421	-0.183023	-0.312078
0.6153	0.299416	-15.7689	1.69442	-1.79554	0.324117	0.467136	-0.189396	-0.532474	-0.488062	-0.624156
0.6160	0.299416	-38.9653	1.99251	0.956066	0.648235	0.778561	0.441924	-0.83421	-0.488062	-0.624156
0.6167	0.598831	-55.7452	1.69442	0.338121	0.0540196	-0.155712	-0.189396	-2.36064	-0.793101	-0.312078
0.6173	1.49708	-75.889	0.784454	-0.268165	-1.51255	-1.40141	-1.3889	-3.88706	-1.70822	-0.312078
0.6180	0.898247	-114.349	1.39633	3.69601	-0.594215	-0.155712	-0.757584	-3.88706	-1.70822	0
0.6187	0.299416	-121.057	2.91817	5.52653	0.648235	1.08998	0.441924	-4.1888	-1.09814	-0.312078
0.6193	1.19766	-60.0229	4.44001	4.01082	0.648235	1.08998	0.441924	-4.49053	-0.793101	-0.624156
0.6200	2.12918	38.8486	5.66376	9.80551	0.0540196	0.778561	-0.189396	-5.11175	-1.70822	-0.312078
0.6207	3.02742	107.213	4.14192	21.3949	-0.864313	0.155712	-0.757584	-6.63818	-2.01326	-0.312078
0.6213	1.49708	105.074	0.17258	25.977	0.0540196	0.467136	-0.189396	-5.11175	0.122016	-0.312078
0.6220	-1.23093	78.825	1.08255	16.5213	1.24245	0.778561	1.07324	-2.36064	1.95225	-0.312078
0.6227	-2.46186	66.0115	2.60439	2.78658	0.972352	0.778561	1.07324	-0.230739	1.64721	0
0.6233	-2.16245	53.4898	-1.96114	-4.23234	0.0540196	0.467136	0.126264	0.993952	0.732093	-0.312078
0.6240	-0.931515	41.5902	-6.24426	-5.15343	-0.864313	-0.155712	-1.07324	1.91691	0.122016	-0.312078
0.6247	-1.23093	37.9348	-5.02051	-1.79554	0.0540196	0.155712	-0.189396	5.27149	0.427054	-0.312078
0.6253	-1.86303	34.8821	-2.88679	0.956066	0.972352	1.40141	1.3889	5.87497	1.03713	-0.312078
0.6260	-0.931515	27.5518	-0.439294	1.25921	0.972352	1.40141	1.07324	2.21864	0.732093	-0.312078
0.6267	-0.0332684	20.5326	0.470673	0.956066	0.0540196	0.467136	-0.189396	-0.230739	0.427054	0
0.6273	-0.0332684	15.6522	0.470673	-0.268165	-0.864313	-1.08998	-0.757584	0.390481	0.427054	0
0.6280	-0.6321	14.1356	0.784454	-6.366	0.0540196	-0.778561	0.126264	0.993952	0.732093	-0.312078
0.6287	-1.23093	13.5134	1.08255	-15.5303	0.972352	0.778561	0.757584	0.692216	1.03713	-0.312078
0.6293	-0.931515	12.3079	1.08255	-20.4039	0.648235	1.71283	0.757584	0.0709966	0.732093	0
0.6300	-0.6321	10.7718	0.470673	-23.1555	-0.594215	0.467136	-0.441924	-1.13594	-0.183023	-0.624156
0.6307	-0.0332684	7.71917	-0.753076	-26.2102	-2.10676	-2.25783	-2.02022	-4.49053	0.427054	-1.24831
0.6313	0.299416	7.71917	-0.141202	-26.8165	-0.594215	-1.40141	0.126264	-3.28359	1.95225	-0.312078
0.6320	-0.332684	9.25523	1.39633	-27.7376	0.972352	0.467136	1.3889	0.0709966	1.03713	0
0.6327	-0.332684	8.63303	0.784454	-30.1744	0.972352	0.778561	-0.189396	-0.83421	0.122016	-0.624156
0.6333	0.299416	6.80531	0.17258	-34.4417	-0.270098	-0.155712	-1.07324	-1.45543	0.732093	-0.624156
0.6340	0.598831	5.58036	0.17258	-37.7996	-1.18843	-1.40141	-1.07324	-1.13594	0.732093	-0.312078
0.6347	-0.0332684	5.2887	0.17258	-35.3628	-0.270098	-0.467136	0.126264	-0.83421	0.427054	-0.312078
0.6353	-0.6321	4.9776	0.470673	-39.0238	0.648235	1.08998	1.3889	0.390481	0.732093	0
0.6360	-0.931515	4.6665	0.470673	-36.587	0.648235	0.778561	1.3889	0.692216	0.732093	0
0.6367	-1.23093	2.52769	-0.753076	25.0676	-0.594215	-0.778561	-0.441924	-3.28359	-0.183023	-1.24831
0.6373	-0.332684	-0.213881	-1.36495	102.579	-0.864313	-1.40141	-1.3889	-6.01696	-0.488062	-1.56039
0.6380	0.299416	1.92493	0.470673	102.579	0.324117	0.155712	0.441924	-2.66237	-0.488062	0
0.6387	-0.332684	3.44154	0.784454	54.9738	0.972352	2.02426	0.757584	-0.230739	-0.488062	0
0.6393	-0.332684	3.14989	0.17258	27.2013	0.324117	1.71283	0.126264	-0.532474	-0.488062	-0.312078
0.6400	-0.0332684	2.52769	0.17258	17.4307	-0.594215	0.467136	0.126264	-0.83421	-0.488062	0
0.6407	0.598831	1.32218	-0.141202	11.9392	-1.78265	-1.08998	-0.757584	-1.75716	-0.488062	0
0.6413	-0.0332684	1.01108	-0.141202	15.6002	-1.51255	-0.778561	-0.189396	-1.45543	0.122016	-0.624156
0.6420	-0.931515	1.01108	0.470673	22.0128	0.324117	0.467136	1.07324	-0.532474	0.427054	-0.312078
0.6427	-0.332684	1.01108	0.784454	24.1465	0.648235	0.778561	0.757584	-0.230739	0.732093	-0.312078
0.6433	0.299416	0.699975	0.17258	25.6739	-0.270098	-1.08998	-0.441924	-1.13594	0.427054	-0.312078
0.6440	0.598831	-0.213881	-0.439294	27.2013	-1.51255	-1.63498	-1.3889	-1.75716	-0.183023	-0.312078
0.6447	-0.0332684	-0.213881	0.17258	27.5044	-0.864313	-1.08998	-0.441924	-1.45543	0.427054	-0.312078
0.6453	-1.23093	0.699975	0.470673	27.8075	0.324117	-0.778561	1.3889	-0.230739	1.34217	0
0.6460	-0.931515	0.408319	0.470673	28.1107	0.324117	0.467136	1.07324	-0.532474	1.34217	0
0.6467	-0.0332684	-0.213881	0.17258	29.0318	-0.594215	0.155712	-0.441924	-1.13594	0.732093	0
0.6473	0.598831	-0.816638	-0.753076	29.0318	-1.18843	-2.25783	-0.757584	-1.75716	0.427054	-0.312078
0.6480	0.299416	-0.213881	-1.36495	28.7286	-0.594215	-1.9464	-0.441924	-1.75716	0.427054	-0.312078
0.6487	-1.23093	0.408319	-0.439294	27.8075	0.324117	-0.155712	1.3889	-0.83421	1.03713	-0.312078
0.6493	-2.16245	1.01108	2.60439	25.977	0.648235	0.467136	1.64143	0.0709966	1.64721	0
0.6500	-1.23093	1.61383	4.7381	8.27814	0.324117	-0.155712	-0.189396	-1.13594	0.732093	-0.312078
0.6507	-0.6321	2.52769	5.05189	-35.9691	-0.864313	-1.9464	-0.441924	-2.96411	-0.793101	-0.624156
0.6513	-1.53035	2.83879	7.79748	-79.61	-0.594215	-1.40141	0.126264	-2.36064	-2.62333	-0.624156
0.6520	-2.76128	2.52769	11.1549	-90.29	1.24245	1.08998	0.757584	-2.0589	-3.84349	-0.624156
0.6527	-2.16245	3.14989	8.40935	-65.5722	1.24245	1.08998	1.3889	-3.28359	-2.92837	-0.312078
0.6533	-1.23093	1.32218	-1.05117	-35.0597	-0.270098	0.155712	0.441924	-3.88706	-1.09814	-0.312078
0.6540	-1.23093	-5.40536	-5.02051	-24.6828	-1.51255	-0.467136	-1.07324	-6.63818	-0.488062	0
0.6547	-0.931515	-11.5107	2.60439	-19.4944	-0.864313	0.155712	-0.441924	-12.4244	-1.70822	-0.312078
0.6553	-0.931515	-13.9412	7.1856	-12.7786	0.324117	2.25783	0.126264	-13.9508	-2.3183	-0.312078
0.6560	-0.6321	-12.1135	1.08255	-13.3849	0.972352	2.25783	0.441924	-9.69103	-1.09814	-0.312078
0.6567	-0.0332684	-9.66354	-7.7661	-14.6092	0.324117	0.778561	-0.189396	-6.63818	-0.793101	0
0.6573	0.299416	-8.14693	-10.8255	-15.2154	-1.18843	-0.778561	-1.70456	-0.230739	-1.40318	-0.312078
0.6580	-0.0332684	-0.816638	1.39633	-17.3608	-0.594215	-0.778561	-0.441924	9.53129	-0.488062	-0.312078
0.6587	0.598831	10.4607	10.245	-1.4924	0.972352	0.778561	1.3889	9.53129	0.122016	-0.312078
0.6593	-0.0332684	14.4273	-11.4217	24.1465	0.648235	1.08998	0.441924	-0.532474	0.122016	-1.24831
0.6600	0.598831	10.1691	-27.9109	22.6191	-0.594215	-0.155712	-0.757584	-13.3474	2.25729	-1.56039
0.6607	1.82976	5.58036	-15.0929	7.05391	-0.594215	-0.467136	-1.07324	-30.138	2.56233	-0.312078
0.6613	-0.931515	4.37484	-4.70673	14.6908	-0.270098	0.155712	-0.757584	-41.1248	0.122016	0
0.6620	-2.46186	1.32218	-6.54235	29.6381	-0.270098	0.778561	-0.441924	-38.6754	0.427054	-1.24831
0.6627	-0.931515	-6.61088	-10.5117	26.8981	0.0540196	1.40141	-0.189396	-26.1622	1.64721	-1.24831
0.6633	-0.332684	-6.31922	-10.8255	17.4307	0.648235	1.40141	0.441924	-2.0589	1.03713	-0.312078
0.6640	-0.0332684	1.61383	-3.18488	12.2423	-0.594215	-0.778561	-0.441924	6.49619	-0.183023	0.312078
0.6647	0.598831	7.42751	8.09557	8.88442	-0.864313	-0.467136	-1.07324	0.993952	-0.488062	0
0.6653	-0.332684	9.85798	9.02122	6.75076	0.648235	1.71283	-0.441924	38.2316	-0.183023	-0.312078
0.6660	-1.86303	-0.213881	1.39633	7.05391	1.56657	1.08998	0.126264	78.5044	0.122016	-0.312078
0.6667	-1.23093	-10.5968	0.784454	7.97499	0.324117	-0.467136	-0.189396	52.2712	0.122016	-0.312078
0.6673	1.49708	-5.09426	1.08255	7.97499	-0.864313	-0.778561	-1.3889	5.87497	-0.183023	-0.624156
0.6680	2.12918	-5.09426	-5.93047	8.58128	-0.270098	-0.467136	-0.441924	-15.1755	0.122016	-0.312078
0.6687	0.299416	-14.855	-8.37797	11.9392	0.648235	-0.155712	1.07324	-19.7548	0.732093	-0.312078
0.6693	0.598831	-14.855	-1.96114	11.9392	0.648235	0.467136	1.07324	-13.9508	0.732093	-0.312078
0.6700	1.82976	-8.74969	5.34998	-7.59024	-0.270098	0.155712	0.757584	-7.24165	0.122016	-0.312078
0.6707	2.42859	-6.00812	7.79748	-32.3081	-0.864313	-0.778561	0.126264	-7.54338	-0.793101	0
0.6713	2.42859	-3.86931	7.79748	-30.7807	0.0540196	-0.155712	0.126264	-2.96411	-0.793101	-0.312078
0.6720	1.82976	-2.64435	9.6331	-13.0818	0.324117	0.778561	1.07324	7.09966	0.427054	0
0.6727	0.898247	-1.73049	9.02122	-3.62606	0.324117	0.467136	1.3889	16.2582	1.03713	0
0.6733	0.598831	-1.73049	6.88751	-3.00811	-0.270098	-0.155712	0.441924	19.3111	0.427054	-0.312078
0.6740	-0.0332684	-2.95545	3.53004	-3.9292	-1.18843	-1.40141	-0.189396	13.5071	-0.183023	-0.312078
0.6747	-1.23093	-2.64435	-5.63238	-3.00811	-0.594215	-1.40141	0.757584	8.92782	0.427054	0
0.6753	-1.86303	-0.524981	-15.7048	-1.79554	0.324117	0.467136	1.3889	4.34854	0.732093	0
0.6760	-1.53035	0.408319	-16.6147	-1.79554	0.648235	1.08998	0.757584	-1.75716	0.122016	-0.312078
0.6767	-0.6321	-2.64435	-9.60172	-2.70497	0.648235	0.467136	-0.189396	-3.58533	0.122016	-0.312078
0.6773	1.19766	-3.57765	-2.57301	-3.32291	0.0540196	-0.467136	-1.07324	-4.49053	0.122016	-0.312078
0.6780	2.12918	-0.816638	1.08255	-2.40183	0.0540196	0.467136	-0.757584	-6.33644	0.122016	-0.312078
0.6787	1.49708	0.0972188	1.99251	-1.17759	0.972352	1.08998	0.126264	-3.28359	0.122016	-0.312078
0.6793	0.598831	-0.524981	1.69442	-1.4924	0.648235	0.778561	0.441924	3.74507	-0.183023	-0.312078
0.6800	0.299416	-2.04159	1.99251	-2.09868	0.0540196	0.467136	-0.189396	8.32435	-0.488062	-0.312078
0.6807	0.598831	-2.64435	1.39633	-2.40183	-0.864313	-1.08998	-1.3889	8.62608	-0.488062	0
0.6813	0.898247	-2.04159	1.08255	-1.79554	-0.864313	-0.778561	-1.07324	6.1767	-0.488062	-0.312078
0.6820	-0.0332684	-0.816638	1.99251	-0.571308	0.648235	1.71283	0.441924	3.74507	-0.488062	-0.624156
0.6827	-0.931515	-0.524981	1.69442	-0.571308	1.24245	2.25783	0.126264	2.52038	0.122016	-0.624156
0.6833	-0.332684	-0.816638	0.470673	-1.4924	0.324117	0.155712	-1.07324	1.59742	0.427054	-0.312078
0.6840	1.19766	-1.12774	0.470673	-2.40183	-1.18843	-1.40141	-1.70456	0.390481	0.122016	0
0.6847	0.898247	-0.524981	1.08255	-1.79554	-0.864313	-0.778561	-0.189396	0.692216	0.122016	0
0.6853	-0.332684	0.0972188	1.39633	-0.268165	0.324117	0.467136	1.3889	1.29569	0.427054	-0.312078
0.6860	-0.931515	0.0972188	1.08255	-0.268165	0.648235	1.08998	1.07324	1.29569	0.427054	-0.312078
0.6867	-0.0332684	-0.213881	1.08255	-1.17759	-0.270098	0.467136	0.126264	0.390481	0.122016	-0.312078
0.6873	1.19766	-0.816638	1.08255	-1.4924	-0.864313	-1.40141	-1.07324	-0.532474	-0.488062	-0.312078
0.6880	0.898247	-0.213881	0.784454	-0.571308	-0.270098	-1.08998	-0.189396	0.390481	-0.183023	-0.312078
0.6887	-0.332684	0.699975	0.784454	-0.268165	0.324117	0.155712	1.07324	1.29569	-0.183023	-0.312078
0.6893	-1.23093	-1.12774	-0.141202	-0.571308	0.324117	0.467136	-0.189396	-1.75716	-0.488062	-1.56039
0.6900	-0.6321	-2.95545	-0.439294	-0.268165	0.324117	0.467136	-1.3889	-4.49053	1.03713	-1.87247
0.6907	0.898247	-1.43884	0.784454	-0.874451	-0.594215	-0.778561	0.126264	-1.75716	1.64721	0
0.6913	0.598831	0.408319	0.784454	-1.79554	-1.18843	-1.40141	0.441924	0.390481	-0.183023	0
0.6920	-1.23093	-1.12774	-0.141202	-0.571308	-0.270098	-0.155712	-0.441924	-2.66237	0.122016	-1.56039
0.6927	-0.931515	-1.12774	0.470673	0.956066	1.24245	0.778561	0.757584	-2.96411	1.64721	-1.24831
0.6933	0.598831	0.408319	1.39633	-0.268165	0.648235	-0.155712	1.07324	-0.532474	0.732093	-0.312078
0.6940	0.898247	0.0972188	1.39633	-1.4924	-0.594215	-1.40141	-1.3889	-1.13594	-0.793101	-0.312078
0.6947	0.598831	0.0972188	1.99251	-0.874451	-0.270098	0.155712	-1.3889	-1.75716	-1.09814	-0.312078
0.6953	-0.332684	1.32218	3.21626	-0.268165	0.648235	1.08998	0.126264	-0.230739	-0.488062	0
0.6960	-0.931515	2.52769	3.53004	0.034978	0.972352	0.467136	0.441924	-0.230739	-0.183023	0
0.6967	-0.6321	3.44154	4.14192	-0.571308	0.0540196	-0.467136	-0.189396	-1.45543	-0.183023	0
0.6973	0.299416	2.52769	4.7381	-1.4924	-1.18843	-1.08998	-0.757584	-2.0589	-0.488062	-0.312078
0.6980	-0.0332684	0.699975	3.82814	-0.874451	-0.594215	0.155712	-0.441924	-2.0589	-0.488062	-0.312078
0.6987	-1.23093	-0.524981	2.60439	-0.268165	0.648235	1.08998	-0.189396	-2.0589	-0.183023	-0.312078
0.6993	-1.23093	-1.43884	3.53004	0.338121	0.324117	0.778561	0.126264	-1.75716	0.122016	-0.312078
0.7000	-0.931515	-0.816638	4.7381	-0.268165	-0.594215	0.155712	-0.189396	-2.66237	-0.183023	-0.312078
0.7007	-0.6321	-1.12774	-0.141202	-1.17759	-1.51255	-0.467136	-1.07324	-4.49053	-0.793101	-0.624156
0.7013	-0.6321	-1.73049	-3.49867	-0.268165	-0.594215	-0.467136	-0.189396	-2.96411	-0.183023	-0.312078
0.7020	-0.0332684	1.61383	1.69442	0.652923	0.648235	0.155712	1.07324	1.29569	0.122016	-0.312078
0.7027	0.898247	6.49421	4.44001	0.338121	0.972352	1.08998	0.757584	-2.0589	-0.183023	-0.312078
0.7033	0.898247	5.89146	-0.439294	-0.268165	0.648235	0.467136	0.126264	-10.9157	-0.488062	-0.312078
0.7040	0.898247	2.23603	-5.63238	-1.4924	-0.270098	-1.08998	-0.757584	-7.86287	-0.488062	-0.312078
0.7047	-0.332684	0.699975	-6.85613	-1.17759	0.0540196	-0.467136	-0.189396	4.96976	-0.488062	0
0.7053	-0.931515	4.9776	-2.57301	0.652923	1.24245	0.778561	1.07324	7.70313	-0.183023	0
0.7060	-0.6321	6.80531	2.60439	1.25921	0.972352	0.778561	1.07324	1.91691	-0.183023	-0.312078
0.7067	-0.332684	-4.18041	5.34998	0.652923	-0.270098	-0.467136	0.441924	-0.83421	-0.183023	-0.312078
0.7073	-0.0332684	-11.8024	6.88751	1.8655	-0.864313	-1.40141	-0.757584	0.390481	-0.793101	-0.312078
0.7080	-0.931515	-6.31922	4.44001	7.67185	0.0540196	-0.467136	-0.189396	1.59742	-0.183023	-0.624156
0.7087	-1.23093	-1.43884	-0.753076	13.1634	0.324117	0.155712	0.757584	-1.13594	0.732093	-0.312078
0.7093	-2.16245	2.83879	-4.40863	14.376	0.324117	1.08998	0.441924	6.79792	0.732093	-0.312078
0.7100	-3.69279	9.85798	-7.46801	12.8603	0.324117	-0.467136	0.126264	25.7185	0.427054	-0.624156
0.7107	-3.06069	13.8245	-6.85613	10.4118	-0.864313	-1.9464	-0.757584	20.2163	0.427054	-0.312078
0.7113	-2.16245	8.63303	-0.753076	10.1087	-0.864313	-0.778561	-0.757584	1.29569	0.732093	-0.312078
0.7120	-2.16245	-1.73049	6.57373	11.9392	0.324117	-0.155712	1.07324	-0.83421	1.03713	-0.312078
0.7127	-1.86303	-3.86931	9.31932	11.3329	0.648235	0.155712	1.07324	-0.230739	1.03713	-0.312078
0.7133	-0.6321	-2.04159	4.44001	12.2423	-0.270098	-0.778561	0.441924	-5.11175	0.732093	-0.312078
0.7140	2.12918	-0.213881	-5.02051	13.4665	-1.18843	-1.63498	0.126264	-10.2945	0.427054	-0.312078
0.7147	2.12918	6.80531	-11.1236	10.4118	-0.864313	-0.467136	-0.189396	-20.6777	0.427054	-0.312078
0.7153	-0.332684	4.9776	-11.4217	13.4665	0.324117	1.40141	0.757584	-28.9133	0.122016	-0.312078
0.7160	-0.0332684	-6.00812	-10.2136	21.3949	0.972352	2.02426	1.07324	-11.5192	-0.793101	0
0.7167	1.82976	-3.57765	-7.15422	-4.53549	0.0540196	1.08998	-0.189396	12.5841	-2.3183	0
0.7173	1.19766	5.89146	-2.57301	-50.3101	-0.594215	-1.08998	-1.3889	20.8375	-2.92837	0
0.7180	-0.332684	7.11641	0.17258	-56.7227	0.324117	0.467136	-0.441924	9.85077	-1.70822	0
0.7187	-1.86303	0.408319	-0.439294	-32.6112	0.648235	1.71283	-0.441924	-18.5301	-0.793101	-0.624156
0.7193	-4.29162	-11.5107	-2.27492	-14.0029	0.324117	0.155712	-0.757584	-24.6358	0.427054	-1.56039
0.7200	-3.69279	-15.1661	-2.27492	-7.28709	0.324117	-0.155712	0.126264	-5.71522	1.34217	-1.24831
0.7207	0.299416	-9.97464	-3.49867	-6.98395	-0.864313	-0.778561	-0.757584	0.993952	0.122016	0
0.7213	2.12918	-7.83583	-4.11054	-6.366	-0.864313	-1.08998	-1.3889	-0.83421	-0.488062	-0.312078
0.7220	3.02742	-5.40536	1.08255	-3.62606	0.648235	0.155712	0.441924	1.91691	0.122016	-0.312078
0.7227	3.02742	-1.12774	1.99251	-2.70497	0.648235	1.08998	1.07324	-1.13594	-0.183023	-0.312078
0.7233	1.82976	-0.213881	-3.18488	-3.32291	-0.594215	-0.467136	0.441924	-5.41349	-0.488062	-0.312078
0.7240	1.49708	-1.12774	-3.49867	-3.62606	-0.864313	-1.40141	-0.441924	8.32435	-0.183023	-0.312078
0.7247	0.598831	-0.524981	-0.439294	-3.32291	-0.594215	0.155712	-0.189396	30.9013	-0.183023	0
0.7253	-2.16245	3.44154	0.17258	-1.79554	0.648235	1.08998	1.07324	38.8351	-0.183023	0
0.7260	-2.46186	7.42751	0.784454	-0.874451	0.972352	0.778561	1.07324	30.9013	-0.183023	-0.312078
0.7267	-0.0332684	7.11641	3.53004	-1.4924	-0.270098	-0.155712	0.126264	29.3748	-0.488062	-0.312078
0.7273	2.72801	5.58036	5.34998	-2.09868	-1.18843	-0.778561	-0.441924	33.9541	-0.488062	0
0.7280	3.02742	1.01108	4.44001	-1.4924	-0.594215	-0.467136	0.126264	3.44333	-0.183023	0
0.7287	1.19766	-8.14693	3.82814	-1.4924	0.324117	0.155712	0.757584	-47.8339	-0.183023	-0.312078
0.7293	0.299416	-10.8885	5.34998	-1.17759	0.648235	1.40141	0.757584	-57.8977	-0.183023	-0.624156
0.7300	0.898247	-5.09426	6.27563	-0.571308	0.0540196	-0.155712	0.441924	-29.8363	0.122016	-0.312078
0.7307	0.299416	-2.04159	5.96185	1.25921	-0.864313	-2.25783	-0.189396	-3.88706	-0.183023	0
0.7313	-0.931515	-2.35269	8.70744	4.01082	-0.594215	-0.778561	-1.07324	8.00486	-0.488062	-0.624156
0.7320	-1.23093	-1.43884	11.453	6.44762	0.972352	1.08998	0.441924	8.62608	0.427054	-0.624156
0.7327	-1.23093	-0.524981	3.82814	7.97499	1.24245	1.08998	1.3889	5.87497	1.64721	-0.312078
0.7333	-0.931515	-2.04159	-11.7354	7.97499	-0.594215	-0.155712	-0.441924	2.82211	0.427054	-0.624156
0.7340	0.598831	-2.95545	-18.4504	8.58128	-1.51255	-1.08998	-1.3889	-1.75716	1.03713	-0.936235
0.7347	1.19766	0.408319	-12.0335	10.1087	0.0540196	-0.467136	0.126264	-2.36064	1.64721	0
0.7353	0.598831	4.9776	-2.57301	10.1087	0.648235	0.778561	1.07324	-0.83421	0.427054	0
0.7360	0.598831	7.42751	3.21626	10.4118	0.0540196	1.08998	0.441924	-1.45543	0.122016	-0.624156
0.7367	0.898247	9.25523	3.21626	10.1087	-0.594215	-0.155712	0.126264	-2.0589	0.427054	0
0.7373	0.898247	11.0829	0.17258	10.4118	-1.18843	-1.40141	-0.441924	-1.45543	0.122016	0
0.7380	-0.0332684	13.2218	0.470673	14.0728	-0.864313	-0.155712	-0.757584	-0.83421	1.03713	0
0.7387	-0.6321	14.1356	2.60439	12.8603	0.324117	1.40141	-0.189396	-0.83421	1.03713	-0.312078
0.7393	-0.931515	14.4273	3.53004	-0.874451	1.24245	1.71283	0.757584	0.692216	-0.488062	-0.624156
0.7400	-0.931515	10.7718	4.44001	-10.3418	0.648235	0.778561	0.441924	0.692216	-0.488062	-0.624156
0.7407	-0.332684	-4.78316	4.14192	-12.1724	-0.864313	-1.08998	-0.757584	-2.0589	-0.183023	-0.312078
0.7413	-1.23093	-18.2188	3.21626	-22.2344	-0.594215	-0.778561	-0.757584	-2.96411	-0.183023	-0.312078
0.7420	-1.86303	-14.2523	0.784454	-35.3628	0.648235	0.778561	0.441924	-2.36064	0.122016	-0.312078
0.7427	-0.931515	-2.04159	-6.54235	-38.1144	0.972352	0.467136	1.07324	-1.45543	0.122016	-0.312078
0.7433	-0.332684	5.89146	-9.89981	-36.2722	0.0540196	-0.155712	-0.189396	-1.75716	-0.183023	0
0.7440	-0.0332684	11.394	-6.24426	-35.6659	-0.864313	-1.08998	-2.02022	-2.66237	-0.183023	-0.312078
0.7447	-0.6321	16.8772	-2.57301	-34.7565	-0.270098	-1.08998	-0.757584	-1.45543	-0.183023	-0.624156
0.7453	-0.931515	23.2936	1.08255	-36.587	0.972352	0.778561	0.441924	-0.230739	-0.183023	-0.312078
0.7460	-0.0332684	23.8964	4.7381	-42.3817	1.24245	1.71283	-0.189396	-1.45543	0.122016	-0.312078
0.7467	0.299416	-0.524981	5.34998	-47.5701	0.648235	0.778561	0.441924	-3.88706	0.122016	-0.312078
0.7473	0.299416	-29.5156	3.82814	-46.9639	-0.594215	-1.08998	-0.189396	-7.24165	-0.183023	-0.312078
0.7480	-0.0332684	-27.3768	4.14192	-42.3817	-0.594215	0.155712	-0.441924	-8.76807	0.122016	0
0.7487	-0.6321	-9.97464	4.7381	-37.7996	0.648235	1.40141	1.07324	-7.24165	0.427054	0
0.7493	-0.931515	-1.73049	-1.05117	3.69601	0.0540196	-0.155712	0.441924	-7.86287	0.122016	-0.936235
0.7500	-0.332684	-4.49151	-7.15422	84.2621	-0.270098	-0.467136	0.126264	-9.38929	0.732093	-1.24831
0.7507	1.49708	-9.06079	-6.54235	111.125	-0.594215	-1.08998	-0.189396	-6.01696	0.732093	0
0.7513	1.82976	-8.14693	-5.3186	69.0117	-0.864313	-1.63498	0.126264	0.692216	-0.183023	0
0.7520	-0.0332684	-6.92198	-5.02051	32.3897	0.324117	-0.155712	0.441924	7.40139	-0.183023	-0.312078
0.7527	-1.53035	-17.9077	-5.02051	19.8792	0.972352	0.778561	0.441924	8.32435	0.122016	-0.312078
0.7533	-1.53035	-40.1902	-4.11054	13.7697	0.324117	-0.155712	-0.189396	0.993952	0.122016	-0.312078
0.7540	-0.931515	-58.5063	-1.66304	9.80551	-1.18843	-1.9464	-1.07324	-9.06981	0.122016	-0.312078
0.7547	-1.23093	-67.6643	0.17258	10.1087	-0.594215	-0.778561	-1.07324	-14.8738	-0.183023	0
0.7553	-1.53035	-72.8363	-0.141202	11.3329	0.324117	1.40141	-0.189396	-10.5962	0.122016	0
0.7560	-0.0332684	-73.4585	0.784454	9.80551	0.324117	0.467136	0.126264	6.79792	0.122016	-0.312078
0.7567	2.42859	-75.5973	1.69442	7.67185	0.0540196	-0.467136	-0.189396	18.3881	0.427054	-0.312078
0.7573	4.25836	-68.267	0.17258	6.14448	-0.594215	-0.467136	-1.3889	11.6789	-0.183023	0
0.7580	4.85719	-2.04159	2.60439	6.75076	-0.270098	0.155712	-0.757584	2.52038	-0.183023	-0.312078
0.7587	3.32684	91.6384	6.88751	7.67185	0.324117	0.467136	0.757584	-0.83421	0.122016	-0.312078
0.7593	1.19766	110.868	6.27563	7.05391	0.0540196	0.155712	0.441924	-0.230739	0.122016	-0.624156
0.7600	-0.332684	67.2365	4.44001	5.52653	-0.864313	-0.155712	0.126264	2.82211	-0.488062	-0.312078
0.7607	-0.6321	35.4848	4.44001	2.48344	-1.78265	-1.40141	-0.757584	5.27149	-0.793101	-0.312078
0.7613	-0.332684	24.4991	5.66376	0.652923	-1.18843	-1.08998	-0.757584	5.27149	-0.488062	-0.624156
0.7620	-0.6321	18.1021	2.3063	0.338121	0.648235	0.467136	0.757584	3.74507	-0.183023	-0.312078
0.7627	-0.931515	14.4273	-6.24426	0.034978	0.648235	0.467136	1.07324	2.82211	-0.183023	-0.312078
0.7633	-1.23093	12.5996	-9.28794	-1.79554	0.0540196	-0.155712	0.441924	3.12385	0.122016	0
0.7640	-0.6321	11.0829	-5.63238	-5.15343	-0.864313	-0.778561	-1.07324	4.0468	-0.183023	0
0.7647	0.598831	12.3079	-1.96114	-5.75972	-0.864313	-0.467136	-1.3889	4.34854	-0.183023	-0.312078
0.7653	0.299416	13.2218	-0.141202	-3.62606	0.324117	0.467136	0.126264	4.34854	0.732093	-0.312078
0.7660	-0.931515	10.4607	0.17258	-1.4924	0.972352	0.467136	1.07324	3.44333	0.732093	0
0.7667	-0.931515	8.34137	-0.141202	-1.79554	0.0540196	0.467136	0.126264	1.29569	0.122016	0
0.7673	0.299416	8.94413	-1.05117	-2.70497	-1.18843	-0.467136	-0.757584	-0.83421	0.122016	-0.312078
0.7680	-0.332684	9.85798	0.17258	-0.874451	-0.864313	-1.08998	-0.441924	-2.66237	0.122016	-0.312078
0.7687	-0.931515	8.94413	2.3063	4.01082	0.324117	0.778561	1.07324	-2.66237	0.427054	0
0.7693	-0.931515	7.71917	4.7381	11.3329	0.648235	1.40141	1.64143	-0.83421	0.427054	-0.312078
0.7700	-0.931515	7.42751	5.96185	14.0728	0.324117	0.155712	0.757584	-1.13594	0.122016	-0.624156
0.7707	-0.332684	7.71917	2.91817	7.97499	-0.594215	-1.08998	-0.441924	-3.88706	-0.488062	-0.312078
0.7713	-0.0332684	10.1691	-4.70673	3.08973	0.0540196	-0.467136	-0.441924	-6.33644	0.122016	-0.312078
0.7720	-0.931515	9.25523	-10.8255	2.78658	1.24245	0.778561	0.126264	-5.41349	0.732093	-0.312078
0.7727	-2.16245	6.20256	-10.5117	1.25921	1.24245	0.778561	1.07324	-0.532474	1.03713	-0.312078
0.7733	-1.23093	7.71917	-1.36495	0.034978	0.324117	-0.467136	0.757584	2.82211	0.122016	-0.312078
0.7740	-0.0332684	5.89146	8.40935	0.034978	-0.594215	-0.778561	-0.757584	-1.13594	-0.488062	-0.312078
0.7747	-0.0332684	-0.524981	8.40935	0.652923	-0.594215	-0.778561	-0.757584	-2.0589	-0.183023	0
0.7753	-0.6321	-0.524981	5.66376	1.56235	0.324117	0.155712	0.757584	9.53129	-0.183023	-0.312078
0.7760	-0.931515	3.44154	6.57373	1.8655	0.648235	1.71283	1.07324	19.6128	-0.183023	-0.312078
0.7767	-0.332684	1.92493	3.82814	0.956066	-0.594215	0.778561	0.441924	18.9916	-0.183023	0
0.7773	-0.332684	-1.43884	-3.49867	-0.268165	-1.18843	-1.08998	-0.441924	14.4301	-0.183023	-0.312078
0.7780	-1.23093	3.75264	-3.79676	0.034978	-0.270098	-0.778561	0.441924	16.8617	-0.183023	-0.312078
0.7787	-3.69279	11.9968	-0.141202	-0.268165	0.324117	-0.155712	1.07324	32.1259	-0.183023	-0.624156
0.7793	-4.89046	12.3079	-0.753076	-1.4924	0.0540196	0.155712	0.441924	20.518	0.122016	-1.87247
0.7800	-1.86303	11.9968	0.17258	-1.4924	0.324117	1.08998	0.126264	-26.464	1.03713	-0.936235
0.7807	0.898247	13.2218	2.3063	-3.00811	-0.594215	0.155712	-1.3889	-37.7702	0.732093	0
0.7813	0.299416	6.49421	2.60439	-3.32291	-0.594215	-0.778561	-2.02022	-10.2945	-0.793101	-0.312078
0.7820	0.299416	-0.524981	3.82814	-1.17759	0.648235	0.467136	-0.189396	-12.7439	-0.488062	-0.312078
0.7827	2.12918	-5.09426	8.40935	-2.40183	0.972352	1.40141	0.126264	-47.2305	-0.183023	-0.312078
0.7833	3.32684	-12.7162	9.02122	-4.85029	-0.270098	-0.155712	-0.757584	-55.4661	-0.488062	-0.312078
0.7840	3.02742	-10.8885	-3.18488	-5.75972	-2.10676	-1.63498	-1.07324	-24.9375	-0.183023	-0.312078
0.7847	1.49708	0.0972188	-12.0335	-4.85029	-1.51255	-1.40141	-1.07324	22.6657	0.122016	0
0.7853	-0.931515	3.14989	-6.85613	-5.15343	0.324117	-0.155712	-0.189396	52.8747	1.03713	-0.312078
0.7860	-1.86303	-0.816638	-0.439294	-4.85029	0.0540196	1.08998	-0.189396	26.322	0.732093	-0.312078
0.7867	-1.23093	-1.12774	0.17258	0.338121	-0.270098	1.40141	-0.757584	-22.2042	-0.488062	-0.312078
0.7873	-0.6321	4.9776	-0.141202	-0.874451	-1.18843	-0.467136	-1.3889	-49.6621	-1.09814	-0.312078
0.7880	-0.931515	10.7718	4.44001	-7.28709	-0.594215	-0.778561	-1.3889	-46.0058	-0.488062	-0.312078
0.7887	-0.931515	2.83879	12.0649	-8.19652	0.648235	0.778561	-0.189396	-31.0432	0.122016	-0.312078
0.7893	-0.6321	-15.1661	15.4224	-6.68081	0.324117	0.467136	-0.441924	-40.2018	0.122016	-0.624156
0.7900	-0.6321	-34.0849	12.3787	-7.28709	-0.594215	-0.778561	-0.757584	-43.5564	0.122016	-0.624156
0.7907	1.19766	-60.334	5.96185	-9.11761	-1.18843	-1.08998	-2.02022	-19.4531	-0.488062	-0.312078
0.7913	1.82976	-84.7359	-4.70673	-1.4924	-0.864313	-0.155712	-1.3889	1.59742	-1.70822	-0.312078
0.7920	-1.23093	-99.0854	-19.9722	8.27814	0.972352	1.40141	-0.189396	-1.75716	-2.62333	-0.312078
0.7927	-2.76128	-108.243	-31.5664	5.52653	1.24245	0.155712	0.126264	-12.1227	-2.62333	-0.312078
0.7933	2.12918	-70.4058	-21.494	0.956066	0.324117	-0.778561	-0.757584	-15.7967	-2.3183	-0.624156
0.7940	8.51671	27.8629	9.31932	0.652923	-0.864313	-1.08998	-2.27275	-21.9024	-2.92837	-0.936235
0.7947	7.31905	86.1553	30.6879	3.08973	-0.594215	-1.40141	-2.02022	-17.3232	-3.23341	-0.936235
0.7953	-0.332684	65.4088	25.8085	11.0297	1.24245	0.155712	-0.189396	16.2582	-1.40318	-0.624156
0.7960	-3.99221	37.332	12.3787	20.4855	1.89068	1.40141	-0.189396	63.2579	0.122016	-0.624156
0.7967	-2.76128	35.7959	4.14192	29.6381	0.972352	0.155712	-0.757584	82.4803	0.732093	-0.624156
0.7973	-1.86303	36.4181	-19.6741	35.1296	0.324117	-1.08998	-1.3889	66.6125	1.64721	-0.312078
0.7980	-2.76128	26.0352	-39.5051	27.5044	0.648235	-0.778561	-0.189396	34.5576	2.86737	-0.312078
0.7987	-2.46186	15.0495	-25.1653	18.9581	0.648235	0.155712	1.07324	4.65027	2.86737	-0.312078
0.7993	-2.46186	6.20256	-8.06419	20.4855	0.972352	0.467136	0.757584	2.82211	1.64721	-0.312078
0.8000	-1.53035	-1.43884	-1.96114	24.7528	0.324117	-0.778561	0.126264	17.1634	0.427054	-0.312078
0.8007	0.898247	-7.54418	3.21626	25.977	-1.18843	-2.25783	-0.757584	20.8375	0.122016	-0.312078
0.8013	1.49708	-12.1135	2.91817	25.977	-0.864313	-1.40141	-0.189396	22.6657	0.732093	-0.312078
0.8020	-0.332684	-19.4438	-1.05117	25.6739	0.648235	0.778561	0.441924	24.7955	0.732093	-0.312078
0.8027	-0.931515	-27.9796	-3.49867	24.7528	1.24245	0.467136	0.757584	17.4652	0.427054	-0.312078
0.8033	0.299416	-31.0322	-4.40863	22.6191	0.0540196	-0.778561	0.757584	3.74507	-0.183023	-0.624156
0.8040	2.12918	-40.793	-4.70673	4.92024	-0.864313	-1.08998	-0.757584	-5.71522	-0.793101	-0.624156
0.8047	2.42859	-31.9461	-4.40863	-40.5512	-0.594215	-0.467136	-1.3889	-6.63818	-1.09814	-0.312078
0.8053	2.12918	4.37484	-4.11054	-82.9679	0.324117	0.778561	0.126264	-2.0589	-2.01326	-0.312078
0.8060	-0.6321	-7.23308	-6.85613	-89.9868	0.972352	1.71283	1.07324	3.44333	-2.62333	-0.312078
0.8067	-3.36011	-25.238	-8.98985	-68.3238	0.324117	1.40141	0.757584	5.27149	-2.62333	-0.312078
0.8073	-2.16245	22.3798	-3.18488	-35.6659	-0.594215	0.155712	-0.441924	1.59742	-2.01326	-0.312078
0.8080	0.299416	58.9923	5.05189	-15.2154	-0.270098	-0.155712	0.126264	-1.13594	-0.183023	-0.312078
0.8087	0.299416	44.6429	5.66376	-20.4039	0.648235	1.08998	1.07324	0.390481	1.95225	-0.312078
0.8093	-2.16245	24.2075	2.60439	-26.5134	0.324117	0.778561	1.07324	3.44333	2.86737	-1.24831
0.8100	-3.36011	19.016	1.99251	-21.0218	0.324117	0.467136	0.757584	6.1767	3.47744	-1.56039
0.8107	-1.23093	20.2409	1.99251	-21.9312	0.0540196	1.40141	0.441924	9.85077	2.56233	-0.312078
0.8113	-0.0332684	17.4799	0.17258	-16.7428	0.324117	2.25783	0.757584	9.85077	0.732093	0
0.8120	-0.6321	14.1356	0.784454	6.44762	1.56657	2.88067	1.64143	5.87497	0.122016	-0.312078
0.8127	-0.332684	15.9633	2.91817	12.5455	1.56657	2.02426	1.64143	3.44333	-0.183023	-0.312078
0.8133	-0.332684	17.791	2.91817	6.44762	0.324117	0.778561	0.757584	-0.230739	0.122016	-0.312078
0.8140	-0.6321	14.4273	0.784454	31.7717	-0.594215	-0.155712	0.126264	-6.63818	-0.183023	-0.312078
0.8147	-0.931515	10.4607	-0.141202	61.6779	-0.864313	0.467136	0.126264	-10.2945	-0.183023	-0.312078
0.8153	-1.86303	9.85798	2.3063	49.4823	0.648235	2.02426	1.07324	-4.1888	1.34217	0
0.8160	-1.23093	10.1691	5.34998	9.80551	0.972352	1.40141	1.95709	5.87497	0.732093	-0.312078
0.8167	0.598831	6.80531	7.79748	-21.3249	-0.270098	0.155712	1.3889	10.756	-0.488062	-0.312078
0.8173	0.898247	1.01108	12.3787	-23.4586	-1.78265	-0.778561	0.126264	6.49619	0.122016	0
0.8180	-1.53035	1.92493	13.6024	-7.89338	-1.78265	-1.08998	0.757584	-3.58533	1.03713	-0.312078
0.8187	-3.69279	8.34137	4.14192	1.8655	0.0540196	-0.155712	2.58841	-11.8209	1.34217	-0.312078
0.8193	-3.06069	6.80531	-7.15422	2.48344	0.648235	1.40141	2.27275	-14.2703	1.03713	-0.312078
0.8200	-0.332684	-1.43884	-9.60172	1.25921	0.324117	1.40141	0.757584	-14.572	1.03713	-0.312078
0.8207	2.12918	-2.04159	-6.54235	0.338121	-0.864313	0.155712	-1.07324	-21.9024	0.122016	-0.312078
0.8213	1.19766	6.80531	-4.40863	0.652923	-1.18843	-0.155712	-1.3889	-42.3317	0.122016	-0.312078
0.8220	-0.6321	11.6857	-3.18488	2.48344	0.324117	1.08998	0.441924	-60.3471	1.03713	0
0.8227	-0.6321	9.25523	-0.141202	2.48344	1.24245	0.778561	1.95709	-61.8735	1.34217	0
0.8233	0.898247	7.71917	4.7381	1.8655	0.648235	-0.467136	1.3889	-44.7811	0.732093	0
0.8240	1.82976	9.85798	7.1856	0.956066	-0.864313	-1.40141	-0.441924	-5.71522	0.122016	-0.312078
0.8247	1.49708	7.71917	6.27563	0.652923	-0.594215	-0.778561	-0.441924	37.9122	0.122016	-0.312078
0.8253	-0.0332684	-9.06079	3.53004	1.56235	0.972352	1.40141	0.441924	44.3374	0.732093	-0.312078
0.8260	-1.53035	-26.4629	4.14192	2.1803	1.89068	2.25783	1.3889	22.0444	0.732093	-0.312078
