MR32 ASCII
Name	TYR30_fast
Frequency	1500
Date	31-08-2015 12:10:20
"Time,s"	"RT TIB.ANT.,uV"	"RT MED. GASTRO,uV"	"RT LAT. GASTRO,uV"	"RT BICEPS FEM.,uV"	"RT VMO,uV"	"RT VLO,uV"	"RT RECTUS FEM.,uV"	"RT SOLEUS,uV"	"RT SEMITEND.,uV"	"Channel 12,uV"
0.0000	4.70026	21.2814	-22.9461	17.8135	7.83726	19.7959	3.11539	-13.9761	-15.2872	-9596.17
0.0007	-7.81727	-8.29613	-53.7527	17.8135	9.06102	21.624	3.7088	-88.1076	-14.6618	-10248.2
0.0013	-24.6392	-40.0378	-72.0144	15.3825	8.74857	20.3705	0.667584	-53.3535	-12.8551	-9532.47
0.0020	-30.428	-16.8628	-70.1882	12.9095	7.83726	18.8557	-1.78022	-35.3387	-11.9518	-9885.21
0.0027	-26.7667	38.4147	-54.3085	12.9095	8.43612	19.7959	-1.14973	-118.026	-12.5077	-9833.36
0.0033	-14.8429	43.5547	-35.4117	13.8316	8.74857	19.7959	-0.55632	-144.915	-13.7585	-9793.03
0.0040	2.86963	12.4442	-26.9161	14.125	8.12367	19.1691	-0.55632	-80.1896	-14.0364	-9817.67
0.0047	14.1502	-12.5344	-28.9804	12.3227	7.21236	17.6544	-0.259616	-47.8268	-12.8551	-9817.35
0.0053	36.7115	-12.2638	-25.3281	10.7719	6.30105	15.5129	0.37088	-73.4939	-11.3264	-9808.71
0.0060	45.5678	24.6179	-9.76601	11.4006	5.9886	14.2593	0.37088	-114.094	-10.701	-9793.35
0.0067	10.489	60.9585	1.82616	10.7719	4.16599	12.7446	-2.07693	-139.07	-9.7977	-9913.38
0.0073	-23.4023	40.2182	2.38195	9.5564	3.85354	11.8567	-1.78022	-134.234	-8.26898	-9658.59
0.0080	-24.6392	26.5115	2.69955	8.63429	5.07729	11.5433	1.59478	-67.9672	-6.46231	-9795.27
0.0087	-7.52041	56.7203	24.3753	7.7541	4.79088	11.2299	4.0055	33.3194	-5.21154	-10488.6
0.0093	-3.26544	38.4147	16.4355	7.12539	5.38974	12.17	8.30771	53.4598	-4.30821	-6308.14
0.0100	-2.67173	-3.42666	-36.9203	6.83199	5.9886	13.3714	9.82832	18.9713	-3.96077	-216.385
0.0107	12.3196	-34.5371	-48.2743	7.7541	6.30105	15.1995	8.30771	31.7783	-3.40488	108.193
0.0113	15.3377	-62.5817	-31.7594	8.3409	6.6135	15.8263	27.816	15.6234	-3.05744	-282.965
0.0120	6.18455	-47.9733	-37.2379	8.0475	7.21236	16.1397	63.235	-71.3682	-4.93359	70.1011
0.0127	7.42146	-18.6663	-33.5855	6.83199	6.92595	15.1995	77.8848	-87.8419	-6.46231	17.6053
0.0133	13.5071	-0.991928	-16.5149	2.26336	6.6135	10.6031	76.0304	29.6526	-4.58616	-22.4067
0.0140	14.4471	10.0095	-0.635188	-4.7782	7.52481	3.60401	68.0936	145.022	0.555898	1.60048
0.0147	13.5071	5.77122	16.7531	-12.7	5.70219	-5.84998	47.0647	147.785	4.86411	-0.640193
0.0153	10.1921	7.57473	19.532	-16.3884	2.03092	-11.0209	20.8064	93.7406	5.76744	-0.320096
0.0160	4.70026	20.6501	1.82616	-13.9155	0.208299	-9.50622	1.89149	44.0007	5.48949	-0.640193
0.0167	2.86963	22.5438	-10.0836	-11.1911	-0.10415	-8.30488	-9.71706	18.7056	7.01821	-0.640193
0.0173	4.70026	8.47648	-11.5922	-10.5623	1.11961	-7.36471	-20.1017	15.9423	10.0757	0
0.0180	3.46335	-8.29613	-13.7359	-11.4844	2.03092	-7.36471	-30.783	5.8455	11.5349	-0.640193
0.0187	3.16649	-14.6986	-12.545	-12.4066	2.65582	-8.61827	-41.1306	-4.51698	12.5077	-0.960289
0.0193	7.71832	-12.8951	-8.89262	-14.5442	1.43206	-10.7598	-52.1457	-9.40594	14.9398	-0.640193
0.0200	10.7859	-7.39437	-8.25744	-15.4663	0.494711	-13.1625	-53.6663	-21.8941	17.3718	-0.320096
0.0207	7.71832	0.811578	-6.43127	-13.0353	1.43206	-12.2745	-52.7391	-29.8652	16.7464	0
0.0213	8.36151	5.41052	-3.41413	-10.8977	0.494711	-9.81961	-64.3477	-25.8796	13.689	-0.320096
0.0220	10.1921	4.50877	-1.27038	-8.13133	1.11961	-5.53659	-81.4452	-17.0051	13.411	-0.320096
0.0227	6.18455	1.17228	-2.14376	-8.42472	1.11961	-5.2232	-96.3917	-11.8504	15.2177	0
0.0233	1.92958	-1.89368	-6.11368	-11.1911	-2.23922	-8.30488	-71.0606	-22.7974	14.5923	0
0.0240	-0.197906	1.17228	-6.43127	-10.8977	-1.92677	-6.79016	2.7816	-32.5754	15.5651	-0.320096
0.0247	4.99712	12.1737	0.317594	-12.1132	-2.23922	-8.30488	63.8284	-27.4207	17.6498	0
0.0253	17.8115	20.3796	10.6394	-16.9752	-4.99918	-13.1625	110.522	-25.5608	19.8039	-0.320096
0.0260	21.4728	14.2477	12.7831	-20.0349	-4.68673	-13.1625	140.118	-21.6283	22.2359	-0.320096
0.0267	12.0228	4.23824	3.65233	-20.3283	-4.68673	-13.7892	118.459	-6.96146	20.4293	-0.320096
0.0273	1.039	7.84525	0.873383	-18.1907	-4.06184	-13.7892	96.503	3.71986	16.121	0
0.0280	-0.197906	15.7807	4.8433	-17.2686	-2.23922	-11.9611	98.9137	-2.0725	12.1603	0
0.0287	7.42146	16.6824	3.33473	-15.7597	-2.55167	-9.50622	93.4247	-21.6283	5.48949	-0.320096
0.0293	7.71832	14.2477	1.19098	-8.13133	-1.32791	-1.56696	80.2955	-28.3241	-2.77949	-0.320096
0.0300	1.63272	4.50877	-2.14376	-0.796367	1.11961	6.63346	85.8216	-17.3239	-11.3264	-0.320096
0.0307	1.92958	-8.92735	-6.43127	4.06566	3.85354	13.9982	128.213	-15.5171	-19.5259	0
0.0313	4.99712	-9.82911	-5.79609	9.89172	7.21236	19.1691	168.825	-15.5171	-25.6408	0.320096
0.0320	5.29397	-3.15614	-3.41413	13.2448	8.43612	17.6544	170.939	-1.1691	-30.227	0.320096
0.0327	4.05706	7.57473	-0.635188	13.2448	7.52481	14.5727	140.118	8.02428	-32.1031	0
0.0333	3.16649	19.7484	6.11368	13.5382	9.06102	16.7142	76.6609	0.956536	-30.8523	0
0.0340	3.16649	22.8144	7.30466	15.3825	11.4825	22.8254	2.18819	-9.72479	-30.227	0
0.0347	1.63272	19.7484	-0.317594	16.2627	10.8836	27.1084	-52.1457	-16.1017	-31.1303	0
0.0353	-0.841099	20.6501	0.873383	17.5201	10.5712	29.2499	-78.0702	-16.1017	-31.7557	-0.320096
0.0360	2.22644	18.8466	6.35188	16.8914	10.5712	29.2499	-72.2845	-11.2127	-29.6016	0
0.0367	8.01517	7.3042	0	10.7719	9.06102	24.0267	-39.61	-11.5316	-23.2087	0.320096
0.0373	9.54894	-0.631227	-3.09654	5.90988	9.65988	18.8557	-16.7267	-13.6572	-16.8159	0
0.0380	8.65837	-0.631227	1.19098	4.35906	10.2848	15.1995	-19.1745	-12.7538	-13.4805	0
0.0387	8.01517	0.541052	1.82616	2.55676	10.2848	12.4312	-21.919	-13.6572	-11.3264	0.320096
0.0393	8.01517	2.34456	5.1609	1.34125	11.4825	11.2299	-20.6951	-13.9761	-10.0757	0.320096
0.0400	10.1921	1.17228	6.98706	0.41914	12.4198	10.6031	-28.6319	-14.8795	-9.7977	-0.320096
0.0407	9.25208	1.17228	3.01714	1.34125	12.1074	10.9165	-38.3861	-17.0051	-8.89437	-0.320096
0.0413	6.18455	5.77122	1.50857	2.55676	10.5712	10.3419	-37.496	-15.1983	-7.6436	0
0.0420	6.53088	8.20595	4.20812	2.26336	7.83726	7.26024	-20.9918	-10.947	-5.83693	0
0.0427	8.01517	6.67297	5.1609	0.125742	4.47843	2.40267	21.7336	-11.2127	-3.68282	0
0.0433	8.95523	5.77122	3.96992	-4.14949	3.25468	-2.82053	69.948	-12.7538	-0.972822	0
0.0440	7.71832	7.84525	5.1609	-7.50261	4.79088	-3.13392	84.5977	-9.40594	2.43205	-0.320096
0.0447	7.42146	8.47648	5.79609	-10.5623	4.47843	-2.82053	105.033	-7.2803	4.23872	0
0.0453	8.01517	4.77929	5.79609	-9.64023	5.07729	-0.365624	167.304	-7.86485	2.43205	0.320096
0.0460	8.65837	3.33649	7.93984	-5.0716	6.30105	4.80534	227.72	-6.05806	-1.87616	0
0.0467	10.1921	4.23824	7.62225	-4.4848	4.16599	6.63346	253.942	-4.19813	-7.99103	0
0.0473	6.82774	8.747	4.52571	-2.34719	5.9886	11.8567	250.307	-3.61358	-12.2298	0
0.0480	-1.73167	17.9449	2.69955	-1.13168	7.21236	13.9982	275.304	-6.05806	-13.1331	0
0.0487	-4.15602	24.3473	6.11368	-4.4848	3.56712	8.20042	341.247	-6.64261	-12.8551	-0.320096
0.0493	1.63272	22.8144	11.9098	-2.93398	3.56712	8.46158	359.531	-0.531409	-10.4231	0
0.0500	6.18455	19.4779	9.13082	-1.13168	2.94223	9.08836	318.66	3.13531	-7.36565	0
0.0507	8.95523	14.6084	2.69955	-4.14949	0.494711	4.80534	269.222	1.91307	-3.68282	-0.320096
0.0513	11.6764	1.4428	0.873383	-5.99371	0.208299	2.97722	215.518	-1.1691	0	-0.320096
0.0520	10.1921	-13.5263	0	-8.13133	-0.70301	1.46249	148.352	-6.64261	0.903334	-0.320096
0.0527	6.18455	-14.6986	-1.58797	-9.05343	-0.10415	-2.19374	66.2763	-8.1837	0.277949	-0.320096
0.0533	5.88769	-5.59087	-0.317594	-7.83793	1.71847	-7.6781	-9.42035	-5.10153	0.555898	0
0.0540	7.42146	-1.26245	2.69955	-8.13133	3.25468	-11.6477	-49.6979	-0.531409	2.71	0
0.0547	6.53088	-1.89368	1.82616	-9.34683	3.25468	-14.9906	-92.72	1.27538	4.86411	0
0.0553	3.46335	3.87754	0.317594	-9.97554	2.94223	-18.0723	-159.849	-0.850255	3.96077	0.320096
0.0560	1.039	9.37823	2.38195	-9.64023	2.65582	-14.7294	-213.256	-0.531409	3.61334	0
0.0567	3.46335	4.50877	3.33473	-10.5623	2.65582	-6.47676	-254.757	0.690832	6.39283	-0.320096
0.0573	6.18455	-0.991928	2.38195	-10.8977	4.16599	2.40267	-273.079	1.27538	7.57411	0
0.0580	4.35392	1.4428	2.14376	-9.05343	7.21236	7.57363	-243.186	3.13531	7.57411	0
0.0587	2.22644	4.23824	0.873383	-7.50261	7.21236	5.11873	-186.108	3.13531	7.01821	0
0.0593	3.16649	3.60701	-0.952781	-5.70031	4.16599	1.1491	-108.297	1.27538	4.23872	0
0.0600	4.99712	2.07403	-0.317594	-5.99371	2.03092	-2.50713	-19.1745	1.91307	3.33539	0
0.0607	7.1246	3.33649	3.33473	-6.28711	4.16599	-3.39508	38.794	4.35755	6.67078	0
0.0613	7.42146	4.23824	3.01714	-5.70031	5.07729	-3.70847	69.3175	3.40102	9.45027	0
0.0620	5.59083	3.60701	0.317594	-5.40691	4.79088	-5.2232	100.768	1.91307	10.6315	0
0.0627	2.86963	3.87754	2.14376	-4.4848	7.21236	-6.79016	133.109	3.13531	13.689	0
0.0633	3.16649	2.70526	3.01714	-4.7782	7.52481	-10.7598	121.5	3.13531	15.2177	0
0.0640	4.99712	2.07403	2.14376	-2.34719	8.12367	-13.1625	39.4245	3.71986	13.411	0
0.0647	4.05706	4.50877	2.38195	1.63465	10.8836	-12.9013	-55.4836	6.16435	10.979	0.320096
0.0653	3.16649	4.50877	1.19098	0.41914	11.7949	-14.1026	-75.9191	6.16435	10.3536	0.320096
0.0660	4.05706	2.34456	0.317594	-3.85609	12.7063	-17.4455	-30.1525	5.8455	13.689	0
0.0667	3.76021	1.80351	0.555789	-6.62242	13.3312	-17.1321	-13.055	7.06774	18.6226	0
0.0673	2.5233	1.17228	-0.317594	-7.83793	10.8836	-13.4758	-27.7047	7.70543	21.3326	0.320096
0.0680	2.5233	0.541052	-1.27038	-8.76004	9.06102	-11.0209	-32.3036	7.06774	22.8613	0.320096
0.0687	3.46335	0.541052	-1.27038	-9.97554	9.65988	-10.4464	-57.338	7.38659	24.1121	0
0.0693	3.46335	0.811578	-0.635188	-11.4844	11.1961	-9.50622	-112.265	8.02428	26.1967	0
0.0700	2.5233	0.811578	-1.27038	-13.3287	11.4825	-7.36471	-133.925	8.02428	28.6287	0
0.0707	2.22644	1.4428	-0.952781	-12.7	11.7949	-6.16337	-103.698	7.70543	29.6016	-0.320096
0.0713	2.86963	2.34456	0	-9.64023	12.4198	-5.84998	-69.8367	7.38659	28.0728	0
0.0720	6.53088	0.541052	-0.952781	-6.28711	12.7063	-3.39508	-52.1457	7.70543	23.7646	0.640193
0.0727	15.0408	-0.991928	-2.77895	-2.34719	12.4198	-2.19374	-54.8902	7.38659	16.7464	0.320096
0.0733	19.6421	-0.0901753	-2.46135	0.125742	10.2848	-5.84998	-84.4865	4.9421	10.979	0
0.0740	13.2102	-0.631227	-2.77895	0.41914	6.92595	-8.30488	-111.635	5.8455	8.54693	-0.320096
0.0747	4.05706	-2.16421	-3.41413	0.125742	5.38974	-6.79016	-63.4205	8.28998	9.10283	0
0.0753	-2.02853	-1.26245	-2.77895	0.41914	4.47843	-5.84998	54.0743	7.06774	11.5349	0
0.0760	-4.15602	-1.26245	-3.09654	1.92805	3.85354	-5.2232	129.14	8.02428	14.5923	0
0.0767	-4.79921	-2.79543	-4.60511	2.55676	2.34337	-5.84998	158.143	9.24652	15.5651	0
0.0773	-6.62984	-3.42666	-5.47849	0.41914	-1.01546	-9.81961	224.679	5.26095	15.2177	0.320096
0.0780	1.33586	-2.16421	-4.28752	0.125742	-3.15053	-10.133	272.56	3.13531	15.5651	0
0.0787	36.4146	-0.0901753	-2.14376	1.34125	-4.37428	-7.99149	251.531	0.371986	13.411	-0.640193
0.0793	80.9929	-0.0901753	-3.09654	3.14355	-6.8218	-7.6781	252.124	-5.10153	5.48949	-0.640193
0.0800	110.58	-1.89368	-5.47849	9.5564	-5.28559	-0.679016	262.212	-6.64261	-3.40488	-0.320096
0.0807	123.394	-5.86139	-9.21022	15.9693	-3.46298	4.80534	207.878	-9.0871	-9.7977	0
0.0813	108.749	-11.6326	-15.8797	17.5201	-5.28559	-0.679016	146.831	-12.7538	-14.3839	0
0.0820	75.501	-14.6986	-19.532	17.8135	-5.91049	-6.16337	121.204	-15.1983	-14.3839	0
0.0827	51.0596	-14.0673	-18.9762	16.8914	-7.13425	-8.61827	76.6609	-20.6718	-11.9518	0
0.0833	36.1178	-11.0916	-15.8797	14.4603	-9.86818	-7.99149	33.305	-28.9087	-8.54693	0
0.0840	26.0246	-4.59894	-10.0836	12.3227	-8.33197	-0.992407	25.9987	-35.0199	-4.30821	0
0.0847	53.8303	4.23824	-2.77895	10.1851	-4.68673	5.74552	-56.4108	-41.7688	0	0
0.0853	89.7996	12.7147	3.65233	7.41879	-5.28559	3.60401	-209.621	-50.5901	2.43205	-0.320096
0.0860	35.1777	22.1831	11.5922	4.06566	-7.73311	-3.39508	-317.955	-54.5757	3.96077	0
0.0867	-44.4793	35.3487	23.7401	2.55676	-7.73311	-3.70847	-386.605	-54.5757	6.67078	0
0.0873	-35.623	50.8589	37.7937	2.26336	-8.04556	3.60401	-371.659	-57.0202	10.6315	0
0.0880	-27.0636	59.155	44.5425	1.92805	-8.95687	6.3723	-268.183	-64.0348	12.1603	0
0.0887	-101.229	49.4161	36.6027	4.35906	-7.13425	-0.365624	-174.202	-64.6193	9.72822	0
0.0893	-243.721	26.5115	21.3582	6.83199	-6.50935	-5.53659	-80.2213	-53.6723	8.82488	0
0.0900	-385.965	5.41052	7.30466	5.90988	-9.86818	-4.64864	11.6456	-38.102	10.979	-0.320096
0.0907	-389.627	-9.55858	-3.96992	7.41879	-11.4044	0.26116	56.8188	-19.4496	13.689	0
0.0913	-289.536	-21.101	-12.2274	9.89172	-12.3157	7.57363	138.004	-4.83582	17.6498	0.320096
0.0920	-189.396	-31.4712	-18.9762	9.26301	-14.4508	9.08836	340.023	9.24652	19.8039	0
0.0927	-57.2937	-39.4066	-24.1371	12.6161	-8.95687	-2.50713	513.669	30.8749	15.2177	-0.320096
0.0933	43.4403	-45.268	-28.9804	17.5201	0.494711	-18.0723	442.868	49.2085	8.1995	0
0.0940	50.7628	-49.2357	-32.077	19.6577	3.25468	-19.9004	184.068	58.9864	6.39283	0
0.0947	67.5353	-46.1698	-29.298	20.2445	2.65582	-15.6174	7.97392	61.6966	5.76744	0
0.0953	149.963	-38.7754	-24.4547	17.8135	1.11961	-13.7892	-17.3572	52.8752	7.01821	0
0.0960	254.309	-38.7754	-25.3281	14.4603	-2.55167	-9.50622	-72.8779	42.7784	11.8823	-0.320096
0.0967	333.372	-47.0715	-32.077	11.4006	-8.04556	-9.50622	-240.738	39.1117	14.9398	-0.320096
0.0973	314.422	-50.1375	-35.7293	7.12539	-13.5395	-12.2745	-383.23	33.6382	16.4685	-0.320096
0.0980	211.907	-43.1038	-31.4418	7.12539	-14.1383	-8.93167	-349.666	27.527	20.0818	-0.320096
0.0987	138.633	-39.7673	-29.298	9.26301	-15.9609	-3.13392	-283.76	22.0535	21.0546	0.320096
0.0993	93.4609	-41.5708	-30.2508	12.0293	-17.8096	-0.052232	-283.464	8.28998	17.3718	0
0.1000	45.2709	-35.7996	-25.0105	17.5201	-16.2734	-0.679016	-179.395	-7.54601	14.5923	-0.320096
0.1007	-30.7248	-30.84	-20.8024	17.8135	-20.2571	-5.2232	86.415	-12.1161	16.4685	0
0.1013	-139.969	-29.3971	-16.1973	16.598	-26.6623	-17.1321	387.31	-4.83582	14.3144	0
0.1020	-172.92	-15.3298	-0.952781	21.7534	-25.4385	-31.8093	545.416	-1.75365	6.67078	0
0.1027	-133.883	5.77122	15.8797	23.891	-24.5272	-38.495	527.688	-9.0871	3.61334	-0.320096
0.1033	-89.6017	20.3796	27.1543	19.6577	-26.0374	-37.607	452.919	-15.5171	6.04539	-0.320096
0.1040	38.839	29.2168	34.7765	15.6759	-25.1261	-36.9802	393.726	-13.6572	10.0757	-0.320096
0.1047	145.362	29.848	34.1413	14.4603	-17.8096	-40.6365	354.969	-4.51698	10.0757	0
0.1053	35.524	21.0108	24.6929	17.8135	-2.55167	-42.778	328.118	7.70543	3.61334	0
0.1060	-135.071	7.3042	12.4656	17.8135	7.83726	-42.1512	301.859	15.9423	0.277949	0
0.1067	-216.904	-6.13192	2.14376	14.7537	10.8836	-34.2642	200.869	18.7056	2.71	0
0.1073	-254.704	-18.0351	-6.74887	16.2627	14.2425	-19.2736	16.2445	23.2757	3.05744	0.320096
0.1080	-275.485	-32.1024	-16.1973	17.8135	17.6013	-2.50713	-114.676	37.3049	0.903334	0
0.1087	-281.273	-40.3084	-20.1672	18.4003	23.0952	9.40175	-159.256	58.3487	0.277949	-1.28039
0.1093	-276.375	-35.4389	-13.1801	19.029	34.9943	8.46158	-141.862	68.1266	0.277949	-1.28039
0.1100	-235.211	-28.7659	-6.11368	17.1848	45.9821	4.54418	-84.4865	55.5854	-0.625385	0
0.1107	-104.593	-28.7659	-6.11368	15.9693	50.5646	14.5727	-42.6883	42.4596	1.18128	0
0.1113	106.918	-31.4712	-8.89262	17.8135	49.9397	31.7048	-40.8339	39.4306	4.23872	0
0.1120	268.954	-35.1684	-12.8625	18.1069	49.3409	39.3307	-91.1994	35.445	6.04539	0
0.1127	253.418	-40.6691	-17.3883	18.7356	50.8511	41.1588	-148.871	29.0681	9.45027	-0.320096
0.1133	169.753	-44.9073	-19.2144	19.9511	47.2058	39.9052	-219.969	19.2901	12.1603	0
0.1140	141.107	-36.7013	-12.545	17.8135	37.4418	33.5329	-310.909	2.49762	14.5923	0
0.1147	67.2384	-19.9287	1.82616	17.8135	32.2343	32.9061	-321.924	-5.73922	18.9005	-0.320096
0.1153	-12.4186	-4.05789	17.3883	19.6577	30.4117	35.9356	-241.628	-2.97589	20.0818	-0.320096
0.1160	26.9646	7.3042	28.0276	17.5201	25.5427	29.8245	-118.978	-3.29474	17.9972	-0.320096
0.1167	82.1803	15.2396	35.6499	17.5201	20.6477	20.3705	11.9423	-9.72479	14.0364	-0.320096
0.1173	12.0228	17.9449	40.5726	19.3224	17.9137	12.7446	150.206	-17.9616	10.0757	-0.320096
0.1180	-74.0662	12.4442	38.7464	20.5379	16.9764	6.63346	282.351	-14.5606	7.29616	0
0.1187	-2.96858	6.31227	34.1413	23.3042	16.9764	4.80534	322.629	4.35755	6.04539	0
0.1193	97.4685	5.41052	31.68	24.8131	13.93	3.9174	309.203	23.5414	3.61334	-0.320096
0.1200	92.2735	7.3042	31.4418	21.1666	9.06102	4.54418	237.771	33.0005	4.51667	-0.320096
0.1207	58.9759	7.57473	29.6156	14.7537	6.6135	10.0285	-19.4712	37.3049	9.45027	0
0.1213	44.6772	-3.42666	20.4054	10.4785	7.83726	12.4312	-326.782	46.4452	11.5349	-0.320096
0.1220	33.9903	-25.4294	4.8433	9.26301	8.43612	9.08836	-377.445	62.0154	10.979	-0.320096
0.1227	29.9827	-42.4726	-7.06646	9.89172	5.38974	6.94685	-294.442	83.0592	6.39283	0
0.1233	52.8903	-42.4726	-7.38405	10.7719	1.43206	5.43212	-313.06	101.977	-0.625385	0
0.1240	119.733	-33.3649	-0.952781	9.5564	-2.83808	-1.3058	-184.884	109.949	-3.05744	0
0.1247	196.619	-27.8642	3.33473	8.0475	-10.1806	-12.9013	33.305	107.185	-3.05744	0
0.1253	228.383	-23.5358	6.35188	5.61648	-16.5858	-18.3857	-7.89974	97.0884	-1.87616	-0.320096
0.1260	199.39	-18.6663	8.81323	3.14355	-19.9447	-16.5575	-130.253	83.6969	3.61334	0
0.1267	118.199	-18.6663	6.66947	1.34125	-31.8438	-17.7589	-104.625	68.1266	6.67078	0
0.1273	47.3984	-22.3635	2.14376	1.34125	-48.6379	-18.9602	-45.7295	55.5854	6.67078	0
0.1280	25.7277	-24.167	-0.952781	3.77226	-53.5069	-16.5575	-18.2473	45.2229	5.14206	0
0.1287	4.35392	-22.634	-1.82616	8.0475	-48.9243	-23.2432	29.0399	33.0005	-1.52872	-0.320096
0.1293	-24.2929	-16.5021	0.555789	14.4603	-39.1603	-32.1227	90.6802	26.9424	-10.0757	0
0.1300	-27.3604	-8.29613	6.11368	17.8135	-26.0374	-34.8387	136.15	20.8312	-12.5077	0
0.1307	-23.6992	-4.32841	7.30466	15.0471	-16.8983	-40.0619	130.958	8.28998	-11.9518	0
0.1313	-49.328	-4.59894	6.11368	13.5382	-9.55573	-38.1816	34.2322	0.371986	-11.3264	0
0.1320	-64.913	-5.23017	5.79609	10.4785	-1.64036	-17.7589	-75.6224	-1.1691	-3.05744	0
0.1327	-29.4879	-5.23017	4.8433	1.92805	4.16599	1.77589	-104.922	-4.51698	8.1995	0
0.1333	5.88769	-3.69719	5.47849	-1.42508	8.12367	6.94685	-92.72	-2.97589	13.411	0
0.1340	4.99712	-0.631227	8.17804	-0.20957	9.65988	6.05891	-73.5084	1.27538	14.5923	0
0.1347	2.5233	0.541052	8.81323	0.41914	11.4825	3.60401	-64.051	-3.87929	12.5077	0
0.1353	16.8714	2.70526	10.0836	2.85016	16.9764	4.54418	-60.676	-14.5606	7.92155	0
0.1360	-4.50235	4.50877	11.2746	6.20328	21.2465	8.46158	-33.5275	-20.4061	4.51667	0
0.1367	-68.5743	2.97579	9.13082	6.20328	20.9601	9.40175	-4.52474	-20.0873	3.05744	-0.320096
0.1373	-93.9062	0.541052	6.66947	6.83199	19.7364	7.26024	9.49453	-20.6718	3.96077	0
0.1380	-81.6855	-2.52491	3.96992	7.12539	16.0651	2.97722	14.0934	-19.7684	5.48949	0
0.1387	-106.077	-7.12385	0.317594	4.35906	7.52481	-0.992407	13.1662	-14.2949	6.39283	-1.28039
0.1393	-149.765	-6.13192	1.19098	3.14355	-0.10415	-0.052232	17.1347	-11.5316	6.39283	-1.60048
0.1400	-157.088	1.17228	5.47849	2.85016	-2.23922	1.46249	31.191	-19.7684	4.23872	0
0.1407	-132.943	6.9435	9.13082	5.28117	-1.01546	3.9174	56.8188	-30.4497	-2.50154	0
0.1413	-116.764	11.2719	12.148	11.4006	2.34337	8.46158	83.3738	-32.3097	-10.701	0
0.1420	-121.366	13.3459	12.7831	12.9095	4.47843	7.88703	88.2324	-28.643	-14.6618	0
0.1427	-128.094	13.0754	11.9098	11.1072	4.16599	4.80534	63.8284	-27.1019	-14.6618	0
0.1433	-104.593	11.813	11.9098	11.4006	2.94223	4.54418	33.305	-27.4207	-14.0364	0
0.1440	6.82774	11.5424	11.9098	11.1072	-0.416599	3.9174	21.7336	-28.3241	-13.4805	0
0.1447	128.886	12.7147	12.148	11.1072	-3.15053	4.54418	18.6553	-31.3531	-12.8551	0.320096
0.1453	125.522	12.7147	12.4656	13.2448	-3.77542	6.3723	7.08381	-38.6866	-13.4805	0
0.1460	31.2196	11.813	11.5922	13.5382	-5.91049	4.23079	-8.78986	-46.6046	-13.7585	-0.320096
0.1467	-83.2193	10.6407	10.6394	11.4006	-9.26932	0.574552	-30.783	-47.5611	-13.1331	0
0.1473	-192.166	10.9112	11.5922	9.89172	-11.4044	-0.992407	-66.4617	-43.8944	-11.3264	0
0.1480	-268.162	15.7807	15.8797	9.26301	-12.9146	-1.56696	-105.219	-44.4789	-9.51975	0
0.1487	-257.475	19.2073	18.8968	8.96961	-13.5395	-1.3058	-126.285	-46.9234	-7.01821	0
0.1493	-159.512	17.9449	18.2616	8.3409	-14.4508	-0.992407	-122.613	-47.8268	-4.93359	0
0.1500	-102.762	16.6824	17.7059	7.7541	-18.4084	-4.64864	-107.073	-49.3679	-3.68282	0
0.1507	-117.111	15.7807	17.7059	6.83199	-23.3035	-9.50622	-101.25	-50.909	-1.87616	0
0.1513	-74.0662	15.2396	17.944	4.69437	-26.3499	-13.4758	-101.584	-51.2278	1.52872	-0.320096
0.1520	22.0665	15.5102	19.2144	3.47887	-27.5736	-14.416	-57.9315	-50.909	2.71	0
0.1527	94.1041	16.6824	21.0406	4.69437	-27.2612	-12.9013	39.4245	-51.4935	1.18128	0
0.1533	142.294	20.3796	23.5019	5.61648	-26.3499	-14.416	123.021	-57.9236	-2.1541	0
0.1540	116.368	23.7161	25.8839	4.98777	-27.8861	-21.1017	162.408	-65.257	-4.30821	0
0.1547	34.8809	25.6098	28.0276	4.35906	-30.3075	-22.6164	166.377	-64.3536	-3.05744	0.320096
0.1553	-18.801	26.1508	29.298	6.83199	-26.0374	-14.9906	138.301	-57.9236	-4.93359	0
0.1560	-50.8617	25.6098	29.298	10.1851	-16.2734	-8.30488	107.481	-49.3679	-9.51975	0
0.1567	-60.9549	23.1751	28.6628	8.3409	-12.3157	-7.99149	79.1087	-41.4499	-8.54693	0
0.1573	-47.2005	19.2073	26.8367	2.85016	-14.7632	-5.84998	13.7967	-36.5609	-3.96077	0
0.1580	-30.7248	15.5102	25.3281	-2.34719	-16.2734	-3.13392	-45.4328	-33.7976	-2.50154	-0.320096
0.1587	-13.3091	12.4442	23.5019	-5.40691	-15.3621	-5.84998	-72.2845	-33.2131	-3.05744	0
0.1593	44.3308	10.9112	22.5492	-4.7782	-12.6281	-5.2232	-117.124	-33.2131	-5.21154	0
0.1600	128.886	10.9112	22.8668	-2.01187	-8.64442	0.835711	-164.745	-35.3387	-8.54693	0.320096
0.1607	132.25	12.1737	23.5019	-1.42508	-6.8218	3.9174	-163.521	-41.7688	-10.0757	0
0.1613	73.9672	11.813	22.8668	-3.2693	-8.04556	3.9174	-88.4549	-48.7834	-9.17232	0
0.1620	42.5002	11.5424	23.1843	-2.01187	-6.50935	5.74552	1.89149	-50.909	-12.5077	0
0.1627	18.9989	12.7147	24.3753	3.77226	-2.55167	7.88703	37.2734	-50.0056	-18.0667	0
0.1633	-3.85916	13.7066	24.6929	7.12539	-0.416599	8.77497	43.6897	-50.0056	-19.5259	0.320096
0.1640	-10.2911	15.2396	25.3281	5.90988	2.03092	12.17	57.1155	-50.909	-17.7192	0.320096
0.1647	-16.9704	17.0431	26.5191	3.47887	5.9886	16.1397	73.9164	-52.1312	-15.9126	0
0.1653	-21.8686	17.9449	27.4719	2.26336	5.07729	14.8861	87.6389	-54.5757	-17.4413	0
0.1660	-16.9704	19.4779	28.9804	2.26336	1.11961	13.3714	92.8313	-59.7304	-19.8734	0.320096
0.1667	-24.6392	19.7484	28.9804	3.14355	2.03092	16.1397	74.8065	-64.6193	-22.5834	0.320096
0.1673	-50.5649	17.6744	26.5191	5.28117	4.16599	16.4008	46.4342	-64.6193	-25.9882	0
0.1680	-69.4649	16.6824	27.1543	7.7541	3.85354	13.058	18.6553	-59.4647	-25.9882	0.320096
0.1687	-78.0243	16.6824	27.1543	6.83199	2.34337	10.3419	-16.1333	-51.4935	-23.5562	-0.320096
0.1693	-75.5999	15.2396	24.3753	3.14355	-0.10415	8.20042	-39.3133	-43.8944	-21.68	-1.60048
0.1700	-58.778	16.1414	22.8668	1.00594	0.208299	10.0285	-40.8339	-34.4353	-18.0667	-0.640193
0.1707	-45.6667	16.4119	21.3582	-0.20957	2.03092	12.7446	-38.0894	-26.1985	-13.7585	0.960289
0.1713	-32.2586	14.8789	19.2144	-0.796367	2.34337	12.7446	-75.6224	-27.4207	-12.2298	0.320096
0.1720	-9.35104	15.2396	17.944	1.92805	1.71847	13.6848	-157.401	-35.9233	-11.9518	-0.320096
0.1727	-5.68978	16.4119	17.7059	2.85016	-0.70301	12.4312	-201.054	-44.1601	-9.7977	0
0.1733	-27.0636	17.9449	18.2616	-0.502969	-4.68673	8.20042	-188.852	-46.02	-5.48949	0.320096
0.1740	-33.7924	17.9449	16.7531	-2.34719	-8.04556	3.60401	-167.489	-45.3823	-2.50154	0.320096
0.1747	-40.818	15.2396	11.9098	-2.93398	-11.6908	0.26116	-136.373	-49.3679	-0.347436	0
0.1753	-36.8104	13.0754	8.17804	-4.4848	-13.8259	-2.19374	-100.36	-49.3679	3.33539	0
0.1760	24.8371	13.0754	7.93984	-6.28711	-13.5395	-3.13392	-71.654	-43.2567	6.67078	0
0.1767	49.8227	13.3459	7.30466	-7.83793	-14.7632	-4.64864	-35.0482	-42.3533	7.57411	0
0.1773	-41.7086	17.0431	9.76601	-10.5623	-15.6745	-6.16337	13.4629	-49.0491	8.1995	0
0.1780	-204.684	24.6179	15.5621	-13.0353	-14.1383	-7.99149	49.8092	-56.7014	8.1995	-0.320096
0.1787	-333.471	30.7498	20.4054	-13.6221	-11.6908	-10.4464	44.3202	-62.8126	5.76744	0
0.1793	-332.234	38.4147	27.4719	-10.8977	-7.73311	-7.36471	29.3366	-67.7015	1.80667	0.320096
0.1800	-230.609	47.8831	35.6499	-6.91582	-5.59804	-0.365624	54.0743	-65.8416	-1.25077	0
0.1807	-109.145	46.8912	35.0941	-6.91582	-6.8218	1.77589	81.8532	-55.798	-2.1541	0
0.1813	25.4309	39.587	29.298	-8.76004	-4.68673	-0.052232	83.9672	-44.1601	-1.52872	-0.320096
0.1820	201.517	37.1522	26.5191	-10.5623	-3.46298	-3.39508	72.6925	-37.1455	-0.972822	0
0.1827	401.996	41.1199	28.3452	-12.4066	-4.99918	-4.33525	52.2199	-33.4788	0.903334	0
0.1833	466.711	50.8589	33.5061	-10.8977	-3.46298	-1.3058	26.2954	-28.3241	0.903334	0
0.1840	352.866	53.3838	33.8237	-8.76004	-1.64036	0.574552	3.11539	-21.6283	-2.50154	-0.320096
0.1847	228.977	39.587	23.7401	-5.99371	-1.32791	1.1491	21.7336	-13.3384	-6.74026	0
0.1853	126.115	18.2154	8.17804	-2.93398	0.208299	-1.88035	75.1403	-3.61358	-10.4231	0
0.1860	56.5515	-0.631227	-5.47849	-2.64059	1.43206	-6.79016	103.216	4.62326	-11.9518	0
0.1867	37.6515	-6.76315	-10.7188	-2.34719	1.43206	-5.84998	115.121	8.28998	-11.0485	0
0.1873	2.86963	-8.92735	-13.1801	-0.796367	1.11961	-4.02186	86.415	9.83107	-8.89437	0
0.1880	-40.1748	-10.4603	-15.2445	-1.13168	0.494711	-2.50713	-39.3133	15.0389	-6.46231	0.320096
0.1887	-45.9636	-2.79543	-11.354	-2.93398	1.11961	2.08928	-165.338	22.0535	-2.50154	0.320096
0.1893	-20.978	0.811578	-9.76601	-5.70031	1.11961	3.29061	-188.259	29.6526	3.33539	0.320096
0.1900	-3.85916	-3.42666	-13.7359	-7.83793	-2.23922	0.26116	-167.489	36.0827	6.67078	0
0.1907	-6.62984	-1.89368	-13.1801	-6.62242	-4.37428	-0.052232	-141.862	35.1793	7.57411	0
0.1913	5.59083	6.31227	-7.93984	-5.70031	-3.77542	-0.365624	-76.5496	22.0535	8.54693	0
0.1920	41.3128	17.0431	0.873383	-6.28711	-3.46298	-2.82053	-2.70742	5.5798	10.6315	0
0.1927	51.6534	28.315	10.957	-6.91582	-4.68673	-3.39508	35.1594	-3.61358	11.8823	0
0.1933	8.95523	32.0122	14.6093	-8.76004	-7.13425	-5.84998	57.4122	-2.39134	13.411	0.320096
0.1940	-29.7848	31.381	15.5621	-9.05343	-5.91049	-8.93167	94.9453	4.62326	15.5651	0
0.1947	8.01517	32.2828	16.7531	-7.83793	-2.55167	-9.50622	109.002	4.9421	16.121	0
0.1953	93.164	28.9463	14.6093	-7.20922	-1.92677	-6.79016	62.0111	0.371986	12.7857	0
0.1960	140.167	23.1751	11.2746	-6.28711	-1.92677	-3.13392	0.037088	-2.0725	11.5349	0.320096
0.1967	125.225	20.3796	9.76601	-9.64023	-1.64036	-6.47676	-40.5372	-7.54601	15.2177	0.320096
0.1973	62.3402	19.7484	9.13082	-13.9155	0.494711	-5.53659	-59.1554	-16.1017	18.6226	0
0.1980	-34.3861	15.7807	4.8433	-13.3287	3.85354	3.60401	-61.6032	-22.5317	19.5259	0
0.1987	-129.579	6.67297	-3.96992	-12.4066	3.25468	6.63346	-60.0826	-22.2129	19.8039	-0.320096
0.1993	-183.904	-3.42666	-11.5922	-10.8977	4.16599	7.26024	-42.0578	-7.86485	16.7464	-0.320096
0.2000	-195.531	-11.6326	-17.3883	-9.05343	5.9886	7.88703	-16.1333	13.1789	12.7857	0
0.2007	-193.403	-15.6003	-21.9934	-9.05343	4.47843	5.11873	-4.52474	24.1791	11.5349	0.320096
0.2013	-213.54	-14.0673	-21.6758	-8.13133	3.85354	4.54418	-4.52474	25.4014	12.1603	-0.960289
0.2020	-250.746	-12.2638	-19.8496	-6.62242	3.85354	5.11873	-6.97254	26.6236	11.8823	-1.92058
0.2027	-234.568	-11.9933	-20.1672	-5.99371	2.34337	3.9174	-8.49315	26.3048	10.979	-0.320096
0.2033	-150.062	-7.6649	-17.1501	-7.50261	0.208299	1.1491	-42.0578	18.0679	11.5349	0.320096
0.2040	-39.5811	3.33649	-8.57503	-9.64023	-2.55167	-0.052232	-102.808	5.26095	13.411	0
0.2047	69.6628	19.2073	2.38195	-8.76004	-2.55167	4.54418	-107.073	-8.50255	14.9398	0
0.2053	160.6	38.054	16.4355	-6.28711	0.208299	6.63346	-61.2694	-21.6283	14.5923	0
0.2060	167.923	47.8831	24.6929	-7.50261	0.208299	0.835711	-44.2089	-27.6864	13.411	0.320096
0.2067	36.1178	37.7835	18.5792	-10.8977	-4.06184	-0.992407	-39.61	-24.9762	14.3144	0
0.2073	-37.4536	20.1091	5.1609	-13.0353	-8.33197	0.835711	-7.56595	-23.754	15.5651	0
0.2080	60.2128	10.0095	-3.09654	-12.4066	-9.86818	-0.052232	21.7336	-32.3097	14.5923	0
0.2087	95.9347	9.10771	-2.77895	-10.8977	-9.26932	0.574552	35.7528	-41.4499	14.5923	0
0.2093	22.3633	10.28	-1.27038	-9.97554	-8.04556	-1.56696	58.0427	-31.3531	14.3144	0
0.2100	-40.818	7.3042	-3.65233	-8.13133	-6.1969	-8.61827	78.7749	-4.51698	9.72822	0
0.2107	-73.7693	3.33649	-5.2403	-3.2693	-3.46298	-11.3343	71.4686	10.7345	1.80667	-0.320096
0.2113	13.8534	2.70526	-5.2403	-0.20957	-1.01546	-11.3343	32.7116	12.5944	-2.77949	0
0.2120	144.768	6.04175	-2.14376	-1.13168	1.11961	-9.81961	-14.6127	16.2611	0	0.320096
0.2127	110.877	9.10771	1.82616	-3.2693	3.25468	-4.96204	-45.7295	19.2901	4.51667	0.320096
0.2133	8.36151	10.0095	2.69955	-7.50261	3.85354	-3.70847	-62.1966	17.4834	8.1995	0
0.2140	-39.878	9.73893	2.14376	-11.7778	4.16599	-4.96204	-80.2213	15.6234	12.1603	0
0.2147	-102.119	7.57473	0.555789	-13.0353	3.85354	-3.13392	-102.474	14.4012	14.3144	0
0.2153	-163.173	5.41052	-1.58797	-12.4066	3.25468	1.77589	-110.114	10.1499	13.0636	0
0.2160	-154.911	6.67297	-1.27038	-9.64023	6.30105	7.88703	-93.3134	2.49762	11.2569	0
0.2167	-98.7549	7.57473	0	-8.76004	8.12367	9.71515	-66.165	-7.2803	10.0757	0.320096
0.2173	-26.4699	5.13999	-2.14376	-10.5623	3.85354	4.54418	-50.2913	-13.3384	10.3536	0.640193
0.2180	37.3547	1.4428	-6.11368	-10.8977	0.208299	-0.365624	-62.4933	-10.947	10.0757	0.320096
0.2187	56.8484	-1.26245	-9.44841	-8.42472	1.11961	-0.365624	-68.9095	-4.51698	7.29616	0
0.2193	70.3059	-2.16421	-10.0836	-6.28711	3.25468	2.97722	-24.3668	-1.75365	5.14206	0
0.2200	138.633	-0.991928	-8.25744	-5.40691	5.07729	6.3723	28.1127	-6.32377	5.14206	0
0.2207	182.914	2.34456	-5.47849	-6.28711	5.70219	5.11873	41.5386	-12.7538	5.14206	0
0.2213	129.183	4.50877	-3.65233	-7.20922	5.07729	2.08928	35.4561	-11.2127	4.51667	0
0.2220	37.6515	4.50877	-3.41413	-8.13133	2.94223	0.574552	41.5386	-6.32377	5.14206	0
0.2227	-28.3005	4.23824	-3.65233	-8.13133	1.11961	0.835711	55.0015	-6.32377	7.57411	0
0.2233	-56.3536	2.07403	-5.2403	-9.05343	-1.01546	0.574552	49.4754	-6.64261	8.1995	0
0.2240	-67.3374	0.811578	-5.2403	-9.97554	-3.46298	-1.3058	43.393	-5.42037	7.57411	0
0.2247	-71.9387	4.23824	-1.82616	-10.2689	-3.46298	-4.02186	48.5853	-3.61358	7.01821	-0.320096
0.2253	-51.8018	8.20595	2.38195	-9.34683	-1.92677	-4.64864	25.3682	0.956536	5.14206	0
0.2260	24.8371	11.5424	4.8433	-7.20922	0.208299	-1.3058	-29.8558	3.71986	2.08462	0.320096
0.2267	146.895	12.1737	4.52571	-6.28711	0.494711	3.60401	-80.2213	0.0531409	0.903334	-0.320096
0.2273	193.601	9.37823	1.82616	-7.20922	0.208299	5.43212	-103.105	-3.87929	2.71	-0.320096
0.2280	89.7996	3.87754	-3.41413	-10.2689	-1.92677	0.835711	-110.745	-7.54601	3.96077	0
0.2287	-47.4973	-4.59894	-9.76601	-12.4066	-5.59804	-4.33525	-117.124	-13.6572	2.43205	-0.960289
0.2293	-106.077	-11.9933	-14.0535	-10.2689	-4.99918	-3.13392	-104.329	-11.5316	2.71	-0.960289
0.2300	-126.264	-14.6986	-15.2445	-9.34683	-3.46298	-1.3058	-69.54	-0.850255	4.51667	0
0.2307	-132.349	-15.6003	-15.0063	-9.97554	-3.46298	-1.56696	-17.9506	7.06774	3.33539	0
0.2313	-86.2868	-13.5263	-11.354	-8.42472	-3.46298	-1.3058	28.7432	8.92767	1.80667	0
0.2320	-15.783	-6.49262	-4.28752	-8.42472	-3.46298	-0.679016	29.3366	5.26095	1.52872	0
0.2327	71.8397	2.97579	4.8433	-8.42472	-3.77542	0.835711	-8.49315	-2.65705	0.277949	-0.320096
0.2333	143.828	9.10771	9.44841	-7.20922	-2.55167	3.9174	-52.7391	-10.947	-0.972822	0
0.2340	142.937	10.28	9.44841	-6.91582	-0.70301	5.43212	-66.4617	-16.1017	-0.625385	0.320096
0.2347	97.4685	10.9112	9.13082	-6.91582	1.11961	3.60401	-44.5056	-18.865	0.555898	0
0.2353	4.35392	10.0095	8.49563	-7.20922	1.71847	-0.992407	-23.4396	-20.4061	0	-0.320096
0.2360	-89.3049	8.20595	6.98706	-7.20922	1.71847	-1.56696	-13.3888	-17.6428	-0.625385	0
0.2367	-131.409	5.77122	4.52571	-7.50261	0.208299	0.574552	-9.71706	-12.435	1.18128	0.320096
0.2373	-161.936	2.34456	1.50857	-9.05343	-3.77542	0.835711	-17.9506	-9.99049	0.903334	0
0.2380	-150.359	1.4428	0	-7.50261	-4.99918	3.60401	-34.4177	-10.6282	-1.25077	0
0.2387	-55.463	2.34456	0	-5.40691	-3.15053	7.26024	-53.3696	-9.99049	-2.1541	0
0.2393	54.424	3.87754	2.14376	-6.62242	-3.46298	5.43212	-70.4301	-7.86485	-2.50154	0
0.2400	90.146	7.84525	5.79609	-7.50261	-4.06184	2.08928	-70.7639	-6.96146	-2.77949	-0.320096
0.2407	43.1434	9.10771	5.47849	-6.62242	-3.15053	-0.052232	-62.1966	-6.64261	-6.11488	0
0.2413	-8.75732	6.9435	3.33473	-5.70031	-0.70301	-0.052232	-60.0826	-8.1837	-11.3264	0
0.2420	4.05706	5.41052	3.65233	-4.7782	3.56712	4.23079	-54.2597	-14.2949	-11.9518	0
0.2427	45.2709	0.541052	1.19098	-5.40691	4.47843	6.63346	-39.61	-21.8941	-10.701	0
0.2433	60.8065	-10.4603	-6.74887	-6.91582	1.43206	6.05891	-35.0482	-23.1163	-11.6044	0.320096
0.2440	62.0434	-21.101	-14.3711	-7.83793	-2.23922	3.9174	-42.6883	-6.05806	-12.8551	0.320096
0.2447	22.3633	-22.9947	-13.1801	-7.83793	-3.46298	2.97722	-47.8435	19.609	-15.9126	-0.640193
0.2453	-64.2698	-15.0593	-4.28752	-4.14949	-0.416599	6.3723	-44.5056	29.0681	-19.8734	-0.960289
0.2460	-80.7949	-8.29613	0.873383	-0.20957	3.25468	9.08836	-34.7515	21.0969	-22.5834	0
0.2467	13.2102	-4.95964	1.19098	0.125742	5.70219	9.71515	-27.1113	8.28998	-25.0849	0
0.2473	88.3154	-2.52491	1.82616	-0.20957	7.83726	11.5433	-23.4396	5.5798	-26.8916	-0.320096
0.2480	38.5421	-2.52491	0.555789	-0.502969	8.12367	11.8567	-17.0234	13.1789	-27.7949	0
0.2487	-81.9824	-4.59894	-3.09654	-0.20957	6.92595	11.2299	-4.52474	17.7491	-27.517	0
0.2493	-111.619	-5.86139	-6.43127	1.00594	6.30105	11.2299	9.49453	15.0389	-27.1695	0
0.2500	-43.2424	-5.59087	-5.47849	0.712539	6.30105	10.9165	15.614	11.3722	-28.0728	0
0.2507	-8.1636	-4.05789	-2.77895	0.125742	5.70219	10.0285	11.9423	14.4012	-28.0728	0
0.2513	-0.197906	0.541052	0.873383	-0.20957	5.07729	8.46158	-2.37363	18.0679	-26.8916	0
0.2520	22.3633	10.9112	8.49563	-1.13168	5.07729	6.94685	-17.0234	11.0533	-24.7375	0
0.2527	104.148	23.4456	18.5792	-2.01187	5.38974	6.94685	-16.43	-0.850255	-23.5562	-0.320096
0.2533	239.664	29.5775	23.5019	-2.93398	4.79088	7.88703	-14.2789	-2.65705	-22.9308	0
0.2540	253.072	27.1428	21.3582	-3.85609	3.56712	7.26024	-18.5811	3.13531	-22.9308	0
0.2547	156.345	18.5761	15.2445	-3.2693	2.03092	5.74552	-11.8311	3.13531	-23.8341	-0.320096
0.2553	72.1366	7.84525	8.17804	-2.34719	1.11961	5.11873	2.4849	-3.87929	-24.7375	0
0.2560	-23.996	-1.62316	2.38195	-2.01187	0.494711	5.43212	6.75002	-9.99049	-25.0849	0.320096
0.2567	-100.585	-9.19788	-3.65233	-1.13168	0.80716	6.3723	3.11539	-6.05806	-25.9882	-0.320096
0.2573	-115.28	-15.3298	-8.57503	-0.502969	1.11961	6.63346	0.037088	9.83107	-26.5441	-0.320096
0.2580	-103.653	-20.1993	-11.0364	-1.71848	-0.416599	4.54418	-2.70742	26.3048	-26.5441	0
0.2587	-90.2449	-21.7322	-12.8625	-2.01187	-1.32791	2.97722	-5.11814	29.0681	-27.517	-0.960289
0.2593	-76.4905	-18.6663	-11.9098	-0.502969	-0.416599	3.60401	-4.22803	18.9713	-27.517	-1.28039
0.2600	-63.973	-15.0593	-9.44841	-0.20957	-0.416599	4.54418	-3.59754	11.3722	-26.5441	0
0.2607	-49.0311	-12.8951	-7.62225	-1.13168	-1.64036	4.23079	-3.93133	12.2755	-26.2662	0.320096
0.2613	-28.8942	-11.3621	-6.74887	-0.796367	-1.64036	4.23079	-3.59754	15.3046	-26.2662	0
0.2620	-12.7154	-10.7309	-7.06646	-0.796367	-1.32791	3.9174	-3.30083	15.6234	-25.3628	-0.320096
0.2627	-3.85916	-9.82911	-6.74887	-0.502969	-1.01546	4.23079	-3.30083	15.9423	-25.6408	-0.320096
0.2633	0.395811	-9.19788	-6.43127	-1.71848	-1.64036	3.29061	-4.82144	16.8457	-26.8916	0
0.2640	-2.02853	-9.82911	-7.06646	-4.14949	-2.83808	1.77589	-6.34205	14.4012	-21.4021	0
0.2647	-8.75732	-8.29613	-6.11368	-4.14949	-1.64036	2.66383	-5.45194	8.92767	-6.11488	0
0.2653	-12.1217	-6.13192	-5.2403	-5.40691	-1.01546	2.97722	-4.52474	3.13531	-0.347436	0
0.2660	-12.7154	-4.59894	-4.9227	-9.97554	-1.64036	2.08928	-5.11814	-0.265705	-13.1331	0
0.2667	-14.5461	-4.05789	-4.28752	-13.0353	-2.23922	1.46249	-6.04534	-1.1691	-16.538	0
0.2673	-15.1398	-2.52491	-3.09654	-11.4844	-2.55167	0.26116	-8.49315	-1.4348	-6.11488	0
0.2680	-13.0123	2.07403	-0.317594	-2.93398	-1.32791	0.574552	-9.42035	-2.0725	-19.5259	0
0.2687	-12.1217	4.23824	1.19098	12.0293	-0.416599	1.1491	-8.78986	0.0531409	-59.2031	0
0.2693	-14.2492	0.541052	-1.58797	24.2263	-1.64036	0.574552	-8.49315	6.16435	-48.8495	0
0.2700	-18.801	-2.79543	-4.28752	15.0471	-3.77542	0.26116	-8.78986	7.70543	16.7464	0
0.2707	-22.8086	-4.32841	-5.79609	-14.5442	-5.28559	-1.56696	-10.0138	4.03871	-16.1905	-0.320096
0.2713	-26.7667	-6.13192	-7.06646	-35.9203	-5.91049	-4.96204	-10.6443	2.49762	-146.201	0
0.2720	-32.2586	-6.76315	-7.06646	-47.1952	-4.68673	-6.47676	-10.0138	5.26095	-225.834	0
0.2727	-33.446	-6.13192	-7.38405	-61.2364	-3.46298	-6.47676	-9.42035	7.70543	-179.486	0
0.2733	-30.428	-5.86139	-7.38405	-70.709	-2.55167	-5.84998	-10.0138	7.70543	49.6834	0
0.2740	-29.7848	-6.13192	-7.38405	-73.7268	-4.06184	-6.79016	-11.2377	5.8455	232.226	0
0.2747	-32.2586	-5.23017	-6.74887	-78.3374	-6.50935	-8.61827	-11.8311	4.62326	176.984	0
0.2753	-34.9798	-2.52491	-4.28752	-76.1997	-5.91049	-7.36471	-11.5344	3.71986	130.914	0
0.2760	-35.2767	-0.991928	-2.77895	-68.8648	-4.37428	-6.16337	-10.3105	2.49762	162.322	0
0.2767	-32.2586	-2.16421	-3.96992	-80.475	-3.77542	-4.96204	-9.71706	1.59423	147.66	0
0.2773	-23.1055	-2.52491	-4.28752	-117.695	-2.55167	-2.19374	-8.49315	0.371986	35.647	-0.320096
0.2780	-8.1636	-0.991928	-2.46135	-132.951	0.80716	1.1491	-6.67584	0.0531409	-82.1339	-0.320096
0.2787	6.18455	0.270526	-0.952781	-20.3283	5.07729	2.08928	-6.67584	1.91307	11.5349	0
0.2793	14.1502	0.811578	-0.635188	151.477	6.30105	0.26116	-9.71706	0.690832	193.175	0
0.2800	13.8534	1.80351	0.873383	165.519	4.16599	-2.50713	-13.055	-2.97589	255.991	0
0.2807	11.3796	1.4428	1.50857	60.8173	0.494711	-5.84998	-15.2061	-3.61358	175.733	-0.320096
0.2813	12.6165	1.17228	0.873383	21.46	-3.77542	-9.19283	-15.5028	-3.61358	-89.1521	0
0.2820	14.4471	2.70526	1.50857	86.1753	-8.64442	-14.416	-13.3888	-4.83582	-265.858	0
0.2827	13.8534	4.77929	3.01714	153.908	-13.5395	-22.6164	-10.941	-3.87929	-289.345	0
0.2833	12.0228	5.77122	3.65233	136.221	-16.2734	-22.9298	-10.6443	-2.65705	-452.293	0
0.2840	10.7859	5.77122	3.01714	101.725	-15.9609	-6.16337	-12.1649	-4.51698	-589.321	0
0.2847	8.36151	6.9435	2.69955	56.2487	-11.4044	15.8263	-11.8311	-6.05806	-440.063	0
0.2853	4.99712	9.37823	3.65233	-69.4935	-4.68673	22.1986	-10.3105	-5.42037	-112.917	0
0.2860	3.46335	9.73893	3.65233	-162.249	-1.64036	14.2593	-10.941	-4.51698	81.7865	0
0.2867	5.59083	8.47648	3.01714	-140.58	-0.10415	8.20042	-13.3888	-5.10153	37.5231	0
0.2873	7.42146	8.20595	3.01714	-114.928	2.34337	6.94685	-15.2061	-6.32377	-79.0765	0
0.2880	5.88769	7.57473	2.38195	-144.855	5.07729	6.05891	-16.1333	-6.64261	-140.99	-0.320096
0.2887	3.16649	6.9435	2.14376	-138.149	9.06102	5.74552	-16.7267	-6.05806	-94.6416	-0.640193
0.2893	3.16649	7.3042	2.38195	-33.4474	11.4825	5.43212	-16.43	-4.83582	40.8585	-0.320096
0.2900	3.76021	6.67297	2.69955	40.0698	10.8836	4.23079	-16.43	-3.29474	219.719	0.320096
0.2907	3.16649	5.41052	2.69955	-47.8239	9.06102	2.40267	-17.0234	-2.39134	415.603	0
0.2913	3.76021	5.13999	3.01714	-163.465	5.70219	1.77589	-17.9506	-1.4348	560.554	0
0.2920	6.82774	5.41052	3.33473	-80.7684	1.11961	4.23079	-17.0234	-1.1691	662.491	0.320096
0.2927	8.95523	5.77122	3.01714	103.276	-3.15053	6.94685	-15.5028	-0.850255	700.362	0
0.2933	9.54894	5.13999	2.14376	149.046	-8.04556	7.57363	-16.43	-1.1691	392.395	0
0.2940	8.01517	5.77122	1.19098	126.455	-9.55573	9.08836	-16.1333	-0.531409	-264.955	0
0.2947	5.29397	7.57473	2.14376	91.666	-6.1969	11.2299	-13.3888	0.956536	-645.189	0
0.2953	4.05706	8.47648	1.19098	-16.6818	-4.99918	10.9165	-12.1649	1.91307	-476.127	0
0.2960	3.76021	9.73893	-1.27038	-111.282	-2.23922	12.7446	-10.941	1.91307	-203.598	0
0.2967	3.46335	11.5424	-3.65233	-171.387	4.16599	15.1995	-11.5344	0.956536	-18.97	0
0.2973	4.35392	10.6407	-5.2403	-231.827	8.74857	14.5727	-15.5028	-0.531409	173.649	0
0.2980	3.46335	6.04175	-4.9227	-170.8	10.2848	15.1995	-18.5811	0.0531409	218.815	0
0.2987	2.22644	-3.15614	-4.28752	35.2078	8.43612	14.8861	-21.3256	0.956536	109.512	0
0.2993	2.22644	-20.4698	-5.47849	193.266	5.38974	11.2299	-25.294	0.956536	50.6562	0
0.3000	1.63272	-35.4389	-4.60511	249.431	3.56712	5.74552	-28.9286	1.59423	36.6198	0
0.3007	0.0989528	-38.5049	4.52571	240.293	2.34337	1.77589	-30.4492	2.17878	8.1995	0
0.3013	-2.02853	-45.268	12.7831	189.326	0.494711	1.77589	-29.2624	2.49762	17.6498	0
0.3020	-5.39293	-58.9746	9.76601	159.734	1.11961	3.29061	-27.1113	2.49762	88.4573	-0.320096
0.3027	-6.62984	-28.4052	3.96992	143.556	1.11961	0.26116	-29.5591	3.40102	91.5147	0
0.3033	-5.39293	48.1536	0.317594	118.826	-6.1969	-3.13392	-33.1938	4.9421	-124.869	0
0.3040	-5.09607	80.1658	-1.82616	89.235	-12.9146	-4.64864	-33.8243	4.9421	-322.629	-0.320096
0.3047	-5.09607	57.622	-2.77895	46.4827	-9.86818	-7.10355	-32.6004	4.62326	-192.619	0
0.3053	-3.85916	35.9799	-4.28752	6.83199	-5.59804	-7.99149	-30.4492	6.16435	88.1793	0
0.3060	-1.43482	25.8803	-6.74887	3.77226	-8.33197	-7.36471	-28.6319	8.28998	252.934	0.320096
0.3067	2.5233	17.9449	-8.89262	26.3639	-13.5395	-6.79016	-27.7047	11.0533	332.288	0
0.3073	8.01517	12.4442	-10.0836	19.9511	-15.6745	-6.47676	-24.3668	13.1789	237.994	0
0.3080	15.684	11.5424	-11.354	-30.4296	-16.8983	-5.84998	-18.8778	11.3722	-79.0765	0.320096
0.3087	20.2358	13.9772	-10.4012	-84.7502	-18.7209	-2.19374	-13.055	10.4156	-146.479	0.320096
0.3093	17.1683	13.9772	-9.21022	-141.502	-17.1847	2.40267	-7.26925	12.5944	-29.949	0
0.3100	11.3796	12.4442	-8.25744	-188.194	-11.6908	2.08928	-3.59754	11.9567	-249.668	0
0.3107	6.53088	13.0754	-1.58797	-151.561	-7.42066	-0.679016	0.667584	9.24652	-422.413	0
0.3113	3.16649	13.0754	4.20812	-73.4334	-3.15053	0.835711	5.5632	7.70543	-286.565	0
0.3120	1.039	11.2719	-5.2403	-73.14	2.94223	5.74552	9.82832	7.06774	-260.925	0
0.3127	-1.43482	11.813	-21.6758	-168.956	8.12367	7.88703	13.1662	6.80204	-262.175	0
0.3133	-3.5623	14.8789	-30.2508	-265.4	8.74857	5.11873	11.6456	4.9421	-217.009	0.320096
0.3140	-4.50235	15.7807	-31.4418	-236.102	7.83726	-0.365624	4.0055	0.956536	-329.022	0
0.3147	-5.39293	11.813	-28.7422	-99.6716	7.52481	-1.3058	-2.70742	-1.4348	-254.254	0
0.3153	-5.39293	9.10771	-26.2809	-4.4848	6.92595	3.60401	-7.26925	-1.4348	153.15	0
0.3160	-3.26544	5.41052	-16.8325	70.9186	5.70219	5.11873	-11.2377	0.956536	413.797	0
0.3167	1.63272	-12.2638	13.1007	269.256	4.79088	5.43212	-11.5344	4.62326	293.862	-0.320096
0.3173	8.01517	-23.2652	34.7765	434.062	5.07729	3.29061	-8.78986	6.16435	14.0364	0
0.3180	11.0827	-16.8628	26.5191	314.439	5.38974	-4.33525	-8.49315	4.9421	-151.413	0.320096
0.3187	10.489	-3.42666	13.9741	48.3269	4.79088	-10.4464	-10.6443	3.13531	-179.138	-0.320096
0.3193	9.8458	27.1428	6.98706	-102.731	4.79088	-10.4464	-10.0138	-0.850255	-80.8832	-0.640193
0.3200	9.8458	23.4456	0.317594	-174.446	6.6135	-6.47676	-7.89974	-6.05806	125.424	0
0.3207	12.9133	-79.715	1.82616	-166.525	5.9886	-4.02186	-7.89974	-11.5316	281.979	0
0.3213	19.6421	-196.582	5.79609	-76.7865	2.94223	-0.365624	-10.3105	-14.8795	390.31	-0.320096
0.3220	23.8971	-231.39	-2.77895	-55.7457	2.03092	7.26024	-11.2377	-12.435	399.76	0
0.3227	22.6602	-213.355	-13.1801	-10.2689	6.92595	15.8263	-9.42035	-12.435	270.375	0
0.3233	22.0665	-180.08	-12.8625	61.7394	13.0187	22.8254	-9.08656	-16.7394	115.905	0
0.3240	23.0065	-160.602	-0.952781	1.00594	13.0187	24.6535	-9.71706	-18.865	-92.2096	0
0.3247	20.8296	-105.956	23.5019	-96.0251	9.65988	22.8254	-11.2377	-19.4496	-217.912	0
0.3253	17.1683	-17.7645	50.6562	-108.515	8.12367	27.1084	-14.6127	-22.7974	-113.89	0.320096
0.3260	12.6165	13.7066	55.4995	-58.8054	5.70219	36.8758	-14.9094	-23.754	74.4208	0
0.3267	7.1246	19.2073	26.5191	44.6804	-8.33197	41.7333	-11.5344	-11.5316	216.314	0
0.3273	1.33586	-3.42666	-11.354	190.248	-29.7087	42.0467	-8.49315	8.60883	225.486	0
0.3280	-6.62984	-0.991928	-34.5383	249.137	-39.1603	32.5927	-7.56595	24.7637	122.02	0
0.3287	-9.05418	143.649	-40.0168	136.514	-45.5655	12.7446	-8.19645	40.0682	17.3718	0
0.3293	4.35392	306.055	-34.7765	107.216	-55.9544	2.08928	-5.74864	56.5419	53.3662	0
0.3300	21.4728	319.13	-32.3946	243.018	-60.2245	2.97722	0.667584	60.7932	88.4573	0
0.3307	24.4908	236.71	-36.3645	185.344	-53.1944	-0.365624	4.3393	47.0828	-249.042	0.320096
0.3313	21.7696	161.414	-23.5019	-50.5483	-45.2791	-3.70847	5.22941	29.3869	-693.066	0
0.3320	25.134	114.072	17.0707	-142.424	-50.4605	-9.81961	7.97392	17.7491	-671.108	0
0.3327	31.8133	94.5037	43.5897	-90.8277	-63.5834	-35.4655	11.0522	12.5944	-150.787	0.320096
0.3333	35.8209	80.5265	38.1113	-68.5714	-65.7184	-63.2529	12.5728	9.24652	346.047	0
0.3340	33.0502	28.0445	27.4719	-89.9056	-55.0431	-65.3422	13.7967	3.13531	614.615	-0.320096
0.3347	22.0665	-7.6649	19.532	-87.4746	-37.0252	-52.232	17.1347	-1.4348	860.6	0
0.3353	10.1921	13.9772	-2.46135	-97.8693	11.1961	-39.7485	22.6237	-2.39134	672.289	0
0.3360	-2.32539	30.7498	-47.3215	-106.713	61.5524	-32.6972	26.9259	-3.29474	-195.051	0
0.3367	-22.8086	30.1186	-96.4691	-95.103	71.004	-25.0713	24.7748	-2.39134	-703.489	0
0.3373	-36.8104	34.447	-150.46	-128.383	77.4092	-7.10355	19.2858	1.91307	-172.467	0
0.3380	-27.3604	36.521	-209.056	-162.543	91.7558	7.26024	13.4629	6.16435	362.793	0
0.3387	-13.3091	27.1428	-236.21	-120.126	92.3547	14.8861	10.125	9.51222	188.866	0.320096
0.3393	-12.7154	17.6744	-219.14	33.3636	73.7379	24.9669	11.0522	13.1789	-79.7019	0.320096
0.3400	-13.6555	27.6838	-160.226	174.362	36.218	26.1682	11.0522	13.8166	-229.238	0
0.3407	-7.81727	51.8508	-61.6926	164.303	0.494711	20.3705	11.9423	3.71986	-364.113	0
0.3413	-3.85916	58.7943	28.9804	134.083	-22.0797	4.54418	14.0934	-6.05806	-212.423	0
0.3420	2.5233	70.6974	75.6667	39.7764	-45.2791	-22.0419	13.7967	0.956536	81.7865	-0.320096
0.3427	16.8714	83.863	115.366	-245.239	-60.2245	-31.4959	18.0619	7.70543	184.906	0
0.3433	19.939	-28.4052	149.825	-554.691	-61.1358	-28.7276	19.5825	2.49762	241.677	0.320096
0.3440	4.70026	-195.68	126.641	-809.528	-61.7607	-36.9802	10.7184	-0.850255	380.512	0.320096
0.3447	-9.35104	-191.713	62.2484	-901.99	-56.5532	-40.3231	6.45331	0.0531409	437.561	0
0.3453	-9.99423	-90.9869	30.8066	-688.354	-52.2831	-35.4655	9.82832	-3.29474	407.056	0
0.3460	-0.197906	-39.4066	63.7569	-406.063	-59.0008	-35.4655	15.614	-9.40594	478.767	-0.320096
0.3467	9.25208	-1.89368	97.8983	-297.422	-15.0496	-35.4655	22.327	-17.0051	625.872	0
0.3473	13.2102	-14.0673	67.0917	-221.432	102.744	-29.041	27.2226	-24.0197	408.932	0.320096
0.3480	22.6602	-96.217	37.4761	-20.957	196.426	-18.9602	26.5921	-20.6718	-310.052	0
0.3487	43.1434	-44.9073	62.566	132.239	215.355	-12.5879	20.8064	-5.42037	-727.254	-0.320096
0.3493	51.6534	144.912	90.9112	66.3499	199.186	-11.6477	15.614	5.26095	-455.975	0.320096
0.3500	39.4822	211.732	106.156	27.8728	176.898	-10.133	11.6456	-3.61358	-89.4301	0.320096
0.3507	27.5583	129.311	94.2459	209.151	147.294	-9.19283	3.11539	-17.6428	113.473	0.320096
0.3513	26.6678	21.2814	25.3281	410.883	98.4735	-13.1625	-5.74864	-16.7394	311.581	0
0.3520	26.6678	-47.342	-79.3984	604.065	42.6232	-16.2441	-10.941	0.0531409	452.848	0
0.3527	25.4309	-37.8736	-174.28	836.604	-8.04556	-14.7294	-13.3888	25.7202	329.578	0
0.3533	30.6259	4.23824	-225.253	942.479	-53.8193	-12.2745	-8.78986	44.9041	195.259	0
0.3540	32.1597	21.6421	-236.528	824.994	-85.8453	-10.133	-0.853024	52.2375	472.096	-0.640193
0.3547	20.2358	23.4456	-223.11	491.442	-104.462	-7.6781	1.59478	44.9041	661.31	-0.640193
0.3553	1.63272	24.0768	-171.818	55.3265	-114.252	-12.5879	-1.14973	7.70543	443.398	0
0.3560	-13.0123	18.8466	-96.4691	-226.629	-122.48	-22.6164	-8.19645	-28.9087	279.2	0.320096
0.3567	-17.6136	6.9435	-9.76601	-319.092	-132.244	-27.8396	-16.7267	-32.5754	58.8557	-0.640193
0.3573	2.86963	8.747	136.089	-319.72	-125.526	-22.9298	-18.5811	-38.3677	-223.124	-0.960289
0.3580	44.974	23.7161	272.813	-285.854	-106.91	-7.6781	-9.42035	-54.5757	20.4293	0
0.3587	63.5772	15.2396	244.706	-395.711	-100.817	9.71515	0.964288	-49.6867	844.062	0
0.3593	44.974	-9.55858	127.514	-591.323	-101.728	20.6839	6.45331	-47.5611	1083.93	-0.320096
0.3600	15.9809	-11.6326	59.1518	-694.474	-89.5166	25.5937	12.5728	-56.0637	-64.1367	0
0.3607	-6.92669	2.97579	22.8668	-684.414	-59.9121	33.5329	22.327	-17.9616	-1096.51	0
0.3613	-12.1217	7.57473	10.3218	-499.783	-23.9023	41.4199	27.5193	28.1647	-962.885	0
0.3620	-16.9704	-2.79543	28.9804	-197.331	5.70219	37.7637	22.0303	18.7056	-642.132	0
0.3627	-22.1654	-0.991928	44.2249	-45.351	27.6778	40.8454	17.4314	18.7056	-640.881	0
0.3633	-16.0798	17.9449	44.5425	5.28117	35.9056	49.6726	18.0619	62.0154	-739.761	0
0.3640	-0.494764	24.9786	42.7164	244.862	28.2766	38.3905	12.5728	86.4071	-846.911	0.320096
0.3647	36.7115	9.73893	69.8706	574.139	17.6013	32.5927	4.0055	50.1119	-859.696	0
0.3653	47.9921	-10.4603	127.831	714.844	11.1961	45.3896	3.7088	-10.3093	-598.146	0
0.3660	11.3796	-10.7309	152.286	586.671	6.30105	44.5016	7.08381	-18.865	-76.0191	0
0.3667	-17.6136	5.41052	130.928	326.049	7.83726	32.5927	8.30771	16.2611	287.469	0
0.3673	-19.4442	8.20595	97.8983	157.262	9.06102	24.9669	11.9423	32.7348	342.989	0
0.3680	-7.52041	-5.59087	60.1046	145.987	2.65582	18.8557	19.5825	23.8603	158.987	0
0.3687	-10.8848	-20.1993	28.0276	145.987	-0.416599	15.8263	24.4781	11.9567	-267.665	-0.320096
0.3693	-23.6992	-25.4294	21.914	57.1708	3.56712	16.1397	24.1443	6.80204	-462.09	0
0.3700	-15.1398	-16.8628	32.3152	-55.117	12.1074	18.229	22.9575	4.03871	-266.136	0
0.3707	-6.92669	-14.0673	28.3452	-129.892	15.7526	22.8254	15.0206	-1.75365	-217.009	0
0.3713	-21.5717	-44.6368	9.76601	-175.662	13.6176	20.6839	-5.74864	-1.4348	-250.571	0.320096
0.3720	-37.1568	-87.3799	3.01714	-173.524	19.4239	17.9678	-22.2157	8.60883	12.7857	0.320096
0.3727	-32.5555	-107.489	9.44841	-24.6035	23.4076	22.1986	-23.1429	11.0533	304.563	0
0.3733	-19.1474	-112.358	11.9098	203.032	16.9764	24.6535	-20.6951	5.26095	270.375	-0.320096
0.3740	-11.1817	-107.759	10.957	265.316	12.4198	32.9061	-17.0234	15.6234	68.6534	0
0.3747	-6.92669	-101.087	8.81323	165.519	10.8836	45.703	-10.0138	27.8458	73.2396	0.320096
0.3753	-0.841099	-92.8806	0.317594	118.826	5.9886	53.0677	-2.70742	20.1935	151.621	0.320096
0.3760	10.7859	-26.9624	-4.28752	197.248	3.25468	67.3792	5.5632	17.4834	-47.3208	0.320096
0.3767	22.0665	84.7648	-1.82616	271.1	-11.0919	61.5815	6.45331	31.5126	-269.819	0
0.3773	24.194	119.572	-3.09654	229.899	-14.1383	29.8245	1.59478	30.2903	-122.089	0
0.3780	24.194	69.7957	-9.76601	136.807	66.7339	28.6231	3.7088	16.2611	31.6862	0
0.3787	26.9646	32.914	-16.1973	53.8176	159.505	42.0467	8.30771	23.2757	-133.971	0
0.3793	33.0502	22.5438	-18.0234	-98.4561	173.852	21.3106	10.4217	38.5272	-298.517	0
0.3800	38.839	12.7147	-18.341	-208.313	151.876	-25.6981	15.0206	35.445	-325.339	-0.640193
0.3807	27.8552	7.57473	-19.8496	-91.7499	117.377	-70.252	25.702	18.3868	-438.881	-0.640193
0.3813	15.3377	10.28	-17.3883	36.4233	69.4678	-91.3015	39.4245	6.16435	-636.642	0
0.3820	-2.96858	9.37823	-15.8797	-12.1132	37.4418	-94.0698	45.8408	0.956536	-622.606	0
0.3827	-63.6761	0.270526	-18.0234	-64.2962	20.9601	-73.5948	47.0647	-8.76825	-417.201	-0.320096
0.3833	-133.586	-7.12385	-18.0234	-47.1952	-8.64442	-28.153	45.507	-20.0873	-218.815	-0.320096
0.3840	-170.199	-10.0996	-18.341	-53.9015	-38.249	6.63346	32.4149	-22.5317	-52.1849	0.320096
0.3847	-173.217	-11.3621	-21.12	-51.7639	-49.5492	28.6231	9.82832	-26.783	144.95	0
0.3853	-143.333	-7.6649	-21.12	16.2627	-55.3295	41.7333	-3.93133	-38.3677	281.632	0
0.3860	-112.212	0.541052	-17.3883	62.0747	-59.9121	36.249	-3.30083	-28.3241	90.6114	0.320096
0.3867	-72.8292	8.47648	-15.0063	126.161	-74.8836	36.249	2.4849	-6.64261	-238.967	0.320096
0.3873	23.6002	8.747	-20.4848	426.727	-100.817	47.5311	10.7184	-4.51698	-351.258	0
0.3880	117.902	3.60701	-29.6156	804.247	-78.2164	46.3298	24.7748	-11.8504	-354.315	0
0.3887	76.0947	2.97579	-30.2508	798.127	-21.1684	31.078	40.6484	-23.4351	-357.373	-0.320096
0.3893	-76.1936	-0.991928	-28.107	326.93	1.71847	10.9165	53.4438	-44.1601	-261.55	0
0.3900	-198.549	-8.29613	-25.6457	-60.943	27.3653	-3.39508	62.6045	-63.3971	-112.361	0
0.3907	-264.798	-2.52491	-13.4183	31.8547	78.0341	14.8861	60.1567	-70.7306	-29.0457	0
0.3913	-146.697	14.2477	5.1609	156.968	84.4393	78.6613	40.9452	-62.4937	-7.99103	0
0.3920	190.534	31.381	24.3753	4.69437	40.4882	159.255	22.327	-37.7832	0.277949	0
0.3927	320.558	41.4806	35.0941	-66.4338	-9.26932	201.041	11.9423	-14.5606	13.689	0.320096
0.3933	170.397	42.0217	31.1242	67.8588	-56.5532	194.355	-1.78022	-6.64261	1.18128	0
0.3940	115.132	25.6098	13.4183	141.711	-76.3938	184.274	-12.4616	0.956536	-1.25077	0
0.3947	117.902	-6.49262	-12.545	64.7991	-55.0431	186.99	-13.055	6.80204	36.8977	0
0.3953	45.5678	-22.634	-23.5019	-10.2689	-26.9487	196.183	-7.89974	3.40102	33.8403	0
0.3960	16.2777	-21.7322	-16.5149	-20.3283	-15.6745	188.871	14.3901	-0.531409	-25.0849	0
0.3967	67.5353	-18.3958	-4.60511	-34.0761	-18.122	135.751	58.6361	-2.65705	-70.2516	0
0.3973	143.531	-13.5263	4.52571	-53.6081	-31.2189	64.6632	100.768	-0.265705	-47.0429	0
0.3980	130.123	-32.7336	-7.62225	-63.374	-49.8356	17.9678	117.866	14.4012	62.5385	0
0.3987	12.3196	-66.5494	-30.2508	-94.8096	-62.672	-2.19374	106.554	41.875	155.929	0
0.3993	-23.996	-64.7459	-33.5855	-100.3	-61.4483	-7.36471	71.4686	58.6676	140.017	0
0.4000	37.0083	-38.2343	-26.5985	-19.7415	-48.6379	-7.6781	24.1443	33.0005	85.1219	0
0.4007	10.489	-25.4294	-25.6457	63.5836	-33.6664	-56.8284	-7.56595	-13.3384	54.617	0
0.4013	-72.2355	-23.8965	-22.6286	72.7209	-19.9447	-167.299	-9.71706	-17.0051	58.2303	0
0.4020	-106.721	-20.8305	-15.5621	56.584	-3.77542	-260.376	0.964288	22.3192	90.3334	0.320096
0.4027	-122.899	-18.0351	-14.0535	52.8955	15.1538	-310.415	15.0206	37.8895	129.385	0
0.4033	-63.0824	-15.6003	-18.6586	38.8543	32.2343	-347.029	33.0083	11.0533	222.429	0
0.4040	48.3384	-12.8951	-18.6586	8.96961	50.2522	-352.252	51.0331	-20.4061	345.143	0
0.4047	58.3821	-18.0351	-8.25744	-19.1128	56.6574	-316.212	69.0208	-40.2277	353.968	-0.320096
0.4053	69.069	-28.7659	10.0836	-47.1952	40.8006	-271.345	80.2955	-69.1895	225.208	0
0.4060	216.162	-35.1684	24.3753	-72.5113	26.7404	-220.993	77.8848	-85.6631	117.433	0
0.4067	270.487	-26.3312	27.4719	-103.653	25.8291	-163.956	66.8697	-79.8708	137.029	0
0.4073	177.125	12.7147	37.7937	-156.759	30.4117	-116.007	52.8504	-111.649	187.338	0
0.4080	117.309	43.9154	44.2249	-164.094	41.7119	-66.5958	35.7528	-127.485	214.229	0
0.4087	39.1853	32.0122	24.0577	-98.7495	31.0366	-17.1321	13.7967	-54.2569	236.465	0.320096
0.4093	-3.85916	24.0768	11.2746	-51.4705	-17.4971	-1.56696	-1.78022	35.7638	215.133	0
0.4100	92.2735	35.6192	17.0707	-63.0806	-62.9585	-29.041	-2.07693	76.948	176.637	-0.960289
0.4107	197.559	32.914	11.9098	-113.419	-89.5166	-68.1105	5.8599	66.5856	183.377	-0.640193
0.4113	151.794	15.2396	-3.09654	-214.432	-85.5589	-61.6859	13.7967	47.9862	186.712	0.320096
0.4120	-15.4861	-4.05789	-13.7359	-344.743	-55.0431	-1.3058	15.0206	38.2083	134.527	0
0.4127	-132.943	-18.3958	-18.9762	-413.398	-36.1139	59.44	14.0934	22.9569	94.2942	-0.320096
0.4133	-209.236	-19.027	-19.8496	-406.399	-27.2612	94.8532	12.8695	21.7346	135.153	-0.320096
0.4140	-291.366	-14.6986	-21.12	-340.468	-25.751	116.216	5.8599	30.556	192.549	0
0.4147	-293.791	-11.0916	-20.1672	-232.749	-20.2571	145.832	1.59478	20.1935	214.229	0.320096
0.4153	-244.018	5.13999	-9.21022	-182.075	-14.7632	184.274	1.89149	-7.86485	215.758	0.320096
0.4160	-222.99	21.2814	8.49563	-163.171	-8.95687	212.95	5.5632	-43.8944	222.429	0.320096
0.4167	-185.141	4.23824	16.1179	-112.204	62.1513	215.091	17.1347	-83.5375	271.278	0
0.4173	-69.7617	-23.5358	24.6929	-154.914	165.598	175.134	31.4877	-117.123	302.409	0
0.4180	146.599	-15.3298	50.6562	-197.96	213.22	102.479	43.9864	-147.041	239.523	-0.320096
0.4187	308.337	-1.89368	64.3921	62.3681	199.186	29.5633	49.4754	-171.433	147.382	0
0.4193	226.256	-7.6649	47.2421	491.736	152.475	-8.30488	39.7212	-156.819	104.022	0
0.4200	-49.0311	-5.23017	26.5191	663.877	113.731	-26.5861	29.9671	-119.886	82.3424	0
0.4207	-363.651	-0.360701	9.44841	438.966	79.2318	-73.2814	37.9039	-104.634	61.2878	0
0.4213	-595.3	-9.82911	-13.4183	105.079	17.9137	-116.321	58.3394	-50.909	38.1485	0
0.4220	-633.149	-14.428	-29.6156	-22.1725	-51.3718	-142.907	79.7021	72.6968	14.3144	0
0.4227	-463.148	-12.5344	-34.2207	40.6985	-90.7404	-209.398	83.0771	143.215	1.52872	0
0.4233	-307.199	-21.7322	-38.1906	144.771	-84.934	-279.598	62.9012	110.533	-11.0485	-0.320096
0.4240	-183.904	-26.6017	-37.8731	184.757	-77.3051	-275.628	32.4149	75.4601	-10.4231	0
0.4247	12.9133	-15.3298	-27.4719	150.262	-88.0064	-213.681	-6.04534	65.0445	5.48949	0
0.4253	102.614	-6.76315	-17.7059	107.51	-86.7827	-141.653	-46.6567	38.2083	5.76744	-0.320096
0.4260	105.978	-7.12385	-17.7059	86.1753	-81.5752	-89.7867	-78.0702	21.0969	-57.6744	0
0.4267	160.007	-4.32841	-18.6586	89.8218	-84.0227	-79.706	-95.1678	17.4834	-146.201	0
0.4273	275.979	-8.56665	-22.311	68.781	-62.3596	-93.443	-102.474	-13.3384	-138.558	-0.320096
0.4280	521.63	-30.5694	-33.5855	-25.8191	20.3352	-86.1305	-102.177	-27.1019	-77.8257	0
0.4287	676.985	-40.6691	-32.9504	-56.6678	98.7859	-21.7285	-90.5689	4.62326	-55.5898	0
0.4293	536.621	-31.8319	-19.2144	3.77226	113.419	93.0251	-84.4865	9.51222	-47.9462	0
0.4300	317.787	-21.101	0.555789	3.47887	103.967	205.951	-86.6005	-41.7688	-41.5534	0
0.4307	255.546	-6.13192	27.1543	-20.6636	84.4393	285.866	-77.4768	-107.345	-49.1275	0
0.4313	279.937	4.50877	39.3816	15.6759	67.6452	337.471	-53.0358	-132.374	-75.3937	0
0.4320	187.169	3.60701	28.9804	46.4827	54.5223	338.985	-19.7679	-91.5086	-111.388	0
0.4327	67.8321	6.9435	18.5792	26.0286	15.1538	316.996	8.90112	-27.6864	-138.28	0
0.4333	-5.68978	22.5438	23.1843	45.8959	-39.1603	330.733	22.9575	0.690832	-151.413	0
0.4340	-27.6573	30.7498	27.7101	76.9961	-75.7949	337.784	18.3586	9.51222	-134.944	0
0.4347	29.0921	23.7161	19.2144	-3.2693	-75.7949	299.341	-8.19645	33.0005	-94.0163	0
0.4353	1.039	12.1737	1.19098	-103.36	-56.5532	251.392	-41.7611	56.2231	-67.1942	0
0.4360	-88.1174	-4.95964	-21.12	-119.204	-40.384	185.476	-62.4933	65.3633	-57.3965	0.320096
0.4367	-81.6855	-24.7982	-41.843	-79.8463	-40.384	51.1873	-69.2062	81.2524	-52.1849	0.320096
0.4373	-116.467	-37.6031	-58.9136	-53.3147	-100.192	-78.1912	-76.8463	94.0594	-50.3783	0.320096
0.4380	-465.276	-47.0715	-74.4757	-54.5302	-178.33	-132.512	-93.0167	73.2813	-50.6562	0.320096
0.4387	-937.38	-65.6476	-87.8941	-36.5071	-178.929	-188.348	-95.1678	42.1939	-53.4357	-0.640193
0.4393	-1139.74	-73.042	-80.5894	-33.7827	-143.232	-294.536	-70.4301	18.0679	-49.7529	-0.640193
0.4400	-1093.68	-36.3406	-32.3946	-110.988	-139.873	-385.472	-49.4012	-11.2127	-35.0911	0.320096
0.4407	-843.078	21.2814	25.8839	-194.607	-130.109	-355.282	-52.1457	-35.9233	-33.2844	0
0.4413	-295.028	64.0245	62.2484	-210.45	-75.17	-224.65	-51.5152	-47.8268	-49.1275	0
0.4420	453.6	97.5697	86.6237	-217.785	-13.5395	-123.633	-30.783	-53.3535	-60.7319	0
0.4427	1024.56	119.572	97.6601	-205.882	22.1839	-96.4724	-18.8778	-59.4647	-63.7893	-0.320096
0.4433	1077.99	105.866	77.1753	-143.011	40.8006	-123.059	-32.3036	-66.4793	-51.2816	0
0.4440	768.814	60.9585	36.9203	-89.0254	63.375	-206.368	-50.2913	-49.3679	-25.9882	0
0.4447	391.655	13.0754	1.50857	24.8131	101.832	-308.586	-47.5468	4.03871	-16.8159	0
0.4453	37.3547	-27.2329	-27.4719	185.051	95.7135	-351.312	-19.7679	69.03	-31.4777	0
0.4460	-125.324	-55.6382	-48.5124	204.582	31.323	-299.446	8.90112	122.437	-40.0247	0
0.4467	-50.5649	-67.5413	-55.2613	104.492	17.9137	-201.459	33.6388	149.911	-25.0849	0.320096
0.4473	62.6371	-61.1389	-45.1777	32.4415	107.014	-100.755	45.507	156.925	5.48949	0.320096
0.4480	288.497	-40.3084	-23.8195	12.6161	192.469	64.9243	26.9259	161.814	41.1365	-0.320096
0.4487	555.224	-23.2652	-11.354	8.3409	147.919	253.534	1.26099	160.273	66.4993	0
0.4493	528.655	-22.634	-14.6887	4.69437	13.0187	337.784	-10.6443	135.881	75.3242	0
0.4500	369.341	-25.9705	-17.1501	1.92805	-85.5589	378.682	-13.6855	93.156	65.596	-0.640193
0.4507	303.736	-24.167	-15.8797	16.598	-137.425	426.265	1.26099	69.9334	20.0818	-0.320096
0.4513	234.469	-22.9947	-18.341	76.1159	-176.195	421.982	59.2666	82.1558	-51.0036	0
0.4520	127.055	-21.101	-22.9461	143.556	-172.836	387.822	142.566	85.5037	-108.331	0
0.4527	37.3547	-21.101	-28.7422	158.812	-131.932	373.772	189.26	63.5565	-136.751	0.320096
0.4533	82.1803	-24.167	-30.2508	168.243	-79.7526	379.256	172.459	48.5708	-149.884	0
0.4540	289.091	-15.961	-18.9762	175.871	-2.55167	385.681	110.819	42.4596	-145.02	-0.320096
0.4547	391.952	1.4428	-5.47849	99.001	80.1692	340.814	19.5825	28.7492	-115.071	0
0.4553	250.054	7.3042	-3.96992	19.3224	112.195	206.839	-68.9095	16.8457	-80.6052	0
0.4560	82.4771	0.541052	-9.76601	-2.34719	77.0968	-39.1217	-114.379	11.3722	-58.0219	0
0.4567	-63.6761	-7.39437	-15.0063	-35.585	31.323	-330.889	-122.02	9.83107	-48.5716	0.320096
0.4573	-272.417	-14.0673	-21.3582	-44.4289	-8.95687	-485.914	-104.329	18.3868	-60.4539	0
0.4580	-408.823	-22.3635	-30.886	-16.6818	-85.2465	-503.882	-51.8119	26.9424	-85.8168	-0.320096
0.4587	-327.039	-31.4712	-40.3344	-19.7415	-142.919	-459.067	17.7652	20.5124	-97.977	0
0.4593	-122.602	-36.3406	-43.6691	-22.4659	-162.76	-239.013	64.4589	4.03871	-104.37	0
0.4600	-33.7924	-28.7659	-37.8731	17.5201	-174.06	131.154	75.437	-6.32377	-119.032	0.320096
0.4607	18.1084	-17.1333	-28.7422	44.9738	-109.045	389.964	68.7241	-14.5606	-131.261	0.320096
0.4613	90.4428	-17.494	-19.8496	49.249	4.79088	453.426	85.4878	-22.2129	-143.491	0
0.4620	13.8534	-8.29613	3.01714	56.584	81.0805	432.376	126.989	-24.0197	-154.123	0
0.4627	21.1759	14.8789	31.68	50.1711	104.879	382.025	142.566	-40.5465	-144.672	0
0.4633	225.909	23.7161	33.2679	41.2853	71.9153	285.291	135.557	-59.1458	-117.225	0.320096
0.4640	220.764	21.6421	16.4355	36.7167	67.6452	101.539	122.427	-39.9088	-97.6991	0.320096
0.4647	-74.363	21.2814	9.76601	15.3825	93.5784	-106.24	72.3958	-5.42037	-80.6052	0.320096
0.4653	-335.598	17.3137	5.47849	-16.9752	74.3628	-232.902	3.4121	-5.10153	-42.1093	0
0.4660	-471.114	13.7066	-3.65233	-47.4886	81.9918	-325.98	-23.7363	-20.0873	-1.25077	0
0.4667	-616.674	18.5761	-5.79609	-64.2962	134.796	-450.501	2.4849	-0.850255	16.4685	0
0.4673	-790.633	19.4779	-4.28752	-62.7453	155.547	-540.549	54.6677	36.4015	15.8431	0
0.4680	-773.514	-3.69719	-10.0836	-46.9018	120.449	-603.384	93.128	40.0682	7.29616	0
0.4687	-546.17	-32.1024	-15.5621	-24.6035	79.2318	-735.844	95.5758	4.35755	-4.30821	-0.320096
0.4693	-515.94	-44.6368	-19.2144	-21.8791	108.55	-810.901	73.5826	-12.7538	-8.26898	-0.960289
0.4700	-631.319	-45.8091	-21.9934	-31.0164	180.257	-649.766	36.0495	6.80204	5.14206	-0.640193
0.4707	-389.627	-40.0378	-18.6586	-52.3926	222.359	-369.019	-12.1649	21.4158	23.7646	0
0.4713	128.292	-40.3084	-15.8797	-78.6308	236.107	-157.218	-39.9438	45.2229	33.5623	0
0.4720	427.971	-47.0715	-19.532	-33.7827	216.267	-59.2833	-28.3352	81.2524	34.1182	0
0.4727	406.003	-39.4066	-15.0063	19.6577	172.003	-44.2927	-6.34205	59.8898	27.7254	0
0.4733	262.571	-22.3635	-2.77895	-9.05343	158.88	-15.9307	-4.22803	4.62326	21.0546	0
0.4740	67.2384	-22.634	-6.43127	-45.351	167.134	95.1666	-5.74864	12.5944	19.1785	0
0.4747	-60.9549	-37.3326	-19.8496	-47.4886	165.312	238.596	-5.11814	28.1647	15.8431	0
0.4753	5.88769	-45.8091	-25.6457	-37.4292	142.112	378.682	-16.1333	-10.3093	5.76744	-0.320096
0.4760	71.4934	-45.268	-27.4719	-21.5438	81.3669	508.06	-21.3256	-13.0727	-6.11488	0
0.4767	8.01517	-36.7013	-21.6758	-8.13133	19.4239	577.007	-8.49315	21.4158	-14.0364	0.320096
0.4773	31.8133	-23.8965	-5.79609	2.85016	-10.7795	597.168	12.8695	15.6234	-20.4987	0.320096
0.4780	231.747	-19.027	5.1609	7.41879	-43.144	624.955	32.7116	-0.265705	-25.0849	0
0.4787	343.416	-15.6003	8.81323	-27.6633	-77.93	627.358	33.305	4.62326	-25.0849	0
0.4793	274.742	-2.52491	14.2917	-80.7684	-80.3775	565.15	14.3901	-13.3384	-23.8341	0.320096
0.4800	222.248	3.87754	18.5792	-75.2776	-22.3922	460.164	15.9108	-49.0491	-21.68	0
0.4807	191.424	-4.05789	13.7359	-34.3695	67.0463	334.128	52.8504	-51.8124	-17.4413	0
0.4813	77.9253	-10.4603	4.52571	-13.6221	98.4735	207.779	90.3835	-20.6718	-13.1331	0
0.4820	-45.073	-10.4603	-3.41413	-7.20922	86.8608	17.9678	126.099	10.1499	-14.6618	0
0.4827	-92.6693	-15.0593	-11.354	-11.4844	67.3327	-329.323	160.591	34.2227	-14.6618	0
0.4833	-92.6693	-18.3958	-12.8625	-24.0168	17.2888	-617.121	156.289	54.3631	0.555898	0
0.4840	-69.7617	-17.1333	-9.76601	-36.5071	-24.8137	-502.68	118.162	46.4452	22.5834	0.320096
0.4847	-50.268	-18.6663	-8.89262	-41.0758	-7.13425	-157.532	83.3738	23.2757	37.5231	0.320096
0.4853	-50.5649	-21.4617	-7.62225	-38.9382	27.3653	35.9356	59.5633	10.7345	46.07	0
0.4860	-49.6248	-23.5358	-7.06646	-45.0576	24.9178	97.3082	43.9864	4.62326	49.6834	0
0.4867	-46.3099	-24.4375	-7.06646	-49.6262	4.79088	127.812	42.7625	4.03871	49.1275	-0.320096
0.4873	-42.9455	-22.0028	-3.65233	-41.0758	-12.6281	53.9556	52.2199	4.62326	45.4447	-0.320096
0.4880	-29.7848	-18.6663	0.873383	-37.7226	-28.4849	-118.775	54.371	0.0531409	48.5021	0
0.4887	-30.7248	-17.7645	3.96992	-43.8421	-35.2026	-286.336	30.2638	-10.3093	59.2031	0.320096
0.4893	-55.463	-18.6663	5.47849	-44.7642	-10.467	-437.39	0.37088	-21.3095	59.4811	0.320096
0.4900	-75.8968	-19.568	6.11368	-40.1956	13.93	-542.063	13.7967	-25.5608	49.4054	0
0.4907	-86.8805	-20.4698	5.47849	-34.9982	3.25468	-521.902	55.8916	-26.1985	40.5806	0.320096
0.4913	-93.6093	-19.568	3.96992	-26.1544	8.12367	-428.198	78.7749	-24.0197	33.2149	0.320096
0.4920	-93.263	-16.8628	2.14376	-21.2504	26.7404	-356.483	74.8065	-18.5462	28.6287	0
0.4927	-86.8805	-16.2316	2.38195	-21.5438	27.0529	-325.353	63.8284	-19.7684	29.8795	-0.320096
0.4933	-84.7531	-21.101	4.52571	-19.4062	31.0366	-333.919	57.4122	-28.0053	33.2149	0
0.4940	-88.7112	-29.9382	3.65233	-15.7597	21.8714	-327.494	50.1059	-38.6866	34.7436	0.320096
0.4947	-85.0499	-32.1024	3.96992	-9.05343	-5.91049	-228.619	47.6581	-49.6867	35.0911	0
0.4953	-74.0662	-27.2329	6.98706	-12.4066	-25.751	-120.917	55.2982	-55.1603	35.0911	-0.320096
0.4960	-70.4049	-22.9947	10.3218	-31.0164	-39.1603	-94.3832	61.7144	-42.0345	33.8403	0
0.4967	-67.9311	-15.0593	12.7831	-43.5487	-45.2791	-80.0194	63.235	-8.76825	32.659	0
0.4973	-60.3117	-8.0256	10.957	-44.7642	-50.148	-53.4855	60.1567	8.60883	31.6862	0
0.4980	-56.3536	-5.86139	9.44841	-38.9382	-59.0008	-40.3231	56.1883	-17.3239	34.4657	0.320096
0.4987	-56.3536	-4.59894	11.9098	-29.5075	-57.4646	-26.3249	54.6677	-61.5903	39.9552	0
0.4993	-58.778	-8.29613	8.17804	-22.1725	-45.8779	-7.6781	52.5537	-88.1076	41.1365	-0.960289
0.5000	-65.8036	-12.2638	3.01714	-13.9155	-39.7852	8.20042	51.3298	-80.1896	42.6652	-0.640193
0.5007	-68.8711	-7.12385	5.47849	-5.40691	-45.8779	20.6839	49.1787	-53.6723	46.07	0
0.5013	-64.2698	-2.16421	7.93984	-7.20922	-52.2831	40.532	43.0963	-33.2131	45.1667	0
0.5020	-62.1423	-4.95964	7.30466	-29.1722	-48.9243	67.3792	39.7212	-4.51698	41.1365	0
0.5027	-62.4392	-9.19788	3.96992	-73.4334	-43.7428	80.8028	38.2006	14.72	34.1182	0
0.5033	-61.2518	-10.0996	-0.635188	-86.5525	-38.249	83.5711	35.7528	2.17878	28.3508	0
0.5040	-59.4211	-6.13192	1.50857	4.35906	-20.856	91.197	35.1594	-6.96146	25.9187	0
0.5047	-56.9473	-1.62316	5.79609	96.8634	-8.33197	104.307	33.305	-6.64261	25.9187	-0.320096
0.5053	-56.3536	-3.69719	2.14376	67.2301	-24.8137	110.732	28.1127	-12.7538	28.6287	-0.320096
0.5060	-58.1842	-9.55858	-3.09654	12.3227	-46.5028	105.822	22.327	-17.6428	23.4867	0
0.5067	-60.6086	-11.0916	-3.41413	2.55676	-54.7306	99.7108	18.3586	-32.3097	10.0757	0
0.5073	-56.6505	-6.49262	-1.27038	13.2448	-57.4646	96.9948	17.4314	-60.6869	0.555898	-0.320096
0.5080	-46.3099	1.4428	0.317594	37.3454	-56.2668	99.7108	18.3586	-70.4117	-3.05744	0
0.5087	-38.0473	7.3042	5.47849	42.2074	-57.4646	100.964	16.5412	-46.9234	-4.93359	0.320096
0.5093	-33.1492	6.9435	12.148	23.0108	-62.3596	82.3176	14.0934	-19.7684	-8.54693	0
0.5100	-29.1911	-0.0901753	10.3218	12.0293	-59.0008	53.0677	11.6456	-12.435	-11.3264	0
0.5107	-29.1911	-5.23017	4.8433	11.1072	-49.5492	30.1378	9.19782	-13.0727	-10.4231	0.320096
0.5113	-32.5555	-4.05789	3.96992	10.7719	-44.0553	-1.88035	11.6456	-18.5462	-14.0364	0
0.5120	-30.7248	-0.360701	5.1609	12.9095	-38.249	-35.7789	15.614	-23.754	-20.1513	-0.320096
0.5127	-19.4442	2.97579	6.98706	16.598	-31.2189	-23.87	12.2761	-14.2949	-22.3054	0
0.5133	-14.8429	2.07403	6.11368	18.1069	-27.2612	19.4825	7.67722	-0.265705	-24.7375	0
0.5140	-18.801	-1.26245	3.01714	18.7356	-31.5313	34.7343	5.22941	7.38659	-26.8916	0.320096
0.5147	-13.3091	-4.32841	2.14376	17.8135	-36.7127	25.2803	-1.14973	0.371986	-24.7375	0.320096
0.5153	-6.62984	-1.26245	3.96992	14.7537	-39.7852	20.6839	-13.6855	-17.0051	-20.7767	0
0.5160	-13.9523	6.67297	7.62225	12.6161	-45.8779	19.7959	-21.3256	-21.6283	-15.9126	0
0.5167	-20.3348	7.57473	9.44841	8.63429	-45.2791	6.05891	-16.43	-17.3239	-12.8551	0
0.5173	-16.3767	5.13999	12.7831	4.06566	-49.8356	-5.2232	-6.97254	-20.4061	-10.701	0
0.5180	-7.81727	6.9435	13.7359	4.35906	-62.3596	3.60401	-2.70742	-34.1165	-9.17232	0
0.5187	2.22644	0.541052	3.65233	4.35906	-70.301	-10.133	1.26099	-45.1166	-11.9518	0
0.5193	5.29397	-11.6326	-5.79609	7.41879	-83.1114	-41.5766	15.0206	-24.6574	-17.0939	0
0.5200	2.5233	-0.631227	-3.41413	11.4006	-97.458	-5.2232	20.1759	0.371986	-18.97	-0.320096
0.5207	3.46335	25.6098	6.35188	7.7541	-99.5931	86.2872	8.90112	-11.5316	-17.4413	-0.320096
0.5213	9.8458	30.1186	18.2616	3.14355	-76.7062	146.145	3.7088	-16.7394	-14.0364	-0.320096
0.5220	21.4728	10.9112	24.0577	3.77226	-42.5191	157.114	10.125	4.35755	-9.51975	0
0.5227	26.9646	-28.1347	11.9098	4.35906	-29.3962	135.124	18.9891	20.1935	-7.01821	0.320096
0.5233	18.4052	-84.9451	-2.77895	4.98777	-27.2612	102.166	28.1127	27.2081	-9.7977	0
0.5240	9.25208	-118.13	2.14376	2.55676	-6.50935	98.1961	25.9987	24.1791	-7.99103	-0.320096
0.5247	5.29397	-109.924	8.81323	-4.7782	8.74857	134.811	0.37088	-1.4348	4.23872	0
0.5253	2.22644	-112.99	1.19098	-5.99371	13.93	191.587	-41.1306	-39.0054	12.5077	0.320096
0.5260	5.59083	-132.468	2.14376	-0.796367	21.559	241.625	-74.3985	-55.4791	14.0364	0
0.5267	14.1502	-131.566	15.8797	-1.42508	5.38974	245.595	-81.4452	-47.2423	19.1785	0
0.5273	19.6421	-163.939	17.944	-9.05343	-5.91049	193.415	-75.6224	-27.1019	23.4867	0.320096
0.5280	21.1759	-174.038	11.9098	-14.5442	12.1074	92.7117	-69.2062	-0.850255	23.7646	-0.320096
0.5287	20.2358	-61.4094	8.17804	-15.1729	36.8169	-45.8597	-61.8999	15.0389	23.4867	-1.28039
0.5293	13.8534	4.50877	5.47849	-12.4066	53.611	-152.361	-56.7076	-3.87929	24.668	-0.960289
0.5300	10.1921	-64.4753	11.5922	-7.20922	50.8511	-173.985	-53.963	-73.8127	24.668	0.320096
0.5307	15.684	-118.13	25.3281	-3.85609	43.847	-124.887	-53.3696	-155.862	24.1121	0
0.5313	21.4728	-44.0055	38.4288	-3.56269	47.8047	-43.4048	-55.1869	-204.114	26.8221	-0.320096
0.5320	15.9809	71.0581	35.0941	-3.2693	52.0748	13.9982	-57.6348	-207.143	31.1303	0
0.5327	0.692669	101.537	10.957	-3.85609	47.4922	30.1378	-57.338	-147.625	32.0336	0
0.5333	-10.2911	127.508	8.49563	-6.62242	38.952	32.2794	-56.4108	-68.9238	30.7829	-0.320096
0.5340	-13.9523	127.508	31.4418	-6.91582	34.3694	34.7343	-52.7391	-25.2419	29.2541	-0.320096
0.5347	-2.96858	-34.5371	27.1543	-5.70031	31.0366	34.4209	-49.6979	12.5944	27.7254	0
0.5353	26.9646	-210.018	21.0406	-7.83793	26.454	30.7646	-50.9218	22.638	28.3508	0
0.5360	46.8047	-265.296	38.1113	-9.34683	21.559	27.9963	-49.0674	-26.783	29.6016	0
0.5367	50.1691	-336.715	15.8797	-9.34683	13.6176	25.2803	-42.985	-103.678	25.6408	-0.320096
0.5373	49.5259	-449.253	-37.5555	-5.99371	5.07729	24.6535	-37.496	-142.471	18.6226	-0.640193
0.5380	45.8646	-392.804	-48.2743	-2.34719	-4.37428	22.8254	-32.6004	-66.4793	11.8823	-0.320096
0.5387	45.2709	-1.62316	-14.0535	-0.796367	-15.3621	17.341	-30.1525	47.6674	3.05744	0
0.5393	42.5002	428.693	13.1007	1.63465	-22.6786	16.4008	-27.7047	98.6295	-4.30821	0
0.5400	34.8809	483.971	5.47849	1.92805	-31.5313	15.1995	-27.7047	135.881	-7.36565	0
0.5407	32.4565	290.184	-11.0364	0.125742	-38.249	12.7446	-30.1525	187.747	-7.99103	0
0.5413	28.7953	89.9949	-12.545	3.14355	-36.7127	16.7142	-28.9286	205.762	-6.46231	0
0.5420	21.1759	-61.1389	-7.93984	3.77226	-33.0675	16.4008	-29.5591	169.413	-4.30821	0
0.5427	18.4052	-147.437	-1.82616	1.34125	-30.62	12.7446	-33.5275	100.489	-3.05744	0
0.5433	19.939	-196.312	7.93984	2.55676	-27.8861	13.3714	-33.5275	44.0007	-2.1541	0
0.5440	20.8296	-129.131	13.7359	1.63465	-25.4385	10.0285	-36.8655	14.4012	-3.40488	0
0.5447	21.4728	39.3164	15.5621	0.125742	-21.1684	6.3723	-44.8023	1.91307	-5.21154	-0.320096
0.5453	20.8296	155.011	11.2746	2.85016	-16.5858	8.77497	-46.0262	3.40102	-5.48949	0
0.5460	20.2358	223.635	2.14376	2.26336	-18.122	7.57363	-45.099	1.91307	-3.96077	0
0.5467	19.6421	219.396	-2.77895	0.41914	-20.856	6.05891	-44.8023	-7.86485	-1.52872	0
0.5473	18.7021	145.813	-3.96992	1.34125	-19.9447	8.46158	-41.7611	-12.435	-0.347436	-0.320096
0.5480	18.7021	131.476	-6.74887	0.712539	-19.6322	7.88703	-39.3133	-11.2127	0.555898	0
0.5487	18.4052	148.519	-7.93984	1.00594	-15.6745	6.94685	-36.5688	-9.99049	0.903334	-0.320096
0.5493	15.684	125.704	-6.74887	3.47887	-11.0919	8.46158	-33.1938	-6.32377	-0.625385	-0.320096
0.5500	12.0228	108.842	-10.0836	2.26336	-12.6281	6.94685	-33.1938	1.59423	-1.25077	0.320096
0.5507	6.53088	100.636	-14.6887	1.34125	-13.227	5.74552	-33.5275	15.0389	-1.25077	0
0.5513	3.46335	89.3637	-16.1973	3.14355	-11.4044	7.57363	-31.3764	32.0971	-0.625385	0
0.5520	2.86963	87.8307	-18.6586	2.85016	-12.0032	7.26024	-30.783	36.0827	0.555898	-0.320096
0.5527	-2.96858	33.5452	-14.6887	4.06566	-10.467	7.88703	-30.1525	29.0681	2.43205	-0.960289
0.5533	-0.841099	-43.1038	0.317594	5.90988	-8.04556	10.0285	-28.3352	31.5126	5.76744	-0.320096
0.5540	10.489	-48.875	3.96992	3.77226	-9.26932	8.46158	-29.2624	21.7346	7.29616	0
0.5547	11.6764	-23.5358	-6.74887	2.85016	-9.55573	6.94685	-31.3764	-15.1983	7.57411	-0.320096
0.5553	8.95523	-27.2329	-4.60511	2.55676	-7.73311	7.88703	-31.3764	-52.7158	8.82488	-0.320096
0.5560	8.95523	-1.62316	8.81323	1.63465	-7.13425	7.88703	-30.1525	-69.8272	10.6315	0
0.5567	7.42146	111.908	8.17804	1.34125	-6.8218	8.20042	-29.5591	-63.1314	12.1603	-0.320096
0.5573	11.6764	127.508	5.47849	1.00594	-7.13425	8.20042	-30.1525	-24.6574	11.8823	-0.320096
0.5580	22.0665	-82.4202	20.723	0.125742	-8.64442	6.63346	-30.783	19.2901	10.3536	0.320096
0.5587	22.3633	-238.063	32.3152	-0.20957	-11.4044	4.23079	-32.3036	33.0005	7.92155	-0.320096
0.5593	11.6764	-229.226	20.0878	1.00594	-13.5395	3.60401	-32.8971	42.7784	5.14206	-1.28039
0.5600	0.0989528	-275.035	4.52571	2.85016	-13.5395	4.54418	-31.6732	52.2375	3.96077	-0.320096
0.5607	-5.09607	-371.162	2.38195	3.47887	-13.5395	4.54418	-31.6732	25.9859	2.08462	0
0.5613	0.692669	-383.966	-0.952781	3.14355	-15.0496	3.29061	-32.8971	-9.72479	-0.347436	0
0.5620	11.3796	-168.538	-12.2274	2.85016	-16.2734	2.08928	-33.5275	-9.40594	-1.52872	0
0.5627	12.6165	163.488	-19.8496	2.26336	-16.5858	0.26116	-34.121	-5.42037	-1.87616	0
0.5633	7.1246	190.36	-23.1843	1.92805	-15.6745	0.835711	-34.4177	-56.3825	-0.972822	0
0.5640	1.33586	118.671	-31.4418	2.85016	-13.5395	2.66383	-34.121	-104.9	0	0
0.5647	0.0989528	201.091	-35.0941	3.47887	-12.0032	2.97722	-33.8243	-87.2042	0.555898	0
0.5653	8.01517	146.715	-36.9203	1.92805	-12.6281	1.1491	-34.4177	-51.8124	0.555898	0
0.5660	12.3196	65.2869	-48.83	0.41914	-13.227	-0.052232	-35.0482	-1.4348	0.555898	0
0.5667	11.0827	128.41	-51.9266	-1.13168	-13.5395	-1.3058	-35.3449	54.3631	1.18128	0
0.5673	13.2102	174.219	-44.8601	-1.13168	-12.9146	-0.679016	-35.3449	50.1119	1.80667	0
0.5680	15.9809	178.457	-37.5555	0.41914	-10.1806	2.40267	-34.121	10.4156	2.43205	0
0.5687	16.5746	53.3838	-19.532	0.712539	-8.64442	3.29061	-33.1938	28.4304	3.96077	0
0.5693	14.4471	-187.474	-5.79609	-0.502969	-9.26932	1.77589	-33.1938	100.171	4.51667	0
0.5700	14.4471	-188.016	-12.2274	-2.01187	-10.467	-0.052232	-33.8243	112.659	4.51667	0
0.5707	18.4052	-54.3757	-20.4848	-3.56269	-11.0919	-1.3058	-33.8243	55.5854	4.23872	0
0.5713	19.6421	-127.057	-11.9098	-1.71848	-8.64442	0.26116	-31.6732	18.7056	4.51667	0
0.5720	19.6421	-210.92	0.317594	0.41914	-6.1969	2.66383	-29.8558	41.5562	5.14206	0.320096
0.5727	22.3633	-175.571	-0.635188	-1.13168	-6.1969	1.77589	-30.1525	80.3491	5.48949	0
0.5733	24.194	-56.5399	0.555789	-2.93398	-6.50935	-0.052232	-31.3764	88.2671	5.48949	0
0.5740	22.3633	150.052	10.3218	-4.7782	-6.1969	-0.052232	-31.0797	52.5564	6.39283	0
0.5747	17.8115	224.536	11.5922	-5.0716	-5.59804	-0.052232	-30.783	1.27538	7.57411	0
0.5753	14.4471	164.75	10.6394	-3.56269	-4.06184	0.835711	-30.1525	-9.99049	7.57411	-0.320096
0.5760	11.0827	125.073	15.8797	-2.34719	-4.06184	1.46249	-29.2624	-4.83582	6.67078	0
0.5767	5.88769	-32.3729	6.98706	-2.64059	-4.99918	0.26116	-28.9286	-5.42037	5.48949	0
0.5773	3.76021	-272.6	-11.354	-3.56269	-4.37428	-0.679016	-29.2624	2.81647	5.48949	0.320096
0.5780	7.42146	-304.973	-3.41413	-4.7782	-3.15053	-0.365624	-28.9286	3.13531	7.29616	0
0.5787	18.4052	-190.45	38.4288	-4.7782	-1.64036	0.574552	-27.1113	-8.1837	9.10283	0
0.5793	30.329	-152.667	86.6237	-2.93398	-0.70301	1.77589	-24.0701	-31.3531	8.82488	0
0.5800	29.0921	-124.532	100.677	-2.64059	-2.83808	0.835711	-23.1429	-62.1749	5.48949	0
0.5807	20.2358	47.5224	75.0315	-3.2693	-6.1969	-2.19374	-24.3668	-89.0642	0.555898	0
0.5813	14.1502	319.491	43.5897	-3.56269	-8.33197	-4.64864	-24.0701	-97.301	-2.77949	0
0.5820	7.42146	424.094	20.723	-3.85609	-9.26932	-6.16337	-22.8462	-88.1076	-3.40488	0
0.5827	1.63272	294.152	-1.27038	-2.01187	-7.73311	-4.33525	-20.6951	-102.456	-3.68282	-0.320096
0.5833	5.59083	240.678	-24.4547	-0.502969	-5.59804	-2.82053	-19.1745	-129.345	-3.96077	-0.320096
0.5840	12.0228	343.838	-29.6156	-2.01187	-5.28559	-4.02186	-19.4712	-136.041	-3.05744	0
0.5847	13.5071	254.114	-28.4246	-3.85609	-4.68673	-4.64864	-18.8778	-139.07	-0.972822	0
0.5853	9.54894	-30.2989	-37.5555	-4.7782	-3.15053	-3.39508	-17.6539	-118.345	0.903334	-0.320096
0.5860	12.9133	-106.227	-26.9161	-4.4848	-1.32791	-1.88035	-16.43	-59.4647	3.05744	-0.320096
0.5867	43.1434	-8.0256	-16.8325	-3.56269	1.43206	0.26116	-14.6127	-28.0053	5.14206	-0.320096
0.5873	74.5609	7.57473	-11.354	-2.93398	2.03092	0.574552	-13.6855	-44.4789	6.67078	0
0.5880	65.4078	-40.9396	0.873383	-3.2693	-0.10415	-1.3058	-14.9094	-56.0637	5.48949	-0.320096
0.5887	27.5583	-105.054	-10.0836	-3.85609	-1.32791	-0.365624	-15.5028	-77.7451	3.96077	-1.28039
0.5893	7.71832	-122.458	6.11368	-4.14949	-0.70301	2.08928	-15.2061	-132.693	5.14206	-0.640193
0.5900	18.4052	8.47648	57.9609	-4.14949	-0.10415	1.77589	-14.2789	-111.011	4.86411	0.320096
0.5907	34.584	174.76	75.0315	-2.93398	0.208299	2.40267	-12.4616	52.2375	3.33539	0
0.5913	35.8209	140.583	58.2785	-2.64059	-1.01546	3.60401	-12.1649	249.071	1.80667	-0.320096
0.5920	21.7696	77.1901	38.4288	-3.85609	-3.15053	1.46249	-13.3888	340.633	-0.347436	-0.320096
0.5927	10.1921	181.252	17.3883	-2.93398	-3.46298	-17.4455	-13.055	291.212	-1.87616	-0.320096
0.5933	6.18455	192.795	1.50857	-1.13168	-2.83808	-50.0905	-12.1649	176.747	-3.05744	0
0.5940	1.63272	64.295	13.1007	-0.796367	-1.64036	-47.9489	-10.941	80.0302	-1.52872	0
0.5947	-4.79921	11.5424	39.3816	-1.13168	-0.10415	-5.84998	-8.49315	28.7492	2.08462	0
0.5953	-10.8848	125.704	27.4719	-2.93398	-0.416599	14.5727	-8.19645	8.92767	4.23872	0
0.5960	-11.8249	283.782	-15.0063	-4.7782	-0.70301	7.88703	-9.71706	-18.2273	5.14206	0
0.5967	-8.75732	291.988	-29.6156	-4.7782	0.80716	7.88703	-8.78986	-48.1457	5.76744	0
0.5973	-6.62984	207.493	-6.11368	-3.85609	1.43206	10.3419	-8.19645	-68.2861	5.48949	0
0.5980	3.16649	195.59	29.8538	-2.34719	1.11961	7.26024	-6.34205	-122.915	3.96077	0
0.5987	18.9989	252.942	46.0511	-1.71848	-1.01546	2.97722	-4.52474	-177.863	2.08462	0
0.5993	27.5583	276.387	18.5792	-3.85609	-4.06184	-0.679016	-5.74864	-157.403	0.903334	-0.320096
0.6000	28.4984	164.75	-29.6156	-4.14949	-5.91049	-2.19374	-5.74864	-154.055	-0.347436	0
0.6007	41.9065	-95.3153	-38.7464	-2.64059	-6.8218	-2.50713	-4.52474	-235.202	-1.87616	0
0.6013	66.0015	-285.134	-14.0535	-2.01187	-6.1969	-2.50713	-3.93133	-255.342	-2.50154	0
0.6020	72.7303	-240.227	-24.4547	-1.42508	-4.06184	-1.3058	-2.07693	-159.529	-1.25077	0
0.6027	61.7465	-128.229	-36.6821	-2.01187	-3.15053	-1.56696	-2.07693	11.0533	-0.347436	0
0.6033	44.3308	-68.0824	2.14376	-3.56269	-3.15053	-2.82053	-3.30083	192.317	0.903334	0.320096
0.6040	23.0065	-16.8628	33.5061	-5.40691	-2.55167	-3.13392	-3.93133	249.709	2.71	0
0.6047	6.53088	17.3137	34.4589	-5.70031	-1.64036	-2.82053	-3.30083	240.835	3.33539	0
0.6053	0.692669	-65.6476	36.9203	-5.0716	-1.64036	-3.13392	-2.07693	257.946	3.33539	0
0.6060	3.46335	-282.7	36.2851	-3.85609	-2.23922	-2.82053	-1.78022	201.776	2.43205	0
0.6067	10.489	-387.934	28.3452	-4.14949	-2.23922	-3.13392	-2.07693	112.978	2.43205	0
0.6073	15.9809	-321.114	24.0577	-5.40691	-1.01546	-2.82053	-1.78022	90.0738	3.61334	0
0.6080	17.1683	-239.325	1.82616	-5.70031	0.80716	-2.19374	-0.853024	43.0973	4.86411	0
0.6087	15.3377	-102.89	-37.2379	-5.40691	1.43206	-1.56696	-0.259616	-30.4497	5.48949	0
0.6093	15.0408	40.4887	-47.3215	-3.85609	1.43206	-0.992407	1.26099	-8.50255	5.14206	0
0.6100	20.5327	176.293	-27.4719	-4.4848	-0.416599	-2.82053	0.964288	54.3631	4.51667	0
0.6107	20.5327	252.581	-11.0364	-5.40691	-2.55167	-5.2232	-0.853024	57.7642	3.33539	0
0.6113	1.92958	87.1995	-9.76601	-3.56269	-3.77542	-5.53659	-0.853024	45.8606	-0.347436	0
0.6120	-18.5042	-83.4122	-16.8325	-2.34719	-6.8218	-6.79016	-0.55632	41.5562	-5.48949	0
0.6127	-24.2929	-131.295	-13.4183	-1.13168	-6.1969	-6.79016	0.667584	18.0679	-6.74026	0
0.6133	-10.8848	-160.602	0	-0.796367	-3.15053	-4.96204	2.4849	13.4978	-3.05744	0
0.6140	8.95523	-123.089	-2.46135	-2.93398	-3.46298	-5.53659	1.26099	22.0535	2.71	0
0.6147	10.489	-16.8628	-24.4547	-3.56269	-3.46298	-6.16337	1.26099	-3.61358	8.82488	0
0.6153	0.0989528	75.9276	-28.4246	-3.85609	-1.32791	-5.53659	1.59478	-14.8795	14.0364	-0.320096
0.6160	-7.81727	-45.8091	-9.44841	-3.85609	-0.416599	-4.96204	1.89149	-44.7978	15.2177	0
0.6167	-20.978	-348.618	-1.82616	-2.93398	0.208299	-4.02186	2.7816	-148.582	16.7464	0
0.6173	-21.2748	-623.833	0.555789	-2.93398	1.43206	-2.82053	3.11539	-228.825	19.1785	0
0.6180	7.42146	-875.873	21.914	-2.93398	2.94223	-1.56696	2.7816	-193.699	6.04539	0
0.6187	40.0759	-827.358	44.2249	-3.56269	2.65582	-2.50713	2.4849	-119.248	-8.54693	-0.960289
0.6193	48.9321	-650.705	41.446	-5.0716	1.43206	-3.70847	2.18819	-107.982	-1.87616	-1.28039
0.6200	38.5421	-683.078	47.5597	-5.40691	2.34337	-2.50713	2.7816	-57.9236	3.05744	0
0.6207	44.034	-280.535	88.4499	-5.0716	2.03092	-3.13392	2.18819	50.4307	-8.89437	0
0.6213	68.129	287.749	116.557	-4.7782	-1.64036	-6.16337	1.26099	65.0445	-11.0485	0
0.6220	66.0015	429.325	113.778	-2.01187	-3.77542	-7.6781	1.26099	11.6379	3.33539	0
0.6227	33.3471	596.6	79.319	2.85016	-4.37428	-8.30488	0.964288	-20.6718	2.71	0
0.6233	-0.494764	796.428	1.19098	4.98777	-5.28559	-9.19283	-0.55632	-14.2949	-11.0485	0
0.6240	-20.6317	714.369	-80.5894	4.98777	-3.77542	-7.6781	0.037088	60.2086	-9.51975	-0.320096
0.6247	-23.6992	485.774	-106.235	2.55676	-1.92677	-7.10355	0.964288	156.022	-7.01821	-0.320096
0.6253	-19.7411	409.216	-78.4457	-0.796367	-2.55167	-9.19283	-0.259616	192.636	-17.7192	0
0.6260	-20.6317	492.808	-53.4352	-3.56269	-1.92677	-9.50622	-1.14973	171.858	-15.5651	0
0.6267	-20.6317	561.431	-34.7765	-4.14949	0.494711	-8.61827	-1.78022	123.34	2.08462	0
0.6273	-10.5879	528.157	-11.354	-2.34719	3.85354	-6.47676	-1.14973	83.9626	-0.972822	0
0.6280	3.16649	425.627	5.1609	-1.42508	6.6135	-4.96204	0.37088	74.8224	-16.8159	0
0.6287	11.3796	259.074	20.723	-2.34719	6.6135	-5.2232	0.667584	62.9188	-16.8159	0
0.6293	13.8534	2.34456	10.3218	-2.01187	4.79088	-6.16337	0.37088	50.4307	-14.0364	0
0.6300	9.25208	-106.587	-28.4246	-1.42508	1.43206	-8.93167	-1.78022	72.3779	-14.6618	0
0.6307	-3.5623	53.3838	-50.1004	-0.796367	0.208299	-9.81961	-3.30083	74.5036	-11.0485	0
0.6313	-21.5717	210.199	-70.8234	0.41914	1.71847	-7.6781	-1.48352	31.1937	-4.30821	0
0.6320	-35.2767	194.328	-103.139	0.41914	0.80716	-8.93167	-0.853024	16.2611	-0.347436	0
0.6327	-36.5136	162.586	-95.8339	0.41914	-0.10415	-10.7598	-2.37363	35.7638	-0.625385	0
0.6333	-27.6573	224.266	-41.5254	0.41914	0.208299	-11.0209	-3.93133	47.3485	-3.40488	0
0.6340	-18.5042	171.423	12.4656	-1.13168	-0.10415	-11.0209	-4.52474	73.6002	-0.972822	-0.320096
0.6347	-20.3348	-48.2438	39.3816	0.41914	1.43206	-8.93167	-3.30083	112.978	6.39283	0
0.6353	-34.6829	-185.941	12.4656	2.55676	3.85354	-7.36471	-1.78022	110.852	-1.87616	0
0.6360	-42.0055	-152.306	-33.2679	2.26336	4.47843	-8.30488	-2.37363	55.5854	-16.8159	0
0.6367	-26.7667	-33.6354	-7.62225	0.41914	3.85354	-8.93167	-3.93133	-29.2275	-12.8551	0
0.6373	3.46335	-12.8951	60.4222	-1.13168	3.25468	-9.50622	-4.52474	-68.9238	-5.21154	0
0.6380	30.9227	-265.296	87.2589	-1.13168	2.65582	-10.133	-3.93133	-25.8796	-6.74026	0
0.6387	37.3547	-424.906	76.8577	1.34125	2.94223	-9.50622	-2.70742	10.1499	-10.701	0
0.6393	24.194	-117.228	41.2078	1.63465	3.85354	-8.61827	-1.78022	-3.61358	-3.40488	0
0.6400	7.71832	240.407	-29.9332	-1.71848	3.56712	-8.93167	-2.37363	-30.4497	7.92155	-0.320096
0.6407	-0.841099	337.165	-113.54	-3.85609	3.56712	-9.50622	-3.30083	-21.3095	-3.40488	0
0.6413	-3.26544	333.468	-186.507	-2.93398	4.79088	-9.19283	-3.30083	10.1499	-14.0364	0.320096
0.6420	-19.1474	262.681	-241.451	-1.71848	7.52481	-7.10355	-1.78022	34.2227	-5.21154	0
0.6427	-41.7086	155.282	-265.508	-1.13168	10.2848	-4.64864	-0.55632	30.8749	1.52872	0
0.6433	-48.7342	41.1199	-271.622	-1.71848	9.97233	-5.2232	-0.853024	-23.1163	2.43205	0
0.6440	-40.4717	-116.326	-266.144	-2.64059	8.43612	-6.16337	-2.70742	-32.5754	4.23872	0
0.6447	-10.8848	-150.232	-159.035	-2.34719	8.12367	-6.16337	-2.37363	7.38659	4.86411	-0.320096
0.6453	19.3453	-41.3003	67.7269	-0.502969	8.43612	-6.79016	-1.14973	-5.42037	3.05744	-0.320096
0.6460	22.3633	-34.2666	227	0.41914	6.30105	-7.6781	-0.853024	-25.8796	0.555898	0
0.6467	15.3377	-164.84	220.331	-0.796367	3.56712	-9.19283	-2.07693	-47.5611	-0.347436	0.320096
0.6473	9.25208	-256.368	145.537	-2.01187	2.03092	-10.7598	-4.22803	-94.8565	0.277949	0
0.6480	5.88769	-221.651	53.6733	-1.42508	2.34337	-10.4464	-4.82144	-143.693	-2.77949	0
0.6487	-3.85916	-266.468	-15.0063	-1.13168	2.65582	-10.133	-3.30083	-232.491	-10.4231	-0.640193
0.6493	-36.2167	-481.356	-48.83	-0.796367	2.65582	-10.133	-1.78022	-220.588	-15.5651	-1.60048
0.6500	-63.3793	-734.027	-144.982	-0.20957	2.65582	-8.93167	-0.853024	-21.3095	-14.6618	-0.960289
0.6507	-56.6505	-772.442	-247.803	-2.34719	1.71847	-9.19283	-1.48352	143.48	-15.0092	0
0.6513	-28.5974	-588.755	-203.578	-4.4848	2.03092	-8.93167	-1.78022	184.718	-22.0275	-0.320096
0.6520	7.71832	-460.886	-74.1581	-3.56269	4.16599	-6.47676	-0.259616	210.013	-7.99103	0
0.6527	50.1691	48.7848	2.38195	-2.01187	5.38974	-4.64864	0.964288	173.399	34.4657	0.320096
0.6533	68.4753	867.216	40.255	-2.01187	5.9886	-3.70847	1.26099	-32.5754	34.1182	0
0.6540	47.9921	1000.31	92.1022	-3.85609	7.21236	-3.70847	0.667584	-222.395	-11.9518	0
0.6547	18.1084	603.002	215.09	-7.50261	7.52481	-4.96204	0.037088	-264.535	-40.0247	0.320096
0.6553	-11.1817	362.505	333.87	-12.1132	8.12367	-5.53659	-0.259616	-288.927	-32.3811	-0.640193
0.6560	-28.8942	287.389	236.766	-16.0531	9.06102	-4.33525	0.964288	-285.26	5.14206	-0.960289
0.6567	-17.3167	216.601	13.9741	-19.4062	7.21236	-3.70847	1.89149	-205.336	39.0518	0
0.6573	2.86963	90.536	-118.145	-20.6636	5.38974	-4.33525	0.964288	-75.9384	82.0644	0.320096
0.6580	10.1921	-14.0673	-165.149	-20.0349	4.79088	-4.96204	0.37088	94.9628	141.893	0
0.6587	6.82774	-32.3729	-141.012	-19.4062	4.47843	-4.96204	0.964288	219.791	160.168	0
0.6593	-5.39293	-144.371	-93.3726	-18.8194	4.47843	-4.33525	2.4849	250.613	156.207	-0.320096
0.6600	-18.801	-477.929	-119.018	-16.6818	4.79088	-4.02186	2.7816	183.496	132.999	0
0.6607	-24.9361	-724.559	-145.934	-13.9155	6.6135	-2.50713	2.4849	2.81647	95.4755	-0.320096
0.6613	-36.5136	-762.071	-79.3984	-16.0531	9.65988	-0.052232	4.0055	-184.24	87.8319	0
0.6620	-36.5136	-1230.26	43.5897	-15.7597	10.5712	1.1491	4.9327	-279.468	65.2485	0
0.6627	14.1502	-1788.36	149.507	-7.50261	11.1961	1.46249	4.636	-307.845	69.2788	0.320096
0.6633	66.9416	-1303.12	161.099	-6.62242	8.74857	-0.679016	3.4121	-321.874	94.2942	0
0.6640	71.8397	-187.745	112.269	-13.0353	2.03092	-4.02186	1.89149	-287.12	31.4082	0
0.6647	57.4916	815.095	106.473	-13.6221	-3.15053	-5.2232	1.26099	-202.573	-11.3264	0
0.6653	45.2709	1256.95	108.935	-5.70031	-4.37428	-5.53659	0.667584	-163.196	39.3298	0
0.6660	29.0921	981.107	46.6863	1.34125	-4.06184	-5.2232	-0.55632	-131.152	111.666	0
0.6667	12.9133	744.577	-16.1973	3.14355	-2.55167	-6.16337	-2.07693	-16.4205	116.878	0.320096
0.6673	7.42146	741.782	3.65233	6.83199	-1.01546	-7.6781	-2.07693	116.007	34.4657	0.320096
0.6680	4.35392	578.565	-3.65233	9.89172	1.43206	-6.16337	1.26099	140.77	21.6105	0
0.6687	-2.67173	202.894	-166.657	6.83199	4.79088	-2.82053	4.636	99.5329	106.177	0
0.6693	2.22644	-79.4444	-350.703	6.20328	5.70219	-2.19374	6.45331	181.954	155.304	0
0.6700	33.6439	-69.976	-427.878	15.3825	4.79088	-3.39508	7.97392	261.613	151.621	0
0.6707	51.3565	-105.054	-492.27	25.7352	3.85354	-5.2232	7.08381	132.799	125.424	0
0.6713	29.6858	-285.405	-583.817	30.9326	3.56712	-5.2232	5.22941	12.2755	-4.93359	0
0.6720	20.2358	-246.629	-600.887	36.7167	5.38974	-2.19374	5.8599	16.8457	-206.03	-0.320096
0.6727	34.8809	14.8789	-400.406	32.7768	7.52481	-0.365624	5.5632	72.6968	-285.384	0
0.6733	28.4984	124.171	-20.4848	7.41879	6.30105	-2.19374	2.7816	116.325	-241.121	0
0.6740	-6.92669	55.8185	292.345	-17.6039	2.34337	-6.16337	0.37088	95.6005	-180.111	0
0.6747	-29.1911	174.489	523.633	-28.5854	-2.55167	-8.61827	-0.853024	57.4453	-129.455	0
0.6753	-7.81727	478.109	708.313	-40.7824	-4.99918	-7.6781	-0.259616	-2.97589	-78.7291	0
0.6760	11.0827	626.448	665.597	-52.9794	-6.1969	-6.47676	1.89149	-93.9531	-18.3446	0
0.6767	-1.43482	493.439	490.127	-50.8417	-8.04556	-5.84998	3.11539	-119.886	33.2149	0
0.6773	3.76021	265.747	424.464	-44.7642	-8.33197	-4.02186	4.636	-17.6428	76.8529	-0.320096
0.6780	22.3633	59.4255	393.34	-48.7041	-5.91049	-0.992407	6.45331	100.171	88.1793	-0.320096
0.6787	12.3196	-187.474	268.843	-52.9794	-1.92677	2.08928	7.67722	98.9484	32.659	-0.320096
0.6793	-2.96858	-385.499	164.196	-49.9615	0.80716	4.23079	7.67722	22.0535	25.0154	0
0.6800	0.395811	-523.107	141.567	-50.8417	2.03092	5.74552	7.67722	41.5562	10.0757	0
0.6807	1.63272	-532.305	66.7741	-61.5298	3.56712	5.74552	6.45331	154.162	-133.068	0
0.6813	-8.46046	-202.714	-83.6066	-45.9797	5.70219	3.60401	4.0055	108.407	-206.655	0
0.6820	-22.4623	277.019	-182.219	19.6577	7.21236	2.40267	2.18819	-49.3679	-174.274	-0.960289
0.6827	-28.3005	447.901	-127.911	81.2713	7.83726	2.66383	1.89149	-84.494	-123.34	-0.960289
0.6833	-20.978	173.858	-13.4183	84.6245	6.92595	3.29061	2.7816	-92.7309	8.1995	-0.320096
0.6840	-5.98664	-50.6785	-41.843	59.3084	2.03092	1.1491	0.964288	-178.181	153.15	-0.960289
0.6847	21.7696	-113.26	-82.4156	48.0335	-2.55167	-1.56696	-1.14973	-412.533	267.595	-1.28039
0.6853	43.7371	-275.666	43.9073	45.5606	-4.99918	-1.56696	0.667584	-758.586	380.86	0
0.6860	31.5165	-228.594	136.724	44.0517	-8.95687	-2.82053	2.18819	-739.668	391.839	0
0.6867	-5.98664	-72.0501	47.5597	48.3269	-12.0032	-3.39508	0.964288	-308.749	288.997	-0.320096
0.6873	-46.3099	-157.266	-62.566	56.8774	-9.86818	-0.052232	1.26099	7.38659	66.2214	-0.320096
0.6880	-58.778	-246.629	-32.9504	56.8774	-4.99918	4.54418	3.7088	133.756	-254.254	0
0.6887	-26.1235	-243.924	119.574	49.5424	-2.23922	6.94685	4.9327	204.539	-400.733	0
0.6893	21.7696	-227.693	275.513	41.9141	0.208299	7.26024	4.3393	138.591	-302.478	-0.640193
0.6900	58.679	-131.566	210.565	31.8547	3.25468	7.26024	4.0055	-3.29474	-152.594	-0.320096
0.6907	81.2897	62.221	-60.184	26.0286	3.85354	9.08836	6.15661	-112.234	-74.7683	0.320096
0.6913	79.1622	178.727	-206.357	28.795	1.11961	9.40175	9.82832	-204.114	-69.0008	0
0.6920	47.1015	69.2546	-220.648	31.226	-3.77542	5.74552	10.4217	-133.915	-83.0373	-0.320096
0.6927	1.63272	-75.7473	-291.154	30.3039	-7.13425	3.29061	10.125	149.911	-98.3245	0
0.6933	-28.5974	-144.1	-281.706	27.8728	-9.55573	1.46249	10.4217	378.204	-112.013	0
0.6940	-35.9199	44.1859	-127.911	26.6573	-9.26932	1.77589	9.82832	438.891	-109.581	0
0.6947	-36.5136	503.809	31.9976	24.5197	-4.37428	7.57363	9.49453	392.499	-97.3516	-0.320096
0.6953	-49.6248	770.187	189.762	18.1069	-0.10415	10.6031	8.60442	328.73	-97.0737	0
0.6960	-74.6599	640.515	292.345	10.1851	1.43206	10.6031	6.45331	329.952	-99.5057	0.320096
0.6967	-92.6693	316.696	275.274	-0.20957	3.56712	12.17	5.22941	183.761	-84.566	0
0.6973	-97.8643	-18.0351	252.963	-13.3287	6.30105	12.4312	4.0055	-176.64	-62.2606	-0.320096
0.6980	-76.1936	-463.591	260.586	-17.6039	7.52481	12.4312	2.7816	-371.933	-50.1003	-0.320096
0.6987	-28.3005	-921.051	302.429	-10.8977	6.30105	13.6848	2.7816	-297.164	-44.2634	0
0.6993	34.8809	-1079.49	396.992	-6.28711	5.07729	13.9982	1.59478	-209.588	-36.6198	0
0.7000	96.8253	-1143.51	335.061	-6.62242	4.16599	12.7446	0.37088	-224.839	-28.6982	0
0.7007	122.454	-1042.52	190.715	-7.83793	4.79088	13.3714	0.667584	-250.506	-21.0546	0
0.7013	100.487	-619.594	191.35	-8.13133	7.52481	16.4008	1.89149	-223.298	-12.5077	0
0.7020	56.5515	-537.445	119.574	-6.62242	8.43612	18.229	4.3393	-133.277	-7.36565	0
0.7027	23.6002	-648.901	-45.4953	-3.85609	5.9886	17.341	7.97392	97.0884	-5.48949	0
0.7033	13.5071	-276.838	-82.4156	-2.34719	2.94223	14.5727	9.82832	381.817	-4.93359	0
0.7040	26.0246	524.55	-92.1816	-1.13168	-1.01546	10.0285	9.49453	370.87	-6.11488	0
0.7047	41.6096	1152.89	-253.599	1.63465	-5.28559	5.43212	8.90112	69.3489	-8.54693	-0.320096
0.7053	30.9227	825.735	-484.648	6.20328	-7.73311	3.29061	7.38051	-87.5231	-10.0757	-0.320096
0.7060	12.6165	157.446	-568.255	9.89172	-9.86818	3.60401	6.45331	15.9423	-11.9518	0
0.7067	4.05706	371.612	-519.425	11.694	-14.7632	3.29061	5.8599	104.422	-14.3839	0
0.7073	-3.5623	866.945	-533.796	12.3227	-19.6322	2.97722	6.15661	65.3633	-14.0364	0
0.7080	-15.1398	767.121	-700.374	11.4006	-20.856	4.54418	7.08381	174.036	-11.3264	0
0.7087	-30.428	633.752	-891.406	10.1851	-19.3198	5.43212	5.22941	413.277	-9.7977	-0.960289
0.7093	-38.3442	700.031	-853.613	14.4603	-16.5858	7.26024	1.89149	383.996	-7.36565	-0.640193
0.7100	-33.1492	454.033	-465.751	17.8135	-15.0496	8.46158	-0.853024	90.3927	-3.05744	0.320096
0.7107	-25.8267	33.5452	104.33	10.1851	-13.227	10.6031	-2.37363	-129.93	3.33539	0
0.7113	-40.818	-275.305	532.208	-2.93398	-8.04556	13.3714	0.037088	-220.269	10.6315	0
0.7120	-74.6599	-534.108	620.419	-20.3283	-2.83808	15.8263	4.636	-355.141	18.6226	0
0.7127	-89.008	-930.519	381.43	-41.0758	1.43206	20.0571	7.97392	-479.969	31.4082	0
0.7133	-59.4211	-1233.24	64.7097	-50.8417	3.56712	23.1388	7.67722	-450.05	46.6954	0
0.7140	-25.8267	-932.052	-126.958	-42.92	-1.64036	20.9972	4.636	-269.424	53.0883	0
0.7147	-38.9874	-490.824	-276.227	-30.723	-9.86818	17.6544	2.4849	-66.4793	50.0308	0
0.7153	-70.108	-282.339	-475.755	-27.6633	-14.4508	17.9678	4.9327	80.9336	51.8375	0
0.7160	-81.0918	-214.888	-616.767	-32.8606	-14.4508	18.229	10.4217	258.531	63.1639	0
0.7167	-27.6573	24.3473	-441.932	-40.7824	-11.4044	19.4825	16.2445	311.671	75.3242	0
0.7173	62.6371	552.594	-80.2718	-49.3328	-5.91049	22.8254	17.4314	35.7638	86.9286	-0.320096
0.7180	70.8997	795.797	52.4824	-42.92	-2.83808	26.1682	13.7967	-283.454	99.4363	-0.320096
0.7187	50.7628	931.962	121.718	-5.70031	-1.01546	29.5633	10.125	-316.082	116.252	0
0.7193	85.8415	797.961	376.269	46.4827	2.03092	30.1378	5.8599	-73.8127	138.21	0
0.7200	102.02	165.382	603.905	76.1159	2.94223	28.3097	0.37088	-31.672	157.458	0
0.7207	82.1803	-130.393	638.999	56.8774	-0.416599	26.795	-2.07693	-420.185	161.071	0
0.7213	60.5096	12.7147	503.227	20.5379	-5.59804	25.2803	-3.30083	-577.961	156.555	0.320096
0.7220	16.8714	329.861	268.526	13.5382	-8.64442	24.3401	-3.59754	-309.068	169.062	0
0.7227	-41.1149	390.91	147.999	23.0108	-8.33197	24.0267	-1.14973	-104.9	149.815	0
0.7233	-61.5486	-221.921	185.792	34.2857	-4.68673	23.1388	-1.48352	7.70543	61.9131	0
0.7240	-36.5136	-597.321	32.9504	47.6982	-0.10415	22.512	-6.04534	192.955	26.1967	-0.320096
0.7247	-3.26544	-473.691	-304.89	54.4464	4.16599	20.9972	-4.22803	222.82	59.2031	-0.320096
0.7253	26.9646	-590.919	-419.938	58.0929	6.6135	17.9678	1.89149	85.1849	63.7198	0
0.7260	39.4822	-760.268	-314.338	63.2902	7.52481	14.5727	3.7088	186.206	88.8047	0
0.7267	25.134	-563.415	-449.554	67.2301	8.74857	8.77497	0.964288	435.224	169.34	-0.320096
0.7273	16.8714	-136.435	-895.376	51.9734	6.6135	2.40267	-0.259616	399.566	232.226	-0.320096
0.7280	26.3214	133.009	-903.634	3.77226	2.65582	1.46249	5.5632	157.828	222.776	0
0.7287	37.9484	134.542	-234.702	-42.92	-1.01546	1.1491	12.5728	62.6	199.567	0
0.7293	29.0921	-124.532	147.999	-60.6077	-4.06184	-1.3058	14.0934	79.7114	294.765	0
0.7300	-2.32539	-389.738	-21.3582	-56.9612	-7.13425	-2.19374	13.7967	54.3631	290.526	0
0.7307	-44.1329	-337.887	23.1843	-39.2735	-9.86818	-0.992407	12.2761	22.9569	-73.2396	-0.320096
0.7313	-98.7549	-393.164	378.095	-16.0531	-3.77542	3.60401	9.49453	70.5711	-330.551	-0.320096
0.7320	-146.104	-534.469	756.508	-3.56269	2.94223	5.74552	3.7088	77.9046	-182.543	-0.320096
0.7327	-129.282	-170.612	895.059	-4.14949	2.03092	3.60401	-4.82144	-201.351	-46.4175	-0.320096
0.7333	-60.3117	341.133	374.125	-3.2693	2.65582	3.29061	-12.1649	-455.258	-84.8439	-0.320096
0.7340	-21.5717	413.724	-543.244	-1.13168	3.85354	2.08928	-17.3572	-370.392	-137.376	0
0.7347	5.88769	310.564	-1137.7	-8.42472	2.34337	-2.82053	-20.3984	-244.076	-141.615	0
0.7353	26.9646	145.182	-1299.2	-23.6814	1.43206	-4.96204	-21.919	-242.854	-56.7711	0
0.7360	23.8971	176.924	-1253.38	3.47887	-1.92677	-6.79016	-23.7363	-168.404	13.0636	0.320096
0.7367	63.2803	352.766	-878.623	81.9001	-12.6281	-12.2745	-25.294	129.132	-53.7136	0
0.7373	122.454	-239.055	-14.3711	113.336	-26.9487	-19.587	-25.5907	409.291	-96.4483	0.320096
0.7380	124.631	-293.611	974.695	83.409	-35.8014	-24.4968	-26.1841	348.551	-31.7557	0
0.7387	73.0272	877.315	1401.3	71.8407	-33.9788	-22.3553	-28.9286	234.139	-26.5441	-1.28039
0.7393	12.6165	1517.29	1162.71	64.2123	-22.991	-11.3343	-28.6319	407.484	-173.649	-0.960289
0.7400	-24.2929	1335.05	742.137	39.483	-12.3157	0.574552	-27.408	505.742	-201.444	0
0.7407	-39.878	885.521	433.039	38.5609	-5.59804	7.57363	-30.1525	260.072	8.1995	0
0.7413	-48.7342	372.244	358.881	42.5428	2.34337	11.2299	-33.1938	-54.5757	0.555898	0
0.7420	-64.2698	-253.663	458.05	55.9553	9.06102	12.4312	-37.1622	-336.86	-248.139	0.320096
0.7427	-77.7274	-914.107	427.799	140.496	13.3312	14.5727	-36.2721	-561.168	-289.623	0
0.7433	-75.3031	-1256.77	248.676	192.05	16.3775	17.0276	-30.4492	-493.732	-181.918	-0.320096
0.7440	-63.973	-1061.18	148.872	131.945	14.8413	13.6848	-29.2624	-362.155	-176.428	-0.320096
0.7447	-21.2748	-630.596	232.796	53.1889	7.83726	4.80534	-30.783	-491.553	-223.402	0
0.7453	43.7371	-415.979	372.934	-16.0531	-2.83808	-5.53659	-30.4492	-432.089	-220.066	0.320096
0.7460	57.4916	-188.647	293.854	-54.8236	-11.0919	-10.7598	-30.1525	1.91307	-179.764	0
0.7467	40.0759	290.455	41.7636	-41.7045	-15.3621	-10.7598	-30.1525	363.856	-152.941	0
0.7473	42.8466	982.911	-32.3946	-16.9752	-17.8096	-11.6477	-33.5275	488.631	-144.672	0
0.7480	25.134	1324.68	47.8773	-0.20957	-16.2734	-11.9611	-36.2721	550.008	-129.733	0.320096
0.7487	-30.7248	1017.09	-10.4012	8.3409	-13.8259	-12.9013	-34.7515	606.444	-114.168	0.320096
0.7493	-66.4468	673.429	-325.057	11.694	-12.0032	-11.9611	-32.6004	441.654	-90.6809	0
0.7500	-39.5811	498.579	-814.866	20.5379	-5.91049	-4.96204	-26.8146	272.613	-51.907	0
0.7507	1.33586	302.358	-1222.58	26.0286	-1.01546	-0.365624	-17.9506	409.929	-34.5352	0.320096
0.7513	3.16649	171.784	-1377.25	25.4418	-0.70301	-1.56696	-10.3105	549.371	-42.4567	0.320096
0.7520	-10.5879	-6.76315	-1270.14	29.0884	-1.64036	-1.56696	-0.853024	561.274	-40.928	0.320096
0.7527	5.88769	-394.337	-908.874	29.4237	1.43206	-1.88035	8.90112	507.868	-25.9882	0.320096
0.7533	33.3471	-720.32	-434.309	27.286	7.52481	-1.3058	17.1347	270.753	-19.5259	0
0.7540	27.2615	-741.331	-211.835	33.3636	9.65988	1.77589	22.9575	-113.137	-31.4777	-0.320096
0.7547	21.4728	-474.953	-316.8	32.7768	2.94223	-0.365624	25.0715	-304.179	-38.1485	0
0.7553	43.7371	-115.695	-162.687	6.49668	-5.59804	-7.36471	22.6237	-185.462	-20.4987	0
0.7560	57.7884	162.947	305.763	-22.8012	-8.04556	-10.7598	16.5412	-111.011	3.96077	0
0.7567	42.5002	450.065	322.516	-30.4296	-7.13425	-9.50622	9.49453	-70.4117	14.5923	0.320096
0.7573	9.8458	757.653	38.1113	-35.2916	-5.28559	-6.47676	5.22941	98.9484	-2.1541	-0.320096
0.7580	-22.8086	807.159	201.672	-58.1767	-1.01546	-3.13392	2.18819	179.829	-24.4595	-0.640193
0.7587	-17.3167	491.546	603.031	-100.007	2.03092	-3.70847	-4.22803	205.443	-4.58616	0.320096
0.7593	24.8371	-230.127	676.872	-128.97	3.25468	-7.10355	-10.0138	271.975	22.8613	0.320096
0.7600	29.389	-826.817	550.231	-112.497	2.65582	-10.4464	-12.7583	207.303	27.4475	0
0.7607	-40.818	-615.897	582.546	-76.7865	2.65582	-10.7598	-12.7583	106.282	32.3116	0
0.7613	-135.714	-314.351	601.761	-60.943	5.07729	-8.61827	-9.08656	141.993	19.8039	0
0.7620	-172.029	-431.579	597.473	-64.8829	3.25468	-16.2441	-7.89974	85.5037	1.80667	0
0.7627	-140.266	-213.986	783.98	-66.4338	2.34337	-26.5861	-9.71706	-249.55	14.9398	0
0.7633	-128.391	397.853	783.345	-54.1949	6.30105	-25.3847	-10.3105	-661.87	27.4475	0
0.7640	-157.978	723.476	437.882	-45.9797	3.25468	-24.758	-8.19645	-887.666	16.121	0
0.7647	-143.63	610.577	219.06	-44.4289	-3.46298	-29.6678	-0.55632	-819.964	5.14206	0
0.7653	-62.1423	73.2223	186.11	-25.8191	-6.1969	-29.6678	6.45331	-600.227	19.5259	0
0.7660	36.7115	-603.994	-81.7804	-13.3287	-9.55573	-29.3544	3.7088	-465.621	63.7198	0
0.7667	121.86	-859.731	-403.741	-38.9382	-10.7795	-27.5262	-3.30083	-416.2	101.868	-0.320096
0.7673	145.362	-749.537	-350.941	-71.0024	-8.33197	-22.9298	-10.941	-292.913	124.452	0
0.7680	79.4591	-483.43	-124.814	-71.2958	-10.467	-22.6164	-20.3984	9.83107	150.092	0
0.7687	4.35392	52.7526	-39.6992	-54.5302	-14.1383	-23.2432	-26.4808	220.375	161.419	-0.960289
0.7693	-30.428	522.115	-101.948	-45.6863	-14.7632	-22.9298	-27.408	295.145	139.113	-0.960289
0.7700	-51.4554	597.772	-149.904	-41.0758	-15.0496	-23.5566	-27.7047	555.163	75.3242	0
0.7707	-24.6392	685.062	-113.54	-37.4292	-14.7632	-22.6164	-29.2624	737.383	-21.4021	0
0.7713	34.584	742.413	-125.45	-36.8005	-11.4044	-20.2138	-30.4492	576.26	-94.0163	0
0.7720	61.7465	515.352	-76.3019	-50.5483	-7.73311	-14.9906	-28.9286	239.931	-97.977	0
0.7727	76.6884	389.647	110.761	-83.4928	-7.13425	-11.0209	-22.5124	62.3343	-65.318	0
0.7733	93.164	393.886	362.216	-83.4928	-9.26932	-11.6477	-13.055	69.03	-40.65	0
0.7740	84.0109	502.908	757.382	-29.1722	-7.73311	-7.6781	-5.74864	156.925	-30.8523	0.320096
0.7747	39.4822	718.607	1101.97	8.96961	-3.15053	-6.16337	0.667584	385.803	-25.6408	0.320096
0.7753	-20.6317	642.319	1181.61	-2.34719	0.208299	-11.9611	7.67722	416.944	-16.538	0
0.7760	-63.0824	349.069	974.06	-22.8012	3.56712	-11.6477	14.0934	182.539	-7.01821	0
0.7767	-73.4724	110.104	660.357	-42.3332	5.38974	-8.30488	17.1347	76.3635	3.61334	0
0.7773	-71.9387	-161.774	459.558	-66.4338	4.47843	-10.4464	13.7967	188.066	17.6498	0
0.7780	-76.1936	-603.092	187.619	-74.9842	3.85354	-13.1625	8.30771	329.633	25.2934	0
0.7787	-83.2193	-816.988	-199.608	-82.6126	4.79088	-12.9013	8.30771	310.13	26.8221	0
0.7793	-83.5161	-571.982	-607.001	-84.4149	8.74857	-9.81961	12.5728	179.191	31.1303	0.320096
0.7800	-66.4468	-616.529	-1120.63	-6.28711	9.97233	-7.6781	15.3173	72.1122	37.1757	0
0.7807	-37.7505	-964.154	-1459.66	124.904	5.9886	-11.0209	15.0206	-63.3971	40.5806	-0.320096
0.7813	-5.39293	-444.384	-1292.13	145.358	2.65582	-15.6174	15.3173	-94.2188	41.7618	0
0.7820	9.8458	492.447	-893.312	38.5609	0.208299	-14.9906	20.1759	84.2815	41.1365	0
0.7827	-0.197906	355.471	-541.1	-48.4107	-3.15053	-11.3343	30.2638	87.0448	37.5231	0
0.7833	26.6678	-133.73	-114.493	-60.6077	-3.77542	-9.81961	38.794	-174.196	29.6016	0
0.7840	71.8397	-54.1052	437.882	-55.117	-3.15053	-11.0209	42.1691	-281.594	26.5441	0
0.7847	36.1178	-136.165	802.004	-56.9612	-4.99918	-14.1026	40.018	-178.447	19.8039	0
0.7853	-37.4536	-380.269	652.417	-52.3926	-6.50935	-14.7294	36.0495	-150.973	-13.7585	0
0.7860	-38.9874	-105.685	505.053	-44.7642	-7.73311	-15.9307	36.0495	-188.225	-46.6954	0
0.7867	-4.50235	335.362	689.099	-55.4523	-7.42066	-15.6174	40.018	-256.883	-43.9854	0
0.7873	2.5233	485.774	609.145	-54.1949	-6.1969	-11.3343	40.9452	-418.325	-19.8734	0
0.7880	8.36151	301.456	159.908	65.0925	-6.50935	-8.93167	36.9767	-360.933	3.05744	0.320096
0.7887	-10.2911	221.471	-279.244	229.605	-4.06184	-7.10355	36.68	-82.953	7.29616	0
0.7893	-71.2955	637.72	-434.309	217.073	-1.64036	-7.6781	38.2006	54.3631	6.67078	0
0.7900	-112.509	739.347	-354.355	74.5651	1.11961	-8.93167	37.9039	81.2524	24.39	0
0.7907	-100.932	267.911	-346.415	-19.7415	7.83726	-5.2232	38.2006	83.0592	45.7226	0
0.7913	-57.8874	-192.614	-257.013	-41.7045	10.8836	-3.13392	34.8256	20.8312	66.2214	0
0.7920	-4.15602	-479.823	77.1753	-27.3699	10.2848	-1.3058	28.7432	-20.0873	94.8501	0
0.7927	62.3402	-603.363	276.783	-3.56269	11.1961	1.46249	25.9987	8.92767	109.512	0
0.7933	119.436	-497.497	350.624	14.7537	9.34743	0.26116	24.4781	55.3197	113.82	0
0.7940	108.155	-95.5858	535.86	27.8728	8.43612	2.40267	25.3682	246.627	138.21	0
0.7947	29.6858	219.667	514.184	27.286	5.70219	1.77589	23.8476	582.956	169.618	-0.320096
0.7953	-48.1405	190.631	171.501	1.00594	-1.01546	-7.6781	16.2445	665.962	183.099	0
0.7960	-91.7787	160.783	-108.696	-3.2693	-3.15053	-13.4758	10.7184	478.906	158.639	0
0.7967	-101.526	280.716	-155.383	52.3087	-1.01546	-18.9602	6.15661	333.034	113.473	0
0.7973	-73.7693	340.231	-75.4285	89.5284	2.34337	-25.3847	1.89149	171.592	37.1757	0
0.7980	-11.4785	166.824	10.3218	63.877	4.47843	-30.2945	-3.30083	-77.4263	-107.427	0
0.7987	36.4146	-97.1188	99.1686	20.2445	3.85354	-35.7789	-9.71706	-286.164	-191.368	0
0.7993	12.6165	-260.697	246.215	-7.83793	3.25468	-35.4655	-9.71706	-421.992	-149.537	-1.28039
0.8000	-36.2167	-342.125	266.064	-14.2508	5.07729	-29.6678	-6.34205	-533.375	-104.37	-1.28039
0.8007	-57.5905	-396.14	-3.65233	-12.1132	9.65988	-24.1834	-4.82144	-537.945	-88.8047	0.320096
0.8013	-62.7855	-286.307	-316.165	-12.7	13.0187	-19.587	-3.00413	-396.644	-67.4721	-0.320096
0.8020	-68.8711	86.0272	-376.031	-14.8376	11.1961	-17.4455	-3.30083	-260.869	-43.0821	-1.28039
0.8027	-79.2612	263.041	-265.191	-15.1729	13.93	-10.7598	-2.70742	-164.099	-17.7192	-0.320096
0.8033	-28.5974	123.27	-293.615	-14.2508	18.825	-4.02186	-1.14973	-11.2127	-0.347436	0.320096
0.8040	86.1384	68.8939	-396.119	-10.5623	20.0488	-1.56696	-2.07693	149.273	3.96077	0.320096
0.8047	144.125	-86.7486	-214.852	-4.4848	21.559	3.29061	-2.07693	103.837	4.86411	0.320096
0.8053	112.41	-398.936	43.034	-1.13168	18.2001	3.60401	-3.30083	-96.0788	3.05744	0.320096
0.8060	59.9159	-420.578	-48.2743	3.77226	12.7063	1.1491	-6.04534	-34.701	-4.58616	0.320096
0.8067	29.6858	-131.926	-341.175	11.4006	8.74857	0.26116	-7.56595	256.724	-17.7192	0
0.8073	15.0408	155.552	-560.632	16.2627	4.16599	-2.82053	-10.941	342.759	-30.227	-0.640193
0.8080	-0.841099	197.664	-776.676	19.3224	3.85354	-1.88035	-12.4616	211.873	-35.4385	-0.960289
0.8087	-8.1636	-74.2143	-960.404	18.1069	5.07729	-0.365624	-12.1649	12.2755	-37.5926	-0.960289
0.8093	-14.2492	-330.222	-836.224	14.4603	5.07729	-0.365624	-12.4616	-213.839	-37.2452	-0.320096
0.8100	-41.1149	-363.857	-330.218	12.0293	6.30105	2.66383	-11.5344	-183.336	-33.2844	0.320096
0.8107	-63.6761	-395.87	430.895	7.7541	5.9886	3.29061	-10.6443	107.504	-28.0728	0
0.8113	-57.5905	-491.365	881.323	4.98777	6.92595	4.54418	-6.97254	228.665	-20.7767	0
0.8120	-31.9617	-405.608	714.11	2.55676	6.30105	4.23079	-4.52474	179.829	-12.5077	0
0.8127	2.22644	-232.562	534.352	-6.62242	2.65582	0.574552	-7.26925	79.1268	-5.21154	0
0.8133	39.1853	-84.5844	526.412	-17.2686	2.34337	0.574552	-7.26925	-34.701	2.08462	0
0.8140	79.4591	160.783	444.631	-27.3699	1.11961	-0.679016	-8.19645	31.5126	5.76744	0
0.8147	81.8834	306.957	345.701	-34.6629	-1.64036	-3.70847	-10.3105	77.2669	6.04539	0
0.8153	15.3377	327.427	392.705	-38.6448	-1.32791	-4.33525	-10.3105	25.7202	9.72822	0
0.8160	-47.2005	210.83	485.204	-42.3332	-3.15053	-7.6781	-13.055	101.712	14.0364	0
0.8167	-51.4554	-43.735	405.567	-42.92	-3.77542	-9.19283	-16.1333	137.369	14.9398	0.320096
0.8173	-28.3005	-92.5199	357.055	-43.2134	-1.92677	-7.36471	-17.3572	24.1791	17.6498	0
0.8180	4.05706	23.4456	387.861	-44.1355	1.43206	-3.70847	-17.0234	-105.538	21.958	0
0.8187	51.6534	92.069	307.59	-40.1956	4.79088	0.574552	-15.7995	-126.263	25.0154	0
0.8193	79.1622	147.076	210.247	-34.3695	3.25468	-1.3058	-18.8778	-84.1752	24.39	-0.320096
0.8200	42.8466	169.62	164.434	-34.6629	2.03092	-1.88035	-22.2157	-68.2861	23.7646	-0.320096
0.8207	-22.4623	113.441	76.3019	-27.6633	2.65582	0.26116	-24.3668	49.793	25.6408	0
0.8213	-50.8617	53.0231	-107.108	9.26301	2.03092	-0.992407	-28.3352	170.954	26.1967	0.320096
0.8220	-35.9199	28.315	-155.065	34.5791	4.16599	2.08928	-28.9286	130.089	26.1967	0
0.8227	-33.1492	8.47648	-3.96992	17.1848	5.70219	3.9174	-29.2624	42.1939	26.5441	-0.320096
0.8233	-45.9636	14.8789	-17.3883	-1.71848	5.07729	2.66383	-31.3764	25.4014	26.1967	0
0.8240	-31.9617	62.221	-153.557	-2.64059	6.92595	5.11873	-30.783	53.7786	25.6408	0.320096
0.8247	-18.5042	141.575	-163.323	-2.34719	5.9886	5.11873	-30.4492	33.0005	23.7646	0
0.8253	-14.8429	142.477	-238.037	-0.502969	5.07729	5.11873	-28.6319	-57.9236	21.958	-0.320096
0.8260	18.9989	39.587	-424.543	3.77226	4.47843	6.94685	-25.294	-233.714	18.2751	-0.320096
0.8267	45.5678	10.0095	-449.236	5.28117	2.65582	6.63346	-23.7363	-346	13.0636	0.320096
0.8273	19.939	50.5883	-340.302	5.90988	4.79088	6.63346	-22.5124	-123.234	10.979	0.320096
0.8280	-23.4023	-12.8951	-273.448	6.49668	7.21236	7.26024	-22.5124	137.369	9.10283	-0.320096
0.8287	-34.3861	-155.733	-228.906	8.63429	9.65988	10.3419	-20.9918	100.755	6.04539	-1.28039
0.8293	-10.8848	-228.594	-134.58	10.4785	9.97233	12.4312	-17.6539	44.6384	4.86411	-0.960289
0.8300	16.2777	-177.645	19.532	9.89172	6.92595	10.9165	-17.9506	1.27538	2.08462	0.320096
0.8307	31.5165	-11.9933	123.544	11.694	6.92595	12.4312	-17.6539	-208.684	-1.52872	0.320096
0.8313	24.8371	156.815	167.848	12.6161	5.38974	12.4312	-17.3572	-243.757	-2.77949	0
0.8320	-1.73167	237.702	193.494	12.0293	4.47843	12.7446	-17.3572	30.8749	-1.25077	0
0.8327	-33.446	195.861	154.43	12.3227	7.52481	14.5727	-15.7995	107.504	1.18128	-0.640193
0.8333	-50.5649	37.5129	153.477	9.5564	7.21236	13.3714	-17.0234	-148.848	2.43205	-0.960289
0.8340	-47.2005	-120.023	104.965	8.96961	8.43612	15.1995	-16.43	-328.889	3.61334	-0.320096
0.8347	-34.6829	-202.985	-93.3726	10.4785	9.65988	17.9678	-14.6127	-241.951	3.33539	-0.320096
0.8353	-11.1817	-212.453	-125.132	12.0293	9.06102	17.6544	-13.6855	-146.137	-1.25077	-0.960289
0.8360	23.8971	-146.896	21.914	16.598	11.4825	22.8254	-8.78986	-190.351	-7.99103	-0.960289
0.8367	67.8321	-58.0729	74.4757	20.5379	13.6176	28.9365	-5.11814	-103.997	-13.1331	-0.640193
0.8373	90.4428	-14.428	68.0445	23.0108	14.2425	31.966	-4.82144	201.776	-15.2872	-0.320096
0.8380	72.4334	-8.56665	87.2589	22.6755	13.93	32.5927	-5.11814	424.277	-15.2872	-0.320096
0.8387	51.9997	-21.101	69.553	22.6755	13.3312	34.1075	-5.74864	473.698	-15.2872	-0.320096
0.8393	25.4309	-50.408	0	26.3639	14.2425	37.5025	-4.22803	409.929	-17.0939	0
0.8400	-13.3091	-82.4202	-52.8	26.9507	12.7063	36.5624	-4.52474	263.738	-21.68	0
0.8407	-21.5717	-73.583	-56.7699	26.9507	11.4825	35.6222	-4.52474	141.993	-22.9308	-0.320096
0.8413	2.22644	12.7147	-4.28752	28.1662	12.1074	37.5025	-3.00413	78.1703	-21.68	0
0.8420	15.3377	67.3609	18.2616	26.9507	11.4825	36.5624	-5.11814	28.1647	-22.0275	0
0.8427	12.9133	2.07403	-99.4862	26.6573	13.6176	35.9356	-5.74864	-154.055	-19.8734	0
0.8433	28.4984	-65.6476	-209.691	24.8131	13.6176	34.1075	-6.34205	-495.858	-17.0939	0
0.8440	40.6696	-100.185	-206.357	21.46	10.5712	30.1378	-9.08656	-661.232	-15.9126	0
0.8447	9.54894	-119.392	-153.795	21.1666	11.4825	29.2499	-7.89974	-536.457	-14.6618	0.320096
0.8453	-39.2843	-60.1469	-68.9972	19.6577	11.4825	28.6231	-6.67584	-398.823	-13.1331	0
0.8460	-48.1405	11.2719	23.5019	16.598	10.5712	26.795	-7.26925	-218.462	-11.3264	0
0.8467	-16.9704	33.1845	83.9241	14.125	9.06102	24.0267	-7.56595	114.2	-8.26898	0.320096
0.8473	17.1683	71.9599	67.0917	11.4006	6.6135	19.7959	-9.71706	334.841	-6.11488	0.320096
0.8480	48.3384	76.8294	-6.74887	9.89172	6.92595	18.5423	-11.2377	365.981	-4.30821	0
0.8487	54.7209	54.2855	-65.9801	9.26301	8.43612	18.8557	-11.2377	289.087	-2.1541	0
0.8493	30.9227	127.778	-11.9098	8.63429	7.21236	17.0276	-11.5344	88.8516	-0.625385	0
0.8500	10.1921	125.344	32.3152	7.7541	4.47843	13.9982	-12.4616	4.03871	0.555898	0
0.8507	-0.197906	-16.2316	-72.332	5.61648	2.94223	11.5433	-14.9094	147.147	2.43205	0
0.8513	-2.67173	-47.342	-90.673	3.14355	3.85354	10.3419	-18.5811	275.961	4.86411	-0.320096
0.8520	12.0228	-13.1656	-32.7122	2.55676	5.70219	10.6031	-21.6223	295.463	7.57411	-0.320096
0.8527	32.7534	-21.4617	-66.2183	3.14355	5.9886	10.0285	-22.2157	245.405	9.10283	0
0.8533	33.6439	-15.961	-84.2417	1.34125	4.79088	6.94685	-23.4396	127.91	9.10283	0.320096
0.8540	15.3377	-3.69719	-53.7527	-0.796367	3.25468	3.60401	-27.1113	8.92767	8.1995	0.320096
0.8547	4.35392	28.315	-41.2078	-1.71848	3.25468	2.08928	-30.1525	14.4012	8.1995	0
0.8553	10.7859	38.054	-31.7594	-3.85609	5.70219	2.40267	-31.6732	101.977	10.3536	0
0.8560	22.6602	-15.3298	-23.8195	-5.0716	6.6135	2.66383	-32.3036	55.0008	12.1603	0
0.8567	26.3214	-57.7122	-16.1973	-5.40691	5.70219	2.08928	-32.3036	-34.1165	11.8823	0
0.8573	19.6421	-51.3097	5.47849	-5.70031	4.79088	2.08928	-30.783	-37.1455	10.3536	-0.320096
0.8580	16.5746	-49.7768	13.1007	-4.7782	5.07729	2.97722	-26.8146	-98.5232	7.92155	0
0.8587	15.684	-56.1792	-17.7059	-3.85609	5.70219	3.9174	-20.1017	-150.389	5.48949	0
0.8593	4.05706	-14.6986	-40.3344	-3.56269	5.70219	2.97722	-13.9822	-79.2862	1.80667	0
0.8600	-12.4186	29.2168	-35.7293	-3.56269	4.47843	0.26116	-10.3105	54.0974	-1.52872	0
0.8607	-20.978	13.3459	-50.1004	-4.14949	3.56712	-2.82053	-7.26925	93.7406	-3.05744	0
0.8613	-12.7154	-12.2638	-54.9437	-5.70031	4.79088	-6.16337	-4.22803	-24.6574	-4.30821	-0.320096
0.8620	8.36151	-7.6649	-34.5383	-6.28711	6.92595	-6.47676	-0.55632	-74.7161	-3.96077	0
0.8627	26.3214	-16.2316	-46.1305	-4.4848	9.97233	-2.82053	2.18819	-30.4497	-3.68282	0
0.8633	35.1777	-46.4403	-74.4757	-3.2693	10.8836	-0.365624	2.18819	-50.0056	-4.30821	-0.320096
0.8640	33.0502	-51.0392	-62.8836	-3.56269	9.97233	0.574552	3.4121	-73.8127	-4.93359	0.320096
0.8647	17.1683	-32.3729	-42.1606	-2.01187	9.97233	2.66383	6.15661	-55.1603	-7.01821	0.320096
0.8653	-0.197906	-25.0687	-38.7464	-0.796367	9.65988	5.43212	5.5632	-16.4205	-9.51975	0
0.8660	-3.26544	-22.9947	-23.5019	0.712539	9.65988	7.57363	4.9327	42.7784	-10.0757	0
0.8667	5.88769	-9.82911	2.14376	1.63465	8.74857	7.57363	4.3393	80.9336	-10.4231	-0.320096
0.8673	11.6764	7.84525	15.5621	1.34125	6.6135	6.63346	1.26099	70.2523	-11.3264	-0.960289
0.8680	2.5233	13.3459	5.47849	0.125742	5.07729	8.77497	-1.48352	41.2373	-11.0485	-1.28039
0.8687	-5.98664	-2.52491	-12.545	-1.13168	5.70219	9.08836	-1.14973	12.8601	-8.89437	-0.960289
0.8693	5.29397	-24.167	-20.4848	-2.93398	9.06102	8.77497	2.4849	-30.4497	-5.48949	-0.640193
0.8700	25.134	-32.1024	-23.5019	-5.40691	11.1961	9.08836	4.636	-74.0784	-3.40488	-1.28039
0.8707	35.1777	-25.4294	-25.0105	-7.50261	9.97233	10.6031	4.636	-71.0494	-0.625385	-0.960289
0.8713	22.0665	-16.2316	-16.8325	-6.62242	8.74857	11.5433	4.9327	-44.1601	0	0.320096
0.8720	1.039	-15.961	-0.317594	-3.2693	8.12367	11.5433	7.08381	-38.102	-5.21154	0
0.8727	5.88769	-15.3298	13.9741	1.00594	9.34743	12.7446	10.125	-34.1165	-8.54693	0
0.8733	18.7021	-8.92735	10.0836	2.55676	9.97233	13.058	10.7184	-11.2127	-9.17232	0
0.8740	10.7859	-7.12385	-11.0364	1.63465	7.83726	11.2299	9.19782	13.4978	-10.701	0
0.8747	1.039	-8.0256	-21.6758	0.41914	5.70219	9.40175	9.49453	7.06774	-10.701	0
0.8753	-0.197906	-0.0901753	-15.0063	-0.502969	5.9886	8.46158	10.7184	-20.4061	-8.26898	0
0.8760	-4.15602	18.8466	0.317594	-1.42508	7.83726	8.20042	11.3489	-28.643	-4.93359	0
0.8767	-9.05418	23.7161	7.62225	-2.64059	7.52481	5.43212	11.0522	-24.6574	-3.05744	0
0.8773	-13.6555	5.41052	-0.952781	-2.64059	7.21236	3.9174	11.3489	-20.9907	-2.50154	-0.320096
0.8780	-16.9704	-7.12385	-10.4012	-2.93398	6.6135	2.97722	11.0522	-20.4061	-1.52872	-0.320096
0.8787	-14.5461	1.80351	-7.93984	-5.0716	3.85354	0.574552	35.1594	-27.4207	-0.972822	0
0.8793	-8.46046	17.3137	3.96992	-3.85609	4.79088	2.97722	88.2324	-9.99049	0.555898	0
0.8800	-2.67173	25.2491	6.35188	-4.14949	3.85354	1.77589	133.406	26.6236	0.277949	0
0.8807	-3.85916	34.447	-1.27038	-4.7782	1.71847	-0.992407	156.623	42.1939	-2.77949	0
0.8813	-7.81727	40.2182	0	-1.42508	1.11961	1.1491	159.961	32.7348	-5.48949	0
0.8820	-7.22355	28.5856	6.11368	-1.13168	-0.70301	1.77589	138.004	13.4978	-6.74026	0
0.8827	-4.79921	1.17228	0.873383	-0.502969	0.80716	3.9174	99.8409	-3.29474	-4.58616	0
0.8833	1.039	-26.6017	-12.545	-0.502969	2.03092	5.74552	89.4563	-12.1161	-2.50154	0
0.8840	4.70026	-27.2329	-14.3711	-2.93398	-0.10415	3.29061	129.14	-13.6572	-3.05744	-0.320096
0.8847	0.0989528	-5.59087	-3.65233	-2.34719	0.80716	2.97722	177.355	-11.8504	-2.77949	0
0.8853	-2.67173	5.41052	-0.952781	-3.2693	1.43206	-0.679016	191.077	-11.5316	-2.77949	0
0.8860	-1.73167	1.4428	-3.96992	-4.4848	0.208299	-4.33525	176.428	-9.99049	-2.77949	0
0.8867	-0.494764	-4.59894	-6.11368	-4.14949	0.208299	-3.70847	147.165	-8.1837	-1.52872	-0.320096
0.8873	3.46335	-9.55858	-8.25744	-4.7782	-0.70301	-3.13392	116.938	-8.50255	-2.1541	0
0.8880	4.35392	-7.6649	-7.38405	-2.64059	0.80716	0.835711	94.9453	-7.54601	-3.40488	0
0.8887	1.92958	-2.79543	-3.96992	0.125742	1.11961	5.43212	53.4438	-6.32377	-5.21154	-1.28039
0.8893	2.5233	2.97579	-0.952781	1.34125	0.494711	7.57363	57.746	-5.10153	-7.36565	-1.28039
0.8900	6.18455	11.813	1.50857	2.55676	1.43206	7.57363	150.206	-0.531409	-8.54693	0
0.8907	8.95523	13.7066	-0.635188	1.34125	1.43206	4.80534	217.336	2.49762	-8.89437	0
0.8913	8.36151	3.33649	-2.77895	1.34125	2.34337	1.1491	212.44	-1.75365	-10.0757	0
0.8920	4.05706	-5.59087	-1.82616	4.69437	5.70219	0.835711	164.226	-8.50255	-11.6044	0
0.8927	-0.197906	4.50877	1.50857	7.12539	7.83726	6.3723	93.128	-6.32377	-11.6044	0.320096
0.8933	1.039	23.4456	6.11368	6.83199	7.52481	13.6848	17.4314	1.27538	-11.0485	0
0.8940	1.039	20.6501	0.555789	6.20328	7.83726	19.1691	-54.5564	-2.65705	-11.6044	0
0.8947	-2.67173	1.4428	-10.7188	7.12539	9.65988	19.1691	-99.1362	-14.5606	-11.3264	0
0.8953	1.039	-8.92735	-8.57503	6.20328	9.34743	13.3714	-107.073	-15.1983	-10.4231	0
0.8960	7.71832	-10.7309	-1.58797	6.83199	11.1961	10.9165	-85.0799	-9.0871	-10.701	0
0.8967	9.54894	-8.29613	-0.952781	6.20328	11.7949	8.77497	-48.474	-7.86485	-8.26898	0
0.8973	10.1921	2.07403	0	1.34125	8.74857	3.29061	-23.7363	-7.54601	-4.30821	0
0.8980	10.1921	9.73893	1.50857	-1.71848	8.74857	-0.052232	-25.294	-6.32377	-3.40488	0.320096
0.8987	9.8458	6.31227	1.19098	-2.93398	9.65988	0.26116	-59.1554	-8.50255	-2.77949	0
0.8993	8.65837	2.34456	2.38195	-4.7782	8.43612	0.574552	-103.401	-10.3093	0	0
0.9000	5.29397	5.77122	3.01714	-5.40691	8.12367	-1.3058	-108.594	-9.72479	2.71	0
0.9007	3.46335	10.9112	2.69955	-6.28711	8.43612	-1.56696	-78.9974	-7.86485	4.86411	0
