MR32 ASCII
Name	TYR30_slow
Frequency	1500
Date	31-08-2015 12:06:34
"Time,s"	"RT TIB.ANT.,uV"	"RT MED. GASTRO,uV"	"RT LAT. GASTRO,uV"	"RT BICEPS FEM.,uV"	"RT VMO,uV"	"RT VLO,uV"	"RT RECTUS FEM.,uV"	"RT SOLEUS,uV"	"RT SEMITEND.,uV"	"Channel 12,uV"
0.0000	-0.230589	4.20732	-2.79563	4.33362	5.67794	5.60096	155.871	-5.71394	0.0636092	-9264.87
0.0007	1.61412	3.56004	-3.96048	0.969363	2.3243	-2.94288	140.601	-7.23491	0.0636092	-10342.1
0.0013	1.93695	4.20732	-3.64985	0.684256	2.3243	-2.94288	105.213	-6.6183	0.381655	-9527.17
0.0020	2.53648	4.20732	-3.64985	0.0570213	1.71002	-1.42397	70.7193	-6.6183	0.954139	-9863.82
0.0027	3.45884	4.53096	-3.64985	-1.16894	0.481463	-2.34164	39.8914	-11.2223	1.27218	-9844.51
0.0033	3.45884	5.71764	-3.0286	-0.85532	1.71002	-3.22767	9.98729	-13.0311	0.954139	-9789.15
0.0040	2.21365	7.22796	-1.2425	1.5966	5.3625	-4.77822	-0.69276	-8.46814	0.699702	-9815.86
0.0047	1.61412	7.5516	-1.55313	1.28298	5.97678	-8.13246	-2.22261	-6.33055	0.954139	-9814.9
0.0053	2.53648	5.394	-4.27111	-2.68	2.62314	-9.9678	-31.2031	-9.98911	0.0636092	-9810.07
0.0060	2.53648	5.394	-4.27111	-3.90596	2.3243	-7.49959	-66.3029	-10.6057	0.954139	-9788.5
0.0067	1.2913	7.22796	-1.55313	-1.76766	4.44938	-1.42397	-64.7731	-7.56377	4.32543	-9905.98
0.0073	1.01459	7.0122	-0.621252	-2.36639	4.44938	2.56315	-42.8068	-6.94716	6.1701	-9696.14
0.0080	1.93695	4.8546	-2.48501	-4.8183	2.3243	2.24671	-14.7212	-9.08475	6.1701	-9716.09
0.0087	2.21365	4.53096	-5.51361	-4.8183	0.796904	1.32904	20.9849	-8.46814	6.48814	-10545.8
0.0093	0.41506	4.8546	-9.16346	-3.59234	0.182624	1.32904	47.2232	-5.42618	7.37867	-6881.31
0.0100	0.41506	4.20732	-11.6485	-2.68	-0.730495	1.32904	58.8269	-5.71394	6.1701	-546.81
0.0107	1.93695	4.53096	-10.0953	-1.45404	-0.132817	3.48082	44.481	-7.23491	4.96152	110.07
0.0113	2.21365	5.71764	-3.64985	0.0570213	1.09574	7.11986	13.6531	-7.56377	5.27957	-286.118
0.0120	1.61412	6.36492	0.621252	0.684256	0.796904	10.5057	3.57926	-6.94716	5.85205	50.2074
0.0127	1.93695	6.36492	1.2425	0.0570213	-1.04594	10.1893	2.9731	-6.33055	7.37867	30.2532
0.0133	2.21365	6.04128	3.0286	-0.541703	-4.10073	7.11986	-8.31312	-6.94716	8.33281	-24.7818
0.0140	1.2913	6.36492	7.61033	1.5966	-4.69841	5.60096	-14.115	-7.23491	7.69672	1.93105
0.0147	-0.230589	6.68856	11.5708	3.7349	-4.10073	3.48082	16.1067	-5.71394	7.37867	0
0.0153	-0.507296	6.68856	13.1239	5.55958	-4.69841	1.64548	61.5691	-5.42618	5.85205	0
0.0160	0.0922356	5.17824	12.8133	6.1583	-6.22581	1.32904	71.0368	-5.71394	4.32543	-0.321842
0.0167	0.691767	2.37336	9.78471	5.55958	-6.54125	-0.506301	71.3254	-5.71394	4.00738	0
0.0173	0.691767	1.51032	6.98908	7.38426	-4.10073	0.126575	89.9434	-4.19296	3.11685	0
0.0180	0.41506	1.83396	10.6389	7.69788	-3.17101	-0.189863	98.8049	-2.95974	1.27218	0
0.0187	1.2913	1.83396	2.71798	5.55958	-5.01385	-3.22767	82.6116	-3.90521	-0.254437	0
0.0193	-1.42965	2.04972	-24.1512	7.38426	-1.64361	-1.42397	51.4952	-1.76762	2.22632	0
0.0200	-4.79625	2.697	-32.0721	8.92384	2.00886	1.32904	31.3474	0.369967	4.00738	0
0.0207	-2.67483	0.863039	-18.3269	5.55958	0.481463	-1.10753	30.1351	-1.76762	3.4349	0
0.0213	-0.230589	-2.1576	-11.8814	3.7349	-0.730495	-1.10753	22.1972	-2.34312	4.00738	0
0.0220	-0.230589	-3.12852	-10.7166	5.55958	-0.132817	1.32904	-9.84297	-0.822149	5.27957	0
0.0227	1.2913	-2.80488	-10.406	7.69788	-1.64361	1.04425	-62.0309	-1.15101	4.96152	0
0.0233	1.93695	-3.45216	-11.0272	8.61022	-4.69841	-0.506301	-88.5867	-2.67198	4.96152	0
0.0240	-4.47343	-4.3152	-11.6485	8.61022	-6.22581	-2.0252	-34.2628	-2.95974	5.85205	0
0.0247	-13.328	-3.12852	-11.3378	10.4349	-4.69841	-2.62644	54.5549	-3.2886	6.48814	0
0.0253	-17.617	-2.48124	-10.7166	11.9745	-4.39957	-2.94288	118.318	-5.09732	4.32543	0
0.0260	-18.8161	-4.3152	-11.6485	11.0621	-5.92697	-4.46178	152.811	-6.33055	1.59023	0.321842
0.0267	-19.1389	-3.66792	-9.78471	11.0621	-5.01385	-4.77822	140.601	-6.33055	1.59023	0
0.0273	-14.8499	-0.32364	-7.29971	13.2004	-7.13893	-4.14534	104.289	-5.71394	2.22632	0
0.0280	-8.76238	1.83396	-7.92096	12.5732	-12.9497	-2.94288	75.3088	-5.42618	3.11685	0
0.0287	-9.96145	3.02064	-8.23159	10.1498	-17.2164	-0.506301	49.9653	-7.56377	4.96152	0.321842
0.0293	-12.129	0	-7.61033	9.52256	-26.6797	1.32904	75.915	-11.2223	4.96152	0.321842
0.0300	1.61412	-4.96248	-7.06674	11.9745	-37.056	1.32904	207.741	-15.7853	3.4349	0
0.0307	7.70167	-5.50188	-6.13486	13.7992	-40.7085	0.41137	343.234	-20.0604	2.22632	0
0.0313	-29.8382	-3.66792	-4.58173	13.2004	-40.1108	-2.94288	368.577	-19.4438	2.22632	0.321842
0.0320	-77.109	-4.3152	-4.58173	12.8868	-38.268	-9.9678	334.401	-13.9765	2.22632	0.321842
0.0327	-89.9297	-7.98311	-6.44549	14.1128	-36.7406	-14.841	284.032	-5.71394	1.27218	0
0.0333	-81.7208	-11.9747	-8.85284	14.7115	-33.7024	-16.3599	190.047	4.02853	-1.14497	0
0.0340	-81.7208	-12.8377	-10.0953	14.7115	-32.7727	-18.1952	94.2154	6.16612	-2.67159	0.321842
0.0347	-90.2526	-11.0038	-9.78471	13.2004	-30.3322	-16.0751	17.6077	-2.95974	-1.78106	0
0.0353	-89.653	-7.33583	-7.06674	12.2596	-20.2712	-14.2397	-114.825	-11.5101	0.381655	0
0.0360	-53.9117	-5.28612	-4.89236	13.7992	-6.84009	-16.9611	-246.651	-14.8809	0.0636092	0.321842
0.0367	45.5644	-2.48124	-2.79563	15.0251	7.50418	-14.2397	-266.511	-16.4019	0.381655	0.321842
0.0373	155.417	0	-1.55313	14.3979	15.7389	-8.41726	-227.427	-20.677	0.381655	0
0.0380	202.734	-0.32364	-3.0286	15.6238	21.5496	-7.21479	-195.993	-26.4732	-2.67159	-0.965526
0.0387	204.855	-3.12852	-4.89236	19.3017	33.4368	-3.54411	-194.464	-27.7064	-3.88016	-0.321842
0.0393	183.826	-9.49343	-9.16346	17.4485	39.5464	-0.189863	-196.917	-28.6108	-1.78106	0.321842
0.0400	153.895	-14.1323	-12.5027	14.7115	37.1058	1.32904	-134.655	-30.1318	1.27218	0.321842
0.0407	134.064	-13.8086	-11.0272	17.4485	36.807	4.99972	-58.6826	-28.323	2.48076	0.321842
0.0413	114.511	-12.8377	-10.0953	17.1634	34.6653	4.08205	-27.5372	-28.8985	2.22632	0
0.0420	86.1481	-11.651	-9.16346	12.5732	27.0283	0.126575	23.1209	-33.1737	2.48076	0.321842
0.0427	58.6619	-6.4728	-4.27111	12.2596	23.0604	3.16438	103.366	-35.9279	3.75295	0
0.0433	38.5545	1.83396	3.64985	14.7115	26.4306	10.5057	147.009	-36.8323	4.32543	0
0.0440	3.45884	9.38555	10.6389	14.1128	26.1152	10.7905	132.981	-44.4783	2.79881	0.321842
0.0447	-30.4378	12.1904	13.1239	12.2596	20.321	8.67041	88.1249	-55.454	0.699702	0.321842
0.0453	-28.593	9.70919	10.9496	14.3979	20.0222	12.0247	46.2995	-53.933	-1.46301	0.321842
0.0460	-34.6806	7.0122	6.98908	16.8498	21.2342	12.6259	9.06361	-44.1905	-2.35354	0.321842
0.0467	-57.2783	7.87523	4.58173	15.0251	16.652	6.20219	-19.5993	-42.3407	-1.14497	0
0.0473	-84.7645	9.06191	4.89236	12.5732	12.9995	2.84794	-38.5348	-44.4783	0.0636092	0
0.0480	-146.701	4.20732	3.0286	11.6609	11.1733	1.64548	-68.1214	-41.7241	0.954139	0.321842
0.0487	-243.133	-3.12852	-2.17438	11.3472	8.4173	-0.791095	-89.5104	-34.1192	1.90828	0.321842
0.0493	-346.575	-9.81707	-6.13486	11.9745	6.27562	-0.189863	-102.615	-27.0898	3.11685	0
0.0500	-412.801	-18.6632	-10.406	11.6609	4.44938	1.93027	-130.701	-20.0604	4.32543	0
0.0507	-393.569	-26.6463	-13.1239	11.0621	2.92198	1.64548	-167.013	-2.95974	4.32543	0.321842
0.0513	-237.322	-25.3518	-10.0953	11.6609	2.92198	1.64548	-193.251	16.2374	3.4349	0.321842
0.0520	-8.76238	-15.3189	-0.931878	11.6609	2.3243	1.32904	-187.767	24.1712	2.79881	0.321842
0.0527	139.875	-1.83396	10.0953	11.0621	2.00886	0.41137	-149.001	20.5126	2.79881	0.321842
0.0533	235.662	9.38555	19.4918	12.2596	2.92198	0.41137	-126.429	11.9623	3.11685	0.321842
0.0540	326.33	11.5432	21.9768	13.2004	3.53626	-1.70877	-160.605	8.63257	2.79881	0.321842
0.0547	336.983	4.53096	16.1525	12.5732	1.71002	-5.06301	-194.464	8.01595	0.381655	0.321842
0.0553	258.583	-4.63884	9.16346	11.9745	0.796904	-4.14534	-174.951	8.63257	-1.78106	0.321842
0.0560	164.594	-14.9953	2.09672	12.5732	2.3243	0.126575	-123.052	20.2249	-1.46301	0.321842
0.0567	126.409	-27.5094	-6.44549	12.5732	2.62314	2.24671	-62.0309	36.0923	-0.254437	0.321842
0.0573	128.254	-39.6998	-14.9877	11.0621	0.182624	1.32904	7.24512	48.589	-0.254437	0.321842
0.0580	124.288	-45.849	-18.6376	10.4349	-0.730495	0.126575	57.9032	59.2769	-0.572483	0.321842
0.0587	121.244	-45.5253	-16.4632	11.3472	0.481463	0.727808	54.5549	63.2644	-1.46301	0.321842
0.0593	137.431	-41.2101	-12.1921	11.3472	1.09574	2.56315	28.2877	57.4682	-2.98963	0
0.0600	165.194	-35.4925	-7.06674	9.83618	-1.04594	4.39849	17.319	51.9598	-1.78106	0.321842
0.0607	152.696	-27.5094	-0.310626	8.2966	-1.04594	6.83506	17.9252	44.9304	0.381655	0.321842
0.0613	108.1	-18.0159	8.85284	7.69788	2.92198	7.75274	12.7295	33.0504	-2.0991	0
0.0620	106.578	-10.4644	16.7738	8.92384	7.20534	4.99972	4.50294	25.4044	-6.36092	0
0.0627	94.6799	-7.33583	18.6376	11.3472	7.20534	4.08205	2.04942	22.3625	-7.88755	0.321842
0.0633	16.5563	-5.50188	19.4918	12.2596	4.76482	6.20219	6.32144	18.7039	-7.5695	0.321842
0.0640	-46.3023	0	24.6948	10.4349	3.8351	9.58808	13.3356	20.5126	-6.67897	0.643684
0.0647	-78.0313	6.36492	30.2084	10.7485	5.67794	12.0247	2.9731	25.4044	-6.04288	0.321842
0.0653	-103.673	6.68856	29.2765	11.9745	5.67794	10.1893	-65.0906	25.6922	-6.67897	-0.321842
0.0660	-99.7067	-1.6182	22.2874	11.6609	2.00886	6.83506	-159.075	29.063	-6.36092	-0.643684
0.0667	-104.595	-7.98311	17.0844	12.2596	0.182624	7.4363	-186.843	34.8591	-4.19821	0
0.0673	-129.591	-7.65947	16.4632	11.9745	-1.04594	6.51863	-145.047	30.5839	-3.62573	0.321842
0.0680	-128.392	-7.98311	15.2207	10.7485	-2.87217	2.84794	-86.1332	25.1167	-4.51626	0
0.0687	-105.518	-10.6801	12.8133	10.7485	-2.87217	3.76561	-43.0955	30.2962	-3.88016	0
0.0693	-63.3659	-10.6801	14.0558	12.2596	-0.431656	8.35397	-15.3273	37.9011	-1.78106	0
0.0700	-3.55107	-8.63039	15.8419	12.2596	0.481463	8.35397	7.56263	36.0923	-1.14497	0.321842
0.0707	65.7179	-7.12008	16.1525	10.1498	-1.64361	4.68329	24.3332	27.542	-1.78106	0.321842
0.0713	120.921	-2.80488	18.8705	10.1498	-1.34478	5.60096	42.9511	21.7458	-1.46301	0
0.0720	110.867	0.21576	21.0449	10.4349	2.00886	6.83506	67.0534	17.7584	-0.82692	0
0.0727	74.5725	-1.6182	18.6376	8.0115	4.15054	3.16438	79.5808	15.9497	-1.46301	0
0.0733	54.419	-4.3152	14.91	8.2966	7.20534	3.16438	76.8387	17.4707	0.699702	0.321842
0.0740	25.4109	-4.3152	14.0558	11.3472	9.03158	6.51863	72.8553	18.0873	3.4349	0.321842
0.0747	7.70167	-5.50188	12.5027	9.83618	4.15054	2.56315	63.0989	15.0453	2.22632	0.321842
0.0753	12.913	-6.4728	11.8814	6.78554	-1.95906	-4.14534	39.2853	10.4413	0.0636092	0
0.0760	10.4687	0.21576	17.0844	7.69788	-1.95906	-2.94288	11.8347	3.74078	-0.254437	0.321842
0.0767	-10.8838	7.5516	21.9768	7.69788	-1.04594	0.126575	-14.7212	-1.76762	0.381655	0.321842
0.0773	-49.0232	5.17824	18.6376	4.33362	-4.10073	-2.34164	-34.5514	2.83641	0.0636092	0
0.0780	-87.2088	0.21576	14.0558	4.33362	-4.10073	-2.34164	-27.2486	16.2374	0.0636092	0
0.0787	-101.229	-2.1576	11.5708	7.09916	-1.34478	0.41137	4.18543	26.6376	-0.254437	0
0.0793	-96.0634	-4.3152	8.23159	7.38426	-2.57334	-2.34164	26.1517	28.4464	-2.35354	0
0.0800	-89.3302	-2.48124	7.92096	6.47192	-4.69841	-5.98068	32.2711	23.2668	-5.15235	0.321842
0.0807	-83.5194	0.863039	9.78471	6.47192	-4.69841	-5.06301	38.0729	16.2374	-4.19821	0.321842
0.0813	-73.4657	1.18668	9.16346	5.55958	-6.22581	-4.46178	37.7554	10.7702	-2.0991	0.321842
0.0820	-53.3122	0.5394	7.92096	4.33362	-9.28061	-5.37945	27.3929	6.16612	-1.46301	0.321842
0.0827	-32.5592	2.37336	8.23159	5.24596	-8.98177	-3.22767	22.1972	3.74078	-0.254437	0.321842
0.0833	-21.906	3.56004	9.16346	6.47192	-7.75321	-0.506301	28.2877	3.74078	0.381655	0
0.0840	-18.5394	1.51032	7.61033	5.55958	-9.57945	-1.42397	36.8606	4.35739	-2.0991	0
0.0847	-18.2165	-0.64728	5.20298	5.24596	-11.1068	-2.94288	52.7075	3.74078	-3.62573	0.321842
0.0853	-19.4617	0	5.74658	5.55958	-10.5092	-2.62644	78.051	0.369967	-4.19821	0.321842
0.0860	-24.9497	0.5394	6.36783	5.55958	-9.89489	-2.62644	91.7907	-2.05537	-5.15235	0.321842
0.0867	-30.4378	0.5394	5.51361	6.47192	-9.57945	-2.94288	91.4732	-2.95974	-6.36092	0.321842
0.0873	-30.7145	1.83396	5.51361	7.38426	-7.75321	-1.70877	82.9292	-3.57635	-7.5695	0
0.0880	-29.1926	2.04972	5.20298	5.8732	-7.45437	-1.70877	60.9629	-4.19296	-8.14198	0
0.0887	-25.8721	2.697	5.20298	4.33362	-8.05205	-2.94288	40.8151	-4.19296	-6.93341	0
0.0893	-19.7384	4.20732	6.0572	3.42128	-7.45437	-2.94288	38.9966	-5.09732	-5.15235	0
0.0900	-15.1728	5.71764	6.67846	1.91021	-7.75321	-2.62644	54.2374	-9.3725	-3.88016	0
0.0907	-11.8062	7.5516	7.61033	1.28298	-7.75321	-1.70877	69.1894	-14.2643	-2.0991	0.321842
0.0913	-8.16285	8.52251	8.85284	2.50894	-6.54125	-0.791095	74.6738	-15.4975	-1.46301	0.321842
0.0920	-7.2405	8.52251	8.85284	4.33362	-5.01385	-3.22767	74.6738	-15.7853	-2.35354	0
0.0927	-9.36192	8.19887	8.54221	4.33362	-5.01385	-7.21479	70.7193	-17.6351	-3.62573	0
0.0933	-15.1728	8.52251	9.16346	4.64724	-4.69841	-8.41726	50.5715	-19.4438	-3.88016	0.321842
0.0940	-20.9836	8.19887	9.78471	4.02	-5.01385	-7.21479	3.29061	-19.7727	-3.62573	0.321842
0.0947	-21.2603	5.71764	8.85284	0.684256	-7.13893	-7.49959	-30.9144	-20.677	-2.98963	0.643684
0.0953	-20.338	4.8546	7.92096	-0.85532	-8.66633	-8.13246	-25.1126	-22.4858	-2.0991	0
0.0960	-20.9836	5.394	9.47409	1.28298	-7.75321	-6.61356	-15.6448	-22.198	-1.46301	-0.321842
0.0967	-20.9836	3.56004	10.3283	3.10766	-7.45437	-5.98068	-20.2344	-21.9103	-2.0991	0.321842
0.0973	-21.2603	1.51032	9.47409	3.10766	-8.05205	-6.61356	-22.659	-22.8146	-3.30768	0.321842
0.0980	-22.7822	1.83396	10.0953	3.42128	-6.22581	-6.61356	-17.1747	-23.1024	-2.98963	0.321842
0.0987	-21.906	2.37336	11.2602	3.10766	-4.39957	-8.73369	-0.98141	-23.719	-2.67159	0
0.0993	-19.4617	2.04972	11.2602	1.5966	-5.31269	-9.65137	14.2593	-25.24	-2.0991	0
0.1000	-18.8161	2.697	12.1921	2.19532	-5.31269	-7.21479	12.1233	-25.5688	-1.46301	0
0.1007	-19.4617	3.88368	13.4346	2.82256	-4.69841	-7.21479	3.29061	-27.0898	-1.46301	0
0.1013	-19.4617	3.56004	13.7452	2.50894	-5.01385	-6.89835	17.319	-29.2274	-1.78106	-0.643684
0.1020	-17.9398	4.8546	15.2207	4.02	-3.48645	0.41137	74.9913	-28.323	-0.82692	0
0.1027	-15.4956	6.36492	16.7738	4.64724	-2.25789	8.03753	139.389	-27.0898	0.699702	0.643684
0.1033	-13.6509	5.394	16.1525	1.91021	-4.69841	4.68329	152.494	-28.323	0.954139	0.321842
0.1040	-6.64096	5.17824	16.4632	-0.228085	-6.84009	-2.62644	129.315	-29.2274	1.27218	0
0.1047	12.3135	5.71764	17.7057	0.969363	-5.31269	-2.94288	121.089	-29.844	1.59023	0
0.1053	31.4985	6.68856	18.0163	1.28298	-5.61153	-1.70877	124.726	-30.4195	1.59023	0.321842
0.1060	38.2317	6.68856	18.0163	-0.85532	-7.75321	-2.94288	86.8837	-30.4195	1.27218	0.321842
0.1067	40.3531	6.36492	19.1811	-0.85532	-6.84009	-1.70877	20.6673	-29.2274	1.59023	0
0.1073	46.4868	7.0122	20.113	0.969363	-5.01385	-0.189863	-14.7212	-28.323	1.59023	0
0.1080	50.4529	6.36492	19.1811	1.5966	-5.92697	-1.70877	-29.9907	-29.2274	-1.14497	0.321842
0.1087	50.1301	5.71764	18.8705	2.19532	-5.01385	-3.54411	-51.6684	-29.5152	-3.30768	0.321842
0.1093	48.931	6.36492	20.113	3.10766	-3.17101	-2.34164	-63.5607	-28.323	-2.67159	0.321842
0.1100	46.1639	6.68856	20.4236	1.5966	-3.78529	-2.34164	-60.2124	-27.9942	-0.82692	0
0.1107	34.5884	7.87523	20.7343	0.684256	-3.78529	-2.62644	-59.8949	-28.8985	-0.254437	0.321842
0.1113	6.17979	11.5432	23.4523	1.91021	-0.730495	-2.34164	-53.4869	-30.7484	-0.572483	0.321842
0.1120	-36.8481	15.8583	26.8691	2.82256	1.39458	-4.14534	-40.6708	-33.5026	-0.254437	0.321842
0.1127	-64.6111	17.045	27.1798	2.19532	2.00886	-5.06301	-44.3367	-35.9279	1.27218	0
0.1133	-71.3443	14.5638	24.3841	2.50894	2.92198	-3.54411	-49.821	-36.2568	4.00738	0
0.1140	-99.3839	10.8959	21.0449	1.91021	2.00886	-2.34164	-48.0025	-35.3113	6.80619	0.321842
0.1147	-141.213	7.22796	18.3269	-0.85532	-1.04594	-2.62644	-58.9712	-33.5026	8.33281	0.321842
0.1153	-151.589	4.53096	16.4632	-1.45404	-1.64361	-0.791095	-69.0451	-31.365	9.54139	0
0.1160	-135.125	3.88368	16.1525	-0.541703	-1.04594	1.04425	-61.4247	-30.4195	11.068	0
0.1167	-116.494	3.56004	14.91	-0.85532	-1.34478	-0.791095	-50.7447	-33.1737	10.1139	0
0.1173	-85.3641	2.697	13.4346	-0.541703	-2.25789	-2.34164	-38.5348	-37.1611	8.90529	0.321842
0.1180	-24.6269	3.02064	12.8133	0.969363	-1.95906	-1.10753	-20.523	-40.2031	8.58725	0.321842
0.1187	18.0782	3.88368	12.8133	0.969363	-1.34478	-0.506301	-12.9027	-43.5739	8.33281	0.321842
0.1193	10.4687	5.17824	13.1239	0.370639	-1.34478	-1.10753	-19.3107	-45.0949	7.69672	0
0.1200	23.5662	8.52251	15.2207	1.5966	-0.132817	0.126575	-22.0529	-43.8617	9.54139	0
0.1207	84.949	9.70919	15.2207	0.969363	-0.132817	1.04425	-20.8405	-45.3826	11.3861	0
0.1213	80.6601	7.87523	12.1921	-1.16894	-2.87217	-2.0252	-23.2652	-46.9036	9.54139	0.321842
0.1220	1.93695	11.5432	13.7452	0.0570213	-3.17101	-2.0252	-23.5827	-45.7115	7.69672	0
0.1227	-27.394	19.2026	18.8705	1.5966	-1.95906	0.126575	-19.9169	-46.6159	8.58725	0
0.1233	-47.2246	23.1942	20.4236	0.684256	-3.17101	-2.34164	-21.1292	-52.6998	8.58725	0
0.1240	-117.693	25.2439	21.9768	0.969363	-3.17101	-3.22767	-25.1126	-58.4959	7.69672	0.321842
0.1247	-167.131	24.7045	22.598	1.28298	-2.57334	-2.0252	-27.8547	-56.9749	9.22334	0.321842
0.1253	-202.549	17.6923	17.395	-0.541703	-3.78529	-3.22767	-31.2031	-51.1788	10.1139	-0.321842
0.1260	-254.109	12.5141	13.7452	-1.45404	-4.10073	-4.46178	-32.7329	-48.7534	11.068	-0.643684
0.1267	-260.842	13.3771	14.91	0.370639	-1.95906	-3.22767	-29.9907	-49.3701	11.9585	0
0.1273	-182.396	12.7298	13.1239	0.969363	-1.64361	-3.54411	-28.4609	-49.6578	10.4319	0.643684
0.1280	-78.3542	9.38555	9.16346	-0.541703	-2.57334	-4.46178	-29.0671	-42.3407	8.01476	0
0.1287	-18.5394	10.6801	11.2602	0.370639	-1.64361	-3.22767	-28.1434	-28.323	7.06063	0
0.1293	1.2913	17.045	15.5313	2.82256	-1.34478	-2.0252	-26.9311	-19.1561	6.1701	0.321842
0.1300	4.6579	19.2026	14.91	2.19532	-2.25789	-3.54411	-27.8547	-11.5101	4.64347	0
0.1307	26.6561	16.0741	13.4346	1.91021	-1.64361	-2.94288	-28.1434	2.2198	4.96152	0
0.1313	83.7038	13.7008	13.4346	3.42128	-0.431656	-1.42397	-27.8547	13.1955	8.01476	0
0.1320	109.945	10.3565	11.5708	1.28298	-1.34478	-3.54411	-28.4609	17.1829	9.54139	0
0.1327	110.867	7.87523	8.85284	-1.16894	-1.95906	-4.46178	-27.2486	22.6502	10.4319	0
0.1333	134.987	6.68856	6.67846	-0.228085	-1.04594	-2.0252	-23.8714	34.8591	12.2766	0.643684
0.1340	124.887	4.8546	3.64985	-0.541703	-1.34478	-2.0252	-22.0529	43.4095	11.068	0
0.1347	86.1481	6.04128	3.33923	-2.36639	-2.57334	-4.14534	-19.5993	36.9967	8.90529	0
0.1353	78.2158	7.87523	3.0286	-1.76766	-1.95906	-2.34164	-22.0529	27.2542	7.06063	0.321842
0.1360	76.6939	5.17824	-0.931878	-0.228085	-0.730495	-0.189863	-29.0671	26.9254	4.64347	0
0.1367	80.0605	1.18668	-5.20298	0.370639	-0.730495	-0.189863	-31.2031	26.021	1.90828	0
0.1373	136.785	-0.64728	-7.29971	3.42128	1.09574	1.93027	-28.4609	22.3625	-0.254437	0
0.1380	204.256	-3.45216	-11.3378	5.55958	1.71002	3.16438	-29.0671	21.1292	-2.0991	0.321842
0.1387	236.907	-7.33583	-15.9196	4.02	-1.04594	-0.506301	-31.5206	16.5663	-3.30768	0.321842
0.1393	293.678	-4.96248	-12.8133	2.82256	-1.64361	-2.94288	-39.7471	8.63257	-2.35354	0
0.1400	335.461	9.70919	-1.2425	2.82256	0.182624	-2.62644	-72.3934	0.0822149	1.59023	0
0.1407	305.577	23.4099	7.29971	0.684256	-0.431656	-3.86055	-110.235	-10.6057	5.85205	0
0.1413	272.003	27.4015	8.54221	-1.76766	-2.25789	-4.14534	-105.357	-15.7853	8.01476	0
0.1420	233.264	26.2148	7.61033	-1.76766	-2.25789	-2.0252	-62.0309	-13.6477	9.54139	0.321842
0.1427	168.238	22.2233	5.74658	-2.68	-3.78529	-3.22767	-20.2344	-10.8935	11.6405	0.321842
0.1433	96.2018	16.0741	1.2425	-4.50468	-6.22581	-6.61356	7.24512	-4.80957	12.5946	0
0.1440	8.0245	16.0741	1.47547	-3.59234	-4.69841	-6.61356	19.455	-0.534397	13.1671	0
0.1447	-31.9596	27.7251	9.47409	-3.59234	-1.64361	-5.69589	15.4716	-7.23491	13.8032	0
0.1453	-14.2504	35.7083	14.0558	-5.73064	-1.04594	-5.69589	5.71527	-9.70136	14.6937	0
0.1460	-55.1569	32.2561	10.6389	-4.21958	-1.34478	-2.94288	4.79159	0.369967	14.6937	0
0.1467	-111.605	24.7045	5.20298	-1.45404	-1.34478	-0.506301	15.183	7.39934	12.9127	0.321842
0.1473	-124.426	14.0244	-2.79563	-1.45404	-2.57334	-2.0252	28.2877	10.1535	10.75	0.321842
0.1480	-159.522	3.56004	-9.78471	-1.76766	-3.48645	-5.06301	34.4071	18.375	9.54139	0
0.1487	-167.777	0.863039	-10.406	-0.85532	-2.25789	-7.21479	31.3474	26.9254	10.4319	0
0.1493	-128.992	2.37336	-8.54221	-1.76766	-2.57334	-8.41726	13.3356	29.3918	12.5946	0
0.1500	-91.7744	3.34428	-8.85284	-3.90596	-3.78529	-6.89835	-26.9311	31.5294	15.0118	0.321842
0.1507	6.77932	3.88368	-8.23159	-3.90596	-3.17101	-4.46178	-65.6968	34.8591	15.9659	0.321842
0.1513	115.156	5.394	-6.13486	-3.90596	-4.39957	-4.14534	-78.5128	30.2962	15.0118	0.321842
0.1520	105.656	5.394	-5.82423	-4.50468	-7.75321	-5.37945	-77.9067	23.2668	13.1671	0
0.1527	38.2317	3.88368	-7.29971	-3.59234	-7.75321	-5.06301	-82.4673	23.8834	12.9127	0.321842
0.1533	3.45884	3.34428	-8.23159	-2.68	-5.61153	-4.77822	-80.6488	29.3918	13.8032	0.321842
0.1540	-4.79625	3.88368	-7.06674	-3.59234	-5.01385	-5.98068	-69.9688	31.8172	12.9127	0
0.1547	-12.4057	4.53096	-7.61033	-3.90596	-4.10073	-5.37945	-61.7134	32.4338	12.2766	0.321842
0.1553	-22.1827	4.8546	-9.47409	-5.41703	-2.87217	-3.86055	-46.4727	32.4338	12.2766	0
0.1560	-26.1488	6.68856	-8.54221	-6.04426	-2.25789	-2.34164	-15.9623	26.9254	10.75	-0.643684
0.1567	-27.394	8.84615	-6.75611	-5.13192	-1.64361	-2.62644	13.047	22.3625	9.22334	0
0.1573	-35.603	7.87523	-7.29971	-6.04426	-0.132817	-5.37945	19.7437	24.1712	9.54139	0.643684
0.1580	-46.9018	6.04128	-8.85284	-6.04426	1.39458	-4.46178	30.7412	22.6502	8.58725	0.321842
0.1587	-45.7028	4.8546	-10.0953	-5.73064	1.39458	-2.62644	60.9629	17.7584	5.534	0.321842
0.1593	-37.1248	3.56004	-11.0272	-6.32937	0.182624	-2.62644	70.7193	14.4287	4.00738	0
0.1600	-35.9258	1.83396	-11.3378	-5.73064	1.09574	-0.506301	54.2374	13.1955	4.32543	0.321842
0.1607	-34.0811	1.51032	-11.6485	-5.41703	2.3243	0.126575	35.0133	10.7702	4.32543	0.321842
0.1613	-26.1488	3.02064	-10.0953	-6.04426	2.3243	-0.791095	12.1233	7.11159	4.32543	0.321842
0.1620	-22.7822	4.8546	-7.92096	-4.8183	2.62314	0.126575	-14.7212	6.16612	6.1701	0.321842
0.1627	-24.9497	4.8546	-7.61033	-6.32937	2.00886	-1.42397	-22.3704	4.974	8.90529	0.643684
0.1633	-28.9159	4.20732	-7.61033	-10.0072	0.481463	-4.46178	-17.1747	0.0822149	11.068	0.321842
0.1640	-34.4039	2.697	-8.23159	-11.8319	-1.04594	-5.37945	-29.0671	-2.34312	11.068	0
0.1647	-34.4039	-0.64728	-11.3378	-11.8319	-2.25789	-7.49959	-51.957	0.698827	9.22334	0
0.1653	-23.105	-1.6182	-12.5027	-12.7443	-2.87217	-10.8855	-69.9688	2.2198	8.01476	0.321842
0.1660	-19.1389	1.83396	-10.0953	-11.2332	-2.25789	-8.73369	-83.0735	0.986579	9.54139	0.643684
0.1667	-20.6608	3.34428	-9.47409	-9.0949	-1.34478	-5.37945	-87.663	-0.246645	11.6405	0.321842
0.1673	-23.105	2.04972	-11.6485	-10.9196	-2.87217	-7.81602	-89.5104	-2.34312	11.068	0.321842
0.1680	-35.9258	2.04972	-11.3378	-13.3715	-4.10073	-8.13246	-93.4649	-4.48071	8.90529	0.321842
0.1687	-21.2603	4.20732	-8.23159	-12.4592	-2.57334	-5.69589	-78.5128	-3.57635	3.75295	0
0.1693	6.50261	6.36492	-6.44549	-10.0072	-0.730495	-4.77822	-49.2148	-2.34312	-2.35354	0.321842
0.1700	4.98072	8.52251	-5.20298	-5.41703	1.39458	0.727808	-37.0049	-3.57635	-8.14198	0.321842
0.1707	-12.129	12.1904	-2.79563	-0.85532	3.23742	7.75274	-37.3225	-7.56377	-11.8313	0
0.1713	-50.2684	14.2402	-2.48501	-2.68	1.39458	6.83506	-35.7926	-12.1267	-11.5133	0
0.1720	-91.4516	13.7008	-3.33923	-5.73064	-0.730495	3.48082	-34.8689	-15.1687	-9.09612	0.321842
0.1727	-89.3302	14.0244	-2.17438	-5.73064	-0.132817	2.84794	-35.7926	-17.3062	-7.25145	0.321842
0.1733	-28.2702	16.7214	0.621252	-8.18256	-0.132817	1.32904	-31.2031	-22.8146	-6.36092	0.321842
0.1740	32.7436	17.6923	2.09672	-10.0072	1.39458	1.04425	-21.7354	-24.9522	-7.25145	0.321842
0.1747	9.86921	11.2195	-1.2425	-9.0949	3.53626	1.93027	-19.9169	-17.3062	-8.77808	0
0.1753	-84.4417	1.51032	-8.85284	-8.18256	2.92198	0.41137	-23.2652	-8.75589	-10.3047	0.321842
0.1760	-136.001	-2.1576	-11.6485	-7.86894	2.00886	0.126575	-22.0529	-2.67198	-10.9408	0
0.1767	-106.117	-0.970919	-9.78471	-7.86894	1.09574	1.64548	-29.6732	6.16612	-10.3047	0
0.1773	-78.3542	-0.64728	-9.16346	-9.69363	-0.431656	0.727808	-43.413	12.9077	-8.77808	0.321842
0.1780	-79.5532	-2.48124	-9.47409	-11.5183	-1.34478	-0.189863	-30.9144	9.82468	-7.88755	0.321842
0.1787	-88.4078	-2.1576	-6.75611	-9.69363	-0.132817	2.24671	6.9276	3.74078	-7.5695	0
0.1793	-102.474	-1.29456	-4.58173	-6.9566	2.00886	4.68329	37.1493	5.87837	-7.88755	0
0.1800	-90.8521	-2.48124	-5.51361	-6.64298	2.00886	3.76561	42.0275	12.5789	-7.88755	0.321842
0.1807	-21.5831	-3.12852	-6.13486	-8.46767	1.09574	2.56315	28.6052	13.8121	-7.25145	0.321842
0.1813	76.3711	0.21576	-3.64985	-9.40852	1.09574	2.24671	17.319	9.24918	-6.93341	0.321842
0.1820	136.509	8.19887	2.71798	-8.18256	2.3243	3.48082	15.4716	0.0822149	-7.25145	0
0.1827	124.288	14.0244	7.92096	-6.64298	2.92198	5.60096	13.6531	-8.75589	-5.72483	0
0.1833	50.4529	11.5432	5.74658	-7.86894	1.39458	4.39849	6.9276	-10.318	-3.30768	0.321842
0.1840	-50.2684	4.20732	0	-8.18256	0.182624	-0.506301	9.69864	-6.33055	-3.62573	0
0.1847	-129.914	-5.28612	-7.06674	-9.0949	-1.34478	-7.49959	17.9252	-1.15101	-5.40679	0
0.1853	-120.46	-8.30675	-9.47409	-11.2332	-2.87217	-12.0879	-0.69276	3.12417	-4.8343	0
0.1860	-7.56332	-2.1576	-5.51361	-9.69363	-1.34478	-9.05013	-42.8068	4.64514	-2.35354	0
0.1867	21.1681	3.34428	-2.17438	-7.55533	0.182624	-3.22767	-76.0593	1.60319	0.381655	0
0.1873	-117.693	4.53096	-0.621252	-8.78129	-1.34478	-0.791095	-88.2692	-4.48071	1.27218	0.321842
0.1880	-222.703	7.0122	2.40735	-9.69363	-2.87217	1.04425	-95.2834	-10.8935	2.22632	0.321842
0.1887	-219.336	9.06191	4.89236	-9.69363	-2.57334	2.84794	-102.615	-15.7853	2.79881	0
0.1893	-143.657	8.19887	4.58173	-10.9196	-4.10073	0.727808	-90.4052	-17.3062	2.79881	0
0.1900	-40.2147	4.53096	2.40735	-10.9196	-5.01385	-1.42397	-65.9854	-13.3599	3.4349	0.321842
0.1907	-19.7384	0.863039	0.310626	-10.3209	-4.39957	-2.0252	-45.8665	-4.80957	3.75295	0.643684
0.1913	-24.6269	-0.64728	-0.931878	-11.5183	-5.01385	-4.77822	-31.5206	-1.15101	3.75295	0.321842
0.1920	90.437	-0.32364	-0.621252	-11.2332	-5.31269	-6.89835	-26.0074	-1.43876	4.96152	0.321842
0.1927	235.985	0.5394	0.310626	-10.3209	-3.78529	-5.98068	-16.251	-1.76762	7.37867	0
0.1933	281.457	-0.970919	-0.621252	-12.7443	-5.01385	-6.89835	13.9707	-3.90521	9.54139	0
0.1940	266.515	-2.80488	-1.2425	-14.5689	-7.45437	-6.89835	51.8127	-6.33055	11.068	0.321842
0.1947	226.208	-2.80488	-0.931878	-13.3715	-8.36749	-4.46178	71.3254	-9.08475	10.4319	0
0.1953	169.483	-4.63884	-1.86376	-11.8319	-9.57945	-6.61356	79.8695	-9.70136	8.01476	0
0.1960	108.423	-7.65947	-3.33923	-10.3209	-8.98177	-9.65137	77.7335	-2.67198	7.06063	0.321842
0.1967	13.8353	-10.4644	-5.82423	-9.69363	-7.13893	-7.49959	50.2828	3.12417	8.33281	0.321842
0.1973	-77.109	-12.8377	-8.85284	-13.0579	-8.66633	-6.61356	23.727	1.60319	9.54139	0
0.1980	-92.0973	-11.9747	-8.54221	-17.0209	-8.36749	-8.13246	1.76077	-0.534397	11.3861	0
0.1987	-56.0793	-4.63884	-1.2425	-17.0209	-3.48645	-7.81602	-31.5206	-2.34312	11.3861	0.321842
0.1993	-4.19672	4.20732	6.67846	-14.5689	0.182624	-4.77822	-44.9428	-7.23491	5.85205	0
0.2000	71.4826	12.1904	12.1921	-10.606	1.09574	-2.34164	-29.9907	-15.1687	-3.62573	0
0.2007	95.3255	14.8874	14.5994	-4.50468	4.76482	0.126575	-19.9169	-19.7727	-13.3579	0.321842
0.2013	48.0086	10.6801	10.6389	0.0570213	8.4173	3.16438	-29.6732	-19.1561	-19.1464	0.321842
0.2020	52.5743	8.19887	7.61033	-0.85532	7.20534	4.68329	-47.3963	-16.1141	-19.7825	0
0.2027	98.646	10.0328	10.3283	-2.68	5.97678	6.20219	-55.9404	-11.2223	-16.4112	0
0.2033	93.4808	7.5516	9.78471	-4.8183	5.67794	6.83506	-55.0167	-4.48071	-10.9408	0.321842
0.2040	67.5165	0.5394	3.33923	-9.40852	3.53626	4.08205	-51.3508	4.974	-8.77808	0.321842
0.2047	45.2416	-4.96248	-0.621252	-11.2332	1.71002	3.48082	-43.7305	17.4707	-11.5133	0.321842
0.2053	3.73554	-7.65947	-1.55313	-7.86894	1.71002	5.91739	-28.4609	26.3088	-14.5665	0.321842
0.2060	-33.4815	-9.16979	-3.33923	-7.27022	1.39458	4.68329	-14.4325	26.3088	-14.8846	0.321842
0.2067	-70.0991	-10.6801	-5.20298	-8.46767	0.796904	2.24671	-9.84297	22.6502	-13.3579	0.321842
0.2073	-138.446	-10.6801	-4.58173	-6.64298	2.3243	4.68329	-8.91929	25.4044	-11.8313	0.321842
0.2080	-194.617	-12.5141	-5.51361	-7.27022	1.39458	4.68329	-15.6448	29.3918	-10.9408	0.321842
0.2087	-206.838	-15.9662	-7.92096	-10.606	-1.34478	1.32904	-26.9311	26.3088	-10.3047	0.321842
0.2093	-202.549	-14.6717	-6.75611	-10.0072	-0.730495	1.93027	-27.2486	19.6083	-8.77808	0.321842
0.2100	-184.84	-10.1407	-4.27111	-8.78129	0.796904	3.16438	-18.9932	14.0999	-7.88755	0.643684
0.2107	-172.019	-10.1407	-4.89236	-9.40852	-0.730495	1.64548	-17.1747	10.1535	-8.46003	0.321842
0.2113	-164.687	-10.4644	-4.58173	-9.0949	-1.64361	1.04425	-18.0984	8.63257	-8.14198	0.321842
0.2120	-46.3023	-6.14916	-1.2425	-9.0949	-1.64361	0.727808	-18.387	5.26175	-7.25145	0.321842
0.2127	160.306	0.5394	3.0286	-9.69363	-2.57334	-0.791095	-19.9169	-1.15101	-7.25145	0
0.2133	256.415	5.17824	6.0572	-7.27022	-1.95906	0.126575	-18.7045	-4.80957	-6.04288	0.321842
0.2140	233.863	4.20732	5.74658	-4.8183	-0.132817	2.84794	-16.8572	-3.2886	-4.19821	0.321842
0.2147	186.224	0	2.71798	-5.73064	-1.04594	1.93027	-22.0529	-3.2886	-4.51626	0
0.2153	128.254	-1.6182	1.47547	-6.04426	-2.25789	1.04425	-21.7354	-6.6183	-5.72483	0
0.2160	81.8591	-1.6182	1.7861	-5.73064	-1.64361	1.04425	-5.2823	-8.75589	-5.72483	0
0.2167	50.4529	-5.28612	-1.2425	-6.32937	-2.57334	-0.791095	6.63895	-4.19296	-6.04288	0.321842
0.2173	16.2796	-9.16979	-5.20298	-5.73064	-3.48645	-1.42397	10.3048	2.2198	-6.67897	0.321842
0.2180	6.17979	-9.16979	-5.51361	-3.90596	-3.17101	0.727808	16.7128	4.974	-6.93341	0
0.2187	23.5662	-7.12008	-4.58173	-3.59234	-2.87217	0.727808	17.319	7.68709	-7.25145	0.321842
0.2193	28.4547	-5.28612	-2.48501	-4.21958	-2.57334	-0.506301	8.45745	10.1535	-6.93341	0.321842
0.2200	11.9906	-4.96248	-1.55313	-5.13192	-2.57334	-1.70877	-0.086595	8.63257	-6.36092	0
0.2207	-12.129	-5.82552	-2.48501	-7.27022	-3.78529	-3.86055	-5.2823	4.35739	-6.93341	0.321842
0.2213	-32.5592	-4.3152	-1.55313	-8.46767	-4.10073	-5.06301	-8.63064	1.31544	-6.93341	0.321842
0.2220	-21.2603	-1.29456	0.621252	-6.9566	-2.87217	-4.14534	-11.979	1.89094	-6.93341	0.321842
0.2227	2.81319	-0.32364	1.2425	-5.13192	-1.95906	-4.46178	-17.4633	5.26175	-7.5695	0.321842
0.2233	-22.1827	-0.64728	0.310626	-5.41703	-1.64361	-5.37945	-25.7187	5.87837	-7.5695	0.321842
0.2240	-76.8323	-2.1576	-1.86376	-6.32937	-1.95906	-5.06301	-32.7329	1.89094	-7.25145	0.321842
0.2247	-106.717	-4.3152	-4.27111	-6.64298	-3.48645	-4.46178	-41.277	-2.67198	-6.93341	0
0.2253	-112.205	-3.12852	-3.64985	-6.64298	-4.10073	-4.14534	-51.6684	-6.94716	-5.72483	0
0.2260	-96.0634	-0.64728	-2.48501	-4.8183	-3.17101	-1.70877	-53.1693	-10.6057	-3.88016	0
0.2267	-79.2765	-2.1576	-4.27111	-2.68	-1.95906	0.126575	-45.8665	-12.1267	-2.98963	0
0.2273	-107.316	-8.30675	-9.47409	-3.27873	-2.25789	-0.189863	-40.9594	-12.4145	-2.67159	0.321842
0.2280	-153.434	-13.485	-13.1239	-4.50468	-4.10073	-2.0252	-40.6708	-13.6477	-3.62573	0.321842
0.2287	-126.271	-11.3274	-11.8814	-3.59234	-4.69841	-2.62644	-37.0049	-16.6896	-4.19821	0
0.2293	4.98072	-3.66792	-6.13486	-1.76766	-4.39957	-2.34164	-28.1434	-23.1024	-4.19821	0.321842
0.2300	111.79	1.83396	-2.17438	-0.85532	-4.39957	-3.54411	-21.7354	-27.0898	-5.40679	0.321842
0.2307	87.3471	3.34428	-0.621252	-0.85532	-2.57334	-2.62644	-18.9932	-19.4438	-6.36092	0
0.2313	2.21365	2.37336	-0.310626	-1.45404	-0.730495	-0.506301	-15.6448	-3.2886	-5.40679	0
0.2320	-35.603	2.697	0.621252	-1.45404	-0.730495	-1.42397	-13.8263	1.31544	-6.36092	0
0.2327	34.5884	7.22796	5.20298	-0.228085	-1.34478	-1.42397	-13.1913	-9.70136	-7.88755	0
0.2333	171.005	11.2195	8.85284	1.28298	-0.730495	1.04425	-12.2965	-14.552	-7.5695	0.321842
0.2340	233.541	10.6801	8.23159	1.5966	-1.34478	0.126575	-14.115	-11.8389	-9.41417	0.321842
0.2347	190.19	9.06191	7.29971	3.42128	-1.34478	-0.189863	-16.5685	-8.75589	-14.8846	0.321842
0.2353	128.576	7.5516	6.98908	6.78554	1.39458	3.76561	-17.1747	0.698827	-20.355	0
0.2360	68.1621	0.5394	2.71798	7.09916	1.39458	3.76561	-19.5993	15.6619	-22.1996	0
0.2367	6.50261	-7.98311	-3.64985	4.64724	-0.730495	0.727808	-22.3704	26.021	-22.1996	0.321842
0.2373	-26.1488	-12.5141	-7.29971	2.50894	-1.64361	-0.189863	-22.659	28.1586	-20.9911	0.321842
0.2380	-25.5493	-14.1323	-8.23159	-0.85532	-2.25789	-3.54411	-24.795	24.1712	-15.7751	0
0.2387	-9.36192	-13.485	-8.85284	-0.228085	-3.48645	-9.9678	-26.0074	19.896	-5.40679	0.321842
0.2393	6.77932	-10.4644	-8.23159	3.7349	-1.95906	-16.6763	-23.8714	17.1829	7.37867	0
0.2400	28.178	-8.30675	-7.61033	0.0570213	-0.730495	-16.9611	-23.5827	14.4287	9.54139	0
0.2407	50.1301	-7.98311	-7.61033	-6.04426	-3.17101	-3.86055	-25.7187	10.7702	-11.5133	0
0.2413	62.628	-6.4728	-7.29971	-3.27873	-4.10073	11.7082	-25.4012	8.63257	-36.2573	0.321842
0.2420	70.6064	-5.82552	-7.29971	0.0570213	-2.87217	12.0247	-24.1889	10.7702	-41.4096	0.321842
0.2427	59.5842	-7.98311	-8.54221	-4.21958	-2.57334	3.76561	-23.5827	12.9077	-43.8904	0
0.2433	37.3093	-9.16979	-9.16346	-7.27022	0.481463	4.68329	-17.7808	16.5663	-61.2557	0
0.2440	30.8989	-10.1407	-10.0953	-3.59234	3.8351	9.58808	-10.1605	20.8415	-38.1019	0.321842
0.2447	15.0344	-11.0038	-11.3378	4.64724	2.62314	10.1893	-8.91929	16.2374	56.5486	0.321842
0.2453	-22.5055	-9.81707	-10.0953	14.1128	2.92198	11.3918	-9.84297	7.68709	92.2334	0
0.2460	-44.4576	-7.33583	-8.23159	15.0251	4.44938	12.0247	-11.0553	5.59061	3.11685	0
0.2467	-16.0951	-7.12008	-8.23159	8.2966	3.8351	7.75274	-13.1913	8.01595	-57.948	0.321842
0.2473	33.666	-7.65947	-8.85284	7.09916	4.76482	7.11986	-11.979	13.8121	-19.1464	0.643684
0.2480	29.9766	-6.4728	-6.75611	9.83618	5.97678	8.67041	-9.55432	17.7584	12.9127	0.321842
0.2487	-18.8161	-4.3152	-5.20298	8.92384	3.8351	4.68329	-11.6903	15.0453	9.85943	0.321842
0.2493	-48.147	-0.970919	-3.33923	4.02	2.00886	3.48082	-13.1913	8.92032	-15.5207	0.321842
0.2500	-41.4138	2.697	-0.310626	1.91021	1.09574	4.08205	-12.5851	-0.534397	-42.0457	0
0.2507	-31.0373	3.56004	0	9.83618	-1.04594	1.04425	-13.8263	-9.3725	-30.4688	0
0.2513	-34.4039	1.51032	-1.2425	16.8498	-0.132817	1.64548	-13.5088	-5.71394	-13.994	0
0.2520	-36.5253	-1.29456	-2.48501	16.2511	1.71002	2.56315	-9.84297	6.49498	30.9141	0
0.2527	-27.0712	-3.99156	-4.27111	19.5868	-1.04594	-0.506301	-8.02447	14.4287	76.0767	0.321842
0.2533	-7.56332	-4.3152	-4.27111	15.9375	-1.64361	0.727808	-7.41831	14.7165	27.5428	0
0.2540	-2.02918	-3.12852	-3.0286	1.5966	-0.132817	4.39849	-5.57095	12.9077	-25.889	0
0.2547	-11.8062	-3.45216	-3.64985	3.7349	-0.730495	4.08205	-6.49463	11.6745	12.5946	0
0.2553	-15.7723	-3.12852	-2.79563	20.8128	0.481463	4.08205	-7.41831	9.82468	58.6477	0.321842
0.2560	-17.9398	0	-1.55313	25.6881	2.62314	5.31616	-7.70696	7.11159	5.85205	0
0.2567	-19.7384	0.5394	-1.55313	18.0758	1.71002	3.48082	-10.4491	4.35739	-25.889	0
0.2573	-17.9398	0	-1.55313	3.10766	0.481463	1.04425	-13.8263	3.45303	34.2218	0.321842
0.2580	-17.617	0.5394	-1.55313	-21.2975	1.09574	-0.506301	-15.6448	3.12417	107.818	0.321842
0.2587	-17.617	0	-1.86376	-33.5	2.62314	-0.791095	-16.5685	2.50755	134.979	0.321842
0.2593	-16.6946	0	-1.55313	-27.9975	5.3625	1.32904	-12.9027	3.12417	37.0206	0
0.2600	-16.0951	1.51032	-0.310626	-25.5741	7.20534	3.76561	-6.49463	4.64514	-4.51626	0.321842
0.2607	-16.3718	0.863039	0	-18.2468	6.59106	5.60096	-0.98141	4.64514	116.659	0.321842
0.2613	-16.3718	-0.64728	-0.931878	4.33362	4.76482	6.83506	1.76077	2.50755	203.613	0
0.2620	-15.7723	-0.64728	-1.55313	27.5413	2.92198	6.20219	2.65558	1.31544	184.721	0.321842
0.2627	-17.0175	0	-1.2425	40.3426	-0.730495	4.68329	2.36693	0.369967	71.4968	0.321842
0.2633	-19.7384	0.5394	-0.310626	22.6375	-6.54125	5.31616	2.36693	0.0822149	-134.534	0
0.2640	-20.9836	1.51032	0	-53.0298	-9.89489	3.76561	1.44325	-0.246645	-301.444	0
0.2647	-20.338	2.37336	0	-149.481	-8.05205	-0.189863	-0.69276	-0.534397	-327.969	0
0.2653	-19.4617	-0.64728	-0.310626	-214.486	-5.01385	-3.54411	-2.51126	0.0822149	-255.964	0.321842
0.2660	-18.5394	-8.95403	-1.86376	-255.37	-4.10073	-5.69589	-3.43494	1.89094	-117.423	0.321842
0.2667	-17.617	-14.348	-1.55313	-261.471	-2.57334	-3.86055	-2.82877	3.12417	0.0636092	0
0.2673	-14.2504	-15.6426	-0.621252	-248.955	0.182624	-1.42397	-2.22261	2.83641	-34.4126	0
0.2680	-10.2843	-12.2983	-1.2425	-288.328	0.481463	-4.46178	-4.35862	0.369967	-77.158	0
0.2687	-9.36192	-8.95403	-1.86376	-355.471	0.481463	-8.13246	-5.57095	0.698827	12.9127	0
0.2693	-8.76238	-9.16979	-0.621252	-351.793	0.796904	-8.41726	-4.35862	4.02853	31.8046	0.321842
0.2700	-5.39578	5.17824	-0.931878	-240.117	-2.57334	-9.65137	-6.78328	3.74078	-123.529	0.321842
0.2707	-4.19672	21.3602	-1.86376	-94.2278	-5.31269	-9.65137	-10.4491	2.2198	-237.962	0
0.2713	-8.16285	14.2402	-1.2425	-49.6656	-5.61153	-5.06301	-9.2368	3.74078	-218.116	0
0.2720	-11.2066	3.88368	-0.621252	-113.472	-8.98177	-1.42397	-7.10079	3.74078	-292.284	0
0.2727	-11.8062	2.697	-0.931878	-57.9052	-11.1068	0.727808	-6.17711	0.986579	-489.41	0
0.2733	-14.2504	3.34428	-0.621252	166.702	-6.54125	6.83506	-1.61644	-1.15101	-390.879	0.321842
0.2740	-16.3718	4.53096	-0.621252	383.982	-0.730495	13.5436	3.89678	-2.95974	98.0218	0
0.2747	-17.9398	5.17824	-1.55313	513.363	-0.431656	12.9423	4.50294	-5.71394	392.533	0
0.2753	-22.1827	4.8546	-1.2425	476.755	-1.95906	9.58808	2.9731	-7.56377	217.989	-0.321842
0.2760	-25.2264	6.04128	-0.310626	349.797	1.09574	9.27164	3.89678	-8.18038	-30.7869	-0.321842
0.2767	-24.0274	6.04128	-1.2425	258.563	6.59106	12.0247	8.77496	-10.8935	-88.7349	0
0.2773	-20.9836	4.8546	-2.17438	177.08	9.03158	15.3789	15.183	-12.1267	-62.7823	0
0.2780	-17.9398	3.02064	-2.17438	85.8171	8.4173	16.5814	19.455	-6.0428	53.1773	0
0.2787	-14.5732	1.18668	-2.17438	42.4809	5.97678	12.9423	20.3787	3.45303	228.612	0
0.2793	-10.8838	0.21576	-2.17438	117.863	4.15054	9.58808	19.1375	8.63257	288.15	0
0.2800	-8.16285	0.21576	-2.17438	198.434	1.39458	6.83506	15.4716	7.11159	278.672	0.321842
0.2807	-5.71861	-0.970919	-3.0286	185.006	-2.87217	2.24671	10.5935	3.45303	228.93	0.321842
0.2813	-1.75248	-1.83396	-3.96048	140.444	-7.13893	-2.0252	7.85128	1.89094	141.085	0
0.2820	3.13601	-0.64728	-3.33923	73.3009	-7.45437	-5.37945	8.1688	3.12417	130.653	0
0.2827	8.0245	1.83396	-1.86376	-13.6566	-2.87217	-6.89835	11.8347	5.26175	147.446	0
0.2833	12.3135	3.34428	-1.86376	-70.1362	0.182624	-8.41726	16.1067	6.49498	129.127	0.321842
0.2840	13.5125	2.697	-2.17438	-76.8362	1.09574	-3.22767	17.0015	6.78273	200.56	0.321842
0.2847	11.6678	-0.32364	-2.48501	-47.8409	1.71002	9.27164	15.183	5.26175	380.002	0
0.2853	9.22356	-3.45216	-3.0286	21.44	6.8899	14.7777	13.6531	3.45303	346.161	0.321842
0.2860	8.94686	-5.28612	-3.0286	115.725	12.6841	15.3789	11.8347	1.31544	11.3861	0.321842
0.2867	6.17979	-10.6801	-2.17438	169.439	19.0925	21.1697	12.1233	0.698827	-195.853	0
0.2873	3.73554	-21.3602	-0.931878	151.734	25.5175	26.3593	12.1233	1.31544	-48.4702	0.321842
0.2880	4.6579	-17.1529	-1.2425	34.8685	22.4627	25.7581	9.06361	-0.246645	150.499	0.321842
0.2887	4.05837	9.70919	-2.48501	-153.444	17.2663	24.524	9.06361	-0.534397	-59.1566	0.321842
0.2893	2.53648	22.8705	-5.20298	-299.305	17.2663	21.7709	9.69864	-0.822149	-367.661	0.321842
0.2900	2.81319	11.5432	-6.75611	-325.25	16.0543	17.499	9.38113	-1.43876	-317.028	0.321842
0.2907	2.81319	-3.66792	-7.06674	-237.979	15.1412	15.0625	13.9707	-0.534397	-152.535	0
0.2913	2.21365	-15.6426	-14.9877	-115.896	14.2115	10.1893	19.1375	-0.246645	21.1183	0.321842
0.2920	3.45884	-23.1942	-28.1116	-24.3481	8.11846	2.56315	22.1972	-1.43876	141.976	0.321842
0.2927	3.73554	-30.53	-35.4113	-9.69363	-1.95906	-5.98068	27.9991	-0.822149	228.357	0.321842
0.2933	3.45884	-52.8612	-35.4113	-76.2375	-10.808	-15.7586	34.4071	0.986579	320.527	0.321842
0.2940	3.45884	-60.197	-23.8405	-64.6337	-18.7438	-17.594	36.5431	0.698827	83.0737	0
0.2947	3.73554	1.51032	-9.78471	129.153	-25.7666	-9.9678	36.8606	-0.534397	-289.549	0
0.2953	3.45884	57.2842	2.40735	269.54	-25.4511	-6.29712	37.1493	-0.246645	-378.984	0.321842
0.2960	1.93695	34.7373	25.9373	168.84	-22.3963	-9.9678	34.4071	-1.15101	-356.403	0
0.2967	1.01459	-3.45216	36.2656	-16.1085	-20.2712	-16.3599	29.8176	-4.19296	-267.604	0.321842
0.2973	1.93695	-17.8002	22.2874	-110.707	-12.9497	-20.0305	26.1517	-5.71394	-2.35354	0.643684
0.2980	-0.507296	-27.5094	11.2602	-106.43	-7.75321	-22.4671	22.1972	-7.23491	182.24	0.321842
0.2987	-6.31814	-43.6914	10.0953	-62.809	-8.05205	-26.1378	17.9252	-8.75589	301.253	0
0.2993	-8.43956	-27.1857	12.1921	-5.73064	-3.17101	-24.3025	14.5768	-7.56377	553.337	0
0.3000	-8.76238	59.4418	14.3664	71.7899	-3.48645	-13.322	12.7295	-6.94716	665.035	0
0.3007	-11.8062	133.663	11.5708	125.504	-13.5474	-4.14534	10.5935	-8.18038	415.686	0
0.3013	-14.2504	109.822	6.36783	134.656	-18.7438	-5.06301	7.24512	-8.18038	-145.22	0.321842
0.3020	-13.6509	44.2308	6.36783	84.5911	-18.7438	-3.22767	6.63895	-8.46814	-617.328	0.321842
0.3027	-13.9276	8.19887	8.85284	-53.0298	-21.7986	4.39849	7.85128	-11.5101	-658.801	0
0.3033	-17.617	2.37336	4.89236	-183.951	-28.5059	5.91739	6.32144	-14.2643	-506.838	0.321842
0.3040	-19.7384	10.0328	-2.79563	-246.218	-28.2071	2.56315	4.79159	-9.08475	-321.863	0.321842
0.3047	-17.0175	16.0741	-6.44549	-292.291	-18.4284	7.4363	5.42662	1.89094	-92.4242	0.321842
0.3053	-10.6071	-1.6182	-6.13486	-326.476	-12.9497	20.252	6.03279	8.01595	75.4406	0
0.3060	0.691767	-33.0113	-3.64985	-268.485	-17.5153	30.03	6.32144	10.7702	193.881	0
0.3067	14.4349	-51.0272	-0.310626	-131.149	-23.0106	36.7385	5.71527	13.5244	328.415	0
0.3073	22.0443	-69.5826	1.7861	-57.3064	-20.5701	40.694	4.50294	10.7702	458.432	0.321842
0.3080	24.4886	-106.909	0.621252	-53.6571	-14.4605	37.0549	6.03279	8.63257	524.077	0.321842
0.3087	21.1681	-156.318	-0.310626	-28.3111	-6.54125	30.9477	11.1996	11.3868	281.725	0
0.3093	15.3572	-161.173	0.931878	78.8035	-4.39957	23.0051	18.5313	7.39934	-176.961	0.321842
0.3100	14.7577	-98.0629	0.931878	244.194	6.27562	9.87287	21.8797	-2.67198	-330.768	0.321842
0.3107	19.3234	-72.0638	0	291.208	58.7717	1.32904	23.727	-5.09732	-160.741	0.643684
0.3113	24.8114	-122.983	3.0286	216.738	106.686	-0.506301	30.1351	-3.2886	-1.14497	0.643684
0.3120	25.4109	-111.764	5.74658	164.25	107.599	-4.77822	35.0133	-2.05537	23.8535	0.321842
0.3127	15.6339	44.5544	-1.55313	109.025	98.4508	-9.05013	29.8176	0.369967	-77.158	0.321842
0.3133	4.05837	174.226	-18.6376	37.9192	91.727	-9.9678	19.1375	2.50755	-112.843	0.321842
0.3140	-1.75248	173.579	-36.0326	26.0017	81.9649	-13.6068	13.047	4.974	13.4852	0.321842
0.3147	-3.55107	136.037	-48.8459	50.4069	85.3185	-19.7141	11.5171	-0.246645	141.085	0.321842
0.3153	-2.02918	119.315	-53.117	32.103	83.1934	-27.0555	8.77496	-12.1267	220.406	0.643684
0.3160	-6.31814	117.481	-40.925	-50.6064	58.7717	-36.517	5.71527	-9.70136	407.163	0.321842
0.3167	-29.1926	93.3161	-23.5299	-164.421	35.2796	-44.1431	2.9731	-1.43876	671.141	0
0.3173	-47.5013	49.7326	-12.8133	-253.545	18.7936	-46.8961	1.44325	-2.95974	777.623	0.321842
0.3180	-34.4039	28.3724	11.2602	-275.213	8.4173	-41.9913	0.837085	-4.80957	648.242	0.321842
0.3187	-11.5295	29.2355	34.7901	-200.116	-5.31269	-34.3652	-1.29893	-5.71394	549.966	0.321842
0.3193	-3.8739	25.2439	18.0163	-56.0805	-34.0012	-24.9037	-5.57095	-7.56377	717.83	0.321842
0.3200	-6.31814	16.0741	-11.0272	44.0205	-61.7767	-11.1703	-11.3728	-11.2223	406.845	0.321842
0.3207	3.45884	13.3771	-14.3664	45.8451	-77.9472	-5.69589	-13.8263	-21.2937	-325.87	0.321842
0.3213	22.9667	11.8668	-7.29971	4.33362	-84.9699	-10.8855	-11.3728	-31.6527	-262.388	0.321842
0.3220	39.4768	15.8583	0.310626	-59.7584	-75.8055	-14.841	-5.88846	-43.245	102.284	0
0.3227	66.3174	25.2439	14.5994	-136.338	-55.0528	-17.594	-0.086595	-69.5127	-26.7795	0
0.3233	89.7914	24.9203	20.7343	-162.596	-43.4645	-24.3025	2.36693	-73.1713	-229.439	0.321842
0.3240	87.0704	17.045	12.5027	-104.919	-46.2038	-28.2579	7.85128	-20.9648	-331.341	0
0.3247	73.9269	13.7008	10.9496	-7.86894	-48.9598	-27.3403	12.4408	16.2374	-265.441	0
0.3253	53.4967	18.5553	26.2479	60.4996	-41.9371	-25.2201	9.06361	-7.23491	-219.07	0.321842
0.3260	26.9328	28.5882	36.2656	44.0205	-27.8916	-20.347	7.24512	-19.4438	-472.362	0.321842
0.3267	6.50261	40.8865	34.7901	-61.8967	-15.689	-12.0879	12.1233	28.7752	-551.11	0
0.3273	-4.47343	42.0732	34.1688	-203.794	-12.6342	-12.4044	14.5768	83.6948	-378.984	0
0.3280	-18.2165	23.1942	18.8705	-288.328	-16.3033	-19.4293	10.3048	90.3953	-446.728	0
0.3287	-43.2585	1.51032	-13.4346	-189.14	-15.0748	-20.347	6.63895	69.9649	-607.214	0
0.3293	-46.9018	-6.4728	-54.9808	7.69788	-10.808	-16.3599	6.32144	51.6721	-534.318	0.321842
0.3300	-26.1488	1.18668	-102.584	84.5911	-15.9879	-13.322	9.69864	35.188	-331.659	0.321842
0.3307	-10.8838	14.0244	-152.595	36.6932	-22.3963	-8.73369	18.2427	20.5126	-15.5207	0.321842
0.3313	-6.31814	18.5553	-197.791	-11.5183	-23.326	-2.94288	26.4692	19.3205	243.305	0.321842
0.3320	-10.2843	10.0328	-215.186	4.02	-25.4511	2.24671	28.9227	27.8297	38.5472	0.321842
0.3327	-17.9398	-0.970919	-199.266	-14.2838	-19.657	8.67041	29.2114	28.7752	-104.892	0.321842
0.3333	-20.6608	8.19887	-159.351	-177.85	-7.45437	15.6637	32.2711	26.021	260.353	0.321842
0.3340	-14.8499	30.7458	-76.8799	-396.669	-3.78529	16.2966	32.2711	15.3331	542.332	0.321842
0.3347	1.61412	37.2186	44.2642	-501.645	1.39458	12.0247	27.3929	-15.7853	516.443	0.321842
0.3353	17.1558	10.6801	148.324	-453.719	11.4721	19.3344	25.2569	-34.1192	461.485	0
0.3360	20.8453	-40.6707	201.441	-281.315	14.5269	40.4092	27.0754	-11.5101	322.944	0
0.3367	23.5662	-56.2054	185.521	-10.3209	9.33042	49.2378	28.2877	3.74078	-5.40679	0.321842
0.3373	22.0443	-26.3227	111.359	259.162	3.53626	46.8012	27.6815	-13.6477	-148.273	0.321842
0.3380	8.0245	-10.1407	57.3881	397.41	3.53626	51.9908	24.6507	-2.67198	36.0664	0.321842
0.3387	-1.42965	-10.4644	67.4058	373.604	8.11846	52.9085	18.5313	27.8297	-45.417	0.321842
0.3393	-0.230589	-31.1773	93.0324	248.185	8.11846	43.447	13.047	15.0453	-248.967	0.643684
0.3400	-1.15295	-78.4287	89.072	111.163	5.67794	32.1501	10.911	0.698827	192.036	0
0.3407	-3.27436	-108.096	70.8227	13.4855	16.652	18.7331	8.77496	15.6619	671.141	0
0.3413	-1.15295	-121.796	57.9317	-10.9196	35.5784	11.7082	7.24512	22.0336	489.537	0
0.3420	0.41506	-138.626	54.2819	129.752	48.3953	10.1893	9.69864	16.2374	164.239	0
0.3427	3.45884	-115.971	54.9031	315.299	49.3084	-6.29712	9.38113	6.16612	-69.5249	0.321842
0.3433	9.22356	-38.8368	50.3214	417.539	38.019	-38.6371	1.76077	-0.246645	-195.853	0.643684
0.3440	7.70167	47.5751	43.0217	501.788	27.958	-56.0412	-6.49463	17.1829	-42.3638	0.643684
0.3447	-0.830121	98.4944	36.2656	534.746	20.9353	-36.8018	-10.7666	41.6007	68.1255	0.321842
0.3453	-6.31814	96.9841	27.1798	527.704	9.33042	4.68329	-12.2965	38.2299	-161.377	0
0.3460	-8.16285	77.4578	19.4918	485.309	0.182624	41.6116	-10.1605	22.6502	-452.198	0.321842
0.3467	-11.2066	66.454	14.0558	367.816	2.00886	60.8511	-12.2965	18.9916	-430.253	0.321842
0.3473	-16.0951	53.6163	5.74658	258.848	14.8257	66.9583	-22.3704	15.6619	-273.074	0.321842
0.3480	-20.338	42.9362	-1.2425	206.36	31.6105	73.0656	-29.0671	8.30371	-338.974	0.643684
0.3487	-26.1488	40.5629	-0.310626	175.854	39.8452	72.1479	-24.795	6.49498	-461.358	0.643684
0.3493	-30.1149	40.2392	6.36783	172.176	35.5784	57.4968	-20.8405	2.2198	-428.981	0.321842
0.3500	-27.0712	30.2064	15.2207	186.83	17.8805	53.8261	-22.0529	-15.7853	-404.3	0.321842
0.3507	-19.4617	12.5141	19.4918	175.854	1.09574	63.2876	-19.3107	-36.8323	-504.676	0.643684
0.3513	-7.2405	1.18668	14.91	134.941	95.396	60.2182	-13.5088	-59.4414	-599.008	0.321842
0.3520	6.17979	-2.48124	5.74658	90.4073	298.025	37.0549	-9.2368	-66.4707	-548.312	0.321842
0.3527	9.22356	-7.33583	-4.27111	49.8081	410.953	5.60096	-6.78328	-37.7777	-381.719	0.321842
0.3533	6.50261	-13.485	-6.75611	2.50894	373.715	-14.2397	-3.11742	-4.48071	-268.813	0.321842
0.3540	19.9229	-14.1323	0	-50.8915	268.125	-21.233	6.03279	15.6619	-286.178	0.321842
0.3547	46.1639	-11.651	2.09672	-86.3018	143.609	-25.5049	18.8489	29.9673	-318.873	0.321842
0.3553	65.0722	-9.81707	-2.79563	-104.919	17.8805	-28.8908	28.6052	34.2425	-293.239	0.643684
0.3560	66.3174	-3.66792	-9.16346	-124.763	-81.002	-28.2579	32.5597	16.2374	-234.591	0.321842
0.3567	51.652	2.697	-18.0163	-140.615	-159.729	-30.6945	35.9369	-11.5101	-172.063	0.321842
0.3573	38.2317	6.68856	-19.5694	-140.928	-248.236	-44.4279	46.0108	7.39934	-74.9953	0.643684
0.3580	34.8651	11.8668	-13.7452	-123.223	-314.76	-70.0911	55.4497	47.9724	97.4494	0.643684
0.3587	27.8552	10.8959	-15.6089	-105.832	-319.641	-94.4884	53.3137	43.4095	266.205	0.321842
0.3593	18.7238	6.04128	-21.3555	-98.1907	-286.072	-96.925	44.1635	26.6376	340.628	0.321842
0.3600	26.0104	5.17824	-21.0449	-86.3018	-254.03	-78.9197	35.9369	23.8834	319	0.643684
0.3607	32.7436	7.5516	-15.6089	-78.0622	-233.891	-61.2308	27.3929	12.5789	216.462	0.643684
0.3613	4.05837	13.3771	-6.75611	-89.0388	-217.107	-45.9785	22.1972	-0.246645	55.022	0.321842
0.3620	-43.5352	16.7214	-0.931878	-108.284	-178.656	-45.9785	24.0157	-7.23491	-41.4096	0
0.3627	-68.5772	12.1904	-3.64985	-98.818	-130.128	-75.249	30.1351	-11.2223	10.1139	0
0.3633	-75.3104	5.17824	-7.92096	-21.6111	-90.1497	-70.6923	36.2256	-6.6183	62.019	0.321842
0.3640	-75.5871	-4.96248	-12.1921	84.9048	-36.7406	-15.7586	36.8606	-12.4145	41.8549	0.321842
0.3647	-53.3122	-13.485	-13.1239	121.227	23.9901	-1.70877	35.0133	-29.2274	66.5989	0.321842
0.3653	-24.0274	-10.1407	-7.06674	82.4528	69.148	-30.4097	33.1948	-26.761	72.7054	0
0.3660	-14.2504	-3.66792	-0.310626	61.412	84.4054	-30.6945	24.0157	-19.4438	-49.6788	-0.321842
0.3667	-7.2405	-1.83396	5.74658	61.412	79.5244	-12.4044	2.36693	-27.9942	-137.841	0
0.3673	1.61412	-0.64728	8.54221	29.6796	74.3445	4.08205	-16.5685	-34.4069	-122.321	0.643684
0.3680	9.22356	-5.28612	-1.86376	-10.0072	68.5337	24.524	-17.4633	-32.2694	-99.1032	0.321842
0.3687	27.8552	-15.3189	-13.1239	-32.9013	68.2349	32.1501	-11.0553	-32.2694	-54.5767	0.321842
0.3693	52.2515	-14.348	-6.75611	-46.6149	75.2576	29.7135	-2.51126	-20.677	-6.36092	0.321842
0.3700	69.9607	-1.83396	2.40735	-39.2877	81.0518	31.5489	11.1996	2.83641	-7.5695	0
0.3707	71.8054	7.0122	-1.86376	-13.3715	77.6981	23.9227	21.591	-18.2517	-37.1478	0
0.3713	59.907	7.87523	-8.85284	32.7302	66.4087	9.87287	29.2114	-48.1368	-52.414	0.321842
0.3720	49.8534	4.20732	-12.1921	125.19	58.1574	7.4363	38.0729	-20.677	-40.201	0.321842
0.3727	37.3093	4.53096	-12.8133	193.245	62.4407	1.64548	38.6791	23.2668	-9.41417	0.321842
0.3733	8.0245	9.38555	-11.6485	175.54	73.4148	-8.41726	36.2256	66.3063	14.1213	0.321842
0.3740	-23.7046	7.22796	-12.1921	115.725	75.2576	-0.791095	39.8914	81.5572	0.954139	0.321842
0.3747	-23.105	6.04128	-7.61033	47.6698	56.63	15.3789	43.2686	48.3013	-11.1952	0.321842
0.3753	26.9328	10.8959	-0.931878	6.78554	39.5464	34.3019	39.8914	11.6745	11.6405	0.321842
0.3760	89.1918	6.68856	-1.86376	1.28298	43.2154	46.8012	26.7867	-7.23491	40.6463	0.643684
0.3767	142.919	-4.63884	-5.51361	4.64724	30.9962	45.2823	18.2427	-18.8272	52.2232	0.643684
0.3773	150.851	-9.16979	-6.44549	0.0570213	31.3117	58.6993	29.5289	-30.4195	63.2276	0
0.3780	68.1621	-5.28612	-3.64985	-83.2511	83.7911	77.0211	52.1013	-37.4489	82.7556	0
0.3787	5.90308	1.83396	2.40735	-206.531	108.827	73.6668	67.6596	-45.0949	91.5973	0.321842
0.3793	-4.47343	-0.970919	0	-227.914	69.7623	88.9191	65.2349	-58.2082	90.3887	0.321842
0.3800	-74.9876	-12.5141	-11.0272	-154.955	28.2569	144.77	50.5715	-58.4959	93.1239	0.321842
0.3807	-167.454	-14.9953	-14.9877	-54.5694	0.796904	204.292	36.2256	-52.412	101.966	0.321842
0.3813	-187.884	-8.30675	-12.5027	39.1166	-37.6537	225.937	23.727	-43.5739	109.917	0.643684
0.3820	-158.599	-3.66792	-10.406	101.983	-56.2813	202.141	18.2427	-20.677	110.235	0.321842
0.3827	-110.683	-3.45216	-11.0272	105.347	-37.3549	161.542	25.863	-0.246645	104.764	0
0.3833	-57.2783	-5.28612	-13.1239	49.2094	-31.5607	112.715	39.2853	5.26175	91.9154	0.321842
0.3840	-76.8323	-5.50188	-11.8814	0.969363	-45.2907	60.2182	63.3876	5.26175	72.3873	0.321842
0.3847	-168.976	-2.80488	-8.85284	3.42128	-52.3134	0.41137	104.895	4.974	58.0752	0.321842
0.3853	-259.92	-1.6182	-10.7166	14.1128	-55.0528	-76.7995	136.936	-5.71394	52.2232	0.321842
0.3860	-344.777	-2.80488	-13.4346	-9.69363	-56.8956	-141.48	141.525	-29.2274	56.8031	0.321842
0.3867	-378.028	-0.970919	-11.6485	-11.2332	-55.3682	-145.15	130.239	-39.5865	72.0693	0.321842
0.3873	-283.717	3.02064	-6.75611	71.7899	-61.1624	-102.115	103.366	-25.5688	87.6535	0.321842
0.3880	-76.8323	0.5394	-5.20298	147.771	-61.7767	-77.7172	59.4331	-8.75589	100.439	0.321842
0.3887	161.505	-7.65947	-10.0953	126.701	-40.7085	-67.6228	24.3332	-0.246645	105.973	0.321842
0.3893	292.756	-14.1323	-15.2983	41.2549	-23.9237	-55.1235	15.183	6.78273	104.128	0
0.3900	266.515	-12.8377	-12.1921	-48.4681	-18.4284	-57.8765	13.9707	9.82468	110.235	0.321842
0.3907	219.798	-1.83396	0	-64.3201	-9.57945	-74.0465	8.1688	-3.57635	120.031	0.321842
0.3913	167.315	6.68856	12.8133	-28.9383	0.481463	-97.2415	4.79159	-24.0479	108.072	0.321842
0.3920	47.4091	7.0122	17.7057	-35.952	9.03158	-114.329	8.45745	-22.198	84.6003	0.321842
0.3927	80.0605	6.36492	17.0844	-37.7766	11.7709	-96.925	19.455	-7.85152	74.232	0.321842
0.3933	249.728	3.02064	15.8419	4.96086	-0.730495	-39.5548	30.4237	-9.08475	75.4406	0.321842
0.3940	290.634	-6.4728	12.8133	36.9783	-17.8307	16.5814	28.6052	-10.318	77.2852	0.321842
0.3947	224.686	-11.0038	7.29971	83.0801	-15.9879	53.2249	19.1375	2.83641	73.5959	0
0.3953	44.0425	-9.49343	-1.2425	135.255	-6.22581	101.134	14.8655	18.9916	65.0723	-0.321842
0.3960	-214.125	-17.4765	-15.9196	75.4392	-6.54125	150.276	10.3048	19.3205	56.2306	0
0.3967	-372.816	-27.833	-27.1798	-77.1499	-6.84009	168.883	2.04942	4.35739	51.3327	0.321842
0.3973	-431.109	-28.6961	-27.4904	-183.352	-6.54125	162.175	-2.51126	1.31544	47.9614	0.321842
0.3980	-402.747	-25.6754	-21.3555	-226.061	-10.808	150.878	-7.70696	3.12417	38.8016	0.321842
0.3987	-273.064	-12.2983	-2.48501	-236.154	-10.808	132.271	-13.5088	-6.33055	29.6419	0.321842
0.3993	-48.7465	-0.64728	18.0163	-186.688	-10.1937	89.2356	-12.2965	-16.4019	25.6981	0
0.4000	302.81	0.5394	28.9659	-120.771	-11.1068	41.3268	-17.4633	-34.6947	22.0088	0.321842
0.4007	510.939	21.3602	50.3214	-68.9103	19.4079	15.6637	-37.0049	-59.7291	17.747	0.321842
0.4013	408.696	53.0769	76.2586	0.684256	85.3185	-8.73369	-49.5324	-57.9204	15.6479	0.321842
0.4020	317.475	49.7326	71.9875	34.8685	124.699	-58.4778	-47.3963	-38.0655	12.5946	0.321842
0.4027	290.911	21.0366	43.9536	5.24596	94.7818	-98.1591	-42.2006	-43.5739	11.068	0.321842
0.4033	107.501	1.18668	17.0844	-24.9468	23.3758	-115.532	-33.9452	-44.4783	16.8564	0
0.4040	-204.071	-15.9662	-8.85284	-29.2234	-7.13893	-132.651	-25.1126	-9.3725	23.5354	0.321842
0.4047	-426.221	-36.6792	-31.1402	-27.0851	30.3986	-119.835	-20.523	23.8834	25.3801	0.321842
0.4053	-449.141	-49.1932	-44.5748	-25.8877	66.4087	-84.4257	-11.3728	41.6007	26.3342	0.321842
0.4060	-478.749	-51.0272	-50.0884	-24.0345	33.7522	-44.7444	-4.96478	38.8465	30.596	0.321842
0.4067	-684.434	-47.3593	-47.6034	-17.3345	-62.9886	4.68329	-5.88846	15.6619	28.1153	0.321842
0.4073	-774.733	-25.0281	-22.9087	-7.55533	-146.614	23.0051	2.9731	-13.9765	19.2736	0.321842
0.4080	-341.687	18.879	24.6948	-4.21958	-189.945	-1.42397	21.591	-49.6578	15.9659	0.321842
0.4087	314.431	45.0938	52.8064	-5.73064	-239.685	-37.1182	50.2828	-75.9255	19.2736	0.321842
0.4093	606.173	41.7495	52.8064	-8.78129	-300.416	-61.2308	84.459	-84.7636	28.7514	0
0.4100	803.926	36.2477	51.2533	-19.1592	-313.847	-44.1431	84.1415	-91.7929	41.8549	0.321842
0.4107	1076.16	39.9156	48.8459	-38.689	-239.387	-27.0555	39.2853	-92.0807	55.022	0.321842
0.4113	859.175	37.758	38.7506	-52.1175	-126.16	-49.9339	-10.7666	-64.6209	58.3297	0
0.4120	233.541	12.1904	19.1811	-54.2558	-53.5254	-58.7942	-48.6087	-19.1561	54.3859	0.321842
0.4127	-50.5912	-18.0159	-0.621252	-50.8915	-45.2907	-66.1039	-76.0593	15.6619	55.9125	0.321842
0.4133	64.196	-25.9991	-7.06674	-35.3247	-62.9886	-93.2543	-79.4365	33.3381	52.8593	0.321842
0.4140	56.5404	-24.1651	-7.61033	-18.8456	-57.1945	-108.823	-60.2124	35.7635	35.7484	0.321842
0.4147	-134.48	-25.0281	-11.6485	-8.18256	-27.294	-136.005	-28.4609	23.5957	12.2766	0.321842
0.4153	-94.4954	-21.6839	-14.6771	8.92384	-5.92697	-154.01	13.9707	8.30371	-9.98665	0
0.4160	313.186	-22.9784	-21.6662	22.6375	19.0925	-92.3683	25.2569	12.9077	-23.4082	0.321842
0.4167	560.378	-32.364	-31.4509	20.2141	69.7623	-7.49959	-24.5064	39.1343	-22.1996	0.321842
0.4173	381.256	-34.1979	-30.2084	0.684256	124.085	24.8404	-98.3431	47.9724	-1.78106	0.643684
0.4180	159.383	-22.3311	-16.7738	-25.5741	150.017	54.1426	-154.803	34.8591	27.2248	0.643684
0.4187	104.78	-7.98311	-2.48501	-43.8779	137.815	74.5845	-180.435	30.2962	48.5975	0.321842
0.4193	113.311	2.04972	8.23159	-43.2792	100.576	28.7959	-172.497	21.4581	59.6019	0.321842
0.4200	121.843	12.5141	21.0449	-27.3988	66.0932	-45.9785	-139.851	-4.48071	61.3829	0.321842
0.4207	87.9928	18.5553	28.6552	-19.4728	31.6105	-99.9945	-106.887	-26.1854	57.7572	0
0.4213	-61.844	13.0535	22.598	-25.5741	4.44938	-134.771	-80.3313	-26.761	51.6507	0
0.4220	-208.36	1.51032	8.85284	-22.8085	63.0384	-135.689	-46.7613	-14.2643	44.3356	0.321842
0.4227	-227.269	-10.6801	-4.58173	-16.1085	175.966	-100.912	-16.251	-1.43876	37.0206	0.321842
0.4233	-206.838	-22.9784	-15.9196	-15.5098	203.725	-76.1667	-4.96478	20.2249	28.4333	0.321842
0.4240	-213.848	-30.8537	-23.8405	-11.5183	168.031	-91.4506	2.04942	43.7383	18.3831	0
0.4247	-258.075	-28.1567	-24.1512	-5.41703	136.586	-96.925	11.1996	45.8348	7.37867	0
0.4253	-237.645	-16.5056	-15.6089	2.50894	89.6019	-40.156	9.38113	39.1343	-6.04288	-0.321842
0.4260	-34.0811	-5.50188	-5.20298	8.92384	52.0644	40.4092	14.5768	39.4632	-22.1996	0
0.4267	86.1481	0.863039	0.621252	-8.18256	47.1833	118.221	39.2853	36.0923	-34.4126	0.321842
0.4273	-9.68474	0.5394	-0.931878	-34.1273	48.7108	244.575	49.3592	26.9254	-31.3594	0
0.4280	-88.4078	-5.82552	-9.47409	-37.463	57.5597	387.067	24.9394	16.5663	-29.8327	0
0.4287	-53.9117	-11.3274	-18.9482	-33.8136	67.9361	451.178	-7.70696	4.02853	-38.6744	0.321842
0.4293	104.457	-8.30675	-17.395	-26.1728	48.7108	446.273	-29.3846	-9.70136	-39.3105	0.321842
0.4300	190.836	0.5394	-8.54221	-7.55533	-9.28061	400.516	-35.4751	-20.3893	-32.3135	0.321842
0.4307	69.9607	-1.6182	-7.29971	3.10766	-57.8087	311.09	-20.2344	-23.719	-32.3135	0.321842
0.4313	5.25743	-7.12008	-6.13486	6.47192	-65.7446	187.173	1.44325	-6.6183	-37.7839	0
0.4320	89.1918	1.51032	7.29971	12.2596	-45.2907	37.9409	7.85128	22.9791	-35.9392	0.321842
0.4327	146.286	12.5141	18.8705	15.6238	7.20534	-82.5904	13.3356	26.9254	-25.889	0.321842
0.4333	28.178	16.3977	20.7343	15.3387	55.418	-131.417	22.8034	12.9077	-15.7751	0.321842
0.4340	-190.051	16.3977	18.8705	8.2966	72.8171	-172.301	17.6077	9.53693	-6.93341	0.321842
0.4347	-348.097	7.87523	10.3283	-7.86894	92.9555	-237.297	2.9731	12.2911	1.59023	0.321842
0.4353	-490.647	-6.79644	-1.86376	-15.7949	92.6401	-293.465	-9.55432	26.3088	-2.0991	0.321842
0.4360	-578.548	-15.3189	-9.47409	-3.90596	60.9133	-371.91	-24.1889	44.3138	-26.4614	0.321842
0.4367	-474.783	-15.6426	-12.8133	18.6745	38.3344	-439.944	-34.8689	37.6133	-54.2587	0.321842
0.4373	-262.041	-13.8086	-15.9196	40.3426	-0.431656	-404.851	-37.3225	15.0453	-70.4154	0.321842
0.4380	-102.75	-11.651	-17.0844	49.2094	-38.268	-258.688	-46.4727	18.0873	-73.7867	0
0.4387	0.41506	-10.1407	-17.395	45.8451	-23.9237	-13.0056	-60.2124	33.3381	-76.2039	0
0.4393	29.9766	-13.8086	-23.5299	43.7069	-2.87217	204.577	-51.0333	24.1712	-84.155	0.321842
0.4400	-78.9537	-22.6548	-33.5476	36.6932	-6.84009	266.852	-5.57095	7.11159	-86.8902	0.321842
0.4407	-122.581	-23.5178	-33.8582	21.44	-26.0654	277.2	29.2114	-7.23491	-79.2571	0
0.4413	56.2176	-11.9747	-20.4236	16.2511	-58.1076	326.659	3.89678	-17.0185	-79.0027	0.321842
0.4420	202.134	-0.970919	-8.85284	26.629	-81.5996	407.509	-44.6253	-9.08475	-95.4775	0.321842
0.4427	129.499	7.5516	-1.55313	31.5043	-84.3556	471.619	-55.9404	-0.534397	-114.369	0
0.4433	77.6163	18.5553	9.16346	33.6426	-83.7413	445.988	-16.251	3.74078	-138.795	0.321842
0.4440	214.309	23.1942	14.91	47.3562	-133.481	400.516	30.4237	17.7584	-167.483	0.321842
0.4447	301.611	16.0741	10.3283	51.0341	-192.386	426.147	51.1777	27.2542	-172.063	0
0.4453	275.646	7.0122	3.33923	40.9698	-160.958	464.911	84.1415	24.1712	-149.482	0
0.4460	271.68	-1.29456	-3.96048	46.1588	-108.163	446.589	127.179	18.7039	-135.106	0.321842
0.4467	276.292	-16.5056	-18.6376	58.9601	-90.4652	375.169	130.528	23.2668	-139.113	0.321842
0.4473	207.3	-38.5131	-39.9931	57.449	-100.526	286.978	121.984	58.0437	-141.849	0.321842
0.4480	-48.4237	-58.9024	-61.3486	57.449	-118.838	178.629	156.477	94.6705	-149.8	0.321842
0.4487	-364.285	-71.2008	-76.3363	74.5269	-65.1303	-11.4867	211.407	90.1075	-166.275	0.321842
0.4493	-566.603	-74.8687	-82.7041	82.7665	26.4306	-220.209	242.235	68.4439	-159.532	0.321842
0.4500	-742.727	-67.7486	-77.8118	56.223	85.3185	-290.111	228.178	47.3969	-115.006	0.321842
0.4507	-919.082	-51.8902	-61.9699	11.6609	159.182	-240.05	149.145	21.4581	-54.5767	0
0.4513	-835.793	-28.4803	-37.2751	-27.7124	254.395	-229.987	29.8176	-2.95974	1.59023	0
0.4520	-368.85	17.045	8.85284	-61.583	292.53	-320.932	-67.5153	-28.6108	44.0176	0.321842
0.4527	49.2077	65.9146	57.3881	-82.6239	271.794	-421.939	-113.007	-53.6452	61.1285	0.321842
0.4533	340.073	77.4578	65.9303	-74.3843	207.693	-443.615	-100.797	-66.7585	52.2232	0
0.4540	627.848	63.757	43.9536	-53.6571	76.1707	-402.731	-59.8949	-78.0631	30.9141	0.321842
0.4547	340.349	37.758	10.6389	-45.4175	-46.2038	-346.247	-31.5206	-90.272	10.1139	0.321842
0.4553	-397.259	-8.63039	-32.3827	-41.426	-87.4104	-261.41	-16.5685	-92.4096	0.954139	0
0.4560	-690.845	-51.6745	-56.7669	-36.8643	-102.668	-205.273	-10.7666	-78.0631	5.534	0
0.4567	-459.195	-55.5582	-36.6539	-32.2741	-134.71	-222.361	0.51957	-42.6284	8.01476	0
0.4573	-27.0712	-32.364	-3.0286	-17.0209	-162.784	-236.411	49.3592	-10.8935	-4.8343	0
0.4580	386.421	-32.364	7.29971	0.684256	-157.588	-249.512	113.439	-17.0185	-22.1996	0.321842
0.4587	523.483	-62.5704	4.27111	9.20895	-124.948	-265.998	156.16	-23.4312	-33.5221	0.321842
0.4593	434.338	-84.2542	-3.0286	13.7992	-93.8188	-237.613	191.26	-6.6183	-39.883	0
0.4600	320.196	-91.5901	-18.6376	18.6745	-38.268	-159.801	210.195	3.12417	-38.1019	0
0.4607	274.124	-81.5572	-29.0435	15.3387	38.9321	-30.6945	177.231	31.2006	-21.6271	0
0.4613	308.943	-34.5216	-22.2874	-3.59234	122.856	84.3308	104.607	70.2526	11.6405	0.643684
0.4620	370.879	15.2111	-10.0953	-37.1779	224.179	87.0838	21.591	89.8198	59.2838	0.321842
0.4627	390.111	33.5507	-2.17438	-69.1954	271.18	19.6508	-48.8973	110.867	99.2304	0
0.4633	322.963	29.5591	-2.79563	-81.1128	251.639	-39.2383	-83.391	118.472	105.655	0.643684
0.4640	229.298	17.6923	-12.1921	-75.0116	222.353	-101.83	-90.4052	111.771	90.3887	0.643684
0.4647	161.827	4.53096	-21.3555	-60.3571	208.623	-211.666	-91.3289	113.292	74.232	0
0.4653	107.823	-10.1407	-24.4618	-43.2792	232.414	-330.077	-86.1332	91.6285	56.2306	0
0.4660	53.1738	-25.0281	-27.4904	-27.7124	241.263	-313.305	-70.5749	51.3432	35.7484	0.321842
0.4667	23.889	-31.1773	-28.4223	-16.1085	181.76	-164.39	-58.9712	33.3381	18.3831	0.321842
0.4673	37.0326	-28.4803	-23.2193	-8.78129	99.9782	-25.2201	-65.3792	34.8591	10.75	0
0.4680	47.0863	-26.8621	-21.3555	-7.27022	40.7749	51.3896	-78.5128	28.1586	11.9585	0
0.4687	38.2317	-21.6839	-21.6662	-12.7443	-3.78529	87.4002	-86.7393	9.82468	16.8564	0.321842
0.4693	22.9667	-9.81707	-17.395	-18.2468	-53.5254	123.696	-88.8754	8.63257	21.4363	0.321842
0.4700	-3.55107	-7.12008	-14.6771	-15.1962	-102.352	163.377	-69.0451	22.0336	19.9097	0.321842
0.4707	-25.2264	-9.81707	-12.5027	-7.86894	-130.742	183.218	-20.8405	26.6376	12.2766	0.321842
0.4713	-29.8382	-9.16979	-8.85284	-8.78129	-132.568	185.654	13.3356	18.9916	6.80619	0.321842
0.4720	-37.1248	-12.5141	-8.23159	-13.0579	-130.443	154.232	4.18543	8.30371	5.534	0.321842
0.4727	-53.635	-18.6632	-10.406	-10.9196	-108.761	81.293	-15.0387	8.92032	4.00738	0.321842
0.4733	-64.9339	-20.1735	-10.7166	-8.18256	-9.57945	36.1372	-18.387	17.1829	3.75295	0.321842
0.4740	-67.0553	-14.9953	-8.85284	-8.46767	94.1675	42.8457	-22.0529	16.2374	7.37867	0.321842
0.4747	-66.1329	-7.33583	-7.06674	-3.27873	137.2	30.3148	-39.4585	2.50755	6.80619	0.321842
0.4753	-71.0214	-4.96248	-7.61033	7.69788	187.555	-25.2201	-67.2266	-11.5101	-2.35354	0.321842
0.4760	-74.388	-3.45216	-5.51361	10.4349	213.803	-146.669	-88.5867	-21.2937	-8.77808	0.321842
0.4767	-72.8661	-0.32364	-2.79563	4.02	171.683	-334.665	-87.3744	-18.8272	-3.88016	0
0.4773	-77.7546	-0.970919	-5.82423	4.02	99.6628	-422.54	-59.2887	4.35739	0.954139	0
0.4780	-83.8422	-1.83396	-5.51361	7.09916	20.321	-329.475	-13.8263	15.6619	-3.62573	0.321842
0.4787	-107.039	-2.48124	-1.55313	4.33362	-28.5059	-182.395	25.2569	-0.246645	-9.09612	0
0.4793	-149.468	-6.4728	0	6.78554	-56.5802	-78.002	47.8293	-9.3725	-9.41417	0
0.4800	-166.854	-9.81707	2.40735	7.38426	-109.69	-2.34164	50.889	-13.3599	-2.67159	0
0.4807	-166.531	-11.0038	2.40735	-8.18256	-170.106	68.7937	39.6028	-32.5571	11.9585	0
0.4813	-176.308	-10.1407	-1.86376	-19.1592	-196.968	131.037	44.1635	-34.4069	26.0162	0.321842
0.4820	-182.719	-3.66792	-3.96048	-16.4221	-203.675	187.49	63.7051	-10.318	32.6952	0.321842
0.4827	-159.522	3.34428	-4.58173	-15.5098	-175.302	214.64	81.3993	-11.5101	32.4407	0.321842
0.4833	-94.4954	3.88368	-7.06674	-13.6566	-116.697	204.894	91.4732	-27.7064	27.2248	0
0.4840	-25.8721	4.53096	-6.44549	-9.69363	-70.0113	195.717	84.1415	-27.3776	24.1715	0
0.4847	14.4349	4.8546	-2.79563	-10.3209	-13.2485	183.534	69.7956	-29.844	24.4896	0.321842
0.4853	41.5983	-5.82552	6.36783	-12.7443	37.1058	140.815	63.0989	-42.9573	24.1715	0
0.4860	50.1301	-20.1735	21.6662	-12.7443	39.5464	63.8889	61.5691	-61.579	24.4896	-0.321842
0.4867	8.62403	-24.8124	26.2479	-9.40852	30.0831	-19.4293	61.2515	-87.5178	24.4896	0.321842
0.4873	-45.0571	-12.5141	19.4918	-1.16894	56.9454	-99.3616	59.4331	-108.565	16.8564	0.321842
0.4880	-48.7465	5.394	17.395	6.78554	85.634	-144.549	55.4497	-106.139	6.1701	0
0.4887	-47.2246	6.04128	11.8814	8.92384	82.878	-87.78	47.8293	-79.584	4.00738	0
0.4893	-82.9198	0.21576	-0.931878	6.78554	89.2864	-22.7836	35.6194	-39.2987	8.01476	0.321842
0.4900	-112.527	6.36492	-5.51361	4.96086	105.474	-76.4831	20.3787	13.5244	9.85943	0.321842
0.4907	-108.561	9.06191	-2.17438	3.10766	77.6981	-146.986	11.5171	50.7266	6.80619	0.321842
0.4913	-92.6968	0.5394	-1.86376	3.10766	26.7295	-118	12.1233	34.8591	3.75295	0.321842
0.4920	-80.4756	-7.65947	-3.96048	7.69788	-3.78529	-39.5548	18.8489	-20.9648	0.954139	0
0.4927	-70.0991	-11.651	-5.82423	10.4349	-24.538	16.5814	31.9536	-57.3038	-2.35354	0
0.4933	-57.8779	-9.81707	-3.33923	8.92384	-37.3549	45.8835	42.345	-45.7115	-3.30768	0
0.4940	-43.2585	-6.14916	1.2425	9.52256	-41.9371	66.0406	45.6933	-15.1687	-2.67159	0
0.4947	-35.3262	-3.12852	0.621252	10.4349	-50.786	73.0656	51.4952	9.53693	-3.30768	0.321842
0.4953	-33.4815	0	0	8.61022	-53.8408	68.1608	62.7814	15.3331	-6.36092	0.321842
0.4960	-27.6707	2.04972	2.71798	7.69788	-49.2586	62.37	69.1894	-6.94716	-10.9408	0
0.4967	-24.9497	1.83396	2.09672	9.83618	-45.905	40.694	64.6288	-24.0479	-11.5133	0.321842
0.4973	-33.8044	-0.970919	-0.931878	7.69788	-43.4645	-8.13246	67.6596	-22.8146	-5.15235	0.321842
0.4980	-34.4039	2.37336	0.310626	0.684256	-40.7085	-67.6228	90.867	-26.761	1.27218	0.321842
0.4987	-29.1926	3.88368	3.96048	-2.36639	-28.2071	-151.257	102.759	-24.0479	1.90828	0.321842
0.4993	-28.9159	-10.6801	3.0286	-1.45404	-17.5153	-233.943	91.1557	-19.7727	-0.82692	0.321842
0.5000	-23.4278	-14.9953	4.89236	2.82256	-15.9879	-211.982	88.1249	-17.3062	-4.51626	0.321842
0.5007	-14.2504	-4.3152	7.61033	5.55958	-14.1616	-119.202	100.335	-4.48071	-7.88755	0.321842
0.5013	-11.2066	-3.45216	2.71798	5.8732	-13.5474	-70.3759	122.301	0.698827	-10.9408	0
0.5020	-17.2942	-3.66792	-0.931878	18.0758	-2.87217	-43.2255	156.795	5.87837	-17.0473	0
0.5027	-24.3041	1.83396	0	33.0154	-1.34478	-5.06301	170.823	9.53693	-23.7262	0
0.5033	-21.2603	3.02064	-0.621252	29.0524	-18.7438	28.5111	141.525	0.369967	-15.7751	0.321842
0.5040	-20.9836	-5.50188	-5.82423	10.4349	-33.387	88.0015	92.3969	-8.46814	9.85943	0.321842
0.5047	-36.5253	-16.182	-12.5027	-3.90596	-39.7954	151.795	64.3112	-10.318	29.96	0
0.5053	-46.3023	-10.1407	-10.406	-1.76766	-33.387	148.441	71.3254	-9.3725	28.4333	0
0.5060	-37.1248	-2.48124	-3.33923	4.33362	-34.6155	95.6276	70.1131	-19.4438	18.3831	0.321842
0.5067	-23.4278	-7.12008	6.98908	8.2966	-49.8729	47.4024	47.2232	-38.6821	13.4852	0
0.5073	-11.2066	-14.9953	20.7343	13.4855	-54.7539	31.5489	30.7412	-51.5076	10.75	0.321842
0.5080	9.86921	-22.6548	21.9768	15.9375	-33.0881	42.5293	22.8034	-79.584	6.80619	0.321842
0.5087	35.7874	-15.9662	15.2207	13.4855	5.97678	43.447	16.1067	-106.139	7.37867	0.321842
0.5093	36.1102	-1.29456	10.9496	9.20895	28.2569	27.277	3.57926	-61.2501	14.1213	0.321842
0.5100	10.4687	-2.1576	4.89236	5.8732	23.6747	-2.62644	-6.17711	19.3205	19.2736	0
0.5107	-2.95154	-6.4728	-2.17438	4.33362	16.3531	-49.6175	2.04942	64.7853	20.2277	0.321842
0.5113	-0.230589	-5.28612	-7.92096	1.28298	13.6138	-84.4257	11.1996	80.324	17.1745	0.321842
0.5120	-5.39578	-2.80488	-10.406	-1.16894	11.1733	-79.2361	3.89678	82.4615	15.0118	0
0.5127	-15.4956	3.88368	-8.54221	-2.08128	7.20534	-52.9718	-8.31312	69.3483	15.9659	0
0.5133	-16.6946	5.394	-8.23159	-4.50468	0.796904	-30.0933	-15.3273	46.4514	18.7011	0
0.5140	-8.43956	3.56004	-6.13486	-4.50468	-5.01385	-3.22767	-18.387	34.2425	21.7544	0.321842
0.5147	-3.27436	5.17824	-1.55313	-1.45404	-9.57945	27.5934	-23.5827	23.2668	20.2277	0
0.5153	-5.11908	5.17824	-0.310626	0.0570213	-16.3033	49.2378	-28.4609	-1.15101	15.3298	-0.321842
0.5160	-2.67483	4.20732	4.58173	-2.36639	-21.4832	55.9463	-31.5206	-32.2694	13.1671	-0.321842
0.5167	4.38119	5.394	15.2207	-8.46767	-24.2392	53.5097	-37.3225	-49.9867	13.8032	0.321842
0.5173	5.90308	0.5394	16.4632	-10.0072	-28.5059	54.4274	-29.6732	-39.2987	13.1671	0.643684
0.5180	-7.84003	-19.6341	-0.621252	-5.73064	-32.4738	54.1426	0.51957	-37.4489	8.01476	0
0.5187	-22.5055	-23.8415	-9.47409	-3.90596	-35.8275	56.2627	12.7295	-55.1662	5.534	0
0.5193	-12.4057	3.88368	4.58173	-4.8183	-34.9144	78.54	-7.41831	-30.4195	9.85943	0.321842
0.5200	1.61412	12.5141	14.91	-5.41703	-30.3322	102.051	-18.9932	18.0873	12.5946	0.321842
0.5207	4.38119	-3.99156	13.7452	-4.21958	-30.6476	99.2983	-15.9623	-0.534397	10.1139	0.321842
0.5213	22.69	-3.66792	19.1811	-1.76766	-30.6476	78.8564	-19.3107	-15.1687	8.58725	0.321842
0.5220	47.0863	7.22796	21.6662	-2.08128	-27.5928	54.4274	-25.7187	49.5345	8.33281	0.321842
0.5227	51.652	14.0244	14.0558	-2.99362	-26.0654	20.252	-24.5064	65.402	8.33281	0.321842
0.5233	43.1202	7.0122	4.58173	-3.59234	-28.2071	-35.2829	-21.4467	20.8415	8.58725	0
0.5240	26.0104	-4.96248	-4.58173	-5.13192	-30.6476	-78.3185	-25.7187	33.667	8.33281	0
0.5247	13.1897	1.83396	-6.75611	-6.9566	-30.3322	-67.9393	-33.6566	63.8399	8.01476	0
0.5253	10.1459	12.7298	-3.33923	-6.32937	-28.2071	-31.0109	-38.2173	43.7383	8.33281	0.643684
0.5260	6.17979	14.5638	-1.55313	-5.41703	-27.294	-5.98068	-40.6708	23.2668	8.58725	0.321842
0.5267	4.98072	10.8959	-2.48501	-7.27022	-30.9464	-0.189863	-45.549	36.0923	8.33281	0
0.5273	13.5125	11.8668	0.931878	-7.55533	-31.8596	-4.46178	-48.2912	35.188	7.69672	0
0.5280	20.8453	17.045	5.74658	-4.50468	-28.2071	-4.46178	-46.4727	9.82468	8.33281	0.321842
0.5287	20.2457	12.7298	3.33923	-5.41703	-30.0333	7.11986	-49.2148	2.50755	8.01476	0
0.5293	17.1558	4.8546	-1.2425	-7.27022	-33.0881	23.3215	-55.0167	15.0453	7.06063	0.321842
0.5300	15.0344	6.04128	0	-4.8183	-28.8048	33.669	-55.3054	16.5663	7.69672	0.321842
0.5307	14.4349	9.70919	2.40735	-2.99362	-24.2392	36.422	-51.957	4.974	7.37867	0.321842
0.5313	16.8791	7.87523	1.7861	-4.21958	-25.1523	42.2129	-48.0025	2.2198	4.00738	0.321842
0.5320	18.0782	4.8546	0.310626	-2.68	-24.2392	57.1804	-35.4751	8.01595	-0.82692	0
0.5327	15.9568	5.71764	2.09672	4.33362	-19.0427	74.8693	-11.0553	11.0579	-5.15235	0
0.5333	14.4349	6.04128	3.64985	10.1498	-15.3902	112.114	2.65558	10.1535	-8.46003	0
0.5340	15.3572	3.56004	1.47547	9.83618	-16.9176	161.542	-7.10079	7.68709	-7.88755	0
0.5347	15.9568	2.697	-0.931878	3.42128	-16.9176	179.547	-25.7187	4.974	-2.0991	0
0.5353	17.1558	2.37336	-0.621252	-4.21958	-9.89489	157.903	-40.6708	4.02853	4.64347	0.321842
0.5360	17.1558	2.697	0.931878	-6.32937	-0.431656	123.094	-47.685	4.974	6.48814	0.321842
0.5367	16.5563	3.56004	0.621252	-5.13192	0.182624	90.1532	-48.2912	-0.822149	4.32543	0
0.5373	15.0344	3.02064	-1.55313	-2.99362	-5.92697	57.1804	-44.3367	-5.09732	2.22632	0
0.5380	6.50261	5.394	-6.75611	0.684256	-8.36749	10.5057	-38.8234	1.31544	1.27218	0.321842
0.5387	-10.6071	7.22796	-14.3664	1.5966	-9.57945	-58.4778	-39.1409	5.59061	1.27218	0
0.5393	-34.6806	1.83396	-18.0163	0.0570213	-11.1068	-126.227	-44.0191	0.698827	1.90828	0
0.5400	-39.2924	6.68856	0.621252	-0.541703	-10.808	-153.093	-46.7613	-6.0428	2.22632	0
0.5407	-6.31814	15.8583	33.237	-0.85532	-9.57945	-129.581	-46.7613	-15.4975	2.48076	0.321842
0.5413	25.1342	-11.9747	36.0326	-2.36639	-9.57945	-86.5458	-46.7613	-49.9867	2.48076	0.321842
0.5420	44.0425	-57.3921	17.7057	-3.27873	-8.66633	-56.6424	-44.6253	-109.181	1.59023	0
0.5427	54.6957	-93.7477	10.0953	-2.99362	-7.45437	-36.2005	-40.9594	-147.329	0.699702	0
0.5433	36.1102	-133.124	0.310626	-2.68	-6.84009	-21.233	-39.1409	-164.718	0.699702	0
0.5440	15.3572	-159.662	-7.06674	-2.99362	-7.75321	-14.2397	-39.7471	-164.718	0.954139	0.321842
0.5447	16.5563	-139.812	1.7861	-3.27873	-8.66633	-10.8855	-39.7471	-129.324	0.699702	0
0.5453	19.0005	-70.8771	13.7452	-2.36639	-7.75321	-7.49959	-38.2173	-103.385	0.0636092	-0.321842
0.5460	24.4886	-9.49343	23.1416	-0.85532	-5.92697	-5.06301	-36.3988	-50.891	0.381655	-0.321842
0.5467	42.1978	8.19887	35.1007	-0.85532	-5.92697	-3.86055	-34.2628	49.8222	0.954139	0.321842
0.5473	51.3752	36.8949	39.6825	-0.228085	-5.31269	-2.62644	-32.4154	108.4	0.699702	0.321842
0.5480	38.5545	98.1707	26.2479	0.969363	-4.10073	-1.70877	-31.8092	110.538	-0.82692	0.321842
0.5487	22.3671	145.854	8.54221	0.370639	-4.39957	-2.34164	-31.5206	96.1914	-0.82692	0.321842
0.5493	15.9568	151.571	11.5708	-1.16894	-4.10073	-1.10753	-30.2794	81.8449	0.699702	0
0.5500	13.1897	120.502	17.7057	0.370639	-2.57334	2.24671	-28.4609	72.3902	1.27218	0.321842
0.5507	9.86921	72.6032	-10.0953	0.370639	-3.17101	4.08205	-28.7784	78.1864	0.954139	0
0.5513	8.34732	25.8912	-46.9822	-2.08128	-4.10073	4.39849	-29.3846	78.1864	1.27218	0
0.5520	10.1459	-5.28612	-43.0217	-1.45404	-2.57334	5.60096	-27.5372	89.4909	2.22632	0.321842
0.5527	7.10214	-39.3762	-20.1907	-0.541703	-1.95906	5.91739	-26.0074	127.926	2.79881	0.321842
0.5533	-8.76238	-82.0966	-15.2983	-1.16894	-2.57334	4.99972	-26.3249	87.6822	1.90828	0.321842
0.5540	-31.3601	-101.083	-8.85284	-1.45404	-3.17101	4.68329	-26.3249	-4.19296	1.27218	0.321842
0.5547	-34.0811	-151.463	21.3555	-2.36639	-4.10073	4.99972	-26.6424	-20.3893	1.59023	0.321842
0.5553	-10.2843	-248.771	46.6715	-2.68	-3.78529	5.60096	-26.9311	-2.34312	1.59023	0.321842
0.5560	6.17979	-273.476	40.5367	-0.541703	-1.34478	8.03753	-24.795	-50.891	1.90828	0
0.5567	16.8791	-226.764	28.6552	0.684256	0.182624	9.58808	-22.9765	-156.784	1.90828	0.321842
0.5573	37.3093	-153.837	17.0844	-1.45404	-2.57334	6.20219	-24.795	-197.069	-0.254437	0
0.5580	38.2317	-47.0356	-6.75611	-2.68	-4.10073	4.99972	-25.7187	-149.754	-2.35354	0
0.5587	6.17979	-7.65947	-31.7615	-1.45404	-4.69841	6.20219	-25.1126	-110.702	-2.98963	0
0.5593	-18.2165	-37.3265	-50.0884	-1.16894	-5.31269	5.31616	-25.7187	-91.7929	-3.88016	0
0.5600	-13.328	-8.30675	-37.5857	-0.85532	-4.69841	5.91739	-24.795	-100.919	-3.88016	0
0.5607	2.21365	9.38555	10.0953	1.28298	-1.34478	9.27164	-22.3704	-161.059	-1.78106	0
0.5613	18.0782	-39.3762	25.0054	0.969363	-0.730495	9.27164	-22.9765	-211.703	-1.14497	0
0.5620	24.4886	-69.9062	-7.06674	-1.16894	-2.57334	6.51863	-25.4012	-150.659	-2.0991	0.321842
0.5627	27.2556	-93.424	1.2425	0.684256	-0.132817	8.35397	-24.1889	24.1712	-0.82692	0.321842
0.5633	40.9987	-175.844	49.3895	1.28298	1.39458	9.27164	-22.9765	145.027	0.699702	0
0.5640	51.652	-256.754	70.5121	-1.16894	0.182624	7.11986	-23.8714	112.676	1.90828	0
0.5647	50.1301	-239.925	46.3609	-0.541703	1.71002	8.35397	-21.7354	70.2526	2.22632	0.321842
0.5653	42.7973	-231.079	-3.64985	1.28298	3.23742	10.5057	-18.7045	110.25	2.22632	0.321842
0.5660	44.3192	-283.508	-24.4618	-0.85532	0.481463	7.75274	-18.9932	132.53	1.90828	0.321842
0.5667	47.6858	-200.872	1.2425	-2.68	-1.34478	6.20219	-20.8405	88.8743	1.90828	0.321842
0.5673	40.6759	122.983	13.4346	-0.541703	0.182624	8.35397	-19.9169	14.0999	1.90828	0
0.5680	26.0104	442.2	-14.9877	-0.541703	-0.132817	7.11986	-19.5993	-42.0529	0.699702	0.321842
0.5687	19.0005	432.383	-30.8296	-2.68	-1.95906	3.76561	-21.4467	-55.7828	-0.82692	0.321842
0.5693	29.9766	218.781	-19.2588	0.0570213	0.182624	5.91739	-18.7045	-64.9087	-1.14497	0
0.5700	37.6321	145.854	-13.4346	3.42128	2.3243	8.35397	-15.0387	-56.6872	-1.46301	0
0.5707	25.1342	180.591	-7.92096	0.684256	-1.34478	4.68329	-17.7808	-20.677	-2.98963	0.321842
0.5713	8.62403	148.551	10.0953	-1.16894	-3.48645	3.16438	-19.5993	-33.1737	-3.62573	0
0.5720	0.0922356	111.656	32.9263	1.5966	-1.64361	5.91739	-16.5685	-35.9279	-3.62573	0.321842
0.5727	-2.35201	147.364	51.8745	0.684256	-4.10073	2.56315	-17.1747	62.9355	-5.15235	0.321842
0.5733	-4.79625	177.894	57.9317	-1.16894	-5.61153	-0.189863	-18.7045	153.577	-6.04288	0.321842
0.5740	-13.0513	188.25	23.1416	1.5966	-0.431656	4.39849	-14.7212	127.022	-3.88016	0.321842
0.5747	-11.8062	145.53	-56.7669	1.28298	0.481463	4.99972	-14.115	35.4757	-2.98963	0.321842
0.5753	10.7916	-2.48124	-93.7314	-2.36639	-2.87217	0.727808	-17.4633	-15.1687	-3.88016	-0.321842
0.5760	31.4985	-50.3799	-67.1728	-1.45404	-1.95906	1.32904	-16.5685	-26.761	-3.30768	-0.321842
0.5767	31.2218	46.6041	-52.1851	0.969363	0.481463	3.48082	-13.8263	-49.9867	-2.35354	0.321842
0.5773	24.2119	99.7889	-40.925	-1.76766	-1.64361	1.04425	-14.7212	-20.0604	-2.98963	0.321842
0.5780	18.7238	132.692	-8.85284	-2.36639	-1.34478	1.32904	-15.0387	87.0656	-2.35354	0
0.5787	5.58026	197.42	16.1525	0.684256	2.3243	4.99972	-11.3728	171.583	-0.254437	0.321842
0.5793	-8.43956	215.76	20.113	-0.228085	1.71002	3.48082	-11.6903	192.342	-0.254437	0.321842
0.5800	-11.8062	177.247	18.8705	-2.99362	-0.132817	0.727808	-14.4325	199.042	-1.14497	0
0.5807	-6.91767	107.341	17.0844	-2.36639	0.796904	1.04425	-14.115	175.57	-0.82692	0.321842
0.5813	-0.230589	58.5788	7.61033	-2.36639	1.09574	0.41137	-12.9027	71.1981	-0.572483	0.321842
0.5820	6.17979	71.3086	0.931878	-3.59234	-0.132817	-0.506301	-12.9027	-35.0236	-0.254437	0.321842
0.5827	12.3135	49.0854	2.09672	-1.45404	1.71002	1.64548	-11.6903	-72.8424	0.0636092	0.321842
0.5833	20.8453	22.5469	6.36783	0.684256	2.92198	2.56315	-9.84297	-62.1956	-1.14497	0
0.5840	30.6222	66.454	14.91	-1.16894	0.182624	-0.189863	-11.0553	2.50755	-2.67159	0.321842
0.5847	28.4547	69.2589	23.7629	-2.68	-1.64361	-1.42397	-11.979	80.9406	-2.98963	0.643684
0.5853	13.1897	24.7045	27.4904	-2.08128	-0.132817	0.126575	-11.3728	108.4	-1.78106	0.321842
0.5860	3.13601	9.70919	8.85284	-2.36639	0.182624	-0.791095	-11.6903	111.155	-1.14497	0
0.5867	2.53648	7.87523	-33.004	-3.59234	0.481463	-2.62644	-12.2965	137.093	-1.14497	0.321842
0.5873	-2.67483	-4.63884	-51.8745	-1.16894	3.53626	-0.506301	-10.4491	149.919	-0.572483	0.321842
0.5880	-9.08521	-24.1651	-36.3432	0.370639	3.8351	0.126575	-10.7666	106.592	-0.82692	0.321842
0.5887	-14.5732	-52.2139	-42.4004	-1.45404	1.39458	-2.62644	-12.2965	75.4733	-1.78106	0.321842
0.5893	-22.7822	-135.497	-59.4849	-2.68	1.09574	-2.34164	-10.7666	44.6427	-1.46301	0.321842
0.5900	-25.2264	-194.4	-41.5462	-1.76766	2.00886	-1.10753	-8.91929	-60.9624	-1.46301	0.321842
0.5907	-17.0175	-64.1886	-7.61033	-1.76766	0.182624	-3.86055	-11.0553	-126.57	-2.0991	0.643684
0.5913	-9.36192	65.591	25.9373	-1.45404	0.182624	-3.86055	-11.0553	-86.2845	-0.82692	0.643684
0.5920	-14.2504	16.0741	55.2137	-0.541703	2.92198	-1.10753	-8.02447	-56.3994	0.699702	0.643684
0.5927	-27.9935	-52.5375	66.241	-2.08128	2.00886	-2.94288	-8.02447	-88.4221	0.381655	0.321842
0.5933	-30.1149	-112.627	61.038	-4.50468	0.182624	-5.69589	-9.2368	-141.533	-0.572483	0.321842
0.5940	-3.27436	-165.488	60.7274	-4.21958	0.796904	-5.37945	-8.63064	-172.035	-0.572483	0.643684
0.5947	26.0104	-70.5535	49.3895	-3.90596	1.09574	-5.37945	-8.31312	-147.329	-1.14497	0.321842
0.5953	24.4886	25.5675	-22.598	-3.90596	1.09574	-5.98068	-8.31312	-91.4641	-1.14497	0.321842
0.5960	16.8791	-41.5338	-99.1673	-1.76766	4.44938	-3.86055	-6.17711	-67.9917	0.381655	0.321842
0.5967	33.3432	-86.7355	-92.7995	-0.85532	5.67794	-1.70877	-4.64727	-64.9087	1.90828	0.321842
0.5973	51.0524	-77.5657	-45.5067	-3.59234	2.92198	-2.34164	-6.49463	-78.6386	2.22632	0.321842
0.5980	45.5644	-39.3762	-10.7166	-5.73064	2.3243	-2.62644	-8.31312	-144.287	1.90828	0
0.5987	28.4547	93.6398	9.16346	-4.21958	2.62314	-2.62644	-7.41831	-124.72	1.27218	0
0.5993	21.1681	188.898	13.1239	-3.90596	0.796904	-4.77822	-6.17711	59.8936	0.699702	0
0.6000	19.6001	199.254	9.78471	-3.27873	0.481463	-5.69589	-4.96478	174.337	0.381655	0
0.6007	11.9906	220.291	13.4346	-1.16894	3.23742	-2.62644	-1.61644	137.422	1.59023	0.321842
0.6013	9.54639	209.287	19.1811	-1.45404	4.44938	-1.42397	-0.69276	139.231	3.11685	0.643684
0.6020	13.8353	100.005	2.09672	-2.99362	3.23742	-3.22767	-2.51126	163.649	3.11685	0.643684
0.6027	13.5125	-66.8856	-16.7738	-2.99362	3.23742	-3.86055	-3.43494	103.837	2.22632	0.321842
0.6033	12.913	-221.046	-4.27111	-2.99362	2.92198	-4.46178	-3.75245	50.4388	1.27218	0.321842
0.6040	17.1558	-251.468	9.47409	-4.21958	0.796904	-6.61356	-4.64727	66.9229	0.699702	0.321842
0.6047	19.0005	-114.461	12.5027	-2.99362	0.481463	-5.69589	-3.75245	95.9037	0.381655	0.321842
0.6053	17.4787	64.6201	22.2874	-1.45404	2.00886	-3.54411	-1.90509	69.9649	0.381655	0
0.6060	17.8015	138.518	27.7234	-2.08128	1.09574	-4.77822	-2.22261	22.9791	0.954139	0
0.6067	13.1897	46.0647	23.7629	-3.59234	0.481463	-6.29712	-2.82877	20.8415	0.954139	0.643684
0.6073	0.691767	-115.971	23.1416	-3.27873	0.796904	-5.98068	-2.82877	36.9967	0.699702	0
0.6080	-8.43956	-280.811	20.4236	-3.27873	0.481463	-6.29712	-3.75245	50.4388	1.59023	0
0.6087	-15.7723	-518.255	16.1525	-2.99362	1.39458	-5.69589	-2.82877	58.3726	3.11685	0.321842
0.6093	-23.4278	-651.271	13.4346	-0.85532	4.44938	-2.0252	0.51957	42.5051	4.64347	0.321842
0.6100	-33.1587	-585.033	3.96048	-0.541703	6.27562	-0.791095	1.44325	6.16612	6.48814	0
0.6107	-37.7705	-670.258	-3.0286	-2.68	5.3625	-2.62644	-0.086595	-34.4069	7.06063	0.321842
0.6113	-23.4278	-896.374	0.621252	-4.8183	4.76482	-3.22767	-0.98141	-64.0043	7.06063	0.321842
0.6120	3.73554	-864.01	9.16346	-6.04426	4.76482	-3.86055	-0.98141	-95.1227	7.06063	0
0.6127	32.1441	-591.506	14.0558	-6.9566	1.39458	-7.21479	-1.90509	-129.612	4.64347	0
0.6133	46.7635	-192.566	25.9373	-3.59234	0.796904	-6.29712	-0.375245	-123.816	1.59023	0.321842
0.6140	36.387	241.651	22.598	-0.228085	1.09574	-4.77822	2.36693	-70.7048	-0.254437	0.321842
0.6147	18.7238	361.29	-18.0163	-1.45404	-3.17101	-8.41726	0.23092	-25.8566	-2.98963	0.321842
0.6153	14.4349	239.493	-35.4113	-1.16894	-5.31269	-9.33493	-2.22261	-13.6477	-6.04288	0
0.6160	12.3135	319.756	-11.0272	0.684256	-4.69841	-8.13246	-1.61644	-10.8935	-6.67897	0
0.6167	4.98072	545.333	-4.89236	-1.16894	-5.31269	-9.9678	-2.51126	-12.4145	-6.04288	0
0.6173	-1.75248	531.848	-22.2874	-2.36639	-4.69841	-9.33493	-4.0411	-46.6159	-4.19821	0
0.6180	-5.99532	353.091	-24.4618	0.370639	-0.730495	-5.06301	-1.29893	-98.4935	-1.46301	0.321842
0.6187	-0.230589	359.132	-25.316	0.684256	-0.730495	-5.69589	-0.375245	-99.7267	-1.14497	0.321842
0.6193	2.21365	406.168	-39.3718	-2.08128	-3.48645	-9.33493	-2.82877	-83.2426	-2.0991	0.643684
0.6200	-2.95154	241.327	-34.1688	-2.36639	-1.64361	-7.49959	-1.61644	-46.9036	-0.254437	0.321842
0.6207	1.2913	29.5591	-8.54221	-3.27873	-0.132817	-6.89835	-1.90509	55.9061	0.954139	0.321842
0.6213	9.54639	-68.3959	7.92096	-5.41703	-1.95906	-9.33493	-4.35862	104.454	0.0636092	0.643684
0.6220	7.70167	-32.364	6.0572	-2.99362	-0.730495	-7.49959	-2.82877	67.8273	0.0636092	0.321842
0.6227	5.25743	72.2796	-6.44549	-1.16894	0.481463	-5.69589	-0.69276	40.6553	0.381655	0
0.6233	10.1459	102.162	-14.0558	-2.36639	-1.64361	-6.89835	-1.90509	4.64514	0.699702	0.321842
0.6240	8.34732	74.9765	-12.5027	-2.99362	-2.57334	-7.21479	-2.82877	-35.3113	0.954139	0.321842
0.6247	-2.67483	232.158	-23.2193	-2.99362	-1.64361	-6.89835	-3.75245	-23.4312	1.59023	0.321842
0.6253	-7.56332	516.961	-26.2479	-3.90596	-1.34478	-8.13246	-5.88846	16.8541	1.59023	0
0.6260	-2.35201	551.051	-2.48501	-4.21958	-0.132817	-7.49959	-6.49463	70.8692	2.22632	0
0.6267	2.81319	338.096	-8.54221	-2.08128	3.23742	-4.46178	-4.64727	108.729	4.00738	0.321842
0.6273	9.86921	188.25	-52.8064	-1.76766	2.3243	-5.69589	-4.96478	75.761	4.32543	0.643684
0.6280	11.9906	168.077	-75.715	-3.59234	-0.431656	-8.13246	-7.41831	41.8885	2.79881	0.321842
0.6287	-0.507296	30.7458	-76.3363	-3.27873	-0.431656	-7.49959	-7.41831	52.2476	2.48076	0
0.6293	-13.9276	-188.682	-83.636	-2.68	-0.132817	-7.21479	-6.49463	50.11	3.11685	0.321842
0.6300	-9.68474	-359.24	-76.6469	-1.76766	1.09574	-5.98068	-5.57095	8.63257	3.11685	0.321842
0.6307	13.5125	-504.554	-58.9413	0.0570213	1.71002	-5.06301	-4.96478	-62.1956	2.22632	0.321842
0.6313	31.8213	-391.928	-53.4276	-0.541703	-0.431656	-5.98068	-6.17711	-103.056	0.954139	0.321842
0.6320	24.2119	-173.363	19.8024	-2.36639	-3.17101	-8.41726	-6.78328	-82.626	0.954139	0.321842
0.6327	7.10214	-135.497	151.974	-1.45404	-3.17101	-9.33493	-5.57095	-64.3332	0.381655	0.321842
0.6333	1.01459	-38.1895	160.827	0.0570213	-4.39957	-9.9678	-4.96478	-76.8298	-0.82692	0.321842
0.6340	5.90308	139.381	51.5639	-0.85532	-5.92697	-10.569	-6.17711	-38.3944	-1.78106	0.321842
0.6347	0.0922356	151.032	-18.9482	-1.16894	-5.01385	-9.9678	-6.78328	46.4514	-1.46301	0
0.6353	-23.4278	-13.485	-30.8296	0.0570213	-3.17101	-8.73369	-5.2823	76.3776	-0.254437	-0.321842
0.6360	-36.5253	-189.545	-27.1798	1.28298	-1.95906	-8.41726	-3.75245	51.6721	0.699702	-0.321842
0.6367	-33.1587	-322.022	-3.96048	0.684256	-2.87217	-9.05013	-4.0411	19.3205	0.699702	0.321842
0.6373	-18.8161	-412.317	37.8187	-1.16894	-4.10073	-9.65137	-4.96478	-15.4975	0.381655	0.321842
0.6380	22.0443	-304.006	47.914	-1.76766	-3.78529	-9.05013	-5.2823	-49.9867	0.381655	0.321842
0.6387	55.0186	32.5797	11.2602	-1.45404	-3.48645	-8.73369	-4.96478	-12.4145	0.0636092	0.321842
0.6393	36.387	292.031	-33.8582	0.0570213	-3.48645	-8.41726	-3.75245	83.9825	-0.254437	0.321842
0.6400	-5.99532	382.003	-53.4276	2.19532	-4.10073	-7.49959	-1.61644	106.592	-0.82692	0.643684
0.6407	-27.9935	486.431	-46.9822	1.28298	-6.54125	-10.2526	-1.90509	59.6058	-2.98963	0.321842
0.6413	-16.3718	429.362	-50.399	-1.45404	-9.57945	-13.322	-3.75245	14.0999	-4.8343	0.321842
0.6420	11.9906	246.506	-58.9413	-1.45404	-8.66633	-12.4044	-3.75245	-2.34312	-4.8343	0.321842
0.6427	19.0005	283.724	-31.7615	-0.85532	-6.84009	-11.1703	-2.82877	24.1712	-5.15235	0.321842
0.6433	2.21365	386.965	41.1579	-0.541703	-6.54125	-11.8031	-2.51126	47.3969	-5.40679	0.321842
0.6440	-0.830121	338.419	148.634	-0.228085	-5.61153	-11.4867	-1.90509	32.4338	-4.51626	0.321842
0.6447	8.94686	218.457	245.627	-0.85532	-5.61153	-10.8855	-2.22261	11.9623	-2.98963	0.321842
0.6453	6.77932	113.813	228.854	-1.76766	-6.54125	-11.8031	-4.0411	31.8172	-2.67159	0.321842
0.6460	-17.617	52.4296	112.291	-0.85532	-5.92697	-12.0879	-4.0411	87.6822	-1.14497	0.321842
0.6467	-51.7903	26.2148	8.54221	0.684256	-2.57334	-8.41726	-2.22261	101.988	1.59023	0.643684
0.6473	-61.2445	-83.0675	-25.316	-0.228085	-0.132817	-6.89835	-2.82877	42.5051	4.32543	0.321842
0.6480	-35.3262	-277.791	1.47547	-1.45404	2.00886	-6.61356	-3.75245	-44.1905	7.69672	0.321842
0.6487	0.41506	-356.543	15.2207	-1.45404	5.97678	-2.94288	-1.90509	-142.437	10.75	0.321842
0.6493	32.7436	-355.249	-10.7166	-3.27873	7.20534	-2.62644	-1.61644	-191.273	11.6405	0
0.6500	56.2176	-338.527	-14.0558	-4.50468	4.15054	-5.69589	-2.82877	-128.42	9.85943	0
0.6507	60.5066	-218.888	3.96048	-2.68	3.23742	-5.37945	-1.61644	-98.7812	7.69672	0.321842
0.6513	45.5644	-116.618	-59.4849	-2.68	2.00886	-5.37945	-1.29893	-101.864	6.80619	0.321842
0.6520	22.9667	18.2317	-181.25	-4.21958	-1.34478	-8.13246	-3.11742	-14.552	5.27957	0
0.6527	12.913	235.502	-221.243	-2.99362	-3.48645	-9.33493	-3.43494	25.1167	2.48076	0.321842
0.6533	17.1558	151.571	-183.114	-1.16894	-4.10073	-9.65137	-2.22261	22.6502	0.381655	0
0.6540	9.22356	-176.168	-160.827	-2.36639	-5.92697	-11.1703	-3.11742	81.8449	-1.14497	0
0.6547	-10.8838	-421.811	-140.714	-1.45404	-6.22581	-10.2526	-3.11742	90.1075	-2.35354	0
0.6553	-11.5295	-513.616	-99.4779	0.969363	-3.48645	-7.81602	-1.61644	17.4707	-1.14497	0.321842
0.6560	4.38119	-318.354	-59.4849	0.0570213	-1.64361	-7.49959	-0.69276	-60.6335	0.954139	0.321842
0.6567	9.86921	19.742	18.6376	-1.16894	-1.64361	-7.21479	0.51957	-114.978	1.90828	0.321842
0.6573	-0.230589	282.538	113.534	-0.541703	-0.730495	-5.06301	2.65558	-125.665	3.4349	0.321842
0.6580	-19.1389	352.444	141.257	-0.541703	0.182624	-3.86055	3.89678	-71.3214	6.48814	0
0.6587	-39.8919	101.299	48.8459	-0.541703	1.71002	-2.34164	5.71527	-51.7954	9.54139	0.321842
0.6593	-47.5013	-162.683	-112.912	-0.228085	3.53626	-1.10753	7.56263	-180.297	11.6405	0.321842
0.6600	-26.1488	-270.779	-176.746	-1.76766	2.92198	-2.62644	6.03279	-259.306	11.6405	0
0.6607	10.4687	-385.779	-128.832	-4.21958	1.39458	-5.37945	2.9731	-201.632	10.75	0
0.6613	32.4208	-380.6	-79.3649	-3.90596	3.23742	-4.14534	3.29061	-210.182	11.6405	0.321842
0.6620	36.7098	-202.059	-50.9426	-2.08128	5.3625	-1.70877	6.03279	-200.44	12.9127	0.321842
0.6627	35.1879	-43.0441	-20.7343	-1.16894	3.23742	-2.94288	7.24512	-75.5966	10.4319	0.321842
0.6633	33.3432	-2.48124	13.7452	-1.45404	0.182624	-4.77822	7.24512	26.021	6.1701	0.321842
0.6640	34.2655	92.1295	52.8064	-2.08128	-1.64361	-6.29712	6.03279	72.3902	4.96152	0.321842
0.6647	30.2994	324.395	95.8281	-2.36639	-2.87217	-7.81602	3.89678	106.879	2.79881	0.321842
0.6653	19.0005	517.824	100.41	-0.541703	-3.17101	-8.41726	4.79159	168.541	-2.98963	0
0.6660	3.13601	565.399	21.9768	1.5966	-2.87217	-7.81602	7.56263	252.441	-7.25145	0
0.6667	-10.6071	445.76	-60.1061	1.91021	-1.95906	-7.81602	8.77496	267.404	-9.09612	0
0.6673	-14.5732	321.59	-67.1728	0.969363	-2.57334	-9.05013	8.77496	209.442	-9.41417	0.321842
0.6680	-14.5732	334.104	-74.7832	0.370639	-3.48645	-9.9678	8.1688	169.157	-6.67897	0.643684
0.6687	-14.8499	362.8	-92.1782	0.370639	-3.17101	-8.73369	7.85128	135.285	-4.19821	0.321842
0.6693	-17.617	290.736	-50.399	1.5966	-3.17101	-9.65137	6.9276	70.2526	-6.67897	0
0.6700	-21.5831	188.574	4.58173	4.02	-1.95906	-9.65137	6.9276	15.0453	-6.93341	0.321842
0.6707	-19.1389	138.194	10.6389	6.47192	1.39458	-6.29712	8.77496	-31.0361	10.75	0.321842
0.6713	-19.4617	136.36	-4.58173	6.1583	2.92198	-5.37945	8.45745	-92.4096	28.1153	0.321842
0.6720	-20.9836	126.867	34.4795	4.64724	2.3243	-7.21479	6.63895	-131.133	19.5916	0
0.6727	-12.4057	-47.3593	88.4507	4.96086	2.62314	-6.29712	7.24512	-138.162	4.00738	0
0.6733	-7.84003	-198.391	93.6537	4.96086	2.92198	-5.69589	7.85128	-127.474	-1.78106	0.321842
0.6740	-0.830121	50.5957	100.41	4.02	3.23742	-5.98068	7.85128	-110.702	4.64347	0.321842
0.6747	16.8791	299.367	96.1387	6.47192	6.59106	-1.70877	12.1233	-105.811	16.5384	0.321842
0.6753	15.3572	214.142	82.7041	6.78554	7.20534	0.126575	16.7128	-102.769	29.0694	0.321842
0.6760	-8.43956	139.705	120.212	1.5966	5.06366	-2.94288	15.7892	-124.432	43.1271	0.321842
0.6767	-18.8161	-33.6585	158.652	-1.45404	5.67794	-3.22767	13.6531	-85.0513	50.1241	0.321842
0.6773	-12.7285	-336.046	148.945	-2.08128	6.59106	-3.22767	11.8347	111.483	53.7498	0
0.6780	-15.4956	-386.965	108.952	-2.99362	3.8351	-6.89835	9.38113	217.376	32.4407	0.321842
0.6787	-9.08521	-516.745	86.354	0.0570213	2.92198	-6.61356	9.69864	106.263	-5.40679	0.321842
0.6793	8.94686	-745.019	82.7041	3.10766	2.92198	-4.77822	12.1233	53.193	-2.0991	0.321842
0.6800	15.3572	-411.454	24.0735	1.91021	-0.431656	-7.21479	12.1233	108.729	-1.46301	0.321842
0.6807	13.5125	156.857	-48.8459	-0.228085	-2.87217	-8.73369	11.1996	119.088	-23.4082	0.321842
0.6813	5.90308	397.861	-63.2124	-3.90596	-1.34478	-7.81602	11.5171	105.687	-9.98665	0.321842
0.6820	2.21365	414.69	-40.925	-11.5183	-0.730495	-7.81602	9.98729	106.592	12.5946	0.321842
0.6827	8.62403	326.445	21.0449	-13.3715	0.182624	-8.13246	8.45745	51.9598	-6.36092	0.321842
0.6833	4.98072	170.235	91.557	-5.41703	2.00886	-4.77822	11.1996	-92.9851	-49.6788	0
0.6840	-2.95154	7.22796	47.2928	-3.27873	-0.132817	-4.77822	12.1233	-151.604	-63.1004	0
0.6847	-0.507296	0.21576	-102.584	-4.50468	-3.48645	-7.81602	9.98729	-47.2325	-33.5221	0
0.6853	-1.75248	106.154	-168.437	-0.228085	-3.78529	-7.21479	9.06361	28.1586	22.6449	0.321842
0.6860	-5.11908	130.858	-111.126	0.684256	-3.78529	-8.13246	6.9276	120.322	64.7542	0.321842
0.6867	-9.96145	78.6445	-90.0038	-0.541703	-3.48645	-9.05013	6.63895	240.232	32.4407	0
0.6873	-29.8382	-92.2373	-147.081	3.7349	1.09574	-2.94288	10.5935	171.295	-8.14198	0
0.6880	-50.2684	-352.875	-178.843	4.96086	4.15054	0.126575	11.8347	-6.33055	4.96152	0.321842
0.6887	-51.7903	-630.558	-155.313	0.370639	4.15054	-1.10753	9.06361	-78.3508	19.9097	0.321842
0.6893	-32.882	-865.197	-68.1047	-1.16894	6.59106	0.126575	8.45745	-87.8055	19.0192	0
0.6900	-5.11908	-840.493	46.3609	-1.16894	7.50418	-0.506301	8.1688	-155.263	17.4925	0.321842
0.6907	4.6579	-651.918	83.0148	-1.45404	5.3625	-3.86055	6.9276	-207.14	18.065	0.321842
0.6913	9.22356	-368.41	115.63	4.33362	4.44938	-2.0252	9.06361	-179.064	7.06063	0.321842
0.6920	35.7874	133.879	198.645	11.0621	0.182624	-2.0252	9.06361	-147.329	-25.5709	0.321842
0.6927	45.8872	461.079	163.855	10.1498	-7.13893	-6.61356	5.42662	-138.162	-43.8904	0.321842
0.6933	26.0104	416.848	-26.8691	8.0115	-6.22581	-5.06301	5.10911	-119.253	-21.8816	0.321842
0.6940	17.8015	390.849	-166.651	7.09916	-3.17101	-2.94288	6.32144	-74.6922	10.4319	0.643684
0.6947	16.2796	580.394	-159.895	5.8732	-6.22581	-6.29712	4.18543	8.01595	12.5946	0
0.6953	-6.31814	663.677	-163.622	8.2966	-6.22581	-5.06301	4.79159	25.4044	-7.5695	-0.321842
0.6960	-22.7822	139.057	-242.055	11.9745	-2.87217	-1.10753	7.85128	-47.5202	-11.1952	0
0.6967	-1.75248	-595.713	-238.638	11.0621	-4.39957	-4.14534	5.71527	-46.6159	3.11685	0.643684
0.6973	32.4208	-623.87	-133.103	7.38426	-7.75321	-7.81602	2.9731	-7.23491	16.2204	0.321842
0.6980	42.7973	-81.2336	-76.3363	4.33362	-9.28061	-8.41726	3.89678	-36.8323	30.596	0
0.6987	29.9766	207.777	-78.433	1.28298	-10.808	-9.05013	3.29061	-14.8809	50.6966	0
0.6993	13.5125	153.189	-58.0094	0.370639	-10.1937	-6.61356	3.89678	84.928	58.6477	0.321842
0.7000	1.93695	159.231	-20.4236	1.91021	-7.13893	-2.0252	7.85128	174.624	62.9095	0.321842
0.7007	-4.47343	118.344	70.8227	1.91021	-5.61153	-0.506301	8.77496	295.48	105.655	0
0.7013	-17.9398	-62.894	198.024	4.64724	-4.10073	0.727808	7.56263	407.786	125.819	0.321842
0.7020	-43.5352	-374.235	226.136	7.69788	-1.34478	3.76561	8.45745	357.758	43.6996	0.321842
0.7027	-55.4336	-729.7	159.895	4.64724	0.182624	5.31616	8.1688	194.479	-59.7291	0
0.7033	-46.9018	-404.981	25.316	-1.76766	2.00886	6.83506	6.9276	70.5815	-83.2645	0
0.7040	-39.8919	139.705	-104.992	-9.0949	5.67794	10.7905	9.06361	-21.9103	-30.1508	0
0.7047	-29.8382	-54.0478	-83.636	-16.1085	5.06366	11.107	11.1996	-81.105	37.9111	0
0.7053	3.13601	-315.009	-58.9413	-17.9332	-0.431656	7.11986	9.98729	-92.6973	76.0767	0.321842
0.7060	38.8312	-235.61	-152.906	-14.2838	-3.78529	4.39849	8.77496	-140.916	79.7024	0.321842
0.7067	51.0524	-95.258	-210.294	-10.9196	-5.61153	2.56315	6.9276	-178.16	101.966	0
0.7073	35.7874	112.519	-232.892	-7.86894	-7.75321	1.04425	5.10911	-92.9851	158.133	0
0.7080	3.45884	511.459	-156.866	-4.50468	-7.75321	2.84794	6.03279	83.407	151.454	0.321842
0.7087	-8.16285	915.469	137.918	-2.68	-7.45437	4.99972	9.06361	214.91	68.7616	0.321842
0.7093	22.3671	882.566	407.075	1.91021	-9.28061	4.99972	9.69864	132.202	-16.7292	0.321842
0.7100	35.5107	475.427	451.961	11.9745	-9.57945	6.51863	9.98729	-47.2325	-77.4761	0
0.7107	1.61412	216.947	361.646	26.629	-9.57945	9.87287	10.911	-26.4732	-97.8946	0
0.7113	-22.5055	254.812	217.904	42.1673	-9.57945	10.7905	9.69864	129.776	-86.5722	0.321842
0.7120	-27.0712	308.752	57.9317	50.7205	-8.66633	7.75274	8.77496	177.708	-76.84	0.965526
0.7127	-34.4039	313.715	-113.534	51.3477	-8.36749	3.48082	7.85128	47.068	-80.2113	0.321842
0.7133	-30.1149	331.623	-297.269	44.0205	-8.36749	0.727808	4.50294	-131.749	-84.4731	0
0.7140	-16.3718	267.542	-399.775	33.6426	-8.36749	0.126575	-0.086595	-159.538	-83.2645	0.321842
0.7147	-19.4617	81.4493	-396.126	34.5549	-6.84009	1.93027	-3.11742	-82.3382	-89.6254	0.321842
0.7153	-33.1587	-137.115	-294.473	35.4673	-5.31269	3.16438	-3.43494	-79.584	-99.1032	0
0.7160	-29.5154	-319.54	-132.793	24.7758	-2.57334	4.08205	-0.69276	-192.506	-96.05	0.321842
0.7167	-7.84003	-469.386	-43.6429	12.2596	1.39458	7.11986	1.76077	-284.957	-85.3636	0.321842
0.7173	20.2457	-495.708	59.7955	4.64724	0.796904	7.75274	1.76077	-237.971	-72.8962	0
0.7180	33.9427	-398.616	362.267	3.10766	-5.92697	4.39849	-0.086595	-117.732	-63.7365	0.321842
0.7187	12.5902	-413.612	637.482	4.33362	-9.89489	4.68329	-0.375245	39.4632	-60.0471	0.321842
0.7193	-30.1149	-392.251	619.776	3.10766	-9.28061	6.51863	0.837085	153.29	-53.3682	0
0.7200	-65.2106	-43.3677	461.124	-0.85532	-9.28061	6.51863	1.76077	178.283	-44.2084	0
0.7207	-68.5772	300.23	314.586	-3.27873	-8.66633	8.03753	2.36693	223.789	-37.1478	0
0.7213	-46.9018	413.72	205.712	-4.8183	-4.69841	9.87287	3.57926	137.422	-29.2603	0
0.7220	-44.1809	265.169	164.166	-9.40852	-1.64361	11.107	4.18543	-198.302	-19.7825	0.321842
0.7227	-55.7564	-191.379	139.16	-12.4592	1.39458	12.9423	5.10911	-521.448	-11.8313	0.321842
0.7233	-24.6269	-355.896	84.8009	-8.46767	5.67794	15.6637	6.32144	-698.169	-7.88755	0.321842
0.7240	36.1102	-134.311	11.2602	-1.16894	5.67794	15.3789	4.79159	-800.691	-8.77808	0.321842
0.7247	78.5386	-143.157	-7.61033	4.96086	2.3243	14.4612	1.44325	-787.865	-12.4674	0.321842
0.7253	88.9151	-222.556	124.483	9.83618	1.09574	15.3789	-0.086595	-536.123	-13.676	0.321842
0.7260	55.9409	26.7542	306.976	9.83618	-1.04594	14.4612	-3.75245	-9.70136	-13.994	0
0.7267	6.77932	296.238	328.332	8.0115	-3.78529	12.6259	-9.2368	593.345	-16.7292	-0.643684
0.7273	-18.5394	235.502	236.464	8.61022	-2.87217	15.3789	-11.3728	962.284	-17.6198	0
0.7280	-21.906	-5.82552	204.469	8.2966	-0.730495	18.4167	-11.3728	953.734	-14.8846	0.321842
0.7287	-28.9159	-159.015	163.855	8.2966	0.796904	19.3344	-12.9027	667.791	-9.09612	0.321842
0.7293	-33.8044	-141.646	87.5965	9.52256	3.8351	21.4862	-12.9027	306.785	-2.98963	0.321842
0.7300	-23.105	-226.224	82.0829	8.0115	6.27562	23.3215	-12.2965	75.1444	0.699702	0.321842
0.7307	-29.5154	-441.337	0.310626	5.24596	6.59106	22.4038	-14.115	-10.318	3.4349	0.321842
0.7313	-43.2585	-530.122	-200.82	4.96086	7.50418	23.3215	-15.3273	-161.676	7.06063	0.321842
0.7320	-7.84003	-674.789	-219.147	6.1583	10.559	26.9605	-15.0387	-337.451	10.4319	0.321842
0.7327	40.9987	-961.102	-68.9589	4.64724	10.2435	25.7581	-17.4633	-407.334	12.2766	0.321842
0.7333	35.1879	-1063.59	-65.6197	1.91021	6.8899	21.4862	-21.1292	-407.95	10.75	0
0.7340	14.4349	-650.084	-251.452	0.969363	1.71002	17.499	-22.659	-273.981	4.96152	0
0.7347	43.7197	35.7083	-391.544	0.684256	-6.22581	11.3918	-25.1126	-180.585	-2.67159	0
0.7353	84.6262	384.484	-449.553	0.684256	-12.3354	7.11986	-27.5372	-353.319	-7.88755	0
0.7360	75.4487	209.934	-555.166	3.42128	-15.0748	7.11986	-26.0074	-493.701	-11.8313	0
0.7367	59.907	-284.803	-528.608	5.8732	-18.7438	5.91739	-23.2652	-359.115	-16.4112	0
0.7373	65.7179	-564.644	-321.653	4.33362	-21.1844	4.68329	-21.4467	-127.186	-17.6198	0.321842
0.7380	31.2218	-433.677	-271.332	2.50894	-19.9558	7.11986	-17.4633	132.818	-15.2026	0.321842
0.7387	-18.2165	82.636	-346.115	2.50894	-18.7438	9.27164	-13.1913	464.268	-13.994	0.643684
0.7393	-32.882	851.065	-382.691	2.50894	-17.5153	9.87287	-12.2965	641.852	-13.0399	0.643684
0.7400	-39.8919	1093.69	-577.997	4.96086	-13.8628	13.5436	-11.979	528.354	-11.1952	0.321842
0.7407	-36.2486	808.021	-779.127	7.38426	-12.3354	15.0625	-11.3728	296.097	-8.77808	0.321842
0.7413	-14.2504	744.587	-656.741	5.24596	-13.2485	13.2271	-11.0553	100.795	-4.51626	0.321842
0.7420	11.3911	850.202	-361.025	5.55958	-9.57945	15.9801	-10.4491	-5.09732	0.0636092	0
0.7427	33.0665	779.109	-79.6755	10.4349	-3.78529	20.8533	-11.0553	4.64514	3.11685	0.321842
0.7433	24.4886	558.063	168.437	13.4855	0.796904	23.0051	-12.5851	78.803	5.27957	0.321842
0.7440	-1.42965	370.999	415.307	15.0251	5.67794	25.4416	-12.5851	161.84	12.5946	0.321842
0.7447	-22.1827	311.234	669.554	16.2511	9.9447	28.1946	-11.6903	147.781	25.3801	0.321842
0.7453	-55.7564	117.697	598.421	13.7992	11.7709	29.1123	-11.6903	-117.115	37.9111	0.321842
0.7460	-80.4756	-347.373	75.948	7.38426	13.9126	29.1123	-12.5851	-366.144	51.3327	0.321842
0.7467	-55.4336	-788.279	-329.885	2.19532	17.8805	31.2324	-11.3728	-336.834	63.2276	0.321842
0.7473	-6.64096	-1131.34	-405.6	-0.228085	20.321	34.9031	-11.3728	-213.224	71.4968	0.321842
0.7480	-0.230589	-1552.5	-523.405	-1.45404	20.6199	35.8208	-12.9027	-170.226	76.9672	0.321842
0.7487	5.58026	-1669.98	-614.03	-2.08128	18.4948	37.3397	-13.8263	-144.863	69.3341	0.321842
0.7493	98.9688	-1023.35	-355.511	-0.541703	11.4721	41.0104	-16.5685	23.5957	46.7528	0.321842
0.7500	182.258	-372.617	53.9712	2.19532	-0.730495	36.7385	-20.523	206.359	32.6952	0.321842
0.7507	170.682	-235.07	230.096	4.64724	-15.3902	28.1946	-23.5827	22.3625	29.3875	0.321842
0.7513	119.722	202.275	107.088	9.52256	-26.0654	26.0429	-22.9765	-552.607	17.1745	0
0.7520	47.0863	834.883	-70.5121	15.3387	-30.6476	25.1252	-20.523	-787.578	4.00738	0.321842
0.7527	-20.9836	1056.14	92.4888	21.44	-30.9464	20.8533	-19.3107	-257.785	7.69672	0.321842
0.7533	-54.8341	1197.14	569.455	34.8685	-28.5059	17.499	-18.0984	383.08	17.1745	0.321842
0.7540	-78.6309	1274.71	789.456	46.7575	-27.5928	15.6637	-17.4633	672.395	18.065	0.321842
0.7547	-87.8083	1048.81	602.381	47.6698	-27.5928	12.0247	-19.5993	753.87	-2.0991	0
0.7553	-89.9297	780.619	449.243	48.5822	-21.1844	11.7082	-21.7354	646.127	-28.6242	-0.643684
0.7560	-118.615	648.79	358.54	45.2179	-12.9497	13.5436	-22.3704	316.856	-21.3091	0
0.7567	-158.599	462.913	84.1796	37.292	-10.1937	11.3918	-22.9765	35.4757	4.64347	0.321842
0.7573	-143.657	137.871	-194.374	34.8685	-10.1937	9.87287	-22.659	-96.0681	11.9585	0.321842
0.7580	-66.7325	-123.63	-389.991	35.4673	-7.75321	11.7082	-19.5993	-168.376	11.068	0.321842
0.7587	-18.2165	-278.654	-576.522	36.6932	-1.95906	13.86	-13.1913	-159.209	14.1213	0.321842
0.7593	-1.42965	-685.793	-485.819	33.9277	2.00886	14.1448	-8.91929	-310.279	13.1671	0
0.7600	53.8195	-1129.83	-44.5748	29.0524	1.09574	12.3094	-9.2368	-471.133	27.2248	0
0.7607	108.746	-644.906	291.134	22.6375	-1.34478	11.107	-11.979	-166.239	65.9628	0.321842
0.7613	86.1481	311.234	360.714	16.2511	-3.78529	11.3918	-14.7212	164.265	92.2334	0
0.7620	15.9568	502.613	532.801	20.8128	-5.61153	10.1893	-16.8572	77.6109	86.763	0
0.7627	-30.1149	180.052	767.168	26.629	-5.61153	9.27164	-19.5993	94.0539	46.1167	0
0.7633	-20.6608	51.5666	708.305	19.5868	-2.87217	11.107	-20.8405	323.269	13.4852	0.321842
0.7640	21.4448	158.691	489.469	3.7349	0.796904	13.2271	-22.0529	301.893	19.5916	0.643684
0.7647	40.9987	154.376	375.935	-10.606	2.00886	13.5436	-22.9765	104.125	-35.9392	0.321842
0.7653	32.4208	16.7214	312.49	-19.7579	1.39458	12.3094	-24.5064	-29.5152	-130.272	0
0.7660	25.7337	4.20732	209.362	-30.1358	2.92198	13.5436	-26.0074	34.8591	-141.849	0.321842
0.7667	25.4109	-57.7158	36.8868	-40.2285	8.73274	16.2966	-25.4012	263.129	-105.846	0.643684
0.7673	31.8213	-374.451	-220.389	-42.9656	12.0864	17.499	-23.5827	343.083	-77.7305	0.321842
0.7680	40.0764	-639.728	-466.327	-39.6013	10.559	18.4167	-22.659	266.787	-57.3119	0
0.7687	31.4985	-647.927	-663.186	-34.1273	9.03158	22.0874	-20.2344	218.568	-38.6744	0.321842
0.7693	22.9667	-602.509	-842.883	-22.8085	8.73274	25.4416	-17.1747	224.077	-22.1996	0.321842
0.7700	30.6222	-390.957	-908.192	-5.41703	8.4173	25.7581	-17.7808	170.966	-13.676	0.321842
0.7707	28.4547	54.9109	-755.597	4.02	10.559	27.5934	-18.0984	-89.9431	-8.46003	0.321842
0.7713	24.2119	355.464	-366.849	6.1583	13.9126	31.2324	-14.7212	-323.105	-2.0991	0
0.7720	47.0863	228.274	126.658	15.0251	13.6138	31.8653	-11.0553	-312.129	-2.35354	0
0.7727	63.8732	-217.917	475.413	29.0524	10.559	29.7135	-9.2368	-281.915	-9.6686	0
0.7733	26.6561	-487.725	544.76	36.3796	10.2435	27.5934	-8.31312	-255.359	-11.1952	0.321842
0.7740	-45.9795	-634.226	393.33	35.4673	13.2983	24.2075	-10.1605	-92.6973	-9.6686	0.321842
0.7747	-89.9297	-697.12	313.732	31.1907	16.0543	19.0496	-11.979	74.8567	-12.7218	0.321842
0.7753	-65.2106	-155.671	436.119	22.0387	14.2115	13.5436	-10.4491	119.705	-3.30768	0.321842
0.7760	-11.8062	652.674	411.968	8.61022	2.92198	5.60096	-9.55432	36.0923	11.3861	0.321842
0.7767	14.4349	890.117	271.254	-2.08128	-13.8628	-5.98068	-11.6903	-84.147	2.22632	0.321842
0.7773	25.4109	417.172	372.285	-13.6566	-24.538	-13.0056	-13.5088	-15.1687	-10.6227	0.643684
0.7780	41.875	55.2345	539.246	-33.1864	-23.0106	-12.0879	-12.2965	167.636	14.6937	0
0.7787	26.6561	259.667	459.571	-53.6571	-17.5153	-9.9678	-11.3728	132.53	59.6019	0.321842
0.7793	-40.8143	589.564	159.584	-64.3201	-12.9497	-7.81602	-11.979	30.5839	79.7024	0.321842
0.7800	-106.44	931.004	-64.6878	-66.1447	-7.75321	-3.22767	-11.0553	94.0539	93.76	0
0.7807	-107.039	1146.22	-74.7832	-63.7213	-3.48645	0.41137	-7.10079	-20.0604	126.074	0
0.7813	-47.2246	854.733	-100.41	-63.4077	-3.78529	-2.34164	-5.88846	-356.689	173.717	0
0.7820	12.3135	121.365	-136.753	-58.846	-5.01385	-7.49959	-7.41831	-389.945	224.668	0
0.7827	54.419	-469.062	-72.0652	-41.426	-2.87217	-8.41726	-4.96478	-14.552	241.461	0.321842
0.7833	84.3034	-500.563	-130.618	-24.6617	0.182624	-9.33493	-3.43494	370.255	209.402	0.321842
0.7840	70.2835	-162.359	-370.499	-19.1592	2.62314	-13.6068	-5.88846	497.195	166.402	0
0.7847	27.5323	117.158	-594.227	-13.6566	4.76482	-16.9611	-6.49463	361.088	123.656	0
0.7853	-0.507296	71.9559	-705.897	10.1498	7.50418	-12.4044	-3.11742	127.022	46.7528	0
0.7860	-16.0951	-147.472	-665.283	44.0205	11.4721	-4.46178	-0.69276	9.53693	-52.096	-0.321842
0.7867	-12.7285	-411.778	-365.296	61.7256	15.44	0.126575	0.23092	44.9304	-145.22	0.321842
0.7873	-9.68474	-829.812	-237.784	54.6835	18.7936	0.41137	0.51957	26.021	-198.27	0.321842
0.7880	-9.68474	-1043.74	-741.93	33.0154	17.2663	-2.34164	-1.29893	-214.745	-186.375	0
0.7887	34.2655	-766.918	-1062.65	6.47192	12.0864	-2.62644	-3.75245	-490.042	-176.643	0
0.7893	88.5923	-175.844	-979.326	-13.6566	3.8351	-5.06301	-5.88846	-627.053	-211.437	0
0.7900	95.0027	301.74	-1354.41	-16.4221	-3.48645	-10.8855	-8.63064	-740.592	-248.012	0
0.7907	45.5644	166.243	-1692.52	-10.0072	-2.87217	-7.81602	-8.91929	-753.705	-253.864	0.321842
0.7913	-32.2825	374.451	-1197.23	-22.5234	-1.04594	0.41137	-7.41831	-615.749	-219.07	0.321842
0.7920	-81.3979	1214.84	-300.608	-27.7124	-3.48645	4.99972	-5.88846	-475.983	-164.112	0.321842
0.7927	-89.3302	1033.27	449.476	16.5362	-5.31269	12.9423	-4.0411	-236.45	-133.325	0
0.7933	-51.7903	251.144	782.777	73.6145	-5.01385	21.4862	-3.11742	-210.511	-127.791	0.321842
0.7940	38.8312	35.061	812.054	104.121	-5.61153	25.4416	-3.11742	-578.546	-122.003	0.321842
0.7947	96.8474	-111.44	1026	107.485	-5.61153	28.1946	-2.51126	-617.311	-103.683	0.321842
0.7953	47.6858	-297.641	1319.54	98.3333	0.182624	33.9855	-0.375245	-150.371	-82.0559	0.321842
0.7960	-55.7564	-426.989	1233.5	89.1814	8.73274	39.4915	3.89678	543.893	-71.0515	0.321842
0.7967	-117.093	-719.667	872.47	77.8911	10.2435	35.8208	5.71527	1136.54	-65.8356	0.321842
0.7973	-108.561	-728.19	624.358	82.4528	7.80302	26.6757	4.18543	1067.6	-58.8386	0.643684
0.7980	-63.3659	-230.432	632.59	98.0197	6.59106	20.5685	2.9731	505.457	-60.3652	0.643684
0.7987	-35.3262	252.331	656.43	100.158	3.23742	15.6637	2.36693	127.351	-65.2631	0.321842
0.7993	-36.8481	510.164	576.755	127.927	-3.17101	5.31616	-0.086595	56.5227	-63.4184	0.321842
0.8000	-17.617	483.086	573.105	170.665	-6.22581	-4.77822	-3.43494	-14.8809	-60.3652	0
0.8007	20.2457	165.056	621.329	153.558	-5.01385	-9.65137	-4.64727	-55.454	-42.3638	0
0.8013	43.1202	-25.3518	644.549	100.158	-3.17101	-11.8031	-5.2823	127.351	-12.4674	0.321842
0.8020	48.2854	259.343	497.7	60.7847	-1.64361	-13.6068	-5.57095	348.303	-2.67159	0.643684
0.8027	18.7238	656.989	73.8513	20.2141	0.182624	-19.4293	-3.43494	466.405	-1.78106	0.321842
0.8033	-17.2942	746.421	-342.154	-27.3988	-1.04594	-28.8908	-2.22261	646.744	28.7514	0
0.8040	-34.4039	704.348	-522.783	-56.9928	-5.01385	-34.9664	-3.43494	693.442	68.1255	0.321842
0.8047	-64.9339	644.798	-618.301	-63.4077	-10.1937	-34.6816	-2.82877	318.994	82.1831	0.321842
0.8053	-70.4219	368.302	-703.723	-55.4818	-13.5474	-31.3274	-0.69276	-90.272	76.3311	0.321842
0.8060	-26.1488	-6.14916	-565.805	-33.5	-11.1068	-26.739	0.837085	-233.079	58.6477	0.321842
0.8067	19.0005	-51.8902	-171.854	-9.40852	-5.61153	-20.6318	5.42662	-243.767	64.4362	0.321842
0.8073	60.8294	93.9634	251.141	7.09916	-3.78529	-19.1129	9.38113	-152.796	103.238	0.321842
0.8080	84.6262	80.8021	528.841	21.44	-2.25789	-22.4671	9.69864	127.351	121.812	0.643684
0.8087	58.0623	-56.8527	668.622	36.6932	3.8351	-20.0305	10.5935	497.195	119.395	0.321842
0.8093	16.8791	-235.61	635.075	45.2179	10.8578	-16.0751	13.047	602.183	134.979	0.321842
0.8100	9.54639	-234.099	321.653	42.4809	15.1412	-18.5116	13.047	324.79	109.026	0.321842
0.8107	19.0005	85.6567	31.4509	34.8685	19.0925	-23.7012	10.911	76.3776	15.0118	0.321842
0.8113	22.3671	107.341	12.5027	16.5362	20.321	-31.3274	6.63895	233.86	-42.3638	0
0.8120	26.3333	-571.979	-12.5027	-10.0072	18.1794	-39.5548	2.36693	484.41	-51.8415	0
0.8127	12.3135	-1149.68	-121.144	-23.4358	16.3531	-45.3456	1.76077	372.105	-50.3149	0.321842
0.8133	-7.2405	-1019.03	-40.3037	-35.0396	14.8257	-48.415	4.50294	65.402	-77.4761	0.321842
0.8140	0.0922356	-657.96	245.317	-60.0435	10.2435	-50.5352	5.10911	-156.784	-150.69	0.321842
0.8147	13.5125	-296.023	342.698	-90.8635	6.27562	-52.3705	6.03279	-253.222	-150.054	0.321842
0.8153	-6.31814	-38.8368	119.902	-121.712	7.80302	-52.0857	9.98729	-142.437	-64.627	0.321842
0.8160	-36.2486	-26.8621	1.7861	-145.804	9.64586	-52.3705	11.1996	55.6184	-12.7218	0.321842
0.8167	-32.2825	207.777	110.427	-159.546	7.50418	-57.8765	8.45745	22.0336	0.0636092	0.321842
0.8173	-22.1827	535.192	149.799	-169.011	6.59106	-65.5027	6.9276	-171.418	14.1213	0.321842
0.8180	-24.3041	638.649	157.798	-175.113	8.11846	-71.8948	5.71527	-371.611	26.0162	-0.321842
0.8187	-29.1926	628.616	224.893	-179.674	6.27562	-79.5209	4.79159	-480.258	45.5442	-0.321842
0.8193	-52.3898	479.634	262.168	-188.541	2.00886	-88.0964	3.29061	-356.689	89.8163	0.321842
0.8200	-78.3542	301.201	259.683	-204.707	-0.431656	-93.8872	1.44325	-218.445	140.767	0.643684
0.8207	-96.3401	202.599	153.527	-216.909	0.182624	-96.925	0.837085	-118.636	174.353	0.321842
0.8213	-100.629	110.685	-27.4904	-218.734	0.796904	-96.6402	0.23092	-15.4975	186.82	0.321842
0.8220	-81.3979	57.0685	-16.7738	-209.896	2.62314	-90.533	0.23092	13.8121	201.514	0
0.8227	-76.1866	121.149	144.907	-190.366	4.44938	-85.0269	0.837085	189.3	194.453	0.321842
0.8233	-59.123	225.793	73.23	-166.873	3.23742	-79.5209	0.51957	416.049	80.911	0.321842
0.8240	19.0005	267.326	-265.197	-145.804	3.23742	-70.0911	-0.086595	165.499	-53.0501	0
0.8247	80.9368	172.392	-500.185	-130.237	4.44938	-62.4333	-0.98141	-499.497	-61.8918	0.321842
0.8253	84.6262	-13.8086	-429.984	-119.26	2.92198	-56.9589	-3.75245	-826.342	-2.98963	0.321842
0.8260	60.5066	-83.0675	-259.683	-106.145	2.92198	-49.3327	-4.96478	-457.074	32.6952	0
0.8267	4.05837	-22.0075	-189.87	-87.8129	6.27562	-38.6371	-3.11742	147.165	44.6537	0
0.8273	-39.8919	-10.1407	-109.263	-72.2745	6.27562	-31.3274	-4.64727	535.671	48.2794	0
0.8280	-41.7366	-59.8734	69.2696	-57.6201	5.97678	-25.5049	-7.70696	602.512	43.3815	0
0.8287	-29.8382	-72.7111	149.489	-36.8643	9.03158	-16.6763	-6.49463	295.48	33.6493	0.321842
0.8293	11.0683	-58.9024	52.1851	-18.5604	10.2435	-10.569	-7.10079	-122.007	21.7544	0.321842
0.8300	48.0086	-69.3668	-22.9087	-0.228085	11.4721	-6.29712	-8.91929	-262.389	9.85943	0.321842
0.8307	30.2994	-88.5694	-111.437	28.4536	16.652	2.56315	-5.88846	-211.416	1.90828	0.321842
0.8313	6.77932	-77.8893	-500.496	44.6192	18.1794	9.27164	-6.17711	-214.458	-5.15235	0
0.8320	19.6001	-58.6867	-1172.77	44.6192	17.2663	10.1893	-9.84297	-322.2	-11.8313	0
0.8327	33.3432	-89.1088	-1768.47	50.7205	18.4948	12.9423	-9.2368	-486.383	-15.2026	0
0.8333	-6.64096	-120.61	-1930.54	41.8822	17.5817	15.3789	-8.31312	-590.426	-17.6198	0.321842
0.8340	-85.3641	-80.91	-1541.79	21.44	15.1412	15.6637	-9.84297	-554.416	-18.8283	0.321842
0.8347	-117.416	-116.618	-959.756	30.2783	17.2663	19.3344	-8.31312	-397.55	-16.7292	0.321842
0.8353	-81.9975	-402.932	-520.609	44.3056	17.8805	20.5685	-6.49463	-237.642	-13.3579	0
0.8360	-13.0513	-604.02	-35.1007	41.5686	12.6841	18.4167	-8.91929	-329.517	-15.2026	0
0.8367	63.8732	-495.061	402.493	39.1166	10.559	20.252	-8.91929	-580.684	-10.6227	0.321842
0.8373	89.1918	-243.269	584.986	33.0154	12.0864	22.6886	-8.63064	-664.913	15.9659	0.321842
0.8380	83.381	188.25	661.012	27.5413	11.7709	22.6886	-10.4491	-429.614	43.6996	0.321842
0.8387	83.381	361.937	575.279	34.5549	13.6138	23.9227	-9.2368	171.583	56.2306	0.321842
0.8393	65.7179	132.369	408.318	37.9192	15.1412	23.0051	-6.49463	723.943	64.4362	0
0.8400	69.684	77.4578	310.626	28.14	11.7709	19.0496	-9.2368	821.615	70.8607	0
0.8407	84.3034	-33.3349	148.013	18.3894	10.559	18.1319	-11.979	564.94	53.7498	0.321842
0.8413	73.6501	-440.69	87.5965	8.92384	10.8578	18.7331	-12.5851	306.785	-1.14497	0
0.8420	81.8591	-531.632	253.315	-1.76766	9.03158	16.8978	-13.1913	363.225	-43.2543	0.321842
0.8427	92.5584	-100.113	419.888	0.969363	7.50418	15.6637	-11.3728	523.462	-29.8327	0.321842
0.8433	61.1061	313.715	598.421	11.6609	6.27562	15.0625	-7.70696	535.959	-4.19821	0
0.8440	24.4886	356.112	745.813	14.3979	2.00886	11.7082	-6.49463	526.216	-0.572483	0
0.8447	-5.71861	263.659	732.689	18.0758	-1.34478	9.27164	-5.57095	550.634	-9.6686	0.321842
0.8453	-31.6368	260.53	736.106	24.7758	-0.431656	10.5057	-2.51126	554.868	-21.8816	0.321842
0.8460	-27.6707	185.446	711.023	23.2647	0.796904	10.5057	-0.375245	500.278	-27.0975	0.321842
0.8467	-12.129	35.7083	474.559	20.8128	2.00886	9.58808	1.1546	372.68	-24.3623	0
0.8473	-12.129	9.06191	196.859	29.0524	3.8351	10.7905	1.44325	205.455	-22.5177	0
0.8480	-20.338	75.3002	68.9589	41.2549	4.76482	12.9423	1.1546	85.2158	-22.8357	0.643684
0.8487	-39.5691	131.182	14.91	43.1081	3.23742	12.3094	1.1546	4.35739	-23.4082	0.321842
0.8493	-60.3221	95.1501	-73.23	33.329	2.3243	9.87287	-0.086595	-100.343	-19.4644	-0.321842
0.8500	-53.0355	-24.8124	-78.433	26.0017	3.8351	10.5057	-0.086595	-146.425	-11.8313	0
0.8507	-29.1926	-44.8781	72.6088	27.2277	4.76482	12.3094	1.1546	-96.6436	-8.46003	0.321842
0.8513	-8.43956	-17.4765	212.08	30.2783	5.3625	13.2271	1.1546	-103.056	-8.46003	0.321842
0.8520	5.25743	-58.0394	266.129	32.7302	6.59106	15.3789	2.36693	-65.5253	-9.09612	0.321842
0.8527	5.25743	-92.561	286.863	33.329	5.3625	14.7777	1.44325	185.641	-10.9408	0
0.8533	-3.27436	-111.764	234.988	31.8179	3.53626	12.6259	-2.22261	294.864	-10.6227	0
0.8540	-19.4617	-109.282	66.241	30.2783	3.8351	12.6259	-4.64727	105.071	-8.46003	0
0.8547	-33.8044	-112.087	-199.888	28.4536	3.23742	11.3918	-6.78328	-20.0604	-8.46003	0
0.8553	-31.9596	-110.577	-395.194	27.2277	2.62314	10.5057	-8.31312	99.85	-8.46003	0
0.8560	-18.2165	-43.0441	-466.327	26.3153	4.44938	11.107	-6.49463	313.814	-6.93341	0
0.8567	-11.2066	26.7542	-553.924	22.6375	3.8351	9.27164	-4.96478	326.599	-5.72483	0.321842
0.8573	-20.9836	88.1379	-520.065	17.4485	0.796904	6.20219	-5.2823	2.2198	-5.15235	0.321842
0.8580	-43.2585	165.919	-300.919	14.3979	1.71002	7.75274	-3.75245	-389.329	-2.35354	0
0.8587	-67.6548	165.38	-75.4044	12.2596	4.76482	11.107	0.23092	-562.679	1.59023	0.321842
0.8593	-45.7028	31.0694	71.6769	11.0621	7.50418	12.6259	4.50294	-622.161	4.00738	0
0.8600	18.0782	-97.0919	248.112	10.1498	10.559	16.5814	8.77496	-717.695	3.11685	0
0.8607	37.6321	-97.0919	524.88	10.7485	10.8578	20.5685	12.7295	-892.566	-0.572483	0.321842
0.8613	19.3234	-19.8499	506.553	15.6238	9.9447	23.0051	14.2593	-858.694	-6.67897	0.321842
0.8620	25.7337	10.0328	248.734	22.6375	10.8578	26.6757	15.183	-376.832	-13.994	0
0.8627	24.8114	-26.6463	171.155	27.8264	10.8578	29.7135	16.1067	-128.707	-20.1005	0
0.8633	-13.9276	41.1023	106.778	29.366	10.2435	29.3971	16.1067	-338.068	-22.5177	0.321842
0.8640	-53.0355	236.149	29.8977	28.4536	9.64586	27.277	14.2593	-260.539	-22.8357	0.321842
0.8647	-89.653	345.971	15.8419	26.0017	8.11846	24.8404	11.8347	153.577	-22.1996	0.321842
0.8653	-125.948	258.157	-177.911	22.3524	7.50418	21.4862	10.911	426.408	-19.1464	0.321842
0.8660	-121.059	74.9765	-459.338	20.4992	9.33042	20.8533	12.1233	361.088	-14.8846	0
0.8667	-73.4657	-135.821	-450.175	19.9004	11.4721	22.0874	12.7295	-100.631	-11.8313	0
0.8673	-38.9696	-284.156	-190.724	18.6745	12.0864	21.7709	12.4408	-464.72	-9.41417	0
0.8680	-4.19672	-311.665	-27.4904	18.0758	12.3852	21.4862	11.8347	-237.971	-6.93341	0.321842
0.8687	64.196	-334.859	37.5081	17.7621	12.6841	22.6886	11.5171	15.9497	-4.8343	0
0.8693	95.925	-297.856	143.431	15.9375	10.8578	20.8533	9.69864	73.9112	-3.62573	0
0.8700	69.3612	-179.512	187.696	15.0251	10.559	19.9356	8.77496	198.138	-2.67159	0.321842
0.8707	44.3192	-124.601	130.929	14.3979	11.7709	21.7709	9.38113	86.7367	-0.82692	0
0.8713	36.1102	-97.7392	37.1974	11.6609	11.1733	20.252	8.1688	15.9497	-0.254437	0
0.8720	37.9088	-55.0188	-20.4236	11.0621	10.2435	18.1319	7.56263	351.633	-0.82692	0
0.8727	42.5206	-39.1604	8.54221	12.5732	10.2435	19.3344	8.1688	566.173	-2.35354	0
0.8733	31.2218	-14.6717	67.0952	12.8868	9.03158	18.4167	8.45745	419.378	-3.62573	0
0.8740	10.7916	36.5713	87.2859	13.2004	7.20534	16.2966	7.85128	248.495	-5.15235	0.321842
0.8747	15.9568	83.8227	59.7955	13.4855	8.11846	17.2142	6.32144	260.703	-5.72483	0.321842
0.8753	32.4208	70.4456	10.0953	12.8868	9.9447	17.8155	5.10911	371.488	-5.72483	0
0.8760	38.8312	-17.4765	-34.7901	11.6609	11.1733	16.8978	5.42662	357.758	-3.88016	-0.321842
0.8767	56.8633	-91.9137	-47.6034	10.7485	11.1733	15.6637	6.63895	199.042	-1.46301	0.321842
0.8773	65.0722	-90.0797	-50.399	8.2966	8.4173	12.6259	6.9276	81.5572	0.381655	0.321842
0.8780	46.4868	-50.0563	-107.71	6.47192	5.97678	10.5057	6.63895	38.5177	1.27218	0.321842
0.8787	26.0104	-36.3555	-188.006	6.47192	7.20534	12.0247	7.85128	22.9791	1.59023	0.321842
0.8793	8.0245	-55.0188	-219.457	6.78554	7.80302	12.3094	7.85128	25.6922	0.381655	0
0.8800	-12.7285	-74.2214	-219.768	6.47192	6.8899	11.3918	8.1688	8.63257	0.0636092	0
0.8807	-19.4617	-71.4165	-210.915	7.38426	8.11846	13.2271	9.69864	-22.198	0.381655	0.321842
0.8813	-0.507296	-41.5338	-151.663	7.09916	7.50418	13.2271	8.77496	-17.6351	-0.82692	0.321842
0.8820	20.2457	-10.4644	-2.48501	6.1583	5.67794	10.1893	6.03279	12.9077	-2.0991	0
