MR32 ASCII
Name	USMC15_fast
Frequency	1500
Date	31-08-2015 14:41:14
"Time,s"	"RT TIB.ANT.,uV"	"RT MED. GASTRO,uV"	"RT LAT. GASTRO,uV"	"RT BICEPS FEM.,uV"	"RT VMO,uV"	"RT VLO,uV"	"RT RECTUS FEM.,uV"	"RT SOLEUS,uV"	"RT SEMITEND.,uV"	"Channel 12,uV"
0.0000	11.5435	-8.25638	-2.99272	9.56201	-17.7296	-19.4218	369.865	-10.2061	3.67785	-10181.1
0.0007	12.475	-8.25638	-4.51731	6.47917	-20.1736	-7.54706	422.342	-12.6505	6.71047	-10004.6
0.0013	18.8746	-8.01355	-5.13844	5.27739	-20.4843	-10.2914	404.339	-15.6952	8.25904	-9579.23
0.0020	23.7755	-5.82804	-2.99272	6.47917	-12.5515	-27.0744	289.9	-18.4397	5.1619	-9912
0.0027	45.1208	-3.07591	-1.46812	9.2485	-4.30812	-30.716	127.229	-22.0847	0.322619	-9808.54
0.0033	93.6438	-0.32378	1.24226	13.2196	-0.352106	-18.5246	-67.4705	-23.9287	-0.903333	-9801.08
0.0040	132.122	4.8567	5.8725	11.7043	0.869908	-4.80267	-168.179	-25.4296	2.71	-9816.93
0.0047	116.245	10.361	11.0109	8.30797	3.31394	7.12485	-240.809	-25.1294	7.03309	-9816.93
0.0053	72.2985	11.2513	12.5355	8.30797	0.579939	4.961	-386.068	-24.5291	7.03309	-9800.77
0.0060	53.0594	11.5751	11.9709	11.3908	-5.84081	-8.76092	-329.614	-24.2289	3.03262	-9809.47
0.0067	39.3288	11.2513	11.0109	12.5926	-7.97416	-15.7802	-168.179	-23.3283	2.12928	-9912.94
0.0073	8.50571	7.9326	8.30055	9.87552	-7.97416	-11.1886	-233.769	-23.3283	5.48452	-9576.44
0.0080	-17.7405	5.42331	5.8725	8.93499	-2.17477	-2.95549	-360.434	-26.373	5.80714	-10018.9
0.0087	-45.5258	2.99496	4.63024	10.7638	4.22527	-2.05829	-374.782	-28.1741	3.93595	-10175.5
0.0093	-79.3866	-1.86173	0.677596	10.4503	0.269257	-10.6081	-322.897	-27.8739	2.4519	-4882.21
0.0100	-96.479	-8.25638	-3.89618	11.7043	-6.75215	-16.0969	-233.769	-24.8292	0.322619	108.438
0.0107	-116.609	-17.4032	-9.42988	14.1079	-5.84081	-12.4025	-137.332	-18.4397	-2.77452	108.438
0.0113	-154.439	-27.1975	-16.714	16.8772	3.62462	-14.5664	-10.9898	-8.66236	-7.6138	-236.141
0.0120	-161.77	-32.7018	-19.4809	21.4231	14.0014	-24.33	149.827	4.15965	-13.7436	96.942
0.0127	-130.34	-33.2684	-17.9563	26.3347	24.0675	-32.8798	235.569	13.937	-19.8733	-7.14636
0.0133	-86.3937	-28.0879	-14.286	26.3347	38.1103	-30.716	191.932	14.8375	-22.2607	-13.982
0.0140	-20.7782	-17.1603	-6.66303	22.3636	45.7323	-6.01654	70.7755	10.8494	-16.7762	2.17498
0.0147	51.5203	-8.58016	-0.846995	17.1907	39.3323	19.3163	-29.3151	9.34849	-9.16237	-0.310711
0.0153	75.0528	-5.26142	0.677596	14.1079	35.3556	24.805	-17.7073	5.36037	-5.22642	-0.310711
0.0160	67.1141	1.21417	5.8725	14.7349	39.9329	25.755	40.2781	-5.01731	-4.00047	-0.621423
0.0167	69.5443	11.8989	14.0601	15.9367	36.2876	27.2855	54.3042	-15.9953	-4.25857	-0.621423
0.0173	70.4759	16.108	17.7304	16.5637	20.7121	24.4884	54.5998	-19.6404	-4.25857	0
0.0180	80.8447	10.0372	12.8743	15.6754	13.38	20.2662	72.9251	-18.1395	-3.03262	0.310711
0.0187	55.4896	-0.32378	3.72678	14.7349	17.9781	18.1024	102.213	-16.8959	-4.00047	0.310711
0.0193	-60.1475	-9.22772	-1.46812	16.2502	19.4901	18.7357	117.476	-17.1961	-3.03262	0
0.0200	-167.887	-16.5128	-6.3807	16.8772	11.868	14.4608	86.3601	-20.2408	0	0
0.0207	-195.955	-22.5836	-12.4791	13.7944	2.4026	7.12485	34.1517	-20.5838	1.22595	0.310711
0.0213	-191.986	-26.3071	-14.6248	15.0484	2.4026	8.65537	42.6964	-15.395	0.322619	0
0.0220	-162.095	-31.1638	-17.674	16.8772	3.31394	9.55257	106.808	-10.5063	-0.645238	0
0.0227	-129.449	-36.0205	-23.1512	15.0484	0.579939	4.69712	134.565	-10.5063	-0.322619	0
0.0233	-141.64	-35.4539	-21.2878	15.6754	4.22527	5.59432	119.303	-11.4069	0.580714	0
0.0240	-143.179	-30.84	-17.9563	15.0484	6.37933	4.69712	118.685	-12.9507	1.80667	0
0.0247	-115.07	-25.6595	-17.0528	12.5926	4.53595	-1.74163	128.465	-17.4963	2.4519	0
0.0253	-53.424	-19.5887	-10.9545	15.0484	7.89131	-0.79165	126.316	-19.3402	0.903333	0
0.0260	104.944	-11.0085	-3.33151	15.9367	9.73469	-0.527766	127.552	-20.884	-0.322619	0.310711
0.0267	244.721	-1.53795	2.20219	12.5926	6.97998	-5.06656	10.3718	-27.5738	2.12928	0
0.0273	230.383	7.28504	8.92168	10.7638	7.29066	-4.48601	-192.9	-34.3064	5.1619	0.310711
0.0280	171.167	15.8652	15.5847	9.87552	8.20199	-3.85269	-147.731	-40.3958	6.38785	0.621423
0.0287	201.059	17.3222	16.5446	9.87552	8.80264	-4.48601	102.831	-40.6959	5.1619	0
0.0293	251.445	10.6038	11.9709	12.9061	12.7794	-2.05829	296.913	-32.4624	2.12928	-0.310711
0.0300	206.891	5.18048	9.20401	16.5637	15.5341	-0.211107	380.237	-21.4844	-1.54857	0.310711
0.0307	127.545	2.42835	9.20401	16.5637	15.5341	1.31942	357.048	-8.96254	-3.67785	0.310711
0.0313	85.0976	0.566615	9.20401	15.0484	16.1347	7.12485	281.974	0.171532	-3.67785	0.310711
0.0320	41.1514	-1.86173	8.30055	18.706	11.5574	11.0831	192.255	8.44795	-3.03262	0.310711
0.0327	-8.26269	-4.04725	6.77596	23.3041	4.84663	4.961	123.575	23.9716	-2.4519	0.621423
0.0333	-49.7787	-4.04725	7.05829	24.1924	5.15731	-4.80267	94.9048	35.8931	-1.87119	0
0.0340	-98.6257	-5.82804	8.30055	24.5059	10.0247	-12.4025	65.9121	45.07	-0.322619	-0.310711
0.0347	-140.709	-9.79434	7.05829	22.6771	11.2467	-18.8413	-16.4982	54.5043	-0.322619	0.310711
0.0353	-132.77	-10.4419	4.34791	21.7366	10.646	-21.5856	-170.302	53.6037	-1.22595	0.310711
0.0360	-54.9631	-9.22772	5.25137	24.8194	12.7794	-14.8302	-312.82	49.9158	-1.22595	0.310711
0.0367	39.9363	-4.93764	9.82514	24.8194	12.1787	-6.59708	-368.979	50.216	0.322619	0
0.0373	92.7527	2.10457	15.3024	19.333	8.20199	-4.16935	-359.52	53.9039	3.67785	0
0.0380	70.1519	4.20914	18.9727	25.3942	7.60134	1.63608	-327.787	65.4823	5.80714	0.310711
0.0387	2.99725	0.890394	18.0692	26.9617	6.6693	8.97203	-269.479	75.5598	7.29118	0.310711
0.0393	-16.8089	-1.29512	14.3989	-18.8105	3.62462	6.80819	-183.737	72.8153	7.03309	0.310711
0.0400	32.3217	-1.29512	13.7778	-52.4082	3.9353	4.38046	-112.639	63.9814	3.93595	0.310711
0.0407	95.4665	-1.29512	13.1567	-23.4086	5.44728	4.961	-81.4966	56.6484	1.54857	0.310711
0.0413	127.221	-3.72347	10.1075	5.5909	3.31394	3.1666	-76.9287	52.0599	3.35524	0.310711
0.0420	118.999	-8.58016	7.05829	9.87552	2.4026	2.21662	-75.6927	52.0599	5.48452	0
0.0427	86.3127	-13.194	3.72678	5.5909	1.49127	-0.211107	-69.5932	52.6603	6.38785	0
0.0433	53.991	-15.6224	0.0564663	0.104503	-1.26344	-3.58881	-66.5569	48.7151	8.51714	0
0.0440	28.6359	-16.5128	-1.80692	-2.03781	-2.17477	-4.16935	-65.6165	44.4268	10.6464	0
0.0447	4.86041	-16.8365	-2.37159	-2.66482	-3.0861	-3.85269	-60.753	40.4815	11.6143	0
0.0453	-7.97917	-15.2986	-2.08925	-3.29184	-4.92948	-4.16935	-54.0355	36.1932	11.8724	0
0.0460	-19.8872	-13.194	0.0564663	-4.49362	-5.53013	-3.85269	-44.5773	33.1485	14.0017	-0.310711
0.0467	-42.4475	-11.6561	1.58106	-7.26295	-5.84081	-4.16935	-34.7966	30.7042	15.8728	-0.310711
0.0473	-60.4715	-10.1181	0.677596	-8.46473	-7.06283	-5.38322	-28.106	27.0592	13.7436	0.310711
0.0480	-61.9702	-9.22772	-0.282332	-5.6954	-8.88549	-6.3332	-20.7705	22.1705	10.6464	0.621423
0.0487	-60.4715	-8.01355	0.0564663	-4.80713	-10.4182	-6.01654	-8.57152	17.8822	9.42047	0.310711
0.0493	-72.0555	-7.68977	1.24226	-5.3819	-10.4182	-4.80267	4.5679	14.5373	8.51714	0.310711
0.0500	-46.7409	-7.04221	1.24226	-3.8666	-11.6402	-5.69988	10.963	10.8494	7.03309	0.310711
0.0507	27.1373	-5.50426	0.959928	-3.8666	-14.9956	-7.54706	10.3718	7.20434	6.06523	0.310711
0.0513	35.0759	-3.72347	1.86339	-4.18011	-16.8182	-7.54706	9.43136	3.85947	6.38785	0.310711
0.0520	-25.6791	-3.07591	2.20219	1.30629	-17.7296	-8.1276	8.51778	1.41514	6.06523	0.310711
0.0527	-33.6178	-2.18551	4.00911	7.73321	-17.7296	-8.1276	10.963	-0.128649	6.38785	0.310711
0.0533	14.9052	1.21417	8.58288	7.10619	-16.2176	-6.59708	15.2353	-0.729011	7.93642	0.310711
0.0540	28.6359	3.9663	8.92168	1.61979	-17.4396	-7.54706	17.3849	-2.2728	6.38785	0.310711
0.0547	-2.18718	6.39465	9.20401	-1.14953	-18.0402	-8.44426	21.3348	-3.7737	3.03262	0.310711
0.0553	-28.1093	9.14678	11.0109	-1.14953	-16.8182	-7.54706	25.6071	-3.7737	1.54857	0.310711
0.0560	-55.5706	10.6038	11.0109	-1.46304	-17.1289	-7.81094	23.1888	-4.67424	0.580714	0.310711
0.0567	-78.7791	12.7893	13.1567	0.679268	-15.3062	-4.80267	18.594	-4.67424	0	0.310711
0.0573	-81.2093	11.8989	13.1567	1.61979	-14.3742	-2.63883	17.6804	-1.92973	-0.903333	0.310711
0.0580	-68.4102	7.9326	9.48635	2.82158	-15.9069	-4.80267	11.581	1.41514	-1.87119	0.621423
0.0587	-47.956	5.42331	8.30055	5.90441	-14.9956	-5.69988	-14.3486	3.25911	-2.12928	0.310711
0.0593	-24.7476	2.99496	5.8725	4.33687	-15.3062	-6.01654	-13.435	3.55929	-2.12928	0
0.0600	33.2128	0	3.10565	0.679268	-18.0402	-6.59708	65.2941	2.91604	-0.322619	0
0.0607	100.043	0	5.25137	1.61979	-18.9516	-3.85269	144.641	2.0155	2.71	0.310711
0.0613	96.1145	1.21417	5.8725	0.992777	-20.795	-4.48601	167.534	4.15965	3.93595	0.310711
0.0620	63.1448	2.42835	4.34791	-2.03781	-23.8396	-7.54706	158.99	6.60398	4.25857	0.310711
0.0627	49.0901	3.9663	5.5337	-3.29184	-25.0616	-7.81094	126.638	6.60398	5.48452	0.310711
0.0633	26.8132	3.9663	5.25137	-5.12064	-26.5943	-9.65813	83.5925	5.66055	6.71047	0.621423
0.0640	4.53638	3.64252	4.91257	-6.32242	-27.8164	-10.2914	46.6732	3.55929	7.6138	0.310711
0.0647	-4.00983	5.18048	7.05829	-4.80713	-26.2837	-7.2304	22.2483	2.31568	9.16237	0
0.0653	-7.37161	4.53292	5.8725	-6.32242	-27.195	-8.76092	15.8533	0.514596	9.16237	0.310711
0.0660	-7.04759	4.53292	4.91257	-6.63593	-26.5943	-12.0859	35.3878	-2.2728	6.38785	0.310711
0.0667	-7.37161	6.39465	7.67942	-3.8666	-22.6176	-13.0358	64.676	-2.2728	4.58119	0.310711
0.0673	-18.024	8.17544	8.58288	-5.3819	-22.3069	-15.7802	50.0319	-2.87316	4.90381	0.310711
0.0680	-32.6862	12.1417	11.0109	-5.12064	-20.4843	-15.1469	-22.3021	-5.61767	5.48452	0.310711
0.0687	-28.1093	17.3222	16.5446	-3.8666	-16.5075	-9.65813	-111.403	-6.81839	7.03309	0.310711
0.0693	-17.1329	19.8315	18.0692	-8.46473	-15.9069	-6.91374	-170.006	-8.062	9.16237	0.310711
0.0700	-18.6316	20.3981	18.6904	-11.1818	-14.0842	-4.16935	-158.399	-6.51821	8.83976	0.310711
0.0707	-15.5938	17.9698	16.2058	-10.607	-11.9302	-1.10831	-100.118	-1.92973	5.80714	0.310711
0.0713	-18.6316	13.6797	11.3497	-10.2935	-11.6402	-0.211107	-60.135	-0.42883	2.12928	0
0.0720	-49.7787	13.1131	13.1567	-5.12064	-8.28484	3.74714	-44.8729	-1.02919	-0.645238	0
0.0727	-81.5333	14.0035	14.0601	-2.03781	-5.84081	4.961	-31.7603	-2.57298	-3.35524	0.310711
0.0733	-92.5097	11.5751	10.1075	-4.18011	-7.66348	1.63608	-21.6841	-4.37406	-4.90381	0.310711
0.0740	-102.555	8.17544	7.05829	-2.97833	-7.66348	2.53328	-19.8569	-2.57298	-5.80714	0.310711
0.0747	-117.541	7.60882	5.8725	-2.35131	-7.97416	4.69712	-27.7836	-1.32937	-7.03309	0.310711
0.0753	-120.903	7.9326	5.8725	-2.35131	-7.66348	6.80819	-36.0326	-3.7737	-7.03309	0.310711
0.0760	-113.571	7.60882	6.43716	1.30629	-4.6188	10.4498	-30.2287	-7.46164	-5.22642	-0.310711
0.0767	-104.701	5.42331	4.00911	4.33687	-4.30812	9.86923	-18.6209	-12.9507	-4.25857	-0.621423
0.0773	-128.193	3.31874	-0.282332	4.33687	-6.13078	8.02205	-11.6078	-17.1961	-7.6138	0
0.0780	-184.371	2.67118	-2.37159	5.27739	-5.84081	8.02205	-7.03993	-20.5838	-10.0657	0.621423
0.0787	-180.402	3.31874	-2.71038	4.65038	-6.44146	6.49153	-5.80392	-25.4296	-9.74309	0.310711
0.0793	-105.916	5.18048	-1.80692	4.65038	-6.13078	7.44151	-5.50835	-30.0181	-8.58166	0.310711
0.0800	-59.864	5.42331	-1.18579	5.5909	-5.21945	9.23591	-2.1496	-33.363	-7.35571	0.310711
0.0807	-77.564	2.42835	-5.13844	2.82158	-7.06283	8.02205	1.82716	-38.2516	-7.93642	0.310711
0.0813	-165.456	1.21417	-7.90529	1.61979	-8.88549	7.70539	5.77705	-44.6841	-9.74309	0.310711
0.0820	-213.372	3.64252	-7.56649	0.36576	-9.19617	7.70539	7.92664	-51.3738	-10.7109	0.310711
0.0827	-48.2395	11.2513	-3.89618	-2.35131	-8.88549	6.49153	8.22221	-61.4513	-9.48499	0.621423
0.0833	168.413	21.2885	4.34791	-2.97833	-7.06283	7.70539	10.0494	-74.8737	-6.38785	0.310711
0.0840	167.805	26.5499	8.30055	-4.49362	-7.3528	7.70539	10.3718	-85.2514	-5.22642	0.310711
0.0847	90.282	30.7591	11.0109	-7.26295	-8.57481	5.27766	8.84022	-88.296	-5.22642	0.310711
0.0853	149.498	37.8013	18.0692	-7.5242	-6.75215	4.961	8.51778	-84.651	-4.00047	0.310711
0.0860	216.045	47.2718	25.9745	-8.15122	-5.21945	5.27766	8.51778	-81.6063	-2.4519	0.310711
0.0867	183.359	58.5232	35.1221	-7.5242	-2.48545	6.80819	10.3718	-90.14	-2.77452	0.310711
0.0873	138.522	63.7037	40.317	-7.5242	0.869908	9.23591	12.199	-95.9292	-2.77452	0.310711
0.0880	104.62	63.1371	38.7924	-10.9205	0.269257	7.12485	10.6674	-77.0178	-1.87119	0.621423
0.0887	-36.6556	59.1707	35.7432	-12.4358	-1.26344	4.38046	8.84022	-46.4851	-1.87119	0.310711
0.0893	-214.263	47.2718	27.8379	-11.1818	-1.86409	3.74714	8.22221	-24.2289	-1.87119	0.310711
0.0900	-202.962	29.5449	15.02	-10.2935	-2.77542	2.21662	8.84022	-14.7517	-0.645238	0.621423
0.0907	-94.9399	18.5364	8.30055	-8.46473	-3.0861	3.1666	10.0494	-19.9406	0.903333	0.621423
0.0913	-14.9862	15.5414	7.05829	-7.83771	-3.70747	4.0638	10.0494	-21.4844	2.12928	0.310711
0.0920	64.9674	9.14678	1.86339	-9.66651	-5.21945	1.63608	8.84022	5.06019	2.4519	0.310711
0.0927	94.2514	-2.50929	-6.3807	-9.09175	-5.84081	1.63608	8.22221	38.9377	1.54857	0.310711
0.0933	75.3363	-9.22772	-11.8579	-7.5242	-6.13078	1.00276	7.92664	51.4596	0.580714	0
0.0940	45.7283	-8.25638	-12.1403	-6.00891	-5.84081	0.422213	9.13579	53.3035	0	0.310711
0.0947	-31.1471	-8.58016	-11.5756	-2.66482	-3.39679	3.74714	11.581	57.2488	0	0.621423
0.0953	-128.193	-12.5465	-15.5282	-2.66482	-3.39679	2.84994	12.199	55.4048	0.322619	0.310711
0.0960	-167.562	-12.5465	-16.714	-4.49362	-4.6188	-0.211107	11.8765	46.8711	0	0.310711
0.0967	-141.924	-7.68977	-11.5756	-5.6954	-3.99744	-0.79165	11.8765	43.226	0.580714	0.310711
0.0973	-36.6556	-5.26142	-7.56649	-7.5242	-3.70747	-1.10831	12.4945	45.3702	2.4519	0.310711
0.0980	133.013	-1.53795	-1.80692	-6.00891	-3.0861	0.422213	14.9397	44.4268	3.35524	0.310711
0.0987	250.189	6.07087	6.43716	-2.35131	-3.39679	1.00276	13.7037	42.6257	3.35524	0
0.0993	280.729	14.0035	12.5355	-2.35131	-4.30812	-2.05829	7.30863	36.7936	3.67785	0
0.1000	271.251	19.5077	16.827	-4.18011	-4.30812	-3.58881	2.74074	22.1705	5.48452	0.310711
0.1007	239.537	17.9698	14.3989	-5.3819	-4.92948	-5.38322	-1.23602	10.249	8.51714	0.310711
0.1013	191.621	14.8939	10.7286	-6.00891	-4.6188	-6.59708	-3.97676	10.5492	11.8724	0.310711
0.1020	154.399	17.3222	13.7778	-6.00891	-1.55341	-5.69988	-2.76761	12.093	14.3243	0.310711
0.1027	133.013	21.2885	17.4481	-9.98002	-0.952757	-6.59708	-1.85403	11.1925	15.8728	0.310711
0.1033	76.2679	20.0743	15.9235	-14.8917	-1.86409	-7.54706	-1.23602	16.6815	16.1955	0.310711
0.1040	-26.8942	10.0372	8.92168	-13.9511	-2.48545	-7.54706	1.20915	20.3265	14.3243	0.310711
0.1047	-98.3017	0	1.86339	-9.98002	-2.48545	-5.69988	3.33188	17.8822	10.0657	0.310711
0.1053	-94.6564	1.21417	3.72678	-5.3819	-0.352106	-1.10831	7.01306	23.9716	5.80714	0.310711
0.1060	-48.8471	7.60882	9.20401	-3.5531	1.18059	0.686096	9.43136	35.8931	5.1619	-0.310711
0.1067	10.3284	12.7893	12.2532	-4.49362	0.269257	-0.527766	9.43136	37.0938	6.71047	-0.621423
0.1073	2.99725	12.7893	12.2532	-4.18011	-0.352106	-1.10831	8.22221	35.2927	5.48452	0.310711
0.1080	-87.3253	2.42835	4.00911	-3.29184	-0.952757	-1.42497	6.69062	41.3821	2.12928	0.621423
0.1087	-118.756	-11.0085	-7.56649	-3.29184	-0.642075	-1.10831	7.01306	44.7269	2.4519	-0.310711
0.1093	-65.3319	-15.2986	-12.1403	-3.5531	0.269257	0.105553	9.13579	39.5381	6.06523	-0.621423
0.1100	-1.2556	-16.5128	-15.8106	-4.49362	-0.642075	-0.79165	7.92664	34.0491	4.58119	0
0.1107	57.0288	-22.3408	-22.8124	-5.6954	-1.86409	-2.32217	4.5679	32.248	-0.645238	0.310711
0.1113	66.1825	-25.6595	-25.9181	-5.12064	-2.17477	-2.05829	2.74074	27.6595	-1.87119	0.310711
0.1120	52.4519	-24.1216	-25.2969	-4.18011	-1.86409	-2.05829	2.4183	21.2271	-1.54857	0.310711
0.1127	119.606	-19.2649	-20.3843	-2.03781	-0.352106	-0.527766	3.03631	19.1258	-2.12928	0.310711
0.1133	202.922	-11.0085	-13.3825	0.679268	1.18059	0.422213	3.65432	14.5373	-3.35524	0.310711
0.1140	208.39	-6.4756	-10.3333	0.992777	0.269257	-0.79165	2.4183	3.25911	-4.58119	0.310711
0.1147	180.645	-2.18551	-6.0419	-0.836023	-0.352106	-1.10831	1.20915	-9.86308	-3.35524	0.310711
0.1153	136.699	7.9326	3.10565	-3.5531	-0.0414242	-1.74163	-0.61801	-19.04	0.322619	0.310711
0.1160	64.6434	16.7556	10.7286	-5.3819	0.869908	-2.95549	-0.61801	-21.1842	3.93595	0.310711
0.1167	-8.26269	21.0457	14.6812	-3.8666	2.09192	-1.42497	0.886709	-26.9734	4.90381	0.310711
0.1173	-83.0319	18.8602	10.1075	-3.5531	1.49127	-1.74163	0.59114	-35.8073	4.58119	0.310711
0.1180	-180.686	8.823	-2.99272	-5.3819	-0.642075	-4.48601	-0.61801	-34.9067	5.48452	0
0.1187	-232.894	2.10457	-12.1403	-6.94944	-1.26344	-5.69988	-1.53159	-30.6184	6.71047	0
0.1193	-253.632	-0.64756	-16.4317	-6.63593	-1.26344	-5.69988	-3.38562	-30.3183	8.25904	-0.310711
0.1200	-345.494	-12.2227	-24.6758	-4.80713	-1.86409	-5.06656	-2.76761	-28.5172	10.0657	0
0.1207	-395.84	-26.5499	-35.9691	-3.8666	-3.0861	-4.80267	-2.44517	-21.1842	10.0657	0.310711
0.1213	-354.364	-29.9496	-39.6394	-4.18011	-6.44146	-6.3332	-5.21278	-10.8065	8.83976	0.310711
0.1220	-336.664	-21.3695	-31.6776	-5.3819	-7.66348	-7.54706	-7.03993	-6.51821	7.93642	0.310711
0.1227	-271.656	-4.61386	-15.1894	-6.32242	-6.13078	-7.2304	-7.03993	-12.0072	7.93642	0.621423
0.1233	-129.732	16.108	3.38798	-6.32242	-4.30812	-6.01654	-5.80392	-21.7846	9.42047	0.621423
0.1240	64.6434	39.9059	22.3042	-6.00891	-1.26344	-4.48601	-3.68119	-35.5071	10.969	0.310711
0.1247	370.16	65.2416	41.8416	-7.83771	0.269257	-5.69988	-4.59477	-49.8729	12.5176	0
0.1253	535.536	79.326	51.6102	-11.4953	-0.352106	-7.81094	-8.24908	-50.7734	14.0017	0.310711
0.1260	425.691	76.5739	48.2787	-12.7493	-0.642075	-8.1276	-9.16266	-40.6959	14.9695	0.310711
0.1267	287.452	66.213	40.0346	-11.8088	-0.0414242	-7.2304	-7.95351	-35.5071	13.7436	0.310711
0.1273	153.791	49.1336	27.4991	-9.98002	0.269257	-6.01654	-8.24908	-30.3183	11.6143	0.310711
0.1280	-6.15651	25.2548	10.1075	-7.83771	-0.0414242	-5.06656	-6.12636	-13.551	8.25904	0.310711
0.1287	-68.4102	2.42835	-5.75957	-6.94944	-0.642075	-5.69988	0.886709	15.7381	4.25857	0
0.1293	-40.6249	-12.8702	-15.1894	-5.3819	-1.26344	-5.06656	5.15904	46.5709	1.54857	0.310711
0.1300	-22.3174	-17.1603	-16.1494	-4.18011	-0.952757	-4.16935	6.09949	65.1821	0.322619	0.310711
0.1307	-15.3103	-15.9462	-13.3825	-3.5531	-0.642075	-3.58881	7.30863	78.3043	0.580714	0.621423
0.1313	-6.76406	-15.9462	-12.4791	-2.03781	0.869908	-2.05829	5.48148	88.0816	1.54857	0.621423
0.1320	-0.0405034	-14.4082	-13.3825	-1.46304	1.18059	-2.32217	-1.85403	82.2924	1.22595	0.621423
0.1327	15.2293	-10.4419	-12.7614	-3.5531	-0.352106	-4.48601	-2.76761	65.7825	0.580714	0.310711
0.1333	31.9977	-5.82804	-10.6157	-3.29184	0.269257	-2.63883	7.01306	51.4596	0.903333	0.310711
0.1340	40.2604	-3.72347	-10.051	-2.35131	0.869908	-0.211107	10.0494	43.226	1.22595	0.621423
0.1347	43.9057	-1.86173	-8.18762	-2.66482	0.869908	-0.211107	9.43136	38.3374	0.903333	0.310711
0.1353	41.759	0.566615	-4.85611	-2.35131	1.49127	-0.527766	15.5577	34.6923	1.54857	0.310711
0.1360	27.1373	0.242835	-5.75957	-3.29184	0.869908	-2.95549	17.0624	27.3593	2.4519	0
0.1367	4.86041	-1.29512	-7.56649	-4.80713	0.269257	-4.16935	13.7037	17.2818	3.35524	0
0.1373	-11.6245	0.242835	-6.3807	-5.12064	1.49127	-1.42497	10.0494	11.4926	2.4519	0.310711
0.1380	-16.5254	4.20914	-3.33151	-6.00891	2.4026	-0.527766	3.94989	9.04831	1.22595	0.310711
0.1387	-20.1707	7.28504	0.338798	-5.6954	3.62462	-0.211107	-3.97676	7.50452	2.4519	0.310711
0.1393	-36.3315	7.28504	1.24226	-5.6954	4.22527	-0.79165	-16.2026	6.3038	2.4519	0.310711
0.1400	-58.0008	6.07087	-0.282332	-7.83771	3.02397	-3.58881	-32.0559	0.814777	2.4519	-0.310711
0.1407	-71.1239	4.8567	-0.564663	-8.46473	3.31394	-3.27215	-42.4277	-6.51821	4.25857	-0.932134
0.1413	-76.0248	3.31874	-1.80692	-8.15122	3.9353	-2.05829	-44.8729	-8.96254	5.1619	0
0.1420	-106.524	-0.64756	-5.42077	-9.09175	3.31394	-3.58881	-47.6136	-7.46164	3.03262	0.621423
0.1427	-161.77	-3.07591	-6.0419	-8.77824	4.22527	-2.63883	-49.1452	-9.26272	2.12928	0.310711
0.1433	-195.348	-2.75213	-5.75957	-8.46473	3.62462	-2.32217	-43.0457	-16.2955	3.03262	0.310711
0.1440	-230.14	-3.39969	-7.90529	-9.66651	1.80195	-3.85269	-36.0326	-22.0847	3.35524	0.310711
0.1447	-278.056	-4.93764	-9.71221	-10.607	-0.0414242	-4.48601	-28.106	-25.4296	3.35524	0.310711
0.1453	-296.971	-4.61386	-8.80875	-11.4953	-1.55341	-5.38322	-4.89034	-30.3183	2.71	0
0.1460	-307.664	-1.29512	-3.89618	-10.2935	-0.352106	-4.48601	28.3747	-33.0628	1.80667	0.310711
0.1467	-289.964	2.42835	0.677596	-8.46473	1.80195	-2.63883	37.2149	-31.2617	2.4519	0.621423
0.1473	-141.924	2.10457	0.0564663	-9.09175	0.579939	-4.16935	8.84022	-28.1741	1.80667	0.621423
0.1480	23.1679	1.45701	-1.46812	-9.98002	-1.26344	-5.38322	-24.4248	-28.5172	0.580714	0.310711
0.1487	75.0528	2.67118	-1.46812	-10.9205	-1.86409	-6.3332	-38.7734	-31.8621	0	0.310711
0.1493	137.59	6.07087	0.959928	-10.607	-2.48545	-6.3332	-37.2418	-32.7626	-0.322619	0.621423
0.1500	172.99	8.823	4.63024	-9.09175	-1.86409	-5.06656	-27.488	-31.8621	-0.322619	0.310711
0.1507	97.6131	8.17544	3.72678	-9.09175	-2.17477	-5.38322	-20.7705	-31.8621	0.903333	0.310711
0.1513	55.4896	7.28504	1.58106	-11.1818	-3.39679	-6.3332	-13.435	-32.4624	1.54857	0.310711
0.1520	71.0834	8.49922	2.48452	-12.4358	-4.6188	-7.2304	-11.6078	-29.7179	2.4519	0.310711
0.1527	77.1589	7.9326	3.72678	-12.1223	-5.21945	-7.2304	-27.1655	-22.3849	3.35524	0.310711
0.1533	71.367	6.07087	4.00911	-11.4953	-5.21945	-5.69988	-16.4982	-14.1514	3.35524	0.310711
0.1540	42.3665	6.39465	6.15483	-10.9205	-3.99744	-4.16935	33.8562	-7.11857	2.71	0.310711
0.1547	35.0759	7.9326	8.58288	-11.1818	-3.0861	-4.48601	71.6891	-6.21803	2.71	0.310711
0.1553	74.4452	7.60882	9.20401	-12.4358	-3.99744	-5.38322	84.2105	-10.2061	3.03262	0.310711
0.1560	77.1589	4.20914	7.05829	-13.3241	-4.30812	-3.85269	85.4197	-7.76182	3.35524	0.621423
0.1567	28.0283	0	3.10565	-13.6376	-2.77542	-2.63883	84.8285	6.00362	3.35524	0.621423
0.1573	-12.8396	-4.04725	0.677596	-11.1818	-0.0414242	-2.95549	83.2969	20.0264	1.80667	0.310711
0.1580	-31.1471	-4.93764	0.338798	-8.77824	2.71329	-2.32217	71.6891	21.5701	-0.645238	0.621423
0.1587	-35.4405	-3.72347	-0.282332	-7.83771	3.9353	1.31942	38.4241	12.6934	-2.77452	0.621423
0.1593	-34.5089	-2.75213	0.0564663	-6.94944	4.22527	4.38046	9.13579	2.61586	-5.22642	0.310711
0.1600	-33.6178	-2.75213	-0.564663	-6.63593	5.15731	2.84994	47.2912	-5.61767	-6.38785	0.310711
0.1607	-34.8329	-2.75213	-0.846995	-6.63593	6.37933	1.63608	94.5823	-10.5063	-5.80714	0.621423
0.1613	-46.7409	-4.29008	-1.80692	-7.5242	6.37933	2.53328	66.8256	-12.3074	-4.90381	0.310711
0.1620	-53.424	-7.04221	-4.51731	-10.607	4.22527	1.00276	19.83	-12.3074	-3.35524	0
0.1627	-44.2702	-8.01355	-5.42077	-13.6376	0.869908	-0.211107	-4.59477	-12.6505	-0.322619	0
0.1633	-51.6013	-6.71843	-4.85611	-15.1529	-1.26344	-0.527766	-8.24908	-15.395	1.54857	0.310711
0.1640	-70.2329	-5.26142	-2.37159	-14.2646	-0.952757	-0.79165	12.7901	-17.1961	1.22595	0.310711
0.1647	-82.1409	-2.18551	1.58106	-13.6376	-0.0414242	-1.10831	22.2483	-13.8512	1.54857	0.621423
0.1653	-91.9022	0.242835	4.00911	-13.3241	-0.352106	-2.05829	2.12273	-11.1067	0.903333	0.310711
0.1660	-78.1715	2.99496	5.5337	-11.8088	-0.642075	-2.05829	-18.0298	-16.8959	-1.54857	-0.310711
0.1667	-20.4947	5.18048	7.39709	-10.2935	-0.642075	-2.05829	-28.4016	-19.6404	-3.35524	-0.310711
0.1673	35.6835	3.64252	5.8725	-9.09175	-0.0414242	-3.85269	-41.5141	-12.6505	-5.22642	0.621423
0.1680	-1.57963	-1.29512	2.20219	-6.32242	0.869908	-4.16935	-49.1452	-4.67424	-7.03309	0.310711
0.1687	-65.656	-7.04221	-1.80692	-4.80713	1.18059	-2.32217	-52.7995	3.55929	-7.6138	0.310711
0.1693	-36.048	-10.4419	-5.13844	-6.00891	0.579939	-0.527766	-72.952	8.74813	-7.35571	0.621423
0.1700	21.0213	-11.3323	-6.66303	-7.83771	-0.352106	0.422213	-95.5496	9.04831	-6.12976	0.310711
0.1707	62.8207	-11.0085	-7.28416	-8.46473	-0.642075	1.95274	-95.8452	8.10488	-4.90381	0.310711
0.1713	95.4665	-7.68977	-5.42077	-8.46473	-0.0414242	4.0638	-83.6462	6.00362	-4.25857	0.621423
0.1720	98.5447	-4.29008	-2.37159	-6.63593	0.869908	6.22764	-67.7661	4.76001	-4.25857	0.310711
0.1727	97.3296	-7.04221	-4.23498	-5.3819	0.269257	5.59432	-46.7	6.60398	-5.80714	0.310711
0.1733	77.483	-11.0085	-8.46995	-6.00891	-1.86409	2.84994	-29.3151	6.00362	-7.6138	0.621423
0.1740	32.3217	-10.4419	-8.46995	-6.00891	-1.55341	1.31942	-19.2389	3.25911	-7.93642	0.310711
0.1747	21.6288	-5.50426	-4.23498	-5.3819	0.869908	0.422213	-13.7574	0.171532	-7.35571	0.310711
0.1753	27.7448	-0.64756	0.959928	-5.3819	2.71329	0.422213	-16.4982	-5.61767	-6.12976	0.621423
0.1760	6.35903	0.242835	2.48452	-5.6954	2.71329	1.31942	-33.5875	-10.2061	-4.90381	0.310711
0.1767	0.891074	0.242835	1.58106	-7.26295	0.269257	-0.527766	-51.8859	-10.5063	-4.58119	0.310711
0.1773	13.4066	3.64252	4.00911	-8.46473	-0.952757	-1.10831	-52.5039	-7.76182	-4.58119	0.310711
0.1780	10.0448	6.39465	6.77596	-8.46473	-0.642075	0.105553	-43.0457	-5.01731	-3.67785	0.310711
0.1787	11.5435	6.07087	5.8725	-9.09175	-0.952757	-0.79165	-34.7966	-1.92973	-2.77452	0.310711
0.1793	33.8203	2.67118	3.72678	-9.353	-1.55341	-2.05829	-26.252	3.85947	-2.77452	0.310711
0.1800	56.7452	0	1.86339	-9.09175	-1.26344	-1.10831	-19.2389	6.00362	-3.03262	0.310711
0.1807	43.6221	-2.18551	-1.46812	-9.09175	-2.17477	-1.42497	-17.1162	1.71532	-3.67785	0.310711
0.1813	8.82974	-3.72347	-3.89618	-9.09175	-3.0861	-2.05829	-15.5846	-2.57298	-4.25857	0.310711
0.1820	2.3897	-1.53795	-3.61385	-9.09175	-2.77542	-2.63883	-12.8439	-6.51821	-4.58119	0.310711
0.1827	-15.5938	-1.29512	-4.23498	-8.77824	-2.77542	-2.95549	-10.3987	-6.51821	-4.25857	0.310711
0.1833	-88.5404	-5.26142	-6.94536	-9.09175	-2.48545	-2.05829	-7.3355	-2.2728	-4.25857	0.310711
0.1840	-144.678	-6.4756	-8.80875	-9.66651	-3.0861	-1.74163	-4.89034	-0.729011	-4.25857	0.310711
0.1847	-141.033	-4.93764	-8.18762	-9.09175	-2.77542	-1.74163	-2.1496	-0.729011	-4.58119	0.310711
0.1853	-115.678	-4.04725	-7.90529	-8.46473	-2.77542	-2.32217	-1.23602	-0.729011	-5.80714	0.310711
0.1860	-102.271	0	-4.85611	-9.09175	-3.99744	-3.85269	-3.06318	-3.7737	-7.35571	0.310711
0.1867	-109.886	5.74709	1.58106	-7.5242	-2.48545	-1.74163	-2.44517	-7.11857	-7.6138	0.310711
0.1873	-90.0795	8.17544	3.10565	-6.00891	-1.26344	1.31942	-0.32244	-10.2061	-7.6138	0.310711
0.1880	-21.3858	7.9326	1.24226	-7.26295	-2.48545	-0.211107	0.886709	-13.8512	-7.03309	0.621423
0.1887	37.5061	6.63749	0.677596	-8.77824	-3.39679	-2.63883	3.65432	-15.6952	-6.38785	0.621423
0.1893	55.8137	3.31874	-2.08925	-9.353	-4.6188	-3.85269	5.15904	-14.4516	-8.58166	0
0.1900	54.2745	-0.971339	-3.89618	-7.26295	-3.99744	-2.63883	5.77705	-8.96254	-10.3883	0.310711
0.1907	73.7972	-0.32378	-1.46812	-2.35131	-2.17477	-0.211107	7.92664	-2.2728	-2.12928	0.310711
0.1913	109.845	5.18048	2.20219	-3.29184	-2.77542	-0.79165	8.51778	-0.128649	10.3883	0.310711
0.1920	102.798	9.38961	3.72678	-9.98002	-3.39679	-2.32217	8.22221	-3.7737	15.8728	0.310711
0.1927	57.3528	10.0372	2.48452	-13.6376	-3.70747	-2.95549	8.22221	-8.96254	13.7436	0.310711
0.1933	28.3524	7.60882	-0.846995	-14.2646	-4.6188	-3.27215	8.22221	-9.26272	27.1645	0.310711
0.1940	25.9222	5.42331	-2.08925	-12.1223	-3.70747	-1.10831	10.0494	-7.76182	43.0373	0
0.1947	30.7826	6.07087	-1.18579	-5.3819	-2.48545	0.422213	12.4945	-8.96254	0.322619	0.310711
0.1953	31.1066	4.20914	-2.71038	-2.35131	-3.39679	-1.42497	13.1125	-7.11857	-43.9407	0.621423
0.1960	22.8439	-0.32378	-6.66303	-7.26295	-4.30812	-2.63883	12.4945	-0.729011	-29.6164	-0.621423
0.1967	18.8746	-4.29008	-8.80875	-10.9205	-3.99744	-2.63883	11.581	8.74813	-14.3243	-1.24285
0.1973	25.3146	-5.26142	-9.09108	-6.94944	-4.30812	-2.63883	10.963	18.1824	-18.9055	0
0.1980	27.4208	-4.29008	-7.90529	1.30629	-3.99744	-0.79165	12.199	20.9269	-10.3883	0.310711
0.1987	26.2057	-2.75213	-6.66303	13.5331	-3.70747	-0.527766	13.7037	18.4826	4.90381	0.310711
0.1993	25.3146	-1.53795	-6.3807	20.5348	-4.6188	-2.32217	13.7037	15.1377	-7.6138	0.621423
0.2000	21.9528	-0.64756	-6.3807	4.65038	-5.53013	-3.27215	13.1125	10.249	-25.0352	0.310711
0.2007	22.8439	0.566615	-6.0419	-9.98002	-6.13078	-3.27215	12.4945	5.36037	-20.454	0.310711
0.2013	24.383	1.78079	-4.85611	-0.522514	-4.6188	-2.32217	13.1125	2.31568	-13.7436	0.310711
0.2020	21.6288	1.45701	-4.23498	7.4197	-3.39679	-2.63883	14.0261	2.61586	-12.195	0.310711
0.2027	15.5128	0.890394	-5.42077	4.65038	-5.21945	-4.16935	12.7901	3.85947	-10.7109	0.310711
0.2033	6.96658	0.566615	-6.3807	2.82158	-6.44146	-4.48601	10.963	2.31568	-8.58166	0.310711
0.2040	2.10618	0.242835	-6.94536	-0.209006	-6.44146	-4.80267	9.13579	0.814777	-7.03309	0.310711
0.2047	0.283524	0.890394	-6.3807	-1.7243	-5.84081	-5.38322	8.51778	0.514596	-7.93642	0.310711
0.2053	-1.57963	1.45701	-4.85611	3.44859	-4.6188	-5.38322	9.13579	0.814777	-12.8402	0.310711
0.2060	-1.86316	2.10457	-5.13844	9.2485	-4.92948	-6.3332	8.22221	0.814777	-11.9369	0.621423
0.2067	-3.07826	2.42835	-5.42077	1.61979	-5.53013	-7.81094	6.39505	-0.128649	-24.39	0.310711
0.2073	-3.68581	2.99496	-4.51731	-25.5509	-5.53013	-6.3332	5.77705	-0.729011	-61.9428	0.310711
0.2080	-8.58672	3.31874	-3.61385	-48.4371	-5.84081	-3.85269	7.30863	-0.42883	-8.83976	0.310711
0.2087	-18.9556	3.31874	-2.37159	-44.466	-5.53013	-3.85269	8.84022	1.11496	126.015	0.310711
0.2093	-20.1707	2.67118	-2.37159	-30.1491	-4.92948	-9.34147	7.6042	2.61586	172.085	0.310711
0.2100	-13.7711	1.21417	-4.51731	-28.0068	-5.84081	-19.7385	6.09949	3.25911	147.695	0.310711
0.2107	-10.1258	0	-5.75957	-42.0101	-7.3528	-24.9106	5.77705	3.25911	110.465	0.310711
0.2113	-6.44004	0.242835	-5.42077	-73.4655	-8.88549	-16.0969	6.39505	1.71532	77.493	0.310711
0.2120	-2.18718	2.42835	-3.89618	-98.8074	-9.50686	-2.32217	9.7538	-0.729011	91.2366	0
0.2127	-1.86316	3.9663	-2.71038	-103.04	-7.97416	0.422213	13.1125	-1.92973	67.4273	0
0.2133	-3.07826	2.99496	-3.89618	-132.98	-7.06283	-6.59708	14.3217	-2.57298	-69.8792	0.621423
0.2140	-4.61739	0.890394	-4.85611	-204.408	-6.13078	-11.822	13.7037	-2.2728	-121.176	0.621423
0.2147	-7.37161	0.566615	-4.23498	-251.382	-3.99744	-10.6081	10.963	-0.729011	-45.1666	0.621423
0.2153	-8.87024	1.21417	-2.99272	-220.867	-2.48545	-7.54706	11.581	-1.02919	-60.4588	0.310711
0.2160	-8.87024	2.67118	-1.80692	-195.838	-2.77542	-5.06656	14.6441	-2.2728	-53.4257	0.310711
0.2167	-8.58672	2.67118	-1.80692	-239.155	-5.21945	-4.80267	14.9397	-2.87316	72.0085	0.310711
0.2173	-6.15651	1.21417	-3.89618	-183.037	-10.1075	-6.91374	12.4945	-3.17334	150.469	0.310711
0.2180	-3.07826	1.78079	-4.23498	-38.3525	-13.4629	-7.54706	10.0494	-3.17334	61.3621	0.310711
0.2187	-1.57963	2.67118	-3.33151	20.2213	-14.9956	-7.2304	8.51778	-3.47352	-170.278	0.310711
0.2193	-0.931578	-0.971339	-2.99272	78.7951	-12.2409	-5.69988	9.13579	-1.32937	-299.068	0.310711
0.2200	-0.648054	-6.15182	-2.71038	129.165	-4.92948	-1.10831	10.6674	2.61586	-260.934	0.310711
0.2207	0.567047	-8.58016	-4.23498	2.82158	-1.26344	1.31942	9.43136	2.91604	-164.213	0
0.2213	1.1746	-8.25638	-5.13844	-176.923	-0.952757	2.21662	8.22221	2.0155	-43.6181	0.310711
0.2220	1.49863	-2.75213	-3.61385	-102.779	2.4026	7.44151	12.199	2.0155	-21.3574	0.621423
0.2227	3.32128	0.890394	-2.99272	143.848	6.6693	12.6136	16.1489	1.11496	-36.6495	0.621423
0.2233	3.92883	-4.93764	-2.37159	228.652	7.60134	15.0413	18.2985	0.171532	84.2035	0.621423
0.2240	3.92883	-1.53795	-2.08925	166.734	4.84663	16.5719	18.594	1.11496	222.478	0.310711
0.2247	5.46796	15.2176	-2.99272	132.823	0.269257	16.5719	16.1489	0.514596	153.179	0.310711
0.2253	4.86041	15.5414	-2.37159	117.879	-3.0861	15.0413	14.3217	-0.729011	16.7762	0.621423
0.2260	1.78215	-2.50929	-2.08925	79.7356	-5.53013	11.0831	11.581	-2.2728	17.3569	-0.310711
0.2267	-0.0405034	-13.194	-2.71038	37.621	-5.84081	7.44151	8.84022	-3.47352	-133.951	-0.932134
0.2273	-0.648054	-14.651	-2.08925	3.44859	-4.30812	5.59432	7.92664	-3.17334	-433.342	0
0.2280	-0.324027	-13.194	-3.33151	-31.9779	-3.39679	2.84994	6.39505	-3.7737	-385.723	0.621423
0.2287	0.283524	-18.6173	-4.51731	-75.6078	-2.48545	0.686096	4.5679	-2.2728	-16.7762	0.621423
0.2293	-0.324027	-44.6007	-4.51731	-118.924	-0.352106	2.21662	5.77705	0.514596	235.254	0.310711
0.2300	0.283524	-32.378	-4.23498	-143.639	2.09192	6.22764	8.22221	-1.02919	328.361	0.310711
0.2307	2.3897	29.2211	-3.33151	-99.3822	5.15731	8.65537	8.84022	-3.7737	378.69	0.310711
0.2313	4.25285	57.9566	-2.08925	23.3041	6.6693	9.55257	7.92664	-5.01731	487.671	0.310711
0.2320	6.68306	50.5906	-4.23498	135.592	5.44728	10.7664	7.30863	-5.91785	691.501	0.310711
0.2327	9.11326	7.60882	-8.18762	213.081	-0.0414242	11.3998	7.6042	-7.11857	543.226	0.310711
0.2333	10.6524	-54.0712	-8.18762	289.682	-6.13078	8.97203	6.39505	-8.36218	38.4562	0.621423
0.2340	11.2599	-98.0243	-5.13844	330.595	-7.3528	5.59432	3.33188	-8.36218	-253.578	0.310711
0.2347	9.11326	-134.045	-4.51731	280.538	-5.53013	4.961	3.03631	-6.51821	-205.057	0.310711
0.2353	7.29061	-113.242	-5.75957	139.25	-4.92948	2.84994	3.94989	-6.21803	-66.524	0.310711
0.2360	6.07551	-35.4539	-7.28416	46.765	-5.53013	-0.79165	3.65432	-4.37406	-58.0069	0.310711
0.2367	5.75148	27.7641	-7.90529	93.4778	-5.84081	-5.38322	3.65432	2.31568	-128.467	-0.310711
0.2373	6.68306	58.2804	-1.80692	118.506	-4.30812	-9.65813	4.86347	6.60398	-170.601	-0.310711
0.2380	4.25285	86.9349	7.96175	8.62148	-1.26344	-1.10831	8.22221	6.60398	-131.564	0.310711
0.2387	4.53638	108.871	9.20401	-134.182	-2.48545	10.7664	8.84022	2.91604	-65.298	0.310711
0.2393	9.11326	59.4945	3.38798	-206.236	-7.97416	10.1859	7.30863	-1.02919	-100.076	0.310711
0.2400	9.11326	-11.9799	-1.18579	-179.066	-12.2409	5.59432	7.01306	0.514596	-64.3947	0.310711
0.2407	6.96658	5.18048	-4.51731	-112.55	-15.9069	4.961	6.39505	5.66055	153.825	0.310711
0.2413	5.75148	53.9903	-4.51731	-69.8079	-19.5729	6.49153	5.77705	10.5492	165.116	0
0.2420	4.53638	40.8772	-2.37159	-49.6388	-18.3509	4.961	5.48148	14.2371	-169.052	0.310711
0.2427	4.86041	11.5751	-2.71038	-50.5794	-7.66348	-0.527766	4.24546	14.8375	-469.668	0.621423
0.2433	4.53638	-1.29512	-4.23498	-21.8933	4.22527	-0.211107	3.65432	12.093	-450.763	0.621423
0.2440	1.49863	-34.5635	-5.42077	61.4477	9.42401	6.80819	6.09949	8.10488	-105.303	0.310711
0.2447	-0.648054	-95.8388	-6.0419	58.3648	12.7794	11.0831	9.13579	5.06019	313.392	0.310711
0.2453	-2.18718	-161.485	-2.99272	-57.2675	17.6674	10.7664	11.581	2.61586	568.841	0.310711
0.2460	-4.61739	-178.565	-0.282332	-101.838	17.3567	9.55257	11.8765	-0.729011	560.905	0.310711
0.2467	-5.83249	-107.738	-2.71038	-21.8933	13.38	6.80819	9.7538	-6.81839	271.903	0.310711
0.2473	-4.61739	-62.0038	-3.33151	-3.8666	6.37933	-0.211107	8.22221	-11.1067	-51.8771	0.310711
0.2480	-0.931578	-129.755	-4.85611	-125.926	-1.86409	-5.69988	7.30863	-14.1514	-249.32	0.310711
0.2487	1.1746	-111.704	-12.7614	-160.725	-1.86409	-4.16935	6.09949	-18.4397	-408.629	0.310711
0.2493	1.78215	69.5317	-17.674	-7.26295	1.49127	-2.63883	5.77705	-19.9406	-422.695	0.310711
0.2500	6.96658	138.497	-17.0528	202.108	-4.92948	-8.44426	2.74074	-18.4397	-304.552	0.310711
0.2507	16.1203	69.5317	-13.6649	317.793	-16.2176	-22.1662	-1.23602	-19.9406	-353.074	0.310711
0.2513	24.059	100.048	-17.9563	235.967	-24.461	-35.6242	-1.85403	-22.0847	-554.517	0.621423
0.2520	25.5981	155.01	-25.5793	77.5933	-20.1736	-31.9299	-1.53159	-18.4397	-462.055	0.310711
0.2527	20.4137	119.313	-13.3825	33.3364	-2.48545	-8.44426	1.50472	-10.2061	84.2035	0
0.2533	15.5128	84.1827	-0.846995	82.1915	7.60134	14.7247	5.48148	3.55929	553.291	0.310711
0.2540	10.6524	61.2753	-10.6157	116.05	10.3353	21.1634	7.01306	17.2818	614.331	0
0.2547	8.22219	40.2296	-16.4317	101.42	15.5341	21.4801	11.8765	20.3265	483.993	0.310711
0.2553	12.7991	31.9733	-6.94536	22.3636	12.1787	15.358	20.1256	16.6815	174.859	0.310711
0.2560	13.6901	-15.2986	6.43716	-106.436	-1.86409	6.22764	25.6071	13.2937	-70.2018	-0.932134
0.2567	14.0142	-54.395	17.1658	-196.465	-17.4396	10.7664	24.3979	11.4926	210.541	-0.621423
0.2573	27.1373	46.0577	7.39709	-221.18	-30.5504	10.7664	15.5577	7.50452	553.291	0.310711
0.2580	32.6052	182.774	-17.0528	-228.809	-37.8824	-8.1276	4.86347	3.25911	314.618	-0.310711
0.2587	28.6359	160.757	-29.5319	-262.981	-38.1931	-24.9106	-4.59477	5.06019	-121.756	-0.932134
0.2593	37.5061	91.7916	-25.9181	-299.61	-28.417	-29.1855	-10.3987	11.1925	-139.178	0
0.2600	46.6599	80.864	-11.5756	-283.098	-21.0849	-28.8688	-13.1394	14.8375	95.8178	0.310711
0.2607	44.8372	19.5077	-3.33151	-222.382	-19.5729	-31.3493	-18.9433	15.1377	151.05	0
0.2613	37.1821	-32.7018	3.38798	-109.467	17.0461	-41.6935	-22.5977	13.6368	74.1378	0.310711
0.2620	20.6972	6.96127	19.8762	-8.77824	68.6192	-57.5793	-20.1525	10.249	-56.1357	0.310711
0.2627	1.1746	45.4101	19.255	-42.6371	77.7739	-67.0263	-17.4117	8.10488	-289.647	0
0.2633	-9.47779	55.5282	6.77596	-86.2671	65.5745	-61.5376	-14.9666	9.64867	-395.208	0
0.2640	-7.97917	58.5232	7.67942	-29.2085	62.8198	-48.7128	-11.6078	10.8494	-118.401	0.310711
0.2647	-9.80182	52.1285	15.3024	6.16567	60.0858	-37.4186	-5.21278	9.34849	289.002	0.621423
0.2653	-25.9627	44.1959	18.9727	33.3364	34.4442	-33.1437	4.24546	6.60398	542.903	0.310711
0.2660	-33.2938	39.0155	15.5847	108.735	-16.5075	-36.2048	10.0494	3.25911	745.508	0.310711
0.2667	-17.7405	35.6967	11.9709	120.335	-51.6146	-35.8881	14.3217	2.61586	559.679	0.310711
0.2673	-4.29336	35.6967	12.5355	42.4804	-53.1473	-31.9299	21.3348	6.3038	-204.153	0
0.2680	-14.0547	35.6967	10.7286	-110.668	-47.3479	-31.6132	29.8794	9.34849	-709.826	0.310711
0.2687	-31.4711	25.5786	5.8725	-290.466	-27.8164	-29.1855	37.8329	6.00362	-514.835	0.310711
0.2693	-36.6556	10.361	-0.564663	-339.895	10.0247	-29.5021	39.9557	-2.87316	-101.625	0.310711
0.2700	-31.1471	1.45701	-10.9545	-266.639	35.3556	-35.6242	31.1154	-6.81839	143.114	0.310711
0.2707	-21.9933	-1.86173	-18.5774	-138.153	41.4656	-34.6743	19.5076	-2.2728	392.111	0.310711
0.2713	-7.97917	-3.39969	-8.46995	-35.0084	30.1775	-25.5439	14.6441	2.91604	853.262	0.310711
0.2720	5.46796	-2.50929	-7.56649	-56.6928	7.29066	-8.76092	10.0494	5.66055	1224.98	0.310711
0.2727	12.7991	1.45701	-43.592	-49.0641	-0.642075	4.38046	3.33188	6.60398	1129.42	0.310711
0.2733	16.7684	-0.32378	-82.6667	12.2791	11.2467	6.49153	-0.32244	5.36037	327.458	0.310711
0.2740	17.3759	-5.82804	-95.1458	-57.0063	20.4014	12.9303	-1.53159	5.36037	-661.304	0.310711
0.2747	16.1203	-4.93764	-88.144	-227.294	20.4014	27.2855	-1.23602	7.20434	-890.234	0.310711
0.2753	15.2293	-1.29512	-85.9982	-322.182	21.3335	42.538	2.12273	4.76001	-514.512	0.310711
0.2760	13.6901	2.99496	-99.4372	-231.212	17.6674	47.7101	3.03631	0.514596	-79.6868	0.310711
0.2767	11.8675	8.823	-99.7196	-66.7251	6.97998	38.2631	-2.76761	-1.02919	66.524	0.621423
0.2773	10.3284	13.3559	-48.7869	-27.6932	-7.66348	31.2438	-10.9898	-1.02919	-54.6516	0.310711
0.2780	10.9359	16.108	21.1184	-107.951	-16.2176	36.4159	-17.7073	-2.2728	-17.4214	0.310711
0.2787	11.2599	15.8652	22.643	-88.4094	-13.7735	48.6073	-22.5977	-3.7737	-87.3006	0.310711
0.2793	6.96658	13.3559	-32.9199	98.0236	-12.5515	57.7904	-25.9564	-1.92973	-334.169	0
0.2800	2.71373	12.4655	-28.6284	293.339	-7.3528	59.5848	-26.87	1.11496	-217.574	0
0.2807	-0.0405034	14.0035	63.2423	401.709	10.3353	61.7487	-24.4248	2.31568	140.984	0.310711
0.2813	-4.61739	13.6797	126.089	438.598	17.6674	61.432	-19.8569	2.91604	388.175	0.310711
0.2820	-6.44004	3.9663	95.8799	471.255	6.6693	55.9432	-16.7937	3.55929	284.421	0
0.2827	-1.2556	-10.6847	43.3662	477.682	-2.77542	50.7711	-14.671	2.61586	-86.978	0.310711
0.2833	2.99725	-20.1553	44.8907	419.997	0.269257	43.4352	-12.5214	-0.42883	-234.415	0.310711
0.2840	2.3897	-23.2312	84.5866	315.024	3.9353	29.7132	-13.1394	-2.57298	-311.585	0
0.2847	0.891074	-24.7692	106.27	177.394	-0.0414242	18.7357	-14.053	-4.67424	-431.212	0
0.2853	1.49863	-25.3358	93.4518	12.2791	3.02397	12.9303	-12.8439	-7.11857	-119.95	0
0.2860	-0.648054	-25.9833	63.807	-142.124	3.9353	1.00276	-12.5214	-8.96254	511.802	-0.621423
0.2867	-10.4094	-23.555	43.9873	-220.867	-0.642075	-14.2497	-9.16266	-9.26272	876.749	-0.621423
0.2873	-16.8089	-16.8365	36.9855	-300.811	0.579939	-23.3801	-4.89034	-5.61767	827.646	0.310711
0.2880	-16.5254	-6.4756	34.8397	-440.897	5.15731	-25.8606	-3.97676	-5.01731	684.791	0.310711
0.2887	-7.37161	4.20914	39.4135	-493.097	19.8008	-23.3801	0.59114	-15.395	665.885	0.310711
0.2893	13.0826	12.4655	14.0601	-436.926	37.4889	-21.8495	7.01306	-24.2289	314.295	0.310711
0.2900	25.9222	17.646	-80.2387	-384.152	42.6876	-16.6774	7.30863	-16.2955	-544.451	0.310711
0.2907	17.6595	19.8315	-186.113	-216.269	42.6876	-3.58881	1.82716	-6.21803	-1111.74	0.310711
0.2913	8.50571	21.2885	-220.614	-14.2646	41.1549	2.53328	-5.21278	-6.81839	-1074.51	0.310711
0.2920	8.82974	18.2936	-207.457	22.6771	40.2436	2.53328	-7.03993	-3.17334	-708.6	0.310711
0.2927	9.11326	8.823	-187.355	56.2225	42.9983	6.22764	-5.80392	12.3932	-221.252	0.310711
0.2933	14.9052	0.890394	-144.61	85.5356	39.9329	6.80819	-11.3123	19.1258	-117.175	0.621423
0.2940	27.1373	-4.04725	-78.7141	195.995	31.0889	3.43048	-19.5345	9.94885	-389.401	0.310711
0.2947	26.2057	-7.68977	44.3261	413.622	25.6002	4.961	-22.3021	-0.729011	-339.653	0
0.2953	20.6972	-14.0844	247.266	359.594	27.7335	9.86923	-23.5112	-7.46164	-59.2328	0
0.2960	25.9222	-26.3071	358.335	191.71	35.3556	14.1441	-23.2157	-9.26272	-51.5545	0.310711
0.2967	31.3901	-51.8857	242.071	178.909	33.5329	11.9803	-24.7472	-8.36218	-225.252	0.310711
0.2973	27.7448	-67.7509	51.949	165.48	18.5788	2.53328	-32.3783	-8.96254	-380.561	0.310711
0.2980	24.6666	-48.8907	-36.5902	127.964	5.15731	-1.10831	-34.5011	-9.5629	-346.105	0
0.2987	50.9127	-34.2397	-34.1057	71.7934	-2.17477	0.422213	-29.6107	-9.5629	-66.524	0.310711
0.2993	110.736	-36.3443	-29.2496	29.9923	-5.53013	2.21662	-19.8569	-8.062	-2.77452	0.310711
0.3000	154.682	-22.017	-66.1786	122.164	9.11333	12.6136	-3.38562	-9.26272	-273.452	0.310711
0.3007	150.713	4.20914	-115.925	250.65	80.8393	28.1827	13.1125	-18.1395	-427.534	0.310711
0.3013	123.252	21.9361	-143.086	254.621	186.43	37.6297	25.6071	-29.1175	-338.427	0.310711
0.3020	93.3603	20.7219	-141.843	230.794	223.049	42.8019	33.2382	-36.1075	-248.739	0.310711
0.3027	55.2061	6.96127	-112.255	344.912	172.987	43.1185	40.5737	-42.8401	-398.241	0.310711
0.3033	-8.87024	-4.04725	-56.6922	461.798	107.682	41.0075	47.2912	-52.3172	-578.907	0.310711
0.3040	-100.124	-6.4756	20.4973	427.626	53.3751	38.8436	40.2781	-51.674	-485.219	0.310711
0.3047	-175.218	-2.50929	113.554	353.167	2.09192	30.0299	23.7799	-37.6513	-256.998	0.310711
0.3053	-197.778	0.566615	188.654	244.223	-38.1931	20.8468	17.6804	-22.6851	-68.9759	0.310711
0.3060	-201.464	-4.93764	186.226	116.677	-67.7907	18.419	17.976	-14.1514	66.8466	0.621423
0.3067	-227.71	-22.017	106.27	101.106	-79.3895	9.86923	18.2985	-8.66236	165.116	0.310711
0.3073	-264.001	-41.5248	25.3534	121.537	-60.7693	-7.81094	21.3348	0.514596	112.271	0.310711
0.3080	-263.11	-49.7811	-2.37159	113.595	-28.7277	-24.0134	20.4212	5.06019	-211.509	0.310711
0.3087	-193.201	-51.3191	11.9709	95.9336	-7.97416	-30.1355	14.6441	0.514596	-521.223	0.621423
0.3093	-73.8782	-51.6429	29.9272	69.3376	2.71329	-26.7578	7.30863	-6.51821	-454.441	0.310711
0.3100	50.6292	-47.6766	30.266	86.1626	-2.17477	-28.2883	-4.59477	-5.61767	-205.379	0
0.3107	129.975	-35.1301	28.1202	127.964	-19.8836	-36.5214	-16.2026	6.90416	-98.5923	0.621423
0.3113	166.266	-14.9748	36.6467	179.536	-14.9956	-37.4186	-29.3151	10.5492	-56.7809	0.621423
0.3120	182.468	0.242835	41.5592	231.108	-3.99744	-22.7995	-48.8496	-0.729011	-31.7457	0.310711
0.3127	123.859	6.39465	38.51	216.478	-27.8164	15.6747	-59.517	-5.91785	-96.463	0.621423
0.3133	-31.4711	7.28504	33.9363	159.68	-54.9699	63.8597	-58.0123	-8.062	-137.629	0.310711
0.3140	-99.8408	5.18048	29.0237	104.137	-61.37	87.9787	-54.3311	-15.6952	-91.5592	0
0.3147	-9.47779	4.8567	29.9272	52.2514	-71.7467	90.1425	-49.4676	-17.7964	-46.07	0.310711
0.3153	8.50571	8.17544	34.5574	1.9333	-91.2782	96.5285	-42.4277	-11.4069	-34.5202	0.621423
0.3160	-112.964	9.14678	34.5574	-29.522	-99.8323	107.189	-30.8467	-12.0072	-24.39	0
0.3167	-126.371	11.2513	32.0729	-24.0356	-64.4354	111.464	-17.1162	-22.3849	6.38785	-0.621423
0.3173	104.013	17.3222	30.5483	-14.8917	-4.92948	104.762	-5.80392	-22.6851	36.9076	0
0.3180	281.944	15.8652	24.1676	-15.1529	19.4901	87.9787	6.09949	-4.37406	43.2954	0.621423
0.3187	208.39	5.42331	9.82514	-16.0934	22.2448	71.829	16.7669	18.1824	41.1662	0.310711
0.3193	150.43	-5.26142	-1.46812	-22.7816	24.9788	53.8322	22.2483	27.6595	54.329	0.310711
0.3200	169.628	-17.4032	-9.09108	-32.5526	32.9115	8.97203	24.3979	31.0044	74.783	0.310711
0.3207	43.9057	-31.8114	-19.7632	-42.3236	50.6204	-50.8767	29.8794	42.2826	92.7852	0.310711
0.3213	-112.032	-36.0205	-22.8124	-55.7523	46.9543	-82.5954	36.5969	59.9933	115.368	0.310711
0.3220	-60.4715	-25.9833	-15.5282	-64.8962	16.1347	-103.97	31.1154	67.0261	133.371	0.310711
0.3227	55.8137	-18.9411	-11.5756	-69.4944	-11.9302	-139.964	19.83	48.1147	143.436	0.310711
0.3233	42.083	-23.2312	-14.6248	-79.5789	-35.1277	-159.227	10.6674	19.1258	159.309	0.310711
0.3240	-9.47779	-27.8451	-17.9563	-87.2076	-52.5259	-139.383	-2.1496	3.55929	169.052	0.310711
0.3247	-9.47779	-23.2312	-17.3352	-81.4077	-66.5687	-87.7676	-13.1394	9.94885	164.794	0
0.3253	32.6052	-8.25638	-10.6157	-74.6673	-81.8335	-32.8798	-19.8569	16.6815	166.02	0.310711
0.3260	205.028	9.38961	-2.37159	-70.4349	-72.3681	-0.211107	-21.3885	-7.76182	173.311	0.621423
0.3267	415.929	15.5414	-0.282332	-61.5522	-38.7938	10.1859	-7.3355	-36.1075	170.601	0.310711
0.3273	333.829	12.1417	-1.46812	-57.2675	-10.7289	8.97203	12.7901	-28.1741	157.761	0
0.3280	20.4137	12.1417	4.63024	-58.2081	7.29066	7.12485	23.4844	-2.2728	146.792	0.310711
0.3287	-189.556	10.361	5.5337	-54.5505	35.9769	2.84994	21.3348	16.9817	141.565	0.310711
0.3293	-197.494	0.242835	-2.99272	-55.7523	67.7079	-8.1276	6.69062	29.8037	147.114	0.310711
0.3300	-55.8947	-2.50929	-0.846995	-64.3215	74.4186	-12.4025	-8.86709	30.7042	159.89	0.310711
0.3307	71.9745	7.60882	13.1567	-51.2064	59.1745	4.961	-17.7073	21.5701	160.793	0.310711
0.3313	49.4141	7.28504	19.8762	-32.5526	45.1317	36.4159	-20.7705	13.6368	153.502	0.310711
0.3320	-18.6316	-15.2986	11.0109	-45.4065	32.3109	54.0961	-15.2621	-4.37406	144.662	0.310711
0.3327	-41.84	-29.3021	-1.18579	-52.4082	8.51267	43.1185	-7.95351	-21.7846	125.434	0.310711
0.3333	-39.0858	-16.5128	-3.33151	-35.0084	-14.9956	23.9078	-6.71749	-12.6505	99.7537	0.310711
0.3340	23.1679	-3.07591	-6.3807	-21.2663	-27.8164	5.27766	-7.3355	-10.5063	77.8157	0
0.3347	60.3905	-4.29008	-16.714	-18.8105	-29.639	-13.3525	-9.78067	-26.0728	68.0726	0
0.3353	-34.8329	-7.68977	-22.5301	-19.4375	-0.0414242	-11.822	-16.7937	-13.8512	64.9754	0.310711
0.3360	-141.924	-11.3323	-25.5793	-16.4069	55.1978	1.63608	-27.7836	25.5154	56.4583	0.310711
0.3367	-180.078	-17.4032	-28.3461	-7.26295	89.6834	5.27766	-37.2418	40.7817	48.1992	0.310711
0.3373	-249.663	-16.8365	-23.1512	-13.9511	83.5733	25.1217	-37.5642	23.3712	43.0373	0.310711
0.3380	-420.263	-11.6561	-14.6248	-37.1508	50.3097	101.701	-28.4016	4.45983	38.7788	0.310711
0.3387	-553.641	-11.6561	-7.90529	-37.7778	14.0014	177.382	-12.5214	-14.7517	40.9081	0.310711
0.3393	-466.356	-17.1603	-6.66303	-27.6932	-9.50686	189.626	10.3718	-30.6184	50.6511	-0.621423
0.3400	-255.779	-14.0844	-9.09108	-32.8661	-27.5057	185.035	33.8562	-42.2397	61.0395	-0.310711
0.3407	-194.133	1.78079	-10.051	-40.4948	-38.1931	189.943	32.3246	-51.3738	78.1383	0.310711
0.3413	-248.772	12.7893	-9.71221	-43.8389	-43.6818	195.432	10.3718	-35.8073	104.658	0.310711
0.3420	-183.44	12.4655	-4.23498	-50.8929	-63.2133	208.204	3.03631	-17.1961	130.015	0.310711
0.3427	11.5435	7.9326	1.24226	-61.2387	-81.2122	202.451	-2.1496	-30.9186	146.469	0.621423
0.3433	201.666	10.9276	3.72678	-63.381	-82.1235	175.588	-19.5345	-55.9623	156.535	0.310711
0.3440	300.252	25.012	11.9709	-52.0947	-95.8556	178.016	-23.8068	-45.8848	162.342	0
0.3447	347.884	25.9024	14.0601	-36.5237	-116.319	196.329	-8.24908	-5.01731	153.179	0.310711
0.3453	355.498	5.18048	-0.846995	-20.378	-97.699	181.974	3.65432	30.1038	133.048	0.310711
0.3460	328.644	-18.6173	-21.2878	-4.80713	-58.9466	139.541	4.86347	55.7479	117.175	-0.621423
0.3467	426.906	-35.1301	-44.2131	-1.14953	-56.1919	94.4174	6.39505	56.6484	105.883	-0.621423
0.3473	499.528	-38.5298	-53.643	3.44859	-55.8813	36.7325	14.6441	14.2371	90.6559	0.310711
0.3480	299.644	-30.5972	-34.1057	20.8483	35.0656	-38.052	31.7334	-29.1175	65.8788	0
0.3487	20.6972	-24.7692	-7.56649	34.5904	172.698	-93.3091	46.3776	-42.2397	31.4231	0
0.3493	-168.494	-22.3408	8.58288	7.73321	230.36	-125.925	46.3776	-49.5727	6.06523	0.310711
0.3500	-312.848	-17.1603	18.6904	-68.5538	193.741	-144.239	37.8329	-67.8838	4.25857	0.310711
0.3507	-386.686	-10.4419	20.7796	-114.378	116.236	-132.628	30.2019	-98.0734	17.0988	0.310711
0.3513	-299.117	13.1131	30.5483	-89.0364	67.3972	-114.948	20.4212	-101.418	38.7788	0.310711
0.3520	-99.8408	45.4101	48.8999	-61.5522	71.3739	-122.864	6.69062	-46.4851	73.2345	0
0.3527	151.037	52.4523	45.8507	-45.4065	71.6846	-134.475	-1.85403	7.50452	91.2366	0.310711
0.3533	360.075	44.1959	25.3534	-21.2663	44.5103	-127.772	-3.97676	13.6368	82.0742	0.310711
0.3540	380.529	42.0914	12.5355	-45.9812	-4.92948	-148.197	-6.71749	-0.128649	79.6223	0.310711
0.3547	377.167	35.0492	5.8725	-77.1231	-81.5228	-209.576	-9.78067	-6.81839	67.1047	0.621423
0.3553	368.621	13.6797	-7.56649	-29.8356	-163.004	-260.505	-14.671	-4.07388	22.2607	0.310711
0.3560	237.714	-15.6224	-26.2004	4.96388	-212.133	-248.947	-25.3384	4.76001	-13.7436	0
0.3567	78.6981	-36.9918	-39.6394	-23.7221	-214.888	-176.591	-32.6739	8.10488	-22.2607	0
0.3573	-73.5946	-43.7103	-42.9709	-15.7799	-169.404	-103.653	-31.1423	-6.81839	-39.6821	0.310711
0.3580	-178.579	-41.201	-40.2605	11.7043	-99.211	-45.6518	-26.5744	-23.3283	-71.7504	0.310711
0.3587	-360.156	-37.8822	-39.3006	-0.522514	-69.3027	20.5301	-23.5112	-28.5172	-90.9785	0.310711
0.3593	-683.616	-37.2347	-39.0182	-6.00891	-101.054	84.6537	-24.7472	-34.0062	-100.722	0.621423
0.3600	-952.802	-37.8822	-42.6886	-0.836023	-138.585	96.2118	-27.7836	-59.6073	-108.658	0.621423
0.3607	-1115.46	-34.8063	-47.8835	-1.14953	-136.141	96.5285	-28.106	-96.5725	-107.432	0.310711
0.3613	-930.808	-7.04221	-21.0055	7.73321	-124.252	207.307	-26.252	-117.285	-95.8178	0.310711
0.3620	-298.51	46.0577	36.9855	15.3619	-130.051	353.181	-25.3384	-127.062	-84.8487	0.310711
0.3627	329.86	90.5774	80.9163	12.9061	-118.453	402.95	-15.5846	-138.34	-79.6868	0.310711
0.3633	709.822	110.409	94.3553	7.10619	-83.0555	396.511	15.8533	-140.785	-70.2018	0.310711
0.3640	720.798	98.1862	80.0128	0.104503	-46.1259	372.709	39.9557	-110.895	-51.2964	0.621423
0.3647	321.921	58.5232	56.184	-7.5242	-13.1522	334.551	39.9557	-58.4066	-35.6816	0.621423
0.3653	19.8062	23.7978	39.6958	-11.4953	21.9341	302.832	40.2781	-30.9186	-31.165	0.310711
0.3660	253.551	10.361	28.4026	-13.0106	60.6865	265.308	25.9295	-19.3402	-26.8419	0.310711
0.3667	539.829	-2.75213	19.255	-16.9817	95.7935	202.135	-16.2026	32.5482	-15.5502	0.310711
0.3673	374.413	-36.0205	4.00911	-26.178	144.612	125.82	-57.3943	117.971	-0.903333	0
0.3680	153.143	-59.8183	-9.09108	-36.2102	194.052	58.1071	-84.5598	167.415	12.5176	0.310711
0.3687	168.737	-50.1049	-17.9563	-37.7778	214.495	-32.5632	-94.6092	153.392	21.68	0.621423
0.3693	206.891	-32.7018	-21.0055	-26.178	205.65	-153.686	-75.3972	132.637	27.4871	0.621423
0.3700	221.513	-32.0542	-11.5756	-8.15122	128.146	-273.647	-34.2055	151.849	30.8424	0.310711
0.3707	233.421	-43.7103	-16.714	2.82158	10.0247	-401.525	-5.21278	179.637	32.9716	0.310711
0.3713	160.798	-54.6378	-32.2987	11.7043	-64.7253	-508.925	3.03631	169.559	30.1971	0.310711
0.3720	45.7283	-52.2095	-27.4426	23.3041	-97.989	-553.205	8.22221	119.215	32.649	0.310711
0.3727	16.7684	-32.378	-9.71221	7.99447	-121.808	-525.391	22.8664	60.9367	43.2954	0.310711
0.3733	149.822	-22.5836	-5.75957	-24.6104	-126.986	-419.838	36.9193	45.6704	51.8771	0.621423
0.3740	289.559	-33.5922	-12.4791	-20.378	-108.076	-310.274	38.1285	57.549	63.4914	0.310711
0.3747	214.789	-33.0255	-7.90529	-8.15122	-89.1449	-273.964	43.3144	42.6257	80.2676	0.310711
0.3753	-13.4471	-16.8365	1.86339	-23.4086	-51.6146	-254.7	42.4008	27.0592	91.2366	0.310711
0.3760	-230.14	-10.4419	-4.85611	-38.9796	1.80195	-206.198	21.9528	51.4596	83.3002	0.310711
0.3767	-395.556	-15.2986	-15.5282	-52.7217	37.7996	-162.235	10.963	80.1483	55.2323	0.310711
0.3773	-492.602	-18.0507	-16.1494	-54.864	56.7305	-137.536	13.1125	77.7039	17.0988	0.310711
0.3780	-497.179	-14.4082	-11.2368	-36.5237	71.6846	-114.631	7.92664	62.4376	-3.35524	0
0.3787	-410.502	-11.9799	-10.3333	-30.7238	107.082	-93.8896	-5.21278	38.3374	0.903333	0
0.3793	-207.863	-15.9462	-11.8579	-29.2085	125.391	-89.6147	-11.3123	9.04831	-7.35571	0
0.3800	114.706	-14.9748	0.0564663	-5.6954	100.661	-97.2673	-6.42193	-8.66236	-36.6495	0
0.3807	364.652	-8.90394	11.6321	17.1907	71.9746	-110.092	-9.4851	-30.6184	-63.4914	0.310711
0.3813	314.914	0	8.58288	22.6771	50.9311	-100.012	-21.9796	-78.8618	-83.6228	-0.310711
0.3820	66.1825	8.823	0.338798	15.3619	16.7561	-54.5183	-26.252	-98.0734	-101.044	-0.621423
0.3827	-73.5946	5.18048	-12.7614	12.2791	-27.8164	-25.2272	-32.3783	-23.3283	-110.207	0.621423
0.3833	-21.9933	-6.4756	-27.725	24.5059	-17.7296	-38.9492	-50.6768	63.038	-107.432	0.621423
0.3840	37.1821	-12.2227	-38.7359	37.9345	41.1549	-63.3847	-67.1481	74.0589	-111.691	0.310711
0.3847	19.4821	-10.4419	-39.6394	38.5615	29.2662	-90.2481	-58.3079	53.0034	-127.886	0.621423
0.3853	28.9599	-1.86173	-28.3461	23.5654	-44.9038	-154.952	-22.5977	38.3374	-133.951	0.310711
0.3860	131.514	6.39465	-19.4809	10.7638	-54.3486	-213.851	5.15904	24.3146	-128.209	0.310711
0.3867	201.99	14.8939	-13.3825	22.6771	-33.9057	-182.713	5.77705	4.76001	-130.596	0.310711
0.3873	96.1145	18.5364	-11.5756	44.6227	-68.1014	-85.9732	-0.32244	-3.47352	-143.436	0.310711
0.3880	-84.8546	8.823	-20.102	54.3937	-88.8342	16.8885	17.6804	-4.67424	-148.598	0.310711
0.3887	-177.648	1.45701	-24.3935	55.3342	-43.0605	89.8258	68.0348	-19.3402	-141.888	0.310711
0.3893	-205.109	2.10457	-24.0547	47.392	26.8222	115.739	99.1771	-30.6184	-130.919	0.310711
0.3900	-225.239	2.10457	-24.0547	37.621	59.1745	127.033	102.536	-30.0181	-120.853	0
0.3907	-187.733	1.45701	-21.2878	32.1346	-3.39679	145.664	114.412	-35.5071	-114.143	0
0.3913	-79.0626	-0.64756	-20.7231	27.5365	-122.098	166.141	109.226	-37.0509	-110.787	0.310711
0.3920	-26.2867	0.890394	-17.0528	39.7633	-213.666	202.715	85.7421	-9.5629	-113.82	0.310711
0.3927	17.9835	7.60882	-11.8579	50.4226	-269.195	215.54	66.2076	22.7709	-114.465	0.310711
0.3933	94.5754	6.96127	-14.0037	39.4498	-264.328	236.598	40.2781	27.6595	-101.302	0.310711
0.3940	16.7684	0.566615	-17.0528	30.9328	-213.666	348.59	16.7669	16.0382	-80.8483	0
0.3947	-83.6395	-2.50929	-16.714	27.85	-152.938	421.263	15.8533	6.90416	-62.588	0
0.3953	-44.5942	-3.39969	-18.2386	24.1924	-49.7712	355.609	56.4538	11.7928	-56.1357	0
0.3960	15.8368	-3.39969	-17.0528	22.6771	78.0846	235.384	108.017	27.6595	-59.4909	0.310711
0.3967	52.7759	-7.04221	-9.71221	19.5943	208.095	108.72	95.2003	35.5929	-53.7483	0.621423
0.3973	25.3146	-22.017	-5.42077	13.2196	339.326	14.1441	21.0392	26.1157	-38.1335	0.310711
0.3980	-35.4405	-39.4202	-9.42988	-1.7243	414.076	-12.7192	-61.3442	3.55929	-21.68	0.310711
0.3987	-110.817	-47.029	-17.0528	-20.6916	431.785	2.21662	-121.479	-7.11857	-2.77452	0.310711
0.3993	-305.841	-48.567	-24.0547	-33.1796	443.384	57.1571	-145.877	-4.37406	13.4209	0.310711
0.4000	-579.887	-49.7811	-32.5811	-32.5526	437.274	127.667	-143.459	-8.062	17.0988	0
0.4007	-809.663	-45.4911	-39.9217	-23.7221	354.57	107.506	-124.515	3.85947	13.4209	0.310711
0.4013	-829.509	-43.7103	-39.3006	-22.5204	204.118	-34.4104	-103.772	14.8375	13.4209	0.310711
0.4020	-635.417	-46.4624	-32.5811	-29.8356	83.884	-205.882	-92.1909	-8.96254	13.4209	0.310711
0.4027	-433.71	-34.2397	-17.674	-30.1491	47.265	-345.37	-79.9651	-38.2516	6.38785	0.310711
0.4033	-155.695	-2.50929	7.39709	-20.378	78.0846	-437.835	-47.318	-69.0845	-4.58119	0.310711
0.4040	241.967	24.6882	26.3133	-6.00891	96.7048	-455.199	22.8664	-97.1728	-16.5181	0.310711
0.4047	527.313	34.4825	32.4117	0.992777	47.265	-383.528	95.8183	-107.55	-23.8093	0.310711
0.4053	652.428	31.9733	30.266	-7.26295	-8.28484	-287.369	107.399	-108.751	-13.4209	0
0.4060	566.683	23.1503	22.3042	-17.2952	-20.795	-226.94	60.1081	-95.9292	9.16237	-0.932134
0.4067	114.098	15.8652	18.3516	-20.6916	-24.751	-196.118	7.92664	-67.8838	28.9712	-0.621423
0.4073	-371.74	10.361	21.4007	-24.3492	-23.8396	-147.616	-25.6608	-45.8848	41.1662	0.310711
0.4080	-494.101	4.20914	25.3534	-29.522	7.29066	-38.6325	-44.8729	-42.8401	49.4252	0.621423
0.4087	-477.616	-2.75213	22.9253	-35.949	33.8436	49.2406	-50.6768	-38.2516	57.3616	0.310711
0.4093	-424.84	-10.6847	15.02	-39.6066	36.8883	44.649	-39.9825	-2.2728	55.2323	0.310711
0.4100	-40.6249	-15.6224	9.48635	-31.0373	46.043	11.0831	-10.6943	38.9377	39.0369	0.310711
0.4107	578.591	-19.9125	6.15483	-21.5798	40.2436	10.4498	14.6441	47.4715	27.7452	0.621423
0.4113	820.274	-32.378	-2.37159	-24.9239	-8.57481	65.3903	13.7037	50.8592	29.2938	0.621423
0.4120	517.552	-45.4911	-10.6157	-31.3508	-65.3467	142.286	2.4183	75.86	29.2938	0.310711
0.4127	133.013	-46.4624	-11.8579	-31.0373	-61.6806	166.141	-3.68119	94.171	24.1319	0
0.4133	-73.8782	-45.1673	-11.8579	-27.3797	-10.4182	151.786	-9.4851	95.4146	19.8088	0
0.4140	-90.9706	-46.1386	-9.42988	-26.7527	-8.28484	148.091	-16.2026	91.7267	22.2607	0.310711
0.4147	136.982	-37.2347	-0.846995	-30.1491	-42.7705	105.712	-9.78067	75.86	28.6485	0
0.4153	440.353	-23.555	9.82514	-31.9779	-33.9057	7.70539	7.01306	54.8044	35.1009	0
0.4160	540.437	-19.5887	13.7778	-30.1491	3.31394	-77.1067	15.2353	46.2707	38.1335	0.310711
0.4167	453.759	-25.9833	5.8725	-28.0068	15.2234	-110.092	7.01306	46.2707	30.8424	0.310711
0.4173	236.459	-34.5635	-2.99272	-24.3492	14.0014	-112.836	-8.86709	48.1147	21.0347	0.310711
0.4180	-33.2938	-40.3106	-5.42077	-27.6932	17.6674	-98.4812	-22.3021	42.2826	25.2933	0.310711
0.4187	-203.286	-36.0205	-0.564663	-35.6355	10.9567	-70.404	-29.9332	34.0491	35.6816	0
0.4193	-229.816	-28.0879	5.25137	-14.5781	-6.13078	-68.8735	-27.1655	43.5262	34.4557	0
0.4200	-125.763	-29.3021	3.72678	27.223	5.15731	-117.375	-21.3885	54.8044	25.0352	0
0.4207	47.875	-29.6258	4.00911	36.7327	59.1745	-220.237	-14.053	44.4268	19.2281	0.310711
0.4213	263.312	-20.4791	10.4463	19.5943	75.04	-320.038	6.39505	22.4707	15.8728	0.310711
0.4220	409.53	-12.2227	13.7778	6.79268	22.8454	-306.896	29.8794	7.50452	13.7436	0.310711
0.4227	372.267	-4.29008	17.7304	0.992777	-29.0384	-190.946	34.1517	-2.57298	15.2276	0.310711
0.4233	265.459	6.63749	23.5465	3.44859	-56.7926	-87.187	28.3747	-10.5063	16.4536	0.310711
0.4240	151.928	6.07087	19.5938	8.62148	-62.592	-36.2048	29.5838	-11.4069	14.9695	0.310711
0.4247	-7.37161	-10.4419	4.63024	9.87552	-58.3253	-6.3332	37.5105	-10.5063	12.195	0.310711
0.4253	-166.347	-22.9074	-7.90529	13.5331	-65.036	15.0413	47.9092	-2.87316	7.29118	0.310711
0.4260	-204.826	-23.8788	-8.18762	18.079	-72.9687	39.7936	45.464	26.759	3.93595	0.310711
0.4267	-118.756	-29.6258	-4.85611	16.5637	-80.3008	72.1457	26.8431	51.4596	5.80714	0.310711
0.4273	-31.7546	-41.201	-2.71038	14.4214	-82.7449	99.9062	14.3217	33.4487	8.25904	0.310711
0.4280	-1.86316	-44.6007	-0.846995	13.5331	-74.5014	124.025	11.2854	-1.62955	11.6143	0.310711
0.4287	-14.9862	-40.3106	-2.37159	7.10619	-47.3479	134.369	3.03631	-19.9406	18.9055	0.310711
0.4293	-45.2018	-35.4539	-4.85611	-13.0106	-8.57481	115.159	-2.44517	-24.8292	22.5833	0.621423
0.4300	-55.8947	-34.5635	-2.08925	-44.1524	3.02397	73.0429	9.7538	-10.5063	19.2281	0.310711
0.4307	-36.9796	-31.1638	5.8725	-57.0063	-13.1522	34.3048	23.4844	19.7262	14.0017	0.310711
0.4313	-24.14	-21.3695	14.6812	-45.093	-25.0616	-0.527766	24.6935	34.3493	10.6464	0.621423
0.4320	-33.9013	-24.1216	15.9235	-26.4392	-18.3509	-54.5183	21.9528	36.4934	8.51714	0.310711
0.4327	-46.4169	-29.0592	14.0601	0.104503	-11.3295	-110.092	16.1489	53.6037	9.16237	0
0.4333	-53.1404	-16.189	14.0601	10.1368	-22.9283	-127.456	4.24546	45.07	10.6464	0
0.4340	-58.9324	-3.72347	10.4463	-11.4953	-40.3265	-100.328	-4.89034	-3.47352	10.3883	0.310711
0.4347	-69.0178	-1.29512	7.96175	-20.9528	-49.1705	-60.957	-10.0762	-8.062	10.6464	0.310711
0.4353	-78.7791	-2.50929	5.25137	-6.94944	-57.1033	-43.2241	-18.9433	15.7381	11.6143	0.310711
0.4360	-84.247	-2.18551	1.24226	7.73321	-65.036	-20.0551	-25.9564	11.1925	10.969	0.310711
0.4367	-90.6871	0.242835	2.20219	17.1907	-61.6806	15.0413	-27.7836	3.55929	9.74309	0
0.4373	-93.7248	0	0.677596	26.9617	-54.6592	34.5687	-33.883	-5.61767	9.74309	-0.932134
0.4380	-90.9706	-1.86173	-1.46812	35.1652	-52.2152	59.3209	-33.2919	-13.8512	8.83976	-0.621423
0.4387	-90.0795	-2.50929	1.58106	33.3364	-52.8366	79.7455	-18.9433	-15.9953	3.67785	0.310711
0.4393	-89.1479	-2.50929	0.959928	27.223	-57.7246	72.4096	-1.85403	-26.0728	-3.03262	0.310711
0.4400	-87.9328	-1.53795	-0.282332	25.1329	-56.5026	61.1154	6.09949	-30.0181	-5.22642	0.310711
0.4407	-88.5404	0.242835	2.20219	23.8789	-49.7712	55.3099	-5.21278	-26.373	-3.35524	0.310711
0.4413	-87.0013	0	0.338798	18.3925	-41.2378	40.0575	-18.0298	-25.4296	-1.22595	-0.310711
0.4420	-84.247	-0.32378	-1.18579	4.07561	-14.6849	11.0831	-3.68119	-24.8292	0.580714	-0.310711
0.4427	-84.247	-0.64756	-1.80692	-5.6954	6.97998	-11.822	26.5207	-22.3849	0	0.621423
0.4433	-84.247	-2.50929	-5.13844	-5.12064	-11.6402	6.22764	29.5838	-21.7846	-1.54857	0.310711
0.4440	-85.5026	-2.50929	-6.66303	-6.00891	-26.5943	43.1185	8.22221	-22.3849	0.580714	0.310711
0.4447	-89.4315	-2.75213	-6.3807	-12.1223	-3.0861	46.8129	2.74074	-21.7846	5.48452	0.310711
0.4453	-93.7248	-7.68977	-8.46995	-25.8644	10.9567	23.5912	9.13579	-19.9406	15.2276	0
0.4460	-95.8715	-8.90394	-12.7614	-33.1796	1.80195	-13.3525	4.24546	-16.8959	21.9381	0.310711
0.4467	-86.3937	6.39465	-5.75957	-21.5798	-3.99744	-70.7207	-3.68119	-5.61767	18.3247	0.310711
0.4473	-61.9702	20.3981	11.0109	-5.6954	-7.3528	-101.806	8.84022	2.61586	10.969	0.310711
0.4480	-42.7716	6.07087	9.20401	1.9333	-10.7289	-51.1933	47.9092	-19.9406	4.58119	0.310711
0.4487	-39.4098	-14.9748	-4.51731	3.7621	-9.50686	42.8019	72.9251	-47.1284	1.22595	0.310711
0.4493	-39.0858	-18.3745	-4.23498	5.5909	-6.75215	119.75	56.7494	-42.8401	2.12928	0
0.4500	-42.7716	-13.7606	2.48452	7.4197	-7.66348	159.385	25.3115	-38.5518	3.67785	0
0.4507	-46.4169	-8.58016	0.677596	7.10619	-15.3062	156.324	2.4183	-41.9395	4.90381	0
0.4513	-43.9867	-5.82804	-7.56649	3.13508	-25.0616	125.82	-7.65794	-35.8073	9.16237	0
0.4520	-43.9867	-5.50426	-13.3825	-2.35131	-29.0384	95.6313	-3.68119	-17.1961	14.9695	0.310711
0.4527	-48.5636	-3.07591	-11.5756	-5.6954	-25.973	88.9286	2.4183	9.64867	19.2281	0.310711
0.4533	-49.7787	12.1417	-6.94536	-8.77824	-24.1503	90.723	-1.85403	11.7928	21.0347	0
0.4540	-45.8093	34.4825	-6.3807	-10.2935	-24.1503	73.6234	-7.03993	-6.21803	18.5828	0.310711
0.4547	-42.164	37.8013	-5.42077	-5.12064	-17.4396	52.3017	-1.53159	-7.46164	13.0983	0
0.4553	-38.4782	24.0406	-2.37159	1.30629	-7.06283	37.9464	6.39505	-3.7737	6.71047	0
0.4560	-33.6178	15.5414	-2.37159	1.9333	-2.48545	17.7857	5.15904	-8.96254	3.35524	0.310711
0.4567	-32.6862	13.3559	-5.42077	-0.836023	-3.70747	-9.07758	-0.02687	-11.1067	5.48452	0.310711
0.4573	-33.6178	8.49922	-4.85611	-0.522514	-10.4182	-37.7353	-0.32244	-12.3074	8.25904	0
0.4580	-31.7546	4.8567	-1.46812	0.992777	-19.2623	-55.4683	5.48148	-8.062	7.93642	0.310711
0.4587	-22.6009	8.49922	0.677596	-4.80713	-23.8396	-50.8767	9.13579	3.55929	8.83976	0.621423
0.4593	-10.7334	12.7893	1.24226	-12.7493	-22.3069	-31.9299	3.33188	-1.62955	11.8724	0.310711
0.4600	-12.8396	11.5751	1.58106	-12.1223	-14.3742	-6.59708	-3.97676	-18.4397	12.5176	0.310711
0.4607	-19.5631	7.9326	-0.282332	-7.83771	-9.79683	8.33871	-4.2992	-9.86308	11.6143	0.310711
0.4613	-15.3103	5.74709	-1.46812	-6.94944	-12.8622	8.97203	-1.53159	8.74813	10.6464	0.310711
0.4620	-9.80182	8.17544	3.72678	-5.12064	-13.7735	13.8275	-0.61801	2.91604	10.6464	0
0.4627	-10.1258	8.823	4.91257	-5.3819	-13.4629	25.4383	-3.68119	-13.551	10.6464	0.310711
0.4633	-8.58672	9.38961	2.76685	-8.15122	-14.6849	33.3548	-9.16266	-19.04	10.3883	0.310711
0.4640	-6.44004	14.8939	7.05829	-7.5242	-11.0188	38.8436	-9.16266	-14.4516	11.2917	0.310711
0.4647	-5.22494	7.60882	7.05829	-6.63593	-2.77542	37.6297	-6.71749	-10.2061	11.8724	0.621423
0.4653	-5.83249	-7.04221	0.677596	-7.83771	5.44728	26.0189	-7.3355	-6.21803	11.8724	0.310711
0.4660	-8.87024	-13.194	-1.46812	-8.15122	10.0247	16.8885	-7.65794	-2.57298	15.2276	-0.932134
0.4667	-5.83249	-14.0844	-1.46812	-9.09175	6.06865	12.297	-7.03993	-5.01731	18.5828	-0.932134
0.4673	-1.2556	-13.7606	0.0564663	-8.77824	-1.26344	9.86923	-6.42193	-5.31749	16.1955	0.310711
0.4680	-0.931578	-10.6847	2.48452	-6.32242	-2.77542	9.23591	-3.38562	-3.7737	12.5176	0.621423
0.4687	0.891074	0	1.24226	-7.5242	-5.21945	7.70539	-3.06318	-7.11857	11.6143	0.310711
0.4693	3.6453	24.0406	2.20219	-8.15122	-7.3528	8.33871	-5.21278	-6.21803	10.969	0.310711
0.4700	3.92883	50.5906	8.92168	-6.00891	-5.53013	9.86923	-4.2992	-2.87316	10.969	0.310711
0.4707	4.86041	52.7761	11.0109	-6.94944	-6.13078	7.70539	-4.59477	-8.66236	11.2917	0.310711
0.4713	2.99725	41.4438	12.5355	-6.63593	-5.21945	8.65537	-4.2992	-11.1067	11.2917	0.310711
0.4720	-0.324027	19.184	13.1567	-5.12064	-2.77542	10.4498	-2.44517	-2.87316	11.6143	0.310711
0.4727	0.567047	-66.8605	12.2532	-7.26295	-4.6188	6.80819	-4.2992	0.814777	11.6143	0
0.4733	1.78215	-179.455	15.3024	-7.26295	-5.21945	5.59432	-4.2992	-5.31749	11.8724	0.310711
0.4740	0.283524	-282.903	6.77596	-6.32242	-3.39679	6.80819	-3.38562	-13.8512	13.0983	0.310711
0.4747	0.891074	-453.858	-3.33151	-7.26295	-2.17477	7.70539	-4.89034	-22.0847	14.0017	0.310711
0.4753	4.25285	-664.72	5.8725	-6.94944	-0.952757	9.23591	-3.97676	-32.7626	15.2276	0.310711
0.4760	6.35903	-837.456	14.6812	-6.94944	-0.352106	8.97203	-2.44517	-51.3738	15.5502	0.310711
0.4767	8.22219	-877.119	19.255	-7.26295	-1.26344	6.80819	-3.68119	-73.9731	14.6469	0.310711
0.4773	16.7684	-583.532	27.2168	-3.8666	-1.26344	5.59432	-4.89034	-88.6391	13.0983	0.310711
0.4780	25.5981	-212.157	27.4991	-2.35131	-0.952757	4.961	-4.89034	-87.3955	11.2917	0.310711
0.4787	24.6666	-189.249	11.0109	-2.97833	0.269257	4.961	-4.2992	-79.162	10.0657	0.310711
0.4793	24.9906	-134.045	2.48452	-2.35131	0.579939	3.74714	-3.38562	-81.9065	8.83976	0.310711
0.4800	31.3901	334.141	19.8762	-3.29184	-1.26344	1.95274	-5.21278	-78.2614	6.71047	0.310711
0.4807	29.8915	790.346	39.4135	-3.29184	-0.952757	1.95274	-6.71749	-21.7846	5.80714	0
0.4813	19.4821	858.421	37.6066	-3.29184	0.269257	2.21662	-6.71749	48.7151	5.48452	0.310711
0.4820	5.75148	714.096	15.02	-3.29184	1.49127	2.84994	-6.12636	54.5043	5.48452	0.621423
0.4827	-7.97917	560.301	-11.2368	-1.14953	4.22527	4.961	-4.59477	21.8703	6.38785	0.310711
0.4833	-8.26269	343.854	-35.9691	-1.7243	4.53595	4.69712	-5.21278	6.3038	7.6138	0.621423
0.4840	3.32128	127.488	-40.2605	-4.49362	3.9353	3.1666	-6.42193	3.55929	7.93642	0.621423
0.4847	13.6901	110.733	-23.4335	-4.49362	5.15731	4.0638	-5.80392	2.61586	8.51714	0.310711
0.4853	21.9528	182.45	-27.1038	-4.80713	5.44728	3.74714	-6.71749	5.36037	8.83976	0.310711
0.4860	28.9599	184.554	-38.7359	-3.8666	6.06865	4.0638	-5.80392	9.94885	8.25904	0.310711
0.4867	32.6052	115.589	-29.8707	-2.66482	6.6693	4.38046	-4.2992	5.06019	7.03309	0.310711
0.4873	34.4684	-61.3563	-10.9545	-3.29184	6.06865	3.43048	-5.80392	6.60398	6.38785	0.310711
0.4880	32.3217	-108.709	4.63024	-2.97833	5.75796	4.0638	-6.42193	32.5482	5.48452	0.310711
0.4887	24.6666	69.5317	7.67942	-2.35131	5.44728	3.74714	-6.71749	51.4596	4.25857	0.310711
0.4893	17.9835	151.043	5.5337	-2.35131	5.15731	2.53328	-7.03993	46.2707	3.03262	0.310711
0.4900	14.6217	98.1862	6.43716	-1.46304	5.44728	3.74714	-6.12636	48.1147	2.12928	0.310711
0.4907	10.9359	82.0782	-1.46812	-1.7243	4.53595	3.43048	-5.80392	73.7158	1.80667	0.310711
0.4913	6.35903	105.552	-24.0547	-2.97833	3.31394	1.95274	-5.80392	94.4712	1.80667	0.310711
0.4920	3.92883	106.766	-32.9199	-1.7243	3.9353	3.43048	-5.50835	79.8481	1.80667	0
0.4927	4.86041	80.864	-18.2386	-1.14953	4.84663	4.69712	-5.50835	29.5035	2.4519	0
0.4933	6.96658	56.0948	0.0564663	-1.7243	4.84663	6.22764	-4.89034	-17.1961	2.71	0.310711
0.4940	10.6524	50.024	16.5446	-0.836023	5.15731	8.65537	-3.97676	-19.04	3.03262	0.310711
0.4947	10.6524	32.6208	26.3133	0.104503	4.84663	7.70539	-4.2992	-7.76182	3.35524	0.310711
0.4953	3.92883	-28.0879	18.6904	0.104503	4.22527	4.0638	-4.59477	11.7928	1.80667	0
0.4960	1.1746	-52.857	-16.1494	0.104503	3.9353	2.53328	-2.76761	28.2599	2.4519	-0.621423
0.4967	8.22219	-8.01355	-55.5064	-0.522514	3.02397	3.1666	-0.32244	-9.86308	6.71047	-0.932134
0.4973	12.1915	5.18048	-64.9363	0.679268	3.9353	5.91098	-0.940449	-52.6174	6.38785	0
0.4980	12.7991	6.39465	-39.3006	1.30629	4.53595	8.65537	-3.38562	-62.9951	3.67785	0.310711
0.4987	16.1203	90.0108	-4.51731	-0.836023	2.4026	7.44151	-4.2992	-42.8401	5.1619	0.310711
0.4993	13.6901	80.864	8.92168	-2.03781	2.4026	6.49153	-4.89034	4.76001	6.71047	0.310711
0.5000	11.8675	-106.281	10.4463	-1.46304	3.62462	6.22764	-6.12636	-2.2728	6.71047	0
0.5007	19.1986	-255.138	25.0711	-0.836023	3.31394	5.91098	-6.71749	-43.4405	6.38785	0
0.5013	20.6972	-361.986	44.3261	0.104503	3.02397	6.80819	-4.89034	-40.0956	5.1619	0
0.5020	14.6217	-458.715	38.51	-0.836023	1.80195	6.49153	-3.97676	-24.5291	5.48452	0.310711
0.5027	12.475	-474.256	8.58288	-2.97833	-0.642075	4.69712	-5.21278	-47.1284	6.06523	0
0.5033	8.22219	-535.613	-17.674	-2.97833	-0.952757	5.27766	-5.21278	-120.673	5.80714	0
0.5040	13.0826	-608.544	-11.5756	-2.66482	-1.55341	4.961	-5.21278	-170.417	4.25857	0.310711
0.5047	35.6835	-383.679	18.3516	-1.46304	-2.77542	4.69712	-5.21278	-156.652	1.80667	0.310711
0.5053	56.0972	132.993	25.9745	0.104503	-3.70747	4.961	-3.38562	-142.028	-0.903333	0.310711
0.5060	59.1754	512.058	20.215	-1.14953	-6.44146	1.63608	-4.59477	-75.5169	-3.03262	0.310711
0.5067	42.6906	519.1	28.1202	-2.35131	-7.97416	-0.527766	-6.12636	66.7259	-3.03262	0.310711
0.5073	20.6972	387.241	25.9745	-2.35131	-7.3528	1.00276	-6.42193	186.026	-1.54857	0.310711
0.5080	9.11326	322.566	6.15483	-2.03781	-6.75215	1.31942	-6.12636	238.515	-0.903333	0.310711
0.5087	3.92883	298.12	-10.3333	-0.209006	-4.92948	2.84994	-4.59477	213.514	-0.645238	0.310711
0.5093	3.6453	278.289	-21.0055	0.36576	-3.99744	4.38046	-3.68119	147.303	0.322619	0
0.5100	7.29061	228.265	-37.776	-2.03781	-5.53013	2.21662	-5.21278	103.048	1.54857	0.310711
0.5107	8.50571	153.148	-49.6904	-3.29184	-5.84081	1.63608	-6.12636	91.7267	2.71	0.310711
0.5113	8.82974	124.493	-37.4937	-2.35131	-4.92948	2.53328	-5.80392	89.2824	3.67785	0.310711
0.5120	9.11326	107.981	-15.8106	-2.35131	-4.30812	1.95274	-5.21278	81.349	4.25857	0.310711
0.5127	9.43729	47.8385	4.00911	-1.14953	-3.39679	2.53328	-3.97676	70.6711	3.93595	0
0.5133	15.2293	-19.9125	18.0692	-1.14953	-5.53013	1.31942	-4.59477	59.0927	2.12928	0
0.5140	17.6595	-100.453	13.1567	-2.35131	-7.66348	-1.10831	-5.80392	45.3702	0.903333	0.310711
0.5147	12.475	-194.106	0.338798	-2.35131	-7.3528	0.105553	-5.21278	20.3265	1.22595	0.310711
0.5153	8.82974	-220.98	4.00911	-1.46304	-6.75215	1.00276	-4.89034	-16.8959	1.54857	0.310711
0.5160	7.57413	-210.619	19.8762	-1.46304	-6.44146	1.00276	-4.2992	-45.5846	2.4519	0.310711
0.5167	10.3284	-203.9	16.2058	-1.7243	-6.13078	0.686096	-3.38562	-57.8063	3.67785	0.310711
0.5173	17.6595	-55.6092	-15.5282	-2.66482	-6.75215	-0.79165	-3.97676	-54.4185	4.25857	0.310711
0.5180	22.2364	93.3295	-32.5811	-3.5531	-6.13078	-0.527766	-4.2992	-40.9961	4.58119	0.310711
0.5187	21.6288	-12.2227	-22.5301	-3.5531	-4.92948	1.31942	-4.2992	-22.0847	5.48452	0
0.5193	18.8746	-202.686	-10.6157	-3.29184	-4.30812	1.31942	-4.59477	26.1157	6.71047	0.310711
0.5200	13.0826	-337.54	1.58106	-2.03781	-4.30812	1.95274	-3.38562	52.0599	6.71047	0.621423
0.5207	7.29061	-455.963	8.58288	-1.7243	-5.21945	1.95274	-3.38562	11.1925	5.80714	0
0.5213	5.46796	-554.878	9.48635	-2.35131	-5.21945	0.686096	-3.97676	-14.7517	6.06523	0
0.5220	3.92883	-504.53	22.0219	-3.29184	-3.99744	0.422213	-3.68119	-0.42883	7.03309	0.310711
0.5227	8.50571	-196.858	38.1712	-4.49362	-3.70747	-0.211107	-3.68119	5.66055	8.25904	0.310711
0.5233	16.7684	165.047	48.2787	-5.12064	-3.39679	0.686096	-3.06318	-1.32937	9.16237	0.310711
0.5240	15.5128	352.758	50.4244	-4.49362	-3.70747	1.31942	-2.44517	-14.4516	8.25904	0
0.5247	5.46796	397.278	27.4991	-3.5531	-6.75215	-1.42497	-3.38562	-30.0181	5.1619	0.310711
0.5253	-4.61739	274.889	-7.90529	-2.66482	-8.88549	-2.95549	-3.68119	-30.6184	1.22595	0.310711
0.5260	-8.58672	16.7556	-33.2022	-2.35131	-9.50686	-2.63883	-3.38562	-40.9961	1.80667	-0.310711
0.5267	4.25285	-6.71843	-37.2113	-2.03781	-10.4182	-2.95549	-3.97676	-74.2733	3.93595	-0.621423
0.5273	30.499	225.189	-10.051	-0.836023	-9.79683	-2.32217	-3.68119	-65.1392	-0.322619	0.310711
0.5280	44.2297	322.808	11.0109	-1.46304	-9.50686	-2.95549	-3.38562	-15.0519	-4.00047	0.310711
0.5287	38.3972	308.805	4.00911	-3.29184	-10.1075	-4.80267	-4.2992	-19.04	-2.12928	0.310711
0.5293	30.175	354.296	-10.9545	-3.8666	-8.88549	-3.85269	-4.59477	-67.2405	0.580714	0.310711
0.5300	24.383	365.547	-26.4827	-4.18011	-7.06283	-2.95549	-3.97676	-61.1511	2.4519	0.310711
0.5307	19.4821	285.331	-32.5811	-3.8666	-5.21945	-1.42497	-3.38562	13.937	3.67785	0.310711
0.5313	14.9052	134.207	-26.8215	-2.03781	-3.39679	1.00276	-2.1496	61.8372	4.90381	0.310711
0.5320	10.9359	-34.8063	-19.1986	-2.35131	-3.99744	-0.211107	-2.1496	51.4596	5.48452	0
0.5327	12.7991	-61.68	-10.3333	-2.97833	-5.21945	-1.42497	-2.76761	41.3821	4.90381	0
0.5333	17.3759	53.9903	-4.51731	-2.35131	-6.44146	-0.79165	-3.38562	9.04831	3.35524	0
0.5340	20.0897	77.1405	-6.3807	-3.5531	-7.66348	-2.05829	-4.59477	-37.3511	2.71	0.310711
0.5347	15.8368	-68.0747	-4.23498	-3.8666	-5.84081	-1.74163	-3.68119	-47.1284	3.93595	0.310711
0.5353	11.8675	-321.109	6.77596	-2.66482	-4.30812	-0.79165	-1.85403	-68.7843	4.90381	0
0.5360	19.8062	-521.285	14.6812	-2.97833	-5.21945	-1.74163	-2.1496	-57.5061	4.25857	0.310711
0.5367	24.6666	-459.929	14.0601	-3.5531	-5.21945	-1.74163	-3.06318	18.4826	3.67785	0.310711
0.5373	18.267	-278.37	17.1658	-4.49362	-5.53013	-2.05829	-3.68119	61.8372	3.03262	0.310711
0.5380	11.2599	-91.8725	18.3516	-5.12064	-6.44146	-3.27215	-3.97676	76.5032	1.54857	0.310711
0.5387	7.29061	201.067	9.82514	-3.29184	-5.21945	-2.32217	-2.1496	68.8701	1.22595	0
0.5393	9.72081	477.899	-2.71038	-2.35131	-5.84081	-2.32217	-1.85403	33.7489	0.322619	0.310711
0.5400	14.6217	549.859	-30.153	-3.29184	-8.57481	-4.48601	-3.97676	21.2271	-2.12928	0.621423
0.5407	11.8675	436.941	-50.5938	-3.5531	-9.79683	-5.38322	-4.2992	-4.07388	-4.25857	0.310711
0.5413	4.86041	259.995	-38.3971	-3.5531	-10.1075	-6.3332	-4.2992	-35.8073	-5.22642	0.310711
0.5420	1.78215	113.809	-17.9563	-2.03781	-9.19617	-5.06656	-3.97676	-7.46164	-4.58119	0.310711
0.5427	1.49863	-30.2734	-10.6157	-0.522514	-5.84081	-2.32217	-1.85403	40.7817	-3.03262	0
0.5433	3.92883	-228.589	-6.94536	-2.03781	-4.6188	-2.05829	-2.44517	65.4823	-0.645238	0.310711
0.5440	8.82974	-406.505	0.677596	-3.29184	-4.6188	-1.74163	-3.68119	36.4934	1.22595	0.621423
0.5447	8.50571	-464.786	-1.80692	-3.5531	-3.99744	-1.42497	-3.68119	-36.1075	2.4519	0.621423
0.5453	3.32128	-387.888	-17.3352	-4.80713	-3.99744	-2.32217	-3.97676	-39.4952	2.71	0.310711
0.5460	1.78215	-239.273	-20.7231	-3.29184	-2.77542	-1.42497	-2.44517	42.6257	3.35524	0.310711
0.5467	8.50571	21.2885	4.91257	-1.46304	-1.86409	-0.527766	-1.23602	119.215	3.03262	0.621423
0.5473	22.2364	325.561	30.266	-2.35131	-3.39679	-1.42497	-3.06318	126.848	1.22595	0.621423
0.5480	31.9977	318.842	27.8379	-4.49362	-5.21945	-2.95549	-4.2992	66.7259	1.80667	-0.310711
0.5487	34.7519	92.7629	10.7286	-4.80713	-5.84081	-4.16935	-4.59477	7.20434	3.35524	-0.310711
0.5493	35.0759	37.1537	-2.08925	-4.18011	-5.53013	-4.16935	-4.59477	-8.062	0.322619	0.310711
0.5500	27.4208	131.212	-4.51731	-3.29184	-4.92948	-3.27215	-3.38562	14.2371	-2.77452	0.310711
0.5507	13.6901	224.298	-4.23498	-3.29184	-4.6188	-2.95549	-3.06318	26.759	-1.54857	0.310711
0.5513	3.92883	242.268	-5.13844	-4.49362	-4.92948	-3.85269	-4.59477	1.71532	-0.903333	0.310711
0.5520	-0.931578	175.731	-5.42077	-5.12064	-4.30812	-4.16935	-4.89034	-17.7964	0	0.310711
0.5527	-0.931578	94.8675	-3.89618	-4.49362	-3.0861	-2.95549	-3.97676	3.55929	1.54857	0.310711
0.5533	1.78215	6.63749	0.959928	-3.8666	-1.55341	-1.10831	-3.38562	24.3146	3.03262	0.310711
0.5540	1.78215	-97.3768	7.67942	-4.49362	0.269257	0.422213	-3.06318	12.3932	4.90381	0.310711
0.5547	-0.0405034	-196.858	13.1567	-5.3819	0.269257	-0.527766	-3.38562	21.8703	5.48452	0.310711
0.5553	0.283524	-224.622	14.0601	-4.80713	-1.26344	-2.05829	-3.68119	53.6037	3.67785	0
0.5560	1.1746	-136.797	10.1075	-4.18011	-3.39679	-3.27215	-3.68119	42.6257	4.25857	-0.932134
0.5567	0.567047	-131.536	11.3497	-4.80713	-3.0861	-3.27215	-3.38562	5.36037	5.1619	-0.310711
0.5573	-1.57963	-318.356	10.7286	-4.49362	-0.952757	-1.42497	-3.06318	-25.1294	3.35524	0.621423
0.5580	-0.931578	-425.123	0.0564663	-4.80713	0.869908	-0.527766	-2.76761	-62.9951	3.67785	0.310711
0.5587	3.32128	-256.676	-5.42077	-5.3819	1.18059	-0.79165	-3.38562	-96.8726	5.48452	0
0.5593	10.0448	-16.8365	-1.46812	-4.80713	0.269257	-0.79165	-3.97676	-115.484	5.1619	0
0.5600	17.9835	73.8218	4.34791	-4.49362	-1.26344	-1.74163	-4.59477	-138.684	4.58119	0.310711
0.5607	19.4821	91.2249	6.43716	-3.8666	-0.952757	-1.10831	-3.97676	-128.006	3.93595	0.310711
0.5613	12.475	138.821	-1.18579	-3.5531	0.269257	-0.527766	-2.76761	-42.5399	3.67785	0.310711
0.5620	0.283524	204.71	-15.8106	-4.49362	-0.0414242	-1.74163	-3.38562	41.9824	3.93595	0.310711
0.5627	-7.65514	106.2	-24.3935	-5.3819	-0.952757	-2.63883	-4.2992	51.7598	3.03262	0
0.5633	-1.57963	-139.225	-14.286	-6.32242	-1.86409	-3.58881	-4.59477	28.8602	1.22595	0.310711
0.5640	8.50571	-175.246	2.48452	-5.12064	-0.952757	-3.85269	-3.97676	22.7709	0.322619	0.310711
0.5647	10.6524	-11.9799	11.0109	-3.5531	-1.86409	-4.16935	-3.06318	26.759	-1.54857	0.310711
0.5653	10.9359	129.998	18.3516	-3.29184	-3.70747	-5.69988	-3.38562	27.9597	-4.25857	0.621423
0.5660	8.82974	179.698	18.3516	-3.8666	-3.99744	-6.3332	-3.97676	23.3712	-6.12976	0.310711
0.5667	2.3897	149.829	11.0109	-4.80713	-4.30812	-6.3332	-4.89034	5.66055	-5.80714	0
0.5673	-1.57963	178.484	17.1658	-5.12064	-4.30812	-6.3332	-5.21278	-12.6505	-5.22642	0
0.5680	-2.79473	296.258	29.0237	-3.8666	-3.0861	-5.69988	-4.2992	-4.67424	-4.90381	0.310711
0.5687	-8.87024	322.242	18.3516	-3.29184	-2.48545	-5.38322	-3.06318	10.249	-4.58119	0
0.5693	-17.4165	187.064	-9.71221	-3.5531	-3.39679	-6.59708	-3.06318	8.74813	-4.90381	0.310711
0.5700	-15.5938	10.0372	-20.7231	-2.97833	-3.99744	-6.01654	-3.97676	2.31568	-4.90381	0.621423
0.5707	-8.58672	-32.7018	-2.37159	-2.35131	-2.77542	-4.16935	-4.89034	-6.51821	-4.25857	0.310711
0.5713	-10.1258	64.675	3.10565	-2.35131	-0.952757	-2.95549	-3.97676	-14.7517	-2.12928	0
0.5720	-12.8396	29.2211	-9.71221	-1.7243	2.09192	-0.211107	-2.44517	-48.6293	0.903333	0.310711
0.5727	-7.65514	-248.177	3.72678	-2.03781	3.02397	0.686096	-2.76761	-120.373	3.35524	0.310711
0.5733	-1.86316	-431.275	25.6922	-3.8666	3.02397	-0.211107	-4.2992	-169.774	4.90381	0.310711
0.5740	-5.22494	-229.803	55.9017	-4.49362	4.84663	0.686096	-3.38562	-192.073	5.80714	0
0.5747	-14.0547	-11.0085	86.7323	-3.8666	6.06865	1.63608	-2.1496	-238.172	7.03309	0
0.5753	-6.44004	-273.513	38.1712	-2.66482	6.6693	2.84994	-0.940449	-278.439	7.93642	0.310711
0.5760	23.4515	-634.527	-22.2477	-2.35131	5.75796	2.53328	-0.61801	-285.772	6.71047	0
0.5767	50.3052	-409.258	-5.42077	-3.5531	1.80195	-1.42497	-2.44517	-281.484	2.71	0.310711
0.5773	55.4896	158.328	2.20219	-2.97833	-2.48545	-4.48601	-3.68119	-208.54	-3.67785	0.310711
0.5780	46.6599	390.316	-29.2496	-1.46304	-4.30812	-5.69988	-3.06318	-85.5515	-8.58166	0.310711
0.5787	31.1066	322.566	-57.9345	0.104503	-4.6188	-6.01654	-2.1496	-25.7727	-10.969	0.310711
0.5793	10.3284	306.377	-73.5192	1.30629	-3.99744	-6.01654	-2.1496	53.0034	-11.6143	0.310711
0.5800	-7.04759	312.124	-72.2769	0.36576	-4.6188	-6.3332	-3.38562	213.514	-11.2917	0.310711
0.5807	-13.1636	230.046	-71.3735	0.36576	-4.30812	-6.01654	-4.59477	338.647	-9.48499	0.621423
0.5813	-12.232	108.628	-69.2277	0.679268	-2.17477	-4.48601	-4.89034	351.126	-7.93642	0.310711
0.5820	-9.47779	17.0794	-57.3133	-0.522514	-1.86409	-4.48601	-5.50835	260.814	-6.12976	0.310711
0.5827	-10.1258	-46.1386	-48.4481	-0.836023	-0.952757	-3.85269	-5.80392	169.859	-3.67785	0.621423
0.5833	-9.80182	-83.0495	-35.3479	0.36576	1.49127	-1.42497	-5.21278	128.992	-1.87119	0.310711
0.5840	0.283524	-39.4202	-4.85611	-0.522514	1.18059	-1.74163	-6.12636	91.7267	-1.22595	0
0.5847	7.57413	33.5112	29.3625	-1.14953	0.579939	-1.74163	-6.42193	88.3818	-0.645238	0.310711
0.5853	-2.79473	66.213	73.5756	-0.209006	0.869908	-0.527766	-5.21278	126.205	-0.903333	0.310711
0.5860	-20.1707	200.177	142.578	-0.836023	-0.0414242	-1.10831	-5.21278	112.182	-0.322619	-0.310711
0.5867	-37.2631	361.014	169.738	-0.522514	0.269257	-0.79165	-4.89034	44.4268	1.80667	-0.310711
0.5873	-51.6013	257.81	134.955	0.104503	0.869908	-0.211107	-3.97676	-28.1741	-0.322619	0.310711
0.5880	-50.1027	103.448	108.359	0.104503	0.269257	-1.42497	-3.97676	-77.9184	-4.00047	0.310711
0.5887	-42.4475	136.716	32.0729	0.679268	0.579939	-1.42497	-3.68119	-90.7404	-4.25857	0
0.5893	-27.1778	100.696	-120.499	-0.209006	0.579939	-2.05829	-4.89034	-128.906	-3.03262	0.310711
0.5900	6.68306	-5.26142	-183.685	-1.46304	0.269257	-2.63883	-6.42193	-170.117	-2.4519	0.621423
0.5907	28.6359	-29.9496	-104.35	-0.836023	0.869908	-1.74163	-5.80392	-108.151	-2.4519	0.310711
0.5913	24.6666	-54.9616	-18.5774	0.104503	0.269257	-2.32217	-5.21278	-16.2955	-2.4519	0.310711
0.5920	18.267	-86.692	-45.7377	1.30629	-0.352106	-2.95549	-5.80392	11.4926	-2.4519	0.310711
0.5927	15.2293	-100.453	-140.037	1.30629	-0.642075	-2.95549	-6.12636	66.1255	-2.77452	0.310711
0.5933	6.96658	-99.2385	-164.769	-0.209006	-1.55341	-2.95549	-6.42193	132.337	-2.4519	0.310711
0.5940	-10.7334	-83.3733	-127.501	0.36576	-0.352106	-0.527766	-3.97676	95.1144	-0.903333	0
0.5947	-23.2084	32.6208	-94.5811	0.36576	1.80195	1.95274	0.59114	37.737	0.580714	0.310711
0.5953	-12.232	266.39	-59.1767	-2.03781	2.4026	0.686096	3.33188	28.8602	1.80667	0.310711
0.5960	11.5435	306.943	-61.6048	-3.8666	1.80195	-0.527766	2.74074	-8.062	2.4519	0.310711
0.5967	11.5435	99.1576	-38.7359	-4.80713	0.579939	-0.527766	2.12273	-48.9295	2.71	0.310711
0.5973	-1.86316	-61.68	119.088	-4.18011	0.869908	0.105553	2.4183	-80.0625	3.03262	0.310711
0.5980	8.82974	-91.3059	210.902	-2.35131	1.49127	1.00276	3.33188	-90.7404	2.71	0
0.5987	24.6666	1.21417	102.599	-0.522514	-0.352106	0.422213	3.33188	10.5492	1.22595	0.310711
0.5993	24.059	143.677	7.05829	1.30629	-2.48545	-0.527766	1.82716	156.137	-0.903333	0.310711
0.6000	15.2293	197.748	23.2641	1.9333	-3.70747	-1.42497	-0.61801	265.403	-2.4519	0.310711
0.6007	-6.76406	137.93	37.2678	0.36576	-4.6188	-2.95549	-2.1496	307.514	-2.77452	0.310711
0.6013	-29.932	-29.6258	17.7304	1.30629	-2.77542	-2.05829	-0.61801	235.17	-2.12928	0.310711
0.6020	-35.724	-229.236	22.0219	3.13508	-0.352106	-0.527766	0.886709	99.3599	-0.645238	0
0.6027	-30.256	-376.637	40.317	1.9333	0.269257	-1.42497	-0.02687	-21.7846	0.903333	0
0.6033	-18.6316	-492.874	46.7541	0.36576	0.869908	-2.05829	-1.23602	-85.8517	1.80667	0
0.6040	-11.9485	-653.388	16.5446	-0.522514	1.80195	-1.74163	-2.76761	-79.4622	3.35524	0.310711
0.6047	-28.1093	-768.491	-57.6521	0.104503	3.02397	-0.211107	-3.06318	-54.7616	5.1619	0.621423
0.6053	-48.5636	-575.923	-112.537	0.679268	4.84663	1.95274	-0.940449	-64.1958	6.71047	0.310711
0.6060	-40.9489	-188.359	-169.004	-0.522514	5.44728	1.63608	-0.02687	-78.5616	8.83976	0.310711
0.6067	-12.556	-9.47056	-245.911	-2.03781	4.53595	0.422213	-0.61801	-88.9393	9.74309	0.310711
0.6073	16.4444	-44.2769	-228.519	-2.97833	3.62462	0.105553	-0.61801	-158.495	9.42047	0.310711
0.6080	45.7283	-5.50426	-108.302	-2.35131	1.49127	-1.10831	-0.32244	-236.028	7.29118	0.310711
0.6087	75.0528	-48.2432	23.2641	-0.522514	-3.0861	-3.27215	-0.32244	-247.306	1.80667	0.310711
0.6093	81.7358	-233.202	130.381	0.679268	-6.44146	-4.48601	-0.61801	-257.984	-3.67785	0.310711
0.6100	63.4283	-219.118	163.639	0.36576	-7.66348	-4.80267	-2.76761	-243.361	-5.22642	0.310711
0.6107	48.4825	-13.7606	73.011	-0.522514	-7.97416	-5.38322	-4.59477	-110.595	-5.22642	0.310711
0.6113	36.8986	280.15	-67.082	-1.14953	-7.66348	-5.69988	-4.59477	33.1485	-4.58119	0.310711
0.6120	11.2599	458.958	-138.794	0.104503	-5.84081	-3.58881	-1.85403	89.6254	-2.12928	0
0.6127	-19.5631	393.959	-109.206	1.30629	-3.70747	0.105553	3.65432	163.47	2.12928	0.310711
0.6133	-40.3009	300.872	-50.3115	0.104503	-3.0861	0.105553	4.86347	204.981	3.93595	0.310711
0.6140	-45.5258	120.77	-34.4445	-1.14953	-3.0861	-1.42497	1.20915	100.904	3.93595	0.310711
0.6147	-39.0858	-198.072	-17.674	-1.14953	-2.17477	-0.79165	-0.02687	26.4159	4.90381	0.310711
0.6153	-36.6556	-305.243	39.4135	-0.836023	-0.352106	0.422213	0.29557	67.6264	6.06523	0.310711
0.6160	-36.048	-76.0073	138.004	-0.522514	1.18059	2.53328	1.50472	81.0488	9.74309	-0.621423
0.6167	-23.2084	154.038	197.519	-2.35131	1.49127	3.1666	1.50472	11.7928	12.195	-0.310711
0.6173	-4.00983	86.0445	103.503	-4.49362	-0.0414242	1.00276	-0.61801	-79.162	8.83976	0.310711
0.6180	23.1679	-152.905	-2.99272	-4.49362	-3.0861	-0.79165	-2.1496	-99.6171	4.58119	0.310711
0.6187	60.9981	-168.77	-8.18762	-2.35131	-7.3528	-2.32217	-1.23602	-137.44	0.903333	0.310711
0.6193	75.6603	140.035	-21.6266	1.30629	-9.19617	-2.63883	1.20915	-271.106	-1.87119	0.621423
0.6200	57.9603	336.569	-49.9727	3.44859	-9.79683	-1.74163	2.4183	-298.894	-1.87119	0.310711
0.6207	36.8986	256.919	-54.2642	3.44859	-10.1075	-1.74163	1.20915	-201.55	-2.12928	0
0.6213	24.383	209.647	-49.9727	2.50807	-10.1075	-2.32217	-0.02687	-85.8517	-1.54857	0.310711
0.6220	9.72081	196.453	15.5847	2.24681	-9.19617	-1.42497	-0.940449	50.559	1.22595	0.310711
0.6227	-7.97917	106.443	158.445	3.13508	-7.06283	0.686096	-1.53159	60.2935	3.93595	0.310711
0.6233	-17.1329	14.3273	223.72	4.07561	-4.6188	3.74714	-0.32244	48.4149	5.48452	0
0.6240	-15.9178	-62.3276	155.678	4.07561	-3.70747	4.69712	0.29557	176.292	6.38785	0
0.6247	-1.2556	-75.1169	101.696	3.44859	-4.92948	3.1666	-1.23602	204.037	6.06523	0
0.6253	17.9835	71.9601	46.4153	4.65038	-7.3528	1.31942	-1.85403	103.948	2.4519	0.310711
0.6260	20.4137	221.546	-99.4372	7.73321	-10.4182	0.422213	-1.23602	31.3046	-3.35524	0.621423
0.6267	11.2599	229.722	-204.126	10.1368	-11.9302	0.422213	-1.23602	1.11496	-8.25904	0.310711
0.6273	2.99725	200.501	-184.306	11.3908	-11.9302	2.84994	0.29557	56.3482	-10.0657	0.310711
0.6280	-6.44004	184.554	-76.2296	9.56201	-11.6402	3.74714	0.29557	137.826	-10.0657	0.621423
0.6287	-25.6791	157.114	41.8416	6.79268	-10.4182	4.0638	-2.1496	104.549	-8.25904	0
0.6293	-46.4169	73.498	29.9272	5.5909	-7.66348	7.44151	-3.06318	31.3046	-3.03262	0
0.6300	-38.8022	-43.0627	-65.5574	3.13508	-6.75215	9.55257	-2.44517	-6.81839	1.54857	0.310711
0.6307	-8.58672	-10.4419	-98.5338	-0.209006	-6.75215	8.65537	-2.44517	-50.7734	1.22595	0.310711
0.6313	16.4444	27.4403	-38.3971	-1.46304	-7.06283	6.49153	-1.85403	-72.7295	-1.87119	0.310711
0.6320	31.1066	-191.678	40.317	-0.836023	-8.57481	3.74714	-0.940449	-79.7623	-4.58119	0.310711
0.6327	36.5746	-371.133	-3.33151	0.104503	-9.19617	3.43048	-0.61801	-66.34	-6.12976	0.310711
0.6333	26.8132	-259.752	-157.089	-2.03781	-7.97416	5.27766	-0.02687	5.66055	-4.25857	0.310711
0.6340	8.50571	3.9663	-213.895	-4.18011	-5.53013	8.02205	2.12273	48.7151	-0.322619	0.310711
0.6347	-1.57963	127.812	-139.698	-4.80713	-2.77542	10.1859	4.5679	20.0264	3.03262	0.310711
0.6353	-6.44004	-118.746	-102.769	-6.32242	-0.952757	11.0831	5.15904	-8.36218	6.71047	0.310711
0.6360	-17.1329	-460.253	-148.563	-3.8666	3.02397	14.7247	3.65432	-33.706	11.2917	0.621423
0.6367	-29.3244	-664.072	-190.405	-1.14953	6.06865	18.419	0.59114	-44.6841	12.8402	0.310711
0.6373	-39.0858	-965.026	-178.151	0.36576	3.9353	17.2052	-1.53159	-43.4405	11.2917	0.310711
0.6380	-33.0103	-1102.07	-99.7196	8.30797	2.09192	17.4691	-0.32244	-102.362	11.2917	0.310711
0.6387	2.71373	-678.48	40.6558	12.9061	-0.0414242	17.2052	2.74074	-153.006	10.0657	0.310711
0.6393	35.967	-22.017	158.106	4.96388	-6.44146	12.297	4.86347	-158.195	7.93642	0.310711
0.6400	55.2061	545.326	238.062	-4.18011	-12.5515	8.02205	5.48148	-137.44	12.195	0.310711
0.6407	63.7523	793.422	350.995	-7.26295	-15.5962	5.91098	5.15904	-39.4952	20.1314	0.310711
0.6413	28.9599	665.206	390.973	-6.00891	-17.4396	5.91098	5.77705	40.1813	25.6159	0
0.6420	-16.5254	533.427	264.319	-4.18011	-17.1289	9.23591	7.6042	40.7817	30.1971	0
0.6427	-29.3244	549.616	126.993	-3.29184	-15.3062	11.3998	7.92664	30.1038	37.5528	0.310711
0.6433	-32.6862	482.108	159.969	-3.5531	-12.5515	11.7164	7.92664	-38.2516	48.1992	0.310711
0.6440	-43.3791	336.245	230.157	-5.6954	-9.50686	12.6136	7.01306	-126.462	55.555	0.310711
0.6447	-63.8333	463.815	57.7086	-7.5242	-5.53013	15.358	6.39505	-106.007	63.4914	0.310711
0.6453	-79.0626	595.674	-158.67	-6.63593	-0.352106	21.4801	8.84022	-30.9186	80.5902	0.621423
0.6460	-77.8475	316.414	-122.024	-1.46304	4.22527	27.8661	10.963	5.06019	90.914	0.310711
0.6467	-69.3013	70.7459	-78.093	9.56201	6.97998	30.2938	8.51778	32.248	79.3642	0
0.6473	-32.0787	-109.599	-167.818	23.5654	9.73469	27.8661	4.24546	44.7269	61.0395	0
0.6480	26.8132	-717.496	-172.053	33.0229	11.2467	23.9078	0.59114	-70.3281	44.5214	0.310711
0.6487	59.459	-1235.06	-57.3133	38.248	9.73469	19.6329	-0.940449	-228.995	17.6795	0.310711
0.6493	64.6434	-1051.96	79.674	42.2191	6.97998	15.9913	0.886709	-269.262	-14.3243	0
0.6500	68.0052	-603.687	185.887	40.3903	3.31394	12.297	1.82716	-179.851	-34.5202	0
0.6507	68.9368	-475.471	123.661	41.5921	-0.352106	8.02205	0.886709	-37.6513	-29.2938	0
0.6513	48.8066	-842.961	-107.681	46.1902	-2.77542	6.22764	2.74074	46.8711	-0.645238	0.310711
0.6520	17.6595	-1019.02	-310.339	38.248	-3.39679	4.961	4.5679	67.6264	-10.3883	0.310711
0.6527	-1.2556	-457.177	-418.98	26.6482	-1.86409	6.49153	5.15904	18.4826	-77.8157	-0.310711
0.6533	-18.9556	116.237	-430.274	23.3041	1.49127	11.0831	5.15904	-73.0726	-119.95	-0.310711
0.6540	-49.7787	167.799	-334.111	19.9078	4.22527	12.9303	2.74074	-124.318	-97.689	0.310711
0.6547	-61.6866	-49.7811	-133.938	11.9656	5.75796	13.5108	-0.61801	-146.917	-55.555	0.621423
0.6553	-37.2631	-223.084	116.038	5.5909	4.84663	14.1441	-2.44517	-133.495	-31.4231	0.310711
0.6560	-5.50846	-308.886	318.64	6.16567	1.80195	13.2469	-4.2992	-68.7843	-21.3574	0
0.6567	18.8746	-228.346	478.27	13.5331	1.49127	16.5719	-6.71749	-19.3402	-15.5502	0.310711
0.6573	28.3524	-22.3408	501.139	18.706	0.579939	18.7357	-8.57152	-23.3283	-13.0983	0.310711
0.6580	10.3284	139.144	357.714	21.4231	-4.6188	15.358	-10.0762	-27.8739	-9.74309	0.310711
0.6587	-11.0169	475.713	132.809	22.9906	-10.4182	12.6136	-11.3123	75.86	-8.83976	0.310711
0.6593	-10.7334	850.812	-238.288	19.5943	-14.6849	8.97203	-12.2258	256.226	-14.0662	0.310711
0.6600	-7.97917	1036.66	-635.303	18.079	-13.7735	7.70539	-11.6078	390.192	-19.8733	0
0.6607	-8.26269	1101.98	-902.671	19.333	-10.4182	9.86923	-9.78067	410.347	-18.3247	0.310711
0.6613	-10.4094	1016.83	-1056.77	18.079	-8.28484	10.1859	-7.65794	273.636	-7.35571	0.621423
0.6620	-41.84	813.901	-1003.97	13.7944	-5.53013	8.33871	-4.59477	118.271	0	0.310711
0.6627	-90.363	521.528	-740.33	8.30797	-2.77542	4.38046	-2.44517	103.648	-10.3883	0
0.6633	-122.401	182.45	-225.188	10.4503	-0.352106	1.63608	-2.44517	150.948	-40.0047	0
0.6640	-120.579	-224.622	506.051	13.5331	1.49127	2.84994	-2.1496	96.3152	-60.7169	0.310711
0.6647	-73.2706	-538.041	926.556	7.99447	0.269257	4.38046	-2.76761	2.0155	-48.8445	0.310711
0.6653	-1.57963	-601.259	914.077	2.50807	0.269257	6.49153	-4.2992	-47.4286	-33.875	0
0.6660	43.0146	-632.666	850.891	3.13508	-0.0414242	8.02205	-6.12636	-164.285	-33.2943	0
0.6667	48.4825	-593.893	766.644	0.992777	-1.55341	8.65537	-7.95351	-265.917	-20.1314	0.310711
0.6673	46.9434	-488.017	573.755	-10.2935	-1.26344	9.55257	-10.0762	-315.662	17.6795	0.310711
0.6680	32.9292	-533.832	314.066	-17.9222	-0.642075	8.65537	-14.9666	-359.617	57.3616	0.310711
0.6687	16.4444	-477.009	109.319	-12.4358	1.18059	9.23591	-18.3253	-230.239	92.4625	0
0.6693	8.50571	-113.242	61.7177	-5.12064	4.22527	11.7164	-16.4982	9.94885	133.048	0
0.6700	2.3897	245.911	103.22	-3.5531	6.97998	13.5108	-10.3987	244.347	157.438	0.310711
0.6707	8.22219	304.191	132.47	-2.66482	8.80264	12.297	-3.06318	467.124	146.469	0.621423
0.6713	-1.2556	23.1503	89.7815	-3.8666	8.20199	8.97203	2.12273	471.67	133.371	0.310711
0.6720	-29.3244	-449.892	54.0383	-6.32242	9.42401	11.3998	6.09949	156.137	149.502	0
0.6727	-29.6485	-680.909	89.7815	0.36576	10.646	15.9913	9.43136	-235.728	163.568	0.310711
0.6733	-9.19427	-680.909	21.1184	19.5943	4.53595	11.0831	10.0494	-379.128	133.629	0.310711
0.6740	24.059	-642.703	-189.445	44.3614	-3.70747	3.74714	9.7538	-226.551	79.3642	0.310711
0.6747	67.3976	-79.9736	-284.703	55.909	-11.0188	-1.10831	7.01306	-104.806	40.2628	0.310711
0.6753	46.9434	732.714	-160.195	51.6766	-15.5962	-5.06656	1.82716	-123.717	-4.25857	0.310711
0.6760	-33.6178	1064.43	-46.6412	53.5054	-13.4629	-6.01654	-2.1496	-43.7406	-94.0111	-0.310711
0.6767	-76.3489	949.322	-94.8635	51.3631	-7.66348	-7.54706	-6.12636	179.637	-200.798	-0.310711
0.6773	-69.6253	676.214	-278.887	25.1329	-3.70747	-13.0358	-11.9303	277.582	-254.546	0.310711
0.6780	-57.1098	419.295	-488.208	-6.63593	-0.642075	-15.4636	-13.1394	80.1483	-230.092	0.310711
0.6787	-48.5636	78.6785	-542.867	-29.2085	1.49127	-12.4025	-9.78067	-99.9173	-162.664	0.310711
0.6793	-40.6249	-330.822	-468.106	-45.093	1.80195	-9.07758	-7.3355	-10.8065	-102.528	0.621423
0.6800	-11.6245	-653.145	-251.106	-53.2964	0.269257	-6.91374	-4.2992	139.027	-60.1361	0.621423
0.6807	30.175	-587.822	172.166	-52.7217	-3.0861	-6.3332	-0.940449	77.1036	-25.6159	0.310711
0.6813	26.5297	-12.2227	447.157	-45.9812	-6.44146	-7.2304	0.886709	-173.161	-2.12928	0
0.6820	-36.6556	212.4	438.292	-42.0101	-8.88549	-10.872	1.20915	-328.484	31.7457	0.310711
0.6827	-107.779	-167.313	425.474	-44.1524	-11.9302	-16.6774	-1.23602	-331.228	73.5571	0.310711
0.6833	-118.756	-245.992	304.918	-50.2659	-11.9302	-17.8913	-0.61801	-336.417	98.2697	0.310711
0.6840	-80.6017	341.75	-85.3771	-60.9251	-8.28484	-14.5664	2.74074	-279.983	114.723	0.310711
0.6847	-70.5164	1080.61	-541.343	-53.6099	-7.06283	-13.3525	3.65432	-68.1839	125.692	0
0.6853	-54.3555	1231.33	-801.032	-18.8105	-10.1075	-12.7192	4.86347	137.226	136.984	0
0.6860	58.2439	884.323	-778.445	-2.35131	-14.0842	-15.1469	7.01306	93.5706	123.563	0.310711
0.6867	171.775	630.156	-559.017	-12.4358	-16.2176	-18.8413	7.92664	-125.862	44.2633	0.310711
0.6873	151.321	542.898	-174.82	-15.1529	-16.5075	-16.9941	9.43136	-73.0726	-10.7109	0.310711
0.6880	71.9745	427.794	260.366	-9.66651	-16.8182	-12.7192	10.963	250.136	16.7762	0.310711
0.6887	40.2604	349.358	629.317	-2.35131	-14.3742	-8.76092	10.963	446.669	26.2612	0.310711
0.6893	40.5439	413.143	866.758	4.65038	-10.4182	-6.01654	9.7538	503.103	-43.6181	0.310711
0.6900	32.3217	390.883	657.099	8.93499	-6.75215	-4.48601	8.84022	559.58	-175.505	0.310711
0.6907	-3.40228	169.661	191.703	2.50807	-0.952757	1.63608	9.7538	641.958	-267.967	0.310711
0.6913	-52.5329	-153.229	60.4755	-15.1529	4.22527	7.12485	11.581	600.147	-230.737	0.621423
0.6920	-68.0862	-608.22	177.022	-34.6949	6.6693	5.27766	11.2854	341.992	-120.272	0.310711
0.6927	-47.0244	-1041.03	242.354	-62.8062	5.44728	1.00276	9.7538	100.904	-13.0983	0
0.6933	-30.8636	-1276.26	212.765	-84.4383	1.80195	-0.527766	7.30863	-10.5063	52.7804	0.310711
0.6940	-25.9627	-1647.07	78.1494	-74.9808	1.80195	1.63608	5.77705	-71.829	69.8792	0.310711
0.6947	-16.5254	-1759.34	-104.632	-58.2081	2.71329	5.27766	6.09949	-140.485	77.8157	0
0.6953	8.22219	-1059.33	-259.971	-50.5794	-2.48545	4.69712	6.69062	-316.605	102.206	0
0.6960	54.5986	-220.656	-227.616	-36.8372	-11.3295	1.95274	6.39505	-359.016	61.3621	0.310711
0.6967	82.9914	396.954	119.991	-18.2357	-17.1289	0.422213	3.03631	-193.617	-72.6537	0.310711
0.6973	47.5915	930.462	357.997	-2.97833	-17.4396	2.53328	-1.23602	-193.274	-135.5	0.310711
0.6980	-14.0547	1217.57	12.8743	8.30797	-13.4629	3.43048	-2.76761	-124.018	-82.3968	0.310711
0.6987	-61.9702	1103.77	-707.072	21.7366	-8.28484	-0.79165	-3.68119	106.092	-51.8771	0
0.6993	-105.633	714.339	-1325.66	32.4481	-1.26344	-3.85269	-3.38562	83.4932	-87.8814	0
0.7000	-137.955	155.333	-1479.76	36.7327	4.22527	-4.80267	-0.32244	-48.6293	-118.401	0
0.7007	-119.647	-607.654	-1206.91	75.451	7.29066	-5.38322	2.12273	-65.4394	-118.143	0
0.7013	-13.1636	-1110.24	-876.132	130.106	8.80264	-6.91374	0.29557	-9.5629	-118.401	0.310711
0.7020	131.798	-763.877	-214.798	127.964	5.75796	-13.3525	-3.97676	155.537	-112.594	0.310711
0.7027	194.052	-5.26142	859.7	75.1375	-0.352106	-16.9941	-5.80392	214.415	-89.7525	0
0.7033	145.853	495.221	1269.59	3.44859	-2.17477	-13.6164	-5.50835	-41.9395	-62.8461	0.310711
0.7040	74.7287	808.964	794.425	-35.0084	-1.26344	-10.6081	-4.2992	-102.662	-32.3264	0.310711
0.7047	25.5981	936.533	297.578	-18.2357	0.269257	-9.07758	-3.97676	268.748	-15.5502	0.310711
0.7053	-14.0547	699.445	-27.725	-1.46304	-0.0414242	-9.07758	-5.50835	470.769	-24.7126	0.310711
0.7060	-29.6485	328.636	-143.989	2.50807	-1.86409	-12.7192	-2.44517	290.704	-38.7788	-0.310711
0.7067	-31.4711	273.675	-49.0693	10.7638	-1.26344	-14.2497	4.5679	108.537	-49.1671	-0.621423
0.7073	-61.6866	257.243	-67.9855	12.5926	0.269257	-16.3608	5.77705	54.2041	-48.1992	0
0.7080	-115.07	-235.631	-74.705	5.90441	-1.55341	-22.1662	3.03631	-11.7071	-32.649	0.310711
0.7087	-136.739	-605.792	153.532	0.104503	-5.21945	-26.1244	2.4183	-81.9065	-13.7436	0.310711
0.7093	-89.1479	-353.406	428.523	-9.66651	-9.19617	-27.9716	2.12273	-79.7623	3.93595	0.310711
0.7100	-16.2014	93.6533	537.785	-24.0356	-9.50686	-26.7578	0.886709	-118.529	31.1005	0.621423
0.7107	22.8439	259.671	459.354	-36.8372	-5.21945	-22.7995	0.886709	-290.018	70.4599	0.621423
0.7113	44.8372	134.854	393.401	-51.7811	-3.39679	-18.2079	2.4183	-366.649	102.206	0.310711
0.7120	77.483	177.593	541.117	-73.152	-2.17477	-12.0859	3.65432	-217.717	133.951	0.310711
0.7127	122.037	226.403	728.811	-95.1498	1.18059	-5.69988	6.69062	-109.995	184.925	0.310711
0.7133	135.16	26.2262	693.407	-111.609	4.84663	-2.32217	10.6674	-249.15	245.384	0
0.7140	96.1145	69.5317	534.397	-120.439	9.11333	1.00276	13.7037	-308.972	273.452	0
0.7147	53.667	241.621	431.572	-109.467	12.1787	5.27766	16.4713	4.76001	208.154	0.310711
0.7153	20.0897	194.996	292.1	-101.211	11.5574	7.70539	15.8533	315.447	126.338	0.310711
0.7160	4.53638	129.998	52.5137	-96.6651	9.11333	4.0638	12.7901	300.181	140.984	0.310711
0.7167	16.4444	-97.053	-64.9363	-45.4065	4.53595	-3.58881	11.8765	172.904	178.215	0
0.7173	24.383	-522.5	52.5137	5.27739	0.579939	-7.54706	11.8765	85.6373	165.116	0
0.7180	10.6524	-399.787	85.8288	4.33687	0.579939	-8.1276	12.4945	-13.551	129.112	0.310711
0.7187	0.891074	131.212	-168.383	-4.80713	-0.952757	-13.3525	12.199	-73.0726	98.5923	0.310711
0.7193	19.1986	145.539	-544.053	-4.49362	-4.92948	-22.4828	10.0494	-21.4844	67.7499	0.310711
0.7200	40.5439	-186.821	-857.498	8.93499	-8.28484	-29.1855	10.0494	89.9256	43.0373	0.310711
0.7207	34.7519	-257	-1051.91	25.7077	-8.88549	-31.0327	10.3718	181.138	14.6469	0.310711
0.7213	17.6595	-258.214	-1027.8	27.85	-7.3528	-28.6049	10.3718	208.025	-86.978	0.621423
0.7220	22.5604	-619.229	-538.294	39.4498	-6.75215	-29.1855	9.13579	119.215	-211.831	0.621423
0.7227	39.9363	-716.282	282.332	44.0479	-7.3528	-35.3076	4.5679	-0.729011	-225.511	0.310711
0.7233	49.4141	-61.68	929.944	37.9345	-5.21945	-37.1548	0.29557	21.5701	-166.923	0.310711
0.7240	60.3905	389.669	1041.3	68.7629	-1.55341	-33.1437	-2.44517	47.4715	-122.079	0.310711
0.7247	59.783	255.705	727.569	82.1915	1.49127	-28.2883	-3.06318	-33.706	-70.5245	0
0.7253	39.0453	297.796	446.536	37.9345	2.71329	-23.3801	-0.940449	-78.8618	-31.165	0.310711
0.7260	15.2293	582.885	259.124	-4.49362	0.869908	-20.9523	-1.23602	-174.662	-29.6164	0.310711
0.7267	-36.6556	620.362	67.8161	-22.7816	-1.26344	-19.1051	-3.68119	-313.818	-36.9076	0.310711
0.7273	-131.555	474.499	-126.315	-35.322	-1.26344	-17.6274	-3.97676	-284.829	-43.0373	0.310711
0.7280	-231.679	176.055	-543.771	-43.2642	1.18059	-16.6774	-3.06318	-99.317	-42.4566	0.621423
0.7287	-300.009	-426.094	-1116.28	-37.7778	6.06865	-12.7192	-1.53159	52.3601	-43.0373	0.310711
0.7293	-267.079	-1069.69	-1513.92	-21.8933	9.73469	-8.1276	-2.44517	-40.3958	-50.6511	0
0.7300	-98.3017	-1446.24	-1452.6	-14.2646	10.9567	-7.54706	-5.21278	-342.506	-31.165	0
0.7307	110.736	-1422.12	-801.935	-12.7493	10.646	-8.76092	-5.80392	-625.405	1.22595	0
0.7313	254.159	-945.437	-175.441	-1.46304	5.75796	-10.2914	-5.21278	-831.115	8.83976	0
0.7320	280.405	-280.474	112.029	11.7043	-0.0414242	-9.97479	-4.89034	-774.638	9.16237	0.310711
0.7327	176.959	367.409	350.995	25.7077	-2.48545	-5.06656	-5.50835	-400.527	11.8724	0.310711
0.7333	37.7897	1034.23	259.124	50.1091	-2.77542	1.00276	-7.3355	-111.496	2.12928	0.310711
0.7340	-60.4715	1531.32	-37.2113	65.68	-1.55341	4.961	-8.24908	-59.9504	-12.5176	0
0.7347	-105.309	1610.64	43.3662	65.4188	-0.352106	7.44151	-8.86709	52.6603	-24.39	0.310711
0.7353	-74.2022	1299.09	418.133	72.1069	0.579939	6.80819	-9.4851	462.236	-43.6181	0.310711
0.7360	2.10618	821.186	795.95	75.7645	0.269257	2.53328	-8.24908	779.312	-68.0726	-0.310711
0.7367	51.8443	371.052	1022.72	55.3342	-3.39679	-3.85269	-7.95351	614.813	-89.4299	-0.310711
0.7373	43.2981	88.7966	1001.04	35.4787	-5.53013	-10.6081	-8.86709	303.526	-108.013	0.310711
0.7380	23.7755	-10.6847	814.245	36.4192	-5.21945	-17.8913	-10.0762	208.926	-118.724	0
0.7387	9.72081	-5.50426	604.585	33.0229	-4.92948	-24.6467	-12.5214	233.97	-113.239	0.310711
0.7393	-21.1023	27.4403	439.195	13.2196	-3.70747	-28.6049	-13.1394	232.126	-92.1399	0
0.7400	-26.8942	24.6882	373.581	-16.0934	-3.70747	-33.7771	-10.9898	280.026	-54.329	0
0.7407	-9.80182	-23.8788	373.581	-45.9812	-3.70747	-40.7963	-6.12636	336.203	-16.7762	0.310711
0.7413	-18.6316	-52.5333	355.907	-64.3215	-1.55341	-44.174	0.59114	291.347	0.580714	0.310711
0.7420	-49.1711	-38.7726	263.698	-67.6656	0.869908	-40.7963	8.22221	237.314	5.1619	0.310711
0.7427	-72.9871	-94.058	70.2441	-61.5522	4.53595	-31.3493	13.4081	209.526	7.93642	0
0.7433	-51.3178	-186.173	-47.5447	-56.0658	7.89131	-23.3801	16.4713	106.693	10.3883	0
0.7440	-6.44004	-170.308	-10.3333	-51.2064	10.0247	-18.2079	17.6804	-170.117	10.969	0
0.7447	1.49863	-89.7679	-30.7742	-45.4065	13.09	-12.7192	16.7669	-411.805	10.6464	0
0.7453	-27.1778	-38.7726	-146.135	-42.6371	15.824	-9.34147	13.7037	-369.694	12.8402	0.310711
0.7460	-64.4409	-21.6932	-205.029	-40.4948	16.4454	-7.54706	11.8765	-315.361	15.8728	0.310711
0.7467	-69.0178	-8.90394	-167.818	-37.1508	15.824	-7.81094	11.581	-355.629	17.6795	0.310711
0.7473	-34.8329	15.2176	-122.927	-36.5237	14.9127	-10.2914	11.2854	-243.361	21.68	0
0.7480	6.68306	-4.29008	-122.645	-35.6355	14.602	-9.34147	10.3718	12.6934	28.0678	0
0.7487	46.6599	-107.171	-91.5319	-31.6644	14.9127	-6.91374	7.01306	241.903	32.9716	0.310711
0.7493	71.367	-197.506	-52.1184	-27.3797	15.5341	-4.80267	4.5679	327.926	32.9716	0
0.7500	64.0358	-242.025	-94.8635	-23.0951	16.4454	-2.95549	5.15904	344.736	32.0038	-0.310711
0.7507	32.6052	-274.97	-39.6394	-20.378	17.0461	-1.74163	4.5679	331.014	32.3264	0
0.7513	35.6835	-216.123	190.461	-18.8105	16.1347	-2.05829	2.4183	171.403	31.1005	0.310711
0.7520	69.5443	-80.9449	265.222	-15.7799	14.602	-1.10831	1.50472	19.1258	29.6164	0.310711
0.7527	48.8066	-1.86173	118.466	-13.6376	14.3121	1.95274	0.59114	44.1266	30.1971	0
0.7533	1.1746	13.3559	2.20219	-11.8088	15.2234	5.59432	-0.02687	191.215	28.6485	0.310711
0.7540	-14.7027	1.21417	-25.5793	-9.09175	14.9127	6.80819	-0.940449	321.537	25.0352	0.310711
0.7547	-10.4094	-23.555	-25.2969	-8.15122	13.09	5.27766	-1.85403	272.393	24.7126	0.310711
0.7553	-5.22494	-29.6258	-11.8579	-7.5242	12.7794	5.27766	-2.44517	143.615	25.2933	0.310711
0.7560	-13.7711	-18.9411	2.48452	-6.32242	12.4687	6.22764	-3.68119	51.4596	24.1319	0
0.7567	-31.7546	-3.72347	-9.71221	-5.6954	12.1787	7.44151	-2.76761	-40.6959	21.9381	0.310711
0.7573	-41.84	-11.6561	-74.0838	-2.35131	13.09	9.55257	-0.02687	-95.0287	15.5502	0.310711
0.7580	-33.0103	-49.4574	-145.231	3.13508	12.7794	10.4498	0.59114	-147.517	7.93642	0.310711
0.7587	-4.61739	-53.7474	-165.051	7.73321	12.1787	11.3998	-0.61801	-200.907	3.67785	0
0.7593	29.2434	-18.0507	-186.113	10.7638	12.1787	12.6136	0.59114	-183.539	1.54857	0
0.7600	39.9363	-24.7692	-199.213	12.5926	13.38	14.1441	3.33188	-75.5169	3.67785	0.310711
0.7607	21.6288	-72.3648	-113.78	14.1079	14.9127	16.5719	4.5679	87.4813	6.38785	0.310711
0.7613	11.5435	-78.1928	52.8525	15.9367	15.5341	17.4691	5.15904	171.103	5.80714	0.310711
0.7620	13.6901	-65.6463	146.813	17.7655	15.2234	18.1024	6.39505	119.215	3.93595	0.310711
0.7627	5.14393	-85.8016	60.4755	19.333	14.602	19.3163	6.09949	83.193	0.903333	0.310711
0.7633	-10.7334	-57.7137	-38.7359	20.5348	13.09	19.6329	4.86347	148.804	-2.12928	0.310711
0.7640	-24.7476	103.124	-61.6048	22.3636	12.4687	21.1634	5.77705	162.827	-4.58119	0
0.7647	-45.5258	246.882	-146.417	23.3041	12.4687	21.1634	7.01306	65.4823	-5.80714	0
0.7653	-86.1102	161.728	-248.678	22.9906	12.7794	20.8468	7.92664	-14.7517	-5.22642	0.310711
0.7660	-109.886	-0.32378	-302.998	22.9906	14.0014	23.9078	10.6674	-41.2963	-5.80714	-0.310711
0.7667	-73.8782	-69.2889	-346.929	23.3041	15.2234	25.4383	13.1125	-91.984	-7.93642	-0.621423
0.7673	-12.232	-120.284	-249.299	25.1329	15.824	26.9689	12.4945	-97.473	-8.58166	0.310711
0.7680	15.5128	-100.453	-28.3461	25.3942	15.5341	26.6522	10.3718	15.1377	-7.93642	0.621423
0.7687	22.8439	-64.4322	90.9673	23.5654	13.6907	23.9078	7.01306	39.8812	-9.16237	0.310711
0.7693	42.3665	-126.112	25.9745	23.5654	13.38	23.2745	3.65432	-15.0519	-12.195	0.310711
0.7700	42.083	-151.367	-210.224	24.8194	13.38	23.0106	0.59114	69.1702	-12.195	0.310711
0.7707	6.96658	-90.9821	-563.308	25.7077	13.38	22.3773	-3.06318	158.581	-10.0657	0.310711
0.7713	-25.3551	-16.8365	-870.033	25.1329	13.6907	21.4801	-7.65794	93.8708	-7.93642	0
0.7720	-29.0409	21.2885	-972.238	22.0501	12.1787	17.4691	-12.5214	-36.4505	-4.00047	0
0.7727	-4.29336	10.361	-897.194	18.706	10.9567	14.4608	-16.7937	-128.606	-0.322619	0.310711
0.7733	31.1066	9.71339	-549.587	15.0484	10.9567	12.9303	-18.0298	-175.906	2.71	0.310711
0.7740	57.0288	26.5499	105.931	13.5331	9.73469	11.7164	-17.1162	-184.44	5.48452	0.310711
0.7747	59.459	14.3273	661.052	14.1079	9.11333	10.4498	-16.7937	-61.4513	4.90381	0.621423
0.7753	42.6906	-33.9159	714.469	13.5331	8.20199	8.65537	-18.0298	113.726	4.25857	0.310711
0.7760	8.82974	-112.352	332.982	11.9656	6.06865	7.12485	-17.4117	12.093	5.80714	0
0.7767	-23.2084	-151.367	75.439	11.7043	4.84663	6.49153	-14.671	-192.673	6.71047	0
0.7773	-32.6862	-104.419	101.075	13.5331	4.84663	7.70539	-10.6943	21.5701	6.06523	0.310711
0.7780	-41.5565	-45.4911	89.7815	15.6754	6.06865	10.7664	-6.42193	396.324	4.90381	0
0.7787	-52.5329	-45.4911	94.3553	14.1079	6.06865	10.7664	-4.89034	407.302	4.90381	0.310711
0.7793	-38.8022	-81.8353	239.587	11.7043	4.53595	8.02205	-3.97676	201.893	6.71047	0.310711
0.7800	-0.0405034	-102.314	386.682	10.4503	3.9353	7.70539	-2.76761	20.3265	7.6138	0.310711
0.7807	34.4684	-95.596	331.457	10.7638	4.53595	10.7664	-0.940449	-88.6391	6.71047	0
0.7813	40.5439	-48.2432	109.319	11.3908	6.06865	13.5108	2.74074	-73.673	3.93595	0
0.7820	15.8368	12.1417	-51.5538	9.87552	5.44728	11.3998	5.48148	-14.1514	1.80667	0.310711
0.7827	-12.556	41.7676	-89.9509	8.30797	4.22527	8.97203	7.6042	52.6603	0.322619	0.621423
0.7833	-12.8396	69.5317	-31.6776	11.3908	5.75796	12.6136	12.7901	126.205	-3.35524	0.310711
0.7840	-3.07826	135.745	163.301	16.2502	7.89131	18.1024	18.594	40.7817	-7.93642	0.310711
0.7847	-10.4094	180.022	341.226	20.2213	9.73469	22.694	21.0392	-166.429	-9.16237	0.310711
0.7853	-27.8258	113.485	209.716	21.4231	10.646	24.4884	21.0392	-312.617	-7.93642	0
0.7860	-19.5631	18.5364	-53.3607	19.0195	9.73469	22.3773	18.594	-390.449	-5.48452	0.310711
0.7867	19.8062	-4.61386	-100.058	15.6754	9.11333	20.8468	16.7669	-298.294	-1.87119	0.310711
0.7873	35.6835	0.890394	-41.7851	13.5331	9.42401	20.2662	16.4713	-119.129	1.54857	0.310711
0.7880	26.8132	12.7893	-78.7141	12.5926	10.0247	18.9996	15.8533	-147.517	3.67785	0.310711
0.7887	28.0283	12.1417	-75.0438	12.2791	10.9567	17.4691	13.4081	-257.984	4.25857	0.310711
0.7893	33.8203	-30.84	70.5265	11.7043	10.0247	15.9913	8.51778	-145.974	5.48452	0.310711
0.7900	27.1373	-60.7896	136.14	9.56201	8.51267	12.9303	5.15904	93.5706	7.6138	0.310711
0.7907	1.49863	-53.1808	103.22	7.73321	6.97998	10.4498	3.03631	156.737	8.83976	0.310711
0.7913	-24.464	-54.395	93.7341	7.99447	6.97998	9.86923	-0.02687	43.8264	8.83976	0.310711
0.7920	-25.0716	-59.8183	81.5374	6.79268	7.29066	10.1859	-3.38562	-39.7954	10.0657	0.621423
0.7927	-7.65514	-62.8942	96.1622	4.65038	6.37933	9.86923	-6.42193	-31.2617	11.6143	0.310711
0.7933	9.11326	-67.5081	109.601	4.07561	5.75796	9.86923	-8.24908	-12.6505	11.6143	0.310711
0.7940	20.6972	-52.2095	93.4518	3.44859	5.75796	9.86923	-9.4851	27.9597	10.969	0.310711
0.7947	17.0519	-29.0592	67.4773	4.07561	6.37933	10.4498	-8.86709	115.87	10.3883	0.621423
0.7953	7.29061	-16.8365	-10.051	3.7621	6.37933	10.1859	-8.24908	150.948	7.03309	0.310711
0.7960	8.50571	-14.4082	-87.5228	2.82158	5.44728	8.33871	-8.57152	122.86	4.58119	-0.621423
0.7967	7.89816	-26.3071	-89.6686	1.9333	4.53595	5.91098	-11.9303	73.7158	6.06523	-0.310711
0.7973	-2.18718	-35.7777	-73.1804	0.104503	3.62462	2.84994	-19.8569	27.6595	7.93642	0.310711
0.7980	-3.40228	-27.8451	-93.96	0.36576	4.84663	1.00276	-25.3384	14.2371	9.16237	0
0.7987	6.68306	-14.651	-89.3862	0.679268	4.84663	-0.79165	-24.4248	12.9935	11.2917	0.310711
0.7993	9.43729	2.99496	-1.46812	-0.836023	2.71329	-3.85269	-23.2157	17.582	12.5176	0.310711
0.8000	1.78215	21.0457	73.5756	-1.14953	1.49127	-6.01654	-23.5112	34.3493	13.4209	0.310711
0.8007	-5.50846	14.5701	62.9035	-1.7243	1.49127	-6.91374	-21.0661	43.8264	13.4209	0.310711
0.8013	-11.0169	-9.22772	48.8999	-0.836023	3.02397	-4.48601	-13.435	41.6823	14.3243	0.310711
0.8020	-14.7027	-26.3071	71.1476	-0.209006	3.62462	-3.27215	-6.71749	31.9049	14.6469	0.310711
0.8027	-14.7027	-35.7777	68.7195	-0.836023	2.71329	-4.16935	-3.38562	23.6714	13.0983	0.310711
0.8033	-12.232	-36.9918	34.5574	-0.209006	2.71329	-2.32217	-1.23602	26.4159	11.2917	0.310711
0.8040	-11.0169	-22.5836	12.5355	-1.14953	2.71329	-2.95549	-1.85403	32.8484	9.42047	0.310711
0.8047	-15.9178	3.31874	1.24226	-2.66482	3.02397	-5.38322	1.50472	32.8484	8.25904	0.310711
0.8053	-21.3858	17.646	-13.1002	-5.12064	3.9353	-5.69988	10.3718	23.9716	7.6138	0
0.8060	-18.348	4.8567	-25.2969	-6.63593	4.22527	-4.80267	15.8533	12.6934	4.25857	0.310711
0.8067	-12.232	-14.0844	-26.4827	-5.3819	4.53595	-2.05829	20.7436	9.04831	0.903333	0.310711
0.8073	-7.37161	-19.2649	-14.9071	-2.35131	5.15731	1.31942	19.5076	7.50452	-1.87119	0.310711
0.8080	-5.50846	-18.6173	-5.42077	3.13508	6.6693	5.91098	25.9295	3.85947	-5.80714	0
0.8087	-6.76406	-15.9462	-17.674	6.47917	7.60134	10.1859	61.6397	2.61586	-8.58166	0.310711
0.8093	-7.37161	-6.71843	-33.2022	4.07561	6.06865	9.23591	95.2003	5.66055	-8.83976	0.621423
0.8100	-8.58672	6.07087	-30.4918	1.30629	6.37933	8.33871	102.831	8.10488	-8.58166	0.310711
0.8107	-7.37161	9.38961	-28.6284	-1.46304	6.97998	7.12485	98.8547	4.76001	-6.71047	0
0.8113	-6.15651	6.63749	-33.8233	-2.97833	7.29066	6.49153	85.7421	1.71532	-4.90381	0.310711
0.8120	-7.97917	0.890394	-35.9691	-0.522514	9.42401	8.97203	64.058	-0.729011	-4.00047	0.310711
0.8127	-7.04759	-11.6561	-36.5902	-0.522514	9.73469	6.49153	55.5134	-8.36218	-3.03262	0.310711
0.8133	-7.65514	-19.5887	-32.2987	-0.209006	8.80264	4.69712	67.4168	-12.0072	-4.25857	0.310711
0.8140	-7.97917	-17.1603	-31.0565	1.9333	10.0247	6.80819	70.48	-10.2061	-7.03309	0.310711
0.8147	-3.07826	-11.3323	-34.1057	3.44859	9.73469	6.49153	62.2309	-8.96254	-9.16237	0
0.8153	-2.47071	-2.75213	-25.9181	5.90441	9.42401	7.12485	63.1445	-5.01731	-9.16237	0
0.8160	-6.15651	6.63749	-19.7632	4.96388	7.60134	4.38046	62.8489	-1.62955	-7.35571	0.310711
0.8167	-8.58672	10.6038	-28.3461	1.30629	5.15731	-1.74163	44.5504	-6.21803	-5.22642	0.310711
0.8173	-10.1258	5.74709	-35.3479	0.104503	5.44728	-2.95549	10.3718	-13.551	-3.03262	0
0.8180	-5.83249	-6.71843	-34.7268	-2.03781	5.44728	-2.95549	-26.5744	-15.395	-1.54857	0.310711
0.8187	-0.0405034	-17.4032	-32.9199	-3.29184	6.06865	-2.05829	-56.7763	-12.9507	-0.645238	0.310711
0.8193	0.891074	-16.189	-32.5811	-2.35131	5.15731	-0.211107	-41.8366	-11.7071	-0.903333	0.310711
0.8200	0.283524	-7.68977	-29.8707	-2.03781	3.9353	-0.211107	37.2149	-10.5063	-2.4519	0.310711
0.8207	-0.0405034	-3.07591	-24.9581	-0.209006	6.6693	-0.211107	109.549	-8.36218	-3.35524	0
0.8213	2.10618	-6.4756	-26.4827	0.104503	8.20199	-3.27215	114.412	-8.96254	-3.67785	0
0.8220	2.3897	-8.90394	-28.9672	-1.14953	7.60134	-2.95549	76.875	-10.5063	-1.87119	0.310711
0.8227	-0.324027	-0.971339	-23.4335	-1.7243	7.60134	0.686096	33.8562	-9.5629	0.903333	0.310711
0.8233	0.283524	10.0372	-19.7632	-4.80713	4.22527	-1.74163	-4.2992	-8.36218	2.71	0.310711
0.8240	1.49863	11.8989	-20.7231	-7.26295	2.09192	-3.85269	-33.5875	-10.2061	4.90381	0.621423
0.8247	2.10618	5.18048	-16.4317	-4.49362	4.53595	-1.74163	-15.5846	-12.3074	6.06523	0.621423
0.8253	2.71373	0.566615	-13.6649	-2.35131	6.06865	-4.16935	47.9092	-13.551	3.03262	0.310711
0.8260	0.567047	4.20914	-17.0528	-2.66482	6.06865	-10.2914	67.1212	-16.8959	-0.645238	0.310711
0.8267	-0.0405034	8.49922	-13.3825	-3.8666	5.15731	-10.6081	48.8228	-18.1395	0.322619	-0.310711
0.8273	3.32128	7.9326	-7.28416	-4.80713	4.84663	-6.3332	51.8591	-17.1961	2.12928	-0.621423
0.8280	5.46796	7.28504	-8.46995	-4.49362	5.75796	-3.58881	41.1917	-17.1961	1.22595	0.310711
0.8287	5.75148	6.96127	-10.051	-3.5531	7.60134	-1.74163	3.65432	-16.8959	0.903333	0.621423
0.8293	4.86041	6.07087	-10.6157	-3.29184	7.29066	-2.63883	-14.671	-16.2955	1.22595	0
0.8300	3.32128	6.96127	-10.051	-3.8666	6.6693	-6.91374	-21.3885	-16.5957	1.22595	0
0.8307	2.3897	6.07087	-7.28416	-3.8666	8.20199	-7.81094	-33.883	-16.5957	3.03262	0
0.8313	3.6453	1.21417	-7.90529	-6.32242	7.89131	-7.2304	-42.1321	-16.2955	5.80714	0
0.8320	3.6453	1.45701	-6.94536	-7.5242	8.20199	-7.2304	-36.9462	-13.8512	7.6138	0.310711
0.8327	0.567047	5.74709	-5.75957	-6.63593	9.42401	-9.07758	-11.6078	-12.3074	7.29118	0.310711
0.8333	0.567047	5.18048	-8.18762	-7.5242	9.73469	-12.0859	-5.80392	-13.551	7.93642	0.310711
0.8340	2.71373	2.10457	-6.66303	-9.09175	11.2467	-9.97479	-44.2549	-11.4069	9.74309	0.310711
0.8347	4.25285	2.67118	-4.23498	-9.66651	11.2467	-8.76092	-90.0413	-7.76182	10.969	0.310711
0.8353	4.25285	5.42331	-5.42077	-9.353	10.3353	-9.65813	-93.4	-8.96254	11.2917	0.310711
0.8360	2.99725	5.42331	-4.85611	-9.353	10.646	-8.1276	-43.6637	-10.8065	10.3883	0
0.8367	2.71373	3.31874	-3.33151	-9.66651	10.3353	-6.59708	9.13579	-10.5063	9.16237	0
0.8373	2.99725	3.31874	-2.08925	-8.46473	10.0247	-6.59708	11.8765	-9.86308	7.93642	0.310711
0.8380	2.99725	4.20914	-2.08925	-6.94944	9.42401	-7.81094	-18.9433	-9.86308	5.1619	0
0.8387	2.3897	3.31874	-1.18579	-4.49362	9.73469	-7.54706	-56.7763	-9.26272	3.35524	0
0.8393	1.78215	1.78079	-1.18579	-3.5531	10.3353	-6.3332	-76.0152	-9.86308	3.03262	0.310711
0.8400	1.78215	2.99496	-1.18579	-3.8666	9.42401	-6.3332	-51.2948	-10.8065	3.35524	0
0.8407	0.891074	6.07087	3.10565	-2.35131	10.3353	-4.48601	-62.5802	-9.26272	3.67785	0.310711
0.8413	2.10618	5.42331	3.72678	-4.18011	8.51267	-6.59708	-116.293	-9.26272	3.35524	0.621423
0.8420	2.99725	4.53292	2.76685	-4.80713	7.60134	-9.34147	-56.4807	-10.5063	3.35524	0.310711
0.8427	1.1746	6.63749	5.8725	-1.7243	8.80264	-7.81094	72.9251	-10.2061	3.93595	0.310711
0.8433	2.71373	6.63749	5.5337	-0.836023	6.6693	-8.1276	130.588	-11.1067	1.80667	0.310711
0.8440	3.92883	6.07087	5.8725	3.44859	6.6693	-6.91374	135.774	-13.2508	-2.4519	0.310711
0.8447	2.10618	6.39465	7.96175	7.10619	7.89131	-4.48601	109.549	-13.2508	-4.00047	0.310711
0.8453	2.3897	5.18048	6.43716	5.27739	5.15731	-9.65813	57.663	-12.3074	-3.35524	0.310711
0.8460	2.3897	4.8567	6.15483	6.16567	5.44728	-11.822	3.94989	-11.4069	-4.58119	0
0.8467	2.10618	4.8567	6.77596	7.99447	6.37933	-7.54706	-32.6739	-10.2061	-5.80714	0
0.8473	3.32128	3.64252	6.43716	6.47917	4.22527	-6.59708	-35.7102	-8.96254	-4.90381	0.310711
0.8480	1.78215	2.99496	9.20401	7.73321	6.97998	-10.872	-15.5846	-7.11857	-4.90381	0.310711
0.8487	0.283524	2.42835	10.4463	7.99447	9.73469	-13.933	19.83	-5.31749	-4.58119	0.310711
0.8493	0.283524	2.42835	7.96175	3.44859	8.51267	-11.5053	29.2883	-5.31749	-2.77452	0.310711
0.8500	-0.931578	3.31874	5.8725	-0.209006	6.97998	-4.48601	-50.3812	-5.61767	0.580714	0.310711
0.8507	-0.324027	0.566615	5.25137	-1.14953	6.97998	4.38046	-174.574	-4.37406	3.67785	0
0.8513	1.78215	-3.39969	5.5337	-1.7243	7.60134	7.44151	-221.892	-3.7737	7.03309	0.310711
0.8520	1.49863	-3.07591	6.43716	-1.46304	7.89131	5.59432	-177.315	-3.17334	7.93642	0.310711
0.8527	-0.648054	-1.86173	7.67942	1.61979	9.73469	6.49153	-122.393	-2.87316	5.80714	-0.310711
0.8533	-0.324027	-2.18551	6.77596	3.7621	10.3353	7.12485	-86.387	-2.87316	2.4519	0.310711
0.8540	1.49863	-1.86173	5.8725	4.96388	8.80264	2.53328	-72.952	-2.87316	-0.645238	0.621423
0.8547	0.891074	-2.18551	7.05829	7.73321	9.11333	-0.527766	-70.8293	-2.2728	-3.03262	0.310711
0.8553	0.567047	-1.86173	6.77596	8.93499	9.42401	-2.05829	-61.3442	-2.2728	-3.67785	0.310711
0.8560	1.78215	-2.18551	6.15483	7.73321	9.42401	-8.44426	-45.4909	-2.57298	-3.35524	0.310711
0.8567	1.49863	-3.07591	6.43716	7.10619	10.0247	-12.7192	-23.2157	-1.62955	-2.12928	0.621423
0.8573	1.49863	-3.07591	5.8725	7.10619	8.20199	-9.65813	-28.4016	-2.2728	1.22595	0
0.8580	1.1746	-2.50929	6.15483	7.10619	3.9353	-7.54706	-60.135	-2.87316	5.1619	0
0.8587	-0.0405034	-2.75213	6.43716	7.4197	0.869908	-11.822	-65.9389	-1.02919	6.71047	0.310711
0.8593	-0.324027	-3.39969	5.5337	7.10619	-0.642075	-17.6274	-51.8859	-1.92973	6.06523	0
0.8600	-0.931578	-4.29008	5.5337	7.99447	-1.55341	-16.6774	-18.9433	-2.57298	5.80714	-0.310711
0.8607	-0.324027	-4.29008	6.43716	9.87552	-0.352106	-10.2914	-2.44517	-1.62955	6.38785	-0.310711
0.8613	9.43729	-2.75213	6.77596	10.7638	1.18059	-7.54706	-57.6898	-2.57298	7.03309	0
0.8620	31.1066	-3.72347	4.91257	10.4503	-0.352106	-11.5053	-108.958	-3.7737	6.06523	0.621423
0.8627	56.0972	-5.50426	2.20219	7.73321	-4.6188	-13.933	-103.154	-6.51821	7.03309	0.621423
0.8633	54.5986	-4.93764	1.58106	4.96388	-7.97416	-9.97479	-57.0718	-10.8065	10.6464	0.310711
0.8640	18.5911	-6.15182	-0.282332	2.24681	-11.6402	-7.2304	33.5606	-13.2508	14.0017	0.310711
0.8647	-7.37161	-7.36599	-2.37159	0.679268	-14.6849	-4.80267	90.6324	-18.1395	14.9695	0
0.8653	-5.22494	-7.04221	-1.18579	4.33687	-14.3742	0.105553	39.9557	-22.9853	14.0017	-0.310711
0.8660	-3.68581	-7.68977	-2.99272	5.27739	-16.8182	0.105553	-64.4073	-25.1294	13.4209	0.310711
0.8667	-11.3409	-7.04221	-3.89618	3.13508	-23.239	-1.10831	-58.9259	-27.5738	14.3243	0.621423
0.8673	-12.556	-3.39969	0.338798	3.44859	-29.3283	-2.05829	97.0275	-29.4177	16.1955	0.310711
0.8680	7.89816	2.99496	5.8725	1.9333	-33.6157	-10.872	219.098	-32.1622	16.4536	0.310711
0.8687	47.2674	14.0035	15.02	0.679268	-36.9711	-20.3718	259.698	-35.2069	16.1955	0.310711
