MR32 ASCII
Name	USMC15_slow
Frequency	1500
Date	31-08-2015 14:36:26
"Time,s"	"RT TIB.ANT.,uV"	"RT MED. GASTRO,uV"	"RT LAT. GASTRO,uV"	"RT BICEPS FEM.,uV"	"RT VMO,uV"	"RT VLO,uV"	"RT RECTUS FEM.,uV"	"RT SOLEUS,uV"	"RT SEMITEND.,uV"	"Channel 12,uV"
0.0000	28.213	-44.7661	43.3396	-3.42446	-3.09815	-1.0148	-5.85341	-92.7336	8.08734	-6072.42
0.0007	32.1837	-6.92259	42.1572	-3.73815	-0.66094	0.807226	-4.94486	-77.1816	8.08734	-10442.1
0.0013	18.7489	-7.8456	29.9239	-3.73815	0.557668	0.807226	-4.02142	-19.8059	9.89569	-9821.68
0.0020	13.2556	-61.2265	28.4232	-4.65309	-0.66094	-0.714972	-4.3342	12.251	9.89569	-9640.99
0.0027	12.0316	-105.531	29.0144	-3.42446	-0.0516359	1.40688	-2.815	38.1824	9.29291	-9910.91
0.0033	13.5542	-67.0722	17.736	-1.28091	0.258179	2.95214	-1.2809	119.346	8.69013	-9791.41
0.0040	12.3301	-38.9972	4.00198	-1.90829	-2.18936	-0.714972	-3.11288	141.329	7.13294	-9804.15
0.0047	0.447825	-80.7635	0.955018	-2.19584	-2.79867	-1.63752	-3.72354	70.2053	6.53015	-9813.71
0.0053	-5.04549	-114.377	0.045477	-1.28091	-1.27024	-0.115318	-3.11288	33.5883	5.62598	-9814.67
0.0060	-2.00028	-191.294	-15.5531	-2.82322	-1.87955	-1.63752	-5.24275	2.48424	0.150696	-9792.04
0.0067	-6.26955	-318.824	-47.2961	-3.42446	-2.18936	-1.63752	-5.24275	-78.1004	-5.9776	-9826.46
0.0073	-9.94171	-321.9	-68.352	-0.679664	-0.960428	0.807226	-2.20434	-132.72	-8.69013	-9889.88
0.0080	-0.17913	-290.441	-48.4785	-0.993356	-2.48885	-1.33769	-2.20434	-127.547	-13.0101	-9533.91
0.0087	13.2556	-382.896	-5.13891	-2.50953	-5.5457	-4.08226	-4.3342	-85.417	-13.9142	-10213.3
0.0093	21.7941	-309.978	23.5116	-0.993356	-5.23588	-2.85989	-4.3342	-25.8973	10.4985	-9716.52
0.0100	23.6452	-30.7671	19.2368	-0.679664	-5.5457	-3.45954	-4.3342	9.80083	30.3401	-3734.92
0.0107	11.4345	91.9166	-6.09392	-2.50953	-6.7643	-4.98174	-3.72354	14.0547	12.0557	111.538
0.0113	-2.00028	91.3013	-17.6906	-1.90829	-5.23588	-2.85989	-0.0595767	25.6591	-3.21484	10.5164
0.0120	-1.40318	75.1486	-10.6416	-0.0784228	-4.01727	-0.714972	2.68095	52.8156	-0.150696	-170.174
0.0127	2.56753	-31.3824	-3.63816	-0.679664	-4.62658	-1.93734	2.07029	66.2577	1.65765	99.7465
0.0133	-0.77623	-133.606	1.22788	-2.19584	-4.31676	-2.56006	1.45963	57.4097	2.86322	-19.1207
0.0140	-7.19505	-81.9942	6.1394	-3.11077	-3.70746	-1.33769	2.07029	57.1035	4.42041	-7.01093
0.0147	-8.41911	92.8396	6.7306	-5.56802	-3.09815	-1.33769	1.77241	66.2577	7.13294	2.54943
0.0153	1.67188	156.066	11.0054	-6.7705	-1.87955	-1.0148	1.77241	61.051	10.1971	0.637358
0.0160	10.509	156.912	16.5082	-4.3394	-0.0516359	0.807226	2.99373	46.1116	9.89569	0.956036
0.0167	12.0316	273.519	8.86802	-0.679664	0.867483	1.72977	3.90227	31.7506	8.99152	0.956036
0.0173	11.733	251.213	1.54622	0.54896	-0.351124	0.184509	2.99373	15.586	6.53015	0.956036
0.0180	6.83679	55.3038	9.5047	0.54896	-0.66094	-0.714972	2.07029	8.88201	5.92737	1.27472
0.0187	5.31419	60.5342	17.0994	-1.28091	-1.27024	-1.63752	1.77241	38.795	27.6276	0.956036
0.0193	3.79158	143.836	14.6891	-5.56802	-2.79867	-3.15971	0.238307	67.1765	66.3564	0.956036
0.0200	-3.82144	31.8439	7.64014	-5.85557	-3.40797	-2.23717	0.238307	27.8031	83.7366	1.27472
0.0207	-3.82144	-29.5364	0.955018	-0.0784228	-2.79867	-0.714972	1.45963	-26.5099	78.5628	0.956036
0.0213	6.83679	144.451	-0.272862	3.895	-3.70746	-1.93734	0.238307	-23.1749	81.6269	0.956036
0.0220	11.733	333.976	-1.81908	5.12362	-5.5457	-4.08226	-2.20434	4.28786	77.96	1.27472
0.0227	6.53824	288.441	-9.14089	7.55473	-5.23588	-2.85989	-2.815	-10.039	40.4367	1.27472
0.0233	3.19448	68.149	-13.6886	9.09705	-3.09815	-1.0148	-3.41076	-52.7816	-4.11902	1.27472
0.0240	5.94114	-184.218	-15.2348	4.20869	-1.58006	-0.415145	-4.3342	-64.9646	-20.2937	1.27472
0.0247	9.58345	-386.588	-17.6906	-2.50953	-0.351124	-0.415145	-3.41076	-40.2583	5.92737	1.27472
0.0253	9.2849	-388.126	-13.6886	-2.19584	2.08609	1.10705	-0.372354	-20.1121	12.6585	1.27472
0.0260	10.509	-201.601	0.955018	-3.11077	2.08609	1.10705	0.551084	-21.9498	-34.3587	1.27472
0.0267	15.0768	69.6874	14.6891	-6.7705	0.258179	-0.415145	-0.372354	-17.6619	-43.1995	0.956036
0.0273	17.8234	249.444	24.1483	-5.85557	1.7866	2.0296	1.77241	-12.183	-23.0565	1.27472
0.0280	20.2715	202.755	25.9674	-7.39788	3.61451	4.47434	4.51293	-21.3372	-38.9298	1.27472
0.0287	19.6744	121.838	12.8245	-11.9725	2.39591	2.95214	4.21505	-26.5099	-46.8664	0.318679
0.0293	12.9571	-52.6886	-5.13891	-11.0576	0.867483	2.32942	2.99373	-26.2036	-28.8331	0
0.0300	9.58345	-280.98	-9.41375	-8.91406	0.258179	2.62925	2.99373	-23.1749	-16.6268	0.956036
0.0307	9.91186	-134.837	-3.63816	-12.2862	-3.70746	-0.415145	1.77241	-7.28256	-8.38873	1.27472
0.0313	5.01564	140.759	0.318339	-12.5738	-7.68342	-3.45954	1.77241	10.4134	0.753479	0.956036
0.0320	2.56753	174.988	7.64014	-9.22775	-7.37361	-3.15971	2.38307	15.2798	-12.0557	1.27472
0.0327	7.1652	172.834	14.3707	-9.82899	-6.45449	-3.15971	0.848967	3.98159	-49.6292	1.27472
0.0333	3.19448	181.064	2.7741	-6.7705	-5.5457	-3.15971	-0.0595767	4.90042	-63.6439	0.956036
0.0340	-8.0907	159.066	-8.50421	4.49624	-2.79867	-0.415145	0.848967	27.4968	-67.3108	0.956036
0.0347	-10.5388	146.297	-4.22936	10.2995	-0.960428	-0.415145	-0.372354	14.9735	-105.437	1.27472
0.0353	-9.64316	53.4578	3.68364	10.9269	-0.960428	-2.85989	-3.11288	-30.1852	-52.6431	1.59339
0.0360	-15.435	-59.765	10.6871	13.9593	0.867483	-1.33769	-3.72354	-36.8892	71.2289	1.27472
0.0367	-23.9736	-40.8433	13.7795	13.6717	1.7866	0.184509	-3.72354	-12.4893	57.2142	1.27472
0.0373	-30.9895	-84.4556	17.736	9.69829	-0.0516359	-1.63752	-4.3342	1.87169	4.7218	1.27472
0.0380	-26.4217	-313.978	33.8804	10.6132	-2.18936	-2.56006	-2.20434	15.586	22.4034	1.59339
0.0387	-5.971	-190.987	52.8443	11.5282	-3.70746	-3.15971	-0.0595767	23.5152	10.7999	1.59339
0.0393	8.6878	268.058	42.7484	5.43731	-5.23588	-4.98174	-0.983015	-3.94756	-16.6268	1.27472
0.0400	12.3301	384.588	7.64014	3.29376	-5.5457	-4.38208	-1.2809	-46.0435	-16.024	1.27472
0.0407	20.5701	245.752	-16.7356	6.95349	-4.62658	-2.23717	-0.983015	-80.5506	-13.9142	1.59339
0.0413	19.6744	170.68	-39.0193	6.95349	-5.84518	-4.38208	-1.89156	-113.799	-15.7226	1.27472
0.0420	5.01564	144.144	-68.352	5.12362	-6.7643	-6.527	-1.89156	-97.634	-13.9142	1.27472
0.0427	1.04492	146.913	-78.9936	5.72486	-4.62658	-4.98174	-0.670237	-21.9498	-12.6585	1.27472
0.0433	0.447825	123.991	-71.6718	7.55473	-3.09815	-3.45954	-0.0595767	48.5618	-15.1198	1.59339
0.0440	-9.01621	68.4567	-63.1221	7.86842	-2.79867	-2.56006	-0.0595767	81.1972	-17.8826	1.59339
0.0447	-10.8374	59.6112	-45.7499	6.35225	-1.87955	-0.714972	1.45963	84.5662	-15.7226	1.27472
0.0453	-2.92579	22.0754	-16.4627	4.20869	-0.960428	-0.415145	1.16174	87.0164	-10.8501	1.27472
0.0460	-2.59738	-140.298	0.318339	0.235268	-1.87955	-2.23717	-0.983015	95.5581	-5.07343	1.59339
0.0467	-6.8965	-302.671	7.64014	-2.50953	-0.960428	-1.93734	-2.20434	97.0895	-1.1051	1.59339
0.0473	-8.71766	-398.741	18.6456	-1.90829	1.16697	1.10705	-0.670237	81.8097	1.35626	1.59339
0.0480	-8.0907	-456.122	17.736	-2.50953	0.557668	1.10705	-0.372354	57.716	1.95905	1.27472
0.0487	-2.59738	-375.589	5.82106	-1.90829	0.557668	1.10705	-0.372354	46.4178	1.05487	1.27472
0.0493	5.31419	-79.8405	-13.6886	-0.0784228	0.867483	1.72977	-0.372354	36.9573	1.05487	1.27472
0.0500	6.83679	242.368	-32.3342	-1.28091	-2.18936	-1.33769	-2.50222	13.4421	0.753479	1.27472
0.0507	5.31419	375.435	-17.9634	-1.5946	-4.01727	-3.15971	-2.815	-6.36374	-0.452087	1.59339
0.0513	9.2849	380.665	4.91152	1.1502	-3.09815	-1.93734	-0.0595767	-13.7144	-1.70789	1.27472
0.0520	15.0768	345.822	-5.13891	2.66638	-4.62658	-1.63752	0.551084	-42.0959	-3.21484	0.956036
0.0527	13.5542	277.519	-21.9654	2.37883	-7.37361	-2.85989	-1.2809	-67.721	-5.07343	1.59339
0.0533	8.98635	179.526	-1.81908	1.75144	-7.68342	-3.45954	-3.11288	-50.6376	-5.9776	1.59339
0.0540	4.09013	92.2243	20.1463	1.1502	-7.37361	-4.38208	-4.3342	-25.2848	-5.9776	1.27472
0.0547	-3.22434	54.9961	4.32032	0.54896	-7.37361	-4.98174	-5.55552	-39.3395	-4.7218	1.27472
0.0553	-10.8374	46.1506	9.77756	0.83651	-5.84518	-3.45954	-5.85341	-60.7107	-3.51624	1.27472
0.0560	-16.9576	42.5355	34.1987	2.37883	-4.01727	-0.714972	-4.3342	-35.0516	-1.70789	1.27472
0.0567	-14.211	14.7682	4.32032	2.37883	-2.79867	-0.115318	-4.63209	-17.0494	0.452087	1.59339
0.0573	-2.29883	-45.0737	-44.2037	0.83651	-2.18936	-1.0148	-6.46407	-11.8767	1.65765	1.59339
0.0580	7.46375	-108.223	-51.5255	-0.0784228	-1.87955	-1.0148	-6.46407	9.49456	2.56183	1.59339
0.0587	10.8075	-167.757	-37.2002	-0.0784228	-0.66094	-0.415145	-4.63209	-15.518	4.11902	1.91207
0.0593	14.4797	-212.6	-27.741	-1.90829	-0.66094	-0.115318	-4.02142	-58.2605	5.92737	1.59339
0.0600	15.7037	-221.446	-7.27633	-2.19584	-0.351124	1.10705	-2.815	-47.8812	7.13294	1.27472
0.0607	9.58345	-218.138	24.1483	-0.0784228	1.7866	3.5518	-0.0595767	-3.02873	7.13294	1.59339
0.0613	5.31419	-189.141	31.4701	-0.365973	1.47679	2.95214	0.551084	51.2842	8.69013	0.956036
0.0620	6.23969	-150.682	15.917	-1.5946	-0.351124	0.807226	0.238307	80.8909	11.1013	0
0.0627	3.49303	-192.756	4.91152	-1.28091	-0.960428	0.507399	2.38307	65.9514	8.69013	0.956036
0.0633	-2.92579	-162.912	-4.5477	-1.5946	-2.79867	-0.415145	3.29161	29.6407	3.81763	1.59339
0.0640	-7.4936	104.454	-16.1444	-1.5946	-5.23588	-2.56006	3.29161	24.434	3.81763	0.637358
0.0647	-11.7629	326.285	-25.6036	1.75144	-3.70746	-0.415145	5.73425	47.9492	2.26044	0.637358
0.0653	-17.5547	275.673	-36.2907	2.37883	-3.40797	-0.714972	4.51293	19.8739	-1.40649	1.59339
0.0660	-19.7043	184.679	-38.7464	-0.993356	-5.23588	-3.78243	0.238307	-42.7085	-0.452087	1.59339
0.0667	-12.9869	130.683	-20.4192	-1.90829	-4.01727	-2.85989	-0.372354	-57.648	1.35626	1.59339
0.0673	-1.07478	-4.46122	12.2333	-1.5946	-2.79867	-1.0148	-0.983015	-46.3498	1.95905	1.59339
0.0680	8.38925	-35.3052	29.3327	-2.19584	-3.09815	-2.85989	-2.50222	-36.2767	2.86322	1.27472
0.0687	17.5249	80.379	34.1987	-0.365973	-1.27024	-1.63752	-0.0595767	-23.4812	3.81763	1.27472
0.0693	25.7649	107.839	42.1572	0.83651	-0.351124	0.807226	1.45963	-17.0494	3.81763	1.59339
0.0700	21.7941	63.534	34.5171	-0.993356	-2.48885	-2.23717	-0.372354	35.4259	3.16461	1.59339
0.0707	9.2849	54.9961	18.9639	-0.993356	-2.18936	-2.23717	-0.372354	101.343	2.86322	1.59339
0.0713	1.04492	57.7652	3.68364	-0.365973	-0.960428	-0.415145	0.238307	78.4747	4.11902	1.27472
0.0720	-3.22434	48.3043	0.318339	-2.19584	-1.58006	-1.93734	-1.2809	10.7197	5.92737	1.59339
0.0727	-3.82144	19.9217	42.7484	-1.90829	-0.351124	-0.415145	-0.0595767	-20.7247	8.08734	1.91207
0.0733	-2.92579	-58.2267	69.8982	0.54896	2.69539	3.25197	2.38307	-9.12022	9.29291	1.59339
0.0740	-1.40318	-157.681	21.6926	-0.0784228	3.3047	2.0296	1.45963	-4.56011	8.99152	1.27472
0.0747	-1.07478	-262.058	-21.6471	-1.28091	3.61451	1.40688	-0.372354	-53.6664	8.99152	1.27472
0.0753	-8.41911	-360.667	-24.1028	-0.365973	5.14294	2.95214	-0.983015	-85.417	6.53015	1.59339
0.0760	-19.4057	-367.974	-48.4785	-1.90829	5.75224	2.95214	-2.20434	-46.0435	7.48456	1.59339
0.0767	-24.2721	-317.285	-73.8092	-3.73815	4.5233	2.32942	-2.50222	-71.0901	14.4668	1.59339
0.0773	-12.9869	-341.745	-50.9343	-2.19584	3.61451	2.32942	-0.372354	-177.572	14.7682	1.27472
0.0780	11.4345	-320.977	-37.8369	-0.365973	1.47679	0.807226	1.77241	-203.231	7.48456	1.27472
0.0787	28.8101	-6.61492	-42.3846	-1.28091	-2.48885	-3.15971	-0.372354	-206.26	1.95905	1.27472
0.0793	31.2582	267.75	20.4647	-1.90829	-4.31676	-5.30463	-2.50222	-235.867	-0.150696	1.27472
0.0800	27.2875	140.144	100.413	-2.19584	-3.70746	-5.60446	-1.89156	-137.007	-0.452087	1.27472
0.0807	20.2715	19.614	95.2289	-1.90829	-2.18936	-4.68191	-1.2809	75.7182	-0.150696	1.27472
0.0813	9.58345	181.372	41.8389	0.235268	-1.27024	-3.15971	-0.372354	224.943	-0.150696	1.59339
0.0820	-3.22434	336.976	8.54968	2.66638	-1.87955	-2.23717	0.238307	199.318	-0.753479	1.27472
0.0827	-16.9576	274.75	-10.6416	2.37883	-4.01727	-2.85989	-1.59368	102.262	-0.753479	1.27472
0.0833	-30.064	101.07	-26.2403	0.83651	-4.62658	-3.45954	-2.815	98.8931	0.452087	1.27472
0.0840	-36.1842	-64.6108	-25.6036	0.83651	-2.79867	-1.93734	-1.2809	137.654	2.56183	1.59339
0.0847	-35.2587	-239.752	-12.779	0.235268	-1.27024	-0.115318	0.238307	126.662	3.81763	1.59339
0.0853	-23.675	-368.589	28.4232	-0.365973	-0.351124	-0.115318	1.16174	100.731	5.02319	1.27472
0.0860	-2.59738	-447.584	78.1296	0.235268	2.69539	1.40688	1.16174	69.5927	7.13294	1.59339
0.0867	12.0316	-508.964	40.0198	-0.365973	4.83312	2.62925	0.551084	5.81924	8.08734	1.59339
0.0873	26.0634	-454.353	-55.8003	-2.82322	1.7866	-0.415145	0.238307	-29.5727	6.53015	1.27472
0.0880	33.7063	-311.209	-88.7712	-2.50953	-0.351124	-2.56006	0.848967	-39.0332	4.42041	1.59339
0.0887	16.3008	-167.45	-72.3085	-0.679664	-0.960428	-1.63752	1.45963	-57.3417	2.56183	1.59339
0.0893	-13.2855	-121.376	-68.9432	-1.28091	-2.48885	-1.63752	1.16174	-39.6457	3.81763	0.956036
0.0900	-25.4962	-142.451	-68.0337	-0.993356	-2.79867	-1.33769	2.07029	17.1174	5.92737	0.637358
0.0907	-10.5388	-35.9205	-44.8404	1.46389	-3.09815	-0.415145	3.60439	83.6474	2.56183	1.59339
0.0913	3.19448	150.528	-14.3253	1.46389	-5.5457	-1.93734	1.45963	78.1685	-2.61206	1.59339
0.0920	-2.92579	411.74	11.3238	-0.679664	-7.06379	-4.08226	-1.59368	-14.3269	-3.21484	1.27472
0.0927	-13.584	677.26	60.1661	-1.90829	-6.155	-2.23717	-1.89156	-63.4332	-1.40649	1.59339
0.0933	-9.01621	653.185	131.247	-2.50953	-4.31676	0.184509	-0.983015	-39.952	0.150696	1.59339
0.0940	10.2104	403.202	144.662	-2.19584	-3.09815	0.507399	-0.372354	-23.1749	1.65765	1.27472
0.0947	19.6744	127.068	63.486	-0.365973	-2.48885	0.807226	0.238307	0.646583	3.51624	1.27472
0.0953	5.64259	-167.757	-6.36679	0.83651	-1.27024	1.72977	-0.983015	36.3448	5.02319	1.27472
0.0960	-13.2855	-398.51	-25.9219	-0.365973	-1.27024	0.507399	-4.94486	54.9595	7.13294	1.59339
0.0967	-15.7336	-411.279	-29.2872	-0.0784228	-0.351124	1.10705	-7.38751	58.9411	7.48456	1.59339
0.0973	-15.7336	-319.131	-12.5062	2.37883	1.16697	2.62925	-4.94486	48.5618	3.81763	1.27472
0.0980	-29.7654	-213.523	-2.09194	2.37883	-0.0516359	0.807226	-2.20434	20.7927	2.26044	1.59339
0.0987	-36.7813	59.9189	-2.72862	1.1502	-2.18936	-0.714972	-0.983015	-28.6538	2.56183	1.91207
0.0993	-31.288	273.827	0.955018	2.06513	-3.40797	-0.115318	-0.0595767	-57.648	0.150696	1.59339
0.1000	-22.7495	184.987	18.6456	1.1502	-4.93639	-1.0148	0.551084	-86.6421	-2.00928	1.27472
0.1007	-3.22434	38.8434	55.5729	-0.679664	-5.23588	-1.33769	1.45963	-154.703	-1.40649	1.27472
0.1013	25.1678	-59.765	54.6634	-0.679664	-4.01727	0.807226	3.90227	-152.253	-0.753479	1.59339
0.1020	57.7993	-34.0745	22.6021	-1.5946	-4.93639	0.184509	4.82571	-96.7152	-1.70789	1.59339
0.1027	74.6076	202.14	35.745	-2.82322	-7.98291	-2.23717	3.60439	-96.1026	-3.21484	1.59339
0.1033	59.0233	391.357	39.1103	-0.679664	-9.81082	-1.93734	3.90227	-57.648	-5.9776	1.59339
0.1040	31.5567	432.508	1.86456	2.06513	-11.0398	-1.33769	4.51293	-15.8243	-8.38873	1.27472
0.1047	8.06085	476.197	-9.73209	2.06513	-11.6491	-2.23717	3.90227	-61.017	-7.48456	1.27472
0.1053	-9.64316	481.966	4.91152	2.37883	-10.4201	-0.714972	2.99373	-48.4937	-6.58038	1.59339
0.1060	-21.5254	353.206	24.7395	2.06513	-9.51133	1.10705	1.45963	30.5595	-4.7218	1.27472
0.1067	-31.288	184.679	14.3707	-0.679664	-9.51133	0.507399	0.551084	30.2533	0.753479	1.27472
0.1073	-31.288	90.4552	-40.5655	-3.73815	-8.90203	0.184509	0.238307	-70.1712	4.11902	1.27472
0.1080	-15.1365	-31.9208	-56.1187	-5.25433	-7.06379	1.72977	0.238307	-111.042	6.53015	1.27472
0.1087	1.67188	-232.137	-40.5655	-7.08419	-5.23588	2.95214	0.848967	-21.031	12.0557	1.59339
0.1093	-6.5681	-317.901	-67.397	-8.60037	-5.23588	3.25197	0.848967	49.1743	18.1337	1.59339
0.1100	-17.8831	-282.211	-68.352	-8.60037	-6.45449	4.15145	1.16174	44.5802	15.371	1.59339
0.1107	-3.52289	-162.912	-6.09392	-8.31282	-7.98291	3.85162	1.77241	31.4784	3.81763	1.59339
0.1113	4.71709	84.3018	34.8354	-8.91406	-9.51133	2.32942	1.45963	45.8053	-1.1051	1.59339
0.1120	-1.70173	268.981	35.745	-8.60037	-9.81082	3.5518	2.07029	63.195	10.4985	1.59339
0.1127	6.53824	318.67	35.4266	-7.68544	-9.20152	6.59619	4.51293	69.5927	22.4034	1.27472
0.1133	23.3167	273.212	28.696	-7.08419	-8.59221	7.21891	4.82571	99.812	22.7048	1.27472
0.1140	25.7649	178.603	1.54622	-3.42446	-7.68342	7.21891	4.21505	111.416	20.2937	1.27472
0.1147	15.0768	169.757	-11.2783	2.06513	-7.68342	6.59619	3.60439	66.8703	18.4351	1.59339
0.1153	-0.17913	193.294	-16.4627	6.35225	-7.98291	4.77417	2.99373	14.0547	10.4985	1.59339
0.1160	-25.4962	135.606	-83.5868	10.012	-7.68342	4.47434	2.38307	-3.94756	0.150696	1.59339
0.1167	-45.3497	15.3066	-173.313	13.0443	-6.45449	6.29636	2.38307	54.9595	5.92737	1.59339
0.1173	-37.4083	-80.1482	-201.372	13.6717	-3.40797	8.74111	3.29161	80.2784	14.1654	1.59339
0.1180	-28.8698	-146.067	-209.012	11.8418	-1.58006	9.04093	2.99373	-50.6376	-3.81763	1.91207
0.1187	-34.9602	-399.972	-233.752	9.3846	-1.87955	8.11839	0.848967	-132.72	-25.2164	1.27472
0.1193	-29.1683	-800.713	-243.484	6.95349	-2.48885	8.44128	-0.0595767	-77.4878	-23.9606	1.27472
0.1200	-12.9869	-1023.77	-242.893	5.12362	-2.79867	8.44128	-0.983015	-67.4148	-16.024	1.27472
0.1207	1.04492	-1036	-162.035	6.35225	-1.87955	9.66365	0.238307	-124.178	-13.0101	0.637358
0.1213	15.4052	-849.863	85.1785	8.78335	1.47679	13.3077	3.90227	-195.268	-13.6129	0.637358
0.1220	31.5567	-553.192	308.562	7.26718	1.16697	12.708	3.29161	-234.335	-16.024	1.59339
0.1227	33.7063	-83.2249	340.623	3.58131	-4.01727	8.44128	-0.0595767	-146.468	-15.7226	1.91207
0.1233	28.5115	651.031	299.421	3.29376	-5.84518	8.44128	-0.670237	24.1277	-14.517	1.91207
0.1240	30.9596	1092.92	256.991	5.12362	-5.84518	8.74111	-0.983015	114.479	-14.8184	1.91207
0.1247	7.46375	999.545	162.399	4.80993	-6.7643	7.21891	-2.50222	135.816	-12.3571	1.91207
0.1253	-48.0964	675.414	24.1483	5.72486	-3.09815	11.4857	-0.983015	170.017	-6.88178	1.59339
0.1260	-79.8322	303.132	-99.4583	5.12362	-0.0516359	15.1528	-1.2809	130.644	-4.11902	1.59339
0.1267	-75.8615	-8.76861	-164.172	0.83651	-1.27024	12.1084	-4.02142	-73.2	-3.51624	1.27472
0.1273	-64.8749	-189.448	-133.93	-0.365973	-0.66094	11.4857	-3.11288	-286.232	-3.21484	1.59339
0.1280	-34.9602	-224.215	-18.2818	0.54896	-0.66094	11.4857	-1.59368	-263.942	-2.91345	1.59339
0.1287	-5.34404	-282.211	70.2166	-0.679664	-3.09815	8.44128	-3.41076	-90.93	-2.91345	1.59339
0.1293	-6.8965	-343.207	23.5116	0.54896	-1.27024	10.886	-3.11288	44.8865	-1.40649	1.59339
0.1300	-0.47768	-92.9934	-95.5018	0.83651	3.00521	14.2302	-0.0595767	94.333	1.65765	1.59339
0.1307	17.8234	114.223	-119.605	-2.82322	1.47679	10.886	-0.0595767	47.6429	2.86322	1.59339
0.1313	15.4052	-37.1512	-43.9308	-3.11077	-1.27024	8.11839	1.45963	20.4865	0.452087	1.59339
0.1320	7.46375	-28.3057	0.045477	-1.90829	-2.48885	7.81856	2.07029	-61.9358	-2.61206	1.27472
0.1327	-2.92579	166.681	-4.5477	-4.0257	-3.40797	7.21891	-1.89156	-263.942	-3.51624	1.27472
0.1333	-16.0321	90.9936	-38.4281	-5.25433	-0.960428	9.34076	-2.50222	-257.238	-1.1051	1.27472
0.1340	9.2849	-39.6126	-60.0752	-2.82322	3.00521	12.708	-0.0595767	-143.712	0.452087	1.27472
0.1347	82.5192	140.144	59.8478	-2.19584	1.16697	11.1858	-2.20434	-186.42	-1.1051	1.27472
0.1353	127.093	386.742	231.342	-1.90829	-1.87955	9.04093	-4.94486	-120.196	-2.91345	1.27472
0.1360	87.4154	391.665	238.982	0.235268	-1.87955	10.2633	-4.02142	128.806	-2.91345	1.27472
0.1367	21.7941	237.829	118.149	0.235268	-2.18936	10.886	-3.41076	291.779	-3.21484	1.59339
0.1373	-8.41911	107.223	3.68364	-0.0784228	-1.87955	11.4857	-2.50222	266.154	-3.21484	1.59339
0.1380	-17.5547	6.76875	-37.2002	0.54896	-0.0516359	13.9304	1.16174	294.229	-2.00928	1.27472
0.1387	-11.4643	-118.299	-42.7029	-0.679664	1.47679	14.853	4.21505	352.217	-0.150696	1.27472
0.1393	9.58345	-201.909	-95.1835	-4.0257	3.00521	14.2302	4.82571	186.182	1.35626	1.59339
0.1400	16.0023	-56.996	-174.223	-6.7705	5.44242	13.9304	5.12359	19.5676	3.81763	1.27472
0.1407	1.67188	246.367	-214.834	-6.7705	5.75224	13.0079	4.21505	-3.94756	5.62598	1.27472
0.1413	-26.1231	398.049	-159.261	-3.11077	2.69539	11.4857	2.68095	-92.4273	4.42041	1.27472
0.1420	-61.2027	247.29	-44.522	2.66638	0.867483	13.0079	2.99373	-212.385	3.51624	1.59339
0.1427	-81.3549	-240.983	32.698	8.78335	2.08609	16.0753	3.29161	-224.875	5.32459	1.59339
0.1433	-66.0989	-771.099	24.1483	12.4431	2.39591	16.675	1.16174	-102.194	5.92737	1.27472
0.1440	-18.7788	-1025.93	-34.1533	14.5866	1.7866	15.4526	-1.2809	3.98159	5.32459	1.27472
0.1447	41.3193	-1096.08	-11.5512	16.7041	2.69539	16.675	-0.372354	-104.032	5.02319	1.59339
0.1453	84.0717	-845.556	93.7282	17.3314	2.39591	17.2746	1.16174	-246.552	1.65765	1.59339
0.1460	90.4606	-236.753	121.196	17.3314	1.16697	15.1528	2.07029	-232.804	-4.7218	1.59339
0.1467	82.8476	310.44	54.9363	19.7625	2.08609	14.853	2.99373	-109.238	-8.69013	1.27472
0.1473	65.4421	546.346	-1.50074	23.1347	1.16697	14.5301	3.29161	70.5116	-6.27899	1.27472
0.1480	24.2423	608.034	-66.8058	24.3372	-3.09815	11.7855	1.16174	261.56	4.42041	1.59339
0.1487	-8.71766	558.884	-147.073	26.4808	-5.84518	9.96348	2.68095	410.172	19.3393	0.956036
0.1493	-10.8374	448.661	-147.664	31.6828	-7.37361	9.34076	5.73425	399.826	25.4676	0.637358
0.1500	0.447825	424.893	-44.522	34.7152	-7.68342	8.74111	4.51293	271.327	23.9606	1.27472
0.1507	10.8075	373.281	-4.86604	33.5127	-4.31676	10.5631	4.51293	204.797	27.2759	1.59339
0.1513	18.7489	381.896	-93.046	30.1405	0.867483	14.5301	6.34491	179.784	34.9112	1.27472
0.1520	15.0768	435.892	-144.617	24.3372	3.00521	16.675	6.04703	126.084	42.8478	1.27472
0.1527	3.19448	216.754	-172.085	17.3314	4.22382	19.1197	6.04703	69.0142	56.0086	1.27472
0.1533	7.1652	-289.21	-274.636	11.8418	8.18945	23.3865	7.87901	13.1358	71.2289	1.59339
0.1540	17.2263	-676.798	-386.009	10.012	11.8556	24.0092	8.1769	-39.3395	73.3889	1.59339
0.1547	14.7782	-762.869	-382.644	15.1879	12.4649	18.8199	5.43637	-124.79	57.2142	1.27472
0.1553	2.56753	-964.855	-226.112	19.475	11.8556	12.1084	1.77241	-211.467	37.9753	1.27472
0.1560	-6.5681	-1282.29	12.2333	16.1028	10.637	7.51873	-1.2809	-227.325	16.3254	1.59339
0.1567	9.91186	-1034.77	263.721	14.8742	8.18945	5.07399	-5.24275	-188.87	-25.5178	1.59339
0.1573	37.05	-219.369	354.357	17.619	7.58015	6.29636	-6.46407	-71.3963	-68.8178	1.59339
0.1580	38.5726	358.052	265.54	13.9593	6.05173	7.51873	-5.24275	54.9595	-87.7552	1.59339
0.1587	14.4797	414.202	198.689	8.46966	2.08609	5.07399	-7.07473	80.8909	-82.5813	1.59339
0.1593	-21.2269	235.06	188.32	4.80993	-0.0516359	3.85162	-8.60883	103.181	-58.7714	1.27472
0.1600	-41.9761	124.607	206.921	2.06513	0.258179	5.99654	-6.16618	220.655	-34.66	1.91207
0.1607	-25.7947	181.987	213.06	1.75144	-2.18936	4.77417	-4.63209	254.856	-22.7551	1.59339
0.1613	-7.79215	238.137	205.738	1.46389	-3.70746	2.95214	-3.11288	86.0976	-12.3571	1.27472
0.1620	-11.7629	140.452	271.953	2.06513	-1.58006	5.07399	0.238307	6.73807	-9.04175	1.59339
0.1627	-19.7043	-6.92259	377.823	3.895	1.16697	5.07399	1.77241	157.188	-29.4862	1.91207
0.1633	-28.2428	-70.072	357.404	0.235268	3.61451	3.5518	1.77241	263.704	-55.7072	1.59339
0.1640	-45.6483	-232.445	127.609	-7.08419	9.40806	7.21891	3.60439	204.184	-51.7389	1.27472
0.1647	-46.8723	-615.418	-225.202	-13.2012	13.6835	9.66365	4.51293	101.037	-16.9282	1.59339
0.1653	-21.5254	-1014.93	-586.836	-24.7816	13.3737	7.51873	1.77241	23.8215	16.9282	1.59339
0.1660	-18.4802	-1017.7	-835.231	-34.8459	13.0742	8.74111	-0.372354	-68.3336	30.6415	0.637358
0.1667	-3.22434	-539.193	-783.66	-35.7869	11.5458	8.74111	-2.50222	-256.013	32.8015	1.27472
0.1673	45.6184	-181.526	-530.99	-35.1596	6.05173	3.85162	-6.16618	-500.149	41.3409	1.59339
0.1680	46.8126	-119.838	-329.572	-28.4413	1.47679	2.62925	-7.99817	-599.042	52.3417	1.27472
0.1687	27.2875	162.142	-35.9723	-10.7439	-2.18936	5.07399	-7.38751	-400.065	43.1492	1.27472
0.1693	42.8718	640.647	436.125	-1.5946	-8.90203	3.85162	-7.38751	-161.407	35.8656	1.59339
0.1700	55.9781	885.091	798.077	-7.39788	-12.8677	4.15145	-5.85341	-136.395	57.817	1.59339
0.1707	26.6904	880.553	691.569	-12.8875	-11.0398	8.74111	-1.89156	-11.5704	90.7691	1.59339
0.1713	-30.9895	798.098	141.616	-8.60037	-9.20152	9.34076	-1.59368	231.647	106.341	1.59339
0.1720	-73.1149	590.266	-277.092	5.12362	-6.7643	7.21891	-3.72354	216.095	97.1988	1.59339
0.1727	-101.179	267.443	-318.567	16.1028	-1.58006	6.91908	-2.50222	42.4362	87.705	1.27472
0.1733	-97.8348	53.1501	-281.958	20.6775	1.7866	4.47434	0.551084	-30.1852	90.7691	1.27472
0.1740	-31.6164	-305.055	-246.849	31.3691	4.22382	2.32942	6.04703	-77.1816	83.4353	1.91207
0.1747	29.1385	-900.475	-169.038	39.9172	8.18945	4.47434	12.1387	-144.63	57.5156	1.91207
0.1753	42.2448	-999.699	-22.875	34.7152	9.10857	5.37382	12.1387	-150.109	27.6276	1.91207
0.1760	55.381	-811.712	236.526	30.4542	7.27033	2.95214	6.95557	-172.093	18.7365	1.59339
0.1767	60.5459	-1158.69	258.81	34.7152	7.58015	4.47434	4.51293	-163.551	45.0078	1.27472
0.1773	30.9596	-1360.37	-23.7845	33.5127	7.27033	5.99654	4.82571	-50.9439	48.6748	1.59339
0.1780	-3.82144	-486.658	-113.192	21.5924	3.61451	1.72977	3.90227	-36.2767	-7.48456	1.59339
0.1787	-31.288	581.728	35.4266	15.5016	-0.66094	-3.78243	1.77241	-86.9484	-65.4522	1.27472
0.1793	-54.7839	1021.24	249.032	20.0762	-6.155	-6.527	0.238307	-6.67001	-73.3889	0.637358
0.1800	-75.563	1346.83	465.73	25.2521	-10.7299	-8.0492	0.238307	49.1743	-50.8347	0.956036
0.1807	-106.373	1608.04	416.57	24.9646	-14.3961	-10.4939	-0.670237	-99.1654	-93.5319	1.59339
0.1813	-139.632	1549.74	184.046	23.4223	-17.7524	-14.4609	-1.89156	-246.552	-192.74	1.59339
0.1820	-130.466	1262.3	36.0178	24.0497	-16.5338	-15.0605	-3.72354	-269.149	-211.326	1.59339
0.1827	-73.712	840.864	-175.769	27.3957	-11.6491	-12.0161	-5.55552	-212.079	-150.947	1.59339
0.1833	-27.6457	380.973	-415.933	24.3372	-8.59221	-11.0936	-5.85341	-93.6524	-86.851	1.59339
0.1840	-5.67245	-58.2267	-505.023	6.6398	-7.68342	-12.316	-7.38751	-177.572	-32.1987	1.59339
0.1847	19.6744	-353.283	-405.246	-11.6589	-5.5457	-12.6158	-6.77684	-402.209	2.86322	1.59339
0.1853	45.6184	-385.665	-53.9813	-20.5206	-4.62658	-10.7938	-3.72354	-324.074	10.1971	1.59339
0.1860	74.2792	-76.5331	341.805	-26.6115	-7.06379	-9.27157	-2.20434	53.7344	18.4351	1.59339
0.1867	100.223	329.669	480.692	-30.8986	-8.90203	-6.82683	0.238307	460.537	48.072	1.59339
0.1873	92.6102	363.513	356.495	-29.3563	-9.81082	-4.68191	4.51293	703.754	58.1184	1.59339
0.1880	58.4262	149.913	170.312	-24.4941	-10.4201	-4.68191	5.12359	708.348	15.0696	1.59339
0.1887	17.8234	124.299	37.8824	-18.9783	-8.90203	-4.68191	3.60439	609.762	-26.422	1.59339
0.1893	-16.6591	205.139	-95.8201	-13.4887	-3.09815	-1.93734	3.90227	519.75	-19.6909	1.59339
0.1900	-41.0506	198.755	-328.344	-5.25433	3.00521	-0.115318	3.60439	384.24	-10.2473	1.59339
0.1907	-57.5306	87.0708	-638.407	-0.993356	6.05173	-2.23717	1.77241	201.155	-15.7226	1.59339
0.1913	-53.2613	-104.608	-900.536	-5.56802	8.18945	-4.68191	0.551084	22.3241	0.150696	1.59339
0.1920	-44.7228	-277.904	-995.765	-10.4564	10.3272	-4.98174	-0.670237	-148.578	43.8023	1.59339
0.1927	-49.619	-470.505	-758.011	-10.7439	11.5458	-2.85989	-0.670237	-260.879	84.038	1.27472
0.1933	-52.3657	-740.563	-387.555	-11.6589	12.1551	-0.714972	-0.670237	-306.991	88.0064	1.27472
0.1940	-26.1231	-869.093	21.3742	-13.2012	11.8556	0.184509	-0.670237	-273.096	57.2142	1.27472
0.1947	39.1996	-558.422	614.668	-12.8875	9.40806	0.807226	0.238307	-64.352	25.1662	1.59339
0.1953	94.4313	16.845	1054.11	-10.1427	4.83312	-3.15971	0.238307	200.236	10.1971	1.59339
0.1960	97.4765	469.736	1142.61	-6.7705	-2.79867	-9.5714	-1.59368	279.562	-0.452087	1.59339
0.1967	65.1436	689.49	838.051	-7.39788	-10.4201	-12.316	-1.89156	219.158	-14.2156	1.59339
0.1973	30.9596	699.566	309.79	-9.22775	-13.7868	-11.7163	-0.670237	239.576	-11.1515	1.27472
0.1980	16.9278	463.967	93.0915	-6.48295	-12.2584	-9.27157	2.07029	317.71	6.22876	1.27472
0.1987	9.58345	134.683	172.449	-5.56802	-10.7299	-12.9387	2.99373	331.459	-5.9776	1.27472
0.1993	-23.0481	68.7644	213.333	-6.48295	-10.7299	-22.9944	-0.372354	314.069	-43.8023	1.27472
0.2000	-61.2027	88.3015	182.545	-9.54144	-7.37361	-27.8839	-3.41076	240.188	-60.8811	1.59339
0.2007	-71.2639	52.304	227.704	-23.2654	-2.18936	-24.8395	-3.41076	73.5743	-53.2459	1.59339
0.2013	-66.6961	210.062	409.248	-37.3031	0.557668	-22.0719	-3.72354	-73.5062	-48.072	1.59339
0.2020	-58.4561	369.974	541.086	-34.5583	2.69539	-18.4278	-4.02142	-122.34	-41.0395	1.27472
0.2027	-42.6031	362.667	415.66	-27.2389	7.27033	-10.7938	-0.670237	-107.707	-8.69013	1.59339
0.2033	-33.139	247.906	114.784	-34.8459	9.40806	-8.34902	0.848967	-128.738	32.1987	1.59339
0.2040	-43.7973	-213.216	-70.1711	-48.2823	9.10857	-10.7938	0.848967	-153.785	49.5789	1.59339
0.2047	-50.843	-929.781	-99.7766	-38.8193	10.9365	-7.42648	4.21505	-95.4901	35.8656	1.27472
0.2053	-26.7202	-1085.15	-145.527	-14.1161	12.1551	-3.15971	5.73425	-12.4893	4.42041	1.59339
0.2060	-10.2403	-671.03	-172.085	1.75144	12.4649	-4.38208	2.68095	-15.2457	-26.7234	1.59339
0.2067	-25.4962	-673.722	-82.6773	10.012	15.5114	-6.82683	1.16174	-56.1166	-45.6608	1.27472
0.2073	-19.0773	-809.558	-43.6125	10.012	14.6026	-12.6158	0.238307	39.4075	-59.0728	1.27472
0.2080	12.9571	-339.899	-296.01	0.83651	10.3272	-21.1724	-3.72354	31.4784	-79.5172	1.27472
0.2087	42.2448	74.2255	-682.338	-6.7705	10.0174	-28.4836	-7.07473	-161.407	-96.8974	0.318679
0.2093	82.5192	-73.4564	-828.546	-13.8024	10.9365	-34.5954	-8.60883	-117.474	-103.026	0.637358
0.2100	104.492	-197.371	-672.56	-23.8667	11.2463	-37.0401	-10.128	76.6371	-98.756	1.59339
0.2107	73.085	206.985	-370.456	-28.755	12.1551	-33.0732	-8.60883	111.723	-88.9608	1.27472
0.2113	26.6904	295.21	-48.2057	-25.6965	8.49927	-31.2281	-7.07473	47.6429	-74.6447	1.27472
0.2120	-5.67245	-342.899	127.609	-21.7231	2.08609	-31.8508	-8.60883	-15.8243	-53.8989	1.91207
0.2127	-11.7629	-299.287	173.358	-20.2069	0.557668	-27.2612	-7.07473	-76.8753	-37.0712	1.59339
0.2133	11.1359	536.27	245.712	-28.4413	2.08609	-21.4722	-4.3342	-190.708	-26.422	1.59339
0.2140	24.2423	989.776	196.233	-42.479	2.08609	-19.0275	-3.72354	-359.466	-10.8501	1.59339
0.2147	5.01564	892.091	-6.09392	-45.2238	2.39591	-14.4609	-0.372354	-387.235	5.92737	1.91207
0.2153	-27.0188	588.189	-113.784	-41.5641	0.867483	-11.0936	3.29161	-176.041	15.371	1.59339
0.2160	-40.7521	342.822	-41.7934	-37.6168	-4.93639	-13.8382	1.16174	70.2053	18.7365	1.27472
0.2167	-31.288	243.906	169.402	-30.5849	-8.29273	-13.5383	0.238307	248.152	21.1979	1.59339
0.2173	-17.8831	206.062	376.914	-21.7231	-7.37361	-9.87122	1.77241	340.613	19.0379	1.59339
0.2180	-16.9576	121.53	321.386	-12.8875	-7.37361	-11.0936	0.238307	321.998	10.7999	1.27472
0.2187	-41.9761	-50.5349	33.6075	0.54896	-5.23588	-8.0492	0.551084	265.541	1.65765	1.59339
0.2193	-68.8456	-297.441	-163.854	20.0762	-0.351124	-0.714972	2.68095	206.941	-8.69013	1.59339
0.2200	-58.7546	-597.419	-186.138	39.6035	0.557668	-0.714972	1.16174	121.49	-30.3903	1.27472
0.2207	-28.5414	-820.558	-88.7712	52.125	0.258179	-0.714972	0.551084	-49.7188	-52.3417	1.27472
0.2213	-4.14984	-701.181	109.6	42.662	2.39591	2.32942	2.38307	-151.641	-45.0078	1.27472
0.2220	9.91186	-410.663	281.685	14.273	3.00521	-0.115318	0.551084	-111.961	-17.2798	1.27472
0.2227	16.3008	-107.3	396.151	-0.679664	4.83312	0.807226	-0.670237	-127.853	-2.31067	1.27472
0.2233	35.2289	406.587	450.768	6.35225	8.18945	4.77417	0.848967	-168.724	-5.37482	1.59339
0.2240	57.7993	533.501	275.909	7.55473	6.36154	1.72977	-1.2809	-137.007	-10.2473	1.59339
0.2247	46.2155	131.606	-3.63816	-0.0784228	6.66103	3.5518	-3.41076	-71.0901	-5.07343	1.59339
0.2253	14.4797	-70.072	-79.312	-4.0257	10.9365	10.2633	-1.2809	-38.7269	7.13294	1.59339
0.2260	-7.4936	30.9209	-19.828	-1.5946	8.79876	9.34076	-1.89156	-26.2036	17.5309	1.27472
0.2267	-31.6164	177.68	13.7795	6.95349	6.05173	10.886	-0.670237	55.2658	28.2304	1.59339
0.2273	-50.5146	163.065	21.6926	10.2995	7.58015	14.853	4.21505	123.94	44.405	1.59339
0.2280	-26.1231	164.604	65.0322	6.03856	5.14294	8.44128	3.29161	43.3551	52.6431	1.59339
0.2287	22.4211	322.362	178.543	6.03856	2.69539	2.0296	-0.372354	-39.952	49.8803	1.59339
0.2293	36.1544	329.669	267.678	4.49624	4.5233	1.10705	-1.89156	101.343	51.3873	1.27472
0.2300	20.8985	272.596	184.046	0.235268	3.3047	-3.45954	-5.24275	310.7	48.6748	1.27472
0.2307	-5.34404	286.364	-3.63816	6.35225	0.867483	-7.12665	-7.38751	341.838	26.6732	1.27472
0.2313	-34.0347	186.218	-61.9397	16.1028	2.69539	-4.38208	-4.3342	300.321	-2.00928	1.27472
0.2320	-31.288	117.915	-21.9654	15.5016	3.00521	-5.30463	-4.3342	272.245	-17.8826	1.27472
0.2327	-21.5254	144.759	-13.0974	7.55473	0.557668	-10.4939	-7.38751	171.855	-13.6129	1.27472
0.2333	-39.8564	81.225	32.698	-1.90829	1.47679	-11.3934	-5.85341	72.6555	2.56183	1.27472
0.2340	-49.2906	-2.69212	102.869	-9.82899	2.08609	-11.7163	-3.72354	42.13	17.5309	1.59339
0.2347	-31.6164	-58.2267	97.3663	-14.7173	2.08609	-11.0936	-3.41076	30.5595	29.4359	1.59339
0.2353	-5.971	-121.684	83.6323	-13.8024	5.44242	-5.30463	-0.0595767	14.6672	37.3726	1.27472
0.2360	5.01564	-128.376	92.8186	-11.0576	6.05173	-3.78243	2.07029	-61.017	36.7698	1.27472
0.2367	-9.01621	-82.9172	70.2166	-10.4564	4.5233	-8.0492	0.551084	-131.495	34.007	1.27472
0.2373	-6.26955	6.15341	40.611	-6.16926	6.05173	-8.34902	0.848967	-33.8605	25.1662	1.59339
0.2380	21.197	125.53	14.3707	-2.19584	6.05173	-10.4939	0.848967	95.5581	4.11902	1.59339
0.2387	31.8851	176.757	4.59318	-6.16926	3.914	-15.6833	-0.670237	78.4747	-16.3254	0.956036
0.2393	38.2741	120.607	31.4701	-14.1161	6.05173	-16.2829	0.551084	-5.47894	-24.262	0.956036
0.2400	19.973	29.3825	46.4321	-22.0368	6.66103	-19.6502	-0.983015	-137.62	-24.5634	1.27472
0.2407	-24.2721	3.15362	43.9763	-28.4413	4.5233	-24.8395	-4.02142	-259.076	-25.2164	1.27472
0.2413	-20.9283	-16.9988	-30.4696	-29.9837	6.36154	-21.4722	-0.372354	-243.183	-27.0248	1.59339
0.2420	10.8075	-98.7623	-208.103	-32.7285	6.97085	-18.4278	3.29161	-216.946	-29.4862	1.27472
0.2427	13.2556	-127.453	-294.146	-42.479	4.83312	-18.1049	2.99373	-236.785	-23.3579	1.27472
0.2433	-4.44839	-53.9193	-242.893	-47.3674	5.44242	-12.316	6.34491	-78.1004	-5.07343	1.27472
0.2440	-21.2269	-4.76889	-273.999	-44.9363	6.36154	-7.42648	9.711	140.104	8.69013	1.59339
0.2447	-29.1683	-34.3822	-423.846	-42.1915	4.83312	-7.74937	7.26835	137.96	8.08734	1.59339
0.2453	-38.6324	-28.921	-498.929	-37.3031	5.44242	-5.90428	5.43637	67.7891	2.56183	1.27472
0.2460	-63.9494	63.534	-402.79	-32.1011	5.44242	-4.68191	5.43637	-12.183	1.35626	1.27472
0.2467	-67.6216	127.376	-115.648	-29.67	4.22382	-5.90428	4.21505	-146.162	2.26044	1.59339
0.2473	-24.2721	70.9181	204.51	-23.8667	6.36154	-2.56006	6.04703	-165.695	3.51624	1.59339
0.2480	31.2582	28.1519	271.634	-17.7758	9.10857	1.72977	9.39822	-45.4309	4.42041	1.59339
0.2487	55.6796	-47.2274	100.413	-17.1485	8.18945	-0.714972	7.56624	-28.6538	4.11902	1.27472
0.2493	30.9596	-251.059	-77.1745	-15.3186	6.97085	-1.33769	6.04703	-188.564	3.51624	1.59339
0.2500	26.0634	-251.982	-124.198	-11.0576	6.97085	0.507399	5.73425	-164.47	3.51624	1.59339
0.2507	79.1754	-31.0747	-95.5018	-9.22775	5.75224	0.184509	4.82571	144.086	3.81763	1.27472
0.2513	98.1035	116.376	-96.093	-5.56802	7.27033	2.62925	6.95557	276.84	5.32459	1.27472
0.2520	58.4262	160.296	-130.292	-0.365973	10.0174	5.69671	10.0089	134.625	6.53015	1.59339
0.2527	27.586	137.683	-145.254	0.54896	9.10857	5.99654	10.0089	108.047	7.13294	1.27472
0.2533	16.0023	77.6099	-71.399	0.54896	8.49927	6.91908	10.3217	123.327	8.38873	1.27472
0.2540	19.973	6.76875	49.479	2.66638	9.71788	9.34076	11.8409	-59.7919	9.89569	1.59339
0.2547	44.6929	-63.3801	138.887	4.49624	9.10857	9.34076	10.6195	-194.962	9.89569	1.27472
0.2553	57.2022	-127.145	217.608	6.35225	7.58015	9.34076	8.78756	-179.103	9.5943	1.27472
0.2560	34.6318	-176.911	253.944	10.6132	8.18945	13.6306	10.3217	-151.641	9.5943	1.59339
0.2567	16.3008	-175.988	219.427	13.0443	6.36154	14.5301	10.9323	-53.6664	8.69013	1.27472
0.2573	20.8985	-74.9947	184.364	13.6717	3.3047	13.0079	9.39822	114.785	6.22876	1.27472
0.2580	10.8075	123.684	103.46	15.5016	2.69539	13.0079	7.87901	169.405	4.11902	1.59339
0.2587	-24.5707	224.369	-103.142	16.1028	1.7866	12.708	6.04703	46.7241	2.56183	1.59339
0.2593	-68.5172	131.606	-289.871	17.0177	1.7866	13.3077	4.51293	-90.0111	1.65765	1.27472
0.2600	-99.656	36.6897	-319.203	20.6775	3.914	16.0753	3.90227	-242.571	0.753479	1.27472
0.2607	-96.3122	43.6892	-196.825	22.2198	5.14294	17.2746	1.16174	-414.392	0.753479	1.59339
0.2613	-73.1149	51.9963	-40.5655	21.5924	6.97085	18.8199	-1.89156	-401.902	1.65765	1.59339
0.2620	-25.4962	-8.46094	-18.873	21.5924	9.10857	21.2416	-4.3342	-331.697	2.86322	1.59339
0.2627	88.0125	-64.9185	19.5551	20.3899	8.49927	20.9418	-7.38751	-417.148	4.11902	1.59339
0.2633	198.506	-100.301	219.745	19.7625	8.79876	20.3421	-7.68539	-450.396	6.53015	1.59339
0.2640	185.668	-164.065	325.343	20.0762	10.3272	20.3421	-4.63209	-144.324	9.29291	1.27472
0.2647	99.9247	-186.679	238.391	17.9327	9.40806	16.9748	-4.3342	127.887	10.4985	1.27472
0.2653	56.6051	-145.144	163.308	14.5866	6.36154	10.5631	-5.55552	58.9411	9.89569	1.59339
0.2660	56.6051	-108.838	169.993	13.6717	4.83312	6.59619	-4.02142	114.785	8.99152	1.91207
0.2667	52.0074	-81.9942	192.004	13.358	4.22382	5.37382	-2.20434	371.139	6.83154	1.59339
0.2673	23.9437	-63.3801	183.454	13.6717	4.5233	5.99654	-1.89156	460.843	4.7218	1.27472
0.2680	-1.70173	-21.3062	123.607	15.5016	6.05173	9.04093	-0.372354	350.074	5.32459	1.59339
0.2687	-7.79215	56.5345	8.54968	15.5016	6.05173	10.2633	0.238307	173.659	5.92737	1.59339
0.2693	-10.2403	72.6872	-117.149	13.0443	4.22382	8.11839	-0.983015	-24.0937	5.32459	1.59339
0.2700	-7.4936	15.3066	-150.438	11.5282	2.69539	6.91908	-2.20434	-173.012	5.32459	1.27472
0.2707	1.04492	-49.3811	-124.198	10.9269	2.08609	6.59619	-3.11288	-94.8775	5.32459	1.27472
0.2713	-5.04549	-81.0712	-167.219	9.3846	1.7866	5.37382	-3.41076	-7.89512	5.62598	1.27472
0.2720	-22.1524	-61.8418	-181.863	9.69829	2.69539	5.99654	-2.50222	-199.862	6.22876	1.59339
0.2727	-31.915	8.30711	-61.0302	10.9269	3.914	8.11839	-0.670237	-213.611	6.83154	1.91207
0.2733	-13.9124	73.3025	25.3762	9.09705	3.61451	7.81856	0.238307	-76.8753	6.53015	1.59339
0.2740	13.8826	24.5367	1.22788	8.18211	3.3047	8.11839	1.77241	-240.461	5.02319	0.956036
0.2747	20.2715	-46.9198	-7.91301	10.6132	4.5233	11.1858	4.51293	-249.615	2.86322	0.637358
0.2753	28.5115	-42.3047	69.6254	12.1294	5.14294	13.6306	4.82571	-60.4044	0.753479	1.27472
0.2760	46.8126	-62.7648	160.852	13.358	7.27033	15.7524	4.82571	-81.1632	-0.452087	1.91207
0.2767	39.7967	-88.1476	167.856	13.6717	9.71788	16.675	5.73425	57.716	-0.452087	1.59339
0.2773	11.4345	-59.1497	111.419	12.4431	8.79876	15.1528	5.73425	331.152	-0.753479	1.27472
0.2780	-12.9869	-31.6901	48.2511	11.5282	6.97085	13.3077	4.82571	229.231	-2.31067	1.27472
0.2787	-26.4217	-28.6134	5.50272	10.6132	6.36154	12.708	3.60439	-24.4	-2.61206	1.27472
0.2793	-16.9576	-35.9205	-8.23135	9.69829	5.44242	11.7855	1.16174	-1.49735	-2.31067	1.59339
0.2800	12.6585	-33.1515	0.636679	10.012	4.83312	11.1858	1.45963	198.705	-2.00928	1.59339
0.2807	36.1544	-16.9988	12.5517	9.69829	6.36154	11.4857	4.21505	314.682	-0.753479	1.59339
0.2813	37.677	-7.8456	-23.1478	8.18211	6.36154	10.2633	4.51293	258.497	-0.150696	1.59339
0.2820	28.5115	7.99944	-44.522	5.43731	4.22382	6.91908	2.68095	96.7832	-0.452087	1.27472
0.2827	19.6744	49.2273	42.4301	5.12362	3.61451	6.29636	1.45963	-27.735	-0.452087	1.59339
0.2833	13.2556	90.9936	125.744	6.03856	3.61451	6.59619	0.551084	-45.1247	-0.452087	1.59339
0.2840	11.1359	95.301	108.69	5.72486	3.00521	5.69671	-0.0595767	-34.1668	-0.150696	1.27472
0.2847	7.7623	39.4588	59.5294	5.72486	4.83312	6.59619	0.551084	-72.5874	0.452087	1.59339
0.2853	18.4504	-16.9988	26.8769	4.80993	5.75224	5.99654	0.238307	-33.5542	1.05487	1.59339
0.2860	39.1996	-16.3835	-4.22936	3.29376	3.61451	3.5518	-1.59368	97.7021	0.452087	1.59339
0.2867	27.9144	-2.38445	-30.4696	2.66638	3.00521	4.15145	-0.0595767	177.946	-0.753479	1.59339
0.2873	-9.64316	4.69198	-49.7064	3.895	3.914	5.37382	4.51293	174.271	-2.31067	1.27472
0.2880	-38.0054	17.1526	-57.0282	5.72486	4.83312	6.29636	9.39822	117.202	-3.81763	1.27472
0.2887	-46.8723	30.9209	-34.4716	8.46966	5.75224	9.34076	14.5814	81.5035	-6.27899	1.59339
0.2893	-33.7361	51.0733	-14.9165	10.6132	6.36154	11.7855	16.1155	45.1927	-9.94592	1.59339
0.2900	-15.1365	61.1495	-53.9813	10.2995	5.44242	10.5631	13.6728	-27.1224	-12.3571	1.59339
0.2907	-16.0321	20.2293	-68.0337	9.3846	5.14294	9.66365	12.1387	-53.0878	-12.0557	1.27472
0.2913	-26.7202	-23.9983	37.2457	7.26718	4.83312	8.44128	10.9323	-53.0878	-9.94592	1.27472
0.2920	-23.675	-1.15376	117.513	4.80993	4.83312	6.59619	9.10034	-75.9565	-8.08734	1.27472
0.2927	-14.5095	26.3058	59.2111	4.49624	6.05173	6.91908	9.711	-46.0435	-6.58038	1.27472
0.2933	-15.435	-11.5376	-13.0974	4.20869	6.05173	6.59619	9.39822	20.7927	-5.9776	1.27472
0.2940	-14.8081	-85.3786	-52.7534	2.06513	3.3047	2.95214	5.43637	56.1846	-5.67621	1.27472
0.2947	-1.40318	-122.607	-83.5868	0.235268	2.39591	2.32942	4.51293	87.9353	-4.42041	1.27472
0.2953	18.1518	-106.454	-63.4405	-0.679664	2.39591	3.25197	5.12359	116.011	-2.91345	1.59339
0.2960	25.7649	-78.9175	-42.7029	-1.28091	2.69539	2.95214	3.90227	98.8931	-3.51624	1.59339
0.2967	17.8234	-62.4571	-73.5364	-0.679664	3.3047	3.5518	2.68095	63.8075	-3.51624	1.59339
0.2973	11.4345	-45.3814	-84.2235	-0.365973	3.914	3.85162	2.07029	44.2739	-2.61206	1.59339
0.2980	12.0316	-18.8448	-58.8928	-1.28091	3.3047	2.95214	-0.983015	7.96318	-2.31067	1.27472
0.2987	10.8075	-1.46144	-69.8527	-2.19584	2.08609	2.0296	-4.3342	-17.0494	-2.31067	0.637358
0.2993	2.89593	8.30711	-129.064	-1.90829	2.08609	2.32942	-3.41076	-23.4812	-2.31067	0.637358
0.3000	-5.34404	6.46108	-209.922	-0.679664	2.69539	2.62925	-0.0595767	-49.4125	-3.51624	1.27472
0.3007	-7.4936	-17.3065	-287.46	0.235268	3.3047	2.62925	0.238307	-42.7085	-4.42041	1.59339
0.3013	-10.5388	-26.152	-321.341	0.235268	3.914	3.25197	-0.0595767	0.0340307	-4.7218	1.59339
0.3020	-14.5095	-9.69162	-316.156	-0.679664	2.69539	2.0296	0.848967	28.1093	-5.07343	1.91207
0.3027	-8.0907	10.4608	-256.036	-1.90829	1.47679	0.184509	-0.670237	20.4865	-5.07343	1.59339
0.3033	2.26898	27.2288	-101.005	-1.28091	1.47679	0.184509	-4.02142	-13.4081	-4.7218	1.27472
0.3040	1.67188	26.6135	53.4355	-0.679664	1.16697	0.807226	-5.85341	-29.5727	-4.7218	1.59339
0.3047	-5.04549	10.1531	134.294	-0.0784228	1.7866	2.32942	-4.94486	-25.2848	-4.11902	1.59339
0.3053	-12.0614	14.4605	185.592	-0.679664	3.00521	3.25197	-3.41076	-10.9579	-3.51624	1.59339
0.3060	-18.7788	10.4608	206.329	-2.82322	1.16697	0.507399	-4.3342	-5.47894	-3.81763	1.27472
0.3067	-20.0028	-19.4602	192.595	-3.42446	-0.0516359	-1.0148	-5.85341	-49.7188	-4.11902	1.59339
0.3073	-18.4802	-27.075	151.393	-2.82322	0.867483	0.807226	-6.16618	-83.2731	-3.51624	1.59339
0.3080	-17.8831	-17.6141	86.6792	-3.11077	1.47679	1.10705	-7.38751	-65.2708	-2.61206	1.27472
0.3087	-11.7629	-7.8456	37.8824	-2.82322	1.7866	0.807226	-8.60883	-58.8731	-1.70789	1.59339
0.3093	-8.41911	-5.99958	17.4177	-2.50953	1.7866	1.40688	-7.38751	-30.7978	-0.452087	1.59339
0.3100	-13.584	-15.4604	1.54622	-4.0257	0.557668	-0.415145	-4.02142	13.4421	0.452087	1.59339
0.3107	-14.5095	-18.5372	3.09244	-5.25433	-0.960428	-1.93734	1.16174	18.6488	0.452087	1.59339
0.3113	-11.1658	-20.0755	37.2457	-4.65309	-0.960428	-1.63752	5.73425	23.2089	-0.150696	1.59339
0.3120	-8.41911	-12.4607	65.3505	-4.3394	-1.58006	-2.85989	3.90227	43.0488	-1.1051	1.27472
0.3127	-10.2403	5.30732	47.9328	-4.65309	-1.87955	-3.15971	0.848967	34.2008	-0.452087	1.27472
0.3133	-15.1365	-0.846094	25.9674	-3.73815	-0.960428	-1.63752	0.238307	5.20669	0.452087	1.59339
0.3140	-13.584	-8.76861	35.4266	-4.94064	-2.18936	-3.78243	-1.59368	20.4865	-0.150696	1.59339
0.3147	-8.41911	-0.846094	39.1103	-6.7705	-3.40797	-6.527	-4.02142	38.4887	0.452087	1.59339
0.3153	-7.19505	-6.30725	29.3327	-7.99913	-2.79867	-6.20411	-6.46407	14.6672	2.86322	1.59339
0.3160	-6.8965	-21.6139	24.1483	-8.60037	-2.48885	-5.90428	-7.99817	11.0259	4.11902	1.59339
0.3167	-5.67245	-24.306	18.3272	-7.68544	-1.27024	-4.68191	-7.38751	28.4156	4.7218	1.59339
0.3173	-6.5681	-10.6146	6.7306	-5.85557	0.557668	-3.45954	-5.24275	27.1905	5.62598	1.27472
0.3180	-7.19505	-5.99958	-67.1241	-6.7705	-0.66094	-4.68191	-4.02142	17.4237	5.32459	1.59339
0.3187	-6.5681	-12.4607	-192.55	-9.22775	-2.48885	-7.42648	-3.72354	12.8636	5.32459	1.59339
0.3193	-8.0907	-7.23026	-263.358	-9.54144	-1.58006	-7.12665	-3.41076	5.81924	5.62598	1.59339
0.3200	-8.41911	0.99993	-253.58	-9.82899	-0.960428	-6.527	-2.20434	-8.20139	5.02319	1.59339
0.3207	-5.67245	-0.230753	-205.056	-9.82899	-1.27024	-7.42648	-1.89156	-13.7144	5.32459	1.27472
0.3213	-3.82144	-12.7683	-155.304	-7.99913	-0.0516359	-5.90428	-0.670237	-14.6332	6.83154	1.27472
0.3220	-2.29883	-14.8451	-2.41028	-8.91406	-0.0516359	-6.527	17.024	-17.6619	7.78595	1.59339
0.3227	2.26898	4.69198	238.391	-12.5738	-1.27024	-9.87122	49.9848	-9.12022	8.08734	1.91207
0.3233	2.89593	10.7685	267.041	-12.8875	-0.351124	-9.87122	72.2665	0.0340307	7.78595	1.59339
0.3240	-2.92579	-3.30746	113.875	-12.8875	0.867483	-8.64885	84.7776	2.79052	5.92737	1.59339
0.3247	-8.0907	-12.9991	50.3886	-12.8875	2.39591	-8.0492	97.2887	8.26945	4.42041	1.59339
0.3253	-9.64316	-14.5374	68.9887	-11.0576	4.22382	-5.30463	95.7695	16.8112	2.26044	1.27472
0.3260	-8.41911	-14.5374	71.1261	-10.7439	3.61451	-4.68191	77.1518	32.0569	0.452087	1.59339
0.3267	-6.26955	-11.8453	54.6634	-11.3713	2.69539	-3.45954	61.2746	50.0932	-0.753479	1.59339
0.3273	-8.0907	-11.8453	38.4736	-8.60037	3.3047	0.807226	59.7554	55.5721	-2.61206	1.59339
0.3280	-13.584	-15.7681	26.2857	-5.56802	4.22382	2.62925	66.4727	50.6717	-5.9776	1.59339
0.3287	-16.6591	-16.9988	17.4177	-4.0257	4.22382	2.95214	63.1066	51.8968	-7.48456	1.91207
0.3293	-15.1365	-14.2298	13.1429	-0.993356	5.44242	5.07399	41.4356	29.6407	-8.08734	1.27472
0.3300	-11.7629	-9.9993	8.54968	0.235268	6.36154	3.85162	31.3671	-28.9601	-9.94592	0.637358
0.3307	-11.4643	-3.30746	5.50272	-1.5946	5.44242	-0.415145	43.5803	-56.7291	-10.2473	1.27472
0.3313	-9.31476	5.30732	7.95848	-2.19584	5.75224	-0.415145	32.5884	-42.0959	-9.34314	1.59339
0.3320	4.41854	9.84546	7.04894	-2.19584	5.14294	2.0296	-12.2728	-26.8162	-9.34314	1.27472
0.3327	10.8075	5.30732	-0.272862	-1.90829	4.22382	5.07399	-41.5696	-22.2561	-9.04175	1.59339
0.3333	-2.59738	-2.38445	-7.00346	0.235268	5.44242	7.51873	-35.463	-27.4287	-6.88178	1.91207
0.3340	-9.64316	-6.30725	-11.5512	-2.19584	3.00521	4.47434	-39.4249	-26.8162	-3.81763	1.91207
0.3347	-2.59738	-5.69191	-12.1878	-4.3394	0.867483	3.25197	-38.5163	-21.6435	-1.70789	1.91207
0.3353	3.19448	-2.38445	-9.14089	-3.11077	2.69539	4.77417	-11.6621	-24.9785	-1.1051	1.59339
0.3360	8.38925	1.3076	-8.82255	-4.65309	0.258179	1.72977	-3.72354	-27.4287	-1.70789	1.59339
0.3367	9.91186	6.15341	-5.77558	-5.25433	-1.27024	2.32942	-1.89156	-21.9498	-2.31067	1.59339
0.3373	2.89593	13.5375	-1.81908	-0.679664	2.08609	6.91908	8.48967	-13.4081	-1.70789	1.59339
0.3380	-1.40318	16.5373	-4.5477	-1.90829	0.557668	2.95214	7.87901	-11.5704	-1.1051	1.91207
0.3387	-0.17913	14.1528	-9.41375	-6.48295	-2.79867	-4.38208	10.9323	-13.1018	-1.70789	1.59339
0.3393	-1.40318	11.0761	-9.41375	-4.65309	0.867483	-2.56006	22.2221	-10.3453	-0.753479	1.27472
0.3400	1.34347	11.0761	-7.59467	-4.0257	2.08609	0.507399	14.2835	-10.9579	1.05487	1.59339
0.3407	6.83679	17.1526	-4.22936	-5.85557	-0.351124	0.807226	7.87901	-12.7955	1.05487	1.59339
0.3413	2.56753	25.0752	-2.72862	-3.73815	1.7866	2.62925	25.8861	-13.1018	0.452087	1.59339
0.3420	-5.971	26.6135	-12.5062	-1.90829	3.914	1.40688	29.5351	-16.1305	1.05487	1.59339
0.3427	-9.31476	19.9217	-23.1478	-4.94064	1.47679	-4.68191	-6.77684	-17.3556	1.35626	1.59339
0.3433	-8.0907	10.7685	-21.6471	-5.25433	2.69539	-4.98174	-29.9671	-15.8243	2.26044	1.59339
0.3440	-3.52289	2.53828	-17.0539	-2.50953	6.36154	-3.45954	10.0089	-13.4081	2.86322	1.59339
0.3447	3.49303	-5.07657	-18.2818	-2.82322	6.36154	-7.12665	56.7021	-10.6516	1.05487	1.59339
0.3453	6.53824	-4.46122	-12.5062	-2.19584	7.27033	-5.30463	66.7705	-7.58884	-0.150696	1.27472
0.3460	4.71709	3.15362	4.59318	-0.679664	9.71788	2.0296	67.3812	-6.05746	1.05487	0.956036
0.3467	3.19448	5.30732	8.54968	-2.19584	9.10857	3.5518	67.0833	-8.20139	2.26044	1.59339
0.3473	1.34347	0.0769177	-5.45725	-3.73815	9.40806	3.85162	58.2213	-9.73277	2.56183	1.59339
0.3480	-0.77623	-5.99958	-13.4157	-1.90829	12.1551	7.21891	30.1458	-5.47894	3.16461	1.27472
0.3487	-2.00028	-7.8456	-12.5062	-1.28091	13.3737	7.81856	-13.4941	-1.19107	4.11902	1.59339
0.3493	-3.22434	-5.99958	-12.1878	-2.82322	11.5458	5.37382	-51.936	-1.49735	4.42041	1.91207
0.3500	-3.22434	-3.30746	-9.14089	-2.82322	9.10857	4.77417	-62.9278	-1.80363	4.7218	1.59339
0.3507	-2.59738	-1.76911	-6.68513	-1.90829	8.49927	4.77417	-46.1421	-1.49735	5.02319	1.27472
0.3513	-1.70173	-1.76911	-6.68513	-0.679664	8.79876	5.99654	-21.7306	-2.1099	4.42041	1.27472
0.3520	-0.17913	-0.846094	-6.09392	0.83651	7.88997	6.59619	16.4134	-2.41618	3.51624	1.27472
0.3527	0.746375	-0.538424	-4.5477	2.66638	9.10857	6.59619	60.6639	-2.1099	2.56183	1.27472
0.3533	1.97043	-1.15376	-4.5477	2.66638	9.71788	6.59619	62.8087	-3.33501	3.16461	1.91207
0.3540	3.79158	-2.38445	-6.68513	-0.679664	6.66103	2.62925	42.6569	-6.05746	3.51624	1.59339
0.3547	3.49303	-2.69212	-7.27633	-1.5946	5.44242	-1.0148	40.527	-8.81394	3.51624	1.27472
0.3553	2.89593	-1.15376	-5.45725	-0.679664	5.14294	-1.33769	33.1991	-9.4265	3.51624	1.27472
0.3560	2.89593	0.384588	-4.86604	-0.993356	4.22382	-0.714972	8.78756	-8.81394	3.51624	1.59339
0.3567	2.56753	0.384588	-6.68513	-1.5946	2.39591	-2.23717	-6.77684	-9.12022	2.86322	1.59339
0.3573	2.26898	2.23061	-6.09392	-0.679664	2.69539	-2.85989	-15.3261	-8.50767	2.26044	1.91207
0.3580	2.56753	4.99965	-3.04696	1.1502	4.22382	-3.78243	-42.7909	-5.78521	1.05487	1.59339
0.3587	3.79158	5.30732	-1.81908	1.46389	3.914	-7.74937	-77.5688	-6.05746	0.150696	0.956036
0.3593	3.49303	4.38431	-0.272862	2.66638	5.44242	-4.68191	-90.3927	-7.28256	1.05487	0.637358
0.3600	2.26898	2.53828	1.22788	2.98007	8.18945	3.5518	-83.6754	-6.97629	3.81763	1.27472
0.3607	1.34347	-0.846094	-1.1824	0.235268	7.58015	5.37382	-81.2328	-8.20139	6.53015	1.59339
0.3613	1.04492	-2.07678	-3.31982	-1.90829	5.14294	4.47434	-96.4993	-8.81394	8.08734	1.59339
0.3620	0.447825	-1.15376	-2.72862	-0.993356	3.914	4.77417	-113.896	-7.89512	8.38873	1.59339
0.3627	0.447825	-0.230753	-1.50074	-0.993356	3.3047	2.62925	-99.8505	-6.97629	8.08734	1.59339
0.3633	1.67188	0.0769177	-0.272862	-1.28091	3.3047	-0.115318	-63.2257	-6.05746	6.83154	1.59339
0.3640	1.97043	0.0769177	0.636679	1.1502	3.61451	0.807226	-44.0123	-5.47894	3.81763	1.59339
0.3647	1.34347	-0.230753	0.318339	3.29376	3.3047	2.62925	-40.959	-5.17266	1.35626	1.59339
0.3653	0.149275	0.692259	-0.591202	2.98007	2.39591	0.507399	-40.3483	-5.47894	0.753479	1.27472
0.3660	-0.17913	1.3076	-0.909541	2.06513	1.47679	-4.38208	-37.5929	-6.05746	0.452087	1.27472
0.3667	1.04492	-0.230753	-0.272862	1.75144	1.7866	-9.27157	-16.5474	-4.86639	-1.1051	1.59339
0.3673	0.746375	-0.538424	2.7741	3.29376	4.22382	-9.87122	12.4515	-3.64128	-2.31067	1.59339
0.3680	-1.07478	0.692259	4.59318	4.80993	4.83312	-11.7163	14.5814	-3.33501	-2.91345	1.59339
0.3687	0.447825	0.692259	1.86456	3.58131	3.3047	-16.2829	-9.21949	-5.17266	-4.7218	1.59339
0.3693	2.89593	0.692259	0.636679	3.895	3.00521	-13.8382	-34.5396	-6.97629	-5.07343	1.91207
0.3700	1.34347	1.3076	4.32032	6.03856	4.83312	-6.527	-49.1954	-6.67001	-3.21484	1.59339
0.3707	1.67188	0.0769177	5.22986	4.80993	3.3047	-7.42648	-68.4238	-7.58884	-2.00928	0.956036
0.3713	5.31419	-0.538424	2.45576	2.06513	-0.0516359	-11.7163	-80.6221	-9.12022	-1.70789	1.27472
0.3720	3.49303	0.99993	4.91152	4.49624	2.69539	-5.30463	-36.3716	-7.89512	-0.150696	1.27472
0.3727	1.34347	1.3076	6.45774	5.72486	3.3047	-0.115318	29.2372	-7.58884	0.150696	1.27472
0.3733	4.09013	-0.230753	1.86456	2.66638	-1.27024	-3.45954	56.0914	-8.20139	-1.1051	1.59339
0.3740	3.49303	-0.538424	2.7741	4.20869	0.258179	-3.45954	61.2746	-7.58884	-1.1051	1.59339
0.3747	1.04492	0.384588	5.82106	8.18211	3.61451	-0.714972	42.6569	-6.97629	-1.70789	1.59339
0.3753	2.26898	-0.846094	3.09244	6.6398	0.867483	-2.23717	-7.38751	-6.67001	-3.21484	1.59339
0.3760	4.09013	-1.76911	1.22788	3.58131	-1.87955	-2.85989	-61.7065	-7.28256	-2.00928	1.91207
0.3767	2.26898	-1.46144	3.09244	5.43731	1.47679	-1.0148	-84.2861	-6.67001	-1.40649	1.91207
0.3773	-0.17913	-1.76911	4.00198	8.78335	4.22382	-0.415145	-50.4167	-4.56011	-2.61206	1.27472
0.3780	1.67188	-2.38445	2.45576	8.46966	1.16697	-5.30463	-0.983015	-4.56011	-3.81763	1.27472
0.3787	2.89593	-2.99979	1.54622	6.95349	-1.27024	-8.34902	54.2594	-4.25383	-3.51624	1.59339
0.3793	1.04492	-4.15355	1.22788	6.6398	-1.87955	-7.12665	113.464	-2.41618	-2.91345	1.59339
0.3800	0.149275	-4.46122	1.22788	6.6398	-2.18936	-7.42648	121.402	-3.64128	-3.81763	1.27472
0.3807	-0.77623	-4.76889	0.318339	6.35225	-2.18936	-8.0492	84.1669	-3.64128	-3.51624	1.27472
0.3813	-0.77623	-4.76889	-0.591202	6.95349	-1.87955	-3.15971	55.4808	-2.72245	-2.61206	1.59339
0.3820	-0.77623	-4.76889	0.955018	8.46966	0.867483	3.5518	56.7021	-2.72245	-2.00928	1.59339
0.3827	-1.40318	-6.30725	0.636679	8.46966	2.39591	4.15145	70.7324	-1.80363	-2.31067	1.59339
0.3833	-0.47768	-6.92259	-1.1824	8.78335	1.47679	-2.23717	97.8993	-2.72245	-5.37482	1.59339
0.3840	-1.07478	-6.61492	-0.272862	10.9269	1.16697	-8.34902	128.12	-3.33501	-7.48456	1.59339
0.3847	-2.59738	-6.61492	1.54622	11.2145	1.47679	-7.12665	141.539	-1.49735	-5.9776	1.59339
0.3853	0.447825	-6.30725	0.636679	8.46966	0.557668	-4.98174	132.692	-3.02873	-3.51624	1.27472
0.3860	4.09013	-6.30725	-1.1824	7.55473	-0.0516359	-8.0492	70.1366	-4.56011	-4.7218	1.27472
0.3867	8.38925	-6.30725	-0.272862	8.78335	0.258179	-10.171	2.99373	-4.25383	-5.9776	1.27472
0.3873	13.5542	-5.69191	0.045477	7.86842	-0.66094	-8.64885	-29.0585	-5.47894	-3.81763	1.91207
0.3880	12.6585	-6.61492	-1.81908	5.72486	-2.48885	-8.64885	-60.1873	-6.97629	-2.31067	1.59339
0.3887	7.46375	-7.53793	-2.09194	6.6398	-2.18936	-7.42648	-83.6754	-8.50767	-2.00928	0.637358
0.3893	5.94114	-7.23026	-1.1824	7.55473	-0.960428	-5.90428	-114.506	-8.20139	-1.70789	0.956036
0.3900	8.38925	-7.53793	-1.81908	7.55473	-0.66094	-6.20411	-143.49	-6.36374	-3.21484	1.91207
0.3907	17.2263	-9.07628	-3.63816	8.78335	-2.18936	-5.90428	-126.094	-6.67001	-5.07343	1.59339
0.3913	29.7356	-9.07628	-3.9565	11.2145	-1.27024	-4.98174	-82.7669	-9.12022	-6.27899	1.59339
0.3920	28.5115	-7.53793	-3.04696	11.2145	2.39591	-3.78243	-59.2639	-12.4893	-7.48456	1.59339
0.3927	16.6292	-5.99958	-2.41028	10.012	3.914	-0.714972	-32.1118	-16.4368	-7.18317	1.59339
0.3933	22.4211	-3.30746	-0.272862	10.2995	5.75224	5.37382	15.5048	-19.1933	-6.27899	1.91207
0.3940	39.7967	-1.15376	2.45576	10.9269	6.66103	8.11839	48.4656	-20.7247	-5.67621	1.59339
0.3947	40.7222	-2.07678	1.86456	12.4431	7.58015	6.59619	82.3349	-21.9498	-7.78595	1.59339
0.3953	23.3167	-2.07678	2.45576	15.7891	12.7644	10.886	121.7	-23.4812	-9.34314	1.59339
0.3960	22.7196	-0.230753	4.00198	16.1028	14.9021	16.3752	129.639	-27.1224	-8.08734	1.27472
0.3967	43.4689	2.23061	4.91152	15.1879	10.0174	13.9304	111.945	-31.4103	-7.78595	1.59339
0.3973	32.7808	2.84595	5.82106	16.1028	6.97085	9.96348	83.5563	-31.4103	-8.38873	1.91207
0.3980	5.94114	1.3076	4.32032	14.5866	3.3047	4.77417	51.5189	-28.0413	-8.69013	1.59339
0.3987	13.2556	0.692259	3.3653	10.9269	-1.87955	-0.714972	23.7413	-26.8162	-7.78595	1.59339
0.3993	18.1518	2.23061	5.50272	9.3846	-4.01727	-1.33769	-35.7609	-28.6538	-6.58038	1.91207
0.4000	-23.0481	2.84595	7.36728	10.2995	-3.70746	-0.115318	-127.017	-28.3475	-6.27899	1.59339
0.4007	-69.7413	2.53828	6.1394	8.78335	-5.84518	-5.60446	-170.657	-25.5911	-6.88178	1.27472
0.4013	-67.323	4.38431	6.7306	7.86842	-7.37361	-8.64885	-162.719	-25.2848	-8.08734	1.59339
0.4020	-35.8857	5.61499	9.5047	10.6132	-5.84518	-3.78243	-148.986	-24.4	-7.78595	1.91207
0.4027	-16.6591	4.69198	7.36728	11.2145	-6.155	-7.42648	-129.46	-20.4184	-8.38873	1.59339
0.4033	18.1518	6.15341	6.45774	10.2995	-6.7643	-15.6833	-97.4078	-19.1933	-10.2473	1.27472
0.4040	45.917	11.9992	12.5517	13.0443	-2.79867	-9.87122	-63.8364	-22.8686	-9.64453	1.27472
0.4047	-12.6884	11.6915	14.0524	15.5016	0.867483	-1.0148	-41.5696	-24.7063	-6.88178	1.59339
0.4053	-110.643	-0.846094	2.7741	14.273	-0.0516359	-0.714972	-31.5012	-21.6435	-6.58038	1.27472
0.4060	-148.797	-15.4604	-7.91301	15.5016	1.47679	4.15145	-19.8986	-14.3269	-9.94592	1.59339
0.4067	-116.434	-21.6139	-7.59467	19.7625	8.79876	16.0753	3.60439	-0.272245	-12.0557	1.59339
0.4073	-56.6349	-20.6908	-4.5477	20.3899	10.9365	18.8199	27.7031	13.7484	-12.0557	1.59339
0.4080	1.04492	-18.5372	-3.9565	18.5601	9.71788	16.3752	27.4053	22.0178	-13.6129	1.59339
0.4087	25.7649	-17.6141	-2.41028	19.7625	12.4649	20.9418	5.43637	30.2533	-14.517	1.91207
0.4093	12.3301	-17.9218	-1.1824	19.475	12.1551	22.7868	-5.55552	34.2008	-13.9142	1.91207
0.4100	-11.7629	-18.8448	-2.72862	15.5016	5.75224	16.675	1.16174	26.2717	-11.7543	1.59339
0.4107	-24.2721	-18.2295	-3.31982	13.0443	0.867483	13.6306	5.12359	14.6672	-9.04175	1.59339
0.4113	-34.6616	-15.7681	-2.09194	13.0443	-7.98291	15.7524	45.4123	5.51297	-7.18317	1.27472
0.4120	-68.5172	-14.5374	-2.72862	12.4431	-21.7181	14.5301	121.09	0.646583	-5.67621	1.27472
0.4127	-104.851	-16.6911	-5.13891	10.6132	-27.8214	11.1858	145.203	1.87169	-4.42041	1.59339
0.4133	-129.272	-16.0758	-4.5477	10.012	-29.9591	10.5631	129.028	2.17796	-5.07343	1.27472
0.4140	-127.72	-11.8453	-3.04696	10.012	-33.615	8.74111	112.242	-5.78521	-5.37482	1.27472
0.4147	-75.8615	-7.23026	-0.909541	9.3846	-32.0969	5.37382	45.4123	-19.1933	-5.67621	1.91207
0.4153	2.56753	-4.76889	2.7741	7.55473	-27.2121	4.15145	-54.0807	-30.4915	-5.67621	1.59339
0.4160	72.1595	-2.99979	5.50272	5.72486	-22.9367	4.15145	-105.049	-34.7453	-5.07343	1.59339
0.4167	114.583	0.0769177	9.18636	5.12362	-13.7868	4.47434	-115.728	-33.248	-3.51624	1.27472
0.4173	128.914	2.23061	12.5517	5.72486	-4.01727	4.77417	-115.415	-27.4287	-2.91345	1.27472
0.4180	123.122	1.92294	13.4612	6.35225	3.00521	3.85162	-105.346	-19.1933	-4.7218	1.59339
0.4187	124.943	2.84595	14.3707	7.55473	12.4649	1.10705	-69.6451	-12.4893	-3.21484	1.27472
0.4193	151.186	4.07664	15.5986	12.1294	18.8678	1.40688	-17.456	-8.20139	-3.21484	0.956036
0.4200	120.077	0.384588	13.1429	14.8742	21.3153	5.07399	-3.11288	-3.94756	-12.3571	1.59339
0.4207	6.23969	-6.30725	7.04894	11.2145	24.3618	4.77417	-11.3494	1.56541	-16.9282	1.59339
0.4213	-42.2747	-8.15327	5.50272	7.55473	28.3275	3.5518	8.48967	9.80083	-13.0101	1.59339
0.4220	-1.40318	-4.76889	9.77756	7.26718	29.8559	4.47434	51.2061	23.2089	-10.2473	1.59339
0.4227	-6.5681	-1.15376	12.5517	6.03856	28.028	2.62925	83.5563	33.282	-9.04175	1.59339
0.4233	-52.0372	1.3076	12.5517	5.72486	26.4995	1.40688	87.2202	31.1721	-8.38873	1.59339
0.4240	-52.3657	3.15362	14.3707	7.55473	20.0967	3.25197	75.3198	25.3528	-7.78595	1.59339
0.4247	-10.2403	4.69198	15.5986	7.26718	6.97085	3.5518	52.1296	20.4865	-8.08734	1.59339
0.4253	33.0793	6.46108	16.5082	5.43731	0.867483	2.32942	20.0773	13.1358	-9.34314	1.59339
0.4260	61.77	9.23012	19.8735	6.03856	4.83312	2.62925	-3.41076	5.51297	-8.38873	1.59339
0.4267	84.9673	9.53779	20.783	6.6398	7.27033	3.85162	-8.29605	1.87169	-6.88178	1.59339
0.4273	97.178	7.99944	18.3272	5.43731	6.97085	3.85162	-11.3494	7.35063	-6.27899	1.27472
0.4280	97.178	6.46108	16.5082	5.43731	8.18945	5.69671	-37.9057	21.4053	-5.67621	1.59339
0.4287	76.1302	2.84595	14.0524	6.6398	9.40806	11.7855	-50.4167	33.282	-5.37482	1.59339
0.4293	22.1225	-5.07657	8.54968	6.95349	8.18945	12.708	-23.5626	42.4362	-5.37482	1.59339
0.4300	-10.8374	-12.153	3.3653	6.03856	5.14294	8.11839	-4.3342	48.5618	-5.07343	1.91207
0.4307	1.97043	-12.7683	3.09244	6.03856	3.914	6.91908	-3.41076	45.499	-4.7218	1.27472
0.4313	21.7941	-11.23	4.32032	6.6398	3.61451	7.21891	-0.372354	41.5174	-4.11902	1.27472
0.4320	36.4529	-10.9223	3.3653	5.43731	1.16697	5.99654	1.16174	42.13	-4.11902	1.59339
0.4327	42.5434	-11.23	2.7741	4.20869	-0.0516359	7.51873	1.16174	42.13	-4.42041	1.59339
0.4333	35.5274	-12.153	3.09244	5.43731	0.557668	10.5631	1.45963	40.6326	-4.11902	1.59339
0.4340	26.9889	-13.3068	1.54622	6.35225	-0.0516359	9.66365	0.238307	38.1824	-4.42041	1.27472
0.4347	22.7196	-12.4607	1.86456	6.03856	-0.66094	5.99654	-0.983015	34.5071	-5.07343	1.59339
0.4353	17.2263	-8.76861	4.91152	6.6398	0.867483	5.37382	-0.372354	29.947	-4.11902	1.59339
0.4360	10.509	-5.69191	6.1394	6.03856	-0.66094	4.47434	-1.2809	25.3528	-2.91345	1.27472
0.4367	4.09013	-4.15355	6.7306	4.80993	-2.79867	2.95214	-2.20434	21.7116	-2.00928	1.59339
0.4373	0.447825	-2.07678	8.27682	4.20869	-3.70746	1.40688	-2.50222	16.8112	-2.00928	1.59339
0.4380	-1.40318	-1.15376	7.95848	4.20869	-5.5457	0.184509	-2.50222	11.6385	-2.61206	1.59339
0.4387	-6.5681	-1.46144	7.36728	4.49624	-6.7643	0.184509	-1.2809	9.49456	-3.21484	1.59339
0.4393	-12.6884	-0.846094	9.18636	6.35225	-4.93639	2.95214	2.07029	11.9448	-2.91345	1.59339
0.4400	-14.8081	-0.538424	10.6871	6.35225	-4.62658	3.25197	6.04703	15.8923	-0.452087	1.59339
0.4407	-14.5095	-2.38445	7.36728	3.895	-7.37361	-1.0148	6.34491	15.8923	0.753479	1.59339
0.4413	-17.2562	-2.99979	6.1394	3.58131	-8.59221	-0.415145	6.95557	13.7484	1.35626	1.59339
0.4420	-20.0028	-1.46144	8.27682	5.12362	-7.98291	1.72977	8.78756	12.5573	1.95905	1.59339
0.4427	-19.7043	-0.846094	7.36728	3.895	-9.81082	-1.33769	7.56624	10.4134	1.65765	1.27472
0.4433	-21.824	-1.15376	7.04894	4.49624	-10.1206	-1.93734	6.95557	9.18828	1.95905	1.59339
0.4440	-26.7202	-1.15376	9.5047	7.86842	-7.98291	1.72977	9.39822	9.80083	1.95905	1.91207
0.4447	-27.6457	-0.538424	9.77756	6.95349	-7.98291	0.807226	9.10034	7.96318	1.05487	1.59339
0.4453	-24.2721	-0.538424	6.45774	3.29376	-10.4201	-3.15971	4.51293	4.90042	-0.150696	1.27472
0.4460	-24.2721	0.0769177	7.04894	3.58131	-9.81082	-2.23717	3.29161	4.28786	-0.452087	1.27472
0.4467	-27.6457	0.384588	8.27682	4.20869	-8.90203	-1.33769	3.90227	4.90042	-0.753479	1.27472
0.4473	-27.9443	-0.538424	5.82106	2.37883	-10.7299	-4.38208	1.16174	3.98159	-1.1051	1.27472
0.4480	-26.1231	0.0769177	5.82106	2.06513	-10.4201	-4.68191	-1.59368	2.79052	-1.40649	1.27472
0.4487	-26.1231	1.92294	8.86802	3.895	-7.98291	-0.415145	-0.372354	2.17796	-0.452087	1.59339
0.4493	-25.4962	2.23061	8.54968	3.29376	-8.90203	-1.0148	-1.2809	0.340307	0.753479	1.59339
0.4500	-23.675	1.3076	5.82106	1.1502	-11.9485	-5.60446	-4.3342	-1.49735	0.150696	1.59339
0.4507	-24.8991	0.99993	7.36728	2.98007	-11.3392	-4.68191	-3.11288	-1.49735	1.05487	1.27472
0.4513	-25.7947	1.61527	9.5047	5.12362	-9.81082	-3.45954	-1.2809	-0.884797	6.83154	0.637358
0.4520	-23.0481	1.3076	7.04894	2.06513	-10.7299	-7.12665	-3.41076	-1.49735	5.92737	0.956036
0.4527	-23.675	1.92294	7.36728	1.46389	-9.81082	-5.60446	-2.50222	-1.49735	-0.753479	2.23075
0.4533	-26.4217	3.76897	11.3238	4.20869	-6.45449	-0.415145	1.45963	-1.19107	-1.40649	1.91207
0.4540	-25.1976	3.76897	9.77756	2.37883	-7.68342	-3.15971	0.238307	-2.72245	0.150696	1.59339
0.4547	-23.0481	3.15362	6.7306	-0.365973	-10.1206	-7.12665	-2.815	-5.17266	0.150696	1.59339
0.4553	-23.0481	3.46129	7.64014	0.54896	-9.81082	-5.30463	-0.670237	-6.05746	0.452087	1.27472
0.4560	-23.0481	2.84595	7.95848	0.54896	-10.1206	-4.08226	1.77241	-5.78521	1.65765	1.59339
0.4567	-21.5254	2.23061	6.45774	-0.993356	-11.6491	-5.60446	1.45963	-6.97629	2.26044	1.59339
0.4573	-23.9736	3.76897	8.54968	0.83651	-9.81082	-2.85989	3.29161	-6.36374	3.16461	1.59339
0.4580	-27.3173	5.30732	11.915	3.29376	-7.68342	0.184509	6.34491	-5.17266	3.81763	1.59339
0.4587	-25.7947	4.38431	9.77756	0.83651	-9.51133	-1.33769	3.90227	-6.67001	2.86322	1.27472
0.4593	-23.3765	4.07664	7.64014	-0.679664	-10.4201	-2.85989	0.551084	-7.58884	2.26044	1.27472
0.4600	-23.0481	5.30732	9.5047	1.1502	-8.29273	-1.63752	2.07029	-6.97629	1.65765	1.27472
0.4607	-22.7495	5.30732	9.77756	0.83651	-8.29273	-2.23717	6.65769	-7.58884	1.35626	1.59339
0.4613	-21.5254	3.76897	7.36728	-1.5946	-9.51133	-4.68191	9.711	-9.4265	1.65765	1.27472
0.4620	-22.7495	3.76897	8.86802	-0.0784228	-7.37361	-2.23717	10.3217	-9.12022	2.26044	1.59339
0.4627	-22.7495	4.38431	11.3238	2.06513	-5.84518	-0.115318	8.78756	-7.89512	2.26044	1.91207
0.4633	-16.3307	3.76897	8.86802	0.235268	-7.68342	-3.15971	6.65769	-8.81394	1.05487	1.91207
0.4640	-11.1658	2.84595	7.95848	-0.993356	-7.98291	-4.08226	5.73425	-9.4265	0.452087	1.59339
0.4647	-12.6884	2.23061	9.18636	0.235268	-6.7643	-2.56006	3.29161	-9.4265	-0.150696	1.27472
0.4653	-15.7336	1.92294	8.27682	-0.0784228	-7.06379	-3.78243	-1.59368	-9.73277	-0.753479	1.27472
0.4660	-16.0321	1.92294	7.36728	-0.679664	-7.06379	-4.38208	-5.55552	-9.4265	-0.452087	1.59339
0.4667	-12.6884	2.53828	8.54968	1.1502	-5.23588	-2.56006	-6.77684	-8.20139	-0.753479	1.91207
0.4673	-6.8965	2.53828	9.18636	2.06513	-5.23588	-2.56006	-7.99817	-8.20139	-1.1051	1.59339
0.4680	0.746375	2.23061	7.36728	1.46389	-6.155	-4.68191	-6.16618	-9.12022	-1.1051	1.59339
0.4687	8.98635	1.61527	5.82106	0.54896	-7.06379	-4.98174	-4.02142	-9.4265	-0.452087	1.59339
0.4693	15.7037	1.61527	5.50272	0.54896	-6.7643	-3.78243	-3.41076	-8.81394	0.150696	1.59339
0.4700	19.3759	1.61527	4.59318	0.235268	-5.84518	-3.45954	-0.0595767	-8.81394	1.05487	1.27472
0.4707	18.7489	1.61527	4.00198	0.83651	-4.93639	-2.56006	-0.0595767	-8.20139	1.95905	1.59339
0.4713	11.733	1.92294	5.22986	2.37883	-4.31676	0.184509	-6.46407	-8.20139	2.86322	1.59339
0.4720	5.64259	1.92294	4.00198	1.1502	-5.23588	0.184509	-11.3494	-10.039	1.65765	1.59339
0.4727	4.41854	1.61527	1.86456	-0.679664	-6.155	-2.23717	-11.3494	-12.4893	1.65765	1.27472
0.4733	-4.44839	2.23061	2.45576	0.54896	-5.5457	-2.23717	-8.90671	-15.2457	5.92737	0.637358
0.4740	-16.6591	5.30732	4.32032	0.83651	-5.23588	-2.85989	-7.07473	-16.1305	6.22876	0.956036
0.4747	-9.31476	7.69177	5.22986	-0.993356	-6.155	-4.98174	-6.77684	-16.7431	1.95905	1.59339
0.4753	-4.44839	9.84546	6.7306	-0.679664	-5.23588	-3.78243	-7.38751	-18.887	1.05487	1.59339
0.4760	-32.2135	10.7685	6.7306	1.1502	-4.31676	-1.33769	-7.99817	-19.8059	1.35626	1.59339
0.4767	-70.9653	7.99944	3.68364	0.235268	-5.23588	-1.63752	-8.60883	-17.9682	2.26044	1.59339
0.4773	-85.6241	4.99965	1.22788	-0.365973	-5.23588	-1.93734	-8.29605	-13.4081	3.51624	1.91207
0.4780	-74.936	5.92266	0.955018	-0.365973	-4.62658	-1.33769	-8.60883	-13.4081	2.26044	1.59339
0.4787	-58.4561	8.61478	1.54622	-0.993356	-5.5457	-3.15971	-10.128	-20.4184	3.51624	0.637358
0.4793	-17.2562	11.6915	4.00198	-0.0784228	-4.62658	-3.15971	-9.21949	-28.0413	9.5943	0.318679
0.4800	51.1117	14.4605	6.45774	1.1502	-1.27024	-0.714972	-5.85341	-27.1224	8.69013	0.956036
0.4807	64.845	12.6145	3.68364	0.54896	-1.58006	-1.63752	-4.94486	-21.031	1.95905	1.59339
0.4813	25.1678	8.92245	0.045477	-0.365973	-3.40797	-3.15971	-6.16618	-19.4996	0.753479	1.59339
0.4820	11.733	8.92245	-0.909541	-0.365973	-4.01727	-3.45954	-7.38751	-22.2561	1.65765	1.59339
0.4827	18.1518	10.4608	-0.272862	-0.679664	-3.70746	-3.45954	-7.99817	-25.2848	1.95905	1.59339
0.4833	2.56753	9.53779	-1.1824	-0.679664	-3.70746	-3.78243	-7.68539	-28.9601	2.86322	1.59339
0.4840	-35.2587	8.61478	-1.50074	0.83651	-2.79867	-2.85989	-7.38751	-32.3291	3.16461	1.59339
0.4847	-56.6349	12.3068	1.86456	2.06513	-1.87955	-1.93734	-7.38751	-33.248	1.95905	1.27472
0.4853	-54.1868	15.922	5.50272	2.06513	-2.79867	-2.23717	-8.60883	-31.4103	1.05487	1.27472
0.4860	-57.859	16.5373	8.27682	1.1502	-3.09815	-1.93734	-8.90671	-28.3475	1.95905	1.91207
0.4867	-52.0372	13.8452	8.86802	0.83651	-3.70746	-2.23717	-7.68539	-23.1749	2.26044	1.59339
0.4873	-22.451	10.1531	6.7306	-0.0784228	-4.62658	-3.45954	-6.16618	-16.7431	1.95905	1.27472
0.4880	38.9011	11.9992	8.27682	-0.0784228	-4.31676	-3.78243	-4.02142	-16.4368	2.26044	1.59339
0.4887	119.151	17.768	12.8245	1.1502	-2.18936	-1.0148	-2.50222	-21.031	3.16461	1.59339
0.4893	120.375	16.2296	10.0959	0.83651	-1.87955	-1.0148	-5.85341	-20.1121	3.81763	1.27472
0.4900	37.677	7.69177	1.22788	-0.365973	-3.09815	-3.15971	-13.4941	-7.58884	3.51624	1.27472
0.4907	-26.4217	3.15362	-2.09194	-0.365973	-3.09815	-3.15971	-17.1581	6.12552	3.51624	1.59339
0.4913	-60.9042	4.69198	-0.591202	-0.0784228	-2.48885	-3.45954	-16.2346	10.4134	4.42041	1.59339
0.4920	-92.0131	7.69177	1.22788	-0.993356	-2.48885	-4.08226	-15.624	13.7484	4.42041	1.59339
0.4927	-95.9838	10.7685	4.59318	-0.0784228	-0.960428	-2.85989	-14.4027	16.1986	4.42041	1.59339
0.4933	-76.4586	12.6145	6.7306	1.75144	-0.0516359	-1.63752	-11.0515	13.7484	4.11902	1.27472
0.4940	-76.4586	12.3068	7.04894	2.37883	-0.351124	-2.56006	-9.83015	15.2798	3.51624	1.27472
0.4947	-60.2772	14.7682	7.95848	0.54896	-0.960428	-4.08226	-12.2728	15.2798	3.81763	1.59339
0.4953	5.94114	17.768	9.77756	-1.5946	-1.27024	-4.68191	-13.792	11.3322	4.11902	1.27472
0.4960	42.8718	15.922	9.5047	-1.28091	-0.66094	-4.08226	-11.6621	16.1986	5.02319	1.27472
0.4967	32.4822	9.53779	5.22986	-1.5946	-1.27024	-4.68191	-6.77684	26.2717	5.92737	1.91207
0.4973	41.9463	4.99965	1.86456	-0.993356	-0.66094	-3.78243	2.38307	35.4259	6.22876	1.91207
0.4980	57.2022	3.15362	0.955018	-0.0784228	0.258179	-2.23717	9.10034	40.0201	5.92737	1.59339
0.4987	52.0074	1.61527	-1.1824	-0.993356	-0.960428	-2.23717	7.26835	39.7138	5.02319	1.59339
0.4993	45.917	0.0769177	-2.72862	-0.993356	-1.58006	-2.56006	2.68095	39.1012	4.7218	1.59339
0.5000	41.6477	-0.538424	-3.9565	-0.679664	-2.18936	-2.85989	2.07029	34.5071	4.42041	1.59339
0.5007	29.7356	-0.538424	-6.36679	-2.19584	-2.79867	-3.78243	2.68095	26.2717	4.7218	1.59339
0.5013	18.7489	0.384588	-7.00346	-2.19584	-2.79867	-4.38208	0.848967	21.099	5.32459	1.59339
0.5020	23.3167	2.23061	-4.86604	-0.0784228	-1.58006	-2.56006	-0.983015	18.0363	5.32459	1.59339
0.5027	23.9437	3.15362	-4.86604	0.235268	-1.27024	-2.23717	-1.89156	15.586	4.7218	1.27472
0.5033	-2.29883	4.07664	-5.45725	-0.993356	-2.18936	-4.38208	-3.11288	13.4421	4.42041	1.27472
0.5040	-32.5121	7.3841	-3.04696	-0.679664	-2.18936	-4.98174	-2.815	10.4134	4.42041	1.27472
0.5047	-56.008	10.1531	-1.1824	-0.993356	-2.18936	-4.08226	-2.50222	8.88201	4.11902	1.59339
0.5053	-97.2078	10.7685	-1.1824	-1.28091	-2.18936	-3.78243	-2.50222	10.1071	4.7218	1.59339
0.5060	-126.525	11.3838	-0.272862	-0.0784228	-1.27024	-2.85989	-2.20434	13.4421	5.32459	1.59339
0.5067	-111.24	10.1531	-0.591202	-0.0784228	-0.66094	-2.56006	-1.89156	11.6385	5.02319	1.27472
0.5073	-91.7145	8.30711	-3.04696	-0.679664	-1.27024	-3.45954	-2.20434	4.28786	4.42041	1.27472
0.5080	-80.4293	7.99944	-3.9565	-1.28091	-1.87955	-4.08226	-2.815	-1.80363	4.7218	1.59339
0.5087	-29.7654	9.23012	-2.72862	-1.5946	-1.58006	-4.08226	-1.2809	-6.36374	7.48456	0.637358
0.5093	45.6184	9.84546	-3.63816	-2.50953	-2.18936	-5.30463	-1.59368	-6.97629	8.99152	0.637358
0.5100	85.5943	9.53779	-4.5477	-2.82322	-2.18936	-5.30463	-1.89156	-1.80363	5.92737	1.27472
0.5107	103.298	10.1531	-2.09194	-0.365973	0.258179	-2.85989	1.16174	2.48424	4.42041	1.59339
0.5113	113.956	11.6915	-0.591202	-0.0784228	0.258179	-2.56006	1.77241	2.48424	5.02319	1.59339
0.5120	117.33	13.5375	-0.909541	-1.90829	-1.58006	-3.78243	-1.59368	0.340307	4.42041	1.59339
0.5127	131.063	15.6143	0.318339	-1.90829	-2.18936	-3.15971	-3.41076	-2.41618	3.51624	1.59339
0.5133	131.362	17.4603	0.955018	-1.90829	-2.18936	-3.78243	-4.63209	-5.17266	3.51624	1.91207
0.5140	115.808	16.5373	-1.50074	-2.50953	-3.40797	-5.90428	-6.77684	-5.47894	3.51624	1.59339
0.5147	98.7006	11.9992	-3.63816	-0.365973	-1.58006	-3.78243	-5.85341	-2.41618	3.51624	1.59339
0.5153	72.4581	7.3841	-5.77558	0.83651	-0.351124	-1.33769	-4.94486	1.25913	3.81763	1.59339
0.5160	49.5593	4.07664	-9.73209	-1.5946	-2.18936	-4.38208	-6.77684	3.67531	3.51624	1.27472
0.5167	26.9889	1.61527	-10.96	-2.50953	-2.79867	-5.60446	-7.38751	6.4318	3.16461	1.27472
0.5173	11.733	0.0769177	-10.6416	-2.19584	-1.87955	-4.38208	-6.16618	10.7197	2.56183	1.27472
0.5180	16.0023	-0.230753	-12.1878	-3.42446	-2.79867	-5.60446	-6.46407	14.0547	1.95905	1.27472
0.5187	14.7782	1.3076	-11.5512	-3.11077	-2.18936	-4.98174	-6.16618	12.251	2.86322	1.59339
0.5193	4.09013	4.38431	-8.23135	-1.90829	-0.0516359	-1.93734	-4.02142	7.04435	3.81763	1.59339
0.5200	0.149275	6.15341	-7.91301	-3.73815	-0.66094	-3.45954	-3.72354	3.40307	3.81763	1.59339
0.5207	-8.0907	7.3841	-7.91301	-5.25433	-0.960428	-4.98174	-3.41076	1.87169	3.81763	1.59339
0.5213	-20.6298	9.23012	-6.09392	-4.94064	0.258179	-3.45954	-2.20434	-0.884797	3.51624	1.59339
0.5220	0.746375	9.53779	-7.59467	-5.85557	-0.66094	-4.38208	-3.11288	-3.94756	2.86322	1.27472
0.5227	40.1251	7.99944	-9.14089	-6.7705	-0.960428	-4.98174	-3.41076	-3.64128	2.86322	1.59339
0.5233	37.3784	7.3841	-6.68513	-5.25433	1.47679	-2.23717	0.551084	-5.17266	2.56183	1.59339
0.5240	8.6878	8.30711	-5.45725	-4.94064	1.47679	-2.85989	2.38307	-9.73277	1.95905	1.59339
0.5247	-6.26955	8.30711	-6.68513	-6.48295	-0.0516359	-4.98174	0.551084	-8.81394	1.05487	1.59339
0.5253	-22.1524	8.61478	-5.45725	-6.48295	-0.0516359	-4.68191	-0.0595767	-2.72245	-0.150696	1.27472
0.5260	-39.528	7.99944	-4.86604	-7.08419	-0.0516359	-4.68191	-0.0595767	3.09679	-0.753479	1.59339
0.5267	-42.2747	5.92266	-6.68513	-7.68544	-0.351124	-4.38208	-2.20434	3.67531	-0.452087	1.59339
0.5273	-33.4376	5.30732	-6.36679	-5.85557	0.557668	-3.15971	-2.815	1.87169	-0.150696	0.956036
0.5280	-17.8831	5.30732	-5.77558	-4.94064	0.557668	-2.85989	-2.20434	3.09679	-0.150696	1.59339
0.5287	-4.74694	4.07664	-8.23135	-6.7705	-0.66094	-4.98174	-4.02142	4.28786	-0.150696	1.59339
0.5293	1.97043	3.76897	-8.82255	-7.99913	-1.27024	-5.30463	-4.3342	3.67531	-0.452087	1.27472
0.5300	16.6292	3.76897	-7.00346	-6.7705	-0.66094	-4.08226	-1.89156	4.28786	-0.452087	1.27472
0.5307	32.1837	2.84595	-7.59467	-6.7705	-1.27024	-4.68191	-1.59368	4.90042	-1.40649	1.59339
0.5313	37.677	4.69198	-6.68513	-6.16926	-0.66094	-3.78243	-1.89156	1.25913	-1.70789	0.956036
0.5320	47.4396	8.30711	-3.63816	-5.25433	0.867483	-2.23717	-0.983015	-4.86639	-0.753479	1.27472
0.5327	42.2448	9.23012	-3.31982	-6.16926	0.867483	-3.15971	-1.2809	-7.28256	-0.150696	1.59339
0.5333	11.4345	8.30711	-4.22936	-7.99913	-0.960428	-4.68191	-2.50222	-7.28256	0.150696	1.91207
0.5340	2.26898	7.99944	-3.31982	-8.60037	-1.27024	-4.68191	-3.11288	-7.89512	-0.150696	1.59339
0.5347	12.9571	9.53779	-2.41028	-9.22775	-0.66094	-5.30463	-4.3342	-9.12022	-0.150696	1.59339
0.5353	-0.17913	11.6915	-1.81908	-10.1427	-1.27024	-5.30463	-4.02142	-10.6516	-0.753479	1.27472
0.5360	-17.8831	12.3068	-0.591202	-10.4564	-0.351124	-3.78243	-1.2809	-10.9579	-0.452087	1.27472
0.5367	-21.824	11.0761	0.045477	-9.82899	1.47679	-3.78243	0.551084	-10.6516	0.753479	1.27472
0.5373	-35.2587	7.69177	-2.72862	-11.0576	0.867483	-5.60446	-1.89156	-11.8767	1.35626	1.27472
0.5380	-50.2161	3.15362	-7.00346	-12.5738	-0.960428	-7.12665	-7.07473	-13.7144	0.452087	1.59339
0.5387	-49.619	0.384588	-9.41375	-12.8875	-1.58006	-7.12665	-10.7387	-16.7431	0.452087	0.637358
0.5393	-41.6776	0.692259	-9.14089	-11.0576	-0.960428	-5.30463	-11.0515	-18.2745	1.65765	0
0.5400	-28.8698	3.15362	-5.77558	-9.82899	-0.0516359	-3.45954	-9.83015	-16.4368	1.35626	1.27472
0.5407	-13.9124	5.61499	-2.72862	-9.82899	0.258179	-3.78243	-9.21949	-11.8767	0.452087	1.59339
0.5413	-18.4802	7.69177	-0.272862	-10.7439	0.557668	-4.98174	-7.68539	-5.17266	0.452087	1.59339
0.5420	-32.8106	8.61478	0.045477	-13.4887	-0.66094	-7.12665	1.16174	1.25913	0.753479	1.91207
0.5427	-36.7813	7.69177	-0.591202	-14.7173	-1.27024	-7.42648	14.8942	3.98159	0.452087	1.91207
0.5433	-46.2454	4.99965	0.045477	-12.8875	0.258179	-4.38208	22.8328	4.59414	-0.753479	1.59339
0.5440	-48.6935	1.61527	-1.81908	-11.3713	2.08609	-1.93734	22.8328	5.20669	-1.40649	1.27472
0.5447	-35.5573	0.0769177	-3.9565	-10.4564	2.69539	-1.0148	17.9475	8.57573	-1.40649	1.27472
0.5453	-33.4376	-1.15376	-4.5477	-10.1427	2.39591	-0.115318	12.4515	7.96318	-1.40649	1.27472
0.5460	-41.379	-2.99979	-6.36679	-11.6589	0.258179	-2.23717	7.87901	1.87169	-1.70789	1.27472
0.5467	-38.9309	-4.76889	-8.23135	-13.2012	-1.27024	-4.38208	3.90227	3.40307	-1.1051	1.27472
0.5473	-17.2562	-5.69191	-6.68513	-11.3713	1.16697	-2.85989	2.38307	9.18828	-0.150696	1.27472
0.5480	30.0341	-4.46122	-4.22936	-10.1427	2.39591	-2.85989	-0.372354	5.51297	-1.1051	1.27472
0.5487	64.5166	-2.38445	-3.63816	-11.0576	0.557668	-5.30463	-5.24275	0.952859	-2.00928	1.27472
0.5493	39.7967	-1.76911	-2.72862	-11.0576	0.867483	-4.98174	-8.29605	5.81924	-1.70789	1.59339
0.5500	-1.70173	-2.99979	-1.50074	-10.1427	2.39591	-4.38208	-11.96	11.0259	-0.753479	1.27472
0.5507	-3.22434	-3.84588	-1.81908	-11.0576	1.16697	-5.90428	-19.5858	10.7197	-0.452087	1.59339
0.5513	13.5542	-2.69212	-1.50074	-11.3713	0.258179	-5.60446	-27.5244	8.26945	-0.452087	1.59339
0.5520	12.6585	0.0769177	0.318339	-11.0576	1.16697	-2.85989	-29.9671	4.59414	-0.753479	1.27472
0.5527	2.89593	2.53828	0.955018	-11.9725	1.47679	-2.85989	-24.4711	-0.578521	0.150696	1.27472
0.5533	-0.47768	1.92294	-0.272862	-12.8875	0.557668	-4.68191	-15.9368	-3.33501	0.753479	1.59339
0.5540	-5.67245	-1.15376	-1.81908	-11.6589	0.867483	-4.38208	-8.90671	-3.02873	0.150696	1.27472
0.5547	-14.211	-3.84588	-3.63816	-10.7439	1.16697	-4.08226	-6.46407	-3.02873	-0.150696	1.59339
0.5553	-9.31476	-5.07657	-6.09392	-11.6589	-0.0516359	-5.90428	-8.60883	-3.33501	-0.150696	1.59339
0.5560	6.53824	-6.92259	-6.36679	-10.7439	0.258179	-4.08226	-7.99817	-2.41618	-0.150696	1.27472
0.5567	32.1837	-7.23026	-5.45725	-9.54144	0.867483	-2.85989	-5.85341	-2.1099	0.150696	1.27472
0.5573	44.3944	-4.46122	-4.86604	-10.1427	-0.0516359	-4.98174	-7.07473	-2.72245	-0.150696	1.59339
0.5580	9.91186	-2.69212	-3.63816	-9.82899	-0.0516359	-5.30463	-7.68539	0.340307	-0.452087	1.59339
0.5587	-28.8698	-4.15355	-3.9565	-9.82899	0.258179	-3.45954	-6.16618	5.81924	-0.452087	1.59339
0.5593	-49.619	-4.46122	-5.13891	-10.4564	-0.351124	-3.15971	-5.24275	4.28786	-0.150696	1.59339
0.5600	-79.5038	-0.230753	-2.09194	-9.54144	0.867483	-1.63752	-2.50222	-3.94756	0.753479	1.59339
0.5607	-109.717	3.76897	2.1829	-8.91406	2.69539	-0.115318	1.16174	-7.89512	1.95905	1.59339
0.5613	-132.616	4.69198	2.45576	-10.4564	1.47679	-2.56006	0.848967	-7.28256	1.95905	1.59339
0.5620	-161.904	4.99965	1.54622	-12.5738	-0.66094	-5.60446	-1.89156	-6.36374	1.35626	1.91207
0.5627	-191.818	6.76875	4.32032	-11.3713	1.16697	-4.38208	-1.59368	-4.86639	1.65765	1.59339
0.5633	-161.904	8.61478	6.1394	-10.1427	2.39591	-3.45954	0.238307	-7.58884	2.26044	1.59339
0.5640	-72.8163	7.69177	5.22986	-10.4564	1.7866	-2.85989	0.238307	-13.1018	1.65765	1.59339
0.5647	1.97043	4.99965	5.50272	-9.54144	2.39591	0.507399	4.21505	-11.5704	1.65765	1.59339
0.5653	78.5783	2.53828	2.7741	-10.7439	1.47679	-0.714972	11.2302	-7.58884	1.95905	1.59339
0.5660	155.455	1.92294	0.045477	-13.8024	-1.87955	-4.98174	14.2835	-9.12022	1.95905	1.27472
0.5667	150.887	2.84595	2.1829	-12.8875	-1.87955	-4.08226	15.8027	-9.4265	1.95905	1.27472
0.5673	80.1009	2.23061	3.3653	-10.7439	0.557668	-1.93734	18.5581	-3.94756	2.26044	1.59339
0.5680	29.1385	-1.76911	-0.591202	-11.6589	-0.0516359	-2.56006	17.6347	1.56541	1.35626	1.59339
0.5687	30.6611	-4.46122	-3.04696	-12.5738	-2.48885	-4.08226	15.192	2.17796	1.35626	0.637358
0.5693	69.4128	-3.84588	-1.81908	-12.5738	-3.09815	-3.78243	14.2835	3.09679	2.26044	0.637358
0.5700	100.85	-3.53821	-1.1824	-13.4887	-3.40797	-4.68191	11.8409	6.73807	1.95905	1.27472
0.5707	87.4154	-5.07657	-2.41028	-13.2012	-3.09815	-6.527	8.48967	8.57573	1.05487	1.27472
0.5713	46.8126	-7.8456	-3.9565	-10.7439	-1.27024	-6.527	9.711	7.35063	0.452087	1.59339
0.5720	19.0475	-9.38395	-5.45725	-9.82899	-0.0516359	-5.60446	8.78756	3.09679	-0.150696	1.59339
0.5727	0.447825	-8.46094	-5.45725	-10.7439	-0.351124	-4.98174	-0.983015	-1.49735	0.452087	1.59339
0.5733	-6.5681	-6.92259	-4.22936	-11.0576	-0.66094	-5.60446	-11.96	-2.72245	1.05487	1.59339
0.5740	-5.04549	-6.30725	-3.31982	-10.4564	-0.351124	-5.30463	-17.456	-3.02873	0.753479	1.59339
0.5747	-17.2562	-5.99958	-3.9565	-10.7439	0.557668	-4.38208	-16.5474	-5.78521	1.05487	1.91207
0.5753	-29.1683	-6.30725	-5.77558	-12.5738	-0.351124	-4.68191	-13.792	-9.4265	1.35626	1.27472
0.5760	-22.1524	-5.69191	-3.04696	-11.3713	0.867483	-1.93734	-9.83015	-10.6516	2.26044	0.318679
0.5767	6.83679	-3.30746	0.636679	-9.54144	2.39591	-0.115318	-5.55552	-9.12022	2.86322	0.956036
0.5773	31.2582	-0.538424	1.22788	-11.0576	0.867483	-2.56006	-4.3342	-8.81394	2.26044	1.59339
0.5780	34.6318	1.3076	1.86456	-11.3713	-0.0516359	-2.56006	-4.63209	-9.73277	2.26044	1.59339
0.5787	30.9596	0.692259	1.86456	-10.4564	0.258179	-0.714972	-4.3342	-10.039	2.26044	1.59339
0.5793	11.733	-0.846094	-0.591202	-10.7439	-0.351124	-1.93734	-4.3342	-8.50767	2.26044	1.59339
0.5800	-4.74694	-2.69212	-1.50074	-9.82899	-0.0516359	-1.0148	-1.89156	-2.1099	2.56183	1.59339
0.5807	2.26898	-4.76889	-1.1824	-7.39788	2.08609	1.40688	2.07029	8.26945	2.86322	1.59339
0.5813	2.89593	-6.92259	-4.22936	-8.31282	0.867483	-0.714972	2.07029	12.8636	2.86322	1.27472
0.5820	1.67188	-8.15327	-6.68513	-9.54144	-1.58006	-2.56006	-0.983015	11.9448	2.56183	1.27472
0.5827	21.4956	-7.23026	-4.86604	-7.99913	-0.960428	-1.33769	-3.41076	9.49456	2.26044	1.59339
0.5833	38.5726	-6.61492	-4.86604	-7.99913	-1.27024	-2.56006	-4.63209	8.26945	1.95905	1.59339
0.5840	43.1703	-6.61492	-4.86604	-7.99913	-1.58006	-2.56006	-3.72354	10.4134	2.86322	1.59339
0.5847	45.6184	-4.46122	-1.50074	-5.56802	0.557668	1.10705	0.551084	11.3322	4.11902	1.27472
0.5853	43.7674	-3.84588	-1.50074	-6.16926	0.258179	0.184509	0.848967	9.49456	4.11902	1.59339
0.5860	35.826	-5.38424	-4.22936	-7.08419	-1.58006	-1.93734	-1.2809	9.49456	4.11902	1.27472
0.5867	21.7941	-6.92259	-4.86604	-6.16926	-1.87955	-1.63752	-0.983015	10.4134	4.7218	1.27472
0.5873	9.91186	-7.8456	-5.13891	-6.16926	-2.48885	-3.15971	-0.372354	9.49456	4.7218	1.91207
0.5880	9.91186	-5.99958	-5.13891	-6.48295	-2.79867	-3.78243	-0.670237	6.12552	4.7218	1.59339
0.5887	13.8826	-3.30746	-3.31982	-4.94064	-1.87955	-1.93734	0.238307	3.09679	5.62598	1.59339
0.5893	7.7623	-2.38445	-2.09194	-4.65309	-1.87955	-1.33769	1.45963	1.56541	7.13294	1.59339
0.5900	-1.70173	-3.30746	-3.31982	-5.25433	-2.48885	-3.15971	1.45963	1.56541	7.78595	1.59339
0.5907	-5.34404	-4.15355	-3.31982	-4.94064	-2.18936	-3.45954	1.77241	3.98159	7.13294	1.59339
0.5913	-7.4936	-4.76889	-3.9565	-5.85557	-3.09815	-3.45954	1.45963	4.90042	7.13294	1.59339
0.5920	-8.0907	-5.07657	-5.13891	-7.68544	-4.01727	-4.68191	0.848967	2.17796	7.13294	1.59339
0.5927	-6.8965	-4.15355	-4.22936	-6.7705	-2.48885	-3.78243	2.99373	0.646583	6.53015	1.27472
0.5933	-4.44839	-3.30746	-3.04696	-4.3394	-1.27024	-1.93734	6.34491	1.56541	6.22876	1.27472
0.5940	0.149275	-2.38445	-2.72862	-4.0257	-1.87955	-1.93734	7.26835	0.646583	5.62598	1.59339
0.5947	1.04492	-0.846094	-2.41028	-5.25433	-2.48885	-2.23717	6.04703	-1.80363	4.7218	1.59339
0.5953	1.67188	0.0769177	-2.09194	-5.25433	-2.48885	-1.63752	4.82571	-3.33501	4.11902	1.59339
0.5960	6.53824	0.384588	-1.81908	-3.11077	-1.87955	-0.115318	5.43637	-4.56011	2.56183	1.59339
0.5967	8.38925	1.61527	-0.591202	-0.679664	-0.66094	0.807226	6.95557	-4.86639	1.05487	1.27472
0.5973	8.98635	1.3076	0.045477	-0.0784228	0.258179	1.10705	8.48967	-3.33501	1.35626	1.59339
0.5980	12.9571	-0.846094	-1.81908	0.54896	-0.351124	1.40688	8.78756	-2.72245	1.05487	1.91207
0.5987	21.7941	-2.38445	-4.5477	-1.28091	-2.48885	-0.415145	6.34491	-5.47894	0.150696	0.637358
0.5993	29.437	-1.15376	-4.86604	-3.11077	-2.79867	-1.63752	4.82571	-7.58884	1.65765	0
0.6000	28.213	0.692259	-2.41028	-2.50953	-1.87955	0.184509	6.34491	-7.28256	3.16461	0.956036
0.6007	22.4211	0.99993	-1.50074	-0.993356	-1.27024	1.72977	7.87901	-5.78521	2.86322	1.59339
0.6013	7.7623	-0.846094	-3.04696	-0.679664	-0.960428	1.72977	8.48967	-2.41618	2.56183	1.59339
0.6020	-14.211	-2.69212	-4.22936	-0.365973	-0.351124	1.72977	8.1769	1.56541	2.26044	1.27472
0.6027	-24.8991	-2.99979	-5.13891	-0.993356	-0.960428	-0.415145	7.87901	2.48424	1.95905	1.27472
0.6033	-22.1524	-2.69212	-5.77558	-2.50953	-2.18936	-2.23717	6.65769	0.952859	1.65765	1.27472
0.6040	-22.451	-1.15376	-3.31982	-1.28091	-1.27024	-0.115318	7.26835	-0.578521	1.95905	1.59339
0.6047	-25.4962	0.99993	0.045477	0.235268	0.258179	2.95214	8.48967	-1.49735	1.95905	1.59339
0.6053	-24.5707	0.99993	-1.1824	-0.365973	-0.351124	2.0296	7.26835	-3.33501	1.35626	1.27472
0.6060	-25.7947	-0.230753	-3.63816	-0.993356	-0.960428	0.807226	6.95557	-4.86639	1.05487	1.27472
0.6067	-31.6164	-1.15376	-3.63816	-0.0784228	-0.0516359	2.32942	8.1769	-4.86639	0.753479	1.59339
0.6073	-31.6164	-2.38445	-5.45725	-0.365973	-1.27024	0.184509	7.87901	-5.78521	-0.753479	1.59339
0.6080	-27.0188	-2.69212	-7.91301	-0.679664	-2.79867	-1.0148	8.1769	-4.25383	-2.00928	1.27472
0.6087	-23.675	-2.69212	-6.68513	2.06513	-1.58006	2.32942	9.39822	0.646583	-2.61206	1.59339
0.6093	-18.1817	-2.38445	-5.13891	3.29376	-0.351124	3.25197	9.10034	1.25913	-2.61206	1.59339
0.6100	-13.2855	-1.46144	-5.77558	1.75144	-0.351124	1.40688	8.78756	-0.578521	-1.40649	1.27472
0.6107	-12.9869	-0.846094	-4.5477	2.06513	0.557668	3.25197	10.3217	-0.884797	-0.753479	1.27472
0.6113	-10.2403	-0.538424	-3.63816	2.66638	0.557668	3.5518	10.0089	-2.1099	-1.40649	1.27472
0.6120	-2.29883	0.692259	-4.5477	1.1502	-1.58006	0.184509	7.26835	-4.86639	-2.31067	1.27472
0.6127	1.04492	2.23061	-3.04696	1.46389	-1.27024	1.10705	7.56624	-4.56011	-1.70789	1.59339
0.6133	1.04492	2.84595	-1.81908	2.06513	-0.351124	1.72977	8.1769	-1.80363	-1.70789	1.59339
0.6140	2.56753	2.23061	-3.63816	0.235268	-2.18936	-2.23717	6.04703	1.87169	-2.00928	1.27472
0.6147	-3.22434	1.3076	-4.5477	0.83651	-2.18936	-0.415145	4.82571	5.81924	0.753479	1.59339
0.6153	-14.211	0.0769177	-3.9565	3.29376	-0.960428	2.95214	6.04703	8.26945	3.16461	1.59339
0.6160	-15.435	-0.846094	-4.86604	1.46389	-1.58006	0.507399	6.34491	7.35063	5.02319	1.59339
0.6167	-9.94171	0.0769177	-3.9565	-0.0784228	-0.66094	0.184509	6.34491	4.90042	17.8323	1.27472
0.6173	-8.41911	1.61527	-2.09194	-1.28091	0.557668	2.62925	7.26835	2.79052	36.167	1.59339
0.6180	-9.64316	0.99993	-3.9565	-3.42446	-0.960428	2.0296	6.95557	1.25913	40.1353	1.91207
0.6187	-9.94171	0.384588	-5.77558	-2.19584	-1.58006	1.72977	6.34491	0.0340307	12.9598	1.59339
0.6193	-10.8374	0.99993	-4.5477	1.46389	-0.0516359	3.85162	7.87901	0.340307	-7.48456	1.27472
0.6200	-11.1658	1.61527	-4.22936	4.20869	-0.351124	3.25197	9.39822	0.0340307	16.9282	1.27472
0.6207	-10.5388	2.23061	-3.9565	7.86842	-0.960428	0.807226	11.2302	-1.19107	7.78595	1.59339
0.6213	-11.1658	3.76897	-2.09194	10.012	0.557668	-3.45954	12.1387	-1.19107	-38.0256	1.59339
0.6220	-9.94171	3.15362	-2.41028	5.72486	0.867483	-10.4939	10.0089	-1.80363	-53.8989	1.59339
0.6227	-7.79215	1.92294	-4.5477	-0.679664	-0.960428	-7.12665	6.34491	-3.02873	-37.4228	1.59339
0.6233	-8.41911	2.84595	-4.22936	-2.19584	-0.351124	6.91908	5.43637	-2.72245	2.26044	1.59339
0.6240	-9.31476	4.07664	-2.09194	-1.28091	0.867483	13.6306	5.12359	-2.1099	26.3718	1.27472
0.6247	-8.41911	3.76897	-2.09194	-1.5946	-0.0516359	9.34076	2.99373	-2.1099	26.0704	1.27472
0.6253	-7.19505	3.46129	-2.72862	-8.60037	-0.351124	4.77417	0.551084	-2.41618	-7.78595	1.59339
0.6260	-5.971	3.46129	-2.72862	-21.7231	1.47679	2.62925	-0.983015	-2.1099	-54.2003	1.59339
0.6267	-5.04549	3.46129	-3.04696	-29.0687	2.69539	1.40688	-0.983015	-1.49735	-47.7706	1.27472
0.6273	-3.82144	2.84595	-3.04696	-22.6642	3.914	0.807226	1.16174	-2.1099	16.6268	1.59339
0.6280	-4.14984	2.53828	-2.09194	-8.60037	5.44242	1.10705	3.60439	-2.72245	69.4205	1.27472
0.6287	-4.44839	3.46129	-1.1824	5.72486	5.75224	2.62925	5.43637	-2.41618	126.785	0.318679
0.6293	-2.92579	4.07664	-1.1824	19.1613	3.61451	4.47434	9.711	-2.72245	422.501	0.318679
0.6300	-1.70173	3.46129	-2.09194	29.5393	-0.960428	4.77417	13.3601	-2.72245	642.517	1.59339
0.6307	-2.29883	3.15362	-2.09194	25.2521	-5.23588	4.77417	12.7494	-3.02873	253.722	1.91207
0.6313	-2.29883	3.76897	-2.41028	-0.679664	-7.37361	3.5518	10.6195	-4.25383	-238.803	1.59339
0.6320	-1.70173	4.38431	-2.72862	-25.0953	-7.98291	2.95214	9.39822	-4.86639	-368.2	1.59339
0.6327	-3.52289	5.61499	-0.591202	-38.218	-5.5457	5.07399	10.0089	-3.33501	-336.454	1.27472
0.6333	-4.74694	6.46108	-0.272862	-66.8947	-3.70746	4.77417	10.6195	-3.33501	-225.692	1.27472
0.6340	-3.52289	5.92266	-2.09194	-99.8584	-3.70746	1.72977	8.1769	-4.56011	-107.898	1.27472
0.6347	-2.92579	5.61499	-2.41028	-80.9323	-2.48885	2.32942	6.34491	-3.33501	-57.8672	1.59339
0.6353	-1.70173	5.30732	-2.41028	-44.9363	-2.18936	1.40688	4.51293	-1.80363	-30.3903	1.27472
0.6360	1.04492	4.99965	-2.72862	-93.1402	-2.79867	0.507399	3.29161	-1.49735	-8.38873	1.27472
0.6367	1.04492	5.61499	0.045477	-158.754	0.867483	5.07399	6.65769	0.0340307	18.7365	1.27472
0.6373	0.746375	5.92266	0.955018	-144.115	2.39591	8.11839	9.39822	1.56541	34.3084	1.59339
0.6380	2.89593	4.69198	-1.81908	-58.3466	-0.351124	5.69671	7.26835	1.56541	13.864	1.27472
0.6387	2.26898	4.07664	-2.09194	60.6731	-1.58006	4.15145	5.43637	0.952859	11.7543	1.27472
0.6393	1.34347	4.38431	-1.1824	85.3763	-3.09815	4.77417	5.12359	-0.578521	-61.8355	1.27472
0.6400	1.67188	4.69198	-1.81908	-4.0257	-4.62658	3.25197	4.51293	-2.41618	-266.28	1.59339
0.6407	0.149275	4.69198	-0.909541	-53.7719	-3.09815	2.0296	5.73425	-1.80363	-322.137	1.27472
0.6413	-1.40318	4.69198	0.636679	-46.4524	-0.960428	0.807226	5.73425	-0.578521	-207.709	1.27472
0.6420	1.67188	4.07664	-0.909541	-68.7245	-2.48885	-2.85989	1.77241	-1.80363	-183.296	1.27472
0.6427	4.09013	2.84595	-2.09194	-101.375	-3.40797	-4.38208	-0.372354	-1.80363	-233.327	1.27472
0.6433	4.41854	2.53828	-1.1824	-79.4162	-2.48885	-3.78243	-0.372354	-0.578521	-224.487	1.59339
0.6440	4.41854	3.46129	-1.1824	-29.0687	-4.01727	-3.15971	-1.2809	-1.19107	73.9917	1.59339
0.6447	4.41854	4.07664	-0.909541	13.0443	-5.84518	1.10705	-0.0595767	-0.578521	518.042	1.59339
0.6453	5.31419	4.69198	0.955018	21.9061	-5.5457	5.37382	2.99373	0.340307	406.326	1.27472
0.6460	7.7623	4.69198	-0.272862	-57.1441	-6.45449	0.507399	1.77241	-1.19107	-72.1833	1.27472
0.6467	7.7623	4.69198	-1.50074	-153.578	-6.155	-3.15971	-0.372354	-2.1099	-126.183	1.27472
0.6473	5.01564	5.30732	-0.272862	-175.85	-2.18936	-1.0148	1.77241	-0.884797	95.3402	1.59339
0.6480	5.01564	5.30732	-1.1824	-144.115	0.557668	-2.56006	1.16174	-0.578521	181.388	1.59339
0.6487	5.94114	4.99965	-1.81908	-72.0967	2.08609	-2.23717	-0.0595767	-0.884797	232.072	1.59339
0.6493	4.41854	4.99965	0.045477	56.9872	3.00521	4.77417	1.77241	0.0340307	229.007	1.59339
0.6500	4.09013	4.69198	1.22788	172.975	1.7866	10.2633	3.29161	0.340307	256.484	1.59339
0.6507	5.31419	3.76897	-0.272862	199.821	-1.58006	7.21891	1.77241	0.0340307	402.961	1.27472
0.6513	5.01564	2.84595	-1.1824	251.711	-6.7643	-1.63752	-0.670237	0.0340307	236.341	1.59339
0.6520	4.41854	2.84595	-1.81908	285.877	-10.7299	-10.171	-4.02142	-0.272245	-99.9616	1.59339
0.6527	4.09013	3.76897	-1.50074	166.256	-9.51133	-11.0936	-4.02142	-0.578521	-141.453	1.59339
0.6533	2.89593	4.99965	0.318339	52.125	-6.7643	-3.45954	-1.2809	0.0340307	-86.2483	1.27472
0.6540	2.26898	5.92266	0.955018	35.3425	-6.155	4.15145	0.551084	0.952859	-149.993	1.27472
0.6547	3.19448	6.15341	-0.272862	29.2256	-5.23588	6.59619	0.238307	0.646583	-218.358	1.59339
0.6553	3.79158	7.07642	-2.09194	16.7041	-2.18936	6.59619	0.238307	-0.578521	-159.486	1.59339
0.6560	4.09013	7.07642	-3.04696	-4.0257	0.557668	5.07399	2.07029	-1.19107	-7.48456	1.27472
0.6567	4.41854	6.15341	-3.31982	-32.1011	0.557668	1.10705	3.60439	-0.272245	110.008	1.27472
0.6573	3.79158	5.92266	-2.72862	-15.946	0.258179	-0.115318	5.12359	0.646583	170.136	1.59339
0.6580	2.26898	6.46108	-1.1824	22.2198	3.00521	0.807226	4.82571	0.646583	239.104	1.59339
0.6587	2.26898	6.15341	-1.1824	28.9119	4.22382	0.507399	1.77241	0.340307	251.31	0.637358
0.6593	3.19448	6.15341	-2.09194	29.2256	1.7866	4.77417	-1.2809	-0.272245	217.102	0
0.6600	3.49303	6.46108	-2.09194	52.4126	-0.0516359	13.3077	-2.50222	0.340307	298.277	0.956036
0.6607	2.89593	6.76875	-1.50074	126.287	1.7866	16.3752	-1.59368	1.25913	290.039	1.59339
0.6613	1.67188	7.99944	-1.1824	196.763	2.08609	17.8974	0.551084	0.952859	-121.009	1.59339
0.6620	-0.17913	8.92245	-1.50074	158.937	1.16697	19.4196	1.77241	-0.578521	-542.153	1.59339
0.6627	-0.77623	9.53779	-0.909541	62.503	3.00521	15.4526	3.60439	-0.272245	-418.884	1.59339
0.6633	-0.47768	8.92245	-0.272862	5.72486	3.00521	9.66365	3.60439	0.340307	-45.3092	1.59339
0.6640	-0.77623	9.23012	-0.272862	-11.0576	-0.351124	9.34076	1.16174	-1.19107	-12.3571	1.27472
0.6647	-1.70173	10.7685	-1.81908	-30.8986	4.22382	8.44128	-3.41076	-2.1099	-221.121	1.27472
0.6653	-3.52289	11.0761	-3.9565	-73.2992	15.5114	1.40688	-7.99817	-1.80363	-294.661	1.59339
0.6660	-6.5681	9.53779	-3.31982	-117.556	21.3153	-10.171	-8.60883	-1.49735	-216.249	1.59339
0.6667	-6.5681	7.99944	-1.1824	-121.529	21.9246	-20.5497	-5.24275	-0.884797	-77.3572	1.27472
0.6673	-0.47768	6.46108	-1.1824	-93.1402	21.6148	-25.1393	-3.72354	-0.884797	59.0225	1.27472
0.6680	6.23969	4.07664	-2.41028	-85.8207	16.4305	-28.1837	-4.02142	-1.80363	209.769	1.27472
0.6687	8.98635	3.15362	-2.41028	-49.1972	6.97085	-31.8508	-4.02142	-2.41618	292.199	1.27472
0.6693	9.58345	3.15362	-0.909541	68.5938	-3.70746	-32.7734	-2.20434	-2.72245	259.247	1.59339
0.6700	9.91186	4.99965	0.318339	171.746	-11.9485	-28.1837	-0.372354	-0.884797	261.658	1.27472
0.6707	8.06085	9.23012	1.54622	199.821	-13.477	-16.5827	0.238307	4.28786	-85.9469	1.27472
0.6713	4.71709	15.0759	1.22788	172.06	-13.7868	-6.527	-0.0595767	9.18828	-691.995	1.59339
0.6720	2.89593	20.8447	-2.09194	94.8393	-15.9142	-7.12665	-0.983015	9.18828	-674.916	1.59339
0.6727	-0.47768	24.5367	-3.63816	9.09705	-13.1672	-15.9831	-0.670237	6.73807	-205.851	1.59339
0.6733	-4.14984	24.5367	-2.09194	-49.1972	-11.0398	-24.2168	0.551084	4.90042	156.975	1.59339
0.6740	-2.59738	21.7677	-1.1824	-63.8623	-16.224	-24.5166	0.238307	5.20669	374.58	1.91207
0.6747	1.04492	15.922	-0.272862	-13.4887	-12.5579	-9.87122	1.77241	5.81924	377.644	1.59339
0.6753	1.34347	9.53779	0.318339	27.3957	0.557668	3.5518	6.04703	4.59414	297.674	1.27472
0.6760	2.26898	7.3841	-1.81908	-13.4887	1.7866	2.0296	10.6195	1.25913	455.152	1.59339
0.6767	3.19448	7.69177	-4.22936	-50.7396	0.258179	-1.0148	14.2835	-3.02873	460.627	1.27472
0.6773	1.97043	6.46108	-4.5477	-62.9474	2.08609	-1.63752	13.9707	-4.56011	-155.217	0.318679
0.6780	2.89593	4.38431	-4.5477	-127.019	-0.66094	-5.90428	9.10034	-2.1099	-574.201	1.27472
0.6787	4.09013	4.38431	-5.13891	-156.636	-0.351124	-6.82683	4.51293	0.646583	-279.691	1.91207
0.6793	1.34347	8.61478	-3.31982	-113.582	4.22382	-2.56006	-0.372354	2.48424	76.453	1.27472
0.6800	-2.00028	13.2298	-3.04696	-87.3369	1.47679	-2.56006	-5.55552	1.25913	189.676	1.27472
0.6807	-2.92579	16.5373	-3.04696	-60.8038	-6.45449	-8.64885	-8.60883	-0.578521	290.341	1.59339
0.6813	-1.40318	18.3833	0.318339	-40.3616	-11.0398	-14.4609	-9.21949	0.646583	392.914	1.27472
0.6820	2.89593	14.7682	0.318339	-9.22775	-11.9485	-16.9056	-7.38751	0.646583	310.182	1.59339
0.6827	5.01564	7.99944	-3.31982	56.6997	-10.1206	-12.6158	-4.02142	-3.33501	103.578	1.59339
0.6833	3.49303	4.38431	-3.9565	38.6886	-8.90203	-4.08226	-1.2809	-5.47894	-12.0557	1.27472
0.6840	5.01564	5.30732	-1.1824	-51.0271	-8.59221	6.59619	-0.0595767	-1.49735	-23.9606	1.27472
0.6847	11.733	6.15341	-2.41028	-59.8889	-16.5338	16.9748	-0.670237	0.340307	3.51624	1.27472
0.6853	15.4052	5.92266	-6.09392	3.895	-14.3961	22.4639	-2.50222	-4.56011	53.8486	1.59339
0.6860	11.4345	7.07642	-6.09392	28.6243	39.3156	18.497	-5.55552	-8.20139	67.2606	1.91207
0.6867	4.71709	8.30711	-5.45725	30.4542	99.7399	8.74111	-7.68539	-9.73277	51.0859	1.59339
0.6873	1.04492	5.30732	-3.04696	41.7471	106.453	2.62925	-6.46407	-7.58884	23.6592	1.27472
0.6880	2.56753	-0.846094	0.318339	1.1502	88.4523	1.40688	-5.24275	-3.33501	-129.85	1.59339
0.6887	6.83679	0.692259	1.22788	-98.3422	71.0613	0.184509	-5.55552	-4.86639	-359.359	0.637358
0.6893	0.149275	10.4608	-1.1824	-193.547	37.4877	1.72977	-1.59368	-8.81394	-202.184	0.637358
0.6900	-18.1817	15.3066	-7.91301	-260.39	-16.224	4.47434	5.73425	-12.183	366.342	1.91207
0.6907	-23.0481	13.8452	-8.50421	-286.322	-63.5225	-0.115318	10.3217	-15.518	586.709	1.91207
0.6913	-8.0907	7.69177	0.636679	-243.607	-92.2114	-6.20411	12.7494	-15.8243	417.628	1.59339
0.6920	1.34347	0.99993	6.1394	-178.281	-107.774	-7.42648	19.7795	-15.518	625.739	1.59339
0.6927	-10.5388	-1.76911	4.91152	-139.227	-111.441	-9.87122	28.9245	-13.4081	1045.38	1.59339
0.6933	-28.8698	-3.84588	2.45576	-90.1078	-114.797	-19.0275	29.8479	-5.47894	781.71	1.59339
0.6940	-30.3924	-4.15355	1.22788	-31.1861	-109.912	-26.0388	25.5733	4.90042	-43.8023	1.27472
0.6947	-14.211	3.76897	1.54622	-27.5264	-86.7173	-20.5497	17.9475	7.6569	-401.454	1.27472
0.6953	-4.74694	16.2296	-0.272862	-87.9642	-59.8667	-8.64885	4.21505	3.67531	-161.596	1.27472
0.6960	-11.4643	23.6137	-1.1824	-114.21	-34.8439	2.62925	-8.29605	2.79052	10.7999	1.59339
0.6967	-10.8374	23.306	5.22986	-74.5278	-19.2705	8.74111	-15.9368	7.96318	136.229	1.59339
0.6973	-1.07478	17.1526	9.18636	-49.5109	-15.6147	9.96348	-21.7306	16.8112	340.422	1.59339
0.6980	3.49303	9.53779	4.00198	-16.2335	-7.37361	15.4526	-24.4711	22.3241	314.151	1.27472
0.6987	8.6878	6.76875	-2.09194	12.1294	3.61451	19.7194	-21.4178	19.2614	62.9909	1.91207
0.6993	14.7782	4.38431	-5.45725	29.8268	14.2928	16.3752	-16.2346	11.6385	-169.231	1.91207
0.7000	17.8234	2.53828	-2.41028	177.549	34.1313	13.9304	-11.6621	8.57573	-233.93	1.27472
0.7007	19.973	5.61499	2.45576	260.259	50.6135	9.66365	-6.77684	8.57573	-160.391	1.59339
0.7013	16.0023	7.07642	-0.909541	110.393	49.3846	-3.15971	-5.85341	9.49456	-102.724	1.59339
0.7020	10.8075	3.76897	-4.86604	-21.4356	40.844	-15.0605	-8.60883	12.5573	-53.2459	1.27472
0.7027	7.46375	-0.230753	-5.13891	-77.2726	33.522	-22.0719	-10.128	11.9448	-32.5001	1.27472
0.7033	5.31419	-2.69212	-5.77558	-106.89	25.5804	-24.5166	-10.4408	10.1071	49.5789	1.27472
0.7040	7.7623	-5.07657	-4.22936	-108.093	20.0967	-21.1724	-12.2728	9.49456	178.072	1.27472
0.7047	15.0768	-9.07628	-2.72862	-169.132	14.2928	-21.4722	-15.9368	3.40307	-108.501	1.27472
0.7053	22.4211	-11.5376	-3.31982	-275.63	6.97085	-26.6615	-19.5858	-5.47894	-623.931	1.27472
0.7060	21.7941	-6.92259	-0.591202	-338.813	5.44242	-17.5053	-18.9752	-6.97629	-753.931	1.27472
0.7067	13.8826	-1.46144	2.45576	-324.174	8.79876	1.72977	-11.96	-6.67001	-580.631	1.59339
0.7073	8.38925	-2.38445	-1.1824	-232.001	14.9021	12.1084	-6.16618	-6.05746	-295.565	1.59339
0.7080	11.4345	-3.53821	-6.09392	-122.13	21.0055	15.4526	-5.85341	-2.1099	105.437	1.27472
0.7087	19.973	-2.99979	-5.77558	-48.8835	23.453	16.675	-7.38751	-2.1099	249.753	1.59339
0.7093	24.2423	-3.84588	-4.22936	29.5393	22.5339	15.1528	-8.90671	-5.78521	-31.5959	1.27472
0.7100	26.0634	-3.84588	-3.31982	81.4029	26.2001	13.9304	-10.128	-8.20139	-354.185	1.27472
0.7107	28.213	-1.46144	0.636679	88.4348	32.6029	16.9748	-8.90671	-15.518	-404.518	1.27472
0.7113	28.213	-0.846094	0.318339	205.311	35.3499	20.3421	-9.83015	-17.6619	-157.025	1.59339
0.7120	30.0341	-1.46144	-3.63816	376.508	35.3499	23.3865	-14.4027	-3.94756	78.5628	1.27472
0.7127	36.1544	0.692259	-4.22936	377.423	31.3843	25.8312	-15.3261	4.90042	94.4361	1.27472
0.7133	44.9915	3.46129	-3.31982	308.777	24.9711	25.2085	-12.5707	-7.89512	-18.7867	1.27472
0.7140	51.7088	4.99965	-0.909541	350.262	22.8437	29.4984	-9.83015	-25.8973	-226.898	1.59339
0.7147	44.066	7.69177	4.00198	385.37	24.6716	42.2986	-7.38751	-26.2036	-345.947	1.27472
0.7153	27.2875	9.84546	5.50272	319.155	24.9711	50.8552	-6.16618	-14.6332	-140.248	1.59339
0.7160	-3.82144	6.46108	5.22986	244.078	21.9246	51.1551	-7.68539	-1.80363	277.23	1.91207
0.7167	-55.7094	-1.76911	4.91152	209.598	20.3962	54.8222	-8.60883	6.4318	566.214	1.27472
0.7173	-86.8482	-5.69191	1.86456	223.008	20.0967	59.3888	-7.07473	3.40307	481.423	0.956036
0.7180	-77.9812	-3.53821	-2.41028	214.173	19.7869	54.2225	-7.38751	-3.02873	146.627	1.27472
0.7187	-61.8297	-1.76911	-1.81908	114.68	21.6148	44.1437	-8.90671	-7.89512	-162.802	0.956036
0.7193	-56.3364	-2.07678	0.045477	53.04	28.6373	39.5541	-7.38751	-13.1018	-359.058	0
0.7200	-60.2772	0.0769177	1.22788	51.2101	35.0504	37.1324	-2.815	-17.3556	-577.567	0.956036
0.7207	-67.323	5.30732	11.915	37.7737	32.6029	29.4984	4.21505	-15.518	-801.25	1.59339
0.7213	-65.1734	13.5375	26.2857	75.312	29.2466	20.3421	10.6195	-5.47894	-723.742	1.27472
0.7220	-52.3657	15.922	21.1013	155.565	30.4652	10.2633	11.543	2.79052	-387.439	1.27472
0.7227	-41.379	9.84546	3.68364	188.528	30.775	-3.15971	8.1769	-1.80363	-152.755	1.59339
0.7233	-35.5573	7.3841	-1.1824	157.708	29.8559	-12.0161	3.90227	-12.7955	-58.1686	1.59339
0.7240	-18.7788	11.6915	2.45576	103.989	28.3275	-19.95	0.551084	-11.2642	30.6415	1.27472
0.7247	4.09013	10.4608	3.3653	69.5088	22.8437	-39.4849	-0.670237	2.17796	75.4986	1.59339
0.7253	19.6744	0.692259	6.7306	53.3275	15.5114	-60.542	0.848967	19.5676	24.5634	1.59339
0.7260	34.0048	-9.07628	9.77756	24.6509	7.58015	-73.0424	3.90227	26.8842	-38.327	1.59339
0.7267	37.3784	-18.5372	4.00198	-6.48295	3.00521	-69.998	5.43637	17.1174	-59.6755	1.27472
0.7273	33.7063	-21.3062	-0.591202	-12.2862	8.18945	-51.6855	6.04703	11.9448	-23.9606	1.27472
0.7280	38.5726	-12.153	0.636679	4.49624	12.1551	-36.1176	4.21505	17.1174	93.5319	1.59339
0.7287	41.3193	-5.38424	-0.272862	28.3106	18.2585	-20.8726	0.551084	12.251	128.292	1.27472
0.7293	36.1544	-6.61492	-2.41028	53.04	45.7288	-3.45954	-1.2809	-11.8767	16.3254	1.59339
0.7300	34.0048	-8.46094	-5.13891	104.302	74.4177	5.69671	-2.50222	-20.1121	-34.9614	1.59339
0.7307	35.5274	-10.307	-9.73209	159.224	73.1887	10.2633	-5.85341	-3.64128	-60.8811	1.59339
0.7313	39.7967	-11.8453	-11.8695	129.633	45.4189	10.2633	-9.83015	4.59414	-183.899	1.27472
0.7320	50.7833	-12.153	-13.0974	46.3217	10.9365	8.44128	-14.4027	0.340307	-319.375	1.27472
0.7327	55.381	-13.3068	-17.0539	-6.48295	-13.7868	12.708	-18.6773	-8.20139	-395.074	1.27472
0.7333	52.0074	-13.9221	-18.2818	-85.507	-16.5338	19.7194	-17.1581	-17.6619	-320.58	1.59339
0.7340	53.2314	-12.153	-15.2348	-223.139	-13.7868	16.0753	-11.6621	-20.7247	-100.866	1.59339
0.7347	47.4396	-11.5376	-13.6886	-280.832	-25.6837	-1.0148	-5.85341	-17.0494	96.2444	1.59339
0.7353	26.6904	-8.46094	-8.82255	-187.744	-41.5566	-19.0275	2.99373	-15.2457	129.548	1.59339
0.7360	15.7037	-1.46144	1.86456	-78.5012	-63.223	-32.4505	13.6728	-18.5807	32.8015	1.59339
0.7367	15.0768	4.07664	8.54968	-33.3297	-83.361	-41.3069	27.0925	-20.7247	-15.1198	1.27472
0.7373	-3.22434	4.69198	8.27682	-14.4037	-93.1305	-41.0071	38.695	-20.1121	-2.61206	0.956036
0.7380	-33.4376	3.76897	8.27682	1.75144	-99.8432	-36.4174	42.6569	-18.887	-22.4537	0.956036
0.7387	-51.4401	4.69198	12.5517	0.235268	-100.762	-15.6833	42.359	-12.4893	-47.4692	1.27472
0.7393	-54.7839	6.46108	16.8265	-36.0745	-96.177	22.1641	34.4204	-3.64128	-53.8989	1.59339
0.7400	-51.1416	7.69177	17.4177	-107.805	-90.9928	34.9875	19.4667	-1.49735	-72.7861	1.27472
0.7407	-48.0964	7.99944	14.9619	-192.031	-70.545	32.8426	8.1769	-0.578521	-105.437	1.27472
0.7413	-45.6483	6.15341	11.915	-195.979	1.47679	61.8335	-0.0595767	9.49456	-97.1988	1.27472
0.7420	-45.0213	4.69198	10.6871	-107.492	96.9929	98.4585	-7.38751	14.9735	-52.6431	1.59339
0.7427	-53.8883	3.15362	9.18636	-30.5849	139.417	108.837	-10.7387	8.88201	3.51624	1.91207
0.7433	-59.9787	-0.846094	5.50272	9.69829	125.382	104.57	-10.7387	7.04435	102.373	1.59339
0.7440	-42.2747	-4.46122	1.86456	11.5282	100.969	99.9807	-11.0515	9.49456	141.755	1.27472
0.7447	-18.7788	-4.46122	0.045477	-40.3616	81.4298	93.569	-14.7154	5.51297	99.9113	1.27472
0.7453	-18.1817	-4.76889	-1.81908	-107.492	55.4879	77.4015	-18.0666	3.09679	108.149	0.956036
0.7460	-18.7788	-7.23026	-3.63816	-142.285	24.0623	54.2225	-14.1048	5.51297	135.626	1.27472
0.7467	-16.9576	-8.46094	-3.9565	-126.418	1.16697	31.9431	-6.16618	1.25913	115.785	1.59339
0.7473	-21.5254	-9.69162	-6.36679	-72.3843	-16.224	1.40688	-5.24275	-8.81394	94.1347	1.27472
0.7480	-1.07478	-12.153	-10.6416	7.26718	-21.1088	-36.7403	-7.99817	-7.58884	103.578	1.27472
0.7487	38.9011	-12.7683	-12.1878	35.0289	-9.51133	-60.8418	-5.24275	7.35063	110.912	0.637358
0.7493	57.7993	-13.9221	-15.2348	15.1879	-11.3392	-60.2191	-7.07473	11.3322	82.2297	0.318679
0.7500	56.6051	-20.0755	-18.2818	38.6886	-20.4995	-54.4301	-16.2346	-6.97629	45.3092	0.956036
0.7507	50.1862	-25.229	-14.3253	72.2535	-15.9142	-59.9192	-20.8071	-29.5727	28.8331	1.27472
0.7513	40.7222	-21.9215	-5.45725	109.792	-13.1672	-62.0642	-18.9752	-46.6561	21.1979	1.27472
0.7520	36.7515	-8.15327	7.36728	188.842	-8.29273	-54.1303	-15.624	-47.8812	-3.51624	1.59339
0.7527	32.7808	10.1531	21.6926	282.819	11.5458	-44.6742	-10.128	-32.0229	-56.31	1.59339
0.7533	8.6878	16.845	24.4212	281.904	39.6254	-27.5841	-9.21949	-27.4287	-95.3905	1.27472
0.7540	-36.4828	9.53779	15.2803	186.699	64.3383	-11.3934	-15.3261	-44.8184	-88.358	1.27472
0.7547	-44.4242	8.30711	11.915	151.304	70.1422	-11.3934	-17.1581	-35.9704	-48.9761	1.27472
0.7553	26.6904	14.4605	15.917	107.962	46.0282	-20.2498	-12.5707	-4.56011	-8.69013	1.27472
0.7560	96.8794	16.5373	14.0524	13.9593	28.3275	-21.772	-6.46407	-3.33501	15.7226	1.27472
0.7567	104.194	16.845	11.915	43.2632	47.2572	-12.316	0.848967	-4.86639	24.262	1.27472
0.7573	81.325	16.2296	11.3238	145.5	55.1884	-2.85989	6.34491	15.586	20.8965	1.27472
0.7580	61.1729	7.99944	1.22788	125.372	32.6029	-0.714972	6.34491	32.6694	18.7365	1.27472
0.7587	33.7063	-2.69212	-7.59467	9.69829	8.49927	9.66365	5.73425	35.4259	26.6732	1.59339
0.7593	-20.0028	-9.69162	-8.82255	-67.2083	-10.7299	38.9544	6.95557	25.3528	34.6098	1.27472
0.7600	-88.0722	-16.3835	-10.6416	-82.161	-40.0281	66.4232	6.65769	8.88201	31.5457	1.27472
0.7607	-151.544	-22.46	-9.41375	-8.60037	-72.6827	82.2909	10.6195	-9.4265	23.0062	1.27472
0.7613	-184.802	-26.7673	-7.59467	104.616	-93.7398	89.6021	15.5048	-19.1933	21.8007	1.27472
0.7620	-197.61	-29.2287	-10.6416	99.1264	-109.303	86.8575	14.5814	-15.8243	31.2443	1.27472
0.7627	-224.48	-25.229	-8.82255	26.1671	-104.728	96.9363	19.1688	-12.183	35.514	1.27472
0.7633	-238.512	-22.46	-3.63816	-1.5946	-86.108	125.627	28.6266	-1.80363	30.0387	1.59339
0.7640	-207.701	-22.7676	-3.63816	-15.6323	-73.9013	138.451	26.1839	15.2798	27.6276	1.59339
0.7647	-161.008	-19.1525	-2.09194	-38.218	-58.3382	135.683	14.8942	5.20669	36.4684	1.27472
0.7653	-90.1919	-15.1528	0.318339	-69.6395	-34.8439	134.161	8.78756	-23.7874	46.8162	1.27472
0.7660	32.7808	-15.1528	-2.41028	-88.8792	-15.9142	127.15	5.73425	-32.6354	47.1176	1.27472
0.7667	110.613	-17.9218	-6.68513	-1.90829	-9.51133	110.359	1.45963	-25.5911	44.405	1.59339
0.7673	80.9966	-22.2292	-6.68513	151.304	-5.23588	81.0686	-4.63209	-17.9682	48.3734	1.59339
0.7680	13.5542	-23.0753	-3.04696	175.092	6.66103	46.2656	-13.4941	-24.7063	53.5473	1.59339
0.7687	-46.8723	-11.5376	7.04894	76.8282	21.3153	9.96348	-18.3645	-42.0959	48.6748	1.27472
0.7693	-93.2371	-1.76911	15.917	18.8476	36.2691	-36.1176	-14.7154	-46.3498	36.7698	1.59339
0.7700	-125.6	-16.0758	5.50272	7.55473	48.166	-87.6878	-13.1813	-49.7188	35.514	1.59339
0.7707	-141.453	-35.3052	-12.779	-11.0576	57.9355	-116.379	-16.2346	-45.1247	43.4506	1.27472
0.7713	-140.856	-34.6899	-18.6001	-18.0634	62.8202	-103.556	-9.83015	-4.25383	41.0395	1.27472
0.7720	-101.179	-26.4597	-17.3722	-28.755	50.6135	-69.998	2.38307	36.651	28.2304	1.27472
0.7727	-2.00028	-27.998	-21.3287	-78.1875	39.0161	-44.0515	8.1769	45.499	16.024	1.59339
0.7733	103.895	-38.0742	-28.0593	-117.268	41.1538	-33.373	6.95557	37.8761	7.78595	1.59339
0.7740	132.287	-40.8433	-31.4246	-82.7622	34.1313	-12.316	-6.77684	14.6672	3.16461	1.27472
0.7747	204.895	-30.7671	-23.7845	-33.3297	16.1207	17.5975	-28.1351	-17.9682	0.452087	1.27472
0.7753	356.289	-17.3065	-6.36679	-24.4941	8.79876	33.7651	-34.5396	-36.583	-0.452087	1.59339
0.7760	270.218	-8.46094	0.636679	20.3899	6.05173	45.9658	-26.9138	-39.952	-3.81763	1.59339
0.7767	37.05	-7.8456	-3.9565	118.026	-2.48885	54.8222	-17.1581	-43.6273	-16.6268	1.27472
0.7773	-41.0506	-11.8453	-7.59467	161.969	-8.90203	52.3774	-10.4408	-45.4309	-22.1523	1.27472
0.7780	-83.803	-12.4607	-7.91301	123.516	-12.8677	33.7651	-9.21949	-52.7816	-14.2156	1.27472
0.7787	-157.933	-9.38395	-3.9565	66.4503	-21.1088	9.04093	-3.41076	-62.8206	-8.38873	0.318679
0.7793	-199.76	-5.38424	3.3653	5.43731	-26.6028	-5.60446	10.3217	-50.6376	0.753479	0.637358
0.7800	-132.317	6.46108	16.1898	-52.2557	-23.8558	-13.5383	9.10034	-32.3291	12.9598	1.27472
0.7807	89.2366	25.9982	33.8804	-77.2726	-20.1896	-22.9944	-5.24275	-23.1749	18.1337	0.956036
0.7813	314.463	40.0741	46.7049	-59.8889	-18.0519	-26.9614	-6.46407	-18.2745	16.9282	1.27472
0.7820	425.553	41.6125	47.9328	-33.3297	-12.5579	-25.4392	4.82571	-22.2561	14.4668	1.27472
0.7827	370.918	29.9979	38.7919	-44.0213	-6.7643	-45.8966	17.6347	-25.8973	15.0696	0.956036
0.7833	196.983	14.4605	28.4232	-71.1818	-7.68342	-85.566	22.8328	-18.2745	17.5309	1.59339
0.7840	64.845	4.38431	26.5586	-73.0116	-10.1206	-116.379	13.3601	-3.33501	16.3254	1.59339
0.7847	2.56753	-10.9223	22.9204	-76.3577	-9.20152	-143.548	-4.02142	14.6672	12.0557	1.27472
0.7853	-55.4109	-37.1512	10.0959	-104.433	-8.59221	-176.806	-17.7538	44.2739	13.864	1.27472
0.7860	-91.7145	-54.8423	-0.591202	-113.896	-3.40797	-190.528	-22.6391	73.268	22.1021	1.27472
0.7867	-89.2963	-54.2269	-3.9565	-83.3896	2.08609	-170.694	-18.0666	88.2415	19.3393	1.27472
0.7873	-53.2613	-40.5356	-0.591202	-37.6168	7.27033	-144.77	-6.77684	113.56	2.86322	1.59339
0.7880	62.3969	-25.229	3.3653	-8.31282	17.3497	-121.268	3.60439	154.737	-8.69013	1.27472
0.7887	162.799	-14.5374	1.22788	-12.8875	15.8212	-69.998	10.3217	156.881	-8.08734	1.27472
0.7893	143.871	-9.07628	-1.81908	-33.9309	-10.7299	-18.1049	10.0089	111.11	1.95905	1.59339
0.7900	145.692	-9.69162	1.22788	-60.1764	-22.6372	-5.60446	8.48967	96.7832	6.83154	1.59339
0.7907	142.05	-14.8451	2.1829	-80.9323	32.9127	2.95214	10.3217	102.262	-0.753479	1.59339
0.7913	19.6744	-18.5372	-6.68513	-52.857	108.291	32.8426	8.78756	59.2474	-6.27899	1.59339
0.7920	-59.9787	-19.4602	-14.9165	2.37883	134.842	83.8131	3.90227	5.20669	-2.00928	1.27472
0.7927	-36.7813	-23.0753	-22.2383	-1.28091	111.038	117.993	1.77241	-14.3269	4.11902	1.59339
0.7933	20.2715	-27.6904	-29.8784	-69.3519	48.4758	112.204	3.29161	-22.5623	2.56183	1.59339
0.7940	61.4714	-25.229	-30.1968	-95.8849	-13.1672	109.76	10.0089	-40.5646	-1.40649	1.27472
0.7947	-38.9309	-21.3062	-27.1498	-57.7453	-47.9594	86.5577	19.1688	-45.1247	2.56183	1.59339
0.7953	-96.3122	-19.4602	-26.8315	-73.0116	-72.3729	21.2416	20.0773	-32.9417	17.5309	1.27472
0.7960	48.0367	-10.6146	-18.6001	-106.577	-95.2682	-13.5383	8.48967	-36.8892	35.514	1.59339
0.7967	108.165	1.3076	-5.45725	-6.7705	-112.659	1.40688	-4.63209	-56.7291	41.0395	1.59339
0.7973	28.5115	7.99944	4.00198	107.047	-112.349	14.2302	-14.1048	-68.0273	31.2443	1.59339
0.7980	13.2556	22.383	22.2838	79.573	-90.0737	8.44128	-20.5093	-73.5062	22.1021	1.59339
0.7987	176.234	43.1508	44.5675	24.6509	-47.6599	-24.5166	-20.8071	-86.3358	15.7226	1.59339
0.7993	308.044	47.9966	46.7049	26.4808	-12.5579	-106.623	-11.3494	-95.7963	5.02319	1.59339
0.8000	106.642	42.5355	37.564	49.3802	-23.546	-146.892	6.65769	-87.2546	-12.3571	1.59339
0.8007	-209.821	34.2284	29.9239	59.1308	-55.2814	-84.6434	24.0541	-61.9358	-32.8015	1.59339
0.8013	-337.093	18.691	18.0544	32.5977	-68.4072	-3.78243	21.2987	-34.7453	-41.3911	1.59339
0.8020	-250.095	2.84595	3.3653	20.6775	-72.3729	64.2783	-6.16618	-13.4081	-36.167	1.59339
0.8027	-75.563	-8.46094	-7.59467	75.312	-76.9581	121.96	-20.8071	11.9448	-30.6917	1.59339
0.8033	10.2104	-16.6911	-15.5531	107.648	-67.4881	157.663	2.07029	35.1197	-27.3262	1.59339
0.8040	87.4154	-19.7678	-17.6906	62.503	-51.9251	186.954	33.1991	58.3286	-28.5317	1.59339
0.8047	195.132	-20.6908	-17.0539	26.4808	-41.8561	211.078	50.9083	80.5846	-38.327	1.59339
0.8053	178.354	-19.7678	-19.5097	27.9969	-19.8901	208.011	48.4656	73.268	-45.3092	1.59339
0.8060	94.1328	-9.38395	-18.6001	21.5924	0.867483	169.564	19.4667	54.0407	-38.9298	1.59339
0.8067	26.6904	-2.99979	-16.1444	-0.365973	19.7869	140.573	-15.9368	50.9779	-18.4854	1.59339
0.8073	-64.8749	-12.4607	-21.3287	-12.8875	53.9698	127.15	-44.6229	51.5905	1.95905	1.59339
0.8080	-104.552	-18.2295	-23.4662	-7.08419	87.2337	76.1791	-64.1492	50.9779	6.83154	1.59339
0.8087	-80.7279	-11.23	-14.6436	1.46389	105.544	0.184509	-65.3705	39.7138	0.150696	0.637358
0.8093	-100.88	3.46129	-0.909541	2.06513	100.969	-79.1543	-51.3253	20.4865	-7.78595	0.637358
0.8100	-110.344	21.1524	13.1429	6.95349	105.843	-188.407	-23.8605	21.099	-16.9282	1.59339
0.8107	-116.136	20.8447	16.1898	18.8476	131.176	-298.881	5.12359	21.099	-30.3903	1.59339
0.8113	-190.893	5.30732	3.68364	20.9912	116.831	-331.839	8.78756	6.12552	-42.2953	1.27472
0.8120	-182.354	-1.46144	-9.41375	13.358	74.1078	-298.259	-3.72354	7.96318	-46.8664	1.59339
0.8127	-78.3096	1.92294	-13.0974	9.69829	36.2691	-246.388	-12.2728	15.2798	-43.8023	1.59339
0.8133	-12.3898	4.38431	-15.2348	8.18211	-7.68342	-174.661	-15.0133	1.56541	-38.0256	1.59339
0.8140	32.7808	-3.30746	-21.9654	2.06513	-54.3726	-92.8771	-18.6773	5.51297	-34.3587	1.59339
0.8147	32.7808	-6.30725	-25.6036	-0.679664	-99.8432	-35.8178	-23.2498	37.8761	-33.7559	1.91207
0.8153	-5.04549	0.692259	-17.0539	3.895	-134.935	-30.0057	-18.3645	53.1219	-38.0256	1.59339
0.8160	9.91186	-0.538424	-5.77558	8.18211	-153.245	-38.2625	-11.6621	51.8968	-42.5967	1.59339
0.8167	39.4982	-10.9223	-4.22936	10.9269	-176.14	-30.0057	-14.7154	47.9492	-43.5009	1.27472
0.8173	7.7623	-14.5374	-7.00346	10.9269	-195.969	-14.138	-10.4408	39.7138	-43.5009	1.59339
0.8180	-19.0773	-11.5376	-5.13891	7.86842	-150.498	33.7651	14.5814	32.0569	-41.0395	1.59339
0.8187	30.0341	-8.46094	-2.72862	8.78335	-59.8667	81.3684	31.3671	27.1905	-41.0395	1.27472
0.8193	79.7725	-4.76889	0.045477	10.6132	-15.6147	72.8349	20.688	16.5049	-41.9939	1.59339
0.8200	77.3543	-0.846094	3.68364	8.18211	-20.7989	69.1677	17.6347	1.25913	-38.327	1.91207
0.8207	76.7273	-0.230753	3.09244	8.18211	-29.3498	121.038	29.5351	1.87169	-38.327	1.91207
0.8213	74.9062	-1.15376	-2.09194	10.2995	-24.1553	186.954	28.6266	9.49456	-41.9939	1.59339
0.8220	27.2875	-2.38445	-4.22936	9.09705	-4.93639	230.29	34.4204	10.1071	-39.8339	1.27472
0.8227	-8.71766	-5.69191	-4.86604	6.35225	17.3497	233.358	52.4275	16.5049	-30.6917	1.27472
0.8233	18.4504	-11.8453	-7.27633	-1.90829	42.3724	230.913	37.7865	22.3241	-14.2156	1.59339
0.8240	30.6611	-16.6911	-7.91301	-11.9725	60.3727	254.415	-1.59368	14.9735	6.22876	1.59339
0.8247	1.04492	-18.2295	-8.82255	-18.6908	69.2231	216.867	-15.0133	10.1071	18.7365	1.59339
0.8253	-6.26955	-18.5372	-14.0069	-25.6965	96.3836	58.7891	-14.1048	18.6488	22.1021	1.59339
0.8260	6.83679	-18.5372	-16.1444	-31.1861	154.98	-123.09	-21.7306	29.947	23.9606	1.27472
0.8267	1.97043	-18.2295	-14.3253	-39.7342	211.439	-271.113	-29.3564	34.5071	27.929	1.27472
0.8273	-23.675	-18.2295	-12.779	-48.2823	223.645	-407.211	-38.8142	33.282	34.3084	1.59339
0.8280	-66.9946	-16.0758	-8.82255	-42.7927	196.784	-450.248	-49.1954	26.578	38.8795	1.91207
0.8287	-106.672	-14.8451	-3.63816	-30.2712	167.187	-362.975	-44.6229	18.3425	32.8015	1.59339
0.8293	-113.986	-17.6141	-4.86604	-25.6965	183.06	-249.733	-29.6692	14.3609	22.7048	1.59339
0.8300	-147.573	-19.4602	-8.50421	-19.292	196.784	-185.362	-12.8835	14.3609	17.5309	1.27472
0.8307	-253.767	-18.5372	-9.14089	-7.99913	152.233	-192.374	7.56624	13.4421	17.8323	1.59339
0.8313	-319.986	-20.0755	-12.5062	-15.031	99.7399	-220.142	13.9707	7.96318	23.6592	1.59339
0.8320	-276.039	-20.3832	-14.6436	-30.2712	60.0732	-178.028	0.848967	-2.72245	31.2443	1.27472
0.8327	-188.773	-18.2295	-9.41375	-29.3563	21.6148	-113.934	-9.21949	-18.5807	30.3401	1.27472
0.8333	-113.688	-19.7678	-9.73209	-27.5264	2.39591	-100.511	-12.2728	-22.5623	27.929	1.27472
0.8340	-58.7546	-22.2292	-15.826	-31.8135	10.637	-106.3	-22.9519	-10.6516	32.8015	1.27472
0.8347	59.9488	-22.7676	-17.9634	-29.67	26.8094	-105.7	-21.1199	-8.81394	34.3084	1.59339
0.8353	261.052	-27.998	-21.0104	-25.409	43.591	-83.4211	16.1155	-17.0494	26.9746	1.59339
0.8360	319.359	-33.1515	-25.6036	-21.7231	65.8668	-21.4722	59.4426	-14.3269	19.6909	1.59339
0.8367	197.879	-29.5364	-22.5566	-14.7173	83.8774	35.91	91.7927	-4.86639	15.0696	1.59339
0.8373	186.594	-21.6139	-15.5531	-5.85557	72.5794	49.0332	111.632	2.79052	6.22876	1.91207
0.8380	230.54	-20.3832	-11.8695	-2.50953	25.8902	78.324	81.4264	4.59414	-3.81763	1.59339
0.8387	94.7299	-25.5367	-7.59467	-9.22775	-7.06379	147.584	16.7261	-14.3269	-1.70789	0.956036
0.8393	-56.6349	-29.2287	-3.04696	-18.3771	-9.20152	182.687	-24.1732	-46.3498	9.5943	0.318679
0.8400	-111.867	-28.6134	-3.63816	-22.9517	-14.0863	165.597	-39.4249	-67.1085	21.8007	0.956036
0.8407	-204.955	-26.4597	-6.68513	-24.1804	-36.362	130.494	-35.7609	-75.3439	26.3718	1.59339
0.8413	-395.997	-24.9213	-9.41375	-18.9783	-62.9132	105.47	-1.89156	-80.2443	16.9282	1.59339
0.8420	-565.961	-18.5372	-7.00346	-12.2862	-82.1424	103.948	30.1458	-83.2731	4.7218	1.59339
0.8427	-524.761	-1.15376	4.59318	-14.1161	-81.8326	140.273	32.5884	-70.7838	3.51624	1.59339
0.8433	-233.317	21.1524	21.6926	-21.1219	-43.3845	214.745	21.6114	-40.5646	7.48456	1.59339
0.8440	193.013	35.1514	35.4266	-22.6642	-6.45449	242.814	7.56624	-16.4368	11.4529	1.59339
0.8447	511.297	36.0744	37.8824	-22.3505	-0.66094	183.31	-10.128	-10.9579	18.7365	1.59339
0.8453	486.905	29.9979	29.9239	-25.409	1.16697	99.9807	-20.5093	-30.7978	24.5634	1.59339
0.8460	219.255	19.614	18.3272	-26.3239	2.69539	-19.3273	-12.2728	-55.504	23.6592	1.59339
0.8467	11.4345	3.76897	6.7306	-25.409	10.9365	-181.395	-0.670237	-50.9439	19.3393	1.59339
0.8473	-69.7413	-13.6144	-6.36679	-25.409	29.5564	-300.104	-1.59368	-22.8686	16.3254	1.59339
0.8480	-97.8348	-25.8443	-14.3253	-22.9517	35.3499	-343.44	-7.99817	15.2798	8.69013	1.59339
0.8487	-73.712	-29.2287	-12.5062	-16.5472	23.453	-313.826	-13.4941	61.6636	-1.70789	1.59339
0.8493	-44.1257	-28.921	-10.3688	-10.7439	8.49927	-231.443	-9.83015	96.1707	-7.48456	1.27472
0.8500	-31.6164	-28.3057	-9.73209	-8.60037	-4.62658	-158.493	6.34491	100.731	-9.34314	1.27472
0.8507	-35.2587	-25.5367	-7.00346	-7.99913	-6.45449	-109.967	16.4134	86.0976	-9.34314	1.27472
0.8513	-63.3523	-23.0753	-6.36679	-7.99913	0.557668	-72.7426	13.6728	61.6636	-9.34314	1.59339
0.8520	-78.3096	-22.7676	-7.91301	-5.25433	-11.0398	-52.6081	15.5048	40.3263	-11.4529	1.59339
0.8527	-116.136	-22.7676	-8.82255	0.235268	-30.5685	-41.3069	10.6195	32.3632	-12.0557	1.59339
0.8533	-189.997	-23.9983	-10.6416	3.29376	-33.3155	-31.8508	-10.4408	29.0282	-10.8501	1.59339
0.8540	-209.522	-28.3057	-15.826	1.1502	-30.5685	-24.8395	-25.6924	22.0178	-9.34314	1.27472
0.8547	-164.65	-30.4594	-19.5097	-2.50953	-29.3498	-15.0605	-26.9138	11.6385	-7.78595	1.59339
0.8553	-65.472	-22.2292	-11.2783	-2.50953	-27.2121	-1.33769	-19.5858	0.340307	-7.48456	1.59339
0.8560	40.1251	-2.07678	7.04894	0.83651	-21.4082	9.34076	-6.46407	-10.6516	-10.2473	1.59339
0.8567	79.7725	16.2296	20.1463	4.20869	-12.8677	9.66365	6.65769	-18.5807	-12.3571	1.59339
0.8573	145.692	18.3833	21.1013	3.58131	-14.3961	-8.64885	9.10034	-23.1749	-13.3115	1.59339
0.8580	270.815	15.6143	20.1463	2.66638	-20.1896	-29.7059	4.21505	-23.7874	-13.9142	1.27472
0.8587	279.055	16.2296	22.9204	4.80993	-21.4082	-29.7059	-0.372354	-12.4893	-10.8501	1.27472
0.8593	159.127	8.61478	17.4177	5.72486	-22.6372	-23.2942	-2.20434	8.88201	-11.1515	1.27472
0.8600	100.85	-2.38445	8.27682	7.26718	-15.6147	-22.3948	2.99373	24.7403	-15.4212	1.27472
0.8607	112.434	-3.30746	9.18636	12.4431	-12.2584	-10.4939	12.7494	30.5595	-14.8184	1.27472
