MR32 ASCII
Name	KneeFJC1
Frequency	1500
Date	09-09-2015 09:13:54
"Time,s"	"RT TIB.ANT.,uV"	"RT MED. GASTRO,uV"	"RT LAT. GASTRO,uV"	"RT BICEPS FEM.,uV"	"RT VMO,uV"	"RT VLO,uV"	"RT RECTUS FEM.,uV"	"RT SOLEUS,uV"	"RT SEMITEND.,uV"	"Channel 12,uV"
0.0000	4.42312	2.72831	1.68307	2.33234	-1.75415	3.24082	-1.40265	3.99491	0.174135	-7914.66
0.0007	2.89204	1.80718	-0.451257	0.500942	-1.46179	-0.720182	-4.766	2.1511	-1.04481	-10543.1
0.0013	-1.36096	0.894817	-0.146354	-1.6321	-1.16943	-1.33234	-7.20933	-1.80966	-1.04481	-9601.65
0.0020	-4.12541	-4.28986	0.15855	-2.5478	-2.09523	0.216055	-8.73264	-1.80966	-2.27463	-9771.86
0.0027	-0.17012	-3.37749	1.37816	0.1993	-2.09523	6.62568	-3.84598	2.1511	-1.65428	-9887.05
0.0033	5.31625	1.80718	3.51249	2.33234	-1.46179	14.2596	2.26234	4.28513	-0.130601	-9787.3
0.0040	0.12759	0.280727	-0.146354	-1.6321	-1.16943	14.5477	-3.54434	-3.03886	-1.9699	-9816.58
0.0047	-5.06107	-5.81631	-1.67087	-3.4635	-1.46179	9.97453	-10.2559	-8.22882	-4.71252	-9817.87
0.0053	-2.29662	-4.90395	2.90268	-0.716401	-0.53599	9.03829	-6.8926	-4.86559	-2.8841	-9816.91
0.0060	3.48746	1.50891	7.78114	1.72367	-0.53599	17.6085	1.64397	2.7657	-0.130601	-9787.63
0.0067	6.84733	4.25477	8.08605	1.41664	-1.16943	22.4697	6.53063	7.95567	-1.34954	-9873.86
0.0073	2.89204	3.03536	1.37816	-1.6321	-0.243632	16.0601	4.70567	2.7657	-3.18884	-9813.37
0.0080	-2.59433	-1.85104	-4.7321	-4.07217	-0.243632	12.4231	-0.180987	-3.63639	-4.40778	-9560.14
0.0087	-4.12541	-3.99158	-6.25662	-4.98788	-0.53599	24.9183	0.422304	-6.07772	-5.32199	-10501.3
0.0093	-1.36096	-0.631635	-5.34191	-3.77053	-0.243632	46.8839	5.61061	-3.63639	-3.79831	-8483.21
0.0100	5.31625	1.80718	-1.97578	0.1993	-0.53599	65.8247	4.70567	5.20704	-1.04481	-1898.71
0.0107	2.89204	1.50891	-3.8052	-0.107729	-0.877075	79.2561	-4.14763	3.99491	0.174135	108.433
0.0113	-4.12541	-1.23695	-9.00076	-3.77053	-0.243632	80.1563	-8.43099	-3.94369	-0.130601	-214.614
0.0120	-5.06107	-3.37749	-12.6596	-5.2949	-0.53599	60.3153	-9.33593	-5.17289	-1.34954	-43.7594
0.0127	-2.59433	-0.93868	-12.9645	-3.4635	-0.877075	44.4713	-7.81262	-1.80966	-1.65428	70.7873
0.0133	3.48746	3.64068	1.37816	0.500942	-2.09523	33.4525	-2.32267	4.59243	-0.130601	-29.6019
0.0140	3.8277	4.56181	16.9404	-0.107729	-2.97231	-10.4787	-6.8926	3.68761	0.47887	-1.28704
0.0147	-1.36096	3.94772	13.2816	-4.68623	-1.16943	-55.0219	-14.5242	-2.11696	0.174135	0
0.0153	-1.7012	1.20186	3.51249	-5.2949	1.60797	-66.6169	-7.51097	-2.42426	0.783606	-0.32176
0.0160	4.42312	-0.93868	-0.756161	-0.716401	1.60797	-58.9829	8.05394	3.99491	1.39308	0
0.0167	7.78299	-0.0175454	-3.8052	-0.414759	-0.243632	-43.427	14.1623	7.34107	-0.130601	0
0.0173	0.46783	0.894817	-8.08605	-5.60193	-1.46179	-41.5905	6.22898	0.0170722	-2.8841	-0.643521
0.0180	-4.42312	-0.631635	-6.25662	-3.15647	-2.67995	-51.0609	-5.06765	-2.11696	-2.57937	-0.643521
0.0187	-3.18975	-1.544	9.00076	5.07945	-3.31339	-44.3632	-10.2559	11.9164	0.47887	-0.32176
0.0193	-1.06325	-0.93868	16.0257	8.74225	-3.60575	-20.5612	-7.51097	29.313	2.61202	-0.32176
0.0200	3.48746	0.280727	4.7321	7.5249	-3.89811	-10.7667	4.70567	25.9669	2.61202	-0.32176
0.0207	2.89204	-0.32459	-4.4272	2.63937	-2.97231	-22.0736	15.3839	-0.597529	1.69781	-0.32176
0.0213	-2.59433	-5.50926	-3.19539	-1.02343	-2.09523	-31.8321	14.1623	-15.2455	-0.435337	-0.32176
0.0220	-1.99891	-5.50926	4.4272	-0.107729	-1.16943	-28.4832	13.2422	1.24627	-0.435337	-0.32176
0.0227	4.12541	-0.32459	10.8424	3.24804	-1.16943	-17.7885	18.1289	20.7769	1.39308	0
0.0233	7.48528	0.280727	12.9767	4.16374	-1.75415	-15.0518	17.2089	20.1623	1.08834	0
0.0240	1.65867	-3.99158	6.56153	1.115	-1.46179	-21.1734	6.83227	3.99491	-0.435337	0
0.0247	-3.52999	-8.26389	-16.0135	-1.32507	-1.75415	-23.9101	-4.766	-32.0275	-1.34954	0
0.0253	-3.52999	-6.73744	-32.1978	-1.32507	-1.46179	-19.625	-9.33593	-58.2676	-1.04481	-0.32176
0.0260	1.36096	2.42127	-11.44	0.807971	0.682169	-11.0908	-5.67094	-32.3348	1.08834	-0.32176
0.0267	5.9542	8.83412	15.7208	1.72367	2.19269	-6.80572	-1.40265	4.59243	2.61202	0
0.0273	-0.46783	3.64068	16.9404	-1.32507	2.48504	-13.5394	-6.8926	8.57027	0.47887	0
0.0280	-4.72083	-2.7634	22.7336	-1.93913	3.41085	-18.1126	-10.5576	4.89973	-1.04481	0
0.0287	-1.7012	-3.37749	36.4665	-1.02343	4.04429	-14.7637	-7.20933	3.99491	-0.130601	0
0.0293	4.12541	-2.7634	34.3322	0.1993	1.90033	-5.58141	-2.92596	3.99491	0.783606	-0.32176
0.0300	8.67612	1.80718	33.7223	1.115	-0.53599	2.95275	0.120658	11.6091	0.783606	0
0.0307	6.25191	10.0535	27.0145	-1.93913	-0.877075	0.504128	-0.799361	15.2797	-0.740072	0
0.0313	2.59433	10.0535	-16.6233	-6.21061	-0.243632	-9.25434	-0.180987	11.0116	-2.8841	0
0.0320	-0.76554	3.94772	-53.2484	-5.60193	0.682169	-11.991	3.48401	15.2797	-1.65428	0
0.0327	-1.99891	0.280727	-35.5518	-1.6321	0.389811	-4.3571	5.30896	39.0784	1.08834	0
0.0333	1.06325	-6.4304	-3.19539	-0.414759	-0.53599	3.85298	4.70567	62.5869	1.69781	0
0.0340	0.46783	-8.56217	1.68307	-2.24077	0.0487264	0.504128	3.78565	44.2683	0.783606	0
0.0347	-0.46783	-1.85104	-8.39095	-1.6321	-0.243632	-8.35412	3.78565	-13.4017	0.174135	-0.32176
0.0353	2.29662	0.280727	-8.69585	1.72367	-1.16943	-7.41788	5.30896	-56.4408	0.174135	-0.32176
0.0360	4.12541	1.20186	-3.19539	3.8621	-1.75415	2.05252	7.45065	-35.3737	2.30728	0.32176
0.0367	5.01854	3.03536	-9.00076	5.6935	-4.19047	4.78921	4.0873	21.9891	2.30728	-0.965281
0.0373	1.06325	-5.81631	-17.5381	4.47077	-5.74971	-2.23257	-6.28931	14.3578	-0.130601	-1.6088
0.0380	-2.89204	-14.0539	-11.44	2.0307	-3.60575	-7.74196	-13.0009	-35.9883	-0.740072	-0.643521
0.0387	-5.9542	-12.2292	-6.56153	0.807971	-1.46179	-8.03003	-14.8259	-39.3515	-0.435337	0.32176
0.0393	-5.35878	-6.73744	-18.465	1.115	-0.877075	-1.62041	-13.6042	-24.3962	0.47887	0
0.0400	2.59433	-2.15809	-23.6483	3.55507	-1.16943	6.91375	-7.51097	-13.709	2.30728	0
0.0407	4.42312	1.80718	-10.5253	4.16374	0.0487264	9.03829	-5.36929	2.7657	2.61202	0
0.0413	-1.06325	1.50891	-5.64682	1.72367	0.682169	4.78921	-9.33593	21.3745	0.47887	0
0.0420	-4.42312	-4.28986	-14.489	-2.5478	-1.75415	-5.9055	-13.9209	29.9277	-2.8841	0
0.0427	-2.29662	-3.68454	-14.1841	-2.85483	-9.40419	-7.41788	-9.63758	12.531	-3.18884	0
0.0433	2.89204	2.11422	-6.25662	0.1993	-23.4374	2.34059	-2.62432	-14.3236	-1.04481	-0.32176
0.0440	1.36096	0.280727	-6.56153	-1.32507	-34.1085	-3.1688	-8.11427	-30.2008	-2.57937	0
0.0447	-3.52999	-4.5969	-7.47624	-4.07217	-35.619	-15.9881	-14.2226	-32.0275	-5.01725	0
0.0453	-2.59433	-2.15809	-2.89049	-2.85483	-30.1616	-17.7885	-4.14763	-24.3962	-4.10305	0
0.0460	-0.17012	3.03536	0.463454	-1.02343	-21.2934	-18.1126	10.4973	-14.6309	-2.27463	0
0.0467	3.18975	3.64068	1.68307	-0.107729	-13.6921	-14.7637	13.2422	-5.17289	-1.9699	0.32176
0.0473	2.29662	0.894817	1.07326	-2.5478	-6.96787	-5.9055	2.86563	-3.03886	-2.8841	0.32176
0.0480	-2.59433	-1.85104	-1.67087	-6.21061	2.19269	-1.33234	-5.36929	-7.30692	-4.71252	0
0.0487	-4.12541	-2.7634	-2.58558	-5.90358	11.6456	2.05252	-2.02103	-8.51905	-4.40778	0.32176
0.0493	-1.36096	0.587772	0.15855	-2.5478	17.1517	4.17706	8.35558	-4.55829	-1.65428	0
0.0500	3.8277	3.94772	4.1223	-1.93913	15.3001	-6.19357	26.9822	3.073	-1.34954	-0.32176
0.0507	1.36096	1.50891	4.1223	-5.2949	11.3532	-21.4614	39.4854	1.8438	-5.01725	0
0.0513	-3.52999	-0.631635	3.51249	-3.4635	10.7198	-15.9881	31.2505	-3.63639	-5.01725	0.32176
0.0520	-3.8277	0.587772	7.78114	1.41664	7.99113	5.40137	15.0823	-3.94369	-1.04481	0.32176
0.0527	-0.17012	2.11422	13.8914	3.8621	3.11849	24.6302	3.78565	-0.904829	2.61202	0.32176
0.0533	6.25191	2.72831	6.25662	5.6935	5.55481	29.4915	0.120658	4.59243	3.83096	0
0.0540	4.12541	0.894817	-8.39095	3.8621	10.4274	12.0991	-2.62432	1.8438	2.61202	0
0.0547	-1.7012	-3.07045	-7.78114	2.63937	11.3532	-3.1688	-7.51097	-1.80966	2.30728	0
0.0553	-3.18975	-2.46513	-0.756161	4.47077	14.0819	2.34059	-8.73264	-0.290228	2.91675	0
0.0560	0.46783	3.33363	2.90268	7.21788	16.8593	19.1208	-2.02103	6.12894	4.1357	0
0.0567	5.9542	8.22003	4.7321	5.6935	15.9335	24.3062	4.38894	13.1456	4.44043	0.32176
0.0573	1.36096	8.83412	3.51249	-0.716401	15.0077	11.4869	0.739032	6.12894	2.61202	0
0.0580	-5.65649	6.69358	7.78114	-3.4635	10.7198	0.82821	-4.766	-1.19506	0.783606	0
0.0587	-6.88986	3.94772	17.5503	-1.93913	3.41085	-1.94449	-5.98766	-8.22882	0.783606	0
0.0593	-2.89204	-0.32459	22.1238	0.1993	1.26689	1.72844	-3.24269	-37.2175	1.39308	-0.32176
0.0600	3.48746	-6.12335	16.6355	2.63937	2.82613	7.84999	3.16728	-68.3402	2.30728	-0.32176
0.0607	1.36096	-10.0886	12.9767	0.807971	3.7032	4.17706	1.34232	-50.0217	1.39308	0
0.0613	-1.99891	-7.6498	12.6718	-1.32507	0.389811	-1.94449	-5.67094	-5.17289	-1.34954	0
0.0620	0.76554	-0.93868	-6.56153	-1.6321	-9.69655	-1.62041	-5.98766	6.12894	-2.27463	0
0.0627	3.8277	3.94772	-20.9042	-1.6321	-14.9103	3.5649	-2.02103	28.4082	-1.65428	0
0.0633	8.0807	2.42127	-12.6596	-0.107729	-14.2768	9.97453	2.56399	64.7209	-1.65428	0
0.0640	4.72083	-4.5969	-9.00076	-0.716401	-14.9103	6.3016	1.04068	52.5142	-3.18884	-0.965281
0.0647	-4.42312	-5.81631	-10.5253	-2.85483	-13.6921	2.62867	-2.02103	25.9669	-4.10305	-1.28704
0.0653	-5.06107	-1.544	-16.0135	-3.4635	-7.89367	9.97453	-0.180987	19.855	-2.8841	-0.32176
0.0660	1.65867	-0.93868	-17.2332	-1.32507	-3.31339	18.5087	3.16728	21.0842	-1.34954	0.32176
0.0667	5.65649	-1.85104	-6.25662	1.115	0.0487264	20.3452	3.16728	24.1231	-0.740072	0
0.0673	1.36096	-0.93868	-2.28068	-0.414759	2.48504	12.7112	-1.40265	22.2964	-0.435337	0.32176
0.0680	-1.7012	-1.23695	-6.25662	-1.6321	5.84716	6.91375	-6.28931	13.1456	-0.435337	0.32176
0.0687	-1.7012	-1.544	-5.95172	-0.414759	9.84273	13.9355	-8.11427	3.99491	1.08834	0
0.0693	-0.46783	1.50891	-1.67087	2.0307	10.7198	34.3887	-5.98766	7.95567	3.52623	0.32176
0.0700	4.42312	3.33363	1.37816	3.55507	11.3532	49.9447	-2.92596	15.587	3.52623	0.32176
0.0707	2.89204	2.11422	-0.756161	-1.02343	13.4972	39.574	-4.14763	6.43624	0.47887	0
0.0713	-2.29662	-0.0175454	-3.8052	-7.43333	10.4274	17.6085	-6.28931	-8.22882	-3.49358	0
0.0720	-2.59433	1.80718	-4.1223	-6.51763	6.77297	2.05252	-4.766	-15.2455	-3.18884	0
0.0727	0.46783	5.78122	-0.451257	-0.716401	5.84716	-8.03003	-0.180987	-11.2677	0.783606	0.32176
0.0733	5.01854	5.78122	3.51249	2.9464	1.60797	-9.57843	2.56399	2.1511	2.30728	-0.643521
0.0740	3.48746	3.03536	3.20759	2.0307	-2.09523	-1.94449	-1.10101	10.0897	1.69781	-0.965281
0.0747	-1.99891	-0.93868	0.768357	-2.24077	-0.243632	-5.9055	-6.59096	8.57027	0.47887	0.32176
0.0753	-4.12541	-3.07045	-0.756161	-4.07217	3.41085	-21.4614	-7.20933	0.631673	-0.435337	0
0.0760	0.12759	-0.32459	2.29288	-0.107729	4.62901	-28.1951	-2.62432	-3.94369	1.08834	-0.32176
0.0767	7.48528	2.72831	6.25662	3.8621	1.60797	-29.3834	7.13392	-4.25099	1.69781	0
0.0773	5.9542	0.894817	2.59778	2.9464	-2.09523	-32.1561	12.0206	-13.4017	0.174135	0
0.0780	0.76554	-1.23695	-0.451257	0.807971	-1.46179	-26.3587	8.67231	-17.0722	-0.435337	0
0.0787	-1.06325	-2.15809	-0.146354	-0.716401	1.26689	-15.664	4.0873	-10.6702	0.783606	0
0.0793	-0.46783	-1.85104	-0.756161	-0.716401	0.682169	-4.3571	2.86563	-6.69232	1.69781	0
0.0800	4.12541	3.03536	3.51249	2.0307	-3.89811	8.13806	9.89398	0.0170722	2.61202	0
0.0807	2.59433	3.64068	4.7321	-0.107729	-11.8405	8.42613	11.4173	1.24627	-0.740072	0
0.0813	-2.59433	-3.07045	0.15855	-4.3792	-17.6389	2.34059	4.70567	-3.34616	-5.62673	0
0.0820	-3.18975	-5.50926	-1.06106	-3.15647	-14.2768	3.24082	0.120658	-4.25099	-5.01725	0
0.0827	-1.36096	-1.23695	0.15855	-0.107729	-8.47839	7.23783	-1.7043	-3.03886	-1.04481	0
0.0833	4.42312	3.94772	1.98797	2.9464	-6.04207	11.4869	-2.92596	5.20704	2.00255	0
0.0840	6.84733	2.72831	-0.756161	2.0307	-4.53155	6.62568	-10.2559	11.0116	1.69781	0
0.0847	2.89204	-6.12335	-5.03701	-1.32507	-2.38759	-4.06903	-14.2226	9.7824	0.174135	0.32176
0.0853	0.76554	-9.17626	-1.97578	-2.24077	0.389811	-7.74196	-8.11427	9.4751	-1.65428	0.32176
0.0860	4.42312	2.42127	4.7321	-0.107729	2.82613	6.3016	1.04068	18.0283	-2.27463	0
0.0867	12.3337	14.0188	10.5375	3.55507	4.92136	23.4059	13.2422	31.7544	-0.740072	0
0.0873	8.67612	7.91299	20.5993	2.0307	6.77297	13.3234	17.2089	25.045	-0.740072	0
0.0880	-1.06325	-0.631635	38.613	-2.24077	9.84273	-1.00826	10.7989	21.3745	-1.9699	0
0.0887	-2.59433	-2.46513	46.5405	-4.07217	12.8638	7.23783	4.70567	45.4975	-2.27463	0.32176
0.0893	-0.76554	-3.68454	26.0998	-2.5478	11.6456	26.4667	4.0873	39.693	-0.740072	0
0.0900	0.46783	2.11422	-20.2944	0.500942	7.40641	42.9229	5.61061	-16.4576	0.174135	0
0.0907	-2.29662	12.4923	-57.2121	1.115	4.62901	48.1082	0.422304	-58.2676	0.174135	0.32176
0.0913	-6.25191	14.3258	-46.5405	-0.414759	3.11849	53.2935	-7.51097	-46.0609	1.08834	0.32176
0.0920	-7.18757	-2.15809	-14.7939	-1.93913	0.974527	72.2343	-15.1426	-16.4576	0.47887	-0.32176
0.0927	-4.72083	-19.8526	-5.03701	-1.6321	1.90033	87.1781	-18.1892	0.324373	0.783606	0
0.0933	0.76554	-15.2821	-5.95172	2.0307	2.82613	85.0535	-13.6042	16.4918	2.91675	-0.32176
0.0940	-0.17012	-7.34276	-1.06106	2.33234	2.19269	64.8884	-16.0475	32.0617	1.39308	-1.28704
0.0947	-3.18975	-7.34276	3.51249	1.72367	4.04429	12.7112	-21.2358	32.9836	1.08834	-1.28704
0.0953	-2.29662	-3.99158	3.20759	1.72367	5.55481	-42.5268	-19.7125	2.1511	2.91675	0.32176
0.0960	1.36096	1.20186	3.20759	2.63937	0.389811	-64.8164	-13.3026	-36.2956	2.30728	0.32176
0.0967	5.9542	-0.32459	5.03701	3.55507	-8.18603	-72.4143	-0.799361	-35.9883	1.39308	-0.32176
0.0973	2.89204	-10.3957	2.29288	0.500942	-10.9147	-75.4751	4.38894	-17.3795	-0.435337	0
0.0980	-1.36096	-11.9221	0.15855	-2.5478	-8.47839	-69.6777	1.34232	-25.3181	-1.65428	0.32176
0.0987	-0.46783	-3.07045	0.463454	-3.4635	-6.33443	-58.6949	0.739032	-37.2175	-1.65428	0
0.0993	2.59433	1.50891	1.07326	-5.2949	-7.89367	-38.8538	8.35558	-18.899	-3.18884	0
0.1000	6.54962	0.587772	0.768357	-8.65068	-10.33	-23.586	11.4173	4.89973	-5.62673	0
0.1007	2.59433	-3.07045	-2.89049	-8.65068	-8.47839	-24.5222	-5.06765	9.7824	-6.54093	0
0.1013	-3.18975	-7.03571	-3.8052	-1.32507	-5.11627	-26.3587	-23.9808	8.87757	-4.10305	0
0.1020	-4.42312	-4.28986	-1.36597	1.72367	-3.31339	-20.2371	-34.6742	3.073	-1.34954	0
0.1027	-2.59433	3.64068	2.29288	-0.414759	-0.877075	-12.9273	-34.6742	-4.86559	0.783606	0
0.1033	2.89204	4.25477	6.86643	1.41664	0.682169	-15.664	-20.6326	-2.73156	2.61202	0
0.1040	2.59433	3.03536	5.64682	3.55507	0.974527	-32.7683	-6.8926	-2.73156	2.61202	0
0.1047	-2.59433	2.72831	0.768357	0.807971	0.682169	-54.4098	1.64397	-6.07772	-0.130601	0
0.1053	-4.12541	-2.46513	-0.146354	-3.4635	-1.16943	-66.0047	12.639	-3.03886	-4.40778	0.32176
0.1060	-0.46783	-4.28986	1.68307	-3.4635	-1.16943	-65.1045	23.3172	-2.42426	-5.62673	0.32176
0.1067	3.8277	-0.631635	0.768357	-1.93913	-0.243632	-55.6341	26.6655	-3.34616	-4.40778	0
0.1073	2.29662	-2.15809	-1.36597	-3.77053	-0.877075	-39.466	18.4305	-3.63639	-4.71252	0
0.1080	-1.7012	-3.07045	1.37816	-6.21061	-1.16943	-31.544	4.0873	-4.25099	-5.32199	0
0.1087	-1.06325	5.78122	18.1601	-5.60193	0.389811	-29.9956	-4.14763	-3.63639	-3.18884	0
0.1093	3.48746	7.30767	33.7223	-0.107729	1.60797	-8.96627	-2.62432	-1.50236	-0.130601	-0.32176
0.1100	5.9542	-0.93868	22.7336	4.47077	0.682169	24.0181	-2.62432	2.1511	1.69781	0
0.1107	-0.17012	-5.81631	5.03701	0.500942	-1.46179	39.574	-16.0475	-0.904829	0.174135	0.32176
0.1113	-4.72083	-10.0886	-9.30566	-2.85483	-2.97231	35.2889	-24.2976	-6.38502	-3.18884	0
0.1120	-2.29662	-8.56217	-34.0272	-1.32507	-1.16943	19.1208	-15.4443	-9.74825	-3.79831	0
0.1127	1.36096	12.4923	-31.8929	0.1993	2.82613	-0.3961	0.739032	-5.17289	-1.34954	0.32176
0.1133	5.9542	28.6692	-4.7321	1.72367	7.06532	-11.0908	13.5439	11.3189	0.174135	0
0.1140	3.48746	13.4047	4.1223	0.500942	9.50164	-17.1764	14.1623	18.3356	0.47887	-0.32176
0.1147	-2.29662	-3.68454	1.07326	-2.5478	11.3532	-22.6857	8.97396	10.397	0.47887	0
0.1153	-4.12541	-4.28986	0.15855	-4.07217	10.4274	-8.35412	5.92734	2.1511	0.47887	0.32176
0.1160	-0.76554	-0.32459	1.98797	-0.414759	-0.53599	24.0181	8.67231	2.4584	-0.130601	0
0.1167	4.12541	2.42127	4.1223	-0.414759	-14.5692	49.0444	20.2706	7.64837	-2.27463	0
0.1173	1.65867	2.11422	1.37816	-6.81928	-21.0011	64.6004	27.5855	3.38031	-5.32199	0
0.1180	-2.89204	-0.0175454	-1.67087	-5.60193	-29.5282	72.8465	18.1289	-3.63639	-4.71252	0
0.1187	-2.59433	-0.0175454	-2.58558	0.807971	-38.3964	63.6641	11.4173	-5.48019	-1.65428	0
0.1193	0.46783	1.50891	-1.97578	2.9464	-36.5448	48.7203	19.9539	-3.03886	0.783606	0
0.1200	4.12541	2.72831	0.768357	3.55507	-32.3056	42.9229	28.2039	2.7657	2.30728	0
0.1207	2.59433	-0.32459	-0.146354	2.9464	-27.3842	30.1036	22.3972	1.5365	2.61202	0
0.1213	-1.36096	-7.34276	-2.89049	0.807971	-14.9103	13.6475	9.57725	-3.03886	1.69781	0
0.1220	-1.7012	-9.17626	-2.28068	-1.02343	-2.97231	12.4231	1.04068	-4.25099	1.39308	0
0.1227	0.46783	-0.93868	-1.06106	-1.32507	4.62901	10.2626	-0.180987	-2.11696	2.91675	0
0.1233	3.8277	8.83412	-0.451257	1.41664	11.9867	-3.45688	-0.482633	4.59243	5.0499	0.32176
0.1240	1.99891	7.00062	-1.97578	1.41664	13.2048	-14.1516	-9.9543	2.7657	5.0499	-0.965281
0.1247	-1.7012	3.03536	0.768357	1.41664	3.7032	-20.2371	-16.3643	-3.34616	4.74517	-1.28704
0.1253	-1.06325	-2.46513	4.7321	3.55507	-9.69655	-31.2199	-14.8259	-1.80966	6.58447	-0.32176
0.1260	1.06325	-7.95685	3.20759	5.07945	-17.3466	-26.9708	-12.0809	-2.11696	6.27973	0.32176
0.1267	4.72083	1.50891	1.07326	5.38647	-18.5647	-15.664	-7.51097	-7.30692	4.74517	0
0.1273	3.48746	12.4923	-1.06106	2.63937	-18.5647	-29.0954	-2.92596	-17.9941	2.61202	0
0.1280	-1.36096	7.91299	-3.19539	-0.716401	-14.2768	-30.6078	0.739032	-25.6084	0.47887	0
0.1287	-3.52999	-1.23695	-4.4272	0.1993	-0.53599	-2.84472	-0.482633	-21.6476	0.47887	0
0.1293	-1.7012	-0.93868	-1.36597	3.24804	12.279	17.8965	-2.02103	0.631673	2.91675	0
0.1300	2.29662	6.07949	1.68307	4.16374	19.588	13.0353	3.16728	27.7936	3.83096	0.32176
0.1307	0.46783	7.60594	-1.67087	0.807971	27.238	-11.991	2.56399	27.7936	1.39308	0
0.1313	-2.89204	0.280727	-3.19539	-2.24077	29.382	-28.4832	-2.32267	13.4529	-1.04481	0
0.1320	-1.7012	-2.15809	1.68307	-0.414759	24.4606	-16.8883	-0.180987	9.1678	1.08834	0
0.1327	3.48746	1.50891	5.03701	3.55507	20.2214	2.62867	3.48401	11.9164	3.52623	0
0.1333	9.01636	0.894817	4.4272	5.6935	15.9335	8.75022	2.26234	14.9724	3.83096	0
0.1340	4.42312	-2.7634	1.98797	2.63937	11.9867	-0.3961	-5.36929	9.7824	2.61202	0
0.1347	-4.42312	-3.99158	-0.146354	-1.02343	12.279	-9.25434	-12.0809	1.5365	0.783606	0
0.1353	-5.35878	-2.7634	-1.36597	-1.02343	13.4972	-11.991	-14.2226	-3.94369	0.174135	0
0.1360	-1.99891	3.33363	0.463454	0.807971	13.7896	-9.25434	-11.4776	-3.34616	1.08834	-0.32176
0.1367	2.59433	8.83412	3.51249	2.9464	13.4972	-5.9055	-4.766	4.28513	2.30728	-0.32176
0.1373	1.36096	2.42127	-0.451257	1.115	9.50164	-13.2153	-6.28931	3.38031	1.08834	0
0.1380	-2.59433	-6.4304	-4.7321	-2.5478	4.92136	-19.3369	-9.03429	-2.73156	-1.65428	0
0.1387	-2.29662	-6.4304	-3.19539	-2.5478	4.33665	-16.5642	-2.02103	-3.03886	-2.57937	0
0.1393	1.36096	-1.85104	-0.756161	-1.32507	5.26245	-13.5394	11.1006	1.8438	-1.65428	0
0.1400	5.9542	0.894817	-0.451257	-0.107729	4.33665	-6.19357	16.9072	7.64837	-0.435337	0.32176
0.1407	4.42312	-1.544	-2.89049	-1.6321	1.90033	5.40137	4.38894	4.28513	-1.34954	0.32176
0.1413	-0.17012	-5.50926	-4.1223	-4.07217	0.974527	11.811	-11.4776	-1.50236	-3.18884	0
0.1420	-1.06325	-3.37749	-2.58558	-5.2949	1.26689	14.5477	-16.3643	-2.73156	-2.8841	0
0.1427	1.06325	1.20186	-0.146354	-4.68623	-0.877075	23.694	-11.4776	-0.290228	-1.34954	0.32176
0.1433	3.48746	3.03536	2.29288	-0.716401	-7.26023	29.8156	-4.44927	3.99491	1.08834	0
0.1440	2.29662	1.80718	1.07326	0.807971	-11.5482	16.0601	-5.36929	3.68761	2.61202	0
0.1447	-1.7012	-0.93868	-1.36597	-0.414759	-7.89367	-6.51765	-8.11427	0.0170722	2.61202	0
0.1453	-2.59433	-2.46513	-2.28068	0.500942	-1.46179	-15.0518	-4.44927	-1.50236	2.00255	0.32176
0.1460	0.46783	-0.631635	1.07326	1.41664	2.82613	-0.3961	2.56399	0.631673	1.69781	0.32176
0.1467	3.48746	2.72831	6.56153	3.24804	2.82613	13.0353	8.67231	4.89973	0.783606	-0.32176
0.1473	0.76554	0.587772	6.25662	4.16374	0.974527	9.03829	9.2756	3.38031	-3.49358	-0.32176
0.1480	-3.52999	-2.46513	1.98797	-0.716401	1.60797	6.62568	6.83227	-1.50236	-7.75987	0
0.1487	-2.59433	-0.0175454	-1.36597	-5.2949	3.11849	13.3234	1.94561	-3.03886	-8.36935	0
0.1493	4.42312	2.72831	-2.89049	-4.68623	4.04429	29.8156	-2.62432	1.8438	-6.2362	0
0.1500	9.31407	3.03536	-1.06106	-4.07217	1.90033	40.7983	-3.54434	9.7824	-5.01725	0.32176
0.1507	1.36096	-0.0175454	0.15855	-6.81928	-0.877075	25.2424	-2.62432	9.4751	-5.93146	0.32176
0.1513	-4.72083	-5.50926	0.463454	-5.2949	3.11849	1.11628	-0.799361	4.59243	-5.32199	-0.32176
0.1520	-3.8277	-7.34276	1.37816	-0.414759	9.50164	-9.25434	-3.84598	-1.80966	-2.8841	-0.32176
0.1527	0.12759	-2.7634	-1.67087	3.24804	10.7198	-0.3961	-3.24269	-4.25099	2.00255	0.32176
0.1533	7.18757	2.11422	-5.95172	5.07945	8.62457	14.5477	6.22898	1.5365	3.83096	0
0.1540	4.72083	0.894817	-7.17133	1.72367	-0.877075	16.6722	7.13392	-0.597529	1.08834	0
0.1547	-3.18975	-5.21099	-5.95172	-1.32507	-13.351	9.65044	-5.06765	-6.99962	-2.8841	-0.643521
0.1553	-4.42312	-4.90395	-2.58558	1.72367	-12.4252	9.36237	-16.6659	-6.38502	-3.18884	-1.28704
0.1560	0.12759	2.42127	1.98797	3.55507	-5.11627	20.6332	-17.8876	-0.904829	0.783606	-0.32176
0.1567	3.48746	5.16713	3.20759	-0.414759	-4.82391	20.3452	-12.3976	3.68761	1.69781	0.32176
0.1573	1.36096	0.587772	-0.146354	-4.07217	-7.89367	0.82821	-16.6659	1.24627	-1.04481	0
0.1580	-1.99891	-3.37749	-3.50029	-6.21061	-7.26023	-11.0908	-30.3908	-2.42426	-2.8841	-0.32176
0.1587	-1.99891	0.894817	-3.50029	-7.73498	-0.53599	-12.9273	-29.4859	-1.19506	-3.49358	0
0.1593	1.06325	2.72831	-1.06106	-6.81928	6.77297	-16.2761	-10.2559	4.59243	-3.18884	0
0.1600	4.72083	-1.544	1.68307	-4.07217	9.84273	-28.7713	17.2089	10.397	-4.40778	0
0.1607	1.99891	-1.544	0.768357	-7.43333	10.4274	-37.9536	44.9754	2.7657	-8.36935	0
0.1613	-3.52999	-1.544	-1.06106	-13.2292	8.91693	-14.7637	48.0371	-7.61422	-10.5134	0
0.1620	-4.12541	-4.5969	-1.67087	-12.3135	4.33665	25.2424	20.5722	-9.13365	-7.1504	0
0.1627	-0.76554	-2.46513	-1.06106	-3.4635	0.0487264	52.3933	1.64397	-2.73156	-1.65428	0
0.1633	4.12541	0.894817	1.98797	5.38647	-3.60575	57.5786	3.48401	13.7602	1.39308	0
0.1640	2.29662	-1.23695	1.37816	3.24804	-6.67551	43.535	3.78565	18.0283	-0.435337	-0.32176
0.1647	-1.99891	-1.85104	-0.451257	-1.32507	-3.31339	24.6302	5.30896	4.89973	-1.34954	-0.32176
0.1653	-1.06325	0.894817	-0.146354	1.72367	-4.53155	-13.2153	3.16728	-7.61422	2.00255	0
0.1660	1.99891	2.42127	0.463454	4.7778	-24.0221	-70.0017	-0.482633	-7.92152	3.22149	0
0.1667	7.18757	4.25477	2.59778	4.47077	-41.1251	-95.3161	5.92734	1.5365	2.61202	0
0.1673	9.31407	2.72831	1.98797	2.9464	-53.0143	-82.821	8.67231	1.24627	2.00255	0
0.1680	7.18757	-3.37749	-1.06106	0.807971	-68.8991	-68.7774	7.13392	-5.48019	-1.04481	0
0.1687	2.89204	-4.28986	-1.67087	-1.02343	-70.7507	-52.2852	7.45065	-5.78749	-2.27463	0
0.1693	-1.06325	0.894817	0.768357	-0.716401	-61.2978	-29.0954	9.57725	-0.904829	0.47887	-0.32176
0.1700	-0.46783	4.56181	2.90268	-1.32507	-46.6311	-22.9738	19.3506	4.28513	3.83096	-0.32176
0.1707	-2.59433	0.894817	0.768357	-5.90358	-19.4905	-46.4878	26.6655	2.4584	2.61202	0
0.1713	-9.90949	-5.50926	-3.50029	-7.73498	-3.89811	-58.0827	15.6856	-3.03886	-1.65428	0
0.1720	-9.61178	-5.50926	-5.03701	-5.90358	-21.5858	-20.8493	-3.84598	-4.86559	-3.49358	0
0.1727	-1.7012	-0.631635	-2.58558	-4.68623	-53.9401	27.0429	-9.63758	-2.73156	-2.8841	0
0.1733	5.01854	1.80718	0.768357	-2.5478	-72.8947	32.2642	-5.06765	3.38031	-1.9699	0.32176
0.1740	-1.36096	0.587772	-1.36597	0.807971	-68.3144	2.05252	-5.06765	2.4584	0.174135	0
0.1747	-22.1156	-0.93868	-4.1223	3.24804	-53.0143	-3.78096	-5.06765	-3.03886	-0.435337	-0.965281
0.1753	-30.0687	0.280727	-1.06106	3.24804	-30.454	27.655	-0.180987	-5.48019	-3.79831	-0.965281
0.1760	-7.78299	3.94772	4.1223	2.63937	7.99113	57.8667	0.739032	0.0170722	-2.8841	0.32176
0.1767	21.5202	5.16713	5.34191	5.07945	46.4362	62.1517	-2.02103	9.4751	0.47887	0.32176
0.1773	17.5224	-0.0175454	0.463454	5.07945	70.5558	41.4105	-6.59096	5.82164	2.00255	-0.32176
0.1780	-15.0981	-6.4304	-4.7321	2.0307	40.0531	32.2642	-8.43099	0.0170722	0.783606	-0.32176
0.1787	-10.8451	-7.34276	-5.95172	-2.24077	-44.1948	29.4915	-0.482633	0.631673	-3.18884	-0.32176
0.1793	34.6194	-3.07045	-4.1223	-6.51763	-89.6565	27.655	13.8606	3.073	-6.2362	0
0.1800	30.6641	0.894817	-1.36597	-4.98788	-84.4915	59.4151	26.0622	7.64837	-5.93146	0
0.1807	-18.458	-0.32459	-2.28068	-1.93913	-73.187	96.3244	18.7322	4.28513	-5.01725	0
0.1813	-34.9597	-4.5969	-3.8052	-4.68623	-44.7795	102.122	-2.62432	-3.03886	-6.84567	0
0.1820	-24.5823	-6.4304	-4.1223	-8.95771	8.91693	95.1001	-17.5859	-4.55829	-10.2086	-0.32176
0.1827	-51.1211	-3.68454	-2.28068	-6.81928	53.7939	89.6267	-22.7742	-2.73156	-9.59917	0
0.1833	-100.541	1.80718	2.29288	1.72367	70.5558	74.0708	-15.1426	4.28513	-5.32199	0
0.1840	-111.854	1.80718	1.68307	2.0307	84.589	47.8201	-9.33593	6.12894	-5.62673	-1.28704
0.1847	-94.1614	-1.85104	-1.06106	-8.04201	100.766	10.2626	-17.8876	0.0170722	-10.2086	-1.28704
0.1853	-80.4242	-0.631635	-0.451257	-9.56638	105.639	-32.7683	-31.0092	-1.80966	-6.84567	-0.32176
0.1860	-88.675	3.33363	1.07326	-1.32507	70.5558	-47.7121	-42.6074	3.38031	1.69781	0.32176
0.1867	-53.2476	6.69358	3.20759	5.6935	4.04429	-38.2417	-47.1774	14.0505	5.97499	0
0.1873	67.2824	4.86008	1.98797	5.6935	-37.4706	-15.3759	-57.554	13.7602	5.35464	0
0.1880	156.723	1.50891	0.768357	5.38647	-53.3554	33.4525	-69.7706	5.20704	3.52623	-0.32176
0.1887	142.986	3.64068	1.98797	5.99515	-49.0675	81.6687	-63.9639	1.5365	0.174135	-0.32176
0.1893	91.9924	7.00062	3.51249	3.55507	-30.1616	96.9366	-43.2107	2.1511	-4.71252	0
0.1900	69.7067	9.74648	7.17133	2.9464	-15.2026	83.5051	-8.73264	7.34107	-8.06461	0.32176
0.1907	69.1112	7.00062	5.34191	3.24804	5.26245	52.3933	14.4639	3.38031	-8.36935	0
0.1913	73.4068	-0.631635	-0.451257	4.47077	24.4606	53.0054	8.97396	-7.30692	-6.54093	-0.32176
0.1920	74.2999	-4.90395	-2.58558	5.6935	30.8925	112.204	2.86563	-11.575	-5.32199	0
0.1927	89.5682	-3.99158	-2.58558	-0.414759	49.7984	151.562	11.4173	-11.2677	-7.1504	0
0.1933	109.685	-0.93868	-0.756161	-4.3792	80.6421	125.924	24.2372	-7.61422	-6.54093	0.32176
0.1940	21.2225	-1.544	0.463454	-3.15647	94.9677	80.7685	27.8871	-6.99962	-2.27463	0.32176
0.1947	-102.71	-4.28986	0.15855	-5.2949	92.8237	35.9011	36.4388	-9.13365	0.783606	0
0.1953	-98.1167	-4.5969	-0.756161	-6.51763	80.9345	-39.1779	64.2053	-9.74825	2.00255	-0.32176
0.1960	-41.3392	-1.23695	0.463454	1.115	73.2845	-91.3551	87.1002	-5.48019	5.65938	-0.32176
0.1967	-8.37841	0.894817	1.98797	4.16374	71.4816	-127.04	82.8168	-0.290228	6.8892	-0.32176
0.1973	16.6292	-2.46513	-2.58558	-8.34904	73.6255	-236.616	52.607	-6.07772	0.174135	-0.32176
0.1980	27.602	-7.03571	-6.56153	-12.3135	86.0995	-256.457	13.8606	-11.575	-2.57937	-0.32176
0.1987	25.1778	-7.03571	-5.64682	-0.107729	70.8481	-111.808	-19.7125	-9.74825	5.35464	0
0.1993	23.6467	-1.544	-2.28068	7.82655	20.5138	-0.108027	-43.2107	-6.07772	15.1279	0
0.2000	28.2399	3.94772	1.68307	9.04928	-8.47839	35.613	-52.984	0.631673	20.6132	0
0.2007	24.2421	4.25477	1.68307	7.21788	-1.75415	43.535	-58.1724	4.89973	19.699	0
0.2013	-8.71865	0.280727	-0.451257	-1.6321	14.423	23.0818	-58.474	5.20704	12.9839	0
0.2020	-43.1679	-1.85104	0.463454	-7.73498	22.3167	-7.41788	-56.634	3.68761	9.93656	0
0.2027	-35.2574	0.894817	3.81739	-1.02343	20.2214	-30.6078	-61.219	2.1511	12.0697	0
0.2033	-52.6521	4.86008	6.86643	3.24804	14.7154	-45.8756	-47.7957	4.89973	11.765	0
0.2040	-99.6478	2.11422	3.51249	-2.5478	7.69877	-42.8148	-29.1691	3.073	7.49867	0
0.2047	-80.7219	-6.4304	-6.86643	-0.107729	-10.6223	-33.3805	-19.4109	-2.11696	3.52623	0
0.2053	-52.0567	-11.6151	-15.7086	5.6935	-42.6843	-31.8321	14.7656	-1.80966	1.08834	0.32176
0.2060	-70.0469	-11.9221	-18.1601	0.500942	-63.1007	-8.35412	59.017	2.7657	0.47887	-0.32176
0.2067	-90.1636	-10.7027	-16.9283	-9.26474	-58.8127	19.4449	84.9585	11.0116	-1.04481	-0.32176
0.2073	-122.529	-13.7556	-19.6846	-15.9763	-42.9767	27.0429	87.4018	10.397	-3.79831	0
0.2080	-157.914	-17.4138	-23.3434	-13.5362	-23.145	66.7249	55.9703	3.68761	-3.79831	0
0.2087	-181.135	-17.7209	-22.1238	-6.51763	-2.67995	151.274	8.05394	3.99491	-2.57937	-0.32176
0.2093	-208.269	-11.0098	-15.0988	-3.4635	16.2259	232.151	-9.9543	10.0897	-2.8841	0
0.2100	-203.719	-3.37749	-9.61056	0.807971	36.0575	298.66	-4.766	17.721	-1.34954	0
0.2107	-153.065	-4.90395	-12.9645	5.38647	52.8681	373.451	-13.6042	18.9331	4.1357	0
0.2113	-87.4417	-6.12335	-13.5743	8.43522	58.9589	450.654	-22.4575	19.2404	8.71762	0.32176
0.2120	-61.2007	1.20186	-7.78114	12.4051	47.9955	467.722	-21.5526	23.2183	9.32709	-0.32176
0.2127	-92.928	11.8783	-0.146354	15.1522	15.0077	439.671	-18.4909	26.2571	9.02235	-0.32176
0.2133	-25.4755	17.677	9.61056	14.8451	-34.4008	321.561	-4.14763	32.6763	4.74517	-0.32176
0.2140	204.612	16.4576	13.2816	9.96498	-100.961	-20.5612	7.45065	32.369	-3.79831	-1.28704
0.2147	332.797	12.4923	10.8424	-1.93913	-162.6	-244.862	10.4973	26.5644	-12.0371	-1.28704
0.2153	230.555	10.0535	10.2326	-12.3135	-161.089	-31.8321	38.5805	27.4863	-17.5332	0.32176
0.2160	134.14	15.2382	15.4159	-9.87341	-106.467	215.046	80.0718	29.313	-14.4749	0
0.2167	200.019	22.5634	22.7336	-2.5478	-59.7385	240.973	105.108	32.0617	-10.2086	0
0.2173	325.482	19.2035	19.9895	-2.5478	-6.33443	224.517	108.758	29.313	-16.3034	0
0.2180	299.241	7.30767	8.69585	-9.56638	39.712	243.422	99.9201	18.6429	-23.9326	0
0.2187	128.951	-2.46513	-0.756161	-22.0792	-3.60575	278.819	83.4352	7.03377	-22.1042	0
0.2193	51.4188	-5.50926	-4.4272	-25.4349	-86.2944	282.203	47.117	-3.63639	-15.6939	0
0.2200	57.2028	-5.50926	-5.34191	-6.51763	-102.472	208.349	17.5105	-9.44095	-5.01725	0
0.2207	47.1658	-10.0886	-9.30566	10.8807	-66.1704	122.287	14.7656	-18.899	4.1357	0
0.2213	40.446	-15.8874	-14.489	13.9294	-22.5116	51.169	14.4639	-29.5862	5.97499	0.32176
0.2220	84.9749	-17.1068	-18.1601	15.4592	13.7896	-84.9455	9.89398	-31.4129	7.80341	0
0.2227	265.642	-15.8874	-21.2091	18.2009	30.6002	-226.245	5.00732	-26.8376	9.02235	0
0.2233	504.916	-12.8345	-19.6846	17.2906	39.712	-141.408	-6.28931	-14.3236	6.8892	0
0.2240	640.714	-15.5803	-21.8189	7.82655	56.2302	57.5786	-37.1175	-17.9941	6.58447	-0.32176
0.2247	640.714	-21.6861	-24.8679	-3.4635	74.8437	-25.1344	-69.7706	-35.9883	4.44043	0
0.2253	536.346	-21.0808	-22.1238	-5.90358	86.0995	-238.452	-72.8172	-38.1223	1.08834	0
0.2260	367.587	-12.5362	-17.2332	-1.93913	90.3874	-232.943	-55.729	-27.4522	2.91675	0
0.2267	78.5954	-0.0175454	-4.7321	3.55507	84.8813	-136.223	-42.6074	-14.3236	9.93656	0
0.2273	-239.742	8.22003	10.5375	4.7778	64.1726	-198.158	-36.1975	-4.25099	14.8232	0
0.2280	-310.214	9.74648	17.2454	7.5249	46.7773	-420.01	-31.0092	1.8438	18.48	0
0.2287	-174.415	11.2729	17.2454	13.9294	43.4152	-520.728	-31.9292	7.64837	23.6714	-0.32176
0.2293	-60.265	14.9312	15.4159	9.96498	41.5636	-349.829	-38.0224	13.7602	25.8046	-0.32176
0.2300	-83.4864	14.0188	12.062	1.41664	30.6002	-219.836	-36.1975	19.855	26.414	-0.32176
0.2307	-158.552	3.33363	1.37816	1.115	12.279	-276.298	-33.7541	20.4696	25.1951	0
0.2313	-174.118	-7.6498	-11.44	2.33234	0.389811	-305.573	-38.0224	22.2964	20.0037	0
0.2320	-160.976	-9.78157	-14.1841	0.1993	-5.74971	-285.12	-31.0092	27.4863	14.5185	-0.32176
0.2327	-95.0545	-6.4304	-11.44	-0.107729	-10.33	-271.725	-1.10101	33.2909	11.765	-0.32176
0.2333	23.0513	-1.544	-8.08605	-0.414759	4.62901	-244.538	32.7738	45.4975	8.71762	0
0.2340	30.3664	-0.631635	-7.17133	-5.2949	24.4606	-223.185	32.7738	43.3464	3.83096	-0.32176
0.2347	-188.748	1.20186	-3.50029	-6.21061	26.3122	-200.607	3.48401	34.1957	3.52623	0
0.2353	-424.96	8.52708	3.81739	-1.32507	22.6578	-151.166	-16.0475	41.5197	7.19394	0
0.2360	-443.886	12.4923	5.34191	3.8621	0.0487264	-75.187	-15.7459	49.4583	8.71762	0
0.2367	-392.935	12.1853	5.34191	2.9464	-41.1251	-23.2979	-3.84598	47.017	5.35464	0
0.2373	-322.42	6.69358	2.90268	-2.85483	-63.7341	-37.6295	2.86563	28.1009	-0.740072	0
0.2380	-132.906	-5.50926	-2.89049	-0.414759	-60.9567	-65.1045	-1.10101	-2.42426	-2.27463	0
0.2387	18.7557	-13.1415	-3.50029	5.6935	-41.1251	-62.3678	-6.8926	-30.2008	2.30728	0
0.2393	59.3719	-13.1415	-0.451257	3.55507	-17.3466	-52.2852	-9.03429	-55.5189	6.8892	0
0.2400	42.8702	-8.86921	5.34191	1.72367	-0.877075	-45.2635	-8.73264	-70.1669	7.49867	0
0.2407	-31.3021	-5.21099	11.7571	2.63937	15.3001	-38.8538	-15.7459	-67.1281	4.1357	0
0.2413	-81.3173	-3.99158	13.8914	-1.32507	34.2546	-25.4224	-30.7075	-58.2676	-2.8841	-0.32176
0.2420	-40.1483	-0.0175454	13.8914	-3.77053	48.5802	-9.57843	-28.8675	-50.0217	-7.45514	-0.32176
0.2427	-1.36096	4.25477	10.8424	6.6092	45.2181	-5.9055	-14.5242	-43.9269	-7.45514	0
0.2433	-5.06107	3.94772	6.86643	21.8637	9.50164	-7.12981	-11.7793	-39.6588	-6.54093	0
0.2440	-10.2072	-0.32459	3.81739	26.1406	-36.8859	-38.2417	-16.6659	-39.3515	-5.93146	0
0.2447	13.8648	-5.50926	0.463454	20.948	-56.0841	-86.1698	-8.73264	-38.7369	-7.75987	-0.965281
0.2453	96.2879	-5.81631	0.768357	15.4592	-53.3554	-59.5951	10.4973	-31.7202	-11.4276	-1.28704
0.2460	218.647	-0.0175454	5.95172	19.4236	-36.2524	27.655	25.7605	-27.4522	-12.0371	-0.32176
0.2467	224.431	6.69358	13.5865	32.2434	-11.2071	85.3416	33.9955	-29.2789	-8.06461	0.32176
0.2473	29.4308	9.13239	16.6355	39.8707	2.82613	117.714	40.7071	-32.9324	-5.01725	0
0.2480	-130.482	7.00062	15.111	36.8219	7.69877	142.416	49.862	-33.547	-2.8841	0
0.2487	-111.258	1.80718	12.062	17.5922	19.8804	141.804	39.7871	-38.1223	-2.27463	-0.32176
0.2493	-46.5278	-0.631635	8.08605	-9.87341	38.4938	165.318	17.8273	-43.005	-3.18884	-1.28704
0.2500	-30.0687	-0.32459	5.03701	-10.4821	52.2347	121.963	6.53063	-37.2175	0.783606	-1.28704
0.2507	-65.7514	-5.81631	-1.36597	5.6935	54.0863	-153.003	-2.62432	-39.0442	4.44043	0
0.2513	-44.1036	-12.2292	-7.47624	3.55507	38.2015	-341.907	-8.73264	-48.195	3.52623	0
0.2520	99.0098	-13.4486	-8.69585	3.24804	8.91693	-259.806	-13.0009	-44.8488	4.1357	-0.32176
0.2527	182.326	-11.0098	-9.91547	22.7794	-16.1284	-205.468	-15.1426	-33.8543	6.27973	0
0.2533	140.519	-7.6498	-9.91547	20.6464	-21.9269	-198.158	-8.11427	-21.9549	6.27973	-0.32176
0.2540	140.221	-7.03571	-8.39095	-1.6321	-13.351	-167.046	-5.67094	-15.5528	1.69781	-0.32176
0.2547	201.55	-8.56217	-6.56153	3.8621	-2.38759	-159.088	-14.5242	-14.0163	-2.27463	0
0.2553	277.848	-7.34276	-7.47624	18.5079	8.91693	-125.24	-21.5526	-11.8823	-1.34954	0
0.2560	426.788	-3.68454	-8.39095	12.4051	18.3698	-61.7556	-21.2358	-12.8042	-1.04481	-0.32176
0.2567	439.292	2.42127	-1.36597	-2.85483	22.6578	-23.2979	-23.0759	-7.61422	-1.9699	-0.32176
0.2573	129.844	7.60594	7.47624	-15.3676	21.0985	-19.625	-32.8341	-2.42426	-1.04481	-0.32176
0.2580	-161.614	7.30767	16.9404	-20.5548	12.8638	-30.3197	-39.5457	-1.19506	-0.130601	0
0.2587	-206.781	3.03536	20.5993	-19.0304	4.62901	-37.6295	-37.4191	11.9164	-2.8841	0
0.2593	-65.7514	-0.32459	2.90268	-22.3862	-8.77075	-31.8321	-23.3775	21.0842	-6.2362	0
0.2600	138.69	-3.68454	-17.8552	-41.9175	-35.9601	-24.1981	5.92734	14.3578	-8.67408	0
0.2607	200.954	-10.0886	-21.514	-51.0692	-50.578	-33.9926	27.2838	4.59243	-13.5607	-0.32176
0.2613	120.062	-11.308	-16.0135	-55.6477	-49.3598	-49.8366	32.7738	3.073	-19.9711	0
0.2620	18.7557	-4.28986	-9.91547	-76.4018	-52.1372	-48.3242	28.5055	6.72647	-20.5805	0
0.2627	-40.1483	2.11422	-1.97578	-54.4303	-53.6477	-25.7465	18.1289	6.72647	-13.5607	0
0.2633	-55.3741	3.03536	5.34191	-5.60193	-52.1372	-3.78096	14.4639	7.64837	-8.06461	0
0.2640	-33.1309	-1.85104	4.1223	-1.93913	-46.6311	-7.41788	14.1623	1.24627	-8.97882	0
0.2647	-34.3217	-8.56217	-2.28068	-8.34904	-31.3798	-18.4007	8.97396	-11.575	-7.1504	-0.32176
0.2653	-113.683	-11.308	-6.56153	1.115	-10.6223	-11.3789	-1.7043	-16.1503	-1.34954	0
0.2660	-181.433	-13.4486	-13.5743	-5.90358	12.8638	6.01352	-8.73264	-21.6476	-1.65428	0
0.2667	-174.713	-14.668	-17.8552	-16.585	30.6002	17.2844	0.120658	-26.5303	-5.32199	0
0.2673	-110.621	-14.975	-16.3184	-8.34904	24.4606	8.42613	12.0206	-25.0108	-5.01725	-0.32176
0.2680	7.48528	-15.2821	-10.8302	2.9464	0.682169	2.95275	13.8606	-12.1896	-4.71252	-0.32176
0.2687	44.699	-7.95685	-3.50029	25.2249	-13.6921	21.5695	9.57725	11.0116	-2.27463	0
0.2693	-193.341	4.56181	4.7321	60.3177	-3.89811	28.5912	7.45065	27.4863	2.61202	0
0.2700	-603.203	14.0188	14.5012	78.3247	19.588	12.0991	18.4305	32.6763	5.0499	0
0.2707	-806.751	15.8523	15.7208	73.7462	27.238	-4.68119	30.0288	36.3297	1.69781	0
0.2713	-645.308	10.6588	5.03701	72.5235	11.6456	-3.1688	25.1422	36.3297	-1.9699	0
0.2720	-375.2	3.64068	-8.39095	95.4106	0.0487264	13.3234	15.9872	34.1957	-0.130601	0.32176
0.2727	-155.49	-3.07045	-19.3797	128.37	1.90033	27.3669	9.89398	36.3297	3.22149	0
0.2733	7.48528	-10.3957	-27.0023	137.527	5.84716	33.4525	4.70567	35.7322	3.52623	0
0.2740	114.576	-16.8085	-30.6611	115.556	4.92136	31.652	-2.92596	30.2349	2.30728	0
0.2747	194.234	-17.7209	-27.917	79.5421	2.48504	37.7376	-13.0009	22.911	2.00255	-1.28704
0.2753	211.332	-12.2292	-18.7699	24.6108	2.48504	65.2125	-27.6458	13.4529	2.61202	-1.6088
0.2760	101.179	0.280727	-4.7321	-48.6291	2.19269	96.0363	-37.4191	15.2797	5.65938	-0.32176
0.2767	-124.358	12.7994	7.78114	-87.6918	0.974527	84.1173	-24.5992	30.5422	4.74517	0.32176
0.2773	-169.822	17.3787	11.7571	-70.9076	1.60797	16.9963	-5.06765	39.3857	-1.9699	-0.32176
0.2780	-50.5256	14.9312	11.4522	-32.4535	3.11849	-42.8148	-0.799361	31.7544	-6.2362	0
0.2787	-101.179	15.2382	13.8914	-16.585	4.92136	-52.8974	-0.180987	26.8717	-7.1504	0.32176
0.2793	-97.2236	22.8705	16.0257	-65.4133	6.18825	-25.1344	3.78565	45.1902	-7.45514	0
0.2800	153.959	29.5816	17.5503	-118.82	5.55481	10.5867	5.61061	67.4695	-7.45514	0
0.2807	403.61	25.9234	16.0257	-103.867	4.04429	14.2596	8.97396	57.3969	-8.67408	-0.643521
0.2813	435.932	14.3258	15.4159	-73.6547	3.7032	1.44036	22.3972	16.7991	-11.1228	-1.28704
0.2820	206.441	3.64068	17.5503	-59.3105	4.04429	-0.3961	37.9621	-25.0108	-12.3418	0
0.2827	-62.434	-0.32459	16.6355	-36.4233	-4.53155	2.62867	40.4054	-44.5415	-11.1228	0.32176
0.2833	-134.735	3.94772	17.8552	-14.4519	-19.7829	13.0353	32.4721	-44.8488	-4.10305	0
0.2840	-30.9618	5.78122	17.8552	-12.9222	-25.8737	20.3452	12.3222	-41.7929	1.08834	0
0.2847	101.477	2.11422	12.9767	-13.2292	-23.145	30.1036	-11.176	-33.2397	0.783606	0
0.2853	126.484	-1.85104	8.39095	6.91085	-17.9313	39.8621	-16.0475	-24.7035	0.47887	0
0.2860	121.296	-1.23695	9.30566	27.9666	-6.04207	36.8373	0.120658	-21.033	1.08834	0
0.2867	172.587	1.20186	11.7571	44.7562	6.18825	33.1644	18.4305	-14.3236	0.783606	0
0.2873	212.225	-4.90395	5.34191	63.0648	5.84716	35.0009	18.1289	-14.3236	-0.740072	0
0.2880	175.947	-12.8345	-1.67087	80.4578	-0.877075	51.457	10.1956	-18.5917	0.783606	0
0.2887	69.409	-11.308	-2.28068	77.409	0.682169	80.1563	5.00732	-17.3795	4.74517	0
0.2893	-41.0414	-3.99158	-1.36597	44.1422	4.33665	97.2606	6.53063	-10.6702	6.8892	0
0.2900	-152.13	1.50891	-0.756161	20.6464	6.48061	108.243	13.5439	1.5365	8.10814	0
0.2907	-232.086	-2.7634	-5.34191	8.43522	10.4274	118.002	7.13392	3.68761	6.8892	0.32176
0.2913	-234.213	-10.3957	-12.0498	-28.7961	9.50164	113.717	-5.06765	-7.30692	5.35464	0.32176
0.2920	-171.991	-13.7556	-15.0988	-66.6361	7.06532	104.57	-12.3976	-19.2063	6.8892	0
0.2927	-77.0643	-9.4833	-13.2694	-70.9076	7.99113	103.346	-16.6659	-28.6643	6.27973	0
0.2933	26.7088	-0.93868	-4.1223	-48.6291	5.55481	93.8758	-15.7459	-34.7762	3.52623	0.32176
0.2940	153.023	2.42127	4.4272	-16.892	-13.0587	66.4368	-17.5859	-38.7369	-0.435337	0
0.2947	212.225	2.42127	7.47624	11.4894	-39.9069	50.8809	-25.2025	-35.0835	-3.49358	0
0.2953	145.708	5.78122	9.00076	24.0021	-53.3554	45.6596	-30.3908	-29.8935	-1.04481	0
0.2960	106.963	8.52708	7.17133	19.7307	-49.9933	19.1208	-23.6792	-29.8935	2.30728	-0.32176
0.2967	153.023	8.22003	4.4272	11.1823	-40.1993	-17.5004	-2.62432	-23.7816	3.83096	0
0.2973	172.246	6.07949	3.20759	-6.21061	-33.8161	-59.5951	7.13392	-18.5917	2.91675	0
0.2980	154.256	2.42127	1.37816	-23.6035	-30.1616	-85.8457	4.70567	-16.4576	-0.130601	0
0.2987	101.179	-1.23695	-2.89049	-25.1333	-20.0753	-68.7774	19.0489	-1.80966	-3.79831	0
0.2993	-39.5104	0.280727	-3.50029	-41.0018	-9.98891	-53.7976	40.1038	21.0842	-7.45514	0
0.3000	-128.313	7.00062	5.64682	-71.5162	-10.33	-45.8756	40.4054	39.693	-6.2362	0
0.3007	-77.0643	5.16713	10.2326	-77.6191	-16.7131	-26.3587	17.8273	34.8103	-2.8841	0.32176
0.3013	-34.024	-1.85104	7.47624	-62.0576	-21.0011	-5.29334	-1.7043	10.7043	-1.65428	0.32176
0.3020	-50.1854	-1.23695	7.78114	-44.3576	-16.7131	12.4231	-6.59096	-9.74825	-1.04481	0
0.3027	-82.8484	2.11422	9.00076	-31.2362	-5.74971	16.3841	-9.03429	-21.6476	0.47887	0.32176
0.3033	-57.2454	4.86008	10.5375	-24.2176	7.06532	13.0353	-7.20933	-20.1282	1.39308	-0.643521
0.3040	12.036	4.25477	9.92766	-25.1333	22.0243	11.811	-7.20933	-13.4017	-0.130601	-1.28704
0.3047	-0.17012	0.280727	6.56153	-28.7961	33.6212	8.75022	-14.8259	-11.575	-2.27463	-0.643521
0.3053	-46.8681	0.587772	5.95172	-26.6577	41.5636	6.91375	-17.2692	-7.92152	-1.04481	0.32176
0.3060	-58.7339	5.78122	7.17133	-19.3321	43.4152	13.0353	-12.0809	1.24627	0.783606	0
0.3067	-66.0916	9.13239	7.47624	-15.3676	35.7652	22.7938	-3.54434	4.89973	0.174135	0
0.3073	-88.0371	6.38653	4.7321	-15.6693	27.238	16.0601	4.0873	-8.51905	-1.34954	0
0.3080	-113.683	-0.0175454	0.768357	-12.9222	14.7154	-0.3961	8.67231	-21.9549	-0.740072	0.32176
0.3087	-116.447	-4.90395	-2.58558	-12.0065	-1.75415	-15.3759	10.7989	-28.0497	-1.65428	0
0.3093	-117.34	-3.99158	-4.7321	-15.3676	-5.40863	-19.3369	27.5855	-28.357	-5.32199	-0.32176
0.3100	-132.013	1.20186	-3.50029	-18.7234	0.0487264	-7.41788	55.9703	-15.843	-8.36935	0
0.3107	-124.06	-0.0175454	-5.03701	-21.7721	3.11849	3.85298	47.4187	-9.13365	-10.8181	0
0.3113	-83.1461	-6.4304	-10.5253	-24.5192	5.26245	14.2596	8.97396	-5.78749	-12.6465	0
0.3120	-42.8702	-5.81631	-9.61056	-17.5007	15.3001	28.8793	-14.2226	10.397	-8.06461	0
0.3127	-20.2868	2.42127	-1.97578	-1.32507	19.588	48.1082	-25.2025	28.1009	1.69781	0
0.3133	-11.7383	6.38653	4.4272	5.07945	-7.89367	60.6394	-34.0558	37.2516	5.0499	0
0.3140	0.12759	3.33363	4.1223	-2.85483	-43.269	46.2717	-39.8625	32.0617	2.30728	0
0.3147	44.699	-3.37749	0.768357	-9.56638	-52.1372	38.3497	-40.1641	17.1064	0.174135	0
0.3153	60.265	-7.6498	-1.97578	-8.65068	-41.4174	51.169	-33.1358	4.89973	-0.740072	0
0.3160	-17.8626	-5.81631	-3.19539	-3.4635	-22.2192	42.9229	-11.4776	3.99491	-0.740072	0
0.3167	-46.5278	-1.544	-0.756161	1.41664	-7.55259	6.3016	23.3172	7.34107	-0.130601	0.32176
0.3173	58.1385	-1.85104	-0.756161	-3.4635	-2.38759	-47.7121	38.2637	-3.94369	-2.8841	0.32176
0.3180	169.227	-4.5969	-3.19539	-7.73498	13.7896	-88.9065	22.0955	-18.2844	-4.71252	0
0.3187	220.475	-4.90395	-3.8052	-1.6321	36.9833	-92.5795	5.00732	-18.899	-1.65428	0
0.3193	232.682	-0.32459	-3.8052	5.38647	42.197	-66.3288	3.48401	-4.86559	3.22149	0
0.3200	206.441	4.25477	-3.8052	8.13358	26.6046	-8.64219	4.38894	14.9724	5.65938	0
0.3207	152.13	1.20186	-7.47624	8.43522	-15.7873	48.1082	-6.59096	23.2183	5.0499	-0.32176
0.3213	155.787	-3.68454	-12.3547	8.74225	-81.7141	59.7031	-16.3643	26.5644	4.44043	0
0.3220	200.359	-4.5969	-12.3547	7.5249	-116.505	36.5132	-13.3026	18.3356	2.61202	0.32176
0.3227	183.857	1.80718	-6.56153	6.6092	-102.472	25.2424	-5.98766	7.34107	1.69781	0
0.3233	131.673	9.13239	-0.146354	7.82655	-94.5292	33.1644	-5.98766	15.2797	4.1357	0
0.3240	27.8997	7.60594	0.463454	3.55507	-92.7263	25.5305	-17.2692	13.1456	3.22149	0
0.3247	-117.638	3.64068	1.98797	-1.93913	-52.4296	7.84999	-25.8209	0.631673	-0.130601	0
0.3253	-190.577	6.69358	6.56153	-1.32507	-13.6921	3.24082	-27.0425	3.68761	0.174135	0
0.3260	-183.559	15.2382	12.062	0.807971	2.82613	6.91375	-27.6458	16.7991	1.39308	0
0.3267	-178.669	22.5634	20.9042	4.7778	31.8183	10.2626	-19.7125	31.7544	2.30728	0
0.3273	-167.696	16.7647	22.1238	7.21788	58.3742	5.40137	-13.6042	22.911	3.52623	0.32176
0.3280	-122.231	2.72831	12.062	5.99515	74.2103	-16.2761	-22.7742	-10.3629	2.91675	0.32176
0.3287	-23.6467	-3.37749	3.51249	5.99515	81.5679	-49.5485	-17.5859	-29.8935	1.39308	0
0.3293	151.534	-3.07045	-0.146354	5.99515	78.7905	-59.5951	24.8405	-26.223	0.174135	0
0.3300	230.555	-0.93868	-0.146354	6.30218	79.424	-46.1997	56.5736	-10.9604	-0.435337	0
0.3307	116.745	-0.32459	-0.451257	9.35092	76.3542	-44.0392	33.6938	2.7657	0.174135	0
0.3313	16.0338	-2.7634	-0.756161	12.098	69.63	-40.6903	5.92734	12.8383	0.783606	0.32176
0.3320	-4.42312	-4.28986	0.15855	7.82655	57.1073	-7.41788	4.0873	18.3356	0.783606	0
0.3327	-46.8681	-1.544	2.90268	-0.716401	31.1849	40.7983	4.38894	10.397	0.47887	0
0.3333	-82.8484	6.38653	8.69585	-3.15647	11.0609	57.2545	8.97396	-3.63639	2.30728	0.32176
0.3340	-84.3795	9.43944	8.69585	-1.02343	8.91693	39.2499	9.57725	-14.0163	0.783606	-0.32176
0.3347	-99.9455	3.03536	5.34191	-0.107729	16.5182	28.5912	1.94561	-11.2677	-2.8841	-1.6088
0.3353	-123.465	-3.68454	7.47624	1.72367	22.6578	17.2844	5.61061	0.324373	-2.57937	-1.28704
0.3360	-124.655	-1.544	9.92766	4.7778	23.5836	-11.3789	12.9406	-1.80966	-0.740072	0
0.3367	-105.432	3.03536	11.4522	9.65795	21.732	-19.9491	11.7189	-17.0722	1.08834	0.32176
0.3373	-86.506	1.20186	10.8424	10.2666	15.9335	1.44036	8.67231	-28.357	1.69781	0
0.3380	-77.6598	-4.28986	6.56153	5.99515	7.69877	18.5087	1.64397	-32.0275	1.08834	-0.32176
0.3387	-70.94	-6.12335	5.34191	4.47077	3.11849	25.5305	-8.11427	-30.491	0.174135	-0.32176
0.3393	-59.3719	1.50891	8.69585	5.99515	3.41085	34.0646	-10.8592	-20.4355	0.783606	-0.32176
0.3400	-46.8681	14.3258	11.7571	8.43522	5.84716	36.8373	-5.36929	-3.94369	2.00255	-0.32176
0.3407	-41.3392	12.7994	6.56153	9.04928	6.48061	22.7938	-1.7043	0.631673	0.47887	-0.32176
0.3413	-41.6794	-3.07045	-0.756161	3.8621	2.82613	9.36237	-0.799361	-5.17289	-3.79831	0
0.3420	-41.3392	-8.56217	-0.756161	-1.93913	0.682169	12.4231	4.38894	-0.597529	-8.36935	0
0.3427	-36.4907	-2.15809	1.68307	-0.414759	2.82613	14.5477	13.5439	13.1456	-8.06461	0
0.3433	-27.3043	1.50891	2.59778	4.47077	3.11849	11.811	23.0156	17.4137	-3.49358	-0.32176
0.3440	-24.88	-0.0175454	4.7321	4.47077	1.90033	17.2844	18.1289	8.57027	-0.740072	-0.32176
0.3447	-28.8353	2.42127	12.3669	2.0307	3.41085	42.0226	2.26234	8.87757	0.783606	0
0.3453	-30.3664	-2.15809	22.7336	-0.107729	0.682169	69.7857	-10.5576	16.7991	0.174135	0
0.3460	-27.6445	-21.6861	19.3797	1.41664	-6.67551	49.6566	-18.4909	14.6651	-0.740072	0
0.3467	-19.6914	-34.8101	2.90268	6.91085	-8.77075	-21.4614	-16.9676	12.2237	1.08834	0
0.3473	-15.7361	-39.6965	6.86643	7.82655	-6.33443	-67.5531	-16.3643	10.0897	1.39308	-0.32176
0.3480	-17.8626	-44.8812	30.3684	6.30218	-6.04207	-66.941	-15.4443	9.1678	0.47887	0
0.3487	-17.2672	-47.627	31.2831	5.07945	-8.18603	-59.5951	-7.81262	9.4751	-0.130601	0
0.3493	-11.1429	-56.4787	14.5012	2.63937	-9.11183	-55.6341	-3.24269	2.4584	-1.34954	0
0.3500	-4.42312	-43.9688	6.86643	2.9464	-6.67551	-50.1607	3.78565	3.38031	-0.740072	0
0.3507	-5.35878	32.6345	-10.2204	2.0307	-5.11627	-47.388	11.7189	8.57027	-1.34954	-0.32176
0.3513	-9.90949	90.9204	-39.5155	-3.15647	-7.55259	-46.4878	10.7989	3.68761	-3.18884	0
0.3520	-9.61178	64.6812	-48.3699	-6.81928	-6.96787	-50.7729	11.7189	9.4751	-1.65428	0.32176
0.3527	-4.72083	34.7663	-46.8454	-7.73498	-3.60575	-41.3025	15.6856	29.313	-0.130601	0
0.3533	1.36096	30.801	-41.3449	-7.12631	-3.89811	11.811	23.3172	43.3464	-0.740072	-0.32176
0.3540	0.46783	21.9493	-23.0385	-7.43333	-4.19047	49.9447	25.1422	38.7711	-1.65428	0
0.3547	-5.9542	9.43944	-14.7939	-7.73498	-1.16943	34.0646	6.53063	14.9724	-1.9699	0
0.3553	-6.88986	2.72831	-15.0988	-7.43333	6.18825	19.4449	-12.0809	-14.9382	-1.65428	0
0.3560	-3.8277	3.94772	-7.78114	-2.24077	12.279	26.4667	-9.33593	-31.4129	-1.04481	0
0.3567	-1.06325	5.78122	-1.67087	7.82655	10.1351	42.0226	0.120658	-21.3403	2.00255	0
0.3573	-6.54962	3.33363	-5.95172	7.21788	0.389811	67.6611	-4.14763	-3.94369	1.39308	0
0.3580	-13.5671	-0.0175454	-11.7449	2.9464	-7.26023	104.895	-14.8259	1.5365	-4.10305	0
0.3587	-11.1429	-1.85104	-13.2694	8.74225	-4.19047	117.39	-17.2692	2.1511	-5.62673	0
0.3593	-6.25191	-0.0175454	-11.44	13.6278	-6.96787	82.893	-8.11427	7.34107	-3.18884	0
0.3600	3.8277	6.07949	-3.8052	13.0137	-22.5116	17.6085	6.83227	20.1623	-0.435337	0
0.3607	14.5027	7.00062	2.59778	12.4051	-34.1085	-67.229	6.83227	26.8717	1.69781	0
0.3613	14.8004	3.33363	1.98797	9.35092	-58.5204	-121.243	-3.54434	34.503	0.47887	0
0.3620	12.3337	5.47417	0.15855	4.47077	-91.5081	-105.399	1.64397	47.3243	-2.27463	0
0.3627	19.9891	11.58	1.98797	5.07945	-93.6034	-57.1825	8.35558	46.7097	-2.57937	0
0.3633	30.9618	13.1064	4.1223	7.82655	-69.5325	-33.0564	3.48401	43.6537	-0.130601	0
0.3640	27.602	7.91299	1.37816	3.55507	-48.1417	-42.2027	-3.24269	35.7322	0.174135	0
0.3647	19.3937	2.11422	-1.97578	-1.02343	-35.3266	-44.9754	-11.176	18.9331	-1.65428	0
0.3653	21.2225	0.894817	-2.28068	0.500942	-21.2934	-22.6857	-16.6659	7.95567	-1.04481	0
0.3660	21.2225	2.72831	-0.451257	3.55507	-0.877075	7.52591	-11.176	-5.48019	-0.435337	-1.28704
0.3667	19.3937	7.30767	6.25662	5.6935	21.732	38.3497	8.05394	-4.55829	-2.27463	-1.6088
0.3673	15.6936	7.00062	6.86643	4.16374	31.1849	43.8591	18.7322	6.43624	-4.71252	0
0.3680	7.18757	-0.32459	1.07326	1.41664	24.8017	35.613	5.30896	0.0170722	-5.62673	0.32176
0.3687	5.65649	-2.46513	-1.06106	-0.107729	28.7486	45.3715	-12.6993	-5.78749	-3.18884	-0.32176
0.3693	9.61178	0.894817	0.463454	-1.02343	47.362	59.7031	-19.1092	-0.597529	-1.34954	0
0.3700	9.01636	5.47417	5.95172	2.63937	56.2302	74.6829	-21.8542	7.03377	0.174135	0
0.3707	1.65867	3.94772	7.78114	5.07945	41.5636	68.2733	-30.3908	3.073	2.00255	-0.32176
0.3713	-1.99891	-0.32459	5.64682	3.8621	19.2956	27.0429	-30.7075	-14.3236	1.39308	0
0.3720	0.46783	-0.32459	5.03701	3.55507	18.6622	-11.3789	-16.9676	-26.5303	0.174135	0
0.3727	1.06325	0.894817	5.03701	4.47077	25.6788	-44.3632	-0.482633	-25.9157	-0.130601	0
0.3733	4.42312	3.94772	7.78114	6.91085	21.4396	-74.5749	18.1289	-12.8042	1.69781	0
0.3740	7.48528	5.47417	9.30566	9.04928	11.9867	-61.7556	25.1422	-2.11696	3.83096	0
0.3747	3.18975	2.42127	5.03701	6.91085	4.33665	-31.2199	17.8273	-5.78749	1.08834	0
0.3753	1.65867	3.94772	4.1223	1.72367	5.84716	-5.29334	14.7656	-9.13365	-2.57937	0
0.3760	5.01854	11.2729	5.34191	-0.107729	11.0609	47.208	10.4973	-4.55829	-1.65428	0
0.3767	9.90949	10.9659	1.07326	2.33234	7.69877	82.893	-4.14763	3.38031	1.08834	0
0.3773	9.61178	-3.37749	-7.47624	0.807971	2.48504	58.4788	-17.5859	3.073	1.69781	0
0.3780	4.42312	-20.7738	-13.8792	-3.4635	3.41085	13.9355	-16.6659	-0.597529	2.30728	0
0.3787	5.65649	-25.0461	0.463454	-1.32507	8.91693	-12.9273	-8.73264	7.95567	3.83096	-0.32176
0.3793	12.3337	-11.9221	38.3081	2.63937	16.2259	-16.5642	-7.20933	22.911	4.74517	-0.32176
0.3800	17.5224	0.280727	62.7126	2.9464	19.0033	-9.57843	0.120658	43.0562	4.1357	0
0.3807	16.6292	7.30767	58.139	0.1993	14.0819	-6.51765	6.83227	69.2962	1.39308	0
0.3813	11.4406	14.6241	43.1866	-3.4635	6.18825	-17.5004	5.30896	90.039	-3.18884	0
0.3820	8.37841	10.6588	33.7223	-4.3792	1.26689	-46.4878	7.75229	89.7488	-6.2362	0
0.3827	8.0807	7.30767	47.7601	-1.32507	-1.75415	-57.7946	15.9872	63.4917	-5.93146	0
0.3833	16.3315	21.9493	68.518	7.5249	-7.89367	-30.9318	24.8405	17.4137	-1.34954	-0.32176
0.3840	24.5823	23.7828	46.2356	10.2666	-14.9103	-10.4787	25.7605	-25.6084	0.47887	-0.32176
0.3847	21.2225	-2.15809	-6.56153	0.807971	-12.1329	-11.0908	21.1755	-25.9157	-1.65428	0
0.3853	13.8648	-17.4138	-52.9435	-5.60193	-8.77075	-6.51765	18.4305	-53.3849	-1.34954	0
0.3860	10.8451	-12.8345	-73.7013	-0.107729	-18.2237	6.3016	15.9872	-112.899	1.69781	-0.32176
0.3867	9.90949	-17.1068	-47.1503	7.82655	-29.2358	13.6475	18.7322	-70.4742	4.1357	-0.643521
0.3873	2.59433	-23.5196	-22.1238	8.74225	-32.8903	10.2626	21.4772	24.7377	5.0499	-0.32176
0.3880	-5.9542	-19.8526	-41.3449	3.8621	-27.7253	-4.3571	17.2089	77.2348	3.52623	0
0.3887	-9.31407	-17.7209	-60.5783	-1.6321	-16.1284	-21.1734	12.639	94.6315	-1.04481	0
0.3893	-8.37841	-14.3609	-51.1141	-2.24077	4.04429	-19.0128	12.639	75.391	-3.49358	0
0.3900	-1.36096	-7.34276	-27.6121	2.9464	26.6046	3.85298	14.7656	24.7377	-1.65428	0
0.3907	1.36096	-6.12335	-7.17133	5.38647	24.8017	20.3452	5.00732	-43.005	-1.65428	0
0.3913	-3.8277	-11.0098	8.69585	-0.716401	6.18825	27.0429	-18.7925	-92.1389	-5.32199	-0.32176
0.3920	-6.88986	-10.3957	9.92766	-7.73498	-0.877075	33.1644	-31.9292	-97.6362	-7.45514	-0.32176
0.3927	-2.89204	6.07949	0.15855	-4.07217	-0.53599	28.8793	-31.0092	-74.1448	-1.65428	0
0.3933	6.25191	25.3093	0.15855	5.6935	-2.09523	16.0601	-28.2642	-29.5862	6.8892	0
0.3940	4.12541	19.5105	-3.8052	3.8621	-8.47839	-3.1688	-27.3442	6.72647	7.49867	-1.28704
0.3947	-5.35878	3.03536	-11.1351	-3.15647	-15.495	-11.991	-26.4242	11.6091	3.22149	-1.28704
0.3953	-5.35878	-2.7634	-7.17133	-3.77053	-11.8405	14.5477	-22.7742	13.1456	1.39308	0
0.3960	-1.36096	-1.85104	5.03701	-0.414759	0.0487264	59.091	-15.7459	26.5644	0.783606	0.32176
0.3967	4.72083	3.03536	16.6355	4.7778	12.8638	65.8247	-11.4776	29.6203	1.08834	0
0.3973	3.48746	4.86008	16.6355	4.47077	24.1683	10.5867	-16.0475	-0.597529	1.08834	0
0.3980	-1.99891	4.56181	12.062	0.1993	26.3122	-35.505	-10.2559	-25.0108	0.47887	0.32176
0.3987	-3.52999	3.03536	7.47624	-2.5478	17.1517	-34.5688	2.26234	-16.4576	-0.435337	0.32176
0.3993	-1.7012	-0.631635	2.90268	-3.15647	5.55481	-19.3369	6.83227	-10.9604	-0.130601	0
0.4000	2.59433	-2.7634	-10.8302	-0.414759	-0.877075	-0.3961	9.89398	-14.6309	2.30728	0
0.4007	2.89204	-7.03571	-41.6498	0.500942	4.33665	-0.3961	2.86563	-15.5528	2.61202	0
0.4013	1.36096	-5.50926	-49.8944	-0.716401	13.2048	-12.6032	-7.51097	-13.1115	1.39308	0
0.4020	-1.06325	3.64068	-26.6974	-0.716401	10.7198	-15.0518	-9.63758	-12.8042	2.30728	0
0.4027	-4.72083	7.60594	-15.7086	0.1993	0.389811	-6.80572	-9.03429	-14.3236	2.00255	0
0.4033	-2.59433	7.60594	-19.0748	3.24804	-1.75415	16.6722	-5.36929	2.7657	3.22149	0
0.4040	0.76554	9.13239	-22.4287	2.33234	3.41085	29.4915	-2.92596	27.7936	3.52623	0
0.4047	1.65867	12.1853	-23.6483	-4.07217	-0.877075	20.9573	-2.92596	37.5589	0.174135	0
0.4053	2.59433	11.58	-12.3547	-5.60193	-12.1329	19.1208	-2.32267	37.2516	-1.9699	0
0.4060	5.65649	8.83412	9.00076	-2.24077	-12.7663	30.1036	-5.06765	25.045	-0.435337	0
0.4067	6.54962	13.7117	28.8439	1.115	-5.40863	45.3715	-4.44927	3.38031	2.61202	0
0.4073	-0.17012	1.80718	47.1503	2.0307	-1.46179	47.208	-9.9543	-10.3629	3.22149	0
0.4080	-1.7012	-26.8796	46.8454	0.500942	-1.16943	35.0009	-19.7125	-3.34616	1.69781	-0.32176
0.4087	3.48746	-28.099	17.8552	0.500942	1.60797	24.0181	-17.5859	22.6037	1.69781	-0.32176
0.4093	2.89204	-10.3957	-13.2694	2.0307	6.48061	10.8748	-9.63758	42.4416	1.69781	-0.32176
0.4100	-0.17012	-9.17626	-23.6483	3.55507	5.26245	-15.0518	-0.799361	47.6316	1.39308	-0.32176
0.4107	-6.25191	-18.335	-8.69585	0.1993	-5.74971	-49.2245	4.0873	71.4303	-0.130601	-0.32176
0.4113	-11.1429	-31.4502	7.17133	-4.07217	-4.82391	-69.6777	6.53063	94.3242	-2.8841	0
0.4120	-10.2072	-59.5316	6.86643	-5.2949	-19.1495	-69.6777	5.92734	60.1455	-5.62673	-0.32176
0.4127	-7.48528	-83.9461	6.25662	-4.07217	-100.035	-47.388	3.78565	10.0897	-4.71252	-0.32176
0.4133	-1.7012	-100.114	5.95172	-0.414759	-165.962	-17.1764	12.639	-17.6868	-1.34954	0.32176
0.4140	2.29662	-117.203	-6.25662	-1.32507	-158.02	-9.25434	16.9072	-51.2509	-1.65428	0
0.4147	1.06325	-87.6043	-9.00076	-5.90358	-132.682	-15.0518	6.53063	-75.6642	-4.71252	0
0.4153	-1.99891	-30.8449	7.17133	-4.3792	-90.8747	-14.7637	-4.766	-67.1281	-3.79831	0.32176
0.4160	-2.89204	-33.8978	19.3797	1.41664	-24.3632	-8.64219	-12.6993	-43.9269	0.47887	0
0.4167	2.89204	-40.6089	25.4899	4.47077	29.6744	-4.68119	-9.03429	-21.3403	3.83096	0
0.4173	5.65649	30.1957	24.5752	5.07945	62.0287	-8.64219	-1.40265	-13.709	3.52623	0
0.4180	1.06325	104.351	14.8061	4.7778	87.9511	-10.7667	-2.02103	-21.3403	2.30728	0
0.4187	0.46783	100.079	12.6718	4.47077	98.0375	-6.51765	-5.06765	-21.9549	2.00255	0
0.4193	3.8277	64.3742	21.514	0.807971	75.4284	7.23783	-9.33593	-13.1115	0.783606	-0.32176
0.4200	6.84733	53.0837	33.7223	-2.24077	50.7242	20.3452	-9.33593	-8.51905	1.08834	0
0.4207	5.01854	41.1791	39.8326	0.500942	39.1273	2.62867	-9.9543	-16.1503	0.783606	0
0.4213	-1.36096	26.5287	45.9307	2.9464	26.6046	-24.5222	-9.03429	-27.4522	-0.130601	0
0.4220	-4.12541	22.2564	53.5655	0.1993	18.6622	-28.7713	6.83227	-32.9324	-1.34954	-0.32176
0.4227	1.06325	17.0717	10.2326	-0.716401	19.8804	-25.1344	26.3638	-34.7762	-1.65428	0
0.4233	10.5049	14.6241	-71.2499	2.0307	24.1683	-23.586	31.8538	-25.9157	0.47887	0.32176
0.4240	10.5049	21.6511	-91.3979	1.115	24.1683	-24.1981	19.9539	6.12894	-1.04481	-0.965281
0.4247	1.06325	33.2398	-52.0288	-2.85483	21.4396	-24.1981	11.1006	51.5923	-4.71252	-1.6088
0.4253	-5.35878	31.108	-16.6233	-5.2949	22.6578	-23.586	9.2756	87.3075	-5.01725	-0.32176
0.4260	-5.35878	10.3518	-2.58558	-5.2949	21.0985	-14.4397	2.56399	112.626	-3.18884	0.32176
0.4267	-1.06325	-2.46513	-9.61056	-4.07217	16.5182	9.65044	2.56399	128.503	-1.04481	0
0.4273	-1.36096	-3.68454	-21.2091	-1.93913	13.2048	15.1598	2.26234	90.3463	0.783606	0
0.4280	-5.65649	-3.68454	-21.8189	1.115	8.28348	9.65044	-8.73264	-17.6868	0.783606	0
0.4287	-5.9542	3.64068	-16.6233	4.7778	4.92136	16.0601	-16.0475	-110.15	2.61202	0
0.4293	-1.7012	12.1853	-8.08605	6.6092	5.26245	17.8965	-13.3026	-106.48	4.44043	0
0.4300	4.72083	14.0188	1.98797	6.30218	6.77297	19.4449	-8.11427	-49.7315	2.91675	0
0.4307	4.42312	9.13239	4.1223	2.9464	5.84716	13.9355	-8.73264	-11.8823	0.47887	0
0.4313	-0.76554	-0.631635	2.29288	-3.77053	2.19269	-1.62041	-11.176	9.1678	-1.65428	0
0.4320	-1.36096	-1.85104	4.4272	-6.21061	-0.53599	-7.12981	-10.8592	-0.904829	-2.27463	0
0.4327	0.12759	6.07949	7.78114	-0.716401	-1.16943	-2.55665	-9.03429	-49.4242	-0.130601	0.32176
0.4333	6.84733	10.3518	14.5012	7.21788	-1.16943	10.2626	4.70567	-73.5302	2.91675	0
0.4340	10.2072	4.86008	18.1601	8.13358	-0.53599	18.5087	19.6522	-66.2062	2.00255	0
0.4347	6.84733	-5.21099	-1.67087	-0.716401	-0.53599	12.4231	20.5722	-47.8877	-2.27463	0
0.4353	6.54962	-7.95685	-27.6121	-7.73498	-0.53599	3.85298	21.1755	-7.92152	-5.32199	0
0.4360	6.54962	-4.28986	-17.8552	-3.77053	-2.38759	2.62867	28.8072	33.5811	-3.18884	0.32176
0.4367	9.01636	-2.46513	9.30566	1.41664	-5.74971	12.7112	27.5855	69.9109	0.783606	0.32176
0.4373	8.37841	0.587772	7.78114	-4.07217	-7.26023	21.2454	7.45065	97.0728	1.08834	0.32176
0.4380	4.72083	5.78122	-9.61056	-7.73498	-6.04207	26.1426	-15.1426	105.302	-0.130601	0.32176
0.4387	5.01854	4.25477	-15.7086	-2.5478	-3.31339	35.613	-20.9342	147.419	0.174135	0
0.4393	3.18975	3.94772	-9.30566	2.0307	-0.243632	48.7203	-13.3026	211.508	3.22149	0
0.4400	-1.99891	11.2729	-1.06106	4.7778	0.974527	68.8855	-7.81262	93.095	6.27973	0
0.4407	-11.4406	12.4923	0.15855	3.8621	-0.243632	74.0708	-14.2226	-168.742	5.65938	-0.32176
0.4413	-15.0981	12.7994	5.03701	0.1993	-1.16943	57.8667	-23.6792	-226.719	2.91675	0
0.4420	-7.78299	27.4498	13.8914	-1.6321	0.682169	32.2642	-18.4909	-99.4629	1.39308	0.32176
0.4427	-1.06325	25.6163	6.86643	-1.32507	0.974527	-30.6078	-2.32267	-36.2956	0.47887	0
0.4433	4.72083	-3.07045	-3.50029	1.115	-0.877075	-79.7602	5.61061	-32.0275	0.783606	0
0.4440	5.01854	-15.5803	17.2454	0.1993	-2.09523	-60.2073	3.16728	-29.2789	0.783606	0
0.4447	-1.06325	6.07949	63.3224	-4.68623	-4.53155	-31.8321	3.16728	-31.7202	-2.57937	0
0.4453	-1.06325	33.5468	107.277	-4.68623	-6.04207	-20.8493	5.92734	-3.94369	-4.40778	0
0.4460	0.76554	24.0899	127.718	-2.5478	-4.82391	-11.991	8.67231	35.4249	-3.79831	0.32176
0.4467	8.37841	-10.7027	87.4342	-2.5478	-3.60575	-10.4787	20.8739	46.7097	-3.49358	0
0.4473	16.9269	-21.3791	7.47624	-2.5478	-4.82391	-18.1126	28.2039	25.9669	-2.8841	0
0.4480	10.2072	-9.78157	-23.9532	-1.02343	-5.74971	-17.7885	20.8739	-3.94369	-0.435337	0
0.4487	1.36096	-8.86921	-16.3184	-1.32507	-5.11627	-10.1546	9.89398	6.43624	1.08834	0
0.4493	3.8277	-35.4242	-16.6233	-1.32507	-3.60575	-5.9055	4.70567	65.6257	2.61202	0
0.4500	10.8451	-74.182	-16.9283	2.9464	-1.75415	3.85298	7.75229	116.603	5.35464	0
0.4507	14.8004	-86.3849	-16.3184	3.24804	-2.09523	26.1426	5.00732	91.5755	3.83096	0
0.4513	13.8648	-76.9279	-43.7842	-0.716401	-4.82391	53.6176	-2.02103	31.7544	0.783606	0
0.4520	10.8451	-82.4196	-113.375	-1.93913	-6.96787	59.4151	-7.81262	-1.19506	0.174135	0
0.4527	10.8451	-56.7858	-136.865	-0.107729	-4.53155	24.3062	-14.2226	3.99491	0.783606	0.32176
0.4533	9.01636	-7.34276	-70.945	2.9464	-0.53599	-25.7465	-16.6659	79.0616	2.30728	0
0.4540	-1.7012	-14.975	5.64682	2.9464	0.0487264	-53.7976	-20.3309	140.709	2.61202	-1.6088
0.4547	-8.37841	-31.4502	52.041	-0.414759	-2.09523	-58.4068	-24.5992	108.665	0.47887	-1.28704
0.4553	-7.18757	7.91299	63.6273	-1.6321	-3.31339	-41.9146	-21.2358	58.3017	-0.740072	0.643521
0.4560	-5.35878	55.2154	45.9307	0.500942	-1.16943	-8.96627	-8.43099	36.3297	-0.130601	0.32176
0.4567	-2.29662	66.813	28.2341	2.63937	-0.53599	10.2626	7.13392	-12.1896	0.47887	0
0.4573	-8.0807	55.5225	28.539	-1.02343	-3.89811	5.07729	8.35558	-77.7982	-1.65428	0.32176
0.4580	-15.7361	23.7828	37.3934	-5.90358	-8.18603	-3.1688	3.78565	-96.7143	-3.79831	0.32176
0.4587	-9.31407	-1.85104	-18.7699	-6.81928	-3.89811	-9.57843	11.1006	-115.033	-3.49358	0
0.4593	1.99891	13.4047	-102.996	-5.90358	-3.60575	-5.58141	19.6522	-126.625	-1.04481	0
0.4600	8.67612	32.3274	-93.8372	-1.6321	-36.2524	18.8328	22.6988	-83.2955	1.08834	0
0.4607	3.18975	28.0551	-29.7464	-2.5478	-75.9157	36.8373	15.6856	-46.0609	-1.65428	0
0.4613	-8.37841	33.5468	30.3684	-8.95771	-82.0065	34.6768	3.16728	-28.6643	-5.01725	-0.32176
0.4620	-8.71865	41.4862	43.7964	-7.12631	-68.8991	20.9573	-7.51097	-3.63639	-4.10305	0
0.4627	1.06325	25.0022	16.3306	1.72367	-45.7053	2.95275	-18.1892	-21.3403	-0.130601	0.32176
0.4633	8.37841	12.1853	45.9307	7.82655	-13.0587	-6.19357	-15.7459	-48.195	4.1357	0
0.4640	3.48746	24.3969	64.8591	7.21788	8.62457	-17.5004	-10.8592	-23.4743	4.44043	-0.32176
0.4647	-4.12541	35.0733	4.1223	2.0307	10.7198	-53.7976	-15.7459	28.6984	0.783606	0
0.4653	-3.52999	24.6952	-23.9532	-1.02343	1.90033	-82.2088	-13.6042	99.2068	-0.435337	0
0.4660	-1.36096	5.47417	-1.97578	-0.107729	-1.16943	-68.4533	4.0873	108.358	1.08834	0
0.4667	0.12759	-10.3957	-31.588	2.63937	8.62457	-46.7758	13.2422	75.1008	2.30728	0
0.4673	-0.76554	-23.8267	-70.3352	3.24804	15.6412	-35.7931	6.53063	101.341	2.00255	0
0.4680	-6.25191	-38.4683	-19.3797	-0.107729	14.423	-35.7931	12.639	71.123	0.174135	0
0.4687	-11.4406	-48.5394	37.3934	-4.07217	13.7896	-45.8756	17.8273	-79.625	0.174135	0
0.4693	-10.2072	-40.6089	26.7096	-5.2949	19.588	-31.8321	4.38894	-187.351	2.30728	0
0.4700	-5.06107	-14.3609	14.5012	-3.77053	36.691	18.5087	-0.180987	-157.457	3.22149	0
0.4707	-4.42312	11.58	27.6243	-4.68623	54.0863	38.9619	1.64397	-69.8596	0.47887	-0.32176
0.4713	-5.65649	23.7828	32.1978	-3.77053	53.7939	-3.1688	-0.180987	-3.94369	-1.9699	-0.32176
0.4720	-2.29662	34.1609	7.17133	4.16374	41.5636	-37.0174	0.422304	-16.1503	-0.435337	0
0.4727	2.29662	47.5832	-31.2831	5.99515	28.4562	-9.8665	1.34232	-72.6083	1.08834	0.32176
0.4733	9.90949	39.3456	-21.8189	2.9464	14.0819	34.0646	8.67231	-26.5303	1.39308	0
0.4740	13.2694	12.4923	27.6243	0.500942	2.82613	28.8793	8.35558	85.1564	0.174135	0
0.4747	9.31407	4.86008	23.6605	-1.32507	2.82613	4.17706	-3.54434	157.491	-1.34954	0
0.4753	10.2072	19.5105	-43.1744	-0.414759	9.20928	10.2626	-8.43099	246.609	0.47887	0
0.4760	16.0338	26.2216	-97.496	2.9464	12.279	23.0818	-6.59096	312.217	3.22149	0
0.4767	15.3959	24.0899	-83.1533	5.6935	14.7154	25.8545	-2.32267	238.055	4.1357	0
0.4773	3.8277	21.344	-18.465	3.8621	15.9335	22.1816	-6.28931	100.112	2.00255	-0.32176
0.4780	-6.54962	-22.3002	24.8801	1.115	13.2048	18.2206	-17.8876	-41.4856	-0.130601	0
0.4787	-9.61178	-114.765	55.3949	0.1993	8.91693	22.4697	-20.6326	-210.552	-1.34954	0.32176
0.4793	-10.2072	-136.74	93.2395	0.1993	4.62901	28.8793	-14.5242	-243.809	-1.9699	0
0.4800	-9.01636	-59.5316	83.7753	1.41664	4.33665	37.4495	-7.81262	-164.781	-1.04481	0
0.4807	-8.37841	0.280727	20.5993	1.115	6.48061	39.2499	-12.0809	-165.089	-0.435337	0
0.4813	-8.71865	23.1775	-18.1601	-2.5478	6.48061	29.4915	-18.4909	-200.787	-2.8841	0.32176
0.4820	-10.5474	38.7403	-3.50029	-4.98788	6.18825	13.6475	-4.14763	-216.664	-5.62673	0
0.4827	-10.5474	46.3638	-1.97578	-3.77053	6.48061	-7.74196	19.9539	-169.357	-6.2362	0
0.4833	-0.46783	53.0837	-26.0876	-1.93913	5.84716	-10.4787	29.1088	-55.2116	-5.62673	-0.32176
0.4840	9.90949	50.9431	-24.8679	-4.07217	5.55481	-0.108027	17.5105	33.8884	-5.32199	-1.28704
0.4847	10.8451	26.8357	-5.95172	-8.04201	7.40641	-10.7667	2.26234	48.2291	-3.18884	-0.32176
0.4853	7.78299	-16.5015	-23.6483	-7.12631	8.28348	-17.7885	-7.51097	9.4751	-0.435337	0.32176
0.4860	5.65649	-33.5907	-55.9925	-2.5478	6.48061	-3.78096	-18.4909	-64.3794	-0.435337	-0.32176
0.4867	6.84733	-9.17626	-34.3322	1.115	3.7032	3.24082	-16.0475	-105.882	-0.130601	-0.32176
0.4873	3.48746	4.86008	-0.451257	-0.414759	0.0487264	-11.0908	-7.20933	-65.2843	-0.435337	0
0.4880	-3.18975	0.587772	-23.0385	-3.15647	-1.75415	-24.1981	-6.8926	-25.6084	-1.9699	0
0.4887	-7.18757	2.42127	-70.945	-1.32507	-7.26023	-26.9708	-1.40265	-1.80966	-1.04481	-0.965281
0.4893	-14.205	4.86008	-105.436	0.807971	-19.1495	-26.9708	15.6856	5.82164	0.47887	-1.6088
0.4900	-15.0981	10.9659	-115.205	1.41664	-25.289	-18.4007	30.0288	-25.3181	1.39308	-0.643521
0.4907	-12.0785	20.1246	-81.3239	-1.02343	-23.4374	-21.1734	25.1422	-6.69232	-0.435337	0.32176
0.4913	-11.4406	9.43944	-23.0385	-2.5478	-20.0753	-37.6295	14.4639	62.5869	-1.04481	-0.32176
0.4920	-8.71865	-15.2821	17.2454	-1.32507	-17.6389	-33.6685	11.4173	54.0337	1.39308	-0.32176
0.4927	-4.42312	-22.3002	27.9292	-0.414759	-12.1329	-18.1126	8.97396	-6.99962	2.91675	0
0.4933	2.59433	-6.12335	31.2831	4.7778	1.90033	-5.29334	9.2756	-3.03886	5.0499	0
0.4940	3.18975	4.86008	34.6371	7.82655	11.3532	12.7112	5.00732	28.1009	4.74517	0
0.4947	-3.8277	-1.85104	30.6733	2.0307	8.62457	32.8403	-8.43099	12.531	1.39308	0
0.4953	-5.9542	-10.7027	23.9654	-2.85483	1.26689	43.8591	-16.3643	-10.6702	1.08834	0
0.4960	-0.76554	-8.56217	19.0748	-0.716401	-8.77075	50.5568	-5.06765	0.938974	3.52623	0.32176
0.4967	6.84733	0.587772	16.0257	3.8621	-15.2026	55.13	12.639	20.1623	5.35464	0
0.4973	5.9542	1.80718	11.4522	3.55507	-10.9147	35.613	14.1623	18.0283	3.83096	0
0.4980	-1.7012	-3.68454	12.9767	1.115	-5.74971	6.62568	7.13392	11.0116	1.69781	0.32176
0.4987	-3.52999	-9.78157	12.6718	0.500942	-5.40863	-6.80572	3.16728	8.87757	0.47887	0.32176
0.4993	0.76554	-15.5803	-0.451257	-0.414759	-4.53155	-11.0908	2.86563	3.68761	-1.04481	-0.32176
0.5000	7.18757	-12.2292	1.68307	2.0307	-0.53599	-8.64219	8.35558	6.72647	0.783606	0
0.5007	6.54962	-11.308	19.6846	4.47077	1.60797	-8.35412	9.57725	3.38031	3.52623	0.32176
0.5013	-1.06325	-20.1597	28.539	1.41664	-0.243632	-16.2761	2.86563	-14.6309	1.08834	0
0.5020	-1.7012	-11.9221	29.1488	0.500942	-3.60575	-16.5642	4.70567	1.24627	-1.9699	0
0.5027	4.12541	13.7117	32.8076	2.9464	-5.40863	-10.1546	6.83227	42.7489	-2.8841	0
0.5033	9.01636	27.1428	41.9669	4.16374	-5.40863	-1.33234	-1.40265	65.6257	-2.8841	0
0.5040	9.61178	5.78122	27.9292	0.500942	-6.33443	4.17706	-11.7793	73.257	-2.27463	0
0.5047	7.18757	-43.6618	9.61056	-6.51763	-8.77075	2.95275	-20.6326	55.2629	-1.04481	0
0.5053	4.12541	-96.1489	33.7223	-8.34904	-9.40419	3.24082	-22.4575	10.7043	0.47887	0
0.5060	1.06325	-99.2018	17.8552	-3.4635	-8.18603	2.62867	-15.7459	-7.30692	2.00255	0.32176
0.5067	2.89204	-42.7407	-77.3602	1.41664	-5.74971	-2.55665	-1.7043	29.0057	3.83096	0.32176
0.5073	8.37841	-11.308	-137.475	1.72367	-5.74971	-13.5394	5.30896	59.2236	2.61202	0.32176
0.5080	8.67612	-16.8085	-115.205	-0.414759	-5.40863	-22.3617	-1.7043	66.2403	0.174135	0
0.5087	4.42312	-39.0824	-86.5195	-1.32507	-1.75415	-17.7885	-9.9543	71.7376	0.783606	0
0.5093	1.99891	-83.0249	-107.875	-1.02343	1.60797	0.504128	-11.176	40.9051	1.39308	0
0.5100	0.76554	-39.0824	-112.144	1.115	2.82613	23.4059	-5.06765	-13.4017	2.30728	0
0.5107	-1.06325	61.6283	-29.7464	0.807971	1.90033	29.8156	-7.51097	-47.2901	1.69781	-0.32176
0.5113	1.99891	53.0837	112.156	-1.93913	-0.877075	22.7938	-17.2692	-8.22882	-0.130601	0
0.5120	7.78299	3.33363	173.795	-2.5478	-1.16943	14.5477	-14.2226	87.905	-0.435337	0
0.5127	9.31407	12.4923	102.082	-1.32507	0.389811	6.01352	-6.28931	101.341	-0.130601	0
0.5133	6.54962	55.8295	71.2621	1.41664	0.974527	6.91375	-4.766	50.0729	1.08834	0
0.5140	1.36096	75.9717	84.0802	1.115	0.974527	10.8748	-7.81262	41.2124	0.783606	-0.643521
0.5147	-4.12541	38.1262	43.7964	-2.5478	0.389811	5.68944	-11.4776	49.4583	-2.27463	-1.6088
0.5153	-8.71865	-3.37749	19.9895	-4.07217	-1.16943	2.95275	-7.51097	57.0896	-3.79831	-0.32176
0.5160	-9.31407	-9.17626	16.6355	-3.77053	-0.877075	3.5649	-2.02103	80.581	-3.79831	0.32176
0.5167	-2.89204	-1.544	6.86643	-1.93913	0.682169	6.91375	-1.40265	71.7376	-1.34954	0
0.5173	2.89204	5.47417	11.1473	-1.6321	-0.53599	7.23783	-4.14763	24.7377	-0.130601	0
0.5180	3.18975	14.3258	16.3306	-4.98788	0.0487264	-1.00826	-1.40265	3.99491	-2.27463	0.32176
0.5187	2.89204	24.6952	18.1601	-3.77053	-3.89811	-8.03003	13.8606	-75.0496	-2.27463	0.32176
0.5193	4.42312	21.6511	32.8076	1.72367	-27.0919	-7.12981	24.5389	-199.267	1.08834	0.32176
0.5200	7.18757	9.13239	42.8817	5.38647	-45.413	-1.00826	23.0156	-187.351	2.91675	0
0.5207	3.8277	3.03536	26.7096	2.9464	-43.5614	-7.74196	15.3839	-118.396	0.783606	0
0.5213	-3.18975	3.33363	16.6355	-1.93913	-38.6887	-12.6032	6.22898	-83.2955	-1.65428	0
0.5220	-3.18975	7.30767	24.5752	-2.5478	-28.9435	4.78921	-0.482633	-38.4296	-1.65428	0
0.5227	0.76554	9.74648	25.4899	-1.02343	-15.495	16.0601	1.04068	-11.8823	-1.04481	0.32176
0.5233	3.8277	10.6588	14.5012	1.72367	-3.60575	13.9355	11.4173	-4.55829	0.47887	0.32176
0.5240	4.42312	12.7994	-1.36597	2.9464	13.7896	11.1988	13.8606	-5.78749	0.783606	0
0.5247	4.42312	12.1853	-4.4272	0.500942	28.4562	6.01352	1.94561	-16.7649	-0.740072	0
0.5253	5.9542	7.91299	23.6605	-1.93913	28.4562	1.11628	-8.43099	-4.25099	-0.130601	0
0.5260	10.8451	4.86008	72.4817	0.500942	21.0985	1.44036	-12.3976	36.3297	1.69781	0
0.5267	17.5224	10.0535	66.0787	4.7778	15.0077	8.75022	-9.33593	74.7935	2.91675	0
0.5273	15.0981	21.344	-9.91547	5.38647	4.62901	10.5867	-6.28931	75.391	2.61202	0
0.5280	6.54962	21.9493	-63.9322	1.41664	-4.53155	4.78921	-10.8592	52.2069	0.47887	0
0.5287	3.48746	-0.32459	-61.7979	-1.6321	-2.38759	2.95275	-12.0809	40.3076	-0.740072	0
0.5293	2.59433	-39.0824	-47.4552	-0.414759	2.82613	3.24082	-4.44927	43.0562	0.174135	0
0.5300	2.59433	-72.6556	-80.1043	3.24804	8.91693	4.46513	3.78565	63.1844	1.69781	0
0.5307	-5.35878	-83.9461	-116.424	2.0307	19.588	-1.62041	2.86563	77.2348	0.783606	0
0.5313	-17.2672	-98.8948	-49.5895	-2.85483	23.2425	-13.8275	-0.799361	66.2403	-2.57937	0
0.5320	-18.1603	-111.413	63.6273	-4.98788	16.5182	-17.1764	1.34232	35.4249	-4.40778	-0.32176
0.5327	-10.5474	-79.6738	82.8606	-4.98788	13.2048	-14.4397	8.35558	10.397	-4.40778	-0.32176
0.5333	4.72083	-55.2593	39.8326	-1.93913	13.2048	-9.57843	20.8739	42.7489	-2.27463	0
0.5340	16.3315	-42.7407	24.2703	-1.32507	9.50164	-10.7667	20.2706	90.6536	-1.34954	0
0.5347	13.8648	46.0655	-14.1841	-4.3792	5.84716	-12.3151	4.0873	28.1009	-2.8841	0
0.5353	7.78299	137.618	-107.57	-3.77053	3.11849	-4.3571	-3.54434	-96.1168	-3.49358	0
0.5360	4.12541	130.292	-149.074	-0.716401	2.19269	6.62568	1.04068	-88.7928	-3.18884	0
0.5367	4.12541	86.6481	-96.8862	2.33234	3.7032	19.4449	7.45065	2.7657	-0.740072	0
0.5373	-0.46783	57.0489	-25.1728	2.33234	3.7032	24.6302	3.48401	-25.0108	1.08834	0
0.5380	-8.37841	30.1957	20.5993	-0.414759	0.389811	18.8328	-5.06765	-104.96	-0.435337	0
0.5387	-9.01636	10.3518	30.6733	-1.93913	-1.46179	13.3234	-4.44927	-72.6083	-1.34954	0
0.5393	-5.65649	-9.4833	-12.9645	-1.6321	-0.53599	9.65044	2.56399	34.1957	-0.130601	0
0.5400	-3.18975	-35.1172	-45.016	0.500942	0.682169	6.01352	7.75229	106.224	0.174135	0
0.5407	-6.25191	-61.3563	2.29288	-0.107729	0.682169	-2.23257	2.26234	105.609	-0.435337	-0.32176
0.5413	-12.9716	-72.0415	41.9669	-2.5478	0.389811	-11.703	-5.36929	75.391	-0.435337	-0.32176
0.5420	-11.7383	-65.9357	27.3194	-1.6321	0.974527	-10.7667	-5.06765	27.179	0.174135	0
0.5427	-0.17012	-65.9357	32.5027	1.72367	2.82613	-2.23257	-4.766	-25.9157	0.783606	0.32176
0.5433	13.2694	-26.5725	70.9572	4.16374	4.92136	5.68944	-2.62432	-47.8877	2.00255	0
0.5440	16.9269	60.1018	90.4832	3.55507	3.11849	1.72844	-2.02103	-60.0943	1.08834	-1.28704
0.5447	12.3337	102.518	57.2243	1.115	-1.46179	-9.57843	-5.67094	-61.9381	-1.04481	-1.28704
0.5453	7.78299	91.8415	-4.7321	-1.02343	-4.19047	-19.0128	-1.40265	-48.195	-2.27463	0.32176
0.5460	3.18975	74.4452	-36.4665	-3.4635	-4.53155	-21.4614	6.53063	-39.6588	-4.40778	0.32176
0.5467	1.65867	43.925	-45.6258	-1.32507	-2.38759	-6.80572	13.5439	-16.7649	-3.18884	0
0.5473	-1.7012	14.0188	-74.3111	-0.107729	-1.75415	2.95275	12.3222	0.938974	-0.740072	0
0.5480	-5.35878	4.25477	-106.35	-3.4635	-2.67995	-1.00826	1.04068	-11.8823	-1.65428	0
0.5487	-1.06325	-0.32459	-116.424	-4.3792	-2.09523	4.46513	-4.14763	-13.1115	-1.65428	0
0.5493	1.99891	-3.37749	-81.9337	-1.93913	0.0487264	18.2206	-5.67094	-5.48019	-0.435337	0.32176
0.5500	2.89204	-2.46513	26.0998	0.807971	0.974527	25.2424	-2.02103	-10.3629	0.783606	0.32176
0.5507	1.06325	-3.37749	104.521	0.1993	-0.243632	9.97453	1.64397	-5.17289	0.783606	0
0.5513	-2.89204	-2.46513	82.5557	-1.6321	-1.46179	-13.2153	-3.24269	8.26297	0.174135	0
0.5520	-0.76554	-15.5803	51.7361	0.807971	-2.09523	-14.1516	-4.766	-2.11696	0.783606	0
0.5527	5.9542	-32.6696	52.9557	2.33234	-2.38759	-4.3571	-3.54434	-30.2008	0.174135	0
0.5533	9.31407	7.91299	74.3111	2.63937	-2.67995	9.03829	-0.180987	-14.9382	0.783606	0.32176
0.5540	5.01854	73.5241	57.2243	2.63937	-3.89811	16.3841	1.64397	59.8382	0.47887	0
0.5547	-0.76554	91.8415	-25.7827	-1.02343	-3.31339	2.95275	-2.62432	137.039	-1.65428	0
0.5553	0.76554	77.1911	-73.7013	-3.4635	-4.82391	-11.991	-2.32267	180.078	-1.9699	0
0.5560	4.72083	55.2154	-66.0665	-2.24077	-16.7131	-12.9273	4.38894	165.737	-1.34954	-0.32176
0.5567	11.4406	48.8114	-26.6974	1.41664	-27.7253	-3.45688	10.4973	70.5084	1.08834	0
0.5573	15.6936	30.4939	66.3836	2.0307	-31.0874	-2.23257	7.75229	-53.6922	2.00255	0
0.5580	11.4406	-22.6073	118.559	-1.32507	-29.8205	-9.57843	-0.799361	-123.279	-1.65428	0
0.5587	11.7383	-32.0643	50.5042	-3.15647	-23.145	-10.1546	-3.24269	-132.429	-3.79831	-0.32176
0.5593	19.9891	-9.4833	-28.8317	-1.32507	-12.4252	-2.84472	-2.62432	-106.48	-2.27463	-0.32176
0.5600	22.1156	-30.5378	-44.394	1.41664	0.682169	12.7112	0.739032	-56.4408	0.47887	-0.32176
0.5607	7.18757	-77.2262	-10.2204	-0.107729	12.8638	19.733	-2.32267	-33.8543	0.47887	0
0.5613	-12.0785	-69.6027	57.2243	-3.77053	22.6578	12.0991	-11.4776	-5.78749	-1.34954	0
0.5620	-21.2225	10.3518	98.118	-3.15647	31.4772	6.91375	-13.0009	79.0616	-0.740072	0
0.5627	-16.6292	50.3378	66.3836	-0.414759	33.0365	9.36237	-7.51097	99.2068	0.174135	0
0.5633	-5.06107	30.1957	11.1473	1.115	25.6788	18.2206	1.94561	36.637	0.47887	0
0.5640	-3.8277	31.4151	9.00076	-1.02343	17.444	16.6722	5.30896	-3.94369	-1.04481	0
0.5647	-9.61178	32.0204	35.8567	-5.60193	11.3532	1.72844	0.422304	-120.837	-5.01725	0
0.5653	-10.5474	5.78122	49.5895	-4.68623	6.48061	-5.9055	0.739032	-245.96	-5.93146	0
0.5660	-8.0807	-5.81631	48.3699	-0.107729	4.33665	-6.19357	3.16728	-175.451	-2.57937	0
0.5667	1.65867	5.16713	-29.4415	1.41664	5.55481	-1.94449	8.97396	-32.6421	-0.740072	0
0.5673	8.0807	12.1853	-153.952	-1.32507	5.26245	7.52591	10.4973	32.6763	-1.9699	-0.32176
0.5680	3.18975	24.6952	-178.369	-3.77053	2.82613	10.8748	0.739032	39.3857	-1.34954	-0.32176
0.5687	1.65867	43.3109	-142.975	0.807971	4.04429	2.34059	-1.10101	47.3243	0.47887	-0.32176
0.5693	5.01854	31.108	-130.157	4.16374	5.26245	1.72844	6.22898	47.017	1.69781	0
0.5700	8.0807	1.20186	-93.5322	4.16374	3.41085	21.2454	8.97396	-13.1115	2.30728	0
0.5707	2.59433	-7.03571	-38.9057	2.0307	0.974527	27.3669	3.48401	-86.0441	0.47887	0
0.5713	-5.9542	-4.28986	59.6636	-1.93913	-13.0587	22.7938	-7.20933	-124.491	-1.9699	0
0.5720	-2.59433	-2.7634	184.784	-4.07217	-36.2524	37.4495	-16.3643	-137.005	-1.9699	-0.32176
0.5727	8.0807	-3.37749	170.441	-2.24077	-47.8493	55.454	-17.8876	-56.4408	0.174135	0
0.5733	15.0981	-25.9585	48.065	2.63937	-48.1417	59.091	-5.67094	133.983	2.30728	0
0.5740	9.90949	-71.4274	-1.97578	2.9464	-45.413	54.2297	5.00732	277.731	2.00255	0
0.5747	-3.8277	-73.568	40.7473	-0.414759	-36.2524	53.9057	4.0873	261.854	0.47887	0
0.5753	-9.90949	-15.5803	66.6885	-1.32507	-23.4374	57.2545	0.739032	153.531	-0.435337	0.32176
0.5760	-4.72083	1.20186	36.7714	0.500942	-11.8405	70.6859	0.120658	107.436	-1.34954	0
0.5767	3.8277	-17.7209	15.111	4.16374	-1.16943	53.6176	8.35558	189.229	-1.34954	-1.6088
0.5773	7.18757	10.6588	-19.6846	4.16374	11.3532	-29.0954	13.2422	205.396	-0.130601	-1.28704
0.5780	5.9542	30.1957	-91.7028	-2.5478	20.2214	-86.4579	3.48401	14.3578	0.47887	0.32176
0.5787	6.54962	17.677	-142.975	-6.51763	26.0199	-94.4159	-0.482633	-168.127	-0.740072	0
0.5793	10.2072	18.5981	-162.806	-3.15647	27.8228	-93.1916	5.00732	-173.317	-1.65428	-0.32176
0.5800	11.1429	20.4229	-138.695	1.41664	19.0033	-70.902	6.83227	-65.2843	-0.740072	0
0.5807	6.84733	41.7932	-59.3586	1.41664	9.20928	-42.2027	0.422304	29.9277	-0.435337	0
0.5813	2.29662	67.12	25.7949	-1.02343	8.91693	-25.7465	-7.81262	10.0897	-1.34954	0
0.5820	-2.29662	34.7663	103.606	0.1993	14.7154	-19.9491	-4.766	-45.7536	0.174135	0
0.5827	-2.59433	-7.03571	132.914	2.63937	18.0775	-18.7247	0.739032	-33.2397	1.69781	0.32176
0.5833	0.76554	0.587772	60.5783	4.47077	15.3001	-11.703	3.48401	27.179	2.61202	0
0.5840	-5.35878	5.78122	-74.9209	3.8621	10.7198	-7.12981	4.0873	158.413	3.22149	0
0.5847	-12.3762	-21.3791	-193.626	-1.32507	6.18825	-11.991	-3.84598	278.346	0.47887	0
0.5853	-6.54962	-43.0477	-200.041	-4.68623	3.7032	-12.6032	-9.9543	192.592	-3.18884	-1.28704
0.5860	2.89204	-114.159	-81.9337	-2.24077	5.55481	-8.96627	-1.7043	-37.815	-2.57937	-0.643521
0.5867	6.54962	-189.534	60.5783	2.33234	6.48061	-11.3789	7.45065	-203.228	2.00255	0.643521
0.5873	10.2072	-123.002	125.584	4.7778	3.41085	-16.5642	3.16728	-220.01	3.52623	0
0.5880	17.8626	-73.2609	113.375	2.0307	0.389811	-18.1126	-5.98766	-145.848	1.39308	0
0.5887	17.2246	-114.458	115.815	-1.6321	-1.46179	-18.7247	-10.5576	-75.9715	-0.740072	0
0.5893	5.9542	-47.013	185.699	0.1993	-0.53599	-14.1516	-6.28931	-16.4576	-0.130601	0
0.5900	0.76554	49.4167	247.96	4.7778	1.26689	-3.78096	5.92734	36.3297	2.00255	0
0.5907	1.36096	16.7647	215.921	2.9464	1.26689	-6.51765	8.67231	59.2236	0.783606	0
0.5913	-1.36096	0.280727	116.12	-1.6321	-1.16943	-17.5004	1.64397	87.905	-1.9699	0
0.5920	-3.18975	10.0535	64.8591	-1.93913	-2.38759	-20.2371	-0.180987	164.508	-1.9699	0.32176
0.5927	-1.36096	-40.6089	63.0175	-0.107729	-1.46179	-15.664	1.04068	207.24	-1.65428	0.32176
0.5933	1.99891	-4.90395	-17.5381	2.0307	-0.243632	-3.1688	5.00732	135.212	-0.740072	0
0.5940	-0.46783	62.8477	-112.753	1.41664	-0.53599	7.23783	5.30896	40.0003	0.47887	0.32176
0.5947	-5.35878	35.3803	-93.8372	-2.85483	-1.75415	5.40137	-1.10101	-24.0889	-1.04481	0.32176
0.5953	-5.9542	15.2382	-69.1156	-6.81928	-2.09523	-1.00826	-3.84598	-95.1949	-2.8841	0
0.5960	-4.42312	12.7994	-101.472	-4.07217	-0.877075	-1.33234	-3.84598	-213.608	-1.65428	0
0.5967	3.8277	-5.21099	-126.486	2.9464	1.26689	7.52591	0.739032	-292.345	1.39308	0
0.5973	7.48528	-16.5015	-168.307	2.33234	1.26689	6.91375	3.48401	-221.239	0.783606	0
0.5980	-1.06325	-25.0461	-166.77	-2.85483	-0.243632	1.72844	-3.54434	-152.575	-1.34954	0.32176
0.5987	-6.88986	-32.9766	-74.3111	-2.85483	-0.877075	5.07729	-9.33593	-156.535	-1.04481	0
0.5993	-7.18757	-40.3018	19.0748	-1.02343	0.0487264	7.52591	-6.8926	-132.737	-0.435337	0
0.6000	-3.8277	-24.739	52.3459	-0.716401	1.90033	15.4479	1.94561	-93.3681	0.783606	0
0.6007	3.18975	-14.3609	24.8801	-2.85483	1.60797	19.1208	1.64397	-76.8934	0.783606	0
0.6013	4.72083	-38.1701	1.37816	-4.3792	0.389811	1.44036	-8.11427	-47.5804	-1.9699	0
0.6020	1.06325	-16.8085	-5.34191	-1.93913	0.974527	-16.2761	-13.6042	-11.2677	-3.49358	-0.32176
0.6027	1.06325	10.9659	-43.4793	1.115	2.82613	-11.703	-14.8259	12.2237	-1.34954	0
0.6033	8.0807	-32.0643	-75.8356	3.55507	4.62901	4.78921	-5.06765	48.8437	0.47887	0.32176
0.6040	6.25191	-33.2837	-59.6636	2.33234	1.60797	7.52591	8.97396	63.4917	-0.740072	-0.965281
0.6047	-3.8277	35.9944	-77.6651	-0.716401	-2.38759	-4.68119	15.6856	40.6149	-2.8841	-1.28704
0.6053	-0.76554	34.1609	-118.254	-3.4635	-3.31339	-11.703	15.9872	22.911	-4.40778	0
0.6060	8.0807	10.3518	-78.5798	-4.3792	-3.89811	-9.8665	9.2756	18.6429	-5.01725	0.32176
0.6067	11.1429	54.3031	0.768357	0.1993	-1.75415	0.216055	9.2756	23.8158	-1.34954	0
0.6073	5.65649	67.7253	88.3489	1.41664	-0.877075	13.6475	11.1006	9.4751	0.47887	0
0.6080	-6.88986	28.9675	164.648	-2.5478	-4.19047	16.9963	3.78565	-21.9549	-1.34954	0.32176
0.6087	-14.205	-5.81631	162.209	-3.15647	-5.74971	12.0991	-1.40265	-21.6476	-1.65428	0
0.6093	-12.6739	-13.1415	104.216	-0.716401	-3.60575	12.0991	-1.40265	17.1064	-0.130601	0
0.6100	-1.36096	5.16713	41.662	4.47077	-2.09523	20.0571	4.70567	43.961	2.91675	0
0.6107	9.90949	18.5981	29.4537	4.7778	-3.60575	16.3841	5.30896	-4.25099	3.22149	0
0.6113	13.8648	43.6179	88.044	-1.93913	-4.82391	-1.62041	-3.84598	-71.7034	-0.130601	0
0.6120	15.6936	84.2093	134.438	-3.77053	-3.60575	-9.8665	-7.20933	-75.0496	-0.435337	0
0.6127	13.2694	84.8146	112.766	-1.02343	-2.38759	-5.9055	-5.67094	-50.6363	0.783606	0.32176
0.6133	12.6739	60.4089	51.4312	2.0307	-1.16943	3.85298	-0.180987	-10.9604	2.00255	0
0.6140	10.2072	41.1791	-0.451257	3.24804	-0.53599	7.84999	1.94561	41.2124	2.00255	0
0.6147	-1.06325	14.6241	-10.2204	0.500942	-1.75415	2.34059	-5.98766	56.1677	0.47887	0
0.6153	-10.2072	-0.32459	11.4522	-0.107729	-1.75415	0.82821	-9.03429	35.7322	0.174135	0.32176
0.6160	-8.37841	4.56181	23.0385	1.41664	-0.53599	5.68944	-1.10101	10.7043	0.783606	0.32176
0.6167	-0.17012	10.0535	11.7571	3.24804	-0.877075	12.0991	6.83227	-6.38502	1.69781	0.32176
0.6173	5.9542	2.72831	2.29288	2.33234	-2.97231	8.13806	2.26234	-10.6702	2.30728	0
0.6180	4.72083	-2.15809	9.00076	-1.02343	-5.74971	-1.33234	-6.28931	-1.19506	0.783606	-0.32176
0.6187	-0.46783	7.30767	23.9654	-2.24077	-6.04207	-4.68119	-5.98766	5.82164	-0.435337	0
0.6193	-0.76554	17.677	29.1488	-0.414759	-3.89811	-5.58141	-2.92596	-0.290228	-0.740072	0.32176
0.6200	5.65649	35.3803	32.1978	1.72367	-1.46179	-0.108027	3.48401	0.938974	0.783606	-0.32176
0.6207	4.42312	33.2398	26.4047	0.807971	-0.53599	2.34059	5.92734	10.0897	0.174135	0
0.6213	-2.29662	-4.5969	4.4272	-2.5478	-0.877075	-6.51765	0.422304	26.2571	-2.57937	0
0.6220	-2.89204	-16.8085	20.2944	-3.4635	-1.46179	-10.1546	-2.62432	43.6537	-3.18884	-0.32176
0.6227	-2.89204	-8.86921	35.2469	-1.6321	0.389811	-4.06903	-4.44927	33.2909	-1.65428	0
0.6233	2.29662	-11.308	6.86643	1.72367	3.11849	5.07729	-5.98766	13.4529	1.08834	0
0.6240	9.61178	0.894817	3.51249	2.9464	4.62901	7.84999	-9.03429	18.9331	2.30728	-0.32176
0.6247	6.84733	5.47417	15.7208	-0.716401	3.7032	-0.3961	-13.3026	17.4137	-0.130601	-0.32176
0.6253	-0.76554	0.587772	23.3434	-4.07217	2.82613	-2.84472	-10.8592	16.4918	-1.65428	0
0.6260	-2.59433	15.2382	35.5518	-1.93913	4.92136	7.52591	-5.98766	72.0449	-1.34954	0
0.6267	1.99891	25.9234	20.5993	0.500942	5.55481	7.52591	0.739032	90.039	-1.04481	-0.32176
0.6273	2.89204	25.0022	-2.89049	-1.6321	-0.53599	-7.74196	6.83227	32.369	-2.27463	0
0.6280	4.12541	16.1506	-23.3434	-5.60193	-5.40863	-9.57843	3.16728	-9.44095	-3.18884	0.32176
0.6287	7.78299	-13.1415	-34.3322	-5.60193	-3.31339	3.5649	-0.799361	-41.1783	-2.8841	0
0.6293	4.12541	-27.1779	-55.6876	-4.07217	-2.97231	9.97453	5.92734	-56.4408	-1.65428	-0.32176
0.6300	1.36096	-14.668	-120.998	-1.32507	-5.11627	10.8748	16.2889	-4.25099	-0.130601	-0.32176
0.6307	-0.46783	-20.1597	-128.938	2.9464	-5.11627	6.3016	13.2422	99.2068	2.00255	-0.32176
0.6313	-5.9542	-26.2655	-53.8582	3.24804	-3.60575	-3.1688	-1.7043	147.419	2.91675	0
0.6320	-1.99891	-20.1597	-10.2204	0.1993	-3.31339	-7.74196	-9.63758	113.548	2.00255	0
0.6327	9.01636	-35.1172	-25.4778	0.500942	-1.75415	-5.58141	-6.59096	87.3075	1.69781	0
0.6333	17.2246	-50.68	-61.1881	4.16374	0.389811	2.34059	0.739032	5.82164	3.52623	-0.32176
0.6340	16.0338	-64.7163	-54.7729	3.24804	-0.53599	2.95275	1.64397	-155.614	2.00255	-1.28704
0.6347	6.54962	-88.8237	0.768357	0.1993	-2.97231	-1.00826	3.16728	-183.083	-0.740072	-1.28704
0.6353	1.36096	-91.8766	24.8801	-1.6321	-4.53155	1.11628	6.83227	-90.6195	-0.130601	0
0.6360	-0.17012	-81.8055	29.4537	-1.32507	-4.19047	4.17706	-0.180987	-79.3347	0.783606	0.32176
0.6367	-2.29662	-51.8994	56.6145	2.63937	-0.877075	13.0353	-2.32267	-86.3514	2.00255	0
0.6373	0.46783	38.4332	-17.8552	3.24804	0.0487264	15.772	1.04068	-56.7481	2.00255	0
0.6380	4.42312	120.827	-153.342	-1.02343	-2.09523	4.46513	-2.32267	-41.1783	-0.130601	0
0.6387	-1.06325	113.203	-181.735	-2.5478	-2.67995	-0.108027	-0.799361	7.03377	-0.130601	0
0.6393	-9.61178	68.0324	-172.88	-1.32507	-2.09523	2.95275	2.56399	73.257	0.47887	0
0.6400	-7.78299	45.7585	-163.416	2.33234	-0.243632	8.75022	4.70567	80.581	2.30728	0
0.6407	-3.52999	33.8539	-83.4582	3.55507	-0.243632	11.811	3.78565	48.5364	3.52623	0
0.6413	-1.36096	14.9312	17.8552	0.1993	-1.46179	4.78921	-3.54434	26.2571	1.39308	0
0.6420	2.29662	3.03536	30.0635	-2.24077	-2.09523	-4.3571	-3.84598	3.073	-0.740072	0
0.6427	2.59433	13.4047	-7.47624	-1.6321	-2.67995	-9.25434	0.739032	-14.6309	-1.04481	0
0.6433	6.54962	23.7828	-10.2204	2.63937	-1.75415	-1.62041	7.45065	12.8383	0.47887	0
0.6440	7.78299	13.7117	-29.4415	2.9464	-0.877075	5.07729	8.97396	79.3689	1.08834	0
0.6447	-0.76554	19.2035	-55.0778	-2.85483	-1.16943	-0.108027	-1.10101	143.458	-1.04481	0
0.6453	-2.29662	40.8721	-55.0778	-4.07217	-1.46179	-2.84472	-6.28931	149.86	-1.34954	0
0.6460	-0.17012	32.9415	-32.8076	-1.32507	-1.46179	0.216055	-3.84598	77.2348	-0.130601	0
0.6467	-1.06325	41.1791	25.4899	1.41664	0.0487264	7.52591	1.94561	-8.51905	1.69781	0
0.6473	-1.06325	82.3758	-5.03701	1.72367	-0.243632	7.23783	3.48401	-47.2901	2.30728	0
0.6480	-4.42312	83.5952	-118.254	-1.6321	-1.75415	-1.62041	-1.7043	-28.9716	-0.130601	0
0.6487	-11.4406	56.4349	-124.352	-4.3792	-1.75415	-6.80572	-3.84598	5.82164	-1.65428	0
0.6493	-9.01636	41.4862	-103.911	-2.5478	-0.243632	-3.1688	-1.10101	3.073	-0.435337	-0.32176
0.6500	1.36096	27.7481	-138.999	2.9464	1.60797	7.52591	6.83227	12.2237	2.61202	-0.32176
0.6507	0.12759	7.00062	-121.608	2.33234	1.26689	4.17706	5.00732	51.8996	2.61202	0
0.6513	-5.65649	-11.6151	-96.2764	-1.93913	-0.53599	-7.12981	-3.54434	45.1902	-0.435337	0
0.6520	-2.29662	-16.8085	-23.9532	-2.85483	-0.53599	-8.96627	-5.06765	-7.30692	-0.740072	0
0.6527	0.46783	-12.2292	171.966	-1.6321	0.974527	-7.12981	-3.54434	-14.6309	0.174135	0
0.6533	4.72083	-14.975	252.533	2.33234	3.11849	0.216055	1.34232	21.0842	1.69781	0
0.6540	4.72083	-38.4683	134.133	3.55507	2.19269	4.46513	1.04068	28.1009	2.00255	0
0.6547	1.06325	-57.6981	42.8817	-1.02343	-8.47839	0.216055	-8.43099	-17.3795	0.783606	0
0.6553	4.72083	-58.6105	53.5655	-3.4635	-22.2192	0.82821	-12.3976	-85.1222	-0.740072	0
0.6560	5.9542	-74.7874	102.692	-1.02343	-27.0919	9.36237	-6.59096	-95.8095	-1.34954	0.32176
0.6567	8.0807	-92.1836	142.366	2.33234	-23.7297	19.733	5.92734	-63.4575	0.174135	0.32176
0.6573	12.036	-86.6919	127.718	1.72367	-16.7131	19.4449	10.1956	-37.2175	-0.435337	0
0.6580	5.9542	-98.2895	83.1655	-1.93913	-8.47839	13.0353	-0.180987	0.631673	-3.49358	0
0.6587	-0.76554	-111.413	41.3571	-2.24077	0.682169	14.5477	-9.63758	-17.6868	-4.40778	0
0.6593	2.29662	-40.3018	1.37816	-0.414759	10.4274	16.3841	-13.6042	-47.2901	-3.79831	0
0.6600	7.48528	55.5225	5.95172	2.63937	20.8062	13.3234	-10.5576	42.1343	-2.57937	0
0.6607	3.8277	53.689	28.539	4.47077	29.382	2.95275	-8.11427	65.933	-1.04481	0
0.6613	-3.18975	9.13239	25.4899	2.63937	32.6954	-4.68119	-18.7925	-52.1728	-2.27463	0
0.6620	-4.12541	-3.37749	25.4899	1.115	22.3167	0.216055	-35.2775	-102.826	-3.49358	0
0.6627	-0.46783	7.60594	47.1503	1.41664	5.55481	1.72844	-42.2907	-72.9156	-0.740072	0
0.6633	5.01854	25.9234	83.7753	1.72367	-2.09523	-4.06903	-31.9292	-42.1002	0.783606	0
0.6640	6.25191	15.5452	83.1655	-0.414759	-3.89811	-20.2371	-18.4909	-12.4969	-3.18884	-1.28704
0.6647	4.72083	-12.8345	46.2356	-2.85483	-2.97231	-40.0782	-8.73264	4.89973	-6.2362	-1.28704
0.6653	3.8277	-15.2821	39.2228	-5.2949	0.389811	-52.8974	13.8606	4.28513	-7.1504	0
0.6660	3.48746	-0.631635	41.0522	-6.51763	2.19269	-66.3288	53.527	4.28513	-7.1504	0.32176
0.6667	6.84733	25.9234	16.9404	-3.77053	7.69877	-71.19	85.5769	2.1511	-3.49358	0
0.6673	7.18757	39.0386	11.4522	-6.51763	14.7154	-58.0827	76.1052	-8.22882	0.783606	0
0.6680	3.18975	10.9659	35.2469	-15.0606	14.423	-16.8883	34.6138	-3.34616	2.00255	0
0.6687	0.76554	-16.5015	36.7714	-15.6693	6.77297	42.9229	1.64397	-8.51905	2.61202	0
0.6693	-3.52999	-16.8085	16.6355	-2.85483	-2.97231	80.1563	-10.2559	-62.5356	3.52623	0
0.6700	-5.35878	-4.28986	6.25662	10.8807	-5.40863	84.7295	-9.03429	-128.161	5.35464	0
0.6707	-5.06107	3.64068	-3.19539	9.65795	0.389811	70.3978	-9.03429	-129.373	5.35464	0
0.6713	-5.06107	2.42127	1.07326	1.115	1.26689	43.247	-11.7793	-41.1783	3.22149	0
0.6720	-1.06325	3.64068	49.2846	-1.32507	-4.82391	15.772	-8.11427	55.2629	1.69781	0
0.6727	3.8277	5.16713	92.6297	0.807971	-6.33443	2.05252	-0.799361	89.7488	2.61202	0
0.6733	8.37841	11.58	71.2621	4.47077	0.0487264	-0.720182	5.92734	84.2515	4.74517	0
0.6740	8.67612	21.6511	7.47624	5.99515	5.26245	-5.29334	6.22898	80.8883	5.65938	0
0.6747	5.01854	3.94772	-56.9072	1.41664	4.33665	-12.3151	-2.32267	105.609	2.91675	0
0.6753	1.36096	-21.6861	-74.3111	-2.5478	0.682169	-8.35412	-7.81262	146.207	0.783606	0
0.6760	1.65867	-16.1944	-54.1631	0.1993	-1.46179	3.24082	-2.92596	199.609	1.39308	0
0.6767	5.31625	-9.17626	-17.2332	5.07945	-0.243632	11.811	5.61061	315.871	3.83096	-0.32176
0.6773	1.65867	-1.23695	32.1978	5.38647	-0.53599	13.9355	4.70567	439.474	3.83096	0
0.6780	-5.06107	13.4047	51.1262	3.24804	-4.82391	11.811	-2.62432	336.016	1.39308	0
0.6787	-3.52999	-1.23695	50.5042	1.115	-8.18603	4.17706	-3.84598	-88.1782	0.174135	0
0.6793	3.48746	-18.335	32.1978	1.115	-6.33443	1.72844	0.120658	-444.92	1.08834	0
0.6800	10.2072	-5.21099	-9.00076	3.8621	-2.97231	13.0353	6.53063	-387.864	2.91675	0
0.6807	7.48528	-6.12335	-32.8076	1.41664	-3.60575	14.2596	6.22898	-182.775	1.39308	0
0.6813	-1.99891	-18.9403	-41.9547	-4.68623	-3.89811	4.17706	-2.92596	-92.1389	-1.34954	0
0.6820	-6.25191	-5.50926	-43.1744	-5.90358	-2.97231	5.68944	-4.766	-53.0776	-1.65428	0
0.6827	-6.88986	18.5981	-26.3925	-2.5478	-4.53155	15.1598	1.94561	-35.681	0.174135	0
0.6833	-5.65649	24.6952	-11.7449	3.24804	-7.55259	25.2424	8.05394	-3.34616	2.61202	-0.32176
0.6840	-4.42312	8.22003	3.51249	3.8621	-10.6223	38.3497	5.61061	42.7489	2.61202	-0.32176
0.6847	-3.8277	-7.03571	51.4312	-2.5478	-10.33	45.9837	-0.482633	32.9836	-0.740072	0
0.6853	1.99891	-5.21099	76.1405	-3.4635	-9.11183	41.4105	3.16728	3.38031	-2.8841	0
0.6860	7.48528	-10.0886	34.6371	-1.32507	-7.55259	22.1816	11.4173	6.43624	-3.18884	0
0.6867	10.5049	-18.9403	-0.146354	-2.5478	-2.38759	-19.625	14.4639	25.3523	-1.9699	0
0.6873	14.205	-2.46513	-14.1841	-0.716401	3.7032	-61.7556	12.9406	8.87757	1.08834	0
0.6880	12.6739	5.16713	-46.2356	2.63937	5.26245	-71.8022	8.05394	-32.9324	0.783606	-0.965281
0.6887	5.9542	-24.432	-85.5926	0.500942	5.26245	-56.2462	2.26234	-26.5303	-1.34954	-0.965281
0.6893	-0.46783	-36.9507	-93.8372	-1.02343	7.40641	-30.6078	-5.98766	9.4751	0.174135	0
0.6900	-4.42312	-9.78157	-95.3617	1.41664	9.20928	-3.45688	-11.176	97.9776	2.91675	0
0.6907	-6.54962	0.280727	-113.68	2.33234	8.28348	6.91375	-12.3976	127.581	3.52623	0
0.6913	-7.18757	-32.6696	-100.862	-0.107729	5.84716	-2.55665	-12.0809	-55.2116	1.69781	0.32176
0.6920	-9.31407	-76.3138	-88.9587	-1.02343	5.26245	-15.0518	-8.43099	-170.262	0.47887	0
0.6927	-9.61178	-74.182	-66.6763	0.500942	5.26245	-13.5394	-5.06765	-109.228	0.783606	0.32176
0.6933	-3.52999	-8.86921	45.9307	2.33234	3.7032	-0.720182	-2.62432	-50.329	2.00255	-0.32176
0.6940	0.76554	47.2849	167.697	2.33234	1.26689	2.34059	-5.06765	-2.73156	1.39308	-1.28704
0.6947	1.36096	47.5832	175.332	1.115	0.389811	-5.9055	-12.3976	27.7936	0.174135	-0.965281
0.6953	-0.17012	-6.12335	96.2886	-1.32507	0.682169	-6.80572	-13.6042	25.3523	0.47887	0.32176
0.6960	0.46783	-46.4076	10.8424	-1.32507	2.19269	0.82821	-8.11427	12.8383	1.69781	0.32176
0.6967	8.0807	3.33363	-55.3827	1.72367	3.7032	9.03829	-0.482633	-15.5528	2.61202	0
0.6973	14.205	48.8114	-97.1911	1.72367	3.11849	4.46513	1.64397	-27.1449	1.08834	0
0.6980	12.036	35.6874	-101.167	-0.414759	1.26689	-9.25434	3.78565	5.51434	-1.65428	0
0.6987	2.89204	29.8886	-41.9547	-1.6321	0.682169	-17.7885	8.97396	10.0897	-2.27463	0.32176
0.6993	-3.18975	9.43944	7.78114	-1.32507	0.974527	-15.664	10.7989	-20.7257	-1.65428	0.32176
0.7000	-1.36096	-25.6514	16.0257	2.9464	3.7032	4.46513	12.0206	-25.9157	1.08834	0
0.7007	-5.65649	-24.739	83.4704	4.16374	6.77297	18.8328	8.35558	-9.44095	3.22149	0
0.7013	-10.8451	-15.8874	136.268	0.807971	5.55481	9.65044	-0.482633	26.5644	1.39308	-0.32176
0.7020	-6.54962	-19.8526	85.9097	-1.32507	1.90033	-0.108027	-2.92596	82.715	-0.435337	-0.32176
0.7027	2.29662	-14.0539	32.5027	-0.716401	1.60797	1.44036	-0.180987	134.598	-0.130601	0
0.7033	10.8451	12.1853	25.4899	2.33234	3.11849	11.811	5.00732	147.726	2.00255	-0.32176
0.7040	12.036	-4.90395	41.9669	2.33234	2.48504	19.733	5.92734	105.609	2.30728	-0.32176
0.7047	9.01636	-47.32	58.7488	-1.02343	0.682169	21.2454	-1.40265	44.5756	-0.130601	0
0.7053	9.31407	25.0022	42.8817	-1.93913	-1.46179	25.5305	-5.36929	-45.4463	-1.04481	0
0.7060	4.12541	92.4468	9.00076	-0.414759	-3.60575	31.0399	-3.84598	-137.312	-0.435337	0
0.7067	-4.42312	15.2382	-7.47624	2.33234	-5.74971	47.496	1.64397	-112.899	0.783606	0
0.7073	-4.12541	-49.1535	-23.3434	3.24804	-4.53155	66.1127	6.53063	-11.2677	2.00255	0.32176
0.7080	-1.36096	-58.9175	-49.8944	0.1993	-2.67995	53.2935	1.04068	74.1789	0.783606	0
0.7087	-2.29662	-93.096	-80.7141	-1.32507	-3.60575	30.7158	-4.44927	125.14	-1.34954	-0.32176
0.7093	-2.89204	-116.598	-118.254	-0.716401	-2.67995	-2.23257	-1.7043	57.7042	-0.740072	-0.32176
0.7100	1.99891	-97.3683	-138.085	2.33234	-1.16943	-63.5921	5.00732	-85.4295	0.783606	-0.32176
0.7107	1.99891	-42.7407	-109.399	3.55507	-1.46179	-87.0701	6.53063	-90.9268	0.174135	-0.32176
0.7113	-6.25191	-23.8267	-79.7994	-0.716401	-1.75415	-62.3678	-0.482633	27.179	-1.34954	-0.32176
0.7120	-9.61178	-45.4953	-96.8862	-3.15647	-1.75415	-34.5688	-3.84598	104.089	-1.04481	0
0.7127	-8.71865	-0.631635	-109.704	0.1993	-0.243632	-14.4397	1.34232	141.922	1.08834	0
0.7133	-2.89204	76.884	-90.7881	3.24804	0.0487264	-4.68119	6.83227	164.201	2.00255	0.32176
0.7140	5.9542	86.0428	-74.3111	1.72367	-1.16943	-5.29334	5.61061	33.2909	0.783606	0
0.7147	5.31625	53.689	-19.6846	-1.6321	-2.38759	-9.8665	-1.40265	-170.569	-1.34954	0
0.7153	-0.17012	35.0733	115.51	-2.85483	-2.67995	-13.8275	-6.59096	-168.742	-2.8841	0
0.7160	-0.76554	25.0022	211.64	-2.24077	-1.46179	-12.6032	-5.67094	-47.5804	-1.9699	0
0.7167	2.89204	31.4151	158.233	-0.107729	-0.243632	-4.96926	3.78565	-8.22882	0.47887	0.32176
0.7173	-0.17012	17.677	15.7208	-0.716401	-1.46179	-6.19357	7.75229	-37.2175	-0.130601	0.32176
0.7180	-6.88986	-29.3184	-85.8975	-3.77053	-2.38759	-13.8275	1.34232	-63.4575	-1.9699	0
0.7187	-4.42312	2.11422	-93.2273	-4.07217	-2.67995	-14.1516	-5.06765	-59.4968	-1.34954	0
0.7193	2.89204	74.4452	-72.4817	-0.716401	-1.75415	-8.64219	-5.98766	-56.1335	0.47887	0
0.7200	9.31407	63.1547	-106.96	5.38647	-0.53599	-1.00826	2.56399	-47.8877	2.30728	0
0.7207	6.25191	26.5287	-132.292	5.38647	-1.46179	-1.94449	5.00732	-16.7649	1.39308	0
0.7213	-1.99891	20.4229	-67.2861	0.807971	-2.97231	-7.12981	-2.02103	24.1231	-0.435337	0.32176
0.7220	-1.06325	17.3787	-18.7699	-0.107729	-2.09523	-4.3571	-2.32267	56.475	-0.130601	0
0.7227	1.06325	23.1775	-44.6989	0.1993	-0.877075	-0.3961	1.04068	49.7656	0.174135	0.32176
0.7233	3.18975	34.7663	-49.2846	0.1993	-1.46179	5.40137	3.78565	27.7936	-0.435337	0.32176
0.7240	12.036	29.2745	22.7336	0.1993	-2.09523	7.84999	4.38894	13.7602	-2.27463	-1.28704
0.7247	16.0338	15.8523	121.925	-0.716401	0.0487264	3.85298	0.120658	5.20704	-2.27463	-1.28704
0.7253	11.1429	13.1064	114.595	-1.32507	2.82613	-0.3961	-2.62432	-4.55829	-0.435337	0.32176
0.7260	5.01854	21.037	26.0998	-1.6321	4.04429	-2.23257	-1.7043	-19.2063	-0.740072	0.32176
0.7267	11.1429	41.1791	-12.6596	-0.107729	3.11849	2.34059	3.16728	-18.899	-0.740072	-0.32176
0.7273	18.1603	42.3985	-7.17133	1.41664	0.389811	3.85298	2.56399	-22.2622	-0.130601	-0.32176
0.7280	13.8648	19.2035	-8.69585	-0.107729	-2.09523	-2.55665	-5.06765	-38.1223	-0.740072	-0.32176
0.7287	5.31625	20.1246	-26.3925	-1.93913	-3.60575	-3.45688	-9.03429	-49.4242	-1.34954	0
0.7293	-5.35878	30.801	-14.489	-1.02343	-3.89811	3.85298	-4.766	-43.005	-0.740072	0
0.7300	-7.78299	18.8964	15.7208	2.0307	-2.09523	10.8748	3.48401	-13.709	-0.130601	-0.32176
0.7307	-7.18757	10.9659	-22.4287	1.41664	-0.53599	9.36237	4.70567	3.99491	-0.435337	0
0.7313	-8.71865	5.47417	-54.7729	-1.02343	-0.53599	1.72844	-0.482633	1.8438	-0.435337	0
0.7320	-5.9542	-17.7209	33.4174	-1.93913	-0.877075	-3.78096	-3.24269	7.95567	-1.34954	0
0.7327	-4.12541	-35.7225	102.692	-1.6321	-0.243632	-1.00826	1.64397	31.7544	-1.34954	0
0.7333	-0.46783	-43.3547	54.7851	0.807971	0.0487264	4.17706	8.35558	26.2571	-0.130601	0.32176
0.7340	1.99891	-50.0659	13.8914	0.1993	0.0487264	0.504128	5.00732	-0.597529	-0.740072	0
0.7347	-0.76554	-52.8117	27.6243	-3.15647	0.974527	-3.78096	-3.84598	-7.61422	-2.57937	0
0.7353	-0.17012	-72.9539	18.465	-2.85483	1.26689	-0.108027	-5.36929	-48.5023	-1.65428	0
0.7360	2.59433	-60.751	-23.0385	-0.716401	0.974527	3.5649	-2.62432	-59.1895	-0.130601	0
0.7367	2.59433	44.232	14.8061	0.807971	0.974527	5.68944	-0.799361	-8.82635	-0.130601	0
0.7373	-4.42312	128.152	104.826	0.807971	1.26689	6.3016	-3.84598	-11.8823	0.47887	0.32176
0.7380	-10.2072	109.229	106.972	-0.107729	3.11849	1.11628	-6.8926	-32.3348	1.39308	0.32176
0.7387	-7.48528	57.356	71.2621	-0.716401	3.7032	-6.80572	-9.33593	-4.25099	0.47887	-0.32176
0.7393	-2.29662	20.1246	80.4214	-1.02343	2.82613	-8.64219	-9.33593	39.0784	-0.435337	-0.32176
0.7400	3.18975	-1.85104	88.9587	0.500942	1.60797	-1.00826	0.120658	75.6983	0.174135	-0.32176
0.7407	5.31625	-18.0279	62.1028	1.72367	0.389811	0.82821	4.38894	123.006	-0.435337	-0.32176
0.7413	3.18975	-21.9932	34.6371	0.500942	0.682169	-3.1688	0.739032	182.519	-0.130601	0
0.7420	3.48746	-3.99158	5.03701	-0.716401	1.60797	-2.84472	2.86563	157.184	0.174135	0.32176
0.7427	3.48746	4.25477	-5.34191	-1.32507	0.389811	-4.06903	5.61061	19.5477	-1.34954	0
0.7433	6.25191	-0.631635	52.6508	-0.107729	-2.97231	-2.55665	6.83227	-79.3347	-1.04481	0
0.7440	12.036	3.94772	83.7753	0.1993	-3.60575	5.40137	6.53063	-101.597	-0.130601	0
0.7447	9.90949	-5.81631	39.5277	-2.85483	-2.67995	7.23783	-2.32267	-98.8654	-1.65428	0
0.7453	5.65649	-33.8978	38.9179	-3.77053	-1.75415	5.40137	-10.2559	-60.4016	-2.27463	0
0.7460	3.8277	-42.1353	77.0553	-0.107729	-0.53599	7.52591	-5.06765	-19.8209	-0.130601	0
0.7467	1.65867	-36.9507	70.0425	2.0307	0.0487264	6.62568	10.4973	-10.6702	-0.435337	-0.32176
0.7473	-3.8277	-10.3957	64.2371	1.115	0.0487264	2.05252	19.0489	-17.9941	-1.65428	-0.32176
0.7480	-9.61178	23.4758	81.641	0.500942	-2.09523	1.44036	12.0206	-29.8935	-0.435337	-0.32176
0.7487	-7.18757	-12.5362	79.8116	-1.02343	-3.60575	1.44036	1.34232	-45.7536	-0.130601	-0.32176
0.7493	-1.7012	-27.4849	43.1866	-2.5478	-3.60575	5.07729	-3.54434	-38.1223	-1.9699	0
0.7500	0.12759	43.3109	-14.1841	-1.6321	-12.7663	13.9355	-4.766	-10.6702	-2.8841	0
0.7507	-2.29662	40.8721	-39.2106	-0.414759	-25.5813	14.5477	-5.98766	-17.3795	-1.34954	0.32176
0.7513	-4.42312	-23.8267	-51.1141	-0.716401	-28.9435	2.95275	-5.36929	-32.3348	-0.130601	0
0.7520	-1.99891	-32.3713	-73.0915	-1.93913	-26.5071	-4.96926	-2.02103	3.073	-0.435337	-0.32176
0.7527	7.18757	-9.4833	-48.9797	-2.24077	-21.9269	-1.94449	1.34232	37.5589	-1.04481	0.32176
0.7533	22.711	10.0535	-3.50029	-2.85483	-16.4208	-0.108027	1.94561	12.2237	-2.57937	-0.32176
0.7540	23.6467	20.1246	14.1963	-1.93913	-7.26023	-5.58141	2.26234	-11.2677	-3.79831	-1.6088
0.7547	9.31407	16.7647	4.4272	1.41664	7.69877	-12.3151	2.86563	-1.80966	-1.04481	-1.28704
0.7553	0.76554	3.64068	-28.2219	1.72367	19.588	-14.7637	-2.32267	-4.25099	1.69781	0.32176
0.7560	0.12759	4.56181	-21.514	1.115	22.0243	-0.720182	-4.14763	-0.904829	1.39308	0
0.7567	2.29662	-2.46513	3.51249	1.72367	19.8804	13.9355	0.120658	49.151	0.174135	0
0.7573	2.29662	-35.4242	-51.1141	0.1993	17.7851	15.1598	3.16728	94.0169	-1.04481	0
0.7580	-2.29662	-51.294	-107.265	-2.24077	15.3001	9.36237	5.92734	61.0504	-2.27463	-0.32176
0.7587	-6.88986	-54.9523	-94.1421	-4.3792	12.5714	-0.720182	6.22898	5.82164	-3.79831	-0.32176
0.7593	-5.65649	-58.6105	-102.996	-3.15647	9.50164	-3.45688	4.0873	0.631673	-2.8841	0
0.7600	2.29662	-79.6738	-127.108	0.807971	3.11849	0.216055	-0.799361	10.397	0.174135	0.32176
0.7607	7.48528	-92.1836	-95.3617	2.9464	-1.46179	2.95275	-2.62432	16.4918	1.08834	0
0.7613	-0.17012	0.587772	-34.0272	1.41664	0.682169	2.62867	-0.180987	19.855	-0.130601	0
0.7620	-5.65649	111.37	23.6605	-1.32507	3.11849	-3.78096	1.04068	-23.4743	-1.65428	0
0.7627	0.46783	108.624	27.9292	-1.6321	3.41085	-2.55665	5.00732	-90.9268	-0.740072	0
0.7633	5.9542	57.9613	-31.2831	1.41664	4.33665	3.24082	4.38894	-89.3903	0.783606	0
0.7640	8.37841	36.5998	-71.5548	2.0307	4.62901	6.3016	-2.32267	-21.6476	1.08834	0
0.7647	11.4406	23.1775	-83.4582	0.807971	3.11849	9.65044	-2.92596	16.4918	0.47887	0
0.7653	7.18757	15.5452	-115.815	-0.107729	1.90033	7.84999	-1.40265	22.911	0.174135	0
0.7660	2.59433	32.6345	-149.378	-0.107729	0.974527	4.78921	-2.02103	101.955	-0.130601	0
0.7667	2.59433	19.5105	-121.608	0.1993	-0.243632	4.46513	-3.54434	237.748	-0.435337	0
0.7673	-2.89204	-25.6514	-42.5646	0.1993	0.0487264	0.82821	-4.14763	251.184	1.08834	0
0.7680	-9.61178	-34.196	-13.8792	-0.716401	1.26689	-5.58141	-2.02103	100.112	2.91675	0
0.7687	-13.2694	-21.3791	-49.2846	-1.6321	0.974527	-9.25434	-0.799361	-38.7369	2.00255	0
0.7693	-5.9542	-21.9932	-12.6596	-1.02343	0.0487264	-5.58141	0.422304	-73.8375	0.47887	0
0.7700	5.9542	-5.50926	109.107	0.1993	-3.89811	-0.3961	1.04068	-35.3737	-0.435337	0
0.7707	3.18975	27.4498	160.062	1.115	-8.18603	-1.00826	1.34232	14.9724	-1.04481	0
0.7713	-6.88986	51.2502	102.387	0.500942	-8.18603	-4.3571	1.04068	-10.9604	0.47887	0
0.7720	-2.29662	75.0505	26.7096	-0.414759	-5.40863	-0.108027	0.422304	-50.9436	1.39308	0
0.7727	14.205	77.4981	-26.3925	0.500942	-4.19047	9.36237	0.739032	-3.63639	0.783606	0
0.7733	22.4133	37.8192	-60.8832	0.1993	-5.40863	10.8748	-1.7043	40.9051	-0.740072	0
0.7740	14.8004	0.587772	-44.0891	-0.716401	-3.89811	7.23783	-5.67094	-4.25099	-1.65428	0
0.7747	-2.89204	-29.9237	-28.8317	-0.414759	-1.75415	2.95275	-7.20933	-89.1001	-0.740072	0
0.7753	-15.0981	-66.5498	-102.387	-0.716401	-2.97231	-2.84472	-8.73264	-152.575	-0.130601	0
0.7760	-16.3315	-71.4274	-168.612	-0.414759	-3.89811	-4.06903	-9.33593	-169.971	-0.130601	0.32176
0.7767	-12.0785	-44.5741	-193.626	-0.107729	-3.89811	-3.45688	-8.73264	-118.994	-1.04481	0.32176
0.7773	-7.48528	-22.3002	-253.753	-0.414759	-2.38759	-5.29334	-8.43099	-28.0497	-1.04481	-0.32176
0.7780	-3.18975	-0.631635	-301.659	-0.716401	-0.243632	-8.64219	-3.24269	11.3189	-0.435337	0
0.7787	2.29662	42.0915	-269.315	-1.6321	0.974527	-11.703	4.70567	1.5365	-0.130601	0
0.7793	3.18975	48.5043	-141.146	-0.716401	1.90033	-4.96926	5.61061	4.28513	-0.130601	-0.32176
0.7800	1.65867	18.5981	-26.0876	-1.32507	1.60797	2.62867	3.78565	0.631673	-1.34954	-0.32176
0.7807	2.89204	41.7932	41.662	-1.93913	1.90033	4.46513	7.75229	-10.3629	-2.27463	0
0.7813	1.36096	57.9613	225.373	0.500942	3.11849	11.811	11.4173	11.6091	0.47887	0
0.7820	-5.9542	-9.78157	399.631	2.63937	2.48504	22.1816	8.67231	47.9389	2.91675	0
0.7827	-9.31407	-64.4092	331.272	1.72367	1.60797	25.8545	2.26234	52.5142	1.69781	0.32176
0.7833	-2.89204	-54.6452	181.125	-0.414759	1.90033	21.2454	-5.06765	36.9443	-1.34954	0.32176
0.7840	0.12759	-29.3184	129.852	-3.4635	1.60797	6.91375	-12.3976	17.1064	-3.79831	0
0.7847	-4.42312	2.72831	135.353	-5.90358	-0.53599	-5.58141	-14.8259	3.073	-4.10305	-0.32176
0.7853	-3.18975	15.2382	133.828	-4.68623	-5.11627	-5.58141	-12.0809	14.6651	-2.27463	0
0.7860	2.59433	15.2382	69.1278	-3.15647	-9.40419	-6.51765	-13.0009	19.855	-2.8841	-1.28704
0.7867	5.9542	11.8783	-22.4287	-6.21061	-7.26023	-8.35412	-17.8876	24.1231	-5.32199	-1.6088
0.7873	8.0807	-11.308	-12.3547	-6.81928	-2.09523	-9.25434	-15.1426	52.8215	-4.40778	0
0.7880	5.31625	-7.95685	63.0175	1.41664	1.60797	-21.7855	-5.36929	39.3857	-0.740072	0.32176
0.7887	-1.36096	17.3787	97.2033	9.35092	0.0487264	-34.5688	2.26234	-17.0722	1.69781	0.32176
0.7893	-4.12541	46.0655	113.07	7.21788	-10.9147	-35.505	2.56399	-48.5023	0.47887	-0.643521
0.7900	-2.89204	85.1216	129.547	2.33234	-23.4374	-30.6078	-0.482633	-53.0776	-2.57937	-1.28704
0.7907	-3.18975	36.5998	82.8606	-0.107729	-25.8737	-20.8493	-1.7043	-44.2342	-3.49358	-0.32176
0.7913	-3.52999	-104.694	-9.91547	-1.32507	-21.2934	-4.68119	-4.766	-26.5303	-3.79831	0.32176
0.7920	-3.8277	-141.013	-48.065	-2.85483	-15.2026	15.772	-5.36929	-9.13365	-2.8841	0
0.7927	-1.06325	-54.9523	-43.4793	-5.90358	-11.2071	31.3279	0.120658	10.7043	-1.9699	0
0.7933	6.54962	-0.93868	-50.8091	-8.95771	-9.69655	29.4915	-1.10101	59.5309	-3.79831	0
0.7940	8.67612	3.64068	-40.7351	-8.65068	-3.89811	16.0601	-4.766	143.151	-5.32199	0
0.7947	-0.76554	7.30767	18.465	-6.81928	2.82613	3.24082	5.61061	191.977	-3.49358	0
0.7953	-6.54962	12.4923	74.0062	-4.98788	4.92136	-5.9055	21.7939	133.983	-2.27463	0
0.7960	-0.46783	14.0188	78.8969	-1.6321	7.06532	-10.7667	24.5389	-25.6084	-1.9699	0.32176
0.7967	3.18975	8.52708	52.6508	0.500942	8.28348	-17.5004	12.0206	-171.798	-1.04481	0.32176
0.7973	1.99891	1.80718	38.613	2.0307	9.50164	-24.8103	1.34232	-196.519	1.39308	0
0.7980	-1.36096	3.94772	49.5895	5.38647	9.84273	-15.664	1.64397	-137.312	4.1357	0
0.7987	-6.25191	5.47417	42.8817	4.7778	6.18825	6.62568	2.86563	-71.0888	4.44043	0.32176
0.7993	-4.42312	9.43944	24.8801	1.41664	3.41085	10.2626	1.04068	14.3578	2.91675	0.32176
0.8000	0.76554	16.7647	11.4522	-0.107729	6.48061	-5.58141	-1.7043	136.732	1.69781	0.32176
0.8007	2.59433	12.1853	-44.0891	0.1993	10.1351	-8.96627	-2.92596	126.659	2.00255	0.32176
0.8013	-7.18757	0.280727	-123.132	2.0307	9.84273	-8.35412	-3.24269	-4.86559	4.1357	0
0.8020	-16.6292	2.11422	-113.058	3.8621	6.18825	-9.57843	-2.92596	28.4082	5.35464	0
0.8027	-12.0785	16.4576	-38.6008	4.7778	2.82613	0.216055	-1.10101	96.1509	4.44043	0
0.8033	-2.59433	24.0899	-79.7994	2.63937	1.26689	2.95275	-0.799361	53.7264	1.69781	0
0.8040	2.89204	17.0717	-144.5	-0.716401	1.90033	-2.55665	-2.62432	140.709	-0.130601	0
0.8047	-1.36096	-9.17626	-53.5533	-1.02343	4.04429	-1.33234	-2.92596	244.765	0.47887	-0.32176
0.8053	-12.9716	-42.4424	93.8493	-0.107729	3.11849	-1.00826	-2.32267	101.034	1.39308	0
0.8060	-18.458	-50.68	170.136	0.1993	0.682169	-2.23257	-1.7043	-170.876	1.69781	0
0.8067	-8.0807	-41.223	114.9	-0.107729	0.0487264	-3.1688	-2.32267	-312.473	0.783606	0
0.8073	8.0807	-35.4242	9.30566	0.1993	1.60797	-4.06903	-2.92596	-252.055	0.174135	0
0.8080	13.5671	-17.1068	-15.7086	0.500942	4.33665	-2.84472	-1.40265	-109.843	0.783606	0
0.8087	2.59433	1.50891	5.03701	-0.414759	4.92136	-2.84472	-0.482633	4.89973	1.39308	0
0.8093	-8.0807	-25.3531	-18.465	-0.414759	2.48504	-3.1688	-0.799361	46.7097	0.47887	0
0.8100	-3.18975	-66.5498	-89.2636	-0.107729	0.0487264	-3.78096	-2.62432	7.03377	-0.740072	0
0.8107	5.65649	-67.1551	-89.5685	-0.414759	0.0487264	-3.78096	-3.54434	-60.0943	-1.04481	0
0.8113	4.42312	-43.6618	-0.756161	-1.02343	0.389811	-4.68119	-2.62432	-90.9268	-0.435337	0
0.8120	-2.59433	-10.7027	57.8341	-1.6321	0.682169	-6.19357	-3.54434	-71.0888	0.174135	-0.32176
0.8127	-3.18975	1.80718	40.4424	-0.414759	0.389811	-3.45688	-2.02103	-30.2008	0.174135	0.32176
0.8133	-1.7012	1.50891	5.95172	-0.414759	-1.75415	-2.84472	-1.7043	-4.86559	-1.04481	-0.32176
0.8140	-6.54962	48.5043	-3.19539	-1.32507	-2.38759	-4.3571	-4.44927	4.59243	-2.57937	-1.6088
0.8147	-9.90949	62.5407	-66.3714	-1.02343	1.26689	-3.45688	-3.54434	-4.55829	-0.740072	-0.965281
0.8153	-3.8277	17.677	-170.746	-1.32507	3.11849	-2.23257	-2.02103	-17.9941	0.47887	0.32176
0.8160	3.18975	-22.9056	-154.574	-1.32507	1.90033	-1.33234	-2.02103	7.34107	-0.130601	0
0.8167	4.12541	-97.0701	-60.8832	-1.6321	-0.243632	-2.55665	-4.14763	63.1844	-1.04481	0
0.8173	3.8277	-172.138	10.5375	-3.4635	-1.16943	-4.3571	-6.8926	84.2515	-1.9699	0
0.8180	4.72083	-203.878	103.301	-2.5478	0.974527	-2.23257	-4.766	55.2629	-1.04481	0
0.8187	5.9542	-221.581	160.989	-0.414759	3.11849	-1.33234	-1.40265	31.7544	-0.130601	0.32176
0.8193	5.31625	-217.002	99.0327	-1.32507	3.11849	-4.06903	-2.62432	17.1064	-0.740072	0.32176
0.8200	4.72083	-206.317	-5.95172	-1.6321	1.26689	-4.3571	-4.14763	-21.033	-1.9699	0
0.8207	-1.7012	-176.717	-25.4778	-0.716401	0.0487264	-2.55665	-3.54434	-61.9381	-1.9699	0
0.8213	-10.2072	25.6163	23.3434	-1.32507	-0.243632	-2.23257	-2.02103	-68.6475	-0.435337	-0.32176
0.8220	-13.9073	287.455	43.1866	-1.32507	0.0487264	-3.1688	-1.10101	-54.9043	-0.130601	0
0.8227	-13.2694	223.371	42.8817	0.500942	0.0487264	-2.84472	0.120658	-40.2564	-0.130601	0.32176
0.8233	-6.88986	-1.85104	45.6258	-0.414759	-2.38759	-4.06903	-1.10101	-28.0497	-1.04481	0
0.8240	0.46783	-44.5741	20.2944	-1.32507	-5.11627	-4.96926	-2.32267	-25.6084	-1.65428	-0.32176
0.8247	0.46783	-0.93868	-41.04	-1.02343	-4.53155	-4.96926	-2.32267	-12.4969	-0.740072	0
0.8253	-3.8277	-0.32459	-113.058	-1.02343	-2.38759	-5.58141	-2.92596	15.8943	-0.435337	-0.32176
0.8260	-3.18975	5.78122	-118.864	-0.107729	-1.75415	-3.1688	-2.32267	12.531	-0.435337	0
0.8267	-1.06325	104.351	-65.1518	-0.716401	-2.38759	-2.84472	-2.62432	-19.5136	-1.34954	0
0.8273	1.36096	157.453	-12.0498	-1.02343	-2.09523	-3.78096	-2.62432	-26.223	-1.34954	0
0.8280	2.29662	100.079	66.9934	-1.02343	-0.243632	-4.68119	-2.92596	-24.0889	-0.130601	0
0.8287	-3.52999	71.3923	46.8454	-2.5478	0.682169	-5.58141	-4.44927	-33.547	0.174135	0
0.8293	-8.37841	53.3819	-126.791	-1.02343	0.682169	-3.45688	-3.24269	-11.8823	-0.435337	0
0.8300	-3.52999	16.7647	-187.528	-0.107729	-0.243632	-2.84472	-2.92596	33.2909	-1.34954	0.32176
0.8307	4.72083	-8.86921	-111.839	-1.02343	-0.243632	-4.96926	-2.62432	53.1118	-1.34954	0.32176
0.8313	3.8277	-29.9237	-126.791	-1.93913	0.682169	-5.9055	-1.10101	53.1118	-0.130601	0
0.8320	-2.89204	-33.8978	-204.615	-2.5478	0.389811	-4.96926	-0.482633	41.5197	0.783606	0
0.8327	-3.8277	-17.7209	-168.307	-1.93913	-0.243632	-2.84472	-0.799361	21.9891	0.783606	0
0.8333	1.06325	-29.3184	16.0257	-0.107729	-2.09523	-0.720182	-2.02103	32.369	-0.740072	0
0.8340	-2.59433	-32.9766	171.051	0.1993	-2.97231	-1.00826	-2.02103	58.609	-1.34954	0
0.8347	-10.2072	52.4696	176.856	-0.716401	-5.40863	-2.84472	1.04068	65.3184	-0.435337	0.32176
0.8353	-9.01636	131.512	142.366	-0.414759	-16.1284	-1.94449	3.48401	78.1397	0.174135	0
0.8360	-5.35878	121.748	78.592	0.807971	-26.7995	-0.108027	1.64397	69.6036	-0.130601	0
0.8367	-3.8277	95.4997	-88.9587	-0.716401	-30.1616	-3.45688	-1.10101	-3.34616	-1.04481	0
0.8373	-2.89204	75.9717	-214.994	-0.414759	-26.7995	-5.29334	0.120658	-39.9661	-1.34954	0
0.8380	-4.42312	61.6283	-225.678	0.807971	-18.2237	-1.00826	2.26234	-1.19506	0.783606	0
0.8387	-6.88986	58.5754	-242.764	0.1993	-10.6223	2.95275	2.26234	10.397	0.783606	0
0.8393	-7.18757	67.12	-198.212	-0.107729	-2.97231	2.95275	1.94561	17.721	-0.740072	0
0.8400	-3.8277	79.6299	-12.3547	-0.107729	6.18825	0.216055	1.04068	66.2403	-1.04481	0
0.8407	-0.17012	46.0655	180.21	-0.414759	15.9335	0.216055	1.34232	21.6818	-0.740072	0
0.8413	-0.76554	-8.26389	232.398	-0.107729	23.8759	1.44036	1.94561	-97.3289	-0.130601	0
0.8420	4.72083	-30.5378	179.905	-0.107729	26.897	-1.62041	-0.180987	-99.7702	1.08834	0
0.8427	12.3337	-23.8267	172.88	0.1993	23.8759	-3.78096	-0.482633	-19.5136	1.69781	0.32176
0.8433	14.5027	-2.7634	193.333	-0.716401	13.4972	-4.68119	-1.40265	20.7769	0.47887	0
0.8440	16.3315	6.38653	118.254	-1.6321	3.11849	-3.45688	-2.92596	17.721	-1.65428	-1.28704
0.8447	18.1603	4.25477	7.47624	0.1993	0.682169	0.504128	0.422304	-18.2844	-0.740072	-1.6088
0.8453	9.31407	-0.93868	-17.8552	0.1993	1.26689	-0.108027	1.04068	-56.1335	1.08834	0
0.8460	-5.9542	-11.6151	-1.36597	-1.93913	2.19269	-1.62041	-0.799361	-42.1002	0.47887	0.643521
0.8467	-8.71865	-13.1415	-21.8189	-1.93913	3.11849	-1.00826	0.120658	12.8383	-0.435337	0
0.8473	-5.9542	-2.46513	-47.7601	-0.414759	2.82613	-0.3961	0.739032	64.7209	-0.435337	-0.32176
0.8480	-3.8277	2.72831	-7.47624	0.807971	3.7032	0.82821	1.94561	63.4917	0.174135	0.32176
0.8487	-0.46783	7.00062	60.2734	-0.716401	4.62901	0.216055	1.94561	3.99491	-0.130601	0
0.8493	2.89204	14.6241	92.9346	-1.6321	3.7032	-1.00826	0.422304	-60.4016	-0.130601	0
0.8500	8.37841	4.86008	97.2033	-1.32507	1.26689	-1.62041	-1.10101	-108.016	-0.740072	0
0.8507	12.3337	-12.8345	48.3699	-1.02343	-0.877075	-2.84472	-3.24269	-100.078	-1.34954	0
0.8513	5.65649	-14.0539	-6.86643	-1.32507	-0.53599	-4.3571	-4.44927	-36.9102	-0.130601	0
0.8520	-9.01636	-4.28986	2.59778	-2.24077	0.0487264	-4.96926	-3.54434	3.99491	1.08834	0
0.8527	-12.9716	2.11422	22.1238	-1.6321	0.682169	-2.55665	-1.10101	9.4751	0.783606	0
0.8533	-6.88986	3.03536	22.4287	-1.02343	-0.243632	-1.33234	-0.799361	-1.19506	-0.740072	0
0.8540	-3.18975	2.11422	8.69585	-1.02343	-1.46179	-1.94449	-2.62432	-17.3795	-1.04481	0
0.8547	-3.52999	1.20186	-28.5268	-0.414759	-1.16943	-1.00826	-1.7043	-13.4017	0.47887	0
0.8553	-4.72083	1.50891	-55.9925	-0.414759	-1.16943	-0.108027	-1.10101	4.59243	2.00255	0.32176
0.8560	-4.12541	3.64068	-45.9307	0.500942	-1.46179	-0.3961	-1.10101	13.7602	1.69781	0
0.8567	-3.52999	5.16713	-8.39095	0.1993	-1.75415	-1.94449	-2.02103	9.7824	0.47887	0.32176
0.8573	-5.35878	4.25477	23.6605	-1.6321	-2.67995	-4.3571	-4.14763	-2.73156	-0.130601	0.32176
0.8580	-6.25191	3.64068	50.8091	-1.32507	-1.46179	-3.45688	-3.54434	-10.9604	0.47887	0
0.8587	-5.35878	3.94772	87.1293	-0.414759	-0.243632	-1.33234	-0.799361	-10.3629	1.39308	0.32176
0.8593	-5.06107	4.25477	82.8606	-1.02343	-0.53599	-2.84472	-1.40265	-9.13365	0.783606	0.32176
0.8600	-0.46783	3.03536	38.613	-1.32507	-2.67995	-3.78096	-2.92596	-2.73156	-0.130601	0
0.8607	2.59433	3.03536	20.2944	-0.716401	-2.97231	-3.1688	-2.62432	3.99491	-1.04481	0
0.8613	-2.89204	4.86008	21.8189	-0.107729	-1.16943	-1.94449	-0.482633	3.99491	-0.130601	-0.32176
0.8620	-6.54962	5.47417	12.3669	-0.107729	-0.243632	-0.720182	0.422304	2.1511	0.783606	0
0.8627	-4.12541	4.25477	0.15855	-0.107729	-0.877075	-0.720182	0.120658	4.89973	0.47887	0
0.8633	-1.7012	3.64068	-8.39095	-1.02343	-1.16943	-2.84472	-1.7043	6.12894	-0.740072	0
0.8640	1.99891	6.07949	-11.44	-0.716401	-0.53599	-4.96926	-1.10101	5.51434	-1.34954	0
0.8647	4.12541	7.60594	1.07326	0.1993	0.682169	-5.9055	0.739032	4.28513	-0.435337	0
0.8653	-0.17012	7.30767	33.1125	-2.24077	1.60797	-9.8665	-1.10101	-1.50236	-0.740072	0
0.8660	1.99891	4.86008	55.6998	-1.93913	1.26689	-8.64219	-0.482633	0.0170722	-0.740072	0
0.8667	6.54962	-11.0098	41.662	-0.716401	-0.243632	-5.29334	-0.482633	9.1678	-1.34954	0
0.8673	2.59433	-21.6861	20.9042	-1.6321	-1.16943	-4.68119	-2.92596	13.1456	-1.65428	0
0.8680	-0.17012	-15.2821	15.4159	-0.716401	0.389811	-0.108027	-0.799361	1.24627	0.174135	0.32176
0.8687	2.29662	-15.8874	17.8552	-0.107729	0.682169	6.3016	-1.40265	-13.709	0.174135	0
0.8693	2.89204	-13.4486	19.3797	-1.02343	-0.53599	9.97453	-6.28931	-10.3629	-0.435337	-0.32176
0.8700	5.01854	-3.07045	2.90268	-1.32507	-1.46179	10.5867	-10.2559	-8.51905	-1.04481	0
0.8707	5.01854	-2.15809	-7.17133	-1.6321	-1.46179	10.2626	-13.3026	-2.73156	-1.34954	0
0.8713	-2.59433	-4.28986	-0.146354	-1.93913	1.26689	9.36237	-13.9209	29.6203	0.174135	0
0.8720	-8.0807	0.587772	1.98797	-1.02343	4.92136	5.40137	-11.176	47.017	1.69781	0
0.8727	-2.59433	-5.50926	2.29288	-0.107729	6.48061	1.72844	-4.766	15.8943	1.39308	0.32176
0.8733	5.01854	-29.6254	-1.97578	-2.24077	4.04429	-1.94449	-2.02103	-35.3737	-1.34954	-0.32176
0.8740	4.42312	-43.6618	-3.8052	-3.15647	0.682169	-5.29334	-2.32267	-37.2175	-3.79831	-1.6088
0.8747	0.76554	-43.6618	3.81739	-0.716401	-0.877075	-3.1688	4.0873	8.26297	-2.57937	-1.28704
0.8753	-3.52999	-46.4076	5.34191	-1.93913	-5.40863	-2.55665	7.13392	14.9724	-1.04481	0.32176
0.8760	-3.18975	-52.5135	1.07326	-3.4635	-13.351	-5.58141	3.16728	-1.19506	-0.130601	0
0.8767	3.8277	-54.9523	-1.06106	-1.6321	-24.9479	-6.80572	2.56399	9.4751	-0.435337	0
0.8773	4.12541	-12.8345	-3.19539	-1.32507	-35.619	-6.51765	3.16728	13.1456	-1.04481	0
0.8780	0.12759	56.4349	-3.19539	-0.107729	-31.6721	-4.06903	2.56399	-1.80966	-0.435337	0
0.8787	2.29662	55.5225	-2.89049	1.72367	-29.5282	-0.720182	3.16728	-5.17289	0.47887	0
0.8793	1.36096	3.03536	-4.7321	0.500942	-57.5946	-2.23257	2.26234	3.68761	0.47887	0
0.8800	-2.29662	-26.5725	-3.50029	-1.6321	-88.7307	-6.80572	-0.180987	16.4918	-1.04481	0
0.8807	-3.18975	-34.5031	-0.146354	-1.32507	-86.9278	-9.57843	-2.02103	24.7377	-1.65428	0
0.8813	-8.71865	-39.3895	-2.58558	-0.716401	-77.7673	-12.9273	-4.14763	18.3356	0.783606	0
0.8820	-13.2694	-13.4486	-6.86643	-0.414759	-78.6931	-15.0518	-4.14763	8.57027	2.00255	0.32176
0.8827	-8.71865	53.0837	-4.1223	0.500942	-71.9688	-14.7637	-0.799361	6.43624	1.39308	0.32176
0.8833	-4.12541	74.7523	1.68307	0.500942	-54.2812	-17.1764	-2.32267	7.64837	-0.435337	0
0.8840	-6.25191	42.7056	1.68307	-0.716401	-21.9269	-13.8275	-7.51097	13.1456	-2.57937	0
0.8847	-10.8451	26.8357	-4.1223	-1.6321	16.8593	1.11628	-12.6993	26.8717	-2.57937	-0.32176
0.8853	-10.2072	22.8705	-8.69585	-0.716401	43.7076	13.6475	-15.7459	22.911	-1.04481	0
0.8860	-2.89204	20.7299	-9.61056	-0.414759	53.4528	13.9355	-13.0009	-10.6702	-0.130601	0
0.8867	2.59433	19.2035	-8.39095	-1.6321	54.3786	8.13806	-7.20933	-32.3348	-1.65428	0
0.8873	1.65867	7.30767	-7.78114	-1.6321	61.6876	3.85298	-3.24269	-23.7816	-2.8841	0
0.8880	-0.76554	-1.23695	-8.39095	0.500942	65.9755	2.62867	-2.02103	-10.9604	-0.740072	-0.32176
0.8887	-4.72083	-1.23695	1.07326	0.500942	60.1771	-1.33234	-4.44927	-11.2677	2.00255	0
0.8893	-5.35878	-2.46513	17.8552	0.1993	43.9999	-4.68119	-6.8926	-10.9604	2.30728	0
0.8900	1.36096	6.69358	26.0998	-0.107729	18.6622	-8.35412	-2.62432	0.0170722	0.783606	-0.32176
0.8907	5.31625	23.4758	22.7336	-2.24077	6.18825	-11.703	5.00732	5.20704	-0.130601	0.32176
0.8913	0.12759	18.2911	3.51249	-4.3792	12.8638	-10.4787	9.2756	-0.290228	-0.435337	-0.643521
0.8920	-4.72083	9.13239	-16.6233	-3.77053	26.897	-6.51765	8.97396	-1.50236	-0.740072	-1.28704
0.8927	-1.36096	15.8523	-13.8792	-1.32507	22.9501	1.11628	6.22898	14.0505	-0.130601	0.32176
0.8933	4.72083	13.7117	-3.19539	-1.6321	-12.4252	5.40137	-2.02103	29.0057	-0.740072	0.32176
0.8940	6.54962	3.33363	1.37816	-1.02343	-39.3222	4.46513	-8.11427	21.9891	-0.740072	0
0.8947	3.18975	-3.37749	-0.451257	2.63937	-34.1085	5.07729	-4.14763	11.9164	1.69781	0
0.8953	2.59433	-13.4486	-20.5993	3.24804	-16.1284	5.40137	0.739032	14.3578	2.00255	0.32176
0.8960	3.8277	-24.739	-42.8695	0.807971	2.19269	3.24082	1.04068	29.9277	-0.435337	0.32176
0.8967	1.99891	-31.1519	-33.1125	-1.6321	23.5836	1.72844	1.04068	42.7489	-3.18884	0
