MR32 ASCII
Name	CRYE15_fast
Frequency	1500
Date	11-09-2015 11:27:35
"Time,s"	"RT TIB.ANT.,uV"	"RT MED. GASTRO,uV"	"RT LAT. GASTRO,uV"	"RT BICEPS FEM.,uV"	"RT VMO,uV"	"RT VLO,uV"	"RT RECTUS FEM.,uV"	"RT SOLEUS,uV"	"RT SEMITEND.,uV"	"Channel 12,uV"
0.0000	-5.80827	12.7177	-6.74523	9.31521	-5.35801	20.7648	5.18816	-4801.64	14.6655	-6661.37
0.0007	21.3552	-27.2663	26.2015	4.72871	-5.96952	-38.4334	-10.0702	-4621.12	-1.20745	-10520.7
0.0013	-61.358	-144.145	-73.2982	-165.86	39.4862	-242.908	-68.0583	-4424.62	-291.122	-9742.42
0.0020	-253.598	-183.214	-294.242	-283.652	-144.521	-316.155	-87.2803	-4204.71	-575.855	-9683.34
0.0027	-311.288	-161.832	-333.005	-212.259	-475.348	-267.324	-71.1036	-3953.51	-569.441	-9909.06
0.0033	-264.604	-160.917	-273.497	-159.141	-515.009	-257.557	-68.6545	-3670.57	-440.344	-9790.58
0.0040	-204.774	-151.174	-264.023	-156.688	-437.202	-245.65	-63.1763	-3348.24	-290.519	-9810.49
0.0047	-117.781	-138.031	-251.522	-188.437	-428.961	-228.567	-56.1514	-2986.74	-151.963	-9817.23
0.0053	-58.9124	-132.245	-237.762	-258.337	-407.907	-221.851	-54.9268	-2596.75	-113.501	-9818.84
0.0060	-44.2389	-124.921	-238.691	-303.206	-382.253	-214.226	-52.8	-2181.95	-171.182	-9792.83
0.0067	-22.2723	-115.767	-243.878	-294.033	-373.11	-203.535	-49.1264	-1746.77	-234.045	-9842.28
0.0073	-6.41966	-105.992	-231.976	-245.502	-384.088	-192.86	-43.6321	-1296.29	-319.196	-9875.35
0.0080	7.94815	-98.6686	-212.13	-198.499	-390.494	-183.094	-38.1378	-828.428	-396.397	-9529.55
0.0087	31.4432	-94.0915	-203.586	-179.3	-374.944	-175.469	-36.3171	-348.751	-371.997	-10316.8
0.0093	-22.2723	-83.7277	-197.8	-175.318	-353.279	-169.353	-34.7864	134.402	-322.239	-9407.86
0.0100	-164.16	-66.0079	-188.027	-162.803	-337.089	-160.203	-35.7049	616.165	-293.261	-3151.04
0.0107	-263.992	-44.6591	-180.712	-141.755	-321.218	-153.179	-39.6685	1092.37	-245.34	107.561
0.0113	-211.499	-21.7738	-174.896	-134.715	-296.816	-143.413	-40.2807	1544.47	-200.488	-73.8476
0.0120	-125.424	-0.0980801	-170.639	-134.431	-268.745	-119.305	-35.3987	1945.59	-190.426	-133.247
0.0127	-69.2625	23.0815	-161.166	-123.729	-242.799	-121.138	-38.7501	2281.6	-228.259	93.4333
0.0133	65.3321	41.4225	-154.151	-129.844	-219.591	-93.9807	-38.4439	2561.99	-232.838	-25.365
0.0140	113.239	40.8013	-176.425	-88.0323	-197.023	31.4399	4.57589	2806.46	-59.7942	-5.4583
0.0147	49.7415	34.3934	-101.658	46.2205	-166.797	100.728	42.7298	3018.26	129.097	0.963229
0.0153	45.7674	34.0992	82.6516	108.796	-165.283	81.488	38.7662	3197.62	140.392	-0.642153
0.0160	54.6326	33.478	142.16	89.2767	-126.233	79.3622	35.0926	3351.72	118.129	-0.642153
0.0167	47.9073	32.5626	113.8	88.6722	52.2988	81.488	36.6233	3486.12	125.45	-0.642153
0.0173	47.9073	31.9414	116.827	89.5611	172.854	76.9129	35.0926	3606.39	120.871	-0.642153
0.0180	47.2959	31.3529	116.228	85.2946	153.024	75.696	34.4803	3709.74	116.897	-0.642153
0.0187	45.7674	30.7318	111.042	84.0858	144.171	73.5548	33.8842	3788.29	114.759	-0.321076
0.0193	44.5446	29.4894	108.583	81.6325	147.84	71.4291	32.9658	3842.52	111.715	-0.321076
0.0200	43.6275	28.9009	106.155	79.4993	141.405	69.9041	32.0474	3880.75	108.973	-0.642153
0.0207	42.7104	28.2798	103.727	77.686	138.668	68.379	31.4351	3908.33	106.533	-0.321076
0.0213	41.7933	27.6586	101.268	75.8372	135.61	66.5459	30.8228	3924.32	104.093	-0.321076
0.0220	40.6142	27.0701	98.5404	74.0239	132.261	64.7129	29.9044	3934.05	101.326	-0.321076
0.0227	39.6971	26.4489	96.0821	72.1751	128.913	63.1878	29.0021	3942.39	98.8855	-0.321076
0.0233	38.78	25.8278	93.6538	70.3618	126.146	61.6628	28.3899	3942.62	96.7473	-0.321076
0.0240	37.8629	25.2393	91.4954	68.833	123.118	60.1378	27.7776	3936.83	94.0054	0
0.0247	36.9458	24.6181	89.0671	66.9842	120.351	58.6128	27.1653	3930.8	91.8672	0
0.0253	35.723	23.7027	86.6388	64.8509	117.003	56.7797	26.2469	3922.69	89.1253	-0.642153
0.0260	34.8059	23.4084	84.4803	63.3221	114.557	55.5474	25.0224	3920.61	86.3833	-1.60538
0.0267	34.5002	23.4084	82.9514	62.3977	112.722	54.9466	25.3285	3929.18	84.8488	-0.642153
0.0273	33.5831	22.493	81.1227	60.8688	109.694	53.4216	25.0224	3935.21	83.0125	0.321076
0.0280	32.666	21.8719	78.6944	59.0556	106.927	51.8966	24.4101	3934.28	80.8995	0
0.0287	31.7489	21.5776	77.1655	57.8467	104.801	50.6797	23.814	3930.34	79.0631	0
0.0293	31.1375	20.9564	75.037	56.3179	102.064	49.1393	23.2017	3925.24	77.5287	0.321076
0.0300	30.5261	20.041	72.8785	55.0735	99.2979	47.9223	22.5894	3919.22	75.3904	0
0.0307	29.6091	19.7468	71.3796	53.5447	97.1721	46.7054	22.2833	3909.72	73.5541	0
0.0313	28.9977	19.4199	69.2211	52.3358	94.7261	45.4885	21.9772	3914.12	72.0448	0.321076
0.0320	28.3863	18.8314	67.6922	51.127	92.8915	44.2561	21.3649	3938.92	70.5103	0
0.0327	27.4692	18.2102	66.1932	49.8826	90.7658	43.3473	20.7526	3959.08	68.674	0
0.0333	27.1635	18.2102	64.6643	48.9937	88.611	42.4384	20.4465	3980.39	67.1647	0
0.0340	26.5521	17.589	62.8356	47.7493	86.4852	41.2061	19.8342	4013.76	65.6302	0.321076
0.0347	25.635	17.2948	61.6065	46.5405	84.6507	40.2973	19.5281	4030.45	64.0957	0.321076
0.0353	25.0236	16.6736	60.0776	45.3316	82.525	39.373	18.9158	4020.48	62.5864	0
0.0360	24.4122	16.0851	58.2489	44.0872	80.3701	37.848	18.6258	4009.13	61.0519	0
0.0367	23.8008	15.7582	56.7199	43.1984	78.8559	36.9392	18.0135	4006.58	59.5175	0.321076
0.0373	23.4951	15.7582	55.7906	42.274	77.0214	36.323	17.7074	4005.19	58.0081	0.321076
0.0380	22.8837	15.464	54.2617	41.3496	75.1868	35.4142	17.4013	3999.63	56.7755	0.321076
0.0387	22.2723	14.8428	52.7627	40.1407	73.3523	34.798	16.789	3986.65	55.2411	0
0.0393	21.6609	14.5485	51.5336	39.2163	71.5469	33.8891	16.4829	3971.59	54.0336	-0.321076
0.0400	21.3552	14.2543	50.6043	38.2919	70.0035	32.9649	16.1767	3955.14	52.801	0
0.0407	20.7438	13.9274	49.0753	37.0831	68.4893	32.056	15.8706	3922.23	51.5935	0.321076
0.0413	20.1324	13.6331	47.8762	36.1587	66.946	31.4399	15.2583	3874.26	50.3609	0
0.0420	19.521	13.012	46.647	35.2342	64.2087	30.8391	14.9522	3836.03	49.1535	0
0.0427	18.9096	12.7177	45.1181	34.0254	64.2087	29.9149	14.3399	3804.98	47.9209	0.321076
0.0433	18.2982	12.7177	44.2188	33.421	65.1114	29.3141	14.0338	3768.59	46.7134	0
0.0440	17.9925	12.4235	43.2894	32.4966	48.6589	28.3899	14.0338	3734.99	45.4808	0
0.0447	17.6868	12.0965	42.0603	31.8921	77.9532	27.7891	13.4377	3695.14	44.2733	0
0.0453	17.0754	11.5081	41.1609	30.9677	48.6589	27.1729	13.1315	3638.13	43.3426	0.321076
0.0460	16.7697	11.1811	40.2316	30.0789	-204.944	26.5568	12.8254	3570	42.1351	0
0.0467	16.464	11.1811	38.4029	29.4389	-365.16	25.956	12.5193	3506.74	40.9025	-0.321076
0.0473	15.8526	10.8869	38.4029	28.8345	-311.755	25.3398	12.5193	3469.67	40.2988	0.321076
0.0480	15.5469	10.5926	39.9318	27.9101	-291.021	24.431	12.5193	3443.71	39.3932	0.321076
0.0487	15.2412	10.2657	26.8011	26.4168	-292.244	23.5067	11.907	3415.21	37.5569	0.321076
0.0493	13.7564	9.97148	47.8762	30.3633	-269.648	25.6479	12.2131	3395.74	40.6007	0
0.0500	16.1583	9.97148	33.8161	22.1147	-261.727	20.4567	10.9886	3375.82	33.2805	0
0.0507	14.3678	9.67724	-165.453	19.697	-271.191	18.9317	8.2495	3326.23	29.9348	0
0.0513	6.41966	9.3503	-309.202	55.7135	-293.467	39.373	18.3197	3279.88	63.492	0.321076
0.0520	38.78	9.05606	-275.625	-77.366	-313.909	-39.3576	-3.65749	3245.35	-49.732	0
0.0527	44.2389	6.93099	-254.25	-309.002	-305.057	-191.335	-73.2465	3134.82	-234.045	0
0.0533	-50.6586	7.51947	-250.593	-294.638	-274.219	-230.4	-100.396	3010.84	-177.295	0
0.0540	-62.2314	14.2543	-237.162	-194.553	-238.228	-214.518	-92.4685	2967.51	-102.206	0
0.0547	91.8405	20.9564	-228.918	-160.99	-193.674	-207.201	-96.126	2954.07	-206.902	0
0.0553	133.066	21.2507	-215.488	-120.707	-148.19	-188.593	-97.9628	2932.52	-329.258	0
0.0560	-92.7576	11.5081	-195.972	-97.8097	-115.547	-175.469	-97.3505	2894.05	-326.516	-0.963229
0.0567	-264.909	-5.29632	-175.826	-94.1476	-88.6692	-168.136	-97.0444	2845.16	-216.663	-1.28431
0.0573	-194.38	-14.7447	-165.153	-96.2809	-81.9717	-158.37	-95.5137	2806.46	-154.403	-0.321076
0.0580	-126.646	-13.5351	-162.095	-88.0323	-97.8419	-132.121	-94.5953	2775.41	-175.156	0.321076
0.0587	-112.017	-10.1676	-155.98	-54.1491	-103.345	-103.131	-95.2076	2740.19	-183.709	0
0.0593	-43.3218	-6.21174	-148.365	-42.274	-101.511	-90.3146	-93.0807	2707.98	-163.862	0
0.0600	26.5521	-4.67515	-146.536	-71.5707	-107.306	-77.4983	-88.811	2688.97	-147.385	0.321076
0.0607	102.54	-12.2927	-145.307	-84.3702	-111.266	-62.8489	-84.5251	2677.39	-145.247	0
0.0613	154.116	-28.1817	-132.476	-53.8647	-104.86	-55.532	-78.1285	2660.47	-153.8	0
0.0620	144.028	-49.5304	-110.202	15.4305	-87.7665	-57.9658	-66.8338	2644.71	-141.272	0
0.0627	157.478	-61.4308	-91.5853	90.4855	-71.8963	-63.157	-50.6571	2638.23	-111.061	0
0.0633	163.287	-68.4599	-78.4846	111.854	-57.2491	-62.5409	-36.6233	2628.49	-92.1439	0
0.0640	109.877	-87.3894	-66.2532	84.3702	-37.4187	-65.2982	-32.6435	2607.41	-71.9945	0.321076
0.0647	94.8975	-62.3462	-58.6386	65.1709	-21.8397	-75.9733	-31.7412	2585.16	-43.9212	0.321076
0.0653	74.4594	13.3389	-57.7092	66.0598	-20.6167	-81.7807	-31.129	2574.5	-20.1242	0
0.0660	-90.9234	41.7167	-56.8099	83.1613	-30.4009	-71.7063	-36.3171	2570.33	-6.99318	0
0.0667	-235.912	23.7027	-54.3516	39.2163	-44.7277	-52.79	-45.1628	2562.22	-23.7969	0.321076
0.0673	-254.21	16.3794	-55.5807	-106.343	-53.2889	-26.5414	-52.8	2543.45	-70.1833	0
0.0680	-279.845	15.464	-57.1097	-173.185	-51.134	19.856	-53.1061	2516.57	-105.275	0
0.0687	-144.028	17.589	-61.9962	-129.24	-46.5623	52.2047	-52.4939	2497.57	-112.595	0
0.0693	108.96	25.8278	-72.9685	-152.741	-32.8469	43.3473	-57.3759	2484.82	-115.941	0
0.0700	61.6637	25.2393	-70.5402	-248.88	-10.2501	31.1472	-59.8088	2465.82	-110.759	0
0.0707	-182.808	10.8869	-51.024	-276.932	3.17404	33.273	-59.5027	2439.4	-71.6926	0
0.0713	-390.944	-4.38091	-33.906	-214.676	4.68826	29.9149	-60.115	2401.17	-10.6658	0
0.0720	-557.55	-11.3773	-27.8203	-146.341	2.56253	23.1987	-59.1966	2358.53	53.128	0
0.0727	-506.891	-17.4909	-24.7625	-102.396	2.88284	4.59044	-58.5843	2309.87	85.7796	-0.321076
0.0733	-261.852	-30.601	-16.2185	-68.513	6.84311	-34.4745	-54.6207	2251.01	43.6445	-0.321076
0.0740	-104.374	-45.8688	-5.84587	-45.9361	15.9867	-57.6577	-45.1628	2200.26	-9.43324	0.321076
0.0747	-69.8739	-59.0115	1.79873	-37.6875	29.1196	-54.315	-36.3171	2157.85	-12.2003	0
0.0753	-54.0212	-61.4308	7.28485	-12.9773	43.4465	-51.2496	-17.3852	2118.46	0.628883	-0.321076
0.0760	-53.7155	-60.2212	6.35551	31.2877	56.5794	-51.8658	16.1767	2095.75	11.9236	0
0.0767	-126.952	-65.4194	5.75593	31.5722	65.4318	-44.5488	49.4486	2082.77	30.5385	0.321076
0.0773	-195.297	-37.6301	10.0129	6.86197	71.5469	-22.8752	63.1763	2074.43	62.2594	0
0.0780	-41.1819	11.1811	4.5268	27.3056	68.4893	-1.81769	48.2241	2090.42	89.1253	0
0.0787	363.475	15.7582	-4.01716	58.7356	53.5218	-0.600762	20.4465	2130.97	96.4454	0
0.0793	670.178	7.22523	-5.84587	76.4416	40.418	-5.1758	4.57589	2176.85	87.5908	0.321076
0.0800	499.86	22.493	-9.80307	67.5886	38.8747	-9.75083	1.22453	2208.37	45.7827	0.321076
0.0807	195.909	34.0992	-8.27415	-7.78638	37.6517	-16.467	4.57589	2216.48	4.60342	0
0.0813	76.9049	30.4048	4.5268	-66.0598	23.616	-6.70081	10.6825	2210.45	-0.905591	-0.321076
0.0820	-146.473	18.2102	15.1993	-27.6256	13.5406	2.75734	10.9886	2215.55	5.50901	0
0.0827	-348.802	5.68865	19.1864	68.193	21.7815	-13.417	7.3311	2246.84	39.6951	0
0.0833	-323.778	-1.63467	17.9573	124.369	42.2234	-25.9252	2.44907	2271.4	83.3395	-0.321076
0.0840	-238.052	-4.38091	15.1993	38.8963	65.1114	-22.5671	-3.04522	2267	71.1141	0
0.0847	-96.4259	-3.75974	15.1993	-89.8811	76.1187	-27.1421	-3.35136	2245.21	17.1056	-0.321076
0.0853	53.1041	-7.12715	17.3577	-102.681	72.4496	-31.1164	-1.53067	2203.97	-10.364	-1.28431
0.0860	106.514	-11.7042	17.3577	-40.1407	63.9175	-20.4413	2.44907	2140.24	16.2	-0.963229
0.0867	164.815	-12.9139	14.5997	29.1545	54.4537	-3.3427	10.6825	2066.78	68.674	0
0.0873	143.722	-16.2813	18.8867	103.001	43.4465	15.5736	12.2131	1997.03	101.627	0
0.0880	10.088	-25.1085	33.5163	146.021	38.8747	38.1561	6.10656	1940.72	92.7979	-0.321076
0.0887	17.3811	-34.2626	47.8762	116.12	49.8528	49.4473	4.26976	1897.85	65.0265	0
0.0893	165.121	-33.3472	47.5764	78.2904	55.6767	33.5811	4.26976	1871.9	18.9419	0.321076
0.0900	254.21	-23.8988	34.7455	78.5749	27.5763	13.4478	1.22453	1862.17	-29.2808	0
0.0907	245.65	-19.0275	28.6298	92.3343	-11.4731	7.94854	3.65749	1857.07	-15.2441	0
0.0913	180.362	-19.3218	29.8589	115.516	-23.383	-0.292679	9.15178	1860.31	39.6951	0
0.0920	193.507	-12.2927	25.6019	84.6902	-12.9873	-17.0832	7.3311	1878.39	61.9575	0
0.0927	331.115	5.10016	15.8288	8.99522	6.84311	-24.4002	-0.306134	1893.91	51.5935	0
0.0933	390.333	22.7873	9.41335	-59.66	36.4286	-20.4413	-7.62112	1923.58	35.1168	0
0.0940	383.913	32.8568	10.3427	-143.284	30.9541	-15.8509	-10.9886	1981.74	23.8221	0.321076
0.0947	252.987	35.3088	15.529	-165.54	-22.16	-10.367	-10.3763	2020.21	25.3565	0
0.0953	-198.66	27.0701	27.7304	-92.2988	-50.8428	0.0154042	-8.23338	2027.39	41.2044	0
0.0960	-521.827	1.43851	39.9318	11.1285	-35.2638	15.8817	-9.76405	2036.89	70.2085	0
0.0967	-237.134	-26.3509	39.9318	101.152	-13.5989	30.8391	-12.5031	2047.55	79.9687	0.321076
0.0973	217.919	-28.4759	28.6298	158.536	1.65982	37.848	-11.2947	2054.27	59.2156	0.321076
0.0980	286.57	-11.3773	17.9573	206.143	28.1878	44.5642	-5.18816	2066.32	44.5752	0
0.0987	87.2987	-4.05398	21.3149	251.937	68.4893	50.9723	8.2495	2069.1	32.3749	0.321076
0.0993	-82.7132	-6.50598	29.5591	287.634	97.1721	52.2047	21.9772	2048.71	18.9419	0.321076
0.1000	-173.942	-6.50598	24.3728	296.771	99.2979	56.1635	23.2017	2019.28	1.53447	0.321076
0.1007	-313.428	-7.71563	15.1993	292.825	76.1187	58.3047	17.7074	1993.79	-21.6587	0.321076
0.1013	-492.567	-11.9985	14.2999	312.344	49.8528	55.8555	21.9772	1978.73	-10.364	0
0.1020	-612.794	-11.9985	15.529	252.222	33.0799	55.2547	30.2106	1968.99	22.9165	-0.321076
0.1027	-582.573	-5.88481	7.28485	39.2163	23.0045	62.8798	27.4715	1937.71	31.1423	-0.321076
0.1033	-264.604	0.523094	-2.48824	-161.594	28.5081	89.4365	14.9522	1885.34	27.4696	0.321076
0.1040	8.86525	-0.719254	1.46896	-289.163	41.3207	129.718	7.94336	1844.56	23.8221	0.321076
0.1047	-17.6868	-19.3218	12.771	-411.54	62.6945	171.525	10.9886	1818.83	5.20715	0
0.1053	-92.1462	-44.6591	31.6876	-411.825	98.0748	200.516	14.6461	1807.25	-11.5714	0
0.1060	-137.346	-47.9939	53.9619	-276.327	115.488	204.475	12.8254	1808.17	-10.364	0
0.1067	-61.358	-37.0089	53.9619	-167.069	120.963	203.874	15.2583	1810.03	-8.82951	0.321076
0.1073	126.341	-34.2626	39.632	-124.369	131.038	226.456	29.9044	1826.71	-16.4516	-0.642153
0.1080	253.293	-28.7702	29.5591	-114.591	123.409	257.588	46.0812	1835.29	-27.1426	-0.963229
0.1087	273.731	-19.0275	31.9874	-110.929	102.967	279.555	48.2241	1804.47	-34.4628	0.321076
0.1093	167.261	-19.0275	45.4179	-101.152	80.3701	313.428	34.4803	1769.24	-28.677	0.642153
0.1100	60.4409	-22.9834	52.1332	-77.6504	57.1909	347.302	15.5645	1752.1	-16.4516	0
0.1107	57.9953	-26.6451	54.2617	-46.5405	55.9679	343.944	2.44907	1760.21	-5.48386	0
0.1113	105.903	-30.9279	52.433	-39.5008	78.8559	326.553	-6.10656	1773.18	9.48355	0
0.1120	175.471	-26.9393	49.0753	-45.6161	85.2622	309.762	-15.8706	1759.28	21.0801	0
0.1127	141.931	-13.8293	48.4758	-35.8387	59.637	254.831	-17.3852	1745.38	13.4329	0
0.1133	-45.156	-0.39232	34.7455	-24.248	40.418	180.367	-5.18816	1740.74	0.930746	0
0.1140	-117.17	11.1811	16.7282	-14.7906	44.3783	131.536	10.6825	1741.67	7.34535	-0.321076
0.1147	73.2366	19.7468	10.9423	-1.67105	62.6945	53.7297	18.6258	1757.19	24.7277	0
0.1153	186.476	20.041	11.8716	6.57753	87.9995	-89.7138	15.5645	1773.65	38.1606	0
0.1160	17.0754	11.1811	19.786	7.46639	106.636	-181.877	6.41269	1775.96	43.9715	-0.963229
0.1167	-52.7984	-3.13856	29.8589	6.86197	108.762	-217.584	0	1770.17	45.4808	-0.963229
0.1173	9.47664	-10.4619	30.7883	35.8742	106.024	-280.14	1.8368	1762.06	45.7827	0
0.1180	-11.8786	-12.2927	28.9595	91.6944	102.064	-317.064	4.88203	1748.62	40.6007	0
0.1187	25.0236	-20.2372	30.7883	128.635	93.8234	-307.914	1.8368	1736.57	33.5823	0
0.1193	165.121	-29.6856	36.874	130.448	89.834	-298.147	-0.612267	1725.91	27.7966	-0.321076
0.1200	345.788	-36.4204	42.0603	103.925	85.2622	-335.071	0	1711.08	18.9419	0
0.1207	426.318	-40.0821	46.647	84.6902	72.1584	-396.719	1.22453	1706.68	9.48355	0.321076
0.1213	438.546	-34.2626	56.4201	82.5569	52.2988	-345.746	3.35136	1714.32	2.76708	0.321076
0.1220	529.775	-21.4468	59.478	72.1751	46.2128	-209.651	1.22453	1724.06	-0.905591	0.321076
0.1227	502.306	-7.71563	47.2466	66.3797	61.4715	-142.196	0.918401	1733.79	0.628883	0
0.1233	324.695	4.77323	31.9874	18.1682	71.5469	-140.07	7.3311	1744.68	0.628883	0
0.1240	98.8715	17.589	23.7732	-101.472	64.8202	-137.313	12.2131	1769.24	-9.43324	0
0.1247	-164.771	28.2798	22.8439	-153.665	50.7846	-118.704	15.2583	1800.06	-22.8662	-0.321076
0.1253	-277.705	28.9009	24.3728	-91.4099	46.504	-91.5469	11.2947	1826.02	-21.6587	0
0.1260	-265.783	17.589	28.33	-20.9059	52.0076	-62.2482	4.26976	1851.04	-7.62206	0.321076
0.1267	-251.459	4.18475	28.33	9.91963	17.8212	-53.0827	16.1767	1872.83	-1.50932	0
0.1273	-211.805	-0.719254	22.8439	14.7906	-55.4146	-62.2482	34.1742	1883.95	-4.85497	0
0.1280	-164.466	0.817334	23.1437	10.5241	-87.4753	-67.7321	37.8478	1901.1	-13.4078	0.321076
0.1287	-62.2314	3.56358	27.4306	11.7684	-68.5476	-64.0813	33.2719	1948.83	-20.1242	0.321076
0.1293	41.4876	9.97148	24.6726	13.2617	-39.2532	-42.7157	23.2017	2000.51	-16.1497	0
0.1300	-7.94815	21.5776	14.5997	3.51987	3.78555	-23.4913	15.2583	2018.12	-5.78572	-0.321076
0.1307	-84.2417	32.5626	3.92723	1.38662	49.8528	-34.1664	16.789	2025.77	5.50901	0
0.1313	-6.72536	38.0551	-1.5589	13.9017	62.9857	-61.3239	20.1404	2046.62	14.3637	0
0.1320	188.616	39.5917	-2.78803	18.7726	48.3385	-72.3071	24.7163	2058.67	19.5457	0.321076
0.1327	318.013	33.7722	3.62744	20.3015	50.4643	-51.5577	27.4715	2046.16	28.4003	0.321076
0.1333	142.237	18.8314	11.8716	19.0926	59.3166	-19.209	20.7526	2023.91	38.1606	0
0.1340	-257.267	8.76182	11.5418	12.3729	43.4465	1.54042	11.907	2015.34	45.7827	0
0.1347	-481.868	7.84641	9.71314	22.7547	21.17	0.616166	6.71883	2021.13	49.7572	0
0.1353	-357.667	5.3944	10.9423	44.0872	15.3752	-6.08464	4.57589	2027.85	25.9603	0
0.1360	-64.677	1.73275	16.1286	49.2782	20.8788	0.323487	7.63723	2030.4	0.930746	0.321076
0.1367	119.615	0.523094	22.8439	43.8028	15.6955	1.8485	12.8254	2033.65	12.2255	0.321076
0.1373	204.163	3.85782	23.7732	51.4114	7.1343	-2.72654	12.5193	2044.07	18.9419	0.321076
0.1380	381.162	10.8869	17.9573	84.3702	5.00857	2.15658	12.2131	2060.06	7.64721	0.321076
0.1387	376.271	15.7582	14.5997	109.72	7.74582	7.33238	16.1767	2074.89	7.64721	0.642153
0.1393	82.4075	17.0005	18.5569	97.8097	24.5478	4.89852	18.0135	2082.54	16.5019	0
0.1400	-13.1014	16.6736	23.4434	89.8811	43.1553	-3.03462	16.789	2079.53	24.1239	-0.321076
0.1407	19.521	13.9274	26.2015	107.267	45.281	-3.65078	21.9772	2064.93	24.1239	0.321076
0.1413	-120.838	8.76182	30.1587	116.725	26.3532	0.616166	31.129	2034.57	7.64721	0
0.1420	-273.731	4.18475	29.8589	113.382	-8.41557	-4.26695	28.696	1996.57	-10.0621	0
0.1427	-332.338	4.18475	27.1308	110.005	-32.8469	0.0154042	18.9158	1966.21	-9.76026	0.321076
0.1433	-294.475	6.01558	29.2593	104.209	-29.7894	12.5236	23.5078	1951.61	-7.32019	0
0.1440	-302.117	6.60406	31.6876	43.1984	-19.4228	16.7905	33.8842	1957.41	-19.2187	0
0.1447	-486.147	11.8023	24.9724	-77.366	-21.2282	27.481	21.9772	1982.43	-23.7969	0
0.1453	-676.248	22.7873	11.8716	-127.391	-27.9548	42.4384	-0.918401	2014.41	-9.13138	0
0.1460	-758.961	30.1106	6.35551	-113.667	-26.1203	52.8054	-10.3763	2052.42	-7.92392	0
0.1467	-841.369	30.1106	12.1714	-115.196	-19.1025	66.2379	-14.3399	2101.54	-18.9168	0
0.1473	-748.611	29.8163	16.7282	-77.9704	-8.41557	64.4048	-21.0588	2163.41	-4.85497	0
0.1480	-222.461	30.1106	20.0858	-19.697	9.90067	51.5885	-24.4101	2227.6	20.1494	-0.642153
0.1487	191.978	26.7432	27.7304	-1.06663	28.1878	74.171	-21.671	2271.86	22.9165	-1.28431
0.1493	218.225	24.3239	31.3878	-8.71079	34.5941	112.019	-16.4829	2293.41	14.3637	-0.321076
0.1500	307.008	23.4084	26.2015	-14.5061	28.7993	110.186	-12.8093	2296.89	11.3199	0.321076
0.1507	474.837	22.493	19.786	-6.86197	19.6557	83.3211	-7.00885	2302.68	13.1311	0
0.1513	598.47	22.7873	17.3577	-1.99104	19.9469	71.4291	3.06134	2332.11	13.76	0.321076
0.1520	625.633	21.8719	19.4862	-1.38662	28.7993	79.6703	11.907	2357.83	14.6655	0
0.1527	533.749	17.589	27.1308	9.31521	26.3532	86.0784	23.5078	2368.49	20.4513	0
0.1533	441.909	11.1811	33.2165	18.7726	15.3752	85.1542	34.7864	2377.07	24.7277	0
0.1540	312.511	11.1811	30.4585	24.568	11.7061	85.1542	39.6685	2382.86	23.8221	0
0.1547	192.896	17.916	26.2015	26.4168	14.7636	86.0784	41.1991	2404.18	24.1239	0
0.1553	192.284	24.3239	24.9724	20.3015	16.307	93.3954	39.0723	2460.72	25.6584	0
0.1560	251.153	31.026	20.4156	23.0391	4.39706	108.954	24.4101	2531.17	28.4003	0.321076
0.1567	348.802	37.1397	12.1714	30.0789	-23.6742	124.835	-6.10656	2588.17	29.6078	0.642153
0.1573	309.454	42.6321	6.98507	27.9101	-47.1738	120.553	-32.6435	2645.87	29.3059	0.321076
0.1580	137.957	49.04	7.88443	25.7768	-85.932	60.1378	-38.1378	2715.85	32.3749	0
0.1587	112.934	52.9959	11.2421	27.0212	-157.042	-48.5077	-27.4554	2783.06	36.9531	0
0.1593	-45.4617	56.6576	14.0001	25.4924	-193.966	-97.6469	-10.6825	2848.63	36.6261	0
0.1600	-407.714	60.6462	12.771	18.1682	-163.769	-77.8064	-0.612267	2909.58	28.4003	0
0.1607	-450.119	61.2347	9.71314	8.71079	-103.345	-88.1888	-1.82069	2950.13	18.3382	0
0.1613	-175.471	52.4075	10.6425	-4.40872	-55.4146	-98.5558	-2.73909	2957.08	10.9929	0
0.1620	78.7391	39.5917	15.1993	-20.3015	-35.5842	-57.3651	-8.23338	2946.89	4.60342	0
0.1627	168.178	36.8454	20.4156	-24.8524	-9.95891	10.6905	-18.6097	2945.5	3.06895	0
0.1633	151.976	34.0992	19.786	-13.8661	24.839	80.271	-18.3036	2952.91	7.94908	0.321076
0.1640	162.675	29.4894	15.529	1.99104	45.6013	118.427	-18.9158	2975.16	9.78541	0.321076
0.1647	200.189	28.574	15.1993	19.3771	58.4139	134.293	-23.1856	3003.66	9.18169	0
0.1653	142.805	22.493	14.8995	44.0872	71.2266	166.026	-22.8795	3013.62	15.2693	0
0.1660	80.5733	31.3529	8.18422	61.7933	86.194	194.108	-29.9044	3027.99	21.9857	0
0.1667	220.627	57.573	-5.54608	64.5309	107.539	214.857	-41.8114	3066.46	21.0801	0
0.1673	351.553	44.7572	-13.7903	80.1037	123.118	236.823	-55.8452	3108.63	14.6655	0
0.1680	161.452	3.85782	-4.61674	104.814	98.3951	154.735	-35.7049	3126.24	8.5528	0
0.1687	-223.989	-4.96939	8.81377	120.387	53.5218	25.956	24.4101	3126.94	-2.74193	0.321076
0.1693	-283.819	0.523094	14.2999	105.454	26.3532	9.16547	47.3057	3143.39	0.0251553	0.321076
0.1700	-39.9591	-1.63467	14.8995	56.9223	-0.786229	24.1229	38.1539	3174.44	39.6951	0.321076
0.1707	14.3678	-1.30773	13.7003	23.3591	-17.2679	16.4979	38.7662	3201.56	65.3283	0
0.1713	-26.2464	-0.719254	14.2999	24.888	-2.62076	16.7905	38.7662	3224.5	58.6119	0
0.1720	-10.088	-1.01349	9.11356	36.1587	27.5763	17.4067	36.9294	3247.44	56.4737	0
0.1727	-10.088	-1.01349	-1.5589	36.1587	76.4099	16.4979	36.6233	3281.27	56.7755	0
0.1733	-12.49	-1.01349	22.2443	33.421	109.694	16.1898	35.3987	3339.9	54.6373	0
0.1740	-10.6558	-1.01349	63.1354	33.741	69.1008	15.5736	34.7864	3420.77	53.4299	0
0.1747	-11.2672	-1.30773	67.0926	32.2121	-8.41557	14.9728	33.578	3497.7	52.1973	-0.321076
0.1753	-10.9615	-1.30773	60.3773	31.5722	-75.8566	14.6648	32.3535	3540.34	50.3609	-1.28431
0.1760	-10.088	-0.719254	61.6065	31.5722	-133.251	14.9728	32.0474	3566.53	49.4553	-0.963229
0.1767	-9.78234	-0.719254	60.0776	30.6833	-151.859	14.3567	31.7412	3599.67	48.8516	-0.321076
0.1773	-9.78234	-1.01349	58.2489	29.7589	-138.114	13.7405	30.5167	3623.3	47.619	0
0.1780	-9.47664	-1.01349	56.7199	28.8345	-96.6189	13.4478	29.9044	3631.64	46.7134	0
0.1787	-9.17095	-0.719254	55.4908	28.2301	-26.1203	13.1397	29.2922	3642.07	45.4808	0
0.1793	-9.17095	-0.719254	53.9619	27.6256	30.0223	12.8317	28.696	3654.58	44.5752	0
0.1800	-8.86525	-1.01349	52.7627	27.0212	76.1187	12.5236	28.0837	3658.52	43.3426	0
0.1807	-8.55955	-0.719254	51.5336	26.4168	122.186	12.2155	27.1653	3652.96	41.8333	0
0.1813	-8.25385	-0.39232	50.3045	25.4924	148.743	12.2155	26.5531	3633.96	40.9025	0
0.1820	-8.55955	-1.01349	48.4758	24.568	164.904	11.3066	25.9408	3611.72	40.2988	0
0.1827	-8.25385	-1.01349	47.5764	23.9636	151.189	11.3066	25.3285	3593.41	39.0662	0
0.1833	-7.94815	-0.719254	46.647	23.6436	117.934	11.3066	25.0224	3572.32	38.1606	0.321076
0.1840	-7.64246	-0.719254	45.4179	23.0391	110.596	10.9986	24.7163	3554.01	37.5569	0.321076
0.1847	-7.64246	-1.01349	44.2188	22.4347	98.0748	10.6905	23.814	3545.9	36.6261	0
0.1853	-7.33676	-0.719254	42.9896	22.1147	72.4496	10.0897	23.2017	3542.2	35.7205	0
0.1860	-7.03106	-0.719254	42.0603	21.5103	54.1334	9.78164	22.8956	3545.9	34.8149	0.321076
0.1867	-6.72536	-0.39232	41.1609	21.2259	46.504	9.78164	22.5894	3562.36	34.1861	0
0.1873	-6.41966	-0.39232	40.2316	20.5859	54.7449	9.47355	21.9772	3580.9	33.5823	0.321076
0.1880	-6.72536	-0.719254	39.0324	19.9815	46.8243	9.47355	21.3649	3596.19	32.9786	0.321076
0.1887	-6.41966	-0.719254	38.1031	19.3771	18.7239	9.16547	20.7526	3605.46	32.0479	0.321076
0.1893	-6.41966	-0.39232	37.1737	19.0926	4.07675	8.85739	20.4465	3595.03	31.1423	0.321076
0.1900	-6.41966	-0.719254	35.9746	18.1682	-0.174718	8.56471	20.1404	3559.11	30.5385	0.321076
0.1907	-6.11396	-0.39232	35.0452	17.8482	-9.95891	8.56471	19.5281	3515.78	29.6078	0
0.1913	-5.80827	-0.39232	34.4457	17.8482	-21.2282	8.25663	18.9158	3479.86	28.7022	0.321076
0.1920	-5.80827	-0.39232	33.5163	17.2438	-8.73588	7.94854	18.6258	3451.36	28.4003	0.321076
0.1927	-5.50257	-0.0980801	32.9167	16.6394	19.6557	7.94854	17.7074	3443.71	27.1677	0
0.1933	-5.19687	-0.0980801	31.9874	16.6394	33.0799	7.94854	17.4013	3464.8	26.564	0
0.1940	-5.50257	-0.39232	31.088	16.035	43.7668	7.64046	17.4013	3484.5	26.2621	0.321076
0.1947	-5.50257	-0.719254	30.1587	15.4305	59.637	7.02429	16.789	3494	25.3565	0
0.1953	-5.19687	-0.39232	29.5591	15.1105	52.6191	7.02429	16.1767	3520.65	24.7277	0
0.1960	-4.89117	-0.39232	28.9595	14.7906	19.0442	6.73162	15.8706	3569.77	24.1239	0
0.1967	-4.89117	-0.39232	28.33	14.5061	14.1521	6.73162	15.8706	3620.75	23.8221	0
0.1973	-4.58547	-0.0980801	27.7304	14.5061	46.8243	6.73162	15.2583	3670.81	23.2183	0.321076
0.1980	-4.58547	-0.39232	26.8011	13.9017	58.0936	6.11545	14.9522	3722.25	22.5895	0
0.1987	-4.58547	-0.39232	26.2015	13.5817	51.6873	6.11545	14.6461	3761.87	21.9857	0
0.1993	-4.27977	-0.0980801	25.9017	13.2617	51.6873	6.11545	14.3399	3789.45	21.6839	0
0.2000	-4.27977	-0.39232	24.9724	12.9773	50.7846	5.80737	14.0338	3821.2	21.0801	0
0.2007	-4.27977	-0.719254	24.3728	12.6573	49.2413	5.49928	13.7277	3865.46	20.4513	0
0.2013	-3.97408	-0.39232	23.7732	12.3729	48.3385	5.49928	13.7277	3910.64	20.4513	0.321076
0.2020	-3.66838	-0.0980801	23.4434	12.3729	47.4358	5.2066	13.1315	3955.14	19.8475	0
0.2027	-3.66838	-0.39232	22.8439	12.0529	46.2128	5.2066	12.8254	4007.27	19.2438	0
0.2033	-3.36268	-0.0980801	22.5441	12.0529	45.281	5.2066	12.8254	4053.39	18.9419	0
0.2040	-3.36268	0.19616	21.9145	11.7684	44.3783	5.2066	12.2131	4084.21	18.3382	0
0.2047	-3.36268	-0.0980801	21.0152	11.1285	43.1553	4.89852	11.907	4103.21	18.0112	0
0.2053	-3.66838	-0.39232	20.4156	10.5241	41.9322	4.59044	11.2947	4110.16	17.1056	-0.963229
0.2060	-3.05698	-0.0980801	20.4156	10.844	41.6119	4.89852	10.9886	4112.94	16.8037	-1.28431
0.2067	-2.44559	0.523094	20.0858	11.1285	41.0295	5.2066	11.2947	4119.9	16.8037	0
0.2073	-2.75128	0.19616	19.1864	10.2396	39.4862	4.59044	11.2947	4126.38	16.5019	0
0.2080	-3.05698	-0.39232	18.5569	9.59964	38.2632	4.28235	10.6825	4129.16	15.873	-0.321076
0.2087	-2.75128	-0.0980801	18.2571	9.59964	37.6517	4.28235	10.3763	4129.16	15.2693	-0.321076
0.2093	-2.75128	-0.0980801	17.6575	9.59964	36.7489	3.97427	10.3763	4124.99	15.2693	0
0.2100	-2.75128	-0.0980801	17.3577	8.99522	35.8171	3.97427	10.3763	4117.58	14.9674	0.321076
0.2107	-2.75128	-0.0980801	17.058	8.99522	34.9144	3.97427	10.0702	4109	14.6655	0.321076
0.2113	-2.44559	-0.0980801	16.7282	8.71079	33.9826	3.97427	9.76405	4104.37	14.3637	0.321076
0.2120	-2.44559	-0.39232	16.1286	8.3908	33.0799	3.68159	9.45792	4096.95	14.0618	0
0.2127	-2.44559	-0.0980801	15.8288	8.3908	32.1772	3.68159	9.45792	4083.51	13.76	0
0.2133	-2.44559	0.19616	15.529	8.3908	31.5657	3.68159	9.15178	4076.79	13.4329	0
0.2140	-2.44559	-0.0980801	14.8995	8.10636	30.9541	3.68159	8.53952	4078.18	12.8292	-0.321076
0.2147	-2.13989	-0.0980801	14.5997	7.78638	30.3426	3.68159	8.53952	4077.49	12.5273	-0.321076
0.2153	-2.13989	0.19616	14.2999	7.78638	29.7311	3.37351	8.53952	4075.4	12.5273	0
0.2160	-2.44559	-0.0980801	13.7003	7.46639	28.7993	3.37351	8.2495	4077.49	12.2255	0
0.2167	-2.13989	-0.0980801	13.7003	7.18195	28.1878	3.37351	7.94336	4086.06	11.6218	0
0.2173	-1.83419	-0.0980801	13.7003	7.18195	27.5763	3.37351	7.94336	4096.49	11.6218	0
0.2180	-2.13989	-0.0980801	13.0708	6.86197	26.6736	3.06543	7.94336	4101.36	11.3199	0
0.2187	-2.13989	-0.0980801	12.4712	6.86197	26.062	3.06543	7.63723	4097.42	10.9929	0
0.2193	-1.83419	0.19616	12.1714	6.57753	25.7709	3.06543	7.3311	4086.29	10.3891	-0.321076
0.2200	-1.83419	-0.0980801	12.1714	6.25754	25.1593	3.06543	7.02496	4072.39	10.3891	-0.321076
0.2207	-2.13989	-0.0980801	11.5418	6.25754	24.5478	2.75734	7.3311	4053.62	10.3891	0
0.2213	-1.83419	-0.0980801	11.5418	6.25754	23.9363	2.75734	7.02496	4041.8	9.78541	0.321076
0.2220	-1.52849	0.19616	11.5418	6.25754	23.616	2.75734	7.02496	4042.96	9.78541	0
0.2227	-1.83419	-0.0980801	10.9423	5.65312	22.7133	2.44926	6.71883	4042.96	9.48355	0
0.2233	-2.13989	-0.39232	10.3427	5.33313	22.1018	2.44926	6.41269	4038.09	9.18169	0
0.2240	-1.83419	-0.39232	10.3427	5.33313	21.7815	2.44926	6.41269	4041.11	9.18169	0
0.2247	-1.52849	-0.39232	10.0129	5.33313	21.17	2.44926	6.10656	4050.14	8.85467	0
0.2253	-1.83419	-0.39232	9.41335	5.0487	20.2672	2.15658	6.10656	4053.62	8.5528	0.321076
0.2260	-1.52849	-0.0980801	9.71314	5.0487	20.2672	2.15658	6.10656	4051.77	8.25094	0.321076
0.2267	-1.22279	0.19616	9.71314	5.0487	19.9469	2.44926	5.80043	4053.16	7.94908	0
0.2273	-1.22279	0.19616	9.41335	4.72871	19.3354	2.15658	5.80043	4058.02	7.94908	0.321076
0.2280	-1.22279	0.19616	9.11356	5.0487	19.0442	2.15658	5.49429	4040.64	7.64721	0
0.2287	-1.22279	-0.0980801	8.81377	4.72871	18.4327	2.15658	5.49429	4002.64	7.64721	0
0.2293	-1.52849	-0.39232	8.51399	4.44428	17.8212	2.15658	5.49429	3990.13	7.34535	0.321076
0.2300	-1.52849	-0.0980801	8.18422	4.44428	17.53	2.15658	5.18816	3998.24	7.04349	0.321076
0.2307	-1.22279	0.19616	8.18422	4.44428	17.2097	2.15658	5.18816	4000.09	7.04349	0.321076
0.2313	-1.22279	-0.0980801	7.88443	4.12429	16.5982	1.54042	5.18816	4004.03	7.04349	0.321076
0.2320	-1.22279	-0.0980801	7.58464	3.8043	16.307	1.54042	4.88203	4007.51	6.74162	0.321076
0.2327	-1.22279	0.19616	7.58464	4.12429	15.9867	1.8485	4.88203	4006.58	6.4146	0
0.2333	-1.22279	-0.0980801	7.28485	3.8043	15.3752	1.54042	4.88203	4009.36	6.4146	0
0.2340	-1.22279	-0.0980801	7.28485	3.8043	15.3752	1.8485	4.57589	4015.62	6.4146	0.321076
0.2347	-0.917095	0.19616	7.28485	4.12429	15.084	1.8485	4.57589	4025.12	6.11274	0.321076
0.2353	-1.22279	-0.39232	6.6553	3.51987	14.1521	1.23233	3.96363	4035.08	5.50901	-0.642153
0.2360	-1.52849	-0.39232	6.35551	3.19988	14.1521	1.54042	3.65749	4043.66	5.20715	-1.60538
0.2367	-0.611396	0.19616	6.6553	3.8043	14.4724	2.15658	4.26976	4058.26	5.50901	-0.321076
0.2373	-0.611396	0.19616	6.6553	3.51987	13.8609	1.8485	4.26976	4072.39	5.81088	0.321076
0.2380	-0.917095	0.19616	6.6553	3.51987	13.5406	1.8485	3.96363	4081.2	5.50901	0.321076
0.2387	-0.611396	0.19616	6.35551	3.8043	13.2494	1.8485	3.96363	4098.58	5.20715	0
0.2393	-0.917095	0.19616	5.75593	3.19988	12.6379	1.54042	3.65749	4130.09	4.90528	-0.321076
0.2400	-0.917095	0.19616	5.75593	2.91545	12.3176	1.54042	3.65749	4165.08	4.90528	0
0.2407	-0.611396	0.19616	5.75593	3.19988	12.3176	1.54042	3.65749	4178.75	4.90528	0.321076
0.2413	-0.611396	-0.0980801	5.75593	2.91545	11.7061	1.23233	3.65749	4151.41	4.60342	0
0.2420	-0.611396	-0.0980801	5.45615	2.91545	11.4149	1.23233	3.35136	4096.72	4.60342	0
0.2427	-0.611396	-0.0980801	5.15636	2.91545	11.4149	1.23233	3.65749	4063.12	4.90528	0.321076
0.2433	-0.917095	-0.0980801	5.15636	2.91545	11.0946	1.23233	3.35136	4074.71	4.60342	0
0.2440	-0.611396	0.19616	5.15636	2.91545	10.8034	1.23233	3.35136	4107.15	4.60342	0
0.2447	-0.305698	0.19616	5.15636	2.91545	10.8034	1.23233	3.06134	4134.03	4.2764	0
0.2453	-0.305698	-0.0980801	4.82659	2.59546	10.1919	0.924249	3.06134	4147.01	3.97454	-0.321076
0.2460	-0.611396	0.19616	4.82659	2.59546	10.1919	0.924249	3.06134	4157.43	4.2764	0
0.2467	-0.611396	0.19616	4.5268	2.59546	9.90067	0.924249	3.06134	4174.35	4.2764	0
0.2473	-0.611396	-0.0980801	4.5268	2.59546	9.58035	0.924249	3.06134	4191.27	3.97454	0
0.2480	-0.611396	-0.0980801	4.22701	2.27547	9.28916	0.924249	3.06134	4215.37	3.97454	0
0.2487	-0.611396	-0.0980801	4.22701	2.27547	8.96884	0.616166	3.06134	4248.04	3.97454	0.321076
0.2493	-0.611396	0.19616	4.22701	2.27547	8.96884	1.23233	3.06134	4276.77	3.97454	0.321076
0.2500	-0.305698	0.19616	4.5268	2.59546	8.96884	1.23233	2.7552	4285.12	3.67267	0.321076
0.2507	-0.611396	0.19616	4.22701	2.27547	8.67764	0.924249	2.7552	4249.66	3.67267	0
0.2513	-0.611396	0.19616	3.92723	2.27547	8.67764	0.924249	2.7552	4196.6	3.67267	0
0.2520	-0.305698	0.19616	3.92723	2.27547	8.35733	1.23233	2.7552	4173.42	3.67267	0.321076
0.2527	-0.305698	0.19616	3.92723	2.27547	8.06613	1.23233	2.7552	4165.08	3.67267	0.321076
0.2533	0	0.19616	3.92723	2.27547	8.06613	1.23233	2.44907	4147.7	3.37081	0
0.2540	-0.305698	0.19616	3.62744	2.27547	8.06613	0.924249	2.44907	4132.18	2.76708	-0.321076
0.2547	-0.611396	-0.0980801	3.29767	1.67105	7.45462	0.924249	2.44907	4122.68	3.06895	0
0.2553	-0.611396	-0.0980801	3.29767	1.67105	7.45462	0.924249	2.44907	4110.86	3.06895	0
0.2560	-0.305698	0.19616	3.62744	1.99104	7.1343	0.924249	2.14294	4096.49	2.76708	0
0.2567	-0.611396	0.19616	3.29767	1.67105	6.84311	0.924249	2.14294	4078.18	2.76708	0
0.2573	-0.305698	0.19616	2.99788	1.67105	6.84311	0.924249	2.14294	4055.01	2.76708	0
0.2580	-0.305698	0.19616	2.99788	1.67105	6.84311	0.924249	2.14294	4040.64	2.76708	0
0.2587	-0.611396	-0.0980801	2.99788	1.38662	6.52279	0.616166	2.14294	4030.91	2.76708	0
0.2593	-0.611396	-0.0980801	2.69809	1.38662	6.2316	0.616166	2.14294	4012.14	2.46522	0
0.2600	-0.305698	-0.0980801	2.69809	1.38662	6.2316	0.924249	1.8368	3995.92	2.46522	-0.321076
0.2607	-0.611396	0.19616	2.69809	1.38662	5.91128	0.924249	1.53067	3975.76	2.46522	-0.321076
0.2613	-0.611396	0.19616	2.69809	1.38662	5.91128	0.924249	1.8368	3929.41	2.16336	0
0.2620	-0.305698	0.19616	2.69809	1.38662	5.91128	0.924249	2.14294	3876.58	2.16336	0
0.2627	-0.611396	-0.0980801	2.39831	1.06663	5.29977	0.924249	1.8368	3832.78	2.16336	0
0.2633	-0.611396	-0.0980801	2.09852	1.06663	4.39706	0.616166	1.53067	3793.39	1.83634	0
0.2640	-0.611396	-0.0980801	2.09852	1.06663	7.45462	0.924249	1.8368	3758.63	2.16336	0.321076
0.2647	-0.611396	-0.0980801	1.79873	0.782193	2.88284	0.924249	1.53067	3722.48	2.16336	0
0.2653	-0.917095	-0.39232	1.79873	0.782193	0.116478	0.616166	0.918401	3681	1.23261	-1.28431
0.2660	-0.611396	0.19616	2.09852	1.06663	25.7709	0.924249	0.918401	3636.28	1.23261	-1.28431
0.2667	-0.611396	0.19616	2.09852	1.06663	-58.7634	0.924249	1.53067	3592.02	1.83634	0
0.2673	-0.917095	-0.0980801	1.79873	0.782193	-228.764	0.616166	1.53067	3547.76	1.83634	0.321076
0.2680	-0.917095	-0.39232	1.46896	0.782193	-255.321	0.616166	1.53067	3514.85	1.53447	0
0.2687	-0.917095	-0.39232	1.46896	0.462205	-217.786	0.323487	1.22453	3503.73	1.53447	0
0.2693	-0.917095	-0.0980801	0.569598	0.462205	-215.951	0.616166	1.53067	3509.75	1.53447	0
0.2700	-0.611396	-0.0980801	2.39831	0.782193	-205.876	0.924249	1.53067	3516.24	1.83634	0.321076
0.2707	-0.611396	-0.0980801	4.22701	1.06663	-193.966	0.924249	1.8368	3475.92	2.16336	0.321076
0.2713	-0.611396	-0.0980801	-8.27415	0.462205	-184.502	0.616166	1.22453	3370.02	1.53447	0
0.2720	-0.917095	-0.39232	16.7282	0.462205	-174.135	0.323487	0.918401	3269.45	0.930746	0
0.2727	0	0.817334	-5.54608	2.27547	-165.283	1.8485	3.06134	3300.5	3.67267	0
0.2733	-1.83419	-1.63467	-207.573	-2.59546	-157.654	-2.12577	-0.918401	3391.57	-3.04379	0.321076
0.2740	-1.83419	-0.39232	-318.945	1.38662	-152.15	2.15658	0.918401	3362.38	2.16336	0.321076
0.2747	5.80827	6.01558	-236.863	10.5241	-142.104	6.73162	11.907	3338.97	16.5019	0
0.2753	-26.8578	-36.4204	-193.843	-73.0995	-129.262	-57.057	-54.6207	3303.28	-93.6784	0
0.2760	-84.8531	-101.121	-220.674	-184.491	-123.787	-125.713	-150.15	3105.85	-236.485	0
0.2767	-97.343	-112.106	-235.634	-181.113	-119.798	-120.229	-155.645	2954.07	-238.623	0
0.2773	-90.6177	-94.0915	-242.049	-133.506	-112.489	-107.721	-138.55	2942.02	-211.154	0
0.2780	-95.2032	-76.9929	-244.178	-81.9525	-104.86	-106.489	-137.937	2982.11	-209.041	0
0.2787	-94.8975	-63.5886	-219.775	2.27547	-97.8419	-101.005	-130.912	3008.06	-197.746	0
0.2793	-87.8664	-33.053	-224.032	75.5172	-91.7268	-96.7227	-125.418	2954.07	-187.659	0
0.2800	-87.255	13.6331	-229.848	116.44	-85.932	-91.8396	-119.924	2843.3	-178.2	0
0.2807	-85.7702	7.22523	-171.239	135.959	-80.4575	-86.9565	-113.527	2756.41	-168.44	0
0.2813	-68.9568	-56.2326	-103.487	113.987	-75.5654	-81.4726	-107.421	2792.09	-161.723	0
0.2820	-53.1041	-95.9223	-78.1548	15.1105	-71.2848	-76.5895	-101.62	2857.67	-158.68	0
0.2827	-43.9332	-89.5144	-93.414	-106.058	-67.0042	-73.8321	-97.3505	2814.11	-154.101	0
0.2833	-35.1116	-81.2757	-117.247	-165.54	-63.3643	-70.7821	-93.3869	2835.19	-144.643	-0.321076
0.2840	-28.692	-76.6986	-127.92	-251.617	-59.0837	-67.7321	-88.811	2932.52	-133.952	0
0.2847	-28.9977	-69.0811	-121.204	-363.613	-54.8031	-62.8489	-82.0922	2804.37	-125.399	0.321076
0.2853	-32.666	-59.6	-95.8723	-369.728	-50.5225	-57.9658	-75.9856	2559.44	-118.079	0.321076
0.2860	-34.1945	-50.7401	-87.0285	-324.859	-46.2711	-57.057	-72.6342	2476.02	-112.897	0
0.2867	-35.723	-64.7982	-94.6431	-279.705	-41.9905	-57.057	-70.4913	2457.25	-108.319	0
0.2873	-37.2078	-87.6836	-111.132	-216.525	-38.0302	-56.7489	-67.4461	2397	-101.602	0.321076
0.2880	-40.5705	-87.0624	-139.821	-164.332	-34.3611	-54.007	-64.6909	2288.78	-93.6784	0.321076
0.2887	-46.3788	-66.9233	-113.89	-135.639	-31.6239	-42.0996	-61.0334	2154.84	-86.66	0.321076
0.2893	-46.0731	-63.2617	-40.9511	-120.067	-28.246	-29.8995	-55.8452	2096.68	-80.8492	0.321076
0.2900	-37.2078	-76.9929	-17.7475	-98.7341	-25.8291	-31.1164	-52.1877	2125.18	-75.969	0
0.2907	-31.1375	-76.0775	-19.876	-70.0418	-23.9946	-39.0495	-50.3509	2098.53	-69.8814	0
0.2913	-31.1375	-76.9929	-2.48824	-59.98	-21.2282	-39.3576	-47.918	1977.8	-63.7687	0
0.2920	-27.7749	-87.6836	-14.09	-66.0598	-18.1998	-30.1921	-45.1628	1892.99	-59.1904	0
0.2927	-21.6609	-86.4739	-51.024	-76.7616	-15.7537	-23.1833	-40.893	1881.4	-57.0522	0
0.2933	-23.1894	-53.4863	-72.3689	-80.7081	-14.2104	-22.5671	-36.6233	1839.23	-56.4485	0
0.2940	-29.3034	-8.04257	-85.7994	-71.5707	-12.0846	-22.8752	-34.4803	1725.22	-53.0777	0
0.2947	-32.9717	-34.5896	-81.8422	-63.3221	-10.8616	-21.9663	-32.0474	1636.93	-47.292	0.321076
0.2953	-29.9148	-99.584	-69.311	-50.2026	-9.63859	-21.3502	-30.5167	1664.5	-42.7137	-0.642153
0.2960	-20.1324	-108.738	-61.9962	-21.8303	-7.19254	-19.8251	-29.2922	1739.81	-39.6448	-1.28431
0.2967	-16.1583	-105.076	-26.891	1.38662	-4.1641	-15.5582	-25.9408	1802.61	-33.5572	-0.642153
0.2973	-19.521	-100.205	-13.4605	3.19988	-2.00925	-13.417	-23.4917	1806.32	-27.1426	0.321076
0.2980	-22.2723	-73.9524	-53.1525	-4.12429	-0.174718	-14.0178	-22.8795	1695.55	-24.7025	0
0.2987	-19.521	-10.7888	-69.9406	-14.5061	1.3395	-12.8009	-22.2833	1650.37	-26.5388	0
0.2993	-7.64246	63.6867	-60.1675	-23.0391	1.65982	-10.6751	-20.7526	1712.7	-26.8407	0
0.3000	-1.22279	26.4489	-45.2081	-20.9059	3.17404	-8.22582	-17.9974	1753.95	-22.5643	0
0.3007	-5.50257	-20.2372	-20.1757	-15.715	5.00857	-5.79196	-14.9522	1780.83	-18.5898	0
0.3013	-4.58547	2.02699	-20.8053	-11.7329	5.62008	-5.79196	-14.3399	1633.45	-17.0805	0
0.3020	1.83419	-20.8584	-33.3065	-6.25754	5.62008	-5.79196	-12.5031	1349.58	-15.546	0
0.3027	1.22279	-47.0784	-11.332	-3.19988	6.52279	-4.26695	-9.76405	1173.7	-11.8985	0
0.3033	1.22279	-32.7588	-0.359746	3.19988	7.74582	-3.03462	-8.23338	1027.95	-7.62206	0
0.3040	7.64246	-33.053	-12.5611	12.9773	9.28916	-1.50961	-5.49429	990.87	-3.64752	0
0.3047	3.97408	-28.4759	-6.44545	14.7906	9.58035	-0.600762	-3.65749	1055.06	-1.81118	0.321076
0.3053	-6.41966	1.43851	-6.74523	13.2617	9.28916	-0.292679	-4.88203	932.938	-1.81118	0
0.3060	-8.55955	-15.3659	2.99788	13.2617	9.90067	0.616166	-4.26976	722.992	-1.20745	0
0.3067	-0.611396	-72.4158	49.4051	11.7684	10.5122	0.924249	-1.82069	670.621	0.628883	0
0.3073	5.80827	-71.8273	78.9942	11.7684	12.0264	2.44926	0	807.341	3.06895	-0.321076
0.3080	4.58547	-35.505	88.4675	13.9017	13.2494	5.2066	1.8368	832.831	6.74162	-0.321076
0.3087	9.47664	-22.6892	81.1227	14.5061	13.2494	5.49928	2.7552	611.067	8.85467	-0.321076
0.3093	18.9096	-14.1235	53.3623	13.5817	13.2494	3.97427	2.14294	409.695	7.94908	0
0.3100	18.9096	-31.2222	54.2617	13.2617	13.2494	3.97427	2.44907	183.76	7.34535	0
0.3107	17.3811	-59.0115	65.8635	13.9017	12.6379	5.2066	3.96363	-41.4793	8.25094	-0.321076
0.3113	15.2412	-42.8283	54.8912	16.035	14.1521	7.02429	5.80043	-112.852	10.0873	0
0.3120	4.89117	-13.8293	41.4607	14.1861	15.084	7.94854	6.71883	-166.381	11.3199	-0.321076
0.3127	-0.917095	-3.13856	28.6298	8.3908	14.4724	6.42353	6.41269	-232.423	10.691	-0.963229
0.3133	1.22279	2.02699	16.7282	5.65312	14.4724	6.73162	6.41269	-252.584	10.3891	-0.642153
0.3140	0.917095	8.14065	12.4712	4.72871	13.5406	7.02429	7.02496	-275.757	10.0873	0
0.3147	1.22279	10.5926	15.8288	5.0487	14.1521	7.64046	7.63723	-328.359	10.3891	0
0.3153	6.11396	3.85782	27.1308	8.10636	16.307	9.47355	8.2495	-358.02	12.5273	0
0.3160	7.33676	-8.04257	31.088	10.844	16.5982	9.16547	8.84565	-365.667	12.8292	0
0.3167	6.41966	-13.8293	18.8867	9.31521	15.9867	8.56471	9.45792	-414.793	11.3199	0
0.3173	7.94815	-10.4619	16.7282	10.5241	15.6955	8.85739	9.76405	-475.043	11.6218	0
0.3180	7.03106	-1.01349	28.9595	29.7589	15.9867	8.85739	9.45792	-541.317	16.8037	0.321076
0.3187	4.58547	13.9274	33.5163	46.8605	17.8212	8.85739	9.45792	-713.259	21.0801	0.321076
0.3193	4.27977	17.589	31.9874	51.7314	17.8212	9.78164	9.45792	-907.216	20.1494	0
0.3200	5.80827	-4.67515	28.9595	90.1655	16.5982	10.3824	9.15178	-980.442	18.6401	-0.321076
0.3207	7.94815	-37.3358	24.073	160.385	16.307	10.3824	8.2495	-1015.2	19.2438	-0.321076
0.3213	8.55955	-59.0115	20.4156	210.73	14.7636	8.85739	7.3311	-1103.72	20.7783	-0.321076
0.3220	7.94815	-64.504	19.786	236.365	13.5406	7.33238	7.63723	-1229.32	21.6839	0
0.3227	8.25385	-60.5154	21.3149	248.88	15.3752	8.56471	8.53952	-1356.77	20.4513	-0.321076
0.3233	7.03106	-55.3172	21.6147	239.102	17.53	9.78164	8.84565	-1515.5	19.5457	-0.321076
0.3240	4.89117	-23.6046	20.7154	225.378	17.2097	9.47355	7.3311	-1732.4	19.2438	0.321076
0.3247	4.27977	41.7167	19.1864	197.895	16.5982	9.16547	6.41269	-1924.5	20.1494	0
0.3253	4.27977	62.1501	18.2571	27.0212	16.307	9.16547	5.80043	-2080.46	17.1056	-1.28431
0.3260	5.80827	37.4339	20.7154	-207.672	17.53	11.3066	6.10656	-2268.62	11.6218	-1.28431
0.3267	7.94815	31.026	22.5441	-259.866	18.4327	13.1397	7.63723	-2467.21	12.2255	0.321076
0.3273	7.33676	29.1952	21.6147	-184.491	17.53	11.3066	5.80043	-2668.81	14.6655	0.321076
0.3280	4.58547	23.7027	19.786	-111.854	15.084	7.33238	4.26976	-2888.49	16.8037	-0.321076
0.3287	0.917095	20.3353	17.9573	-27.0212	15.084	4.59044	3.96363	-3086.62	16.8037	0
0.3293	-1.83419	16.3794	16.1286	50.5226	15.6955	3.68159	3.96363	-3209.43	16.2	0
0.3300	-0.917095	21.5776	11.2421	84.6902	8.67764	5.2066	7.63723	-3304.68	19.8475	0
0.3307	-0.611396	27.6586	-0.659534	100.547	26.062	4.89852	10.6825	-3430.5	23.8221	0
0.3313	-1.83419	23.9969	-8.27415	93.5432	74.5753	1.23233	8.2495	-3537.56	25.6584	-0.321076
0.3320	-4.89117	20.6622	-4.61674	36.1587	92.8915	0.323487	6.71883	-3617.74	25.6584	-0.321076
0.3327	-6.11396	21.2507	18.2571	-46.2205	85.2622	0.0154042	7.3311	-3700.24	19.5457	0
0.3333	11.3108	12.4235	59.7778	-76.7616	84.0392	-3.95887	3.96363	-3779.49	17.4075	0
0.3340	28.3863	16.0851	78.0948	-7.18195	82.8162	13.1397	10.6825	-3849.47	48.8516	0
0.3347	27.1635	53.3229	71.3796	51.4114	80.3701	45.4885	33.578	-3934.05	86.0815	-0.321076
0.3353	25.3293	74.3774	69.8507	43.4828	78.8559	52.4974	42.4237	-4039.49	88.5215	0
0.3360	25.9407	67.9695	69.2211	40.1407	77.0214	47.3216	38.7662	-4152.57	82.7106	0
0.3367	25.0236	66.1387	67.3924	42.8784	75.1868	47.3216	38.4601	-4317.33	82.7106	0
0.3373	24.4122	65.8117	65.8635	40.1407	73.3523	46.0892	37.8478	-4480.46	80.5724	0
0.3380	23.8008	63.6867	64.0348	39.2163	71.8381	44.5642	36.3171	-4550.21	78.1324	-0.321076
0.3387	23.4951	62.1501	62.5058	38.6119	70.0035	43.6554	35.7049	-4641.28	76.3212	-0.321076
0.3393	22.8837	60.6462	60.6771	37.403	68.169	42.4384	34.7864	-4781.48	74.4849	-0.321076
0.3400	22.2723	59.4038	59.1482	36.1587	66.6548	41.5142	33.8842	-4828.75	72.6485	0
0.3407	21.9666	58.1942	57.9491	35.5542	65.4318	40.6054	32.9658	-4839.18	70.8122	-0.321076
0.3413	21.3552	56.6576	56.7199	34.9498	64.2087	39.6811	32.6596	-4917.04	69.3029	0
0.3420	20.7438	55.1537	55.191	34.0254	62.3742	38.4642	31.7412	-5023.17	67.4665	0
0.3427	20.1324	54.2383	53.6621	33.101	60.86	37.2472	30.8228	-5098.02	65.9321	0
0.3433	19.521	52.7017	52.1332	31.8921	59.3166	36.323	30.2106	-5124.67	64.3976	0
0.3440	19.2153	51.1651	50.934	31.2877	58.0936	35.4142	29.2922	-5165.92	62.5864	0
0.3447	18.6039	50.2497	50.0047	30.6833	56.8997	34.798	28.696	-5229.64	61.0519	0
0.3453	18.2982	49.04	48.7755	29.7589	55.6767	33.8891	28.0837	-5262.78	59.8193	0
0.3460	17.9925	48.1246	47.5764	29.1545	54.1334	32.9649	27.4715	-5294.99	58.31	-0.321076
0.3467	17.3811	46.915	46.0475	28.2301	52.9103	32.056	26.8592	-5318.62	56.7755	-0.321076
0.3473	16.7697	45.3784	44.8183	27.3056	51.3961	31.1472	26.2469	-5384.2	55.5681	0
0.3480	16.7697	44.463	43.889	27.0212	50.4643	30.531	25.9408	-5537.14	54.3355	0
0.3487	16.1583	43.5476	42.9896	26.4168	49.2413	29.9149	25.0224	-5584.42	53.128	0
0.3493	15.8526	42.6321	42.0603	25.7768	48.0474	29.3141	24.4101	-5514.44	51.8954	0
0.3500	15.5469	41.7167	41.1609	25.1724	47.4358	28.6979	23.814	-5490.33	50.6628	0
0.3507	14.9792	40.5071	39.9318	24.248	45.8925	27.481	23.2017	-5478.52	49.4553	0.321076
0.3513	14.6735	39.5917	39.0324	23.9636	44.6695	26.8648	22.8956	-5440.28	48.2227	0
0.3520	14.3678	38.9705	37.5035	23.0391	43.7668	26.2641	22.2833	-5425.91	46.7134	-0.321076
0.3527	13.7564	37.7608	36.2744	22.4347	42.5437	25.3398	21.671	-5450.71	45.7827	-0.321076
0.3533	13.7564	36.8454	35.6748	22.1147	41.9322	25.0318	21.3649	-5507.48	44.8771	0
0.3540	13.4507	35.93	35.0452	21.5103	40.7092	24.431	21.0588	-5565.65	43.6445	0
0.3547	12.8393	35.0146	34.1459	20.9059	39.8065	23.8148	20.1404	-5603.19	42.437	0
0.3553	12.8393	34.0992	33.2165	20.5859	38.8747	23.1987	20.1404	-5669.92	41.5314	0.321076
0.3560	12.2279	33.1838	32.617	19.9815	37.972	22.5979	19.5281	-5776.98	40.6007	0.321076
0.3567	11.9222	32.5626	31.6876	19.3771	37.0401	21.6736	18.9158	-5884.97	39.3932	0
0.3573	11.6165	31.9414	30.7883	19.0926	36.1374	21.381	18.6258	-5954.95	38.4625	0
0.3580	11.6165	31.026	30.1587	18.4526	35.2056	21.0729	18.3197	-5947.53	37.8587	0
0.3587	11.3108	30.4048	29.5591	18.1682	34.3029	20.4567	17.7074	-5925.75	36.6261	0
0.3593	11.0051	29.8163	28.6298	17.5638	33.4002	19.856	17.4013	-5921.35	35.4187	0
0.3600	10.6994	28.9009	28.0302	17.2438	32.7887	19.2398	16.789	-5953.56	34.8149	0
0.3607	10.088	27.9855	27.1308	16.3194	31.8568	18.6236	16.4829	-6071.05	34.1861	0.321076
0.3613	9.47664	27.0701	26.2015	15.715	30.9541	17.7148	15.5645	-6125.97	32.6767	-0.963229
0.3620	9.78234	26.7432	25.9017	15.715	30.6338	18.0229	15.2583	-6076.61	31.746	-1.28431
0.3627	10.088	26.4489	25.6019	15.715	30.0223	17.7148	15.5645	-6087.96	31.746	0
0.3633	9.47664	25.8278	24.9724	15.4305	29.1196	17.0986	14.9522	-6149.83	30.8404	0
0.3640	9.17095	25.2393	24.3728	14.7906	28.5081	16.7905	14.6461	-6173.93	30.2367	-0.321076
0.3647	9.17095	24.6181	23.7732	14.5061	27.8966	16.1898	14.6461	-6163.97	29.6078	0
0.3653	8.86525	23.9969	22.8439	13.9017	26.9648	15.5736	14.0338	-6125.04	29.0041	0
0.3660	8.55955	23.4084	22.2443	13.5817	26.3532	15.2655	13.7277	-6118.32	28.0985	0
0.3667	8.25385	22.7873	21.6147	13.5817	25.7709	15.2655	13.4377	-6148.44	27.4696	0
0.3673	7.94815	22.1661	21.0152	12.9773	25.1593	14.6648	13.4377	-6138.94	26.8659	0.321076
0.3680	7.64246	21.5776	20.4156	12.3729	24.5478	14.0486	13.1315	-6127.36	26.2621	0
0.3687	7.64246	21.2507	20.0858	12.0529	24.2275	13.7405	12.5193	-6141.72	25.3565	0
0.3693	7.64246	20.9564	19.786	12.3729	23.9363	13.7405	12.2131	-6119.94	24.7277	0
0.3700	7.33676	20.3353	19.1864	11.7684	23.0045	13.4478	12.2131	-6087.04	24.4258	0
0.3707	7.03106	19.4199	18.2571	11.1285	22.1018	12.8317	11.6009	-6132.69	23.8221	0
0.3713	7.03106	19.1256	17.9573	11.1285	21.7815	12.5236	11.2947	-6189.92	23.2183	0
0.3720	7.03106	18.8314	17.6575	10.844	21.4903	12.2155	10.9886	-6162.35	22.5895	0
0.3727	6.72536	18.2102	17.3577	10.5241	20.8788	11.9074	10.9886	-6095.84	22.2876	0
0.3733	6.41966	17.916	17.058	10.5241	20.2672	11.6147	10.6825	-6056.45	21.382	-0.321076
0.3740	6.41966	17.589	16.7282	10.2396	19.9469	11.6147	10.3763	-6055.75	20.7783	-0.321076
0.3747	6.11396	16.6736	15.8288	9.59964	19.0442	10.9986	10.0702	-6000.6	20.4513	-0.321076
0.3753	5.80827	16.3794	15.529	9.31521	18.7239	10.6905	9.76405	-5952.63	20.1494	0
0.3760	6.11396	16.3794	15.529	9.59964	18.7239	10.6905	9.76405	-6084.95	19.5457	0
0.3767	6.11396	16.0851	15.1993	9.31521	18.1415	10.3824	9.76405	-6182.28	18.9419	0
0.3773	5.50257	15.464	14.5997	8.71079	17.53	10.0897	9.15178	-6047.64	18.6401	0
0.3780	5.50257	15.1697	14.0001	8.71079	17.2097	9.78164	9.15178	-5827.04	18.0112	0
0.3787	5.50257	15.1697	13.7003	8.71079	16.9185	9.78164	9.15178	-5677.11	17.7093	0
0.3793	5.50257	14.5485	13.7003	8.3908	16.307	9.47355	8.84565	-5693.33	17.4075	0
0.3800	5.19687	14.2543	13.3706	8.10636	15.9867	9.16547	8.2495	-5871.3	16.8037	-0.321076
0.3807	4.89117	13.9274	12.771	7.78638	15.6955	8.85739	7.94336	-6184.36	16.2	0
0.3813	4.89117	13.3389	12.4712	7.78638	15.3752	8.56471	7.94336	-6507.16	15.873	0
0.3820	4.89117	13.3389	12.4712	7.78638	15.084	8.56471	7.63723	-6546.32	15.2693	-0.321076
0.3827	4.58547	13.012	11.8716	7.18195	14.4724	8.25663	7.63723	-6344.02	15.2693	0
0.3833	4.27977	12.4235	11.5418	6.86197	14.1521	7.94854	7.63723	-6210.55	14.9674	0
0.3840	4.58547	12.4235	11.5418	7.18195	14.1521	7.94854	7.3311	-6200.58	14.6655	0
0.3847	4.27977	12.0965	10.9423	6.57753	13.5406	7.33238	6.71883	-6159.1	14.0618	-0.321076
0.3853	3.97408	11.5081	10.3427	6.25754	13.2494	7.33238	6.10656	-6082.4	12.8292	-1.60538
0.3860	4.27977	11.5081	10.6425	6.57753	13.2494	7.64046	6.41269	-6048.57	13.1311	-1.28431
0.3867	4.27977	11.5081	10.6425	6.57753	12.9291	7.33238	6.71883	-5993.42	13.4329	0
0.3873	3.66838	10.5926	9.71314	5.93756	12.0264	6.73162	6.10656	-5970.01	12.5273	-0.642153
0.3880	3.66838	10.5926	9.41335	5.65312	12.0264	6.42353	5.80043	-6004.08	11.9236	-1.28431
0.3887	3.97408	10.5926	9.71314	5.93756	12.0264	6.73162	6.10656	-6001.53	12.2255	-0.321076
0.3893	3.66838	10.2657	9.41335	5.93756	11.4149	6.42353	6.10656	-6051.81	12.2255	0
0.3900	3.66838	9.97148	9.11356	5.65312	11.0946	6.42353	5.80043	-6055.52	11.6218	0
0.3907	3.66838	9.67724	9.11356	5.33313	11.0946	6.11545	5.80043	-5917.64	11.3199	-0.321076
0.3913	3.36268	9.3503	8.51399	5.33313	10.5122	5.80737	5.80043	-5814.52	11.6218	0
0.3920	3.05698	8.76182	7.88443	5.0487	10.1919	5.49928	5.49429	-5769.57	10.9929	0
0.3927	3.05698	8.76182	7.88443	4.72871	10.1919	5.49928	4.88203	-5888.21	10.0873	-0.963229
0.3933	3.36268	8.76182	7.88443	5.0487	10.1919	5.49928	4.57589	-6186.21	9.78541	-1.60538
0.3940	3.05698	8.76182	7.88443	5.0487	9.90067	5.2066	4.57589	-6345.88	9.78541	-1.60538
0.3947	3.05698	8.43489	7.88443	4.72871	9.58035	5.49928	4.88203	-6304.16	9.48355	-0.642153
0.3953	3.36268	8.43489	7.58464	4.72871	9.58035	5.49928	4.88203	-6241.13	9.78541	0.321076
0.3960	2.75128	7.84641	6.98507	4.44428	8.96884	4.89852	4.88203	-6174.63	9.48355	0
0.3967	2.75128	7.84641	6.98507	4.44428	8.96884	4.59044	4.57589	-6140.8	9.18169	-0.321076
0.3973	3.05698	7.84641	6.98507	4.44428	8.67764	4.59044	4.57589	-6254.81	8.85467	0
0.3980	2.75128	7.51947	6.6553	4.12429	8.35733	4.59044	4.26976	-6328.5	8.85467	0
0.3987	2.44559	6.93099	6.35551	3.8043	8.06613	4.59044	3.96363	-6187.6	8.5528	-0.321076
0.3993	2.75128	7.22523	6.6553	4.12429	8.35733	4.59044	4.26976	-6134.08	8.25094	0
0.4000	2.44559	6.93099	6.35551	3.8043	8.06613	4.28235	4.26976	-6244.38	8.25094	0
0.4007	2.13989	6.93099	5.75593	3.51987	7.45462	3.97427	3.65749	-6299.3	7.94908	-0.321076
0.4013	2.44559	6.60406	6.05572	3.8043	7.45462	4.28235	3.96363	-6334.52	7.94908	0
0.4020	2.44559	6.60406	6.05572	3.8043	7.45462	4.28235	3.96363	-6214.02	7.94908	0
0.4027	2.44559	6.30982	5.75593	3.51987	7.1343	3.97427	3.65749	-5917.87	7.64721	0
0.4033	2.44559	6.01558	5.45615	3.19988	7.1343	3.97427	3.65749	-5793.67	7.34535	0
0.4040	2.44559	6.01558	5.45615	3.19988	7.1343	3.97427	3.96363	-5935.25	7.34535	0
0.4047	2.13989	6.01558	5.15636	2.91545	6.52279	3.37351	3.65749	-6147.05	6.74162	-0.321076
0.4053	1.83419	5.68865	4.82659	2.91545	6.2316	3.06543	3.06134	-6115.77	6.11274	-0.642153
0.4060	1.83419	5.3944	5.15636	3.19988	6.2316	3.37351	3.06134	-5958.19	6.11274	-0.321076
0.4067	1.83419	5.3944	4.82659	2.91545	5.91128	3.37351	3.35136	-6029.57	6.4146	0
0.4073	1.83419	5.10016	4.5268	2.59546	6.2316	3.06543	3.35136	-6151.46	6.4146	0
0.4080	1.83419	5.3944	4.82659	2.91545	6.2316	3.06543	3.06134	-6205.91	5.81088	0
0.4087	1.83419	5.10016	4.82659	2.91545	5.91128	3.06543	2.7552	-6439.26	5.50901	-0.321076
0.4093	1.83419	4.77323	4.5268	2.91545	5.62008	3.06543	2.7552	-6637.62	5.50901	0
0.4100	1.83419	4.77323	4.22701	2.59546	5.29977	2.75734	3.06134	-6475.41	5.50901	0
0.4107	1.52849	4.77323	4.22701	2.59546	5.29977	2.44926	2.7552	-6278.91	5.50901	-0.321076
0.4113	1.52849	4.47899	3.92723	2.27547	5.29977	2.44926	2.7552	-6266.86	5.50901	-0.321076
0.4120	1.52849	4.77323	3.92723	2.27547	5.29977	2.75734	2.7552	-6227.69	5.50901	0
0.4127	1.52849	4.47899	3.92723	2.59546	5.00857	2.44926	2.7552	-6058.53	5.20715	0
0.4133	1.22279	3.85782	3.29767	1.99104	4.68826	2.15658	2.7552	-5861.56	5.20715	0
0.4140	1.22279	4.18475	3.62744	2.27547	4.68826	2.44926	2.7552	-5783.93	4.90528	0.321076
0.4147	1.22279	4.18475	3.62744	1.99104	4.39706	2.44926	2.44907	-5900.73	4.2764	-0.642153
0.4153	0.917095	3.85782	3.29767	1.99104	4.39706	2.15658	2.14294	-6042.08	3.97454	-0.963229
0.4160	1.52849	4.18475	3.29767	2.27547	4.68826	2.44926	2.44907	-6011.26	4.60342	0
0.4167	1.52849	4.18475	3.29767	1.99104	4.68826	2.44926	2.44907	-5870.6	4.2764	0
0.4173	1.22279	3.85782	3.29767	1.99104	4.07675	2.15658	2.14294	-5655.79	3.97454	-0.321076
0.4180	1.22279	3.85782	2.99788	1.67105	4.07675	1.8485	2.14294	-5345.74	4.2764	0
0.4187	1.22279	3.56358	2.99788	1.67105	4.07675	2.15658	2.14294	-5222.69	3.97454	0
0.4193	1.22279	3.26934	2.99788	1.67105	4.07675	2.15658	2.14294	-5469.94	3.97454	-0.321076
0.4200	0.917095	3.26934	2.69809	1.67105	3.46523	1.8485	2.14294	-5526.02	3.67267	-0.321076
0.4207	0.611396	2.9424	2.39831	1.38662	3.46523	1.54042	1.53067	-5040.55	3.06895	-1.28431
0.4213	0.917095	3.26934	2.69809	1.67105	3.46523	1.8485	1.22453	-4538.16	3.06895	-1.60538
0.4220	1.22279	3.56358	2.99788	1.67105	3.78555	2.15658	1.53067	-4498.77	3.37081	-0.963229
0.4227	0.917095	2.9424	2.69809	1.67105	3.46523	1.8485	1.8368	-4863.74	3.37081	0
0.4233	0.917095	2.9424	2.39831	1.67105	3.46523	1.54042	1.8368	-5230.57	3.37081	0
0.4240	0.917095	2.9424	2.39831	1.67105	3.46523	1.8485	1.8368	-5345.5	3.37081	0
0.4247	0.917095	2.9424	2.39831	1.38662	3.17404	1.54042	1.8368	-5299.85	3.37081	0
0.4253	0.917095	2.9424	2.09852	1.38662	3.17404	1.54042	1.53067	-5218.05	3.06895	0
0.4260	0.917095	2.64816	2.09852	1.06663	2.88284	1.54042	1.53067	-5064.88	3.06895	0
0.4267	0.917095	2.35392	2.39831	1.38662	2.88284	1.54042	1.8368	-4819.95	3.37081	0.321076
0.4273	0.917095	2.64816	2.39831	1.38662	3.17404	1.54042	1.53067	-4712.89	3.06895	0
0.4280	0.917095	2.64816	2.09852	1.38662	2.88284	1.54042	1.22453	-4841.26	2.76708	-0.321076
0.4287	0.917095	2.64816	1.79873	1.06663	2.88284	1.23233	1.22453	-4944.38	2.76708	-0.321076
0.4293	0.611396	2.35392	1.79873	1.06663	2.56253	1.23233	1.53067	-4954.12	2.76708	-0.321076
0.4300	0.611396	2.35392	1.79873	1.06663	2.56253	1.23233	1.53067	-4934.42	2.76708	0
0.4307	0.917095	2.35392	2.09852	1.06663	2.56253	1.54042	1.22453	-4780.32	2.46522	0
0.4313	0.917095	2.35392	2.09852	1.06663	2.27133	1.23233	1.22453	-4598.65	2.46522	0
0.4320	0.611396	2.02699	1.79873	1.06663	2.27133	0.924249	1.22453	-4715.2	2.46522	0
0.4327	0.611396	2.02699	1.79873	1.06663	2.56253	1.23233	1.22453	-5007.18	2.46522	0
0.4333	0.917095	2.02699	1.46896	0.782193	2.27133	0.924249	1.22453	-5060.94	2.46522	-0.321076
0.4340	0.611396	1.73275	1.46896	0.782193	2.27133	0.924249	0.918401	-5089.91	1.83634	-0.321076
0.4347	0.611396	1.73275	1.46896	0.782193	2.27133	1.23233	0.918401	-5238.91	1.83634	-0.321076
0.4353	0.611396	2.02699	1.46896	0.782193	2.27133	1.23233	1.22453	-5077.4	2.16336	0
0.4360	0.611396	2.02699	1.46896	0.782193	1.95101	1.23233	1.22453	-4662.83	2.46522	0.321076
0.4367	0.611396	2.02699	1.46896	1.06663	1.95101	1.23233	1.22453	-4443.62	2.46522	0
0.4373	0.611396	1.73275	1.46896	1.06663	1.95101	0.924249	1.22453	-4588.68	2.16336	0
0.4380	0.611396	1.73275	1.16917	0.782193	1.95101	0.924249	0.918401	-4881.35	2.16336	0
0.4387	0.611396	1.73275	1.16917	0.782193	1.95101	0.924249	0.918401	-4968.25	2.16336	-0.321076
0.4393	0.611396	1.73275	1.46896	0.782193	1.95101	0.924249	1.22453	-4947.86	1.83634	-0.321076
0.4400	0.611396	1.43851	1.16917	0.782193	1.95101	0.924249	0.918401	-5017.38	1.83634	0
0.4407	0.611396	1.43851	1.16917	0.782193	1.65982	0.616166	1.22453	-4974.97	1.83634	0.321076
0.4413	0.305698	1.43851	1.16917	0.462205	1.3395	0.616166	1.22453	-4766.42	1.83634	0
0.4420	0.305698	1.43851	1.16917	0.782193	1.65982	0.616166	0.918401	-4657.5	1.53447	-0.321076
0.4427	0.611396	1.43851	1.16917	0.782193	1.95101	0.924249	1.22453	-4804.88	1.83634	0
0.4433	0.611396	1.43851	1.16917	0.462205	1.65982	0.924249	1.22453	-5243.78	1.83634	0
0.4440	0.305698	1.11157	1.16917	0.462205	1.3395	0.616166	0.918401	-5653.94	1.53447	0
0.4447	0.305698	1.43851	0.869386	0.462205	1.3395	0.616166	0.918401	-5670.39	1.53447	0
0.4453	0	1.11157	0.869386	0.142217	1.3395	0.323487	0.306134	-5489.87	0.930746	-0.963229
0.4460	0	0.817334	0.569598	0.462205	1.3395	0.323487	0	-5430.55	0.628883	-1.60538
0.4467	0.305698	1.11157	0.869386	0.462205	1.3395	0.616166	0.612267	-5469.94	1.23261	-0.642153
0.4473	0.305698	1.43851	0.869386	0.142217	1.3395	0.616166	0.918401	-5246.56	1.53447	0.321076
0.4480	0.305698	1.43851	0.869386	0.142217	1.3395	0.323487	0.612267	-4931.64	1.23261	0
0.4487	0.305698	1.11157	0.869386	0.142217	1.04831	0.323487	0.612267	-4967.56	1.53447	0
0.4493	0.305698	0.817334	0.869386	0.142217	1.04831	0.323487	0.612267	-4913.8	1.23261	0.321076
0.4500	0.305698	0.817334	0.569598	0.142217	1.04831	0.616166	0.306134	-4623.44	0.930746	0
0.4507	0.305698	0.817334	0.569598	0.142217	1.04831	0.323487	0.306134	-4594.01	0.930746	-0.321076
0.4513	0	1.11157	0.569598	0.142217	0.72799	0.323487	0.612267	-4830.37	1.23261	0
0.4520	0	1.11157	0.569598	0.142217	1.04831	0.616166	0.612267	-5017.38	1.53447	0
0.4527	0.305698	0.817334	0.569598	0.142217	0.72799	0.616166	0.612267	-4993.28	1.23261	0
0.4533	0.305698	0.817334	0.869386	0.462205	1.04831	0.616166	0.612267	-4698.75	1.23261	0
0.4540	0.611396	1.11157	0.869386	0.782193	1.3395	0.924249	0.612267	-4549.75	1.23261	-0.321076
0.4547	0.611396	1.11157	0.869386	0.462205	1.04831	0.616166	0.612267	-4926.08	1.23261	0
0.4553	0.305698	1.11157	0.569598	0.462205	1.04831	0.616166	0.612267	-5367.98	0.930746	0
0.4560	0	1.11157	0.569598	0.462205	0.72799	0.616166	0.306134	-5659.03	0.628883	-0.321076
0.4567	0	0.523094	0.569598	0.462205	0.72799	0.323487	0.612267	-5864.81	0.930746	0
0.4573	0	0.523094	0.269809	0.142217	0.72799	0.0154042	0.612267	-5819.39	1.23261	0
0.4580	0.305698	0.817334	0.569598	0.462205	1.04831	0.323487	0.306134	-5664.36	0.930746	0
0.4587	0.305698	1.11157	0.869386	0.462205	1.04831	0.616166	0.306134	-5635.63	0.628883	0
0.4593	0.611396	1.11157	0.869386	0.782193	1.04831	0.616166	0.612267	-5676.64	0.930746	0
0.4600	0.305698	0.817334	0.569598	0.462205	0.72799	0.616166	0.612267	-5590.67	0.930746	0
0.4607	0.305698	0.817334	0.569598	0.142217	0.72799	0.323487	0.306134	-5446.77	0.628883	-0.321076
0.4613	0.611396	0.817334	0.569598	0.462205	0.72799	0.616166	0.306134	-5635.63	0.628883	-0.321076
0.4620	0.305698	0.817334	0.569598	0.462205	1.04831	0.616166	0.306134	-6044.17	0.628883	0
0.4627	0	0.523094	0.269809	0.142217	0.72799	0.616166	0.306134	-6308.57	0.628883	-0.321076
0.4633	0	0.523094	0.269809	0.142217	0.436794	0.323487	0.306134	-6362.79	0.628883	-0.321076
0.4640	0.305698	0.817334	0.569598	0.142217	0.72799	0.616166	0	-6259.44	0.628883	-0.321076
0.4647	0.305698	0.523094	0.269809	-0.142217	0.436794	0.0154042	0.306134	-6165.82	0.628883	0
0.4653	0	0.19616	0.269809	-0.142217	0.436794	0.0154042	0.612267	-6117.85	0.930746	0
0.4660	0	0.523094	0.569598	0.142217	0.436794	0.323487	0.306134	-6109.51	0.628883	-0.321076
0.4667	0	0.523094	0.569598	0.142217	0.436794	0.323487	0	-6256.66	0.327019	-0.642153
0.4673	0	0.523094	0.269809	0.142217	0.436794	0.323487	0.306134	-6539.83	0.628883	0
0.4680	0	0.523094	0.269809	0.142217	0.436794	0.0154042	0.306134	-6680.26	0.628883	0
0.4687	0	0.523094	0.269809	0.142217	0.436794	0.323487	0.612267	-6486.77	0.628883	0
0.4693	0	0.523094	0.269809	0.142217	0.436794	0.323487	0.612267	-6189.92	0.628883	0.321076
0.4700	0.305698	0.523094	0.269809	0.142217	0.436794	0.323487	0.306134	-6152.38	0.628883	-0.321076
0.4707	0	0.19616	0.269809	-0.142217	0.116478	0.323487	0	-6261.53	0.327019	-0.321076
0.4713	0	0.523094	0.269809	-0.142217	0.436794	0.323487	0.306134	-6230.47	0.327019	-0.321076
0.4720	0	0.19616	-0.0299788	-0.142217	0.116478	0.0154042	0.612267	-6230.71	0.628883	0
0.4727	-0.305698	0.19616	-0.0299788	-0.142217	0.116478	0.0154042	0.612267	-6288.18	0.628883	0.321076
0.4733	0	0.19616	0.269809	-0.142217	0.436794	0.0154042	0.306134	-6167.44	0.628883	-0.321076
0.4740	0	0.523094	0.269809	0.142217	0.116478	0.323487	0.306134	-6029.1	0.628883	-0.321076
0.4747	0	0.19616	-0.0299788	-0.142217	0.116478	0.0154042	0.306134	-6020.99	0.327019	-0.321076
0.4753	-0.611396	-0.39232	-0.359746	-0.462205	-0.174718	-0.292679	-0.306134	-6260.83	-0.301864	-1.28431
0.4760	-0.611396	0.19616	-0.0299788	-0.142217	0.116478	0.0154042	-0.306134	-6565.09	0.0251553	-1.28431
0.4767	0.305698	0.817334	0.269809	0.462205	0.72799	0.323487	0.306134	-6593.82	0.628883	-0.321076
0.4773	0.305698	0.523094	0.269809	-0.142217	0.116478	0.323487	0.306134	-6516.66	0.628883	0
0.4780	0	-0.0980801	-0.0299788	-0.462205	-0.174718	0.0154042	0	-6376	0.628883	0
0.4787	0	0.19616	-0.0299788	-0.142217	-0.174718	-0.292679	0	-6227.46	0.327019	-0.321076
0.4793	0	0.19616	0.269809	0.142217	0.116478	0.0154042	0	-6201.97	0.327019	0
0.4800	0.305698	0.817334	0.569598	0.142217	0.436794	0.323487	0	-6088.43	0.327019	0
0.4807	0	0.523094	0.269809	0.142217	0.436794	0.323487	0	-5792.51	0.327019	-0.321076
0.4813	0	0.19616	-0.0299788	-0.142217	0.116478	0.0154042	0	-5674.1	0.327019	-0.321076
0.4820	0	0.19616	-0.0299788	0.142217	0.116478	0.0154042	0	-5937.57	0.327019	0
0.4827	0	0.19616	0.269809	-0.142217	0.436794	0.0154042	0.306134	-6148.44	0.327019	0
0.4833	-0.305698	0.19616	-0.0299788	-0.142217	0.116478	0.0154042	0.306134	-6064.33	0.327019	0
0.4840	-0.305698	-0.0980801	-0.0299788	-0.142217	0.116478	0.0154042	0.306134	-6006.39	0.327019	0
0.4847	-0.305698	-0.0980801	-0.0299788	-0.142217	0.116478	0.0154042	0.306134	-5987.16	0.327019	0
0.4853	-0.305698	0.19616	-0.0299788	-0.142217	-0.174718	-0.292679	0	-6012.88	0.0251553	-0.321076
0.4860	-0.305698	0.19616	-0.0299788	-0.142217	0.116478	0.0154042	0	-6218.42	0.327019	-0.321076
0.4867	0	0.19616	0.269809	-0.142217	0.116478	0.0154042	0.306134	-6285.63	0.628883	0
0.4873	0	0.19616	0.269809	-0.142217	0.116478	0.0154042	0	-6153.54	0.327019	0
0.4880	0	0.19616	0.269809	-0.142217	0.436794	0.0154042	0.306134	-6108.12	0.327019	0
0.4887	0	0.19616	0.269809	-0.142217	0.116478	0.0154042	0.306134	-6087.27	0.327019	0
0.4893	0.305698	0.523094	0.269809	0.142217	0.436794	0.323487	0	-5909.99	0.327019	0
0.4900	0	0.19616	-0.0299788	-0.142217	0.116478	0.0154042	0.306134	-5777.91	0.327019	0
0.4907	0	-0.0980801	-0.0299788	-0.142217	-0.174718	0.0154042	0.306134	-5718.36	0.327019	0
0.4913	0	0.19616	-0.0299788	-0.142217	-0.174718	0.0154042	-0.306134	-5681.74	0.0251553	-0.642153
0.4920	-0.305698	-0.0980801	-0.359746	-0.462205	-0.495033	-0.292679	0	-5917.41	0.0251553	-0.321076
0.4927	-0.611396	-0.0980801	-0.359746	-0.462205	-0.174718	-0.292679	0	-6343.33	0.327019	0
0.4933	-0.305698	0.19616	-0.0299788	-0.142217	0.116478	0.0154042	0.306134	-6625.11	0.327019	0
0.4940	0	0.19616	-0.0299788	-0.142217	0.116478	0.0154042	0.306134	-6637.62	0.327019	0
0.4947	0	0.19616	0.269809	0.142217	0.116478	0.0154042	0.306134	-6559.99	0.628883	0
0.4953	0.305698	0.19616	-0.0299788	-0.142217	0.116478	0.0154042	0	-6470.31	0.327019	0
0.4960	0	0.19616	-0.0299788	-0.142217	0.116478	0.0154042	0	-6209.16	0.327019	0
0.4967	0	0.19616	0.269809	-0.142217	0.116478	0.323487	0.306134	-5848.12	0.327019	0.321076
0.4973	0	0.19616	-0.0299788	0.142217	0.116478	0.0154042	0.306134	-5703.29	0.327019	0
0.4980	-0.305698	-0.0980801	-0.359746	-0.142217	-0.174718	-0.292679	0	-5843.49	0.0251553	0
0.4987	-0.305698	-0.0980801	-0.359746	-0.462205	-0.174718	-0.292679	0	-6093.06	0.0251553	0
0.4993	-0.305698	-0.0980801	-0.0299788	-0.462205	-0.174718	0.0154042	0	-6374.38	0.0251553	0
0.5000	-0.305698	-0.0980801	-0.0299788	-0.462205	-0.174718	-0.292679	0	-6485.84	0.0251553	0
0.5007	0	-0.0980801	-0.359746	-0.462205	-0.174718	-0.292679	0.306134	-6216.11	0.327019	0
0.5013	0	-0.0980801	-0.0299788	-0.142217	-0.174718	0.0154042	0.306134	-5814.06	0.327019	0
0.5020	0	-0.0980801	-0.0299788	-0.142217	-0.174718	-0.292679	0	-5708.16	0.327019	0
0.5027	0	-0.0980801	-0.359746	-0.142217	-0.495033	-0.292679	0	-6065.02	0.0251553	-0.321076
0.5033	-0.305698	-0.0980801	-0.359746	-0.142217	-0.174718	-0.292679	0	-6523.61	0.0251553	-0.321076
0.5040	-0.305698	-0.0980801	-0.0299788	-0.142217	-0.174718	-0.292679	0	-6607.26	0.0251553	0
0.5047	-0.611396	-0.39232	-0.359746	-0.462205	-0.174718	-0.292679	-0.306134	-6483.99	0.0251553	-0.642153
0.5053	-0.611396	-0.39232	-0.359746	-0.746639	-0.174718	-0.292679	-0.918401	-6364.41	-0.603727	-1.28431
0.5060	-0.305698	-0.0980801	-0.359746	-0.462205	-0.174718	0.0154042	-0.612267	-6156.79	-0.301864	-0.963229
0.5067	-0.305698	0.19616	-0.0299788	-0.142217	-0.174718	0.323487	0	-5932.94	0.327019	0
0.5073	0	0.19616	-0.0299788	-0.142217	-0.174718	0.0154042	0	-5775.36	0.327019	0.321076
0.5080	0	0.19616	-0.0299788	-0.142217	-0.174718	-0.292679	0.306134	-5647.91	0.0251553	0
0.5087	0	-0.39232	-0.0299788	-0.142217	-0.174718	-0.292679	0	-5326.5	0.327019	0
0.5093	0	0.19616	-0.359746	-1.06663	-0.174718	-0.908845	-0.306134	-4825.74	-0.905591	0
0.5100	-0.305698	2.9424	-0.959322	1.06663	-0.174718	3.06543	1.22453	-4619.04	2.76708	0
0.5107	1.52849	-8.95798	5.45615	1.06663	-1.39774	-3.65078	-1.53067	-4794.92	-0.905591	0
0.5113	-2.44559	10.5926	-7.67458	-8.3908	4.68826	-3.65078	-1.82069	-4947.16	-8.82951	0
0.5120	-0.611396	9.3503	-3.38761	16.035	-6.28983	23.1987	9.76405	-4975.44	27.7966	0
0.5127	8.86525	-120.933	38.4029	-22.4347	-5.96952	-94.8896	-36.3171	-5032.67	-64.3724	0.321076
0.5133	-45.7674	-33.3472	-161.496	-205.219	38.8747	-300.889	-123.291	-4971.96	-320.101	0
0.5140	-122.978	223.59	-393.712	-292.825	-151.859	-326.522	-139.774	-4811.37	-399.164	-0.321076
0.5147	-132.76	150.357	-198.4	-252.222	-483.269	-277.09	-121.454	-4686.47	-341.483	0
0.5153	-131.538	-89.2202	6.35551	-239.422	-523.25	-265.183	-115.654	-4204.01	-329.585	0
0.5160	-126.341	-220.124	-103.487	-234.231	-454.586	-245.958	-109.854	-3501.64	-316.454	-0.321076
0.5167	-93.369	-264.98	-242.649	-219.867	-450.626	-228.875	-104.069	-3088.24	-296.908	-0.321076
0.5173	-76.9049	-287.277	-297.9	-211.619	-430.475	-220.018	-99.7835	-2641.01	-283.802	0
0.5180	-98.5658	-310.162	-381.51	-202.161	-407.587	-210.867	-97.6566	-2025.3	-270.369	0
0.5187	-142.805	-362.962	-402.885	-189.966	-385.631	-198.96	-90.9378	-1575.29	-255.427	-0.321076
0.5193	-183.113	-580.83	-268.28	-178.98	-363.354	-188.593	-81.786	-1303.01	-241.39	0
0.5200	-180.056	-729.16	-140.421	-171.051	-344.106	-181.569	-76.2917	-1093.06	-229.794	0
0.5207	-135.512	-385.847	-109.902	-163.727	-325.208	-174.853	-75.0672	-935.95	-218.801	-0.321076
0.5213	-106.82	31.026	-126.391	-154.874	-307.183	-167.228	-73.8427	-740.835	-206.601	0
0.5220	-113.196	117.696	-87.3283	-145.417	-291.313	-158.678	-70.1852	-505.863	-194.375	0.321076
0.5227	-116.253	-23.6046	66.1932	-135.355	-274.54	-149.528	-65.3031	-356.398	-182.778	0
0.5233	-110.488	-356.848	77.7651	-126.786	-256.544	-141.595	-61.0334	-191.871	-172.414	-0.321076
0.5240	-116.864	-624.182	-213.059	-120.991	-239.742	-136.096	-58.2782	246.327	-164.164	0
0.5247	-120.532	-605.579	-442.547	-115.196	-227.832	-131.521	-56.7636	842.564	-157.145	0
0.5253	-96.7316	-299.177	-362.894	-108.192	-219.591	-124.496	-56.1514	1078	-148.291	0
0.5260	-68.0397	-189	-139.521	-101.152	-211.059	-113.821	-55.233	883.811	-138.228	-0.321076
0.5267	-14.9355	-510.343	84.7801	-94.1476	-200.984	-102.53	-53.1061	805.487	-128.468	0
0.5273	76.9049	-700.488	293.223	-88.0323	-190.908	-91.8396	-49.7387	1127.36	-119.312	0.321076
0.5280	100.4	-615.649	390.894	-83.7658	-179.93	-86.0476	-47.6118	1099.78	-112.293	0
0.5287	51.27	-158.17	349.673	-79.1793	-166.186	-82.9976	-45.775	485.239	-105.577	0
0.5293	14.6735	607.802	287.737	-73.7039	-150.636	-79.3314	-42.4237	418.501	-97.3259	0
0.5300	-19.2153	998.75	216.027	-67.5886	-136.28	-73.8321	-38.7501	1111.14	-88.7982	0
0.5307	-21.0495	723.471	170.849	-62.1132	-124.69	-69.5652	-35.3987	1804.24	-81.7799	0
0.5313	28.3863	75.5871	117.757	-57.5267	-112.169	-65.2982	-32.9496	2357.14	-76.2709	0
0.5320	42.7104	-247.914	17.6575	-52.6558	-97.8419	-60.107	-32.3535	2633.13	-70.1833	0
0.5327	11.3108	-150.553	97.3113	-47.1449	-85.6408	-52.79	-31.7412	2433.61	-63.165	0
0.5333	-17.6868	-21.7738	104.027	-41.0296	-78.0114	-44.2407	-28.6799	2067.94	-55.5178	0
0.5340	-21.6609	179.029	-143.179	-35.8387	-73.1193	-38.1407	-27.1653	1740.51	-49.4302	0.321076
0.5347	17.3811	194.002	-193.214	-33.421	-67.936	-35.0753	-27.1653	1559.76	-44.8519	0
0.5353	52.187	-202.437	-19.876	-31.5722	-60.3067	-31.7326	-25.9408	1582.01	-41.783	-0.963229
0.5360	30.8318	-421.548	93.3241	-28.2301	-52.0659	-25.9252	-22.2833	1464.99	-37.8336	-1.28431
0.5367	2.75128	-216.463	40.2316	-23.6436	-47.4941	-17.9921	-17.0951	1150.53	-30.8153	0
0.5373	22.8837	-33.3472	-66.8828	-19.9815	-45.048	-13.1089	-13.7277	1048.57	-24.7025	0
0.5380	46.9902	-89.8087	-110.532	-18.4526	-41.9905	-11.5839	-13.4215	1086.57	-21.9606	-0.321076
0.5387	28.9977	-314.118	-206.944	-14.1861	-38.6417	-9.75083	-12.5031	1004.77	-17.6842	-0.321076
0.5393	6.11396	-445.055	-406.543	-7.78638	-33.7496	-7.00889	-8.84565	943.134	-12.2003	0
0.5400	-3.05698	-429.166	-516.415	-4.40872	-27.3433	-5.1758	-4.88203	938.499	-9.13138	0
0.5407	-16.464	-374.535	-361.365	-3.19988	-21.2282	-3.95887	-2.43296	996.663	-7.62206	0
0.5413	-23.1894	-226.238	-136.763	-1.99104	-16.0449	-2.43386	-0.612267	1111.6	-5.18199	0
0.5420	-9.17095	-105.371	-110.532	-0.746639	-11.1819	-1.20152	1.22453	1150.53	-2.74193	0
0.5427	11.0051	76.5025	-181.312	1.06663	-5.67832	1.54042	0.612267	1136.16	-0.603727	0
0.5433	13.7564	333.767	-136.164	3.19988	-1.71806	5.2066	-1.22453	1117.39	2.76708	0
0.5440	-7.64246	275.474	-43.9789	5.0487	1.65982	9.47355	-0.918401	1186.91	6.11274	0
0.5447	-40.5705	60.025	-18.347	6.57753	4.68826	13.4478	0.918401	1405.89	7.94908	0
0.5453	-58.9124	33.478	97.0115	7.18195	7.74582	14.9728	0.306134	1677.02	10.0873	0
0.5460	-43.3218	54.2383	243.188	8.99522	11.0946	17.4067	0.306134	1941.65	12.8292	0
0.5467	-12.1843	23.9969	185.509	11.4485	16.5982	20.7648	0.612267	2111.04	14.0618	0
0.5473	5.80827	81.995	60.0776	12.9773	22.1018	23.1987	-0.918401	1813.74	14.9674	-0.642153
0.5480	20.1324	182.691	12.1714	15.1105	26.3532	25.6479	-1.22453	1284.93	19.2438	-0.321076
0.5487	24.7179	67.0541	-50.0946	18.1682	29.7311	28.3899	-0.612267	1413.08	25.3565	0
0.5493	11.0051	-23.2777	-29.9488	19.697	32.1772	30.531	-1.22453	1683.51	27.1677	0
0.5500	15.5469	74.6716	188.567	19.0926	33.0799	31.1472	-1.82069	1326.64	27.1677	-0.321076
0.5507	29.3034	-69.3753	374.705	19.3771	33.6914	32.056	-1.22453	851.833	27.7966	-0.321076
0.5513	21.6609	-197.86	292.923	22.1147	35.8171	34.1972	1.22453	499.374	30.2367	0
0.5520	-4.89117	-178.931	-22.3342	25.1724	39.8065	35.1061	2.7552	15.5258	31.746	0.321076
0.5527	-28.3863	-389.803	-383.039	27.0212	41.0295	33.5811	2.7552	-433.332	32.3749	0
0.5533	-16.7697	-519.498	-548.433	28.55	40.418	32.9649	3.96363	-451.87	32.9786	0
0.5540	6.11396	-222.871	-372.367	28.55	40.7092	31.1472	4.26976	-307.503	31.746	0
0.5547	5.50257	201.62	-66.2532	28.55	43.4465	29.9149	6.10656	-269.5	31.1423	0
0.5553	17.9925	397.257	156.22	29.7589	47.1155	31.1472	10.0702	-151.318	31.4441	0
0.5560	38.4743	341.384	319.484	29.7589	48.0474	29.6222	10.9886	48.1995	31.1423	0
0.5567	16.1583	117.696	448.573	29.1545	46.8243	27.7891	10.3763	272.512	30.2367	0
0.5573	-18.9096	5.3944	515.096	28.55	45.281	27.7891	12.8254	365.899	28.7022	0
0.5580	-26.5521	63.6867	380.191	28.8345	43.7668	28.3899	15.2583	461.139	28.4003	0
0.5587	-9.47664	66.4329	100.969	30.9677	43.7668	30.531	17.7074	907.216	30.2367	0
0.5593	36.0287	-57.148	-122.434	32.2121	44.3783	32.6722	20.1404	1335.68	32.9786	0.321076
0.5600	97.6487	-176.479	-255.779	31.5722	43.7668	32.056	21.671	1419.33	32.9786	0.321076
0.5607	128.786	-21.7738	-284.169	31.2877	43.7668	30.8391	23.2017	1406.59	33.5823	0.321076
0.5613	104.68	277.926	-305.844	31.5722	44.058	30.531	24.104	1339.85	36.3243	0
0.5620	61.358	363.681	-432.175	33.101	42.8349	30.8391	24.7163	1058.3	38.4625	-0.321076
0.5627	30.5261	306.01	-484.068	36.1587	42.8349	33.5811	27.4715	571.905	40.6007	0
0.5633	11.9222	307.514	-336.662	36.4786	42.5437	36.0303	26.2469	113.547	41.5314	0
0.5640	0.611396	284.334	-171.869	34.3454	40.7092	35.7222	20.1404	44.4918	40.6007	-0.321076
0.5647	-8.25385	273.022	-164.224	33.101	40.0977	35.1061	15.8706	288.502	39.9969	0
0.5653	-7.94815	400.298	-205.745	32.8166	41.3207	33.8891	15.2583	479.446	38.7643	-0.321076
0.5660	0.611396	376.17	-95.8723	32.8166	43.1553	33.273	17.7074	805.487	38.4625	-1.28431
0.5667	5.50257	133.258	143.988	32.8166	43.7668	34.5053	19.5281	1365.81	38.7643	-0.321076
0.5673	0.611396	60.3193	295.052	31.5722	42.2234	34.5053	17.7074	1571.12	37.5569	0
0.5680	-9.78234	143.033	174.507	31.2877	41.9322	33.273	16.1767	1197.34	36.6261	0
0.5687	-17.9925	148.526	-20.1757	30.6833	43.4465	31.4399	16.1767	911.619	36.3243	0
0.5693	-12.7957	185.143	-45.8076	30.6833	45.281	32.3641	16.1767	1045.33	36.0224	0.321076
0.5700	17.0754	316.995	-38.4928	30.9677	45.8925	33.8891	16.789	1187.84	36.0224	0
0.5707	49.7415	324.612	-60.7671	29.7589	43.7668	32.6722	16.1767	1271.96	36.0224	0.321076
0.5713	43.0161	145.78	21.9145	28.55	43.1553	32.056	16.789	1467.53	35.4187	0.321076
0.5720	4.89117	-15.6601	90.8958	28.55	43.1553	31.748	16.1767	1477.04	35.1168	0
0.5727	-8.25385	-101.415	-80.3133	29.1545	42.2234	32.056	15.2583	1271.96	35.7205	-0.321076
0.5733	9.47664	-162.453	-268.61	30.6833	40.7092	33.8891	16.1767	1330.58	37.5569	-0.321076
0.5740	14.0621	-27.5605	-184.969	30.6833	38.2632	35.1061	16.4829	1463.13	38.4625	0
0.5747	17.3811	232.45	-32.4071	30.6833	36.1374	36.0303	16.4829	1301.85	38.4625	0
0.5753	30.2205	243.141	-10.7324	30.6833	34.5941	35.1061	15.8706	1267.09	38.4625	0.321076
0.5760	0.305698	97.2628	-10.4326	30.6833	35.5259	32.6722	14.9522	1585.95	38.1606	0.321076
0.5767	-47.9073	65.8117	5.15636	32.4966	37.6517	33.273	16.1767	1713.4	38.4625	0
0.5773	-57.6896	58.8154	-47.6663	31.8921	36.7489	33.5811	15.2583	1296.52	38.4625	0
0.5780	-39.3477	-17.4909	-192.314	30.3633	36.1374	32.3641	12.8254	943.597	37.8587	0
0.5787	-8.55955	-73.9524	-272.867	30.0789	37.0401	31.748	13.1315	1032.35	36.9531	0
0.5793	9.47664	-80.6545	-73.598	30.0789	38.2632	30.8391	15.2583	974.417	37.255	0
0.5800	24.1065	-10.7888	265.762	31.2877	39.4862	31.1472	18.9158	657.644	38.7643	0
0.5807	48.8244	45.9996	405.524	30.9677	38.5835	30.223	19.222	670.621	38.7643	0
0.5813	46.6845	6.60406	291.094	30.6833	37.0401	28.0818	17.0951	1094.45	37.8587	-0.321076
0.5820	26.8578	14.5485	121.114	30.6833	36.7489	25.956	17.7074	1346.8	36.9531	0
0.5827	19.521	49.6612	82.6516	29.1545	35.8171	24.1229	18.6258	1122.26	35.7205	0
0.5833	18.2982	73.7562	201.668	28.8345	36.7489	25.3398	19.5281	810.585	35.7205	0
0.5840	15.2412	195.212	305.754	28.8345	38.5835	27.1729	20.7526	710.71	35.1168	0
0.5847	15.2412	201.62	369.219	27.0212	37.972	25.956	19.5281	779.765	32.6767	0
0.5853	30.5261	-41.9129	518.754	24.888	38.5835	24.431	17.7074	1039.53	29.9348	0
0.5860	48.213	-124.594	505.623	23.0391	29.4108	23.5067	15.5645	1299.99	28.0985	0
0.5867	48.8244	39.8859	169.021	22.1147	-4.1641	25.6479	14.6461	1480.97	27.1677	0
0.5873	36.0287	96.9358	-75.4267	22.4347	-33.1381	28.3899	14.6461	1809.8	27.7966	0
0.5880	9.47664	90.2337	-120.905	21.5103	-37.0984	29.9149	13.7277	2069.33	27.1677	0
0.5887	-27.4692	199.168	-86.7287	20.5859	-35.5842	33.8891	14.9522	2094.13	26.2621	0
0.5893	-55.5497	208.355	42.9896	19.0926	-38.0302	34.5053	16.4829	2242.43	25.6584	0.321076
0.5900	-63.4542	97.2628	-22.634	19.697	-34.0699	31.4399	16.789	2552.25	26.564	0
0.5907	-42.7104	118.938	-200.558	22.4347	-20.6167	32.3641	15.5645	2894.98	30.2367	0
0.5913	-4.58547	127.471	-179.783	22.1147	-9.34739	33.8891	11.6009	3280.58	32.0479	0
0.5920	3.36268	19.7468	-83.6709	19.9815	2.27133	27.481	2.44907	3234.93	29.9348	-0.321076
0.5927	-12.7957	-7.42139	15.529	16.3194	24.2275	33.273	5.80043	2691.99	27.1677	0
0.5933	-0.611396	23.7027	96.0821	14.5061	46.8243	56.7797	35.3987	2536.03	25.9603	0
0.5940	27.7749	21.8719	133.915	12.6573	63.306	64.7129	51.8816	2885.71	22.2876	0.321076
0.5947	37.5572	18.2102	84.7801	5.0487	77.9532	59.5217	46.6934	3258.1	36.3243	0.321076
0.5953	34.1945	19.4199	-44.6085	20.5859	78.8559	57.9966	44.8566	3604.99	72.3467	-0.642153
0.5960	34.1945	19.1256	-32.7069	58.7356	65.1114	57.6886	44.8566	3691.66	86.987	-1.28431
0.5967	34.1945	18.8314	73.5081	68.833	54.7449	56.1635	43.9543	3479.63	80.8995	0
0.5973	32.666	18.2102	95.1828	61.7933	48.6589	54.3305	43.0359	3391.8	79.365	0
0.5980	32.0546	17.916	86.6388	61.7933	73.6726	53.1135	41.8114	3401.77	78.1324	-0.321076
0.5987	31.4432	17.589	88.1377	60.8688	119.74	51.5885	41.1991	3298.42	76.3212	0
0.5993	30.5261	17.0005	85.7095	58.7356	127.369	50.3716	40.2807	3262.73	74.7867	0.321076
0.6000	30.2205	16.6736	82.9514	57.5267	118.226	49.1393	39.6685	3432.13	73.2523	0.321076
0.6007	29.6091	16.3794	81.1227	56.3179	117.614	47.9223	38.7662	3735.69	71.4159	0
0.6013	28.9977	16.0851	79.294	55.0735	115.168	46.7054	37.8478	4096.95	69.6047	0
0.6020	28.0806	15.464	77.1655	53.5447	111.819	45.7966	36.9294	4304.58	68.0703	0
0.6027	27.4692	15.1697	75.3368	52.3358	109.373	44.2561	36.011	4245.96	66.2339	0
0.6033	26.8578	14.8428	73.5081	51.127	106.927	43.3473	35.0926	4080.96	64.3976	0
0.6040	26.2464	14.5485	71.6794	49.8826	104.801	42.7311	34.4803	3974.14	62.8883	0.321076
0.6047	25.635	14.2543	69.8507	48.6737	102.064	41.5142	33.8842	3944.94	61.6557	0.321076
0.6053	24.7179	13.9274	68.0219	47.4649	99.2979	40.6054	32.9658	3834.87	60.1463	0.321076
0.6060	24.1065	13.6331	66.493	46.5405	97.1721	39.373	32.0474	3618.2	58.31	0
0.6067	23.4951	13.012	64.9641	45.0117	94.7261	38.1561	31.129	3504.42	57.0774	0
0.6073	22.8837	12.7177	62.8356	43.8028	93.5031	37.2472	30.5167	3556.33	55.8699	0
0.6080	22.578	12.4235	61.3067	42.8784	90.4455	36.323	29.5983	3631.41	54.3355	0
0.6087	21.6609	11.8023	59.7778	41.6696	84.0392	35.1061	28.696	3642.07	53.128	0
0.6093	21.0495	11.5081	58.5486	40.7451	96.8518	34.5053	28.0837	3635.58	51.8954	0
0.6100	21.0495	11.8023	57.0197	39.5363	64.8202	33.8891	27.7776	3660.61	50.6628	0
0.6107	20.4381	11.5081	55.7906	38.6119	-30.4009	32.9649	27.1653	3693.28	49.1535	0
0.6113	19.8267	11.1811	54.8912	37.6875	-53.5801	32.056	26.5531	3708.81	47.9209	0
0.6120	19.2153	10.8869	51.5336	36.7631	-30.4009	31.4399	25.6347	3672.43	47.0153	0
0.6127	18.9096	10.2657	52.7627	35.8742	-45.6595	30.531	25.3285	3588.54	45.7827	0
0.6133	18.2982	9.97148	53.3623	35.2342	-56.3464	30.223	24.4101	3505.35	45.1789	0
0.6140	17.9925	10.5926	35.345	34.3454	-40.4763	29.006	24.104	3403.62	44.2733	0
0.6147	17.0754	9.97148	88.7673	30.9677	-15.4334	26.8648	25.0224	3282.43	40.2988	0.321076
0.6153	16.464	7.51947	174.207	36.4786	7.1343	32.056	19.222	3246.51	45.7827	0.321076
0.6160	18.9096	16.0851	113.47	26.7012	22.393	20.4567	27.7776	3271.77	37.255	0
0.6167	14.3678	6.60406	33.8161	-19.9815	30.9541	-16.159	54.9268	3167.26	-17.986	0
0.6173	9.47664	-31.5164	8.81377	-43.4828	33.4002	-26.8494	35.3987	3040.74	-52.1721	0.321076
0.6180	12.5336	-22.068	-101.358	-34.6298	35.2056	-20.1332	-8.53952	3074.11	-43.3174	0
0.6187	9.47664	22.493	-249.993	-33.101	34.3029	-25.3244	-7.31498	3117.67	-39.9718	0
0.6193	4.89117	19.1256	-286.598	-35.5542	25.4505	-26.5414	8.2495	3044.44	-43.3174	0
0.6200	5.50257	1.73275	-187.727	-38.2919	14.7636	-18.6082	17.0951	2878.06	-45.7575	0
0.6207	12.8393	30.4048	-61.3966	-40.7451	8.96884	-5.79196	43.9543	2738.1	-47.5938	0.321076
0.6213	15.8526	49.6612	11.2421	-39.8207	10.1919	4.89852	63.7886	2814.57	-46.6882	0
0.6220	5.80827	-3.4655	-6.44545	-38.6119	14.1521	5.80737	45.4689	2942.02	-44.55	0
0.6227	-0.305698	-32.1376	-75.4267	-37.3675	12.0264	-0.908845	12.8254	2877.6	-42.7137	0.321076
0.6233	-5.50257	16.0851	-103.817	-34.0254	7.74582	-9.44275	-8.53952	2912.13	-38.7392	0.321076
0.6240	-9.78234	26.7432	-101.988	-29.4389	7.1343	-17.0832	-22.5733	3087.31	-33.5572	0
0.6247	-7.33676	-2.55008	-92.2149	-24.8524	7.74582	-19.5171	-29.2922	3061.36	-28.0482	0.321076
0.6253	-5.50257	-29.0971	-34.8354	-20.9059	6.52279	-18.3001	-22.2833	3030.77	-23.7969	-0.321076
0.6260	-1.22279	-42.8283	26.5013	-18.4526	3.46523	-17.3759	-16.4829	3220.56	-21.9606	-1.28431
0.6267	0.305698	-15.6601	17.3577	-17.5282	1.04831	-13.1089	-20.7526	3346.39	-21.0298	-0.642153
0.6273	-4.58547	3.85782	-12.2613	-18.4526	-1.10655	-5.1758	-27.7615	3239.1	-20.4261	0.321076
0.6280	-3.36268	-10.4619	-18.0473	-19.3771	-1.39774	0.0154042	-36.3171	2989.29	-21.0298	0
0.6287	-0.305698	-17.4909	-21.1051	-18.7726	0.116478	-1.20152	-44.2444	2695.93	-21.3569	0
0.6293	-1.83419	-16.2813	-21.1051	-18.1682	-1.39774	-4.86771	-47.3057	2498.26	-20.4261	0.321076
0.6300	-3.36268	-22.068	-37.8932	-17.5282	-4.4553	-5.48388	-44.8566	2513.56	-18.5898	0
0.6307	-4.27977	-12.2927	-79.0841	-16.6394	-5.35801	-3.95887	-39.9746	2642.63	-17.986	0
0.6313	-5.19687	14.5485	-66.2532	-15.395	-4.4553	0.323487	-37.8317	2719.79	-17.3823	0.321076
0.6320	-2.75128	25.2393	-17.7475	-13.2617	-2.94108	4.89852	-38.1378	2746.21	-15.546	0
0.6327	4.27977	3.26934	-13.4605	-11.1285	-1.39774	5.2066	-36.6233	2782.13	-13.1059	0
0.6333	4.58547	-12.2927	-9.50329	-9.91963	-1.39774	4.28235	-30.8228	2824.77	-11.5714	0.321076
0.6340	-2.75128	5.3944	22.5441	-9.31521	-2.94108	7.02429	-23.1856	2872.04	-12.5022	0
0.6347	-12.49	23.0815	31.9874	-9.91963	-2.94108	13.4478	-14.6461	2961.72	-15.2441	0
0.6353	-17.6868	26.7432	25.2721	-12.6573	-2.00925	19.856	-9.15178	3094.73	-18.2879	0
0.6360	-9.17095	26.1547	48.4758	-12.9773	-1.39774	22.2898	-9.15178	3129.95	-18.9168	0
0.6367	1.22279	9.67724	67.6922	-11.4485	-1.10655	21.0729	-11.6009	2956.85	-18.5898	0
0.6373	4.58547	-24.1931	50.6043	-10.5241	-1.10655	16.7905	-15.2583	2807.15	-17.0805	0
0.6380	4.58547	-40.3763	28.0302	-7.18195	-0.174718	10.6905	-18.6097	2837.05	-11.8985	0
0.6387	0.611396	-24.1931	23.4434	-2.59546	1.04831	7.33238	-19.8342	2879.92	-7.32019	0
0.6393	-0.305698	-15.0389	26.5013	-0.462205	1.04831	5.2066	-19.5281	2869.72	-5.48386	0.321076
0.6400	1.52849	-21.1526	21.0152	0.142217	1.3395	2.15658	-18.6097	2844.23	-4.85497	0
0.6407	0.917095	-27.2663	12.1714	1.67105	2.27133	-0.908845	-18.9158	2809.47	-4.25125	0
0.6413	-0.917095	-34.2626	14.2999	2.59546	1.95101	-2.12577	-20.4465	2765.44	-4.55311	0
0.6420	-3.36268	-36.4204	21.9145	3.8043	1.95101	-0.600762	-19.222	2724.66	-3.64752	-0.321076
0.6427	-4.27977	-33.053	20.4156	4.72871	2.27133	-1.20152	-18.9158	2701.26	-2.74193	-0.321076
0.6433	-3.36268	-29.0971	16.1286	4.12429	1.65982	-3.3427	-19.8342	2695.46	-3.64752	0
0.6440	-2.75128	-24.1931	15.1993	3.19988	1.65982	-3.65078	-16.4829	2702.88	-4.55311	0
0.6447	-2.75128	-19.943	12.771	4.12429	1.3395	-5.1758	-11.907	2715.85	-3.94938	0
0.6453	-3.05698	-14.4505	13.3706	6.57753	2.56253	-5.1758	-7.62112	2739.26	-1.81118	0
0.6460	-1.83419	-10.4619	14.0001	7.46639	2.56253	-3.3427	-7.31498	2773.79	-0.301864	0
0.6467	-0.611396	-8.33681	10.6425	5.65312	1.65982	-2.72654	-9.45792	2812.48	-1.81118	0
0.6473	-0.917095	-3.75974	10.3427	6.57753	2.27133	-0.600762	-7.92725	2856.51	-1.50932	0.321076
0.6480	0.917095	-2.84432	9.41335	7.78638	2.56253	0.0154042	-6.71883	2894.98	0.0251553	0.321076
0.6487	-0.305698	-0.0980801	8.51399	6.25754	3.46523	-0.292679	-7.92725	2928.58	-1.50932	0.321076
0.6493	-2.75128	4.47899	9.41335	7.18195	5.00857	0.924249	-6.71883	2962.18	-1.20745	0.321076
0.6500	1.83419	0.523094	8.18422	9.59964	4.39706	0.924249	-5.49429	2987.44	1.23261	0
0.6507	0.917095	-0.39232	6.6553	8.10636	4.07675	-0.908845	-8.53952	3005.05	0.327019	0
0.6513	-2.75128	2.64816	6.6553	5.33313	4.39706	-0.908845	-10.6825	3019.65	-2.11305	0
0.6520	-0.917095	3.26934	6.6553	6.25754	5.00857	0.924249	-9.45792	3034.48	-0.301864	0
0.6527	-0.611396	2.35392	6.98507	7.46639	6.2316	2.15658	-14.3399	3042.36	1.83634	0
0.6533	2.75128	-2.22315	5.15636	5.65312	5.91128	2.44926	-28.0676	3034.94	1.83634	0
0.6540	3.66838	-3.13856	3.92723	4.44428	5.00857	4.89852	-37.8317	3028.92	1.53447	0.321076
0.6547	-0.917095	0.817334	4.22701	4.72871	5.00857	3.97427	-37.5417	3036.57	0.327019	-0.321076
0.6553	-4.89117	6.60406	4.5268	2.27547	5.91128	1.54042	-36.011	3058.58	0.930746	-1.60538
0.6560	-8.86525	14.5485	3.62744	2.27547	6.84311	16.1898	-46.0812	3095.66	-2.74193	-0.963229
0.6567	-0.305698	17.2948	2.39831	4.12429	6.52279	30.8391	-24.4101	3138.06	0.327019	0.321076
0.6573	16.1583	15.7582	3.92723	1.99104	5.91128	29.3141	31.129	3182.79	36.9531	0.321076
0.6580	18.2982	15.464	-2.78803	21.2259	5.62008	27.481	46.3873	3236.08	65.0265	0
0.6587	15.5469	15.464	-3.38761	46.2205	5.62008	27.481	37.5417	3297.26	60.4482	0
0.6593	16.1583	14.5485	35.345	45.9361	5.62008	26.2641	38.7662	3358.9	57.0774	0
0.6600	15.5469	14.2543	64.6643	41.954	3.17404	25.6479	38.4601	3412.43	58.0081	0
0.6607	14.9792	13.9274	58.8484	42.5584	5.62008	25.0318	36.9294	3464.34	55.8699	0
0.6613	14.6735	13.6331	56.1204	41.3496	5.00857	24.431	36.3171	3525.74	54.3355	0
0.6620	14.3678	13.3389	56.7199	40.4252	1.3395	23.8148	35.3987	3584.14	53.128	-0.321076
0.6627	14.3678	13.3389	54.8912	39.5363	38.5835	23.1987	34.4803	3633.27	52.1973	0
0.6633	14.3678	13.012	53.6621	38.6119	80.9816	22.5979	33.8842	3672.2	50.9898	0.321076
0.6640	13.4507	12.4235	52.1332	37.6875	79.7877	21.9817	32.9658	3689.58	49.4553	0
0.6647	13.145	12.0965	50.6043	36.7631	73.3523	21.6736	32.0474	3688.65	48.2227	0
0.6653	13.145	12.0965	49.4051	35.8742	74.5753	21.0729	31.4351	3679.15	47.3171	0.321076
0.6660	12.8393	11.8023	48.4758	34.9498	72.1584	20.4567	30.8228	3665.48	46.1097	0
0.6667	12.5336	11.5081	47.2466	34.0254	70.3239	20.1486	29.9044	3656.9	44.8771	0
0.6673	11.9222	10.8869	46.0475	33.101	68.7805	19.2398	29.2922	3658.52	43.9715	0
0.6680	11.6165	10.5926	44.8183	32.2121	67.2663	18.9317	28.696	3656.44	42.7389	0
0.6687	11.3108	10.5926	43.5892	31.5722	65.4318	18.6236	28.0837	3648.79	41.8333	0
0.6693	11.0051	10.2657	42.6898	30.6833	64.2087	18.0229	27.4715	3647.86	40.9025	0.321076
0.6700	11.0051	10.2657	41.7605	30.0789	62.6945	17.7148	26.5531	3653.19	39.6951	0.321076
0.6707	11.0051	9.97148	40.8611	29.1545	61.1512	17.4067	25.9408	3656.9	38.7643	0
0.6713	10.3937	9.67724	39.632	28.55	59.9282	16.7905	25.6347	3663.62	38.1606	0.321076
0.6720	10.088	9.05606	38.4029	27.9101	58.4139	16.1898	25.0224	3684.01	36.9531	0.321076
0.6727	9.78234	9.05606	37.5035	27.0212	56.8997	15.8817	24.4101	3710.43	36.0224	0
0.6733	10.088	9.05606	36.5742	26.7012	55.9679	15.5736	23.814	3735.69	35.4187	0.321076
0.6740	9.78234	9.05606	35.9746	26.4168	54.7449	15.2655	23.2017	3771.14	34.5131	0
0.6747	9.47664	8.43489	35.0452	25.7768	53.5218	14.9728	22.5894	3814.94	33.5823	0
0.6753	9.17095	8.43489	34.1459	24.888	52.2988	14.3567	22.2833	3862.91	32.6767	0
0.6760	9.17095	8.43489	33.5163	24.248	51.3961	14.0486	21.671	3916.9	32.0479	0
0.6767	9.17095	8.43489	32.9167	23.9636	50.1731	13.7405	21.3649	3965.8	31.4441	0
0.6773	8.55955	7.84641	31.6876	23.0391	48.6589	13.1397	21.0588	4008.43	30.8404	0.321076
0.6780	8.25385	7.51947	30.7883	22.4347	47.4358	12.8317	20.7526	4055.01	30.2367	0.642153
0.6787	8.55955	7.51947	30.4585	22.1147	46.504	12.8317	20.1404	4101.82	29.6078	0.321076
0.6793	8.25385	7.51947	29.5591	21.5103	45.281	12.2155	19.5281	4138.2	28.7022	0
0.6800	7.94815	7.22523	28.9595	21.2259	44.3783	11.9074	19.222	4162.3	28.0985	0
0.6807	7.64246	6.93099	28.0302	20.5859	43.4465	11.6147	18.9158	4179.45	27.4696	0
0.6813	7.64246	6.93099	27.7304	20.3015	42.5437	11.6147	18.3197	4191.27	26.564	0
0.6820	7.64246	6.93099	27.1308	19.697	41.3207	11.3066	17.7074	4203.55	26.2621	0.321076
0.6827	7.33676	6.30982	25.9017	19.0926	40.418	10.3824	17.7074	4220.93	25.6584	0.321076
0.6833	7.03106	6.30982	25.2721	18.4526	39.4862	10.3824	17.0951	4242.94	25.0295	0.321076
0.6840	7.03106	6.30982	25.2721	18.4526	38.8747	10.6905	16.789	4271.68	24.4258	0.321076
0.6847	7.03106	6.30982	24.6726	17.8482	37.972	10.3824	16.4829	4304.58	23.8221	0.321076
0.6853	7.03106	6.01558	24.073	17.5638	37.0401	9.78164	16.1767	4337.72	23.5202	0.642153
0.6860	6.72536	5.68865	23.1437	16.9238	36.1374	9.47355	15.2583	4366.45	22.5895	-0.321076
0.6867	6.41966	5.3944	22.5441	16.6394	35.2056	9.16547	14.3399	4390.09	21.0801	-1.60538
0.6873	6.41966	6.01558	22.2443	16.6394	34.9144	9.16547	14.6461	4421.37	21.382	-0.642153
0.6880	6.41966	5.68865	21.9145	16.3194	33.9826	9.16547	14.9522	4460.07	21.6839	0.321076
0.6887	6.11396	5.10016	21.3149	15.715	32.7887	8.85739	14.0338	4500.16	21.0801	0.321076
0.6893	6.11396	5.10016	20.7154	15.4305	32.1772	8.25663	13.7277	4552.99	20.4513	0.321076
0.6900	5.80827	5.10016	20.0858	14.7906	31.5657	7.94854	13.4377	4624.6	20.1494	0
0.6907	6.11396	5.10016	20.0858	14.7906	30.9541	7.94854	13.1315	4713.81	19.5457	0
0.6913	6.11396	5.10016	19.786	14.5061	30.3426	7.64046	13.1315	4815.08	19.2438	0
0.6920	5.80827	4.77323	18.8867	13.9017	29.4108	7.33238	12.8254	4894.79	18.6401	0.321076
0.6927	5.80827	4.47899	18.5569	13.9017	28.7993	7.33238	12.5193	4933.49	18.0112	0
0.6933	5.80827	4.77323	18.2571	13.9017	28.1878	7.33238	12.2131	4945.08	18.0112	0.321076
0.6940	5.50257	4.77323	17.6575	13.2617	27.5763	7.02429	11.907	4949.02	17.4075	0.321076
0.6947	5.50257	4.77323	17.3577	12.9773	26.9648	7.02429	11.6009	4960.6	17.1056	0
0.6953	5.19687	4.18475	16.7282	12.3729	26.3532	6.73162	11.2947	4977.75	16.8037	0
0.6960	4.89117	3.85782	16.4284	12.0529	25.7709	6.42353	10.9886	5003.47	16.5019	0
0.6967	5.19687	4.18475	16.1286	12.0529	25.4505	6.42353	10.9886	5045.19	15.873	0
0.6973	5.19687	4.18475	15.8288	12.0529	24.839	6.11545	10.6825	5089.45	15.5711	0.321076
0.6980	4.89117	3.85782	15.529	11.4485	24.2275	6.11545	10.6825	5123.97	15.2693	0.321076
0.6987	4.58547	3.56358	14.8995	11.1285	23.3248	5.80737	10.3763	5148.07	14.9674	0
0.6993	4.58547	3.56358	14.5997	10.844	23.0045	5.49928	9.76405	5164.53	14.3637	0
0.7000	4.58547	3.85782	14.2999	10.844	22.393	5.49928	9.45792	5183.06	14.0618	0
0.7007	4.27977	3.56358	14.0001	10.5241	22.1018	5.49928	9.76405	5206.93	14.0618	0.321076
0.7013	4.27977	3.56358	13.7003	10.2396	21.4903	5.2066	9.45792	5228.71	13.76	0
0.7020	4.27977	3.56358	13.3706	9.91963	21.17	5.2066	9.15178	5248.41	13.1311	0
0.7027	4.27977	3.26934	13.0708	9.91963	20.5584	5.2066	8.84565	5262.08	13.1311	0.321076
0.7033	3.97408	2.9424	12.4712	9.31521	19.6557	4.89852	8.84565	5268.57	12.8292	0.321076
0.7040	3.97408	2.9424	12.4712	9.31521	19.3354	4.89852	8.53952	5271.35	12.5273	0
0.7047	3.97408	3.26934	12.1714	9.31521	19.3354	4.89852	8.2495	5273.67	12.2255	0
0.7053	3.97408	2.9424	11.8716	8.99522	18.7239	4.89852	8.2495	5281.78	11.9236	0.321076
0.7060	3.97408	2.9424	11.5418	8.71079	18.1415	4.59044	7.94336	5296.61	11.9236	0
0.7067	3.66838	2.9424	10.9423	8.3908	17.8212	4.59044	7.63723	5315.38	11.6218	0
0.7073	3.36268	2.64816	10.9423	8.10636	17.2097	4.28235	7.63723	5332.76	11.3199	0
0.7080	3.66838	2.9424	10.9423	8.10636	16.9185	3.97427	7.63723	5345.5	10.9929	0
0.7087	3.36268	2.64816	10.3427	7.78638	16.307	3.97427	7.3311	5357.09	10.691	0
0.7093	3.36268	2.35392	10.0129	7.46639	15.9867	3.97427	7.02496	5368.45	10.3891	0.321076
0.7100	3.36268	2.64816	10.0129	7.46639	15.6955	3.97427	7.02496	5378.87	10.0873	0
0.7107	3.05698	2.64816	9.71314	7.46639	15.3752	3.68159	6.71883	5391.39	10.0873	0
0.7113	3.05698	2.35392	9.41335	7.18195	15.084	3.68159	6.71883	5411.78	9.78541	0.321076
0.7120	3.36268	2.64816	9.41335	7.18195	14.7636	3.97427	6.41269	5438.2	9.48355	0
0.7127	3.36268	2.64816	9.11356	7.18195	14.4724	3.68159	6.41269	5458.82	9.18169	0
0.7133	3.05698	2.35392	8.81377	6.57753	14.1521	3.06543	6.10656	5468.09	9.18169	0.321076
0.7140	3.05698	2.35392	8.81377	6.25754	13.8609	3.37351	6.10656	5475.74	8.85467	0
0.7147	2.75128	2.35392	8.51399	6.25754	13.5406	3.06543	6.41269	5476.43	8.85467	0.321076
0.7153	2.44559	1.73275	7.88443	5.93756	12.6379	2.75734	5.49429	5456.97	7.64721	-0.642153
0.7160	2.44559	2.02699	7.88443	5.93756	12.6379	2.75734	4.57589	5433.1	6.74162	-1.92646
0.7167	3.05698	2.35392	8.18422	6.25754	12.9291	3.37351	5.49429	5419.66	7.94908	-0.642153
0.7173	2.75128	2.02699	7.88443	5.93756	12.3176	3.06543	5.80043	5412.24	7.94908	0.642153
0.7180	2.44559	2.02699	7.58464	5.65312	11.7061	3.06543	5.18816	5407.14	7.34535	0
0.7187	2.75128	2.35392	7.58464	5.65312	11.7061	3.06543	5.18816	5395.56	7.34535	0
0.7193	2.75128	2.02699	7.28485	5.65312	11.4149	2.75734	5.18816	5377.02	7.34535	0.321076
0.7200	2.13989	1.73275	6.98507	5.0487	10.8034	2.44926	5.18816	5364.97	7.04349	0
0.7207	2.13989	2.02699	6.6553	4.72871	10.8034	2.44926	4.88203	5359.64	6.74162	0
0.7213	2.13989	2.02699	6.35551	4.72871	10.5122	2.15658	4.57589	5355.01	6.4146	0
0.7220	1.83419	1.43851	6.05572	4.72871	9.90067	2.15658	4.26976	5349.44	6.11274	-0.963229
0.7227	2.13989	1.73275	6.35551	5.0487	10.1919	2.44926	4.57589	5347.13	6.11274	-0.642153
0.7233	2.44559	1.73275	6.35551	4.72871	9.90067	2.44926	4.57589	5349.21	6.4146	0.321076
0.7240	1.52849	1.43851	5.75593	4.12429	9.28916	2.15658	4.26976	5351.3	5.81088	0.321076
0.7247	1.83419	1.43851	5.75593	4.44428	9.28916	2.15658	4.26976	5360.1	5.81088	0
0.7253	2.13989	1.73275	6.05572	4.44428	9.28916	2.44926	4.26976	5375.4	5.81088	0
0.7260	1.83419	1.73275	5.75593	4.44428	8.96884	2.15658	4.26976	5381.42	5.50901	0
0.7267	1.83419	1.43851	5.45615	4.44428	8.96884	2.15658	3.96363	5373.08	5.50901	0
0.7273	2.13989	1.43851	5.45615	4.44428	8.67764	1.8485	3.96363	5361.96	5.20715	0
0.7280	2.13989	1.43851	5.15636	4.12429	8.35733	2.15658	3.96363	5355.47	5.20715	0
0.7287	1.83419	1.11157	5.15636	3.8043	8.06613	1.8485	3.96363	5350.14	5.20715	0.321076
0.7293	1.52849	1.11157	4.82659	3.8043	8.06613	1.8485	3.65749	5342.03	4.90528	0
0.7300	1.52849	1.43851	4.82659	3.8043	7.74582	1.8485	3.65749	5333.22	4.90528	0
0.7307	1.52849	1.11157	4.5268	3.51987	7.45462	1.54042	3.65749	5330.44	4.60342	0
0.7313	1.83419	1.11157	4.5268	3.51987	7.45462	1.54042	3.65749	5344.35	4.60342	0
0.7320	1.52849	1.43851	4.5268	3.51987	7.1343	1.8485	3.65749	5357.09	4.90528	0.321076
0.7327	1.52849	1.43851	4.22701	3.19988	7.1343	1.8485	3.35136	5344.35	4.60342	0
0.7333	1.52849	1.11157	3.92723	3.19988	6.84311	1.54042	3.06134	5319.78	4.2764	0
0.7340	1.22279	1.11157	3.92723	2.91545	6.52279	1.54042	3.06134	5312.14	4.2764	0
0.7347	1.22279	1.11157	3.92723	2.91545	6.52279	1.54042	3.35136	5319.32	4.2764	0.321076
0.7353	1.22279	1.11157	4.22701	2.91545	6.52279	1.54042	3.06134	5313.06	4.2764	0.321076
0.7360	1.52849	1.43851	3.92723	2.91545	6.2316	1.54042	3.06134	5296.38	3.97454	0
0.7367	1.52849	1.43851	3.92723	3.19988	6.2316	1.54042	2.7552	5286.18	3.67267	0
0.7373	1.22279	1.11157	3.92723	2.91545	6.2316	1.54042	2.7552	5280.39	3.67267	0
0.7380	1.22279	1.11157	3.62744	2.91545	5.91128	1.23233	2.7552	5279.23	3.67267	0
0.7387	1.52849	1.11157	3.62744	2.91545	5.62008	1.23233	2.7552	5278.07	3.67267	0
0.7393	1.22279	1.11157	3.62744	2.91545	5.62008	1.54042	2.7552	5266.25	3.67267	0.321076
0.7400	1.22279	0.817334	3.29767	2.59546	5.29977	1.54042	2.7552	5247.48	3.67267	0.321076
0.7407	1.22279	0.817334	2.99788	2.27547	5.00857	0.924249	2.7552	5228.95	3.37081	0
0.7413	1.22279	1.11157	3.29767	2.27547	5.00857	1.54042	2.7552	5214.58	3.06895	0.321076
0.7420	1.52849	1.11157	3.29767	2.27547	5.29977	1.54042	2.14294	5202.76	3.06895	0
0.7427	1.22279	0.817334	2.99788	2.27547	5.00857	1.23233	2.14294	5183.76	3.06895	0
0.7433	0.917095	0.817334	2.99788	2.27547	4.68826	1.23233	2.44907	5165.68	3.06895	0
0.7440	0.917095	1.11157	2.99788	2.59546	4.68826	1.54042	2.44907	5158.96	2.76708	0
0.7447	0.917095	0.817334	2.69809	2.27547	4.39706	0.924249	2.14294	5150.85	2.76708	0.321076
0.7453	0.305698	0.19616	2.09852	1.67105	4.07675	0.616166	1.53067	5133.01	1.83634	-0.963229
0.7460	0.917095	0.817334	2.69809	1.99104	4.68826	1.23233	1.53067	5121.19	2.16336	-1.28431
0.7467	1.22279	1.11157	2.99788	2.27547	4.68826	1.54042	2.44907	5117.25	2.76708	0
0.7473	0.611396	0.523094	2.39831	1.38662	4.07675	0.616166	2.14294	5119.11	2.76708	0.321076
0.7480	0.611396	0.817334	2.39831	1.67105	4.07675	1.23233	1.8368	5124.9	2.46522	0.321076
0.7487	0.917095	1.11157	2.69809	1.99104	4.07675	1.54042	1.8368	5115.63	2.46522	0.321076
0.7493	0.611396	0.817334	2.09852	1.67105	3.78555	0.924249	1.8368	5096.4	2.46522	0
0.7500	0.305698	0.523094	1.79873	1.67105	3.46523	0.616166	1.8368	5087.59	2.16336	0
0.7507	0.611396	0.523094	2.09852	1.67105	3.46523	0.924249	1.8368	5084.35	2.16336	0
0.7513	0.611396	0.817334	1.79873	1.67105	3.46523	0.924249	1.8368	5081.57	2.16336	0
0.7520	0.917095	0.817334	2.09852	1.67105	3.46523	0.924249	1.8368	5079.71	2.16336	0
0.7527	0.917095	0.817334	2.09852	1.67105	3.46523	1.23233	1.53067	5077.63	2.16336	0.321076
0.7533	0.917095	0.817334	2.09852	1.67105	3.46523	0.924249	1.8368	5079.02	2.16336	0.321076
0.7540	0.611396	0.817334	2.09852	1.38662	3.46523	0.924249	1.8368	5086.43	2.16336	0.321076
0.7547	0.611396	0.523094	1.79873	1.38662	3.17404	0.924249	1.53067	5094.08	2.16336	0.321076
0.7553	0.305698	0.523094	1.79873	1.38662	2.88284	0.616166	1.53067	5096.4	1.83634	0
0.7560	0.611396	0.523094	1.79873	1.38662	2.88284	0.924249	1.53067	5098.95	2.16336	0
0.7567	0.611396	0.523094	1.79873	1.38662	2.88284	0.616166	1.8368	5108.45	2.16336	0.321076
0.7573	0.611396	0.817334	1.79873	1.38662	2.88284	0.616166	1.53067	5129.77	1.83634	0
0.7580	0.611396	0.817334	1.46896	1.38662	2.88284	0.616166	1.22453	5153.87	1.53447	0
0.7587	0.305698	0.523094	1.46896	1.06663	2.56253	0.616166	1.53067	5169.16	1.83634	0.321076
0.7593	0.611396	0.523094	1.79873	1.38662	2.56253	0.924249	1.8368	5174.26	1.83634	0.321076
0.7600	0.611396	0.523094	1.46896	1.38662	2.56253	0.924249	1.22453	5160.35	1.53447	0
0.7607	0.611396	0.817334	1.79873	1.38662	2.56253	0.616166	1.22453	5128.14	1.53447	0
0.7613	0.611396	0.523094	1.79873	1.38662	2.56253	0.924249	1.22453	5100.34	1.53447	0
0.7620	0.305698	0.523094	1.46896	1.06663	2.27133	0.924249	1.53067	5080.41	1.53447	0
0.7627	0.305698	0.523094	1.16917	1.06663	2.27133	0.616166	1.22453	5056.31	1.53447	0
0.7633	0.611396	0.523094	1.46896	1.06663	2.27133	0.616166	1.22453	5021.32	1.53447	0
0.7640	0.611396	0.523094	1.46896	1.06663	2.27133	0.924249	1.22453	4977.52	1.53447	0.321076
0.7647	0.611396	0.523094	1.46896	1.06663	1.95101	0.924249	1.22453	4934.65	1.23261	0.321076
0.7653	0.305698	0.523094	1.16917	0.782193	1.95101	0.616166	0.918401	4894.79	1.23261	0
0.7660	0	0.523094	1.16917	0.462205	1.95101	0.616166	0.918401	4850.77	1.23261	0
0.7667	0	0.19616	0.869386	0.782193	1.65982	0.616166	0.918401	4807.9	0.930746	0
0.7673	0	0.19616	0.869386	0.782193	1.65982	0.616166	0.918401	4766.88	1.23261	0.321076
0.7680	0.305698	0.19616	0.869386	0.462205	1.65982	0.924249	1.22453	4722.62	1.23261	0.321076
0.7687	0.305698	0.523094	0.869386	0.462205	1.65982	0.616166	0.918401	4686.7	0.930746	0
0.7693	0.305698	0.523094	0.869386	0.782193	1.65982	0.616166	1.22453	4666.54	0.930746	0
0.7700	0.305698	0.523094	0.869386	0.782193	1.65982	0.924249	1.22453	4650.55	1.23261	0.321076
0.7707	0.305698	0.523094	0.869386	0.782193	1.65982	0.616166	1.22453	4628.07	0.930746	0.321076
0.7713	0	0.523094	0.569598	0.462205	1.3395	0.323487	0.918401	4603.28	0.930746	0
0.7720	0	0.523094	0.869386	0.462205	1.3395	0.616166	0.918401	4581.96	0.930746	0
0.7727	0	0.523094	0.869386	0.462205	1.3395	0.616166	0.918401	4552.76	0.628883	0.321076
0.7733	0	0.523094	0.869386	0.462205	1.3395	0.616166	0.918401	4513.37	0.930746	0
0.7740	0	0.523094	0.869386	0.462205	1.3395	0.616166	0.918401	4478.84	0.930746	0.321076
0.7747	0.305698	0.19616	0.569598	0.462205	1.3395	0.924249	1.22453	4447.33	0.930746	0.321076
0.7753	-0.305698	-0.0980801	-0.0299788	-0.142217	0.72799	0.323487	0.306134	4408.86	0.0251553	-0.642153
0.7760	-0.305698	0.19616	0.269809	0.142217	1.04831	0.323487	-0.306134	4376.65	-0.301864	-1.60538
0.7767	0	0.817334	0.869386	0.462205	1.3395	0.924249	0.612267	4359.27	0.628883	-0.321076
0.7773	0	0.19616	0.569598	0.462205	1.04831	0.616166	0.918401	4333.32	0.930746	0.321076
0.7780	0	0.19616	0.569598	0.462205	1.04831	0.616166	0.612267	4294.15	0.327019	0
0.7787	0	0.523094	0.569598	0.462205	1.04831	0.924249	0.918401	4253.83	0.628883	0
0.7793	-0.305698	0.523094	0.269809	0.142217	0.72799	0.616166	0.918401	4214.21	0.628883	0
0.7800	-0.305698	0.19616	0.269809	0.142217	0.72799	0.616166	0.612267	4178.29	0.628883	0
0.7807	-0.305698	0.19616	0.269809	0.142217	0.72799	0.616166	0.612267	4144.23	0.327019	0
0.7813	-0.611396	-0.0980801	-0.0299788	-0.142217	0.436794	0.323487	0.612267	4106.45	0.327019	0
0.7820	-0.611396	0.19616	-0.0299788	-0.142217	0.436794	0.616166	0.612267	4064.28	0.327019	0
0.7827	-0.305698	0.19616	0.269809	-0.142217	0.436794	0.616166	0.612267	4021.41	0.327019	0
0.7833	-0.305698	0.19616	0.269809	-0.142217	0.436794	0.323487	0.306134	3985.96	0.0251553	-0.321076
0.7840	-0.305698	0.19616	0.269809	0.142217	0.436794	0.616166	0.612267	3953.28	0.327019	0
0.7847	-0.305698	0.19616	0.269809	-0.142217	0.436794	0.924249	0.612267	3912.5	0.327019	0.321076
0.7853	-0.305698	0.19616	0.269809	-0.142217	0.436794	0.616166	0.612267	3887.93	0.327019	0.321076
0.7860	-0.305698	-0.0980801	-0.0299788	-0.142217	0.436794	0.616166	0.612267	3872.41	0.327019	0
0.7867	-0.305698	0.19616	0.269809	-0.142217	-0.495033	0.616166	0.612267	3834.17	0.327019	0
0.7873	-0.305698	0.19616	0.269809	0.142217	1.65982	0.616166	0.918401	3790.38	0.327019	0.321076
0.7880	-0.611396	0.19616	0.269809	-0.142217	3.78555	0.616166	0.918401	3752.37	0.327019	0.321076
0.7887	-0.305698	0.19616	0.269809	-0.142217	-13.3077	0.616166	0.612267	3710.66	0.327019	0.321076
0.7893	-0.305698	0.19616	-0.0299788	-0.142217	22.1018	0.924249	0.612267	3664.32	0.0251553	0
0.7900	-0.611396	-0.0980801	-0.0299788	-0.462205	-10.8616	0.616166	0.612267	3618.44	0.0251553	0
0.7907	-0.917095	-0.0980801	-0.659534	-0.462205	-298.651	0.616166	0.612267	3563.52	0.0251553	0.321076
0.7913	-0.611396	0.19616	-0.659534	-0.142217	-476.251	0.616166	0.306134	3502.57	-0.301864	0
0.7920	-0.305698	0.523094	3.92723	0.142217	-416.148	0.924249	0.306134	3466.42	0.0251553	0
0.7927	-0.305698	-0.0980801	-7.075	-0.462205	-390.494	0.616166	0	3447.88	-0.301864	0
0.7933	-0.611396	-0.0980801	2.09852	-0.462205	-384.699	0.616166	0	3423.78	-0.301864	0
0.7940	-1.52849	1.11157	21.6147	1.99104	-357.851	2.15658	3.35136	3399.92	3.06895	0
0.7947	0.611396	-1.92891	-151.723	-6.25754	-338.312	-3.03462	-4.57589	3362.38	-6.38945	0
0.7953	-1.52849	0.523094	-360.765	3.8043	-323.664	3.37351	1.22453	3295.41	2.76708	0.321076
0.7960	-3.36268	5.3944	-354.35	10.5241	-305.96	7.02429	18.9158	3250.22	18.3382	0
0.7967	25.0236	-39.4609	-312.859	-118.253	-285.518	-74.4483	-108.339	3197.39	-135.185	-0.321076
0.7973	55.244	-91.6395	-310.101	-247.351	-269.968	-157.153	-274.038	3080.13	-316.152	-0.321076
0.7980	50.6586	-87.6836	-294.242	-234.231	-256.835	-152.27	-274.344	2996.25	-309.737	0
0.7987	45.4617	-77.614	-280.812	-211.619	-242.188	-140.979	-239.864	2974.23	-276.784	0
0.7993	59.5238	-80.3603	-268.28	-209.486	-227.832	-139.762	-227.361	2949.2	-274.947	0
0.8000	64.415	-78.5295	-253.021	-195.762	-214.408	-131.213	-201.114	2920.47	-257.54	0
0.8007	49.4358	-76.6986	-236.863	-185.095	-200.984	-126.946	-185.243	2891.5	-244.132	0
0.8013	34.5002	-78.2352	-223.732	-176.527	-188.782	-125.113	-176.994	2850.95	-233.139	0
0.8020	30.8318	-78.5295	-215.488	-168.314	-177.804	-123.588	-172.112	2803.68	-221.543	0
0.8027	35.4173	-72.1216	-210.002	-159.461	-167.117	-120.229	-174.561	2765.21	-210.55	0.321076
0.8033	35.1116	-63.2617	-207.573	-150.608	-156.751	-115.654	-171.193	2731.38	-199.255	0
0.8040	25.0236	-56.5595	-201.458	-141.435	-146.064	-110.463	-148.926	2692.68	-188.287	0
0.8047	14.9792	-56.5595	-188.027	-132.902	-135.057	-103.747	-125.112	2648.88	-177.898	0.321076
0.8053	-7.33676	-62.9674	-172.168	-125.898	-127.136	-98.5558	-119.924	2597.67	-168.742	-0.963229
0.8060	-52.187	-70.585	-155.68	-118.573	-119.507	-92.1477	-113.221	2542.06	-159.283	-1.60538
0.8067	-84.5474	-76.0775	-141.35	-111.249	-110.975	-84.2145	-95.2076	2488.07	-149.825	-0.321076
0.8073	-92.7576	-78.5295	-132.177	-105.134	-103.345	-79.9476	-74.7611	2428.05	-140.97	0.642153
0.8080	-99.4829	-76.4044	-123.932	-96.8853	-95.3958	-74.1402	-46.9996	2362.7	-130.606	0.321076
0.8087	-107.125	-72.7427	-116.318	-88.6367	-87.7665	-64.682	-22.5733	2298.51	-120.846	0.321076
0.8093	-91.2291	-72.1216	-112.031	-82.8414	-82.8744	-59.1982	-17.3852	2236.41	-113.501	0
0.8100	-42.7104	-72.1216	-105.645	-77.046	-77.3999	-55.8401	-19.8342	2181.03	-105.879	0.321076
0.8107	-11.2672	-70.9119	-97.1014	-71.5707	-71.2848	-50.6489	-17.3852	2136.07	-97.3259	0.321076
0.8113	-14.9355	-65.7137	-89.7566	-65.7753	-65.49	-43.6246	-11.2947	2100.15	-90.0057	0
0.8120	-14.3241	-60.5154	-83.0413	-59.98	-59.3749	-37.5245	-10.9886	2066.32	-82.9874	0
0.8127	-17.3811	-60.5154	-77.855	-56.9223	-54.5119	-35.0753	-12.8093	2017.66	-77.5035	0.321076
0.8133	-25.635	-63.5886	-72.3689	-54.4691	-49.0083	-34.7826	-8.23338	1956.25	-72.9252	0.321076
0.8140	-18.9096	-65.0925	-66.8828	-50.2026	-42.602	-34.7826	-1.53067	1890.21	-67.7432	0.321076
0.8147	-8.86525	-63.2617	-62.9255	-45.3316	-36.8072	-32.9495	-4.88203	1821.38	-61.6305	0.321076
0.8153	15.5469	-61.4308	-57.4094	-41.954	-31.3036	-29.8995	-17.3852	1752.33	-55.8196	0.321076
0.8160	43.9332	-60.5154	-51.3237	-39.8207	-26.7318	-28.3745	-25.0224	1682.81	-50.6376	0.321076
0.8167	54.6326	-58.3903	-46.737	-37.3675	-21.8397	-27.4502	-26.5531	1610.74	-46.0594	0
0.8173	61.6637	-57.148	-42.1502	-34.6298	-17.5882	-25.0163	-28.0676	1533.35	-42.4118	-0.321076
0.8180	33.8888	-57.148	-37.5934	-32.8166	-13.5989	-22.5671	-28.3738	1448.76	-39.041	0
0.8187	-15.2412	-56.8538	-32.7069	-30.3633	-9.34739	-19.5171	-24.4101	1360.01	-35.3935	0
0.8193	-24.1065	-56.8538	-25.6919	-26.0968	-4.4553	-15.8509	-19.5281	1271.49	-30.8153	0
0.8200	-0.611396	-57.148	-18.6468	-22.4347	-0.786229	-13.417	-16.789	1183.44	-26.5388	0.321076
0.8207	14.9792	-57.7692	-14.3898	-19.697	2.56253	-11.892	-16.4829	1092.6	-23.7969	0
0.8213	-24.4122	-57.7692	-11.6318	-16.9238	5.91128	-10.6751	-16.1767	994.809	-21.0298	0
0.8220	-122.061	-54.4018	-9.2035	-14.5061	9.90067	-8.84198	-14.0338	892.153	-17.0805	0.321076
0.8227	-190.406	-48.9093	-7.67458	-11.7329	13.5406	-6.70081	-12.8093	785.79	-13.1059	0.321076
0.8233	-160.23	-42.2071	-10.1029	-8.3908	15.9867	-4.86771	-11.6009	673.17	-10.364	0
0.8240	-64.677	-33.6742	-16.2185	-5.93756	16.9185	-3.65078	-9.76405	556.379	-7.62206	-0.321076
0.8247	-6.41966	-26.3509	-19.2764	-4.72871	19.3354	-2.43386	-9.15178	436.808	-5.18199	-0.321076
0.8253	-42.7104	-26.3509	-15.9188	-3.51987	22.7133	-1.50961	-8.53952	306.808	-3.64752	0
0.8260	-106.208	-30.3067	-6.44545	-1.99104	24.839	0.323487	-6.71883	167.076	-1.81118	0.321076
0.8267	-145.862	-33.6742	3.92723	0.782193	26.6736	3.06543	-4.57589	26.6487	0.930746	0.321076
0.8273	-183.419	-35.7992	7.88443	2.59546	28.5081	4.59044	-2.73909	-113.779	2.76708	0.321076
0.8280	-181.279	-35.7992	7.58464	4.44428	29.7311	5.2066	-0.918401	-257.913	3.97454	0
0.8287	-158.395	-31.8433	7.28485	6.25754	30.9541	5.80737	0.918401	-400.89	4.90528	0
0.8293	-224.295	-26.9393	6.6553	7.46639	32.4684	6.11545	1.22453	-532.743	6.11274	-0.321076
0.8300	-291.418	-24.1931	6.35551	8.71079	34.3029	6.42353	2.44907	-656.949	8.25094	0
0.8307	-231.326	-24.1931	9.41335	10.844	37.0401	7.94854	7.02496	-789.498	10.9929	0
0.8313	-100.706	-25.1085	14.0001	12.6573	38.8747	9.16547	10.0702	-937.572	13.1311	-0.321076
0.8320	55.5497	-23.8988	14.8995	12.9773	39.8065	8.56471	9.45792	-1092.6	14.6655	0
0.8327	145.862	-19.616	15.1993	13.2617	41.0295	9.16547	9.76405	-1249.94	16.5019	0.321076
0.8333	85.7702	-15.6601	17.3577	14.5061	41.9322	9.78164	10.6825	-1410.53	17.7093	0
0.8340	11.6165	-11.7042	19.786	15.1105	43.1553	11.3066	11.907	-1573.2	18.9419	0
0.8347	35.1116	-8.04257	23.4434	15.1105	44.3783	13.4478	14.3399	-1742.83	21.0801	-0.321076
0.8353	87.2987	-9.54646	26.2015	12.9773	43.4465	11.9074	13.7277	-1923.58	20.1494	-1.28431
0.8360	118.087	-13.2081	28.6298	10.844	42.5437	10.0897	11.6009	-2103.63	18.3382	-0.963229
0.8367	130.315	-13.8293	31.9874	10.5241	43.1553	12.5236	10.9886	-2283.68	19.5457	0.321076
0.8373	102.846	-12.9139	35.345	11.4485	44.058	14.3567	10.6825	-2481.58	21.382	0
0.8380	48.5187	-10.4619	37.5035	13.9017	49.5616	15.2655	11.907	-2694.77	22.2876	-0.321076
0.8387	15.8526	-8.33681	39.0324	14.7906	43.1553	12.5236	11.2947	-2907.26	21.6839	0.321076
0.8393	24.7179	-6.50598	32.9167	16.035	45.281	8.25663	7.63723	-3118.83	23.5202	0.321076
0.8400	48.8244	-0.719254	21.3149	16.035	108.15	5.49928	7.63723	-3329.47	24.1239	0
0.8407	44.2389	-2.22315	54.5914	18.7726	156.663	0.0154042	6.10656	-3532.7	19.2438	0
0.8413	24.4122	13.6331	112.57	52.0514	147.229	21.6736	17.0951	-3728.04	55.2411	-0.321076
0.8420	21.0495	63.0655	121.714	84.3702	141.114	63.4959	46.3873	-3921.54	112.922	0
0.8427	23.4951	85.0354	111.341	81.9525	141.405	71.7217	56.7636	-4108.77	119.639	0
0.8433	21.9666	76.2082	111.341	77.046	136.542	64.0967	51.5755	-4276.08	109.577	0
0.8440	21.0495	74.6716	108.284	77.046	133.193	64.4048	51.5755	-4425.54	110.482	0.321076
0.8447	20.7438	74.3774	105.256	74.6283	130.427	62.8798	50.9632	-4572.92	107.74	0.321076
0.8453	20.4381	71.9254	103.097	73.0995	127.689	61.0467	49.1425	-4711.96	104.395	0
0.8460	19.8267	70.3888	100.369	71.2507	124.341	59.5217	48.2241	-4837.09	101.954	0
0.8467	19.521	68.8849	97.9108	69.7218	121.574	57.9966	47.3057	-4953.19	99.5144	0
0.8473	19.2153	67.6426	95.7823	68.193	118.837	57.0878	46.0812	-5059.55	97.0743	0
0.8480	18.6039	65.8117	93.3241	66.0598	116.1	55.2547	44.8566	-5155.95	94.6091	-0.321076
0.8487	17.9925	63.9809	90.8958	64.5309	113.334	54.0224	43.6482	-5244.01	92.4961	-0.321076
0.8493	17.6868	62.477	88.7673	63.0377	110.596	52.8054	42.7298	-5326.5	90.3579	0
0.8500	17.0754	60.9404	86.6388	61.5088	107.859	51.2804	41.8114	-5404.6	87.9178	-0.321076
0.8507	16.7697	59.7308	84.4803	59.98	105.413	50.0635	40.893	-5476.9	85.7796	-0.321076
0.8513	16.464	58.1942	82.3518	58.4512	102.967	48.8466	39.9746	-5535.52	83.9433	0.321076
0.8520	15.8526	56.6576	80.2233	56.9223	100.521	47.3216	39.0723	-5580.71	81.8051	0
0.8527	15.5469	55.4479	78.3946	55.7135	98.3951	46.0892	38.1539	-5620.8	79.9687	-0.321076
0.8533	15.2412	54.2383	76.5659	54.4691	96.2403	45.4885	37.5417	-5658.11	78.1324	0.321076
0.8540	15.2412	52.9959	74.7372	53.2602	93.8234	44.2561	36.3171	-5691.48	75.9942	0
0.8547	14.6735	51.7863	72.8785	51.7314	91.6685	43.0392	35.3987	-5715.34	74.183	0
0.8553	14.3678	50.5766	70.75	50.5226	89.5428	41.8223	34.7864	-5737.82	72.3467	0
0.8560	13.7564	49.3343	68.9213	48.9937	87.0967	40.9134	33.8842	-5768.64	70.8122	0.321076
0.8567	13.4507	48.1246	67.3924	48.0693	85.2622	39.6811	33.2719	-5801.08	69.3029	0
0.8573	13.145	47.2092	65.8635	46.8605	83.4277	38.7723	32.3535	-5831.67	67.7684	0
0.8580	12.8393	45.9996	64.0348	45.6161	81.3019	37.5553	31.4351	-5865.97	65.9321	0
0.8587	12.5336	44.7572	62.5058	44.4072	79.4674	36.6311	30.5167	-5905.82	64.0957	0
0.8593	12.2279	44.1687	60.9769	43.4828	77.9532	35.7222	29.9044	-5946.61	62.5864	0
0.8600	11.9222	42.9264	59.478	42.274	76.1187	34.798	29.5983	-5986	61.3538	0.321076
0.8607	11.6165	41.7167	57.9491	41.0651	73.6726	33.8891	29.0021	-6010.33	59.8193	0.321076
0.8613	11.3108	40.5071	56.4201	40.1407	72.1584	32.9649	28.0837	-6022.85	58.31	-0.321076
0.8620	11.0051	39.5917	54.8912	39.2163	70.615	32.3641	27.1653	-6037.91	56.7755	0
0.8627	11.0051	38.9705	53.9619	38.2919	69.1008	31.4399	26.5531	-6044.17	55.2411	0
0.8633	10.6994	38.0551	52.7627	37.403	67.2663	30.8391	26.2469	-6051.35	54.0336	-0.321076
0.8640	10.3937	37.1397	51.5336	36.7631	66.0433	29.9149	25.6347	-6068.96	53.128	0
0.8647	10.3937	36.2242	50.0047	35.8742	64.5291	29.3141	25.0224	-6079.16	51.5935	0.321076
0.8653	9.78234	35.0146	48.4758	34.3454	62.6945	28.3899	23.814	-6085.88	49.7572	-0.963229
0.8660	9.47664	34.0992	47.5764	33.741	61.4715	27.7891	22.8956	-6097.46	48.2227	-1.92646
0.8667	9.47664	33.7722	46.647	33.421	60.2485	27.481	22.8956	-6100.94	47.619	-0.642153
0.8673	9.17095	32.8568	45.4179	32.2121	58.7051	26.5568	22.8956	-6104.65	46.7134	0
0.8680	8.86525	31.9414	44.2188	31.2877	57.1909	25.956	22.2833	-6115.31	45.7827	0
0.8687	9.17095	31.3529	43.2894	30.9677	56.2882	25.3398	21.9772	-6124.81	44.5752	0
0.8693	8.55955	30.7318	42.0603	30.0789	54.7449	24.7391	21.0588	-6132.22	43.6445	0
0.8700	8.25385	29.8163	41.1609	29.1545	53.5218	24.1229	20.7526	-6141.72	42.437	0
0.8707	7.94815	28.9009	39.9318	28.2301	52.0076	23.1987	20.4465	-6151.92	41.2044	0
0.8713	7.64246	27.9855	38.7027	27.3056	50.7846	22.2898	19.5281	-6154.7	40.2988	0
0.8720	7.64246	27.6586	38.1031	27.0212	49.5616	21.9817	19.222	-6148.91	39.3932	0
0.8727	7.64246	27.3643	37.1737	26.4168	48.6589	21.6736	19.222	-6150.06	38.4625	0.321076
0.8733	7.64246	26.7432	36.2744	26.0968	47.727	21.381	18.3197	-6154.7	37.255	0
0.8740	7.33676	26.1547	35.345	25.4924	46.504	20.7648	18.0135	-6147.98	36.6261	-0.321076
0.8747	7.03106	25.2393	34.4457	24.248	45.281	19.856	17.7074	-6143.35	36.0224	0
0.8753	6.72536	24.3239	33.5163	23.6436	44.058	19.2398	17.4013	-6144.27	35.1168	0.321076
0.8760	6.72536	23.9969	32.9167	23.3591	43.4465	18.9317	16.789	-6145.66	34.1861	0.321076
0.8767	6.41966	23.4084	31.6876	22.7547	42.2234	18.3309	16.789	-6147.98	33.2805	0
0.8773	6.41966	22.7873	30.7883	22.1147	41.3207	18.0229	16.1767	-6146.13	32.3749	0
0.8780	6.11396	22.1661	30.1587	21.8303	40.0977	17.7148	15.8706	-6138.94	31.746	0
0.8787	5.80827	21.8719	29.5591	21.2259	39.195	17.0986	15.8706	-6125.73	31.1423	0.321076
0.8793	5.80827	21.5776	28.6298	20.5859	38.5835	16.7905	15.2583	-6121.79	30.2367	0.321076
0.8800	5.80827	20.6622	28.0302	19.697	37.3605	16.1898	14.6461	-6131.76	29.3059	0
0.8807	5.80827	20.3353	27.4306	19.3771	36.4286	15.8817	14.0338	-6136.63	28.4003	-0.321076
0.8813	5.50257	19.7468	26.8011	19.0926	35.8171	15.5736	13.7277	-6140.8	27.7966	0
0.8820	5.50257	19.4199	26.2015	18.7726	34.9144	15.2655	13.7277	-6144.74	27.4696	0
0.8827	5.19687	18.8314	25.2721	17.8482	33.9826	14.6648	13.4377	-6141.03	26.8659	0.321076
0.8833	4.89117	18.2102	24.6726	17.2438	33.0799	14.3567	13.1315	-6140.1	25.9603	0
0.8840	5.19687	18.2102	24.3728	17.2438	32.4684	14.0486	12.5193	-6145.66	25.3565	0
0.8847	4.89117	17.589	23.7732	16.9238	31.8568	13.7405	12.5193	-6145.89	24.7277	-0.321076
0.8853	4.58547	17.0005	22.8439	16.3194	30.9541	13.4478	12.5193	-6141.03	24.4258	0
0.8860	4.58547	16.6736	22.2443	16.035	30.0223	13.1397	11.907	-6141.72	23.5202	0
0.8867	4.27977	16.0851	21.9145	15.715	29.4108	12.5236	11.6009	-6139.41	22.9165	0
0.8873	4.27977	16.0851	21.3149	15.1105	28.7993	12.5236	11.6009	-6134.54	22.5895	0.321076
0.8880	4.27977	15.7582	20.7154	14.7906	28.1878	12.2155	10.9886	-6141.72	21.9857	0.321076
0.8887	3.97408	15.1697	20.0858	14.1861	27.2851	11.3066	10.6825	-6148.44	21.382	-0.321076
0.8893	3.97408	14.8428	19.786	13.9017	26.6736	11.3066	10.6825	-6144.74	21.0801	0
0.8900	3.97408	14.5485	19.1864	13.9017	26.3532	11.3066	10.3763	-6136.63	20.1494	0
0.8907	3.97408	14.2543	18.8867	13.2617	25.7709	10.9986	9.76405	-6117.16	19.8475	0
0.8913	3.97408	13.9274	18.2571	13.2617	25.1593	10.6905	9.76405	-6096.54	19.2438	0
0.8920	3.97408	13.6331	17.9573	12.9773	24.5478	10.3824	9.76405	-6094.91	18.9419	0
0.8927	3.66838	13.012	17.3577	12.3729	23.9363	10.0897	9.45792	-6088.43	18.3382	0
0.8933	3.66838	13.012	17.058	12.3729	23.3248	10.0897	8.84565	-6069.89	17.7093	-0.321076
0.8940	3.97408	13.012	16.7282	12.0529	23.0045	9.78164	8.84565	-6041.15	17.7093	0
0.8947	3.05698	12.0965	16.1286	11.4485	22.1018	8.85739	8.84565	-6004.31	17.1056	-0.321076
0.8953	2.75128	11.5081	15.529	10.844	21.4903	8.56471	7.94336	-5992.72	15.873	-1.28431
0.8960	3.05698	12.0965	15.529	11.4485	21.4903	9.16547	7.94336	-6003.61	15.873	-1.28431
0.8967	3.36268	11.8023	15.1993	10.844	20.8788	8.85739	8.53952	-6017.75	16.2	0
0.8973	3.05698	11.1811	14.5997	10.2396	19.9469	8.56471	8.2495	-6040.23	15.873	0.321076
0.8980	3.05698	10.8869	14.2999	10.2396	19.6557	8.25663	7.94336	-6059.46	15.2693	0
0.8987	3.05698	10.5926	14.0001	10.2396	19.0442	8.25663	7.63723	-6079.62	14.9674	0
0.8993	2.75128	10.2657	13.7003	9.91963	18.7239	7.94854	7.3311	-6100.01	14.6655	0
0.9000	2.75128	10.2657	13.3706	9.59964	18.4327	7.64046	7.3311	-6101.63	14.0618	0
0.9007	2.75128	9.97148	13.0708	9.31521	17.8212	7.64046	7.02496	-6095.84	13.76	0
0.9013	2.75128	9.67724	12.4712	8.99522	17.53	7.33238	6.71883	-6081.24	13.1311	0
0.9020	2.44559	9.67724	12.4712	8.71079	17.2097	7.33238	6.71883	-6057.14	12.8292	-0.321076
0.9027	2.44559	9.3503	12.1714	8.71079	16.5982	7.02429	6.71883	-6051.35	12.8292	-0.321076
0.9033	2.44559	9.05606	11.5418	8.3908	16.307	6.73162	6.41269	-6052.51	12.5273	0
0.9040	2.13989	8.43489	11.2421	8.10636	15.6955	6.42353	6.41269	-6049.26	12.2255	0
0.9047	2.13989	8.43489	10.9423	7.78638	15.3752	6.42353	6.41269	-6052.51	11.9236	0.321076
0.9053	2.44559	8.43489	10.9423	8.10636	15.084	6.42353	6.10656	-6059.23	11.9236	0.321076
0.9060	2.13989	8.14065	10.6425	7.78638	14.7636	6.11545	5.80043	-6067.57	11.3199	0
0.9067	2.13989	7.84641	10.3427	7.46639	14.4724	5.80737	5.80043	-6077.53	10.9929	0
0.9073	2.13989	7.84641	10.3427	7.18195	14.1521	5.80737	5.80043	-6086.11	10.9929	0
0.9080	1.83419	7.51947	10.0129	7.18195	13.8609	5.49928	5.80043	-6094.91	10.691	0
0.9087	1.83419	7.22523	9.71314	6.86197	13.2494	5.49928	5.49429	-6105.34	10.3891	0
0.9093	1.83419	7.22523	9.41335	6.57753	13.2494	5.2066	5.18816	-6116.23	10.0873	0
0.9100	1.83419	7.22523	9.11356	6.57753	12.9291	5.2066	4.88203	-6125.04	9.78541	0
0.9107	2.13989	7.22523	9.11356	6.57753	12.6379	5.2066	5.18816	-6127.59	9.78541	0.321076
0.9113	2.13989	6.93099	8.81377	6.25754	12.3176	5.2066	4.88203	-6128.75	9.48355	0
0.9120	1.83419	6.93099	8.51399	6.25754	12.0264	4.89852	4.88203	-6129.21	9.18169	-0.321076
0.9127	1.52849	6.60406	8.18422	5.93756	11.7061	4.89852	4.88203	-6125.97	9.18169	0.321076
0.9133	1.52849	6.30982	7.88443	5.65312	11.4149	4.59044	4.57589	-6124.81	8.5528	0
