MR32 ASCII
Name	KneeFJC2
Frequency	1500
Date	11-09-2015 09:05:01
"Time,s"	"RT TIB.ANT.,uV"	"RT MED. GASTRO,uV"	"RT LAT. GASTRO,uV"	"RT BICEPS FEM.,uV"	"RT VMO,uV"	"RT VLO,uV"	"RT RECTUS FEM.,uV"	"RT SOLEUS,uV"	"RT SEMITEND.,uV"	"Channel 12,uV"
0.0000	0.891849	-7.10877	5.72535	1.80682	1.40472	2.16812	3.06562	-34.69	0.886798	-9531.02
0.0007	-0.339752	-11.9931	1.75564	0.584996	-0.11706	0.325219	1.23373	-29.5003	0.271582	-10271.5
0.0013	0	-7.41478	-4.04774	-1.54765	-1.63884	-2.09585	-1.50789	-33.1656	-1.2526	-9532.94
0.0020	-0.339752	1.12987	-14.7279	-0.940437	-1.05354	-1.19247	-0.59817	-24.6187	-1.2526	-9884.08
0.0027	0	4.79018	-8.92453	1.50322	0.760891	1.26474	1.53281	19.9318	0.886798	-9838.54
0.0033	2.12345	1.74188	11.519	1.50322	1.11207	1.87904	1.84436	58.6925	1.19164	-9795.25
0.0040	3.0153	-1.61242	20.6776	-0.333226	-0.11706	0.0361354	0.934641	45.5722	-0.0332549	-9819.95
0.0047	1.82617	-6.80276	8.77822	-0.940437	-1.63884	-2.09585	-1.2088	-4.78428	-1.55744	-9818.98
0.0053	0.594566	-8.02679	1.75564	-0.333226	-1.05354	-1.19247	-0.897255	-31.3329	-1.2526	-9811.61
0.0060	-0.934318	-2.83645	6.94455	0.584996	1.11207	1.26474	1.23373	-22.7861	0.581961	-9794.93
0.0067	-1.2316	1.12987	1.75564	1.19221	1.69737	1.87904	1.53281	-22.1698	1.49647	-9915.19
0.0073	-0.339752	2.3539	-9.84136	0.584996	0.17559	0.325219	0.0124619	-32.8574	-0.0332549	-9669.87
0.0080	1.18913	1.12987	-19.6047	-0.940437	-1.63884	-2.09585	-2.11852	-30.4247	-2.16711	-9779.54
0.0087	1.18913	1.43588	-11.9774	-0.636831	-1.05354	-2.09585	-1.50789	-15.7638	-1.55744	-10507.5
0.0093	1.82617	8.14449	15.1863	1.80682	1.11207	1.26474	1.84436	-9.04958	1.19164	-6437.17
0.0100	4.2469	18.5252	17.0102	2.41404	1.99002	2.16812	2.45499	-27.3596	1.19164	-284.757
0.0107	4.2469	22.4915	-3.43326	0.281391	0.468241	0.0361354	0.0124619	-47.5022	-0.338092	106.463
0.0113	0.297283	10.2865	-10.1437	-1.54765	-1.63884	-2.71016	-2.11852	-41.0961	-1.86228	-285.078
0.0120	-0.934318	-2.53044	-13.1966	-0.636831	-1.05354	-1.48155	-1.81943	-13.3311	-1.55744	66.0585
0.0127	-0.339752	-2.53044	-18.0831	1.50322	1.69737	1.55382	1.23373	15.9746	-0.338092	20.2024
0.0133	-3.05777	-0.0941559	-21.136	1.80682	1.99002	1.87904	2.75407	27.2623	-0.338092	-23.0884
0.0140	-5.81825	-3.44846	-21.4384	-0.940437	0.468241	0.650437	1.53281	30.9275	-0.642929	1.60336
0.0147	-5.81825	-5.57874	-5.26693	-5.82034	-1.05354	-1.48155	-1.2088	40.3825	-2.16711	-0.962017
0.0153	-4.28937	4.48418	18.2294	-6.43496	-0.11706	-0.578166	-0.59817	50.4538	-2.16711	-0.962017
0.0160	-3.05777	9.67452	13.3526	-3.38409	1.69737	1.87904	2.14344	53.5028	-0.338092	-0.962017
0.0167	-0.637035	-1.30641	-23.272	-2.16226	2.28267	2.45721	2.75407	50.762	0.271582	-0.641344
0.0173	-0.339752	-6.19075	-53.791	-2.16226	1.11207	0.650437	1.53281	28.1705	-0.0332549	-0.641344
0.0180	-0.934318	-1.61242	-32.1185	-2.76948	-0.760891	-2.42107	-1.2088	-34.9982	-1.86228	-0.641344
0.0187	1.18913	0.517857	11.8213	-3.08049	-0.409711	-2.09585	-1.81943	-70.6937	-1.86228	-0.320672
0.0193	1.82617	-4.06047	27.3881	-1.24404	1.11207	0.650437	1.23373	-54.5245	0.271582	-0.320672
0.0200	-0.934318	-6.19075	23.7305	4.85769	0.760891	1.87904	3.36471	-41.0961	2.41098	-0.320672
0.0207	-4.88393	-10.1571	5.41324	9.13039	-0.760891	-0.289083	0.623094	-26.1432	2.41098	-0.320672
0.0213	-8.87602	-17.4895	-5.26693	5.1613	-1.63884	-2.42107	-2.72915	-1.11903	0.271582	-0.320672
0.0220	-7.64442	-11.6871	3.58932	1.80682	-0.760891	-0.578166	-0.897255	61.1414	0.581961	0
0.0227	-1.86864	-2.83645	3.2772	2.11043	0.760891	0.93952	1.53281	101.719	1.80131	-0.320672
0.0233	3.94962	-5.2845	15.4887	3.63586	0.760891	0.325219	1.84436	62.6659	2.10615	-1.60336
0.0240	7.60195	-4.36648	35.0154	11.8776	0.760891	-0.578166	1.23373	28.1705	2.41098	-1.28269
0.0247	6.7101	7.23824	14.8742	22.2521	-0.409711	-1.80677	-0.59817	6.81151	0.581961	0
0.0253	3.94962	16.3831	-0.994865	28.6574	-0.760891	-0.86725	-0.286623	-32.5493	-0.338092	-0.320672
0.0260	2.71801	7.83848	8.16375	31.1011	1.11207	0.93952	1.23373	-46.594	1.19164	-1.60336
0.0267	3.65233	-3.75447	0.536447	30.1903	1.69737	1.26474	2.75407	-15.4556	2.41098	-0.962017
0.0273	3.94962	-4.97849	-10.4558	24.6957	0.468241	0.93952	2.14344	22.9807	0.886798	0.320672
0.0280	0	-11.0751	-4.3501	16.7576	-1.34619	-1.19247	-1.81943	60.217	-1.86228	0.320672
0.0287	-1.2316	-19.3137	1.14117	9.43399	-1.34619	-0.86725	-1.50789	111.482	-1.86228	-0.320672
0.0293	3.65233	-17.1835	10.2998	-7.65679	0.17559	1.26474	1.53281	112.714	-0.0332549	-0.962017
0.0300	6.37035	-5.57874	23.116	-30.2347	1.69737	2.16812	1.84436	21.7644	1.49647	-1.28269
0.0307	2.71801	7.53247	25.5544	-35.7292	1.11207	0.325219	0.934641	-65.5202	1.80131	-1.28269
0.0313	0	14.5589	21.8968	-27.4948	-0.760891	-2.09585	-0.59817	-77.7161	0.581961	-0.962017
0.0320	1.82617	11.5106	14.8742	-18.3348	-0.409711	-0.578166	-0.59817	-39.2635	-0.338092	0
0.0327	2.71801	2.6599	8.16375	-12.8403	1.11207	1.87904	1.53281	-5.09241	0.581961	0
0.0333	2.12345	2.04789	4.4964	-12.5367	1.69737	2.78243	2.45499	-8.14138	0.581961	0
0.0340	2.12345	4.17817	-1.29723	-12.2331	0.468241	1.26474	0.324009	-19.1209	-2.16711	-0.320672
0.0347	3.0153	1.43588	-14.1134	-12.5367	-1.05354	-1.80677	-3.0407	-19.429	-4.61135	-0.320672
0.0353	2.42073	3.87216	-26.6273	-12.2331	-0.11706	-0.86725	-1.81943	-18.2127	-3.08162	0
0.0360	1.18913	8.45049	-26.0128	-11.9295	1.99002	1.55382	1.84436	-15.4556	0.271582	0
0.0367	1.18913	15.4769	-20.5215	-6.43496	1.40472	1.55382	2.14344	-11.1903	0.581961	0
0.0373	0.297283	32.5662	-17.1663	10.3522	0.17559	-0.289083	0.324009	9.86047	-1.55744	0
0.0380	-1.86864	24.3275	-2.51642	28.9684	-1.05354	-2.09585	-1.2088	39.1662	-3.38646	0
0.0387	-2.4632	-15.9594	13.3526	43.3119	-0.11706	-1.19247	-0.897255	49.2375	-2.77679	0
0.0393	-2.76048	-28.4704	13.3526	51.5463	1.99002	1.26474	2.45499	60.217	0.271582	0
0.0400	-2.4632	-9.55682	4.4964	53.0718	1.69737	2.45721	3.97534	52.9027	0.886798	0
0.0407	-1.86864	0.517857	-4.65246	49.4137	0.760891	1.55382	1.84436	17.191	-0.947766	0
0.0413	-3.05777	14.5589	-12.2798	31.1011	-0.760891	-1.80677	-1.81943	15.0502	-3.6913	0
0.0420	-3.39752	46.5954	-3.1309	8.21216	-0.760891	-1.48155	-1.50789	26.646	-5.52586	0
0.0427	-2.4632	50.5735	9.08058	-2.16226	0.760891	2.45721	2.14344	5.28703	-6.13553	0
0.0433	-3.99208	16.3831	-11.675	-47.3255	1.69737	3.07151	3.67625	-24.9269	-5.52586	0
0.0440	-3.39752	-5.88474	-23.8768	-119.347	1.11207	1.26474	1.53281	-20.0453	-3.08162	-0.320672
0.0447	3.94962	-13.2171	3.58932	-119.043	-1.34619	-0.289083	-1.2088	31.2356	-0.642929	0
0.0453	9.42811	-15.3474	21.5944	-65.0309	-1.05354	0.0361354	-0.286623	84.333	0.581961	0
0.0460	6.07306	-5.88474	17.0102	-25.3548	1.40472	1.87904	3.06562	108.741	2.41098	0
0.0467	0	-12.2991	13.655	3.33226	1.40472	3.39673	3.97534	107.833	6.98908	-0.320672
0.0473	-1.2316	-40.3693	16.4055	24.9993	-0.760891	1.55382	1.53281	38.5499	9.12294	-0.320672
0.0480	1.18913	-54.4103	9.6853	36.5956	-1.99002	-1.48155	-2.11852	-80.7651	5.76973	0
0.0487	2.42073	-52.5861	-9.539	41.1719	-1.05354	-0.86725	-1.50789	-132.954	3.93517	0
0.0493	-0.339752	-42.8174	-14.7279	31.1011	1.69737	1.87904	2.14344	-107.314	5.15451	0
0.0500	-2.16592	-32.1307	-10.4558	3.33226	2.63385	2.78243	3.36471	-70.4018	3.32549	0
0.0507	-2.16592	-34.2728	-15.3326	-17.113	0.468241	0.93952	1.23373	-43.545	-0.642929	0
0.0513	-2.4632	-9.25082	-3.43326	-13.7585	-2.28267	-2.09585	-2.11852	-22.7861	-3.08162	-0.320672
0.0520	-1.86864	37.1445	4.80851	-3.9913	-0.760891	-0.86725	-0.897255	-15.7638	-1.2526	0
0.0527	-0.637035	42.6291	-28.1488	2.11043	1.99002	2.16812	2.45499	-28.284	1.49647	0
0.0533	0	26.4578	-49.5189	20.1194	1.40472	1.55382	2.75407	-27.0676	3.02066	-0.962017
0.0540	0.891849	18.2192	-10.1437	48.7991	0.760891	-0.86725	1.23373	-6.00062	4.54484	-1.28269
0.0547	0.594566	11.8048	32.577	60.4027	-0.409711	-2.71016	-1.50789	0.713587	1.80131	0
0.0553	-0.637035	13.0288	25.8665	62.5354	0.17559	-1.48155	-0.897255	-2.64351	-0.947766	0.320672
0.0560	-0.934318	14.2529	10.9143	73.5244	1.69737	0.325219	2.14344	-6.6169	-0.338092	-0.320672
0.0567	1.18913	7.83848	14.8742	93.0514	2.28267	-0.289083	2.45499	-12.1148	-0.947766	-1.28269
0.0573	3.94962	2.6599	42.0379	111.971	1.40472	-0.578166	0.934641	-3.56793	-3.08162	-0.962017
0.0580	0.594566	-0.706169	65.8367	111.364	-0.760891	-1.19247	-0.897255	7.42779	-5.52586	0.320672
0.0587	-2.16592	-4.36648	40.5164	111.364	-0.11706	-1.80677	-1.2088	12.6175	-4.30097	0
0.0593	1.48641	-0.0941559	0.224332	115.637	1.99002	0.93952	1.84436	24.2133	-0.947766	-0.320672
0.0600	3.0153	5.40219	-15.0303	50.3319	1.69737	2.45721	3.36471	40.9988	-1.55744	0.320672
0.0607	0	6.01421	-19.3023	-56.4855	-0.409711	0.650437	0.934641	46.4804	-2.16711	0.320672
0.0613	-3.99208	6.62622	-19	-90.9706	-2.57532	-0.86725	-2.43007	2.54621	-1.86228	0
0.0620	-4.28937	11.8048	-9.23664	-66.8599	-1.34619	0.650437	-1.81943	-64.5958	-1.86228	0
0.0627	-2.76048	13.0288	6.33007	-36.951	0.760891	2.16812	1.23373	-75.5753	1.19164	0
0.0633	-1.86864	5.7082	15.791	-66.2453	0.760891	1.87904	2.14344	-47.194	2.41098	0
0.0640	-0.339752	-1.01218	10.2998	-161.466	-0.760891	0.325219	0.324009	-25.5269	-2.47195	0.320672
0.0647	-0.637035	-2.83645	-0.682751	-169.094	-2.28267	-1.80677	-2.43007	-16.0719	-6.13553	0
0.0653	-0.339752	-2.53044	-1.59959	-87.9124	-1.34619	-0.289083	-1.2088	-22.1698	-3.38646	-0.320672
0.0660	1.48641	-4.67249	-0.994865	-40.6165	1.11207	3.07151	1.84436	-24.0025	1.19164	0
0.0667	0.297283	2.3539	-4.65246	-26.8802	1.99002	2.78243	3.67625	-15.1637	3.63033	0.320672
0.0673	-0.339752	14.5589	-6.48613	-21.3857	0.17559	0.325219	2.14344	-10.8822	6.3794	0
0.0680	2.42073	10.2865	-4.04774	-21.3857	-1.05354	-2.09585	-1.81943	-3.56793	9.73261	0
0.0687	3.35505	7.23824	-5.56929	-20.7785	0.17559	-0.578166	-0.897255	22.0725	12.1768	0
0.0693	-1.2316	11.2046	-27.8465	-18.3348	1.99002	3.68581	3.06562	66.3311	11.2623	0
0.0700	-5.22368	1.12987	-42.194	-18.9494	1.99002	3.68581	3.06562	98.9777	6.98908	0
0.0707	-3.6948	-6.49676	-12.5919	-26.8802	0.760891	0.650437	0.623094	86.7657	-0.947766	-0.320672
0.0713	-1.86864	-3.75447	32.577	-31.1529	-1.63884	-1.48155	-2.11852	33.6683	-4.91619	-0.320672
0.0720	0	-2.53044	39.5995	-21.6893	-1.34619	0.0361354	-1.50789	-28.5921	0.886798	0
0.0727	1.82617	0.517857	7.54927	-13.1513	1.11207	3.07151	2.75407	-55.4489	5.45935	0
0.0733	1.82617	5.7082	-16.8639	-14.0621	1.69737	4.01103	3.67625	-35.3063	3.93517	0
0.0740	1.18913	6.01421	-26.9296	-17.424	0.468241	1.55382	0.623094	-29.1922	1.80131	0
0.0747	0	-1.01218	-29.9825	-19.253	-1.34619	-2.09585	-3.33978	-49.0267	-0.947766	0
0.0753	-0.934318	-3.44846	-10.1437	-15.8912	-0.11706	-1.48155	-2.11852	-44.4532	-0.642929	-0.320672
0.0760	-0.339752	3.87216	14.2695	-12.5367	1.69737	1.55382	2.45499	-6.6169	2.41098	0.320672
0.0767	2.42073	6.01421	12.1335	-6.73856	1.99002	2.16812	3.06562	47.4049	2.71582	0.320672
0.0773	2.12345	-2.53044	2.67248	14.6249	1.11207	0.325219	0.623094	63.8822	0.886798	0
0.0780	-2.76048	-4.97849	6.94455	37.8174	-1.34619	-2.09585	-2.72915	4.67075	-0.947766	0
0.0787	-4.58665	-1.30641	12.4358	50.0209	-1.05354	-1.80677	-2.43007	-70.4018	-0.642929	0
0.0793	-2.16592	-4.67249	9.99742	57.0408	1.11207	0.93952	1.84436	-93.9015	1.80131	0
0.0800	-0.637035	-7.72078	1.14117	52.1609	1.40472	1.87904	3.36471	-69.4774	2.71582	0
0.0807	-1.86864	-6.19075	-13.5087	38.4246	0.17559	0.0361354	0.0124619	-41.7124	0.581961	0
0.0813	-4.28937	-2.83645	-25.7104	22.8593	-1.34619	-2.42107	-3.33978	-31.3329	-1.86228	-0.320672
0.0820	-3.05777	12.4168	-16.2495	7.60495	-0.409711	-1.19247	-2.11852	-12.4067	-0.642929	0
0.0827	0.891849	21.2675	17.3224	-2.46587	1.40472	1.87904	0.934641	12.3094	1.80131	0
0.0833	0.891849	9.67452	33.1914	-24.1329	1.40472	0.93952	1.23373	14.4501	1.80131	-1.60336
0.0840	-0.339752	-1.91843	1.14117	-62.5872	-0.11706	-0.86725	0.0124619	-1.42717	0.886798	-0.962017
0.0847	-0.637035	-7.10877	-39.1411	-74.1835	-1.63884	-1.80677	-1.81943	-13.9312	-1.86228	0.320672
0.0853	0.297283	-6.19075	-27.2417	-47.3255	-1.05354	-0.578166	-1.2088	-14.2393	-2.47195	0
0.0860	3.65233	-1.91843	21.8968	-20.4749	1.11207	1.87904	0.934641	3.14627	-0.0332549	-0.320672
0.0867	4.54418	-1.61242	38.3803	-8.5676	1.40472	2.16812	1.84436	51.6702	1.19164	0
0.0873	1.82617	-3.44846	22.8136	-4.90953	0.17559	0.0361354	-0.286623	99.8859	-0.338092	0
0.0880	-1.52888	-9.55682	9.38294	-5.51674	-1.99002	-3.32446	-3.0407	95.0043	-2.77679	0
0.0887	-4.28937	-12.6051	-4.04774	-2.76948	-1.34619	-2.09585	-1.50789	46.4804	-1.55744	0.320672
0.0893	-2.4632	-8.3328	-13.1966	7.30135	1.40472	1.26474	1.53281	4.07069	0.581961	0
0.0900	3.0153	-4.67249	-25.4081	19.2012	1.99002	1.55382	1.84436	-3.25979	0.581961	0
0.0907	0.594566	-0.706169	-30.597	25.6065	0.468241	-0.86725	0.0124619	11.093	-1.2526	0
0.0913	-7.9417	1.12987	-21.7407	25.6065	-1.34619	-3.32446	-3.33978	11.6931	-3.38646	0
0.0920	-10.1076	2.96591	-24.7936	24.9993	-0.409711	-1.48155	-2.11852	-7.5251	-2.16711	0
0.0927	-6.41282	24.0215	-23.8768	22.5557	2.9265	1.55382	2.14344	-4.47614	0.886798	0
0.0933	2.71801	36.8385	-29.9825	17.3722	2.9265	1.26474	2.45499	20.5481	0.886798	0
0.0940	14.0148	10.8985	-70.8793	7.60495	0.468241	-0.578166	-0.286623	19.9318	-1.86228	0
0.0947	13.7175	-1.30641	-82.7786	-16.2022	-1.34619	-2.09585	-3.33978	14.4501	-4.91619	-0.320672
0.0953	3.0153	11.2046	-15.0303	-38.1729	-0.760891	-0.86725	-1.81943	30.0031	-3.6913	-0.320672
0.0960	-3.99208	9.98053	46.6124	-36.0328	1.40472	2.16812	2.14344	45.8804	-0.0332549	0
0.0967	-6.11553	-2.22443	44.174	-23.5257	1.99002	2.45721	2.45499	58.0762	0.581961	0
0.0973	-6.41282	-19.9257	20.9799	-14.9803	-0.409711	-0.578166	0.0124619	72.1209	-1.55744	0
0.0980	-1.2316	-27.8584	-8.3198	-7.65679	-2.86797	-2.42107	-2.72915	116.071	-3.38646	0
0.0987	3.65233	-23.5861	11.8213	0.281391	-1.34619	-1.19247	-1.81943	163.071	-2.47195	0
0.0993	2.12345	-19.9257	69.504	5.77591	0.468241	1.26474	1.84436	107.525	0.271582	0
0.1000	1.48641	-5.88474	62.1791	9.13039	0.760891	2.16812	3.06562	-18.5208	1.49647	0
0.1007	4.2469	14.2529	16.4055	9.43399	-0.11706	-0.289083	-0.286623	-93.5934	0.271582	0
0.1013	3.94962	13.6408	-0.38039	6.38312	-2.28267	-3.61354	-4.26196	-98.475	-1.55744	0.320672
0.1020	0.594566	-1.01218	6.33007	6.38312	-0.409711	-2.42107	-2.11852	-93.9015	-1.2526	0
0.1027	-1.86864	-0.400163	2.36037	5.1613	2.28267	0.93952	1.53281	-97.2586	-0.0332549	0
0.1033	-3.6948	5.09619	2.36037	-9.48583	1.99002	1.55382	2.45499	-88.4037	-1.86228	0
0.1040	-3.39752	-4.67249	24.3352	-24.4366	0.468241	-1.48155	0.623094	-83.214	-5.8307	0
0.1047	-1.2316	-8.94481	32.2746	-27.4948	-0.760891	-3.61354	-2.43007	-76.8079	-8.87907	0
0.1053	0.594566	-8.3328	38.0682	-26.8802	0.17559	-1.19247	-0.897255	-47.5022	-9.79912	-0.320672
0.1060	2.12345	-13.2171	49.3629	-20.1639	1.69737	1.87904	2.75407	-33.4737	-8.57423	-0.320672
0.1067	2.71801	-15.6534	29.8264	-3.08049	1.69737	1.55382	2.75407	-46.594	-6.13553	0
0.1073	1.18913	-10.4631	-4.65246	3.33226	0.17559	-0.289083	0.0124619	-47.8103	-5.52586	-0.320672
0.1080	-1.2316	9.98053	-20.8239	-1.54765	-1.99002	-2.71016	-3.95041	-61.855	-6.74521	-0.320672
0.1087	-2.16592	30.1181	-22.0528	7.30135	-1.05354	-1.80677	-3.33978	-94.1935	-3.99613	-0.320672
0.1093	-0.637035	22.4915	-24.1889	23.7775	1.99002	1.87904	0.934641	-80.165	2.10615	-0.320672
0.1100	0.594566	1.74188	-27.2417	36.8992	1.40472	3.07151	1.23373	-41.4043	5.76973	0
0.1107	1.82617	-8.3328	-22.6576	44.5338	-1.34619	-0.289083	-0.59817	-20.6454	3.63033	0
0.1113	2.42073	-8.02679	3.58932	36.292	-2.57532	-3.61354	-3.65133	25.1215	-1.55744	-0.320672
0.1120	1.18913	-7.72078	42.6524	13.7067	-0.760891	-0.86725	-2.43007	46.1885	-3.6913	-0.320672
0.1127	0.891849	-9.25082	53.9373	-20.1639	1.11207	3.07151	1.53281	-7.83324	-4.91619	0
0.1133	2.12345	-3.75447	52.7181	-29.0203	1.11207	1.55382	1.53281	-51.4756	-5.22102	-1.28269
0.1140	3.65233	8.45049	68.5872	6.38312	-0.11706	-0.86725	-0.59817	-14.2393	-3.6913	-1.60336
0.1147	3.94962	11.2046	63.3983	26.5248	-1.99002	-0.86725	-2.72915	48.9293	-2.16711	0
0.1153	3.65233	5.09619	14.5718	20.7266	-1.99002	0.93952	-1.81943	46.7886	0.271582	0.320672
0.1160	3.65233	4.48418	-40.6627	28.9684	0.17559	4.01103	2.14344	13.2176	4.54484	0
0.1167	0.891849	4.17817	-64.159	44.5338	0.760891	3.68581	3.06562	5.90331	7.59875	0.320672
0.1173	-0.934318	-0.706169	-66.9096	48.1918	-1.05354	0.0361354	-0.897255	8.95227	6.68424	0
0.1180	0.594566	-0.706169	-68.1288	40.8683	-2.57532	-2.42107	-5.17168	10.1686	4.24	-0.320672
0.1187	-0.637035	2.96591	-56.5317	31.4047	-1.05354	-0.578166	-2.72915	15.6665	7.29391	0
0.1193	-3.05777	10.2865	-44.33	25.6065	1.11207	2.45721	1.84436	20.8562	10.6527	0
0.1200	-3.39752	12.1108	-42.7987	-1.24404	0.468241	2.45721	2.75407	21.4563	8.51326	0.320672
0.1207	-5.52097	-10.7691	-23.8768	-58.0109	-1.34619	-0.86725	-0.897255	18.7154	3.02066	0
0.1213	-7.9417	-36.709	11.8213	-78.7598	-2.57532	-2.71016	-4.26196	15.9746	-1.2526	0
0.1220	-5.52097	-43.7354	28.3049	-46.7183	-1.05354	-0.578166	-1.50789	24.8134	-0.338092	-0.320672
0.1227	-2.76048	-46.7837	20.6776	-20.1639	0.760891	1.87904	1.84436	49.5456	2.10615	-0.320672
0.1233	-2.4632	-43.1234	6.33007	-12.5367	0.760891	1.55382	1.84436	50.1457	2.71582	0
0.1240	-1.52888	-22.6798	-13.8111	-8.264	-1.05354	-0.86725	-0.286623	15.9746	1.19164	0.320672
0.1247	0.297283	18.2192	-39.7458	-6.13135	-2.57532	-3.32446	-3.33978	44.3559	-0.642929	0
0.1253	0.297283	58.8121	-39.7458	-0.022215	-1.34619	-1.19247	-2.43007	110.265	-0.0332549	0
0.1260	-2.16592	50.5735	-8.00769	11.574	0.760891	2.45721	2.45499	82.1922	3.32549	0
0.1267	-2.4632	2.3539	21.8968	15.8467	0.760891	2.16812	3.06562	27.5704	5.15451	0
0.1273	0.297283	-40.3693	15.4887	7.90856	-0.760891	-0.86725	-0.59817	36.1172	2.41098	-0.320672
0.1280	1.48641	-62.955	-12.8942	-0.022215	-1.99002	-3.61354	-3.65133	15.6665	-1.2526	-0.320672
0.1287	0.891849	-69.9814	-4.65246	0.281391	-0.409711	-1.48155	-2.43007	-61.2387	-0.947766	-0.320672
0.1293	2.71801	-31.8247	5.41324	3.02865	1.99002	2.16812	0.934641	-90.8364	1.80131	0
0.1300	3.65233	26.1518	-4.65246	2.71764	1.99002	1.87904	1.23373	-54.2164	2.41098	0.320672
0.1307	0	11.8048	36.5467	1.50322	-1.05354	-1.48155	-2.11852	-10.5741	-0.338092	0
0.1313	-3.05777	-36.709	79.2673	-0.636831	-3.16063	-3.61354	-4.87259	5.59517	-2.47195	-0.320672
0.1320	-0.934318	-47.7017	54.8541	-0.636831	-1.05354	-1.19247	-3.0407	49.8376	-1.2526	-0.320672
0.1327	2.12345	-41.8994	23.4183	0.281391	1.11207	1.87904	0.934641	56.2598	1.19164	-0.320672
0.1333	1.82617	-55.0224	25.5544	-0.333226	1.11207	1.87904	1.84436	-56.049	1.80131	0
0.1340	0.891849	-70.2874	31.6601	-3.9913	-0.760891	-0.289083	-0.59817	-62.7632	0.271582	-0.320672
0.1347	0.891849	4.48418	-1.9117	-9.18222	-2.86797	-2.71016	-3.95041	37.3336	-2.77679	-0.320672
0.1353	0.891849	137.538	-68.7432	-2.76948	-2.28267	-0.578166	-2.11852	35.1928	-1.2526	0
0.1360	1.18913	170.505	-85.5291	11.263	-0.409711	2.16812	1.23373	-16.9963	2.41098	0
0.1367	-0.637035	103.36	-25.7104	13.7067	-0.11706	1.55382	1.23373	-33.7818	2.71582	-0.320672
0.1373	-3.05777	63.3905	12.4358	5.77591	-1.05354	-1.19247	-1.2088	-29.1922	-0.338092	0
0.1380	0	17.6072	-10.7582	1.50322	-1.34619	-4.22784	-3.95041	-8.75766	-3.08162	0.320672
0.1387	5.18122	-98.6636	-31.5138	4.85769	0.468241	-2.71016	-2.43007	22.3807	-1.86228	0.320672
0.1393	0.891849	-103.548	-25.1057	9.7376	1.69737	0.650437	0.934641	19.0236	0.886798	0
0.1400	-5.52097	3.56615	-10.1437	11.574	1.40472	-0.289083	1.84436	-2.33538	2.10615	-0.962017
0.1407	-1.52888	30.4241	-15.0303	11.263	0.468241	-2.09585	-1.2088	-2.33538	1.49647	-0.641344
0.1413	0.297283	29.5061	-42.4963	10.3522	-1.99002	-3.93876	-5.17168	-18.5208	-2.16711	0.320672
0.1420	-4.58665	62.1664	-40.6627	12.7885	-1.34619	-3.03537	-3.33978	-25.5269	-2.77679	-0.320672
0.1427	-5.22368	68.263	-8.3198	17.0612	1.40472	0.0361354	0.623094	11.385	-0.338092	-0.320672
0.1433	-3.39752	38.9688	-0.38039	18.8976	1.99002	0.93952	0.934641	43.4315	-0.642929	0
0.1440	-4.58665	9.67452	-4.04774	17.9794	-0.409711	-1.48155	-1.50789	66.9312	-2.47195	0
0.1447	-1.52888	-34.5788	4.19404	14.6249	-2.57532	-3.61354	-4.26196	73.3373	-4.91619	0.320672
0.1453	6.37035	-82.7983	-7.70533	9.7376	-1.05354	-0.578166	-1.81943	24.2133	-3.38646	0
0.1460	7.60195	-74.8539	-15.3326	-3.38409	1.11207	2.45721	2.14344	-28.884	3.63033	0
0.1467	2.71801	-39.7691	13.0503	-20.4749	1.40472	2.16812	1.84436	-43.8369	7.90359	0.320672
0.1473	1.18913	-44.9477	30.7433	-25.3548	-1.05354	-1.48155	-1.50789	-44.4532	4.24	-0.962017
0.1480	2.12345	-71.1936	21.2823	-15.284	-2.86797	-4.84214	-4.26196	-44.7614	-0.642929	-0.962017
0.1487	0.594566	-30.9184	-1.29723	-4.90953	-1.05354	-2.09585	-2.43007	-36.2145	-2.77679	0.320672
0.1493	0	62.7785	-18.3855	-3.08049	1.40472	1.87904	0.324009	-20.9535	-7.05005	0.320672
0.1500	3.0153	88.7184	-4.04774	-4.29491	1.40472	1.87904	0.623094	-7.21696	-11.0185	0
0.1507	6.37035	43.8531	22.5113	-5.82034	-0.760891	-1.48155	-1.81943	15.9746	-12.5427	0
0.1513	6.37035	22.7975	36.2345	-7.65679	-2.57532	-4.22784	-5.17168	29.6949	-12.8475	0.320672
0.1520	7.60195	30.1181	31.9625	-6.13135	-1.34619	-1.80677	-3.33978	19.0236	-8.87907	0
0.1527	8.53627	29.5061	8.46611	-3.6877	1.11207	1.26474	0.934641	4.37883	-2.47195	0
0.1533	4.84146	25.8458	6.33007	-1.85866	1.40472	0.93952	1.23373	-9.974	3.93517	0
0.1540	-0.934318	27.3758	22.5113	-0.022215	-0.11706	-0.86725	-1.2088	-1.42717	5.15451	0
0.1547	-3.99208	33.4724	-1.29723	0.281391	-2.28267	-3.03537	-4.26196	31.2356	1.19164	-0.320672
0.1553	-3.05777	32.8722	-44.6324	3.63586	-0.760891	-0.578166	-2.43007	48.6212	1.19164	-0.320672
0.1560	-3.05777	25.8458	-38.829	7.90856	1.40472	2.78243	2.14344	32.452	4.84968	-0.320672
0.1567	-3.6948	15.4769	43.2571	9.43399	0.760891	2.16812	3.06562	-17.9045	5.15451	0
0.1573	-1.86864	-5.2845	127.489	10.3522	-1.34619	-1.48155	-0.286623	-63.6876	1.19164	0
0.1580	-0.339752	-14.7354	140.003	8.82678	-3.16063	-4.22784	-4.26196	-69.4774	-2.47195	0.320672
0.1587	0.594566	4.17817	114.673	7.60495	-1.63884	-1.19247	-2.43007	-50.8593	-1.86228	0
0.1593	2.12345	16.9951	99.7206	14.6249	0.17559	2.45721	2.14344	-27.9758	1.80131	0
0.1600	0.891849	7.53247	99.4085	24.0811	0.760891	2.78243	2.45499	-14.5474	5.15451	0.320672
0.1607	-3.39752	-1.30641	70.4208	19.2012	-1.05354	0.0361354	-1.2088	-10.2821	2.71582	-0.320672
0.1613	-5.81825	-3.14245	-14.4158	7.90856	-2.86797	-3.03537	-4.56105	-10.5741	-1.2526	-0.320672
0.1620	-2.16592	-2.22443	-91.3228	13.4031	-0.760891	-1.48155	-1.50789	-8.14138	0.581961	0
0.1627	3.0153	2.6599	-93.7612	26.5248	1.40472	1.55382	1.84436	4.37883	3.32549	0
0.1633	3.94962	9.98053	-44.9347	22.8593	1.11207	2.45721	1.84436	10.7849	3.63033	-0.320672
0.1640	1.18913	7.23824	-15.3326	24.9993	-0.409711	0.0361354	-0.286623	1.62179	2.10615	0
0.1647	-2.16592	-11.0751	-34.2546	37.8174	-2.28267	-3.93876	-3.33978	-11.1903	-1.55744	0
0.1653	-3.99208	-20.2318	-55.0102	34.1519	-0.409711	-1.80677	-1.2088	-18.8127	-3.08162	0
0.1660	-3.05777	-12.9111	-40.6627	24.9993	1.99002	1.87904	2.45499	-17.5964	-1.86228	0.320672
0.1667	-1.52888	-7.10877	-18.3855	14.9285	1.40472	1.55382	2.14344	-12.1148	-5.22102	0.320672
0.1673	-0.637035	-7.10877	-12.2798	-1.54765	-0.760891	-0.86725	-0.897255	-8.75766	-12.8475	0
0.1680	-0.637035	-7.41478	-13.1966	-9.18222	-2.28267	-3.32446	-3.95041	-8.14138	-18.3401	-0.320672
0.1687	-0.637035	-1.30641	-9.84136	-49.1619	-1.05354	-1.80677	-2.11852	-4.47614	-18.0353	0
0.1693	0.297283	6.62622	-7.40297	-134.608	1.11207	0.93952	1.84436	1.31365	-14.0668	0.320672
0.1700	1.18913	9.67452	-5.56929	-140.103	1.40472	0.93952	2.14344	3.45441	-10.7136	0
0.1707	1.18913	11.2046	2.05801	-47.9401	-0.409711	-0.578166	-0.897255	1.02173	-6.74521	-0.320672
0.1713	0	6.62622	12.4358	16.7576	-2.28267	-2.71016	-3.65133	3.14627	4.54484	0
0.1720	-1.2316	-1.91843	14.8742	20.7266	-0.760891	-0.86725	-1.81943	10.1686	17.6695	0
0.1727	-1.2316	-1.30641	2.05801	11.8776	1.69737	2.45721	1.84436	22.6888	20.413	0
0.1733	-1.2316	2.3539	-12.8942	12.1813	1.11207	1.55382	2.14344	54.1191	15.2252	-0.962017
0.1740	-2.16592	-3.75447	-22.0528	15.2321	-0.11706	-1.19247	-0.59817	105.692	10.0374	-1.28269
0.1747	-2.16592	-11.9931	-40.9748	8.52317	-1.34619	-1.80677	-3.33978	147.193	5.15451	0
0.1753	-1.2316	-7.41478	-57.4486	-5.21313	-1.05354	-0.289083	-2.11852	121.261	3.32549	0
0.1760	-0.339752	0.823864	-56.8439	-11.3149	1.11207	2.16812	1.84436	17.191	4.24	0
0.1767	1.82617	-0.706169	-63.252	-9.48583	1.40472	2.78243	2.45499	-61.5469	3.63033	0
0.1773	3.0153	-2.53044	-78.8089	-10.7077	-0.409711	-0.289083	-0.59817	-57.8816	1.49647	0
0.1780	0.297283	5.09619	-70.5769	-13.4549	-2.86797	-3.32446	-3.95041	-26.7595	-1.2526	0
0.1787	-0.637035	13.9468	-31.8162	-10.093	-1.63884	-0.86725	-1.81943	1.02173	-0.642929	0
0.1793	2.12345	7.53247	24.9497	-4.29491	0.760891	2.16812	1.84436	12.9257	1.80131	0
0.1800	3.35505	-7.41478	80.7987	-3.08049	0.468241	1.87904	1.53281	-20.3534	2.10615	-0.320672
0.1807	0.891849	-3.14245	89.3428	-4.29491	-1.05354	-0.289083	-1.50789	-59.098	-0.0332549	-0.320672
0.1813	-4.28937	8.14449	64.6175	-5.51674	-2.57532	-2.71016	-4.26196	-34.69	-2.47195	-0.320672
0.1820	-6.41282	-8.6388	73.1616	-3.9913	-1.34619	-0.578166	-2.43007	-13.6392	-1.55744	0
0.1827	-3.6948	-30.0004	91.1667	-3.08049	0.760891	2.78243	0.623094	-60.9306	0.886798	-0.320672
0.1833	0	-22.0678	71.9424	-4.60592	0.468241	2.45721	1.84436	-74.6671	0.581961	-0.320672
0.1840	1.48641	-8.02679	6.02771	-5.82034	-1.34619	-0.86725	-0.286623	-19.429	-1.2526	-0.320672
0.1847	1.18913	-8.02679	-55.927	-6.73856	-2.86797	-3.32446	-4.56105	19.9318	-3.38646	-0.320672
0.1853	-0.637035	-4.36648	-34.869	-4.90953	-1.05354	-1.19247	-2.72915	49.5456	-2.47195	-0.320672
0.1860	-2.16592	2.04789	-1.29723	-2.16226	1.69737	2.16812	1.84436	79.7433	0.886798	0
0.1867	-3.6948	-3.75447	-18.3855	-2.16226	1.69737	2.16812	1.84436	57.7843	1.80131	0
0.1873	-4.58665	-4.67249	-39.1411	-3.38409	-0.760891	-0.86725	-1.81943	3.45441	-0.642929	-0.320672
0.1880	-1.86864	8.45049	-77.5897	0.888602	-3.16063	-3.32446	-4.56105	-12.7148	-2.47195	0
0.1887	1.82617	8.7565	-87.3531	8.82678	-1.34619	-0.86725	-2.11852	-9.66586	-0.0332549	0.320672
0.1893	2.12345	-11.6871	-18.0831	8.52317	1.69737	2.16812	1.53281	-53.3082	1.80131	0
0.1900	-0.339752	-24.5041	19.1463	3.93947	1.40472	1.87904	1.53281	-86.5711	1.19164	-0.320672
0.1907	-3.39752	-21.7618	-8.00769	1.50322	-1.05354	-1.19247	-1.2088	-58.4979	-1.55744	0
0.1913	-3.39752	-15.3474	-22.9599	-0.333226	-2.57532	-3.32446	-3.65133	-29.8085	-3.08162	0
0.1920	-0.637035	-11.3811	-22.3552	1.19221	-0.760891	-1.19247	-0.897255	-17.9045	-0.947766	0
0.1927	0.594566	-8.3328	-22.3552	3.93947	1.40472	2.16812	2.75407	-0.210832	0.271582	0
0.1933	0.297283	-5.2845	-6.78849	3.63586	0.760891	1.87904	2.45499	16.2665	-2.16711	0.320672
0.1940	-1.86864	-7.72078	8.77822	0.888602	-1.34619	-1.80677	-0.897255	22.6888	-6.44037	0
0.1947	-2.76048	-7.41478	25.8665	-0.333226	-1.99002	-3.61354	-3.65133	14.4501	-8.87907	0
0.1953	-0.637035	-0.400163	38.3803	2.11043	0.17559	-0.578166	-0.897255	5.90331	-6.44037	0
0.1960	0.594566	-3.14245	19.1463	3.93947	1.99002	2.16812	3.06562	10.1686	-1.2526	0
0.1967	-0.934318	-5.2845	10.9143	4.25048	1.69737	2.45721	3.36471	12.9257	4.84968	0.320672
0.1973	-2.16592	0.517857	-4.3501	2.71764	-0.760891	-0.578166	0.0124619	22.0725	6.98908	0
0.1980	-1.52888	2.6599	-57.7509	0.584996	-2.57532	-3.32446	-3.33978	40.6907	3.93517	0
0.1987	0	-0.0941559	-58.0631	2.71764	-1.05354	-1.48155	-1.81943	31.2356	4.54484	-0.320672
0.1993	0.297283	-1.61242	-11.9774	4.85769	1.11207	1.55382	1.23373	-10.8822	8.20843	-0.320672
0.2000	-2.16592	-0.706169	9.6853	4.55409	1.69737	1.26474	2.14344	-24.0025	6.98908	0
0.2007	-2.4632	-2.53044	15.791	1.80682	-0.409711	-1.80677	-0.897255	13.2176	1.19164	0
0.2013	-1.52888	-5.2845	6.02771	-0.940437	-2.86797	-3.93876	-4.56105	34.2846	-2.47195	0
0.2020	-0.637035	-5.2845	-17.4687	0.888602	-1.05354	-1.48155	-2.11852	23.2889	-0.338092	0.320672
0.2027	-0.339752	-3.75447	-39.7458	4.85769	1.11207	0.0361354	0.623094	1.92993	3.02066	-0.641344
0.2033	-3.99208	1.74188	-57.7509	2.71764	1.11207	-0.289083	0.324009	-28.284	4.24	-2.24471
0.2040	-6.41282	10.5925	-60.1991	-3.38409	-0.11706	-0.86725	0.0124619	-39.8798	3.63033	-1.28269
0.2047	-3.39752	12.1108	-37.9219	2.71764	-1.63884	-2.09585	-1.81943	-33.7818	2.41098	0.320672
0.2053	0.594566	3.56615	-9.23664	20.423	-1.05354	-0.289083	-1.2088	-36.2145	3.63033	0
0.2060	0	-23.28	18.5416	30.7975	1.40472	2.45721	1.84436	-46.9021	2.41098	0
0.2067	-1.2316	-47.7017	58.5215	30.7975	1.40472	1.87904	2.14344	-58.806	-1.86228	0
0.2073	2.42073	-51.362	80.7987	26.5248	-1.34619	-1.19247	-1.2088	-48.4266	-5.22102	-0.320672
0.2080	6.07306	-40.6754	83.8515	19.8084	-2.86797	-3.32446	-3.95041	-7.5251	-7.05005	0
0.2087	6.37035	23.7155	98.8038	16.1503	-1.34619	-0.86725	-1.81943	44.3559	-3.99613	0
0.2093	9.42811	87.1884	96.3556	10.6558	1.11207	1.87904	1.53281	94.4043	-0.0332549	0
0.2100	17.6671	61.5544	53.9373	-16.2022	1.11207	1.87904	1.23373	110.574	-0.642929	0
0.2107	18.8987	13.6408	-28.1488	-53.4346	-0.760891	-1.19247	-1.81943	94.4043	-4.61135	0
0.2113	9.42811	-1.30641	-120.008	-65.9417	-2.28267	-3.61354	-4.87259	92.8798	-6.44037	0
0.2120	0.594566	6.01421	-121.227	-55.5672	-0.11706	-1.19247	-3.0407	71.5046	-4.91619	0
0.2127	-5.52097	6.62622	-24.7936	-45.1928	1.69737	2.45721	1.84436	-6.6169	-2.77679	0
0.2133	-8.57873	-23.8921	61.2622	-32.9819	1.40472	2.78243	1.84436	-78.9324	-2.47195	0
0.2140	-6.41282	-47.7017	62.4814	-15.8912	-0.760891	-0.289083	-1.81943	-102.432	-3.6913	0
0.2147	-1.86864	-19.0077	-0.38039	-4.29491	-2.28267	-2.71016	-3.95041	-71.9263	-3.99613	0.320672
0.2153	0.594566	47.2074	-37.3074	3.02865	-0.409711	-0.289083	-1.81943	8.02785	-1.55744	0.320672
0.2160	0.297283	63.3905	-29.3778	17.0612	1.99002	3.07151	1.53281	74.8617	2.10615	-0.320672
0.2167	-0.339752	13.3348	-0.38039	32.6265	1.69737	3.07151	1.53281	96.837	4.84968	-0.320672
0.2173	-2.76048	-24.8101	15.4887	31.7157	-1.34619	-0.578166	-1.81943	83.1004	3.63033	0
0.2180	-8.57873	-28.1644	-10.4558	18.283	-3.51181	-3.32446	-4.87259	65.0986	0.886798	0
0.2187	-10.4049	-17.4895	-27.5441	6.38312	-0.760891	-0.289083	-2.43007	123.386	1.19164	0
0.2193	-7.34713	-12.9111	-7.70533	0.888602	1.69737	3.07151	1.53281	152.383	1.80131	-0.320672
0.2200	-8.57873	-9.25082	9.08058	1.50322	0.468241	2.45721	1.84436	6.21145	1.49647	0
0.2207	-10.1076	-7.72078	5.72535	1.19221	-1.63884	-0.289083	-1.50789	-167.141	-0.0332549	0
0.2213	-7.64442	-11.6871	5.11088	-0.636831	-2.86797	-2.71016	-3.95041	-211.076	-2.16711	-0.320672
0.2220	-3.99208	-3.14245	14.2695	1.50322	-1.05354	-0.289083	-1.2088	-161.952	-0.642929	-0.320672
0.2227	2.42073	4.48418	31.9625	4.55409	0.468241	2.16812	2.45499	-80.165	1.80131	0.320672
0.2233	6.7101	0.517857	63.7006	4.25048	-0.11706	1.55382	2.45499	-13.6392	1.80131	0
0.2240	5.18122	-2.22443	78.6626	1.80682	-1.63884	-1.19247	-0.897255	8.64413	-0.338092	-0.320672
0.2247	3.35505	2.96591	72.5569	0.584996	-2.28267	-2.42107	-3.95041	-12.1148	-1.86228	0
0.2253	4.84146	10.2865	69.8064	2.41404	-0.409711	0.650437	-1.2088	-49.3348	-0.0332549	0
0.2260	3.94962	10.2865	67.6703	3.63586	1.40472	2.78243	2.45499	-47.8103	2.10615	0
0.2267	2.71801	8.7565	48.446	2.71764	0.17559	1.55382	2.14344	-29.8085	1.49647	0
0.2273	4.54418	9.98053	-8.3198	1.19221	-1.63884	-0.86725	-0.897255	-35.9064	-0.947766	-0.320672
0.2280	4.54418	2.04789	-55.3125	-0.022215	-2.57532	-3.03537	-3.65133	-38.6634	-2.47195	0
0.2287	3.35505	-3.14245	-35.1714	1.19221	-0.760891	-0.86725	-1.81943	-25.8351	-0.642929	0
0.2293	4.2469	0.517857	-9.84136	3.33226	1.69737	2.16812	1.23373	-8.14138	1.19164	-0.320672
0.2300	2.71801	-0.0941559	-37.3074	3.63586	1.69737	1.87904	0.934641	3.45441	0.271582	0
0.2307	-1.2316	-6.19075	-74.5368	-0.022215	-1.34619	-0.86725	-1.81943	4.97889	-1.86228	0
0.2313	-2.4632	-8.94481	-66.9096	-0.636831	-2.57532	-2.71016	-3.33978	4.07069	-3.38646	-0.320672
0.2320	-0.934318	-4.67249	-30.2849	9.43399	-0.11706	-0.289083	-0.897255	-14.5474	-0.947766	0
0.2327	-0.339752	0.517857	-17.7808	17.0612	1.40472	1.87904	1.53281	-72.2344	0.581961	0
0.2333	-1.86864	-0.0941559	-23.8768	19.8084	0.17559	0.325219	1.23373	-107.314	0.581961	-0.962017
0.2340	-1.86864	-3.44846	-24.7936	22.5557	-0.760891	-2.09585	-1.2088	-63.6876	0.581961	-1.28269
0.2347	0	-3.44846	-30.2849	20.1194	-1.34619	-3.03537	-3.65133	3.45441	-0.947766	0
0.2353	1.18913	2.3539	-34.2546	22.8593	-0.11706	0.0361354	-1.2088	41.907	-0.642929	0
0.2360	1.82617	8.14449	-29.9825	41.1719	1.99002	3.07151	2.14344	49.8376	2.41098	-0.320672
0.2367	1.82617	9.06251	-31.8162	50.6355	1.69737	2.16812	1.84436	41.3069	2.71582	0
0.2373	0.891849	4.48418	-32.733	28.0502	-1.05354	-1.48155	-1.50789	29.6949	-0.947766	0
0.2380	-1.86864	-1.01218	-17.4687	1.50322	-3.16063	-3.32446	-3.95041	21.4563	-3.99613	-0.320672
0.2387	-3.6948	-1.30641	1.45328	4.25048	-0.760891	-0.86725	-1.50789	19.3317	-2.16711	0.320672
0.2393	-3.39752	0.517857	4.80851	19.2012	1.69737	1.26474	2.14344	17.191	0.581961	0
0.2400	-0.934318	1.12987	-8.62216	32.6265	1.11207	0.93952	2.14344	14.4501	-0.642929	-0.320672
0.2407	0.891849	-1.61242	-17.1663	61.0099	-0.760891	-2.09585	-0.897255	12.9257	-3.08162	-0.320672
0.2413	0	-4.36648	-12.2798	80.2334	-1.34619	-3.32446	-3.0407	11.093	-4.30097	0
0.2420	-1.86864	-2.22443	-3.43326	47.2736	0.468241	-0.578166	-0.897255	8.64413	-3.08162	-0.320672
0.2427	-2.76048	0.823864	4.80851	7.90856	1.99002	0.93952	1.23373	9.86047	-2.16711	-0.962017
0.2433	-2.4632	2.96591	5.72535	14.0103	2.63385	0.93952	1.84436	14.142	-4.30097	0
0.2440	-1.52888	-1.01218	3.58932	26.5248	-0.11706	-0.578166	-0.897255	13.5257	-9.1839	0.320672
0.2447	1.18913	-8.6388	10.2998	7.90856	-1.63884	-2.42107	-3.95041	14.142	-10.4088	0
0.2453	3.65233	-5.88474	14.5718	-10.404	0.17559	0.0361354	-1.2088	22.9807	-5.8307	0
0.2460	0.594566	4.48418	26.7833	-2.76948	1.11207	4.30011	2.14344	15.3583	-1.2526	0
0.2467	-3.99208	8.7565	68.8895	-39.6983	1.40472	4.30011	1.84436	0.0973073	0.581961	0
0.2473	-4.88393	0.211851	98.4916	-101.649	-0.409711	-0.578166	-1.81943	12.3094	2.10615	0
0.2480	-3.6948	-8.3328	84.7586	-70.829	-2.57532	-3.32446	-4.56105	24.8134	6.07457	0
0.2487	0	-1.91843	59.4286	-2.16226	-1.05354	0.93952	-1.2088	28.7867	6.07457	0
0.2493	5.77578	1.43588	50.8844	26.8284	0.760891	3.68581	1.53281	34.2846	0.581961	0
0.2500	7.89923	-1.30641	21.8968	39.3429	0.468241	2.16812	0.623094	31.8357	-5.8307	-0.320672
0.2507	5.77578	8.14449	-54.3957	36.5956	-0.760891	-1.80677	-1.81943	25.1215	-13.1523	-0.320672
0.2513	3.65233	20.6555	-85.5291	21.0302	-1.63884	-4.84214	-4.56105	15.6665	-19.2546	0
0.2520	0.594566	18.2192	-36.3906	-4.90953	0.17559	-2.71016	-2.43007	36.7173	-21.394	0
0.2527	-2.16592	4.48418	-9.84136	-54.96	1.40472	0.650437	0.623094	76.6944	-21.6988	0
0.2533	-2.16592	-0.0941559	-30.597	-85.1725	0.760891	1.55382	1.23373	52.9027	-11.6281	0
0.2540	-2.16592	5.7082	-34.869	-65.6381	-0.760891	-2.09585	-0.897255	-4.47614	6.3794	0
0.2547	-2.4632	5.7082	-29.6801	-48.5473	-1.99002	-4.22784	-3.33978	-21.8779	21.0282	0
0.2553	-0.339752	1.12987	-42.194	-45.1928	0.17559	-0.578166	-0.59817	10.7849	30.1788	0
0.2560	0.297283	-4.06047	-27.5441	-21.3857	1.99002	3.39673	3.36471	44.956	25.6063	0
0.2567	-1.2316	-13.2171	7.24691	10.9594	1.69737	2.78243	1.84436	37.0254	8.8181	0
0.2573	-0.934318	-21.1498	12.7382	24.3921	0.17559	-1.48155	-1.81943	64.7904	1.49647	0
0.2580	0.297283	-20.2318	10.6021	25.6065	-1.05354	-3.32446	-3.95041	100.502	5.76973	0
0.2587	-0.637035	-8.94481	14.8742	34.1519	-0.11706	0.93952	-1.2088	-15.4556	4.84968	0
0.2593	-2.76048	1.12987	10.2998	45.4446	1.40472	4.30011	2.14344	-158.287	-0.642929	0
0.2600	-2.76048	2.96591	-6.18377	40.5647	1.11207	3.39673	0.623094	-145.766	-1.86228	0
0.2607	-0.934318	3.56615	-20.2192	20.7266	-1.34619	0.0361354	-2.11852	-82.5977	-1.55744	0.320672
0.2613	-0.934318	2.6599	-21.7407	23.1703	-2.57532	-2.71016	-3.65133	-50.2592	-1.55744	0.320672
0.2620	-0.934318	-1.01218	-24.4912	29.272	-1.05354	-0.86725	-1.50789	-24.6187	-0.338092	0.320672
0.2627	0.594566	-3.14245	-34.869	-16.8094	0.760891	1.87904	1.23373	-14.2393	-0.947766	-0.641344
0.2633	1.48641	-3.14245	-22.9599	-66.8599	1.11207	1.26474	1.23373	-15.4556	-2.16711	-1.60336
0.2640	2.42073	-3.44846	14.8742	-64.7198	-0.760891	-1.48155	-0.59817	-11.4985	-5.52586	-0.641344
0.2647	1.82617	-4.06047	26.4712	-68.3853	-1.99002	-3.03537	-2.43007	-6.6169	-7.65972	0.641344
0.2653	0.891849	-0.0941559	8.46611	-121.183	-0.11706	-0.578166	-1.2088	-5.69248	-1.86228	0.320672
0.2660	-0.637035	3.87216	-0.38039	-130.943	1.40472	1.87904	-0.286623	-5.69248	4.54484	0
0.2667	-1.2316	2.96591	-0.994865	-67.1635	0.17559	0.93952	-0.286623	-6.6169	6.07457	0
0.2673	-0.637035	0.517857	-2.51642	-28.7092	-1.63884	-1.19247	-1.2088	-7.83324	3.93517	0
0.2680	-0.637035	-1.30641	-4.3501	-18.0312	-3.51181	-1.48155	-2.72915	-6.92504	5.15451	0
0.2687	-0.934318	0.211851	-3.73562	6.68673	-1.63884	0.93952	-1.81943	-2.04345	11.872	0
0.2693	-1.52888	2.6599	-1.9117	16.1503	1.40472	1.87904	-2.72915	2.85435	8.8181	0.320672
0.2700	-1.86864	2.6599	-1.59959	10.0486	1.11207	1.26474	-3.65133	3.14627	-1.86228	0.320672
0.2707	-0.637035	-0.400163	-2.21406	14.0103	-1.99002	-0.86725	-2.11852	-0.502754	-7.96456	0
0.2713	-0.339752	-2.22443	-4.04774	10.6558	-3.51181	-2.42107	-2.43007	-2.95165	-10.104	-0.320672
0.2720	0	-0.0941559	-5.56929	2.71764	-0.760891	-0.289083	-1.50789	0.0973073	-9.49428	-0.320672
0.2727	0.297283	1.43588	-8.00769	9.13039	2.28267	2.16812	0.0124619	2.85435	-7.35488	0
0.2733	0.594566	-0.0941559	-14.4158	15.2321	1.69737	2.16812	0.623094	2.54621	-6.74521	0
0.2740	-0.637035	-3.44846	-17.4687	13.4031	-1.63884	-0.289083	-0.286623	1.02173	-6.44037	-0.320672
0.2747	-0.934318	-4.97849	-1.29723	24.9993	-3.80446	-1.19247	-1.81943	0.0973073	-4.30097	-0.320672
0.2753	0	0.823864	21.5944	40.5647	-1.63884	1.26474	-0.59817	3.76255	1.80131	0
0.2760	0.891849	8.7565	24.9497	3.02865	0.760891	2.78243	0.934641	7.73593	9.73261	0
0.2767	0.594566	12.7228	19.1463	-63.809	0.760891	1.55382	0.934641	7.42779	14.0059	0
0.2773	-1.52888	9.67452	8.16375	-71.4362	-0.409711	-2.42107	-1.50789	4.67075	10.6527	0
0.2780	-4.28937	-14.1352	-10.7582	-42.7492	-1.05354	-5.16736	-4.26196	1.92993	4.54484	0
0.2787	-5.81825	-51.056	-19.3023	-26.5766	0.17559	-1.48155	-1.2088	5.59517	5.15451	-0.320672
0.2793	-6.41282	-74.5597	-20.5215	12.4849	2.28267	1.87904	1.53281	11.385	11.872	-0.320672
0.2800	-1.52888	-88.2829	-12.2798	64.0608	2.9265	0.0361354	0.0124619	12.9257	14.6155	0
0.2807	4.84146	-94.3913	6.64219	82.0698	0.468241	-3.32446	-2.11852	3.45441	7.59875	0.320672
0.2813	4.2469	-99.2756	10.9143	83.2842	-1.05354	-3.32446	-2.11852	-13.9312	-1.86228	0.320672
0.2820	1.82617	-69.9814	0.838808	79.9297	1.40472	-0.86725	0.0124619	-22.478	-1.86228	-0.320672
0.2827	1.48641	49.3495	-3.73562	69.8589	2.63385	0.93952	1.53281	-14.5474	4.54484	0
0.2833	2.71801	139.068	-6.18377	65.5862	1.99002	0.0361354	0.623094	12.6175	6.07457	0
0.2840	4.54418	110.08	-11.3727	52.1609	-0.409711	-3.03537	-1.2088	40.0744	-8.26939	0
0.2847	4.2469	74.9834	-9.23664	29.272	-2.86797	-2.42107	-3.0407	54.1191	-21.0892	0
0.2853	0.594566	63.0845	-0.38039	9.43399	-1.05354	3.07151	-2.43007	69.6882	-11.0185	0
0.2860	-1.52888	42.0171	5.41324	-48.2437	0.760891	5.2035	-1.2088	64.4985	-0.338092	0
0.2867	-2.76048	36.8385	6.33007	-116.91	-0.409711	3.07151	-1.2088	27.2623	0.271582	0
0.2873	-4.88393	18.2192	1.45328	-103.789	-2.57532	-1.19247	-2.11852	-15.1637	2.41098	0.320672
0.2880	-5.81825	-27.8584	-0.38039	-45.1928	-4.38976	-3.03537	-2.72915	-43.545	6.98908	0
0.2887	-3.99208	-46.7837	3.89168	-2.46587	-2.28267	0.0361354	-0.59817	-36.5227	14.0059	0
0.2893	-1.52888	-22.974	2.36037	41.1719	1.69737	1.55382	-1.50789	-8.44952	18.584	0.320672
0.2900	-1.2316	7.23824	-13.5087	79.3225	1.69737	-0.578166	-3.33978	12.0012	13.3962	0
0.2907	-5.52097	17.6072	-34.869	96.7169	-1.34619	-3.32446	-2.43007	36.4091	4.54484	0
0.2913	-8.87602	4.17817	-28.7633	109.535	-2.57532	-4.22784	-1.50789	82.8085	1.49647	0
0.2920	-4.58665	-21.7618	-4.65246	125.708	0.17559	-1.80677	-1.2088	103.551	5.45935	0
0.2927	-4.28937	-31.2245	4.80851	125.093	1.99002	-2.42107	-6.39294	47.0967	3.32549	0
0.2933	-7.34713	-37.9331	2.05801	102.819	1.40472	-4.22784	-7.92575	-27.3596	-12.5427	-1.28269
0.2940	-2.4632	-26.3401	-4.04774	90.6152	-0.760891	-3.61354	-1.2088	-42.6206	-16.5111	-1.28269
0.2947	5.18122	30.1181	-7.70533	46.6664	-1.99002	-1.80677	0.934641	-2.64351	-5.52586	0
0.2953	6.07306	61.2484	-18.6879	-104.396	-0.760891	0.325219	-3.65133	43.1233	-2.77679	0.320672
0.2960	0.891849	38.3568	-33.9522	-225.853	0.760891	1.55382	-7.00357	39.7662	-6.44037	-0.320672
0.2967	0.891849	-13.5231	-31.8162	-188.013	0.760891	1.55382	-2.11852	-15.4556	-7.35488	-0.641344
0.2973	4.2469	-64.791	-5.56929	-109.89	-1.63884	-1.19247	0.623094	-64.5958	-8.57423	-0.320672
0.2980	3.0153	-70.5816	25.252	-68.9925	-3.16063	-2.71016	-1.50789	-70.0937	-7.05005	0.320672
0.2987	-0.637035	-54.1043	33.7962	-33.5966	-0.760891	0.650437	0.0124619	-53.3082	-0.642929	0
0.2993	-6.11553	-66.0151	35.9322	-3.9913	1.11207	1.55382	-2.11852	-28.884	2.10615	-0.320672
0.3000	-6.75257	-58.3767	35.0154	8.82678	0.17559	-0.289083	-4.26196	4.97889	-0.338092	0
0.3007	-0.637035	53.0098	21.5944	9.13039	-1.63884	-1.48155	-1.2088	26.646	-3.08162	0
0.3013	2.71801	100.923	20.3655	-0.940437	-2.57532	-2.09585	0.934641	24.8134	-3.6913	0
0.3020	3.0153	-10.4631	24.3352	-17.113	-1.05354	-0.289083	0.623094	6.81151	-3.08162	0
0.3027	3.35505	-39.1571	1.45328	-28.7092	0.17559	0.650437	-3.65133	1.31365	-3.6913	0.320672
0.3033	5.18122	5.7082	-23.8768	-36.0328	-0.409711	0.93952	-4.26196	16.2665	-4.30097	0
0.3040	6.07306	-7.72078	-27.2417	-67.7781	-2.57532	-0.578166	1.53281	-3.85986	-5.22102	-0.320672
0.3047	3.35505	-19.3137	-23.5744	-102.87	-2.86797	-1.48155	2.45499	-39.5716	-5.8307	0
0.3053	0	-12.9111	-25.4081	-89.4452	-0.409711	-2.09585	-5.48322	-15.1637	-4.91619	0.320672
0.3060	-3.39752	-1.61242	-0.994865	-58.0109	0.17559	-3.03537	-12.7983	48.9293	-5.22102	0
0.3067	-6.41282	-6.19075	49.9676	-38.7801	-0.409711	-1.48155	-5.48322	71.8128	-4.91619	0
0.3073	-4.58665	-29.3884	45.0908	-25.3548	-1.63884	-1.80677	1.53281	15.9746	-5.22102	0
0.3080	-0.339752	1.74188	-3.43326	-5.21313	-2.28267	-2.42107	1.84436	-50.8593	-4.61135	0
0.3087	-3.39752	64.9087	-14.7279	26.8284	0.17559	-1.19247	-1.81943	-58.1898	-1.86228	0
0.3093	-9.1733	74.0654	4.80851	50.0209	1.11207	-1.80677	-10.6674	-47.8103	-1.86228	0
0.3100	-4.28937	51.1737	22.8136	57.9591	0.17559	-0.578166	-8.53638	-52.3838	-1.86228	0.320672
0.3107	3.94962	38.3568	14.8742	53.6864	-2.28267	0.650437	1.53281	-56.6653	-2.16711	0
0.3113	7.89923	32.2602	-12.5919	47.5846	-3.80446	-0.289083	3.06562	-50.8593	-2.16711	0
0.3120	10.3624	30.4241	-20.5215	44.5338	-1.05354	1.55382	2.75407	-35.5983	3.32549	0
0.3127	10.6597	27.6818	-10.4558	32.3229	1.99002	2.16812	1.84436	-40.788	6.98908	0.320672
0.3133	4.84146	19.7492	12.4358	15.8467	1.40472	0.325219	-2.11852	-44.7614	4.24	0
0.3140	-1.2316	16.9951	28.3049	-21.3857	-1.34619	-1.19247	-1.2088	-37.4309	0.581961	0
0.3147	-0.637035	20.6555	3.58932	-69.3036	-3.16063	-1.48155	0.934641	-42.9287	-1.2526	0
0.3153	2.42073	22.4915	-34.2546	-73.5762	-1.05354	-0.289083	-2.43007	-28.884	-0.338092	0
0.3160	3.35505	10.2865	-48.29	-44.2746	1.11207	-0.578166	-5.17168	6.81151	1.19164	0
0.3167	3.0153	-6.80276	-31.5138	-13.4549	0.760891	-0.86725	-3.65133	29.403	1.49647	-0.320672
0.3173	3.35505	-5.88474	6.02771	13.0995	-1.63884	-1.48155	0.0124619	3.76255	-0.0332549	-0.320672
0.3180	6.37035	1.74188	17.9271	26.8284	-2.86797	-1.19247	3.97534	-31.9492	-0.947766	0
0.3187	3.94962	2.96591	3.2772	21.6449	-0.760891	-0.289083	0.0124619	-10.5741	-0.0332549	0
0.3193	-5.52097	3.87216	2.05801	-0.333226	0.760891	-1.80677	-9.14702	22.9807	-0.642929	0
0.3200	-6.11553	2.6599	12.4358	-24.1329	-0.11706	-0.578166	-4.87259	23.9052	-0.642929	0
0.3207	1.18913	-1.91843	1.75564	-38.4765	-1.99002	0.0361354	3.97534	5.59517	-1.86228	0
0.3213	1.82617	0.823864	-15.0303	-35.7292	-2.86797	-1.48155	4.28688	-10.8822	-3.38646	0
0.3220	-1.86864	1.43588	-3.1309	-25.0512	-0.409711	-0.289083	-0.59817	-7.5251	-0.947766	-0.320672
0.3227	-2.4632	3.26015	2.67248	-19.5566	1.11207	-0.578166	-7.31512	19.0236	0.271582	0
0.3233	-0.934318	28.2938	-11.3727	-12.8403	-0.11706	-1.48155	-4.56105	37.6417	-0.642929	-0.320672
0.3240	0	33.1782	-8.92453	-5.82034	-2.57532	-2.42107	1.53281	35.8091	-0.338092	-1.28269
0.3247	5.4785	-16.2654	-14.1134	-2.16226	-2.28267	-1.48155	4.28688	41.907	-0.0332549	-0.641344
0.3253	7.30466	-53.1863	-47.6852	-1.85866	-0.11706	1.26474	4.28688	19.0236	0.886798	0.320672
0.3260	-1.52888	-50.75	-39.4435	-5.21313	0.17559	-0.289083	-3.33978	-7.83324	0.271582	0
0.3267	-5.22368	-33.0487	22.5113	-4.60592	-0.760891	-0.86725	-5.78231	33.3602	-0.947766	-0.320672
0.3273	-3.6948	-9.55682	54.2494	-1.24404	-2.28267	-0.578166	0.623094	91.3553	-1.55744	0
0.3280	-2.76048	-15.3474	41.1211	0.584996	-3.16063	-1.48155	3.67625	127.051	-1.86228	0
0.3287	-5.52097	-32.1307	30.7433	1.19221	-0.760891	-0.578166	1.53281	124.31	-0.642929	-0.320672
0.3293	-12.2311	-13.2171	34.4106	-0.636831	1.40472	-0.289083	-3.95041	62.974	0.271582	0
0.3300	-9.47058	18.5252	23.4183	1.19221	0.760891	0.325219	-3.0407	-20.0453	0.271582	0.320672
0.3307	1.18913	22.4915	-2.21406	3.93947	-2.28267	-0.578166	1.53281	-54.2164	-1.2526	0
0.3313	7.30466	3.56615	-27.5441	3.63586	-3.51181	-1.80677	3.06562	-34.9982	-2.16711	0
0.3320	4.2469	2.96591	-29.0657	3.33226	-0.409711	0.0361354	1.23373	-25.5269	-0.642929	0.320672
0.3327	-0.637035	9.98053	-6.48613	1.80682	1.69737	-0.289083	-4.26196	-48.7347	-0.338092	0.320672
0.3333	2.71801	-4.97849	-4.95482	3.33226	1.11207	-0.578166	-3.33978	-76.1916	-0.642929	0
0.3340	7.89923	-11.9931	9.99742	3.33226	-1.05354	-1.80677	1.53281	-74.359	-1.86228	-0.320672
0.3347	6.07306	5.40219	31.6601	13.4031	-1.99002	-2.09585	3.06562	-62.1631	-2.16711	0
0.3353	3.0153	16.3831	3.2772	49.7173	0.17559	0.325219	3.06562	-54.5245	0.581961	0
0.3360	-1.2316	10.2865	-15.6447	78.7079	1.69737	0.93952	-0.897255	-30.4247	1.49647	0
0.3367	-2.4632	6.01421	-1.59959	83.5952	0.760891	0.0361354	-1.81943	-1.42717	0.886798	0.320672
0.3373	0.891849	-6.49676	26.7833	79.9297	-1.99002	-1.80677	2.75407	17.4991	-1.55744	0
0.3380	1.82617	-22.0678	54.2494	73.5244	-3.16063	-2.42107	3.36471	37.3336	-3.08162	0
0.3387	3.35505	-12.2991	31.0554	57.6555	-0.760891	-0.86725	-0.897255	36.1172	-1.86228	0
0.3393	3.94962	8.45049	-15.6447	37.2028	0.468241	-2.42107	-7.6142	-4.47614	-2.47195	-0.320672
0.3400	4.54418	5.7082	-21.7407	24.9993	-0.760891	-1.80677	-5.48322	-28.884	-3.08162	0
0.3407	7.00738	-11.9931	2.97484	-39.6983	-2.28267	-0.289083	2.45499	-24.3106	-3.08162	0
0.3413	4.2469	-13.2171	20.9799	-134.305	-3.16063	-0.86725	3.36471	-39.8798	-4.30097	0
0.3420	-1.52888	-1.01218	17.9271	-124.841	-1.05354	-0.86725	-0.59817	-54.5245	-2.47195	0
0.3427	-3.05777	1.74188	1.14117	-54.0418	-0.760891	-1.19247	-5.48322	-27.3596	-0.947766	0
0.3433	0.594566	-3.44846	-6.48613	-18.0312	-0.760891	-0.289083	-4.87259	-9.04958	-0.338092	0
0.3440	6.7101	-4.36648	-2.81878	-5.82034	-1.63884	-0.578166	1.23373	-13.3311	-0.947766	0
0.3447	7.60195	-2.83645	-11.9774	1.80682	-2.57532	-2.42107	3.97534	12.3094	-1.55744	-0.962017
0.3453	0.297283	-2.83645	-29.9825	10.3522	-0.409711	-0.86725	2.45499	47.0967	0.271582	-0.962017
0.3460	-7.34713	-4.06047	-25.7104	21.0302	1.11207	0.0361354	-3.0407	57.7843	0.271582	0.320672
0.3467	-5.52097	-6.80276	-8.92453	26.8284	0.17559	-1.19247	-5.48322	55.6436	-0.947766	0
0.3473	4.54418	-8.94481	-7.70533	13.4031	-1.63884	-1.80677	0.623094	20.8562	-2.47195	0
0.3480	9.42811	-4.97849	-4.3501	-2.46587	-2.28267	-2.09585	3.97534	-41.7124	-3.99613	0.320672
0.3487	3.0153	4.79018	4.80851	0.584996	-0.11706	-2.09585	-2.43007	-58.806	-2.77679	0.320672
0.3493	-2.76048	10.2865	10.6021	10.3522	1.11207	-1.48155	-7.31512	-29.8085	-0.642929	0
0.3500	-1.86864	9.06251	23.4183	6.68673	0.17559	0.93952	-2.11852	-10.8822	2.71582	0
0.3507	2.71801	2.3539	26.4712	-15.284	-2.28267	0.93952	2.45499	-5.69248	3.93517	0.320672
0.3513	5.4785	-5.2845	15.1863	-31.4565	-3.16063	-1.19247	3.36471	-4.78428	3.32549	0
0.3520	2.71801	-2.22443	8.16375	-34.8184	-1.34619	-1.19247	-0.59817	-9.35772	1.80131	0
0.3527	-1.86864	6.01421	1.75564	-31.7601	0.17559	-1.19247	-7.00357	-13.6392	-0.642929	0
0.3533	-2.76048	3.26015	-9.539	-17.424	-0.11706	-2.09585	-6.70449	-14.2393	-0.947766	-1.28269
0.3540	0.297283	-4.36648	-10.1437	-2.46587	-1.63884	-1.48155	-0.286623	-15.7638	0.581961	-1.28269
0.3547	3.65233	-2.83645	0.536447	1.50322	-1.99002	-0.289083	3.67625	-17.5964	-0.0332549	0
0.3553	0	1.43588	-2.81878	-1.85866	-0.11706	-0.578166	-1.50789	-15.7638	-0.642929	0
0.3560	-4.58665	2.04789	-11.3727	-4.29491	1.40472	-0.578166	-6.09386	-11.8066	0.581961	0
0.3567	-2.4632	1.12987	-9.84136	-0.940437	0.760891	1.87904	-1.2088	-9.35772	0.886798	0
0.3573	1.18913	-2.22443	-10.1437	3.02865	-2.57532	0.650437	3.67625	-8.75766	-1.55744	0
0.3580	0.594566	-4.36648	-10.4558	4.55409	-3.51181	-1.48155	4.58597	-8.44952	-1.55744	-1.28269
0.3587	-2.16592	-5.57874	-1.29723	4.85769	0.17559	-0.289083	3.06562	-5.40055	2.10615	-1.60336
0.3593	-5.52097	-5.2845	2.05801	-0.940437	1.11207	-1.19247	-7.00357	-0.210832	1.19164	0
0.3600	-5.22368	5.09619	-3.73562	-1.85866	-0.409711	-2.09585	-8.83547	4.07069	-0.947766	0.320672
0.3607	-1.2316	14.2529	-6.48613	5.1613	-1.99002	-0.86725	2.14344	4.37883	-0.947766	-0.320672
0.3613	1.18913	18.5252	-3.73562	7.30135	-2.28267	-0.289083	6.11878	4.37883	-0.642929	0
0.3620	0.297283	31.9542	-1.9117	5.4649	-0.11706	0.325219	0.934641	7.11965	-0.0332549	0
0.3627	-1.2316	22.7975	-4.95482	4.25048	1.11207	0.325219	-4.87259	6.81151	0.271582	0
0.3633	1.48641	-28.4704	-5.26693	6.07952	-0.11706	0.650437	-2.11852	2.54621	0.271582	0
0.3640	7.30466	-49.526	-0.38039	7.90856	-1.99002	0.650437	4.89752	0.0973073	-1.2526	-0.320672
0.3647	7.00738	-21.4558	-0.38039	6.07952	-2.86797	0.0361354	4.89752	1.31365	-2.47195	0
0.3653	-0.637035	-1.30641	-8.92453	3.02865	-0.409711	0.325219	-1.81943	4.37883	-0.338092	0
0.3660	-6.41282	6.62622	-14.1134	2.11043	1.69737	0.650437	-4.87259	2.85435	0.886798	0
0.3667	-5.81825	12.1108	-7.09085	3.93947	0.760891	0.93952	0.0124619	-1.11903	-0.338092	0
0.3673	-1.52888	2.96591	-2.81878	5.77591	-1.99002	0.0361354	4.89752	-6.6169	-2.16711	0
0.3680	0.297283	-9.25082	-10.4558	6.38312	-2.86797	-0.86725	5.50815	-9.04958	-2.47195	-0.320672
0.3687	-2.16592	-8.6388	-19	4.25048	-0.11706	-0.578166	-0.59817	4.37883	-0.947766	0
0.3693	-3.05777	-3.14245	-22.0528	2.11043	1.69737	-0.578166	-5.78231	16.5747	-0.338092	0
0.3700	-3.6948	7.53247	-15.6447	4.85769	0.468241	0.93952	-0.59817	10.1686	-0.338092	0
0.3707	-2.76048	11.2046	-6.78849	7.30135	-1.63884	0.325219	6.11878	29.6949	-0.947766	0.320672
0.3713	2.71801	-9.55682	2.67248	6.38312	-2.57532	-0.86725	3.97534	87.9982	-1.55744	0.320672
0.3720	6.07306	-18.7017	-0.38039	5.77591	-0.409711	-0.289083	-3.0407	108.741	-0.642929	0
0.3727	7.00738	-7.72078	-32.4209	10.9594	1.40472	0.325219	-4.56105	83.4086	0.271582	0
0.3733	8.53627	-18.1015	-66.2951	21.0302	1.11207	0.325219	-0.286623	82.5004	0.271582	0
0.3740	5.77578	-52.8921	-62.3351	25.9176	-1.63884	-0.578166	4.58597	45.5722	-0.947766	0
0.3747	-3.6948	-54.7164	-6.78849	24.6957	-2.57532	-0.578166	4.58597	-59.098	-1.55744	-0.320672
0.3753	-10.1076	9.36851	47.2268	24.9993	-0.11706	1.26474	2.75407	-105.497	0.581961	0
0.3760	-9.76787	53.9278	59.1262	23.7775	1.40472	2.16812	1.53281	-82.9058	1.80131	0.320672
0.3767	-4.58665	42.6291	53.0205	20.7266	0.17559	0.650437	0.934641	-44.7614	1.19164	0
0.3773	1.18913	27.3758	46.31	24.6957	-2.86797	-1.19247	3.36471	2.54621	-0.947766	0
0.3780	4.2469	8.7565	35.3275	19.2012	-3.51181	-0.86725	5.50815	41.3069	-1.86228	0
0.3787	5.18122	-7.72078	9.08058	-11.9295	-1.05354	0.650437	2.14344	93.1717	-1.55744	0.320672
0.3793	0.891849	-4.06047	-20.5215	-24.4366	0.760891	-0.578166	-5.78231	110.574	-1.2526	0
0.3800	-1.86864	3.56615	-37.9219	-0.940437	0.760891	-1.48155	-4.87259	25.7378	-0.0332549	-0.320672
0.3807	2.12345	2.6599	-48.29	17.3722	-1.05354	-1.48155	3.06562	-68.8773	-0.947766	0
0.3813	3.65233	4.48418	-29.9825	21.9485	-2.28267	-1.19247	4.89752	-97.8587	-3.38646	0
0.3820	0.594566	3.26015	13.9574	19.8084	-1.05354	-1.19247	-2.43007	-96.9505	-2.77679	0
0.3827	-2.16592	-6.49676	34.0985	14.9285	-0.409711	-0.578166	-7.92575	-97.2586	-1.2526	0.320672
0.3833	-3.39752	-9.55682	30.4409	9.13039	-0.760891	0.93952	-2.72915	-63.0713	-0.338092	-0.962017
0.3840	-2.16592	-12.6051	31.3578	-14.3657	-2.86797	-0.289083	3.97534	-12.1148	-0.642929	-1.28269
0.3847	-1.52888	-13.5231	27.3881	-44.5782	-2.86797	-1.19247	3.36471	1.02173	-0.947766	0
0.3853	-4.58665	-2.83645	14.2695	-46.7183	-0.11706	-1.19247	-3.95041	1.02173	-2.16711	0.320672
0.3860	-4.58665	7.23824	4.4964	-31.7601	0.760891	-1.19247	-5.17168	4.07069	-3.38646	0
0.3867	0.297283	6.32022	-3.73562	-23.5257	0.468241	-0.289083	0.623094	16.2665	-3.6913	0
0.3873	3.65233	-0.706169	-8.62216	-18.6384	-1.34619	-1.80677	3.67625	22.3807	-5.22102	0
0.3880	2.42073	-0.0941559	-0.0780286	-14.3657	-1.99002	-2.42107	3.36471	6.81151	-6.13553	0
0.3887	-1.52888	1.12987	0.224332	-13.4549	0.760891	-1.48155	-2.72915	8.95227	-3.99613	0
0.3893	-2.4632	-3.44846	-8.3198	-13.1513	1.99002	-3.03537	-11.5895	10.7849	-3.6913	-0.320672
0.3900	1.82617	-0.706169	-1.9117	-0.636831	0.468241	-2.42107	-8.83547	-22.478	-2.77679	-0.320672
0.3907	6.07306	6.62622	8.46611	18.283	-1.99002	-0.289083	2.45499	-49.3348	0.886798	0
0.3913	4.84146	7.23824	8.77822	20.1194	-2.57532	0.650437	5.1966	-40.788	3.63033	0
0.3920	-0.934318	-3.44846	0.224332	5.1613	-1.34619	0.325219	-3.95041	-23.0943	3.32549	0
0.3927	-3.39752	-12.9111	-3.1309	-0.333226	-6.55537	0.93952	-6.39294	-17.5964	2.10615	0
0.3933	0	-10.4631	3.2772	2.71764	-15.9787	2.16812	2.45499	-16.3801	2.10615	0.320672
0.3940	4.54418	-6.19075	4.4964	-11.0113	-21.7732	0.650437	6.72941	-13.3311	-0.947766	0
0.3947	6.7101	-5.2845	2.97484	-30.2347	-23.0023	-0.86725	4.58597	-7.5251	-4.61135	0
0.3953	2.12345	-3.75447	-0.682751	-36.951	-19.6661	-0.86725	-2.43007	1.92993	-4.91619	0
0.3960	-2.76048	-2.83645	-6.78849	-33.5966	-14.8081	-1.19247	-6.39294	7.11965	-3.99613	0
0.3967	-2.16592	-0.0941559	-2.81878	-24.1329	-9.89159	0.325219	-1.2088	5.90331	-3.08162	-0.320672
0.3973	-0.637035	2.3539	-2.81878	-15.284	-5.32624	-0.289083	4.58597	3.45441	-3.38646	0
0.3980	-3.39752	3.56615	-19.6047	-8.264	0.760891	-1.19247	4.58597	5.59517	-3.38646	0
0.3987	-7.04985	5.7082	-23.8768	-3.08049	8.13568	-0.578166	-1.50789	16.8828	-1.55744	0
0.3993	-6.75257	16.3831	-19.9168	16.7576	13.2863	-0.289083	-6.39294	38.858	0.886798	0
0.4000	-3.39752	25.5398	-29.9825	50.6355	15.1008	0.650437	-1.81943	69.3801	5.15451	0
0.4007	0	5.7082	-17.7808	53.0718	14.2228	0.0361354	4.28688	76.0943	5.76973	-0.320672
0.4013	3.65233	-10.7691	-7.09085	29.8792	14.5155	-0.289083	4.89752	40.9988	3.32549	-0.320672
0.4020	6.07306	-4.97849	-36.3906	14.0103	16.0372	-0.289083	-1.50789	14.4501	2.41098	0
0.4027	4.54418	-5.57874	-31.2017	5.4649	13.2863	-2.09585	-9.4461	15.0502	0.581961	0
0.4033	1.48641	4.79018	-3.43326	5.4649	9.65747	-1.19247	-5.17168	41.907	-0.0332549	-0.320672
0.4040	-1.52888	16.9951	-2.81878	9.13039	4.15564	-0.289083	4.28688	121.553	-0.338092	0
0.4047	-2.4632	-4.06047	20.0631	9.13039	-0.11706	0.0361354	6.72941	96.5288	-0.0332549	0.320672
0.4053	-3.6948	-28.7764	46.31	6.07952	-0.11706	0.325219	0.934641	-85.0466	0.886798	0
0.4060	-8.87602	-26.9521	34.713	1.50322	-1.05354	-0.86725	-6.70449	-181.786	-0.0332549	-0.320672
0.4067	-6.41282	-21.4558	13.9574	2.71764	-1.63884	-0.578166	-4.56105	-165.309	-0.0332549	0
0.4073	5.4785	-17.4895	2.05801	6.38312	0.17559	0.0361354	3.67625	-127.456	-0.338092	0
0.4080	12.4859	-4.06047	-8.92453	6.99034	1.69737	0.325219	6.41786	-70.0937	-1.2526	0
0.4087	6.37035	3.26015	-25.7104	3.02865	2.9265	-0.578166	-1.81943	-12.7148	-1.2526	0
0.4093	-3.99208	8.45049	-25.4081	0.281391	3.51181	-1.48155	-8.83547	8.95227	-0.338092	0
0.4100	-3.6948	13.6408	4.4964	3.93947	2.9265	0.325219	-2.43007	-7.83324	0.886798	0
0.4107	3.0153	-4.06047	28.3049	6.38312	-0.11706	0.325219	5.50815	-1.11903	-0.338092	0
0.4113	0.891849	-22.0678	34.4106	4.85769	-1.05354	-0.86725	4.28688	14.142	-1.2526	-0.320672
0.4120	-3.39752	-10.7691	30.1386	2.41404	1.11207	-0.578166	-2.11852	-29.1922	-0.0332549	-0.320672
0.4127	-0.934318	4.48418	7.54927	-0.636831	1.40472	-1.19247	-6.09386	-74.6671	-0.642929	0
0.4133	3.0153	4.79018	-10.1437	-0.333226	0.17559	-2.42107	-5.17168	-48.4266	-0.338092	-1.28269
0.4140	8.53627	-0.706169	-4.95482	4.25048	-0.760891	-1.19247	3.36471	14.142	1.49647	-0.962017
0.4147	8.53627	-1.91843	-3.1309	3.93947	-1.05354	-1.80677	2.45499	47.4049	-0.947766	0.320672
0.4153	0.594566	1.74188	-6.18377	8.21216	-0.11706	-3.32446	-8.22484	46.7886	-3.38646	0
0.4160	-3.39752	8.45049	3.89168	27.132	0.760891	-0.289083	-4.87259	36.4091	-0.642929	0
0.4167	-1.52888	2.3539	10.6021	41.7865	0.17559	1.26474	3.97534	39.1662	1.19164	0
0.4173	3.65233	-15.3474	9.38294	43.3119	-2.28267	-0.578166	5.80723	50.762	-1.2526	-0.641344
0.4180	7.89923	-17.4895	11.8213	39.0392	-1.99002	-0.289083	6.72941	35.5009	-2.16711	-0.641344
0.4187	2.12345	-1.91843	9.08058	23.4739	0.17559	0.0361354	1.84436	0.0973073	-1.86228	0
0.4193	-5.22368	10.2865	0.224332	-3.38409	1.40472	-0.86725	-6.09386	-16.6882	-4.61135	0
0.4200	-1.86864	9.98053	-8.92453	-23.5257	0.468241	1.55382	-0.897255	-7.5251	-7.65972	0
0.4207	4.2469	2.3539	-16.8639	-51.5982	-1.99002	1.55382	8.24976	2.54621	-10.4088	-0.320672
0.4213	4.54418	-1.61242	-16.2495	-105.921	-1.99002	-0.86725	5.1966	14.4501	-11.3233	-0.320672
0.4220	2.42073	2.3539	-1.29723	-116.91	0.468241	-0.578166	-2.72915	33.3602	-10.4088	-0.320672
0.4227	1.48641	1.74188	13.3526	-48.2437	1.69737	0.93952	-2.72915	56.8599	-7.65972	0.320672
0.4233	3.35505	-19.3137	3.58932	25.9176	1.40472	1.87904	2.45499	71.8128	-4.61135	0
0.4240	4.54418	-49.832	-3.1309	65.8898	-1.05354	0.650437	6.41786	31.8357	0.271582	-0.641344
0.4247	1.82617	-69.6754	5.11088	81.4552	-2.28267	-0.578166	6.41786	-40.788	5.45935	-0.320672
0.4253	-1.86864	-76.69	-1.59959	76.5753	-0.760891	-1.19247	-3.0407	-58.1898	4.54484	0
0.4260	-1.86864	-78.22	-5.87165	66.5045	0.760891	-0.578166	-5.78231	-34.0738	5.15451	-0.320672
0.4267	0.297283	-90.731	3.2772	48.1918	0.468241	1.87904	3.06562	-31.0248	7.90359	-0.320672
0.4273	2.71801	-67.8393	5.72535	11.263	-2.28267	0.325219	6.72941	-32.5493	2.71582	-0.320672
0.4280	5.77578	42.3231	1.75564	-43.3638	-2.86797	-0.86725	4.89752	-21.5698	-3.08162	-0.320672
0.4287	3.0153	121.673	-0.682751	-98.9014	-0.760891	0.93952	1.53281	-12.7148	-3.38646	0
0.4293	-2.4632	88.4124	1.14117	-108.669	0.17559	1.87904	-1.81943	-9.35772	-4.91619	-0.320672
0.4300	-2.16592	58.5061	3.2772	-60.7582	-0.409711	0.650437	-0.897255	-7.5251	-4.30097	-0.320672
0.4307	2.71801	65.5207	4.4964	-1.54765	-2.28267	-1.80677	4.28688	-6.00062	-1.55744	0
0.4313	2.42073	37.7448	5.72535	27.7466	-2.28267	-2.71016	4.28688	1.31365	-0.642929	0
0.4320	-2.4632	5.7082	4.19404	35.0702	-0.760891	-2.09585	-4.87259	11.093	1.19164	0
0.4327	-4.58665	3.87216	6.02771	53.6864	-1.05354	-0.86725	-9.14702	12.3094	6.68424	0
0.4333	-2.16592	7.53247	12.4358	66.5045	-1.99002	1.87904	-1.2088	4.67075	9.42777	-0.320672
0.4340	-0.637035	11.2046	14.8742	48.7991	-3.16063	1.55382	6.11878	-6.92504	4.84968	0
0.4347	-1.86864	20.3612	16.0934	24.9993	-2.86797	0.325219	5.1966	-9.66586	2.10615	0
0.4353	-4.58665	40.8048	9.08058	12.4849	-0.409711	0.650437	-1.81943	2.54621	2.71582	0
0.4360	-3.05777	45.9952	-28.4609	-0.333226	0.760891	1.87904	-2.11852	30.3112	2.71582	0
0.4367	4.54418	5.7082	-75.1513	-18.3348	-0.409711	3.07151	5.80723	57.7843	2.71582	0
0.4373	6.07306	-25.1161	-73.9321	-34.5074	-2.86797	0.0361354	7.34004	41.5989	1.49647	0
0.4380	0.891849	-3.14245	-26.9296	-41.5273	-2.86797	-1.19247	5.50815	5.28703	0.886798	0
0.4387	-3.05777	27.3758	20.6776	-41.2237	-1.05354	-0.578166	-1.2088	2.23807	2.10615	0.320672
0.4393	-4.58665	36.2265	71.64	-35.4256	-0.11706	-1.48155	-9.4461	30.9275	1.49647	0.320672
0.4400	0	21.8795	122.3	-20.7785	-0.409711	-0.289083	-3.95041	67.8556	0.581961	0
0.4407	8.23898	-11.3811	121.383	-8.87861	-2.28267	-0.289083	4.28688	89.5227	-0.338092	0
0.4413	10.6597	-39.4631	96.9701	-6.13135	-2.86797	-0.86725	3.97534	87.9982	-1.55744	0
0.4420	5.77578	-35.8028	58.2094	-5.82034	-0.11706	0.650437	0.934641	86.7657	-0.0332549	0.320672
0.4427	-1.2316	-11.3811	-61.7206	-5.82034	1.40472	0.650437	-2.43007	81.8841	0.271582	0.320672
0.4433	-2.76048	-2.83645	-175.857	-5.21313	-0.11706	-0.578166	-2.11852	16.8828	-2.47195	-0.962017
0.4440	2.42073	36.8385	-187.152	-3.08049	-2.86797	-2.09585	3.67625	-57.5735	-4.91619	-1.60336
0.4447	2.71801	96.039	-161.207	-2.46587	-2.28267	-1.80677	3.97534	-15.7638	-6.44037	-0.320672
0.4453	-4.28937	63.6847	-137.711	-5.82034	0.17559	-0.86725	-3.95041	84.933	-6.74521	0.320672
0.4460	-10.1076	3.56615	-113.6	-8.5676	0.468241	-2.42107	-9.75765	119.737	-7.05005	-0.320672
0.4467	-10.4049	-13.5231	-70.5769	-4.90953	-0.11706	-2.09585	-5.17168	86.7657	-3.6913	-0.962017
0.4473	-5.22368	-31.2245	36.2345	0.888602	-1.99002	-0.578166	3.97534	8.95227	2.10615	-0.320672
0.4480	0.594566	-33.9667	122.602	14.0103	-2.57532	0.0361354	5.50815	-66.1203	5.45935	0.320672
0.4487	0.891849	-22.3738	83.5394	31.4047	-0.760891	-1.19247	-2.43007	-94.8097	4.54484	0
0.4493	-2.16592	-16.5714	23.116	38.7282	0.468241	-2.71016	-10.6674	-105.189	0.581961	0
0.4500	-4.28937	-7.41478	35.3275	42.3937	-0.11706	-1.19247	-5.78231	-97.8587	-0.338092	0.320672
0.4507	-0.339752	-15.0414	45.3932	46.6664	-2.28267	0.0361354	4.58597	-71.31	-0.338092	0
0.4513	7.60195	-25.1161	21.8968	49.4137	-2.86797	-0.578166	7.0285	-60.3305	-1.2526	0
0.4520	6.07306	-13.8291	17.6247	44.5338	-0.11706	-0.86725	-0.897255	-45.6696	-1.55744	0.320672
0.4527	0.594566	-9.86283	29.5241	37.8174	1.11207	0.0361354	-5.17168	-4.47614	-0.338092	0
0.4533	2.12345	-17.7955	21.2823	32.6265	0.17559	1.55382	3.06562	1.02173	1.49647	-0.320672
0.4540	5.18122	-16.5714	7.54927	0.584996	-1.99002	-0.289083	7.34004	-30.1166	1.19164	0
0.4547	3.94962	-5.2845	15.4887	-47.0219	-2.86797	-1.19247	3.97534	-53.3082	-0.0332549	0
0.4553	0	4.17817	13.9574	-40.6165	-0.760891	-0.86725	-3.0407	-55.7409	-0.338092	0
0.4560	-2.16592	1.12987	-8.00769	20.423	0.468241	-1.48155	-8.22484	-26.7595	-0.338092	0
0.4567	-0.339752	-3.75447	-5.87165	51.8573	0.468241	-0.578166	-3.33978	-38.0471	0.581961	0
0.4573	4.2469	-4.06047	16.7079	54.2936	-1.34619	0.0361354	4.58597	-79.8568	-0.338092	0
0.4580	3.94962	2.6599	17.6247	90.6152	-1.63884	-0.578166	3.67625	-84.4303	-0.338092	-0.320672
0.4587	-1.86864	13.6408	-6.48613	130.587	0.760891	0.0361354	-1.81943	-86.5711	1.49647	-0.320672
0.4593	-4.58665	6.01421	-37.0051	130.898	1.11207	0.650437	-1.81943	-45.6696	0.581961	-0.320672
0.4600	0	-11.3811	-41.8819	119.606	-0.409711	0.0361354	0.934641	54.4272	-1.55744	0
0.4607	7.60195	-13.5231	2.97484	82.0698	-2.57532	-1.19247	4.28688	120.645	-3.08162	0
0.4613	8.83355	-4.97849	42.0379	-33.293	-2.57532	-0.86725	4.28688	117.904	-4.30097	0
0.4620	3.94962	-0.0941559	19.1463	-109.276	-0.409711	-1.80677	-4.56105	68.7638	-4.61135	-0.320672
0.4627	1.48641	-4.67249	-5.87165	-65.9417	0.17559	-0.86725	-6.70449	19.3317	-2.47195	0
0.4633	2.42073	-1.01218	3.89168	-87.3051	-1.34619	1.55382	1.53281	-9.35772	-1.55744	0.320672
0.4640	2.42073	8.14449	1.45328	-196.255	-3.16063	0.650437	6.41786	-53.9082	-3.6913	0
0.4647	0.891849	3.56615	-2.51642	-193.204	-3.16063	-0.289083	5.1966	-100.908	-1.2526	0
0.4653	-3.05777	2.6599	7.86138	-108.972	-1.63884	-1.48155	-3.33978	-96.9505	2.10615	0
0.4660	-3.99208	16.6891	3.58932	-68.9925	-1.05354	-3.03537	-10.9789	-61.5469	-0.338092	0
0.4667	1.48641	10.8985	-4.65246	-49.1619	-0.760891	-0.86725	-4.56105	-42.9287	-1.2526	0
0.4673	7.30466	-38.8511	-0.38039	-36.951	-1.63884	-0.289083	4.28688	-33.1656	-2.77679	0
0.4680	5.18122	-72.7237	-0.38039	-43.0528	-1.99002	-0.578166	4.89752	-14.5474	-6.13553	0
0.4687	-4.28937	-51.056	-15.3326	-42.4456	0.17559	1.26474	0.0124619	12.9257	-5.8307	0
0.4693	-7.9417	-30.0004	-29.9825	-25.962	1.40472	2.45721	-0.897255	34.5927	-0.947766	0
0.4700	-2.4632	-1.01218	-19.9168	-13.4549	-0.11706	2.16812	3.06562	29.0949	2.41098	-0.320672
0.4707	3.94962	38.6628	4.80851	-13.1513	-3.16063	-0.289083	4.58597	16.2665	0.581961	-0.320672
0.4713	4.54418	18.8312	18.5416	-15.284	-3.16063	-1.80677	1.53281	29.6949	-0.338092	-0.320672
0.4720	0	-23.28	15.4887	-17.113	-0.11706	-2.09585	-6.70449	52.5946	1.49647	0.320672
0.4727	-2.4632	-35.4968	3.2772	-17.113	0.17559	-3.61354	-13.7205	61.4333	2.71582	0.320672
0.4733	-4.58665	-33.0487	-7.40297	-12.5367	-1.63884	-3.93876	-12.4993	39.1662	4.24	-0.962017
0.4740	-3.6948	-33.0487	-11.0606	-6.13135	-1.99002	-2.09585	-0.59817	-13.023	4.54484	-1.28269
0.4747	0.297283	-47.0897	-12.8942	-5.21313	-0.760891	0.0361354	5.50815	-47.8103	1.49647	0.320672
0.4753	-1.86864	-24.8101	-15.0303	-8.5676	0.17559	-0.289083	-3.33978	-31.6411	-0.338092	0.320672
0.4760	-3.99208	43.2411	-2.51642	-7.65679	0.468241	-0.289083	-5.78231	22.0725	0.886798	0.320672
0.4767	1.82617	68.263	37.4635	-2.46587	0.17559	1.55382	2.14344	55.3354	0.271582	0
0.4773	6.7101	34.0844	78.3505	0.584996	-2.28267	0.650437	6.11878	15.6665	-2.47195	-0.320672
0.4780	6.07306	11.5106	84.1539	1.80682	-2.57532	0.325219	6.41786	-48.4266	-2.47195	0
0.4787	0	19.4432	52.7181	0.584996	0.760891	1.55382	3.36471	-65.5202	-1.55744	0
0.4793	-6.75257	17.3011	24.9497	-1.54765	1.40472	0.325219	-3.33978	-45.3776	-0.642929	0
0.4800	-4.58665	3.26015	22.1991	1.50322	-0.760891	0.650437	-2.72915	-20.3534	3.02066	0
0.4807	2.71801	6.93223	-15.6447	4.85769	-2.86797	0.325219	3.06562	-16.0719	5.45935	-0.320672
0.4813	6.37035	4.48418	-72.0985	5.4649	-2.28267	0.325219	5.50815	-6.6169	4.54484	0
0.4820	3.35505	-19.0077	-55.3125	3.93947	1.11207	1.26474	2.75407	27.2623	-0.947766	0.320672
0.4827	-3.6948	-19.6197	-18.6879	0.584996	1.69737	-0.289083	-4.56105	16.5747	-7.65972	0
0.4833	-3.05777	17.3011	-19.3023	2.71764	0.17559	-0.578166	-3.33978	-21.2616	-7.65972	0
0.4840	1.82617	67.3568	-7.40297	12.1813	-1.99002	-0.289083	4.89752	-24.9269	-4.91619	0
0.4847	1.18913	91.1547	8.77822	18.5866	-1.99002	-0.86725	4.89752	-16.6882	-4.61135	0
0.4853	-0.637035	73.4534	-2.21406	17.6758	-0.11706	-1.19247	-4.26196	-15.1637	-5.22102	0
0.4860	0	-7.41478	-22.0528	16.1503	0.468241	-2.09585	-10.3683	-10.8822	-7.05005	-0.320672
0.4867	3.35505	-110.563	-36.3906	19.8084	-0.409711	-2.09585	-7.00357	-6.30876	-9.49428	-0.320672
0.4873	8.23898	-101.406	-27.5441	23.7775	-2.28267	-0.86725	3.36471	-8.44952	-14.9869	0
0.4880	4.54418	-23.28	5.41324	22.2521	-2.28267	-1.19247	5.50815	-16.0719	-19.2546	0.320672
0.4887	-4.28937	12.7228	14.2695	15.8467	-0.11706	-2.42107	-5.78231	-11.8066	-19.565	0.320672
0.4893	-5.52097	17.9132	-7.40297	-2.16226	0.760891	0.0361354	-5.48322	2.54621	-18.0353	0.320672
0.4900	-3.05777	11.2046	-33.3377	-31.1529	0.17559	2.16812	6.72941	5.90331	-12.2378	0
0.4907	-0.934318	2.04789	-64.4712	-36.0328	-2.28267	-0.86725	7.95068	8.95227	-4.91619	-0.320672
0.4913	2.12345	7.83848	-83.9978	-14.9803	-1.34619	-1.19247	5.50815	19.9318	3.32549	-0.320672
0.4920	-3.05777	39.2748	-38.5266	-7.04217	1.69737	0.650437	1.84436	19.3317	10.6527	-0.320672
0.4927	-8.87602	69.4871	55.1565	-7.04217	2.28267	0.650437	-2.43007	10.4768	11.2623	0
0.4933	0	38.6628	102.764	-2.46587	0.468241	1.26474	1.84436	13.5257	7.29391	0
0.4940	8.23898	-10.1571	126.27	-0.022215	-2.28267	0.325219	5.50815	17.4991	3.63033	0
0.4947	1.18913	-16.5714	180.588	3.63586	-2.57532	-0.578166	1.53281	22.3807	3.63033	0
0.4953	-11.9338	-37.321	176.315	5.77591	-0.409711	-1.80677	-7.6142	48.9293	4.54484	0
0.4960	-9.47058	-68.4513	91.4788	8.52317	0.468241	-1.48155	-8.53638	91.9554	4.24	0
0.4967	8.23898	-59.9067	18.8439	16.1503	-0.11706	1.55382	1.23373	125.835	5.15451	0
0.4973	15.5436	-59.9067	2.36037	15.8467	-3.16063	1.26474	7.34004	139.863	5.15451	0
0.4980	8.53627	-63.261	-0.0780286	8.52317	-3.16063	0.325219	4.89752	151.167	4.84968	0.320672
0.4987	0	16.0771	-59.5846	3.63586	0.17559	-0.86725	-4.87259	75.7862	3.63033	0.320672
0.4993	-5.52097	75.5954	-108.109	-3.9913	1.11207	-1.80677	-9.4461	-92.3608	2.10615	0
0.5000	-4.28937	34.6965	-82.7786	-17.113	0.17559	0.0361354	-2.43007	-202.237	1.19164	0
0.5007	1.48641	9.06251	-41.2771	-25.0512	-0.760891	0.325219	4.89752	-246.788	-2.16711	0
0.5013	0.594566	-0.706169	-10.4558	-22.9111	-1.05354	-0.578166	4.28688	-254.718	-3.38646	-0.320672
0.5020	-5.22368	-21.7618	-7.40297	-20.1639	0.468241	-1.19247	-3.65133	-177.505	-1.86228	0.320672
0.5027	-6.41282	-14.7354	-11.3727	-15.5876	0.760891	-1.80677	-8.22484	-18.8127	-1.2526	0
0.5033	-1.86864	-7.41478	8.46611	-1.24404	-1.05354	-0.86725	-1.81943	87.9982	0.581961	-1.60336
0.5040	2.42073	-8.3328	-5.56929	11.8776	-2.57532	-0.578166	5.50815	59.6169	0.271582	-0.962017
0.5047	3.94962	2.96591	-46.1539	30.4939	-1.63884	0.93952	7.0285	-2.33538	-0.947766	0.320672
0.5053	5.77578	15.1709	-54.7078	63.7572	-0.11706	3.07151	5.80723	-11.8066	3.63033	0.320672
0.5060	3.35505	19.7492	-62.3351	69.8589	-0.11706	0.93952	-2.43007	7.73593	6.07457	0
0.5067	-0.339752	22.4915	-53.791	39.0392	-0.760891	-0.86725	-6.70449	21.1643	2.10615	0.320672
0.5073	1.48641	20.3612	-4.3501	7.60495	-2.28267	-0.578166	2.45499	1.31365	0.271582	0
0.5080	2.42073	15.7829	23.116	-9.78943	-1.63884	-0.289083	5.50815	-10.5741	1.19164	0
0.5087	2.12345	22.4915	16.0934	-10.7077	1.11207	-1.19247	-4.26196	23.9052	3.02066	0
0.5093	3.35505	30.4241	20.3655	-4.60592	1.40472	-1.48155	-9.4461	29.403	3.63033	0
0.5100	3.65233	13.0288	47.8316	1.80682	-0.11706	-0.86725	-4.56105	6.50337	0.271582	0
0.5107	5.77578	-10.1571	73.4737	8.52317	-1.34619	-0.86725	3.06562	28.4786	-2.77679	0
0.5113	8.23898	-2.83645	89.6451	13.4031	-1.99002	0.650437	7.34004	58.0762	-1.2526	0
0.5120	3.65233	17.6072	93.3027	8.52317	-0.409711	0.0361354	-1.50789	29.6949	-0.338092	0
0.5127	-0.339752	25.2338	44.174	2.71764	1.40472	-2.09585	-10.0567	-16.9963	2.71582	0
0.5133	5.18122	18.8312	-43.1108	6.99034	1.69737	0.0361354	-1.81943	-25.5269	6.68424	0
0.5140	13.4202	5.40219	-106.275	8.82678	-0.760891	0.650437	7.0285	-13.6392	2.71582	-0.320672
0.5147	10.6597	-2.22443	-134.356	6.38312	-0.409711	-0.578166	5.1966	1.92993	-1.55744	-0.320672
0.5153	-4.28937	1.12987	-129.771	4.55409	1.99002	-0.578166	-2.43007	19.3317	-0.947766	0
0.5160	-13.1229	30.4241	-118.486	-2.76948	2.28267	0.0361354	-4.56105	22.0725	-0.642929	0
0.5167	-6.75257	63.0845	-115.131	-9.78943	0.468241	1.26474	0.623094	7.42779	-1.2526	-0.320672
0.5173	-1.2316	26.1518	-81.5594	-0.333226	-2.57532	0.650437	5.80723	21.1643	-4.61135	0
0.5180	-5.22368	-51.9741	-59.2823	8.82678	-2.28267	-1.19247	3.97534	76.0943	-9.79912	-0.320672
0.5187	-9.1733	-90.425	-70.2648	2.41404	-0.409711	-1.48155	-5.17168	95.0043	-13.4572	0
0.5193	-7.64442	-93.4733	-33.3377	-1.24404	-0.11706	0.650437	-4.26196	131.932	-12.8475	0
0.5200	0.891849	-98.9696	20.3655	1.80682	-0.409711	2.45721	5.1966	168.552	-11.0185	0
0.5207	7.00738	-133.148	52.7181	2.11043	-2.28267	0.0361354	7.0285	35.5009	-10.4088	0
0.5213	6.7101	-144.435	58.5215	2.71764	-2.28267	-0.578166	4.58597	-81.3813	-2.77679	0
0.5220	7.60195	-18.1015	15.4887	2.11043	0.760891	0.650437	-0.286623	-54.5245	11.5672	0
0.5227	6.07306	142.117	-13.5087	-0.636831	1.69737	-0.578166	-6.09386	-43.2369	16.7549	-0.320672
0.5233	0	149.143	-11.3727	1.19221	0.468241	-0.578166	-1.81943	-47.5022	12.4817	-0.320672
0.5240	-2.4632	74.3714	-15.3326	3.93947	-1.34619	-0.578166	5.80723	17.4991	6.3794	0
0.5247	-0.637035	37.4505	-33.6498	3.63586	-1.34619	-0.289083	6.72941	97.7614	2.71582	0
0.5253	-3.99208	25.8458	-37.3074	-1.85866	0.760891	-0.86725	-1.81943	63.5741	0.581961	0
0.5260	-8.28145	16.6891	28.6072	-6.43496	1.69737	-2.42107	-10.9789	-40.4961	-0.0332549	0
0.5267	-7.34713	20.6555	114.058	-2.76948	0.760891	-1.48155	-7.00357	-96.3342	1.19164	0
0.5273	-5.22368	3.56615	120.164	0.584996	-1.34619	-0.86725	3.36471	-105.789	-0.0332549	0
0.5280	-6.75257	-11.6871	67.0656	-2.16226	-1.63884	-0.86725	3.67625	-76.1916	-1.86228	-0.320672
0.5287	-12.5283	25.8458	22.8136	-5.82034	0.760891	-1.19247	-5.17168	-7.83324	-1.2526	-0.320672
0.5293	-11.9338	43.2411	27.0857	-4.90953	2.28267	-0.289083	-6.39294	42.2151	-0.338092	0
0.5300	-3.39752	22.4915	54.8541	-1.24404	0.468241	0.650437	0.934641	53.5028	-0.0332549	-0.320672
0.5307	8.53627	9.06251	27.3881	0.281391	-2.86797	-0.289083	5.50815	69.6882	0.271582	-0.320672
0.5313	16.1382	-23.28	0.224332	-0.940437	-2.28267	-0.289083	3.97534	49.2375	3.63033	-0.320672
0.5320	14.312	-67.2273	43.2571	0.888602	0.760891	1.55382	1.84436	-19.7372	6.07457	0
0.5327	7.00738	-61.7427	85.9876	6.07952	1.40472	1.26474	-2.43007	-41.0961	3.02066	0
0.5333	3.94962	-22.6798	73.4737	7.90856	-0.760891	-0.86725	-2.72915	-35.3063	-0.0332549	-1.28269
0.5340	6.37035	-1.61242	40.5164	7.30135	-2.28267	-1.48155	5.1966	-26.7595	-0.0332549	-1.60336
0.5347	2.12345	11.8048	17.0102	3.93947	-0.760891	-0.86725	4.28688	-10.2821	-0.642929	0
0.5353	-6.75257	24.9278	-35.1714	-2.46587	0.17559	-1.80677	-6.70449	-31.3329	-2.47195	0
0.5360	-6.41282	19.1372	-71.1816	-2.76948	0.468241	-1.19247	-7.92575	-72.8345	-1.55744	-0.320672
0.5367	-0.934318	3.87216	-26.0128	1.80682	0.17559	0.93952	0.934641	-93.2853	0.271582	0.320672
0.5373	1.82617	-8.3328	13.0503	2.41404	-1.99002	0.325219	6.11878	-83.5221	-1.55744	0
0.5380	1.48641	-19.9257	-1.9117	1.50322	-1.99002	-0.289083	3.97534	-56.3571	-1.55744	0
0.5387	-0.934318	-30.0004	-28.4609	-0.022215	0.17559	-0.578166	-2.72915	-35.3063	0.581961	0
0.5393	-1.52888	-38.8511	-27.5441	-1.54765	0.760891	-0.86725	-5.78231	-27.0676	0.581961	0.320672
0.5400	3.94962	-24.1981	11.519	5.77591	-0.409711	-0.289083	-0.286623	-21.2616	-0.338092	0
0.5407	7.89923	27.3758	45.6955	28.3538	-2.28267	-0.578166	6.11878	-13.9312	-1.86228	-0.641344
0.5413	5.18122	54.5398	53.0205	56.7372	-1.34619	0.0361354	6.11878	-9.66586	-0.947766	-0.320672
0.5420	-0.637035	43.5471	35.0154	71.3844	1.11207	-0.578166	-1.81943	-3.85986	-0.0332549	-0.320672
0.5427	-6.11553	29.2001	3.89168	72.6062	1.11207	-3.03537	-9.4461	17.4991	-0.947766	-0.320672
0.5433	-7.04985	6.62622	-13.1966	78.1007	-0.409711	-2.71016	-4.87259	45.5722	-0.0332549	-0.320672
0.5440	-1.86864	-9.25082	-40.6627	77.1825	-1.63884	-0.86725	4.28688	46.4804	0.271582	0
0.5447	3.35505	-4.97849	-65.6904	70.1625	-1.99002	0.650437	5.50815	17.8072	-0.642929	0
0.5453	1.82617	0.823864	-36.3906	65.8898	-0.760891	-0.289083	-2.72915	-18.5208	0.271582	0
0.5460	-3.05777	-0.706169	11.8213	3.93947	0.17559	-1.19247	-7.6142	-34.69	-0.0332549	0
0.5467	0	-3.44846	17.0102	-101.952	-0.760891	0.325219	-0.286623	-22.1698	-1.55744	0
0.5473	6.7101	-5.2845	-2.51642	-135.527	-2.57532	0.650437	7.63913	-9.974	-2.16711	0.320672
0.5480	3.35505	-5.57874	-12.2798	-96.4577	-3.16063	-1.19247	2.75407	-7.5251	-2.77679	0.320672
0.5487	-6.41282	-5.2845	-29.9825	-59.8399	-1.63884	-3.03537	-7.92575	-11.4985	-3.6913	-0.641344
0.5493	-5.52097	-3.44846	-42.4963	-37.2546	1.11207	-0.578166	-4.87259	-21.8779	-1.86228	-0.962017
0.5500	2.42073	-1.91843	-26.9296	-26.273	0.760891	2.45721	5.50815	-16.0719	0.271582	0
0.5507	6.7101	-4.97849	-13.8111	-29.6275	-2.86797	0.0361354	6.72941	3.76255	-1.55744	0
0.5513	4.84146	-2.22443	-20.5215	-31.4565	-1.99002	-0.289083	3.36471	9.56855	-2.16711	0
0.5520	0	4.17817	-19	-27.1838	0.468241	1.55382	-0.897255	4.37883	-1.55744	0
0.5527	-0.339752	-9.25082	4.80851	-17.7276	0.760891	1.87904	-0.59817	5.28703	-0.642929	0
0.5533	3.0153	-37.6271	9.38294	-9.78943	0.17559	1.26474	2.14344	13.2176	-0.0332549	0
0.5540	4.2469	-62.649	-15.6447	-10.093	-2.28267	-0.86725	3.67625	23.9052	-1.86228	0
0.5547	1.48641	-62.649	-37.0051	-11.0113	-1.99002	-0.86725	0.623094	25.7378	-1.86228	0
0.5553	-7.04985	-30.6124	-52.562	-13.4549	0.468241	-0.86725	-7.31512	20.8562	-1.86228	0
0.5560	-16.1807	-40.0751	-76.6729	-14.9803	0.468241	-2.42107	-10.9789	21.1643	-2.77679	0
0.5567	-13.1229	-50.138	-75.7561	-9.18222	-0.409711	-0.578166	-2.72915	16.8828	-2.16711	0
0.5573	0.594566	35.3085	-20.8239	-4.29491	-2.28267	0.650437	6.11878	0.713587	-2.16711	0
0.5580	9.13083	80.1738	34.0985	-3.6877	-1.63884	0.650437	5.1966	-8.75766	-1.55744	0
0.5587	8.53627	45.9952	29.8264	-5.82034	0.17559	0.325219	-1.2088	-4.168	-0.338092	0
0.5593	2.71801	36.2265	7.54927	-8.264	-0.409711	-1.19247	-7.00357	-0.210832	-1.86228	0
0.5600	2.71801	10.2865	15.4887	-3.6877	-0.409711	0.0361354	-2.11852	9.86047	-1.55744	0
0.5607	7.00738	-26.9521	17.0102	0.584996	-1.99002	0.325219	5.80723	12.9257	-1.2526	0
0.5613	3.0153	-15.3474	-4.65246	-0.636831	-2.28267	0.0361354	3.67625	-43.8369	-2.16711	-0.320672
0.5620	-5.52097	15.4769	-12.5919	-4.29491	-0.11706	-0.289083	-3.95041	-90.2363	-1.86228	0.320672
0.5627	-10.9995	24.6335	1.75564	-7.04217	-0.11706	-2.42107	-10.0567	-34.69	-2.77679	0
0.5633	-8.57873	11.8048	17.0102	-3.08049	-1.05354	-3.03537	-6.39294	36.7173	-1.86228	-1.60336
0.5640	-1.2316	-3.44846	32.2746	3.33226	-1.63884	-0.578166	4.58597	61.1414	-0.338092	-0.962017
0.5647	-2.76048	-2.53044	7.54927	3.02865	-1.63884	0.650437	5.50815	68.4557	-0.642929	0.641344
0.5653	-9.47058	2.96591	-39.1411	-1.24404	-0.760891	-0.86725	-3.95041	65.7149	-0.947766	0.320672
0.5660	-5.52097	-2.22443	-32.1185	-1.24404	1.11207	0.0361354	-5.17168	80.6677	-1.55744	0
0.5667	4.84146	-7.41478	4.4964	0.584996	0.468241	1.26474	1.23373	94.0962	-4.91619	0
0.5673	7.30466	-1.01218	54.5518	0.584996	-2.57532	-0.578166	6.11878	25.7378	-9.49428	0
0.5680	4.2469	3.26015	102.764	-0.022215	-2.28267	-0.578166	4.28688	-78.6405	-10.4088	-0.320672
0.5687	2.42073	-1.91843	111.308	-3.08049	0.468241	-0.86725	-3.65133	-128.073	-8.87907	-0.320672
0.5693	2.12345	-0.706169	111.005	-5.82034	0.760891	-2.09585	-9.75765	-129.289	-7.35488	0.320672
0.5700	3.35505	7.83848	107.65	-2.16226	-0.760891	-1.19247	-3.65133	-101.216	-2.47195	0
0.5707	7.00738	11.8048	85.0707	3.63586	-2.57532	0.325219	6.41786	-38.6634	3.32549	0
0.5713	8.53627	15.4769	20.9799	6.68673	-1.05354	0.93952	7.0285	15.0502	6.3794	0
0.5720	7.00738	-0.400163	-73.0153	4.85769	0.760891	-0.289083	-3.33978	13.8339	5.76973	0
0.5727	4.54418	-29.6944	-94.0733	2.71764	0.17559	-1.19247	-9.14702	-2.64351	3.93517	0
0.5733	2.42073	-25.7281	-43.4132	6.38312	-1.05354	0.93952	0.623094	5.28703	4.24	0
0.5740	0.594566	-1.30641	-26.0128	8.52317	-2.28267	0.325219	7.95068	21.7644	3.93517	0
0.5747	-2.4632	13.6408	-45.5492	4.85769	-1.63884	-0.86725	3.36471	38.858	2.10615	0
0.5753	-5.81825	19.4432	-59.887	-3.6877	0.17559	-1.19247	-4.26196	47.713	0.581961	0.320672
0.5760	-7.64442	17.9132	-44.33	-9.78943	0.760891	-1.80677	-6.70449	16.5747	-0.947766	0.320672
0.5767	-4.88393	15.4769	-6.18377	-12.8403	0.468241	-1.19247	0.324009	-27.0676	-3.08162	0
0.5773	-0.637035	1.74188	6.94455	-22.9111	-1.05354	-0.289083	7.63913	-26.4514	-7.05005	0
0.5780	-0.934318	-19.0077	-8.92453	-33.9002	-1.05354	-0.289083	5.1966	3.76255	-10.4088	0
0.5787	-4.28937	-28.4704	-27.2417	-29.9311	1.11207	-0.86725	-3.95041	21.7644	-10.7136	0.320672
0.5793	-3.99208	-31.5187	-10.1437	-8.87861	1.11207	0.0361354	-5.78231	20.2399	-6.13553	0
0.5800	-0.934318	-30.9184	39.5995	11.574	-1.34619	2.16812	1.84436	12.9257	-0.0332549	-0.320672
0.5807	-1.52888	-52.5861	50.2797	17.3722	-4.09711	1.26474	6.11878	2.23807	1.49647	0
0.5813	-5.52097	-83.7046	14.8742	14.6249	-2.86797	-1.19247	-0.897255	-13.9312	-0.642929	0
0.5820	-6.11553	-28.1644	-13.5087	16.4539	-0.409711	-1.19247	-8.22484	5.28703	-1.2526	0
0.5827	0	73.1474	-11.3727	24.9993	-1.05354	-0.86725	-8.83547	68.7638	1.19164	0
0.5833	5.4785	94.815	16.4055	30.4939	-2.86797	-0.289083	-2.72915	102.643	3.93517	0
0.5840	8.53627	75.9014	16.4055	24.6957	-3.80446	0.93952	6.41786	76.0943	2.10615	-0.320672
0.5847	7.30466	52.0918	-18.0831	2.41404	-1.63884	0.325219	3.97534	-23.4024	-0.642929	-0.320672
0.5853	1.48641	-52.2801	-8.62216	-27.7984	0.17559	-1.80677	-7.00357	-132.338	-2.47195	0
0.5860	-3.6948	-125.828	39.5995	-25.962	0.760891	-1.80677	-8.83547	-121.358	-2.47195	0.320672
0.5867	0	-52.8921	64.9296	4.85769	0.468241	0.0361354	0.0124619	-34.69	-0.0332549	0
0.5873	7.60195	13.3348	64.3151	22.2521	-1.34619	0.325219	7.34004	38.858	0.271582	0
0.5880	7.60195	15.7829	78.965	20.7266	-1.05354	0.325219	5.1966	73.6454	0.581961	0
0.5887	1.82617	31.3421	72.5569	13.4031	0.468241	-0.289083	-4.56105	58.0762	1.49647	0
0.5893	1.82617	41.7228	-20.2192	9.13039	1.11207	0.93952	-6.70449	8.95227	3.02066	-0.320672
0.5900	6.07306	18.5252	-107.192	10.3522	0.17559	2.78243	3.67625	-50.5511	3.63033	0
0.5907	5.77578	-15.3474	-95.8972	9.13039	-2.57532	1.26474	8.24976	-68.2611	1.19164	0
0.5913	2.12345	-37.9331	-51.0405	5.4649	-1.63884	0.0361354	3.06562	-24.9269	1.49647	0
0.5920	-0.934318	-46.7837	-34.2546	2.41404	1.11207	0.325219	-2.11852	7.42779	3.02066	0
0.5927	-2.4632	-55.6344	-29.9825	1.50322	0.468241	-0.289083	-5.17168	-20.6454	1.49647	-0.320672
0.5933	-1.86864	-88.5889	-16.8639	4.55409	-1.05354	-0.289083	-0.59817	-67.9529	1.80131	-0.962017
0.5940	4.2469	-84.0106	4.4964	7.90856	-1.34619	0.0361354	6.72941	-67.6448	3.32549	-0.962017
0.5947	4.2469	21.5735	-0.38039	4.25048	-0.11706	-0.86725	0.934641	-23.0943	1.49647	0.320672
0.5953	-3.6948	87.1884	-23.272	-0.940437	1.11207	-1.19247	-7.92575	15.0502	-1.2526	0
0.5960	-5.52097	75.5954	-15.3326	0.888602	1.11207	0.325219	-3.0407	33.9765	0.271582	0
0.5967	2.71801	78.0317	1.14117	5.4649	0.17559	1.55382	6.41786	33.6683	1.19164	0
0.5973	9.42811	50.8677	-7.09085	6.07952	-1.63884	0.325219	8.56131	19.6236	-0.642929	0
0.5980	6.07306	10.8985	-13.5087	4.55409	-1.05354	-0.289083	4.58597	22.6888	-0.338092	0
0.5987	0	6.01421	-12.2798	0.584996	0.468241	-0.289083	-2.43007	37.0254	-0.0332549	0
0.5993	-3.05777	9.06251	-23.5744	-2.16226	0.468241	-1.19247	-6.09386	19.6236	-1.2526	0
0.6000	-1.2316	8.45049	-34.869	1.50322	-0.409711	0.0361354	0.0124619	-8.44952	-0.642929	-0.320672
0.6007	3.65233	16.9951	-33.0354	5.1613	-1.63884	1.26474	8.24976	-7.83324	-0.642929	0
0.6013	2.12345	34.3904	-26.9296	3.33226	-1.34619	0.325219	5.80723	3.76255	-0.947766	0.320672
0.6020	-6.11553	25.2338	-1.9117	-3.9913	-0.760891	-2.42107	-7.6142	12.9257	-2.16711	0
0.6027	-7.64442	-6.49676	30.4409	-5.82034	-1.34619	-2.42107	-11.8886	27.8785	-2.77679	0
0.6033	-0.339752	-20.8438	26.4712	1.50322	-1.34619	0.325219	-0.286623	40.9988	-0.338092	-0.320672
0.6040	5.77578	-21.1498	-4.95482	5.1613	-2.28267	0.93952	9.17194	58.6925	-0.338092	-0.320672
0.6047	5.4785	-23.28	-30.597	3.63586	-1.34619	1.26474	8.56131	77.3106	-0.642929	0
0.6053	1.82617	-27.8584	-50.7381	-1.24404	0.760891	0.325219	-2.11852	36.1172	-0.338092	0
0.6060	-0.934318	-25.1161	-47.0708	-3.08049	0.760891	-0.289083	-7.00357	-17.5964	-0.642929	0
0.6067	-3.6948	-22.0678	9.08058	1.50322	0.17559	1.26474	2.45499	-6.92504	0.271582	0
0.6073	-5.81825	-42.2054	56.3854	3.63586	-1.05354	0.650437	8.56131	-7.5251	-0.947766	0
0.6080	-6.41282	-62.955	44.4763	0.281391	-1.63884	-0.86725	2.45499	-34.9982	-2.16711	0
0.6087	-9.47058	-84.0106	16.4055	-4.60592	-0.11706	-1.48155	-7.00357	-15.7638	-1.86228	0
0.6093	-9.1733	-68.7574	0.536447	-5.51674	1.11207	-2.09585	-8.83547	26.9541	-0.947766	0.320672
0.6100	-0.934318	48.7375	2.97484	-1.54765	0.17559	-1.48155	-2.72915	30.6194	-0.642929	0
0.6107	10.957	113.128	16.0934	-0.636831	-2.28267	-0.289083	5.1966	20.2399	-1.55744	-0.320672
0.6113	14.6093	63.6847	8.16375	-4.60592	-1.99002	0.93952	5.1966	26.9541	-1.55744	0
0.6120	6.07306	41.1108	-28.7633	-5.82034	0.468241	0.93952	-1.50789	14.7421	-0.338092	0.320672
0.6127	0	27.0698	-40.9748	-3.08049	1.40472	0.93952	-3.95041	-24.6187	-0.338092	0
0.6133	1.48641	2.6599	-19.3023	-2.46587	-0.11706	0.93952	-0.286623	-49.9511	-1.2526	0
0.6140	0	8.7565	-4.04774	-1.85866	-2.28267	0.325219	6.11878	-43.545	-1.86228	0
0.6147	-3.99208	4.79018	29.2217	-1.85866	-1.34619	0.93952	6.72941	-16.9963	-0.947766	0
0.6153	-5.52097	-10.4631	52.4157	-6.13135	0.468241	-0.289083	-2.11852	35.1928	-0.642929	0
0.6160	-4.28937	-5.57874	24.0328	-6.73856	1.40472	-1.48155	-7.6142	67.5475	-0.947766	-0.320672
0.6167	0	4.79018	4.4964	-0.022215	0.17559	0.0361354	0.623094	46.4804	-0.338092	0
0.6173	2.42073	6.62622	20.9799	8.52317	-2.28267	0.0361354	8.56131	92.8798	-0.338092	0
0.6180	-0.637035	2.04789	22.8136	10.9594	-1.34619	-0.578166	3.36471	118.196	0.581961	0
0.6187	-3.39752	-17.1835	-15.3326	4.55409	0.17559	-2.09585	-7.6142	-33.1656	0.581961	0
0.6193	-1.2316	-36.403	-43.1108	0.888602	0.468241	-1.19247	-6.09386	-124.099	0.271582	0
0.6200	7.00738	-46.1717	-26.6273	3.02865	-0.11706	1.55382	4.89752	-56.6653	0.271582	0
0.6207	12.7832	-57.4586	-18.0831	1.50322	-1.99002	0.650437	9.47102	19.9318	-1.2526	0
0.6213	4.84146	-63.873	-24.1889	-2.76948	-1.63884	-0.289083	3.97534	39.1662	-3.38646	-0.320672
0.6220	-8.57873	-54.7164	21.8968	-7.04217	0.17559	-0.86725	-4.56105	-16.9963	-7.96456	0
0.6227	-9.76787	24.6335	61.8767	-6.43496	0.468241	-0.86725	-3.33978	-83.5221	-12.5427	-0.320672
0.6233	0.594566	115.27	32.577	-1.85866	-0.760891	-0.289083	4.28688	-81.9976	-13.4572	-1.28269
0.6240	6.7101	80.7858	31.9625	-0.022215	-2.57532	-0.578166	7.0285	-43.545	-13.4572	-0.641344
0.6247	0.891849	13.6408	56.0733	-1.54765	-1.63884	-1.48155	0.623094	-16.9963	-13.4572	0.320672
0.6253	-5.22368	12.1108	39.5995	-0.022215	-0.409711	-3.03537	-10.0567	1.62179	-7.65972	-0.320672
0.6260	-4.58665	-9.25082	19.1463	3.63586	-1.99002	-3.03537	-13.409	12.9257	4.54484	0
0.6267	0.297283	-44.6417	23.7305	5.1613	-2.57532	-0.86725	-4.56105	2.23807	14.3107	0
0.6273	7.60195	-37.6271	43.5595	6.68673	-2.86797	0.93952	7.0285	-29.5003	14.6155	0
0.6280	12.1886	-22.0678	1.45328	3.63586	-2.28267	0.650437	3.97534	-41.4043	10.0374	0
0.6287	10.6597	-20.8438	-94.9901	-1.85866	-0.760891	-0.289083	-6.70449	-38.3553	5.45935	0.320672
0.6293	8.83355	-26.3401	-98.3453	-1.54765	-0.11706	-0.289083	-7.6142	-17.5964	3.32549	0
0.6300	8.23898	16.3831	-26.6273	2.71764	-0.760891	0.93952	1.23373	30.9275	3.63033	0
0.6307	4.54418	106.42	-1.29723	4.85769	-1.99002	0.93952	8.86039	41.907	2.10615	0.320672
0.6313	-3.39752	127.169	2.67248	3.02865	-0.409711	0.650437	6.11878	26.3378	1.80131	0
0.6320	-9.76787	70.4051	34.4106	-3.38409	1.11207	-0.578166	-3.95041	33.052	0.886798	-0.320672
0.6327	-5.52097	37.1445	74.0784	-4.90953	1.40472	0.0361354	-6.39294	40.3825	0.581961	0
0.6333	6.07306	39.2748	91.1667	0.281391	0.468241	2.16812	2.45499	13.5257	1.49647	0
0.6340	11.8913	41.7228	92.0835	2.71764	-1.34619	1.55382	9.17194	-30.1166	0.886798	-0.320672
0.6347	4.2469	41.7228	90.562	-0.940437	-1.34619	0.0361354	3.36471	-45.9777	0.271582	-0.320672
0.6353	-6.75257	25.8458	38.6827	-7.04217	-1.05354	-1.80677	-8.53638	-19.429	-0.642929	-0.320672
0.6360	-5.81825	1.43588	-42.4963	-5.21313	0.17559	-0.578166	-7.6142	47.713	-0.338092	-0.320672
0.6367	2.12345	-17.7955	-69.0456	2.41404	0.17559	1.55382	1.53281	90.1228	1.49647	0
0.6373	6.07306	-39.7691	-58.3654	7.90856	-1.63884	0.93952	7.34004	75.478	1.19164	0
0.6380	2.71801	-30.6124	-53.1765	4.55409	-1.63884	-0.578166	2.45499	52.9027	-0.0332549	-0.320672
0.6387	-5.81825	0.823864	-40.3603	-4.29491	-0.760891	-2.09585	-8.22484	29.0949	-1.2526	-0.320672
0.6393	-6.75257	14.5589	-22.6576	-2.16226	0.468241	-0.578166	-5.48322	-7.83324	0.271582	0
0.6400	0	21.8795	-16.5518	4.55409	0.17559	0.93952	3.97534	-71.9263	1.19164	0
0.6407	2.12345	22.4915	-9.84136	5.4649	-2.57532	-0.289083	7.34004	-124.716	-0.0332549	-0.320672
0.6413	-3.99208	3.56615	11.8213	5.77591	-1.05354	0.325219	6.11878	-107.022	3.02066	0
0.6420	-10.4049	-16.8774	31.9625	14.9285	1.69737	-0.578166	-1.2088	-58.806	5.76973	0
0.6427	-12.2311	-22.0678	10.9143	39.6465	1.40472	-3.03537	-7.6142	-28.284	4.84968	0
0.6433	-7.9417	-19.3137	-27.2417	65.8898	-0.760891	-0.86725	-1.50789	7.42779	4.24	0
0.6440	1.48641	-10.4631	-21.7407	76.5753	-3.16063	1.26474	8.56131	47.0967	2.41098	0
0.6447	6.37035	-26.3401	13.9574	75.6571	-2.28267	0.93952	5.80723	64.7904	-3.6913	0
0.6453	4.54418	-107.82	22.5113	68.6371	-0.760891	-1.48155	-5.17168	67.2393	-15.2917	0
0.6460	5.4785	-146.271	-3.73562	65.8898	-1.34619	-2.71016	-9.14702	41.907	-22.0037	0
0.6467	8.23898	-102.018	-14.1134	61.9282	-1.99002	-0.578166	-1.50789	-18.5208	-16.8159	0
0.6473	7.00738	-138.033	-2.51642	39.9501	-3.80446	1.26474	7.0285	-73.1426	-11.3233	0
0.6480	3.94962	-169.469	-5.26693	-19.253	-3.51181	2.16812	8.24976	-69.1693	-11.3233	0
0.6487	0.297283	-33.0487	-15.0303	-81.2034	-1.34619	1.87904	0.324009	-30.7167	-11.933	0.320672
0.6493	2.12345	50.8677	-48.9044	-34.5074	-0.760891	1.87904	-4.56105	-34.9982	-3.99613	0
0.6500	7.60195	-4.06047	-72.4008	50.9391	-1.34619	3.39673	3.97534	-67.3366	9.73261	0
0.6507	10.3624	2.96591	14.2695	42.6973	-2.57532	2.45721	8.86039	-63.3795	12.4817	0
0.6513	8.53627	45.9952	134.199	1.50322	-1.05354	-0.289083	1.23373	-31.0248	3.32549	-0.320672
0.6520	6.37035	21.2675	171.741	-7.65679	2.28267	-1.80677	-6.70449	-6.6169	-3.6913	-0.320672
0.6527	7.60195	-9.86283	152.819	-22.6075	3.51181	-0.289083	-4.87259	6.21145	-1.2526	0
0.6533	6.7101	23.7155	150.985	-57.7073	2.28267	1.26474	1.84436	15.6665	4.24	-0.320672
0.6540	2.42073	96.651	171.429	-62.8908	-0.760891	1.87904	7.34004	15.3583	10.3423	-0.320672
0.6547	-0.637035	150.661	75.6097	-60.4472	-1.05354	2.16812	5.50815	9.26041	13.701	-0.320672
0.6553	-2.76048	139.068	-105.973	-83.3361	-0.11706	-0.289083	-4.56105	2.23807	8.51326	-0.320672
0.6560	-3.6948	89.0244	-149.005	-86.0833	-0.11706	-1.48155	-10.3683	-10.8822	2.41098	-0.320672
0.6567	-3.6948	-8.94481	-54.7078	-58.3145	-0.11706	0.0361354	-3.33978	-19.7372	1.19164	0
0.6573	-0.339752	-197.539	-0.994865	-35.122	-1.63884	-0.86725	5.50815	-14.2393	0.271582	-0.962017
0.6580	2.42073	-309.844	-34.869	-23.8293	0.17559	-0.578166	6.72941	-6.92504	1.80131	-0.962017
0.6587	-2.4632	-255.221	-83.9978	-18.6384	2.9265	0.650437	0.0124619	-12.7148	2.71582	0
0.6593	-7.04985	-157.558	-100.179	-13.7585	1.99002	-0.578166	-5.78231	-19.429	0.271582	-0.320672
0.6600	-2.4632	-116.059	-53.1765	-3.08049	0.17559	0.0361354	0.623094	-16.6882	0.581961	-0.320672
0.6607	3.35505	-89.813	24.6473	6.07952	-1.34619	0.650437	8.24976	-13.6392	0.886798	0.320672
0.6613	2.12345	31.9542	55.771	8.21216	-0.11706	0.325219	3.36471	-5.09241	-0.0332549	0
0.6620	-2.76048	145.177	45.3932	3.63586	1.11207	-0.86725	-5.17168	11.6931	0.581961	-0.320672
0.6627	-5.81825	90.5427	33.7962	-0.636831	0.760891	-1.19247	-8.22484	12.9257	1.49647	0
0.6633	-3.39752	-19.0077	27.3881	-10.093	-0.409711	0.0361354	-1.50789	-6.6169	0.271582	0
0.6640	1.18913	-60.2127	10.9143	-23.8293	-2.28267	0.325219	6.11878	-23.7105	-1.2526	0
0.6647	-1.86864	-56.5524	-52.8742	-26.5766	-0.760891	0.93952	4.89752	-19.1209	2.41098	0
0.6653	-6.41282	3.56615	-123.978	-29.3239	0.760891	0.325219	-1.81943	-3.85986	2.41098	0.320672
0.6660	-3.99208	32.5662	-107.494	-29.9311	-0.11706	-2.09585	-8.22484	-3.56793	-5.22102	0.320672
0.6667	3.35505	-4.36648	-44.0179	-16.5058	-1.63884	-1.48155	-3.0407	-1.42717	-3.6913	0
0.6673	8.53627	11.8048	-18.6879	-4.29491	-3.51181	0.0361354	7.0285	12.0012	11.2623	0
0.6680	6.07306	72.8414	-27.5441	-3.08049	-1.63884	1.87904	7.63913	20.5481	18.584	0
0.6687	0.891849	96.039	-28.1488	-7.96039	1.40472	0.93952	-1.50789	26.0459	6.68424	0
0.6693	0	52.3978	4.80851	-10.404	1.11207	-0.578166	-7.31512	24.2133	-5.22102	0
0.6700	3.0153	-6.80276	43.8716	-5.82034	-1.05354	0.650437	0.324009	15.3583	-6.44037	0
0.6707	3.35505	-62.955	52.1134	-2.16226	-2.28267	1.26474	8.86039	9.86047	-8.87907	0
0.6713	-3.05777	-111.481	27.0857	-4.29491	-1.63884	0.325219	4.89752	3.45441	-13.1523	-0.320672
0.6720	-9.1733	-84.0106	-0.994865	-10.404	-0.760891	-2.09585	-7.00357	4.97889	-11.6281	-0.320672
0.6727	-8.28145	-72.7237	4.19404	-8.264	-0.409711	-1.48155	-8.53638	20.5481	-4.61135	0
0.6733	-1.86864	-141.999	23.116	5.1613	-0.760891	1.26474	0.623094	36.1172	-0.947766	0
0.6740	10.6597	-58.3767	23.116	18.283	-2.28267	0.93952	6.41786	57.7843	0.271582	0
0.6747	15.2464	98.1811	-7.09085	21.0302	-1.34619	-1.80677	-0.59817	61.1414	8.20843	0
0.6753	1.48641	75.5954	-22.0528	18.283	0.468241	-3.03537	-9.4461	15.6665	9.73261	0
0.6760	-9.47058	51.4797	10.6021	15.8467	1.40472	-0.86725	-5.78231	-27.3596	0.271582	0
0.6767	-5.52097	112.822	7.24691	21.6449	0.468241	0.325219	2.45499	-22.1698	-2.16711	-0.320672
0.6773	3.35505	107.02	-80.0281	57.6555	-1.34619	-0.86725	7.63913	-17.5964	2.71582	-0.320672
0.6780	5.4785	71.9351	-158.769	106.484	0.17559	-0.86725	5.50815	-68.2611	6.98908	0
0.6787	-3.6948	75.9014	-118.486	100.071	2.63385	-1.19247	-2.72915	-141.809	4.54484	0
0.6793	-12.5283	90.8487	-33.0354	51.2427	1.11207	-1.48155	-5.78231	-135.403	-5.8307	-0.320672
0.6800	-8.28145	114.964	-13.1966	60.7063	-1.34619	0.650437	1.53281	-25.5269	-10.7136	0
0.6807	-0.637035	130.218	-24.7936	100.071	-3.51181	1.26474	7.34004	69.9802	-7.35488	0
0.6813	-4.58665	105.808	-41.5795	95.1915	-3.16063	-0.86725	-0.59817	107.525	-7.35488	-0.320672
0.6820	-11.9338	50.2675	-46.1539	71.0808	-1.34619	-2.42107	-9.4461	107.216	-11.0185	0
0.6827	-8.28145	4.48418	-38.829	-25.3548	0.468241	-1.19247	-6.70449	61.4333	-11.933	0
0.6833	3.35505	-17.7955	-49.2068	-200.831	-0.409711	-0.289083	1.23373	24.5214	-9.1839	-0.962017
0.6840	8.23898	-33.6607	-21.136	-242.64	-1.99002	0.325219	9.17194	20.2399	-2.47195	-1.28269
0.6847	2.71801	-29.0824	58.8238	-129.728	-0.760891	1.55382	7.34004	9.86047	4.84968	0
0.6853	-2.16592	3.56615	78.965	-54.3454	-1.05354	-0.578166	-5.17168	1.31365	6.3794	0.320672
0.6860	1.82617	4.79018	33.1914	-36.0328	-9.30628	-1.48155	-8.22484	12.9257	3.63033	0
0.6867	7.89923	-21.4558	25.8665	-18.3348	-19.6661	0.325219	0.623094	27.5704	0.886798	0
0.6873	9.13083	-16.8774	44.7884	-9.78943	-24.5241	0.325219	6.72941	7.42779	0.581961	-0.320672
0.6880	0.594566	-22.6798	31.0554	-19.253	-23.6462	-1.19247	1.53281	-36.5227	2.10615	0
0.6887	-9.76787	-74.2537	-8.62216	-26.273	-21.7732	-1.80677	-9.4461	-61.5469	0.581961	0
0.6893	-8.28145	-137.115	-70.5769	-12.2331	-17.2078	-1.80677	-11.278	-56.049	1.49647	-0.320672
0.6900	3.94962	-183.804	-89.1867	2.11043	-10.8281	-0.289083	-0.897255	-3.56793	5.15451	-0.320672
0.6907	16.1382	-160.312	5.72535	0.281391	-4.68241	0.325219	6.11878	49.8376	5.15451	-0.320672
0.6913	15.5436	-1.91843	114.361	-5.51674	4.15564	0.0361354	1.23373	61.1414	5.45935	0
0.6920	6.7101	157.076	154.341	-7.65679	12.701	-0.289083	-4.26196	52.2864	9.12294	0
0.6927	4.2469	201.941	147.328	-6.43496	17.8517	0.0361354	-3.0407	11.6931	-0.642929	0
0.6933	7.60195	209.874	94.5317	-1.54765	18.4955	1.87904	4.28688	-37.139	-14.6821	-0.320672
0.6940	6.07306	179.661	30.4409	0.584996	17.559	1.26474	8.56131	-49.9511	-10.4088	-0.320672
0.6947	-2.76048	119.543	-24.4912	-3.08049	18.7882	-0.578166	1.23373	-82.2895	-3.6913	-0.320672
0.6953	-8.28145	76.2074	-86.7483	-6.43496	17.2664	-1.80677	-7.6142	-132.046	-4.91619	0
0.6960	-6.11553	22.1855	-105.67	-5.51674	13.579	-2.42107	-8.22484	-63.0713	-3.99613	0
0.6967	-2.4632	-59.9067	-33.3377	0.584996	9.95012	-0.86725	0.0124619	45.8804	-2.16711	-0.320672
0.6973	-1.52888	-131.618	45.6955	6.38312	2.9265	1.26474	9.17194	56.5518	-2.47195	-0.320672
0.6980	-4.88393	-140.163	52.7181	6.38312	-0.409711	1.26474	6.72941	68.1475	-1.55744	-0.320672
0.6987	-11.6365	-109.339	60.3454	3.33226	0.17559	-0.289083	-3.33978	71.8128	-0.947766	0
0.6993	-13.7599	-85.8466	100.94	5.1613	-0.409711	-0.289083	-3.65133	40.3825	-1.2526	-0.320672
0.7000	-4.58665	-89.201	113.756	10.0486	0.17559	1.55382	4.58597	29.403	-0.642929	-0.320672
0.7007	8.83355	-89.813	75.9121	11.263	1.99002	1.26474	8.56131	27.5704	-1.2526	0
0.7013	16.478	42.3231	-13.8111	7.30135	3.21916	-0.86725	2.75407	47.0967	-2.77679	0
0.7020	13.7175	197.057	-65.6904	1.50322	3.86299	-2.09585	-6.39294	84.933	-3.6913	0
0.7027	7.30466	156.77	14.2695	2.11043	4.44829	0.0361354	-2.72915	55.9517	-1.86228	-0.320672
0.7033	3.65233	71.9351	108.567	5.77591	2.9265	1.87904	5.80723	-56.9734	-0.642929	-0.320672
0.7040	3.0153	74.0654	108.567	6.99034	0.760891	0.93952	7.95068	-121.05	-1.2526	0
0.7047	0.297283	88.7184	69.2016	4.85769	0.760891	0.0361354	1.23373	-94.8097	-0.947766	0.320672
0.7053	-2.16592	86.8824	22.1991	-0.333226	0.468241	-1.19247	-9.4461	-53	-2.47195	0
0.7060	0.891849	80.4798	-2.21406	-0.022215	-0.11706	-0.578166	-10.0567	-22.7861	-3.08162	0
0.7067	6.37035	70.0991	7.24691	6.07952	-1.63884	1.87904	-0.286623	-3.85986	-1.55744	-0.320672
0.7073	9.13083	56.3641	-20.2192	9.13039	-4.09711	2.78243	7.0285	22.0725	-1.55744	-0.320672
0.7080	4.54418	45.9952	-68.1288	6.68673	-3.51181	2.45721	3.97534	60.8333	-0.947766	0
0.7087	-3.39752	38.9688	-73.9321	1.50322	-1.63884	0.93952	-4.56105	60.5251	-1.55744	0
0.7093	-6.41282	27.0698	-44.0179	-0.636831	-1.99002	-0.289083	-7.6142	7.11965	-3.38646	-0.320672
0.7100	-0.934318	11.8048	-11.3727	2.41404	-2.86797	0.650437	0.0124619	-40.1879	-3.08162	0
0.7107	4.2469	8.45049	-22.0528	5.77591	-3.16063	0.325219	8.56131	-52.0918	-3.38646	0
0.7113	-2.16592	1.12987	-42.194	4.55409	-1.34619	-1.80677	5.80723	-38.9554	-3.6913	0
0.7120	-11.9338	-9.55682	-28.7633	0.281391	0.468241	-4.84214	-4.26196	-17.5964	-4.91619	0
0.7127	-10.7022	33.4724	-25.7104	-0.022215	0.468241	-5.16736	-7.6142	-3.85986	-4.61135	-0.641344
0.7133	-0.339752	68.263	-16.5518	5.4649	0.17559	-2.71016	0.934641	1.02173	0.581961	-1.92403
0.7140	7.30466	32.5662	-8.92453	11.263	-0.409711	-0.578166	9.78257	-9.04958	3.63033	-0.641344
0.7147	3.0153	6.62622	-40.3603	13.7067	-0.409711	-0.289083	4.58597	-47.194	2.71582	0.641344
0.7153	-5.52097	11.2046	-65.388	8.21216	-0.11706	-2.42107	-8.22484	-59.4061	3.02066	0
0.7160	-6.41282	28.5999	-52.8742	5.1613	1.40472	-1.80677	-7.6142	-5.69248	6.3794	0
0.7167	-3.05777	44.7711	-32.1185	8.52317	0.17559	0.0361354	3.67625	40.3825	7.90359	0
0.7173	-1.52888	31.9542	-7.40297	9.13039	-1.63884	-0.578166	10.0817	38.2418	3.93517	0
0.7180	-5.22368	11.5106	49.6652	6.38312	-0.409711	-0.578166	7.0285	28.7867	-0.0332549	0
0.7187	-9.1733	11.2046	96.6677	1.80682	0.760891	-0.86725	-2.72915	19.0236	-2.16711	0
0.7193	-0.934318	28.5999	97.5846	2.71764	0.468241	-0.289083	-4.87259	-8.44952	-1.55744	-0.320672
0.7200	12.1886	20.3612	39.9019	7.30135	-1.63884	1.26474	2.14344	-66.1203	-2.16711	-0.320672
0.7207	14.9491	-34.8848	-40.6627	8.82678	-3.51181	1.55382	4.28688	-131.43	-2.16711	-0.320672
0.7213	9.7254	-98.0516	-75.4537	6.07952	-2.28267	0.93952	-4.26196	-106.097	2.10615	-0.320672
0.7220	4.54418	-149.932	-131	-6.73856	-1.63884	-1.80677	-15.2409	-6.00062	1.19164	-0.320672
0.7227	3.35505	-194.491	-199.968	-21.0821	-2.28267	-3.93876	-16.4621	70.9046	-7.35488	-0.320672
0.7233	5.77578	-236.602	-173.419	-20.1639	-1.63884	-2.42107	-7.00357	92.2635	-12.8475	0
0.7240	10.0651	-198.151	-107.494	-14.0621	-1.63884	-1.19247	2.45499	65.4067	-14.0668	0
0.7247	7.89923	-54.4103	-83.6955	-18.6384	-0.760891	-3.61354	-5.78231	34.2846	-14.0668	-0.320672
0.7253	1.82617	20.0552	-54.7078	-23.5257	1.40472	-6.07075	-16.4621	8.95227	-11.0185	-0.320672
0.7260	-2.4632	-20.5378	10.6021	-19.5566	3.86299	-2.42107	-9.14702	-14.8556	-5.52586	-0.320672
0.7267	-0.339752	-78.526	75.2976	-11.0113	1.99002	-0.289083	2.75407	-15.7638	1.19164	-0.320672
0.7273	7.89923	-52.2801	81.101	5.4649	-1.34619	-1.48155	9.78257	4.37883	12.7865	0
0.7280	12.7832	23.1035	25.252	22.8593	0.760891	-1.80677	11.6145	21.7644	21.9427	0
0.7287	10.957	30.1181	-11.3727	20.7266	3.51181	-4.55306	8.24976	39.1662	17.0598	-0.320672
0.7293	2.71801	8.14449	3.2772	8.82678	1.69737	-6.07075	6.72941	62.974	6.07457	-0.320672
0.7300	-6.41282	18.8312	9.6853	7.60495	-1.63884	-3.03537	13.1348	90.4309	1.19164	-0.320672
0.7307	-10.9995	90.2367	-2.51642	17.0612	-2.57532	-0.289083	15.8764	92.5717	5.76973	0
0.7313	-15.8834	133.572	19.7608	23.1703	-1.63884	1.26474	5.50815	20.8562	7.29391	0
0.7320	-19.2384	82.61	83.5394	17.3722	-1.99002	1.26474	-6.39294	-54.8327	-6.44037	0
0.7327	-15.8834	58.2001	115.59	7.90856	-2.28267	1.55382	-8.22484	-35.3063	-17.7304	0
0.7333	-4.58665	84.7521	62.4814	9.7376	-2.57532	2.78243	0.0124619	22.3807	-8.87907	-0.320672
0.7340	6.37035	103.666	-2.21406	15.2321	-5.03359	2.16812	7.34004	27.5704	5.15451	-0.320672
0.7347	6.07306	100.923	-15.3326	10.0486	-12.6425	0.0361354	1.84436	-6.92504	0.271582	0
0.7353	2.71801	-4.36648	-7.40297	-0.636831	-20.6026	-1.80677	-8.22484	-32.2411	-8.57423	0
0.7360	5.4785	-144.741	-10.4558	-2.16226	-22.417	-1.48155	-7.31512	-67.6448	-0.642929	-0.320672
0.7367	8.83355	-133.454	-15.3326	1.80682	-22.417	1.26474	3.06562	-114.336	7.29391	-0.320672
0.7373	7.60195	-53.4923	-14.1134	2.41404	-22.417	3.39673	10.0817	-101.524	3.93517	0
0.7380	0.891849	-28.1644	-15.6447	4.55409	-17.2078	3.39673	4.89752	-47.5022	0.886798	0
0.7387	-8.57873	-25.4221	-15.6447	9.43399	-8.66245	-0.289083	-7.6142	-23.7105	0.271582	0
0.7393	-10.9995	17.3011	-8.00769	10.0486	0.17559	-1.19247	-10.3683	-22.478	-0.947766	0
0.7400	-5.52097	91.4607	-7.70533	9.13039	6.90655	0.650437	-1.2088	-20.6454	-1.2526	0
0.7407	-3.39752	107.02	-19.3023	8.82678	9.95012	0.325219	5.80723	-21.5698	-2.16711	0
0.7413	-5.81825	70.0991	-23.272	6.68673	15.4519	0.0361354	2.14344	-18.8127	-1.2526	0
0.7420	-3.99208	41.7228	-26.9296	2.71764	19.7246	0.0361354	-5.17168	-9.66586	0.581961	0.320672
0.7427	0.594566	26.4578	-54.0933	0.584996	19.7246	-0.86725	-8.53638	-3.56793	0.886798	0.320672
0.7433	2.42073	21.8795	-40.6627	3.93947	16.0372	-0.86725	-2.11852	-6.00062	1.80131	-1.28269
0.7440	0.891849	38.6628	31.3578	8.82678	11.7645	0.0361354	6.41786	-6.30876	5.76973	-1.92403
0.7447	-1.86864	55.1401	37.7659	5.4649	10.5354	0.325219	0.934641	4.67075	8.8181	-0.641344
0.7453	-2.4632	28.5999	-6.18377	-1.54765	6.26272	-1.48155	-8.83547	12.6175	4.54484	0
0.7460	0.297283	-16.5714	3.89168	-0.636831	0.468241	-0.86725	-6.39294	11.6931	0.886798	0
0.7467	5.4785	-33.3547	20.3655	5.1613	-2.57532	1.55382	4.58597	24.2133	0.886798	-0.320672
0.7473	7.00738	-23.28	4.19404	7.90856	-4.09711	2.78243	11.3029	44.0478	0.581961	-0.320672
0.7480	1.18913	-17.4895	-11.0606	5.77591	-1.34619	3.07151	7.63913	37.3336	0.886798	0
0.7487	-5.81825	-26.6461	-18.6879	-1.24404	2.63385	1.26474	-3.65133	10.4768	-0.642929	-0.320672
0.7493	-4.28937	-17.1835	-11.675	-4.29491	3.21916	-0.289083	-11.278	-10.5741	-1.86228	-0.320672
0.7500	6.07306	-1.61242	2.97484	0.584996	1.40472	1.55382	-5.17168	-23.7105	-0.0332549	0
0.7507	16.7752	1.43588	-0.682751	5.1613	0.17559	3.39673	5.80723	-23.7105	0.886798	0
0.7513	15.2464	17.6072	-21.7407	3.02865	1.11207	3.39673	3.36471	-6.00062	0.271582	-0.320672
0.7520	3.94962	23.1035	-24.4912	-2.16226	1.69737	2.16812	-8.22484	23.9052	-0.947766	0
0.7527	-5.81825	7.23824	-9.23664	-1.54765	2.28267	2.78243	-10.6674	27.5704	-0.338092	0
0.7533	-10.9995	3.26015	-0.38039	3.63586	1.40472	3.39673	-1.50789	-4.47614	0.581961	-0.320672
0.7540	-14.6518	-1.30641	8.77822	5.1613	-0.11706	2.45721	6.72941	-8.44952	-0.642929	0.320672
0.7547	-15.8834	-7.72078	45.3932	-0.940437	0.468241	0.650437	-0.897255	33.3602	-1.55744	0
0.7553	-7.9417	-1.91843	94.5317	-5.82034	1.40472	-0.289083	-11.5895	78.527	-0.338092	-1.28269
0.7560	4.54418	-7.41478	113.756	-1.85866	2.28267	2.78243	-7.6142	126.143	2.71582	-0.320672
0.7567	14.0148	-21.4558	105.514	3.33226	0.468241	3.68581	3.06562	161.238	2.71582	0.320672
0.7573	17.9644	-20.8438	81.4034	3.63586	-1.05354	0.93952	6.11878	107.833	1.19164	0
0.7580	13.4202	-1.91843	79.5697	-0.636831	1.11207	-0.86725	-1.50789	-13.023	2.41098	0
0.7587	5.4785	26.7638	64.3151	-6.43496	1.40472	-5.16736	-7.00357	-85.6466	1.19164	0
0.7593	2.42073	36.8385	-0.38039	-7.04217	1.11207	-7.29935	-5.78231	-71.9263	-3.99613	-0.320672
0.7600	2.71801	21.2675	10.6021	-1.85866	1.40472	-4.84214	2.75407	-34.69	-9.79912	0
0.7607	5.77578	17.9132	59.4286	2.41404	0.760891	-2.71016	13.1348	-39.8798	-8.87907	0
0.7613	4.2469	26.1518	15.1863	-0.940437	1.69737	-3.32446	10.3932	-49.6429	-4.61135	0
0.7620	-2.76048	15.1709	-51.655	-7.35318	0.468241	-5.78166	0.324009	-9.974	-5.22102	0.320672
0.7627	0.297283	14.8649	-89.1867	-4.29491	-0.760891	-2.09585	2.75407	28.1705	-3.6913	-0.320672
0.7633	10.3624	17.9132	-99.5645	3.63586	-2.28267	2.78243	11.0038	15.6665	-0.0332549	-0.320672
0.7640	8.53627	-17.4895	-81.2571	6.38312	-6.26272	2.45721	10.3932	-29.1922	0.581961	0
0.7647	-1.2316	-51.056	-67.8264	3.02865	-5.03359	1.55382	1.84436	-45.9777	0.886798	0.320672
0.7653	-10.4049	-51.362	-24.1889	-4.29491	-1.63884	-1.80677	-9.14702	5.28703	-0.0332549	0
0.7660	-15.5861	-43.7354	78.0481	-4.60592	-1.63884	-4.22784	-10.6674	41.5989	-0.0332549	0
0.7667	-9.47058	-44.9477	183.026	2.71764	-3.51181	-0.86725	1.84436	-3.56793	1.49647	0
0.7673	0.891849	-37.015	228.195	5.77591	-5.91154	1.55382	9.17194	-44.7614	0.886798	0
0.7680	-1.2316	-7.72078	198.895	0.584996	-4.68241	0.93952	0.324009	-34.9982	-0.642929	0
0.7687	-7.64442	24.0215	149.152	-4.90953	-2.28267	-1.80677	-7.00357	-23.0943	-2.16711	-0.320672
0.7693	-5.52097	38.0508	82.9347	-3.9913	-1.05354	-2.42107	-4.26196	-34.3819	-2.16711	-0.320672
0.7700	4.2469	26.7638	-48.9044	0.888602	-1.99002	-0.86725	3.97534	-43.2369	-1.86228	-0.320672
0.7707	17.0725	-1.61242	-193.56	2.71764	-4.68241	0.325219	11.0038	-9.04958	-1.2526	0
0.7713	16.478	-31.8247	-225.298	-1.85866	-5.32624	1.87904	4.89752	8.64413	-1.2526	-0.320672
0.7720	-0.339752	-56.5524	-120.623	-4.90953	-4.38976	4.01103	-1.81943	-54.5245	-1.55744	0
0.7727	-12.2311	-68.1453	-28.4609	-2.16226	-4.38976	4.91441	0.934641	-125.332	-0.0332549	-0.320672
0.7733	-9.76787	-57.4586	-37.9219	3.33226	-5.03359	3.68581	6.72941	-139.36	1.19164	-1.28269
0.7740	-2.76048	-36.097	-55.6149	6.38312	-4.09711	3.07151	11.6145	-73.7589	1.49647	-0.641344
0.7747	-2.4632	-25.7281	-39.7458	4.25048	-1.63884	3.68581	7.95068	43.1233	2.10615	0.320672
0.7753	-4.88393	-17.7955	-55.6149	-1.85866	-1.99002	0.650437	-3.95041	92.2635	0.581961	0
0.7760	-3.6948	-10.7691	-82.7786	-4.90953	-3.80446	-2.09585	-9.75765	58.3844	-1.55744	-1.28269
0.7767	1.48641	-10.7691	-57.7509	1.50322	-3.51181	-0.289083	1.23373	14.4501	-0.0332549	-1.60336
0.7773	5.77578	-6.49676	-26.9296	6.38312	-2.28267	1.55382	12.2251	-13.3311	1.19164	0
0.7780	4.2469	-11.9931	-33.9522	1.19221	-1.63884	-0.86725	5.80723	39.1662	-0.0332549	0
0.7787	-0.934318	-18.4075	-23.272	-4.90953	-1.63884	-4.22784	-1.81943	99.2859	-0.947766	-0.320672
0.7793	-3.05777	-4.06047	17.6247	-1.24404	-1.34619	-1.80677	2.45499	93.4799	0.886798	0
0.7800	4.2469	-5.2845	-0.0780286	4.55409	-1.99002	1.26474	10.6923	153.291	2.10615	0.320672
0.7807	10.0651	-22.6798	-55.6149	4.25048	-3.16063	0.650437	13.1348	96.5288	0.581961	0
0.7813	2.42073	-29.3884	-37.9219	-0.022215	-1.99002	-0.289083	3.36471	-149.432	-0.338092	-0.320672
0.7820	-6.75257	-30.9184	0.838808	-4.90953	-0.760891	-1.80677	-7.6142	-227.261	-0.947766	0
0.7827	-7.34713	-5.2845	2.67248	-3.9913	-0.760891	-1.19247	-6.09386	-127.164	-0.947766	-0.320672
0.7833	-3.6948	20.3612	1.14117	2.11043	-1.63884	1.26474	4.58597	-49.6429	0.271582	-0.320672
0.7840	0.594566	5.09619	-19.9168	3.93947	-2.86797	1.26474	9.17194	5.28703	-0.0332549	0
0.7847	0.891849	-13.2171	-37.0051	-1.54765	-1.99002	-0.578166	-0.59817	65.7149	-0.947766	0
0.7853	-2.4632	-20.8438	-7.40297	-6.13135	-0.760891	-1.48155	-8.22484	82.1922	-1.55744	-0.320672
0.7860	-4.88393	-22.6798	12.1335	-5.51674	-0.760891	-1.80677	-8.22484	36.7173	-1.2526	0
0.7867	0.594566	-11.3811	-2.81878	-1.24404	-2.28267	-1.48155	-2.72915	-28.284	-0.947766	0.320672
0.7873	9.13083	-7.72078	5.72535	3.63586	-2.57532	0.650437	6.72941	-84.4303	-0.338092	0
0.7880	5.18122	-11.0751	35.0154	1.19221	-1.05354	-0.86725	3.36471	-80.165	-0.0332549	-0.320672
0.7887	-4.88393	-9.55682	34.0985	-4.60592	-0.760891	-3.03537	-7.00357	27.8785	-1.2526	0
0.7893	-6.11553	-4.67249	13.655	-3.08049	-1.34619	-1.19247	-7.00357	108.741	-0.642929	0
0.7900	0.594566	-3.14245	9.6853	2.71764	-2.28267	1.26474	3.06562	66.9312	0.271582	-0.320672
0.7907	7.00738	-5.57874	10.2998	5.1613	-2.86797	1.87904	9.47102	9.86047	0.581961	0
0.7913	5.77578	-5.88474	-3.43326	2.41404	-1.34619	1.55382	4.28688	-23.0943	1.19164	0
0.7920	3.35505	-5.57874	-19.9168	-3.6877	-0.11706	-1.48155	-6.70449	-48.7347	-0.338092	-0.320672
0.7927	4.2469	-8.02679	-19	-4.90953	0.17559	-2.71016	-10.9789	-28.284	-1.55744	-0.320672
0.7933	7.60195	-9.25082	-11.9774	1.19221	-0.760891	0.650437	-1.50789	-4.168	-0.0332549	0
0.7940	9.13083	-4.97849	6.02771	4.55409	-1.34619	2.45721	6.41786	-17.2883	-0.947766	0
0.7947	3.65233	0.823864	52.1134	-0.333226	0.468241	0.93952	0.324009	-25.8351	-4.30097	0
0.7953	-3.05777	0.517857	90.8643	-6.73856	0.468241	-1.80677	-9.4461	-21.2616	-7.35488	0
0.7960	-5.22368	1.43588	96.9701	-6.73856	-0.409711	-3.03537	-10.0567	-3.25979	-7.96456	-0.320672
0.7967	-2.76048	6.93223	72.8592	-1.85866	-1.34619	-2.42107	0.623094	11.093	-7.05005	-0.320672
0.7973	-0.339752	4.17817	38.3803	1.50322	-2.28267	-2.09585	10.0817	-32.5493	-5.52586	-0.320672
0.7980	-2.76048	-7.41478	-21.4384	-0.636831	-1.05354	-2.09585	3.67625	-121.975	-0.338092	0
0.7987	-7.04985	-15.9594	-138.013	-4.90953	-0.11706	-0.578166	-6.09386	-193.382	4.24	0
0.7993	-6.41282	-9.86283	-191.726	-4.29491	0.760891	1.87904	-7.00357	-133.262	4.84968	0
0.8000	3.94962	2.96591	-94.0733	0.888602	0.17559	1.87904	1.53281	110.882	3.32549	0
0.8007	13.4202	7.53247	50.8844	4.55409	-1.63884	0.93952	11.0038	336.408	1.80131	0
0.8013	9.13083	14.2529	94.5317	2.71764	-0.11706	0.93952	7.63913	352.885	2.41098	-0.320672
0.8020	0.594566	19.7492	26.4712	-2.46587	2.28267	-0.289083	-3.95041	184.122	1.80131	0
0.8027	-3.6948	11.2046	-28.4609	-3.08049	1.69737	-0.86725	-7.92575	-4.78428	0.271582	-0.320672
0.8033	-3.05777	16.0771	-41.5795	3.02865	-1.05354	0.0361354	1.23373	-44.7614	0.271582	-1.28269
0.8040	1.48641	29.8121	-54.3957	5.77591	-1.34619	-0.86725	7.95068	10.1686	1.19164	-1.60336
0.8047	2.42073	11.5106	-48.29	1.19221	1.69737	-1.48155	-0.59817	33.9765	1.80131	0
0.8053	-3.6948	-20.2318	-35.4738	-5.51674	1.69737	-3.03537	-11.5895	8.64413	-1.86228	0.320672
0.8060	-10.1076	-27.2464	-29.0657	-6.13135	0.760891	-3.32446	-11.8886	-41.0961	-2.47195	-0.320672
0.8067	-8.57873	-20.8438	4.19404	0.281391	0.17559	-0.578166	-1.2088	-99.075	3.02066	0
0.8073	-4.58665	-15.0414	48.1437	5.1613	-1.34619	1.55382	9.47102	-110.979	6.68424	0
0.8080	-3.99208	-0.706169	43.5595	2.11043	-0.760891	0.93952	5.50815	-49.3348	7.59875	-0.320672
0.8087	-0.934318	1.12987	6.94455	-4.29491	-0.409711	-1.48155	-6.09386	13.5257	9.12294	-0.320672
0.8093	1.18913	-11.0751	1.14117	-1.85866	-0.409711	-0.578166	-5.17168	64.1904	11.872	-0.320672
0.8100	3.0153	-13.5231	28.0025	4.85769	-0.760891	2.16812	5.80723	56.8599	15.2252	-0.320672
0.8107	9.13083	-11.0751	42.9548	6.38312	-1.34619	2.16812	11.0038	-34.3819	18.2791	0
0.8113	9.7254	-6.19075	31.6601	0.281391	0.17559	0.650437	3.67625	-73.1426	5.15451	0
0.8120	6.7101	-3.14245	18.5416	-3.6877	1.99002	0.0361354	-4.56105	-55.7409	-12.5427	-0.320672
0.8127	8.83355	-7.72078	8.77822	0.584996	1.99002	1.55382	0.623094	-88.0955	-7.65972	-0.320672
0.8133	11.8913	-4.97849	0.536447	3.63586	-0.409711	1.87904	8.56131	-138.144	-5.22102	0
0.8140	8.83355	13.9468	-16.2495	2.41404	-1.99002	0.0361354	8.86039	-121.358	-13.762	0
0.8147	3.65233	19.4432	-50.426	-2.16226	-0.760891	-1.80677	-0.286623	-29.1922	-10.7136	0
0.8153	3.35505	10.2865	-68.7432	-5.82034	0.468241	-2.09585	-6.39294	54.7191	-3.38646	0
0.8160	4.54418	23.7155	-55.3125	-3.6877	0.760891	-1.19247	-3.95041	87.0738	-2.77679	0
0.8167	4.84146	42.6291	-1.9117	1.50322	-0.11706	-0.289083	3.97534	90.4309	-3.38646	0
0.8173	0	24.9278	80.7987	3.93947	-1.05354	0.93952	10.3932	49.2375	-2.16711	0
0.8180	-7.64442	-4.97849	116.497	0.888602	-0.409711	-0.289083	3.97534	1.02173	-1.2526	0
0.8187	-11.2967	-13.5231	96.9701	-3.9913	-0.409711	-2.42107	-5.17168	-7.21696	-3.08162	0
0.8193	-7.04985	-20.5378	61.2622	-3.08049	-0.760891	-0.578166	-4.26196	-1.73531	-3.6913	0
0.8200	3.0153	-36.403	-8.00769	3.33226	-1.63884	1.87904	6.41786	22.3807	-1.86228	0
0.8207	5.4785	-35.1908	-63.5543	5.77591	-2.57532	2.16812	12.5242	54.4272	-1.55744	-0.320672
0.8213	-1.52888	-19.9257	-38.2243	2.41404	-0.760891	1.55382	6.41786	35.5009	-0.338092	0
0.8220	-3.39752	-21.4558	9.99742	-2.16226	0.760891	-0.289083	-2.11852	-19.7372	-0.338092	0
0.8227	0.891849	-27.5524	22.1991	-0.022215	0.760891	0.650437	-1.50789	-59.098	-0.338092	0
0.8233	5.18122	-13.5231	11.519	6.07952	-1.05354	2.78243	8.24976	-74.6671	-0.0332549	-0.320672
0.8240	6.07306	0.823864	1.45328	10.6558	-1.99002	2.45721	11.3029	-67.3366	-0.947766	0
0.8247	2.12345	-2.53044	2.36037	16.7576	-0.409711	1.87904	2.75407	-39.8798	-1.55744	0
0.8253	-1.86864	-12.2991	2.67248	21.9485	0.17559	0.0361354	-7.6142	-10.2821	-2.77679	0
0.8260	-0.637035	-14.1352	5.72535	25.6065	0.468241	0.0361354	-6.70449	-9.66586	-3.08162	0
0.8267	4.54418	-8.02679	15.4887	26.2212	-0.409711	1.55382	2.75407	-20.3534	-2.47195	0
0.8273	7.00738	1.43588	14.5718	17.3722	-1.99002	0.93952	7.63913	-6.00062	-3.38646	0
0.8280	3.35505	13.0288	-4.65246	3.33226	-0.11706	-0.86725	0.623094	21.7644	-4.30097	0
0.8287	0	22.1855	-37.6098	-8.5676	1.11207	-2.42107	-10.6674	31.5276	-5.8307	0
0.8293	-0.339752	14.2529	-59.5846	-25.0512	0.760891	-1.48155	-9.4461	19.3317	-3.99613	0
0.8300	-1.86864	-11.6871	-36.3906	-41.2237	-0.11706	0.325219	2.75407	5.90331	-1.2526	0.320672
0.8307	-0.637035	-22.0678	-5.26693	-41.5273	-1.63884	0.325219	9.78257	-3.25979	-1.86228	-0.320672
0.8313	0.594566	-14.1352	-18.3855	-29.6275	-0.409711	0.650437	5.50815	-0.810894	-2.16711	-0.320672
0.8320	-1.52888	-10.7691	-30.8993	-7.65679	1.11207	0.0361354	-3.65133	33.9765	-1.2526	0
0.8327	1.18913	-9.25082	9.99742	18.8976	0.468241	0.650437	-2.72915	49.5456	-0.0332549	-0.320672
0.8333	7.00738	-8.6388	47.2268	19.2012	-1.63884	1.26474	6.11878	0.0973073	1.19164	-1.28269
0.8340	8.53627	-2.22443	24.9497	1.80682	-2.57532	0.0361354	8.56131	-41.7124	0.886798	-0.962017
0.8347	2.12345	0.211851	2.67248	-6.13135	0.468241	0.650437	2.75407	-33.7818	0.886798	0.320672
0.8353	-7.9417	-12.9111	20.0631	-8.5676	1.69737	0.0361354	-5.78231	-15.1637	-0.338092	0
0.8360	-11.9338	-2.53044	20.6776	-6.43496	0.17559	-0.289083	-7.00357	-5.09241	-0.338092	-0.320672
0.8367	-4.88393	18.2192	-1.9117	-0.333226	-1.05354	0.650437	2.45499	1.02173	0.271582	0
0.8373	3.94962	9.06251	-7.70533	1.50322	-1.99002	0.0361354	7.34004	-2.33538	-0.642929	0
0.8380	3.35505	-2.22443	-22.0528	-2.16226	-0.760891	-0.86725	-0.59817	-21.8779	-0.947766	0
0.8387	0.297283	-5.57874	-53.791	-4.90953	0.760891	-1.80677	-7.00357	-22.7861	-0.947766	-0.320672
0.8393	1.82617	-0.0941559	-39.7458	-2.46587	0.760891	-0.289083	-1.81943	2.54621	-0.338092	0
0.8400	6.07306	13.9468	31.3578	2.11043	-1.63884	1.26474	7.0285	13.2176	0.271582	0.320672
0.8407	5.77578	9.67452	71.3377	1.50322	-2.57532	0.0361354	6.41786	37.3336	-0.642929	0
0.8413	0.594566	-6.19075	48.1437	-3.38409	-0.409711	-0.578166	-3.33978	67.2393	-0.947766	0
0.8420	-1.2316	-11.6871	28.6072	-4.60592	0.760891	-0.289083	-6.39294	55.9517	-0.0332549	0.320672
0.8427	0.297283	-8.94481	28.0025	-0.636831	0.468241	-0.289083	-1.81943	22.3807	0.886798	0
0.8433	1.82617	-6.49676	25.8665	3.02865	-2.28267	-0.289083	5.1966	-24.9269	-0.0332549	-0.320672
0.8440	2.12345	-3.75447	24.3352	2.11043	-3.16063	0.0361354	7.63913	-55.1408	-1.2526	0
0.8447	0.594566	1.12987	19.4584	0.281391	-0.409711	0.0361354	0.324009	-42.3125	-0.338092	0
0.8453	-3.05777	3.26015	4.19404	2.41404	1.11207	-1.80677	-6.39294	-20.3534	1.19164	-0.320672
0.8460	-5.81825	-0.0941559	-7.70533	5.77591	1.11207	-0.86725	-3.95041	-5.09241	1.80131	0
0.8467	-1.86864	-7.72078	-1.9117	11.574	-0.760891	0.0361354	4.28688	2.54621	0.581961	0
0.8473	3.94962	-8.3328	4.4964	22.8593	-2.28267	-0.86725	7.95068	0.405447	-0.947766	-0.320672
0.8480	3.65233	-0.400163	-0.682751	31.7157	0.17559	0.0361354	3.67625	-0.810894	0.271582	0
0.8487	3.0153	6.62622	-11.675	32.6265	1.99002	0.650437	-2.43007	-1.73531	0.271582	0
0.8493	2.12345	14.5589	-2.51642	33.8483	0.760891	0.0361354	-4.26196	-5.09241	-0.642929	0
0.8500	0.297283	16.9951	22.1991	38.4246	-1.99002	0.0361354	3.06562	-9.66586	-1.2526	0
0.8507	0.594566	5.7082	16.0934	36.5956	-2.86797	0.93952	7.63913	-7.5251	-1.55744	0
0.8513	-1.52888	-11.0751	-15.3326	26.8284	-0.409711	1.26474	0.324009	5.59517	-0.642929	-0.320672
0.8520	-2.76048	-17.1835	-36.0882	16.7576	1.69737	0.325219	-7.00357	-0.810894	0.581961	-0.320672
0.8527	-0.339752	-4.97849	-19.9168	-22.9111	1.11207	-0.578166	-6.70449	-26.7595	0.886798	0
0.8533	2.71801	6.01421	20.9799	-75.4053	-1.05354	-0.86725	-0.286623	-17.5964	-0.338092	0
0.8540	6.37035	6.93223	16.7079	-68.9925	-1.34619	0.0361354	6.41786	12.0012	-0.642929	-0.320672
0.8547	5.18122	5.40219	-21.136	-32.6783	0.468241	0.650437	3.67625	26.0459	0.271582	0
0.8553	0.297283	2.96591	-19.9168	-20.7785	1.69737	-0.578166	-4.87259	51.9783	-0.338092	0.320672
0.8560	-1.2316	1.43588	13.0503	-13.7585	1.40472	0.325219	-3.65133	57.168	-0.338092	0
0.8567	-0.637035	-2.83645	30.7433	-5.21313	-1.34619	0.0361354	4.28688	10.1686	-0.642929	-0.962017
0.8573	2.12345	-8.3328	19.1463	-2.46587	-2.28267	-0.86725	7.34004	-6.00062	-0.947766	-0.320672
0.8580	4.2469	-6.49676	4.80851	-2.76948	-0.11706	1.26474	5.50815	25.1215	0.581961	0.320672
0.8587	2.42073	1.43588	6.64219	-3.6877	0.760891	0.93952	2.45499	49.5456	1.49647	0
0.8593	2.12345	4.17817	7.24691	-2.16226	0.17559	0.0361354	5.50815	44.664	0.886798	0
0.8600	3.0153	-1.91843	-3.43326	-2.16226	-1.99002	-0.86725	7.95068	19.6236	-0.947766	0
0.8607	2.42073	-3.75447	-6.18377	-3.08049	-2.86797	-1.19247	6.72941	-5.69248	-1.86228	0
0.8613	1.82617	0.823864	-0.994865	-1.54765	-0.11706	0.93952	6.41786	-29.8085	0.581961	0
0.8620	-0.934318	3.26015	-0.0780286	-2.46587	1.69737	1.87904	2.45499	-39.8798	2.41098	0
0.8627	-1.86864	8.7565	-0.0780286	-3.08049	0.760891	1.87904	0.934641	-35.9064	1.19164	0
0.8633	2.12345	12.7228	-0.994865	-3.08049	-2.57532	-0.578166	3.67625	-30.4247	-1.55744	-0.962017
0.8640	3.0153	2.96591	1.14117	-2.46587	-3.16063	-2.42107	3.67625	-16.3801	-1.2526	-1.60336
0.8647	1.48641	-10.1571	7.24691	-0.940437	0.17559	0.93952	3.36471	-2.95165	2.10615	0
0.8653	0.297283	-8.6388	6.94455	-0.636831	1.69737	3.39673	4.58597	-5.09241	3.93517	0.641344
0.8660	1.18913	4.17817	2.05801	-1.85866	0.760891	1.87904	4.28688	-8.14138	3.02066	0
0.8667	3.65233	11.2046	-4.04774	-3.6877	-1.34619	-1.19247	2.75407	-4.78428	-0.0332549	0
0.8673	4.84146	6.01421	-9.84136	-4.29491	-2.28267	-3.32446	2.75407	-1.11903	-2.77679	0
0.8680	1.18913	-5.57874	-18.0831	-2.16226	-0.409711	-3.03537	-0.286623	2.23807	-2.77679	0
0.8687	-3.6948	-12.9111	-22.0528	2.11043	1.69737	-0.86725	-3.65133	-11.8066	-1.55744	0
0.8693	-4.58665	-15.0414	-14.7279	-0.940437	1.40472	1.55382	1.23373	-36.5227	-1.86228	-0.320672
0.8700	-4.28937	-11.0751	-15.6447	-9.78943	-1.99002	0.0361354	3.97534	-26.4514	-2.77679	0
0.8707	-2.16592	4.17817	-20.2192	-1.85866	-2.86797	-1.48155	0.324009	41.3069	-0.0332549	0.320672
0.8713	0	11.5106	-10.4558	10.9594	-0.11706	1.26474	-1.81943	132.241	5.45935	0
0.8720	1.18913	6.32022	-3.1309	9.43399	1.40472	2.78243	-1.50789	162.146	8.20843	-0.320672
0.8727	2.71801	0.823864	-6.18377	7.30135	0.468241	1.87904	0.623094	114.547	7.59875	0.320672
0.8733	3.35505	-7.41478	-0.0780286	9.7376	-1.63884	-0.289083	2.14344	78.527	2.41098	0.320672
0.8740	2.42073	-7.72078	13.9574	16.1503	-2.57532	-2.71016	-2.11852	57.7843	-5.8307	0
0.8747	0	-4.67249	15.791	25.3029	-0.11706	-2.42107	-7.92575	9.56855	-11.3233	-0.320672
0.8753	-2.76048	-7.41478	11.8213	27.7466	1.69737	0.93952	-3.65133	-36.2145	-13.1523	0
0.8760	-2.4632	-5.2845	11.519	16.1503	0.760891	1.26474	2.75407	-79.8568	-13.4572	0
0.8767	0.297283	2.3539	9.38294	-1.85866	-1.99002	-2.71016	0.934641	-100.616	-16.2062	0
0.8773	3.0153	6.01421	8.16375	-8.87861	-2.86797	-4.55306	-0.897255	-67.6448	-21.0892	0
0.8780	1.82617	-1.01218	8.46611	-28.7092	-0.409711	-2.71016	-4.56105	-27.6677	-15.9014	0
0.8787	-0.934318	-11.3811	7.54927	-60.7582	1.11207	-0.86725	-6.70449	-8.75766	-0.0332549	0
0.8793	0.297283	-10.7691	6.02771	-47.3255	0.468241	0.650437	0.324009	-5.69248	6.3794	0
0.8800	0.297283	-4.06047	2.36037	-12.2331	-1.63884	-1.48155	2.14344	-19.1209	-0.642929	0.320672
0.8807	-2.16592	-0.0941559	-8.62216	3.63586	-3.16063	-2.71016	-0.897255	-24.0025	-3.6913	0
0.8813	-3.6948	3.56615	-31.8162	29.8792	-1.34619	1.55382	1.53281	-20.0453	1.49647	-0.320672
0.8820	-4.88393	4.48418	-37.9219	67.4153	0.760891	2.78243	0.0124619	-42.0205	10.3423	0
