MR32 ASCII
Name	KneeFJC1
Frequency	1500
Date	11-09-2015 09:04:14
"Time,s"	"RT TIB.ANT.,uV"	"RT MED. GASTRO,uV"	"RT LAT. GASTRO,uV"	"RT BICEPS FEM.,uV"	"RT VMO,uV"	"RT VLO,uV"	"RT RECTUS FEM.,uV"	"RT SOLEUS,uV"	"RT SEMITEND.,uV"	"Channel 12,uV"
0.0000	-1.88148	-7.59786	-3.66002	-5.42348	-0.656296	-1.04812	-0.161925	0.451205	-7.22565	-9843.73
0.0007	-1.5844	-4.85419	0.616229	-1.76279	2.37907	1.67699	3.48874	0.752009	-6.61708	-10164
0.0013	2.3766	-2.4175	2.74502	0.070769	2.99435	5.03096	5.01966	5.64007	-7.22565	-9545.11
0.0020	4.20857	-3.03147	1.21378	-0.540418	0.246111	2.59933	1.35428	7.16915	-7.22565	-9900.28
0.0027	3.31734	-5.46815	0.616229	-0.849229	-2.78926	-2.59933	-4.13644	3.1835	-6.00852	-9825.31
0.0033	2.97075	-4.85419	3.0438	1.59552	-1.88685	-1.97046	-5.0491	2.5819	-4.17425	-9798.3
0.0040	2.67368	-1.49655	8.23505	3.42265	0.861388	2.8928	-2.60551	6.24167	-2.34855	-9819.59
0.0047	3.31734	0.633155	7.32005	2.81789	1.14852	4.73749	-1.07459	8.07156	-2.34855	-9819.27
0.0053	3.61442	-0.901766	-10.0651	0.070769	-0.984444	2.8928	-0.161925	7.16915	-4.17425	-9808.47
0.0060	1.48538	-3.64544	-29.9151	-0.238041	-3.11741	0.461171	-2.60551	5.33926	-7.84279	-9800.21
0.0067	-0.0495125	-2.4175	-36.3201	8.61452	-1.59972	0.754644	-1.69285	5.64007	-8.75135	-9918.39
0.0073	-0.346588	2.14889	-24.4064	22.0413	1.14852	2.30586	3.19433	7.77076	-5.69995	-9628.98
0.0080	-0.0495125	3.37683	8.85128	29.9739	0.861388	0.754644	4.107	8.07156	-2.34855	-9872.64
0.0087	0.841713	-1.49655	31.7451	30.2827	-2.215	-1.38351	1.66341	6.24167	-1.12285	-10409.5
0.0093	0.544638	-8.21183	19.8314	24.7885	-5.5375	-1.67699	-2.60551	5.01339	-2.34855	-5802.48
0.0100	0.544638	-7.31006	6.40504	19.2942	-4.63509	0.754644	-3.51818	4.71259	-2.34855	29.2269
0.0107	0.841713	-0.901766	5.80749	16.5471	0.53324	2.8928	-0.161925	5.33926	-0.205712	107.059
0.0113	-0.0495125	0.0191865	3.0438	3.42265	2.37907	1.67699	1.35428	7.77076	0.702851	-271.937
0.0120	-0.346588	-1.80353	-1.83001	-24.6534	0.246111	-0.461171	-1.07459	8.69823	-1.73141	83.233
0.0127	-0.346588	-2.72448	-2.44624	-41.4385	-2.50213	-2.8928	-5.35823	3.1835	-4.17425	7.94208
0.0133	-0.0495125	-1.80353	6.40504	-34.7219	-1.88685	-1.97046	-4.13644	0.150402	-2.34855	-19.061
0.0140	0.841713	-0.287798	16.7876	-23.431	0.246111	0.754644	0.750741	0.752009	1.92855	2.22378
0.0147	1.48538	-0.287798	13.1275	-13.9672	0.246111	1.38351	1.97254	1.65442	4.67139	-0.317683
0.0153	-0.346588	-2.11052	-7.93628	-8.47942	-1.27157	-0.754644	-0.161925	2.8827	2.53712	-0.317683
0.0160	-2.17855	-3.95242	-23.8088	-8.47942	-3.11741	-4.10862	-3.51818	-0.175469	-2.95712	0
0.0167	-0.0495125	-2.72448	-15.2563	-6.94823	-2.215	-2.8928	-2.00198	0.150402	-4.17425	0
0.0173	1.48538	0.633155	1.21378	-3.59635	0.53324	1.09004	2.28166	1.98029	-2.34855	0
0.0180	0.247563	4.60476	9.76629	-2.67636	1.14852	1.67699	2.57607	-7.79582	-2.34855	0
0.0187	-0.693176	2.14889	8.23505	-4.20111	-0.656296	-1.38351	-0.161925	-24.2648	-4.17425	0
0.0193	-0.346588	-6.08212	2.12879	-6.34348	-3.11741	-4.40209	-3.82731	-34.0409	-5.69995	0
0.0200	0.247563	-6.69609	0	-5.42348	-2.215	-3.52167	-3.82731	-21.2317	-4.17425	0
0.0207	-0.346588	1.86109	-0.915006	-2.06517	1.14852	-0.167699	-1.07459	18.4493	0.0942849	0
0.0213	-0.990251	10.0921	-5.19126	-1.15161	2.09194	0.461171	0.132484	46.2235	1.92855	0
0.0220	-0.0495125	7.04145	-9.46751	-2.67636	-0.656296	-2.8928	-1.69285	35.8458	0.402854	0.317683
0.0227	0.247563	-4.5472	-4.57503	-4.20111	-3.11741	-5.9533	-4.13644	14.4887	-1.73141	0.317683
0.0233	0.247563	-8.51881	0.616229	-2.98517	-1.27157	-2.8928	-2.91464	7.77076	-2.34855	0
0.0240	-0.0495125	-3.95242	-3.9588	-0.540418	1.7638	2.30586	0.441613	9.60065	-1.73141	0
0.0247	0.247563	-1.18956	0.915006	-0.238041	1.7638	1.97046	0.750741	8.37236	-0.82285	0.317683
0.0253	2.07953	-0.287798	10.6813	-0.849229	-0.0410185	-2.30586	-1.38372	4.41178	-0.514281	0.635366
0.0260	2.67368	2.14889	3.0438	-1.76279	-2.215	-7.16912	-4.44557	5.01339	-0.514281	0.317683
0.0267	2.3766	4.91175	-5.19126	-0.540418	-0.984444	-7.16912	-3.82731	18.4493	2.22855	0.317683
0.0273	1.13879	7.04145	-3.9588	1.8979	2.37907	-3.18627	0.132484	27.5987	6.50566	0.317683
0.0280	-0.0495125	7.04145	-3.0438	1.8979	2.99435	-1.97046	0.441613	11.7313	8.63993	0.317683
0.0287	-0.990251	9.17115	-0.915006	0.984333	1.14852	-2.8928	-2.29639	-7.79582	9.55706	0.317683
0.0293	-4.01052	9.47814	0.915006	-0.849229	-2.215	-4.73749	-5.65264	-10.5281	7.11422	0
0.0300	-4.95125	-0.594782	3.9588	-0.849229	-2.215	-3.52167	-5.96177	4.71259	4.97996	-0.635366
0.0307	-0.693176	-5.77514	6.72249	1.28671	0.53324	-0.167699	-2.00198	14.4887	7.42279	0
0.0313	2.07953	-0.594782	0.616229	2.20671	0.861388	0.461171	1.66341	-1.67949	8.63993	0.635366
0.0320	2.97075	-4.85419	-10.3825	0.373146	-0.984444	-1.97046	0.132484	-21.8333	4.67139	0
0.0327	2.67368	-13.1044	-13.4263	-2.06517	-2.78926	-3.52167	-2.29639	-34.3417	0.702851	0.317683
0.0333	0.841713	-10.9555	-16.1713	-2.06517	-0.984444	-1.04812	-0.780182	-33.1135	1.61999	0.635366
0.0340	-0.990251	-5.77514	-12.2125	-0.849229	2.70722	2.30586	0.441613	-7.49502	3.14569	-0.635366
0.0347	-3.11929	0.0191865	27.1701	0.070769	5.12731	4.10862	-0.161925	13.862	1.92855	-0.635366
0.0353	-2.82221	14.9847	49.4477	-0.540418	4.22491	3.52167	-0.161925	9.60065	-0.205712	0.317683
0.0360	-1.5844	28.089	20.4476	-2.37398	1.47667	1.67699	-1.69285	-21.2317	-2.03998	0.317683
0.0367	-2.82221	21.6808	-3.36125	-0.540418	1.14852	3.81514	-0.471053	-60.8876	0.0942849	0
0.0373	-2.52514	3.99079	-11.8951	2.20671	2.70722	8.09146	3.79787	-41.6613	2.53712	0.317683
0.0380	0.247563	-8.21183	-11.2975	2.20671	1.7638	7.46259	4.71053	27.5987	0.702851	0
0.0387	-0.693176	-8.21183	1.53123	0.675523	-0.656296	2.8928	1.35428	43.1653	-2.64855	0
0.0393	0.247563	-7.90484	2.44624	-1.46042	-2.50213	-2.59933	-1.69285	25.7688	-6.31709	0
0.0400	3.31734	-7.90484	-19.2338	-0.849229	-0.656296	-4.10862	0.441613	27.8995	-6.31709	0.317683
0.0407	-0.0495125	6.73446	-38.7664	1.8979	2.09194	-1.38351	5.01966	16.3186	-1.73141	0.635366
0.0413	-5.24833	21.6808	-27.7676	2.50908	2.09194	1.38351	5.32879	-5.96594	0.0942849	0.317683
0.0420	-2.82221	21.9877	-3.9588	1.28671	-0.984444	1.09004	1.97254	-7.49502	-0.514281	0.317683
0.0427	-0.990251	14.6777	9.76629	-0.540418	-4.34796	-2.59933	-2.00198	12.358	-1.12285	0.317683
0.0433	-2.82221	5.21873	21.9788	0.675523	-2.78926	-1.97046	-1.69285	18.4493	1.31999	0.317683
0.0440	2.3766	-8.21183	21.9788	2.50908	0.53324	1.38351	0.750741	5.33926	3.45426	0.317683
0.0447	5.44638	-20.7214	0.616229	1.28671	0.861388	1.67699	0.750741	9.90145	4.06282	0.635366
0.0453	-1.28733	-22.2563	-15.5551	0.070769	-1.27157	-0.167699	-2.00198	22.1091	4.67139	0.635366
0.0460	-3.71344	-14.0253	-11.5963	-0.849229	-2.78926	-2.8928	-7.18356	16.0178	2.53712	0.317683
0.0467	3.91149	-3.64544	-25.6388	1.28671	-0.369166	-1.67699	-7.18356	-0.476272	4.06282	0.317683
0.0473	7.57542	11.9148	-41.8102	4.34265	3.28148	0.461171	-2.29639	-15.717	8.94849	0.635366
0.0480	-2.52514	29.317	1.83001	3.12027	2.99435	0.754644	0.132484	-18.1735	8.33136	0.317683
0.0487	-12.5762	31.1589	40.5964	-0.238041	0.861388	-1.67699	-1.07459	0.451205	4.06282	0.317683
0.0493	-9.20933	14.0637	19.2338	-2.06517	-1.59972	-5.65983	-3.51818	22.1091	2.84569	0.635366
0.0500	0.841713	-9.13278	3.66002	-0.238041	-1.27157	-2.59933	-2.91464	34.6175	6.50566	0.317683
0.0507	5.44638	-23.1773	6.72249	3.73146	0.861388	3.52167	-2.00198	32.4868	7.42279	0
0.0513	6.04053	-23.1773	2.44624	4.34265	0.861388	2.59933	-2.60551	19.3768	1.01142	0.317683
0.0520	7.87249	-16.769	2.12879	1.59552	-2.215	-3.18627	-3.82731	35.2441	-3.56568	0.635366
0.0527	7.27834	-14.3131	-2.44624	-1.46042	-4.01981	-6.24677	-6.87444	67.5805	-4.48282	0.317683
0.0533	3.91149	-15.8481	-9.15006	-1.76279	-2.215	-4.10862	-4.44557	58.1303	-4.78282	0.635366
0.0540	3.61442	-15.2341	-3.36125	-2.06517	-0.369166	0.167699	2.57607	27.5987	-6.61708	0.635366
0.0547	5.44638	-11.2625	-8.85128	-3.59635	-0.656296	0.754644	5.63792	5.94087	-12.1113	0.317683
0.0553	2.67368	-3.64544	-35.0877	-6.34348	-1.88685	-1.67699	4.107	-21.2317	-19.1313	0.635366
0.0560	-1.88148	5.21873	-49.7465	-10.0042	-3.73268	-3.18627	0.132484	-30.0804	-22.4912	0
0.0567	-0.346588	4.29778	-25.0226	-8.17061	-2.50213	0.754644	1.05987	-20.3042	-13.9456	0
0.0573	0.544638	-2.4175	12.2125	-2.67636	-0.0410185	4.44401	4.71053	-16.9453	2.53712	0.635366
0.0580	-0.346588	-13.4114	26.2364	0.675523	0.246111	3.2282	4.107	12.9596	12.917	0.317683
0.0587	3.61442	-20.1266	26.5539	0.675523	-0.984444	-1.67699	0.441613	49.2816	13.217	0
0.0593	6.04053	-4.2594	20.7464	-1.15161	-3.11741	-5.9533	-2.91464	27.5987	6.50566	0.317683
0.0600	2.97075	13.1428	-2.12879	-0.849229	-1.59972	-4.10862	-2.60551	-41.3605	-0.514281	0.635366
0.0607	2.07953	33.9026	-41.8102	1.28671	1.14852	-1.97046	-1.69285	-99.3404	-2.64855	-0.317683
0.0613	6.33761	67.7667	-67.1316	1.8979	1.47667	-1.97046	-2.29639	-100.268	0.402854	-0.95305
0.0620	10.0015	70.2034	-63.789	0.373146	-0.369166	-1.67699	-2.29639	-52.3398	-1.73141	0.317683
0.0627	6.93176	32.6746	-35.4051	-1.76279	-3.40454	-1.67699	-4.44557	25.468	-9.97706	0.635366
0.0633	1.78245	-9.74675	23.8088	0.070769	-2.78926	1.67699	-3.51818	104.805	-7.53422	0.317683
0.0640	0.841713	-39.6585	70.8103	4.95383	0.53324	5.32443	1.05987	122.201	4.67139	0.317683
0.0647	2.67368	-55.5258	64.704	6.47858	1.47667	4.73749	2.8852	71.2403	8.94849	0.317683
0.0653	3.31734	-59.1904	39.9802	4.95383	0.246111	2.30586	0.441613	4.41178	1.01142	0.317683
0.0660	-0.990251	-50.9402	27.1701	3.12027	-0.984444	-0.461171	-2.91464	-26.7214	-5.09138	0
0.0667	-10.1501	-29.8926	20.1488	4.95383	0.246111	-0.754644	-1.69285	-23.6632	-2.34855	0.317683
0.0673	-14.4081	-1.18956	11.5963	7.70096	2.70722	1.09004	1.97254	-57.5287	1.31999	0.317683
0.0680	-7.37737	18.0353	-14.6401	7.08977	2.37907	-0.461171	2.8852	-103.627	1.92855	0.317683
0.0687	0.247563	11.32	-44.5552	4.03384	0.246111	-4.10862	1.05987	-77.6825	1.61999	0.317683
0.0693	1.13879	-5.16117	-27.4689	0.070769	-1.88685	-6.54025	-2.60551	-40.4581	0.0942849	0.317683
0.0700	1.78245	-4.85419	15.8726	-0.540418	-1.27157	-1.67699	-2.29639	-45.9477	-0.205712	0.635366
0.0707	4.20857	-3.95242	32.3427	1.8979	1.47667	7.16912	1.97254	-35.8708	-0.82285	0.635366
0.0713	5.74345	-6.08212	30.8301	0.984333	2.09194	9.0138	2.8852	6.84328	-9.36849	0.317683
0.0720	6.33761	10.3991	15.2563	-2.37398	0.53324	2.8928	0.132484	39.2047	-20.9655	0.635366
0.0727	4.20857	28.089	-15.8726	-2.67636	-0.656296	-3.18627	-2.91464	73.9977	-19.1313	0.317683
0.0733	0.247563	51.5925	-38.4489	1.28671	0.861388	-4.10862	-1.38372	87.4336	-6.31709	0.317683
0.0740	-5.24833	65.3301	-48.2152	4.64502	2.37907	-1.67699	1.97254	26.9971	2.53712	0.317683
0.0747	-8.02103	10.7061	-92.1542	4.64502	2.09194	3.2282	1.66341	11.7313	5.89709	0.317683
0.0753	-3.41637	-26.5349	-180.966	3.42265	0.53324	4.73749	-1.38372	70.6387	6.80566	0.317683
0.0760	1.13879	16.1934	-214.84	1.59552	-1.59972	0.754644	-4.44557	66.3522	7.11422	0.635366
0.0767	2.97075	21.086	-92.1542	1.8979	-1.59972	0.461171	-2.91464	10.8289	8.63993	0.317683
0.0773	4.20857	-31.1013	94.3016	4.34265	0.861388	2.8928	0.441613	-12.6839	10.4742	0.317683
0.0780	1.78245	-47.2756	158.389	4.34265	1.47667	2.8928	0.750741	-8.09663	9.86563	0.317683
0.0787	-5.24833	-24.3861	108.344	-0.238041	-0.369166	0.754644	-2.60551	20.58	5.27995	0.317683
0.0793	-5.24833	-12.1834	44.5552	-5.42348	-1.88685	-2.30586	-5.65264	82.2447	1.01142	0.317683
0.0800	0.544638	-16.155	7.32005	-6.03467	-0.656296	-1.38351	-3.82731	107.863	1.31999	0
0.0807	2.07953	-15.2341	22.2776	-3.89873	1.7638	1.67699	-1.07459	46.5243	3.45426	0
0.0813	1.13879	-3.95242	69.5778	-2.98517	2.09194	2.59933	-0.471053	-54.4956	2.22855	0.317683
0.0820	2.67368	-6.69609	90.6416	-3.28754	-0.0410185	-0.167699	-1.38372	-122.853	-0.82285	0.317683
0.0827	6.33761	-30.7943	74.4703	-4.20111	-2.78926	-3.18627	-4.13644	-71.5662	-3.25711	0.317683
0.0833	7.27834	-35.9939	48.514	-2.98517	-1.88685	-1.38351	-2.29639	71.2403	-5.69995	0.317683
0.0840	5.1493	-21.0284	33.8739	1.59552	1.14852	2.8928	2.57607	130.148	-4.78282	0
0.0847	5.1493	-10.3607	30.2139	4.64502	1.47667	3.52167	2.8852	48.9808	0.0942849	0.317683
0.0853	4.80272	5.81351	21.9788	2.81789	-0.984444	0.754644	-0.780182	-79.8132	-5.39995	0.317683
0.0860	2.97075	10.3991	10.6813	-2.06517	-3.11741	-2.59933	-4.13644	-142.982	-19.4313	0.317683
0.0867	2.3766	0.326171	6.72249	-2.67636	-0.984444	-0.754644	-2.29639	-134.133	-15.7713	0.317683
0.0873	1.48538	2.76286	10.3825	1.59552	2.37907	2.59933	1.66341	-92.3216	8.94849	0.317683
0.0880	1.13879	9.17115	10.3825	4.95383	2.99435	2.59933	2.28166	-31.9102	23.5969	0
0.0887	1.78245	8.26939	-3.9588	4.95383	1.14852	0.754644	-0.161925	-52.6657	6.50566	0.317683
0.0893	2.3766	-0.287798	-24.4064	1.8979	-2.215	-3.18627	-4.73997	-122.853	-14.5542	0
0.0900	1.78245	-2.11052	-47.0014	1.8979	-0.984444	-2.8928	-5.0491	-108.816	-9.66849	-0.95305
0.0907	-3.41637	5.81351	-50.9602	8.9169	2.99435	1.09004	-1.38372	-34.3417	4.06282	-0.317683
0.0913	-8.61518	9.17115	4.27625	19.5966	3.28148	1.97046	1.35428	49.5824	10.4742	0.635366
0.0920	-5.24833	13.7567	58.8965	26.0108	0.861388	-0.461171	-0.780182	113.353	11.3913	0.317683
0.0927	1.48538	5.81351	42.4264	25.702	-1.27157	-2.8928	-4.44557	116.11	12.2999	0.317683
0.0933	5.1493	-24.3861	13.7251	24.4797	-0.0410185	-1.04812	-2.29639	49.2816	17.1856	0.317683
0.0940	2.67368	-10.6677	11.8951	20.819	2.70722	2.30586	1.97254	-36.7732	15.3513	0.635366
0.0947	-4.65418	51.8995	-4.87381	15.0223	2.37907	2.8928	2.8852	-80.114	10.4742	0.635366
0.0953	-6.18907	48.5419	-32.6601	7.70096	-0.0410185	1.09004	0.750741	-75.5518	15.3513	0.317683
0.0960	-1.28733	-16.155	-26.8526	-13.9672	-2.50213	-1.67699	-3.22377	24.2397	5.89709	0.317683
0.0967	-0.693176	-36.6079	-12.5113	-36.2466	-1.88685	-0.167699	-1.07459	212.844	-22.7912	0.635366
0.0973	-5.84248	-25.307	-9.15006	-35.9442	0.861388	2.59933	2.28166	285.488	-27.3683	0.317683
0.0980	-9.50641	-9.43976	3.0438	-22.8198	2.09194	2.30586	1.05987	136.565	-6.31709	0.317683
0.0987	-7.08029	21.6808	2.74502	-10.3065	0.53324	-0.754644	-1.07459	-79.5124	0.0942849	0.635366
0.0993	2.07953	24.7506	-12.8101	-1.46042	-2.215	-3.81514	-3.82731	-168.926	-6.92565	0.317683
0.1000	13.6655	-5.77514	-17.4038	4.34265	-0.656296	-1.04812	-2.60551	-91.72	-5.09138	0.317683
0.1007	18.8643	-2.72448	-8.85128	9.52809	2.37907	3.2282	2.28166	-4.43685	-0.82285	0.635366
0.1013	13.0713	49.1558	2.12879	11.3616	2.37907	2.59933	2.57607	-35.8708	-2.03998	0.635366
0.1020	1.13879	57.6938	5.80749	9.8369	-0.656296	-0.461171	-1.38372	-90.7925	-4.48282	0.317683
0.1027	-5.24833	-10.0537	0.915006	16.8559	-2.78926	-3.52167	-4.44557	-59.0578	-5.39995	0.317683
0.1033	-7.37737	-40.8673	-2.12879	44.0119	-0.984444	-1.97046	-2.00198	-12.6839	-2.34855	0.635366
0.1040	-8.91226	-14.3131	5.49004	83.6876	1.7638	1.09004	1.05987	-24.8915	1.01142	0.635366
0.1047	-4.95125	-6.69609	12.8101	109.93	2.70722	1.67699	0.750741	-48.68	1.92855	0.635366
0.1053	2.67368	-16.462	14.6401	104.133	0.53324	-1.38351	-1.69285	-58.4561	-1.43142	0.317683
0.1060	3.61442	-15.2341	15.5551	82.4652	-2.215	-3.81514	-4.44557	-60.286	-5.69995	0.317683
0.1067	-0.346588	-7.31006	14.3413	64.4577	-0.369166	-0.754644	-1.69285	-45.0203	-4.48282	0.635366
0.1073	-3.41637	0.633155	10.6813	49.815	1.7638	1.67699	1.97254	-30.0804	-1.12285	0.635366
0.1080	-5.84248	1.86109	3.9588	40.0488	1.47667	2.30586	2.57607	-23.6632	-1.12285	0.317683
0.1087	-5.5454	-2.72448	-3.9588	22.9549	-0.0410185	0.754644	1.05987	-18.7752	-3.56568	0.317683
0.1093	-1.5844	-5.77514	-3.0438	-38.0802	-2.50213	-2.30586	-2.60551	-20.605	-6.31709	0.635366
0.1100	2.3766	-3.33845	7.6375	-145.501	-1.59972	-1.67699	-1.69285	-21.5325	-5.69995	0.635366
0.1107	2.3766	4.29778	1.53123	-194.634	1.7638	1.97046	2.28166	-6.86835	-2.64855	0.635366
0.1113	0.247563	7.9624	-33.8739	-128.105	1.7638	2.30586	2.57607	9.60065	-0.205712	0.317683
0.1120	-0.693176	3.99079	-53.7053	-56.3901	-0.0410185	-0.167699	-0.471053	-1.07788	-0.205712	0.317683
0.1127	-0.346588	3.37683	-36.0027	-37.7714	-1.59972	-2.30586	-3.51818	13.2604	-2.34855	0.317683
0.1133	0.841713	14.3707	-15.2563	-30.1412	-1.27157	-1.38351	-2.91464	42.2629	-1.43142	0.317683
0.1140	0.247563	25.0384	6.10627	-22.8198	0.861388	1.09004	-0.161925	-40.4581	1.01142	0.635366
0.1147	-2.82221	17.7283	28.0851	-21.5974	1.47667	1.38351	0.441613	-133.532	0.402854	0.635366
0.1153	-3.71344	5.21873	17.7026	-22.8198	-0.656296	-0.754644	-1.69285	-135.963	-1.43142	0.635366
0.1160	-1.88148	10.3991	-4.27625	-21.9062	-2.78926	-3.52167	-4.13644	-103.326	-3.25711	0.635366
0.1167	-1.28733	18.6301	0.616229	-18.5479	-0.656296	-2.30586	-2.91464	-41.9621	-1.73141	0.635366
0.1173	-0.346588	3.37683	13.7251	-15.4984	2.09194	0.754644	-0.780182	16.6194	1.31999	0.635366
0.1180	2.67368	-18.5917	10.6813	-13.0537	2.37907	1.67699	0.132484	57.8295	1.61999	0.317683
0.1187	3.31734	-21.3354	-3.0438	-13.0537	-0.0410185	-0.167699	-0.161925	72.1678	-0.82285	0.317683
0.1193	0.247563	-13.1044	-10.9801	-14.8872	-3.11741	-4.40209	-4.73997	48.655	-3.56568	0
0.1200	-0.0495125	-2.72448	-4.57503	-12.4425	-1.27157	-4.10862	-4.73997	22.7357	-2.64855	-0.317683
0.1207	1.78245	3.99079	5.80749	-7.55942	2.09194	1.09004	0.750741	14.4887	1.61999	0.635366
0.1213	1.78245	3.37683	4.87381	-6.64586	2.70722	2.30586	2.57607	10.2023	2.84569	0.635366
0.1220	1.13879	1.86109	-3.36125	-7.55942	0.53324	-0.754644	-0.471053	0.150402	3.45426	0.317683
0.1227	-0.346588	3.68381	-8.23505	-8.47942	-1.88685	-4.10862	-3.82731	-3.50937	4.37139	0.635366
0.1233	-2.52514	11.32	-5.49004	-6.94823	-0.0410185	-1.67699	-2.29639	3.81018	0.402854	0.635366
0.1240	-4.01052	17.4213	-2.12879	-4.81229	2.99435	1.97046	1.05987	11.4305	-7.84279	0.317683
0.1247	-3.41637	10.7061	0.298777	-3.89873	2.70722	0.167699	-0.161925	17.221	-12.1113	-0.635366
0.1253	-1.28733	-0.594782	2.44624	-3.59635	1.14852	-2.30586	-2.91464	26.0696	-13.637	-0.317683
0.1260	-1.5844	-4.5472	-2.12879	-4.20111	-0.984444	-3.18627	-3.82731	22.1091	-13.9456	0.635366
0.1267	-0.990251	0.326171	-5.49004	-1.76279	-0.656296	-1.67699	-1.38372	8.99904	-2.03998	0.317683
0.1273	0.544638	5.50653	-4.27625	1.59552	2.09194	1.97046	1.66341	8.69823	10.1656	0
0.1280	-0.0495125	5.81351	-8.85128	1.8979	2.37907	2.30586	1.05987	13.2604	11.6913	0
0.1287	-1.28733	1.86109	-13.7251	0.675523	-0.0410185	-0.754644	-0.161925	11.4305	9.24849	0.317683
0.1293	-2.52514	-5.46815	-7.32005	-0.849229	-2.50213	-3.52167	-2.29639	9.29984	3.75425	0.635366
0.1300	-1.5844	-6.38911	3.0438	0.675523	-0.656296	-1.97046	-1.69285	11.1297	1.92855	0.635366
0.1307	-0.0495125	-0.594782	5.80749	3.73146	2.09194	1.38351	1.97254	12.9596	5.89709	0.317683
0.1313	-0.693176	1.86109	3.9588	3.73146	2.09194	1.38351	2.8852	11.1297	6.50566	0.635366
0.1320	0.247563	-0.287798	-0.298777	1.59552	-0.0410185	-1.67699	0.132484	8.69823	-1.12285	0.635366
0.1327	0.247563	-1.80353	-4.57503	0.373146	-1.59972	-4.10862	-2.91464	6.84328	-9.05992	0.317683
0.1333	-1.5844	3.37683	-3.9588	2.20671	0.246111	-1.38351	-1.69285	4.41178	-6.31709	0.317683
0.1340	-1.88148	10.0921	-1.21378	4.34265	2.37907	1.67699	1.66341	3.81018	-0.205712	0.635366
0.1347	-1.88148	8.57637	-1.21378	4.03384	1.7638	1.09004	1.35428	6.54248	0.402854	0.635366
0.1353	-3.41637	0.633155	-2.74502	2.81789	-0.369166	-1.38351	-0.780182	7.77076	-0.82285	0.635366
0.1360	-2.82221	-3.33845	-7.6375	0.984333	-2.215	-3.81514	-3.51818	5.64007	-2.64855	0.317683
0.1367	0.544638	0.326171	-9.46751	2.20671	-0.369166	-1.38351	-2.00198	6.84328	-1.73141	0.317683
0.1373	0.544638	3.37683	-7.02127	5.25621	2.99435	1.97046	2.28166	9.29984	1.92855	0.317683
0.1380	-1.5844	5.81351	-7.32005	5.25621	3.28148	1.97046	2.57607	7.16915	2.53712	0.635366
0.1387	-1.88148	8.26939	-9.15006	3.42265	1.14852	-0.167699	-0.161925	4.11098	-0.205712	0.635366
0.1393	-0.990251	4.29778	-7.32005	1.59552	-1.59972	-3.18627	-3.51818	3.81018	-2.95712	0.317683
0.1400	-1.5844	0.633155	-1.83001	3.12027	-0.656296	-2.30586	-1.69285	6.54248	-1.12285	0.317683
0.1407	-4.65418	1.86109	-2.74502	5.25621	2.37907	1.09004	2.28166	10.8289	1.31999	0.317683
0.1413	-8.02103	5.21873	-13.4263	5.8674	2.99435	1.67699	2.28166	13.2604	1.61999	0.317683
0.1420	-9.853	6.1205	-22.2776	3.73146	0.53324	-1.38351	-0.780182	11.4305	-0.514281	0.317683
0.1427	-8.02103	2.76286	-29.0001	1.8979	-1.88685	-3.81514	-3.82731	10.5281	-2.95712	0.317683
0.1433	-1.88148	1.86109	-22.8938	3.73146	-0.369166	-1.67699	-2.29639	14.7895	-1.73141	0.635366
0.1440	1.13879	3.06984	2.74502	5.25621	1.7638	1.38351	1.35428	16.6194	0.0942849	0.635366
0.1447	0.544638	-0.287798	17.7026	4.64502	1.7638	1.97046	1.66341	15.717	0.702851	0.317683
0.1453	1.48538	-7.90484	14.0425	2.81789	0.246111	-0.754644	-0.471053	16.9202	-1.12285	0.317683
0.1460	3.91149	-10.9555	10.6813	0.984333	-1.59972	-3.18627	-3.51818	4.71259	-1.73141	0.317683
0.1467	5.44638	-5.77514	8.85128	2.50908	-0.984444	-1.04812	-2.00198	-16.6445	4.37139	0.317683
0.1473	5.1493	-0.287798	6.10627	4.03384	1.14852	1.38351	1.97254	-1.37868	8.94849	0.317683
0.1480	3.31734	0.326171	5.19126	3.73146	2.09194	1.38351	2.28166	20.2792	3.75425	0.317683
0.1487	1.78245	-1.80353	3.0438	1.8979	0.53324	-1.38351	-0.780182	-7.49502	-3.56568	0.317683
0.1493	-0.346588	-3.33845	-0.616229	0.070769	-1.59972	-3.18627	-3.22377	-31.9102	-4.17425	0.317683
0.1500	-0.990251	-0.594782	-2.44624	2.20671	-0.984444	-2.30586	-2.60551	-15.717	1.31999	-0.317683
0.1507	-1.28733	3.68381	-0.616229	5.8674	1.47667	-0.167699	-0.780182	4.41178	8.33136	-0.95305
0.1513	-0.346588	4.29778	1.53123	7.70096	1.7638	1.97046	1.05987	7.46995	11.6913	0
0.1520	0.841713	0.0191865	-0.915006	5.25621	0.246111	-0.167699	-0.161925	1.35362	6.19709	0.317683
0.1527	-0.346588	-2.11052	-2.12879	2.20671	-1.88685	-3.18627	-3.51818	-2.90777	-2.34855	0.317683
0.1533	-0.990251	2.14889	0.616229	3.12027	-0.369166	-0.754644	-1.69285	-2.30616	-4.17425	0.317683
0.1540	-0.0495125	5.21873	-2.12879	4.64502	2.37907	1.97046	1.97254	-2.60696	-6.00852	0.317683
0.1547	-0.990251	2.45587	-5.78881	4.34265	2.09194	1.67699	2.57607	-4.13605	-6.92565	0.635366
0.1553	-1.88148	0.326171	-3.9588	3.12027	-0.0410185	-0.167699	-0.161925	-1.07788	-2.34855	0.635366
0.1560	-0.693176	0.0191865	-0.915006	1.28671	-1.88685	-2.8928	-3.22377	1.65442	-0.514281	0.95305
0.1567	0.544638	1.55411	2.12879	1.28671	-0.369166	-1.04812	-1.07459	2.5819	-1.12285	0.635366
0.1573	0.247563	6.73446	-5.78881	2.81789	1.7638	2.30586	2.28166	20.8808	1.31999	0.317683
0.1580	-0.346588	12.2218	-14.3413	3.12027	2.09194	2.8928	1.66341	65.7506	4.67139	0.317683
0.1587	0.544638	8.57637	-2.12879	1.59552	0.246111	0.167699	-0.471053	75.5267	4.37139	0.317683
0.1593	0.841713	-7.90484	0	-0.238041	-1.88685	-2.8928	-2.91464	25.1672	2.53712	0.317683
0.1600	0.544638	-10.9555	-21.9788	2.20671	-0.656296	-1.67699	-2.00198	1.65442	7.42279	0.317683
0.1607	-0.346588	1.24712	-39.3639	5.55859	2.37907	1.38351	1.66341	41.0346	12.6085	0.317683
0.1613	-1.28733	-0.594782	-44.854	5.55859	3.28148	2.30586	1.97254	94.1264	4.97996	0.317683
0.1620	-1.5844	-0.594782	-44.2564	2.20671	0.53324	-0.461171	-0.780182	99.6161	-7.84279	0.635366
0.1627	-1.5844	16.5004	-40.5964	-0.849229	-2.78926	-4.10862	-4.13644	42.2629	-12.7199	0.635366
0.1633	0.544638	21.086	-36.9177	0.373146	-0.656296	-1.97046	-2.29639	-11.4556	-10.8942	0.635366
0.1640	2.97075	-6.08212	-29.2989	2.20671	2.70722	1.97046	1.97254	-5.03846	-8.14279	0.317683
0.1647	-0.990251	-30.7943	-4.87381	1.8979	2.70722	1.38351	1.66341	32.7876	-7.53422	0.317683
0.1653	-7.08029	-21.9494	27.1701	0.675523	0.53324	-0.754644	-1.07459	10.5281	-10.2771	0.317683
0.1660	-7.67444	-6.38911	45.4702	-0.238041	-1.27157	-2.30586	-3.51818	-58.1553	-6.00852	0.317683
0.1667	-8.02103	7.65542	33.8739	2.20671	0.246111	0.167699	-2.29639	-67.6056	13.5256	0.317683
0.1673	-4.65418	17.4213	-5.78881	5.55859	2.37907	2.8928	0.750741	-53.8689	26.0398	0.317683
0.1680	2.97075	11.0131	-21.3626	6.16977	1.7638	2.59933	2.28166	-38.6282	19.6284	0.317683
0.1687	3.61442	7.65542	2.74502	3.12027	-0.0410185	-0.461171	0.441613	-5.36433	8.33136	0.317683
0.1693	0.841713	1.55411	25.9376	0.070769	-1.59972	-3.52167	-3.51818	-39.5306	0.702851	0.317683
0.1700	-1.88148	-18.2847	45.769	0.984333	0.246111	-1.38351	-2.00198	-117.038	-2.34855	0.317683
0.1707	-3.41637	-21.9494	49.7465	2.20671	2.09194	1.67699	2.28166	-136.59	-5.69995	0.317683
0.1713	0.544638	-9.13278	25.9376	1.8979	1.47667	1.38351	2.28166	-85.0021	-7.53422	0.317683
0.1720	5.74345	0.326171	4.27625	0.373146	-0.369166	-0.754644	-0.780182	-23.6632	-4.78282	0.635366
0.1727	6.33761	8.57637	-11.2975	-1.15161	-1.59972	-3.18627	-3.82731	12.9596	-2.64855	0.95305
0.1733	5.1493	13.4497	-24.1076	0.070769	0.246111	-1.04812	-2.29639	57.2028	3.75425	0.95305
0.1740	2.97075	9.47814	-24.7238	2.50908	2.70722	1.97046	1.66341	91.3941	10.4742	0.635366
0.1747	-1.28733	6.42748	-13.7251	2.50908	2.09194	0.754644	1.97254	73.371	11.0828	0.317683
0.1753	-8.31811	4.60476	9.76629	0.373146	-0.369166	-1.38351	-0.471053	14.4887	7.42279	0.317683
0.1760	-11.0413	-3.95242	20.7464	-2.06517	-2.215	-3.52167	-3.22377	-29.4537	0.702851	0.635366
0.1767	-7.37737	-11.8764	5.49004	-0.849229	-0.656296	-1.38351	-2.00198	-18.4743	-13.0285	0.317683
0.1773	-3.71344	-13.1044	-14.0425	1.28671	2.37907	2.59933	1.35428	4.11098	-25.2341	0.317683
0.1780	1.48538	-10.6677	-18.6176	0.984333	2.09194	2.59933	2.28166	10.2023	-22.4912	0
0.1787	5.74345	-9.74675	9.76629	-0.540418	-0.369166	-0.461171	-0.471053	18.1485	-13.3285	0.317683
0.1793	4.20857	-5.16117	40.8952	-1.76279	-2.50213	-3.52167	-3.82731	3.50937	-3.25711	0.317683
0.1800	2.3766	8.86417	32.3427	0.373146	-0.656296	-2.8928	-3.82731	-28.2505	7.72279	-0.95305
0.1807	3.91149	6.42748	8.85128	4.64502	2.70722	1.09004	-1.69285	-22.1341	12.917	-0.635366
0.1813	5.74345	3.06984	-4.27625	4.34265	2.99435	2.59933	0.132484	-4.43685	10.1656	0.95305
0.1820	2.97075	19.5511	-8.23505	2.50908	0.53324	-0.167699	-1.07459	-9.32491	4.06282	0.635366
0.1827	-1.5844	4.29778	1.53123	-0.540418	-1.27157	-2.30586	-4.44557	1.98029	-1.43142	0.317683
0.1833	-0.990251	-17.9778	6.40504	-13.3625	0.246111	-0.754644	-2.29639	19.3768	-3.56568	0.317683
0.1840	2.3766	-4.2594	-8.85128	-29.2276	2.70722	1.67699	1.66341	24.8664	-6.00852	0.317683
0.1847	2.67368	2.14889	-19.2338	-33.4995	2.70722	1.67699	1.66341	52.6406	-9.05992	0.635366
0.1853	0.247563	-6.38911	-2.44624	-30.7524	0.861388	-0.754644	-0.780182	89.2634	-11.1942	0.317683
0.1860	-2.52514	-6.38911	20.1488	-28.6164	-0.984444	-3.81514	-4.13644	97.4854	-12.4199	0.317683
0.1867	-5.5454	0.326171	22.5764	-22.5174	-0.0410185	-1.67699	-2.60551	75.5267	-9.66849	0.635366
0.1873	-5.84248	0.633155	16.4888	-11.2201	2.09194	1.67699	1.05987	33.0884	-0.514281	0.317683
0.1880	1.13879	-6.38911	7.02127	-2.37398	2.37907	2.59933	1.66341	15.3911	7.42279	0.317683
0.1887	5.74345	-8.21183	-17.4038	6.78096	-0.0410185	0.167699	0.750741	16.3186	8.33136	0.317683
0.1893	1.78245	-1.18956	-43.3414	27.5356	-2.78926	-3.18627	-2.00198	-36.7732	6.80566	0.317683
0.1900	-0.990251	16.1934	-35.7039	47.0678	-0.656296	-1.04812	0.132484	-92.3216	9.55706	0.317683
0.1907	-0.0495125	14.6777	2.44624	41.5736	1.47667	2.59933	4.107	-83.7738	9.55706	0.317683
0.1913	-0.0495125	-11.2625	19.8314	23.8749	1.14852	1.97046	3.19433	-61.5143	4.06282	0.317683
0.1920	-0.346588	-14.0253	5.80749	11.9728	-0.656296	-1.67699	-0.161925	-44.7195	-0.514281	0.635366
0.1927	-1.28733	0.940139	2.44624	5.8674	-2.50213	-4.10862	-3.82731	-23.964	-2.95712	0.317683
0.1933	-2.52514	3.06984	22.8938	5.8674	-0.656296	-1.67699	-1.69285	-47.4768	-1.43142	0.317683
0.1940	-0.990251	1.86109	26.8526	8.00333	1.7638	1.97046	2.28166	-110.946	1.92855	0.317683
0.1947	2.3766	5.50653	-8.55251	8.00333	1.7638	1.97046	2.28166	-122.527	6.19709	0.317683
0.1953	1.48538	0.940139	-41.8102	5.8674	0.246111	-1.04812	0.441613	-57.8545	7.42279	0.317683
0.1960	-0.990251	-5.16117	-30.8301	3.12027	-2.215	-3.81514	-2.60551	2.8827	2.84569	0.317683
0.1967	1.78245	1.86109	-5.49004	4.03384	-0.984444	-1.67699	-1.69285	16.9202	5.27995	0.317683
0.1973	4.50564	4.29778	9.76629	5.8674	2.09194	2.30586	1.66341	21.5075	15.9684	0.317683
0.1980	4.50564	-4.2594	28.0851	4.64502	1.7638	4.10862	2.28166	21.2066	18.1027	0.317683
0.1987	4.80272	2.76286	15.5551	0.984333	-0.656296	2.59933	-1.38372	3.50937	9.24849	0.317683
0.1993	4.80272	12.8358	-12.5113	-0.849229	-2.215	-1.04812	-5.65264	1.65442	3.75425	0.635366
0.2000	3.91149	10.0921	-23.4914	1.28671	-0.369166	0.754644	-3.51818	46.8251	-4.78282	0.635366
0.2007	3.61442	28.703	-50.0452	4.03384	2.70722	3.52167	0.441613	120.372	-19.7398	0.317683
0.2013	1.13879	29.01	-50.6615	4.95383	3.28148	0.754644	1.05987	149.374	-15.4713	0.317683
0.2020	-4.95125	-15.8481	-21.0638	2.20671	0.53324	-2.30586	-1.69285	108.49	-2.95712	0.635366
0.2027	-9.853	-16.155	-20.4476	-0.540418	-2.215	-1.97046	-5.0491	66.0514	-4.17425	0.317683
0.2033	-9.50641	7.65542	-7.93628	0.373146	-0.656296	1.09004	-3.22377	15.3911	-5.09138	0.317683
0.2040	-4.95125	-2.4175	14.6401	1.59552	2.37907	3.81514	1.05987	-68.8339	-0.82285	0.317683
0.2047	1.78245	1.86109	3.66002	1.8979	2.99435	4.10862	1.05987	-104.228	0.402854	0.317683
0.2053	4.50564	16.1934	-9.15006	0.070769	0.246111	1.67699	-1.38372	-68.8339	-2.34855	0.317683
0.2060	0.247563	7.65542	-3.9588	-2.67636	-2.215	-2.30586	-3.51818	-31.2836	-5.39995	0.317683
0.2067	-3.41637	-3.64544	5.80749	-1.46042	-0.656296	-3.18627	-0.161925	-20.3042	-5.69995	0
0.2073	-1.28733	-0.901766	16.1713	1.59552	2.37907	-0.754644	4.107	-13.8871	-3.25711	0.317683
0.2080	2.07953	4.91175	16.1713	1.8979	2.37907	-0.461171	3.48874	-14.213	-1.73141	0.317683
0.2087	0.544638	-5.46815	28.3839	-0.238041	0.246111	-2.8928	-1.07459	-3.83524	-3.56568	0.317683
0.2093	-4.01052	-15.8481	53.7053	-2.37398	-2.215	-4.40209	-4.73997	3.1835	-3.56568	0.635366
0.2100	-6.18907	-5.77514	38.4489	-1.46042	-0.984444	-2.8928	-3.22377	-85.3029	3.45426	-0.635366
0.2107	-4.3571	2.45587	12.8101	1.59552	1.47667	-0.754644	-0.471053	-171.358	7.11422	-1.27073
0.2113	-1.88148	-4.5472	13.4263	1.28671	1.14852	-0.167699	1.66341	-108.49	2.84569	0
0.2120	0.544638	-11.2625	7.6375	-1.76279	-0.984444	-1.67699	0.132484	-18.7752	-2.34855	0.95305
0.2127	1.78245	-10.3607	-5.19126	-3.89873	-2.50213	-3.81514	-3.22377	26.0696	-5.39995	0.317683
0.2133	1.48538	-9.43976	-0.298777	-2.37398	-0.984444	-1.67699	-1.38372	71.2403	-3.56568	0.317683
0.2140	2.07953	-9.13278	9.46751	0.070769	1.47667	1.38351	1.66341	69.1096	0.0942849	0.635366
0.2147	2.97075	-4.85419	6.72249	0.675523	1.47667	1.67699	1.35428	30.6569	1.31999	0.317683
0.2153	2.67368	-3.64544	-1.53123	-1.15161	-0.369166	-1.04812	-0.471053	14.1879	-0.514281	0.317683
0.2160	2.97075	-6.38911	-10.0651	-2.98517	-2.215	-3.52167	-2.91464	11.1297	-2.34855	0.635366
0.2167	2.3766	-6.08212	-11.8951	-1.76279	-0.656296	-1.04812	-0.780182	13.5612	-0.514281	0.635366
0.2173	0.841713	-0.901766	-7.32005	0.675523	2.37907	2.30586	2.57607	18.4493	2.53712	0.635366
0.2180	1.13879	5.81351	-4.87381	0.675523	2.09194	1.67699	2.57607	14.4887	2.22855	0.317683
0.2187	1.78245	7.9624	-2.44624	-1.46042	-0.0410185	-1.38351	0.132484	4.11098	-0.205712	0.317683
0.2193	1.48538	10.3991	-2.44624	-3.28754	-2.215	-3.81514	-1.38372	-2.00536	-2.03998	0.635366
0.2200	1.13879	13.7567	-2.44624	-2.37398	-1.59972	-2.30586	0.132484	3.1835	-1.43142	0
0.2207	-1.28733	11.627	4.87381	0.675523	1.7638	0.167699	2.8852	3.1835	1.31999	-0.635366
0.2213	-3.11929	1.24712	8.85128	0.984333	2.09194	0.754644	2.8852	-2.00536	3.45426	0
0.2220	-1.28733	-14.9271	7.6375	-1.46042	-0.369166	-1.67699	0.750741	14.4887	1.92855	0.635366
0.2227	0.544638	-19.2057	2.44624	-2.98517	-2.215	-4.10862	-2.29639	28.5262	-0.514281	0.317683
0.2233	2.3766	-10.9555	-10.6813	-1.15161	-0.656296	-1.97046	-0.780182	41.6362	0.702851	0
0.2240	5.1493	-3.03147	-20.1488	1.28671	1.7638	1.38351	1.97254	104.805	4.67139	0.317683
0.2247	4.50564	2.45587	-21.3626	1.28671	2.09194	1.67699	0.132484	161.281	5.89709	0.317683
0.2253	-0.346588	3.68381	-23.8088	-1.46042	-0.369166	-0.754644	-4.13644	114.882	2.22855	0.317683
0.2260	-4.3571	0.940139	-30.8301	-3.59635	-2.215	-2.30586	-6.87444	11.1297	-1.12285	0.317683
0.2267	-2.52514	2.45587	-36.6189	-1.46042	-0.984444	-0.167699	-4.13644	-40.4581	0.702851	0.635366
0.2273	2.07953	4.91175	-27.1514	1.59552	1.47667	2.8928	0.132484	-22.1341	3.75425	0.317683
0.2280	3.91149	-0.287798	-11.2975	0.984333	1.47667	2.30586	0.750741	19.3768	3.75425	0.317683
0.2287	1.48538	-2.11052	-11.5963	-1.46042	-1.27157	-0.461171	-1.69285	41.0346	1.01142	0.317683
0.2293	-5.5454	5.81351	3.0438	-2.67636	-2.78926	-3.18627	-5.0491	61.1884	-1.12285	0.635366
0.2300	-10.1501	14.6777	35.4051	-1.76279	-0.656296	-1.04812	-3.51818	109.392	-0.82285	0.635366
0.2307	-7.37737	18.3423	36.3201	0.984333	2.09194	2.30586	0.750741	71.867	-0.82285	0.317683
0.2313	-2.52514	12.8358	21.6614	0.984333	1.47667	1.97046	2.8852	-69.4355	-2.34855	0.635366
0.2320	-1.88148	0.326171	5.49004	-1.76279	-0.984444	-1.38351	1.66341	-128.644	-5.09138	0.635366
0.2327	-4.3571	-5.77514	-18.9163	-2.67636	-2.215	-2.8928	-1.07459	-87.1328	-6.92565	0.317683
0.2333	-4.65418	-1.49655	-27.4689	-0.849229	-0.0410185	-0.167699	-0.161925	-52.039	-4.78282	0.635366
0.2340	-4.3571	-1.18956	-23.1926	0.675523	1.7638	2.59933	1.66341	-13.8871	-2.03998	0.95305
0.2347	-5.24833	-10.0537	-23.1926	0.675523	-2.78926	1.97046	0.441613	37.3748	-0.205712	0.635366
0.2353	-3.71344	-19.2057	-0.616229	-1.15161	-14.7256	-1.97046	-1.38372	44.9952	-0.82285	0.635366
0.2360	0.247563	-12.7974	32.3427	-3.28754	-22.9293	-4.73749	-2.00198	-5.96594	-2.95712	0.635366
0.2367	2.3766	9.78512	16.4888	-1.76279	-22.3551	-1.97046	1.05987	-42.8896	-1.43142	0.317683
0.2373	0.247563	18.0353	-13.4263	1.28671	-18.6634	1.38351	3.48874	-5.96594	2.22855	0.317683
0.2380	0.247563	8.57637	-0.915006	1.8979	-14.7256	1.09004	3.19433	30.3561	3.45426	0.317683
0.2387	3.61442	1.55411	25.3214	0.070769	-11.6493	-2.8928	0.132484	-11.1548	0.702851	0.635366
0.2393	4.20857	-9.43976	42.109	-2.06517	-7.0962	-5.65983	-3.22377	-56.6263	-2.95712	0.635366
0.2400	3.61442	-14.3131	35.0877	-1.15161	1.14852	-3.81514	-2.91464	-34.9433	-2.95712	-0.317683
0.2407	4.50564	-4.85419	6.10627	1.8979	10.9109	1.38351	-0.780182	9.29984	-0.514281	-0.635366
0.2413	4.20857	0.0191865	-9.76629	2.20671	16.7355	4.73749	0.441613	-14.5138	0.702851	0.317683
0.2420	2.3766	0.0191865	-24.4064	-1.15161	16.4074	1.97046	-1.38372	-101.17	-1.73141	0.635366
0.2427	0.247563	-0.287798	-32.6601	-3.28754	15.2179	-1.38351	-4.44557	-132.604	-4.48282	0.317683
0.2433	0.247563	-0.594782	3.36125	-1.46042	17.3508	2.30586	-1.38372	-88.361	-2.03998	0.635366
0.2440	2.67368	-1.49655	30.2139	0.675523	16.7355	4.44401	2.28166	-43.1904	0.702851	0.95305
0.2447	4.20857	-5.16117	7.6375	0.373146	12.7568	1.97046	1.97254	-7.79582	0.0942849	0.317683
0.2453	4.20857	-7.31006	-8.23505	-1.46042	7.26027	-0.461171	-0.780182	13.862	-2.34855	0.317683
0.2460	3.61442	-4.85419	3.66002	-3.59635	0.246111	-3.18627	-2.60551	16.0178	-4.78282	0.635366
0.2467	1.48538	5.21873	0.915006	-2.37398	-1.27157	-2.8928	-0.161925	23.9389	-3.87425	0.635366
0.2473	-1.28733	22.9087	-21.3626	0.070769	-0.0410185	-0.167699	3.79787	11.7313	-1.43142	0.317683
0.2480	-0.990251	23.8296	-29.2989	0.070769	0.246111	0.167699	3.79787	-5.03846	-1.73141	0.635366
0.2487	-1.5844	-6.38911	-35.0877	-1.46042	1.14852	-1.67699	-0.161925	13.5612	-3.56568	0.635366
0.2493	-6.18907	-8.82579	-51.8752	-2.67636	2.09194	-2.8928	-4.13644	16.3186	-4.48282	0.317683
0.2500	-9.20933	13.7567	-47.3002	-1.46042	3.28148	0.167699	-2.00198	4.71259	-2.03998	0.317683
0.2507	-6.18907	-10.6677	-19.2338	0.984333	4.51203	4.44401	1.35428	18.7501	1.92855	0.635366
0.2513	1.13879	-28.6646	10.6813	1.28671	4.84018	4.10862	0.132484	19.9784	2.84569	0.635366
0.2520	5.44638	-6.69609	37.8327	-0.540418	2.09194	0.754644	-3.51818	13.2604	1.01142	0.635366
0.2527	3.91149	-4.2594	37.5339	-1.76279	-0.656296	-1.67699	-5.0491	30.3561	-0.514281	0.635366
0.2533	4.50564	-16.769	22.2776	-0.238041	0.246111	0.167699	-2.29639	-4.13605	1.31999	0.635366
0.2540	5.1493	-7.90484	32.3427	1.8979	2.09194	2.59933	1.05987	-65.7757	3.75425	0.635366
0.2547	-1.5844	2.76286	47.0014	1.8979	1.47667	2.30586	2.28166	-22.4349	3.14569	0.317683
0.2553	-5.84248	-7.90484	34.4901	0.070769	-1.27157	-1.04812	-0.471053	41.6362	0.402854	0.317683
0.2560	-1.5844	-12.1834	15.2563	-2.06517	-3.40454	-4.10862	-3.51818	-12.0572	-2.03998	0.635366
0.2567	2.67368	8.57637	11.8951	-0.238041	-1.27157	-1.38351	-0.780182	-90.1909	0.0942849	0.635366
0.2573	2.67368	23.5227	12.8101	2.20671	1.14852	2.30586	1.97254	-67.9064	2.53712	0.317683
0.2580	2.07953	20.472	9.46751	2.50908	1.14852	1.97046	1.05987	-5.03846	2.22855	0.317683
0.2587	1.78245	5.21873	0.915006	0.373146	-0.984444	-0.461171	-1.07459	30.3561	0.0942849	0.317683
0.2593	2.67368	-14.9271	-3.36125	-2.37398	-3.11741	-2.8928	-3.82731	44.9952	-2.34855	0.317683
0.2600	2.67368	-15.8481	1.53123	-0.849229	-1.59972	-1.04812	-1.69285	38.2772	-0.82285	0.635366
0.2607	0.841713	2.45587	0.298777	1.59552	1.14852	1.97046	2.28166	23.0365	1.92855	0.95305
0.2613	-1.28733	10.7061	-8.55251	1.28671	1.14852	2.30586	1.97254	10.2023	1.92855	0.635366
0.2620	-2.82221	0.940139	-11.5963	-0.540418	-1.59972	-0.754644	-0.780182	6.54248	-0.205712	0.317683
0.2627	-4.65418	-6.38911	4.57503	-1.76279	-3.40454	-3.52167	-3.22377	2.8827	-2.34855	0.317683
0.2633	-5.84248	-4.2594	25.6388	-1.15161	-0.984444	-0.754644	-1.38372	-18.4743	-0.205712	0.635366
0.2640	-1.28733	1.55411	21.6614	1.28671	1.47667	2.59933	1.66341	-40.4581	2.53712	0.635366
0.2647	4.20857	6.73446	6.10627	1.8979	0.861388	2.59933	2.57607	-34.3417	2.22855	0.635366
0.2653	4.80272	4.60476	-0.915006	-0.540418	-1.27157	-0.461171	-0.471053	-16.6445	-0.514281	0.317683
0.2660	3.31734	-3.03147	-3.0438	-2.37398	-2.78926	-2.8928	-4.44557	-6.26674	-2.95712	0.317683
0.2667	2.3766	-9.74675	-1.53123	-0.540418	-0.656296	-0.167699	-1.07459	21.8083	-0.205712	0.635366
0.2673	0.544638	-9.43976	1.83001	2.50908	1.7638	2.8928	4.107	52.0139	3.45426	0.635366
0.2680	0.247563	-2.72448	3.0438	2.20671	0.53324	1.67699	2.8852	43.1653	1.61999	0.317683
0.2687	-0.0495125	0.633155	-0.616229	-0.540418	-2.50213	-1.04812	-0.161925	13.5612	-1.43142	0
0.2693	-0.990251	0.326171	-4.87381	-2.67636	-4.01981	-2.30586	-2.60551	-14.213	-2.64855	0.635366
0.2700	-0.990251	2.76286	-3.36125	-0.849229	-1.59972	-0.461171	-1.38372	-42.5888	-1.43142	0
0.2707	-2.17855	2.14889	0.298777	2.50908	0.246111	1.09004	-0.161925	-48.9808	0.402854	-1.27073
0.2713	-1.88148	2.45587	-0.298777	3.12027	0.53324	0.461171	0.132484	-26.4206	1.61999	-0.635366
0.2720	-0.346588	6.73446	-3.9588	0.675523	-1.27157	-1.67699	-0.780182	-6.56754	0.0942849	0.95305
0.2727	0.544638	3.68381	-7.32005	-1.76279	-3.73268	-3.52167	-3.51818	3.1835	-2.34855	0.317683
0.2733	1.13879	-2.4175	-11.2975	-0.238041	-1.59972	-1.04812	-2.00198	15.3911	-1.12285	0.317683
0.2740	1.13879	-2.72448	-19.2338	1.8979	1.14852	1.97046	2.28166	20.58	1.31999	0.635366
0.2747	-0.346588	1.24712	-32.3427	1.28671	0.53324	1.38351	3.19433	21.5075	1.31999	0.635366
0.2753	-2.17855	7.65542	-34.1727	-1.46042	-1.88685	-1.97046	0.132484	26.9971	-1.43142	0.635366
0.2760	-2.82221	9.47814	-3.9588	-2.98517	-3.11741	-4.10862	-3.51818	13.2604	-3.25711	0.635366
0.2767	-1.88148	3.99079	29.5976	-1.46042	-0.984444	-1.67699	-1.07459	-14.5138	-1.73141	0.635366
0.2773	-0.346588	0.940139	29.0001	0.675523	0.246111	1.38351	1.97254	-19.4018	0.702851	0.317683
0.2780	1.78245	5.50653	14.0425	0.373146	-0.369166	1.09004	1.66341	-6.26674	1.31999	0.317683
0.2787	2.07953	10.0921	2.44624	-1.15161	-1.88685	-3.18627	-1.38372	2.5819	-0.514281	0.635366
0.2793	1.48538	0.0191865	-10.0651	-1.46042	-2.78926	-5.32443	-3.82731	7.77076	-1.43142	0.635366
0.2800	3.91149	-11.8764	-22.8938	0.984333	-0.984444	-1.97046	-0.780182	11.1297	1.01142	0.317683
0.2807	3.91149	-3.03147	-36.6189	2.50908	1.47667	1.67699	2.28166	15.0903	3.14569	0.635366
0.2813	-2.52514	12.5288	-47.599	1.59552	2.09194	2.8928	1.35428	18.1485	3.45426	0.635366
0.2820	-6.48614	22.9087	-38.7664	-0.238041	-0.656296	1.09004	-1.07459	15.0903	0.702851	0.635366
0.2827	-5.5454	25.9593	-17.4038	-1.76279	-3.11741	-1.67699	-3.51818	32.4868	-1.43142	0.317683
0.2833	-7.08029	26.8803	-18.9163	-0.540418	-1.27157	0.461171	-2.00198	72.4686	0.0942849	0.317683
0.2840	-10.7442	28.703	1.83001	1.8979	1.47667	3.52167	1.97254	93.224	2.84569	0.635366
0.2847	-8.31811	9.47814	59.8115	2.20671	1.14852	3.52167	2.28166	100.243	2.53712	0.635366
0.2853	-1.5844	-25	57.6827	-0.540418	-0.984444	0.167699	-1.07459	59.3335	-1.43142	0.317683
0.2860	-0.346588	-30.7943	5.19126	-2.06517	-2.78926	-1.97046	-2.60551	-46.2485	-3.56568	0.317683
0.2867	-4.01052	-11.5695	-21.0638	-0.540418	-0.984444	0.461171	-0.161925	-30.9828	-1.43142	0.635366
0.2873	-5.84248	-10.6677	-7.6375	0.675523	1.7638	2.59933	0.441613	92.9232	0.702851	0.635366
0.2880	-1.88148	-14.9271	16.4888	0.675523	1.47667	2.59933	-0.161925	19.6776	1.01142	0.317683
0.2887	4.20857	-13.1044	16.1713	-0.540418	-1.27157	0.167699	-0.780182	-127.716	-0.514281	0.317683
0.2893	8.46665	-18.8987	4.27625	-2.06517	-3.11741	-2.30586	-3.22377	-106.986	-2.03998	0.635366
0.2900	8.76372	-10.3607	7.93628	-0.540418	-1.27157	-0.461171	-1.38372	-44.7195	1.61999	0.635366
0.2907	1.48538	7.9624	14.6401	1.8979	1.14852	2.59933	2.8852	-13.2855	6.80566	0.317683
0.2913	-5.84248	1.86109	8.23505	2.20671	0.861388	2.59933	2.8852	-13.8871	5.58852	0.317683
0.2920	-7.37737	-18.8987	-3.36125	-0.238041	-1.27157	-0.754644	-1.69285	-34.3417	-0.514281	0.635366
0.2927	-5.5454	-17.076	-18.3188	-2.37398	-3.11741	-3.18627	-4.73997	-33.1135	-4.78282	0.635366
0.2933	-2.52514	-1.49655	-15.8726	-0.540418	-1.59972	-0.167699	-2.29639	-29.4537	-1.73141	0.317683
0.2940	1.13879	-0.594782	17.7026	1.28671	1.14852	2.59933	1.35428	-24.2648	1.92855	0.317683
0.2947	6.93176	-5.77514	31.1289	1.59552	0.861388	1.67699	1.35428	-14.5138	1.92855	0.635366
0.2953	11.2393	-7.90484	17.0863	0.373146	-1.59972	-0.461171	-1.38372	-31.6094	-0.514281	0.95305
0.2960	9.40738	-7.90484	14.6401	-1.46042	-3.40454	-2.8928	-3.51818	-66.7032	-2.64855	0.635366
0.2967	5.1493	-1.18956	5.19126	-0.849229	-1.59972	-0.754644	-2.29639	-61.5143	-0.82285	0.317683
0.2973	0.544638	7.65542	-23.4914	0.984333	1.47667	2.30586	-1.07459	-21.5325	2.53712	0.317683
0.2980	0.247563	10.0921	-34.4901	0.984333	1.14852	2.30586	0.441613	25.468	2.22855	0.317683
0.2987	2.97075	0.0191865	-30.5127	-0.540418	-1.59972	-0.461171	-0.471053	89.2634	-1.12285	0.317683
0.2993	2.07953	-12.1834	-11.8951	-2.37398	-3.40454	-3.81514	-3.51818	100.243	-2.64855	0.317683
0.3000	1.13879	-7.31006	14.0425	-0.540418	-1.27157	-2.59933	-1.69285	36.4474	-1.43142	-0.635366
0.3007	4.80272	7.65542	0.616229	2.50908	1.7638	1.09004	1.35428	1.98029	1.01142	-0.635366
0.3013	4.50564	13.4497	-17.4038	2.20671	1.7638	2.59933	3.19433	2.28109	1.92855	0.635366
0.3020	-2.52514	3.68381	-9.46751	-0.849229	-1.27157	0.167699	1.66341	9.29984	-0.514281	0.635366
0.3027	-5.84248	-6.38911	-10.9801	-2.67636	-3.11741	-2.59933	-2.00198	55.0721	-2.95712	0.317683
0.3033	-6.48614	-5.46815	-3.66002	-0.540418	-0.984444	0.461171	0.132484	101.145	-0.514281	0.635366
0.3040	-5.84248	-5.46815	25.0226	1.59552	1.14852	3.81514	4.107	132.88	2.22855	0.635366
0.3047	-0.0495125	-1.49655	24.1076	0.984333	0.861388	3.2282	3.48874	153.961	1.92855	0.317683
0.3053	6.04053	3.99079	-0.298777	-0.849229	-1.27157	-0.167699	-0.780182	44.3936	-0.514281	0.317683
0.3060	4.80272	0.0191865	-7.32005	-2.37398	-2.78926	-1.67699	-4.13644	-127.115	-2.64855	0.317683
0.3067	1.78245	0.940139	-6.40504	-0.238041	-0.984444	1.97046	-1.69285	-197.929	-0.514281	0
0.3073	1.13879	16.8074	-5.19126	1.8979	1.47667	4.10862	1.66341	-197.929	1.92855	0.317683
0.3080	0.841713	18.6301	-3.9588	1.59552	1.14852	2.59933	0.441613	-125.886	1.31999	0.317683
0.3087	0.544638	-13.1044	-7.32005	-0.540418	-1.27157	-1.04812	-3.22377	-11.7564	-1.12285	0.317683
0.3093	-0.0495125	-26.8419	-0.616229	-1.76279	-3.11741	-5.32443	-5.35823	37.074	-2.34855	0.635366
0.3100	-0.0495125	-3.03147	12.2125	0.070769	-0.984444	-4.73749	-2.00198	22.7357	-0.205712	0.635366
0.3107	1.13879	18.9371	13.1275	1.8979	1.14852	-0.754644	1.66341	22.7357	1.92855	0
0.3113	1.13879	22.9087	8.55251	1.8979	0.53324	0.754644	1.05987	41.3354	1.92855	0
0.3120	0.841713	5.50653	7.32005	-0.540418	-1.27157	-1.38351	-2.00198	40.433	-0.514281	0.317683
0.3127	0.247563	-13.4114	7.6375	-2.67636	-2.78926	-3.18627	-2.91464	30.3561	-2.64855	0.317683
0.3133	0.544638	-13.7184	7.32005	-0.540418	-0.984444	-0.754644	3.19433	10.2023	-0.82285	0
0.3140	-0.0495125	-10.6677	0	1.8979	1.14852	1.97046	8.06679	-8.69823	1.92855	0.317683
0.3147	-2.17855	-10.0537	-6.10627	1.28671	1.14852	1.97046	5.93233	-1.07788	1.92855	0.635366
0.3153	-2.17855	-6.69609	-5.19126	-0.849229	-0.984444	-1.67699	1.35428	7.77076	-0.205712	0.317683
0.3160	-2.17855	-2.72448	-4.27625	-1.76279	-2.78926	-5.03096	-1.69285	7.16915	-2.34855	0.317683
0.3167	-1.88148	0.940139	-2.44624	0.070769	-0.656296	-1.38351	-0.471053	15.3911	-0.82285	0.635366
0.3173	0.544638	8.57637	-1.21378	1.8979	1.7638	2.59933	2.8852	18.7501	2.22855	0.317683
0.3180	2.67368	10.7061	6.10627	1.28671	1.47667	1.38351	2.57607	9.60065	1.61999	0.317683
0.3187	2.67368	-2.11052	15.2563	-0.849229	-0.984444	-1.38351	-1.07459	9.90145	-0.82285	0
0.3193	3.91149	-10.0537	2.44624	-2.06517	-3.11741	-3.18627	-3.51818	35.2441	-2.64855	0.317683
0.3200	5.74345	-3.03147	-16.4701	-0.238041	-0.656296	-0.754644	-0.471053	56.3004	-0.514281	0.635366
0.3207	6.04053	4.60476	-19.2338	2.20671	2.37907	2.30586	3.48874	23.9389	2.53712	0.635366
0.3213	3.61442	3.37683	-19.2338	1.8979	2.09194	2.30586	2.57607	-29.7545	1.92855	0.635366
0.3220	-3.11929	-2.11052	-19.2338	-0.540418	-1.27157	-0.461171	-1.07459	-30.9828	-0.205712	0.635366
0.3227	-7.37737	-3.33845	2.44624	-1.76279	-2.78926	-1.97046	-3.82731	24.5656	-1.73141	0.635366
0.3233	-4.3571	-1.80353	26.8526	-0.238041	-0.656296	0.754644	-1.38372	84.6762	0.0942849	0.95305
0.3240	0.544638	-0.287798	13.1275	0.984333	1.14852	2.59933	0.441613	79.4873	1.61999	0.317683
0.3247	1.78245	0.940139	-7.6375	1.28671	1.14852	1.38351	-1.07459	8.99904	0.702851	-0.635366
0.3253	1.13879	0.326171	-8.85128	0.373146	-0.369166	-0.461171	-2.60551	-44.1178	-0.514281	0.317683
0.3260	0.841713	1.24712	-1.83001	-2.06517	-2.215	-1.38351	-4.13644	-37.7007	-1.73141	0.95305
0.3267	-0.0495125	5.81351	15.5551	-0.540418	-0.369166	1.09004	-1.69285	7.46995	-0.205712	0.317683
0.3273	0.247563	5.81351	24.7238	0.984333	1.7638	3.52167	2.28166	35.5449	2.22855	0.317683
0.3280	0.544638	2.14889	13.1275	1.28671	1.47667	3.2282	1.97254	6.54248	1.92855	0.317683
0.3287	-0.346588	-1.18956	-1.21378	0.070769	-0.656296	0.461171	-1.69285	-44.4187	-0.205712	0.635366
0.3293	-0.990251	-4.2594	-10.9801	-2.06517	-2.78926	-3.18627	-3.22377	-67.004	-2.34855	0.635366
0.3300	0.544638	-0.287798	-12.5113	-1.15161	-1.27157	-4.10862	0.441613	-63.9458	-1.73141	-0.317683
0.3307	0.544638	6.42748	-6.40504	2.20671	1.14852	-2.59933	3.79787	-56.6263	0.702851	-0.95305
0.3313	-1.5844	5.50653	-3.9588	2.20671	1.47667	-0.167699	3.48874	-34.9433	1.61999	0.317683
0.3320	-2.52514	-2.4175	-6.10627	-0.238041	-0.984444	-1.38351	0.441613	-7.49502	-0.514281	0.635366
0.3327	-0.693176	-6.08212	0.616229	-2.37398	-3.11741	-3.52167	-2.91464	-7.79582	-2.64855	0.317683
0.3333	1.78245	-2.11052	0.616229	0.070769	-1.27157	-0.754644	-0.780182	-18.1735	-0.82285	0.317683
0.3340	1.78245	2.14889	-14.9575	2.20671	1.7638	2.30586	1.97254	-13.2855	2.22855	0.317683
0.3347	-0.0495125	0.940139	-9.46751	1.59552	1.7638	1.38351	1.05987	-5.36433	2.22855	0.635366
0.3353	-0.346588	-0.594782	2.12879	-0.540418	-0.656296	-1.97046	-1.38372	-2.30616	-0.205712	0.635366
0.3360	0.544638	1.86109	-6.10627	-2.37398	-2.215	-3.81514	-3.82731	0.451205	-2.64855	0.317683
0.3367	0.544638	14.6777	-15.2563	-0.540418	0.53324	-0.461171	-2.60551	5.33926	-0.514281	0.317683
0.3373	0.544638	31.7537	-24.7238	2.20671	2.70722	2.30586	0.132484	11.1297	2.53712	0.635366
0.3380	1.48538	26.2663	-19.2338	1.59552	1.7638	1.97046	1.05987	31.2585	2.22855	0.635366
0.3387	1.78245	-5.46815	-2.74502	-0.849229	-0.656296	-1.67699	-0.780182	48.655	-0.82285	0.317683
0.3393	-0.346588	-25.614	3.9588	-2.67636	-2.50213	-5.32443	-3.51818	27.5987	-2.95712	0.317683
0.3400	-1.88148	-13.4114	12.2125	-0.849229	-0.656296	-2.59933	-0.780182	-13.2855	-0.514281	0.635366
0.3407	-0.693176	1.86109	5.80749	1.28671	1.7638	0.754644	3.19433	-69.7363	1.92855	0.635366
0.3413	-1.88148	2.14889	-23.4914	0.675523	1.14852	0.461171	2.57607	-97.8113	1.01142	0.317683
0.3420	-6.18907	-10.0537	-55.8527	-1.15161	-1.88685	-2.30586	-0.780182	-25.7939	-1.12285	0.317683
0.3427	-8.61518	-17.6708	-76.3003	-1.76279	-2.215	-3.18627	-2.91464	60.8626	-2.03998	0.317683
0.3433	-8.02103	-5.46815	-81.7903	0.070769	-0.0410185	-0.461171	-0.161925	108.791	-0.205712	0.317683
0.3440	-8.61518	4.91175	-75.0678	1.59552	2.09194	2.30586	2.57607	143.884	2.22855	0.635366
0.3447	-10.1501	-3.03147	-35.4051	1.8979	2.09194	2.8928	2.28166	103.602	1.92855	0.635366
0.3453	-6.18907	-7.59786	25.0226	-0.540418	-0.656296	0.167699	-0.471053	39.2047	-1.12285	0.317683
0.3460	1.48538	-2.11052	64.3866	-2.06517	-2.78926	-1.67699	-2.91464	46.5243	-2.64855	0.635366
0.3467	6.93176	-5.77514	104.684	0.070769	-1.59972	1.09004	-0.780182	69.4104	-0.514281	0.635366
0.3473	8.16957	-13.1044	116.878	2.20671	0.53324	3.52167	2.57607	26.3955	1.61999	0.317683
0.3480	8.46665	-13.4114	67.1316	1.8979	1.14852	2.30586	2.57607	-94.1515	1.31999	0.317683
0.3487	7.87249	-10.3607	28.3839	-0.238041	-0.984444	-0.754644	-0.780182	-167.397	-0.514281	0.635366
0.3493	6.33761	-7.31006	20.7464	-1.76279	-2.215	-3.18627	-3.82731	-95.6806	-2.64855	0.317683
0.3500	3.61442	-0.287798	14.0425	0.070769	-0.0410185	-0.461171	-1.69285	-23.6632	-0.82285	0.317683
0.3507	-1.88148	12.2218	8.23505	1.8979	2.09194	2.8928	1.97254	-57.8545	1.92855	0.635366
0.3513	-4.01052	12.5288	7.32005	1.28671	0.861388	1.97046	1.35428	-86.8319	1.61999	0.635366
0.3520	-0.990251	-7.00308	7.32005	-0.849229	-1.59972	-1.38351	-2.00198	-48.68	-1.12285	0.317683
0.3527	0.841713	-17.6708	0.915006	-2.37398	-2.78926	-2.59933	-3.82731	10.8289	-2.64855	0.635366
0.3533	2.07953	-8.82579	3.36125	-1.15161	-1.27157	1.09004	-1.38372	63.0183	-0.82285	0.635366
0.3540	3.91149	-2.4175	32.3427	0.675523	0.53324	4.10862	1.66341	80.7156	1.61999	0.317683
0.3547	3.31734	-3.95242	45.1714	1.28671	0.53324	3.2282	1.35428	34.9433	2.22855	0.317683
0.3553	1.78245	-2.11052	15.5551	-0.540418	-1.59972	-0.167699	-1.07459	-52.3398	0.0942849	0.317683
0.3560	-0.693176	0.940139	-9.15006	-2.37398	-3.11741	-1.97046	-3.22377	-90.1909	-2.34855	0.635366
0.3567	-2.52514	3.99079	-6.72249	0.070769	-0.656296	0.461171	-1.07459	-55.6988	-0.205712	0.317683
0.3573	-1.88148	9.78512	-7.02127	1.59552	1.47667	1.97046	0.750741	-22.1341	1.92855	0
0.3580	-1.28733	8.26939	-12.5113	0.675523	1.14852	0.461171	-0.780182	2.5819	1.31999	0.317683
0.3587	-0.346588	4.60476	-7.02127	-0.238041	-1.27157	-1.67699	-2.29639	27.5987	-0.514281	0.95305
0.3593	1.13879	6.73446	-3.36125	-2.06517	-3.40454	-3.81514	-4.44557	28.5262	-2.64855	0.317683
0.3600	2.67368	4.60476	-6.10627	-0.849229	-1.27157	-2.8928	-4.73997	26.0696	-2.03998	-1.27073
0.3607	4.80272	0.326171	-4.27625	1.8979	1.47667	-0.461171	-2.60551	48.655	0.402854	-0.635366
0.3613	6.04053	0.326171	-2.12879	1.8979	1.47667	0.461171	-0.471053	81.9188	1.61999	0.635366
0.3620	4.80272	-2.4175	1.21378	0.070769	-0.656296	-1.67699	-2.29639	85.9045	-0.205712	0.317683
0.3627	1.78245	-6.38911	8.55251	-2.06517	-2.78926	-4.10862	-5.0491	12.6588	-2.03998	0.317683
0.3633	-1.28733	-3.03147	9.76629	-0.849229	-0.984444	-0.754644	-3.51818	-80.7407	0.0942849	0.635366
0.3640	-3.11929	3.37683	3.66002	0.675523	1.7638	3.2282	-2.29639	-97.2097	2.22855	0.317683
0.3647	-1.88148	7.65542	0.298777	0.675523	1.14852	3.81514	-1.69285	-64.5474	1.61999	0
0.3653	-0.0495125	9.47814	-2.44624	-1.15161	-0.984444	1.09004	-3.22377	-38.0015	-1.12285	0.317683
0.3660	-0.0495125	5.21873	-7.02127	-2.98517	-2.50213	-1.04812	-6.58003	-20.9058	-3.25711	0
0.3667	-0.0495125	-3.64544	-5.78881	-0.849229	0.246111	1.97046	-2.29639	-6.56754	-1.43142	0.317683
0.3673	-0.0495125	-6.38911	-3.66002	0.984333	2.99435	5.03096	3.79787	-0.777076	2.22855	0.317683
0.3680	0.841713	-1.49655	-8.55251	0.675523	2.37907	2.59933	4.107	-4.73766	2.53712	0.317683
0.3687	1.13879	1.55411	-12.2125	-1.76279	-0.0410185	-3.52167	2.8852	-8.39743	-0.82285	0.317683
0.3693	0.841713	2.76286	-9.46751	-3.28754	-1.88685	-7.16912	2.8852	-7.49502	-3.56568	0.317683
0.3700	0.841713	2.14889	-1.21378	-0.849229	0.246111	-3.52167	5.32879	-4.73766	-1.12285	0.317683
0.3707	-0.0495125	2.76286	7.02127	1.59552	2.37907	1.09004	7.15412	0.150402	1.61999	0.635366
0.3713	-0.693176	15.5794	-2.44624	1.59552	2.09194	1.97046	5.32879	8.69823	1.92855	0.635366
0.3720	0.544638	15.2725	-17.7026	-0.238041	-0.369166	0.167699	0.132484	22.1091	-0.205712	0.635366
0.3727	1.48538	-10.6677	-10.3825	-2.06517	-1.88685	-0.754644	-4.44557	49.8832	-2.34855	0.317683
0.3733	2.97075	-17.076	0.298777	-0.540418	0.246111	0.754644	-1.38372	77.6574	-0.514281	0.317683
0.3740	2.97075	-4.85419	-7.6375	1.59552	2.09194	3.52167	2.8852	68.508	1.92855	0.317683
0.3747	-1.88148	3.37683	-18.3188	1.8979	0.861388	4.73749	2.28166	21.8083	1.31999	0.317683
0.3753	-6.18907	10.7061	-16.7876	-0.238041	-1.59972	1.67699	-1.38372	-25.1923	-0.82285	0.317683
0.3760	-5.24833	6.73446	-12.5113	-1.46042	-3.40454	-0.461171	-2.91464	-21.2317	-1.73141	0.317683
0.3767	0.841713	-5.77514	-27.7676	0.675523	-1.59972	2.59933	-0.471053	14.4887	1.01142	0.635366
0.3773	5.74345	-11.8764	-54.0227	1.8979	0.246111	3.52167	0.132484	23.6381	2.84569	0.635366
0.3780	4.50564	-6.69609	-61.044	1.28671	-0.656296	1.09004	0.750741	10.5281	2.22855	0.635366
0.3787	-0.0495125	12.2218	-55.8527	-0.238041	-2.215	-1.97046	1.35428	-33.1135	0.402854	0.95305
0.3793	-4.65418	39.0829	-53.4065	-1.76279	-2.50213	-3.81514	-0.471053	-112.475	-1.73141	0.635366
0.3800	-11.3384	34.8043	-41.5114	-0.540418	-0.984444	-1.38351	0.441613	-127.115	-0.205712	0.635366
0.3807	-13.814	-12.7974	-18.0013	1.59552	0.861388	1.67699	1.35428	-27.6238	2.53712	0.635366
0.3813	-6.48614	-38.7376	11.8951	1.59552	0.861388	1.67699	0.750741	52.6406	1.61999	0.317683
0.3820	0.544638	-29.2786	54.3215	-0.849229	-2.50213	-1.67699	-0.780182	64.5224	-1.12285	0.317683
0.3827	1.13879	-22.8703	83.0041	-2.37398	-3.11741	-3.81514	-2.91464	85.5786	-2.64855	0.635366
0.3833	-0.693176	-10.9555	54.0227	0.373146	-0.369166	-0.754644	-0.161925	73.0702	-0.205712	0.635366
0.3840	-0.0495125	-4.5472	17.4038	1.8979	0.53324	1.67699	3.48874	27.2979	1.92855	0.635366
0.3847	3.31734	-9.43976	34.4901	1.28671	0.246111	1.38351	2.8852	11.7313	1.31999	0.635366
0.3853	6.04053	-8.21183	42.4264	-0.540418	-1.27157	-1.38351	-0.780182	5.33926	-0.514281	0.317683
0.3860	5.44638	-1.18956	6.40504	-2.06517	-2.50213	-2.8928	-3.51818	23.6381	-1.73141	0.635366
0.3867	3.31734	7.65542	-7.6375	0.070769	-0.0410185	-0.461171	-0.471053	14.1879	-0.205712	0.317683
0.3873	1.78245	6.1205	12.2125	1.8979	1.7638	1.38351	1.66341	-63.645	1.92855	0.635366
0.3880	0.841713	-7.59786	21.6614	1.28671	1.14852	1.09004	0.441613	-95.079	1.61999	0.635366
0.3887	0.841713	-11.8764	10.6813	-0.540418	-1.27157	-1.38351	-1.07459	-61.5143	-0.82285	0.635366
0.3893	2.07953	-1.18956	-1.53123	-1.76279	-2.78926	-3.52167	-2.91464	-31.9102	-2.64855	0.635366
0.3900	3.61442	6.1205	-5.49004	-0.540418	-0.984444	-1.67699	-0.471053	-12.9847	-0.514281	0.95305
0.3907	3.61442	6.1205	-4.87381	1.28671	1.47667	1.38351	3.79787	-0.175469	1.92855	0.635366
0.3913	2.97075	8.86417	0.298777	1.28671	0.53324	1.67699	3.79787	6.54248	1.01142	0.635366
0.3920	0.544638	1.55411	7.6375	-1.46042	-2.50213	-1.67699	-0.780182	8.99904	-1.43142	0.635366
0.3927	-2.52514	-9.13278	7.32005	-2.37398	-3.73268	-5.03096	-5.96177	-3.83524	-2.95712	-0.95305
0.3933	-2.17855	-4.2594	-2.12879	0.984333	-0.369166	-1.97046	-4.13644	-11.1548	-1.43142	-0.95305
0.3940	-0.346588	2.45587	-10.9801	2.81789	1.7638	1.67699	1.05987	15.3911	1.01142	0.317683
0.3947	0.841713	3.06984	-11.8951	1.59552	0.861388	1.38351	2.28166	41.6362	1.61999	0.95305
0.3953	0.841713	4.60476	-11.2975	-0.238041	-1.27157	-1.38351	-0.780182	21.8083	-0.205712	0.635366
0.3960	1.13879	5.21873	-10.9801	-1.46042	-2.50213	-3.18627	-3.22377	-8.09663	-2.34855	0.635366
0.3967	2.3766	5.21873	-3.66002	0.373146	-0.369166	-1.04812	-1.07459	-8.39743	-0.82285	0.317683
0.3973	3.31734	7.34843	1.21378	1.8979	2.37907	2.30586	1.35428	-8.09663	1.92855	0.635366
0.3980	3.61442	5.50653	7.02127	1.59552	1.47667	2.30586	0.750741	-4.73766	1.61999	0.635366
0.3987	2.67368	-2.4175	18.0013	-0.238041	-1.27157	-1.38351	-2.60551	7.77076	-1.43142	0.635366
0.3993	1.48538	-4.5472	17.0863	-1.15161	-2.215	-3.18627	-4.73997	0.752009	-2.95712	0.635366
0.4000	0.841713	1.55411	8.85128	0.675523	0.246111	0.167699	-1.38372	-7.79582	-0.514281	0.317683
0.4007	0.544638	5.21873	4.27625	2.20671	2.09194	2.30586	3.19433	5.01339	1.92855	0.635366
0.4013	0.841713	5.21873	2.12879	1.59552	1.47667	1.38351	3.79787	21.8083	1.01142	0.95305
0.4020	0.544638	2.14889	0	0.373146	-0.984444	-1.67699	0.750741	8.99904	-2.03998	0.635366
0.4027	-0.346588	-2.72448	-1.83001	-1.46042	-2.78926	-3.18627	-1.07459	-20.605	-3.25711	0.317683
0.4033	-0.693176	-2.4175	-0.298777	-0.238041	-0.984444	-0.167699	0.750741	-17.2461	-1.12285	0.317683
0.4040	-0.990251	0.326171	1.83001	2.50908	1.47667	3.2282	1.66341	-2.90777	1.92855	0.635366
0.4047	-0.990251	-0.287798	1.21378	1.8979	2.09194	2.8928	0.750741	-3.50937	2.22855	0.635366
0.4053	0.247563	-4.5472	-1.83001	-0.849229	-0.656296	-0.754644	-2.91464	1.35362	-0.82285	0.635366
0.4060	0.544638	-5.16117	-3.9588	-1.46042	-2.215	-2.30586	-5.65264	9.29984	-2.95712	0.635366
0.4067	0.247563	2.14889	-2.74502	0.373146	0.246111	0.461171	-3.51818	11.1297	-0.514281	0.635366
0.4073	-0.346588	8.57637	-1.21378	1.59552	2.09194	2.59933	-1.07459	5.94087	1.92855	0.95305
0.4080	0.247563	7.9624	-1.53123	1.8979	1.7638	2.30586	-0.161925	1.05281	1.31999	0.635366
0.4087	0.247563	0.633155	-3.0438	-0.238041	-0.984444	-1.67699	-2.60551	0.451205	-1.12285	0.635366
0.4093	-0.693176	-4.85419	-3.36125	-2.37398	-2.78926	-3.52167	-5.35823	1.35362	-2.95712	0.635366
0.4100	-0.0495125	-2.11052	-1.21378	-0.238041	-0.984444	-0.167699	-2.29639	6.84328	-1.12285	0.317683
0.4107	-0.346588	1.55411	-0.298777	1.8979	1.14852	2.59933	1.35428	10.8289	1.31999	0.317683
0.4113	-1.88148	1.24712	-0.915006	1.28671	0.861388	1.97046	0.750741	7.77076	1.31999	0.317683
0.4120	-2.17855	0.633155	-3.9588	-1.15161	-0.984444	-1.67699	-2.29639	-0.175469	-1.43142	0.635366
0.4127	-2.52514	0.940139	-7.6375	-2.37398	-2.215	-3.81514	-2.60551	-4.73766	-2.95712	0.635366
0.4133	-1.28733	3.37683	-7.32005	0.070769	-0.0410185	-1.04812	2.28166	-0.476272	-1.12285	0.635366
0.4140	-0.0495125	7.04145	-6.72249	1.28671	1.7638	1.09004	4.107	2.8827	1.31999	0.317683
0.4147	-0.693176	7.9624	-3.9588	0.373146	0.861388	0.461171	2.57607	1.35362	1.01142	0.317683
0.4153	-1.28733	5.81351	3.36125	-0.849229	-1.59972	-2.30586	-0.471053	3.81018	-1.43142	0.317683
0.4160	-0.0495125	7.65542	4.57503	-1.15161	-2.50213	-3.18627	-2.60551	6.54248	-2.64855	0.317683
0.4167	0.247563	11.0131	-3.66002	0.675523	0.246111	-0.461171	-0.780182	11.1297	-0.205712	0.635366
0.4173	-0.0495125	2.45587	-7.93628	2.20671	1.7638	1.38351	1.66341	32.186	1.92855	0.635366
0.4180	0.841713	-0.901766	-9.76629	1.59552	0.861388	-0.167699	2.28166	51.4123	0.702851	0.635366
0.4187	-2.82221	13.4497	-14.6401	-0.540418	-1.27157	-2.59933	-1.07459	57.8295	-2.34855	0.635366
0.4193	-8.02103	7.65542	-9.76629	-2.06517	-3.11741	-5.03096	-4.44557	98.4129	-4.17425	0.317683
0.4200	-5.24833	-15.8481	1.83001	0.070769	-0.369166	-3.52167	-4.44557	142.957	-2.03998	-0.95305
0.4207	1.78245	-13.7184	1.21378	2.50908	2.70722	0.461171	-1.69285	77.6574	0.702851	-0.317683
0.4213	2.97075	-0.901766	-17.7026	1.8979	1.47667	0.754644	1.05987	-42.288	1.01142	0.635366
0.4220	-0.346588	5.81351	-33.5751	-0.849229	-1.27157	-1.97046	-1.69285	-76.4542	-1.43142	0.635366
0.4227	-2.17855	9.17115	-28.0851	-1.46042	-1.59972	-3.52167	-4.73997	-61.5143	-2.64855	0.635366
0.4233	-2.17855	-1.18956	-15.2563	0.373146	0.246111	-0.754644	-1.38372	-48.68	-1.12285	0.317683
0.4240	-1.28733	-3.03147	-0.616229	1.28671	1.7638	1.38351	1.66341	-22.4349	0.702851	0
0.4247	0.544638	9.17115	16.7876	0.984333	1.47667	1.38351	1.05987	-16.0429	1.01142	0.317683
0.4253	-0.0495125	6.42748	11.2975	-0.849229	-0.984444	-1.04812	-1.38372	-18.4743	-0.82285	0.635366
0.4260	-1.88148	-3.64544	-21.3626	-2.06517	-1.88685	-2.30586	-3.51818	13.5612	-2.95712	0.635366
0.4267	-1.5844	-3.64544	-18.9163	0.070769	0.246111	0.461171	-1.07459	39.5055	-0.514281	0.95305
0.4273	0.247563	-0.594782	22.5764	0.984333	1.14852	2.30586	1.66341	29.1278	1.92855	0.317683
0.4280	2.3766	-7.59786	30.8301	0.675523	0.246111	0.167699	-0.161925	7.46995	0.0942849	-0.635366
0.4287	2.97075	-21.6424	13.1275	-0.238041	-1.59972	-2.30586	-2.60551	-9.02411	-1.43142	0
0.4293	3.91149	-23.1773	7.02127	-1.76279	-2.215	-2.8928	-3.51818	13.2604	-1.73141	0.95305
0.4300	5.74345	-11.2625	11.8951	-0.849229	-0.369166	-0.167699	-0.471053	52.3147	-0.514281	0.317683
0.4307	1.48538	-0.287798	15.5551	1.28671	1.14852	3.2282	4.41613	16.0178	1.01142	0.317683
0.4313	-5.24833	2.76286	9.46751	1.59552	0.861388	3.2282	4.41613	-61.5143	1.61999	0.635366
0.4320	-4.3571	-5.16117	-1.83001	-0.540418	-1.59972	-0.167699	0.441613	-76.1534	-0.514281	0.635366
0.4327	-0.693176	-14.6201	-9.15006	-2.37398	-2.78926	-1.67699	-1.69285	-44.4187	-2.64855	0.635366
0.4333	-0.0495125	-10.3607	-6.72249	-0.849229	-0.369166	1.67699	-0.471053	-21.5325	-0.205712	0.317683
0.4340	0.544638	0.633155	2.12879	1.59552	1.47667	4.44401	2.57607	-18.7752	2.53712	0.317683
0.4347	0.841713	6.42748	6.10627	1.59552	0.861388	3.81514	4.107	-38.6282	2.53712	0.635366
0.4353	-0.693176	1.55411	1.21378	-1.15161	-0.984444	0.167699	0.441613	-52.9665	0.0942849	0.635366
0.4360	-0.693176	-4.2594	-2.74502	-2.67636	-2.78926	-1.97046	-2.91464	-44.1178	-2.34855	0.317683
0.4367	0.544638	0.326171	1.21378	-0.238041	-0.656296	1.38351	0.441613	-36.1716	0.0942849	0.317683
0.4373	1.48538	5.21873	3.66002	1.59552	1.7638	3.81514	2.57607	-31.2836	2.53712	0.635366
0.4380	1.48538	3.99079	0.915006	0.675523	1.47667	1.38351	1.97254	-22.1341	1.92855	0.317683
0.4387	1.48538	0.633155	-1.53123	-0.849229	-0.656296	-5.03096	0.132484	-18.1735	-0.514281	0.317683
0.4393	1.48538	0.326171	-3.0438	-1.15161	-1.88685	-7.16912	-2.29639	-16.9453	-2.34855	0.635366
0.4400	2.07953	4.91175	-2.44624	0.675523	0.246111	-1.67699	0.132484	-10.854	0.0942849	0.317683
0.4407	2.07953	7.9624	-2.12879	1.59552	2.37907	2.30586	1.66341	-5.03846	2.53712	0.317683
0.4413	1.13879	6.1205	-2.12879	0.675523	1.7638	1.38351	0.441613	-4.43685	1.61999	0.317683
0.4420	0.544638	1.24712	-3.9588	-0.849229	-0.369166	-1.38351	-1.07459	-4.73766	-0.82285	0.317683
0.4427	0.841713	0.0191865	-7.6375	-1.76279	-1.59972	-2.8928	-2.91464	-3.20857	-2.64855	0.317683
0.4433	0.841713	3.68381	-11.8951	0.070769	0.246111	-0.461171	-1.07459	0.451205	-0.514281	0.317683
0.4440	-0.693176	7.65542	-20.7464	2.20671	2.09194	1.67699	2.28166	6.24167	1.61999	0.635366
0.4447	-0.346588	9.47814	-28.6826	1.59552	1.47667	1.97046	2.28166	10.5281	1.61999	0.635366
0.4453	-1.28733	-2.11052	-20.1488	-0.540418	-0.984444	-0.754644	-1.07459	14.4887	-1.12285	0.317683
0.4460	-4.95125	-15.2341	0.616229	-2.37398	-1.59972	-2.59933	-3.22377	27.8995	-2.95712	0.317683
0.4467	-6.78322	-12.1834	18.6176	-0.540418	0.246111	0.754644	0.132484	50.4849	0.0942849	0.635366
0.4473	-5.24833	-11.8764	26.5539	1.28671	2.09194	3.52167	3.19433	65.7506	2.53712	0.635366
0.4480	-1.88148	-19.5127	17.0863	1.28671	1.47667	1.67699	2.28166	38.9039	1.61999	0.317683
0.4487	-0.693176	-17.6708	0.616229	-0.238041	-7.38333	-2.30586	-1.07459	-41.9621	-1.12285	0.317683
0.4493	1.48538	-7.00308	-4.27625	-2.37398	-18.6634	-3.81514	-2.29639	-90.7925	-3.25711	0.317683
0.4500	5.1493	-0.901766	-0.915006	-0.849229	-20.7964	-1.67699	-1.38372	-63.3442	-1.73141	-0.635366
0.4507	2.3766	2.45587	-0.915006	1.8979	-18.6634	0.754644	-1.38372	-50.8358	1.31999	-0.95305
0.4513	-0.346588	9.47814	-0.915006	1.8979	-16.5305	1.67699	-0.780182	-68.2072	1.92855	0.317683
0.4520	0.841713	9.47814	2.12879	-0.238041	-14.7256	-0.754644	-2.29639	-38.0015	-0.82285	0.635366
0.4527	1.48538	4.60476	6.40504	-1.46042	-10.4187	-2.59933	-3.82731	17.5469	-2.95712	0.317683
0.4533	1.48538	5.81351	10.6813	0.373146	-1.27157	0.754644	-0.780182	52.0139	-0.514281	0.317683
0.4540	1.13879	4.60476	4.27625	1.59552	7.87555	2.8928	0.750741	102.373	1.61999	0.317683
0.4547	0.544638	-1.49655	-10.6813	1.59552	13.0439	0.461171	0.441613	162.183	1.31999	0.317683
0.4553	0.841713	-1.18956	-17.7026	0.070769	14.8897	-2.8928	-1.07459	97.4854	-0.514281	0.635366
0.4560	1.48538	2.76286	-20.4476	-1.76279	14.8897	-4.10862	-3.51818	-61.5143	-2.03998	0.317683
0.4567	0.841713	3.68381	-24.7238	-0.238041	17.0227	-1.04812	-2.29639	-109.417	0.0942849	0.317683
0.4573	-1.5844	5.50653	-13.7251	2.20671	17.9661	1.97046	-0.161925	-71.892	2.53712	0.635366
0.4580	-0.693176	7.04145	0.298777	2.20671	13.9873	1.38351	-0.780182	-53.2673	1.61999	0.635366
0.4587	1.48538	2.76286	8.85128	-0.540418	7.26027	-2.30586	-2.60551	-30.9828	-1.12285	0.635366
0.4593	0.544638	-1.18956	21.3626	-2.37398	1.14852	-5.65983	-1.07459	-4.73766	-3.25711	0.317683
0.4600	-0.346588	0.940139	20.4476	-0.238041	-0.656296	-3.81514	3.79787	10.5281	-1.12285	0.635366
0.4607	1.13879	4.60476	11.5963	1.59552	-0.369166	-0.461171	3.79787	22.4099	1.61999	0.635366
0.4613	4.20857	5.50653	5.80749	1.28671	-0.656296	1.09004	0.441613	33.4143	1.01142	0.635366
0.4620	2.97075	0.940139	0.298777	-0.238041	-0.984444	-0.754644	-1.07459	24.2397	-1.43142	0.317683
0.4627	-1.28733	-3.64544	0.915006	-1.46042	0.53324	-2.8928	-1.07459	-12.0572	-2.95712	0.317683
0.4633	-3.41637	0.940139	0.298777	0.070769	4.51203	-0.167699	1.35428	-28.2505	-0.514281	0.317683
0.4640	-2.52514	5.50653	-4.87381	1.59552	6.02972	2.59933	1.97254	-9.92652	2.22855	0.635366
0.4647	-1.88148	4.29778	-2.74502	1.59552	5.12731	2.8928	0.441613	10.8289	1.92855	0.635366
0.4653	-2.52514	1.24712	2.74502	0.373146	3.28148	1.38351	-1.38372	35.8458	-0.205712	0.317683
0.4660	-3.11929	-2.72448	6.10627	-1.15161	1.47667	-0.754644	-1.69285	70.0371	-2.03998	0.317683
0.4667	-3.41637	-3.03147	8.85128	0.373146	2.37907	1.67699	0.441613	74.9001	-0.514281	0.635366
0.4673	-4.01052	-1.80353	8.23505	1.59552	3.60963	4.73749	0.441613	25.1672	1.61999	0.317683
0.4680	-1.28733	-3.03147	6.72249	0.373146	2.09194	3.81514	-0.161925	-25.4931	0.402854	0.317683
0.4687	2.3766	-3.33845	1.21378	-0.849229	-0.656296	0.167699	-2.29639	-33.4393	-1.73141	0.635366
0.4693	3.91149	-1.18956	-13.7251	-2.06517	-2.50213	-1.04812	-5.35823	-29.4537	-3.25711	0.635366
0.4700	2.67368	5.21873	-34.7889	-0.849229	-0.0410185	2.59933	-3.22377	-25.1923	-1.12285	0.317683
0.4707	-0.346588	14.3707	-44.2564	1.28671	1.7638	4.10862	0.132484	-15.4162	1.92855	0.317683
0.4713	-0.346588	22.2947	-24.7238	1.59552	0.861388	1.97046	0.750741	-5.96594	1.92855	0.635366
0.4720	1.13879	19.2441	-23.4914	-0.849229	-1.27157	-2.30586	-0.780182	1.98029	-0.514281	0.635366
0.4727	2.07953	10.7061	-45.769	-2.37398	-2.215	-4.40209	-1.69285	8.99904	-2.95712	0.317683
0.4733	1.78245	14.3707	-35.7039	0.373146	0.53324	-0.754644	1.66341	12.358	-1.43142	0.317683
0.4740	-5.24833	7.04145	-21.3626	2.81789	2.37907	1.09004	4.71053	14.4887	1.31999	0.317683
0.4747	-14.1111	-14.3131	-17.0863	2.50908	0.246111	-0.461171	3.79787	25.1672	2.53712	0.635366
0.4753	-14.1111	-13.1044	-13.7251	0.070769	-2.78926	-2.8928	-0.780182	52.9414	0.0942849	0.317683
0.4760	-4.65418	8.57637	-31.7451	-0.849229	-4.34796	-3.18627	-3.22377	109.392	-1.73141	0.317683
0.4767	4.50564	19.2441	-24.4064	0.984333	-2.78926	-0.754644	-0.161925	137.768	0.402854	0.635366
0.4773	8.16957	11.9148	9.15006	1.28671	-0.0410185	0.754644	2.28166	79.7881	2.84569	0.635366
0.4780	10.5957	4.91175	5.80749	0.675523	-0.0410185	0.461171	1.97254	-13.5863	1.61999	0.317683
0.4787	7.87249	-12.1834	3.0438	-1.15161	-2.50213	-0.754644	1.05987	-45.6469	-1.43142	0.635366
0.4793	1.48538	-43.6109	39.3639	-2.06517	-4.01981	-1.38351	-0.780182	-2.00536	-2.95712	0.317683
0.4800	-0.990251	-53.6838	73.8541	0.373146	-1.59972	0.461171	-1.38372	12.358	-1.73141	-0.95305
0.4807	-0.346588	-31.4083	75.9828	2.50908	1.47667	2.8928	-0.780182	-28.2505	0.402854	-0.317683
0.4813	0.841713	-6.08212	51.2777	1.28671	0.861388	2.59933	0.441613	-44.7195	1.61999	0.95305
0.4820	-0.990251	4.29778	16.4888	-0.540418	-2.50213	-1.38351	-0.780182	-56.3255	-0.514281	0.635366
0.4827	-2.17855	15.2725	-23.8088	-0.540418	-3.11741	-4.10862	-3.51818	-87.4336	-2.03998	0.317683
0.4833	0.841713	25.6524	-46.0864	1.28671	-0.369166	-1.67699	-1.69285	-61.1884	0.402854	0.317683
0.4840	1.48538	12.5288	-28.3839	2.20671	1.47667	1.09004	2.28166	1.35362	2.22855	0.635366
0.4847	0.841713	6.1205	-10.9801	1.28671	0.246111	1.09004	1.97254	23.6381	1.31999	0.317683
0.4853	1.13879	7.34843	2.12879	-0.540418	-2.215	-3.18627	-3.82731	14.1879	-2.03998	-0.95305
0.4860	-1.5844	-23.4843	44.2564	-0.849229	-2.78926	-4.73749	-5.65264	14.1879	-3.25711	-0.635366
0.4867	-2.52514	-45.7598	61.6415	0.675523	-0.369166	0.461171	-0.471053	38.9039	0.0942849	0.317683
0.4873	-2.82221	-26.8419	35.4051	1.59552	2.37907	2.8928	1.66341	67.8813	3.14569	0.317683
0.4880	-1.5844	-9.13278	29.0001	1.8979	1.7638	2.30586	-0.471053	73.371	2.84569	0.635366
0.4887	4.50564	-17.3638	30.5127	-0.238041	-1.27157	0.461171	-3.51818	22.1091	-0.514281	0.635366
0.4893	7.57542	-22.2563	16.1713	-2.06517	-2.50213	-1.97046	-6.2709	-55.9996	-3.25711	0.317683
0.4900	4.80272	-2.72448	14.3413	-0.540418	-0.369166	0.461171	-4.44557	-97.5105	-0.514281	0.635366
0.4907	0.544638	13.1428	12.8101	1.8979	1.47667	2.8928	0.132484	-100.869	2.22855	0.635366
0.4913	-1.5844	6.1205	-10.9801	1.59552	0.53324	0.754644	2.57607	-72.4936	1.92855	0.317683
0.4920	-0.990251	2.45587	-24.7238	-1.15161	-1.88685	-3.18627	-0.780182	-33.4393	-1.12285	0.635366
0.4927	0.544638	10.7061	-8.85128	-2.67636	-2.78926	-4.40209	-4.73997	-17.2461	-2.95712	0.635366
0.4933	2.97075	8.57637	7.93628	-0.238041	0.246111	-0.167699	-1.69285	-13.5863	-0.514281	0.317683
0.4940	4.20857	3.37683	11.2975	2.20671	1.7638	2.59933	2.57607	-11.7564	1.61999	0.317683
0.4947	2.97075	6.42748	8.23505	1.59552	0.246111	0.461171	2.28166	-8.69823	0.0942849	0.317683
0.4953	1.48538	4.60476	1.53123	-1.15161	-2.215	-3.18627	-0.471053	-4.73766	-2.64855	0.317683
0.4960	1.48538	-1.80353	-2.44624	-2.06517	-3.73268	-4.10862	0.132484	-15.717	-3.25711	0.635366
0.4967	1.78245	-1.18956	-2.12879	-0.849229	-1.88685	-1.67699	1.66341	-23.964	-0.82285	0.317683
0.4973	1.48538	3.37683	-6.10627	0.070769	-0.369166	0.754644	0.441613	-5.36433	0.702851	0.317683
0.4980	2.67368	4.91175	-11.5963	0.984333	-0.984444	1.09004	0.750741	4.11098	0.0942849	0.317683
0.4987	3.31734	3.37683	-16.4701	-0.849229	-3.11741	-1.97046	-0.780182	-5.03846	-1.43142	0.317683
0.4993	2.97075	2.76286	-21.3626	-2.06517	-3.73268	-4.10862	-2.00198	-3.50937	-2.03998	0.635366
0.5000	2.07953	3.68381	-10.3825	0.070769	-0.984444	-0.754644	2.28166	0.150402	0.702851	0.635366
0.5007	1.48538	2.45587	12.5113	2.20671	1.7638	1.67699	5.01966	-0.777076	4.06282	0.317683
0.5013	0.544638	0.633155	17.7026	1.8979	1.47667	-0.461171	2.57607	1.65442	4.06282	0.317683
0.5020	-0.0495125	-0.594782	6.40504	0.070769	-1.27157	-4.10862	-2.00198	4.71259	1.31999	0.635366
0.5027	0.544638	-1.18956	-0.298777	-1.46042	-1.88685	-5.03096	-4.44557	5.64007	-0.514281	0.635366
0.5033	1.13879	1.55411	0.298777	0.675523	1.14852	-1.38351	-1.38372	7.16915	1.61999	0.317683
0.5040	0.247563	3.37683	0.915006	2.20671	2.37907	1.67699	1.97254	6.54248	3.75425	0.317683
0.5047	-0.346588	3.06984	-0.298777	1.28671	1.47667	1.67699	1.35428	3.1835	3.14569	0.635366
0.5053	-0.346588	0.326171	-4.27625	-1.15161	-1.59972	-1.38351	-3.22377	-0.175469	0.702851	0.317683
0.5060	-0.693176	-1.18956	-6.40504	-2.06517	-2.78926	-2.8928	-6.2709	5.33926	-0.205712	0.317683
0.5067	-0.990251	3.06984	-3.66002	0.984333	-0.0410185	-0.167699	-3.51818	18.7501	2.53712	0.635366
0.5073	-0.693176	5.81351	-1.53123	2.50908	1.14852	1.38351	1.05987	12.6588	4.06282	0.635366
0.5080	-0.346588	4.60476	-1.83001	0.984333	0.53324	1.38351	4.41613	-11.4556	2.22855	0.317683
0.5087	-0.990251	0.940139	-4.27625	-1.76279	-0.984444	-0.167699	4.41613	-17.2461	-1.12285	0.635366
0.5093	-1.28733	-1.49655	-6.40504	-2.98517	-2.78926	-2.30586	1.66341	-6.56754	-3.25711	0.635366
0.5100	-1.28733	-0.287798	-3.36125	0.070769	-2.50213	-1.67699	1.97254	-1.07788	-2.64855	-0.635366
0.5107	-1.28733	2.14889	0	2.81789	-0.0410185	0.461171	3.48874	-0.175469	-0.82285	-0.95305
0.5113	-0.990251	2.45587	-1.53123	2.20671	1.47667	1.09004	3.19433	1.98029	0.0942849	0.317683
0.5120	-1.88148	-0.594782	-5.78881	-0.849229	-0.984444	-1.04812	-1.38372	2.5819	-2.95712	0.317683
0.5127	-2.52514	-3.33845	-7.02127	-2.67636	-3.11741	-1.38351	-4.44557	3.1835	-4.78282	0.317683
0.5133	-1.28733	-1.18956	-3.36125	-0.238041	-1.88685	2.30586	-0.161925	6.24167	-2.03998	0.635366
0.5140	-0.0495125	3.99079	-3.66002	1.59552	0.53324	3.81514	3.48874	7.16915	-0.205712	0.317683
0.5147	0.247563	6.42748	-5.49004	0.373146	0.53324	1.67699	2.8852	5.33926	-1.12285	0.317683
0.5153	-0.346588	3.37683	-13.4263	-1.76279	-1.88685	-2.30586	-1.07459	2.8827	-2.95712	0.317683
0.5160	-0.693176	0.633155	-28.3839	-2.06517	-3.11741	-4.10862	-2.91464	4.71259	-2.95712	0.635366
0.5167	-0.346588	0.326171	-24.7238	0.675523	-0.656296	-1.04812	-0.471053	14.4887	-0.205712	0.317683
0.5173	-1.28733	2.76286	-10.9801	1.8979	1.47667	1.38351	1.35428	33.4143	1.92855	0.317683
0.5180	-1.88148	5.81351	-2.12879	0.675523	1.14852	1.97046	0.441613	43.4661	1.01142	0.317683
0.5187	-3.71344	-0.287798	16.1713	-1.15161	-1.59972	0.167699	-3.51818	31.2585	-2.03998	0.317683
0.5193	-4.65418	-3.03147	18.6176	-2.06517	-3.11741	-1.38351	-5.65264	10.2023	-3.56568	0.317683
0.5200	-0.0495125	-0.287798	-0.616229	0.070769	-0.984444	1.97046	-2.00198	-18.1735	-1.43142	0.317683
0.5207	5.1493	-8.51881	-8.23505	2.20671	2.09194	5.03096	0.750741	-36.1716	1.31999	0.317683
0.5213	4.80272	-17.076	-15.2563	1.28671	1.14852	3.2282	-0.161925	-13.2855	0.702851	0.635366
0.5220	-0.990251	-10.0537	-23.4914	-0.849229	-1.59972	-1.38351	-2.91464	9.29984	-1.73141	0.635366
0.5227	-4.65418	7.34843	-10.0651	-1.76279	-2.215	-3.52167	-4.44557	2.8827	-2.95712	0.635366
0.5233	-1.88148	14.3707	3.0438	0.070769	0.246111	-0.461171	-1.69285	5.01339	-0.82285	0.317683
0.5240	1.13879	0.326171	-0.616229	1.8979	1.7638	2.59933	1.66341	38.9039	1.92855	0.317683
0.5247	2.07953	-5.16117	-8.55251	1.28671	1.14852	1.38351	0.750741	99.6161	1.31999	0.317683
0.5253	2.3766	5.50653	-15.8726	-0.849229	-0.656296	-1.97046	-2.60551	149.073	-1.73141	0.635366
0.5260	0.841713	3.68381	-9.46751	-2.06517	-1.88685	-2.8928	-5.0491	112.45	-2.64855	0.635366
0.5267	-1.88148	-0.594782	18.0013	0.373146	0.53324	1.09004	-2.29639	1.35362	0.402854	0.317683
0.5273	-2.52514	5.21873	36.0027	2.81789	2.70722	3.52167	3.19433	-62.7175	2.53712	0.317683
0.5280	-2.17855	3.68381	24.4064	1.59552	1.47667	1.38351	5.32879	-48.3792	1.31999	0.635366
0.5287	-2.17855	-8.82579	10.3825	-1.46042	-1.59972	-2.59933	2.57607	-24.2648	-1.73141	0.635366
0.5293	-0.693176	-10.9555	4.27625	-2.37398	-2.78926	-3.18627	-1.69285	-20.605	-2.95712	0.635366
0.5300	0.247563	-1.49655	-0.915006	0.070769	-0.656296	0.754644	-0.161925	-36.4724	-0.514281	0.635366
0.5307	0.247563	2.76286	-3.0438	2.20671	1.47667	3.52167	2.8852	-55.6988	1.92855	0.317683
0.5313	1.13879	-0.901766	-6.40504	0.675523	0.861388	1.97046	1.35428	-41.0597	1.61999	0.635366
0.5320	1.78245	-4.85419	-11.2975	-1.76279	-1.88685	-2.30586	-3.22377	-7.49502	-1.73141	0.95305
0.5327	-0.0495125	-4.5472	-6.72249	-2.37398	-2.50213	-4.10862	-4.73997	-7.79582	-3.25711	0.317683
0.5333	-1.88148	-0.287798	4.57503	0.070769	-0.0410185	-1.04812	-1.07459	-31.6094	-0.205712	0.317683
0.5340	-2.17855	3.99079	7.93628	2.20671	1.47667	2.30586	1.35428	-45.6469	1.61999	0.635366
0.5347	-0.990251	3.06984	3.0438	1.8979	0.861388	1.67699	0.441613	-41.0597	0.702851	0.635366
0.5353	0.841713	0.0191865	-2.74502	-0.540418	-1.59972	-1.38351	-2.60551	-25.7939	-1.12285	0.317683
0.5360	1.78245	3.68381	-7.6375	-1.76279	-3.11741	-1.38351	-4.73997	-20.3042	-2.34855	0.317683
0.5367	1.48538	13.4497	-11.5963	0.373146	-0.656296	3.2282	-1.69285	-16.9453	-0.205712	0.317683
0.5373	0.247563	18.9371	-14.9575	1.8979	1.7638	6.24677	0.750741	-6.86835	2.22855	0.317683
0.5380	-0.990251	10.7061	-25.0226	1.8979	0.53324	5.65983	-0.780182	-1.67949	1.31999	0.635366
0.5387	-1.5844	-0.287798	-32.3427	0.070769	-1.88685	2.30586	-3.22377	0.150402	-1.12285	0.635366
0.5393	-3.71344	-3.03147	-11.2975	-2.67636	-3.40454	0.167699	-4.73997	12.0321	-2.95712	0.317683
0.5400	-5.5454	-9.13278	20.4476	-1.46042	-0.984444	0.167699	-2.60551	22.4099	-1.73141	-0.95305
0.5407	-5.5454	-4.5472	25.9376	1.28671	2.37907	-1.38351	0.750741	24.5656	0.702851	-0.635366
0.5413	-4.95125	5.81351	12.2125	0.675523	2.09194	-2.8928	2.28166	63.9207	1.01142	0.635366
0.5420	-4.3571	-14.9271	-0.915006	-1.76279	-0.656296	-5.65983	-1.07459	116.411	-1.12285	0.635366
0.5427	-0.990251	-27.1297	-11.5963	-2.67636	-0.984444	-8.6784	-4.73997	116.712	-1.73141	0.635366
0.5433	2.97075	-0.594782	-20.7464	0.373146	2.37907	-7.16912	-2.29639	70.3379	1.01142	0.317683
0.5440	2.67368	12.2218	-30.2139	1.8979	4.22491	-4.40209	1.05987	-23.3624	2.53712	0.317683
0.5447	1.78245	4.60476	-27.1514	0.675523	3.28148	-5.9533	1.66341	-108.49	1.92855	0.635366
0.5453	0.544638	3.37683	2.12879	-2.06517	0.246111	-9.30727	2.28166	-115.208	-2.03998	0.635366
0.5460	-0.0495125	-1.18956	26.8526	-3.28754	-1.88685	-9.0138	4.41613	-71.892	-3.87425	0.635366
0.5467	2.3766	-0.901766	18.3188	-0.540418	-0.0410185	-2.59933	5.01966	-29.4537	-0.205712	0.635366
0.5473	3.61442	15.2725	-4.87381	1.8979	0.246111	2.30586	3.48874	-25.1923	1.61999	0.317683
0.5480	1.13879	27.8013	-9.46751	1.28671	-1.27157	1.67699	2.57607	-53.2673	0.702851	0.317683
0.5487	-1.5844	24.7506	3.66002	-0.849229	-5.86564	-2.30586	-0.161925	-54.4956	-1.73141	0.317683
0.5493	-1.5844	5.50653	11.8951	-1.76279	-14.7256	-3.81514	-3.51818	-21.8333	-2.64855	0.317683
0.5500	-0.346588	-16.769	-0.616229	0.373146	-18.6634	0.167699	-1.38372	18.4493	-0.514281	0.635366
0.5507	-1.28733	-16.462	-19.2338	2.20671	-18.6634	4.10862	1.66341	46.5243	1.61999	0.635366
0.5513	-2.52514	-0.287798	0.616229	1.59552	-18.0481	4.10862	0.132484	19.3768	1.31999	0.635366
0.5520	-0.990251	4.91175	30.5127	-0.849229	-16.8586	1.38351	-4.73997	-26.0947	-1.43142	0.635366
0.5527	0.247563	-7.59786	21.3626	-1.76279	-12.2645	0.167699	-5.65264	16.6194	-2.95712	0.317683
0.5533	0.544638	-22.2563	3.66002	0.373146	-3.40454	2.30586	-0.161925	99.6161	-0.514281	0.635366
0.5540	1.13879	-20.4336	8.85128	1.28671	5.12731	3.2282	4.107	88.336	1.61999	0.95305
0.5547	1.48538	-12.1834	21.3626	0.373146	9.72138	1.97046	2.8852	9.90145	0.702851	0.317683
0.5553	1.78245	-7.90484	18.6176	-1.15161	11.8543	-0.461171	-2.00198	-44.1178	-1.43142	0.317683
0.5560	3.61442	-1.49655	-0.616229	-0.849229	13.6592	-1.04812	-5.0491	-50.5099	-1.12285	0.635366
0.5567	4.50564	3.37683	-19.8314	1.59552	16.1203	1.38351	-2.60551	-29.1529	1.61999	0.317683
0.5573	2.07953	-4.85419	-27.7676	2.81789	17.638	3.52167	0.441613	-10.2273	3.14569	0.317683
0.5580	-0.0495125	-4.85419	-16.1713	1.8979	14.8897	2.30586	-0.161925	9.29984	2.22855	0.635366
0.5587	-4.3571	19.5511	13.7251	-0.849229	8.16268	-1.97046	-2.00198	22.7357	-0.514281	0.635366
0.5593	-8.91226	26.2663	40.5964	-2.98517	2.09194	-4.40209	0.132484	18.7501	-2.95712	0.317683
0.5600	-5.5454	-0.901766	35.4051	-0.849229	0.246111	-1.67699	4.41613	40.433	-0.514281	0.317683
0.5607	3.61442	-20.4336	10.6813	2.50908	0.246111	1.67699	5.01966	111.523	2.53712	0.317683
0.5613	8.46665	-24.693	0.298777	1.28671	-1.59972	1.67699	1.35428	123.731	1.31999	0.317683
0.5620	6.04053	-22.2563	-2.44624	-2.06517	-2.78926	0.461171	-2.91464	-2.90777	-1.43142	0.317683
0.5627	2.07953	-10.3607	-10.6813	-2.37398	-0.0410185	0.461171	-4.73997	-124.382	-2.34855	0.635366
0.5633	-0.693176	7.9624	-18.3188	0.373146	4.51203	1.97046	-1.69285	-122.226	-0.205712	0.635366
0.5640	-1.5844	17.1144	-25.3214	1.8979	5.74259	3.52167	1.35428	-68.8339	1.61999	0.635366
0.5647	0.544638	3.37683	-18.3188	1.59552	5.74259	2.8928	1.05987	-31.9102	1.61999	0.635366
0.5653	1.48538	-10.0537	8.55251	-0.238041	4.22491	-1.38351	-1.38372	-11.1548	-0.514281	0.317683
0.5660	-0.346588	-3.95242	21.0638	-2.37398	1.14852	-3.52167	-1.69285	6.54248	-1.73141	0.635366
0.5667	-0.990251	4.29778	7.93628	-0.849229	1.14852	0.754644	1.97254	15.0903	0.0942849	0.635366
0.5673	-0.346588	9.47814	-4.57503	0.984333	3.28148	3.52167	3.48874	2.5819	1.31999	0.635366
0.5680	-0.0495125	8.57637	-8.55251	1.28671	3.60963	3.81514	0.441613	1.65442	0.402854	0
0.5687	0.544638	-5.77514	-7.93628	0.675523	1.14852	2.8928	-5.0491	11.1297	-0.514281	0.317683
0.5693	-0.0495125	-12.4904	-0.298777	-0.238041	-1.27157	1.38351	-7.49269	-4.13605	-1.12285	0.317683
0.5700	-1.28733	-4.85419	9.15006	0.984333	-0.656296	2.59933	-3.82731	-19.7026	-0.514281	-0.95305
0.5707	0.544638	-4.5472	4.27625	2.20671	0.53324	4.44401	2.28166	-14.8146	0.402854	-0.95305
0.5713	2.67368	-10.9555	-11.8951	0.984333	0.246111	3.52167	7.77238	4.71259	0.402854	0.635366
0.5720	1.48538	-10.6677	-19.2338	-1.46042	-1.88685	-1.04812	5.93233	22.1091	-1.12285	0.317683
0.5727	-0.346588	-6.38911	-11.2975	-1.76279	-3.11741	-5.65983	1.05987	21.8083	-1.73141	0
0.5733	-0.990251	4.29778	-3.66002	0.373146	-0.656296	-7.79799	3.19433	30.9577	0.0942849	0.635366
0.5740	-0.693176	18.9371	-3.66002	0.675523	0.861388	-8.09146	7.15412	41.9621	0.702851	0.635366
0.5747	-2.17855	11.627	-2.74502	0.675523	-0.0410185	-5.03096	6.55059	23.3373	0.0942849	0.317683
0.5753	-8.61518	-7.00308	0.915006	-0.540418	-2.50213	-1.97046	1.05987	5.94087	-1.12285	0.317683
0.5760	-11.0413	-8.51881	4.87381	-0.849229	-3.40454	-1.38351	-2.60551	23.6381	-1.73141	0.635366
0.5767	-4.65418	-3.95242	-2.74502	1.28671	-2.215	1.09004	0.132484	4.41178	0.402854	0.635366
0.5773	-0.346588	-2.11052	-22.8938	2.81789	-0.656296	2.59933	2.8852	-78.2841	2.22855	0.317683
0.5780	0.247563	1.55411	-41.1939	2.20671	-0.984444	0.754644	1.35428	-111.247	1.31999	0.635366
0.5787	-0.693176	4.29778	-44.5552	0.070769	-2.50213	-4.40209	-2.91464	-69.4355	-0.82285	0.317683
0.5793	-1.88148	9.17115	-28.0851	-0.849229	-3.40454	-6.54025	-3.82731	-15.4162	-1.43142	0.317683
0.5800	2.07953	15.8864	-9.76629	0.373146	-2.50213	-4.40209	1.05987	26.0696	0.702851	0.317683
0.5807	6.33761	14.3707	15.2563	2.20671	-0.984444	-2.8928	5.63792	29.1278	1.92855	0.317683
0.5813	5.1493	2.14889	36.9177	2.50908	-0.656296	-4.10862	6.24146	-30.3812	1.01142	0.635366
0.5820	2.07953	-8.51881	23.4914	-0.238041	-2.215	-6.87564	2.8852	-69.1347	-0.514281	0.317683
0.5827	-2.17855	-11.8764	-4.57503	-1.76279	-1.88685	-7.46259	1.97254	-18.7752	-1.73141	0.317683
0.5833	-5.24833	-11.2625	-6.40504	-0.238041	0.861388	-4.40209	4.71053	28.2254	-0.514281	0.635366
0.5840	-4.95125	2.45587	15.5551	0.675523	2.70722	-0.754644	5.01966	23.3373	1.92855	0.635366
0.5847	-3.11929	20.472	21.9788	-0.849229	1.7638	0.461171	1.05987	11.7313	2.22855	0.317683
0.5853	-1.88148	18.0353	8.23505	-2.98517	-1.88685	-0.754644	-3.82731	62.0909	-0.205712	0.635366
0.5860	-0.346588	1.55411	-7.02127	-1.76279	-2.50213	0.167699	-6.87444	142.355	-1.43142	0.635366
0.5867	3.31734	-13.7184	-18.0013	3.73146	-0.0410185	6.24677	-3.82731	96.583	1.31999	0.317683
0.5873	2.67368	-16.462	-17.0863	5.8674	1.14852	10.8166	0.750741	-18.1735	2.53712	0.317683
0.5880	-2.17855	-7.59786	-13.4263	2.81789	0.246111	7.46259	0.441613	-50.2091	0.702851	0.317683
0.5887	-2.52514	1.55411	-17.7026	-0.540418	-1.59972	0.167699	-2.29639	-47.7776	-1.73141	0.635366
0.5893	-0.0495125	8.57637	-29.5976	-2.06517	-1.88685	-2.8928	-4.44557	-61.8151	-2.03998	0.317683
0.5900	-0.346588	34.2095	-25.0226	-0.540418	0.53324	0.167699	-2.00198	-44.4187	1.01142	0.635366
0.5907	-1.88148	66.865	29.5976	0.984333	2.09194	4.73749	1.66341	14.1879	2.22855	0.635366
0.5913	1.13879	50.3838	51.8752	-0.238041	0.861388	6.24677	0.750741	62.6925	0.402854	0
0.5920	3.31734	-7.90484	-17.7026	-1.76279	-1.59972	3.81514	-2.29639	66.9789	-1.12285	0.317683
0.5927	2.3766	-36.8957	-55.2365	-0.849229	-2.50213	1.67699	-2.60551	73.6969	-1.43142	0.635366
0.5933	6.93176	-23.7721	-4.87381	2.20671	-0.0410185	3.2282	1.66341	72.1678	0.402854	0.317683
0.5940	12.4276	-11.2625	35.7039	3.12027	1.7638	3.52167	4.41613	17.221	2.22855	0
0.5947	12.7742	-14.0253	39.9802	1.28671	0.53324	1.67699	3.19433	-0.175469	1.92855	0.317683
0.5953	7.27834	-23.1773	61.044	-0.849229	-2.215	-0.754644	-0.161925	52.0139	-0.82285	0.317683
0.5960	2.97075	-34.459	72.6403	-1.15161	-2.78926	-0.754644	-2.00198	85.9045	-1.12285	0.317683
0.5967	4.50564	-29.2786	40.8952	1.8979	0.246111	3.2282	1.05987	49.2816	1.92855	0.635366
0.5973	4.20857	-10.9555	12.8101	2.81789	1.7638	5.03096	2.57607	-22.7357	2.84569	0.317683
0.5980	1.78245	-1.18956	9.15006	1.59552	0.53324	3.81514	1.05987	-52.9665	1.31999	0.317683
0.5987	-0.0495125	3.06984	7.6375	-0.540418	-1.59972	0.754644	-1.38372	-69.4355	-0.82285	0.635366
0.5993	-1.28733	5.81351	7.6375	-1.46042	-2.50213	-1.38351	-4.13644	-101.471	-2.34855	-0.317683
0.6000	-0.346588	2.45587	10.9801	1.8979	0.246111	0.461171	-3.82731	-86.2303	-0.82285	-0.95305
0.6007	2.3766	-1.49655	12.8101	4.03384	2.70722	3.52167	0.132484	-40.1322	2.22855	0
0.6013	2.3766	-0.594782	14.0425	2.50908	1.7638	3.81514	1.97254	-39.2298	1.92855	0.95305
0.6020	1.13879	-2.4175	10.3825	-0.238041	-0.656296	0.167699	-0.780182	-58.1553	0.0942849	0.635366
0.6027	1.13879	-4.5472	1.53123	-1.15161	-2.215	-1.67699	-2.29639	-40.1322	-0.82285	0.317683
0.6033	1.48538	-1.49655	0.298777	0.373146	-0.369166	1.09004	-0.161925	-14.213	-0.205712	0.317683
0.6040	2.07953	3.37683	2.44624	2.20671	1.7638	3.52167	2.57607	-11.1548	1.92855	0.317683
0.6047	1.78245	6.1205	-0.616229	1.59552	1.14852	2.59933	2.28166	-15.1154	1.92855	0.317683
0.6053	0.544638	4.91175	-7.02127	-0.849229	-0.984444	-0.461171	-0.471053	-16.3437	-0.514281	0.317683
0.6060	-0.693176	5.81351	-10.0651	-1.15161	-0.984444	-1.04812	-2.29639	-25.7939	-1.73141	0.317683
0.6067	-1.5844	11.9148	-9.46751	1.8979	1.7638	2.30586	1.66341	-43.4912	1.01142	0.635366
0.6073	-2.52514	14.3707	-11.2975	3.42265	3.28148	3.81514	4.41613	-72.4936	2.84569	0.635366
0.6080	-2.17855	10.7061	-8.55251	2.50908	2.37907	2.59933	3.19433	-93.8507	1.92855	0.635366
0.6087	-1.5844	-0.594782	-5.49004	0.373146	0.246111	-0.167699	0.441613	-58.4561	0.0942849	0.635366
0.6093	-1.5844	-10.0537	-7.6375	-0.540418	-0.984444	-1.38351	-1.38372	6.54248	-1.12285	0.635366
0.6100	-0.346588	-5.46815	1.21378	1.59552	1.47667	1.97046	1.35428	56.3004	0.702851	0.317683
0.6107	-0.346588	5.21873	-2.12879	3.12027	2.99435	4.44401	4.41613	99.0145	3.45426	0.317683
0.6113	-2.52514	10.3991	-25.3214	1.8979	1.47667	1.97046	3.19433	132.88	2.84569	0.635366
0.6120	-4.01052	5.21873	-20.7464	-0.238041	-0.656296	-1.38351	-1.07459	141.428	-0.205712	0.635366
0.6127	0.841713	-7.59786	8.23505	-0.540418	-0.984444	-1.67699	-3.22377	123.43	-1.12285	0.635366
0.6133	8.76372	-10.9555	20.4476	1.59552	1.14852	1.38351	0.441613	90.7675	1.01142	0.317683
0.6140	6.93176	-3.64544	14.3413	2.50908	2.99435	3.52167	4.107	29.7545	2.53712	0.317683
0.6147	1.13879	-0.594782	6.10627	1.59552	2.09194	1.97046	3.19433	-51.7382	1.61999	0.317683
0.6153	1.13879	3.68381	-5.19126	-0.238041	-0.984444	-0.754644	-0.780182	-95.3798	-0.205712	0.635366
0.6160	1.48538	12.8358	-15.8726	-0.849229	-2.215	-0.754644	-1.69285	-74.6243	-1.12285	0.635366
0.6167	-0.990251	11.32	-15.5551	1.28671	-0.656296	1.97046	2.8852	-25.7939	0.702851	0.317683
0.6173	-1.5844	3.06984	-15.8726	2.50908	0.246111	3.2282	5.32879	11.1297	2.22855	0.317683
0.6180	3.31734	8.57637	-36.3201	1.28671	-0.369166	1.97046	3.79787	30.9577	1.61999	0.635366
0.6187	4.50564	14.9847	-61.3428	-0.849229	-2.215	-1.38351	0.132484	38.2772	-0.514281	0.635366
0.6193	-7.08029	0.940139	-42.7252	-1.46042	-2.215	-2.30586	-2.00198	27.5987	-1.43142	0.635366
0.6200	-13.814	-14.0253	18.9163	0.675523	0.53324	1.38351	1.35428	3.50937	0.702851	0.317683
0.6207	-6.78322	-7.31006	47.9164	2.20671	2.70722	3.81514	4.71053	-13.2855	2.84569	0.317683
0.6213	0.544638	7.34843	14.3413	1.8979	1.47667	2.59933	2.8852	-4.43685	1.61999	0.635366
0.6220	1.78245	5.81351	-20.4476	-0.238041	-1.59972	-0.461171	-2.00198	30.3561	-0.82285	0.317683
0.6227	-2.17855	6.42748	-16.7876	-1.76279	-2.215	-0.754644	-4.13644	51.7131	-1.73141	0.317683
0.6233	-8.91226	12.5288	-14.0425	0.675523	0.246111	2.30586	0.132484	44.3936	0.702851	0.317683
0.6240	-9.20933	-4.2594	-7.32005	2.50908	1.7638	4.10862	3.79787	33.7151	2.84569	0.317683
0.6247	-5.24833	-15.8481	18.3188	1.8979	0.861388	2.59933	2.57607	5.01339	1.92855	0.317683
0.6253	-5.5454	-0.594782	19.8314	0.070769	-0.984444	-0.461171	-0.780182	-29.7545	-0.514281	0.317683
0.6260	-6.18907	0.0191865	21.0638	-1.46042	-1.88685	-1.38351	-1.69285	-22.4349	-1.12285	0.317683
0.6267	-4.3571	-13.4114	31.7451	0.373146	0.246111	1.67699	0.750741	-8.09663	1.01142	0.317683
0.6273	-2.82221	-10.6677	16.1713	2.20671	2.09194	3.81514	3.19433	37.9764	2.22855	0.635366
0.6280	-0.990251	-6.38911	12.8101	1.59552	1.47667	2.8928	2.57607	99.0145	1.92855	0.635366
0.6287	2.3766	-10.0537	28.3839	0.070769	-0.656296	0.461171	-0.161925	-42.5888	0.402854	0.635366
0.6293	6.04053	-6.38911	22.8938	-1.15161	-2.215	-1.38351	-2.00198	-213.169	-0.82285	0.317683
0.6300	7.57542	7.34843	14.0425	0.675523	0.246111	-0.754644	0.132484	-141.453	0.402854	-0.635366
0.6307	5.74345	15.5794	16.4888	3.12027	2.37907	1.38351	3.48874	-40.4581	2.53712	0
0.6313	3.31734	11.627	14.0425	2.20671	1.47667	1.67699	3.79787	-24.8915	2.53712	0.635366
0.6320	4.50564	6.42748	7.02127	-0.238041	-1.27157	-1.38351	-0.780182	-5.66513	-0.205712	0.317683
0.6327	6.04053	8.86417	4.57503	-1.15161	-1.88685	-1.97046	-2.00198	9.90145	-1.73141	0.317683
0.6333	6.33761	15.2725	3.9588	0.675523	0.53324	1.09004	1.35428	19.9784	1.01142	0.317683
0.6340	5.1493	5.81351	-8.23505	2.81789	2.09194	3.2282	2.8852	41.0346	2.53712	0.317683
0.6347	-0.346588	-12.4904	-22.8938	1.8979	0.861388	2.59933	2.28166	25.7688	1.61999	0.317683
0.6353	-6.18907	-10.3607	-16.4701	-0.238041	-1.88685	-0.754644	-0.161925	-0.777076	-0.514281	0.317683
0.6360	-4.95125	1.55411	0.616229	-0.540418	-2.215	-3.52167	-3.82731	12.9596	-2.34855	-0.635366
0.6367	-0.0495125	5.81351	13.4263	1.8979	0.861388	-0.461171	-2.00198	11.7313	-0.514281	-0.95305
0.6373	1.48538	5.50653	17.4038	2.50908	2.09194	2.8928	2.8852	-13.5863	2.22855	0.635366
0.6380	1.13879	2.45587	6.72249	0.675523	0.53324	1.97046	3.19433	-19.4018	1.61999	0.635366
0.6387	2.3766	-2.11052	-7.02127	-1.46042	-1.27157	-1.04812	-0.471053	-14.213	-1.12285	0.317683
0.6393	3.31734	-3.33845	-11.2975	-2.06517	-1.59972	-1.67699	-1.38372	-13.8871	-1.73141	0.317683
0.6400	2.3766	0.326171	0.616229	0.373146	0.53324	1.38351	1.97254	-10.5281	0.702851	0.317683
0.6407	2.07953	3.68381	14.3413	2.20671	2.70722	3.81514	3.79787	-5.36433	2.22855	0.317683
0.6413	2.67368	3.06984	9.15006	1.8979	1.7638	2.8928	2.28166	-2.30616	1.92855	0.317683
0.6420	3.61442	0.0191865	-2.74502	-0.540418	-0.984444	-0.754644	-0.471053	-2.60696	-0.205712	0.635366
0.6427	4.50564	-1.80353	-5.19126	-0.540418	-1.27157	-1.97046	-1.69285	-4.13605	-1.73141	0.317683
0.6433	4.50564	0.326171	-1.83001	1.59552	0.53324	1.09004	1.66341	-0.476272	0.702851	0.317683
0.6440	3.31734	3.06984	0	3.12027	2.09194	3.2282	4.71053	1.98029	2.53712	0.317683
0.6447	1.78245	3.68381	-1.83001	1.8979	1.7638	1.67699	3.48874	-14.8146	1.31999	0.317683
0.6453	0.247563	3.99079	-5.78881	-0.540418	-0.656296	-1.67699	-0.471053	-40.4581	-1.12285	0.635366
0.6460	0.247563	5.81351	-8.55251	-0.540418	-0.984444	-1.97046	-1.38372	-44.7195	-1.43142	0.317683
0.6467	1.78245	7.65542	-6.72249	1.8979	1.47667	1.09004	1.97254	-27.323	1.31999	0.635366
0.6473	0.841713	8.26939	-0.616229	3.12027	2.70722	2.8928	4.71053	2.5819	2.84569	0.635366
0.6480	-3.41637	4.60476	1.21378	2.20671	1.14852	1.67699	3.79787	23.9389	1.92855	0.317683
0.6487	-5.24833	-6.69609	-6.72249	-0.540418	-1.27157	-1.67699	0.132484	21.5075	-0.514281	0.317683
0.6493	-2.17855	-10.0537	-11.5963	-1.46042	-1.59972	-2.59933	-2.29639	19.6776	-1.12285	0.635366
0.6500	-1.28733	0.0191865	-3.36125	0.984333	0.53324	0.461171	1.05987	28.2254	1.31999	0.635366
0.6507	-3.71344	4.29778	6.40504	1.8979	1.47667	1.97046	3.79787	29.4286	2.53712	0.317683
0.6513	-6.18907	2.14889	6.10627	0.984333	0.861388	1.09004	1.97254	18.7501	1.31999	0.317683
0.6520	-8.02103	0.0191865	-1.21378	-1.15161	-1.27157	-1.38351	-2.60551	11.7313	-1.43142	0.317683
0.6527	-7.37737	-3.33845	-1.83001	-1.46042	-1.88685	-1.67699	-5.0491	21.5075	-2.34855	0.635366
0.6533	-4.01052	-2.72448	4.87381	0.373146	0.53324	2.30586	-1.69285	25.468	0.702851	0.635366
0.6540	-0.990251	-0.287798	4.27625	1.59552	2.37907	3.52167	1.05987	8.07156	2.22855	0.635366
0.6547	-1.28733	-3.03147	-2.74502	1.28671	1.47667	1.38351	0.132484	-6.86835	1.31999	0.317683
0.6553	-5.5454	-5.77514	-15.2563	-0.540418	-1.27157	-1.67699	-2.00198	-15.4162	-0.82285	0.635366
0.6560	-8.02103	0.940139	-28.6826	-0.849229	-2.215	-2.30586	-2.91464	-10.854	-1.43142	0.635366
0.6567	-4.95125	11.0131	-21.9788	1.59552	0.53324	1.09004	0.750741	13.2604	1.01142	0.635366
0.6573	1.13879	10.3991	-4.27625	3.12027	2.37907	2.8928	4.41613	34.9433	3.14569	0.635366
0.6580	4.80272	-1.18956	-5.78881	2.20671	1.14852	0.754644	3.79787	40.1071	1.61999	0.317683
0.6587	4.20857	-17.6708	-21.3626	0.070769	-1.59972	-2.30586	0.132484	36.7732	-1.12285	0.635366
0.6593	2.07953	-17.076	-20.4476	-1.15161	-2.215	-2.8928	-1.69285	39.5055	-1.73141	0.317683
0.6600	-0.0495125	14.3707	-6.72249	0.675523	-0.0410185	-1.04812	-0.780182	24.5656	-0.514281	-0.95305
0.6607	-1.28733	31.1589	5.80749	3.12027	2.09194	1.09004	0.750741	-13.2855	1.61999	-0.635366
0.6613	-2.17855	9.78512	20.1488	2.20671	1.7638	1.67699	1.66341	-25.4931	1.61999	0.317683
0.6620	-2.52514	-7.59786	25.3214	-1.15161	-1.27157	-1.67699	-0.471053	-5.36433	-1.43142	0.317683
0.6627	-0.990251	-5.77514	19.2338	-1.46042	-2.215	-2.59933	-1.69285	13.5612	-2.03998	0.317683
0.6633	-0.990251	-3.33845	13.7251	0.984333	-0.0410185	0.754644	1.66341	9.60065	0.702851	0.635366
0.6640	-5.84248	-10.6677	6.72249	1.8979	1.14852	3.2282	3.19433	-5.66513	1.92855	0.317683
0.6647	-8.02103	-15.8481	1.21378	1.28671	0.861388	2.59933	1.66341	7.46995	1.31999	0.317683
0.6653	-4.65418	-11.8764	3.66002	-0.540418	-0.984444	-0.461171	-1.69285	-1.37868	-0.82285	0.635366
0.6660	-0.346588	-7.90484	8.85128	-1.76279	-1.88685	-1.67699	-1.69285	-57.8545	-1.73141	0.95305
0.6667	3.91149	1.24712	3.9588	0.984333	0.246111	1.38351	1.66341	-65.4749	1.01142	0.635366
0.6673	5.44638	17.1144	-9.76629	2.81789	2.37907	3.52167	3.19433	-43.792	3.45426	0.317683
0.6680	2.67368	19.2441	-0.616229	1.8979	2.09194	2.30586	2.8852	-42.8896	2.22855	0.317683
0.6687	-0.346588	13.1428	22.2776	-1.15161	-1.27157	-1.38351	-0.780182	2.8827	-1.12285	0.317683
0.6693	-0.346588	1.86109	18.0013	-1.76279	-2.50213	-2.8928	-3.51818	66.3522	-2.64855	0.317683
0.6700	2.67368	-10.6677	-2.44624	0.675523	0.53324	0.461171	0.750741	73.371	0.402854	0.635366
0.6707	3.91149	-4.85419	-11.8951	1.8979	2.09194	2.8928	5.01966	62.6925	2.53712	0.635366
0.6713	0.247563	-1.49655	-15.5551	0.675523	0.861388	1.67699	3.19433	73.371	1.01142	0.635366
0.6720	-1.5844	-11.2625	-30.8301	-1.46042	-1.27157	-1.67699	-1.38372	94.4523	-1.73141	0.635366
0.6727	-1.28733	-14.3131	-49.1302	-1.15161	-1.59972	-1.97046	-2.00198	95.9563	-1.73141	0.635366
0.6733	-4.01052	-4.5472	-46.684	0.984333	0.861388	1.38351	1.97254	47.7526	1.31999	0.317683
0.6740	-4.01052	7.9624	-22.8938	2.20671	2.09194	2.30586	3.79787	-5.03846	2.84569	0.635366
0.6747	0.247563	7.34843	10.6813	1.28671	0.861388	0.754644	2.28166	-3.20857	1.92855	0.635366
0.6753	3.61442	-19.2057	10.3825	-1.15161	-1.88685	-2.59933	-2.00198	29.4286	-0.82285	0.317683
0.6760	4.80272	-47.2756	-1.83001	-1.46042	-2.50213	-2.59933	-2.91464	48.655	-1.73141	0.317683
0.6767	5.44638	-41.4812	31.4277	1.28671	0.246111	1.67699	1.05987	12.9596	1.31999	0.635366
0.6773	6.33761	-42.7092	42.4264	2.50908	2.09194	3.2282	3.19433	-34.6425	2.84569	0.635366
0.6780	6.63468	-49.4244	10.9801	0.675523	0.861388	1.67699	1.97254	-34.9433	1.61999	0.635366
0.6787	4.20857	8.57637	-12.8101	-1.76279	-1.88685	-2.30586	-1.69285	-37.7007	-1.43142	0.317683
0.6793	1.48538	71.1244	-29.5976	-2.06517	-2.215	-3.52167	-2.29639	-27.9246	-2.34855	0.317683
0.6800	-0.346588	69.9156	-14.3413	0.070769	1.14852	1.67699	0.750741	16.0178	0.702851	0.317683
0.6807	-0.693176	44.8772	30.5127	1.8979	2.70722	5.65983	1.97254	34.3167	2.53712	0.317683
0.6813	-0.990251	22.9087	42.4264	1.59552	1.14852	4.44401	0.750741	33.7151	1.61999	0.317683
0.6820	-3.41637	3.99079	25.3214	-0.849229	-1.88685	0.167699	-1.69285	9.29984	-1.43142	0.635366
0.6827	-3.41637	-8.82579	15.5551	-1.46042	-2.78926	-2.30586	-3.22377	-56.3255	-2.34855	0.635366
0.6833	-0.346588	-10.6677	10.6813	0.675523	0.53324	-1.67699	0.132484	-93.8507	0.702851	0.317683
0.6840	1.48538	-7.90484	14.9575	2.20671	2.37907	-1.97046	3.19433	-71.5662	2.22855	0.317683
0.6847	2.07953	0.633155	20.1488	1.59552	1.14852	-2.30586	2.8852	-36.7732	1.01142	0.635366
0.6853	2.3766	4.60476	6.10627	-0.849229	-0.984444	-2.8928	-0.780182	-10.854	-1.43142	0.635366
0.6860	1.13879	-4.2594	-3.0438	-1.76279	-1.59972	-3.18627	-2.60551	17.221	-2.03998	0.635366
0.6867	1.78245	-3.33845	-2.74502	0.984333	0.53324	0.461171	1.05987	41.6362	0.402854	0.317683
0.6873	2.67368	6.73446	-6.72249	2.50908	2.70722	3.2282	3.48874	32.7876	2.53712	0.317683
0.6880	0.247563	7.34843	-1.21378	1.28671	1.47667	1.97046	1.66341	-5.66513	1.61999	0.635366
0.6887	-3.11929	-0.594782	3.0438	-1.46042	-2.215	-2.30586	-4.13644	-28.5513	-1.73141	0.635366
0.6893	-2.17855	-1.18956	0.915006	-2.06517	-2.78926	-2.30586	-6.2709	8.07156	-2.64855	0.635366
0.6900	-0.346588	7.34843	1.83001	0.070769	0.246111	1.67699	-2.29639	66.6781	0.402854	0.635366
0.6907	-0.346588	11.32	0.298777	1.8979	1.47667	3.52167	-1.07459	36.1466	1.61999	-0.635366
0.6913	0.841713	7.65542	-1.53123	1.8979	0.861388	1.67699	-3.82731	-48.3792	-0.205712	-1.27073
0.6920	0.841713	6.73446	-6.10627	-0.238041	-0.369166	0.461171	-6.58003	-79.5124	-1.73141	0
0.6927	-2.52514	7.34843	-15.2563	-1.76279	-0.984444	1.38351	-6.58003	-70.9646	-1.43142	0.635366
0.6933	-3.71344	1.24712	-25.3214	0.675523	0.861388	4.73749	-3.22377	-44.1178	0.702851	0.317683
0.6940	-0.0495125	-3.03147	-23.1926	1.59552	2.09194	5.32443	-1.69285	-4.13605	1.92855	0.635366
0.6947	2.97075	4.91175	-13.4263	-0.238041	0.53324	0.461171	0.441613	11.7313	1.01142	0.635366
0.6953	2.3766	9.17115	-11.8951	-2.67636	-2.215	-6.24677	2.8852	5.64007	-1.73141	0.317683
0.6960	0.544638	-4.5472	5.19126	-2.98517	-2.78926	-7.16912	2.28166	-13.2855	-2.64855	0.317683
0.6967	-1.88148	-21.0284	30.5127	-0.238041	0.53324	-2.59933	1.97254	-42.288	0.0942849	0.635366
0.6973	-4.01052	-20.1266	27.7676	1.59552	1.7638	0.754644	0.750741	-35.2692	1.61999	0.635366
0.6980	-4.01052	-0.594782	13.4263	0.984333	0.861388	0.754644	-2.60551	8.07156	0.702851	0.635366
0.6987	-2.17855	5.81351	-1.83001	-1.15161	-1.27157	-3.18627	-4.73997	35.2441	-1.43142	0.317683
0.6993	-1.28733	-11.2625	-13.4263	-1.46042	-2.215	-5.32443	-2.60551	57.8295	-2.95712	0.317683
0.7000	0.544638	-18.8987	-5.49004	0.373146	0.246111	-2.59933	2.57607	93.8256	-0.82285	0.635366
0.7007	4.20857	-10.3607	2.12879	0.675523	2.37907	-0.754644	5.63792	67.5805	1.01142	0.317683
0.7013	4.20857	8.26939	-8.23505	0.070769	1.47667	-1.97046	7.15412	-37.3999	0.0942849	0.317683
0.7020	0.841713	26.5733	-20.7464	-1.76279	-0.984444	-5.65983	4.107	-109.116	-2.64855	0.635366
0.7027	2.67368	22.9087	-29.9151	-2.37398	-1.88685	-6.54025	0.441613	-81.6431	-3.25711	0.635366
0.7033	6.04053	7.9624	-25.3214	0.675523	0.861388	-2.30586	2.57607	0.150402	-0.514281	0.317683
0.7040	4.20857	-2.11052	3.66002	1.8979	2.99435	0.754644	4.107	59.3335	1.31999	0.317683
0.7047	3.31734	-15.2341	10.3825	0.984333	-1.59972	-0.167699	2.8852	83.7487	0.402854	0.317683
0.7053	6.33761	-24.0791	-13.4263	-1.46042	-13.1669	-2.30586	-1.07459	93.8256	-2.64855	0.317683
0.7060	5.44638	-11.5695	-6.40504	-2.06517	-20.1811	-0.461171	-2.60551	70.9395	-3.56568	0.317683
0.7067	-0.693176	9.17115	22.5764	0.070769	-18.9916	4.73749	0.441613	23.6381	-1.12285	0.317683
0.7073	-5.24833	11.32	23.8088	1.59552	-15.628	6.87564	1.97254	10.8289	1.01142	0.317683
0.7080	-5.84248	2.76286	7.93628	0.675523	-12.8798	5.03096	-0.161925	30.9577	1.01142	0.635366
0.7087	-4.95125	8.57637	-18.3188	-1.46042	-9.84444	0.754644	-5.35823	-2.60696	-1.12285	0.635366
0.7093	-4.95125	20.472	-37.2351	-1.46042	-3.40454	-1.67699	-7.18356	-100.869	-1.73141	0.317683
0.7100	-3.41637	12.5288	-23.8088	0.675523	6.02972	-1.04812	-2.91464	-121.023	0.702851	0.317683
0.7107	0.841713	-2.11052	-3.36125	1.8979	13.6592	-1.38351	1.05987	-6.26674	2.53712	0.317683
0.7113	2.97075	-6.69609	3.36125	0.984333	17.0227	-3.18627	1.05987	99.6161	1.31999	0.317683
0.7120	3.31734	-11.5695	-7.6375	-1.46042	15.505	-4.40209	-2.91464	111.523	-2.03998	0.635366
0.7127	4.50564	-5.16117	-32.9589	-1.76279	14.6026	-2.8928	-4.73997	52.9414	-2.64855	0.635366
0.7133	3.31734	15.5794	-46.684	0.984333	15.2179	1.09004	-1.69285	-37.7007	0.702851	0.317683
0.7140	-6.48614	13.4497	-19.8314	2.50908	13.0439	1.97046	1.97254	-104.83	2.22855	0.317683
0.7147	-12.5762	-18.2847	8.23505	1.28671	7.87555	0.167699	3.48874	-113.077	0.0942849	0.635366
0.7153	-9.20933	-28.0507	-8.55251	-1.76279	1.14852	-1.38351	1.05987	-80.4148	-3.25711	0.317683
0.7160	-5.84248	-9.43976	-9.15006	-2.06517	-3.40454	-1.67699	-2.29639	-44.4187	-3.87425	0.317683
0.7167	-1.5844	-7.90484	27.1701	1.28671	-3.11741	0.461171	-0.471053	-2.60696	0.402854	0.635366
0.7173	0.841713	-12.7974	35.0877	1.8979	-0.984444	2.30586	0.750741	13.5612	2.84569	0.317683
0.7180	-2.82221	-1.49655	19.2338	0.070769	1.14852	1.09004	-0.161925	-38.3023	0.702851	0.317683
0.7187	-5.84248	2.14889	10.3825	-2.37398	2.37907	-3.18627	-0.780182	-79.2116	-2.64855	0.635366
0.7193	-4.65418	-3.33845	-8.85128	-2.98517	2.70722	-4.40209	0.441613	-57.8545	-2.64855	0.635366
0.7200	0.544638	0.0191865	-22.2776	0.373146	3.60963	-0.461171	2.57607	-39.8314	-0.514281	-0.95305
0.7207	6.04053	4.60476	-3.66002	3.12027	3.60963	4.44401	4.107	-59.9852	1.01142	-0.95305
0.7213	7.57542	1.86109	11.8951	1.8979	1.14852	5.03096	4.41613	-76.4542	1.31999	0.635366
0.7220	6.04053	-3.64544	18.6176	-0.849229	-3.40454	1.09004	-0.161925	-59.6844	-1.43142	0.635366
0.7227	3.91149	-9.43976	32.3427	-0.540418	-4.34796	-2.30586	-4.44557	-50.2091	-2.64855	0.635366
0.7233	2.67368	-9.13278	26.2364	1.8979	-0.0410185	-1.97046	-2.91464	-58.757	1.01142	0.635366
0.7240	1.13879	-0.594782	14.3413	2.81789	2.99435	-2.30586	-1.69285	-42.5888	2.53712	0.317683
0.7247	-0.990251	2.76286	11.8951	1.28671	1.7638	-4.73749	-2.91464	-1.67949	0.702851	0.317683
0.7253	-0.990251	-2.11052	6.72249	-1.15161	-0.984444	-5.9533	-7.18356	25.468	-2.34855	0.635366
0.7260	0.247563	-0.901766	3.66002	-1.15161	-0.369166	-3.52167	-11.1581	23.6381	-2.95712	0.635366
0.7267	-0.346588	3.37683	4.87381	0.070769	2.99435	2.30586	-10.5398	18.7501	0.0942849	0.635366
0.7273	0.841713	1.24712	4.27625	-0.238041	3.89676	6.58217	-7.18356	25.7688	1.61999	0.317683
0.7280	2.97075	-0.901766	3.36125	0.070769	2.37907	4.73749	-3.51818	27.5987	0.402854	0.317683
0.7287	2.3766	1.55411	-0.616229	-1.46042	-0.984444	-3.52167	0.750741	23.6381	-2.95712	0.317683
0.7293	2.67368	7.04145	-7.6375	-3.59635	-1.88685	-9.89422	6.55059	24.8664	-5.09138	0.317683
0.7300	2.67368	14.3707	-13.7251	-2.06517	1.14852	-12.6612	11.4378	29.4286	-2.64855	0.317683
0.7307	2.67368	12.2218	-21.3626	-1.46042	2.09194	-15.4283	13.8666	30.6569	-0.82285	0.317683
0.7313	4.20857	-3.95242	-28.3839	-3.89873	-0.656296	-12.3678	13.5722	21.2066	-2.03998	0.317683
0.7320	1.48538	-17.076	-15.2563	-6.03467	-3.40454	-3.18627	7.46325	5.01339	-4.17425	0.317683
0.7327	-4.65418	-14.9271	18.0013	-2.67636	-3.40454	1.97046	1.05987	-0.175469	-3.25711	0.317683
0.7333	-4.95125	-5.46815	23.1926	4.34265	-1.27157	3.2282	-1.69285	5.94087	0.0942849	-0.635366
0.7340	-1.88148	8.86417	-4.87381	6.78096	-0.656296	3.2282	-2.91464	16.6194	2.22855	-0.635366
0.7347	-3.11929	21.086	-10.6813	2.81789	-0.984444	2.59933	-3.22377	26.3955	1.92855	0.317683
0.7353	-5.5454	9.17115	7.32005	-1.15161	-3.11741	1.67699	-6.58003	25.7688	-0.514281	0.635366
0.7360	-2.17855	-3.95242	12.5113	-0.540418	-5.86564	3.81514	-7.49269	17.5469	-0.82285	0.317683
0.7367	-0.693176	0.633155	5.19126	2.20671	-5.25037	6.24677	-3.82731	11.1297	2.22855	0
0.7373	-2.52514	0.940139	0.616229	2.20671	-1.59972	5.9533	-2.00198	21.5075	3.45426	0
0.7380	0.841713	-2.72448	0.298777	0.675523	-0.369166	4.44401	-2.60551	30.0553	1.92855	0.317683
0.7387	7.27834	-4.85419	-6.72249	-1.46042	-2.78926	0.754644	-4.44557	28.2254	-1.12285	0.317683
0.7393	7.27834	-8.21183	-9.76629	-1.46042	-4.01981	-0.461171	-5.65264	56.6012	-1.43142	0
0.7400	1.48538	-0.594782	-3.0438	0.675523	-1.59972	2.59933	-2.60551	62.3917	1.01142	0.317683
0.7407	-4.3571	5.21873	-7.02127	2.20671	0.53324	4.10862	-0.780182	29.4286	2.53712	0.317683
0.7413	-5.84248	-2.4175	-8.23505	1.28671	-0.369166	2.30586	-2.29639	48.9808	1.31999	0.317683
0.7420	-1.88148	-5.77514	6.72249	-1.15161	-3.40454	-1.04812	-5.0491	72.7694	-1.43142	0.317683
0.7427	3.61442	-3.64544	13.1275	-1.76279	-4.01981	-1.38351	-6.2709	21.5075	-2.03998	0.317683
0.7433	3.61442	0.633155	7.32005	0.675523	-0.656296	1.97046	-2.60551	-45.6469	0.702851	0.317683
0.7440	-0.0495125	3.37683	2.44624	1.8979	0.246111	2.59933	1.35428	-71.5662	2.22855	0.317683
0.7447	-2.17855	0.326171	-1.53123	1.28671	-1.27157	-0.754644	3.48874	-65.1741	0.702851	0.317683
0.7453	-2.82221	-2.72448	-6.10627	-1.15161	-2.78926	-4.73749	1.97254	-44.7195	-2.34855	0.317683
0.7460	-2.17855	1.86109	-8.55251	-2.06517	-2.78926	-3.81514	-0.780182	-21.5325	-2.34855	0.635366
0.7467	-1.28733	13.7567	-6.72249	0.070769	-0.0410185	0.754644	-0.471053	-9.92652	0.702851	0.317683
0.7473	-2.17855	14.6777	-2.44624	1.59552	1.47667	2.59933	0.132484	-9.62571	2.22855	0
0.7480	-1.28733	-1.80353	-3.9588	0.984333	-0.0410185	1.38351	-0.161925	11.1297	1.31999	0.317683
0.7487	0.247563	-12.4904	-5.49004	-1.15161	-2.78926	-2.30586	-3.22377	67.8813	-1.73141	0.317683
0.7493	0.247563	-7.90484	3.36125	-1.76279	-2.78926	-3.18627	-4.44557	101.471	-2.34855	0.317683
0.7500	-0.990251	-4.5472	-3.9588	0.070769	-0.369166	0.461171	0.132484	67.5805	0.402854	0.317683
0.7507	-5.24833	-8.21183	-19.2338	1.59552	0.246111	0.754644	2.28166	2.5819	1.01142	-0.635366
0.7513	-8.02103	-4.85419	-3.36125	0.984333	-0.369166	-1.97046	-0.780182	-47.1509	-0.514281	-0.95305
0.7520	-5.24833	0.633155	10.3825	-1.46042	-2.50213	-3.81514	-4.13644	-55.398	-2.34855	0
0.7527	-2.17855	0.0191865	0.616229	-2.37398	-3.40454	-2.59933	-3.22377	-34.9433	-2.64855	0.317683
0.7533	1.78245	3.06984	-6.72249	0.070769	-0.369166	1.09004	1.05987	-23.6632	0.402854	0.317683
0.7540	3.91149	8.26939	-13.1275	0.984333	1.47667	2.30586	2.8852	-15.4162	1.92855	0.635366
0.7547	1.13879	4.91175	-14.0425	-0.238041	-0.369166	0.167699	0.441613	-0.175469	0.402854	0.317683
0.7553	-3.71344	-3.03147	7.6375	-1.76279	-2.78926	-3.18627	-2.29639	-10.5281	-2.34855	0.317683
0.7560	-5.84248	-1.80353	27.1701	-1.76279	-3.11741	-3.18627	-2.91464	-59.6844	-2.34855	0.635366
0.7567	-6.48614	2.14889	9.46751	-0.849229	0.246111	0.461171	-1.69285	-92.6224	0.702851	0.635366
0.7573	-6.48614	-0.287798	-19.5326	0.675523	1.47667	1.97046	0.441613	-62.1159	2.22855	0.635366
0.7580	-1.5844	-3.95242	-17.7026	0.675523	0.246111	0.754644	1.66341	-12.3831	0.402854	0.635366
0.7587	3.31734	-7.59786	0	-1.76279	-1.88685	-2.30586	-2.00198	22.7357	-2.03998	0
0.7593	3.91149	-7.59786	7.6375	-2.06517	-2.78926	-2.59933	-3.22377	47.4518	-2.34855	0
0.7600	3.31734	-3.95242	8.55251	0.373146	0.246111	1.09004	1.35428	27.5987	0.402854	0.317683
0.7607	3.91149	-0.901766	5.80749	1.28671	1.7638	2.8928	2.28166	4.71259	1.92855	0.317683
0.7613	3.61442	2.14889	-0.915006	0.675523	0.861388	0.754644	0.132484	15.3911	1.01142	0.635366
0.7620	2.67368	3.68381	-7.32005	-1.46042	-2.215	-2.8928	-2.00198	5.94087	-1.43142	0.635366
0.7627	1.78245	5.21873	-9.46751	-1.46042	-2.50213	-3.18627	-3.82731	-2.30616	-2.64855	0.317683
0.7633	1.78245	8.26939	-5.49004	1.28671	0.861388	0.167699	-1.38372	10.2023	0.0942849	0.317683
0.7640	1.78245	6.42748	2.12879	1.28671	2.09194	1.09004	0.750741	15.717	1.31999	0.317683
0.7647	2.67368	-0.594782	7.02127	0.070769	0.53324	-0.461171	0.132484	19.3768	0.0942849	0.317683
0.7653	3.31734	-5.77514	3.66002	-1.76279	-1.88685	-2.59933	-2.29639	14.4887	-2.03998	0.317683
0.7660	1.78245	-3.64544	-0.616229	-1.46042	-2.215	-2.59933	-2.60551	2.8827	-2.64855	0.317683
0.7667	0.544638	1.86109	-1.53123	0.373146	0.53324	0.461171	1.66341	1.65442	0.0942849	0.317683
0.7673	-0.693176	3.99079	-4.87381	1.28671	1.7638	1.67699	2.28166	2.5819	1.92855	0.317683
0.7680	-0.990251	3.06984	-7.6375	0.984333	0.246111	0.167699	-0.161925	-1.07788	1.01142	0.317683
0.7687	-0.0495125	-0.594782	-9.46751	-0.849229	-2.215	-2.59933	-2.29639	-2.60696	-1.73141	0.317683
0.7693	0.247563	-1.80353	-5.49004	-1.76279	-2.215	-3.18627	-3.22377	0.150402	-2.64855	0.317683
0.7700	-0.693176	3.06984	7.93628	0.373146	0.53324	0.167699	-0.471053	3.1835	0.0942849	0.317683
0.7707	-2.82221	8.57637	11.8951	1.8979	1.14852	2.30586	1.97254	4.41178	1.92855	0.635366
0.7713	-3.11929	8.57637	4.87381	0.675523	-0.0410185	0.754644	1.05987	-1.37868	0.0942849	0.317683
0.7720	-2.52514	4.29778	-8.55251	-1.46042	-2.215	-2.30586	-2.60551	-9.92652	-2.64855	0.317683
0.7727	-2.17855	-0.287798	-26.8526	-2.06517	-2.78926	-2.8928	-3.22377	-3.83524	-2.64855	0.317683
0.7733	0.841713	-6.38911	-40.8952	0.070769	0.246111	0.167699	0.132484	13.862	0.0942849	0.317683
0.7740	2.3766	-13.1044	-49.7465	1.8979	1.47667	1.67699	2.28166	19.3768	1.31999	0.635366
0.7747	-0.346588	-12.4904	-50.3627	0.984333	-0.369166	-0.167699	0.750741	16.6194	-0.205712	0.635366
0.7753	-0.346588	-4.85419	-25.3214	-1.15161	-2.215	-2.59933	-2.29639	20.2792	-2.34855	0.317683
0.7760	2.07953	-4.85419	24.1076	-1.46042	-2.215	-2.8928	-2.60551	38.9039	-2.03998	0.317683
0.7767	-0.693176	-0.287798	44.854	0.984333	0.246111	0.167699	0.132484	69.7112	0.702851	0.317683
0.7773	-4.3571	9.17115	24.1076	1.59552	1.14852	1.97046	1.66341	55.0721	1.92855	0.635366
0.7780	-2.82221	4.29778	6.10627	0.373146	-0.369166	0.461171	0.750741	-15.4162	0.402854	0.635366
0.7787	0.544638	-2.11052	-8.85128	-1.46042	-2.78926	-2.59933	-2.00198	-60.286	-1.12285	0.317683
0.7793	2.07953	-2.72448	-14.3413	-2.37398	-2.78926	-3.18627	-2.29639	-48.0784	-1.12285	0.635366
0.7800	-0.346588	-0.594782	11.5963	0.070769	-0.0410185	-0.167699	0.750741	-8.09663	0.702851	0.317683
0.7807	-3.11929	3.37683	34.4901	2.50908	1.7638	0.461171	0.132484	35.5449	0.702851	-1.27073
0.7813	-0.693176	3.06984	30.8301	2.50908	0.53324	-0.754644	-1.38372	65.7506	0.0942849	-0.635366
0.7820	3.61442	3.06984	10.3825	-0.540418	-1.88685	-2.30586	-2.29639	72.7694	-1.73141	0.635366
0.7827	3.31734	5.50653	-21.0638	-2.37398	-2.215	-2.59933	-3.51818	66.3522	-2.34855	0.317683
0.7833	-0.693176	3.37683	-32.3427	-0.849229	0.53324	0.461171	-1.69285	50.4849	0.702851	0.635366
0.7840	-0.346588	-8.82579	-13.7251	0.373146	1.47667	1.67699	1.05987	6.24167	1.92855	0.317683
0.7847	2.07953	-14.3131	12.2125	0.984333	0.53324	-0.754644	-1.07459	-29.7545	0.0942849	-0.95305
0.7853	1.13879	-10.0537	30.5127	-0.238041	-1.27157	-3.18627	-4.73997	-6.26674	-2.34855	-0.317683
0.7860	0.544638	-9.43976	30.5127	-0.849229	-1.88685	-1.97046	-3.51818	45.296	-2.03998	0.635366
0.7867	2.3766	-5.46815	19.2338	0.984333	0.53324	1.97046	0.132484	62.0909	0.702851	0.317683
0.7873	3.31734	1.24712	10.9801	2.50908	2.09194	3.81514	1.05987	11.1297	2.53712	0.635366
0.7880	2.97075	3.06984	8.23505	1.59552	0.861388	1.97046	0.132484	-78.2841	0.702851	0.635366
0.7887	1.78245	0.326171	0.915006	-3.28754	-2.215	-2.30586	-3.51818	-128.644	-2.64855	0.635366
0.7893	-0.0495125	-0.901766	-6.40504	-6.64586	-2.215	-2.30586	-4.44557	-112.175	-3.25711	0.317683
0.7900	-1.28733	3.06984	-2.12879	-6.03467	0.861388	2.30586	-1.38372	-73.7219	-0.82285	0.317683
0.7907	-1.5844	6.1205	3.66002	-5.42348	1.7638	3.2282	-0.471053	-48.0784	1.01142	0.635366
0.7913	0.544638	3.68381	2.12879	-5.42348	0.53324	0.167699	-1.69285	-34.6425	-0.205712	0.317683
0.7920	2.3766	0.0191865	-0.915006	-6.03467	-2.215	-2.59933	-0.780182	-29.1529	-2.95712	0.317683
0.7927	1.48538	-1.18956	-1.53123	-6.64586	-2.50213	-3.81514	1.35428	-25.4931	-3.56568	0.635366
0.7933	-0.0495125	1.55411	-1.21378	-4.50992	0.861388	-1.97046	1.97254	-19.076	-0.82285	0.317683
0.7940	0.247563	2.76286	-0.298777	-1.76279	1.7638	0.167699	2.8852	-14.213	0.702851	0.317683
0.7947	1.48538	1.55411	0.616229	1.28671	-0.369166	-0.461171	3.19433	-13.2855	0.402854	0.635366
0.7953	1.78245	-1.18956	-2.12879	4.03384	-3.11741	-3.18627	-0.471053	-13.8871	-0.82285	0.635366
0.7960	1.13879	-1.80353	-3.66002	5.25621	-2.78926	-3.52167	-1.38372	-12.3831	-0.205712	0.635366
0.7967	0.544638	1.55411	-1.21378	7.39215	0.53324	1.09004	0.750741	-7.49502	2.84569	0.635366
0.7973	1.78245	3.37683	0.616229	9.8369	1.7638	3.52167	1.97254	-5.36433	3.14569	0.635366
0.7980	1.78245	1.55411	0	10.4417	0.53324	1.09004	2.28166	-5.66513	1.01142	0.635366
0.7987	0.247563	-1.49655	-3.0438	8.00333	-1.88685	-3.18627	-0.161925	-6.56754	-2.03998	0.635366
0.7993	0.247563	-1.80353	-3.66002	7.70096	-1.88685	-3.52167	-1.38372	-5.96594	-2.95712	0.635366
0.8000	1.13879	1.24712	-0.915006	14.72	0.861388	-0.167699	2.8852	-2.30616	-0.205712	0.635366
0.8007	1.78245	2.76286	0.298777	26.3132	2.70722	1.67699	4.71053	0.752009	1.61999	0.635366
0.8013	1.48538	1.86109	-0.915006	34.2458	1.14852	0.167699	1.66341	0.150402	0.702851	0.635366
0.8020	0.247563	-1.18956	-3.66002	35.1658	-2.50213	-2.59933	-1.38372	-2.90777	-1.43142	0.635366
0.8027	0.247563	-1.80353	-3.9588	32.1098	-2.50213	-2.59933	-1.69285	-2.30616	-1.73141	0.635366
0.8033	0.841713	0.633155	-1.53123	19.9054	0.53324	0.754644	1.35428	1.05281	-0.82285	0.635366
0.8040	0.841713	1.55411	-0.298777	-1.76279	1.47667	3.52167	4.107	2.28109	-0.514281	0.635366
0.8047	0.544638	0.633155	-1.53123	-8.17061	0.53324	2.30586	2.8852	1.98029	-1.12285	0.317683
0.8053	0.841713	-1.49655	-3.66002	4.95383	-1.88685	-1.67699	-1.07459	1.05281	-1.12285	0.635366
0.8060	0.841713	-2.11052	-3.36125	8.00333	-1.88685	-2.30586	-1.69285	1.05281	0.0942849	0.635366
0.8067	-0.693176	1.24712	-2.74502	-16.412	1.14852	1.09004	-1.07459	4.11098	1.31999	0.317683
0.8073	-1.28733	3.37683	-3.36125	-41.1297	2.37907	2.30586	-2.00198	5.94087	1.01142	0.317683
0.8080	-0.0495125	1.86109	-1.83001	-37.7714	0.861388	0.754644	-0.471053	4.41178	0.402854	0.317683
0.8087	0.247563	-1.49655	-2.74502	-28.0052	-1.59972	-2.30586	-1.07459	1.65442	-1.43142	0.317683
0.8093	-0.0495125	-2.4175	-4.27625	-26.7893	-2.50213	-2.30586	-2.29639	1.05281	-2.03998	0.635366
0.8100	-0.346588	0.633155	-1.53123	-23.431	-0.0410185	0.167699	-1.07459	2.5819	-0.82285	-0.317683
0.8107	-1.5844	2.76286	0.915006	-16.1032	1.14852	1.09004	-0.780182	2.8827	0.0942849	-0.95305
0.8113	-0.346588	1.86109	0	-7.86823	0.53324	0.754644	-0.161925	4.41178	1.01142	0
0.8120	0.544638	-0.901766	-3.66002	-3.89873	-1.88685	-2.30586	-2.00198	4.71259	1.61999	0.95305
0.8127	-0.346588	-0.594782	-3.66002	-1.15161	-1.88685	-2.8928	-3.82731	-1.07788	2.84569	0.635366
0.8133	-0.693176	3.68381	-0.616229	6.16977	0.861388	1.09004	-0.471053	-11.4556	5.89709	0.635366
0.8140	-0.990251	4.91175	-0.298777	7.39215	1.47667	2.59933	2.28166	-21.2317	7.42279	0.635366
0.8147	-0.990251	3.37683	-1.53123	1.28671	0.246111	0.754644	1.35428	-26.4206	6.19709	0.317683
0.8153	-0.990251	0.0191865	-4.27625	-2.67636	-2.215	-2.59933	-1.69285	-14.8146	0.402854	0.635366
0.8160	-0.0495125	-8.82579	2.44624	-1.76279	-2.50213	-2.59933	-1.38372	16.9202	-4.48282	0.635366
0.8167	-0.0495125	-21.3354	14.9575	0.984333	0.53324	1.67699	1.97254	37.6756	-4.78282	0.317683
0.8173	-0.693176	-30.1996	9.76629	1.59552	2.37907	3.2282	2.28166	32.186	-4.48282	0.317683
0.8180	-0.693176	-32.9432	-3.36125	1.28671	0.861388	1.38351	1.35428	20.58	-1.12285	0.635366
0.8187	-0.693176	-32.6362	-7.93628	0.070769	-1.88685	-2.59933	-1.69285	12.9596	0.402854	0.317683
0.8193	0.544638	-43.0162	-11.5963	-0.238041	-2.215	-3.18627	-3.22377	8.99904	-0.205712	0.317683
0.8200	2.3766	-42.7092	-14.6401	12.2752	0.53324	0.167699	0.132484	9.29984	0.702851	0.635366
0.8207	3.31734	15.2725	-14.3413	42.4872	2.37907	1.97046	2.8852	11.1297	0.702851	0.317683
0.8213	1.13879	64.4091	-19.8314	73.3103	0.861388	0.167699	1.35428	11.4305	-0.514281	0.317683
0.8220	-2.52514	45.4912	-29.0001	84.91	-1.88685	-3.52167	-2.29639	5.33926	-2.95712	0.635366
0.8227	-1.5844	21.393	-28.6826	78.8045	-1.59972	-2.8928	-2.91464	-1.07788	-3.87425	0.635366
0.8233	2.07953	13.4497	-32.0439	74.2239	1.14852	1.97046	-0.471053	4.11098	-0.82285	0.317683
0.8240	1.78245	12.5288	-40.8952	75.1439	2.37907	3.52167	1.97254	14.7895	1.61999	0.635366
0.8247	-2.17855	13.7567	-1.53123	65.6801	0.53324	1.09004	1.35428	24.5656	-1.12285	0.635366
0.8253	-3.11929	-1.49655	60.129	46.1479	-1.88685	-2.30586	-2.00198	31.8852	-3.87425	0.317683
0.8260	0.544638	-17.6708	57.9815	26.9244	-1.59972	-2.30586	-2.60551	27.5987	-2.95712	0.635366
0.8267	2.67368	-16.155	22.8938	-36.8578	1.47667	1.38351	-1.69285	15.717	-3.87425	0.635366
0.8273	2.3766	-13.7184	4.57503	-140.316	2.37907	3.2282	-0.780182	6.54248	-8.14279	0.635366
0.8280	0.247563	-23.4843	0	-161.675	0.53324	1.67699	0.132484	-1.07788	-8.75135	0.317683
0.8287	-2.17855	-35.9939	2.12879	-95.4546	-1.88685	-1.67699	-3.22377	-13.2855	-6.92565	0.635366
0.8293	-1.88148	-22.8703	3.9588	-44.488	-1.88685	-1.67699	-3.82731	-19.076	-6.92565	0.635366
0.8300	-0.990251	20.779	2.74502	-20.3815	0.53324	1.67699	-0.471053	-15.717	-6.31709	0.635366
0.8307	-0.990251	32.6746	1.83001	-2.98517	2.37907	3.2282	1.66341	-12.0572	-4.48282	0.635366
0.8313	0.247563	-4.5472	2.44624	3.12027	0.861388	2.30586	1.05987	-8.39743	-5.09138	0.317683
0.8320	0.841713	-36.8957	0.298777	8.30571	-7.67046	0.167699	-1.07459	-6.86835	-6.92565	0.317683
0.8327	0.247563	-49.7122	-2.12879	7.70096	-15.9152	0.167699	-2.91464	-6.86835	-4.48282	0.317683
0.8333	0.247563	-51.8611	-0.915006	-33.4995	-17.761	0.167699	-1.69285	-3.50937	-1.43142	0.317683
0.8340	-0.0495125	-53.9908	-1.53123	-73.1752	-16.8586	-1.97046	-0.161925	2.8827	-6.31709	0.317683
0.8347	0.247563	-23.7721	-1.53123	-42.3521	-15.0128	-4.10862	-3.51818	13.862	-14.5542	-0.317683
0.8353	1.48538	49.7698	2.74502	12.2752	-11.3621	-5.03096	-8.09623	36.4474	-17.9056	-0.635366
0.8360	1.48538	82.7322	4.27625	37.3017	-4.92222	-3.52167	-5.0491	56.3004	-14.2456	0.635366
0.8367	0.841713	55.2571	0.616229	42.796	3.28148	-1.38351	1.35428	34.9433	-9.36849	0.635366
0.8373	-0.0495125	19.5511	-0.915006	42.4872	10.9109	0.461171	2.57607	-6.86835	-4.48282	0.317683
0.8380	-0.693176	-9.13278	-1.21378	45.8455	14.6026	0.754644	0.441613	-21.2317	6.80566	0.635366
0.8387	1.13879	-13.1044	-5.19126	38.5177	13.372	-2.30586	-1.07459	-21.2317	19.0198	0.635366
0.8393	1.48538	-28.6646	-7.32005	23.5661	13.9873	-4.40209	1.66341	-22.1341	24.5141	0.317683
0.8400	-0.0495125	-126.938	-8.85128	23.8749	16.4074	-2.30586	5.32879	-20.605	25.4226	0.635366
0.8407	1.13879	-173.619	-23.4914	5.55859	13.9873	0.167699	1.66341	-16.9453	22.6798	-0.635366
0.8413	4.80272	-54.2978	-31.4277	-33.8083	8.49083	-0.461171	-4.44557	-12.3831	16.2684	-1.27073
0.8420	6.63468	80.5833	-12.5113	-39.9073	1.47667	-5.32443	-3.22377	-16.0429	10.7742	0.317683
0.8427	5.74345	116.903	1.21378	-28.0052	-2.78926	-7.16912	-0.161925	-22.1341	8.03136	0.95305
0.8433	1.78245	90.3493	-3.36125	-38.0802	-1.59972	-2.30586	1.35428	-7.79582	5.58852	0.317683
0.8440	-2.52514	59.2287	-12.8101	-56.3901	-0.656296	2.8928	4.107	14.1879	2.53712	0.317683
0.8447	-4.01052	37.855	-14.9575	-58.2172	0.246111	2.30586	4.41613	7.46995	0.702851	0.635366
0.8453	-3.71344	14.3707	-2.44624	-49.0622	2.09194	-1.67699	0.132484	-19.076	-0.205712	0.635366
0.8460	-4.3571	-9.43976	15.8726	-42.3521	4.22491	-0.754644	-1.69285	-23.3624	0.702851	0.635366
