MR32 ASCII
Name	TYR15_slow
Frequency	1500
Date	11-09-2015 09:36:02
"Time,s"	"RT TIB.ANT.,uV"	"RT MED. GASTRO,uV"	"RT LAT. GASTRO,uV"	"RT BICEPS FEM.,uV"	"RT VMO,uV"	"RT VLO,uV"	"RT RECTUS FEM.,uV"	"RT SOLEUS,uV"	"RT SEMITEND.,uV"	"Channel 12,uV"
0.0000	2.50999	3.19908	6.08637	3.69675	-420.622	4.54997	3.05797	2.18719	4.45817	-8082.05
0.0007	2.2147	2.89917	5.45773	3.37422	-400.163	3.93177	3.36523	2.79673	4.7632	-10531.5
0.0013	1.9194	2.59925	5.45773	3.07649	-380.652	3.93177	3.36523	2.47403	4.7632	-9585.26
0.0020	1.9194	2.59925	5.45773	3.37422	-362.348	3.93177	3.05797	2.47403	4.7632	-9782.93
0.0027	1.9194	2.59925	5.17199	3.37422	-344.647	3.93177	3.05797	2.18719	4.45817	-9881.6
0.0033	1.9194	2.59925	4.85767	3.07649	-326.314	3.93177	3.05797	2.18719	4.15313	-9785.5
0.0040	1.9194	2.59925	4.85767	3.07649	-309.849	3.63503	3.05797	2.18719	4.15313	-9814.75
0.0047	1.9194	2.59925	4.85767	2.77877	-293.671	3.63503	3.05797	2.18719	4.15313	-9815.39
0.0053	1.9194	2.29934	4.54335	2.77877	-276.574	3.3383	3.05797	2.18719	4.15313	-9815.39
0.0060	1.5872	2.29934	4.54335	2.77877	-260.396	3.3383	3.05797	2.47403	3.8481	-9785.82
0.0067	1.5872	1.97443	4.2576	2.77877	-246.977	3.01683	2.75071	1.86449	3.8481	-9876.46
0.0073	1.5872	2.29934	4.2576	2.77877	-234.161	3.01683	2.75071	1.25494	3.8481	-9800.6
0.0080	1.9194	2.29934	4.54335	2.77877	-220.11	3.3383	2.75071	1.86449	3.8481	-9568.23
0.0087	1.29191	1.3746	3.0289	1.56306	-206.403	2.10189	1.82893	1.25494	2.32294	-10519.3
0.0093	1.29191	2.59925	5.17199	3.37422	-193.271	3.93177	3.67249	3.08358	5.06823	-8328.25
0.0100	2.50999	2.89917	5.77205	3.69675	-179.536	3.63503	5.50142	3.40628	6.61686	-1728.84
0.0107	-2.36234	-4.42373	-7.94371	-7.59199	-166.72	-6.13257	-7.62297	-4.8405	-10.1834	109.278
0.0113	5.86894	13.5711	26.5171	22.3046	-153.904	21.6371	19.2257	16.8163	27.3591	-229.805
0.0120	3.13749	-9.62223	-21.3737	-21.337	-138.33	-23.2197	-9.4519	-16.4218	-18.4193	-32.1405
0.0127	-78.6586	-144.508	-278.659	-239.842	-125.514	-224.63	-232.537	-165.653	-310.476	66.2094
0.0133	-141.224	-215.913	-409.559	-346.353	-118.503	-319.858	-390.922	-226.715	-474.349	-29.5693
0.0140	-123.543	-187.221	-356.153	-299.958	-110.256	-282.914	-419.615	-191.289	-415.149	-0.321405
0.0147	-112.248	-178.074	-339.694	-288.049	-100.486	-277.128	-474.234	-185.803	-393.468	-0.321405
0.0153	-112.248	-174.4	-330.836	-281.052	-91.0323	-274.383	-479.428	-180.604	-385.843	-0.321405
0.0160	-104.312	-163.128	-309.462	-261.502	-82.182	-261.549	-426.33	-168.414	-361.745	-0.321405
0.0167	-99.4029	-154.581	-294.518	-247.484	-73.3316	-251.188	-355.529	-160.776	-343.42	-0.321405
0.0173	-98.8123	-144.184	-278.344	-233.441	-63.2744	-237.761	-253.592	-153.139	-325.728	-0.321405
0.0180	-94.8259	-133.812	-263.4	-220.317	-58.3894	-224.927	-147.09	-144.605	-308.036	-0.321405
0.0187	-89.6582	-124.964	-249.656	-207.49	-63.2744	-214.566	-99.4791	-136.681	-290.32	-0.321405
0.0193	-87.2221	-115.192	-236.826	-198.632	-65.7168	-204.798	-101.015	-129.941	-275.679	-0.321405
0.0200	-76.8499	-108.194	-227.082	-190.718	-62.3549	-191.074	-134.887	-123.845	-265.613	-0.321405
0.0207	-76.8499	-102.396	-213.937	-176.055	-57.7573	-165.431	-206.903	-116.817	-243.932	0
0.0213	-67.9911	-92.6234	-200.222	-164.468	-51.062	-139.788	-255.435	-111.331	-219.835	-0.321405
0.0220	-3.58042	-99.3464	-190.763	-153.477	-44.0219	-147.429	-278.626	-108.284	-236.306	-0.321405
0.0227	40.9719	-73.079	-180.677	-147.672	-36.0911	-95.228	-183.405	-103.407	-148.128	0
0.0233	33.0359	20.5941	-168.161	-136.085	-25.1143	49.4068	41.8166	-99.4275	70.3921	-0.321405
0.0240	30.895	64.2315	-142.244	-28.0606	-12.902	104.946	126.342	-89.9616	144.538	-0.321405
0.0247	32.7406	49.8857	-122.699	94.6269	-2.52868	81.7512	93.685	-84.1888	110.985	-0.321405
0.0253	30.5997	49.5857	-77.2369	101.946	6.92512	83.2843	96.743	-79.5993	114.95	-0.321405
0.0260	29.6769	50.8104	56.749	86.3899	15.7755	83.6058	98.2646	-10.9359	114.95	-0.321405
0.0267	29.3816	47.7613	138.215	90.9798	25.5454	79.3278	92.7779	69.0219	109.155	0
0.0273	28.7541	47.4613	120.527	87.9281	34.0797	78.0914	91.5488	73.0019	107.63	0
0.0280	28.1635	46.2367	115.327	84.8764	38.0451	76.2615	89.7199	62.6038	104.861	-0.321405
0.0287	27.2408	45.0121	117.47	83.3382	37.4416	74.4316	87.2765	65.6515	102.115	-0.321405
0.0293	26.6133	44.0873	111.984	81.5022	33.4762	72.6018	85.4475	63.536	99.9803	-0.321405
0.0300	26.0227	42.8877	109.24	79.0708	28.5913	70.4751	83.6186	61.7074	97.54	0
0.0307	25.3952	41.663	106.783	76.9371	18.8214	68.6453	81.7897	60.4883	95.0997	0
0.0313	24.8046	41.0382	104.354	75.3989	7.52856	66.8154	79.6535	58.6238	92.6595	0
0.0320	24.1771	40.1385	101.611	73.5629	4.48265	65.2822	77.8245	57.1179	90.5242	0
0.0327	23.8818	38.9138	99.1536	71.7517	5.08609	63.4524	75.9956	55.8988	88.389	0.321405
0.0333	22.959	37.9891	96.7247	69.9158	4.1953	61.9192	74.4593	54.357	86.2538	0.321405
0.0340	22.3315	37.0893	94.2673	68.0798	9.36759	60.4108	72.6304	52.8511	84.1186	0
0.0347	22.0362	36.1646	92.1528	66.5415	10.6032	58.8777	70.8015	51.9188	81.9833	0
0.0353	21.7409	35.5648	90.0097	65.0281	-1.60916	57.6412	69.2798	51.0225	80.1531	0
0.0360	20.8181	34.64	87.2666	63.1921	-7.09753	56.1328	67.4509	49.1938	78.0179	-0.321405
0.0367	20.2276	33.4154	84.8092	61.3562	3.87922	54.303	65.9146	47.3652	76.1877	-0.321405
0.0373	19.8953	32.8156	83.2947	60.4382	22.4995	53.388	65.0074	46.7556	74.6626	0.321405
0.0380	19.6001	32.1907	81.1516	58.9247	40.4875	52.1516	63.7784	46.1461	72.8324	0.321405
0.0387	19.0095	30.9661	79.0085	57.0888	51.493	50.3217	61.9495	45.2139	71.0022	0
0.0393	18.382	30.3663	76.894	55.5753	58.5044	49.11	60.4278	43.9948	69.172	0
0.0400	17.7545	29.7664	75.0652	54.6574	66.4352	47.8984	59.2134	43.0625	67.3418	0
0.0407	17.4592	28.8417	73.5222	53.4416	76.8085	46.9834	57.6771	41.8434	65.8166	-0.321405
0.0413	17.1639	28.2169	71.6935	51.9034	83.8199	45.747	56.4627	40.947	64.2915	0
0.0420	16.8686	27.6171	69.5504	50.39	86.5784	44.5353	55.2336	40.0148	62.7663	0
0.0427	16.2411	27.0172	68.0359	49.472	89.337	43.6204	53.712	38.7957	60.9361	-0.321405
0.0433	15.9458	26.3924	66.2071	47.9337	89.6243	42.384	52.1903	37.5766	59.4109	-0.321405
0.0440	15.3183	25.4927	64.3784	46.718	91.7794	40.8756	51.5758	36.9671	58.1908	0
0.0447	15.023	25.1678	63.1497	45.8	101.837	39.9606	50.3614	36.3575	56.9707	0
0.0453	14.7277	24.8678	61.6352	44.882	103.676	39.3424	49.1323	35.4611	55.4221	0
0.0460	14.3955	24.268	60.0922	43.6663	91.1473	38.1308	48.2252	34.5289	54.2019	0
0.0467	14.3955	23.3433	58.5778	42.7484	78.6476	37.2158	46.9961	33.9194	52.6768	0
0.0473	13.5096	22.4186	56.749	41.2349	69.1938	35.9794	45.4745	32.4134	51.1516	-0.321405
0.0480	13.1774	22.1186	55.5203	40.3169	61.2629	35.0645	44.5527	31.4812	49.9315	-0.321405
0.0487	13.5096	22.1186	54.6059	39.9944	57.2688	34.7677	43.9528	31.1585	49.0164	0
0.0493	12.8821	21.2189	52.7771	38.481	57.2688	33.2346	42.7238	30.5489	47.7962	0
0.0500	12.2916	20.5941	51.5484	37.2653	59.4239	32.3197	41.8166	29.9394	46.5761	-0.321405
0.0507	12.2916	20.2942	50.634	36.645	59.7112	32.0229	41.2021	29.3298	45.661	0
0.0513	11.9594	19.6943	49.4053	36.0247	59.4239	31.108	40.2803	28.4335	44.4409	0
0.0520	11.6641	19.0695	47.8909	34.809	58.8204	30.193	39.0659	27.8239	43.2208	0
0.0527	11.3688	18.4697	46.6622	33.5933	57.2688	29.2781	38.1441	27.2144	42.0006	0
0.0533	11.0735	18.1698	45.4621	32.973	56.378	28.6599	37.5442	26.6048	41.0855	0
0.0540	10.7413	17.8449	44.5477	32.0799	56.0619	28.0417	36.9297	26.2821	40.4755	0.321405
0.0547	10.446	17.245	43.319	31.4596	55.4585	27.1267	35.7153	25.3857	39.2553	0.321405
0.0553	10.446	16.9451	42.4046	30.8394	53.9355	26.5333	34.7935	24.4535	38.0352	0
0.0560	10.1507	16.6202	41.4902	30.2439	50.2574	25.9151	33.8717	24.1666	37.1201	0
0.0567	9.81848	16.0204	40.2615	29.3259	49.3379	25.2969	33.2719	23.5571	36.51	0
0.0573	9.52319	15.7205	39.3471	28.4079	50.2574	24.7034	32.6573	23.2344	35.5949	0
0.0580	9.52319	15.4206	38.4327	27.7877	48.7345	24.0852	32.0428	22.6249	34.6798	0
0.0587	9.2279	15.0957	37.5183	27.1922	50.2574	23.467	31.1357	22.0153	33.4597	0
0.0593	8.9326	14.7957	36.2896	26.572	41.7232	22.552	30.2139	21.4058	32.8496	-0.321405
0.0600	8.9326	14.4958	35.3752	25.654	54.2229	21.9586	29.3067	20.7962	31.9346	-0.321405
0.0607	8.6004	14.1959	34.7752	25.0585	124.106	21.6371	28.6922	20.1867	31.3245	-0.321405
0.0613	8.30511	13.5711	33.5465	24.1405	163.789	20.7222	28.385	20.1867	30.4094	0
0.0620	8.00981	13.2712	32.9464	23.818	151.577	20.1287	27.7704	19.5771	29.7993	0
0.0627	8.00981	12.9713	32.032	23.5203	147.611	20.1287	27.1706	19.2903	29.1893	0
0.0633	8.00981	12.9713	31.4034	22.9248	146.692	19.5105	26.2488	18.6807	28.2742	-0.321405
0.0640	7.71452	12.3714	30.489	22.3046	141.807	18.8923	25.6343	18.358	27.6641	0
0.0647	7.08702	12.0465	29.5746	21.6843	138.445	18.2741	25.327	18.0353	27.054	0.321405
0.0653	7.08702	11.7466	29.2889	21.0889	135.399	17.9773	24.7271	17.7485	26.444	0.321405
0.0660	6.79173	11.4467	28.3459	20.4686	132.037	17.3591	24.1126	17.139	25.5289	0
0.0667	6.16424	10.522	27.1458	19.2529	128.991	16.4442	23.1908	15.9199	24.3087	-0.321405
0.0673	6.49644	10.8219	26.8315	19.2529	126.261	16.4442	22.5909	15.5972	24.3087	-0.321405
0.0680	6.79173	11.1468	26.5171	19.5506	123.819	16.4442	22.5909	15.9199	24.0037	0.321405
0.0687	6.49644	10.522	25.6028	18.6326	120.457	15.8507	22.2837	15.5972	23.0886	0.321405
0.0693	6.16424	10.2221	25.0027	18.0372	117.411	15.5293	21.6691	14.9876	22.4785	0
0.0700	6.16424	10.2221	24.4026	17.7146	114.652	15.2325	21.0546	14.7008	22.1735	0
0.0707	5.86894	9.62223	23.774	17.1192	111.923	14.6143	20.762	14.7008	21.5634	0.321405
0.0713	5.86894	9.62223	23.1739	16.8215	109.48	14.0208	20.1475	14.3781	20.9534	0.321405
0.0720	5.57365	9.29733	22.5739	16.4989	106.406	13.6994	19.533	13.4817	20.0383	-0.321405
0.0727	5.57365	8.99741	21.9452	15.9035	103.963	13.4026	18.9184	13.159	20.0383	-0.321405
0.0733	5.57365	8.99741	21.6595	15.5809	101.837	13.1059	18.6258	13.159	19.4282	0
0.0740	5.24145	8.6975	21.0308	15.2832	99.3942	12.4877	18.3185	13.159	19.1232	0.321405
0.0747	5.24145	8.39758	20.4308	14.9855	97.2678	12.4877	18.0113	12.8721	18.5131	0.321405
0.0753	4.94615	8.39758	19.8021	14.3652	94.8253	12.191	17.704	12.2626	18.2081	0
0.0760	4.94615	8.39758	19.5164	14.0675	92.9863	11.8695	17.0895	11.9399	17.598	-0.321405
0.0767	4.65086	8.09767	18.8878	14.0675	90.5438	11.5728	16.7822	11.6531	16.988	-0.321405
0.0773	4.65086	7.47285	18.602	13.4472	88.4174	10.9546	16.1824	11.3304	16.6829	0
0.0780	4.94615	7.47285	18.2877	13.1495	86.5784	10.9546	16.1824	11.3304	16.3779	0.321405
0.0787	4.65086	7.47285	17.6876	12.8518	84.452	10.6578	15.8751	11.0435	16.0729	0
0.0793	4.35557	7.17294	17.059	12.5293	82.2969	10.3611	15.2606	10.7208	15.4628	0
0.0800	4.02336	6.87302	16.4589	11.9338	80.1705	10.0396	14.9533	10.7208	15.1578	0
0.0807	4.35557	6.87302	16.4589	11.9338	78.6476	10.0396	14.6461	10.434	14.8527	0
0.0813	4.35557	6.87302	16.1446	11.6113	77.1246	9.74288	14.3534	10.1113	14.5477	0
0.0820	4.02336	6.57311	15.5445	11.3136	74.9695	9.44614	13.7389	9.82442	13.9376	0
0.0827	3.72807	6.2482	15.2302	11.0158	72.8431	9.12468	13.7389	9.82442	13.6326	0
0.0833	3.72807	5.94829	14.6302	10.3956	71.3202	8.5312	13.1244	9.21488	13.0225	0
0.0840	3.43278	5.64838	14.0301	10.0978	69.4811	8.20974	12.8171	9.21488	12.7175	-0.321405
0.0847	3.43278	5.64838	14.0301	10.0978	67.9582	8.20974	12.5099	9.21488	12.7175	0
0.0853	3.72807	5.94829	14.0301	10.0978	66.7513	8.20974	12.8171	8.89218	12.4125	0
0.0860	3.72807	5.94829	13.4014	9.80012	65.2283	7.913	12.5099	8.60533	12.1074	0
0.0867	3.72807	5.34846	13.0871	9.47758	63.3893	7.913	11.91	8.28263	11.8024	0
0.0873	3.43278	5.34846	12.8014	9.47758	61.8664	7.61626	11.91	8.60533	11.8024	0.321405
0.0880	3.13749	5.02355	12.1727	8.88213	60.3434	6.99806	11.6027	8.28263	11.1923	0
0.0887	3.43278	5.02355	12.1727	8.5596	59.1078	6.99806	10.9882	7.99579	10.8873	0
0.0893	3.13749	4.72364	11.887	8.26187	57.5848	6.70132	10.9882	7.67309	10.5823	0
0.0900	3.13749	4.72364	11.5727	8.26187	56.378	6.70132	10.6809	7.67309	10.2772	0
0.0907	3.13749	4.72364	11.5727	8.26187	55.1424	6.70132	10.3737	7.67309	10.2772	0.321405
0.0913	2.80528	4.42373	10.9726	7.96414	53.6194	6.37985	10.0811	7.38624	9.97221	0
0.0920	2.80528	4.12381	10.6583	7.66642	52.4126	6.08312	9.77379	7.06354	9.36215	-0.321405
0.0927	2.80528	4.12381	10.344	7.34388	51.493	6.08312	9.77379	7.06354	9.36215	0.321405
0.0933	2.50999	4.12381	10.0582	7.04616	49.9701	5.76165	9.46653	6.7767	9.05712	0
0.0940	2.50999	3.8239	9.74391	7.04616	48.7345	5.46491	8.85201	6.454	8.44705	-0.321405
0.0947	2.50999	3.8239	9.74391	6.74843	47.815	5.46491	8.85201	6.454	8.44705	0
0.0953	2.50999	3.8239	9.42959	6.74843	46.6081	5.46491	9.15927	6.454	8.44705	0
0.0960	2.2147	3.8239	8.82952	6.4259	45.3725	4.84671	8.54475	6.16716	8.14202	-0.321405
0.0967	1.9194	3.49899	8.51521	5.83045	44.1656	4.54997	7.94486	5.55761	7.53196	-0.321405
0.0973	2.2147	3.49899	8.82952	6.12817	43.5622	4.84671	8.23749	5.55761	7.83699	0
0.0980	2.50999	3.49899	8.82952	6.4259	42.3266	4.84671	8.54475	6.16716	7.53196	0.321405
0.0987	2.2147	3.19908	8.22946	5.83045	41.4071	4.54997	7.94486	5.84446	7.22692	0
0.0993	2.2147	3.49899	8.22946	5.83045	40.4875	4.54997	7.6376	5.55761	7.22692	0
0.1000	2.2147	3.19908	7.91514	5.83045	39.2807	4.25324	7.6376	5.55761	6.92189	0
0.1007	2.2147	3.19908	7.91514	5.50791	38.3612	4.25324	7.33034	5.23491	6.61686	0
0.1013	2.2147	3.19908	7.60082	5.21019	37.1543	3.93177	7.33034	5.23491	6.61686	0
0.1020	1.5872	2.59925	7.31508	4.91246	36.5221	3.63503	7.33034	5.23491	6.31183	0
0.1027	2.2147	2.89917	7.60082	5.21019	36.2348	3.93177	6.71582	4.62537	6.00679	-0.321405
0.1033	2.2147	2.89917	7.31508	5.21019	35.3153	3.93177	6.40856	4.62537	5.70176	-0.321405
0.1040	1.9194	2.89917	6.68644	4.61474	34.0797	3.63503	6.71582	4.94807	6.00679	0
0.1047	1.9194	2.89917	6.68644	4.91246	33.4762	3.63503	6.71582	4.94807	6.00679	0
0.1053	1.9194	2.59925	6.68644	4.91246	32.5567	3.3383	6.40856	4.94807	5.70176	0
0.1060	1.5872	2.29934	6.40069	4.61474	31.6372	3.3383	6.40856	4.62537	5.70176	0
0.1067	1.5872	2.59925	6.08637	4.61474	31.0338	3.3383	6.1013	4.62537	5.37326	0
0.1073	1.5872	2.59925	6.40069	4.2922	30.4303	3.3383	5.80868	4.30267	5.06823	0
0.1080	1.5872	2.59925	6.08637	3.99448	29.8269	3.01683	5.80868	4.30267	5.06823	0
0.1087	1.29191	2.29934	5.77205	3.99448	28.5913	2.72009	5.80868	4.30267	5.06823	0.321405
0.1093	1.29191	1.97443	5.45773	3.69675	27.6718	2.42336	5.50142	4.01582	4.7632	0
0.1100	1.5872	2.29934	5.45773	3.99448	27.3844	2.72009	5.50142	4.01582	4.7632	0
0.1107	1.5872	2.29934	5.45773	3.99448	27.0683	2.72009	5.50142	4.01582	4.7632	0.321405
0.1113	1.5872	2.29934	5.17199	3.69675	26.1488	2.72009	5.50142	4.01582	4.45817	0
0.1120	1.29191	1.97443	5.17199	3.69675	25.2293	2.42336	4.8869	3.69312	4.15313	0
0.1127	1.5872	1.97443	5.17199	3.69675	24.9419	2.72009	4.8869	3.69312	4.15313	-0.321405
0.1133	1.5872	2.29934	5.17199	3.37422	24.3098	2.72009	5.19416	3.69312	4.15313	-0.321405
0.1140	1.29191	1.97443	4.85767	3.37422	23.419	2.42336	4.8869	3.40628	3.8481	-0.321405
0.1147	1.29191	1.97443	4.85767	3.37422	23.1029	2.42336	4.57964	3.69312	3.8481	0
0.1153	1.5872	2.29934	4.54335	3.37422	22.7868	2.42336	4.57964	3.40628	3.54307	0
0.1160	1.29191	1.97443	4.2576	2.77877	21.896	2.10189	4.27238	3.40628	3.54307	0
0.1167	0.996613	1.67452	4.2576	2.77877	21.2639	2.10189	4.27238	3.40628	3.54307	0
0.1173	0.996613	1.67452	4.2576	2.77877	20.9765	2.10189	4.57964	3.40628	3.54307	0
0.1180	0.996613	1.67452	3.94328	2.77877	20.3443	1.80515	4.27238	3.40628	3.23804	0
0.1187	0.996613	1.3746	3.94328	2.77877	19.7409	1.80515	4.27238	3.08358	3.23804	0
0.1193	0.996613	1.3746	3.62896	2.45623	19.4536	1.80515	3.96512	3.08358	2.933	0
0.1200	0.664409	1.3746	3.62896	2.45623	18.8214	1.50842	3.96512	3.08358	2.933	0
0.1207	0.996613	1.3746	3.62896	2.45623	18.218	1.80515	3.96512	2.79673	2.933	0
0.1213	0.664409	1.3746	3.62896	2.45623	17.9019	1.80515	3.67249	2.79673	2.62797	0
0.1220	0.664409	1.07469	3.34322	2.15851	17.2984	1.50842	3.36523	2.79673	2.32294	-0.321405
0.1227	0.664409	1.07469	3.0289	2.15851	16.695	1.18695	3.67249	2.79673	2.62797	0
0.1233	0.664409	1.07469	3.0289	1.86078	16.3789	1.50842	3.67249	2.47403	2.62797	0
0.1240	0.664409	1.3746	3.34322	2.15851	16.0916	1.80515	3.36523	2.47403	2.32294	-0.321405
0.1247	0.996613	1.3746	3.0289	2.15851	15.7755	1.50842	3.36523	2.47403	2.01791	0
0.1253	0.996613	1.3746	3.0289	2.15851	15.4594	1.50842	3.36523	2.47403	2.01791	0
0.1260	0.664409	1.07469	2.71458	1.86078	14.856	1.50842	3.36523	2.18719	2.01791	0
0.1267	-0.22147	0.449871	2.11451	1.24052	14.2525	0.593475	2.75071	1.86449	1.40784	-0.321405
0.1273	0.369116	1.07469	2.42883	1.56306	14.2525	1.18695	2.44345	1.86449	1.40784	-0.321405
0.1280	1.29191	1.3746	3.0289	1.86078	14.2525	1.80515	3.36523	2.47403	2.01791	0.321405
0.1287	0.664409	1.07469	2.71458	1.56306	13.6491	1.18695	3.36523	2.47403	2.01791	0.321405
0.1293	0.369116	1.07469	2.42883	1.56306	13.333	1.18695	2.75071	2.18719	1.40784	0
0.1300	0.664409	1.07469	2.71458	1.56306	12.7296	1.18695	2.75071	1.86449	1.40784	0
0.1307	0.369116	0.774777	2.11451	1.24052	12.4135	0.593475	2.75071	1.86449	1.40784	-0.321405
0.1313	0.0738232	0.774777	2.11451	1.24052	12.1262	0.593475	2.75071	1.86449	1.40784	0
0.1320	0.369116	0.774777	2.11451	1.24052	11.494	0.890212	2.75071	2.18719	1.40784	0
0.1327	0.369116	0.774777	2.11451	1.24052	11.2066	0.890212	2.75071	1.86449	1.40784	0
0.1333	0.369116	0.449871	1.80019	0.942796	11.2066	0.890212	2.44345	1.57764	1.10281	-0.321405
0.1340	0.369116	0.449871	1.80019	1.24052	10.8905	0.890212	2.13619	1.57764	1.10281	-0.321405
0.1347	0.369116	0.774777	1.80019	1.24052	9.68368	0.890212	2.13619	1.57764	1.10281	0
0.1353	0.369116	0.774777	1.80019	0.942796	12.7296	0.890212	2.13619	1.86449	1.10281	0
0.1360	0.0738232	0.449871	1.80019	0.942796	9.36759	0.890212	2.13619	1.86449	0.797777	0
0.1367	-0.22147	0.449871	1.51445	0.942796	1.12066	0.593475	2.44345	1.86449	1.10281	0
0.1373	0.0738232	0.449871	1.20013	0.645071	34.7118	0.593475	2.13619	1.57764	1.10281	0
0.1380	0.0738232	0.449871	1.20013	0.942796	-45.2576	0.593475	2.13619	1.57764	0.797777	0
0.1387	0.369116	0.774777	1.80019	0.942796	-271.689	0.890212	2.13619	1.57764	0.797777	0
0.1393	0.369116	0.449871	1.51445	0.942796	-339.762	0.890212	2.13619	1.25494	0.492745	0
0.1400	0.0738232	0.449871	1.20013	0.645071	-290.309	0.593475	2.13619	1.25494	0.492745	0
0.1407	0.0738232	0.449871	1.51445	0.942796	-282.982	0.890212	1.82893	1.25494	0.492745	0
0.1413	0.369116	0.449871	1.51445	0.942796	-272.005	0.890212	1.82893	1.25494	0.492745	-0.321405
0.1420	-0.22147	0.149957	0.88581	0.322535	-255.827	0.272009	1.82893	0.9681	0.492745	-0.321405
0.1427	-0.22147	0.149957	1.20013	0.322535	-244.218	0.593475	1.82893	0.9681	0.492745	-0.321405
0.1433	0.0738232	0.149957	0.600065	0.0248104	-231.719	0.272009	1.5363	0.9681	-0.11732	0
0.1440	-0.553674	-0.149957	-0.0285745	-0.272915	-218.903	0.272009	1.5363	1.25494	-0.422353	0
0.1447	0.664409	2.89917	6.08637	4.2922	-206.403	3.63503	3.96512	3.69312	6.00679	0.321405
0.1453	-1.14426	-4.72364	-9.48674	-8.50997	-195.398	-7.04751	-2.73608	-4.5178	-10.1834	0
0.1460	-1.14426	2.29934	5.17199	5.21019	-185.944	5.46491	3.05797	6.16716	3.8481	0
0.1467	5.86894	14.7957	30.2033	21.0889	-174.651	15.5293	15.2606	11.0435	33.7647	0.321405
0.1473	-26.1703	-106.669	-217.309	-179.429	-163.042	-154.13	-87.2765	-107.065	-222.885	0
0.1480	-84.1584	-245.829	-506.312	-400.663	-156.95	-329.304	-206.596	-209.002	-536.904	-0.321405
0.1487	-111.916	-233.008	-493.796	-386.323	-150.226	-311.302	-194.393	-180.604	-528.668	0
0.1493	-125.979	-202.492	-440.076	-346.353	-141.089	-278.958	-165.408	-156.796	-467.638	-0.321405
0.1500	-141.851	-201.567	-436.733	-343.6	-132.526	-275.595	-153.806	-149.805	-465.503	-0.321405
0.1507	-150.673	-189.97	-409.273	-323.156	-124.595	-253.315	-132.136	-133.634	-438.332	0
0.1513	-143.66	-182.947	-385.47	-307.277	-118.187	-237.761	-134.273	-127.502	-413.624	0
0.1520	-167.763	-176.849	-365.611	-292.341	-111.492	-225.545	-148.011	-129.654	-393.163	-0.321405
0.1527	-220.879	-166.777	-346.409	-277.38	-103.532	-211.821	-152.284	-130.55	-372.726	0
0.1533	-231.546	-153.656	-326.55	-265.174	-94.3943	-201.139	-160.521	-121.73	-354.424	0
0.1540	-208.661	-143.884	-303.376	-249.295	-87.6703	-190.159	-148.611	-109.503	-335.184	0
0.1547	-180.608	-137.785	-286.288	-232.523	-82.4981	-178.562	-81.4824	-101.579	-315.662	0
0.1553	-147.646	-133.212	-276.516	-219.399	-76.9809	-169.388	-23.1908	-93.332	-297.055	0.321405
0.1560	-132.697	-131.687	-264	-208.705	-72.4121	-158.408	-23.4981	-82.0375	-279.034	0.321405
0.1567	-165.622	-128.938	-250.256	-198.632	-69.0501	-148.344	-49.7468	-73.7907	-263.478	-0.321405
0.1573	-116.198	-117.941	-235.311	-185.83	-63.2744	-139.195	-81.1751	-67.4084	-248.531	-0.64281
0.1580	87.665	-106.044	-216.395	-176.055	-57.1538	-127.597	-116.876	-62.2094	-232.341	0
0.1587	215.527	-102.396	-202.65	-170.572	-54.7114	-119.338	-153.498	-60.6676	-218.004	0.321405
0.1593	159.975	-100.246	-195.335	-162.335	-51.3494	-113.848	-178.518	-59.7712	-205.193	-0.321405
0.1600	10.7413	-96.2723	-188.306	-151.641	-46.7805	-107.74	-185.541	-59.1617	-191.748	0.321405
0.1607	-146.724	-93.5481	-179.162	-141.568	-43.4185	-102.251	-183.098	-64.038	-178.937	0
0.1613	-222.097	-90.7989	-166.332	-130.28	-39.1657	-95.8462	-173.646	-66.4762	-165.82	0
0.1620	-191.903	-81.3266	-151.988	-116.857	-33.6486	-88.2299	-151.362	-51.2376	-151.789	0
0.1627	-117.12	-72.4791	-139.787	-106.486	-29.3959	-81.8006	-118.105	-33.5249	-140.479	0
0.1633	-76.8499	-70.3548	-129.728	-97.9267	-26.0339	-74.8026	-87.5837	-31.0868	-130.718	0
0.1640	-60.0552	-72.4791	-118.727	-87.556	-23.5914	-65.3317	-72.0159	-28.6486	-120.652	0
0.1647	-39.6061	-75.8282	-108.04	-77.8055	-21.1489	-59.2238	-64.7002	-20.6887	-111.196	-0.321405
0.1653	-55.4781	-75.2284	-99.4965	-69.5436	-18.103	-56.1823	-59.1987	-17.3541	-102.655	0
0.1660	-80.2089	-70.6547	-90.0383	-61.3065	-14.4249	-51.6076	-57.0626	-14.5932	-94.0908	0
0.1667	-39.3108	-63.6317	-80.5801	-52.474	-10.1722	-45.4997	-50.9613	-10.6491	-84.6348	0
0.1673	31.1903	-57.8334	-74.4938	-44.8324	-7.41362	-41.2218	-42.4165	-9.10731	-76.7039	0
0.1680	44.3308	-53.5596	-70.2076	-39.0268	-6.4941	-37.2653	-37.5296	-7.88822	-69.9932	0
0.1687	40.6766	-49.2858	-65.3213	-32.9234	-5.28723	-32.9873	-34.7935	-7.88822	-62.9775	-0.321405
0.1693	62.9343	-45.9368	-62.2639	-28.3583	-3.44819	-29.6243	-32.6573	-9.43001	-56.5718	0
0.1700	54.703	-43.4875	-60.7494	-25.0089	-2.24133	-26.2613	-31.121	-8.49777	-50.4711	0
0.1707	18.6773	-40.1385	-53.4343	-18.583	0.201145	-22.008	-26.5414	-8.17507	-41.9068	0
0.1713	0.996613	-37.6892	-43.0618	-11.5617	4.1953	-17.7301	-20.1328	-10.3264	-32.7558	0.321405
0.1720	5.24145	-38.9138	-36.9468	-6.99654	5.40217	-17.1119	-18.6112	-14.9159	-26.9602	0
0.1727	2.80528	-39.8135	-31.7463	-1.81116	5.71826	-17.4086	-18.9184	-18.86	-20.8595	0
0.1733	-9.08025	-37.3892	-23.8311	4.61474	8.44808	-14.6638	-15.8605	-15.8123	-12.3186	0
0.1740	-2.36234	-36.1646	-17.4305	8.88213	11.8101	-12.5372	-13.7243	-10.0396	-4.99784	0
0.1747	1.29191	-35.2399	-12.5442	11.6113	13.9365	-11.3255	-13.1244	-6.34643	-0.422353	0
0.1753	-12.1439	-31.291	-6.11495	14.663	16.3789	-7.34425	-10.0664	-1.79278	6.00679	0
0.1760	28.1635	-27.6171	-0.628639	16.8215	18.534	-3.98123	-6.40856	2.79673	10.8873	0
0.1767	79.1015	-25.4927	2.11451	17.1192	20.057	-2.15135	-6.1013	5.84446	13.0225	-0.321405
0.1773	43.9986	-23.6432	5.17199	16.8215	20.3443	-0.321466	-6.71582	10.1113	14.8527	-0.321405
0.1780	31.4856	-21.8187	8.51521	16.8215	20.9765	1.50842	-5.48678	15.5972	16.6829	0
0.1787	45.2536	-21.2189	10.6583	16.4989	21.58	3.63503	-4.27238	15.3103	18.5131	-0.321405
0.1793	-17.939	-19.0695	10.9726	16.2012	23.1029	7.2948	-1.82893	12.5494	21.2584	-0.321405
0.1800	-62.7866	-13.5711	13.4014	18.0372	25.2293	11.5728	2.75071	13.7685	23.6987	0
0.1807	-47.5421	-9.62223	16.4589	19.2529	25.8615	14.3176	5.50142	15.9199	25.2238	0
0.1813	-45.106	-8.6975	18.602	20.1709	25.5454	15.5293	6.1013	20.1867	26.1389	0
0.1820	18.6773	-7.17294	18.8878	20.7663	24.3098	16.7657	7.6376	22.9476	27.3591	0
0.1827	145.653	-3.8239	18.2877	22.6023	23.1029	18.2741	9.77379	20.7962	30.4094	0
0.1833	174.038	-0.774777	18.602	25.3562	22.7868	19.5105	12.2172	18.0353	33.4597	0
0.1840	128.858	1.07469	22.2595	29.9214	24.6259	22.2553	16.4896	18.358	37.4251	0
0.1847	91.6146	1.3746	28.6602	34.809	27.0683	25.2969	20.762	18.6807	42.0006	0
0.1853	59.5753	-1.97443	32.3178	37.2653	27.3844	25.2969	20.762	16.5294	44.4409	0
0.1860	47.9851	-4.42373	33.8608	38.1832	27.0683	25.2969	20.762	13.7685	45.966	-0.321405
0.1867	40.3444	-3.19908	36.2896	41.2349	27.3844	25.0001	21.3619	12.5494	48.1013	-0.321405
0.1873	21.1134	-2.29934	38.747	42.4506	27.6718	25.6183	21.3619	14.7008	49.0164	-0.321405
0.1880	10.7413	-2.89917	40.8616	38.1832	28.3039	28.3632	22.2837	19.8998	49.6264	0.321405
0.1887	16.2411	-1.07469	44.5477	36.3473	28.5913	31.7014	25.327	25.9953	51.7617	0
0.1893	20.2276	1.3746	47.2908	37.563	28.9074	32.6411	26.2488	32.0907	52.6768	-0.321405
0.1900	11.9594	0.449871	47.2908	36.9427	28.9074	32.0229	24.7271	35.4611	51.4566	-0.321405
0.1907	-10.9258	0.449871	45.4621	35.4293	28.3039	33.2346	24.7271	33.9194	52.6768	0.321405
0.1913	-17.0162	3.49899	44.8334	36.3473	27.9878	35.3859	25.6343	32.4134	54.812	0
0.1920	7.38232	5.02355	44.8334	38.1832	27.6718	35.0645	24.4198	32.7003	55.7505	0
0.1927	3.13749	6.57311	45.1477	39.9944	28.3039	35.0645	24.1126	34.2421	57.2757	0
0.1933	-21.298	11.1468	46.3764	43.3686	30.1142	38.4275	27.1706	36.0707	60.021	-0.321405
0.1940	-16.0935	13.5711	45.7478	44.5843	30.1142	39.0457	28.0777	36.0707	61.5462	0
0.1947	-5.426	13.2712	43.919	43.9641	28.9074	37.2158	25.6343	35.4611	61.2411	0
0.1953	-19.4524	12.6714	43.6047	44.882	28.3039	36.3009	23.1908	34.8516	60.6311	0
0.1960	-29.234	9.29733	46.0621	46.0978	27.9878	35.9794	21.6691	30.5489	60.6311	0
0.1967	-6.93938	5.64838	48.8053	45.8	28.3039	35.3859	20.1475	24.1666	60.6311	0
0.1973	19.8953	7.17294	53.3772	47.3383	31.0338	37.8093	23.4981	24.7762	63.0713	0
0.1980	33.3312	9.62223	57.0347	50.0674	32.8728	39.0457	26.8633	28.1108	66.1217	0.321405
0.1987	38.5357	8.6975	56.1203	50.39	31.6372	36.8944	24.1126	27.2144	66.1217	0
0.1993	34.5492	8.39758	54.2916	50.39	30.7177	35.3859	21.6691	24.7762	65.2066	0
0.2000	26.0227	9.29733	53.0914	50.6877	30.4303	34.7677	21.3619	21.7285	64.5965	0
0.2007	16.8686	8.6975	51.5484	51.2831	28.9074	32.9379	20.1475	18.6807	64.2915	-0.321405
0.2013	14.1002	10.2221	53.6915	52.2011	29.1947	33.5561	22.8982	21.7285	66.1217	0
0.2020	27.536	15.0957	57.0347	53.1191	31.0338	36.8944	28.385	28.4335	68.5619	0
0.2027	35.1767	16.0204	54.9202	52.5237	29.1947	36.3009	28.0777	29.6525	66.4267	0
0.2033	15.9458	13.896	50.9484	50.9854	26.7522	33.8528	26.2488	27.5012	64.2915	0.321405
0.2040	3.13749	15.4206	50.9484	51.6057	27.3844	34.471	28.9995	28.7203	65.8166	0.321405
0.2047	20.2276	16.6202	49.4053	50.39	27.6718	34.471	30.2139	26.8917	65.2066	0.321405
0.2053	30.895	17.245	47.5766	47.636	26.4649	32.6411	28.0777	22.338	62.4613	0.321405
0.2060	20.2276	22.4186	50.3197	48.8517	27.6718	35.0645	29.3067	24.7762	63.3764	0
0.2067	19.6001	25.1678	52.4628	50.9854	28.9074	37.5126	30.8284	29.3298	63.9864	0
0.2073	33.3312	21.5188	50.9484	49.7697	27.0683	35.6827	28.0777	32.0907	61.8512	0
0.2080	-6.93938	19.9942	49.1196	48.2315	25.8615	33.8528	25.9415	34.2421	61.2411	0.321405
0.2087	-110.107	22.1186	47.5766	47.636	25.5454	33.2346	24.7271	33.023	60.9361	0
0.2093	-109.775	21.5188	45.4621	45.5023	24.6259	31.7014	22.8982	28.4335	59.4109	-0.321405
0.2100	38.831	22.1186	48.8053	45.5023	26.1488	33.2346	24.1126	27.5012	59.4109	0
0.2107	81.2424	26.6923	53.6915	47.3383	28.3039	37.2158	27.4632	29.6525	61.2411	0
0.2113	-38.3881	29.4415	50.3197	45.5023	27.0683	35.9794	26.556	29.3298	60.6311	0
0.2120	-93.3125	29.4415	44.2333	41.5326	24.0224	32.6411	22.5909	27.2144	57.8858	0
0.2127	-88.4402	30.9661	42.4046	39.6967	23.1029	32.3197	21.0546	27.8239	56.0556	0
0.2133	-74.0816	32.1907	41.7759	39.6967	24.0224	32.3197	20.762	33.6325	54.812	0
0.2140	-6.93938	31.5909	43.6047	39.9944	25.2293	32.9379	21.0546	36.0707	54.812	0.321405
0.2147	39.7538	30.3663	50.034	40.9124	27.0683	35.3859	23.8053	30.5489	56.3606	0
0.2153	39.4216	27.0172	53.0914	38.481	26.7522	35.3859	24.1126	20.5094	56.3606	0
0.2160	25.0999	22.7435	49.4053	32.6753	23.419	32.0229	20.4547	12.8721	52.9818	0
0.2167	-5.13071	25.1678	46.9765	29.9214	22.4995	31.108	19.533	14.0912	50.8466	-0.321405
0.2173	-4.20792	29.7664	46.0621	29.9214	23.1029	31.4047	21.0546	20.1867	49.9315	-0.321405
0.2180	51.9346	31.5909	45.7478	29.0282	22.7868	32.0229	20.762	23.2344	49.0164	0.321405
0.2187	82.7558	31.8908	48.2052	28.1102	23.419	34.1495	21.0546	24.4535	48.7113	0
0.2193	47.6898	31.291	50.9484	27.4899	24.0224	34.1495	21.9764	24.4535	49.0164	0
0.2200	-1.77176	29.1416	50.9484	26.2742	22.4995	32.6411	20.762	22.0153	47.4912	0
0.2207	-20.6705	27.917	50.034	26.2742	21.896	32.0229	19.8402	21.1189	45.966	0
0.2213	-31.0426	28.2169	49.7197	26.572	21.896	32.3197	21.0546	21.7285	45.356	0
0.2220	-50.2736	27.6171	46.9765	25.0585	19.7409	30.7865	19.533	21.1189	43.2208	0
0.2227	-35.6197	28.5418	45.1477	24.736	19.1375	29.8716	17.704	20.5094	41.6956	0
0.2233	26.6133	32.1907	46.9765	26.8697	21.896	32.0229	20.4547	20.7962	42.9157	0
0.2240	50.1259	34.9399	47.2908	27.7877	22.7868	32.9379	22.5909	21.4058	43.2208	0
0.2247	17.7545	32.8156	45.4621	25.654	21.2639	31.4047	20.1475	19.8998	39.8654	0
0.2253	15.3183	29.4415	44.5477	23.5203	20.057	30.4898	17.704	18.6807	36.205	0
0.2260	29.3816	29.1416	42.0903	22.0068	18.534	29.2781	16.7822	20.1867	33.7647	0.321405
0.2267	28.1635	29.1416	39.9472	23.5203	17.0111	28.0417	16.1824	18.0353	33.7647	0
0.2273	31.1903	30.6662	41.4902	28.4079	18.8214	29.5748	17.0895	13.7685	36.51	0
0.2280	37.6129	34.0152	43.919	33.891	21.58	31.108	19.8402	16.8163	39.8654	0
0.2287	38.2035	31.5909	43.319	36.0247	19.7409	28.6599	18.3185	20.7962	39.2553	0
0.2293	15.3183	27.0172	39.9472	34.5113	16.695	24.3819	13.7389	20.1867	37.1201	0
0.2300	-9.37554	27.6171	39.3471	35.727	16.3789	23.1702	12.5099	20.7962	37.7302	0
0.2307	19.8953	29.7664	40.8616	38.1832	17.2984	24.3819	14.0462	22.338	40.4755	0
0.2313	71.4977	30.6662	41.7759	38.481	18.218	24.7034	14.3534	24.4535	41.6956	0.321405
0.2320	69.0247	32.8156	42.6903	38.1832	19.7409	24.7034	14.0462	29.6525	42.3057	0
0.2327	27.536	33.7153	44.5477	38.481	20.9765	25.2969	15.2606	30.8716	42.6107	0
0.2333	10.7413	27.3171	43.6047	36.0247	18.534	21.9586	12.2172	22.338	39.5604	0
0.2340	8.9326	20.5941	43.919	33.891	16.695	19.2137	8.54475	13.7685	36.8151	0
0.2347	33.9587	19.6943	46.9765	34.5113	17.2984	20.1287	9.15927	14.0912	37.1201	0
0.2353	111.141	22.7435	45.4621	34.2136	17.2984	20.7222	10.0811	21.1189	37.4251	0
0.2360	160.898	30.6662	40.5758	34.5113	18.8214	22.2553	11.2955	29.9394	38.0352	0
0.2367	151.448	39.2137	37.204	35.727	21.58	25.0001	14.3534	38.5089	39.8654	-0.321405
0.2373	126.422	37.6892	33.2322	33.5933	20.057	22.2553	12.5099	38.7957	38.3402	0
0.2380	91.6146	30.3663	28.3459	29.6236	14.856	15.8507	6.71582	31.4812	33.7647	0
0.2387	-41.4517	29.7664	28.6602	29.3259	15.1721	14.3176	6.1013	30.5489	33.1547	0
0.2393	-231.251	33.1155	32.032	31.4596	19.1375	15.8507	7.94486	33.6325	35.2899	-0.321405
0.2400	-237.046	33.4154	34.1465	32.973	13.9365	15.5293	8.85201	34.2421	36.205	0
0.2407	-89.6582	32.1907	37.8327	32.0799	28.3039	14.9358	9.46653	36.0707	35.5949	-0.321405
0.2413	0.664409	31.5909	38.1184	31.7573	69.1938	13.4026	9.77379	40.6243	36.51	-0.321405
0.2420	19.6001	26.0925	30.489	26.572	82.613	3.3383	3.36523	37.2898	31.6295	0
0.2427	26.6133	32.1907	46.3764	25.3562	74.9695	13.6994	0	15.9199	27.054	0
0.2433	24.8046	58.4332	78.0941	44.2866	74.3661	48.8133	18.6258	-2.07962	56.9707	0
0.2440	20.8181	69.1301	81.4659	57.3865	73.1592	60.0893	34.4863	-2.07962	91.4393	0.321405
0.2447	21.7409	63.9316	75.351	54.0371	71.0041	53.9815	32.3501	-0.250989	91.1343	0.321405
0.2453	21.4456	62.707	75.6653	52.8214	69.4811	53.9815	30.8284	-1.18323	85.9488	0.321405
0.2460	20.5228	61.8072	73.2079	52.2011	67.6708	52.7698	30.8284	-1.18323	85.3387	0
0.2467	19.6001	59.3579	70.7791	50.0674	65.5157	50.3217	29.3067	-1.79278	82.2884	-0.321405
0.2473	19.3048	58.4332	69.5504	48.8517	64.5962	49.7282	28.6922	-1.79278	80.4582	-0.321405
0.2480	19.3048	57.5335	68.0359	48.2315	63.3893	48.8133	28.6922	-0.860533	78.933	0.321405
0.2487	18.6773	56.0089	66.2071	47.0157	61.2629	47.2802	27.7704	-0.573689	77.1028	0
0.2493	18.382	54.4843	64.6641	45.8	60.0273	46.0685	27.1706	-0.573689	75.2726	0
0.2500	18.0867	53.2597	63.1497	44.882	58.5044	45.4503	26.556	-0.860533	73.1374	0
0.2507	17.4592	52.035	61.6352	43.6663	57.2688	44.2139	25.6343	-0.860533	71.6122	0
0.2513	16.8686	50.8104	59.8065	42.1281	55.7458	42.7055	25.0344	-0.860533	69.782	-0.321405
0.2520	16.2411	49.5857	58.2634	41.5326	54.5389	41.4691	24.1126	-1.47008	67.6468	-0.321405
0.2527	16.2411	48.686	57.0347	40.6147	53.6194	40.8756	24.4198	-0.860533	66.7317	0.321405
0.2533	15.9458	47.4613	55.8346	39.3989	52.0965	39.6392	24.1126	-0.250989	65.2066	0.64281
0.2540	15.3183	46.2367	54.2916	38.481	50.8609	38.7242	23.1908	-0.573689	63.3764	0
0.2547	15.023	45.312	52.7771	37.563	49.654	37.5126	22.5909	-0.573689	61.5462	0
0.2553	14.7277	44.0873	51.5484	36.645	48.131	36.5976	22.2837	-0.573689	60.326	0.321405
0.2560	14.3955	42.8877	50.3197	35.4293	46.8954	35.3859	21.6691	-0.250989	58.8009	0.321405
0.2567	14.1002	41.9629	49.1196	34.5113	46.0047	34.471	21.0546	-0.573689	57.2757	0
0.2573	13.5096	40.7383	47.8909	33.5933	45.0851	33.8528	20.4547	-0.860533	55.7505	-0.321405
0.2580	13.1774	39.8135	46.6622	32.973	43.8495	33.2346	20.1475	-0.573689	54.507	0
0.2587	12.8821	38.9138	45.4621	32.0799	42.93	32.0229	19.533	-0.573689	53.2868	0
0.2593	12.5869	37.9891	44.2333	31.1619	41.7232	31.108	18.9184	-0.860533	51.7617	-0.321405
0.2600	12.2916	37.0893	43.319	30.5416	41.1197	30.4898	18.9184	-0.573689	50.5415	-0.321405
0.2607	11.9594	36.1646	42.4046	29.9214	39.8841	29.5748	18.3185	-0.573689	49.3214	0
0.2613	11.6641	35.2399	41.1759	29.0282	38.9646	28.9566	17.704	-0.573689	48.1013	0
0.2620	11.3688	34.64	40.2615	28.4079	38.0451	28.3632	17.3968	-0.573689	46.8811	-0.321405
0.2627	11.3688	33.7153	39.3471	27.7877	37.4416	27.7449	17.0895	-0.573689	45.661	-0.321405
0.2633	10.7413	33.1155	38.4327	26.8697	36.5221	26.83	16.7822	-0.250989	44.7459	0
0.2640	10.7413	32.1907	37.204	26.2742	35.3153	26.2118	16.7822	0.0358556	43.8308	0.321405
0.2647	10.7413	31.5909	36.2896	25.9765	34.7118	25.9151	15.8751	-0.250989	42.6107	0
0.2653	10.1507	30.6662	35.3752	25.0585	33.4762	25.0001	15.2606	-0.573689	41.0855	-0.321405
0.2660	9.52319	29.4415	34.1465	24.1405	32.5567	24.0852	15.2606	-0.250989	40.1704	0
0.2667	9.52319	28.8417	33.2322	23.5203	31.9533	23.467	15.2606	-0.250989	39.5604	0.321405
0.2673	9.52319	28.5418	32.9464	23.2226	31.0338	23.1702	14.6461	-0.250989	38.3402	0
0.2680	9.2279	27.917	31.7177	22.6023	30.7177	22.552	14.0462	-0.573689	37.1201	0
0.2687	9.2279	27.917	31.7177	22.9248	29.5108	22.552	14.0462	-0.250989	37.4251	0
0.2693	8.6004	26.0925	30.489	20.4686	28.3039	20.4254	13.1244	0.0358556	33.1547	0
0.2700	5.86894	23.9681	26.8315	20.1709	29.1947	18.5955	12.8171	-0.860533	35.5949	0
0.2707	12.8821	30.6662	34.7752	25.3562	26.1488	26.5333	14.9533	1.25494	40.4755	0
0.2713	0.369116	10.8219	17.9734	-4.24258	24.6259	-0.939669	3.36523	-2.07962	-18.4193	0
0.2720	-49.0555	-40.1385	-42.7475	-51.5561	38.0451	-60.4603	-17.0895	-17.9636	-90.1254	0
0.2727	-67.9911	-55.0842	-67.7787	-57.0392	-14.1376	-70.8213	-19.2257	-25.8877	-91.0405	0
0.2733	-59.7599	-46.5366	-57.6919	-50.0178	-116.377	-57.0972	-15.2606	-25.8877	-80.9744	0
0.2740	-61.8638	-48.0612	-57.6919	-51.2335	-135.6	-56.7758	-14.9533	-28.9354	-82.4995	0
0.2747	-58.8371	-45.9368	-55.8632	-48.1818	-115.457	-52.2011	-11.2955	-28.9354	-77.314	0
0.2753	-49.0555	-41.9629	-52.8057	-45.4527	-115.141	-47.0329	-9.4519	-26.4973	-73.3486	0
0.2760	-36.2472	-37.9891	-50.3769	-42.9965	-109.049	-43.0517	-7.93023	-22.84	-69.0781	0
0.2767	-20.3752	-32.4907	-47.0051	-39.3493	-101.118	-38.1802	-5.17952	-17.3541	-64.1976	0
0.2773	-1.77176	-31.291	-46.7193	-38.1336	-97.4402	-36.9438	-7.31571	-12.155	-62.0624	-0.321405
0.2780	9.81848	-32.4907	-46.7193	-36.8931	-93.7909	-38.1802	-11.5881	-10.0396	-60.5372	-0.64281
0.2787	4.65086	-30.9661	-43.6619	-34.4617	-89.5094	-36.6471	-12.5099	-10.0396	-57.7919	-0.321405
0.2793	-4.50321	-30.0664	-43.6619	-34.7594	-86.7508	-35.1139	-14.3388	-11.2586	-55.9617	0.321405
0.2800	-12.1439	-26.0925	-40.3186	-31.41	-80.9751	-30.2425	-11.5881	-8.78461	-51.3862	0
0.2807	-19.7477	-19.6943	-33.2893	-25.6044	-73.3316	-23.8379	-4.27238	-3.01187	-44.9806	-0.321405
0.2813	-17.3115	-18.7696	-31.7463	-25.6044	-71.4926	-23.8379	-3.96512	-4.5178	-44.042	0
0.2820	-10.5936	-19.9942	-32.6892	-26.5223	-71.4926	-25.0496	-6.71582	-11.2586	-44.347	0
0.2827	-14.8754	-19.6943	-31.4605	-25.9269	-69.0501	-25.0496	-7.31571	-13.6968	-42.2118	0
0.2833	-17.3115	-20.5941	-30.8319	-25.9269	-67.2398	-25.9645	-8.85201	-14.9159	-41.6017	0
0.2840	-13.362	-18.7696	-27.803	-23.4707	-63.2744	-22.923	-8.23749	-13.0873	-38.8564	0
0.2847	-20.0799	-12.3714	-20.4594	-17.0696	-55.0274	-15.9002	-2.44345	-5.45004	-32.1457	0
0.2853	-26.4656	-11.1468	-19.8593	-16.4493	-51.6654	-15.9002	-3.3506	-3.01187	-30.3155	0
0.2860	-18.8618	-14.7957	-23.8311	-19.501	-52.585	-19.8567	-10.0664	-6.05959	-32.4508	-0.321405
0.2867	-10.2983	-15.4206	-22.2881	-17.9876	-50.7459	-18.9417	-10.0664	-6.34643	-30.3155	-0.321405
0.2873	12.8821	-13.2712	-21.088	-16.4493	-48.9069	-18.0268	-8.85201	-7.56552	-27.5702	0
0.2880	42.4852	-10.8219	-21.3737	-16.1516	-47.0966	-17.4086	-8.23749	-9.43001	-26.0451	-0.321405
0.2887	29.9722	-5.64838	-17.1161	-11.5617	-41.6082	-12.2404	-3.04334	-5.45004	-22.0797	-0.321405
0.2893	-5.7213	-3.49899	-15.8874	-9.75049	-38.8497	-10.4105	-0.907148	-2.07962	-20.2495	0
0.2900	-33.1835	-5.34846	-18.3448	-11.8842	-39.1657	-12.8339	-3.96512	-2.40232	-21.4696	0
0.2907	-32.8882	-6.57311	-15.5731	-11.2639	-37.6141	-12.8339	-3.96512	-5.12734	-20.2495	0
0.2913	2.80528	-7.47285	-14.0587	-10.9662	-36.0911	-12.5372	-3.96512	-8.49777	-19.9444	0
0.2920	24.4724	-7.47285	-16.2017	-11.8842	-36.0911	-13.1554	-5.79404	-11.5455	-20.8595	-0.321405
0.2927	25.0999	-4.12381	-13.1443	-9.75049	-32.7578	-9.4956	-2.13619	-11.8682	-8.96326	0
0.2933	24.1771	-0.774777	-8.57235	-7.29426	-29.3959	-5.81111	3.36523	-11.5455	15.4628	0
0.2940	15.9458	-1.3746	-10.0868	-8.83251	-30.3154	-7.96245	2.44345	-13.9837	38.9503	0
0.2947	8.6004	-2.59925	-11.0012	-9.13023	-29.9993	-9.4956	1.22904	-16.4218	85.0337	0
0.2953	5.86894	-2.59925	-10.7154	-8.50997	-29.6832	-9.4956	0.61452	-16.7445	132.947	-0.321405
0.2960	4.35557	-2.59925	-11.6298	-10.9662	-30.3154	-10.0891	-1.52167	-16.4218	99.0652	-0.321405
0.2967	7.38232	0.149957	-8.57235	-11.2639	-26.9534	-6.75078	1.5363	-13.3741	1.10281	-0.321405
0.2973	9.81848	3.49899	-4.00043	-7.59199	-21.7524	-1.55787	7.02308	-9.43001	-43.1269	-0.321405
0.2980	10.1507	2.89917	-4.28618	-8.21225	-20.2294	-2.47281	6.40856	-10.0396	-33.0608	0
0.2987	15.9458	-0.449871	-7.02933	-12.4796	-20.5455	-4.89617	1.82893	-12.155	-41.2967	0
0.2993	23.5865	-1.3746	-7.02933	-13.6954	-18.103	-3.98123	0	-11.5455	-42.2118	0
0.3000	28.4588	-0.774777	-6.11495	-14.3156	-15.9479	-4.59943	-1.21441	-9.43001	-17.5042	-0.321405
0.3007	34.254	1.07469	-4.91482	-9.13023	-13.5054	-4.89617	-2.44345	-5.73689	-12.3186	0
0.3013	37.3176	5.64838	-1.54302	1.56306	-9.85609	-0.939669	0.61452	-0.573689	-50.4711	0
0.3020	33.6265	7.47285	-0.31432	7.34388	-8.93657	0.593475	2.13619	0.358556	-51.3862	0
0.3027	33.3312	4.12381	-2.45741	7.04616	-11.6951	-2.15135	-2.44345	-1.79278	31.3245	0
0.3033	32.1131	2.89917	-2.45741	7.04616	-11.9825	-1.85461	-4.57964	-2.40232	81.6783	0
0.3040	21.4456	3.8239	-1.2287	2.77877	-11.063	-0.642931	-3.65786	-1.79278	56.9707	-0.321405
0.3047	8.00981	3.49899	-2.17166	-4.54031	-10.7756	-0.642931	-3.65786	-1.47008	52.9818	-0.321405
0.3053	-3.91263	5.34846	-1.2287	-3.94486	-8.33314	1.50842	-1.82893	-0.250989	66.7317	-0.321405
0.3060	-12.4392	8.09767	1.51445	0.322535	-4.97115	3.93177	0.92178	2.47403	10.8873	0
0.3067	-18.2343	5.94829	1.51445	-5.78083	-4.36771	1.80515	0	2.79673	-64.8077	0
0.3073	-17.939	3.49899	0.88581	-11.8842	-5.28723	-0.321466	-3.04334	0.9681	-58.707	0
0.3080	-13.9526	3.8239	1.80019	-5.16057	-4.05163	0.593475	-4.27238	0.6454	-4.69281	0
0.3087	-18.2343	2.89917	0.285745	0.322535	-4.65506	-0.939669	-5.48678	-0.573689	12.4125	-0.321405
0.3093	-18.5296	3.49899	1.20013	4.2922	-3.44819	-0.642931	-4.57964	0.6454	17.293	-0.321405
0.3100	-7.86217	9.29733	7.00076	8.88213	1.12066	4.54997	0.61452	7.06354	62.4613	0.321405
0.3107	-3.58042	9.62223	7.00076	1.24052	1.12066	3.01683	-0.30726	7.06354	91.7444	-0.321405
0.3113	-4.50321	5.64838	3.0289	-8.21225	-0.402289	-1.85461	-5.48678	2.18719	118.306	-0.321405
0.3120	-2.06705	5.34846	3.34322	-7.29426	1.12066	-1.55787	-7.62297	1.25494	140.268	0
0.3127	0.996613	5.34846	2.71458	-2.10889	-0.402289	-0.939669	-8.85201	0.0358556	92.3544	0
0.3133	3.13749	5.02355	2.71458	21.0889	-0.402289	-0.321466	-7.93023	1.86449	87.4739	0
0.3140	7.08702	8.6975	7.60082	43.3686	5.71826	3.3383	-3.65786	11.0435	147.894	0
0.3147	9.2279	11.4467	10.0582	18.9552	0.833314	2.72009	-3.96512	17.4258	108.85	0
0.3153	7.08702	8.6975	7.31508	-14.9359	9.68368	-3.68449	-10.9882	16.5294	-8.96326	0
0.3160	6.16424	3.8239	1.80019	-16.7718	60.0273	-12.5372	-16.7822	16.8163	-100.215	0
0.3167	6.49644	3.8239	6.68644	-5.45829	86.2623	-11.6222	-19.2257	15.9199	-173.141	-0.321405
0.3173	8.9326	21.5188	37.8327	21.0889	77.1246	20.1287	-3.3506	11.0435	-117.602	-0.321405
0.3180	12.8821	38.6139	57.349	43.3686	75.889	46.3652	19.533	9.82442	32.8496	0
0.3187	12.5869	37.0893	52.4628	42.4506	75.2856	42.7055	22.2837	10.7208	62.4613	0
0.3193	11.6641	34.64	50.3197	39.6967	72.527	39.9606	19.2257	10.1113	40.7805	0
0.3200	12.2916	34.9399	50.634	39.9944	71.3202	41.1723	19.8402	9.82442	47.4912	0
0.3207	11.9594	33.4154	48.8053	38.7787	69.4811	39.0457	19.2257	9.50172	45.966	0
0.3213	11.3688	32.4907	47.2908	37.563	67.6708	37.8093	18.9184	9.82442	43.5258	0
0.3220	11.0735	31.8908	46.3764	36.645	66.1191	37.2158	18.6258	9.50172	43.5258	0.321405
0.3227	10.7413	30.9661	45.1477	35.727	64.5962	35.9794	18.0113	9.21488	42.3057	0
0.3233	10.7413	30.6662	44.2333	35.1316	63.3893	35.3859	17.3968	8.60533	40.7805	-0.321405
0.3240	10.7413	30.0664	43.319	34.2136	61.8664	34.471	17.0895	8.60533	39.5604	0
0.3247	10.1507	28.8417	41.7759	32.973	60.0273	33.2346	16.7822	8.28263	38.6453	0
0.3253	9.52319	28.2169	40.5758	32.0799	58.5044	32.6411	16.1824	8.28263	38.0352	0
0.3260	9.52319	27.6171	39.9472	31.4596	57.2688	31.7014	16.1824	8.28263	37.1201	0.321405
0.3267	9.2279	27.0172	39.0328	30.8394	56.0619	30.7865	15.8751	7.99579	35.9	0
0.3273	9.2279	26.3924	37.8327	29.9214	54.855	30.193	14.9533	7.67309	34.6798	-0.321405
0.3280	8.6004	25.4927	36.604	28.7057	53.3033	28.9566	14.3534	7.38624	34.0698	-0.321405
0.3287	8.30511	24.8678	35.6896	28.1102	52.0965	28.3632	14.6461	7.06354	33.4597	0
0.3293	8.6004	24.5679	35.0609	27.7877	50.8609	27.7449	14.3534	7.06354	32.5446	0
0.3300	8.30511	23.9681	34.1465	27.1922	49.654	27.1267	13.7389	7.06354	31.9346	0
0.3307	8.00981	23.3433	33.2322	26.572	48.4184	26.5333	13.7389	6.7767	31.0195	0
0.3313	7.71452	22.7435	32.3178	25.9765	47.5276	25.9151	13.1244	6.7767	30.1044	0
0.3320	7.38232	22.1186	31.4034	25.0585	46.292	25.0001	12.8171	6.454	29.4943	0
0.3327	7.38232	21.8187	30.8033	24.4383	45.0851	24.3819	12.5099	6.16716	28.5792	0
0.3333	7.38232	21.2189	30.2033	23.818	44.1656	24.0852	12.5099	6.16716	27.9691	0
0.3340	7.08702	20.5941	29.5746	23.2226	42.93	23.467	11.91	6.16716	27.3591	-0.321405
0.3347	6.49644	19.9942	28.6602	22.6023	41.7232	22.552	11.6027	5.84446	26.749	0
0.3353	6.79173	19.6943	28.0602	22.0068	40.8036	21.9586	11.6027	6.16716	26.1389	0
0.3360	6.49644	19.0695	27.1458	21.3866	39.8841	21.3404	10.9882	5.23491	25.2238	-0.321405
0.3367	5.86894	18.4697	26.2314	20.4686	38.9646	20.7222	10.6809	4.30267	24.3087	-0.321405
0.3373	6.16424	18.1698	25.6028	20.4686	38.3612	20.4254	10.6809	4.62537	24.0037	0
0.3380	6.16424	17.8449	25.317	20.4686	37.4416	20.1287	10.6809	5.23491	23.3936	0
0.3387	5.86894	17.545	24.6884	19.5506	36.2348	19.5105	10.3737	5.23491	22.7836	0
0.3393	5.86894	16.9451	23.774	18.9552	35.3153	18.5955	10.0811	5.23491	22.1735	0
0.3400	5.86894	16.3203	23.4883	18.3349	34.3957	18.2741	9.77379	5.23491	21.8685	0
0.3407	5.57365	16.0204	22.8596	18.0372	33.4762	17.6806	9.46653	4.94807	21.2584	0
0.3413	5.57365	16.0204	22.2595	17.7146	32.8728	17.6806	9.46653	4.62537	20.6484	0
0.3420	5.24145	15.4206	21.9452	17.1192	31.9533	17.0624	9.15927	4.62537	20.0383	0
0.3427	4.94615	14.7957	20.7165	16.4989	30.7177	16.4442	8.85201	4.30267	19.4282	0
0.3433	4.94615	14.4958	20.4308	16.2012	30.4303	16.1475	8.54475	4.30267	19.1232	0
0.3440	5.24145	14.4958	20.1165	16.2012	29.8269	16.1475	8.54475	4.30267	18.8182	0
0.3447	4.94615	13.896	19.5164	15.5809	28.9074	15.5293	8.23749	4.30267	18.2081	0
0.3453	4.65086	13.5711	19.2021	14.9855	28.3039	14.9358	7.94486	4.01582	17.598	-0.321405
0.3460	4.65086	13.2712	18.602	14.663	27.6718	14.6143	7.94486	4.01582	16.988	0
0.3467	4.35557	12.9713	17.9734	14.3652	26.7522	14.3176	7.94486	4.30267	16.988	0.321405
0.3473	4.02336	12.3714	17.3733	13.7698	26.1488	13.6994	7.6376	4.01582	16.3779	0
0.3480	4.02336	12.3714	17.059	13.4472	25.8615	13.4026	7.33034	3.69312	16.0729	0
0.3487	4.35557	12.3714	17.059	13.4472	25.2293	13.4026	7.33034	3.69312	15.4628	0
0.3493	4.02336	11.7466	16.4589	13.1495	24.6259	13.1059	7.02308	3.40628	14.8527	-0.321405
0.3500	3.72807	11.1468	15.8589	12.5293	23.7063	12.191	7.02308	3.40628	14.5477	-0.321405
0.3507	3.72807	11.1468	15.5445	12.2315	23.1029	11.8695	6.71582	3.40628	14.2427	0
0.3513	3.43278	10.522	15.2302	11.6113	22.4995	11.5728	6.71582	3.40628	13.9376	0
0.3520	3.43278	10.522	14.6302	11.6113	21.896	11.276	6.71582	3.40628	13.9376	0.321405
0.3527	3.43278	10.2221	14.3158	11.3136	21.2639	10.9546	6.40856	3.08358	13.3276	0
0.3533	3.13749	9.92215	14.0301	10.7181	20.9765	10.6578	5.80868	2.79673	12.7175	-0.321405
0.3540	3.43278	9.92215	13.7158	10.7181	20.3443	10.6578	5.80868	3.08358	12.7175	0
0.3547	3.13749	9.62223	13.0871	10.3956	19.7409	10.0396	5.80868	2.79673	12.4125	0
0.3553	2.80528	9.29733	12.8014	10.0978	19.1375	9.74288	5.50142	2.18719	11.8024	-0.321405
0.3560	3.13749	9.29733	12.8014	10.0978	19.1375	9.74288	5.80868	2.47403	11.8024	0
0.3567	3.13749	8.99741	12.4871	10.0978	18.8214	9.74288	5.80868	3.08358	11.8024	0.321405
0.3573	2.80528	8.6975	11.887	9.47758	17.9019	9.12468	5.50142	2.79673	11.4974	0
0.3580	2.80528	8.09767	11.5727	9.17986	17.2984	8.82794	5.19416	2.47403	10.8873	0
0.3587	2.50999	8.09767	11.2584	8.88213	17.0111	8.82794	5.19416	2.47403	10.5823	0
0.3593	2.80528	8.09767	11.2584	8.88213	16.695	8.5312	4.8869	2.47403	10.2772	-0.321405
0.3600	2.2147	7.77276	10.9726	8.26187	16.0916	7.913	4.8869	2.79673	9.97221	0
0.3607	2.2147	7.47285	10.344	8.26187	15.7755	7.913	4.8869	2.47403	9.66718	0
0.3613	2.50999	7.47285	10.344	7.96414	15.4594	7.913	4.57964	2.47403	9.36215	0
0.3620	2.50999	7.17294	10.344	7.96414	15.1721	7.61626	4.57964	2.47403	9.36215	0
0.3627	2.50999	7.17294	10.0582	7.66642	14.856	7.2948	4.8869	2.47403	9.36215	0.321405
0.3633	2.2147	6.87302	9.42959	7.34388	14.2525	7.2948	4.57964	2.47403	9.05712	0
0.3640	1.9194	6.57311	9.14384	7.04616	13.6491	6.99806	4.27238	2.18719	8.75208	0
0.3647	1.9194	6.57311	8.82952	7.04616	13.333	6.70132	4.27238	2.18719	8.44705	0
0.3653	2.2147	6.57311	8.82952	6.74843	13.333	6.70132	4.57964	2.47403	8.44705	0.321405
0.3660	1.9194	6.2482	8.82952	6.74843	13.0457	6.37985	4.27238	2.47403	7.83699	0
0.3667	1.29191	5.34846	7.91514	5.83045	12.1262	5.76165	3.36523	1.25494	6.92189	-0.321405
0.3673	1.29191	5.64838	7.60082	5.83045	12.1262	5.76165	3.36523	0.6454	7.22692	-0.321405
0.3680	1.9194	6.2482	7.91514	6.4259	12.1262	6.08312	4.27238	1.86449	7.83699	0.321405
0.3687	1.9194	5.64838	7.60082	5.83045	11.494	5.46491	3.96512	2.18719	6.92189	0
0.3693	1.5872	5.02355	7.31508	5.50791	10.8905	5.16818	3.36523	1.57764	6.61686	-0.321405
0.3700	1.5872	5.34846	7.31508	5.50791	10.8905	5.16818	3.36523	1.86449	6.61686	0
0.3707	1.5872	5.34846	7.00076	5.21019	10.6032	5.16818	3.96512	2.18719	6.92189	0.321405
0.3713	1.5872	5.02355	6.68644	5.21019	10.2871	5.16818	3.67249	2.18719	6.61686	0.321405
0.3720	1.29191	5.02355	6.68644	5.21019	10.2871	4.84671	3.05797	1.57764	6.00679	0
0.3727	1.29191	4.72364	6.68644	4.91246	9.68368	4.84671	3.05797	1.86449	5.70176	-0.321405
0.3733	1.29191	4.42373	6.40069	4.91246	9.36759	4.54997	3.05797	1.57764	5.70176	-0.321405
0.3740	1.29191	4.12381	6.08637	4.91246	9.05151	4.25324	3.05797	1.57764	5.70176	0
0.3747	0.996613	4.12381	5.77205	4.2922	8.76416	4.25324	3.05797	1.86449	5.37326	0
0.3753	1.29191	4.42373	5.77205	4.2922	8.76416	4.54997	3.05797	1.86449	5.37326	0
0.3760	1.5872	4.42373	5.77205	4.61474	8.76416	4.54997	2.75071	1.57764	5.06823	0
0.3767	1.29191	4.12381	5.77205	4.2922	8.44808	3.93177	2.75071	1.25494	4.7632	-0.321405
0.3773	1.29191	4.12381	5.45773	3.99448	8.16073	3.63503	2.75071	1.25494	4.45817	0
0.3780	1.29191	4.12381	5.17199	3.99448	7.84464	3.93177	2.75071	1.57764	4.45817	0
0.3787	1.29191	3.8239	5.17199	3.99448	7.84464	3.93177	2.75071	1.25494	4.45817	0
0.3793	0.996613	3.8239	5.17199	3.99448	7.52856	3.3383	2.44345	1.25494	4.45817	0
0.3800	0.996613	3.49899	4.85767	3.69675	7.24121	3.3383	2.44345	1.25494	4.15313	-0.321405
0.3807	0.996613	3.49899	4.54335	3.69675	7.24121	3.3383	2.44345	1.25494	3.8481	-0.321405
0.3813	0.996613	3.49899	4.85767	3.99448	7.24121	3.63503	2.13619	1.25494	3.8481	0
0.3820	0.996613	3.19908	4.54335	3.37422	6.92512	3.01683	2.13619	1.25494	3.54307	-0.321405
0.3827	0.664409	3.19908	4.2576	3.37422	6.32169	3.01683	2.13619	1.25494	3.54307	-0.321405
0.3833	0.996613	3.19908	4.2576	3.37422	6.60904	3.01683	2.13619	1.25494	3.8481	0
0.3840	0.996613	3.19908	4.2576	3.07649	6.32169	3.01683	2.13619	0.9681	3.54307	-0.321405
0.3847	0.996613	3.19908	3.94328	3.07649	6.00561	2.72009	1.82893	0.9681	3.23804	-0.321405
0.3853	0.664409	2.89917	3.62896	2.77877	5.71826	2.72009	1.82893	0.9681	3.23804	-0.321405
0.3860	0.664409	2.59925	3.62896	2.77877	5.40217	2.42336	2.13619	1.25494	3.23804	0
0.3867	0.664409	2.59925	3.62896	2.77877	5.40217	2.42336	2.13619	1.25494	3.23804	0
0.3873	0.664409	2.59925	3.62896	2.77877	5.40217	2.42336	1.82893	0.9681	2.933	0
0.3880	0.664409	2.29934	3.62896	2.77877	5.08609	2.10189	1.82893	0.6454	2.62797	-0.321405
0.3887	0.369116	2.29934	3.34322	2.45623	4.79874	2.10189	1.5363	0.6454	2.32294	-0.321405
0.3893	0.664409	2.59925	3.34322	2.45623	4.79874	2.10189	1.82893	0.9681	2.62797	-0.321405
0.3900	0.664409	2.29934	3.34322	2.45623	4.79874	2.42336	1.82893	0.9681	2.62797	0
0.3907	0.664409	2.29934	3.0289	2.15851	4.48265	2.10189	1.82893	0.9681	2.62797	0
0.3913	0.664409	1.97443	3.0289	2.15851	4.48265	1.80515	1.82893	0.9681	2.32294	0
0.3920	0.369116	1.67452	2.71458	2.15851	4.1953	1.80515	1.82893	0.9681	2.32294	0
0.3927	0.369116	1.97443	2.71458	2.15851	4.1953	1.80515	1.5363	0.9681	2.32294	0
0.3933	0.664409	2.29934	3.0289	2.45623	4.1953	2.10189	1.5363	0.9681	2.32294	0
0.3940	0.369116	1.97443	3.0289	2.15851	3.87922	1.80515	1.5363	0.9681	2.01791	0
0.3947	0.369116	1.97443	2.71458	1.86078	3.87922	1.50842	1.5363	0.6454	2.01791	0
0.3953	0.369116	1.97443	2.71458	2.15851	3.56313	1.80515	1.5363	0.9681	2.01791	-0.321405
0.3960	-0.22147	1.3746	2.11451	1.56306	2.9597	1.18695	1.22904	0.6454	1.71287	-0.321405
0.3967	-0.553674	0.774777	1.80019	0.942796	2.9597	0.593475	0.92178	-0.573689	1.40784	-0.321405
0.3973	0.369116	1.67452	2.42883	1.86078	3.56313	1.50842	1.22904	-0.250989	2.01791	0
0.3980	0.369116	1.67452	2.11451	1.56306	3.27578	1.50842	0.92178	0.0358556	1.71287	-0.321405
0.3987	-0.22147	1.07469	1.80019	1.24052	2.64362	1.18695	0.92178	-0.860533	1.40784	-0.321405
0.3993	0.369116	1.67452	2.42883	1.86078	3.27578	1.50842	1.22904	0.0358556	1.71287	0
0.4000	0.369116	1.3746	2.11451	1.86078	2.9597	1.18695	1.22904	0.9681	1.71287	0
0.4007	-0.22147	1.3746	1.80019	1.24052	2.35627	1.18695	1.22904	0.6454	1.71287	-0.321405
0.4013	0.0738232	1.3746	1.80019	1.24052	2.64362	0.890212	1.22904	0.6454	1.71287	0
0.4020	0.0738232	1.3746	1.80019	1.24052	2.35627	0.890212	1.22904	0.6454	1.40784	0
0.4027	0.0738232	1.07469	1.51445	1.24052	2.35627	0.890212	0.92178	0.6454	1.10281	0
0.4033	0.0738232	1.07469	1.80019	1.24052	2.35627	0.890212	0.92178	0.6454	1.10281	0
0.4040	0.0738232	1.3746	1.51445	1.24052	2.35627	0.890212	0.92178	0.6454	1.10281	-0.321405
0.4047	0.369116	1.3746	1.51445	1.56306	2.35627	0.890212	0.92178	0.6454	1.40784	-0.321405
0.4053	0.0738232	1.07469	1.51445	1.24052	2.04018	0.890212	1.22904	0.6454	1.40784	0
0.4060	0.0738232	1.07469	1.51445	0.942796	2.04018	0.890212	0.92178	0.6454	1.10281	0
0.4067	0.0738232	1.07469	1.51445	1.24052	1.75283	0.890212	0.92178	0.6454	1.10281	-0.321405
0.4073	0.0738232	0.774777	1.51445	1.24052	1.75283	0.890212	0.92178	0.6454	1.10281	-0.321405
0.4080	0.369116	0.774777	1.51445	0.942796	1.75283	0.593475	0.61452	0.358556	1.10281	-0.321405
0.4087	0.0738232	0.774777	1.51445	0.942796	1.75283	0.593475	0.92178	0.6454	0.797777	-0.321405
0.4093	0.0738232	0.774777	1.51445	1.24052	1.75283	0.890212	0.92178	0.6454	0.797777	0
0.4100	0.0738232	1.07469	1.20013	0.942796	1.75283	0.890212	0.61452	0.6454	0.797777	0
0.4107	0.0738232	0.774777	1.20013	0.942796	1.43675	0.593475	0.92178	0.6454	1.10281	0
0.4113	-0.22147	0.449871	0.88581	0.942796	1.12066	0.593475	0.92178	0.9681	1.10281	0
0.4120	0.0738232	0.774777	0.88581	0.942796	1.12066	0.272009	0.92178	0.6454	0.797777	0
0.4127	-0.22147	0.449871	0.88581	0.645071	1.12066	0.593475	0.92178	0.6454	0.797777	0
0.4133	-0.22147	0.449871	0.88581	0.645071	1.12066	0.593475	0.92178	0.6454	0.797777	0
0.4140	-0.22147	0.449871	0.88581	0.645071	1.12066	0.272009	0.92178	0.358556	0.492745	-0.321405
0.4147	0.0738232	0.774777	0.88581	0.942796	1.12066	0.593475	0.61452	0.358556	0.492745	0
0.4153	0.0738232	0.774777	0.88581	0.942796	1.12066	0.593475	0.92178	0.6454	0.492745	0
0.4160	-0.22147	0.449871	0.88581	0.645071	0.833314	0.272009	0.61452	0.6454	0.492745	0
0.4167	0.0738232	0.449871	0.88581	0.322535	0.833314	0.272009	0.61452	0.358556	0.187712	-0.321405
0.4173	0.0738232	0.449871	0.88581	0.942796	0.833314	0.272009	0.92178	0.6454	0.492745	0
0.4180	0.0738232	0.149957	0.600065	0.645071	0.833314	-0.0247281	0.92178	0.6454	0.797777	0.321405
0.4187	-0.22147	0.149957	0.600065	0.322535	0.517229	-0.0247281	0.61452	0.358556	0.492745	0
0.4193	-0.22147	0.449871	0.600065	0.645071	0.833314	0.272009	0.61452	0.358556	0.187712	-0.321405
0.4200	0.0738232	0.449871	0.88581	0.645071	0.833314	0.272009	0.61452	0.6454	0.492745	0
0.4207	-0.22147	0.149957	0.600065	0.322535	0.517229	-0.0247281	0.61452	0.6454	0.187712	0
0.4213	-0.22147	0.149957	0.600065	0.645071	0.201145	-0.0247281	0.61452	0.6454	0.187712	-0.321405
0.4220	-0.22147	0.449871	0.600065	0.645071	0.517229	0.272009	0.92178	0.6454	0.492745	0
0.4227	-0.22147	0.149957	0.600065	0.322535	0.201145	-0.321466	0.61452	0.6454	0.187712	0.321405
0.4233	-0.22147	0.149957	0.600065	0.322535	0.517229	-0.0247281	0.61452	0.358556	0.187712	0
0.4240	0.0738232	0.449871	0.600065	0.645071	0.517229	0.272009	0.61452	0.358556	0.187712	-0.321405
0.4247	0.0738232	0.449871	0.600065	0.645071	0.517229	-0.0247281	0.30726	0.358556	0.187712	0
0.4253	-0.22147	0.149957	0.600065	0.322535	0.201145	-0.0247281	0.30726	0.358556	0.187712	0
0.4260	-0.22147	0.149957	0.285745	0.322535	0.201145	-0.321466	0.61452	0.358556	-0.11732	-0.321405
0.4267	-0.848967	-0.449871	-0.31432	-0.272915	-0.0862049	-0.939669	0.30726	-0.573689	-0.422353	-0.321405
0.4273	-0.553674	-0.149957	-0.0285745	0.0248104	0.201145	-0.321466	0	-1.18323	-0.422353	0
0.4280	0.0738232	0.449871	0.600065	0.645071	0.517229	0.272009	0.30726	0.0358556	-0.11732	0
0.4287	0.0738232	0.149957	0.600065	0.322535	0.201145	-0.0247281	0.30726	0.6454	0.187712	0
0.4293	0.0738232	0.449871	0.600065	0.322535	0.517229	0.272009	0.61452	0.6454	-0.11732	0
0.4300	-0.22147	0.149957	0.285745	0.322535	0.201145	-0.0247281	0.61452	0.6454	-0.11732	0
0.4307	-0.553674	0.149957	-0.0285745	0.0248104	-0.0862049	-0.321466	0.30726	0.358556	-0.422353	-0.321405
0.4313	-0.553674	0.149957	-0.0285745	-0.272915	-0.0862049	-0.321466	0.30726	0.6454	-0.11732	0
0.4320	-0.553674	-0.149957	-0.0285745	0.0248104	-0.0862049	-0.939669	0.61452	0.358556	1.10281	0.321405
0.4327	-0.553674	0.449871	-0.31432	0.942796	-0.0862049	0.272009	0.30726	0.358556	-2.55758	0
0.4333	-1.14426	-0.449871	0.88581	-2.40661	-0.402289	-1.23641	-1.82893	0.0358556	-0.11732	-0.321405
0.4340	0.664409	-1.3746	-0.628639	1.24052	-0.0862049	-3.98123	2.75071	0.358556	3.8481	-0.321405
0.4347	-1.43955	5.02355	-3.08605	-2.72915	-0.402289	6.37985	-5.48678	0.0358556	-65.1127	0
0.4353	-3.28513	-22.4186	6.68644	-81.7503	-0.402289	-36.9438	-56.448	0.0358556	-174.666	0.321405
0.4360	6.49644	-90.7989	-30.8319	-207.49	-0.402289	-151.386	-99.4791	0.0358556	-250.056	0.321405
0.4367	-49.3508	-121.615	-133.7	-258.152	-0.402289	-201.757	-103.152	-2.68917	-311.696	0
0.4373	-172.045	-117.041	-193.507	-212.997	-0.402289	-181.9	-104.673	-9.10731	-306.816	0
0.4380	-167.763	-110.618	-192.592	-149.21	-0.402289	-167.261	-110.775	-20.0791	-226.545	0
0.4387	-59.4277	-96.2723	-182.505	-111.051	-0.689639	-157.79	-108.024	-32.5927	-158.805	0
0.4393	-76.8499	-85.0005	-173.047	-96.1156	-0.689639	-157.493	-94.6068	-38.4013	-130.718	0
0.4400	-150.378	-75.8282	-166.332	-97.0087	-0.689639	-168.473	-77.8099	-38.1145	-182.292	0
0.4407	-75.2996	-68.2054	-156.274	-101.301	-0.402289	-172.751	-71.7086	-36.5727	-274.459	0
0.4413	38.5357	-64.2315	-132.157	-105.271	-0.402289	-158.408	-72.6304	-22.84	-261.647	0
0.4420	-1.77176	-59.9578	-122.099	-104.65	-0.689639	-147.108	-69.2652	-17.6409	-188.698	0
0.4427	-96.3762	-63.3318	-136.729	-86.9605	-0.402289	-152.004	-61.6422	-26.82	-185.647	0
0.4433	-72.5682	-67.9055	-144.358	-88.474	-0.689639	-152.3	-46.0744	-23.4495	-210.074	-0.321405
0.4440	6.79173	-65.4562	-134.3	-120.529	-0.689639	-135.832	-23.8053	-16.7445	-186.868	0
0.4447	25.0999	-66.9807	-121.47	-110.133	-0.689639	-123.022	-6.40856	-11.5455	-138.344	0.321405
0.4453	42.1899	-66.081	-121.47	-54.9055	-0.689639	-120.871	-1.52167	-10.0396	-99.6048	0
0.4460	91.6146	-57.5335	-121.185	-10.3459	-1.00572	-105.317	-3.65786	-20.0791	-91.9556	0
0.4467	133.14	-55.684	-109.269	25.3562	-1.32181	-78.1409	0	-42.9908	-127.973	0
0.4473	147.462	-63.0069	-98.2963	52.5237	-1.32181	-54.0309	7.33034	-78.9898	-173.751	0
0.4480	78.1787	-70.9546	-92.7814	24.4383	-1.00572	-30.2425	2.75071	-98.8179	-171.311	0
0.4487	11.6641	-66.3809	-88.5238	-69.2459	-1.32181	-8.58066	-13.1244	-76.5516	-127.973	0
0.4493	66.9207	-49.2858	-86.3808	-134.249	-1.60916	2.42336	-29.9066	-31.6963	-102.045	0
0.4500	158.757	-34.64	-88.2095	-93.9571	-1.32181	5.46491	-39.0659	3.40628	-95.0293	0
0.4507	220.694	-27.3171	-87.6095	-15.8539	-1.32181	6.99806	-34.7935	11.3304	-82.4995	0
0.4513	219.181	-27.0172	-77.837	11.6113	-1.60916	0.890212	-23.8053	-4.5178	-65.7228	0.321405
0.4520	115.718	-35.5648	-67.4644	23.818	-1.32181	-16.1969	-18.9184	-20.6887	-54.4366	0.321405
0.4527	-95.7487	-40.4384	-61.3495	33.5933	-1.00572	-23.8379	-14.6461	-21.2982	-40.9917	0
0.4533	-283.149	-30.3663	-57.4062	10.0978	-1.32181	-14.0703	-3.96512	-17.6409	-16.8941	0
0.4540	-277.649	-18.4697	-61.3495	15.9035	-1.00572	-18.0268	1.5363	-12.155	4.7632	-0.321405
0.4547	-204.379	-10.2221	-63.8069	48.8517	-1.00572	-38.1802	1.5363	7.38624	10.2772	0
0.4553	-196.776	-8.09767	-57.6919	39.9944	-1.00572	-40.0101	-5.79404	22.6249	5.70176	0.321405
0.4560	-181.199	-15.0957	-49.1482	-1.48863	-1.00572	-31.4542	-25.6343	9.82442	12.4125	0.321405
0.4567	-84.4537	-19.3694	-40.0043	-50.9358	-1.00572	-43.9666	-44.5527	-18.5732	17.293	0.321405
0.4573	-20.0799	-14.1959	-34.2037	-94.5773	-1.00572	-42.7549	-50.9613	-21.6209	-2.55758	0
0.4580	-188.212	-8.39758	-29.3175	-93.0639	-1.60916	-2.47281	-48.8251	3.69312	-7.74313	0
0.4587	-394.511	-9.92215	-26.26	-73.2156	-1.92524	13.1059	-47.9033	16.2067	-3.16764	0.321405
0.4593	-303.266	-16.6202	-24.7455	-130.9	-1.60916	-5.21763	-48.2105	8.28263	-33.0608	0
0.4600	-105.198	-23.9681	-17.7162	-211.161	-1.60916	-6.13257	-45.4745	-4.5178	-66.6379	0
0.4607	-14.8754	-25.4927	-12.83	-201.684	-1.60916	-0.642931	-41.4947	-15.2028	-76.0939	0
0.4613	87.9603	-20.2942	-19.8593	-155.611	-1.32181	-9.4956	-30.8138	-10.6491	-73.0435	0
0.4620	96.8191	-11.1468	-19.545	-117.155	-1.32181	-21.6866	-5.17952	2.79673	-54.4366	0
0.4627	-91.7991	-4.42373	-10.0868	-78.6987	-1.00572	-40.6036	20.1475	4.62537	-22.9948	0
0.4633	-207.148	-8.99741	-14.0587	-54.9055	-1.00572	-65.6284	28.9995	3.69312	6.92189	0
0.4640	-89.6582	-14.7957	6.08637	-35.0819	-1.00572	-68.3733	26.8633	7.99579	29.1893	0.321405
0.4647	36.6901	-3.49899	63.464	-6.69881	-1.00572	-29.6243	16.4896	12.8721	36.51	0.321405
0.4653	49.4984	7.47285	90.9241	25.0585	-0.689639	-6.75078	-1.52167	16.2067	21.8685	0
0.4660	44.6261	4.72364	82.6946	50.6877	-1.00572	-36.0289	-16.1677	16.2067	9.66718	0
0.4667	46.1395	5.64838	79.6372	64.7304	-1.32181	-34.199	-17.704	14.7008	27.9691	-0.321405
0.4673	44.9214	11.1468	80.8373	76.3169	-1.00572	14.6143	-14.3388	13.7685	40.7805	0
0.4680	44.6261	23.9681	79.6372	76.9371	-1.00572	53.9815	-9.4519	14.0912	29.1893	0.321405
0.4687	41.8947	41.0382	77.1798	65.0281	-1.00572	71.3901	3.96512	14.9876	18.2081	0
0.4693	40.9719	44.4122	75.9796	63.8124	-1.00572	72.0083	18.9184	14.7008	9.36215	0
0.4700	40.3444	43.4875	74.7509	48.2315	-0.689639	70.4751	26.2488	14.7008	3.54307	0
0.4707	41.5624	42.2628	70.7791	-14.3156	-0.689639	70.4751	29.9066	14.3781	0.797777	0
0.4713	39.4216	25.4927	71.6935	-56.7414	-1.00572	44.5353	38.1441	13.4817	-2.25255	0
0.4720	31.1903	1.97443	61.6352	-24.3886	-1.00572	-4.89617	36.0079	12.5494	-7.74313	0.321405
0.4727	84.8967	-8.39758	12.4871	33.891	-1.00572	-34.8172	17.704	10.434	-10.1834	0
0.4733	176.142	-3.19908	-27.803	78.7483	-1.32181	-37.8587	6.71582	3.08358	0.492745	0
0.4740	148.089	5.64838	-15.2874	80.2865	-1.32181	-29.921	5.50142	-0.250989	6.31183	0.321405
0.4747	50.7165	-2.29934	25.0027	12.2315	-1.32181	-26.2613	0.92178	6.454	-4.99784	0.321405
0.4753	20.2276	-17.8449	59.1778	-55.2032	-1.32181	-19.5599	-5.48678	11.6531	-14.7589	0
0.4760	24.4724	-1.97443	66.4929	-53.392	-1.00572	21.9586	-6.40856	11.0435	-12.9287	0
0.4767	23.5865	31.8908	63.1497	-5.78083	-1.00572	64.664	-5.48678	11.0435	-4.38777	0
0.4773	24.1771	41.663	63.1497	41.2349	-1.32181	69.2387	2.75071	11.6531	9.66718	0
0.4780	23.5865	37.3892	61.3209	58.0068	-1.32181	62.2407	17.704	11.0435	19.1232	0
0.4787	22.959	37.0893	59.4921	58.3045	-1.00572	63.4524	27.1706	10.7208	35.5949	0
0.4793	23.2543	37.9891	58.5778	63.4899	-1.00572	64.9855	31.1357	11.0435	78.628	0
0.4800	22.959	37.3892	57.349	64.4079	-1.00572	64.0706	32.0428	10.7208	104.861	-0.321405
0.4807	22.3315	36.1646	55.8346	61.6787	-1.32181	62.2407	30.8284	10.434	100.895	-0.321405
0.4813	21.7409	35.2399	54.2916	60.7607	-1.32181	60.7075	30.2139	10.434	99.0652	0
0.4820	21.4456	34.64	53.0914	59.545	-1.32181	59.4959	29.5994	10.1113	98.1501	-0.321405
0.4827	20.8181	33.7153	51.8627	58.0068	-1.32181	57.9627	29.3067	10.1113	94.7947	0
0.4833	20.2276	32.8156	50.634	56.4933	-1.32181	56.4296	28.385	9.82442	92.9645	0
0.4840	19.6001	31.8908	49.1196	54.6574	-1.32181	54.8964	27.4632	9.21488	89.9142	-0.321405
0.4847	19.0095	30.9661	47.8909	53.1191	-1.32181	53.6847	26.8633	9.21488	86.2538	-0.321405
0.4853	18.6773	30.6662	46.9765	52.2011	-1.32181	52.1516	26.8633	9.50172	85.0337	0
0.4860	18.0867	29.7664	45.7478	50.9854	-1.32181	50.9399	25.6343	8.89218	84.1186	0
0.4867	17.4592	28.8417	44.2333	49.7697	-1.60916	49.4068	24.7271	7.38624	80.7632	-0.321405
0.4873	17.1639	28.5418	43.319	47.9337	-1.32181	48.1951	24.1126	6.7767	77.7129	-0.321405
0.4880	16.5364	27.917	42.6903	45.8	-1.00572	47.5769	24.1126	7.67309	80.4582	0.321405
0.4887	14.3955	27.3171	41.4902	48.554	-1.32181	45.4503	24.7271	8.28263	57.5807	0
0.4893	12.8821	27.0172	39.6614	29.6236	-1.32181	40.2574	13.1244	7.67309	-7.74313	0
0.4900	13.1774	14.7957	38.4327	-14.9359	-1.32181	36.8944	-2.13619	7.67309	-55.0466	0
0.4907	15.023	-16.9451	36.604	-39.0268	-1.32181	-6.13257	-1.82893	6.7767	-64.1976	0
0.4913	16.8686	-43.1876	33.8608	-39.6471	-1.00572	-97.3793	3.96512	5.84446	-61.7573	-0.321405
0.4920	16.8686	-38.9138	32.6321	-35.3797	-1.32181	-100.421	2.44345	5.55761	-50.1661	0
0.4927	15.3183	-12.3714	33.8608	-22.8752	-1.60916	-5.81111	-5.79404	6.16716	-36.1111	-0.321405
0.4933	14.7277	14.4958	34.1465	-3.02687	-1.32181	43.2989	-6.1013	6.7767	-22.6897	0
0.4940	13.8049	26.3924	32.9464	14.9855	-1.00572	43.2989	1.22904	6.7767	-9.26829	0
0.4947	12.5869	25.4927	32.032	18.9552	-1.32181	43.6204	1.5363	7.06354	-2.25255	0
0.4953	11.6641	24.5679	31.4034	11.6113	-1.60916	44.5353	-6.1013	6.7767	2.62797	0.321405
0.4960	12.8821	19.0695	28.9746	1.24052	-1.60916	43.6204	-20.7474	5.84446	5.70176	0.321405
0.4967	14.7277	-3.49899	28.6602	-10.0482	-1.60916	34.7677	-32.95	5.84446	-1.33745	0
0.4973	15.3183	-25.1678	27.4315	-14.6133	-1.60916	20.4254	-24.1126	5.55761	-9.26829	-0.321405
0.4980	22.0362	-29.7664	-0.0285745	-12.1819	-1.32181	9.12468	-0.599888	1.86449	-12.0136	-0.321405
0.4987	25.6905	-32.8156	-48.5481	-17.0696	-1.32181	-14.367	15.8751	1.86449	-19.0293	-0.321405
0.4993	-20.6705	-37.3892	-79.9801	-28.0606	-1.32181	-50.0744	19.533	1.25494	-21.1646	-0.321405
0.5000	-115.902	-33.4154	-87.9238	-31.1123	-1.32181	-72.9727	15.8751	-13.0873	-4.38777	0
0.5007	-154.66	-33.1155	-97.6677	-25.9269	-1.32181	-100.742	11.91	-20.0791	20.0383	-0.321405
0.5013	-61.5685	-39.2137	-101.64	-14.9359	-1.32181	-135.535	7.6376	-14.3064	28.8842	0
0.5020	106.564	-36.4645	-83.6376	0.645071	-1.32181	-151.089	4.57964	-19.4696	13.3276	0
0.5027	228.963	-36.1646	-75.4081	7.04616	-1.32181	-170.006	0.61452	-34.1345	-12.0136	0
0.5033	250.63	-43.1876	-77.2369	1.86078	-1.60916	-183.136	-0.599888	-48.154	-22.0797	0
0.5040	248.489	-43.1876	-70.8362	-1.48863	-1.60916	-176.41	6.40856	-52.4567	-15.3689	0
0.5047	196.923	-38.6139	-71.122	-1.1909	-1.32181	-165.431	10.6809	-53.3531	-9.26829	-0.321405
0.5053	-4.79851	-30.3663	-74.1794	0.322535	-1.32181	-123.319	10.3737	-54.2853	-9.87836	-0.321405
0.5060	-165.954	-17.245	-67.7787	-2.72915	-1.32181	-68.3733	6.40856	-48.4767	-13.5387	0
0.5067	-136.351	-13.2712	-61.3495	-9.13023	-1.60916	-45.1783	-3.65786	-41.449	-23.6048	0
0.5073	-69.7998	-20.5941	-56.1775	-10.0482	-1.60916	-30.836	-13.7243	-37.7918	-31.2306	-0.321405
0.5080	-43.2604	-24.5679	-47.6337	-6.69881	-1.92524	-9.79234	-19.2257	-37.5049	-20.2495	-0.321405
0.5087	-46.0288	-26.0925	-44.2619	-10.6437	-1.92524	4.84671	-26.2488	-39.9431	-4.69281	-0.321405
0.5093	-60.6457	-28.8417	-45.8049	-15.2336	-1.60916	9.44614	-34.7935	-42.3813	3.23804	-0.321405
0.5100	39.4216	-23.6432	-42.7475	-8.21225	-1.92524	9.12468	-32.3501	-35.3536	18.2081	0.321405
0.5107	157.243	-16.3203	-36.9468	-1.48863	-2.24133	12.7844	-18.9184	-21.0114	10.2772	0
0.5113	40.6766	-18.7696	-36.6325	-3.3246	-2.24133	7.913	-12.5099	-21.6209	-30.9256	-0.321405
0.5120	-135.133	-24.268	-36.3468	-1.1909	-2.24133	5.46491	-17.3968	-29.8677	-33.9759	0
0.5127	-131.774	-23.6432	-33.8894	3.37422	-2.24133	17.3591	-20.1328	-28.039	-8.04816	0
0.5133	-53.9278	-21.5188	-31.4605	1.24052	-2.84476	11.8695	-9.15927	-24.6686	-8.04816	0
0.5140	3.72807	-19.6943	-27.1744	-0.893175	-4.97115	17.6806	10.9882	-24.3818	-15.979	-0.321405
0.5147	50.7165	-12.0465	-24.1169	3.07649	-4.05163	68.6453	29.9066	-18.86	-15.3689	-0.321405
0.5153	53.7802	-3.49899	-28.0887	4.91246	-5.28723	125.1	36.3152	-15.2028	-17.8092	0
0.5160	12.5869	-1.3746	-34.518	2.15851	-14.741	167.508	25.6343	-22.5173	-23.9099	-0.321405
0.5167	4.35557	-0.149957	-30.2318	1.56306	8.16073	216.346	16.7822	-28.3259	-21.7746	-0.321405
0.5173	7.38232	-0.149957	-16.4875	0.645071	-65.7168	266.396	17.0895	-22.84	-18.1142	0
0.5180	-21.298	-4.12381	-5.51488	2.45623	-361.716	292.954	18.9184	-16.4218	-17.1991	0.321405
0.5187	-37.4653	-7.47285	-6.11495	13.1495	-579.009	297.207	24.1126	-19.1827	-9.57333	0
0.5193	-41.1195	-6.87302	-13.4586	18.6326	-580.216	299.655	33.2719	-27.7163	-1.64248	0
0.5200	-70.7226	-4.42373	-15.2874	9.47758	-553.694	286.846	27.7704	-33.5249	1.71287	0
0.5207	-86.2993	-0.774777	-7.65797	0.942796	-531.108	210.238	6.1013	-31.9832	7.22692	0
0.5213	-17.6437	2.59925	-0.628639	2.77877	-485.017	89.0954	-12.2026	-26.2104	13.0225	0
0.5220	15.9458	-1.3746	-0.942959	7.96414	-434.674	-38.477	-21.6691	-20.0791	18.5131	0
0.5227	-56.0687	-8.6975	-2.77173	11.3136	-385.221	-220.352	-25.0197	-13.9837	24.9188	0
0.5233	-87.8127	-11.1468	-2.17166	13.4472	-349.503	-362.564	-20.1328	-10.6491	27.3591	0
0.5240	-101.876	-13.5711	-2.45741	14.3652	-347.377	-269.487	-14.0315	-13.9837	28.2742	0
0.5247	-145.21	-15.0957	-2.17166	22.0068	-355.624	-70.8213	-10.0664	-17.3541	32.8496	0
0.5253	-169.904	-14.7957	-2.45741	54.3348	-356.543	20.4254	-8.54475	-14.9159	34.3748	0
0.5260	-179.981	-16.6202	-3.68611	97.0832	-361.112	44.8321	-9.75916	-12.4777	26.444	-0.321405
0.5267	-87.2221	-12.0465	-1.85734	124.846	-352.262	68.6453	-1.52167	-10.0396	17.293	0
0.5273	74.8567	-1.07469	0.285745	121.794	-320.826	92.137	16.4896	-6.66913	13.0225	0
0.5280	111.473	3.19908	0.600065	96.7606	-295.798	108.309	27.4632	-3.90826	7.83699	-0.321405
0.5287	90.6918	0.774777	2.71458	96.1652	-282.062	121.44	33.2719	-2.07962	2.01791	0
0.5293	136.499	-1.3746	4.85767	102.566	-271.402	131.207	39.0659	-3.62141	1.71287	0
0.5300	154.18	-4.42373	5.45773	86.3899	-263.758	146.465	46.089	-9.71686	3.8481	0
0.5307	104.128	-5.02355	8.51521	63.8124	-244.851	153.166	48.2252	-13.9837	2.01791	0
0.5313	65.6657	-0.774777	15.8589	-24.0909	-214.621	109.842	43.9528	-9.71686	-0.422353	0
0.5320	42.7805	-0.774777	17.9734	-138.517	-185.628	40.2574	44.86	-7.56552	-5.30287	0
0.5327	-10.003	-2.29934	11.887	-147.672	-165.485	2.10189	46.6889	-11.8682	-10.4884	0
0.5333	-85.0812	3.19908	7.91514	-129.684	-146.261	1.18695	49.4396	-7.56552	-11.0985	0.321405
0.5340	-133.583	8.09767	4.85767	-146.158	-117.9	-11.3255	54.3265	0.9681	-13.5387	0
0.5347	-131.774	7.17294	1.80019	-122.663	-104.164	-63.5018	54.0192	2.47403	-11.4035	0
0.5353	-57.619	7.47285	4.2576	-65.2762	-109.337	-101.039	44.2601	2.47403	6.31183	0.321405
0.5360	29.9722	2.59925	7.91514	-8.83251	-117.583	-177.944	26.2488	0.9681	27.3591	0.321405
0.5367	-16.4257	-7.47285	12.4871	54.3348	-135.284	-349.755	7.6376	-4.23096	42.3057	0
0.5373	-141.851	-10.2221	21.0308	112.342	-148.703	-393.696	-13.7243	-6.95598	52.3717	-0.321405
0.5380	-187.289	-11.1468	24.4026	140.104	-144.135	-263.997	-39.6658	-10.3264	54.2019	0
0.5387	-193.417	-9.92215	20.1165	134.299	-122.784	-156.578	-45.7671	-15.5255	50.8466	0
0.5393	-163.814	-0.774777	15.2302	93.709	-88.2738	-96.7611	-32.0428	-16.135	50.8466	-0.321405
0.5400	-84.4537	8.09767	9.14384	45.1798	-54.424	-62.8836	-21.9764	-13.6968	49.9315	-0.321405
0.5407	-37.17	12.6714	1.80019	22.3046	-24.5109	-57.6907	-14.0315	-12.4777	40.7805	0
0.5413	142.589	19.3694	1.80019	24.4383	-1.32181	-33.6055	6.1013	-7.88822	30.7144	0
0.5420	428.839	24.5679	2.42883	-0.272915	7.52856	4.84671	23.1908	-0.573689	23.3936	0
0.5427	489.891	25.4927	-4.6005	-76.565	9.36759	10.0396	29.3067	4.30267	15.7678	0
0.5433	393.441	30.3663	-6.11495	-109.538	15.1721	-0.939669	46.089	12.2626	12.7175	0
0.5440	222.835	33.1155	-0.0285745	-72.9178	17.9019	5.46491	56.1554	20.7962	12.1074	0
0.5447	-125.056	26.6923	0.88581	-46.3707	15.1721	12.4877	37.5442	22.0153	5.70176	-0.321405
0.5453	-462.576	24.268	1.80019	-34.4617	15.7755	15.5293	20.1475	21.4058	-1.64248	0.321405
0.5460	-567.848	29.4415	7.31508	-12.1819	16.695	30.193	15.2606	17.4258	-1.03242	0
0.5467	-447.332	28.5418	7.91514	10.7181	12.7296	25.0001	5.80868	2.79673	4.45817	-0.321405
0.5473	-257.2	23.3433	8.82952	12.5293	13.0457	-14.367	3.36523	-16.4218	6.31183	0.321405
0.5480	-172.968	22.7435	14.3158	4.61474	15.4594	-46.4147	9.46653	-30.1545	5.37326	0.321405
0.5487	-91.1716	24.8678	13.0871	7.66642	9.97103	-55.2673	3.96512	-39.0108	9.66718	0
0.5493	112.986	27.6171	7.91514	-17.9876	2.04018	-51.9043	-3.3506	-40.8395	13.9376	0
0.5500	240.553	38.6139	4.85767	-55.2032	-4.36771	-53.4375	-5.17952	-30.4772	17.598	0
0.5507	287.837	56.9086	-2.17166	-61.6291	-11.6951	-70.8213	-12.5099	-14.9159	19.7333	0
0.5513	270.156	72.1792	-4.6005	-54.6077	-16.5801	-76.0142	-23.1908	-9.71686	19.4282	0
0.5520	146.871	77.9776	4.2576	-33.5437	-11.379	-54.9459	-27.4632	-15.2028	20.9534	0
0.5527	127.64	65.4562	14.0301	-26.2246	-1.32181	-35.1139	-26.5414	-18.2505	16.0729	0.321405
0.5533	87.3328	43.7874	18.8878	-60.7111	8.76416	-23.5164	-19.8402	-14.9159	9.36215	0
0.5540	-111.03	39.5136	14.3158	-83.9088	17.6145	10.9546	-13.1244	-21.9077	9.05712	-0.321405
0.5547	-262.368	50.5105	1.80019	-48.8021	25.5454	71.3901	-11.8953	-36.2858	0.797777	0
0.5553	-260.559	52.6349	-1.85734	23.5203	32.8728	106.776	-18.9184	-30.7641	-10.4884	0
0.5560	-186.071	44.0873	3.94328	79.0708	41.7232	91.8402	-32.0428	-16.135	-8.65823	0
0.5567	-69.7998	38.6139	9.74391	97.0832	54.5389	68.6453	-33.5645	-16.4218	-0.727385	0
0.5573	145.948	39.5136	13.4014	83.3382	63.0732	76.2615	-14.6461	-21.2982	1.40784	-0.321405
0.5580	238.412	44.0873	15.2302	50.9854	66.1191	89.0954	7.02308	-12.7646	-3.16764	0
0.5587	102.91	49.5857	15.2302	23.2226	70.1133	78.4129	22.8982	0.0358556	-11.4035	0
0.5593	42.7805	54.7842	11.887	8.26187	73.7626	53.6847	37.237	1.86449	-16.8941	-0.321405
0.5600	101.101	54.7842	5.77205	16.8215	75.889	25.0001	32.3501	-7.27868	-11.4035	-0.321405
0.5607	108.409	52.6349	1.51445	-2.72915	79.8544	8.20974	7.02308	-10.0396	-1.33745	0.321405
0.5613	80.3196	52.3349	1.20013	-117.775	74.9695	21.9586	-14.0315	2.18719	-0.422353	0.321405
0.5620	61.0887	46.8365	6.08637	-202.006	54.2229	38.4275	-30.2139	10.434	-2.25255	0
0.5627	-5.13071	36.1646	10.344	-141.891	36.5221	7.913	-48.8251	5.55761	3.23804	-0.321405
0.5633	-75.2996	29.7664	7.00076	-53.6898	-7.7297	-5.51437	-59.506	2.47403	9.97221	0
0.5640	30.2675	31.5909	3.34322	-24.0909	-93.4748	64.664	-55.8481	14.0912	10.8873	0
0.5647	228.963	36.1646	5.17199	-15.5313	-136.807	130.292	-39.0659	27.5012	6.31183	0
0.5653	265.579	43.1876	8.51521	-6.69881	-114.538	135.164	-10.3737	28.7203	0.492745	0
0.5660	138.012	48.9859	5.77205	-5.16057	-84.6244	110.139	21.0546	25.6726	-1.33745	0
0.5667	65.0751	45.312	-0.628639	-3.64713	-65.4008	65.579	52.1903	19.8998	5.37326	0.321405
0.5673	101.101	36.4645	-2.17166	1.86078	-27.2407	19.8072	67.4509	11.0435	15.4628	0.321405
0.5680	89.4737	41.9629	-0.0285745	0.645071	31.3498	8.82794	36.3152	1.57764	8.44705	-0.321405
0.5687	20.2276	44.0873	0.285745	5.83045	87.1819	17.3591	3.36523	-5.12734	8.75208	0
0.5693	1.29191	14.4958	-9.17242	34.5113	125.342	-9.17413	19.2257	-16.135	45.661	0.321405
0.5700	10.7413	-5.64838	-18.0305	57.3865	140.6	-18.9417	34.4863	-28.3259	65.8166	0
0.5707	7.71452	-1.67452	22.8596	57.0888	137.842	21.9586	29.3067	3.40628	58.8009	0
0.5713	6.49644	-1.3746	75.9796	54.0371	120.773	35.0645	28.6922	50.4129	57.5807	0
0.5720	7.08702	-2.59925	78.0941	53.7394	103.36	26.5333	28.9995	52.5284	57.2757	-0.321405
0.5727	6.79173	-1.97443	70.179	52.5237	94.5093	28.3632	27.4632	45.8234	54.812	0
0.5733	6.79173	-1.67452	72.0078	51.2831	103.963	28.0417	27.1706	47.9747	54.2019	0
0.5740	6.79173	-1.67452	69.5504	49.7697	114.652	26.83	26.2488	46.1461	52.6768	-0.321405
0.5747	6.49644	-1.97443	67.4359	48.554	82.613	26.2118	25.9415	44.6043	51.4566	-0.321405
0.5753	6.49644	-1.67452	65.8928	47.636	28.3039	25.6183	25.0344	43.6721	49.9315	-0.321405
0.5760	6.49644	-1.67452	64.3784	46.4203	-11.9825	25.0001	24.4198	42.7757	48.7113	-0.321405
0.5767	5.86894	-1.67452	62.5496	44.882	-32.1257	24.0852	24.1126	41.2339	47.7962	-0.321405
0.5773	5.57365	-1.67452	60.7208	43.6663	-19.626	23.467	23.4981	39.4053	46.5761	0
0.5780	5.86894	-1.67452	59.8065	43.0461	17.2984	23.1702	23.1908	39.1184	45.661	0
0.5787	5.57365	-1.67452	58.2634	42.1281	58.5044	22.2553	22.8982	39.1184	44.4409	0
0.5793	5.57365	-1.67452	56.749	40.9124	86.2623	21.6371	21.9764	37.8993	43.2208	0
0.5800	5.24145	-1.3746	55.5203	39.9944	85.0555	21.0436	21.3619	36.9671	42.3057	0
0.5807	5.24145	-1.3746	54.2916	39.0764	85.975	20.4254	21.3619	36.3575	41.3906	0.321405
0.5813	5.24145	-1.3746	53.0914	38.481	107.325	20.1287	21.3619	35.748	40.4755	0.321405
0.5820	5.24145	-1.3746	51.5484	37.2653	120.457	19.5105	20.4547	34.2421	39.2553	0
0.5827	4.94615	-1.3746	50.3197	36.3473	115.572	18.8923	19.533	33.3098	38.0352	0
0.5833	4.94615	-1.3746	49.1196	35.4293	84.452	18.5955	19.2257	32.7003	37.1201	0
0.5840	5.24145	-1.3746	47.8909	34.809	79.251	18.2741	18.6258	32.0907	36.205	0
0.5847	4.94615	-1.07469	46.6622	33.5933	137.238	17.6806	18.6258	31.4812	35.5949	0.321405
0.5853	4.65086	-1.3746	45.4621	32.6753	165.916	17.0624	18.3185	30.8716	34.9849	0.321405
0.5860	4.35557	-1.3746	44.2333	31.7573	152.812	16.4442	17.704	29.9394	34.0698	0
0.5867	4.65086	-1.3746	43.319	31.1619	150.054	16.1475	17.3968	29.3298	33.1547	0
0.5873	4.35557	-1.07469	42.4046	30.5416	148.531	15.8507	16.7822	28.4335	32.2396	0
0.5880	4.35557	-1.07469	41.4902	29.6236	143.962	15.2325	16.4896	27.8239	31.3245	0
0.5887	4.35557	-1.07469	40.2615	29.0282	140.6	14.9358	16.1824	27.5012	30.7144	0.321405
0.5893	4.35557	-1.07469	39.3471	28.4079	137.554	14.6143	15.8751	26.8917	30.1044	0.321405
0.5900	4.02336	-0.774777	38.4327	27.7877	134.192	14.3176	15.5678	26.2821	29.1893	0
0.5907	3.72807	-1.07469	37.204	26.8697	131.146	13.6994	15.2606	25.6726	28.5792	0
0.5913	3.72807	-1.3746	35.9753	26.2742	127.784	13.4026	14.9533	25.063	27.9691	0
0.5920	3.43278	-1.3746	35.3752	25.3562	124.738	12.7844	14.6461	24.4535	27.3591	0.321405
0.5927	3.43278	-1.07469	34.4609	25.0585	121.98	12.7844	14.3534	23.5571	26.444	0
0.5933	3.72807	-0.774777	33.8608	24.736	119.221	12.7844	13.7389	22.9476	25.5289	0
0.5940	3.43278	-1.07469	32.6321	23.818	116.175	12.191	13.4316	22.6249	24.9188	0
0.5947	3.13749	-1.3746	31.7177	22.9248	113.13	11.276	13.4316	22.0153	24.3087	0
0.5953	3.13749	-1.07469	31.1176	22.3046	110.687	11.276	12.8171	21.4058	23.6987	0
0.5960	3.13749	-0.774777	30.489	22.3046	108.245	11.276	12.5099	20.7962	23.0886	0
0.5967	3.13749	-0.774777	29.5746	21.6843	105.802	10.9546	12.2172	20.5094	22.4785	0
0.5973	2.80528	-0.774777	28.9746	20.7663	103.36	10.6578	11.91	19.8998	21.8685	0
0.5980	2.80528	-0.774777	28.3459	20.4686	100.917	10.3611	11.91	19.2903	21.2584	0
0.5987	2.80528	-1.07469	27.4315	19.8731	98.4747	10.0396	11.6027	18.9676	20.6484	0
0.5993	2.80528	-1.07469	26.5171	19.5506	96.0322	9.74288	11.2955	18.6807	20.3433	0
0.6000	2.80528	-0.449871	26.2314	19.2529	94.2219	9.74288	10.9882	18.0353	20.0383	0
0.6007	2.50999	-0.774777	25.6028	18.6326	91.7794	9.44614	10.9882	17.7485	19.4282	0
0.6013	2.50999	-1.07469	24.6884	17.7146	89.6243	8.82794	10.6809	17.4258	18.8182	0.321405
0.6020	2.50999	-0.774777	24.0883	17.4169	87.4979	8.82794	10.3737	17.139	18.5131	0
0.6027	2.50999	-1.07469	23.4883	17.4169	85.3716	8.82794	10.0811	16.8163	17.9031	0
0.6033	2.50999	-1.07469	22.8596	16.8215	83.5325	8.5312	9.77379	16.2067	17.293	0
0.6040	2.2147	-0.774777	22.5739	16.2012	81.3774	8.20974	9.46653	15.3103	16.6829	-0.321405
0.6047	2.2147	-0.774777	21.9452	15.9035	79.5671	7.913	9.46653	15.3103	16.3779	0
0.6053	2.2147	-1.07469	21.3452	15.2832	77.412	7.61626	9.15927	15.3103	16.3779	0
0.6060	1.9194	-1.07469	20.4308	14.663	75.2856	7.2948	9.15927	14.7008	15.7678	-0.321405
0.6067	1.29191	-1.07469	19.5164	14.3652	73.4465	6.99806	8.54475	12.8721	15.1578	-0.321405
0.6073	1.9194	-0.449871	19.8021	14.3652	72.527	7.2948	8.23749	12.2626	14.8527	0.321405
0.6080	2.50999	-0.149957	20.1165	14.3652	71.0041	7.61626	8.54475	13.4817	14.8527	0.321405
0.6087	2.2147	-0.774777	18.8878	13.7698	68.8777	6.99806	8.23749	13.4817	13.9376	-0.321405
0.6093	1.5872	-1.07469	17.9734	13.1495	67.0387	6.37985	7.94486	12.8721	13.6326	-0.321405
0.6100	1.9194	-0.774777	17.9734	13.1495	65.8318	6.70132	7.94486	12.8721	13.6326	0
0.6107	1.9194	-0.449871	17.6876	12.8518	64.3088	6.37985	7.94486	12.5494	13.3276	0
0.6113	1.9194	-0.449871	17.059	12.2315	62.4698	6.08312	7.6376	12.2626	12.7175	-0.321405
0.6120	1.5872	-0.774777	16.4589	11.9338	60.9468	5.76165	7.33034	11.9399	12.4125	-0.321405
0.6127	1.29191	-0.774777	16.1446	11.9338	59.7112	5.76165	7.33034	11.6531	12.1074	0
0.6133	1.5872	-0.449871	15.8589	11.6113	58.5044	5.76165	7.02308	11.3304	11.8024	0
0.6140	1.5872	-0.774777	15.2302	11.0158	56.9814	5.46491	7.02308	11.3304	11.8024	0
0.6147	1.5872	-0.774777	14.9445	11.0158	55.7458	5.16818	6.71582	10.7208	11.4974	0
0.6153	1.5872	-0.774777	14.3158	10.3956	54.2229	5.16818	6.40856	10.434	10.8873	0
0.6160	1.29191	-0.774777	14.0301	10.0978	52.6999	4.84671	6.1013	10.1113	10.5823	0
0.6167	1.5872	-0.449871	14.0301	10.3956	52.0965	4.84671	6.1013	10.1113	10.5823	0
0.6173	1.5872	-0.449871	13.7158	10.0978	50.8609	4.84671	6.40856	10.1113	10.5823	0
0.6180	1.29191	-0.774777	13.0871	9.47758	49.3379	4.54997	6.1013	9.82442	9.97221	0
0.6187	0.996613	-0.774777	12.4871	9.17986	48.131	4.54997	6.1013	9.50172	9.66718	0
0.6193	0.996613	-0.449871	12.4871	8.88213	46.8954	4.25324	6.1013	9.21488	9.36215	-0.321405
0.6200	1.29191	-0.774777	12.4871	8.88213	46.0047	4.25324	5.50142	8.89218	9.05712	-0.321405
0.6207	1.29191	-0.774777	11.887	8.88213	45.0851	4.25324	5.50142	8.89218	8.75208	0
0.6213	1.29191	-0.449871	11.5727	8.26187	43.5622	3.93177	5.50142	8.89218	8.75208	0
0.6220	0.996613	-0.774777	10.9726	7.96414	42.6427	3.63503	5.19416	8.28263	8.44705	-0.321405
0.6227	0.996613	-0.774777	10.9726	7.96414	41.7232	3.63503	5.19416	8.28263	8.14202	0
0.6233	0.996613	-0.449871	10.9726	7.96414	40.8036	3.93177	5.19416	8.28263	8.14202	0
0.6240	0.996613	-0.449871	10.6583	7.66642	39.8841	3.63503	5.19416	7.99579	7.83699	-0.321405
0.6247	0.996613	-0.774777	10.0582	7.34388	38.9646	3.3383	4.8869	7.67309	7.53196	-0.321405
0.6253	1.29191	-0.449871	10.0582	7.04616	38.0451	3.63503	4.57964	7.38624	7.53196	-0.321405
0.6260	0.996613	-0.449871	9.74391	7.04616	37.1543	3.3383	4.57964	7.38624	7.22692	-0.321405
0.6267	0.996613	-0.774777	9.74391	6.74843	35.9187	3.01683	4.57964	7.06354	6.92189	-0.321405
0.6273	0.996613	-0.449871	9.42959	6.74843	35.3153	3.3383	4.57964	7.06354	6.92189	-0.321405
0.6280	0.996613	-0.449871	9.14384	6.74843	34.7118	3.01683	4.27238	7.06354	6.92189	0
0.6287	0.996613	-0.449871	8.82952	6.4259	33.4762	3.01683	4.57964	7.06354	6.61686	0.321405
0.6293	0.664409	-0.449871	8.51521	6.12817	32.5567	2.72009	4.57964	7.06354	6.61686	0.321405
0.6300	0.664409	-0.449871	8.22946	5.83045	31.9533	2.72009	4.27238	6.7767	6.31183	0
0.6307	0.664409	-0.774777	8.22946	5.83045	31.0338	2.42336	3.96512	6.7767	6.00679	0.321405
0.6313	0.664409	-0.449871	8.22946	5.50791	30.4303	2.72009	4.27238	6.454	6.00679	0
0.6320	0.664409	-0.449871	7.91514	5.83045	29.8269	2.72009	3.96512	6.16716	5.70176	-0.321405
0.6327	0.996613	-0.449871	7.60082	5.83045	29.1947	2.42336	3.67249	6.16716	5.70176	0
0.6333	0.996613	-0.449871	7.60082	5.50791	28.5913	2.42336	3.67249	5.84446	5.37326	0
0.6340	0.664409	-0.449871	7.31508	5.21019	27.3844	2.42336	3.36523	5.55761	5.06823	-0.321405
0.6347	0.369116	-0.774777	7.00076	4.91246	26.7522	2.10189	3.36523	5.55761	4.7632	-0.321405
0.6353	0.664409	-0.774777	6.68644	4.91246	26.1488	1.80515	3.67249	5.55761	4.7632	0
0.6360	0.369116	-1.07469	6.40069	4.2922	25.2293	1.80515	3.67249	5.55761	5.06823	0.321405
0.6367	0.0738232	-1.3746	6.08637	3.99448	24.6259	1.50842	3.05797	4.62537	4.7632	0.321405
0.6373	0.369116	-0.774777	6.08637	4.61474	24.6259	1.50842	2.75071	3.40628	4.45817	0.321405
0.6380	0.996613	-0.149957	6.40069	4.61474	24.0224	2.10189	3.05797	4.01582	4.45817	0
0.6387	0.664409	-0.149957	6.40069	4.61474	23.7063	1.80515	3.05797	4.94807	4.45817	0
0.6393	0.664409	-0.449871	6.08637	4.2922	22.7868	1.50842	3.05797	4.94807	4.15313	0
0.6400	0.664409	-0.774777	5.77205	3.99448	21.896	1.18695	3.36523	4.94807	4.15313	0
0.6407	0.664409	-0.449871	5.77205	4.2922	21.58	1.50842	3.05797	4.94807	4.15313	-0.321405
0.6413	0.664409	-0.774777	5.45773	4.2922	21.2639	1.80515	2.75071	4.62537	3.8481	0
0.6420	0.369116	-0.774777	5.45773	3.99448	20.6604	1.18695	2.75071	4.30267	3.8481	0
0.6427	0.369116	-0.449871	5.17199	3.69675	20.057	1.18695	2.75071	4.30267	3.23804	0
0.6433	0.664409	-0.449871	5.17199	3.69675	19.7409	1.50842	2.75071	4.30267	3.54307	0
0.6440	0.664409	-0.449871	5.17199	3.69675	19.4536	1.50842	3.05797	4.30267	3.54307	0
0.6447	0.0738232	-0.449871	4.54335	3.07649	18.534	0.890212	2.75071	4.30267	3.23804	-0.321405
0.6453	0.369116	-0.449871	4.54335	3.37422	17.9019	0.890212	2.44345	4.01582	2.933	-0.321405
0.6460	0.664409	-0.449871	4.54335	3.37422	17.6145	1.18695	2.44345	4.01582	3.23804	0
0.6467	0.369116	-0.774777	4.2576	3.07649	17.2984	1.18695	2.44345	4.01582	3.23804	0.321405
0.6473	0.369116	-0.449871	4.2576	3.07649	17.0111	1.18695	2.44345	4.01582	2.933	0.321405
0.6480	0.664409	-0.449871	4.2576	3.37422	16.695	1.18695	2.44345	4.01582	2.933	0.321405
0.6487	0.369116	-0.449871	4.2576	3.07649	16.0916	1.18695	2.44345	4.01582	2.933	0
0.6493	0.369116	-0.449871	3.94328	2.77877	15.4594	0.890212	2.44345	3.69312	2.62797	0
0.6500	0.369116	-0.449871	3.94328	2.77877	15.1721	0.890212	2.13619	3.40628	2.62797	0
0.6507	0.664409	-0.449871	3.94328	2.77877	14.856	0.890212	2.13619	3.40628	2.62797	0
0.6513	0.369116	-0.449871	3.94328	2.77877	14.5686	0.890212	2.13619	3.40628	2.62797	0
0.6520	0.369116	-0.449871	3.62896	2.45623	13.9365	0.890212	2.13619	3.40628	2.32294	0
0.6527	0.0738232	-0.774777	3.34322	2.45623	13.6491	0.593475	2.13619	3.08358	2.32294	0
0.6533	0.369116	-0.449871	3.34322	2.15851	13.333	0.593475	2.13619	3.08358	2.01791	0
0.6540	0.369116	-0.149957	3.34322	2.45623	13.0457	0.890212	1.82893	2.79673	2.01791	-0.321405
0.6547	0.369116	-0.149957	3.34322	2.45623	12.7296	0.890212	1.82893	3.08358	2.01791	-0.321405
0.6553	0.0738232	-0.449871	3.0289	2.15851	12.4135	0.593475	2.13619	3.08358	2.01791	0.321405
0.6560	0.0738232	-0.449871	3.0289	2.15851	12.1262	0.593475	2.13619	3.08358	2.01791	0.321405
0.6567	0.0738232	-0.449871	3.0289	1.86078	11.494	0.593475	1.82893	2.79673	1.71287	-0.321405
0.6573	0.0738232	-0.449871	3.0289	2.15851	11.494	0.890212	1.82893	2.79673	1.40784	0
0.6580	0.369116	-0.149957	3.0289	2.15851	11.2066	0.593475	1.82893	2.79673	1.71287	0.321405
0.6587	0.0738232	-0.449871	2.71458	1.86078	10.6032	0.272009	1.82893	2.79673	1.71287	0
0.6593	-0.22147	-0.774777	2.42883	1.56306	10.2871	0.272009	1.5363	2.47403	1.40784	-0.321405
0.6600	0.0738232	-0.449871	2.71458	1.86078	10.2871	0.593475	1.82893	2.47403	1.40784	0
0.6607	0.369116	-0.449871	2.71458	1.86078	9.97103	0.593475	1.82893	2.47403	1.71287	0
0.6613	0.0738232	-0.774777	2.42883	1.56306	9.68368	0.272009	1.5363	2.18719	1.40784	0
0.6620	-0.22147	-0.774777	1.80019	1.56306	9.36759	0.272009	1.5363	1.25494	1.10281	0.321405
0.6627	0.0738232	-0.449871	2.11451	1.56306	9.36759	0.272009	1.5363	1.57764	1.40784	0.321405
0.6633	0.0738232	-0.149957	2.11451	1.24052	9.05151	0.272009	1.82893	2.79673	1.40784	0.321405
0.6640	0.0738232	-0.449871	2.11451	1.24052	8.76416	0.272009	1.82893	2.47403	1.10281	0
0.6647	0.369116	-0.149957	2.42883	1.56306	8.76416	0.593475	1.22904	2.18719	1.10281	-0.321405
0.6653	0.369116	-0.149957	2.11451	1.56306	8.44808	0.593475	1.22904	2.18719	0.797777	-0.321405
0.6660	0.0738232	-0.449871	2.11451	1.24052	8.16073	0.272009	1.5363	2.18719	0.797777	0
0.6667	-0.22147	-0.449871	1.80019	0.942796	7.84464	0.272009	1.5363	2.18719	0.797777	0.321405
0.6673	-0.22147	-0.774777	1.80019	0.942796	7.52856	0.272009	1.5363	2.18719	0.797777	0.321405
0.6680	0.0738232	-0.449871	1.80019	1.24052	7.52856	0.593475	1.5363	2.18719	1.10281	0
0.6687	0.0738232	-0.449871	1.80019	1.24052	7.24121	0.272009	1.5363	1.86449	0.797777	-0.321405
0.6693	-0.22147	-0.774777	1.51445	0.942796	6.92512	-0.0247281	0.92178	0.358556	0.492745	-0.321405
0.6700	0.0738232	-0.449871	1.51445	1.24052	6.92512	0.272009	1.22904	0.0358556	0.492745	0
0.6707	0.0738232	-0.149957	1.51445	1.24052	6.00561	0.272009	1.5363	1.25494	0.797777	0.321405
0.6713	-0.22147	-0.774777	1.20013	0.645071	9.36759	-0.0247281	0.92178	1.86449	0.187712	-0.321405
0.6720	-0.22147	-0.449871	1.20013	0.942796	2.64362	-0.0247281	0.92178	1.57764	0.187712	-0.321405
0.6727	0.0738232	-0.149957	1.51445	0.942796	2.35627	0.272009	1.22904	1.57764	0.492745	0
0.6733	0.0738232	-0.449871	1.51445	0.942796	30.7177	0.272009	1.22904	1.57764	0.492745	0
0.6740	-0.22147	-0.449871	1.20013	0.645071	-84.9405	0.272009	1.22904	1.86449	0.492745	0
0.6747	-0.22147	-0.449871	1.20013	0.645071	-286.344	0.272009	1.22904	1.86449	0.187712	0
0.6753	-0.22147	-0.449871	1.20013	0.645071	-309.849	0.272009	0.92178	1.57764	0.187712	-0.321405
0.6760	0.0738232	-0.449871	1.20013	0.645071	-271.689	-0.0247281	0.92178	1.57764	0.187712	0
0.6767	-0.22147	-0.449871	0.88581	0.645071	-273.212	-0.0247281	0.92178	1.57764	0.187712	0
0.6773	-0.22147	-0.449871	0.88581	0.322535	-259.793	-0.0247281	0.92178	1.57764	0.187712	0
0.6780	-0.22147	-0.774777	0.88581	0.322535	-247.58	-0.0247281	0.92178	1.57764	0.187712	0
0.6787	-0.22147	-0.774777	0.600065	0.322535	-239.65	-0.0247281	0.92178	1.25494	-0.11732	0
0.6793	-0.553674	-0.449871	0.88581	0.322535	-228.673	-0.0247281	1.22904	1.25494	0.187712	0
0.6800	-0.22147	-0.449871	1.20013	0.645071	-216.46	-0.0247281	1.22904	1.57764	0.187712	0
0.6807	-0.22147	-0.449871	0.88581	0.645071	-202.409	-0.0247281	0.61452	1.25494	-0.11732	0
0.6813	-0.553674	-0.449871	0.600065	0.322535	-188.702	-0.321466	0.61452	1.25494	-0.11732	0
0.6820	-0.553674	-0.774777	0.600065	0.0248104	-179.852	-0.642931	0.92178	1.25494	-0.11732	0
0.6827	-0.553674	-0.449871	0.88581	0.322535	-174.967	-0.0247281	0.92178	1.25494	-0.11732	0
0.6833	-0.22147	-0.149957	0.88581	0.645071	-172.812	-0.0247281	0.92178	1.25494	-0.11732	-0.321405
0.6840	-0.22147	-0.449871	0.88581	0.645071	-174.048	-0.0247281	0.92178	1.25494	-0.11732	-0.321405
0.6847	-0.22147	-0.449871	0.88581	0.645071	-171.605	-0.0247281	0.92178	0.9681	-0.422353	-0.321405
0.6853	-0.553674	-0.449871	0.600065	0.322535	-160.312	-0.321466	0.61452	0.6454	-0.422353	-0.321405
0.6860	-0.22147	-0.449871	0.600065	0.322535	-146.893	-0.321466	0.61452	0.6454	-0.11732	-0.321405
0.6867	-0.22147	-0.774777	0.600065	0.0248104	-135.284	-0.321466	0.92178	1.25494	-0.11732	-0.321405
0.6873	-0.22147	-0.449871	0.600065	0.322535	-121.549	-0.321466	0.92178	1.25494	-0.422353	0
0.6880	0.0738232	-0.149957	0.600065	0.322535	-105.371	-0.321466	0.92178	1.25494	-0.11732	0
0.6887	-0.22147	-0.449871	0.600065	0.322535	-90.1128	-0.321466	0.92178	1.25494	0.187712	0.321405
0.6893	-0.22147	-0.449871	0.600065	0.322535	-79.1361	-0.321466	1.22904	1.57764	-0.11732	0
0.6900	-0.22147	-0.449871	-0.31432	0.0248104	-71.2052	-0.321466	0.61452	0.6454	-0.727385	0
0.6907	-0.553674	-0.449871	1.20013	0.645071	-65.0847	0.593475	0.92178	2.47403	0.187712	0
0.6913	0.369116	0.149957	3.0289	0.942796	-63.2744	0.890212	2.13619	1.86449	1.71287	0
0.6920	-1.43955	-2.29934	-8.8581	-3.3246	-65.4008	-4.59943	-4.87226	-6.95598	-8.04816	0
0.6927	0.0738232	3.19908	14.9445	6.74843	-65.7168	7.913	7.6376	19.5771	10.2772	0
0.6933	3.13749	-2.89917	-6.11495	-5.78083	-60.8319	-7.04751	1.22904	-22.2304	-3.47268	0
0.6940	-26.1703	-48.686	-210.594	-81.1549	-55.0274	-105.317	-112.911	-168.414	-162.16	-0.321405
0.6947	-62.196	-72.4791	-338.465	-106.784	-51.6654	-160.856	-198.973	-167.194	-272.629	0
0.6953	-63.4141	-45.6119	-285.659	-40.565	-44.0219	-139.788	-180.961	-78.0934	-245.786	0
0.6960	-56.9915	-17.8449	-261.857	36.9427	-36.7233	-133.087	-168.759	-56.7235	-226.545	0.321405
0.6967	-57.9143	1.07469	-261.857	67.1618	-33.0452	-133.68	-167.837	-62.4962	-221.36	0
0.6973	-61.2732	1.97443	-245.369	57.0888	-28.7637	-126.682	-157.156	-132.092	-210.379	0
0.6980	-57.619	-33.7153	-243.541	29.6236	-25.7178	-119.956	-145.875	-223.954	-203.668	0.321405
0.6987	-43.5557	-66.3809	-240.512	-86.3403	-24.1948	-112.018	-137.023	-238.583	-196.652	0.321405
0.6993	-32.2607	-74.0037	-226.767	-217.563	-20.8328	-104.402	-131.229	-177.879	-188.088	0
0.7000	-32.5929	-95.3726	-203.879	-200.468	-18.103	-100.742	-122.685	-111.045	-177.107	-0.321405
0.7007	-37.17	-134.136	-178.562	-170.572	-17.4996	-98.9125	-112.296	-82.0375	-165.82	0
0.7013	-38.6833	-124.364	-176.705	-245.946	-15.0571	-94.9313	-105.288	-57.0103	-155.754	0
0.7020	-40.5289	-63.6317	-180.677	-278.298	-12.2986	-89.1449	-102.537	-17.3541	-148.128	0
0.7027	-39.6061	-62.407	-177.333	-225.204	-10.1722	-83.952	-101.015	18.6807	-142.004	0
0.7033	-39.3108	-95.6725	-200.222	-178.188	-6.4941	-78.4623	-97.6501	123.02	-135.904	0.321405
0.7040	-44.1832	-92.6234	-230.425	-183.696	-3.44819	-71.4395	-90.9343	310.724	-130.413	0.321405
0.7047	-40.8242	-76.7529	-199.307	-233.119	-3.13211	-66.5434	-86.062	419.044	-125.533	0
0.7053	-29.234	23.9681	-118.441	-239.545	-1.92524	-63.2051	-83.0041	296.382	-114.856	0
0.7060	-15.5029	126.189	-70.5219	-173.921	0.517229	-57.6907	-78.7317	-59.1617	-101.435	-0.321405
0.7067	-3.91263	78.5774	-68.6931	-112.887	2.35627	-54.6491	-76.5955	-308.788	-92.8707	-0.321405
0.7073	-2.06705	0.149957	-77.2369	-102.517	5.08609	-54.0309	-73.5375	-272.18	-86.465	0
0.7080	-4.50321	-14.1959	-89.7525	-110.456	8.16073	-50.3712	-66.8363	-248.371	-80.6693	0
0.7087	-6.34879	-12.0465	-107.754	-103.732	8.76416	-46.1179	-61.9495	-257.228	-77.9241	0
0.7093	-7.27158	-10.2221	-118.727	-89.6897	8.76416	-44.2633	-59.1987	-166.585	-75.1788	0.321405
0.7100	-9.37554	-4.12381	-115.984	-87.556	9.97103	-41.84	-51.2685	-100.647	-71.8234	0
0.7107	-14.5801	0.449871	-124.528	-104.03	10.8905	-38.1802	-43.031	-110.112	-69.6882	-0.321405
0.7113	-21.0027	1.3746	-138.272	-103.112	11.494	-36.3503	-38.4514	-112.264	-65.7228	0
0.7120	-35.3244	6.2482	-104.697	-69.5436	13.0457	-37.2653	-32.0428	-74.1134	-56.5718	0.321405
0.7127	-49.9783	-2.89917	-67.7787	-40.565	15.1721	-37.8587	-24.1126	-39.9431	-49.8611	0.321405
0.7133	-45.6965	-52.3349	-72.3507	-33.8414	14.856	-38.7737	-23.8053	-34.744	-49.251	0
0.7140	-34.4016	-91.9985	-40.0043	-31.7077	15.7755	-37.8587	-27.4632	-27.1068	-45.2856	0
0.7147	-25.2475	-80.4019	4.85767	-27.4403	19.1375	-32.3691	-28.385	16.2067	-36.4162	0
0.7153	-8.48967	-30.9661	-11.9156	-27.4403	22.1834	-26.8795	-27.4632	56.7952	-31.8407	0
0.7160	2.2147	31.8908	-27.803	-27.7381	23.7063	-23.5164	-24.7125	46.1461	-30.3155	0.321405
0.7167	-0.848967	48.3611	-10.4011	-23.7684	23.7063	-18.645	-21.3619	-1.18323	-26.9602	0.321405
0.7173	-9.08025	27.0172	-4.91482	-19.501	23.419	-16.1969	-21.9764	-51.8471	-24.8249	0
0.7180	-21.298	15.7205	-17.4305	-16.7718	23.1029	-16.8151	-23.4981	-44.8194	-24.8249	0
0.7187	-32.2607	-110.618	-30.8319	-13.6954	24.3098	-16.4937	-21.9764	12.2626	-22.3847	0
0.7193	-35.9519	-288.242	-30.8319	-10.3459	25.5454	-14.6638	-19.533	42.7757	-18.7243	0
0.7200	-28.6065	-259.25	-23.2025	-7.59199	25.8615	-8.58066	-17.9967	22.0153	-17.5042	0
0.7207	-5.13071	-153.056	-31.4605	-3.64713	27.6718	2.10189	-12.2026	-31.3736	-13.8438	0
0.7213	24.8046	-104.52	-52.2056	0.0248104	29.1947	1.50842	-6.40856	-68.9144	-9.57333	0.321405
0.7220	36.9854	15.0957	-96.1532	-0.59545	26.7522	-10.4105	-7.31571	-37.7918	-9.57333	0
0.7227	21.1134	108.494	-130.928	-0.59545	25.2293	-14.0703	-8.85201	33.023	-8.65823	0
0.7233	1.9194	21.8187	-53.7201	2.77877	26.7522	-8.87739	-8.54475	50.0902	-5.30287	0.321405
0.7240	0.0738232	-65.7561	51.2341	6.12817	28.3039	-5.81111	-7.02308	56.5084	-2.55758	0
0.7247	3.43278	-41.3631	29.2889	9.80012	29.1947	-5.21763	-4.57964	189.246	0.187712	0
0.7253	1.5872	-22.1186	-44.5762	13.4472	30.4303	-3.06629	-3.04334	248.766	4.15313	0.321405
0.7260	-4.50321	-28.2169	-65.3213	14.0675	29.8269	-2.15135	-3.96512	49.4807	5.37326	0
0.7267	-7.56688	-24.5679	-21.3737	15.2832	28.9074	1.18695	-5.17952	-110.112	4.15313	0
0.7273	-4.20792	-28.5418	64.6641	17.4169	28.9074	12.191	-1.82893	-111.941	4.45817	0.321405
0.7280	0.0738232	-28.8417	100.382	16.4989	29.1947	13.6994	3.96512	-93.6547	6.31183	0.321405
0.7287	5.86894	-47.4613	30.8033	17.1192	30.7177	5.76165	8.23749	-50.9149	7.83699	0.321405
0.7293	16.2411	-98.7216	-58.0063	20.1709	33.1601	8.5312	9.15927	15.9199	10.2772	0.321405
0.7300	20.5228	-61.4823	-71.122	21.0889	34.0797	16.1475	7.02308	59.8788	11.1923	0
0.7307	14.7277	30.3663	-33.6036	20.1709	31.6372	17.3591	4.27238	79.9937	9.97221	0.321405
0.7313	5.86894	16.0204	-4.6005	18.9552	29.8269	15.2325	4.57964	84.8701	9.97221	0.321405
0.7320	-4.20792	-41.9629	37.204	16.4989	30.4303	13.4026	7.02308	93.1169	11.1923	0
0.7327	-15.5029	-49.5857	82.6946	13.1495	29.8269	11.276	7.02308	112.658	11.1923	-0.321405
0.7333	-22.8114	-50.2106	67.1215	12.8518	29.8269	11.276	9.15927	32.7003	13.3276	0
0.7340	-19.7477	-57.5335	37.5183	15.2832	31.3498	14.0208	13.1244	-104.017	16.6829	0
0.7347	-9.37554	-56.3088	23.4883	14.3652	31.0338	13.6994	11.6027	-79.922	17.293	0
0.7353	-3.58042	-51.1103	11.5727	14.0675	29.8269	11.5728	8.54475	14.3781	17.9031	0
0.7360	-4.50321	-37.9891	10.344	18.3349	28.9074	11.276	8.85201	40.3375	18.2081	0
0.7367	-7.86217	-36.7644	25.317	22.0068	27.6718	11.276	8.85201	117.857	15.7678	0
0.7373	-13.362	-34.3401	88.1809	29.6236	27.6718	12.4877	10.0811	173.397	16.0729	0
0.7380	-10.2983	-4.72364	111.669	46.718	30.1142	16.1475	14.0462	122.411	20.9534	0
0.7387	0.369116	-19.9942	56.1203	48.8517	31.0338	16.1475	14.9533	101.077	20.9534	0
0.7393	1.9194	-100.246	29.8889	28.1102	28.5913	12.4877	10.9882	114.487	15.7678	0.321405
0.7400	-1.77176	-153.656	36.2896	18.9552	28.3039	11.276	8.54475	98.9255	13.9376	0
0.7407	2.50999	-131.387	25.6028	24.4383	29.1947	12.4877	9.15927	71.747	16.0729	-0.321405
0.7413	11.6641	-48.686	15.5445	25.9765	29.5108	13.1059	10.0811	65.3647	19.1232	0
0.7420	11.0735	63.6317	9.14384	27.4899	30.4303	15.8507	12.8171	38.5089	22.7836	0
0.7427	-6.64409	118.866	-7.02933	29.3259	32.2694	18.2741	15.5678	-34.1345	24.6138	-0.321405
0.7433	-30.4521	66.3809	3.62896	26.8697	29.5108	14.6143	11.6027	-89.6747	21.5634	-0.321405
0.7440	-39.6061	15.7205	51.5484	24.4383	26.1488	11.276	7.33034	-41.7717	18.8182	-0.321405
0.7447	-32.2607	15.0957	65.5785	25.3562	27.0683	13.4026	8.85201	118.144	20.0383	0
0.7453	-21.0027	10.2221	62.8354	26.8697	27.0683	14.6143	11.6027	265.259	21.5634	0.321405
0.7460	-7.86217	-5.34846	105.869	27.7877	27.6718	13.4026	12.5099	282.327	21.5634	0
0.7467	4.94615	0.774777	129.985	28.1102	29.1947	12.191	14.0462	127.323	23.0886	-0.321405
0.7473	10.1507	42.8877	83.8948	27.4899	21.58	9.44614	13.7389	-64.9703	22.7836	0
0.7480	10.446	62.707	39.6614	25.654	35.6026	5.16818	10.0811	-132.415	20.3433	0
0.7487	14.3955	18.7696	44.5477	25.0585	81.6935	4.25324	9.46653	-139.406	20.6484	-0.321405
0.7493	13.1774	-18.4697	13.0871	26.572	97.8713	5.16818	11.2955	-118.969	22.1735	0
0.7500	1.9194	19.3694	-68.6931	25.0585	88.7048	-0.642931	11.6027	-76.5516	23.6987	0
0.7507	3.13749	75.8282	-40.0043	21.6843	87.814	4.84671	9.46653	-46.3254	19.4282	0
0.7513	18.382	78.2775	74.1223	34.809	86.5784	39.3424	19.2257	-2.68917	25.5289	0
0.7520	22.959	61.8072	101.897	56.7911	83.8199	61.6225	41.8166	15.5972	65.2066	-0.321405
0.7527	20.8181	62.1071	85.1235	60.4382	82.0096	57.6412	50.0541	7.67309	94.1846	0
0.7533	21.1134	61.8072	88.1809	56.7911	80.1705	55.5146	46.3962	9.50172	89.6092	0
0.7540	20.5228	59.058	86.3522	56.1708	78.0441	55.2179	45.7817	9.82442	85.9488	0
0.7547	19.6001	57.8334	82.6946	54.6574	76.2051	53.388	45.1672	8.89218	85.3387	0
0.7553	19.6001	56.6087	81.4659	53.7394	74.6821	52.1516	43.9528	8.89218	82.8984	0
0.7560	19.3048	55.3841	79.3228	52.2011	72.8431	50.9399	43.3383	8.89218	80.7632	0
0.7567	18.382	53.5596	76.894	50.6877	71.0041	49.4068	41.8166	7.99579	78.323	-0.321405
0.7573	17.7545	52.6349	75.351	49.7697	69.4811	48.1951	40.8948	7.38624	76.4928	0
0.7580	18.0867	51.7351	73.8365	48.8517	68.2743	47.5769	40.2803	7.99579	75.2726	0.321405
0.7587	17.4592	50.2106	71.6935	47.3383	66.1191	46.0685	39.0659	7.99579	73.1374	0
0.7593	16.8686	48.9859	69.8647	46.0978	64.5962	44.8321	38.1441	7.67309	71.3072	-0.321405
0.7600	16.5364	48.0612	68.3502	45.1798	63.3893	43.9171	37.237	7.38624	69.477	-0.321405
0.7607	15.9458	46.8365	66.4929	43.9641	61.5503	42.7055	36.3152	7.06354	67.6468	-0.321405
0.7613	15.6505	45.9368	64.9784	43.0461	60.3434	41.4691	35.7153	7.06354	66.1217	-0.321405
0.7620	15.6505	44.7121	63.464	42.1281	59.1078	40.5541	34.7935	7.06354	64.5965	0
0.7627	15.023	43.4875	61.921	40.9124	57.5848	39.6392	34.179	7.06354	63.0713	0
0.7633	14.3955	42.2628	60.0922	39.6967	56.0619	38.1308	33.5791	7.06354	61.5462	0
0.7640	13.8049	41.0382	58.2634	38.481	54.5389	36.8944	32.0428	6.16716	59.4109	-0.321405
0.7647	13.8049	40.4384	57.0347	37.8607	53.6194	36.3009	31.4429	5.55761	58.1908	0
0.7653	13.8049	39.5136	56.1203	37.2653	52.4126	35.6827	31.1357	6.16716	57.2757	0.321405
0.7660	13.1774	38.6139	54.2916	36.0247	50.8609	34.471	30.2139	6.16716	55.7505	0
0.7667	12.8821	37.6892	53.0914	35.1316	49.9701	33.5561	29.5994	5.84446	54.2019	-0.321405
0.7673	12.8821	36.7644	51.8627	34.2136	48.7345	32.9379	28.9995	6.16716	53.2868	-0.321405
0.7680	12.2916	35.8647	50.3197	33.2956	47.2115	31.7014	28.385	5.84446	52.0667	0.321405
0.7687	11.9594	34.9399	49.1196	32.3776	46.0047	31.108	28.0777	6.16716	50.8466	0.321405
0.7693	11.6641	34.0152	47.8909	31.4596	45.0851	30.193	27.1706	5.84446	49.3214	0
0.7700	11.0735	32.8156	46.6622	30.5416	43.8495	29.5748	26.2488	5.23491	47.7962	0
0.7707	11.0735	32.1907	45.4621	29.9214	43.2461	28.6599	25.6343	5.23491	46.5761	0
0.7713	10.7413	31.8908	44.5477	29.3259	42.0105	28.0417	25.0344	5.23491	45.661	0
0.7720	10.446	30.6662	43.6047	28.4079	40.8036	27.4482	24.4198	4.94807	44.7459	0
0.7727	10.1507	29.7664	42.0903	27.4899	39.8841	26.5333	23.8053	4.94807	43.5258	0
0.7733	10.1507	29.1416	41.1759	27.1922	38.9646	25.9151	23.4981	4.94807	42.6107	0
0.7740	10.1507	28.8417	40.5758	26.572	38.0451	25.2969	22.8982	4.62537	41.3906	0.321405
0.7747	9.52319	27.917	39.3471	25.9765	37.1543	24.7034	22.2837	4.30267	40.1704	-0.321405
0.7753	9.2279	27.3171	38.1184	25.0585	36.2348	23.7885	21.9764	4.30267	39.2553	0
0.7760	9.2279	26.6923	37.204	24.4383	35.3153	23.1702	21.6691	4.30267	38.3402	0.321405
0.7767	8.9326	26.0925	36.2896	23.818	34.3957	23.1702	20.762	4.30267	37.1201	0
0.7773	8.6004	25.4927	35.3752	23.5203	33.7923	22.2553	20.4547	4.01582	36.51	0
0.7780	8.6004	24.8678	34.4609	22.9248	32.8728	21.6371	20.1475	4.01582	35.2899	0
0.7787	8.00981	24.268	33.5465	22.3046	31.9533	21.0436	19.533	4.01582	34.6798	0.321405
0.7793	8.00981	23.6432	32.6321	21.6843	31.0338	20.4254	19.2257	4.01582	33.7647	0
0.7800	7.71452	23.0434	31.7177	21.0889	30.1142	20.1287	18.9184	4.01582	32.8496	0
0.7807	7.71452	22.7435	31.4034	20.7663	29.8269	19.8072	18.3185	3.69312	32.2396	0
0.7813	7.38232	22.4186	30.8033	20.4686	29.1947	19.2137	17.704	3.69312	31.3245	0
0.7820	7.38232	21.8187	29.8889	19.8731	28.3039	18.5955	17.3968	3.69312	30.4094	0
0.7827	7.08702	21.2189	28.9746	19.2529	27.6718	17.9773	17.0895	3.69312	29.7993	0
0.7833	6.79173	20.2942	28.0602	18.6326	27.0683	17.6806	17.0895	3.69312	29.1893	0.321405
0.7840	7.08702	19.9942	27.4315	18.0372	26.4649	17.3591	16.4896	3.40628	28.2742	0
0.7847	6.79173	19.6943	26.8315	17.7146	25.8615	16.7657	15.8751	3.40628	27.6641	0
0.7853	6.49644	19.0695	26.2314	17.1192	24.9419	16.1475	15.5678	3.08358	27.054	0
0.7860	6.16424	18.4697	25.6028	16.4989	24.3098	15.8507	14.9533	2.79673	25.8339	0
0.7867	5.86894	17.8449	24.6884	16.2012	23.7063	15.2325	14.3534	2.18719	24.9188	0
0.7873	5.86894	17.8449	24.4026	16.2012	23.419	15.2325	14.3534	2.47403	24.6138	0.321405
0.7880	6.16424	17.545	23.774	15.9035	23.1029	14.9358	14.3534	3.08358	24.6138	0
0.7887	5.57365	16.6202	22.8596	14.9855	21.896	14.0208	14.0462	3.08358	23.6987	0
0.7893	5.24145	16.3203	22.2595	14.663	21.2639	14.0208	13.4316	2.79673	23.0886	0
0.7900	5.57365	16.0204	21.6595	14.3652	20.9765	13.6994	13.4316	2.79673	22.7836	0
0.7907	5.24145	15.7205	21.3452	14.0675	20.3443	13.1059	13.1244	2.79673	22.1735	0
0.7913	4.94615	15.0957	20.7165	13.7698	19.7409	12.7844	12.5099	2.47403	21.2584	-0.321405
0.7920	4.94615	14.7957	20.1165	13.4472	19.4536	12.4877	12.2172	2.47403	20.9534	-0.321405
0.7927	4.94615	14.4958	19.5164	13.1495	18.8214	12.191	11.91	2.47403	20.3433	0
0.7933	4.65086	14.1959	18.8878	12.5293	18.534	11.8695	11.91	2.47403	19.7333	0
0.7940	4.65086	13.896	18.602	12.2315	17.9019	11.5728	11.6027	2.47403	19.4282	0
0.7947	4.65086	13.5711	18.2877	11.9338	17.2984	11.276	11.2955	2.47403	19.1232	0
0.7953	4.35557	13.2712	17.6876	11.6113	17.0111	10.9546	10.9882	2.47403	18.2081	-0.321405
0.7960	4.02336	12.6714	17.3733	11.3136	16.695	10.6578	10.6809	2.47403	17.9031	0
0.7967	4.02336	12.0465	16.7732	11.0158	16.0916	10.3611	10.6809	2.47403	17.598	0.321405
0.7973	4.02336	12.0465	16.4589	11.0158	15.7755	10.0396	10.3737	2.18719	16.988	0
0.7980	4.02336	12.0465	16.1446	10.7181	15.4594	10.0396	10.0811	2.18719	16.6829	0
0.7987	3.72807	11.4467	15.5445	10.3956	14.856	9.44614	9.77379	2.18719	16.3779	0
0.7993	3.72807	11.1468	14.9445	9.80012	14.5686	9.12468	9.77379	2.18719	15.7678	-0.321405
0.8000	3.72807	10.8219	14.6302	9.80012	14.2525	9.12468	9.77379	1.86449	15.4628	0
0.8007	3.43278	10.522	14.3158	9.47758	13.9365	8.82794	9.46653	2.18719	15.1578	0.321405
0.8013	3.13749	10.522	14.0301	9.17986	13.333	8.5312	9.15927	2.18719	14.8527	0.321405
0.8020	3.13749	10.2221	13.7158	8.88213	13.0457	8.20974	8.85201	1.86449	14.2427	0
0.8027	3.43278	9.92215	13.4014	8.88213	13.0457	8.20974	8.54475	1.86449	13.9376	0
0.8033	3.13749	9.62223	13.4014	8.5596	12.7296	8.20974	8.23749	1.86449	13.6326	0
0.8040	3.13749	9.62223	12.8014	8.5596	12.4135	7.61626	8.23749	1.57764	13.3276	0
0.8047	3.13749	9.29733	12.4871	8.26187	11.8101	7.61626	7.94486	1.86449	13.0225	0.321405
0.8053	2.80528	8.99741	11.887	7.66642	11.2066	7.2948	7.94486	1.86449	12.7175	0
0.8060	2.80528	8.6975	11.887	7.66642	11.2066	6.99806	7.94486	1.86449	12.4125	0
0.8067	2.80528	8.6975	11.5727	7.66642	10.8905	6.99806	7.6376	1.57764	12.1074	0
0.8073	2.80528	8.39758	11.2584	7.34388	10.6032	6.70132	7.33034	1.57764	11.4974	0
0.8080	2.50999	8.09767	10.9726	7.04616	10.2871	6.37985	7.02308	1.57764	11.1923	0
0.8087	2.50999	7.77276	10.6583	7.34388	9.97103	6.37985	7.02308	1.57764	11.1923	0
0.8093	2.50999	8.09767	10.344	7.04616	9.97103	6.37985	7.02308	1.57764	10.8873	0.321405
0.8100	2.50999	7.77276	10.0582	6.4259	9.68368	6.08312	6.71582	1.57764	10.5823	0.321405
0.8107	2.2147	7.17294	9.74391	6.4259	9.36759	5.76165	6.40856	1.25494	10.2772	0
0.8113	2.50999	7.17294	9.74391	6.4259	9.05151	5.76165	6.40856	1.57764	9.97221	0.321405
0.8120	2.50999	7.17294	9.42959	6.12817	9.05151	5.76165	6.40856	1.57764	9.66718	0.321405
0.8127	2.2147	6.87302	9.14384	5.83045	8.76416	5.46491	6.1013	1.25494	9.36215	0
0.8133	1.9194	6.87302	8.82952	5.50791	8.16073	5.16818	5.80868	1.25494	9.05712	0
0.8140	2.2147	6.57311	8.51521	5.50791	8.16073	5.16818	5.80868	1.25494	8.75208	0
0.8147	2.2147	6.57311	8.22946	5.50791	8.16073	4.84671	5.50142	1.25494	8.44705	-0.321405
0.8153	1.9194	6.2482	8.22946	5.21019	7.84464	4.84671	5.50142	1.25494	8.44705	0
0.8160	1.9194	5.94829	7.91514	4.91246	7.52856	4.54997	5.50142	1.25494	8.14202	0
0.8167	1.5872	5.64838	7.31508	4.91246	6.92512	4.25324	4.8869	0.6454	7.83699	-0.321405
0.8173	1.29191	5.34846	7.00076	4.61474	6.60904	3.93177	4.57964	0.358556	6.92189	-0.321405
0.8180	1.5872	5.64838	7.60082	4.91246	6.92512	4.25324	4.8869	0.6454	7.22692	-0.321405
0.8187	1.5872	5.34846	7.31508	4.91246	6.92512	4.25324	5.19416	1.25494	7.53196	0
0.8193	1.29191	5.02355	6.68644	4.2922	6.32169	3.63503	4.57964	0.9681	6.92189	-0.321405
0.8200	1.5872	5.34846	7.00076	4.61474	6.32169	3.93177	4.57964	0.6454	6.61686	-0.321405
0.8207	1.5872	5.02355	6.68644	4.61474	6.32169	3.93177	4.57964	0.9681	6.61686	-0.321405
0.8213	1.29191	4.72364	6.08637	3.99448	5.71826	3.01683	4.27238	0.9681	6.61686	-0.321405
0.8220	1.29191	4.42373	6.08637	3.99448	5.71826	3.3383	4.27238	0.9681	6.31183	0
0.8227	1.29191	4.42373	6.08637	3.69675	5.71826	3.3383	4.57964	0.9681	6.31183	0
0.8233	1.29191	4.42373	5.77205	3.69675	5.40217	3.01683	4.57964	1.25494	6.31183	0
0.8240	1.29191	4.42373	5.77205	3.69675	5.08609	3.01683	4.27238	1.25494	6.00679	0
0.8247	0.996613	4.12381	5.45773	3.37422	4.79874	3.01683	3.96512	0.9681	5.37326	0
0.8253	0.996613	3.8239	5.45773	3.37422	4.79874	2.72009	3.96512	0.9681	5.37326	-0.321405
0.8260	0.996613	4.12381	5.45773	3.37422	4.79874	3.01683	3.67249	0.9681	5.37326	-0.321405
0.8267	1.29191	4.12381	5.45773	3.69675	4.79874	3.01683	3.67249	0.9681	5.37326	0
0.8273	1.29191	4.12381	5.17199	3.37422	4.79874	2.72009	3.36523	0.9681	4.7632	-0.321405
0.8280	1.29191	3.8239	4.85767	3.07649	4.48265	2.42336	3.67249	0.6454	4.7632	-0.321405
0.8287	0.996613	3.49899	4.85767	2.77877	4.1953	2.42336	3.67249	0.6454	4.45817	0
0.8293	0.996613	3.49899	4.54335	3.07649	4.1953	2.42336	3.36523	0.6454	4.45817	-0.321405
0.8300	0.996613	3.49899	4.54335	3.07649	4.1953	2.42336	3.05797	0.6454	4.15313	-0.321405
0.8307	0.996613	3.49899	4.54335	3.07649	4.1953	2.42336	3.36523	0.6454	4.15313	-0.321405
0.8313	0.996613	3.19908	4.2576	2.77877	3.87922	2.10189	3.36523	0.6454	4.15313	0
0.8320	0.996613	3.19908	4.2576	2.77877	3.56313	2.10189	3.36523	0.9681	4.15313	0
0.8327	0.996613	3.19908	3.94328	2.77877	3.56313	2.10189	3.36523	0.9681	4.15313	0
0.8333	0.996613	2.89917	3.94328	2.45623	3.27578	1.80515	3.05797	0.9681	3.8481	0
0.8340	0.664409	2.89917	3.94328	2.15851	3.27578	1.80515	3.05797	0.6454	3.54307	0
0.8347	0.664409	2.89917	3.94328	2.45623	2.9597	1.80515	2.75071	0.6454	3.23804	-0.321405
0.8353	0.996613	2.89917	3.94328	2.45623	2.9597	1.50842	2.75071	0.6454	3.23804	-0.321405
0.8360	0.996613	2.89917	3.62896	2.45623	2.9597	1.80515	2.75071	0.6454	3.54307	0
0.8367	0.664409	2.89917	3.34322	2.15851	2.9597	1.80515	2.44345	0.6454	3.23804	0
0.8373	0.369116	2.59925	3.0289	2.15851	2.64362	1.50842	2.44345	0.358556	3.23804	-0.321405
0.8380	0.664409	2.29934	3.34322	2.15851	2.9597	1.50842	2.44345	0.358556	2.933	0
0.8387	0.996613	2.59925	3.62896	2.15851	2.9597	1.80515	2.13619	0.6454	2.933	0
0.8393	0.664409	2.59925	3.0289	1.86078	2.64362	1.50842	2.44345	0.6454	2.933	-0.321405
0.8400	0.369116	1.97443	3.0289	1.86078	2.35627	1.18695	2.44345	0.9681	2.933	0
0.8407	0.369116	2.29934	3.0289	1.86078	2.35627	1.18695	2.44345	0.6454	2.62797	0
0.8413	0.664409	2.29934	3.0289	1.86078	2.35627	1.18695	2.13619	0.6454	2.62797	0
0.8420	0.664409	1.97443	2.71458	1.56306	2.04018	1.18695	2.13619	0.6454	2.62797	0
0.8427	0.664409	1.97443	2.71458	1.86078	2.04018	1.18695	2.13619	0.6454	2.62797	0.321405
0.8433	0.664409	1.97443	2.71458	1.86078	2.04018	1.18695	2.44345	0.6454	2.62797	0.321405
0.8440	0.0738232	1.67452	2.11451	1.24052	1.75283	0.890212	2.13619	0.6454	2.32294	0
0.8447	0.0738232	1.67452	2.11451	1.24052	1.75283	0.890212	1.82893	0.358556	2.01791	-0.321405
0.8453	0.369116	1.97443	2.42883	1.56306	2.04018	0.890212	2.13619	0.6454	2.01791	0.321405
0.8460	0.0738232	1.67452	2.42883	1.24052	1.43675	0.890212	1.5363	0.358556	1.71287	-0.321405
0.8467	0.0738232	1.3746	1.80019	0.942796	1.43675	0.593475	1.22904	-0.250989	1.10281	-0.321405
0.8473	0.369116	1.67452	2.42883	1.56306	2.04018	1.18695	2.13619	0.358556	2.01791	0.321405
0.8480	0.369116	1.97443	2.71458	1.86078	2.04018	1.18695	2.13619	0.9681	2.01791	0.321405
0.8487	0.0738232	1.3746	2.11451	0.942796	1.43675	0.593475	1.5363	0.358556	1.40784	-0.321405
0.8493	0.0738232	1.07469	1.80019	0.942796	1.12066	0.272009	1.5363	0.358556	1.71287	-0.321405
0.8500	0.0738232	1.3746	1.51445	0.942796	1.12066	0.593475	1.5363	0.358556	1.40784	-0.321405
0.8507	0.369116	1.3746	1.80019	1.24052	1.43675	0.593475	1.82893	0.358556	1.40784	0
0.8513	0.369116	1.3746	2.11451	1.24052	1.12066	0.593475	1.82893	0.358556	1.40784	0
0.8520	-0.22147	1.07469	1.51445	0.645071	0.833314	-0.0247281	1.5363	0.6454	1.40784	0
0.8527	-0.22147	0.774777	1.20013	0.645071	0.517229	-0.0247281	1.5363	0.6454	1.40784	0
0.8533	0.0738232	1.07469	1.51445	0.942796	0.517229	0.272009	1.5363	0.6454	1.10281	0
0.8540	0.0738232	1.07469	1.51445	0.942796	0.833314	0.272009	1.5363	0.358556	1.10281	0
0.8547	0.0738232	1.07469	1.51445	0.645071	0.833314	0.272009	1.5363	0.358556	1.10281	0
0.8553	0.0738232	1.07469	1.51445	0.942796	0.833314	0.272009	1.82893	0.6454	1.40784	0
0.8560	0.369116	1.07469	1.51445	0.942796	0.833314	0.272009	1.5363	0.6454	1.10281	0
0.8567	0.369116	1.07469	1.51445	0.942796	0.517229	0.272009	1.22904	0.358556	1.10281	0
0.8573	0.0738232	0.774777	1.20013	0.645071	0.517229	0.272009	1.5363	0.358556	1.10281	0
0.8580	0.0738232	0.774777	1.20013	0.645071	0.833314	0.272009	1.22904	0.358556	0.797777	-0.321405
0.8587	0.0738232	1.07469	1.51445	0.645071	0.833314	0.272009	1.22904	0.358556	1.10281	0
0.8593	0.0738232	0.774777	1.20013	0.645071	0.833314	0.272009	1.22904	0.6454	1.10281	0.321405
0.8600	-0.22147	0.774777	0.88581	0.645071	0.517229	-0.0247281	1.22904	0.358556	0.492745	0
0.8607	0.0738232	0.774777	0.88581	0.645071	0.517229	0.272009	0.92178	0.358556	0.492745	-0.321405
0.8613	0.0738232	0.449871	0.88581	0.645071	0.201145	-0.0247281	1.22904	0.358556	0.797777	0
0.8620	-0.22147	0.449871	0.88581	0.645071	0.201145	-0.0247281	0.92178	0.358556	0.492745	-0.321405
0.8627	0.0738232	0.774777	1.20013	0.645071	0.201145	0.272009	0.92178	0.358556	0.187712	0
0.8633	0.0738232	0.774777	1.20013	0.645071	0.201145	-0.0247281	0.92178	0.358556	0.492745	0
0.8640	-0.22147	0.449871	0.600065	0.322535	-0.0862049	-0.321466	0.92178	0.358556	0.492745	-0.321405
0.8647	-0.22147	0.449871	0.88581	0.322535	-0.0862049	0.272009	0.92178	0.358556	0.492745	0
0.8653	0.369116	0.774777	1.20013	0.645071	0.517229	0.272009	1.22904	0.6454	0.492745	0.321405
0.8660	0.0738232	0.449871	0.88581	0.322535	0.201145	-0.321466	0.92178	0.358556	0.492745	0
0.8667	-0.848967	0.149957	0.285745	0.0248104	-0.0862049	-0.642931	0.61452	-0.250989	0.187712	-0.321405
0.8673	0.0738232	0.449871	0.88581	0.645071	0.201145	-0.0247281	1.22904	0.358556	0.492745	0.321405
0.8680	0.0738232	0.774777	0.88581	0.645071	0.201145	0.272009	1.22904	0.6454	0.492745	0.321405
0.8687	-0.22147	0.449871	0.600065	0.322535	-0.0862049	-0.0247281	0.92178	0.358556	0.187712	0
0.8693	-0.22147	0.449871	0.600065	0.322535	-0.0862049	-0.0247281	0.92178	0.358556	0.187712	0
0.8700	0.0738232	0.449871	0.600065	0.322535	-0.0862049	-0.0247281	0.92178	0.358556	0.187712	-0.321405
0.8707	0.0738232	0.449871	0.88581	0.322535	-0.0862049	-0.0247281	0.92178	0.358556	0.187712	0
0.8713	0.0738232	0.449871	0.88581	0.322535	0.201145	-0.0247281	0.92178	0.358556	0.187712	0
0.8720	0.0738232	0.449871	0.600065	0.322535	-0.0862049	-0.0247281	0.92178	0.358556	0.187712	0
0.8727	0.0738232	0.449871	0.600065	0.322535	-0.0862049	-0.0247281	0.92178	0.358556	-0.11732	0
0.8733	0.0738232	0.449871	0.600065	0.322535	-0.0862049	-0.0247281	0.61452	0.358556	0.187712	0
0.8740	-0.22147	0.149957	0.285745	0.0248104	-0.402289	-0.642931	0.61452	0.358556	0.187712	-0.321405
0.8747	-0.22147	0.149957	0.285745	0.322535	-0.402289	-0.321466	0.92178	0.358556	0.187712	0
0.8753	0.0738232	0.149957	0.600065	0.322535	-0.402289	-0.0247281	0.61452	0.358556	-0.11732	0
0.8760	0.0738232	0.149957	0.600065	0.322535	-0.402289	-0.0247281	0.61452	0.6454	-0.11732	0
0.8767	-0.22147	0.149957	0.285745	0.0248104	-0.402289	-0.321466	0.92178	0.6454	-0.11732	0
0.8773	-0.553674	-0.149957	-0.31432	-0.272915	-1.00572	-0.642931	0.30726	-0.573689	-0.727385	-0.321405
0.8780	-0.553674	-0.149957	-0.0285745	0.0248104	-0.689639	-0.642931	0	-0.860533	-0.727385	-0.321405
0.8787	-0.22147	0.449871	0.600065	0.322535	-0.402289	-0.0247281	0.61452	0.358556	0.187712	0
0.8793	0.0738232	0.149957	0.600065	0.0248104	-0.402289	-0.0247281	0.92178	0.6454	0.187712	0.321405
0.8800	-0.22147	-0.149957	-0.0285745	0.0248104	-0.689639	-0.642931	0.61452	0.358556	-0.11732	0
0.8807	-0.22147	-0.149957	-0.0285745	0.0248104	-0.689639	-0.321466	0.61452	0.358556	-0.11732	0
0.8813	-0.22147	0.149957	0.285745	0.322535	-0.689639	-0.321466	0.61452	0.358556	-0.11732	0
0.8820	-0.22147	0.149957	0.285745	0.0248104	-0.402289	-0.321466	0.61452	0.358556	-0.11732	0.321405
0.8827	-0.553674	-0.149957	-0.0285745	-0.272915	-0.689639	-0.642931	0.61452	0.6454	-0.11732	0
0.8833	-0.553674	-0.149957	-0.0285745	0.0248104	-0.689639	-0.642931	0.61452	0.358556	-0.422353	0
0.8840	-0.22147	0.149957	0.285745	0.0248104	-0.402289	-0.321466	0.61452	0.0358556	-0.422353	-0.321405
0.8847	-0.22147	-0.149957	0.285745	0.0248104	-0.689639	-0.642931	0.61452	0.358556	-0.422353	0
0.8853	-0.22147	-0.149957	-0.0285745	-0.272915	-0.689639	-0.642931	0.92178	0.6454	-0.11732	0.321405
0.8860	-0.553674	-0.149957	-0.0285745	-0.272915	-0.689639	-0.642931	0.61452	0.358556	-0.11732	0.321405
0.8867	-0.22147	-0.149957	0.285745	0.0248104	-0.689639	-0.321466	0.61452	0.358556	-0.422353	0
0.8873	-0.22147	-0.149957	0.285745	0.0248104	-0.689639	-0.321466	0.30726	0.358556	-0.422353	0
0.8880	-0.553674	-0.149957	-0.0285745	-0.272915	-0.689639	-0.642931	0.30726	0.358556	-0.422353	0
0.8887	-0.22147	-0.149957	0.285745	-0.272915	-0.689639	-0.321466	0.61452	0.358556	-0.422353	0
0.8893	-0.22147	-0.149957	0.285745	0.0248104	-0.689639	-0.321466	0.61452	0.358556	-0.422353	0
0.8900	-0.22147	-0.149957	-0.0285745	-0.272915	-1.00572	-0.642931	0.61452	0.358556	-0.422353	0
0.8907	-0.22147	-0.449871	-0.0285745	-0.272915	-1.00572	-0.642931	0.61452	0.0358556	-0.727385	0
0.8913	-0.22147	-0.149957	-0.0285745	-0.272915	-1.00572	-0.642931	0.30726	0.358556	-0.422353	0
0.8920	-0.22147	-0.149957	-0.0285745	-0.272915	-1.00572	-0.642931	0.30726	0.358556	-0.422353	0
0.8927	-0.22147	-0.149957	-0.0285745	-0.272915	-0.689639	-0.642931	0.61452	0.358556	-0.422353	0
0.8933	-0.22147	-0.149957	-0.0285745	0.0248104	-1.00572	-0.321466	0.30726	0.0358556	-0.422353	0.321405
0.8940	-0.553674	-0.149957	-0.31432	-0.272915	-1.00572	-0.642931	0.30726	0.358556	-0.727385	0
0.8947	-0.22147	-0.149957	-0.0285745	-0.272915	-1.00572	-0.642931	0.30726	0.358556	-0.422353	0
0.8953	-0.22147	-0.149957	-0.0285745	-0.272915	-0.689639	-0.642931	0.30726	0.358556	-0.727385	0
0.8960	-0.553674	-0.449871	-0.31432	-0.59545	-1.00572	-0.939669	0.30726	0.358556	-0.727385	0
0.8967	-0.553674	-0.449871	-0.31432	-0.272915	-1.00572	-0.642931	0.30726	0.358556	-0.727385	0.321405
0.8973	-0.22147	-0.449871	-0.0285745	-0.272915	-1.00572	-0.642931	0.30726	0.358556	-0.727385	0
0.8980	-0.22147	-0.449871	-0.31432	-0.272915	-1.32181	-0.939669	0.30726	0.358556	-0.727385	0
0.8987	-0.22147	-0.149957	-0.0285745	-0.272915	-1.00572	-0.642931	0.30726	0.358556	-0.727385	0
0.8993	-0.22147	-0.149957	-0.31432	-0.272915	-1.00572	-0.642931	0.30726	0.358556	-0.422353	0
0.9000	-0.22147	-0.149957	-0.31432	0.0248104	-1.00572	-0.642931	0.30726	0.358556	-0.422353	0
0.9007	-0.22147	-0.449871	-0.0285745	-0.272915	-1.00572	-0.642931	0.61452	0.358556	-0.727385	0
0.9013	-0.553674	-0.774777	-0.31432	-0.59545	-1.32181	-0.939669	0.30726	0.0358556	-0.727385	-0.321405
0.9020	-0.848967	-0.449871	-0.31432	-0.59545	-1.32181	-0.939669	0.30726	0.358556	-0.727385	0
0.9027	-0.553674	-0.149957	-0.31432	-0.272915	-1.00572	-0.642931	0.61452	0.6454	-0.422353	0.321405
0.9033	-0.22147	-0.149957	-0.0285745	-0.272915	-1.00572	-0.642931	0.30726	0.358556	-0.727385	0.321405
0.9040	-0.553674	-0.449871	-0.31432	-0.59545	-1.32181	-0.642931	0.30726	0.358556	-1.03242	0
0.9047	-0.553674	-0.449871	-0.31432	-0.59545	-1.32181	-0.939669	0.30726	0.358556	-0.727385	0
0.9053	-0.22147	-0.149957	-0.0285745	-0.272915	-1.00572	-0.642931	0.61452	0.6454	-0.422353	0.321405
0.9060	-0.553674	-0.449871	-0.31432	-0.59545	-1.32181	-0.939669	0.30726	0.358556	-0.727385	0
0.9067	-0.848967	-0.449871	-0.628639	-0.59545	-1.32181	-0.939669	-0.30726	-0.573689	-1.03242	-0.321405
0.9073	-0.22147	-0.149957	-0.0285745	0.0248104	-0.689639	-0.321466	0.30726	-0.573689	-0.727385	0
0.9080	0.0738232	-0.149957	0.285745	0.0248104	-0.689639	-0.321466	0.92178	0.6454	-0.11732	0.64281
0.9087	-0.553674	-0.774777	-0.628639	-0.59545	-1.32181	-0.939669	0.30726	0.358556	-0.727385	0
0.9093	-0.848967	-0.774777	-0.628639	-0.59545	-1.32181	-0.939669	-0.30726	-0.860533	-1.03242	-0.321405
0.9100	-0.553674	-0.149957	-0.0285745	-0.272915	-1.00572	-0.642931	0	-0.573689	-0.727385	-0.321405
