MR32 ASCII
Name	KneeFJC2
Frequency	1500
Date	07-09-2015 10:42:55
"Time,s"	"RT TIB.ANT.,uV"	"RT MED. GASTRO,uV"	"RT LAT. GASTRO,uV"	"RT BICEPS FEM.,uV"	"RT VMO,uV"	"RT VLO,uV"	"RT RECTUS FEM.,uV"	"RT SOLEUS,uV"	"RT SEMITEND.,uV"	"Channel 12,uV"
0.0000	7.64755	-2.31255	8.96475	-7.13124	0.876947	0.218928	0.869775	1.67977	1.50404	-6419.87
0.0007	10.0948	-1.40104	26.0532	-6.52108	0.876947	0.525428	2.10196	5.64854	-1.25089	-10495.4
0.0013	5.20033	-2.31255	26.9701	-12.9277	-0.607117	-1.00707	-0.338246	2.59363	-4.60147	-9776.02
0.0020	-1.83541	-2.61639	14.4587	-12.3176	-2.15864	-3.15257	-3.40662	0.461283	-4.30364	-9666.8
0.0027	-2.75312	-1.0972	8.65914	3.55608	-1.21423	-2.23307	-1.57043	5.34392	-0.640334	-9912.15
0.0033	-1.52951	-0.489518	6.82781	13.9288	-0.337287	-1.31357	-0.0483208	9.31269	2.11459	-9793.96
0.0040	-0.917706	-0.793357	4.99648	12.4034	0.607117	-0.70057	0.265765	7.47626	2.41242	-9809.97
0.0047	-0.611804	-2.31255	4.082	6.60688	-0.337287	-0.70057	-0.652331	3.20287	1.50404	-9817.02
0.0053	-2.75312	-4.76014	1.94505	4.7764	-2.42847	-2.23307	-3.09253	-1.98439	1.50404	-9818.94
0.0060	-2.14131	-1.70487	-0.800763	14.2339	-0.944405	-1.62007	-1.57043	-2.59363	3.63352	-9794.28
0.0067	-0.305902	4.10183	-2.02086	30.1075	0.876947	-0.394071	0.869775	-0.147959	5.46518	-9837.84
0.0073	-0.305902	4.40566	-1.71761	38.9548	0.607117	0.525428	0.869775	1.37515	3.94625	-9884.28
0.0080	-3.36492	0.11816	-2.02086	20.9456	-0.607117	0.218928	-0.652331	1.98439	1.80187	-9531.63
0.0087	-7.03574	-2.31255	-3.24333	-4.07091	-1.82135	-1.62007	-2.77845	1.07052	1.19132	-10276.7
0.0093	-3.67082	-0.793357	-0.800763	-1.32519	-0.337287	-0.394071	-1.25634	5.95316	1.80187	-9544.12
0.0100	1.52951	1.3504	1.63943	12.0983	1.21423	0.831927	1.18386	14.8046	3.33569	-3391.71
0.0107	0.917706	1.65423	1.33618	20.9456	0.607117	-0.394071	0.869775	13.2728	5.16735	107.622
0.0113	-1.52951	0.742717	-1.71761	31.0228	-0.607117	-1.31357	-1.25634	3.81211	5.16735	-41.3193
0.0120	-4.58853	-0.185679	-4.15781	14.5389	-1.82135	-1.92657	-3.09253	-1.67977	2.11459	-149.582
0.0127	-3.67082	0.742717	-3.24333	-31.5376	-0.337287	-0.70057	-1.86035	-0.765904	0.89349	95.7711
0.0133	1.22361	2.86959	-2.02086	-44.0554	1.21423	1.13843	0.57985	1.98439	4.24408	-23.7026
0.0140	3.05902	2.86959	-3.24333	-20.5547	0.26983	0.831927	1.18386	0.765904	7.90738	-7.0467
0.0147	0.305902	0.438879	-6.60037	-8.35155	-1.55152	-1.00707	-1.57043	-6.25778	9.73904	0.64061
0.0153	-3.05902	-1.70487	-8.73495	-7.43631	-2.76576	-2.84607	-4.01063	-13.2728	10.0518	-0.64061
0.0160	-1.52951	0.11816	-2.63209	-4.37599	-0.607117	-0.70057	-1.86035	-13.5774	-0.327613	-0.64061
0.0167	3.05902	2.56575	7.74466	-2.24043	1.21423	1.44493	1.49795	-11.445	-15.8892	-0.960914
0.0173	3.97673	3.47727	9.87923	-2.85059	0.26983	0.525428	1.18386	-10.8358	-17.7209	-1.28122
0.0180	0.305902	4.7095	3.47076	-2.85059	-0.607117	-1.00707	-0.942256	-4.72597	-10.0964	-0.64061
0.0187	-4.89443	3.78111	-2.02086	-3.46075	-2.15864	-2.53957	-2.77845	12.0543	-6.1353	0
0.0193	-4.89443	1.65423	-1.412	-2.24043	-1.55152	-1.92657	-1.86035	27.3114	-4.60147	-0.64061
0.0200	0.305902	1.3504	0.419334	1.11545	0.876947	0.218928	1.49795	25.1791	-2.76982	-0.64061
0.0207	0.917706	0.438879	-0.800763	1.42053	0.876947	0.525428	1.49795	10.8358	-1.54872	-0.320305
0.0213	-2.44722	-1.0972	-2.02086	-0.71503	-0.607117	-1.31357	-0.652331	1.37515	-0.938164	-0.320305
0.0220	-5.20033	-2.31255	-2.93771	-2.54551	-2.15864	-3.15257	-2.77845	2.59363	-0.640334	-0.320305
0.0227	-4.58853	-1.0972	-2.93771	-0.71503	-1.21423	-2.23307	-1.86035	8.69475	-0.327613	-0.320305
0.0233	-0.305902	2.26191	-1.10638	1.72561	0.876947	-0.394071	0.869775	12.3589	0.580768	-0.320305
0.0240	3.05902	2.86959	1.63943	2.03069	0.876947	0.218928	1.49795	10.8358	1.19132	-0.320305
0.0247	3.05902	1.95807	1.33618	1.11545	-1.21423	-1.31357	-0.652331	6.5624	0.580768	-0.320305
0.0253	-2.75312	2.56575	-4.46342	-3.15567	-2.42847	-3.15257	-3.40662	5.34392	-0.938164	-0.320305
0.0260	-4.89443	5.92486	-9.04057	-5.60584	-0.607117	-1.31357	-1.57043	10.2266	-1.25089	0
0.0267	1.52951	8.67629	-10.2607	-2.24043	1.48406	1.44493	1.78787	14.4999	-0.029783	0
0.0273	5.20033	3.78111	-14.5346	-0.104871	0.876947	0.218928	1.78787	18.1554	0.282938	0
0.0280	3.05902	-5.36782	-19.7229	-1.32519	-1.21423	-2.53957	-0.652331	40.7409	0.282938	0
0.0287	0.917706	-8.72693	-21.5543	-2.24043	-2.15864	-3.15257	-2.77845	75.5285	0.282938	-0.320305
0.0293	4.58853	-2.00871	-17.2804	-0.71503	-0.337287	-1.00707	-0.942256	96.8955	0.89349	-0.320305
0.0300	10.4007	5.92486	-10.8719	2.64085	1.21423	0.525428	2.10196	102.997	1.19132	0
0.0307	8.56525	6.2287	-3.85219	4.7764	0.607117	0.218928	1.49795	96.8955	0.580768	-0.320305
0.0313	-0.611804	1.04656	5.60771	4.16624	-1.21423	-1.62007	-1.25634	68.2089	-0.640334	0
0.0320	-10.0948	-4.76014	14.1531	2.03069	-3.37287	-3.15257	-3.69654	37.3813	-0.938164	0
0.0327	-10.7066	-6.88702	21.1705	2.94592	-2.15864	-2.53957	-2.77845	19.3826	-0.029783	-0.320305
0.0333	-3.36492	-3.84863	23.0018	5.69164	0.607117	-0.0875713	0.265765	-49.2876	0.580768	-0.320305
0.0340	3.05902	-2.31255	21.4761	4.47132	1.82135	1.13843	1.18386	-143.885	0.282938	0
0.0347	1.52951	-4.15247	23.9186	1.42053	0.607117	-0.70057	-0.338246	-135.957	-0.029783	0
0.0353	-4.28263	-6.27934	20.5616	-0.71503	-3.03559	-3.45907	-3.69654	-59.9668	-0.938164	-0.64061
0.0360	-3.97673	-3.22407	10.1849	0.505288	-2.15864	-1.92657	-3.09253	-23.038	-0.938164	-0.960914
0.0367	3.97673	3.47727	4.99648	3.86116	1.82135	0.831927	0.869775	-8.99937	1.19132	0.320305
0.0373	9.17706	9.58781	3.16515	6.91196	0.876947	0.831927	0.57985	13.5774	1.19132	0.320305
0.0380	8.56525	12.6431	-0.495146	3.86116	-1.55152	-0.70057	-1.57043	17.2415	-0.029783	-0.320305
0.0387	3.05902	5.92486	-7.20924	-14.1481	-1.82135	-1.62007	-2.48852	-6.5624	-1.86144	0
0.0393	-1.22361	-4.4563	-13.6177	-23.3005	-0.337287	-0.394071	-0.942256	-19.6872	-2.47199	0
0.0400	0.305902	-4.15247	-13.9233	-11.4023	1.21423	0.525428	1.49795	-10.8358	-0.640334	0
0.0407	0.611804	0.438879	-13.3145	-3.76583	1.21423	0.218928	1.49795	-5.95316	0.282938	0
0.0413	-0.917706	1.04656	-16.9748	-4.07091	-1.21423	-1.31357	-0.652331	-23.3427	-0.640334	0
0.0420	-3.36492	2.26191	-16.3659	-1.02011	-2.76576	-2.53957	-3.09253	-44.405	-0.029783	-0.320305
0.0427	-3.67082	6.2287	-9.6518	4.47132	-0.607117	-1.31357	-1.86035	-40.1316	2.11459	0
0.0433	-2.44722	8.67629	-6.29475	5.08148	1.21423	0.831927	1.18386	-25.4837	2.41242	0
0.0440	-3.67082	7.74789	-0.191899	2.03069	0.876947	0.831927	0.57985	-18.46	1.19132	-0.320305
0.0447	-7.03574	4.7095	10.1849	-0.104871	-1.55152	-1.00707	-1.86035	-12.9681	0.89349	-0.320305
0.0453	-10.4007	0.742717	12.3218	-1.02011	-2.76576	-3.15257	-3.40662	-10.5312	0.282938	-0.320305
0.0460	-8.56525	-1.70487	11.4049	2.33577	-1.21423	-1.92657	-2.17444	-10.2266	-0.029783	0
0.0467	-3.05902	0.11816	14.4587	7.21704	0.876947	0.218928	0.869775	-10.2266	1.19132	0
0.0473	0.305902	-2.61639	16.2877	6.91196	1.21423	0.218928	1.18386	-8.69475	1.80187	0
0.0480	-2.44722	-12.6937	13.5419	2.03069	-0.944405	-1.62007	-0.942256	-5.95316	1.19132	-0.320305
0.0487	-9.78886	-13.6052	8.96475	2.33577	-2.42847	-2.84607	-2.48852	-4.72597	0.580768	0
0.0493	-11.6243	-4.76014	7.13342	7.52212	-0.944405	-1.00707	-0.652331	-2.59363	1.50404	0
0.0500	-5.50624	3.17343	6.52219	9.96276	0.876947	1.13843	1.78787	3.50749	1.80187	0
0.0507	-1.22361	5.31718	3.16515	9.65768	0.607117	0.218928	1.49795	17.2415	1.50404	0
0.0513	-3.97673	-0.489518	-1.10638	7.8272	-1.55152	-1.92657	-0.942256	33.1166	3.02297	-0.320305
0.0520	-8.87116	-8.72693	-2.63209	11.4882	-3.03559	-3.45907	-3.40662	38.9131	5.7779	0
0.0527	-7.64755	-11.7822	2.25066	30.4126	-1.55152	-2.84607	-3.09253	33.7259	7.90738	0
0.0533	-1.22361	-9.94229	10.1849	49.9377	0.26983	-0.70057	-0.338246	27.9207	9.12849	-0.320305
0.0540	2.44722	-4.4563	14.4587	56.9641	0	-0.70057	0.869775	43.7958	7.29683	-0.320305
0.0547	-0.917706	1.95807	12.6274	44.7514	-1.82135	-1.31357	-1.57043	63.9355	2.41242	-0.320305
0.0553	-7.03574	5.62102	5.30209	21.5558	-2.42847	-1.62007	-3.40662	46.5373	-1.54872	0
0.0560	-6.42394	5.92486	1.33618	20.6405	-0.337287	-0.70057	-1.25634	10.5312	-2.47199	0
0.0567	-0.611804	4.40566	6.21894	32.2431	1.48406	0.525428	1.18386	-19.0693	-3.08254	-0.320305
0.0573	0.917706	7.44405	2.8619	27.972	0.876947	1.13843	1.49795	-33.4125	-3.99092	-0.320305
0.0580	-0.917706	7.14022	-16.0603	17.8948	-0.944405	0.218928	-0.338246	-5.34392	-3.69309	0
0.0587	-1.22361	-3.52791	-29.7941	7.21704	-1.82135	-1.62007	-2.77845	55.0841	-2.15927	0
0.0593	2.44722	-7.81541	-27.9627	-13.843	-0.337287	-0.70057	-1.57043	104.824	-0.327613	0
0.0600	8.25935	-2.00871	-21.8575	-24.8259	0.876947	1.13843	1.49795	113.067	-0.327613	-0.320305
0.0607	10.0948	4.10183	-22.1631	-15.6735	0.26983	1.13843	1.18386	86.2164	-1.54872	-0.320305
0.0613	7.95345	8.37245	-21.5543	-39.7843	-0.944405	-1.00707	-0.942256	61.4899	-0.938164	-0.320305
0.0620	3.97673	9.89165	-2.32648	-89.8269	-2.15864	-2.84607	-2.48852	58.7483	-0.938164	0
0.0627	3.36492	11.4108	23.0018	-88.3015	-0.944405	-1.62007	-0.942256	79.4973	-3.08254	-0.320305
0.0633	4.58853	11.107	28.1902	-50.157	0.26983	-0.394071	0.265765	87.7395	-5.21202	-1.28122
0.0640	2.14131	10.4993	24.5275	-27.2665	0.26983	-0.394071	0.869775	56.3026	-4.30364	-0.320305
0.0647	-2.14131	11.107	25.1387	-20.5547	-0.944405	-1.31357	0.265765	36.7721	-3.69309	0.64061
0.0653	-4.58853	8.67629	25.1387	-19.0293	-3.37287	-3.15257	-3.09253	-20.9057	-3.99092	0
0.0660	-0.917706	6.2287	22.6962	-12.9277	-1.21423	-1.92657	-1.25634	-186.306	-1.86144	-0.320305
0.0667	1.52951	-1.70487	13.8475	-9.57187	1.82135	1.13843	2.10196	-285.186	-0.640334	-0.320305
0.0673	-1.52951	-8.72693	-2.02086	-11.7074	1.82135	1.44493	1.49795	-216.829	-1.25089	-0.320305
0.0680	-3.36492	-11.1576	-15.1434	-7.13124	-0.607117	-1.31357	-1.57043	-132.597	-0.327613	0
0.0687	-3.67082	-17.8759	-16.9748	-0.104871	-2.42847	-3.15257	-4.01063	-99.0279	-0.029783	0
0.0693	-2.14131	-15.1244	-15.1434	4.16624	-0.607117	-0.70057	-1.25634	-57.5211	-0.029783	0
0.0700	1.22361	-9.33461	-23.3832	2.94592	1.82135	2.36442	2.10196	-8.08551	0.580768	0
0.0707	0.917706	-13.3014	-34.3712	-1.02011	1.48406	2.36442	1.49795	14.1953	-0.938164	0
0.0713	-4.28263	-19.7158	-39.5596	4.47132	-0.337287	0.525428	-0.652331	12.9681	-2.47199	0
0.0720	-11.3184	-19.0912	-38.0315	16.9796	-1.82135	-1.92657	-2.48852	10.5312	-1.86144	-0.320305
0.0727	-11.0125	-8.72693	-24.3001	31.938	-0.607117	-1.31357	-0.652331	16.6323	-0.029783	0
0.0733	-1.83541	-1.40104	-12.3976	37.1244	0.607117	0.218928	1.18386	34.9444	0.89349	0
0.0740	4.58853	-4.4563	-14.5346	39.2599	-0.337287	-0.70057	-0.338246	38.6085	0.282938	-0.64061
0.0747	3.05902	-9.33461	-2.02086	41.0904	-1.55152	-1.62007	-2.48852	-25.7883	0.580768	-0.320305
0.0753	-3.97673	-10.2461	25.1387	2.03069	-2.42847	-2.53957	-4.01063	-104.52	-0.327613	0
0.0760	-5.20033	-7.49469	28.8014	-43.1402	-0.337287	-1.00707	-2.17444	-96.2863	-0.327613	0
0.0767	-1.22361	-2.31255	15.3732	-30.9274	1.48406	1.75143	0.869775	-40.4362	1.80187	0
0.0773	-2.75312	2.86959	11.1017	-13.2328	0.607117	1.13843	1.18386	-17.8508	2.11459	-0.320305
0.0780	-7.03574	2.56575	7.74466	-25.1309	-0.944405	-1.00707	-0.942256	-40.1316	-1.25089	-0.320305
0.0787	-10.4007	-2.00871	0.419334	-41.6148	-2.42847	-2.53957	-3.69654	-67.5997	-4.30364	-0.320305
0.0793	-8.25935	-2.00871	-1.412	-47.4113	-0.944405	-1.31357	-1.86035	-59.6622	-3.99092	-0.320305
0.0800	-1.22361	-0.185679	-1.71761	-32.1478	1.48406	0.831927	1.78787	-36.1628	-2.76982	0
0.0807	3.97673	-0.489518	-5.07466	-11.7074	1.21423	1.44493	1.78787	-24.8745	-2.15927	0
0.0813	3.36492	-1.0972	-7.20924	-5.60584	-0.607117	-0.0875713	-0.652331	-19.6872	-1.54872	-0.320305
0.0820	-3.67082	-1.0972	-9.04057	-5.60584	-2.42847	-2.84607	-3.09253	-15.4138	-0.327613	-0.320305
0.0827	-5.81214	1.04656	-8.73495	-0.104871	-0.944405	-1.31357	-1.25634	-10.8358	0.89349	0
0.0833	0.611804	3.47727	-2.32648	13.0136	1.82135	1.75143	2.39188	-7.17164	1.19132	0
0.0840	3.05902	3.17343	4.99648	26.4466	1.21423	0.218928	2.10196	-8.39013	-0.029783	0
0.0847	0.611804	2.26191	5.91333	16.9796	-1.55152	-2.23307	-2.17444	-14.1866	-2.76982	0
0.0853	-0.917706	2.26191	3.77638	-1.32519	-3.03559	-2.84607	-4.61464	-17.8508	-3.08254	-0.320305
0.0860	0.305902	2.86959	4.69086	6.91196	-1.21423	-2.23307	-1.86035	-11.7497	-0.327613	0
0.0867	4.28263	3.47727	4.69086	23.9964	0.607117	-0.0875713	1.18386	6.25778	1.50404	0
0.0873	5.81214	3.47727	2.25066	27.6669	0	0.218928	0.869775	30.0617	1.19132	-0.320305
0.0880	1.52951	1.65423	-0.800763	27.0567	-2.15864	-1.92657	-1.57043	52.6472	0.89349	0
0.0887	-1.83541	1.04656	-2.32648	27.972	-3.6427	-3.76556	-3.09253	69.4274	1.50404	0
0.0893	0	4.10183	-0.495146	25.5313	-3.03559	-2.84607	-1.57043	68.2089	1.50404	-0.320305
0.0900	3.36492	6.2287	1.33618	16.3694	-0.944405	-1.00707	1.18386	34.9444	1.19132	-0.320305
0.0907	4.89443	3.17343	-0.800763	-16.8938	0.876947	-0.0875713	1.78787	-11.445	-0.327613	-0.320305
0.0913	2.14131	-0.793357	-5.68352	-55.6484	-0.944405	-1.00707	-0.942256	-33.7172	-1.25089	0
0.0920	-3.67082	-1.0972	-7.20924	-42.8351	-2.42847	-2.53957	-3.69654	-30.671	1.19132	0
0.0927	-4.58853	-0.489518	-8.4317	-15.0633	-0.607117	-1.62007	-2.48852	-19.3739	3.63352	-0.64061
0.0933	0	-1.0972	-9.6518	-12.3176	1.48406	-0.0875713	-0.0483208	-7.47626	4.24408	-0.960914
0.0940	3.05902	-1.70487	-3.24333	-9.26679	1.82135	1.44493	0.869775	-2.89825	3.94625	0
0.0947	0.305902	-4.76014	2.55628	-9.57187	0	0.831927	-0.942256	12.6635	0.580768	0.320305
0.0953	-3.67082	-8.11925	2.55628	-17.809	-0.944405	-0.0875713	-2.77845	43.7958	-3.08254	0
0.0960	-2.44722	-3.52791	3.16515	-16.8938	0.607117	1.44493	-0.652331	41.9593	-2.47199	-0.320305
0.0967	-2.14131	-1.40104	4.082	-8.65663	1.82135	2.05792	1.49795	6.5624	-0.327613	-0.320305
0.0973	-3.97673	-10.55	4.38761	-2.85059	1.21423	0.525428	0.57985	-9.30399	0.282938	-0.320305
0.0980	-4.89443	-16.9643	4.99648	0.505288	-0.944405	-0.70057	-1.57043	-2.59363	0.580768	0
0.0987	-6.11804	-14.5168	5.30209	3.86116	-2.42847	-1.62007	-2.77845	2.89825	1.80187	0.320305
0.0993	-5.50624	-11.7822	4.38761	6.91196	-0.607117	-1.31357	-1.57043	5.0393	3.02297	0
0.1000	-1.83541	-1.40104	1.63943	-2.54551	1.21423	0.218928	1.18386	4.11673	1.80187	-0.320305
0.1007	0.611804	15.6983	-1.71761	-20.8598	0.607117	0.525428	1.78787	1.37515	-1.25089	0
0.1013	-2.14131	19.3444	-4.15781	-24.2157	-1.55152	-1.62007	-1.25634	-1.07052	-2.15927	0
0.1020	-5.50624	11.7316	-4.46342	-14.4531	-3.03559	-3.45907	-3.09253	-3.50749	1.50404	-0.320305
0.1027	-3.67082	9.58781	-2.32648	-7.13124	-1.21423	-2.23307	-1.25634	-2.59363	6.38845	-0.320305
0.1033	0.611804	12.6431	-0.495146	-0.71503	1.21423	0.218928	0.869775	0.461283	8.22011	0
0.1040	3.05902	13.8584	-0.495146	4.47132	1.21423	0.525428	0.869775	1.07052	7.90738	-0.320305
0.1047	0.917706	10.8032	-1.10638	5.69164	-0.944405	-1.31357	-0.942256	-0.147959	8.51793	-0.320305
0.1053	-3.05902	7.14022	-1.412	6.60688	-2.15864	-2.23307	-2.48852	2.59363	8.83066	0
0.1060	-1.52951	2.56575	-0.800763	9.3526	-0.944405	-1.00707	-0.652331	7.78088	10.6474	0
0.1067	2.14131	-2.61639	1.03057	13.6237	0.876947	0.525428	1.49795	9.31269	13.7002	0
0.1073	3.05902	-3.52791	0.419334	14.844	0.876947	0.525428	1.18386	11.445	7.60955	-0.320305
0.1080	0.305902	-2.61639	-2.63209	11.1831	-0.944405	-1.31357	-1.25634	14.4999	-7.04368	-0.320305
0.1087	-3.36492	-4.4563	-3.24333	9.3526	-1.82135	-2.23307	-2.17444	12.0543	-15.5914	0
0.1093	-4.28263	-6.27934	-1.10638	13.0136	-0.607117	-1.31357	-0.652331	14.8046	-14.3703	0
0.1100	-2.14131	-3.52791	-2.93771	14.5389	0.876947	-0.0875713	0.869775	22.1242	-9.48588	-0.320305
0.1107	-0.305902	1.04656	-10.2607	13.9288	0.607117	0.218928	0.869775	18.1554	-5.82257	0
0.1113	-2.44722	1.3504	-17.8916	10.2678	-1.55152	-1.62007	-2.17444	5.0393	-4.91419	-0.320305
0.1120	-3.97673	1.04656	-20.943	-10.4871	-2.42847	-2.84607	-4.01063	-4.42135	-5.21202	-0.320305
0.1127	0.305902	0.11816	-19.7229	-31.5376	0	-0.394071	-0.942256	-7.78088	-4.91419	0
0.1133	5.81214	-2.92023	-18.5005	-24.8259	1.48406	1.44493	1.49795	-8.39013	-3.38037	0
0.1140	7.03574	-1.70487	-17.586	-8.35155	0.876947	0.525428	0.57985	-8.99937	-1.86144	-0.320305
0.1147	3.67082	-0.489518	-7.82047	-4.68106	-1.55152	-2.23307	-2.17444	-8.39013	-1.86144	0
0.1153	-0.611804	0.11816	17.2046	-4.98614	-2.76576	-3.45907	-3.69654	10.8358	-1.86144	-0.320305
0.1160	0	2.26191	34.9043	-2.24043	-0.607117	-1.00707	-1.25634	53.2564	-0.327613	-0.320305
0.1167	3.97673	-0.185679	26.9701	0.810368	1.21423	0.525428	1.18386	82.5522	0.580768	0
0.1173	4.28263	-5.36782	12.3218	0.810368	0.26983	0.218928	0.869775	78.5835	-0.029783	0
0.1180	-0.305902	-6.27934	6.21894	-1.63027	-2.15864	-1.31357	-1.25634	69.4274	-0.327613	0
0.1187	-4.28263	-4.76014	4.38761	-2.54551	-3.03559	-2.23307	-3.09253	88.6534	-0.327613	0
0.1193	-4.89443	-2.61639	6.21894	-0.104871	-0.607117	-1.31357	-1.25634	90.4898	-0.327613	-0.320305
0.1200	-6.11804	1.65423	5.60771	4.7764	1.21423	0.525428	1.49795	32.4987	-0.327613	-0.320305
0.1207	-7.95345	4.7095	0.113718	6.91196	1.21423	0.525428	0.57985	-15.1092	0.282938	0
0.1213	-9.78886	3.17343	-8.12609	3.55608	-0.944405	-1.31357	-2.48852	-7.17164	0.282938	0
0.1220	-10.7066	-0.793357	-14.8402	3.251	-2.76576	-2.84607	-3.69654	20.9057	-0.327613	0
0.1227	-6.42394	-1.70487	-16.0603	6.91196	-0.944405	-1.00707	-1.57043	36.4675	-0.029783	-0.320305
0.1233	0	1.3504	-17.2804	4.47132	1.48406	1.75143	1.78787	22.1242	-0.640334	0
0.1240	-1.52951	4.40566	-22.1631	-1.63027	0.26983	0.831927	1.49795	-17.2415	-2.15927	-0.320305
0.1247	-6.42394	3.47727	-24.9089	-4.37599	-2.42847	-1.92657	-2.17444	-43.1778	-2.76982	-1.28122
0.1253	-5.20033	-1.0972	-15.1434	-4.07091	-2.42847	-2.84607	-3.69654	-22.7334	-2.47199	0
0.1260	-0.305902	-5.06398	6.21894	-2.85059	-0.337287	-1.92657	-1.86035	17.5462	-1.86144	0.320305
0.1267	2.14131	-5.06398	14.1531	-0.409951	1.21423	-1.00707	0.57985	27.0068	-1.54872	-0.320305
0.1273	1.52951	-2.00871	6.21894	1.72561	0.607117	-0.394071	0.57985	17.2415	-0.938164	-0.320305
0.1280	-3.05902	-2.61639	7.74466	2.03069	-1.21423	-1.62007	-1.57043	6.25778	-0.327613	-0.320305
0.1287	-7.64755	-10.55	14.762	1.72561	-2.42847	-3.15257	-3.09253	-32.1941	0.282938	0
0.1293	-7.03574	-14.5168	13.5419	2.03069	-0.944405	-1.92657	-0.942256	-64.8494	2.11459	0.320305
0.1300	-2.44722	-0.489518	10.1849	3.86116	1.48406	0.218928	1.49795	-46.5373	4.85463	0
0.1307	0	12.9469	6.52219	5.99672	1.21423	0.218928	0.869775	-20.2964	8.22011	-0.320305
0.1313	-3.05902	3.17343	6.21894	3.86116	-0.944405	-1.92657	-1.25634	-19.6872	10.9601	-0.320305
0.1320	-6.42394	-11.4784	8.0479	2.64085	-1.82135	-2.84607	-3.09253	-23.9519	11.258	-0.320305
0.1327	-0.611804	-10.8538	8.35352	5.38656	0	-0.394071	-1.57043	-12.0543	10.6474	-0.320305
0.1333	8.25935	-6.88702	7.13342	3.251	2.42847	2.05792	1.78787	2.89825	9.12849	0
0.1340	10.7066	-5.9755	6.21894	-0.409951	2.15864	1.75143	1.78787	-9.60861	6.68628	-0.320305
0.1347	8.56525	-4.4563	6.21894	0.505288	-0.607117	-0.0875713	-0.652331	-35.249	6.999	-0.320305
0.1353	4.28263	-4.4563	4.38761	-0.71503	-2.15864	-1.92657	-2.77845	-39.5224	6.38845	0
0.1360	1.52951	-3.52791	6.52219	-2.24043	-0.944405	-0.70057	-1.57043	-26.0929	-5.21202	0
0.1367	3.67082	-0.793357	10.1849	1.11545	0.876947	0.525428	1.18386	-13.882	-17.423	0
0.1373	5.81214	-11.7822	4.69086	7.21704	0.876947	-0.0875713	1.49795	-8.08551	-14.3703	0
0.1380	3.67082	-22.1465	-2.63209	11.1831	-0.607117	-0.70057	-0.652331	-4.11673	-8.26478	0
0.1387	-1.22361	1.95807	-4.15781	4.47132	-2.42847	-1.62007	-2.17444	-1.98439	-6.74585	0
0.1393	-0.611804	32.477	-1.10638	-3.15567	-0.944405	-0.70057	-1.25634	-4.42135	-4.60147	0
0.1400	4.89443	28.2064	4.69086	-1.02011	1.48406	0.831927	0.869775	-8.39013	-2.15927	-0.320305
0.1407	6.11804	7.74789	8.35352	-1.32519	1.21423	0.218928	1.18386	-8.99937	-1.25089	0
0.1413	1.52951	3.78111	6.21894	-2.85059	-0.944405	-1.31357	-0.338246	-7.47626	-0.640334	0.320305
0.1420	-3.97673	12.3392	5.60771	2.03069	-2.42847	-3.15257	-3.09253	-4.72597	0.580768	0
0.1427	-3.36492	16.6099	5.30209	6.3018	-0.944405	-2.23307	-1.86035	0.156662	1.19132	0
0.1433	0.917706	13.8584	-1.412	5.69164	0.876947	0.218928	0.869775	5.0393	1.19132	0.320305
0.1440	1.22361	8.67629	-7.20924	5.99672	0.26983	-0.0875713	0.869775	5.64854	1.19132	0.320305
0.1447	-3.97673	7.74789	-9.6518	6.60688	-2.15864	-2.23307	-2.17444	1.67977	1.50404	0
0.1453	-8.87116	9.58781	-10.8719	7.21704	-3.37287	-2.84607	-4.01063	-1.98439	2.11459	-0.64061
0.1460	-6.72984	6.2287	-9.95742	11.7932	-0.944405	-1.31357	-1.57043	-2.89825	2.72514	0
0.1467	0.611804	-2.92023	-7.20924	16.6745	1.48406	0.525428	1.18386	-0.461283	3.63352	0.320305
0.1473	3.05902	-7.49469	-0.800763	19.7253	1.21423	0.218928	1.18386	4.43006	3.63352	0
0.1480	-2.14131	-6.27934	6.52219	25.2263	-0.607117	-1.31357	-0.942256	7.47626	2.41242	0
0.1487	-7.95345	-2.61639	10.4905	38.3447	-2.42847	-2.53957	-2.17444	6.5624	1.50404	-0.320305
0.1493	-5.81214	2.86959	11.1017	53.5987	-0.944405	-1.31357	-0.652331	4.11673	1.19132	-0.320305
0.1500	1.22361	5.92486	9.27037	48.7174	1.21423	0.831927	1.18386	-2.89825	0.580768	0
0.1507	4.89443	7.44405	4.99648	28.2771	0.607117	0.831927	1.49795	-5.64854	-0.029783	0
0.1513	4.89443	11.107	-0.191899	29.1923	-2.42847	-1.00707	-1.25634	2.59363	0.282938	0
0.1520	1.83541	10.8032	-4.46342	51.4631	-3.37287	-3.45907	-3.40662	0.461283	1.50404	0
0.1527	2.14131	5.01334	-6.90362	57.8793	-1.21423	-1.92657	-1.25634	-16.6323	1.19132	0
0.1533	6.42394	-0.793357	-12.092	41.7006	0.26983	0.525428	0.265765	-14.4912	-2.47199	-0.960914
0.1540	9.17706	-4.76014	-15.7547	12.4034	0.26983	0.831927	-0.652331	10.8358	-4.30364	-0.64061
0.1547	6.42394	-6.58318	-17.586	-26.0462	-1.55152	-0.70057	-2.17444	24.5698	-4.60147	0
0.1553	0.611804	-3.84863	-19.4173	-42.8351	-2.76576	-1.31357	-4.01063	18.7733	-5.52474	-0.64061
0.1560	0.917706	5.01334	-13.6177	-27.5716	0	0.831927	-1.57043	14.1953	-2.47199	0
0.1567	3.67082	8.06861	1.94505	-8.04647	1.82135	2.05792	2.10196	9.92193	-0.327613	0.64061
0.1573	1.52951	0.11816	17.2046	0.200208	0.876947	1.75143	2.39188	-4.42135	-1.86144	-0.320305
0.1580	-4.58853	-6.88702	16.5933	-0.409951	-1.21423	-0.0875713	0.265765	-21.8196	-3.08254	0
0.1587	-9.17706	-8.72693	7.13342	-4.68106	-2.76576	-2.23307	-2.48852	-22.7334	-3.99092	0
0.1593	-7.34165	-6.27934	5.30209	-1.32519	-0.337287	-1.62007	-1.25634	15.7184	-3.38037	0
0.1600	-5.20033	-3.52791	8.0479	-9.26679	1.21423	-0.70057	1.49795	54.7795	-0.029783	0
0.1607	-6.11804	-3.52791	8.35352	-61.1399	0.26983	-0.0875713	1.18386	30.671	0.282938	0
0.1613	-7.64755	-3.22407	3.77638	-108.446	-0.607117	0.218928	-0.338246	-7.17164	-2.76982	0
0.1620	-12.1749	-0.793357	-2.02086	-93.4878	-1.82135	-0.70057	-2.17444	2.89825	-3.08254	0.320305
0.1627	-13.3985	-1.40104	-2.93771	-51.9875	-0.337287	-0.394071	-1.25634	32.4987	-0.938164	0.320305
0.1633	-10.4007	-11.1576	-2.32648	-29.402	1.21423	0.525428	1.49795	59.3575	0.580768	0
0.1640	-7.64755	-21.235	0.724951	-21.47	0.876947	0.218928	1.49795	79.4973	0.282938	0.320305
0.1647	-6.11804	-27.0417	7.43904	-17.1989	-0.337287	-0.70057	-0.942256	54.7795	-1.25089	0
0.1653	-8.25935	-30.0801	3.16515	-14.7582	-2.15864	-2.23307	-2.77845	4.11673	-1.86144	-0.320305
0.1660	-7.64755	-30.3839	-8.12609	-11.0973	-0.607117	-1.00707	-1.25634	-16.0231	-0.938164	0
0.1667	-2.14131	-38.6382	-7.20924	-4.98614	1.82135	0.831927	1.18386	-34.3351	-0.029783	0.320305
0.1673	1.52951	-53.2731	-0.495146	-0.409951	1.21423	0.831927	1.18386	-55.0841	-0.938164	0
0.1680	-0.917706	-61.2067	0.113718	-2.24043	-1.21423	-0.70057	-1.57043	-40.7409	-2.47199	0
0.1687	-4.89443	-68.5326	-3.85219	-4.37599	-2.15864	-1.92657	-4.01063	-13.882	-0.938164	0.320305
0.1693	-2.75312	-71.8917	-4.76904	-1.93535	0.26983	-0.394071	-1.86035	14.8046	3.02297	0.320305
0.1700	1.83541	-34.6714	-2.02086	-2.54551	2.15864	0.831927	1.18386	57.2252	4.85463	0
0.1707	3.36492	30.9409	0.113718	-6.52108	1.21423	0.831927	0.869775	91.099	3.33569	0
0.1713	2.44722	58.4215	-1.10638	-7.74139	-0.337287	-0.70057	-1.57043	108.793	1.80187	0
0.1720	1.52951	44.6812	-1.412	-2.85059	-1.82135	-2.53957	-3.69654	117.035	1.50404	0
0.1727	3.97673	28.8141	3.77638	4.47132	-0.944405	-1.62007	-1.25634	102.387	1.50404	0
0.1733	5.81214	19.0406	5.60771	11.7932	0.876947	0.218928	1.18386	70.3413	1.80187	0
0.1740	1.22361	8.98013	-1.10638	17.8948	0.607117	0.218928	0.869775	56.9119	2.11459	0
0.1747	-5.81214	1.95807	-9.04057	17.8948	-2.15864	-1.62007	-0.652331	27.0068	0.580768	0.320305
0.1753	-10.7066	12.3392	-10.2607	16.3694	-3.6427	-3.15257	-3.69654	-83.4661	-0.938164	0
0.1760	-7.64755	37.0515	-5.3779	20.6405	-1.55152	-1.31357	-2.77845	-168.917	-0.029783	0
0.1767	-0.305902	44.3774	-2.93771	25.8364	0.876947	0.525428	0.869775	-149.995	1.19132	0
0.1773	3.97673	23.9358	-4.15781	30.1075	0.26983	0.525428	0.869775	-125.887	0.89349	0
0.1780	2.44722	0.11816	-5.3779	40.1752	-1.55152	-1.31357	-1.57043	-116.426	0.580768	-0.320305
0.1787	-1.52951	-8.72693	-5.3779	45.6666	-3.03559	-3.45907	-3.09253	-84.38	0.89349	0
0.1793	-0.305902	-4.15247	0.113718	9.04752	-1.21423	-1.92657	-0.942256	-55.0841	1.19132	0
0.1800	3.36492	1.3504	4.38761	-45.8859	0.607117	-0.0875713	1.49795	-45.9281	1.19132	0
0.1807	4.28263	2.56575	2.25066	-51.3773	0.607117	0.525428	1.18386	-42.5686	1.19132	0
0.1813	1.83541	-5.06398	-3.85219	-33.6732	-0.944405	-1.00707	-0.942256	-32.1941	1.50404	0
0.1820	-0.611804	-23.0749	-9.6518	-29.097	-2.15864	-3.15257	-3.09253	-23.6473	0.89349	0
0.1827	1.83541	-34.6714	-12.7032	-19.0293	-0.944405	-1.31357	-0.652331	-19.0693	0.89349	0
0.1833	5.50624	-25.5056	-16.6715	-1.02011	0.607117	0.218928	1.78787	-15.7184	0.89349	-0.960914
0.1840	3.97673	0.742717	-21.2486	14.844	0.607117	-0.394071	1.18386	-14.1866	2.11459	-0.320305
0.1847	-2.75312	18.1291	-23.9945	21.2507	-0.944405	-1.92657	-0.652331	-9.30399	2.41242	0.64061
0.1853	-8.87116	12.3392	-25.2146	11.4882	-2.76576	-2.84607	-3.40662	-0.765904	-0.640334	0
0.1860	-4.89443	1.04656	-22.1631	0.505288	-0.607117	0.218928	-1.86035	-0.765904	-2.76982	-0.320305
0.1867	3.05902	0.11816	-3.24333	1.72561	1.48406	2.05792	0.869775	-16.0231	-2.76982	0
0.1873	4.58853	9.89165	23.3074	2.64085	0.607117	0.831927	0.869775	-22.7334	-3.08254	-0.320305
0.1880	0.305902	34.9246	27.8846	-4.98614	-0.944405	-1.00707	-1.86035	-16.3277	-3.38037	-0.320305
0.1887	-4.89443	61.4599	25.75	1.42053	-2.15864	-2.53957	-4.01063	-16.6323	-2.47199	0
0.1893	-3.97673	48.648	27.8846	28.5821	0	-1.00707	-0.942256	-22.4288	-1.54872	0.320305
0.1900	1.22361	10.1955	15.0676	33.4634	2.15864	1.44493	2.39188	-27.0068	-2.15927	0.320305
0.1907	3.36492	-3.22407	3.47076	18.1999	1.21423	1.44493	1.78787	-30.9756	-2.47199	0
0.1913	0.305902	2.86959	1.94505	16.3694	-1.55152	-1.00707	-0.942256	-28.5299	-0.640334	0
0.1920	-5.50624	11.107	0.724951	18.1999	-3.03559	-2.84607	-3.40662	-13.882	1.80187	0
0.1927	-6.42394	24.5434	1.03057	22.1659	-0.607117	-1.62007	-1.57043	5.64854	5.16735	-0.320305
0.1933	-2.44722	27.9025	2.55628	9.04752	0.607117	-0.394071	1.18386	14.1953	5.46518	-0.320305
0.1940	1.52951	13.5546	4.082	-27.8766	0	-0.394071	0.869775	13.2728	-0.327613	0
0.1947	1.83541	2.56575	4.38761	-53.5129	-0.944405	-1.00707	-0.942256	17.5462	-4.91419	0.320305
0.1953	-1.22361	2.26191	1.33618	-55.6484	-2.42847	-2.53957	-3.09253	31.2802	-4.30364	0.320305
0.1960	0.305902	6.2287	3.16515	-36.4284	-0.944405	-1.62007	-1.25634	50.5061	-1.86144	0
0.1967	4.89443	11.4108	5.91333	-14.4531	1.21423	0.218928	1.18386	70.9505	-0.327613	0
0.1973	5.20033	13.5546	4.082	-4.68106	0.607117	0.525428	1.18386	87.4349	-0.327613	0
0.1980	0	4.7095	2.8619	-1.63027	-1.82135	-1.62007	-1.57043	87.1302	-0.938164	-0.320305
0.1987	-7.95345	-14.2129	-0.800763	1.11545	-2.42847	-2.84607	-3.09253	50.8107	-1.25089	0
0.1993	-12.4808	-30.0801	-6.60037	-1.32519	0.26983	-0.394071	0.265765	-7.78088	-0.029783	0
0.2000	-13.0926	-21.235	-9.95742	-19.6395	1.21423	1.13843	2.10196	-30.0617	-0.029783	0
0.2007	-10.4007	17.8252	-10.8719	-30.0122	0.607117	0.525428	0.869775	-5.03059	-0.029783	0
0.2013	-5.81214	46.2004	-9.6518	-23.3005	-0.607117	-1.00707	-1.25634	19.6872	-0.327613	-0.320305
0.2020	-3.97673	43.7697	-5.98914	-20.2497	-2.42847	-1.92657	-3.09253	29.1479	-1.25089	-0.320305
0.2027	-0.917706	33.6924	-1.71761	-16.2836	-0.607117	-0.70057	-1.25634	38.9131	-0.640334	0
0.2033	3.36492	28.2064	-3.54894	-10.182	1.82135	0.831927	0.869775	52.9518	-0.029783	0
0.2040	6.42394	26.9741	-2.93771	-11.4023	0.876947	0.831927	0.869775	73.7008	-0.029783	0
0.2047	6.72984	15.6983	-0.191899	-9.87695	-0.944405	-1.00707	-0.942256	93.8406	-0.029783	0
0.2053	2.44722	-2.61639	-3.85219	-5.30076	-2.15864	-2.84607	-3.09253	71.8731	-0.327613	0
0.2060	1.52951	-2.61639	-3.24333	-2.24043	-0.607117	-1.00707	-1.25634	-15.4138	-0.640334	0
0.2067	3.36492	6.83638	2.25066	-0.71503	1.21423	0.525428	1.18386	-103.606	-0.938164	0
0.2073	0.917706	1.04656	3.77638	-1.02011	0.607117	0.218928	1.49795	-116.121	-0.640334	0.320305
0.2080	-3.67082	-15.4451	2.55628	-3.76583	-1.55152	-1.92657	-1.25634	-72.4823	-0.938164	0.320305
0.2087	-6.11804	-23.9864	1.33618	-4.37599	-2.76576	-3.15257	-3.40662	-26.7022	-1.86144	0
0.2093	-2.75312	-20.3235	2.8619	0.200208	-0.337287	-1.31357	-0.942256	2.28901	-0.029783	0
0.2100	3.05902	-10.2461	3.77638	5.99672	1.48406	0.525428	1.49795	12.3589	3.33569	0
0.2107	6.42394	-3.84863	1.63943	9.65768	0.876947	0.831927	1.49795	2.28901	5.46518	0.320305
0.2113	4.28263	-8.72693	-2.32648	7.8272	-1.55152	-1.31357	-1.25634	-15.4138	5.7779	0
0.2120	-0.305902	-13.9091	-3.85219	5.38656	-2.42847	-3.15257	-3.40662	-14.1866	3.63352	0
0.2127	2.14131	-11.1576	-2.32648	6.60688	-0.337287	-1.92657	-0.942256	-5.95316	2.11459	0
0.2133	5.20033	-7.49469	-6.60037	7.52212	0.26983	-1.62007	0.265765	-33.1079	2.41242	-0.960914
0.2140	4.28263	-3.22407	-14.8402	8.13228	0.607117	-0.70057	-0.0483208	-55.998	4.24408	-0.320305
0.2147	1.83541	-1.40104	-18.8061	7.21704	-0.337287	-0.70057	-0.652331	-26.0929	6.07573	0.64061
0.2153	-2.75312	-4.4563	-19.4173	4.47132	-2.76576	-2.84607	-3.09253	18.46	5.7779	0.320305
0.2160	-3.67082	-7.81541	-16.9748	5.38656	-0.944405	-1.92657	-1.57043	47.7645	5.46518	0
0.2167	-0.305902	-9.63845	-4.46342	6.60688	1.21423	-0.0875713	1.18386	48.6784	6.07573	0
0.2173	3.05902	-8.42309	12.6274	5.99672	0.876947	0.218928	0.869775	13.5774	4.5568	-0.320305
0.2180	1.22361	-5.36782	13.8475	5.08148	-2.15864	-1.31357	-1.86035	-29.7571	2.11459	0
0.2187	-5.50624	-4.76014	4.69086	5.99672	-3.37287	-3.15257	-4.01063	-50.2015	4.24408	0.320305
0.2193	-7.34165	-4.15247	2.25066	5.99672	-0.607117	-1.62007	-1.25634	-45.0142	5.46518	0
0.2200	-3.36492	-2.00871	2.25066	-0.409951	1.48406	0.831927	0.869775	-34.3351	-4.60147	-0.320305
0.2207	-0.917706	-0.185679	0.113718	-5.30076	0.876947	1.44493	1.18386	-30.671	-16.4998	0
0.2213	-2.14131	-1.0972	-4.15781	-7.13124	-1.55152	-0.70057	-0.942256	-26.7022	-17.7209	-0.64061
0.2220	-5.20033	-1.40104	-5.68352	-10.182	-2.42847	-2.23307	-3.40662	-16.0231	-12.5386	-0.320305
0.2227	-3.05902	1.95807	-1.412	-5.30076	-0.337287	-0.394071	-0.942256	-4.11673	-6.43313	0.64061
0.2233	0.917706	0.742717	0.724951	8.13228	0.876947	0.525428	0.869775	0.461283	-1.54872	0.320305
0.2240	2.75312	-7.81541	1.03057	12.4034	0.607117	0.525428	0.265765	0.765904	0.282938	-0.320305
0.2247	0.305902	-14.8206	1.03057	5.38656	-1.55152	-1.31357	-1.57043	-3.20287	-0.640334	0
0.2253	-2.75312	-14.2129	2.25066	1.72561	-2.42847	-3.15257	-3.09253	-3.81211	-1.86144	0.320305
0.2260	1.22361	-8.11925	7.43904	3.55608	-0.337287	-1.31357	-0.942256	18.46	-1.25089	0
0.2267	4.89443	-2.61639	11.4049	4.47132	0.876947	0.525428	1.49795	32.8033	-0.640334	-0.320305
0.2273	1.52951	1.95807	12.9307	3.86116	0.607117	0.218928	1.18386	12.9681	-0.640334	0
0.2280	-5.20033	3.17343	13.2363	2.33577	-1.21423	-1.31357	-0.942256	-3.50749	-0.640334	0
0.2287	-9.17706	-1.0972	13.5419	2.33577	-2.42847	-2.84607	-3.09253	-3.50749	-0.327613	0
0.2293	-5.81214	-4.15247	15.6788	8.13228	-0.607117	-1.31357	-0.942256	6.86702	1.19132	0
0.2300	-1.83541	-2.31255	9.87923	9.96276	0.607117	-0.70057	1.18386	37.6859	1.80187	0
0.2307	-1.52951	-1.0972	-6.90362	3.55608	0.26983	0.218928	1.18386	71.5685	-0.327613	0
0.2313	-3.36492	-3.52791	-24.9089	-4.07091	-1.55152	-0.394071	-0.652331	76.7557	-0.938164	-0.320305
0.2320	-7.03574	-5.9755	-37.117	-5.30076	-2.42847	-1.62007	-2.48852	66.6858	1.80187	0
0.2327	-4.89443	-4.76014	-41.9998	-0.104871	0	-0.0875713	-0.338246	57.8344	4.5568	0
0.2333	0.917706	-2.61639	-38.3371	2.94592	0.876947	0.831927	1.18386	10.5312	5.7779	0
0.2340	2.44722	1.65423	-31.3198	2.64085	0	-0.394071	0.869775	-59.0529	4.85463	0
0.2347	-0.305902	3.78111	-27.0459	0.505288	-1.82135	-1.92657	-1.25634	-86.2077	1.80187	0
0.2353	-2.75312	-4.76014	-19.7229	0.505288	-3.03559	-2.84607	-3.69654	-72.4823	-0.327613	0
0.2360	0.917706	-14.2129	-7.82047	7.21704	-1.21423	-1.00707	-1.57043	-48.0605	0.580768	0
0.2367	6.42394	-12.9976	2.55628	11.4882	0.607117	0.831927	0.869775	-27.9207	0.580768	0
0.2373	7.95345	-6.27934	18.4247	8.43736	0.876947	0.525428	1.18386	-9.60861	-3.38037	0
0.2380	4.28263	-3.22407	26.6645	5.38656	-0.944405	-1.62007	-1.25634	7.17164	-5.82257	0
0.2387	-1.22361	-1.40104	14.1531	5.69164	-2.42847	-2.84607	-3.09253	18.46	-2.76982	0.320305
0.2393	-1.83541	5.62102	4.99648	7.52212	0	-0.0875713	-0.338246	34.0305	2.11459	0
0.2400	0.917706	10.1955	13.8475	6.91196	1.48406	1.75143	2.10196	47.1466	3.94625	0
0.2407	1.52951	6.83638	35.2099	4.47132	1.21423	1.75143	2.10196	46.842	4.24408	0
0.2413	-3.05902	3.47727	46.5011	1.42053	-0.337287	-0.394071	-0.338246	45.9281	3.02297	0
0.2420	-7.95345	5.01334	34.293	-0.71503	-1.82135	-1.92657	-3.09253	57.8344	0.580768	0.320305
0.2427	-7.03574	10.8032	15.3732	3.55608	-0.607117	-1.31357	-1.57043	49.2876	0.282938	0
0.2433	-4.89443	14.1623	4.082	13.3186	0.607117	-0.70057	-0.338246	-27.9207	-0.327613	-0.960914
0.2440	-2.14131	10.1955	1.03057	19.1151	1.48406	0.525428	-0.0483208	-100.856	-1.86144	-0.320305
0.2447	-3.36492	-5.06398	-1.412	15.4542	-0.607117	-0.70057	-0.942256	-86.5123	-3.99092	0.64061
0.2453	-8.87116	-21.5388	-4.15781	12.0983	-2.76576	-3.15257	-3.09253	-42.5686	-5.82257	0.320305
0.2460	-6.42394	-20.0196	-2.63209	14.2339	-0.944405	-1.31357	-1.57043	-24.2565	-4.91419	0.320305
0.2467	-1.52951	-10.55	0.113718	15.1491	1.21423	0.525428	0.869775	-17.2415	-2.76982	-0.320305
0.2473	0.611804	-7.81541	2.55628	14.844	0.876947	0.525428	0.869775	-9.30399	-1.25089	-0.320305
0.2480	-2.14131	-7.49469	3.47076	11.7932	-1.21423	-1.62007	-1.25634	-7.78088	-0.640334	0.320305
0.2487	-5.81214	-4.15247	6.52219	10.5729	-1.82135	-3.15257	-2.77845	-10.5312	-0.029783	0
0.2493	-2.75312	1.65423	8.0479	15.4542	0.26983	-1.62007	-0.942256	-8.99937	0.89349	0
0.2500	2.44722	3.17343	4.38761	6.3018	1.21423	-0.0875713	1.18386	-7.78088	1.19132	0
0.2507	4.58853	-2.31255	1.63943	-12.6227	0.607117	-0.394071	1.18386	-5.03059	1.50404	0
0.2513	2.14131	-7.81541	-1.412	-19.9446	-1.82135	-1.92657	-1.57043	0.461283	1.19132	0.320305
0.2520	-3.36492	-7.19086	-2.02086	-25.436	-2.76576	-2.23307	-3.40662	3.50749	-0.640334	0
0.2527	-3.36492	-3.52791	0.113718	-21.7751	-0.607117	0.218928	-0.942256	2.59363	-2.76982	-0.320305
0.2533	-0.917706	-2.00871	-1.412	-10.182	1.21423	1.13843	0.869775	-2.59363	-3.08254	-0.320305
0.2540	-0.611804	-2.31255	-4.76904	-11.4023	0.26983	-0.0875713	0.265765	-5.95316	-1.25089	0
0.2547	-2.75312	-4.15247	-5.98914	-12.9277	-2.42847	-2.23307	-2.17444	-5.64854	-0.327613	0
0.2553	-5.50624	-5.9755	-4.76904	-8.65663	-3.37287	-3.15257	-4.01063	-2.59363	-0.327613	-0.320305
0.2560	-4.28263	-3.22407	-1.71761	-4.37599	-0.944405	-1.62007	-1.57043	5.95316	0.580768	-0.320305
0.2567	0.305902	1.04656	-0.800763	-0.409951	0.607117	-0.0875713	1.18386	16.0231	2.41242	0
0.2573	1.22361	2.86959	-4.46342	1.11545	-0.607117	-1.00707	0.57985	25.4837	4.5568	0
0.2580	-0.917706	2.56575	-7.51485	1.42053	-2.42847	-3.15257	-1.57043	37.3813	7.29683	0
0.2587	-2.44722	2.56575	-4.15781	0.505288	-3.37287	-3.45907	-2.77845	54.7795	8.22011	0
0.2593	-0.611804	5.62102	-2.63209	1.72561	-0.944405	-1.00707	-0.652331	65.154	7.90738	0
0.2600	2.14131	6.2287	-8.12609	-2.85059	0.876947	0.525428	2.10196	49.5923	6.999	0
0.2607	1.83541	4.10183	-11.4831	-8.65663	0.26983	0.831927	1.18386	30.671	6.38845	-0.320305
0.2613	-1.52951	6.53254	-13.6177	8.74244	-1.21423	-0.70057	-1.57043	8.99937	6.38845	-0.320305
0.2620	-5.81214	1.95807	-13.9233	36.2091	-2.42847	-2.53957	-3.40662	-43.1778	8.51793	0
0.2627	-3.05902	-10.8538	-5.3779	50.5479	-0.944405	-0.70057	-1.25634	-73.0916	8.51793	-0.320305
0.2633	2.14131	-12.6937	9.87923	52.6834	0.607117	0.525428	1.49795	-48.3738	-3.69309	0
0.2640	0.917706	-8.72693	20.5616	53.2936	-1.21423	-0.70057	-0.0483208	-18.46	-15.8892	0
0.2647	-4.28263	-11.4784	21.7817	49.9377	-4.24982	-2.53957	-2.77845	-0.461283	-14.3703	-0.320305
0.2653	-7.03574	-13.9091	16.8989	22.7761	-3.97999	-1.31357	-3.40662	12.0543	-11.9281	0
0.2660	-2.75312	-9.94229	12.6274	-2.85059	-0.337287	2.05792	-1.57043	25.4837	-12.5386	-0.320305
0.2667	2.14131	-6.58318	8.96475	-1.32519	1.82135	2.05792	0.57985	41.6547	-10.0964	-0.320305
0.2673	1.83541	-5.67166	4.082	4.47132	0.876947	0.831927	0.57985	35.8582	-5.82257	0
0.2680	2.14131	-4.4563	-0.800763	-0.104871	-1.21423	-0.394071	-1.57043	20.9057	-3.69309	-0.320305
0.2687	1.83541	-6.27934	-1.71761	-3.15567	-2.42847	-1.62007	-2.77845	31.2802	-3.69309	-0.320305
0.2693	1.83541	-5.9755	1.03057	-17.5039	0	-0.0875713	-0.338246	52.3426	-3.38037	0
0.2700	3.67082	-0.489518	-0.800763	-67.8611	2.15864	1.13843	1.78787	62.7171	-4.60147	0
0.2707	3.67082	3.78111	-4.15781	-101.735	1.21423	0.525428	0.57985	49.8969	-4.60147	-0.64061
0.2713	0.917706	3.78111	-4.76904	-75.7932	-0.337287	-1.31357	-1.57043	10.5312	-0.327613	-0.320305
0.2720	-1.83541	1.3504	-3.24333	-37.6487	-0.944405	-2.23307	-3.09253	-27.0068	2.72514	0
0.2727	0.611804	2.56575	-0.800763	-20.5547	0	-0.70057	-1.25634	-34.3351	2.41242	0
0.2733	4.28263	5.31718	-0.800763	-16.8938	1.21423	1.13843	0.869775	-17.5462	1.80187	-0.320305
0.2740	1.83541	6.2287	-2.32648	-15.3684	1.21423	0.831927	0.57985	6.86702	1.80187	-0.320305
0.2747	-4.28263	8.06861	-4.46342	-15.9785	-0.607117	-1.00707	-1.57043	37.0767	1.50404	0
0.2753	-8.56525	8.98013	-5.98914	-16.5887	-2.42847	-2.84607	-3.69654	52.6472	2.11459	0
0.2760	-7.64755	8.06861	-5.68352	-8.35155	-0.944405	-1.92657	-2.17444	19.078	3.02297	-0.960914
0.2767	-3.36492	8.37245	-6.90362	-1.32519	1.82135	0.525428	1.18386	-35.249	5.16735	-0.64061
0.2773	-0.305902	5.01334	-9.34618	-4.98614	1.82135	1.75143	1.18386	-67.5997	6.68628	0.64061
0.2780	0	-5.06398	-10.8719	-5.91092	-1.21423	-0.70057	-1.57043	-77.365	4.24408	0
0.2787	-0.611804	-12.3899	-9.04057	-0.409951	-2.15864	-1.62007	-2.48852	-54.7795	1.19132	-0.320305
0.2793	3.05902	-7.19086	-4.46342	5.38656	0.26983	0.525428	-0.338246	-14.7959	0.89349	0
0.2800	6.72984	0.742717	-1.412	10.2678	1.82135	1.44493	1.18386	7.47626	1.80187	0
0.2807	7.03574	2.26191	0.113718	14.2339	0.876947	0.218928	0.869775	15.7184	2.41242	0
0.2813	4.58853	0.438879	0.419334	15.7593	-0.944405	-1.92657	-1.57043	27.616	2.11459	0
0.2820	1.52951	-10.55	0.113718	16.3694	-2.15864	-3.76556	-3.40662	20.2964	1.19132	0
0.2827	2.75312	-25.2018	1.33618	23.3863	-0.337287	-1.92657	-0.652331	-15.4138	0.89349	0
0.2833	4.58853	-22.7542	-2.02086	36.8193	1.21423	0.218928	1.78787	-26.3976	-0.327613	-0.320305
0.2840	1.52951	-12.086	-7.82047	23.0812	0	-0.394071	1.18386	-14.4912	-3.08254	0
0.2847	-4.58853	-15.1244	-11.1775	-27.8766	-2.15864	-1.92657	-0.942256	-35.5536	-5.82257	0
0.2853	-12.4808	-25.8094	-11.4831	-48.6316	-2.76576	-2.84607	-3.09253	-59.6622	-4.91419	0
0.2860	-12.7867	-27.6493	-8.73495	-23.9106	0	-0.70057	-0.942256	-45.0142	-1.25089	0
0.2867	-5.50624	-25.8094	-6.29475	-7.43631	2.15864	0.218928	1.78787	-26.3976	0.580768	0
0.2873	-1.22361	-26.4171	-2.02086	-8.65663	1.21423	-0.394071	0.869775	-23.3427	0.580768	0
0.2880	-3.67082	-26.4171	4.69086	-11.0973	-0.944405	-1.31357	-1.25634	-21.8196	0.282938	0
0.2887	-7.03574	-23.3787	4.38761	-12.0125	-1.82135	-2.23307	-3.09253	-18.1554	-0.029783	0
0.2893	-6.11804	-19.7158	1.63943	-10.7922	0.26983	-0.394071	-0.652331	-13.5774	-0.029783	0
0.2900	-3.67082	-31.0085	1.94505	-8.35155	1.82135	1.13843	2.10196	-11.1404	0.580768	0.320305
0.2907	-3.36492	-34.3507	1.03057	-1.93535	0.876947	-0.0875713	0.869775	-13.2728	1.50404	0
0.2913	-6.11804	12.9469	-1.412	5.69164	-1.55152	-1.92657	-1.86035	-15.7184	1.80187	0
0.2920	-8.56525	66.6589	-3.54894	13.0136	-2.76576	-2.84607	-3.40662	-15.4138	1.50404	-0.320305
0.2927	-5.50624	69.7142	-2.93771	23.3863	-0.607117	-1.00707	-0.652331	-4.72597	1.80187	-0.320305
0.2933	-1.22361	43.162	-3.24333	31.6329	0.876947	0.218928	1.49795	18.7733	2.41242	0
0.2940	-0.917706	20.8805	-4.46342	35.9041	0.26983	-0.70057	0.57985	39.827	2.72514	0
0.2947	-0.917706	13.2508	-3.85219	43.8361	-1.82135	-2.23307	-1.57043	38.3039	1.80187	-0.320305
0.2953	-1.83541	17.2175	-2.32648	57.5742	-2.76576	-2.84607	-3.69654	19.3826	0.580768	-0.320305
0.2960	-1.83541	19.6651	-2.63209	64.8961	-0.944405	-1.00707	-1.25634	5.34392	-0.640334	0
0.2967	0	17.5214	-5.3779	60.0149	0.607117	0.831927	1.18386	5.0393	-1.25089	0
0.2973	0.611804	14.4661	-7.51485	60.32	0.26983	0.218928	1.18386	5.0393	-0.640334	-0.320305
0.2980	-2.14131	10.1955	-7.20924	37.4295	-2.15864	-1.62007	-1.25634	-5.34392	-2.15927	-0.320305
0.2987	-5.20033	7.74789	-2.02086	-26.6563	-2.76576	-1.92657	-3.09253	-12.0543	-5.21202	0
0.2993	-1.83541	12.0354	3.16515	-69.6916	0.26983	0.831927	-0.0483208	-4.11673	-6.43313	-0.320305
0.3000	3.36492	17.8252	0.419334	-76.7085	1.82135	2.36442	2.39188	0.765904	-3.38037	-0.320305
0.3007	4.58853	19.969	-2.93771	-77.6237	0.876947	1.75143	1.18386	-1.07052	0.282938	0
0.3013	1.22361	16.306	1.94505	-62.9703	-1.21423	-0.70057	-1.57043	2.59363	0.89349	0
0.3020	-1.83541	7.74789	12.0162	-37.9538	-2.76576	-2.53957	-3.09253	2.59363	0.89349	0
0.3027	1.83541	3.17343	15.9845	-21.1649	-0.944405	-1.31357	-1.25634	-9.60861	1.19132	-0.320305
0.3033	5.81214	7.14022	12.6274	-14.4531	0.607117	-0.70057	-0.338246	-21.2103	0.580768	-1.28122
0.3040	5.20033	13.5546	11.7106	-10.7922	0.876947	-0.394071	-0.338246	-20.2964	0.89349	-0.320305
0.3047	2.14131	10.8032	12.0162	-10.182	-1.55152	-2.23307	-2.48852	-19.0693	0.282938	-0.320305
0.3053	-1.52951	5.01334	11.1017	-8.35155	-3.03559	-3.45907	-4.92873	-19.0693	-1.25089	-1.28122
0.3060	1.22361	3.78111	8.35352	-2.54551	0.607117	0.218928	-1.25634	-7.78088	0.89349	0
0.3067	5.81214	-5.67166	3.47076	-0.71503	2.42847	1.13843	1.78787	5.64854	2.72514	0.64061
0.3073	7.64755	-20.9311	4.99648	-0.71503	0.607117	0.218928	1.18386	22.1242	2.11459	-0.320305
0.3080	5.50624	-27.3455	7.43904	1.11545	-1.21423	-1.31357	-1.57043	50.2015	2.11459	-0.320305
0.3087	0.305902	-22.4503	6.82781	3.251	-1.82135	-2.84607	-3.09253	73.3962	2.72514	0
0.3093	-1.22361	-14.8206	3.16515	4.7764	0.26983	-0.394071	-0.338246	83.1615	2.41242	-0.320305
0.3100	-2.75312	-12.9976	-4.15781	7.21704	1.48406	0.831927	0.869775	67.2951	1.19132	-0.320305
0.3107	-3.05902	-19.4119	-7.51485	13.0136	0.876947	0.218928	-0.0483208	-5.34392	1.19132	-0.320305
0.3113	-2.14131	-26.7209	-10.2607	19.4202	-1.55152	-1.62007	-1.86035	-77.365	1.19132	0
0.3120	-2.75312	-27.3455	-12.3976	17.2847	-2.76576	-2.23307	-3.69654	-75.2239	0.282938	-0.320305
0.3127	1.52951	-22.7542	-9.6518	1.72561	-0.607117	-0.394071	-0.942256	-33.7172	-0.327613	-0.320305
0.3133	6.42394	-9.33461	-13.3145	-8.65663	1.21423	-0.0875713	1.78787	1.67977	-0.029783	-0.320305
0.3140	5.20033	17.2175	-21.5543	-6.82616	0.26983	-1.00707	0.57985	16.3277	0.282938	-0.320305
0.3147	1.83541	32.7808	-28.266	-12.0125	-1.82135	-1.92657	-2.48852	7.47626	-1.25089	0
0.3153	0.611804	25.455	-26.1314	-22.0801	-2.42847	-2.84607	-3.40662	-1.07052	-2.47199	0
0.3160	3.36492	19.6651	-15.1434	-26.3512	0	-1.00707	-0.0483208	3.20287	-1.86144	0
0.3167	4.28263	26.6703	-16.6715	-16.8938	0.876947	0.831927	1.78787	5.95316	-0.640334	0.320305
0.3173	0.305902	34.3	-27.3515	-2.54551	0.26983	0.525428	1.18386	1.67977	0.580768	0.320305
0.3180	-6.11804	30.9409	-14.2289	1.11545	-1.55152	-1.31357	-0.652331	2.59363	0.580768	0.320305
0.3187	-15.2339	23.6319	20.5616	-0.104871	-2.42847	-2.23307	-2.77845	9.31269	-0.029783	0.320305
0.3193	-19.2106	21.4882	37.3468	2.64085	-0.944405	-0.70057	-0.942256	17.2415	0.282938	0
0.3200	-17.3752	17.8252	26.6645	7.21704	0.607117	-0.0875713	1.18386	24.8745	0.580768	0
0.3207	-11.3184	10.1955	17.5102	10.5729	0.876947	0.218928	1.18386	21.8196	0.580768	0
0.3213	-6.42394	0.11816	14.4587	10.5729	-1.55152	-1.62007	-0.652331	6.5624	0.282938	0
0.3220	-7.03574	-10.55	9.87923	9.04752	-3.37287	-3.45907	-3.09253	-3.81211	-0.327613	0
0.3227	-4.28263	-16.0528	7.13342	10.2678	-0.944405	-1.00707	-0.942256	4.73468	0.282938	0
0.3233	-0.611804	-14.5168	6.21894	-5.60584	0.607117	0.831927	1.18386	25.7883	-0.938164	-0.64061
0.3240	-0.611804	-17.2682	3.16515	-32.4528	0.607117	1.13843	0.869775	37.9993	-1.86144	-0.64061
0.3247	-2.75312	-35.8868	-3.54894	-29.097	-0.337287	-0.70057	-0.652331	35.249	-0.938164	0.320305
0.3253	-5.50624	-46.2679	-2.63209	-8.04647	-1.82135	-2.53957	-2.48852	43.4911	-1.86144	0
0.3260	-1.83541	-32.5276	12.3218	-0.104871	-0.607117	-0.394071	-0.652331	82.5522	-2.47199	-0.320305
0.3267	3.97673	-20.3235	19.0359	0.200208	1.48406	0.525428	1.18386	118.254	-0.938164	0
0.3273	3.36492	-16.3567	12.6274	0.810368	1.21423	-0.70057	0.265765	106.661	-0.029783	0
0.3280	-0.917706	-14.8206	5.91333	-0.409951	-1.55152	-1.62007	-1.86035	78.5835	-0.640334	-0.320305
0.3287	-3.36492	-20.0196	0.419334	-0.104871	-2.42847	-2.23307	-2.77845	75.8332	-1.25089	-0.320305
0.3293	-3.05902	-26.7209	-4.15781	4.47132	-0.337287	-1.00707	0.57985	69.732	-0.938164	-0.320305
0.3300	-2.44722	-40.1574	-5.68352	8.13228	1.82135	1.13843	2.70597	27.616	-0.640334	0
0.3307	-1.22361	-49.914	0.113718	10.878	1.21423	1.13843	1.78787	-70.3413	-0.640334	0.320305
0.3313	-4.58853	-23.6826	2.8619	8.74244	-2.42847	-2.23307	-1.25634	-181.119	-0.938164	0
0.3320	-10.4007	14.7699	-2.93771	5.08148	-3.6427	-3.45907	-4.30055	-180.814	0.580768	0
0.3327	-7.03574	21.4882	-5.68352	9.04752	-0.607117	-0.394071	-1.86035	-92.3175	2.41242	0
0.3333	-1.83541	7.44405	-6.90362	15.4542	0.607117	0.525428	0.265765	-49.2876	0.89349	-0.64061
0.3340	-3.05902	-2.61639	-8.73495	14.5389	0.26983	-0.0875713	-0.942256	-45.9281	-0.327613	-0.960914
0.3347	-4.89443	-14.5168	-9.34618	-10.4871	-0.337287	-1.31357	-1.86035	-36.7721	-0.640334	0.64061
0.3353	-6.72984	-18.1797	-10.8719	-34.8935	-1.21423	-1.92657	-2.77845	-30.3663	-2.47199	0.64061
0.3360	-5.81214	-1.70487	-11.4831	-21.47	0	-0.0875713	-1.25634	-24.5698	-1.54872	-0.320305
0.3367	-3.05902	7.74789	-8.73495	-2.54551	0.607117	0.525428	1.18386	-17.2415	0.282938	-0.320305
0.3373	-0.305902	4.10183	-2.32648	-1.32519	0.26983	0.218928	0.57985	-9.91323	0.580768	0
0.3380	-1.52951	2.56575	1.03057	-3.15567	-1.82135	-1.62007	-2.48852	6.25778	-0.029783	0
0.3387	-2.75312	2.26191	1.63943	1.72561	-2.76576	-2.53957	-3.40662	27.3114	-0.029783	-0.320305
0.3393	1.83541	2.56575	3.16515	9.04752	0.26983	0.218928	-0.338246	36.4675	1.50404	-0.320305
0.3400	5.50624	11.107	1.33618	7.8272	1.82135	0.831927	1.49795	44.405	2.11459	-0.320305
0.3407	6.11804	37.963	-0.495146	4.16624	0.876947	-0.394071	0.57985	70.6459	0.89349	-0.320305
0.3413	3.05902	69.0896	-2.63209	3.55608	-1.82135	-2.53957	-2.17444	94.7545	0.282938	-0.320305
0.3420	-0.917706	60.5484	-1.71761	3.251	-3.03559	-3.15257	-3.40662	108.793	-0.029783	0
0.3427	2.75312	23.0074	4.082	4.47132	-0.944405	-0.70057	-1.25634	123.441	0.282938	0
0.3433	8.87116	5.31718	8.0479	5.99672	0.876947	0.218928	0.265765	65.154	1.19132	-0.320305
0.3440	9.78886	8.06861	7.74466	5.99672	0.607117	-0.70057	0.57985	-86.2077	1.19132	0
0.3447	5.20033	9.58781	2.25066	2.94592	-1.82135	-2.23307	-1.86035	-188.142	0.580768	0
0.3453	1.22361	9.89165	-4.15781	0.810368	-2.76576	-2.53957	-4.01063	-167.385	-0.029783	0
0.3460	5.20033	11.107	-5.3779	2.94592	-0.337287	-0.70057	-1.57043	-104.52	0.282938	-0.320305
0.3467	8.25935	10.4993	-2.32648	5.38656	1.48406	0.525428	0.265765	-67.2864	0.89349	-0.320305
0.3473	7.95345	10.4993	1.33618	5.38656	1.48406	0.218928	-0.0483208	-48.6784	0.89349	-0.320305
0.3480	3.67082	9.28397	0.419334	2.94592	-0.944405	-1.92657	-2.17444	-33.4125	0.580768	0
0.3487	-1.83541	7.44405	-0.800763	2.64085	-2.15864	-2.53957	-4.01063	-22.7334	0.580768	0
0.3493	-1.52951	8.37245	-0.191899	5.08148	0.26983	-0.394071	-1.86035	-17.5462	1.19132	0
0.3500	2.14131	8.67629	-1.10638	5.69164	1.48406	0.218928	-0.0483208	-18.7646	3.63352	0
0.3507	3.36492	7.14022	-2.93771	5.08148	0.607117	-0.0875713	-0.652331	-22.1242	6.999	0
0.3513	-0.611804	5.92486	-5.98914	3.251	-1.55152	-2.23307	-3.40662	-24.2565	8.83066	0
0.3520	-5.81214	7.14022	-9.95742	1.72561	-2.15864	-3.15257	-4.61464	-23.038	7.60955	0
0.3527	-4.28263	12.3392	-13.9233	2.94592	0	-1.31357	-2.48852	-14.1866	5.46518	0
0.3533	0.917706	15.0738	-17.8916	5.08148	1.48406	0.218928	-0.338246	-2.28901	3.33569	0
0.3540	3.05902	14.1623	-18.8061	4.7764	0.607117	-0.0875713	-0.652331	8.08551	2.41242	0
0.3547	0	13.2508	-18.5005	1.42053	-1.82135	-2.23307	-3.40662	13.5774	4.24408	0.320305
0.3553	-4.58853	15.0738	-16.0603	0.505288	-2.76576	-3.15257	-5.21865	12.0543	3.63352	0.320305
0.3560	-5.50624	15.6983	-5.3779	1.11545	-0.944405	-2.23307	-2.77845	5.64854	-6.43313	0
0.3567	-2.44722	8.98013	14.4587	-0.409951	0.876947	-0.394071	-0.338246	11.7497	-14.9808	0
0.3573	1.22361	0.11816	30.3271	-2.54551	0.876947	-0.0875713	-0.652331	29.7571	-14.0576	-0.320305
0.3580	-2.75312	-0.793357	22.0873	-4.68106	-1.82135	-2.84607	-3.69654	17.2415	-11.0197	0
0.3587	-7.34165	4.7095	5.91333	-4.37599	-2.42847	-3.15257	-4.30055	-16.0231	-8.87533	0
0.3593	-2.44722	5.62102	2.25066	-1.32519	0.26983	-0.394071	-1.25634	-20.6011	-6.43313	0
0.3600	3.97673	-3.52791	4.99648	-1.02011	1.48406	0.218928	-0.0483208	-9.30399	-4.60147	0
0.3607	5.20033	-11.4784	4.69086	-2.24043	0.876947	-0.394071	-0.0483208	-6.86702	-3.99092	0
0.3613	1.22361	-13.3014	1.03057	-4.07091	-1.55152	-2.23307	-2.77845	-8.08551	-3.99092	-0.320305
0.3620	-1.83541	-12.086	1.33618	-1.93535	-2.42847	-2.84607	-4.30055	-8.39013	-2.47199	0.320305
0.3627	1.83541	-6.88702	4.99648	2.94592	-0.607117	-0.394071	-0.942256	-6.25778	-0.029783	0
0.3633	4.28263	0.438879	2.55628	1.72561	0.26983	0.525428	0.869775	-3.20287	0.282938	-1.28122
0.3640	3.36492	3.17343	2.55628	0.505288	1.21423	-0.0875713	0.265765	-1.37515	0.580768	-0.320305
0.3647	-1.52951	-3.84863	4.38761	-1.63027	-0.607117	-1.31357	-1.25634	-1.37515	0.89349	0.64061
0.3653	-5.81214	-10.55	-2.93771	-9.57187	-3.03559	-2.53957	-3.09253	-3.50749	-1.25089	-0.320305
0.3660	-1.83541	-7.81541	-10.8719	-5.91092	-1.21423	-1.31357	-1.57043	-4.72597	-2.15927	-1.28122
0.3667	2.75312	-0.793357	-8.4317	8.43736	1.82135	0.525428	1.49795	0.461283	0.580768	0
0.3673	2.14131	2.56575	1.63943	13.0136	1.21423	0.525428	1.78787	10.2266	1.50404	0.64061
0.3680	-3.36492	0.11816	8.65914	13.3186	-2.15864	-1.92657	-2.17444	18.46	-0.327613	0
0.3687	-9.48296	-2.61639	8.0479	18.505	-2.42847	-2.84607	-2.77845	18.7733	-1.25089	0
0.3693	-11.6243	-8.11925	8.0479	20.9456	-0.337287	-0.70057	0.265765	11.445	-1.25089	0
0.3700	-10.4007	-15.4451	8.35352	19.1151	0.26983	0.831927	1.18386	8.08551	-0.938164	0
0.3707	-7.34165	-14.5168	7.13342	16.3694	0	0.218928	1.18386	10.5312	-0.640334	0
0.3713	-5.81214	-10.55	4.082	10.2678	-1.55152	-1.62007	-0.942256	8.08551	-0.938164	0
0.3720	-5.20033	-10.2461	2.25066	4.47132	-2.15864	-1.62007	-2.77845	6.25778	-1.25089	0
0.3727	-0.917706	-8.72693	1.94505	2.94592	-0.607117	0.525428	0.265765	21.5149	-0.029783	0
0.3733	2.44722	-8.11925	-8.73495	4.16624	0.607117	1.13843	2.10196	39.5224	1.19132	0
0.3740	2.14131	-8.11925	-30.4029	3.55608	0.607117	0.525428	1.49795	43.1865	1.19132	0
0.3747	-0.917706	-7.49469	-47.7994	-11.7074	-1.55152	-0.70057	-0.942256	38.9131	0.580768	0
0.3753	-4.28263	-5.9755	-53.9022	-26.6563	-2.76576	-1.92657	-3.09253	30.9756	0.89349	-0.320305
0.3760	-1.52951	-1.40104	-50.2396	-19.3344	-0.337287	-0.394071	-0.338246	31.8894	2.41242	0
0.3767	2.75312	3.17343	-36.2025	-8.35155	1.48406	1.13843	3.02005	44.7096	2.41242	0
0.3773	2.75312	4.40566	-20.3318	-7.13124	0.607117	1.13843	2.39188	26.3976	0.89349	0.320305
0.3780	-2.75312	1.3504	-4.76904	-10.182	-2.15864	-1.31357	-0.338246	-30.0617	-0.640334	0
0.3787	-6.72984	-3.52791	36.1244	-11.7074	-3.03559	-2.23307	-1.86035	-58.139	1.19132	0
0.3793	-2.44722	-2.92023	77.629	-8.04647	0	0.218928	1.18386	-42.8732	3.33569	0
0.3800	0.917706	0.11816	62.9807	-5.60584	1.21423	1.13843	3.30998	-24.2565	1.50404	0
0.3807	-2.14131	0.438879	23.9186	-5.60584	0.26983	0.525428	2.39188	-8.69475	-1.54872	0
0.3813	-5.81214	2.26191	5.30209	-5.30076	-1.55152	-0.70057	0.265765	0.156662	-2.47199	0
0.3820	-8.25935	6.2287	-0.800763	-4.68106	-2.42847	-2.23307	-1.57043	-3.50749	-1.54872	0.320305
0.3827	-3.97673	9.28397	0.113718	-0.71503	0	-0.394071	0.57985	-4.11673	0.580768	0
0.3833	0.917706	8.67629	4.082	7.21704	1.82135	1.13843	3.02005	0.156662	2.72514	0
0.3840	-0.917706	6.2287	4.38761	12.0983	0.26983	-0.0875713	1.78787	3.20287	3.02297	0
0.3847	-4.28263	3.47727	2.25066	10.5729	-1.82135	-1.00707	-0.942256	3.81211	1.80187	0
0.3853	-4.89443	0.11816	1.94505	9.04752	-2.15864	-0.70057	-1.86035	4.43006	0.282938	0
0.3860	-0.917706	-1.40104	4.082	10.5729	0	0.831927	0.265765	15.7184	0.580768	0
0.3867	3.67082	-2.00871	4.69086	9.96276	1.48406	2.05792	2.39188	37.3813	1.19132	0
0.3873	5.20033	-3.84863	3.47076	6.60688	0.876947	1.13843	2.10196	53.2564	1.80187	0.320305
0.3880	2.75312	-4.4563	1.63943	4.47132	-1.55152	-1.62007	-1.25634	55.3888	2.11459	0.320305
0.3887	-0.305902	-2.61639	2.25066	6.91196	-2.42847	-2.53957	-3.09253	55.6934	1.50404	0
0.3893	2.14131	0.438879	5.30209	11.4882	-0.337287	-1.00707	-0.0483208	69.732	1.80187	0
0.3900	4.28263	-2.31255	5.30209	14.5389	1.21423	-0.0875713	1.78787	97.8094	2.11459	0
0.3907	2.44722	-9.03077	0.113718	13.6237	0	-0.70057	0.869775	91.4036	0.89349	0
0.3913	-0.611804	-10.2461	-6.60037	8.13228	-2.42847	-2.23307	-1.86035	30.671	-0.938164	0
0.3920	-3.67082	-8.72693	-8.73495	5.08148	-3.03559	-2.84607	-3.40662	4.11673	-1.54872	0
0.3927	-1.52951	-7.49469	-6.29475	4.47132	-0.944405	-0.70057	-0.338246	42.264	-0.640334	0
0.3933	1.83541	-6.58318	-5.68352	3.86116	0.26983	-0.394071	0.869775	78.5835	-0.640334	-0.64061
0.3940	1.83541	-7.81541	-6.60037	6.60688	0	-1.00707	-0.338246	87.4349	-0.327613	-0.320305
0.3947	-1.22361	-9.33461	-7.20924	6.91196	-1.55152	-1.92657	-1.86035	85.9118	-0.029783	0.320305
0.3953	-4.89443	-8.42309	-9.04057	9.3526	-3.03559	-3.15257	-3.69654	64.2402	-0.640334	0.320305
0.3960	-2.44722	-5.9755	-4.76904	14.5389	-0.944405	-1.92657	-1.86035	-38.2952	1.19132	0
0.3967	2.44722	-4.76014	5.60771	-4.37599	1.21423	0.831927	1.18386	-181.728	4.24408	0.320305
0.3973	3.05902	-2.31255	11.4049	-31.2325	0.26983	1.44493	1.18386	-225.063	4.24408	0
0.3980	0.611804	2.56575	7.74466	-31.2325	-1.82135	-0.0875713	-1.57043	-164.339	4.5568	0
0.3987	-1.83541	5.92486	2.55628	-19.6395	-1.82135	-0.394071	-2.48852	-103.301	6.999	0
0.3993	-1.52951	5.31718	1.63943	-12.0125	0.607117	2.36442	0.57985	-77.6696	9.73904	0
0.4000	-2.14131	3.17343	1.94505	-8.35155	1.82135	2.97742	2.39188	-69.4274	9.73904	0
0.4007	-4.89443	-0.185679	2.25066	-6.82616	1.21423	1.44493	1.18386	-59.0529	10.0518	0
0.4013	-7.64755	-6.27934	0.724951	-7.13124	-0.607117	-0.394071	-1.57043	-38.2952	9.44121	0
0.4020	-10.0948	-10.55	-1.71761	-8.04647	-2.15864	-1.92657	-3.09253	-16.9369	-4.30364	0
0.4027	-7.95345	-5.06398	-1.10638	-4.98614	0	-0.0875713	-0.338246	-3.20287	-18.3314	-0.320305
0.4033	-3.67082	2.26191	0.419334	-1.63027	1.48406	2.05792	2.10196	-2.89825	-14.9808	0
0.4040	-2.14131	3.78111	-0.191899	-1.93535	0.607117	1.13843	1.78787	-8.69475	-7.04368	0
0.4047	-4.28263	2.86959	-2.93771	-4.37599	-1.55152	-1.62007	-1.25634	-10.8358	-4.60147	-0.320305
0.4053	-6.42394	5.01334	-5.07466	-5.91092	-2.42847	-2.84607	-3.69654	-8.69475	-3.69309	0
0.4060	-2.75312	6.2287	-4.76904	-3.76583	0	-0.394071	-0.652331	-2.89825	-3.08254	0
0.4067	1.22361	2.26191	-4.46342	-1.93535	1.48406	0.525428	1.78787	0.461283	-3.08254	0
0.4073	2.75312	-2.92023	-5.68352	-1.93535	0.876947	-0.0875713	1.18386	-2.89825	-2.76982	0
0.4080	3.05902	-6.27934	-8.12609	-3.46075	-1.21423	-1.31357	-1.57043	-13.5774	-2.47199	-0.320305
0.4087	2.75312	-6.58318	-6.29475	-4.98614	-1.82135	-1.92657	-2.48852	-22.1242	-2.15927	-0.320305
0.4093	6.11804	-3.52791	0.113718	-4.37599	0.876947	-0.0875713	0.57985	-16.6323	-0.938164	0
0.4100	9.48296	-0.489518	2.8619	-6.82616	1.48406	0.525428	1.49795	-8.69475	-0.640334	0
0.4107	9.48296	1.95807	2.55628	-8.65663	0.26983	-0.394071	1.18386	-7.17164	-0.327613	0
0.4113	7.03574	3.17343	-0.191899	-6.52108	-1.82135	-2.23307	-0.942256	-9.91323	-0.640334	0.320305
0.4120	4.28263	1.65423	-1.71761	-4.68106	-3.03559	-3.76556	-3.40662	-11.7497	-0.938164	0
0.4127	6.72984	3.47727	2.8619	-2.85059	-0.944405	-1.62007	-1.25634	-7.17164	0.282938	0
0.4133	7.34165	7.74789	3.77638	-0.104871	0	0.218928	0.57985	-5.03059	1.50404	0
0.4140	2.75312	9.58781	-0.191899	1.11545	0	-0.394071	-0.652331	-11.445	1.50404	-0.320305
0.4147	-3.36492	8.37245	-5.68352	-4.68106	-1.21423	-1.92657	-2.17444	-15.7184	-0.029783	-0.320305
0.4153	-8.87116	7.44405	-12.7032	-9.57187	-2.42847	-2.23307	-2.77845	-0.147959	-0.938164	0
0.4160	-4.89443	5.31718	-14.8402	-3.15567	0	0.525428	-0.0483208	28.5386	0.282938	0
0.4167	0.917706	-8.11925	-12.092	7.52212	1.48406	1.75143	1.78787	41.6547	0.580768	0
0.4173	-1.22361	-18.7874	-11.4831	16.0643	0.876947	0.831927	0.869775	44.405	-0.640334	0
0.4180	-7.64755	-11.4784	-16.0603	13.3186	-1.21423	-0.70057	-1.57043	63.6309	-2.47199	0
0.4187	-12.7867	-3.22407	-20.3318	4.16624	-2.15864	-1.62007	-2.77845	87.7395	-2.15927	-0.320305
0.4193	-11.0125	-1.70487	-14.5346	1.72561	0	-0.394071	0.265765	76.4511	-0.327613	-0.320305
0.4200	-7.34165	1.3504	3.77638	3.55608	0.876947	-0.394071	1.78787	21.5149	0.282938	0
0.4207	-5.50624	5.92486	19.3415	4.7764	-0.337287	-1.31357	0.57985	-34.6397	-0.327613	0
0.4213	-5.50624	6.2287	15.0676	6.60688	-2.15864	-2.23307	-2.17444	-53.8657	-1.25089	-0.320305
0.4220	-6.11804	3.17343	6.21894	17.2847	-2.76576	-2.23307	-3.40662	-41.3501	-0.640334	0
0.4227	-2.44722	3.17343	10.1849	34.6837	-0.607117	-1.00707	-0.942256	-23.6473	1.19132	-0.320305
0.4233	1.22361	8.37245	14.4587	42.3107	0.876947	-0.394071	0.57985	-15.7184	1.50404	-0.960914
0.4240	3.05902	10.4993	9.57362	42.3107	0.607117	0.218928	0.265765	-12.6635	2.11459	0
0.4247	1.83541	2.86959	1.94505	38.9548	-2.15864	-1.31357	-1.86035	-10.5312	4.5568	0.64061
0.4253	-1.52951	-2.00871	-0.800763	35.2939	-3.03559	-3.15257	-3.09253	-6.25778	6.68628	0
0.4260	0.305902	1.3504	1.63943	34.6837	-0.607117	-0.70057	-0.338246	8.39013	7.60955	0
0.4267	3.97673	2.86959	3.16515	33.4634	0.876947	1.75143	1.49795	26.0929	6.999	0
0.4273	4.28263	-0.793357	1.63943	21.5558	0.607117	1.13843	0.57985	28.8432	4.24408	-0.320305
0.4280	0.305902	-6.88702	-1.412	0.810368	-1.21423	-1.62007	-1.86035	17.8508	2.11459	-0.320305
0.4287	-3.05902	-10.55	-2.63209	-7.13124	-2.42847	-2.84607	-2.77845	13.2728	2.41242	0
0.4293	-0.305902	-6.88702	-2.02086	-0.409951	0	-1.00707	-0.652331	17.8508	1.80187	-0.320305
0.4300	2.75312	-2.31255	-2.63209	5.08148	0.607117	-0.0875713	0.57985	22.7334	-2.47199	-0.320305
0.4307	1.83541	-4.76014	-4.15781	-21.7751	0	-0.70057	-0.0483208	35.8582	-7.96695	0.320305
0.4313	-1.52951	-9.94229	-7.82047	-80.0643	-1.82135	-2.23307	-2.17444	60.2714	-11.0197	0.320305
0.4320	-3.67082	-5.9755	-6.29475	-96.8532	-2.76576	-2.53957	-3.69654	69.1228	-8.87533	0
0.4327	0.305902	2.56575	-0.800763	-60.2246	-0.607117	-0.394071	-0.942256	50.8107	-2.76982	0
0.4333	3.67082	7.14022	1.63943	-29.097	0.607117	0.525428	1.18386	37.3813	1.19132	0
0.4340	3.67082	10.4993	2.8619	-18.7243	0.26983	0.218928	-0.0483208	23.656	2.11459	0
0.4347	0.305902	11.7316	1.94505	-17.5039	-1.21423	-1.62007	-2.48852	-21.8196	1.50404	0
0.4353	-3.05902	8.98013	-0.800763	-15.6735	-2.15864	-3.15257	-3.40662	-48.0605	1.19132	0.320305
0.4360	-0.305902	-2.92023	-2.02086	-10.4871	0.26983	-1.00707	-0.338246	-19.9918	2.11459	0
0.4367	0.917706	-17.8759	-0.495146	-10.4871	1.48406	0.831927	1.49795	-5.03059	1.80187	-0.320305
0.4373	-4.58853	-20.6273	1.03057	-13.5379	0.26983	0.525428	0.265765	-32.1941	-1.86144	-0.320305
0.4380	-10.7066	-15.749	-2.02086	-12.6227	-1.55152	-1.00707	-2.17444	-55.0841	-5.52474	0
0.4387	-11.9302	-11.7822	0.419334	-9.26679	-1.82135	-1.62007	-3.09253	-52.9431	-5.82257	0
0.4393	-7.03574	-7.19086	8.96475	-6.216	0	-0.394071	-0.652331	-48.3738	-4.60147	0
0.4400	-0.917706	-2.61639	7.74466	-4.07091	1.21423	0.525428	1.49795	-41.3501	-3.08254	0
0.4407	2.44722	1.3504	0.724951	-3.46075	0.26983	0.525428	1.49795	-21.2103	-1.86144	0
0.4413	0.917706	3.47727	-2.02086	-5.60584	-1.82135	-1.31357	-1.57043	-5.95316	-1.86144	0
0.4420	-2.14131	8.06861	-1.71761	-5.91092	-1.82135	-2.23307	-3.40662	-10.8358	-2.15927	-0.320305
0.4427	-0.917706	11.7316	-1.10638	-2.85059	0	-0.70057	-0.942256	-18.7646	-0.938164	0
0.4433	0.917706	8.37245	-1.412	-0.71503	0.876947	0.525428	1.18386	-16.0231	0.282938	0
0.4440	0	4.10183	-1.71761	-1.02011	0.26983	-0.394071	0.265765	-6.5624	-0.029783	0
0.4447	-3.05902	2.86959	-2.63209	-2.85059	-2.15864	-3.15257	-2.77845	1.98439	-0.640334	0
0.4453	-4.28263	0.742717	-1.71761	-1.32519	-2.15864	-3.45907	-3.09253	7.17164	-0.327613	0
0.4460	-0.611804	-2.92023	1.03057	3.251	0.26983	-1.00707	-0.0483208	11.1404	0.580768	0
0.4467	1.52951	-7.49469	0.724951	5.08148	0.876947	0.218928	0.869775	10.8358	1.19132	0
0.4473	0	-9.03077	-3.54894	5.38656	0.26983	-0.0875713	-0.0483208	6.5624	0.89349	-0.320305
0.4480	-3.05902	-7.49469	-10.5663	4.7764	-1.21423	-1.92657	-1.86035	1.37515	0.580768	-0.320305
0.4487	-5.50624	-5.67166	-15.1434	4.16624	-1.82135	-2.84607	-2.77845	-0.765904	0.580768	0
0.4493	-2.44722	-0.185679	-14.8402	10.2678	0	-1.00707	-0.652331	1.07052	0.89349	0
0.4500	1.83541	8.67629	-15.1434	21.5558	1.82135	0.525428	2.10196	-1.07052	0.89349	0
0.4507	3.05902	12.6431	-16.0603	28.2771	0.876947	0.525428	1.78787	-9.60861	0.580768	0
0.4513	-0.305902	6.2287	-15.449	29.4974	-2.15864	-1.62007	-1.86035	-21.2103	0.282938	0
0.4520	-3.05902	-0.185679	-13.0088	27.6669	-2.42847	-2.84607	-3.40662	-29.4525	-0.327613	0
0.4527	0.611804	-0.489518	-2.63209	14.5389	-0.607117	-1.00707	-0.652331	-29.7571	-0.938164	-0.320305
0.4533	3.97673	-0.489518	17.8134	1.11545	-0.337287	-0.394071	-0.338246	-14.7959	-1.54872	-1.28122
0.4540	3.97673	1.95807	29.4103	7.8272	0	-1.00707	-0.942256	19.3826	-0.029783	-0.64061
0.4547	1.22361	3.78111	21.7817	18.1999	-1.21423	-2.23307	-1.25634	57.2252	1.19132	0.320305
0.4553	-2.75312	-3.52791	12.9307	21.2507	-2.42847	-2.84607	-2.77845	89.5672	0.580768	0
0.4560	-3.05902	-10.8538	10.1849	31.938	-0.607117	-1.31357	-1.25634	110.63	1.50404	-0.64061
0.4567	-3.36492	-8.42309	7.13342	27.0567	0.607117	-0.394071	0.57985	106.356	2.11459	-0.320305
0.4573	-3.05902	-3.52791	4.082	-22.3852	0.607117	0.218928	-0.0483208	66.9905	0.580768	0
0.4580	-4.89443	-1.0972	1.63943	-58.6992	-1.21423	-1.31357	-3.09253	11.445	-0.640334	-0.320305
0.4587	-7.64755	1.04656	1.03057	-44.0554	-2.15864	-2.84607	-3.69654	-24.2565	0.282938	0
0.4593	-3.05902	5.01334	0.419334	-27.8766	0.26983	-1.00707	-0.652331	-47.1466	0.89349	0.320305
0.4600	2.75312	5.62102	-3.85219	-21.1649	1.48406	0.831927	0.869775	-55.3888	0.282938	0
0.4607	3.36492	-2.31255	-5.98914	-9.87695	0.607117	0.525428	0.869775	-36.1628	0.282938	0
0.4613	-0.305902	-14.5168	-6.29475	-4.68106	-1.82135	-2.23307	-1.86035	-17.8508	0.580768	0
0.4620	-3.67082	-19.7158	-6.29475	-2.54551	-2.15864	-2.84607	-3.40662	-9.60861	0.580768	0
0.4627	-1.22361	-18.7874	-3.54894	2.03069	0	-0.394071	-0.942256	-3.20287	1.80187	0
0.4633	0.611804	-17.8759	-2.93771	6.3018	0.876947	0.218928	0.869775	-2.28901	3.33569	0
0.4640	-0.305902	-16.9643	-4.15781	5.99672	0.607117	-0.394071	0.265765	-5.64854	2.72514	0
0.4647	-3.67082	-15.749	-3.24333	-5.91092	-1.55152	-1.31357	-1.86035	-8.08551	0.580768	0
0.4653	-5.20033	-9.94229	1.33618	-10.4871	-2.42847	-1.31357	-2.17444	-5.34392	-0.327613	-0.320305
0.4660	-0.917706	-5.67166	4.69086	3.86116	-0.337287	0.525428	0.869775	0.765904	1.19132	0
0.4667	1.52951	-11.1576	2.55628	10.5729	0.876947	1.13843	2.10196	3.20287	2.41242	0
0.4673	1.83541	-7.19086	0.419334	2.94592	0.607117	0.831927	0.869775	-0.147959	2.41242	0
0.4680	-3.36492	16.6099	-2.32648	0.810368	-1.82135	-1.92657	-2.48852	-7.47626	2.11459	0
0.4687	-12.1749	33.6924	-3.54894	5.99672	-2.42847	-2.53957	-3.69654	-9.60861	0.89349	0
0.4693	-13.7044	28.5102	-1.71761	6.91196	0	-0.394071	-0.652331	-3.81211	-1.25089	-0.320305
0.4700	-10.7066	16.6099	-0.495146	-1.32519	1.21423	0.525428	0.265765	-2.28901	-2.76982	0
0.4707	-6.72984	12.9469	0.113718	-17.1989	0.876947	0.218928	-0.0483208	-6.5624	-3.99092	0
0.4713	-5.81214	12.3392	-2.32648	-34.5884	-0.944405	-1.31357	-2.48852	-15.7184	-4.30364	0
0.4720	-6.72984	12.6431	-4.76904	-35.5132	-2.42847	-2.53957	-3.40662	-24.8745	-3.38037	0
0.4727	-2.44722	16.9137	-2.93771	-19.6395	-0.607117	-1.31357	-0.652331	-26.0929	-1.86144	0
0.4733	2.75312	15.0738	1.03057	-8.65663	1.21423	-0.0875713	0.57985	-24.8745	-0.327613	0
0.4740	6.11804	3.47727	4.69086	-5.60584	0.607117	0.218928	-0.0483208	-21.8196	1.50404	0
0.4747	4.58853	-4.4563	5.60771	-6.216	-1.82135	-1.92657	-2.48852	-11.1404	4.24408	0
0.4753	1.83541	-3.22407	6.82781	-7.74139	-2.15864	-2.23307	-3.69654	2.89825	6.38845	-0.320305
0.4760	5.50624	-1.0972	8.65914	-4.98614	0.26983	-0.394071	-0.942256	11.7497	6.999	-0.320305
0.4767	7.03574	0.11816	8.65914	-1.63027	1.48406	-0.0875713	0.869775	21.2103	7.29683	-0.320305
0.4773	3.05902	-1.0972	8.96475	-0.409951	0.876947	-0.70057	0.57985	46.5373	7.29683	0
0.4780	-2.75312	-5.36782	4.99648	-1.93535	-1.55152	-1.92657	-2.48852	74.9193	5.16735	-0.320305
0.4787	-6.11804	-3.84863	-0.495146	-4.68106	-2.42847	-1.92657	-3.09253	85.9118	6.68628	0
0.4793	-3.97673	1.04656	-1.10638	-1.32519	-0.337287	-0.394071	-0.0483208	93.8406	8.83066	0
0.4800	0	1.3504	-2.93771	4.16624	1.21423	0.525428	1.18386	90.1765	0.282938	0
0.4807	1.52951	-0.793357	-8.12609	5.08148	0.26983	-0.0875713	1.18386	32.4987	-10.707	0
0.4813	-1.83541	-3.22407	-10.2607	5.08148	-1.82135	-2.23307	-0.942256	-46.5373	-13.1492	0
0.4820	-4.89443	-1.70487	-5.68352	7.8272	-1.82135	-1.92657	-2.17444	-77.0603	-10.4092	0
0.4827	-1.83541	2.26191	-1.412	12.4034	-0.337287	-0.0875713	-0.0483208	-64.2402	-7.04368	-0.320305
0.4833	1.52951	3.78111	-1.71761	16.6745	0.26983	0.525428	0.57985	-43.1778	-5.52474	-0.960914
0.4840	1.22361	3.78111	-1.412	17.5897	0.26983	-0.394071	-0.0483208	-26.3976	-3.99092	-0.320305
0.4847	-3.67082	2.26191	-1.71761	15.1491	-2.15864	-2.53957	-2.17444	-17.2415	-2.76982	0.64061
0.4853	-5.50624	0.11816	-2.32648	8.43736	-2.76576	-2.84607	-3.09253	-12.9681	-2.47199	0
0.4860	-0.917706	1.04656	0.113718	-1.63027	-0.337287	-0.394071	-0.942256	-7.78088	-2.47199	-0.320305
0.4867	2.75312	0.438879	0.724951	-12.9277	1.21423	0.831927	1.18386	-4.42135	-2.15927	0
0.4873	2.75312	-4.15247	-2.63209	-22.3852	0.876947	0.218928	0.869775	-3.50749	-2.15927	0
0.4880	-0.917706	-7.81541	-5.98914	-19.3344	-1.21423	-2.23307	-1.86035	-6.25778	-2.15927	-0.320305
0.4887	-3.36492	-7.19086	-4.76904	-8.35155	-2.42847	-2.84607	-3.09253	-8.99937	-1.25089	-0.320305
0.4893	0	-1.40104	0.113718	-1.93535	0	-0.394071	-0.338246	-6.25778	-0.938164	0
0.4900	3.97673	3.47727	2.25066	-0.71503	1.48406	0.831927	1.49795	1.67977	-0.640334	0
0.4907	5.20033	7.14022	-1.412	-1.93535	0.607117	-0.0875713	1.18386	12.3589	0.282938	0
0.4913	1.22361	9.28397	-6.60037	-4.68106	-1.82135	-2.53957	-1.86035	21.8196	-0.029783	0
0.4920	-3.05902	8.37245	-3.54894	-5.91092	-2.42847	-3.15257	-3.40662	27.9207	-0.640334	0
0.4927	-2.14131	7.74789	2.25066	-3.46075	0.26983	-1.00707	-0.652331	37.9993	-0.029783	0
0.4933	0.611804	10.4993	0.419334	-1.32519	1.48406	0.831927	1.78787	55.6934	0.282938	0
0.4940	0.611804	12.3392	-5.07466	-2.85059	0	0.525428	0.57985	70.9505	0.282938	0
0.4947	-2.75312	1.65423	-11.4831	-4.98614	-2.42847	-1.92657	-2.48852	64.2402	-0.029783	0
0.4953	-3.36492	-15.1244	-9.6518	-4.68106	-2.42847	-2.23307	-3.09253	18.1554	-0.327613	0
0.4960	1.52951	-16.0528	0.724951	-2.54551	-0.337287	-0.0875713	-0.652331	-39.827	0.282938	-0.320305
0.4967	5.81214	-5.06398	-3.24333	2.03069	0.607117	1.13843	1.18386	-55.0841	-0.029783	-0.320305
0.4973	7.03574	1.04656	-18.5005	5.99672	0	0.218928	0.57985	-39.5224	0.282938	-0.320305
0.4980	5.20033	0.11816	-24.9089	7.8272	-2.42847	-1.00707	-2.17444	-33.1079	0.282938	0
0.4987	3.36492	-0.793357	-22.4687	14.2339	-2.76576	-1.31357	-2.48852	-33.4125	-0.029783	0
0.4993	4.89443	2.56575	-14.2289	21.8609	0	-0.70057	-0.338246	-12.9681	-0.029783	-0.320305
0.5000	8.25935	8.06861	2.25066	20.9456	0.876947	-0.0875713	0.57985	30.671	0.580768	-0.320305
0.5007	10.4007	12.6431	20.5616	16.9796	-0.607117	-0.0875713	-0.0483208	59.0529	0.580768	0
0.5013	7.95345	15.3776	30.6327	12.7085	-2.42847	-2.53957	-2.48852	59.9668	0.282938	-0.320305
0.5020	3.67082	16.6099	35.8187	10.878	-2.42847	-2.84607	-3.40662	58.139	1.80187	-0.320305
0.5027	1.52951	12.9469	30.0215	14.5389	-0.607117	-0.70057	-0.652331	54.1703	4.24408	0
0.5033	0.917706	3.47727	13.2363	16.0643	1.21423	0.525428	0.869775	49.2876	3.63352	0
0.5040	-0.917706	-5.06398	-1.71761	13.3186	0.607117	-0.394071	-0.0483208	52.9518	0.282938	0
0.5047	-4.89443	-9.63845	-14.2289	3.55608	-1.82135	-2.53957	-2.17444	9.61731	-3.38037	0
0.5053	-6.72984	-8.42309	-13.3145	-15.6735	-1.82135	-2.23307	-2.48852	-75.8332	-5.52474	-0.320305
0.5060	-4.58853	-2.92023	-6.29475	-25.436	0.607117	0.525428	-0.652331	-85.2938	-3.38037	0
0.5067	-2.75312	0.11816	-10.2607	-15.9785	1.48406	0.831927	0.869775	-20.6011	-0.029783	0
0.5073	-3.67082	-2.00871	-18.1972	-5.91092	0.26983	-0.0875713	0.265765	30.671	1.19132	0
0.5080	-9.17706	-5.36782	-23.9945	-4.37599	-1.82135	-1.92657	-2.48852	56.3026	0.282938	0
0.5087	-11.6243	-7.19086	-11.1775	-1.93535	-1.55152	-2.53957	-3.09253	63.9355	0.580768	0
0.5093	-5.20033	-15.749	24.8331	1.42053	0.26983	-1.00707	-0.652331	28.2253	1.50404	0
0.5100	0.611804	-23.6826	46.1955	-0.104871	1.48406	0.831927	1.49795	-55.998	1.80187	0
0.5107	0.611804	-15.749	39.4814	-1.63027	1.21423	1.44493	0.57985	-116.426	1.19132	0
0.5113	-5.50624	-4.4563	25.1387	-2.85059	-1.82135	-1.62007	-2.17444	-106.052	-0.327613	0
0.5120	-10.0948	1.3504	6.52219	-3.15567	-2.42847	-2.84607	-3.09253	-83.1615	-0.938164	0
0.5127	-6.42394	8.37245	-6.29475	-0.409951	-0.607117	-1.00707	-0.942256	-81.325	-0.938164	-0.320305
0.5133	0	12.0354	-4.76904	2.03069	0.26983	0.525428	-0.338246	-68.2089	-0.640334	-0.64061
0.5140	2.44722	8.06861	-0.495146	2.03069	0.26983	0.218928	-0.652331	-43.4824	-0.029783	0.320305
0.5147	-1.52951	0.438879	-0.495146	-0.409951	-1.55152	-1.92657	-2.48852	-25.7883	-0.640334	0.320305
0.5153	-5.81214	-5.9755	-0.800763	-0.104871	-2.15864	-2.23307	-3.09253	-12.3589	0.580768	0
0.5160	-6.42394	-12.3899	0.724951	2.64085	0	0.218928	-0.338246	-5.03059	3.02297	0
0.5167	-5.81214	-12.6937	1.03057	2.94592	1.21423	0.525428	1.18386	-6.5624	2.11459	0
0.5173	-6.11804	-7.19086	-2.63209	1.42053	0.26983	-0.70057	0.265765	-0.765904	-0.327613	-0.320305
0.5180	-7.03574	-6.27934	-9.6518	-0.71503	-1.82135	-1.62007	-1.86035	2.28901	-1.25089	0
0.5187	-5.50624	-8.42309	-16.3659	-0.71503	-1.55152	-1.92657	-2.17444	-6.86702	-0.327613	0
0.5193	-1.52951	-7.49469	-19.4173	0.810368	0.607117	-1.00707	0.265765	1.07052	2.11459	0
0.5200	2.44722	-4.4563	-19.4173	2.03069	1.21423	0.525428	2.39188	27.0068	3.63352	0
0.5207	2.75312	-2.00871	-18.8061	1.11545	0.26983	0.831927	1.18386	45.3189	3.33569	0
0.5213	-1.22361	-2.00871	-20.943	-1.02011	-1.82135	-1.62007	-2.48852	61.4899	1.80187	-0.320305
0.5220	-4.58853	-0.793357	-15.1434	0.200208	-2.15864	-2.23307	-3.09253	82.8568	1.50404	0
0.5227	-1.83541	4.40566	8.0479	3.55608	0.26983	-0.394071	0.57985	53.2564	1.19132	0.320305
0.5233	1.22361	8.37245	26.0532	3.86116	1.48406	0.525428	2.10196	-31.5848	0.580768	0
0.5240	0	8.67629	24.2243	2.33577	0.26983	0.525428	0.869775	-69.1228	0.580768	0
0.5247	-4.28263	7.14022	14.762	0.505288	-1.82135	-1.00707	-0.942256	-37.9906	0.580768	0
0.5253	-7.34165	1.3504	7.13342	-0.409951	-1.82135	-2.23307	-1.86035	-3.50749	0.282938	0
0.5260	-5.50624	-4.4563	3.77638	1.72561	0.26983	-0.394071	-0.338246	17.2415	0.580768	0
0.5267	-1.52951	-3.52791	3.16515	3.55608	1.48406	0.831927	1.18386	13.5774	0.89349	-0.320305
0.5273	0.611804	-3.22407	1.63943	2.64085	0.607117	-0.0875713	0.57985	-32.1941	0.89349	-0.320305
0.5280	-2.44722	-5.67166	-2.93771	-0.104871	-1.82135	-2.23307	-2.17444	-71.5598	0.282938	-0.320305
0.5287	-6.72984	-2.61639	-5.3779	-0.71503	-2.76576	-3.45907	-4.30055	-60.8806	-0.327613	-0.64061
0.5293	-5.81214	4.7095	-2.32648	2.33577	0	-1.00707	-0.942256	-30.0617	0.282938	0.320305
0.5300	-2.44722	5.01334	-0.191899	3.55608	1.82135	0.831927	1.78787	-11.1404	1.19132	0.64061
0.5307	-1.83541	0.438879	-0.191899	1.72561	0.26983	-0.0875713	-0.0483208	-8.39013	0.282938	-0.320305
0.5313	-4.28263	-1.40104	-0.495146	-0.104871	-1.82135	-1.31357	-2.77845	-21.2103	-0.640334	-0.320305
0.5320	-6.72984	-1.40104	-0.495146	-0.71503	-2.15864	-1.62007	-2.77845	-32.8033	-0.640334	0
0.5327	-4.89443	-0.185679	1.03057	1.42053	-0.337287	0.218928	-0.338246	-24.8745	-0.029783	0
0.5333	-0.917706	2.26191	2.8619	3.251	1.21423	1.13843	1.18386	-10.2266	0.282938	-0.320305
0.5340	-1.22361	3.17343	2.8619	1.42053	-0.337287	-0.70057	-0.0483208	-2.89825	0.282938	-0.320305
0.5347	-5.81214	2.86959	0.724951	-1.02011	-2.15864	-2.84607	-2.48852	-1.07052	-0.029783	0
0.5353	-7.64755	4.10183	-0.495146	-1.02011	-2.15864	-2.84607	-3.40662	1.07052	-0.327613	0
0.5360	-4.28263	6.53254	1.94505	1.42053	-0.607117	-0.70057	-0.942256	5.95316	-0.029783	0
0.5367	0	5.92486	3.77638	2.64085	0.876947	0.525428	1.18386	6.5624	0.282938	-0.320305
0.5373	0.305902	4.10183	1.33618	1.42053	0	-0.70057	0.57985	-2.28901	0.282938	-0.320305
0.5380	-2.75312	2.86959	-2.02086	-0.71503	-2.15864	-2.53957	-2.17444	-8.99937	-0.327613	0
0.5387	-2.44722	-0.489518	-3.85219	-1.02011	-2.15864	-1.62007	-2.77845	-6.5624	-0.640334	-0.320305
0.5393	1.83541	-3.84863	-3.24333	1.42053	0	0.525428	-0.338246	-1.37515	0.282938	0
0.5400	6.42394	-3.22407	-0.800763	2.33577	1.48406	0.525428	2.10196	1.07052	0.89349	0.320305
0.5407	8.87116	-1.70487	0.419334	1.11545	0.26983	-0.0875713	0.869775	1.07052	0.580768	0
0.5413	6.42394	-0.489518	-0.495146	-1.63027	-2.42847	-2.53957	-2.77845	-1.37515	-0.640334	0
0.5420	4.58853	2.86959	-0.800763	-2.24043	-2.42847	-2.84607	-3.09253	-1.98439	-0.938164	0.320305
0.5427	9.17706	4.7095	1.33618	-0.409951	-0.607117	-1.00707	-0.338246	0.461283	-0.327613	0
0.5433	12.542	2.86959	1.94505	1.11545	0	0.218928	0.869775	1.07052	-0.640334	-0.960914
0.5440	9.48296	2.56575	0.419334	1.72561	0	-0.0875713	0.265765	1.98439	-0.327613	0
0.5447	2.75312	2.26191	-2.93771	-1.02011	-1.55152	-1.92657	-1.57043	5.64854	0.282938	0.64061
0.5453	-1.52951	0.11816	-5.98914	-2.54551	-2.15864	-2.84607	-3.09253	13.2728	-0.640334	0
0.5460	0.611804	-0.793357	-5.07466	0.200208	0.26983	-1.00707	-0.942256	20.6011	-0.640334	0
0.5467	3.97673	-1.0972	-2.63209	1.42053	1.82135	-0.0875713	1.49795	20.9057	0.282938	0.320305
0.5473	4.58853	-1.70487	-2.32648	0.505288	0.607117	-1.00707	0.869775	16.0231	0.282938	0
0.5480	0.917706	-3.22407	-3.85219	-0.71503	-1.82135	-1.92657	-2.17444	10.5312	-0.640334	0
0.5487	-3.97673	-2.92023	-4.76904	-1.02011	-1.82135	-1.92657	-3.09253	8.99937	-0.640334	0
0.5493	-4.89443	0.742717	-5.07466	0.810368	0.607117	-0.0875713	-0.652331	8.39013	-0.029783	0.320305
0.5500	-3.67082	2.56575	-5.98914	1.72561	1.21423	0.218928	0.869775	3.81211	0.580768	0.320305
0.5507	-3.67082	1.65423	-5.07466	0.810368	-0.607117	-1.00707	-0.338246	-0.765904	1.19132	0
0.5513	-5.81214	1.65423	-5.07466	-1.02011	-3.03559	-2.23307	-2.48852	-1.98439	2.41242	0
0.5520	-7.64755	3.78111	-6.29475	-1.32519	-2.76576	-1.92657	-3.09253	1.37515	5.46518	0.320305
0.5527	-6.72984	5.62102	-4.46342	1.11545	0.26983	-0.0875713	-0.338246	7.17164	8.22011	0
0.5533	-3.97673	5.31718	-2.93771	2.64085	1.82135	0.831927	1.18386	9.61731	7.90738	-0.320305
0.5540	-3.36492	6.2287	-3.54894	1.11545	0.26983	0.218928	0.265765	8.08551	6.999	-0.320305
0.5547	-5.50624	6.53254	-4.15781	-0.71503	-2.15864	-1.62007	-1.86035	1.37515	6.38845	0
0.5553	-6.11804	-1.0972	-3.24333	-1.32519	-2.42847	-2.84607	-2.77845	-2.59363	6.07573	0
0.5560	-2.75312	-7.49469	-0.191899	0.810368	0	-1.00707	-0.338246	1.98439	9.12849	0.320305
0.5567	1.83541	-6.58318	1.33618	2.03069	1.48406	0.218928	2.10196	5.95316	4.5568	0.320305
0.5573	1.83541	-4.15247	-0.495146	-0.409951	0.607117	-0.394071	0.265765	4.43006	-12.5386	0.320305
0.5580	-3.67082	-3.52791	-3.24333	-3.76583	-2.42847	-1.92657	-3.69654	1.07052	-20.1631	0.320305
0.5587	-7.03574	-2.61639	-1.71761	-3.15567	-2.42847	-1.92657	-3.40662	1.67977	-12.8365	0
0.5593	-2.14131	-0.489518	2.8619	0.200208	0.876947	0.525428	0.265765	9.92193	-6.43313	-0.320305
0.5600	2.75312	-0.793357	4.082	1.42053	1.48406	2.05792	1.49795	23.3427	-3.99092	-0.320305
0.5607	1.22361	-3.52791	1.33618	-0.409951	0	0.525428	0.265765	33.7259	-2.47199	0
0.5613	-3.97673	-5.67166	-3.24333	-1.93535	-1.21423	-1.31357	-1.57043	29.4525	-3.08254	0
0.5620	-8.56525	-5.06398	-7.51485	1.11545	-2.15864	-1.92657	-2.77845	17.5462	-4.30364	0
0.5627	-7.95345	-1.40104	-4.76904	7.52212	-0.337287	-0.394071	-0.338246	14.8046	-3.69309	0
0.5633	-3.36492	0.742717	3.47076	9.96276	1.82135	0.525428	2.10196	13.2728	-3.08254	0
0.5640	-0.305902	1.3504	4.69086	7.52212	0.607117	-0.0875713	1.18386	3.50749	-3.38037	0
0.5647	-0.917706	1.65423	-1.10638	5.38656	-1.55152	-1.62007	-1.86035	-5.95316	-3.38037	0
0.5653	-2.14131	1.95807	-3.54894	4.7764	-2.15864	-2.23307	-3.09253	-4.72597	-3.99092	0
0.5660	0.611804	4.40566	-1.412	6.3018	-0.337287	-0.0875713	-0.652331	2.28901	-3.08254	-0.320305
0.5667	3.97673	5.62102	-1.10638	4.7764	0.876947	0.831927	1.78787	4.11673	-0.938164	0
0.5673	3.36492	3.47727	-3.24333	0.810368	0.26983	-0.394071	0.869775	-0.147959	-0.327613	-0.320305
0.5680	0.917706	1.04656	-5.68352	-0.104871	-1.82135	-1.92657	-2.17444	0.765904	-0.640334	-0.64061
0.5687	0.305902	2.86959	-6.29475	-6.216	-2.15864	-1.62007	-2.48852	5.0393	-1.54872	0
0.5693	3.67082	5.62102	-5.07466	-17.1989	0.26983	-0.0875713	0.57985	3.81211	-0.640334	0
0.5700	6.42394	0.742717	-5.68352	-14.1481	1.21423	0.218928	1.78787	-0.461283	2.11459	-0.320305
0.5707	5.50624	-7.81541	-5.98914	-5.60584	0.26983	-0.394071	0.265765	-2.59363	3.02297	-0.320305
0.5713	3.05902	-11.1576	-3.24333	-4.98614	-1.82135	-1.92657	-2.48852	-9.60861	1.50404	-0.320305
0.5720	2.14131	-8.42309	-2.32648	-3.76583	-2.76576	-2.84607	-3.69654	-14.1866	0.89349	0
0.5727	5.81214	-0.793357	-3.24333	0.810368	0	-1.00707	-0.652331	8.08551	1.50404	0
0.5733	7.03574	4.40566	-6.90362	3.251	0.26983	-0.0875713	0.265765	41.0455	0.580768	-0.64061
0.5740	3.67082	6.83638	-9.6518	2.64085	-1.21423	0.218928	-1.57043	49.2876	-0.327613	-0.320305
0.5747	-0.917706	9.89165	-3.85219	-2.85059	-2.15864	-0.70057	-2.77845	42.264	-0.640334	0.64061
0.5753	-3.05902	12.0354	8.0479	-6.216	-2.42847	-1.92657	-3.40662	40.1316	-0.938164	0.320305
0.5760	2.44722	17.8252	15.3732	-1.02011	0	-0.0875713	-0.652331	50.5061	-0.029783	-0.320305
0.5767	8.56525	21.792	13.8475	3.251	1.48406	1.13843	1.18386	81.0291	0.89349	-0.320305
0.5773	7.95345	11.107	10.4905	2.33577	-0.337287	0.218928	-0.338246	92.6221	0.89349	0
0.5780	3.05902	-7.19086	7.43904	-0.104871	-2.15864	-0.0875713	-2.77845	62.4124	0.580768	0
0.5787	-2.44722	-11.4784	1.63943	-0.104871	-1.82135	-0.70057	-3.09253	42.5686	0.580768	-0.320305
0.5793	-3.05902	0.742717	-2.32648	2.03069	0.26983	-0.70057	-1.25634	53.561	0.89349	-0.320305
0.5800	-1.52951	8.67629	-1.10638	2.64085	1.21423	0.525428	1.49795	68.2089	0.89349	0
0.5807	-2.75312	2.56575	1.33618	0.200208	0.26983	-0.0875713	1.49795	63.0217	1.50404	0.320305
0.5813	-6.42394	-3.84863	-0.191899	-6.216	-1.82135	-3.15257	-0.942256	5.34392	0.89349	0.320305
0.5820	-5.81214	-5.06398	-1.71761	-11.0973	-1.82135	-3.15257	-2.17444	-71.5598	-0.029783	0
0.5827	0	-8.11925	-2.93771	-8.35155	0	-1.31357	-0.338246	-81.325	0.89349	-0.320305
0.5833	5.20033	-7.81541	-10.8719	-2.54551	0.876947	0.218928	1.18386	-37.3813	1.80187	0
0.5840	7.95345	-6.88702	-20.3318	-0.409951	0.607117	-0.0875713	0.57985	1.98439	1.19132	0
0.5847	1.83541	-14.2129	-23.3832	-3.46075	-1.82135	-2.53957	-2.48852	36.7721	-0.029783	-0.320305
0.5853	-5.81214	-22.7542	-23.9945	-6.216	-1.82135	-3.15257	-2.77845	71.8731	-0.938164	0
0.5860	-5.50624	-25.5056	-23.08	-4.07091	0.607117	-1.92657	0.57985	95.677	-0.029783	0
0.5867	-2.44722	-18.1797	-15.7547	-2.24043	1.48406	-1.62007	2.70597	66.6858	0.580768	0
0.5873	-1.83541	-7.81541	-6.90362	-1.02011	0.607117	-1.92657	1.78787	-41.3501	-0.640334	0
0.5880	-7.34165	-9.33461	-1.71761	-0.409951	-1.55152	-4.07206	-1.25634	-138.698	-0.938164	0
0.5887	-12.7867	-16.9643	8.0479	1.11545	-1.82135	-4.37856	-2.17444	-147.245	-0.327613	0.320305
0.5893	-9.48296	-9.33461	15.3732	5.38656	0.607117	-1.31357	-0.338246	-122.527	0.282938	0.320305
0.5900	-3.67082	-1.70487	7.13342	11.7932	1.82135	1.44493	0.869775	-107.575	0.282938	0
0.5907	-1.52951	-34.9752	-4.76904	3.251	0.607117	2.05792	-0.338246	-75.8332	1.19132	0
0.5913	-4.58853	-63.6543	-9.34618	-19.6395	-1.82135	-0.394071	-3.69654	-28.8345	1.50404	0.320305
0.5920	-5.50624	-24.2902	-10.8719	-23.3005	-2.15864	-1.62007	-4.61464	3.50749	0.282938	0
0.5927	-2.44722	26.9741	-10.8719	-8.35155	0	-0.0875713	-1.86035	14.1953	-0.938164	-0.320305
0.5933	0	34.6039	-2.32648	5.69164	1.82135	0.831927	0.57985	30.9756	-1.86144	0
0.5940	0.611804	22.7035	5.60771	10.5729	0.876947	-0.394071	-0.0483208	36.1628	-1.86144	0
0.5947	-4.89443	17.8252	5.60771	3.86116	-2.15864	-3.15257	-3.40662	-12.6635	-2.47199	0
0.5953	-10.0948	16.9137	21.7817	-0.71503	-2.76576	-3.15257	-3.69654	-61.7945	-1.86144	0.320305
0.5960	-7.34165	8.37245	40.7039	3.55608	-0.944405	-1.00707	-1.86035	-69.1228	-0.327613	0
0.5967	-3.67082	-1.0972	33.9898	6.3018	-0.337287	-0.394071	-1.57043	-67.9043	0.282938	-0.320305
0.5973	-1.83541	-5.06398	20.8672	2.33577	-0.337287	-0.394071	-1.86035	-68.8182	-0.640334	0
0.5980	-2.75312	-6.58318	13.8475	-6.82616	-1.82135	-1.00707	-3.40662	-68.2089	-1.54872	0
0.5987	-4.28263	-1.70487	6.82781	-10.182	-1.55152	-1.00707	-2.77845	-65.154	1.80187	0.320305
0.5993	-1.83541	2.56575	-0.800763	-4.37599	0.876947	-0.0875713	0.869775	-57.5211	7.90738	0.320305
0.6000	0.611804	3.17343	-5.3779	1.11545	1.82135	1.75143	2.70597	-44.7096	10.3496	0.320305
0.6007	0.611804	8.67629	-6.60037	1.11545	1.21423	2.97742	2.39188	-28.5299	8.51793	0
0.6013	-2.44722	14.7699	-5.68352	-1.63027	-2.15864	1.13843	-0.652331	-17.2415	6.07573	0
0.6020	-4.89443	20.5766	0.113718	-0.409951	-2.15864	0.831927	-1.25634	-7.78088	3.33569	0
0.6027	-3.67082	26.0626	8.65914	4.16624	0.876947	2.36442	0.869775	9.31269	3.02297	0
0.6033	-2.75312	25.7588	15.3732	6.3018	1.21423	1.75143	0.57985	28.8432	4.85463	-0.960914
0.6040	-1.22361	17.5214	19.6448	6.3018	0.26983	1.13843	-1.57043	35.249	0.282938	-0.320305
0.6047	-1.52951	3.17343	17.8134	2.03069	-2.15864	-0.70057	-3.09253	28.5386	-10.707	0.64061
0.6053	-2.14131	-7.19086	6.52219	-1.93535	-2.42847	-1.92657	-2.77845	25.1791	-14.9808	0.320305
0.6060	0.917706	-8.42309	-8.4317	-0.71503	-0.337287	-0.70057	1.18386	26.7022	-10.707	0
0.6067	2.75312	-7.81541	-16.0603	0.810368	1.21423	0.525428	3.62406	32.1941	-5.21202	0
0.6073	2.44722	-9.03077	-13.9233	-0.409951	0.607117	0.218928	2.10196	45.3189	-3.08254	0
0.6080	-0.611804	-10.2461	-10.2607	-3.46075	-2.15864	-1.62007	-1.25634	32.8033	-1.86144	0
0.6087	-0.611804	-9.63845	-6.90362	-3.46075	-2.15864	-2.23307	-2.17444	-16.9369	-0.640334	0
0.6093	5.20033	-5.06398	3.16515	-1.02011	0.26983	-0.0875713	-0.338246	-43.4824	-0.938164	-0.320305
0.6100	8.25935	1.04656	17.2046	-0.104871	0.876947	1.44493	0.869775	-24.2565	-2.15927	0
0.6107	5.81214	5.62102	16.2877	-1.02011	-0.337287	0.218928	0.265765	0.461283	-2.76982	0.320305
0.6113	-0.611804	8.06861	1.33618	-2.85059	-2.15864	-2.53957	-2.48852	6.86702	-2.76982	0
0.6120	-5.50624	8.06861	-5.68352	-2.54551	-1.82135	-2.84607	-2.48852	-6.86702	-1.25089	0
0.6127	-6.11804	6.2287	-7.51485	-0.104871	0	-1.00707	0.265765	-26.0929	1.19132	0
0.6133	-4.58853	6.53254	-11.1775	1.42053	0.26983	-0.0875713	1.18386	-28.2253	2.11459	0.320305
0.6140	-1.52951	8.37245	-2.63209	1.11545	0.26983	-0.0875713	0.265765	-21.2103	1.19132	0.320305
0.6147	-3.36492	5.62102	10.7961	-0.71503	-1.21423	-1.92657	-2.17444	-15.7184	0.282938	0
0.6153	-5.50624	1.04656	11.4049	-1.32519	-1.82135	-2.23307	-2.77845	-3.20287	-0.029783	-0.320305
0.6160	-1.22361	-0.793357	6.21894	-1.02011	0.607117	-0.70057	-0.0483208	11.1404	0.580768	0
0.6167	0.611804	-3.22407	1.94505	-1.63027	1.21423	-0.0875713	1.78787	15.1092	0.89349	0
0.6173	-3.05902	-5.67166	-0.495146	-3.46075	-0.607117	-1.00707	0.57985	6.25778	1.50404	0
0.6180	-8.25935	-5.9755	-0.191899	-5.91092	-3.37287	-3.15257	-2.48852	-7.78088	0.89349	-0.320305
0.6187	-8.56525	-5.06398	1.94505	-4.98614	-2.76576	-2.23307	-2.77845	-4.42135	0.580768	-0.320305
0.6193	-3.05902	-2.92023	2.8619	-1.63027	0	0.218928	-0.338246	12.0543	2.11459	-0.320305
0.6200	1.52951	-1.0972	0.113718	1.42053	1.21423	-0.394071	1.49795	15.7184	3.63352	0
0.6207	1.52951	-1.40104	-4.46342	-0.71503	0.26983	-1.31357	-0.0483208	7.78088	1.80187	0
0.6213	-2.44722	-1.70487	-8.4317	-7.43631	-2.15864	-1.92657	-2.77845	4.73468	-1.54872	0.320305
0.6220	-4.89443	1.04656	-7.20924	-7.74139	-2.15864	-1.62007	-2.48852	8.39013	-2.47199	0
0.6227	-2.14131	1.95807	-4.76904	-0.71503	0.607117	-0.0875713	0.57985	9.92193	-1.25089	0
0.6233	0.917706	-0.489518	-4.76904	3.251	1.82135	0.218928	2.39188	6.5624	-0.327613	0
0.6240	1.22361	-1.0972	2.25066	3.55608	0	-0.394071	0.57985	2.89825	-0.327613	0
0.6247	-2.44722	-1.70487	12.0162	7.52212	-2.76576	-2.23307	-2.77845	0.156662	-0.640334	0
0.6253	-4.58853	-1.70487	8.35352	10.878	-1.82135	-2.23307	-2.77845	0.461283	-0.938164	0
0.6260	-1.52951	0.742717	0.419334	5.38656	0.876947	0.525428	0.265765	3.50749	-0.938164	0
0.6267	1.22361	2.56575	-0.800763	0.505288	1.82135	1.13843	2.10196	5.95316	-1.54872	-0.320305
0.6273	1.22361	1.3504	-1.71761	-0.104871	0.607117	-0.70057	0.869775	5.64854	-2.15927	0
0.6280	-1.83541	-0.489518	-3.54894	-2.54551	-2.15864	-1.92657	-2.48852	3.81211	-2.15927	0
0.6287	-3.67082	0.11816	-3.24333	-4.07091	-2.15864	-1.62007	-3.40662	2.89825	-2.15927	0
0.6293	0	2.56575	-0.800763	-2.24043	0.607117	-0.394071	-0.338246	5.95316	-1.86144	-0.320305
0.6300	3.36492	3.17343	0.724951	-1.32519	1.48406	0.525428	0.869775	9.31269	-1.54872	-0.320305
0.6307	2.44722	2.26191	-0.495146	-2.54551	0.26983	-0.0875713	-0.338246	10.5312	0.282938	0.320305
0.6313	-3.05902	0.11816	-3.54894	-4.37599	-2.15864	-2.84607	-3.09253	9.31269	2.11459	0
0.6320	-6.42394	-1.70487	-3.85219	-2.54551	-3.03559	-3.45907	-4.30055	8.99937	2.11459	-0.64061
0.6327	-1.83541	0.438879	-0.495146	0.810368	0.26983	0.218928	-1.25634	12.6635	1.19132	0.320305
0.6333	0.611804	1.95807	-0.495146	3.251	1.82135	1.75143	0.869775	19.078	0.89349	0.320305
0.6340	-2.14131	-0.185679	-4.15781	6.60688	0.26983	-0.0875713	0.265765	24.2652	2.11459	-0.320305
0.6347	-5.81214	-1.40104	-6.90362	4.16624	-1.55152	-2.23307	-1.86035	19.6872	3.02297	0
0.6353	-7.03574	0.742717	-6.90362	-0.409951	-2.42847	-2.53957	-2.48852	3.20287	1.80187	0.320305
0.6360	-3.97673	4.10183	-3.85219	0.810368	-0.337287	-1.00707	0.265765	-8.69475	2.72514	0
0.6367	-1.22361	5.31718	-2.63209	1.42053	0.876947	-0.0875713	1.18386	-7.17164	5.7779	0
0.6373	-0.611804	4.40566	-3.54894	0.505288	0	0.525428	-0.652331	-1.98439	6.68628	0
0.6380	-2.44722	0.438879	-5.3779	-1.02011	-2.42847	-1.00707	-3.40662	-3.20287	5.46518	0
0.6387	-3.36492	-1.40104	-4.76904	-0.71503	-2.42847	-2.53957	-3.69654	-5.64854	3.33569	-0.960914
0.6393	1.83541	4.40566	-2.02086	1.72561	0.26983	-0.70057	-0.338246	-4.11673	2.41242	-0.960914
0.6400	6.42394	5.01334	-0.495146	2.64085	1.21423	0.525428	1.78787	-1.37515	2.11459	0.320305
0.6407	6.11804	-3.84863	-1.10638	1.11545	0.26983	0.218928	0.869775	0.765904	0.89349	0.320305
0.6413	1.22361	-9.63845	-2.63209	-2.54551	-2.15864	-1.31357	-2.48852	4.43006	-0.938164	0
0.6420	-3.05902	-6.88702	-1.71761	-3.15567	-1.82135	-1.31357	-3.09253	19.6872	-3.08254	-0.320305
0.6427	-1.22361	-0.793357	0.419334	-0.104871	0.607117	0.218928	-0.338246	42.5686	-3.08254	0
0.6433	0.917706	1.3504	0.419334	0.200208	1.21423	0.831927	0.57985	55.0841	-1.25089	0
0.6440	1.52951	-0.489518	-1.412	-0.409951	0	-0.0875713	-0.338246	64.2402	-0.029783	0.320305
0.6447	-2.14131	-2.31255	-4.15781	-2.85059	-2.42847	-2.23307	-3.09253	67.2951	-0.938164	0
0.6453	-4.89443	-2.00871	-3.85219	-5.60584	-2.42847	-1.92657	-4.01063	48.0692	-1.54872	0
0.6460	-1.52951	1.3504	-1.71761	0.505288	0	0.218928	-1.86035	21.2103	0.580768	0
0.6467	0.917706	2.56575	-1.71761	5.99672	0.607117	0.218928	-0.338246	-3.20287	1.50404	0.320305
0.6473	1.83541	-1.70487	-2.32648	4.47132	-0.337287	-0.394071	0.265765	-40.1316	-1.54872	0.320305
0.6480	0.917706	-3.84863	-3.54894	3.55608	-1.82135	-2.23307	-0.942256	-70.3413	-4.60147	0.320305
0.6487	-0.611804	-0.793357	-2.63209	10.878	-1.55152	-2.23307	-0.338246	-60.2714	-5.52474	0
0.6493	1.83541	1.04656	-0.800763	18.8101	0.26983	-0.0875713	2.10196	-33.7172	-4.30364	0
0.6500	3.97673	0.11816	-1.10638	22.471	0.876947	0.525428	2.10196	-21.2103	-2.47199	0.320305
0.6507	3.67082	-0.489518	-1.412	24.3015	0.26983	-0.0875713	1.18386	-16.3277	-0.938164	0
0.6513	-0.917706	-0.185679	-3.54894	22.7761	-2.15864	-2.23307	-2.17444	-13.2728	-0.327613	0
0.6520	-3.67082	1.65423	-3.24333	19.7253	-2.42847	-2.23307	-3.40662	-9.91323	-0.640334	0.320305
0.6527	0.305902	2.26191	0.113718	11.7932	0.26983	0.831927	0.265765	-4.72597	-1.25089	0
0.6533	2.75312	0.11816	1.03057	-3.46075	1.21423	1.13843	2.70597	3.81211	-2.15927	0
0.6540	2.75312	-1.70487	0.419334	-16.5887	-0.337287	-0.394071	2.70597	8.39013	-3.69309	0
0.6547	-0.917706	-2.31255	-1.10638	-22.6903	-2.76576	-2.23307	0.265765	3.20287	-4.30364	0
0.6553	-3.36492	-0.793357	-0.495146	-19.3344	-2.15864	-1.62007	-0.942256	0.156662	-3.38037	0
0.6560	-1.22361	0.11816	0.724951	-12.9277	0.607117	0.831927	0.57985	1.98439	-1.54872	0
0.6567	-0.917706	-3.52791	0.113718	-4.98614	0.607117	1.13843	1.49795	1.67977	0.282938	0
0.6573	-4.89443	-8.42309	-1.10638	5.99672	-0.607117	-0.0875713	0.265765	-0.147959	0.89349	-0.320305
0.6580	-11.3184	-11.1576	-3.85219	11.1831	-2.42847	-2.53957	-3.09253	-1.37515	0.282938	-0.320305
0.6587	-13.0926	-9.94229	-3.54894	13.9288	-1.82135	-2.53957	-3.09253	-0.461283	-0.029783	0
0.6593	-7.03574	-8.72693	-0.495146	17.8948	0.607117	-0.394071	0.265765	1.98439	1.19132	0
0.6600	-2.14131	-8.72693	-0.191899	20.0304	1.21423	0.525428	1.18386	2.89825	1.50404	-0.320305
0.6607	-2.14131	-9.33461	-1.10638	20.3355	0.607117	0.218928	0.57985	2.59363	1.19132	0
0.6613	-6.42394	-11.1576	-2.63209	24.6066	-2.42847	-2.23307	-1.86035	0.156662	1.19132	0
0.6620	-8.25935	-11.4784	-2.32648	13.0136	-2.42847	-2.84607	-2.17444	-2.59363	0.89349	0
0.6627	-2.14131	-12.086	-1.10638	-35.5132	0	-0.394071	0.57985	-2.59363	-0.327613	0
0.6633	2.14131	-12.3899	-2.02086	-62.9703	0	-1.00707	1.18386	-3.20287	-1.86144	-0.64061
0.6640	2.14131	4.40566	-2.32648	-44.3605	-0.337287	-3.45907	0.265765	-3.20287	-0.938164	-0.64061
0.6647	0	25.7588	-2.63209	-33.9782	-1.21423	-4.68506	-2.17444	-2.89825	-0.327613	0.320305
0.6653	-0.917706	23.6319	-2.02086	-34.2833	-1.82135	-3.76556	-3.40662	-0.765904	-1.54872	0.64061
0.6660	3.97673	11.4108	1.03057	-23.9106	0	-1.62007	-0.652331	9.61731	-0.938164	0.320305
0.6667	9.17706	7.74789	2.25066	-12.9277	2.15864	-0.0875713	0.57985	21.8196	-0.029783	0
0.6673	8.56525	9.28397	0.113718	-7.43631	1.21423	-0.394071	-0.338246	22.1242	0.282938	-0.320305
0.6680	1.83541	6.83638	1.63943	-6.82616	-1.82135	-1.62007	-2.48852	11.1404	0.282938	0
0.6687	-1.83541	4.10183	5.91333	-6.216	-1.21423	-0.394071	-2.48852	4.43006	-0.029783	0
0.6693	2.14131	4.7095	1.94505	-2.54551	1.21423	1.75143	-0.0483208	6.25778	-0.327613	-0.320305
0.6700	3.97673	1.3504	-5.98914	-2.24043	0.876947	0.831927	-0.338246	5.95316	-0.640334	0
0.6707	3.36492	-5.9755	-8.4317	-4.07091	-0.337287	-0.70057	-2.17444	4.43006	-0.938164	0.320305
0.6713	0.611804	-9.63845	-9.04057	-0.104871	-1.82135	-2.23307	-5.21865	3.81211	-0.327613	0.320305
0.6720	-0.305902	-6.27934	-5.68352	4.16624	-1.55152	-1.31357	-5.84682	3.20287	-0.029783	0
0.6727	5.20033	0.11816	7.13342	4.7764	0.876947	0.525428	-2.77845	9.92193	0.282938	-0.320305
0.6733	7.64755	2.86959	12.9307	4.16624	1.21423	0.525428	-0.942256	29.4525	-0.029783	0
0.6740	2.75312	6.53254	1.94505	1.11545	-0.337287	-0.0875713	-1.86035	45.0142	-0.640334	0
0.6747	-4.28263	12.0354	-8.4317	-3.15567	-3.03559	-1.62007	-4.01063	42.264	-0.327613	0
0.6753	-6.72984	9.89165	-6.90362	-4.37599	-3.03559	-1.92657	-4.30055	44.7096	2.11459	0
0.6760	-3.36492	-2.00871	-0.191899	-1.32519	0	-0.394071	-1.25634	65.4587	5.46518	0
0.6767	-2.14131	-4.15247	2.25066	0.200208	0.876947	-0.0875713	-0.338246	80.1066	8.51793	-0.320305
0.6773	-4.28263	8.67629	-1.412	3.55608	-0.337287	-0.70057	-2.48852	52.6472	10.0518	-0.320305
0.6780	-6.72984	9.89165	-5.98914	15.7593	-1.21423	-1.00707	-3.09253	-10.2266	10.3496	0
0.6787	-3.97673	-2.92023	-5.3779	30.7177	-0.337287	-0.0875713	-0.942256	-31.2802	10.6474	0
0.6793	2.44722	-18.7874	-2.63209	38.3447	1.48406	2.05792	1.78787	3.50749	10.9601	0
0.6800	7.34165	-36.7983	-2.63209	39.565	2.15864	5.38563	2.70597	41.9593	11.8685	0
0.6807	8.56525	-45.3395	-4.15781	37.4295	1.48406	6.91813	1.18386	63.9355	3.63352	0
0.6813	5.81214	-43.8203	-1.71761	30.4126	-0.944405	4.46614	-2.77845	46.842	-13.7597	0
0.6820	3.05902	-45.0357	2.8619	23.3863	-1.55152	1.13843	-3.69654	5.95316	-18.6442	-0.320305
0.6827	2.44722	-47.7871	3.16515	18.505	-0.337287	1.44493	-0.942256	4.11673	-9.7986	0
0.6833	2.44722	-44.7318	8.65914	16.0643	1.21423	2.67092	1.18386	37.0767	-1.86144	0
0.6840	-0.611804	-37.7098	15.9845	14.2339	0.607117	0.525428	-0.652331	10.5312	-0.640334	0
0.6847	-7.64755	-34.9752	9.87923	4.47132	-2.15864	-5.29806	-3.09253	-96.5909	-1.54872	0
0.6853	-7.34165	-42.9088	4.99648	-19.6395	-3.03559	-7.39977	-0.942256	-150.605	-0.327613	0
0.6860	0.917706	-45.3395	10.1849	-61.1399	-0.337287	-4.68506	3.02005	-110.63	-0.029783	0
0.6867	4.89443	-5.67166	8.96475	-81.2846	1.21423	-0.70057	4.85624	-68.2089	-1.54872	0
0.6873	3.05902	59.0292	-0.800763	-53.8179	-0.337287	0.525428	3.62406	-38.5998	-1.54872	0
0.6880	-3.36492	81.3107	-5.3779	-19.0293	-2.76576	-2.23307	-0.652331	-14.4912	-1.25089	0
0.6887	-7.95345	59.6368	-3.54894	-4.07091	-1.82135	-3.45907	-1.25634	-12.3589	-1.86144	0
0.6893	-5.50624	40.4106	-4.15781	-8.35155	0.876947	-2.23307	1.18386	-16.6323	-2.47199	0
0.6900	-3.36492	35.2284	-12.3976	-23.9106	1.21423	-3.45907	1.49795	-11.7497	-2.47199	0
0.6907	-6.11804	33.9962	-26.437	-29.097	-0.944405	-6.48027	0.265765	-0.147959	-2.15927	-0.320305
0.6913	-11.6243	32.477	-35.5913	-19.3344	-3.6427	-8.31927	-3.40662	10.5312	-1.54872	-0.320305
0.6920	-13.7044	29.1179	-33.76	-8.04647	-3.37287	-7.70627	-4.01063	20.6011	-0.938164	0.320305
0.6927	-6.11804	24.5434	-27.3515	-0.71503	-0.607117	-7.09327	0.869775	28.2253	-1.25089	0
0.6933	3.05902	18.1291	-24.3001	2.64085	-0.607117	-7.70627	3.93815	34.3351	-1.54872	-1.28122
0.6940	3.67082	10.4993	-23.9945	5.08148	-0.944405	-5.29806	3.30998	57.8344	-0.640334	-0.64061
0.6947	-2.75312	-0.489518	-17.8916	4.16624	-1.55152	-1.92657	0.869775	70.0367	0.282938	0.64061
0.6953	-7.64755	-8.42309	13.2363	4.16624	-1.55152	0.525428	-0.338246	8.39013	0.89349	0.320305
0.6960	-5.50624	-2.00871	49.2469	5.69164	1.48406	4.15964	1.78787	-51.7246	3.02297	0
0.6967	-0.611804	5.62102	48.9413	-8.35155	2.76576	6.61163	2.70597	-33.1079	5.16735	-0.320305
0.6973	0.611804	10.8032	29.4103	-24.2157	0.876947	8.14413	0.869775	-11.7497	4.24408	0
0.6980	-1.22361	18.4329	20.5616	-29.097	-1.21423	8.14413	-2.48852	-16.9369	3.02297	0
0.6987	0	25.455	18.7303	-30.9274	-1.55152	6.91813	-2.77845	-6.5624	2.41242	-0.320305
0.6993	6.11804	27.2949	13.8475	-24.8259	0.26983	7.83763	0.57985	2.59363	2.41242	0
0.7000	12.8479	21.4882	7.13342	-15.9785	1.21423	8.45063	2.10196	-10.8358	5.16735	0
0.7007	15.5398	22.3997	-0.495146	-14.1481	0.26983	5.99863	1.49795	-23.3427	6.68628	-0.320305
0.7013	8.87116	24.5434	-12.7032	-15.6735	-2.15864	2.36442	-1.25634	-43.7958	-3.38037	0
0.7020	1.83541	8.67629	-20.3318	-14.4531	-3.03559	0.218928	-3.09253	-87.4349	-15.5914	0
0.7027	4.89443	-5.36782	-18.8061	-9.87695	-0.607117	0.218928	-0.652331	-103.91	-15.5914	0
0.7033	7.95345	-7.81541	-22.1631	-7.43631	1.21423	-0.70057	0.869775	-74.0054	-10.4092	0.320305
0.7040	4.89443	-19.0912	-32.5399	-5.91092	0.26983	-2.23307	-0.0483208	-22.4288	-6.43313	0.320305
0.7047	0.917706	-32.2238	-37.7283	-2.85059	-1.21423	-2.84607	-2.17444	39.827	-3.99092	0
0.7053	-0.305902	-42.605	-24.6057	3.251	-1.21423	-0.70057	-1.86035	92.0129	-1.86144	-0.320305
0.7060	2.44722	-54.2015	5.91333	9.96276	0	2.97742	1.18386	118.558	-0.938164	0
0.7067	5.81214	-54.8092	32.7673	12.7085	0.607117	3.59042	1.18386	118.254	-1.25089	0
0.7073	4.89443	-35.8868	33.9898	10.2678	-0.337287	1.75143	-1.86035	43.1865	-0.938164	0
0.7080	-2.44722	-12.9976	22.3929	6.60688	-2.42847	-0.394071	-4.92873	-79.8019	0.282938	0
0.7087	-5.81214	1.3504	30.6327	7.21704	-2.15864	0.525428	-4.01063	-131.683	1.19132	0
0.7093	-4.89443	9.28397	38.2613	9.3526	-0.337287	1.75143	-0.0483208	-101.778	0.89349	0
0.7100	-7.34165	10.8032	20.5616	9.3526	0.607117	-0.394071	0.265765	-56.6072	1.19132	-0.320305
0.7107	-10.7066	16.306	-2.63209	7.52212	-0.944405	-3.45907	-2.48852	-41.6547	1.19132	0
0.7113	-17.0693	17.2175	-11.1775	4.16624	-3.97999	-6.21756	-5.84682	-54.4749	0.282938	0
0.7120	-19.5165	8.37245	-5.98914	3.86116	-4.24982	-4.68506	-5.84682	-32.8033	0.282938	0
0.7127	-14.0103	8.37245	-1.10638	5.99672	-1.55152	1.13843	-2.48852	23.038	0.89349	0
0.7133	-8.87116	4.7095	-0.800763	6.91196	0.876947	3.85314	-1.57043	59.0529	-0.938164	0
0.7140	-8.25935	-10.8538	-0.495146	5.69164	0.607117	1.75143	-3.69654	75.8332	-3.38037	-0.320305
0.7147	-10.4007	-16.3567	-2.32648	3.55608	-1.21423	-0.394071	-6.74076	74.6147	-3.08254	-0.320305
0.7153	-10.7066	-12.6937	-3.85219	4.7764	-0.337287	0.525428	-6.45083	41.0455	0.580768	0
0.7160	-8.56525	-13.9091	-2.63209	6.60688	1.21423	1.75143	-3.40662	3.20287	2.72514	0
0.7167	-5.81214	-16.6605	1.63943	6.3018	0.876947	2.05792	-2.17444	-22.7334	2.72514	0
0.7173	-3.97673	-17.8759	9.87923	5.69164	-0.607117	-0.394071	-2.17444	-56.6072	2.41242	0
0.7180	-7.95345	-25.2018	12.9307	3.86116	-3.03559	-4.07206	-4.92873	-77.6696	1.50404	0
0.7187	-11.3184	-42.605	5.91333	3.55608	-2.76576	-3.76556	-5.84682	-63.3263	0.580768	-0.320305
0.7193	-7.95345	-56.6322	-3.85219	6.3018	0.26983	-1.00707	-2.17444	-38.2952	1.80187	0
0.7200	-3.36492	-44.1242	-13.0088	7.52212	0.607117	-0.394071	-0.338246	-23.9519	2.41242	0
0.7207	-2.75312	-3.52791	-20.3318	5.99672	-1.82135	-1.00707	-1.86035	-20.6011	1.50404	0
0.7213	-4.89443	31.5655	-23.08	2.94592	-3.03559	-3.15257	-3.09253	-19.3739	-0.029783	0.320305
0.7220	-3.97673	39.8029	-21.8575	2.94592	-2.15864	-5.91106	-1.57043	-15.1092	-0.029783	0.320305
0.7227	1.83541	36.14	-17.586	5.08148	-0.607117	-5.29806	0.265765	-9.60861	0.580768	0
0.7233	4.89443	30.3333	-13.6177	5.38656	-0.944405	-3.45907	-0.652331	-5.34392	0.580768	-0.64061
0.7240	4.28263	22.7035	-6.90362	4.47132	-1.55152	-3.45907	-3.09253	-3.20287	0.282938	-0.64061
0.7247	2.14131	17.2175	0.419334	3.55608	-1.55152	-3.45907	-4.92873	1.07052	0.580768	0.320305
0.7253	-0.611804	14.1623	-3.54894	2.94592	-1.21423	-2.84607	-3.40662	12.9681	0.282938	0.320305
0.7260	-0.305902	12.0354	-13.3145	4.16624	0.607117	-1.92657	1.18386	27.3114	-0.029783	0
0.7267	3.05902	8.67629	-13.0088	4.47132	2.42847	-0.0875713	5.14617	39.5224	0.282938	0
0.7273	1.52951	3.47727	-9.95742	2.94592	1.48406	0.831927	6.06427	61.1853	-0.029783	0
0.7280	-5.50624	-1.70487	-10.8719	0.505288	-0.607117	-0.70057	3.30998	81.0291	-0.640334	0.320305
0.7287	-8.56525	-3.52791	-5.98914	0.505288	-0.337287	-2.84607	1.49795	63.9355	-0.640334	0.320305
0.7293	-3.67082	11.4108	15.9845	3.251	2.15864	-2.23307	3.93815	33.4212	-0.640334	0
0.7300	3.67082	33.0847	42.2296	4.16624	2.42847	-0.394071	4.22807	23.038	-0.029783	0
0.7307	6.42394	33.6924	44.0585	2.33577	0.607117	-1.31357	1.49795	-18.7646	0.580768	0
0.7313	1.22361	23.0074	26.3588	1.42053	-2.15864	-4.68506	-0.652331	-76.1378	1.19132	0
0.7320	-4.28263	13.8584	14.762	3.251	-1.82135	-4.68506	0.869775	-69.1228	2.41242	0.320305
0.7327	-4.89443	-3.22407	10.1849	4.16624	-0.337287	-2.53957	4.54216	-27.3114	2.11459	-0.320305
0.7333	-3.05902	-18.4835	5.30209	4.7764	0	-1.62007	4.85624	-10.2266	1.80187	-0.64061
0.7340	-2.14131	-20.6273	1.03057	4.7764	-0.607117	-0.394071	2.10196	-19.6872	2.72514	0.320305
0.7347	-6.11804	-25.2018	-3.54894	1.11545	-2.76576	-1.62007	-2.17444	-28.5299	1.19132	0.320305
0.7353	-8.87116	-41.3727	-4.46342	-0.104871	-3.37287	-0.70057	-4.61464	-17.8508	-0.938164	-0.320305
0.7360	-4.89443	-55.4169	-1.412	2.33577	-0.944405	2.97742	-2.77845	-0.147959	-0.327613	0
0.7367	0.305902	-56.0245	-0.495146	4.47132	0.26983	4.46614	-0.338246	10.8358	0.89349	0
0.7373	0	-69.7648	-1.71761	3.55608	-1.21423	2.97742	-1.25634	16.0231	1.19132	0
0.7380	-3.97673	-114.919	-1.10638	1.11545	-3.6427	0.218928	-4.30055	15.1092	1.80187	0
0.7387	-4.58853	-139.04	0.724951	1.42053	-3.6427	-2.23307	-2.17444	14.4999	3.02297	-0.320305
0.7393	-2.75312	-76.1623	1.33618	2.94592	-1.55152	-6.21756	3.93815	16.6323	1.19132	0
0.7400	-1.52951	42.5543	0.419334	3.251	-0.944405	-8.93227	5.75018	14.1953	-2.47199	-0.320305
0.7407	-2.14131	128.912	-2.32648	2.03069	-1.55152	-10.7713	4.54216	7.47626	-4.30364	0
0.7413	-7.03574	159.735	-6.29475	-0.71503	-2.76576	-13.8363	3.30998	-1.07052	-4.30364	0.320305
0.7420	-7.64755	130.127	-6.60037	-0.409951	-1.82135	-10.7713	2.70597	-5.95316	-3.08254	0
0.7427	0.305902	56.2777	-2.02086	2.33577	1.21423	-2.53957	4.54216	-5.34392	1.19132	-0.320305
0.7433	7.03574	7.44405	1.94505	2.94592	3.03559	4.46614	6.06427	-4.42135	4.5568	0
0.7440	7.03574	2.86959	3.16515	0.810368	1.82135	8.45063	3.62406	-4.72597	4.24408	0
0.7447	2.14131	11.107	1.94505	-1.32519	-0.607117	13.0481	-0.942256	-5.03059	2.41242	-0.320305
0.7453	0.611804	23.9358	-0.191899	-1.32519	-0.944405	17.9083	-1.86035	-5.95316	3.33569	0
0.7460	3.97673	43.4659	-0.800763	1.11545	0.607117	18.8278	0.265765	-5.34392	4.5568	0
0.7467	6.11804	47.7365	-1.412	2.94592	1.48406	16.6823	0.57985	-3.50749	3.63352	0
0.7473	4.28263	16.0022	-3.54894	2.33577	-0.944405	13.0481	-1.86035	-3.20287	2.41242	-0.320305
0.7480	0.611804	-24.5941	-5.68352	0.810368	-3.37287	8.75713	-5.53274	-1.98439	1.50404	-0.320305
0.7487	0.305902	-43.5165	-5.07466	2.03069	-2.15864	7.22463	-4.92873	4.73468	3.63352	0
0.7493	3.36492	-59.3836	-3.24333	3.55608	0.26983	7.83763	-0.652331	12.6635	3.02297	0
0.7500	5.50624	-76.77	-3.24333	2.64085	1.82135	8.75713	2.10196	18.7733	-0.938164	0
0.7507	5.50624	-92.0294	-5.3779	1.42053	1.21423	9.06363	1.78787	26.3976	1.19132	0
0.7513	1.52951	-120.118	-7.82047	-1.63027	-1.82135	6.61163	-2.48852	31.2802	3.94625	0
0.7520	-2.75312	-143.918	-7.82047	-2.54551	-1.55152	5.99863	-3.69654	34.3351	3.02297	-0.320305
0.7527	-1.83541	-148.189	-5.68352	0.810368	0.876947	9.06363	-2.48852	39.2178	8.22011	-0.320305
0.7533	1.52951	-146.974	-4.76904	2.94592	1.21423	11.5156	-2.77845	44.1004	14.6234	0
0.7540	1.22361	-122.852	-7.20924	1.42053	-0.607117	7.83763	-3.40662	45.3189	6.999	-0.64061
0.7547	-4.58853	-20.3235	-11.4831	-2.24043	-3.6427	1.44493	-5.21865	41.6547	-10.707	-1.28122
0.7553	-5.20033	103.271	-9.34618	-2.54551	-3.03559	-1.92657	-5.21865	40.4362	-17.1103	-0.320305
0.7560	0.611804	125.249	-4.76904	-0.71503	-0.607117	0.525428	-1.86035	42.264	-11.6303	0.320305
0.7567	0	74.8963	-4.76904	-0.409951	-1.55152	12.4351	-1.25634	41.9593	-11.3175	-0.320305
0.7573	-5.81214	60.8522	-5.68352	-1.02011	-2.76576	22.5058	-4.01063	38.6085	-14.6681	-0.320305
0.7580	-10.4007	113.045	-7.51485	-3.15567	-4.24982	23.9945	-8.57695	32.8033	-10.4092	0
0.7587	-8.56525	135.934	-6.90362	-2.85059	-3.97999	27.366	-9.80913	27.9207	-1.86144	0
0.7593	-1.22361	77.9516	-1.71761	0.200208	-1.21423	27.6725	-5.21865	20.2964	3.94625	0
0.7600	3.05902	18.7367	3.16515	1.72561	0.607117	17.9083	-2.17444	2.59363	5.16735	0
0.7607	2.75312	0.11816	5.60771	0.810368	-0.337287	4.15964	-1.57043	-19.6872	2.72514	-0.320305
0.7613	-0.917706	13.5546	3.77638	-1.63027	-3.97999	-8.01277	-3.09253	-38.9131	-0.938164	-0.320305
0.7620	-2.44722	47.7365	2.25066	-2.24043	-3.6427	-20.5355	-2.77845	-45.0142	-1.86144	0
0.7627	0	65.1228	2.55628	-0.409951	0	-37.3054	1.78787	-39.827	-1.25089	0
0.7633	2.44722	51.0956	2.8619	-0.104871	1.21423	-50.1346	4.54216	-35.5536	-3.08254	-0.320305
0.7640	2.14131	33.9962	4.38761	-1.32519	0	-50.4411	4.22807	-36.4675	-5.82257	0
0.7647	-2.75312	25.455	4.69086	-3.46075	-1.55152	-44.3548	3.30998	-35.5536	-6.1353	0
0.7653	-5.50624	23.3281	4.38761	-3.76583	0.607117	-35.2037	8.81855	-29.7571	-4.91419	-0.320305
0.7660	-1.52951	24.8473	4.38761	-1.93535	3.97999	-26.359	17.0573	-22.7334	-2.15927	-0.320305
0.7667	1.52951	23.3281	3.77638	-1.32519	4.85694	-19.003	16.4291	-18.7646	0.580768	0
0.7673	0	19.969	2.55628	-2.24043	4.24982	-15.6753	10.0266	-17.2415	2.11459	0
0.7680	-3.36492	16.6099	0.113718	-3.15567	1.21423	-17.777	1.78787	-17.5462	4.5568	0
0.7687	-4.58853	15.6983	-0.191899	-1.02011	-0.337287	-17.164	-4.61464	-14.7959	5.16735	0.320305
0.7693	-0.917706	16.9137	1.63943	2.64085	0	-11.9973	-6.13675	-8.99937	0.89349	0
0.7700	2.14131	19.0406	1.33618	4.47132	-1.21423	-10.4648	-7.36893	-6.25778	-3.08254	0
0.7707	2.14131	18.1291	-0.191899	3.55608	-3.37287	-12.9168	-9.49504	-7.78088	-3.38037	0
0.7713	-2.14131	10.4993	-2.63209	2.03069	-5.19423	-14.1428	-12.8533	-11.1404	-3.38037	0
0.7720	-5.20033	5.62102	-2.63209	2.03069	-3.97999	-11.3843	-11.9352	-11.7497	-0.640334	0
0.7727	-1.22361	7.74789	-0.191899	3.251	-0.607117	-4.07206	-8.28702	-9.30399	6.07573	0
0.7733	1.52951	8.37245	0.113718	3.251	-0.337287	6.91813	-7.65885	-9.30399	12.1812	0
0.7740	0.305902	6.83638	-0.800763	2.33577	-1.21423	14.2303	-8.28702	-10.8358	13.7002	0.320305
0.7747	-1.52951	4.40566	-2.02086	0.200208	-2.76576	11.5156	-9.49504	-13.2728	12.4791	0
0.7753	-2.44722	2.86959	-2.02086	-0.104871	-3.6427	9.67663	-7.65885	-14.7959	11.8685	-0.320305
0.7760	1.22361	3.78111	0.113718	2.64085	-1.55152	15.7628	-3.09253	-13.882	12.4791	-0.320305
0.7767	4.28263	5.31718	1.63943	3.55608	0	16.9888	-1.57043	-12.6635	15.8446	-0.320305
0.7773	3.36492	4.40566	0.724951	1.42053	-1.82135	8.14413	-2.17444	-13.5774	11.5707	-0.320305
0.7780	-0.611804	0.742717	-1.10638	-3.15567	-3.03559	-1.92657	-1.25634	-13.5774	-11.6303	0
0.7787	-2.44722	-3.52791	-0.191899	-4.68106	-2.15864	-4.99156	1.49795	-6.5624	-29.6341	0
0.7793	1.22361	-3.52791	2.55628	-1.93535	0.26983	-2.53957	3.62406	10.5312	-23.5286	0
0.7800	4.58853	-1.70487	2.55628	-1.02011	1.48406	-1.62007	2.10196	31.5848	-7.04368	-0.320305
0.7807	2.14131	-3.52791	-0.495146	-2.54551	-0.337287	-5.29806	-3.40662	35.5536	-0.327613	-0.320305
0.7813	-3.97673	-6.58318	-3.24333	-4.07091	-2.42847	-7.70627	-7.05484	14.8046	-7.96695	-0.320305
0.7820	-4.89443	-6.58318	-2.93771	-3.76583	-1.55152	-4.99156	-4.61464	-2.28901	-15.5914	0
0.7827	0.305902	-5.9755	-1.71761	-2.54551	0.876947	-1.00707	-2.48852	-5.34392	-14.0576	0
0.7833	3.36492	-5.9755	-2.02086	-1.93535	1.21423	0.525428	-4.30055	-7.17164	-7.04368	-0.960914
0.7840	2.44722	-5.06398	-2.93771	-0.409951	0.607117	1.13843	-5.21865	-0.461283	6.07573	-0.960914
0.7847	-1.52951	-5.9755	-3.85219	-0.409951	0	0.218928	-6.74076	19.3826	18.5846	0
0.7853	-3.67082	-8.11925	-3.54894	-1.02011	0.26983	-1.62007	-5.53274	38.3039	21.0268	0.320305
0.7860	-1.22361	-7.19086	-3.24333	2.03069	0.607117	-1.62007	-1.25634	52.9518	19.8057	0
0.7867	0.305902	-2.61639	-6.29475	5.69164	0.876947	-0.394071	1.49795	66.6858	20.4162	0.320305
0.7873	0.305902	3.78111	-9.04057	5.38656	-0.607117	-1.62007	2.39188	64.8494	16.7529	0
0.7880	-3.05902	6.83638	-10.8719	2.64085	-3.37287	-5.91106	0.265765	40.4362	11.8685	0
0.7887	-4.89443	3.78111	-9.6518	2.64085	-2.76576	-8.01277	-0.0483208	16.6323	14.6234	0
0.7893	-0.917706	-3.22407	-5.07466	4.47132	0.26983	-1.62007	1.78787	-8.39013	6.999	0.320305
0.7900	3.67082	-8.11925	-1.10638	3.55608	2.15864	9.06363	2.10196	-47.1466	-18.942	-0.320305
0.7907	4.89443	-9.03077	-0.191899	2.64085	1.48406	13.0481	-0.338246	-65.154	-22.3075	0
0.7913	0.917706	-8.11925	5.30209	2.33577	-1.55152	10.2896	-3.69654	-51.42	-0.640334	0.320305
0.7920	-0.305902	-5.9755	19.0359	3.55608	-1.82135	9.98312	-1.86035	-40.1316	10.6474	0
0.7927	1.83541	-4.15247	20.256	5.08148	0	11.2091	2.10196	-36.7721	9.12849	0
0.7933	1.52951	0.438879	9.87923	5.99672	0	10.5961	1.78787	-23.6473	4.85463	0
0.7940	-0.305902	-0.793357	4.69086	6.3018	-0.337287	10.2896	-0.652331	1.07052	3.63352	0
0.7947	-1.83541	-13.6052	1.94505	6.3018	-1.82135	8.14413	-3.69654	21.8196	10.3496	0
0.7953	-1.22361	-17.2682	1.33618	6.60688	-2.15864	4.46614	-4.01063	36.7721	3.63352	0
0.7960	4.28263	-14.2129	6.21894	7.52212	0	3.59042	-1.25634	49.5923	-30.2446	0
0.7967	9.78886	-23.9864	10.7961	5.38656	1.21423	4.46614	-0.0483208	51.1154	-48.5463	0
0.7973	9.17706	-34.0468	13.2363	-11.4023	-0.607117	5.07913	-2.17444	50.5061	-35.4269	0
0.7980	0.917706	-36.1906	12.9307	-30.6224	-2.76576	3.28392	-4.92873	55.3888	-19.2547	0
0.7987	-4.89443	-40.7651	8.96475	-24.8259	-1.82135	1.44493	-2.17444	37.9993	-9.18805	0
0.7993	-3.05902	-57.8644	2.25066	-8.65663	0	1.13843	2.70597	18.46	-3.99092	0
0.8000	0.305902	-82.5767	-5.07466	-3.15567	0.607117	2.67092	3.62406	38.3039	-1.86144	0
0.8007	-0.305902	-79.2176	-13.3145	-2.85059	-0.607117	3.28392	0.57985	45.3189	1.80187	0
0.8013	-4.58853	-34.9752	-20.0262	-4.68106	-2.42847	3.28392	-4.30055	20.6011	2.41242	0
0.8020	-6.72984	-16.0528	-21.5543	-5.30076	-1.21423	6.30513	-5.53274	26.0929	-4.60147	0
0.8027	-3.05902	-60.2952	-23.08	-4.37599	2.15864	8.45063	-2.48852	60.576	-13.447	0
0.8033	2.14131	-125.907	-25.8258	-4.07091	3.6427	5.38563	-0.0483208	68.5136	-13.7597	0
0.8040	5.20033	-163.448	-26.1314	-4.37599	2.76576	-1.92657	-0.338246	19.6872	-7.04368	0
0.8047	2.44722	-166.504	-26.437	-5.91092	0.26983	-9.54527	-0.338246	-48.6784	-1.25089	0
0.8053	0	-168.934	-27.9627	-4.37599	0.607117	-11.6908	2.70597	-65.7633	2.11459	0
0.8060	3.67082	-159.482	-27.3515	0.505288	2.42847	-10.4648	4.54216	-37.3813	4.5568	0
0.8067	7.95345	-89.2949	-21.8575	0.505288	2.76576	-10.4648	5.75018	-12.3589	5.46518	0
0.8073	8.56525	-25.5056	-14.5346	-2.24043	2.76576	-6.48027	6.06427	-5.34392	4.5568	-0.320305
0.8080	4.89443	-12.3899	-4.76904	-4.98614	2.42847	2.36442	1.49795	-7.17164	1.80187	-0.320305
0.8087	1.52951	66.9627	9.27037	-4.98614	3.6427	9.67663	-0.652331	5.34392	1.80187	-0.320305
0.8093	2.14131	190.862	15.0676	-1.63027	5.19423	14.2303	1.18386	28.2253	3.94625	0
0.8100	2.14131	209.784	19.9504	1.11545	4.24982	17.9083	0.869775	9.61731	0.89349	0
0.8107	1.22361	147.835	30.3271	-0.104871	1.21423	17.6018	-1.57043	-36.1628	-6.1353	0
0.8113	-5.20033	106.934	29.4103	-2.24043	-3.03559	8.75713	-4.30055	-47.1466	-8.26478	-0.320305
0.8120	-10.4007	105.719	21.1705	-1.02011	-4.24982	-3.15257	-2.17444	-40.1316	-3.69309	0
0.8127	-6.42394	101.145	17.5102	2.03069	-2.76576	-11.3843	2.70597	-48.6784	-0.029783	0.320305
0.8133	-3.67082	71.5372	16.5933	1.72561	-2.42847	-15.9818	5.14617	-66.9818	-0.327613	-0.64061
0.8140	-6.72984	48.0403	15.0676	0.810368	-1.82135	-16.8575	7.29645	-81.325	-2.15927	-0.64061
0.8147	-12.4808	42.5543	9.27037	-1.63027	-1.82135	-14.1428	6.66828	-81.943	-4.30364	0.64061
0.8153	-17.3752	40.7144	3.16515	-3.15567	-1.21423	-10.1583	4.22807	-61.4899	-6.1353	0.320305
0.8160	-13.7044	43.162	4.99648	0.505288	2.15864	-7.09327	5.46025	-32.8033	-5.52474	-0.320305
0.8167	-8.56525	49.8633	9.87923	2.03069	3.03559	-5.29806	6.66828	-13.5774	-3.99092	0
0.8173	-9.48296	45.8966	10.7961	-0.104871	1.48406	-6.78677	5.46025	-5.03059	-4.30364	0
0.8180	-14.6221	22.3997	8.35352	-2.85059	-1.21423	-11.3843	3.02005	-6.25778	-4.60147	0
0.8187	-16.1516	-1.70487	8.96475	-1.93535	-2.15864	-14.1428	1.49795	-10.8358	-4.30364	0
0.8193	-11.0125	-8.11925	9.87923	2.03069	-0.944405	-15.6753	2.10196	-12.9681	-5.52474	0
0.8200	-7.64755	-2.61639	2.8619	2.94592	-1.21423	-22.3745	1.49795	-16.6323	-0.327613	-0.320305
0.8207	-8.56525	1.3504	-5.3779	0.200208	-1.82135	-33.0582	-0.338246	-19.0693	12.7918	0
0.8213	-11.3184	-1.70487	-8.73495	-2.85059	-2.76576	-41.9029	-1.86035	-17.5462	12.7918	0.320305
0.8220	-10.4007	-3.52791	-8.4317	-2.24043	-1.82135	-44.6613	-1.25634	-13.882	3.02297	0
0.8227	-3.67082	-1.70487	-4.46342	0.505288	1.21423	-37.9184	0.869775	-7.78088	-0.640334	0
0.8233	1.52951	-2.92023	-1.10638	0.810368	1.82135	-25.4395	0.265765	-4.72597	-2.15927	0
0.8240	2.44722	-16.3567	-0.191899	-0.71503	0	-16.2883	-4.01063	-9.60861	1.80187	0
0.8247	1.83541	-28.257	-1.71761	-2.54551	-2.15864	-12.6103	-8.57695	-18.7646	17.3635	0
0.8253	3.05902	10.1955	-2.63209	-1.32519	-2.15864	-8.31927	-10.0991	-25.4837	25.9112	0.320305
0.8260	5.81214	66.6589	-0.800763	2.64085	-1.21423	-1.31357	-10.0991	-27.0068	19.8057	0
0.8267	6.11804	74.2886	1.33618	3.55608	-1.55152	9.06363	-8.57695	-21.8196	9.73904	0
0.8273	3.36492	57.7969	2.25066	2.03069	-2.42847	18.2148	-5.84682	-8.39013	3.02297	0.320305
0.8280	-1.52951	41.3221	1.94505	-0.104871	-3.37287	24.914	-8.89103	12.0543	5.7779	0
0.8287	-3.05902	18.4329	3.77638	-1.32519	-2.15864	35.2912	-11.3312	36.7721	-0.327613	-0.320305
0.8293	-0.305902	-4.76014	6.21894	-1.02011	1.48406	44.4424	-5.53274	48.6784	-21.3842	0
0.8300	0.611804	-17.572	3.47076	-1.93535	2.76576	49.3464	-0.0483208	37.3813	-23.5286	0
0.8307	-1.83541	-12.3899	-1.71761	-3.76583	0.876947	52.1049	0.57985	18.7733	-14.9808	0
0.8313	-5.50624	-3.52791	-4.46342	-5.30076	-1.55152	49.3464	-1.86035	7.78088	-14.0576	0
0.8320	-6.42394	-0.793357	-3.24333	-3.76583	-2.15864	47.2009	-4.30055	8.39013	0.89349	0
0.8327	-1.83541	6.2287	-2.32648	0.200208	-0.944405	49.3464	-3.40662	13.2728	22.2479	0
0.8333	1.22361	17.2175	-3.85219	0.200208	-0.337287	47.8139	-1.57043	12.9681	25.3006	0
0.8340	0.305902	20.5766	-6.29475	-2.54551	-1.82135	33.496	-0.652331	9.31269	14.6234	0
0.8347	-3.36492	7.74789	-9.95742	-1.02011	-4.24982	12.4351	-0.652331	4.43006	7.29683	0.320305
0.8353	-7.03574	-29.1685	-10.8719	2.94592	-4.24982	0.525428	-1.25634	1.67977	6.68628	0
0.8360	-5.81214	-85.632	-9.34618	3.86116	-1.55152	-2.23307	1.49795	3.20287	7.29683	-0.64061
0.8367	-1.52951	-153.067	-8.12609	4.47132	0.607117	-1.92657	5.46025	1.37515	9.44121	0.320305
0.8373	-1.22361	-192.431	-8.4317	2.94592	0.26983	-4.37856	3.93815	0.156662	9.73904	0.64061
0.8380	-5.50624	-173.83	-9.34618	-2.24043	-1.82135	-10.7713	-0.942256	8.39013	6.68628	0
0.8387	-5.20033	-150.94	-7.51485	-4.37599	-0.607117	-13.8363	-1.86035	19.6872	4.85463	0
0.8393	1.83541	-160.393	-4.46342	-1.93535	1.21423	-15.0623	-0.0483208	27.616	3.33569	-0.320305
0.8400	6.42394	-172.294	-2.93771	0.200208	1.82135	-17.777	-0.652331	39.5224	2.11459	0
0.8407	3.36492	-177.796	-5.3779	-0.71503	0.876947	-21.7615	-4.61464	63.6309	2.72514	0
0.8413	-3.97673	-166.504	-13.3145	-3.46075	-0.607117	-25.746	-8.57695	86.2164	-0.029783	0
0.8420	-4.89443	-34.3507	-17.8916	-2.85059	0.26983	-24.52	-7.05484	93.8406	-5.82257	0.320305
0.8427	1.52951	172.851	-15.1434	-0.71503	3.03559	-15.0623	-3.40662	100.255	-7.96695	-0.320305
0.8433	6.11804	226.259	-12.092	-1.63027	4.58711	-10.4648	-2.48852	102.387	-7.96695	-0.960914
0.8440	6.42394	159.127	-10.8719	-3.15567	4.58711	-8.01277	-2.17444	52.9518	-7.04368	0
0.8447	1.83541	111.813	-9.95742	-5.30076	1.48406	37.4367	-1.86035	-30.9756	-4.60147	0.64061
0.8453	-8.25935	99.9124	-5.3779	-5.60584	0.26983	96.9414	1.78787	-73.3962	-1.86144	0
0.8460	-12.4808	101.448	4.38761	-2.24043	2.76576	105.173	7.90046	-67.9043	1.80187	0
0.8467	-1.52951	71.2334	11.7106	2.33577	3.6427	88.0967	10.0266	-52.3338	4.24408	0.320305
0.8473	6.72984	31.2617	9.57362	3.86116	1.82135	74.6545	6.37835	-42.264	6.68628	0
0.8480	2.44722	17.2175	3.77638	0.200208	-0.944405	53.9439	0.265765	-36.7721	10.0518	0
0.8487	-0.917706	5.31718	1.94505	-4.07091	-1.21423	27.0595	-0.338246	-29.7571	8.22011	0
0.8493	1.22361	-13.9091	1.03057	-1.02011	1.21423	-0.0875713	3.93815	-21.2103	10.0518	0
0.8500	0.611804	-15.1244	-1.71761	4.47132	0.607117	-27.8477	4.54216	-18.7646	13.4023	0.320305
0.8507	-2.75312	-10.55	-3.24333	2.94592	-2.15864	-51.9735	1.18386	-17.8508	4.85463	0
0.8513	-7.03574	-23.0749	-4.46342	-1.93535	-4.24982	-65.1092	-1.86035	-10.5312	6.38845	0
0.8520	-7.34165	-23.6826	-3.54894	-2.54551	-3.6427	-72.4214	0.265765	0.461283	24.6901	0
0.8527	-1.22361	10.8032	1.94505	0.200208	-1.82135	-81.2661	3.62406	7.78088	31.4062	0
0.8533	0.305902	84.6529	5.60771	2.03069	-1.82135	-87.0458	5.75018	8.39013	34.4589	0.320305
0.8540	-3.97673	129.824	4.38761	1.72561	-2.76576	-87.0458	10.3407	8.99937	38.4201	0
0.8547	-9.48296	84.3491	2.8619	1.11545	-4.58711	-84.0246	13.3849	15.7184	30.1851	-0.320305
0.8553	-11.0125	27.5987	4.69086	5.08148	-3.97999	-74.2604	13.0949	27.9207	36.9011	-0.320305
0.8560	-7.64755	6.83638	6.21894	8.74244	-1.82135	-53.8125	4.85624	41.0455	64.6738	-0.320305
0.8567	-3.36492	-40.1574	6.21894	4.16624	-1.21423	-29.0737	-9.49504	48.6784	32.9251	-0.320305
0.8573	-0.305902	-134.449	5.30209	-2.24043	-1.82135	-12.6103	-17.1297	50.8107	-65.329	0
0.8580	-1.52951	-218.68	1.94505	-4.37599	-1.55152	-10.1583	-18.9659	31.8894	-97.986	0
0.8587	-0.305902	-248.591	1.33618	-1.02011	1.48406	-9.85177	-17.4438	-8.69475	-48.859	0
0.8593	5.50624	-238.834	2.8619	3.251	4.24982	1.44493	-11.9352	-38.5998	-18.0336	0
0.8600	7.64755	-224.183	1.94505	3.251	4.24982	23.4253	-8.28702	-43.1778	-17.423	0
0.8607	3.97673	-222.95	-0.191899	0.810368	2.42847	34.109	-8.57695	-34.3351	-16.8125	0
0.8613	-2.14131	-236.691	-2.32648	-1.32519	0	26.4465	-11.0172	-21.5149	-16.2019	0
0.8620	-4.58853	-221.735	-2.02086	0.200208	0.26983	26.14	-10.7272	-8.69475	-15.5914	0
0.8627	-3.36492	-99.6592	-1.10638	2.94592	1.82135	29.818	-7.05484	-3.50749	-14.0576	0
0.8633	-3.67082	127.393	-2.32648	2.64085	1.21423	22.8123	-4.01063	-5.03059	-15.8892	0
0.8640	-6.42394	321.782	-3.54894	-0.409951	0	10.2896	-1.25634	-8.99937	-19.8653	0
0.8647	-11.3184	339.793	-5.07466	-4.07091	-2.15864	-0.0875713	-0.0483208	-19.3739	-25.0475	0
0.8653	-9.78886	212.232	-5.68352	-3.15567	-1.21423	-1.92657	1.18386	-24.5698	-25.3602	0.320305
0.8660	-0.305902	98.3932	-5.68352	-0.104871	1.48406	1.44493	3.30998	-19.0693	-17.1103	0.320305
0.8667	5.50624	74.8963	-8.12609	-0.104871	2.76576	5.99863	3.02005	-13.2728	-18.3314	0.320305
0.8673	7.64755	83.7414	-10.8719	-1.93535	2.76576	9.67663	-0.0483208	-5.34392	-23.5286	0
0.8680	3.67082	51.7033	-12.092	-3.15567	1.21423	6.61163	-4.61464	7.47626	-15.5914	-0.320305
0.8687	-1.83541	-5.67166	-10.8719	-1.32519	1.21423	0.831927	-3.69654	26.0929	-11.3175	0
0.8693	1.52951	-35.2791	-8.73495	0.810368	2.42847	-2.23307	1.49795	48.0692	-9.48588	0
0.8700	8.56525	-41.3727	1.03057	1.11545	2.15864	-4.07206	5.14617	62.4124	18.5846	0
0.8707	9.78886	-51.1462	17.8134	1.11545	1.21423	-5.91106	5.75018	63.9355	47.891	0
0.8713	-0.305902	-56.936	20.5616	-0.71503	-0.944405	-6.78677	0.57985	65.154	29.2767	0
0.8720	-5.50624	-60.2952	10.1849	-1.63027	-0.337287	-7.70627	-3.69654	53.2564	-2.15927	0
0.8727	5.20033	-90.5103	6.52219	1.42053	2.42847	-8.62577	-3.09253	12.3589	-2.47199	0
0.8733	12.8479	-118.582	4.69086	2.94592	2.42847	-11.3843	-3.40662	-27.9207	0.580768	-0.960914
0.8740	9.17706	-95.0847	0.724951	3.55608	1.82135	-14.4493	-5.21865	-55.998	-11.0197	-0.64061
0.8747	1.22361	-23.9864	-1.71761	2.94592	0.26983	-14.4493	-6.74076	-72.4823	-14.3703	0.64061
0.8753	-3.36492	81.9184	-3.24333	2.33577	-0.944405	-11.3843	-6.74076	-63.9355	-4.91419	0.320305
0.8760	-0.305902	152.713	-0.191899	4.47132	0.607117	-8.93227	-4.01063	-37.9906	4.24408	0
0.8767	3.67082	102.056	2.25066	3.86116	0.607117	-8.93227	-3.09253	-17.5462	20.729	-0.320305
0.8773	4.28263	-13.9091	0.419334	-0.409951	-2.42847	-10.7713	-5.21865	-12.6635	50.6311	-0.320305
