MR32 ASCII
Name	NA_slow
Frequency	1500
Date	07-09-2015 11:06:34
"Time,s"	"RT TIB.ANT.,uV"	"RT MED. GASTRO,uV"	"RT LAT. GASTRO,uV"	"RT BICEPS FEM.,uV"	"RT VMO,uV"	"RT VLO,uV"	"RT RECTUS FEM.,uV"	"RT SOLEUS,uV"	"RT SEMITEND.,uV"	"Channel 12,uV"
0.0000	68.5059	53.4867	-45.7044	-3.08771	0.667114	1.95783	-2.64119	161.558	-1.86666	-9512.23
0.0007	110.616	123.953	23.2761	-3.68682	0.359792	2.27109	-3.25149	68.5008	-1.24444	-10272.8
0.0013	140.535	162.711	66.9018	-2.16601	1.27426	4.3986	-1.11289	161.857	0.878428	-9528.58
0.0020	109.721	144.408	75.4628	0.576066	3.41053	6.83936	1.32829	447.519	2.41568	-9878.71
0.0027	46.2485	46.1389	87.3607	0.276511	2.80338	5.32531	-0.810307	592.464	1.79346	-9834.79
0.0033	-0.16777	-143.679	-15.1801	-1.86645	-0.862002	2.27109	-4.77979	476.815	-0.32941	-9790.86
0.0040	-34.0572	-305.728	-171.439	-1.2443	-1.46915	2.27109	-5.39008	156.39	-0.95163	-9815.87
0.0047	-50.219	-273.689	-237.657	-0.345639	-1.46915	1.95783	-5.39008	-197.943	-1.86666	-9814.91
0.0053	-40.768	-125.045	-329.832	-0.645193	-2.0838	1.04418	-6.91326	-411.261	-2.78169	-9807.21
0.0060	-35.2316	126.402	-409.78	1.79732	-1.77647	1.95783	-6.30296	-445.426	-3.0745	-9790.54
0.0067	-35.5671	357.726	-328.3	3.64073	-2.38362	2.87149	-3.86178	-327.343	-3.69672	-9910.78
0.0073	-25.1654	300.366	-194.332	1.79732	-3.91274	1.35743	-5.69267	-328.838	-3.69672	-9666.78
0.0080	-16.9447	132.525	-136.347	0.576066	-3.29809	1.04418	-7.83126	-535.75	-3.40391	-9771.94
0.0087	-11.7439	20.223	-138.18	2.09688	-1.77647	1.65763	-6.30296	-590.371	-1.86666	-10506.2
0.0093	-19.685	-53.6522	-86.8957	2.71903	-0.862002	1.35743	-6.61067	-299.883	0.256208	-6458.52
0.0100	-42.2779	-30.7483	65.9992	2.41948	-0.247357	1.35743	-7.52355	55.6463	0.585618	-298.189
0.0107	-31.5966	-12.4449	182.571	3.64073	0.359792	1.95783	-6.30296	167.366	0.585618	110.619
0.0113	1.34216	-62.1916	215.53	3.01858	-1.16183	-0.482932	-8.74414	180.477	-0.32941	-285.364
0.0120	4.41793	-106.146	273.214	0.576066	-3.91274	-4.75101	-16.0677	280.58	-4.61175	65.0886
0.0127	-3.18762	-149.769	377.888	0.87562	-3.91274	-5.36446	-18.8166	332.468	-6.73461	20.5205
0.0133	-7.49371	-179.061	422.444	1.49777	-3.60542	-3.83735	-17.8986	111.207	-6.14899	-23.4062
0.0140	-23.6555	-169.628	299.143	1.49777	-3.91274	-3.53715	-17.596	-338.618	-1.86666	1.60317
0.0147	-23.6555	-154.668	123.683	3.01858	-3.91274	-2.9237	-15.7651	-662.118	2.12287	-0.9619
0.0153	14.2045	-155.264	73.3294	3.64073	-3.91274	-1.69679	-14.2368	-612.664	0.878428	-0.9619
0.0160	57.8246	-201.965	126.118	2.09688	-5.74168	-3.2239	-15.7651	-294.673	-0.95163	-0.9619
0.0167	74.9371	-262.701	186.537	-0.345639	-6.35633	-3.53715	-16.0677	16.6127	-1.24444	-0.9619
0.0173	62.0747	-201.337	155.712	-0.645193	-3.91274	0.743977	-11.7956	203.068	-1.86666	-0.9619
0.0180	48.038	-6.02388	9.84654	2.09688	-0.862002	3.48494	-7.52355	320.553	-0.658821	-0.641267
0.0187	55.0843	118.161	-105.823	4.23984	0.359792	2.87149	-5.39008	385.552	2.70849	-0.641267
0.0193	52.3441	67.5204	-100.927	3.94029	1.88891	4.71185	-2.9489	395.631	3.95292	-0.320633
0.0200	13.8689	-30.7483	-7.54901	3.01858	1.27426	5.92571	-1.4206	388.627	2.70849	-0.641267
0.0207	-21.1949	-110.118	67.8317	1.79732	-0.862002	4.71185	-0.502596	338.874	1.20784	-0.641267
0.0213	-35.5671	-194.949	1.91461	2.09688	-0.554679	5.32531	2.85146	173.473	-0.658821	-1.28253
0.0220	-39.5377	-259.953	-94.5268	1.19822	-0.554679	5.32531	3.46176	-125.001	-2.78169	-0.9619
0.0227	-18.175	-170.224	-80.4955	-2.46556	-1.77647	2.87149	-1.11289	-407.589	-4.90455	-0.320633
0.0233	23.32	138.615	-32.8765	-3.38727	-1.46915	3.48494	-1.72319	-472.587	-5.52677	-0.320633
0.0240	37.6922	338.198	-40.2067	-2.16601	0.0524697	5.32531	-0.200013	-342.59	-5.23397	-0.641267
0.0247	5.03309	236.586	-97.891	-3.08771	0.0524697	4.3986	-2.0309	-148.789	-5.23397	-0.641267
0.0253	-31.8762	116.638	-147.643	-2.78816	2.18874	5.32531	-1.4206	-15.4597	-6.4418	-0.641267
0.0260	-41.9424	73.6105	-136.046	-1.5669	2.80338	5.62551	-0.502596	-56.0306	-8.27186	-0.320633
0.0267	-35.2316	11.3527	-94.5268	-3.38727	-0.554679	1.35743	-4.47208	-160.704	-9.18689	-0.641267
0.0273	-24.2707	-31.3771	-89.6582	-3.08771	-0.247357	0.743977	-6.00038	-171.38	-8.89408	-0.641267
0.0280	19.0698	-77.152	-107.054	-0.645193	2.49606	1.95783	-3.25149	-131.407	-7.64964	-0.320633
0.0287	103.29	-153.146	-97.891	-2.78816	0.974437	0.130522	-3.25149	-106.381	-7.97905	-0.320633
0.0293	172.579	-146.724	-47.5369	-4.90808	-0.247357	1.04418	-4.16949	-45.354	-8.27186	-0.320633
0.0300	186.616	57.4254	-22.8112	-4.60852	0.0524697	2.57129	-4.47208	115.478	-7.64964	-0.320633
0.0307	117.662	275.344	-38.3742	-4.90808	-1.16183	0.743977	-6.30296	252.18	-7.35683	0
0.0313	38.9225	289.676	15.3442	-3.08771	-1.77647	0.130522	-6.61067	223.823	-6.73461	0
0.0320	63.305	205.143	151.445	1.49777	0.974437	2.27109	-5.08237	68.7998	-4.61175	-0.320633
0.0327	46.2485	95.8856	253.685	3.64073	2.80338	1.65763	-6.61067	-36.5138	-3.0745	-0.320633
0.0333	-112.462	-60.9669	204.835	2.41948	3.1107	0.743977	-9.05185	108.175	-3.40391	-0.320633
0.0340	-214.689	-244.066	63.2367	2.71903	3.71785	1.95783	-8.13384	314.446	-3.0745	-0.320633
0.0347	-187.231	-385.661	15.016	4.23984	2.80338	1.35743	-8.13384	163.095	-2.15947	-0.320633
0.0353	-142.66	-418.031	70.266	4.83895	1.88891	-0.482932	-9.05185	-202.214	-2.78169	-0.641267
0.0360	-117.327	-331.975	139.246	6.06021	2.49606	-0.169679	-8.74414	-293.776	-3.0745	-0.641267
0.0367	-71.8613	-189.752	174.038	5.4611	3.41053	1.04418	-8.74414	-102.41	-3.40391	-0.320633
0.0373	5.3127	-83.8709	120.921	2.71903	4.325	2.87149	-8.74414	77.0421	-5.23397	0
0.0380	54.7488	3.11123	21.7444	0.87562	5.54679	4.3986	-7.52355	160.96	-8.27186	-0.320633
0.0387	51.3934	59.2789	-23.4129	-0.0230426	4.02517	3.18474	-8.13384	253.12	-9.4797	-0.320633
0.0393	47.1432	22.6392	5.25149	-0.944748	1.88891	1.35743	-9.35443	380.684	-8.89408	-0.320633
0.0400	61.18	-91.4835	38.8391	-0.944748	1.27426	1.65763	-7.83126	370.306	-8.27186	-0.320633
0.0407	53.5744	-154.37	-28.6097	-0.345639	1.88891	3.7982	-4.16949	175.309	-8.56467	-0.320633
0.0413	7.77332	70.5654	-152.813	-0.0230426	2.80338	5.01205	-0.810307	31.5599	-8.27186	0
0.0420	-23.0404	268.327	-176.937	-0.645193	2.80338	5.01205	1.02058	-2.30614	-8.56467	0
0.0427	-16.3296	60.5036	-98.4928	-1.5669	1.27426	4.0984	-0.200013	-107.919	-8.89408	0
0.0433	-5.98378	-174.196	3.41894	-1.86645	0.0524697	2.57129	-3.25149	-256.835	-8.27186	-0.320633
0.0440	7.49371	-223.645	127.95	-0.944748	0.667114	2.57129	-3.86178	-205.545	-7.64964	-0.320633
0.0447	22.4252	-208.386	269.85	1.19822	2.49606	4.0984	-1.11289	48.0445	-6.73461	-0.320633
0.0453	13.2538	-107.669	346.762	2.09688	3.1107	4.71185	0.107699	186.883	-6.14899	-0.320633
0.0460	-17.2243	2.51547	269.248	1.49777	3.1107	3.48494	-1.11289	256.494	-5.52677	-0.320633
0.0467	-44.7385	132.194	99.2586	1.19822	3.1107	1.95783	-2.33348	395.332	-4.90455	0
0.0473	-51.4493	302.485	-26.1754	1.79732	3.71785	2.27109	-1.4206	228.094	-4.31894	-0.320633
0.0480	-40.768	287.524	-77.1312	2.09688	4.325	3.18474	0.410282	-256.835	-3.69672	-0.641267
0.0487	-25.7806	123.655	-83.5315	3.31814	4.93965	3.48494	1.63087	-536.69	-2.78169	-0.320633
0.0493	-0.782925	-12.4449	-60.3374	5.16155	4.63232	4.3986	1.93858	-487.834	-2.78169	0
0.0500	21.1949	-54.5459	-69.801	3.31814	2.49606	3.48494	0.717994	-382.264	-3.98953	-0.641267
0.0507	34.0013	26.611	-147.944	1.19822	0.359792	1.95783	0.717994	-348.398	-4.61175	-0.320633
0.0513	63.0254	95.2898	-222.395	1.79732	-0.247357	2.87149	2.24117	-260.209	-5.52677	0
0.0520	79.8024	115.414	-268.482	0.87562	-0.862002	3.18474	1.02058	-38.3075	-7.35683	-0.9619
0.0527	87.1283	168.205	-306.009	0.276511	0.359792	5.01205	1.63087	129.528	-7.64964	-0.9619
0.0533	135.949	273.491	-302.973	0.87562	2.49606	7.76607	3.46176	205.204	-7.64964	0
0.0540	205.853	414.489	-132.381	-0.645193	3.41053	7.76607	1.63087	334.902	-8.56467	-0.320633
0.0547	247.628	456.921	248.789	-1.86645	4.63232	8.06627	-0.502596	478.011	-8.56467	-0.320633
0.0553	194.221	335.153	469.735	-1.2443	5.85412	9.28013	-0.810307	619.625	-7.06402	0.320633
0.0560	22.4252	193.227	333.333	-1.2443	4.93965	7.45282	-2.64119	803.646	-6.4418	0
0.0567	-142.66	44.9143	131.615	-0.645193	3.71785	5.01205	-3.86178	833.541	-6.73461	-0.320633
0.0573	-172.914	-137.258	11.05	2.09688	4.93965	5.01205	-1.72319	506.112	-7.35683	-0.320633
0.0580	-112.797	-188.528	-91.1626	2.71903	4.325	1.95783	-1.4206	9.90785	-9.18689	0
0.0587	-59.9496	-129.315	-155.575	0.276511	1.88891	-2.61044	-3.5592	-339.515	-10.3947	-0.320633
0.0593	-23.3759	-94.2307	-84.1606	-0.0230426	2.49606	-1.69679	-1.72319	-448.501	-10.1019	-0.320633
0.0600	-5.64824	-58.2198	39.4409	0.576066	2.49606	-0.482932	0.107699	-338.917	-9.4797	-0.320633
0.0607	-16.9447	-36.8714	43.7077	0.276511	2.18874	-0.169679	-0.502596	-159.166	-9.4797	-0.320633
0.0613	-23.3759	-64.9387	12.5817	1.49777	3.71785	2.57129	1.93858	-169.843	-9.4797	-0.641267
0.0620	-10.5136	-88.4385	62.0332	2.41948	4.325	3.7982	3.76947	-303.513	-9.4797	-0.641267
0.0627	-13.8689	-76.2252	120.921	0.576066	2.80338	1.95783	0.717994	-352.369	-9.18689	-0.320633
0.0633	-30.3663	-65.2366	96.5234	-0.944748	0.974437	1.35743	-1.72319	-347.757	-9.18689	0
0.0640	-29.7511	-86.2871	-13.0467	0.276511	0.667114	1.65763	-0.810307	-294.972	-8.89408	-0.320633
0.0647	-21.1949	-111.011	-136.949	1.19822	0.359792	-0.169679	-0.502596	-217.759	-8.56467	-0.641267
0.0653	-9.61879	-127.792	-234.594	2.71903	1.27426	0.430723	0.107699	-189.402	-8.27186	-0.320633
0.0660	6.54301	-158.309	-329.203	3.94029	1.58159	1.65763	-0.200013	-149.728	-7.97905	0
0.0667	11.1287	-154.668	-398.785	1.49777	-0.554679	-0.482932	-2.9489	-39.546	-8.56467	-0.320633
0.0673	16.6092	-145.202	-389.95	0.87562	0.0524697	-0.783133	-2.64119	95.662	-8.56467	-0.320633
0.0680	34.952	-170.82	-300.839	1.49777	1.27426	0.130522	-0.200013	185.046	-8.89408	-0.320633
0.0687	43.7879	-21.911	-179.973	0.276511	0.359792	-0.482932	-1.11289	197.26	-8.89408	0
0.0693	37.9718	249.097	-72.5635	1.19822	1.58159	1.35743	-0.810307	171.935	-7.64964	0
0.0700	26.6754	274.417	28.4456	2.71903	4.02517	3.48494	0.717994	191.153	-6.4418	0
0.0707	21.81	145.93	101.693	-0.645193	2.80338	1.95783	-1.72319	206.1	-7.06402	-0.320633
0.0713	37.9718	105.947	67.5309	-1.2443	3.1107	2.57129	-1.11289	142.041	-7.97905	-0.320633
0.0720	49.8835	103.531	-9.38157	1.19822	4.325	4.3986	2.24117	113.641	-7.97905	-0.320633
0.0727	53.5744	76.6555	11.05	-0.345639	1.58159	1.65763	1.32829	106.638	-8.27186	-0.320633
0.0733	72.7561	50.4086	101.994	-0.645193	0.974437	1.35743	1.32829	0.726006	-7.97905	0
0.0740	94.7339	70.8633	152.348	2.09688	3.71785	3.7982	4.37976	-75.5474	-7.64964	-0.320633
0.0747	101.78	71.4922	120.018	0.87562	2.80338	3.18474	3.76947	-70.3799	-7.97905	-0.320633
0.0753	81.9275	-7.57949	94.6909	-0.944748	1.88891	2.87149	2.24117	48.3435	-7.35683	-0.320633
0.0760	37.9718	-57.624	150.214	0.576066	4.02517	5.32531	3.15917	390.122	-7.06402	-0.641267
0.0767	-2.62839	-53.9501	210.333	0.276511	3.71785	4.3986	1.93858	498.168	-7.97905	-0.320633
0.0773	-16.9447	-65.5345	169.142	0.576066	3.71785	3.7982	1.02058	123.72	-7.64964	-0.320633
0.0780	-14.4841	-68.2816	104.756	4.5394	4.93965	5.01205	3.15917	-252.864	-5.81958	-0.320633
0.0787	-21.5304	-57.624	101.392	4.83895	2.80338	2.27109	0.107699	-483.264	-5.23397	0
0.0793	-38.0278	-32.8996	56.2347	3.01858	0.359792	-1.69679	-5.08237	-584.905	-6.14899	-0.320633
0.0800	-43.5082	1.58871	0.0820545	3.31814	0.359792	-2.61044	-5.39008	-457.939	-6.73461	-0.320633
0.0807	-22.7607	-29.5236	18.3802	2.71903	-1.46915	-4.45081	-5.39008	-295.57	-6.4418	0
0.0813	-5.64824	-87.8096	27.8438	3.01858	-1.77647	-5.36446	-5.69267	-210.157	-6.14899	-0.641267
0.0820	-12.359	-64.012	-2.05136	6.38281	1.58159	-2.01004	-2.64119	-31.3037	-5.23397	-1.28253
0.0827	-14.4841	6.48725	-19.7751	4.5394	-0.247357	-3.53715	-2.33348	134.397	-4.61175	0
0.0833	-3.18762	48.5882	-14.8792	1.49777	-3.60542	-6.27812	-5.39008	93.1851	-5.23397	0
0.0840	-1.39808	103.531	-16.7118	3.94029	-0.862002	-3.53715	-2.9489	42.2365	-4.61175	-0.641267
0.0847	-8.72402	197.828	-0.847897	3.64073	-0.862002	-3.2239	-0.502596	117.912	-4.61175	-0.320633
0.0853	-10.5136	162.413	72.0986	1.79732	-2.38362	-4.13755	-2.0309	119.449	-4.61175	-0.320633
0.0860	-7.77332	-88.7364	128.552	4.5394	0.667114	-0.169679	-0.200013	-11.1463	-2.78169	-0.641267
0.0867	-4.41793	-271.538	83.9965	4.5394	0.0524697	0.130522	0.107699	-120.432	-2.15947	-0.320633
0.0873	8.05294	-211.729	10.7491	2.09688	-2.99827	-2.31024	-2.9489	-214.727	-2.48888	-0.320633
0.0880	28.5208	-95.4553	-22.5103	3.31814	-0.862002	0.430723	-0.810307	-246.458	-1.24444	-0.320633
0.0887	32.8269	-45.7087	-14.5784	4.23984	0.0524697	1.95783	0.717994	-18.7908	-0.0366012	0
0.0893	17.5599	-23.4335	83.0939	2.41948	-2.38362	-1.09639	-2.0309	293.093	-0.658821	-0.320633
0.0900	-0.16777	27.8356	176.472	4.23984	-0.247357	-0.169679	-0.810307	252.522	-1.24444	-0.320633
0.0907	-37.6922	80.0315	136.484	5.4611	1.58159	1.04418	0.717994	-57.2691	-0.658821	0
0.0913	-83.4933	58.0543	54.703	3.01858	-1.16183	-2.01004	-1.4206	-190.897	-0.32941	0
0.0920	-87.1283	8.60554	25.1087	3.94029	-0.862002	-2.61044	0.107699	-138.71	-1.24444	0
0.0927	-61.7951	11.9816	38.21	5.16155	0.974437	-2.61044	3.46176	-93.2705	-2.48888	0
0.0933	-46.2485	26.0152	84.9264	3.01858	-0.862002	-4.75101	3.15917	-27.9726	-3.69672	-0.320633
0.0940	-52.6237	8.00977	101.392	4.83895	0.359792	-2.01004	4.07205	-31.3037	-3.0745	-0.320633
0.0947	-58.4397	-2.68096	57.1373	5.4611	0.667114	-1.39659	4.07205	-168.946	-2.15947	0
0.0953	-38.0278	13.802	33.0406	2.09688	-2.0838	-4.45081	1.02058	-240.351	-1.86666	0
0.0960	-31.2611	33.3299	29.0746	1.79732	-1.46915	-2.61044	2.54888	-171.978	-0.95163	0
0.0967	-47.1432	36.375	15.9459	1.79732	-1.16183	-0.783133	3.46176	-85.3271	-0.658821	-0.320633
0.0973	-30.9814	27.5377	24.1787	0.87562	-2.0838	-1.69679	2.24117	-37.4107	-1.24444	-0.320633
0.0980	-7.77332	24.4927	19.611	3.01858	-0.247357	0.743977	4.99006	-3.24568	-1.24444	-0.320633
0.0987	-16.3296	24.7906	-28.9105	5.16155	1.88891	1.95783	8.65183	28.4851	-0.658821	-0.320633
0.0993	-18.7902	13.5041	-66.1359	2.71903	0.667114	-0.169679	5.60035	46.2082	-0.658821	-0.320633
0.1000	-3.18762	-8.17526	-54.238	0.87562	-0.554679	-0.783133	2.85146	40.6991	-1.24444	-0.320633
0.1007	3.52316	-23.7314	-15.7818	2.09688	1.27426	0.743977	4.99006	25.4529	-1.86666	-0.641267
0.1013	-3.80278	-25.2539	18.3802	1.79732	1.27426	-0.482932	4.99006	16.3138	-2.15947	-0.320633
0.1020	-13.3097	-20.6864	21.1427	2.09688	0.0524697	-2.31024	2.54888	6.23511	-1.86666	-0.320633
0.1027	-17.2243	-18.2371	-18.5443	3.31814	-0.554679	-1.69679	1.63087	-12.0859	-1.24444	-0.320633
0.1033	-8.10886	-18.535	-59.7357	2.09688	-2.38362	-2.9237	-0.200013	-38.0086	-1.24444	-0.320633
0.1040	5.64824	-15.49	-76.2286	1.49777	-2.69094	-2.01004	-0.810307	-47.7883	-0.32941	-0.320633
0.1047	2.90801	-11.5182	-77.733	1.79732	-2.38362	-0.169679	1.02058	-27.0331	0.878428	-0.320633
0.1053	-3.18762	-13.3717	-85.364	1.49777	-2.69094	-0.169679	1.63087	-3.24568	1.20784	-0.320633
0.1060	4.69755	-11.2203	-129.619	2.41948	-0.554679	0.743977	3.46176	17.5096	1.79346	-0.320633
0.1067	9.28325	5.5605	-161.675	3.01858	0.667114	1.35743	4.37976	57.1837	1.79346	0
0.1073	3.80278	26.3131	-136.347	0.87562	-1.46915	-1.09639	1.93858	91.6903	1.50065	0
0.1080	-2.90801	35.1503	-100.325	0.576066	-2.38362	-2.01004	1.63087	102.666	0.878428	0
0.1087	-12.0794	26.9089	-85.364	1.79732	-0.862002	-0.783133	3.76947	113.043	0.585618	0
0.1093	-3.52316	6.78514	-78.6629	1.49777	-1.16183	-1.69679	3.46176	115.179	0.878428	-0.320633
0.1100	24.2707	-9.99566	-82.6289	0.87562	-1.16183	-1.39659	3.76947	102.965	0.878428	-0.641267
0.1107	36.1823	-15.49	-109.789	1.49777	0.359792	0.130522	6.82094	89.854	0.585618	0
0.1113	21.5304	-17.0125	-148.546	0.276511	-0.247357	-1.09639	6.21065	73.0704	0.256208	-0.641267
0.1120	6.54301	-13.0738	-141.845	-0.645193	-0.862002	-2.31024	2.24117	53.8526	-0.0366012	-0.9619
0.1127	2.29285	-6.02388	-52.7337	0.576066	0.974437	-2.01004	1.32829	41.6386	1.50065	-0.320633
0.1133	5.64824	-12.4449	48.9045	1.19822	2.49606	-1.39659	1.93858	37.9659	2.41568	0
0.1140	18.7343	-26.4786	95.8944	1.49777	1.88891	-1.09639	1.93858	36.7274	2.41568	0
0.1147	37.9718	-31.9729	94.0618	2.09688	0.667114	-1.39659	2.24117	30.6631	2.41568	-0.320633
0.1153	44.0675	-31.9729	73.6302	2.71903	-0.247357	-2.01004	0.717994	16.0148	2.41568	-0.641267
0.1160	28.5208	-29.5236	49.8071	3.01858	-1.16183	-3.2239	-2.33348	13.8368	3.0379	-0.320633
0.1167	15.994	-21.6131	29.0746	2.09688	-1.77647	-5.05121	-3.86178	32.7984	3.62351	-0.320633
0.1173	16.6092	-13.3717	22.647	2.09688	-1.77647	-5.05121	-2.9489	43.7739	3.62351	-0.641267
0.1180	19.3494	-8.77103	18.9819	2.41948	-1.16183	-3.53715	0.717994	35.8305	3.95292	-0.320633
0.1187	17.5599	-1.45632	10.1474	1.49777	-1.46915	-3.53715	2.24117	23.6166	3.62351	-0.320633
0.1193	2.57247	5.5605	4.04802	0.276511	-2.38362	-5.05121	-0.200013	13.2389	3.62351	-0.320633
0.1200	-14.2045	3.40912	-0.218812	-0.0230426	-2.38362	-5.66466	-2.33348	1.96449	4.24573	0
0.1207	-18.175	-5.13023	-1.14876	1.19822	-1.16183	-5.05121	-2.64119	-2.94673	5.45357	-0.320633
0.1213	-14.2045	-8.47315	4.04802	4.23984	0.667114	-4.13755	-2.9489	3.50191	6.3686	-0.320633
0.1220	-9.33917	-5.13023	7.71312	5.4611	0.667114	-3.83735	-2.9489	11.1036	7.28363	0
0.1227	-2.29285	-0.860554	7.71312	4.83895	-0.554679	-4.13755	-3.5592	8.96831	8.19866	0
0.1233	0.447385	1.29083	4.04802	4.23984	-1.16183	-3.83735	-4.16949	3.80086	8.82088	-0.320633
0.1240	-2.01323	3.7401	-1.7505	3.31814	-2.0838	-4.13755	-4.16949	7.13194	7.90585	-0.320633
0.1247	1.06254	6.15627	-4.18478	2.41948	-2.99827	-5.05121	-3.5592	17.5096	7.28363	-0.320633
0.1253	7.49371	4.93164	-1.14876	3.01858	-1.46915	-2.31024	0.717994	21.7802	6.69801	-0.320633
0.1260	7.77332	-0.529572	3.74716	2.09688	0.667114	2.27109	5.90294	23.3176	4.86795	-0.320633
0.1267	8.38848	-2.68096	8.01399	-0.944748	1.27426	3.18474	8.04153	28.1861	3.62351	0
0.1273	12.9742	0.992947	8.61572	-2.16601	2.80338	3.7982	9.5647	26.6914	3.0379	0
0.1280	11.4643	4.03798	4.34889	-2.16601	4.02517	5.01205	10.4827	23.9155	1.79346	0
0.1287	5.03309	7.08302	0.382921	-3.08771	4.02517	3.7982	8.34411	22.7197	0.256208	-0.320633
0.1293	1.06254	10.7569	-0.847897	-4.30897	4.325	3.48494	5.60035	16.3138	-1.57385	-0.320633
0.1300	-0.16777	10.7569	-0.847897	-3.68682	5.24697	4.3986	4.37976	6.53406	-1.24444	-0.320633
0.1307	-3.52316	10.7569	-3.88391	-2.16601	4.325	2.57129	1.93858	2.86132	0.585618	-0.320633
0.1313	-5.98378	11.9816	-6.01733	-2.46556	3.41053	1.65763	-1.11289	13.2389	1.79346	0
0.1320	-0.447385	9.83017	-2.05136	-1.2443	4.325	3.18474	-0.502596	25.4529	2.41568	-0.320633
0.1327	4.69755	7.08302	-2.37958	-1.86645	3.1107	0.743977	0.107699	26.3498	2.12287	-0.320633
0.1333	4.69755	4.33587	-5.4156	-2.46556	1.88891	-2.01004	-0.200013	23.6166	1.79346	0
0.1340	8.38848	2.51547	-3.28218	-0.944748	2.49606	-0.169679	1.63087	27.2893	2.41568	0
0.1347	11.7439	1.8866	-3.28218	-1.5669	1.88891	-0.169679	2.24117	27.8872	2.41568	0
0.1353	11.4643	0.364081	-4.18478	-2.78816	1.88891	-1.09639	1.63087	24.2144	2.41568	0
0.1360	9.28325	-2.08519	-1.7505	0.276511	3.41053	0.743977	2.54888	26.0508	3.95292	0
0.1367	1.34216	-2.38307	-5.4156	2.41948	3.41053	0.130522	1.93858	27.2893	4.86795	-0.320633
0.1373	-5.64824	-2.08519	-11.515	0.576066	2.80338	-1.09639	-0.200013	25.7519	4.24573	-0.9619
0.1380	-2.29285	-2.97884	-8.77983	-0.0230426	3.71785	1.95783	0.410282	27.5882	3.33071	-0.320633
0.1387	2.90801	-4.50136	-4.513	-0.345639	4.325	4.0984	2.24117	29.7236	2.41568	0
0.1393	3.52316	-6.02388	-5.11473	-1.86645	4.325	3.18474	2.24117	33.0973	1.50065	0
0.1400	2.57247	-6.35486	-5.11473	-1.86645	5.54679	5.01205	1.93858	35.5316	1.20784	0
0.1407	1.6777	-6.02388	-3.58305	-0.944748	6.46127	6.83936	3.15917	33.9942	1.50065	0
0.1413	-0.16777	-5.72599	-3.58305	-0.345639	5.85412	3.7982	2.85146	32.7984	1.50065	-0.320633
0.1420	-1.6777	-2.97884	-2.98131	0.276511	5.85412	1.04418	0.410282	33.9942	0.878428	-0.641267
0.1427	-2.29285	-0.231688	-2.05136	2.09688	7.07591	1.04418	-0.200013	35.8305	0.585618	-0.641267
0.1433	-3.80278	-0.529572	-3.58305	2.09688	5.24697	-0.482932	-1.72319	34.5921	0.585618	0
0.1440	-4.13832	-1.45632	-4.81386	0.576066	3.71785	-0.783133	-3.25149	31.8589	1.20784	0
0.1447	-2.01323	-0.231688	-3.28218	0.576066	4.93965	2.27109	-1.4206	32.1578	2.12287	0
0.1453	-2.90801	0.364081	-5.11473	-0.0230426	4.325	2.87149	-0.810307	30.6631	2.12287	0
0.1460	-5.36863	1.58871	-8.1781	-1.86645	3.1107	3.18474	0.717994	28.4851	1.79346	0
0.1467	-4.13832	2.51547	-6.64641	-1.2443	4.02517	4.71185	2.85146	29.4246	1.79346	-0.320633
0.1473	-3.18762	-0.529572	-4.513	-0.944748	4.63232	4.0984	2.24117	31.8589	1.79346	0
0.1480	-3.52316	-4.20347	-3.28218	-0.345639	4.63232	3.48494	2.85146	33.3963	2.41568	0
0.1487	-4.13832	-3.27672	-2.05136	1.49777	5.85412	5.01205	4.37976	32.4568	3.95292	0
0.1493	-5.98378	-1.15844	-3.58305	2.71903	5.54679	5.01205	3.76947	30.3214	4.86795	0.320633
0.1500	-6.2634	-0.231688	-5.11473	3.31814	4.325	3.18474	2.54888	30.0225	4.86795	0
0.1507	-4.75347	0.0661965	-4.18478	4.83895	4.02517	1.65763	1.93858	31.8589	5.45357	0
0.1513	-5.03309	0.661965	-5.4156	5.4611	4.02517	-0.482932	0.107699	31.5599	5.45357	-0.320633
0.1520	-6.2634	3.40912	-8.1781	5.76066	2.80338	-2.31024	-2.9489	29.4246	5.45357	-0.320633
0.1527	-5.64824	4.03798	-7.54901	5.4611	1.88891	-4.13755	-6.61067	28.4851	5.16076	0
0.1533	-5.98378	1.8866	-6.01733	4.83895	1.27426	-5.66466	-10.2724	28.1861	4.86795	0
0.1540	-8.10886	1.29083	-5.11473	6.06021	2.49606	-4.45081	-9.96473	27.2893	5.78298	0
0.1547	-10.2339	0.661965	-3.88391	6.98191	3.41053	-2.9237	-8.44156	26.3498	6.99082	0
0.1553	-9.8984	-2.97884	-2.68045	6.68236	2.49606	-4.45081	-10.8827	27.2893	8.19866	0.320633
0.1560	-6.54301	-5.42811	-0.54703	7.28147	3.41053	-4.45081	-11.493	28.8267	9.4431	0
0.1567	-6.54301	-5.72599	-1.14876	6.38281	2.80338	-4.13755	-11.493	26.6914	8.82088	-0.320633
0.1573	-9.61879	-5.42811	-3.58305	3.94029	0.974437	-5.97792	-15.7651	22.7197	7.61304	-0.320633
0.1580	-9.00363	-3.27672	-2.98131	6.06021	1.27426	-6.89157	-18.5089	20.8834	8.19866	0
0.1587	-6.2634	-0.529572	-1.44963	9.42443	2.80338	-6.27812	-15.7651	21.1823	9.11369	-0.320633
0.1593	-7.49371	-1.45632	-4.513	6.98191	0.974437	-7.19177	-15.4574	19.047	8.52807	-0.320633
0.1600	-7.77332	-2.08519	-6.34555	5.76066	-0.862002	-7.80523	-17.8986	17.2106	8.52807	-0.320633
0.1607	-4.13832	-0.529572	-2.05136	9.72399	-0.247357	-6.89157	-15.4574	19.6449	10.6509	0
0.1613	-4.13832	-1.75421	-1.14876	10.0466	-2.69094	-9.01908	-9.96473	18.748	11.8588	0
0.1620	-5.03309	-3.90559	-2.68045	7.90362	-6.35633	-10.246	-5.08237	16.0148	11.8588	0
0.1627	-2.90801	-2.08519	1.28552	10.6457	-3.91274	-5.36446	1.63087	18.748	11.8588	-0.320633
0.1633	-4.41793	-1.75421	0.683788	8.20317	-1.46915	0.130522	11.093	19.047	7.90585	-0.320633
0.1640	-9.61879	-4.83234	-5.71646	-2.16601	-0.862002	4.3986	20.8577	13.5379	-1.57385	0
0.1647	-6.54301	-3.27672	-4.18478	-3.68682	4.325	10.507	28.7916	12.94	-7.64964	0
0.1653	-3.18762	-1.75421	-0.54703	-0.0230426	6.76859	10.507	26.9607	14.1785	-8.27186	-0.320633
0.1660	-7.49371	-5.13023	-5.11473	-3.68682	3.1107	5.32531	16.5857	9.26726	-10.7241	-0.320633
0.1667	-7.49371	-4.50136	-6.34555	-6.12934	4.63232	8.97993	16.8882	5.63723	-14.3843	0
0.1673	-2.29285	-1.15844	-1.7505	-4.30897	9.21218	16.6155	25.4375	7.43089	-14.9699	-0.320633
0.1680	-0.447385	-2.38307	-1.7505	-4.90808	6.16144	12.9478	21.7706	7.77254	-13.4692	0
0.1687	1.34216	-3.27672	-3.88391	-6.12934	3.1107	8.67973	14.1445	7.13194	-12.847	0
0.1693	1.95731	0.661965	-1.44963	-4.00942	6.16144	12.6476	17.196	8.37043	-12.847	0
0.1700	-4.41793	-0.231688	-3.58305	-6.12934	5.54679	12.0341	15.6677	5.93617	-13.762	-0.320633
0.1707	-12.9742	-4.50136	-8.47896	-10.7148	3.41053	10.507	8.95441	1.3666	-16.7999	-0.320633
0.1713	-12.9742	-2.38307	-5.11473	-7.3506	8.90485	15.6888	11.7033	2.26343	-18.63	-0.320633
0.1720	-12.9742	0.992947	-3.88391	-4.90808	10.7338	16.002	11.7033	1.3666	-18.63	-0.641267
0.1727	-20.3001	0.992947	-8.47896	-7.97275	7.07591	10.8072	3.15917	-4.74039	-18.9594	-0.641267
0.1733	-27.3464	0.364081	-6.34555	-7.3506	6.46127	8.97993	-1.72319	-4.14251	-18.3372	0.320633
0.1740	-36.7975	-1.15844	0.382921	-3.38727	7.68306	9.28013	-1.4206	3.50191	-14.9699	0
0.1747	-37.0771	-4.83234	-1.14876	-3.68682	5.24697	6.23896	-4.47208	5.63723	-12.847	-0.320633
0.1753	-0.782925	-7.87738	-4.81386	-5.23068	3.41053	2.57129	-10.575	4.0998	-11.6392	-0.320633
0.1760	52.6237	-7.24851	-2.37958	-3.38727	4.63232	4.0984	-12.7136	4.39874	-10.7241	0
0.1767	84.6677	-5.42811	-3.28218	-3.08771	2.49606	3.7982	-13.9342	2.26343	-9.4797	0
0.1773	94.1187	-4.20347	-6.94728	-4.00942	-0.554679	1.95783	-13.0162	1.02495	-8.27186	0
0.1780	99.9347	-1.75421	-7.54901	-3.08771	-0.862002	2.27109	-9.96473	3.16026	-7.35683	0
0.1787	96.2997	0.0661965	-6.64641	-1.2443	0.0524697	3.7982	-6.61067	5.63723	-6.73461	-0.320633
0.1793	80.082	-1.15844	-5.4156	-0.645193	0.0524697	4.0984	-3.25149	8.07148	-5.81958	-0.320633
0.1800	95.6846	-3.90559	-4.513	-0.944748	-1.16183	3.18474	-0.810307	10.5057	-5.23397	-0.320633
0.1807	129.238	-4.50136	-3.58305	-0.645193	-2.0838	3.48494	2.54888	13.5379	-5.23397	-0.320633
0.1813	126.778	-3.60771	-2.98131	-0.645193	-1.77647	4.3986	6.82094	16.3138	-5.23397	-0.320633
0.1820	99.04	-2.68096	-2.68045	-0.645193	-1.77647	3.7982	8.95441	17.8085	-6.14899	-0.320633
0.1827	44.0675	-1.45632	-2.37958	-0.345639	-2.0838	3.7982	8.34411	19.3459	-7.06402	-0.320633
0.1833	-45.9129	0.661965	-3.88391	-0.645193	-1.77647	4.71185	8.65183	23.0187	-6.4418	-0.320633
0.1840	-128.959	4.33587	-6.94728	-0.345639	-0.247357	6.83936	11.7033	26.3498	-5.23397	0
0.1847	-175.934	7.08302	-9.0807	-0.345639	0.0524697	8.36647	14.4471	26.6914	-5.52677	-0.320633
0.1853	-197.297	6.48725	-9.0807	-1.5669	-0.247357	8.36647	15.9754	24.5561	-7.64964	-0.320633
0.1860	-176.829	5.5605	-7.54901	-3.38727	0.667114	8.36647	17.196	23.6166	-10.3947	-0.320633
0.1867	-94.4543	4.93164	-5.71646	-4.60852	0.667114	7.45282	14.1445	26.0508	-11.6392	-0.320633
0.1873	-19.685	5.85839	-6.01733	-4.30897	0.359792	5.92571	8.95441	28.8267	-12.5542	0
0.1880	25.501	8.60554	-7.54901	-3.08771	1.88891	5.62551	4.68235	28.1861	-13.1398	0
0.1887	89.2534	10.4259	-12.1441	-3.68682	1.88891	3.48494	-0.502596	20.2855	-13.4692	-0.320633
0.1893	146.631	12.2794	-19.146	-4.90808	-0.554679	0.130522	-4.47208	10.5057	-13.4692	0
0.1900	134.439	15.3245	-22.5103	-4.30897	-0.554679	0.430723	-6.00038	6.833	-12.847	-0.320633
0.1907	25.501	17.4759	-23.4129	-2.78816	0.359792	1.95783	-7.22097	8.96831	-12.847	0
0.1913	-97.1945	18.0716	-27.078	-3.08771	-0.247357	-0.169679	-11.1853	8.37043	-13.762	0
0.1920	-121.633	17.7737	-31.3448	-4.60852	-1.46915	-3.53715	-16.678	3.50191	-14.3843	-0.320633
0.1927	-126.498	15.6224	-29.2114	-4.60852	-1.16183	-2.9237	-16.678	-3.24568	-14.3843	0
0.1933	-176.829	9.53229	-24.6437	-4.90808	-2.0838	-3.2239	-15.1548	-14.8191	-14.6771	0
0.1940	-189.971	4.33587	-22.2094	-5.23068	-3.29809	-5.05121	-13.6265	-28.2715	-15.2993	0
0.1947	-153.957	2.21758	-15.7818	-3.38727	-1.77647	-4.45081	-8.13384	-37.4107	-15.2993	0
0.1953	-105.136	-2.08519	-9.38157	-1.5669	-0.554679	-2.9237	-6.91326	-43.2187	-15.2993	-0.320633
0.1960	-67.2756	-7.57949	-7.84988	-2.78816	-2.0838	-4.75101	-12.1033	-48.3862	-15.5921	-0.320633
0.1967	-61.7951	-11.2203	-6.01733	-3.08771	-2.69094	-5.97792	-10.575	-53.5964	-16.2143	0
0.1973	-65.1505	-12.4449	-2.68045	-0.645193	-1.77647	-4.45081	-3.86178	-63.3334	-16.7999	-0.320633
0.1980	-44.403	-13.6696	-3.58305	-0.944748	-2.69094	-5.36446	-1.11289	-72.2163	-16.7999	-0.320633
0.1987	-3.52316	-13.0738	-4.81386	-1.86645	-3.60542	-5.66466	-0.502596	-66.7072	-15.8849	-0.320633
0.1993	59.9496	-9.69778	-3.58305	-0.345639	-2.69094	-3.2239	1.32829	-51.1621	-15.5921	0
0.2000	126.778	-8.77103	-3.88391	-0.345639	-3.29809	-2.61044	2.54888	-38.0086	-15.5921	0.320633
0.2007	114.587	-7.24851	-6.34555	-0.944748	-4.22006	-2.31024	5.29264	-27.332	-15.8849	-0.320633
0.2013	61.7951	-1.15844	-7.24815	0.576066	-2.69094	-0.783133	7.73382	-18.4918	-16.2143	-0.9619
0.2020	93.2239	3.7401	-7.54901	2.09688	-1.46915	-0.169679	-8.44156	-13.9222	-15.5921	0
0.2027	165.253	4.33587	-9.9833	1.19822	-2.69094	-1.09639	-35.2945	-13.2816	-15.5921	0.320633
0.2033	218.939	6.15627	-13.0467	0.576066	-3.60542	-1.39659	-46.5875	-9.95056	-16.7999	-0.320633
0.2040	230.236	10.4259	-13.9766	1.49777	-2.38362	-0.783133	-47.8081	-2.30614	-17.4221	-0.320633
0.2047	103.626	14.0998	-16.7118	0.276511	-2.99827	-1.39659	-47.1978	4.99663	-18.3372	-0.320633
0.2053	-71.2461	18.3695	-21.5803	0.276511	-4.51989	-2.9237	-36.2125	9.90785	-18.3372	-0.641267
0.2060	-121.633	22.3413	-21.9086	2.09688	-3.60542	-2.31024	-21.5603	14.7764	-17.715	-0.320633
0.2067	-116.712	22.0434	-20.6777	1.79732	-3.29809	-2.9237	-25.8324	14.1785	-18.3372	0
0.2073	-125.268	19.2963	-20.9786	0.87562	-4.82721	-4.45081	-35.6022	6.53406	-18.9594	0
0.2080	-89.8686	16.5491	-19.146	0.87562	-4.82721	-4.13755	-25.2221	-5.38099	-18.9594	0
0.2087	-46.8636	10.4259	-15.4809	0.87562	-4.82721	-3.83735	-7.52355	-19.3886	-19.8744	-0.320633
0.2093	-39.5377	3.40912	-12.1441	-0.645193	-5.74168	-5.05121	4.68235	-30.1079	-20.46	-0.320633
0.2100	-16.6651	0.992947	-6.94728	-0.0230426	-3.60542	-3.2239	16.8882	-34.0369	-19.545	0
0.2107	-23.3759	1.8866	-4.513	1.49777	-1.77647	-2.31024	26.6581	-35.2754	-18.9594	-0.320633
0.2113	-83.7729	1.58871	-7.84988	0.276511	-2.69094	-4.75101	31.5404	-38.6492	-19.545	-0.320633
0.2120	-140.87	2.21758	-9.38157	0.276511	-2.38362	-3.2239	36.4228	-40.7845	-18.9594	0
0.2127	-195.452	3.7401	-10.9132	0.576066	-2.69094	-2.01004	42.218	-38.0086	-18.3372	0
0.2133	-231.802	6.15627	-14.8792	-0.645193	-3.91274	-2.61044	51.3725	-31.6026	-18.63	-0.320633
0.2140	-226.601	8.90342	-15.7818	1.19822	-2.99827	-0.482932	68.4658	-21.225	-18.0444	0
0.2147	-204.623	9.23441	-13.3475	2.09688	-0.862002	1.04418	82.5026	-8.41313	-16.7999	0
0.2153	-207.363	7.08302	-14.2775	-0.645193	-2.0838	-0.783133	73.0405	-2.60508	-17.1293	0.320633
0.2160	-229.341	5.85839	-14.8792	-1.2443	-2.69094	0.130522	49.8493	-3.54462	-17.715	0
0.2167	-245.223	7.08302	-11.8158	1.79732	0.359792	2.87149	38.864	-2.60508	-17.1293	-0.320633
0.2173	-258.924	5.5605	-12.4449	0.87562	0.359792	2.57129	30.9301	-4.44145	-16.7999	0
0.2180	-251.598	0.992947	-13.6484	-1.5669	-0.862002	3.18474	22.0783	-10.8474	-17.1293	0
0.2187	-190.307	0.992947	-8.47896	1.49777	3.1107	8.67973	23.9092	-12.6838	-16.2143	0
0.2193	-128.959	1.8866	-6.01733	2.71903	4.63232	10.507	22.0783	-10.8474	-15.8849	-0.320633
0.2200	-118.893	0.0661965	-11.515	-2.78816	0.974437	6.53916	6.51323	-9.65161	-17.4221	-0.320633
0.2207	-93.2239	3.11123	-14.5784	-3.68682	1.88891	7.76607	-3.25149	-2.94673	-17.715	0.320633
0.2213	-36.7975	10.1281	-14.5784	-0.345639	6.16144	12.6476	-3.5592	5.63723	-16.7999	0.320633
0.2220	15.7144	13.802	-20.076	-3.08771	5.24697	10.507	-8.44156	7.43089	-18.0444	-0.320633
0.2227	91.9936	17.1449	-24.6437	-5.82978	4.93965	8.36647	-12.1033	8.37043	-19.2522	-0.320633
0.2233	165.533	21.4146	-21.9086	-3.38727	8.2977	11.7339	-8.13384	11.4026	-18.0444	-0.320633
0.2240	180.184	22.3413	-20.9786	-2.78816	8.2977	12.3343	-5.39008	12.94	-18.0444	-0.320633
0.2247	142.996	19.5942	-22.2094	-5.53023	5.85412	9.28013	-6.91326	13.5379	-18.63	0
0.2253	128.623	18.3695	-18.2435	-4.60852	6.46127	9.28013	-4.47208	13.2389	-17.1293	0
0.2260	181.135	14.7287	-13.0467	-3.08771	6.76859	10.2068	-0.502596	5.63723	-15.5921	0
0.2267	222.015	5.5605	-12.1441	-5.82978	3.71785	5.92571	-4.47208	-11.7869	-16.2143	0
0.2273	203.113	-2.68096	-7.24815	-6.12934	3.71785	5.32531	-6.00038	-27.9726	-15.5921	-0.320633
0.2280	174.984	-5.13023	0.0820545	-2.78816	6.76859	8.06627	-1.72319	-34.0369	-13.762	-0.320633
0.2287	166.483	-6.95063	-1.7505	-3.68682	5.24697	5.32531	-2.64119	-37.7096	-13.4692	0
0.2293	158.207	-8.17526	-6.01733	-6.45193	2.49606	2.87149	-5.39008	-40.1439	-13.4692	-0.320633
0.2300	122.528	-6.95063	-5.11473	-5.23068	3.1107	5.32531	-3.25149	-37.4107	-12.2248	-0.320633
0.2307	95.0694	-5.72599	-4.81386	-3.68682	3.71785	6.23896	-1.72319	-30.1079	-11.3098	-0.320633
0.2313	97.4741	-4.83234	-7.84988	-5.23068	2.49606	3.18474	-4.16949	-22.4635	-11.0169	-0.641267
0.2320	73.0916	-0.529572	-6.34555	-4.00942	4.02517	4.3986	-3.25149	-13.2816	-9.80911	-0.320633
0.2327	27.2905	3.11123	-3.58305	-1.86645	5.85412	7.15262	1.02058	-6.57676	-8.56467	0.320633
0.2333	9.61879	0.661965	-5.11473	-3.68682	3.71785	4.3986	-0.502596	-9.65161	-8.56467	0
0.2340	13.5893	-4.20347	-3.88391	-4.90808	1.58159	1.95783	-5.69267	-16.3565	-7.64964	-0.9619
0.2347	10.8491	-6.95063	2.21547	-2.78816	4.02517	4.0984	-8.74414	-20.0292	-5.81958	-0.641267
0.2353	-21.81	-7.57949	5.25149	-0.645193	5.54679	5.62551	-10.8827	-21.524	-4.61175	0
0.2360	-92.9443	-6.35486	1.61374	-1.86645	3.71785	3.48494	-14.5445	-22.1645	-4.31894	-0.320633
0.2367	-168.944	-3.27672	-0.54703	-2.16601	4.02517	4.0984	-14.2368	-19.3886	-3.40391	-0.320633
0.2373	-177.444	0.364081	-1.7505	-0.645193	4.93965	5.62551	-12.1033	-11.1463	-2.15947	0
0.2380	-105.471	2.81335	-4.18478	-0.645193	3.71785	4.3986	-12.1033	-0.811419	-0.95163	0.320633
0.2387	-53.5744	2.21758	-4.513	-1.86645	1.27426	3.48494	-11.7956	4.69769	-0.0366012	0
0.2393	-39.8173	0.992947	-2.68045	-0.944748	0.0524697	4.3986	-11.1853	2.86132	0.878428	-0.320633
0.2400	-13.8689	1.58871	-0.847897	0.87562	0.974437	5.62551	-11.493	1.96449	1.50065	-0.320633
0.2407	15.994	1.58871	-0.218812	0.87562	0.359792	4.0984	-11.493	4.0998	2.12287	0
0.2413	42.8931	0.661965	0.382921	0.276511	-0.247357	3.18474	-16.3754	5.29558	2.41568	0
0.2420	72.4764	0.992947	0.984654	0.276511	0.359792	3.48494	-24.0015	4.99663	2.12287	0
0.2427	95.6846	0.364081	0.984654	-0.345639	0.667114	3.48494	-25.8324	3.80086	1.79346	-0.320633
0.2433	107.876	-1.15844	0.683788	-2.16601	-0.554679	2.57129	-25.2221	-0.811419	2.12287	-0.320633
0.2440	118.837	-3.27672	2.21547	-2.78816	-0.862002	3.48494	-23.3912	-6.87571	2.12287	-0.320633
0.2447	141.765	-3.27672	4.04802	-0.645193	1.27426	6.23896	-18.5089	-8.71208	2.41568	0
0.2453	174.424	-1.15844	4.04802	-0.0230426	2.80338	7.45282	-12.1033	-5.67993	2.41568	-0.320633
0.2460	154.236	-0.231688	1.91461	-1.86645	1.88891	6.53916	-5.69267	-2.94673	1.79346	-0.320633
0.2467	70.631	-0.860554	0.683788	-2.16601	1.27426	7.76607	1.93858	-0.811419	1.50065	-0.320633
0.2473	37.9718	0.0661965	1.91461	-2.46556	3.1107	9.59338	12.0059	1.96449	1.79346	0
0.2480	66.0453	1.8866	1.28552	-4.60852	4.325	8.36647	16.5857	2.56238	1.50065	-0.320633
0.2487	63.6406	2.81335	-1.7505	-6.45193	4.02517	6.83936	15.3651	2.26343	0.585618	-0.320633
0.2493	37.0771	2.81335	-1.7505	-6.45193	4.63232	6.83936	14.7548	2.86132	0.585618	-0.320633
0.2500	39.2022	2.81335	-1.7505	-6.45193	4.93965	5.32531	13.8368	2.86132	1.20784	-0.320633
0.2507	71.5817	4.03798	-3.88391	-6.45193	4.93965	4.71185	12.0059	2.56238	1.50065	-0.320633
0.2513	88.6382	5.85839	-3.88391	-4.90808	6.16144	5.92571	12.3136	2.86132	2.70849	-0.320633
0.2520	75.2167	5.85839	-3.28218	-5.53023	6.16144	5.01205	11.3956	1.96449	3.62351	-0.320633
0.2527	45.0182	3.11123	-5.4156	-7.67319	4.63232	1.95783	8.34411	-2.30614	3.33071	-0.320633
0.2533	-6.2634	0.364081	-5.11473	-7.3506	4.325	1.65763	6.21065	-5.67993	3.62351	-0.320633
0.2540	-66.6604	-0.529572	-2.37958	-5.82978	4.63232	2.27109	4.07205	-7.5163	4.24573	0
0.2547	-97.53	-2.38307	-2.37958	-4.90808	4.02517	-0.169679	0.717994	-11.488	4.53854	-0.320633
0.2553	-104.241	-3.27672	-2.05136	-4.30897	4.325	-0.482932	-0.810307	-15.4597	4.53854	-0.320633
0.2560	-107.876	-2.68096	-0.218812	-4.90808	4.93965	2.27109	-1.11289	-17.8939	4.86795	0
0.2567	-71.5817	-2.08519	-2.05136	-7.97275	3.71785	2.27109	-5.08237	-17.8939	4.86795	0
0.2573	-14.8196	0.0661965	-4.81386	-9.19401	2.80338	1.04418	-8.74414	-15.118	4.24573	-0.320633
0.2580	-3.80278	3.11123	-4.81386	-6.45193	3.41053	1.95783	-7.22097	-13.6233	4.86795	-0.320633
0.2587	-15.0993	4.63375	-4.18478	-0.645193	4.325	2.27109	-4.16949	-13.6233	6.3686	-0.320633
0.2593	-15.0993	3.11123	-4.513	4.83895	3.41053	1.35743	-2.64119	-13.6233	7.28363	-0.320633
0.2600	14.2045	0.364081	-3.58305	6.38281	3.1107	2.87149	0.107699	-13.6233	8.19866	0
0.2607	73.0916	-1.15844	-0.54703	6.38281	4.325	6.53916	4.99006	-11.1463	8.19866	0
0.2613	102.675	-1.75421	-1.44963	3.94029	3.71785	5.62551	6.21065	-9.01102	6.3686	-0.641267
0.2620	106.366	-0.529572	-2.98131	0.276511	3.71785	5.32531	6.51323	-7.81524	3.95292	-0.9619
0.2627	155.466	2.51547	-0.54703	-0.0230426	6.16144	9.28013	11.093	-2.00719	3.33071	0
0.2633	147.246	2.81335	-2.68045	-2.46556	4.325	9.89358	12.3136	3.16026	1.50065	0.320633
0.2640	-86.8487	2.51547	-7.84988	-7.05104	1.58159	8.36647	10.4827	3.50191	-2.15947	0
0.2647	-315.686	4.63375	-6.34555	-7.05104	3.41053	11.4207	16.5857	2.86132	-4.31894	-0.320633
0.2653	-304.11	6.48725	-4.18478	-7.97275	5.24697	13.8615	22.0783	4.69769	-5.23397	-0.320633
0.2660	-239.128	7.3809	-6.64641	-12.8578	4.325	12.3343	16.2779	6.23511	-6.73461	0
0.2667	-220.17	8.00977	-7.54901	-14.9777	4.02517	11.7339	9.5647	5.63723	-6.73461	0
0.2673	-165.589	7.67879	-7.84988	-15.8994	3.41053	11.4207	6.51323	1.02495	-5.81958	-0.320633
0.2680	-91.9936	6.15627	-9.9833	-18.6415	2.18874	9.89358	3.46176	-3.24568	-5.81958	0
0.2687	-51.4493	6.48725	-9.68243	-18.0424	2.49606	8.97993	1.63087	-2.00719	-4.90455	0.320633
0.2693	-26.7313	7.3809	-9.68243	-15.5999	1.88891	8.06627	0.717994	0.726006	-2.48888	0
0.2700	7.77332	6.15627	-10.6124	-15.5999	-0.247357	6.23896	-0.200013	1.02495	-0.0366012	0
0.2707	27.9057	3.7401	-8.47896	-15.5999	-1.46915	3.48494	-0.502596	0.427063	2.41568	0
0.2713	14.4841	1.29083	-4.513	-12.2356	-1.16183	2.57129	0.717994	-0.170825	5.16076	-0.320633
0.2720	15.0993	-1.75421	-1.44963	-7.3506	-1.16183	2.87149	1.32829	-1.11036	8.52807	-0.320633
0.2727	31.5966	-4.83234	-1.44963	-4.90808	-1.77647	1.65763	0.107699	-2.94673	10.9437	-0.320633
0.2733	35.2316	-4.83234	-2.68045	-5.23068	-2.0838	0.430723	-0.502596	-4.44145	12.1882	0
0.2740	58.7193	-3.27672	-2.68045	-5.23068	-1.46915	0.130522	0.410282	-3.24568	14.0182	-0.320633
0.2747	102.395	-2.08519	-2.68045	-1.5669	-1.46915	-1.09639	0.107699	-0.469769	17.0561	-0.320633
0.2753	139.584	0.364081	-2.68045	4.83895	-0.247357	-1.39659	1.63087	1.66554	18.5934	0
0.2760	130.748	2.81335	-5.4156	9.12488	0.0524697	-2.01004	3.15917	1.3666	19.8012	0
0.2767	89.8686	3.11123	-10.3115	13.0882	-2.99827	-4.13755	2.85146	-2.60508	22.5463	-0.320633
0.2773	88.0231	3.7401	-11.515	19.7936	-4.22006	-5.66466	3.15917	-5.97888	26.8286	0
0.2780	72.1409	4.33587	-12.1441	23.78	-3.60542	-6.27812	3.15917	-7.81524	28.9515	0
0.2787	-2.01323	3.7401	-13.9766	21.0149	-3.29809	-6.57832	2.54888	-9.95056	26.5358	0
0.2793	-47.7584	3.40912	-13.3475	16.752	-2.38362	-5.36446	1.93858	-12.3848	21.3385	0
0.2800	-34.952	3.7401	-10.6124	16.4524	-0.862002	-4.13755	0.410282	-12.6838	17.9712	0
0.2807	-22.7607	2.51547	-10.9132	17.0515	-2.0838	-6.57832	-5.08237	-12.9827	16.7633	-0.641267
0.2813	-5.64824	0.661965	-11.8158	16.752	-3.29809	-7.80523	-11.493	-13.2816	16.1411	-0.320633
0.2820	49.2683	-0.529572	-9.38157	17.3511	-2.69094	-6.57832	-13.6265	-12.3848	16.1411	0
0.2827	114.307	-3.90559	-8.77983	17.0515	-4.22006	-8.41868	-17.8986	-13.9222	15.8483	0
0.2833	160.388	-7.24851	-8.1781	16.1529	-5.43436	-9.01908	-23.0886	-18.1929	16.1411	0
0.2840	188.741	-7.57949	-4.81386	16.752	-4.22006	-6.27812	-22.1706	-19.0897	17.0561	0
0.2847	196.961	-7.24851	-5.11473	16.1529	-5.43436	-6.89157	-21.5603	-19.3886	16.4339	0
0.2853	190.866	-8.17526	-9.68243	10.9452	-8.18527	-9.33234	-24.6118	-22.1645	14.3111	-0.320633
0.2860	190.866	-7.57949	-7.84988	6.68236	-7.2708	-6.27812	-21.2577	-22.1645	13.6888	-0.320633
0.2867	200.037	-7.24851	-5.11473	3.31814	-6.65615	-5.05121	-19.1192	-21.8656	14.3111	0
0.2873	204.903	-9.3999	-6.94728	-1.86645	-9.70689	-8.10543	-22.1706	-22.1645	13.1032	0
0.2880	154.572	-7.57949	-6.01733	-4.90808	-10.0142	-6.89157	-18.5089	-17.8939	12.7738	0
0.2887	-5.03309	-2.68096	-2.98131	-5.53023	-7.87795	-2.9237	-10.575	-11.488	13.1032	0
0.2893	-186.951	-0.529572	-5.71646	-6.45193	-9.70689	-3.83735	-8.74414	-9.35267	11.8588	-0.320633
0.2900	-255.904	-0.529572	-9.9833	-6.12934	-12.4578	-6.27812	-10.2724	-8.41313	10.3581	-0.320633
0.2907	-221.4	1.29083	-8.77983	-2.16601	-11.8432	-4.45081	-6.91326	-5.38099	11.2732	-0.320633
0.2913	-178.675	1.58871	-7.84988	1.79732	-12.1505	-4.13755	-4.47208	-4.14251	12.481	-0.9619
0.2920	-147.581	0.992947	-8.77983	1.79732	-14.2867	-5.36446	-2.9489	-4.44145	12.7738	-0.320633
0.2927	-85.6184	0.992947	-6.01733	0.87562	-12.7651	-3.2239	3.46176	-4.44145	12.1882	0.320633
0.2933	-24.8858	-0.529572	-2.98131	-0.0230426	-10.9287	-1.39659	9.26212	-4.14251	10.3581	0
0.2940	8.05294	-2.68096	-4.18478	-1.86645	-11.8432	-2.31024	9.87242	-5.08204	8.82088	-0.320633
0.2947	51.1138	-2.38307	-5.11473	-1.2443	-11.5433	-2.01004	9.87242	-6.57676	9.73591	0
0.2953	86.5132	-1.15844	-2.98131	0.87562	-10.0142	-0.783133	11.093	-7.5163	9.73591	0
0.2960	42.5575	-2.38307	-4.18478	0.576066	-9.40706	-2.31024	9.5647	-9.65161	9.11369	0
0.2967	-50.4986	-2.68096	-5.71646	-0.944748	-7.57062	-2.31024	8.65183	-11.1463	7.28363	-0.320633
0.2973	-73.0916	1.29083	-3.28218	0.87562	-3.60542	1.95783	12.9239	-6.87571	5.45357	-0.320633
0.2980	-26.3957	5.26262	-5.11473	2.71903	-2.0838	2.27109	14.7548	-1.70825	5.16076	-0.320633
0.2987	4.69755	6.78514	-10.6124	3.94029	-2.99827	-1.39659	11.093	0.427063	5.78298	0
0.2993	-16.05	8.60554	-9.9833	8.20317	-1.77647	-0.169679	12.3136	3.50191	7.61304	-0.320633
0.3000	-82.5426	10.1281	-7.84988	10.0466	-0.247357	1.04418	14.4471	6.833	9.11369	-0.320633
0.3007	-131.084	7.67879	-8.77983	6.98191	-1.77647	-2.01004	10.7853	4.99663	8.52807	0
0.3013	-134.104	4.93164	-3.88391	7.28147	0.359792	-0.783133	11.3956	1.96449	7.61304	0
0.3020	-113.356	3.11123	4.34889	10.3461	4.93965	3.48494	16.2779	0.427063	7.28363	-0.320633
0.3027	-85.0032	-0.860554	4.34889	6.06021	3.41053	2.27109	12.6162	-3.24568	5.45357	-0.320633
0.3033	-79.5228	-5.13023	1.91461	0.276511	1.58159	0.130522	8.04153	-7.5163	3.95292	0
0.3040	-94.7898	-5.42811	5.25149	-0.0230426	4.63232	3.18474	10.4827	-8.41313	3.0379	0.320633
0.3047	-95.9642	-2.38307	2.8172	-1.2443	4.93965	3.48494	10.7853	-7.21736	3.0379	0
0.3053	-82.8782	4.03798	-6.34555	-6.12934	3.71785	0.130522	7.12352	-4.44145	3.0379	-0.320633
0.3060	-113.356	10.4259	-6.64641	-9.19401	5.85412	3.18474	9.26212	-0.170825	2.70849	-0.320633
0.3067	-181.415	12.8752	-4.513	-11.3139	5.85412	4.71185	10.4827	2.86132	1.79346	-0.320633
0.3073	-162.233	12.5773	-9.38157	-13.1573	2.18874	0.430723	6.21065	5.63723	1.50065	-0.320633
0.3080	-15.0993	11.9816	-9.68243	-12.8578	1.88891	-1.09639	4.37976	9.90785	2.12287	-0.320633
0.3087	115.202	11.6506	-5.71646	-12.2356	3.1107	-0.169679	4.37976	12.6411	2.70849	0
0.3093	131.699	10.4259	-6.94728	-12.2356	0.667114	-2.61044	1.32829	13.2389	3.33071	-0.320633
0.3100	118.837	6.48725	-5.11473	-5.82978	0.359792	-4.13755	0.107699	8.66937	4.53854	-0.320633
0.3107	120.403	-0.529572	4.64976	3.94029	3.41053	-1.39659	3.46176	-5.08204	6.69801	-0.320633
0.3113	86.1776	-7.24851	8.61572	6.98191	2.18874	-2.61044	2.24117	-17.8939	6.99082	-0.320633
0.3120	50.7782	-10.6245	7.71312	4.23984	-1.16183	-5.66466	-2.0309	-19.0897	5.78298	-0.320633
0.3127	77.0621	-11.2203	11.05	2.41948	-0.554679	-4.45081	-1.11289	-13.6233	4.24573	0
0.3133	116.432	-11.5182	12.2808	0.576066	-0.554679	-3.83735	-1.72319	-12.3848	1.79346	0.320633
0.3140	123.143	-10.3266	8.61572	-0.645193	-3.29809	-5.05121	-5.69267	-14.2212	-0.32941	0
0.3147	132.594	-3.90559	9.21746	4.5394	-1.77647	-1.69679	-3.25149	-10.8474	0.585618	0
0.3153	133.209	0.661965	10.1474	9.42443	-0.554679	-0.169679	-1.4206	-8.41313	1.79346	0
0.3160	70.9665	-1.45632	6.48231	6.06021	-4.82721	-4.45081	-6.61067	-11.488	1.50065	-0.320633
0.3167	-14.2045	-4.20347	5.57971	3.31814	-7.87795	-5.36446	-9.35443	-13.9222	0.585618	-0.320633
0.3173	-30.0867	-2.97884	8.01399	2.71903	-7.2708	-2.9237	-6.91326	-12.3848	0.878428	-0.320633
0.3180	-9.8984	-1.15844	6.18144	-2.78816	-7.87795	-3.53715	-6.91326	-9.35267	-0.32941	0
0.3187	-42.2779	1.58871	2.21547	-9.49356	-8.49259	-4.13755	-8.74414	-4.74039	-2.78169	0
0.3193	-81.6479	6.78514	2.21547	-10.4153	-5.74168	-1.09639	-6.61067	0.726006	-3.40391	-0.320633
0.3200	-98.7044	8.60554	1.91461	-9.79311	-5.43436	-1.39659	-5.39008	1.3666	-2.48888	0
0.3207	-119.508	6.78514	0.984654	-4.90808	-7.57062	-3.83735	-6.30296	1.66554	-0.658821	0
0.3213	-93.2239	5.26262	3.11807	9.12488	-7.2708	-3.53715	-6.00038	3.16026	1.50065	-0.9619
0.3220	-32.4914	3.11123	6.18144	23.4574	-6.049	-2.9237	-5.08237	-0.469769	3.33071	-0.9619
0.3227	-0.447385	-1.75421	8.61572	30.7849	-6.65615	-5.05121	-6.30296	-8.71208	5.16076	0.320633
0.3233	20.5797	-4.50136	12.5817	33.8496	-5.43436	-3.53715	-5.69267	-13.6233	5.45357	0
0.3240	58.7193	-3.60771	15.3442	31.7066	-2.99827	-0.783133	-2.64119	-12.3848	3.33071	-0.320633
0.3247	98.4248	-3.90559	12.5817	24.0795	-3.91274	-2.61044	-3.86178	-6.27782	1.20784	0
0.3253	116.712	-4.20347	10.7491	18.2728	-4.51989	-3.2239	-5.39008	0.427063	-0.32941	0
0.3260	143.555	-4.20347	12.2808	16.4524	-2.69094	-0.783133	-3.86178	2.56238	-0.658821	0
0.3267	153.957	-5.13023	10.7491	13.3878	-2.69094	-1.09639	-4.47208	0.726006	-0.95163	0
0.3273	86.1776	-3.27672	8.31486	9.72399	-2.38362	-0.783133	-5.39008	0.427063	-1.86666	-0.320633
0.3280	52.9593	1.29083	9.84654	6.98191	0.359792	3.48494	-2.0309	3.80086	-2.78169	-0.320633
0.3287	108.771	3.7401	9.21746	-1.86645	1.27426	5.01205	-0.502596	3.80086	-5.52677	-0.320633
0.3293	139.92	2.81335	4.95062	-16.5216	-0.247357	3.7982	-3.25149	-0.170825	-9.4797	-0.320633
0.3300	126.778	4.03798	4.34889	-29.3333	-0.554679	4.3986	-3.86178	0.128119	-11.3098	0
0.3307	108.491	6.48725	4.95062	-41.2233	0.0524697	5.32531	-2.0309	3.80086	-10.7241	-0.320633
0.3313	92.9443	5.26262	2.51634	-44.887	-2.0838	0.743977	-3.25149	3.16026	-6.14899	0
0.3320	101.78	4.63375	4.34889	-36.6608	-2.0838	-2.61044	-3.86178	2.26343	0.585618	0
0.3327	104.8	3.7401	9.54567	-30.255	-1.46915	-1.39659	-2.64119	1.02495	4.86795	-0.320633
0.3333	35.2316	-1.45632	10.7491	-25.3699	-4.82721	-4.13755	-6.00038	-5.67993	7.61304	-0.320633
0.3340	-79.1872	-4.83234	10.1474	-13.7564	-6.65615	-8.41868	-9.05185	-8.71208	12.481	-0.320633
0.3347	-158.542	-2.68096	10.4483	1.79732	-5.43436	-8.71888	-8.44156	-4.14251	17.0561	-0.320633
0.3353	-179.905	0.364081	8.61572	11.867	-6.049	-9.01908	-9.05185	-0.170825	18.5934	-0.320633
0.3360	-144.785	1.8866	4.95062	14.0099	-7.57062	-9.63254	-10.575	0.128119	17.6784	-0.320633
0.3367	-98.7044	2.51547	5.88057	15.8303	-5.74168	-6.89157	-8.74414	0.128119	16.4339	-0.320633
0.3373	-103.29	1.29083	8.91659	16.752	-5.13453	-5.97792	-7.22097	-0.170825	15.8483	-0.320633
0.3380	-123.478	-1.45632	8.31486	11.2678	-7.2708	-8.10543	-9.35443	-1.11036	14.3111	0
0.3387	-100.885	-2.08519	7.41226	-0.0230426	-6.96348	-7.19177	-9.66215	-2.60508	10.6509	0
0.3393	-45.9129	-1.15844	6.78317	-11.0144	-5.13453	-5.05121	-8.44156	-5.38099	5.78298	0
0.3400	6.2634	-1.45632	3.41894	-14.3786	-6.35633	-5.66466	-9.96473	-8.71208	3.62351	0
0.3407	37.9718	-0.529572	3.41894	-9.19401	-5.13453	-5.36446	-8.74414	-7.21736	4.86795	-0.641267
0.3413	12.6386	2.81335	6.78317	-2.16601	-3.29809	-5.36446	-5.39008	0.128119	7.61304	-0.9619
0.3420	-51.4493	4.93164	5.88057	3.64073	-5.43436	-8.10543	-6.00038	5.93617	10.0287	0
0.3427	-46.8636	3.7401	4.95062	9.12488	-7.2708	-9.63254	-8.74414	6.53406	11.566	0
0.3433	-4.41793	0.364081	9.54567	11.867	-5.43436	-7.80523	-8.44156	4.99663	12.1882	0
0.3440	-33.7217	-3.90559	10.7491	10.0466	-4.51989	-7.80523	-7.52355	4.69769	10.6509	0
0.3447	-86.2336	-5.72599	8.91659	6.38281	-5.13453	-8.71888	-8.44156	7.13194	8.19866	0
0.3453	-73.0916	-3.27672	12.2808	6.38281	-3.29809	-5.05121	-5.69267	13.5379	6.69801	-0.320633
0.3460	-12.9742	-0.231688	13.5116	6.06021	-1.46915	-2.31024	-3.86178	15.3743	6.3686	-0.320633
0.3467	13.8689	0.0661965	8.91659	1.49777	-2.99827	-3.83735	-6.00038	6.23511	5.45357	0
0.3473	-1.06254	-1.45632	8.01399	-1.5669	-4.22006	-4.13755	-6.61067	-2.60508	3.95292	-0.320633
0.3480	1.06254	-2.38307	10.4483	-0.645193	-2.69094	-2.01004	-4.47208	-2.00719	2.70849	0
0.3487	11.4643	-4.83234	10.1474	-2.78816	-3.29809	-2.61044	-5.08237	1.02495	2.12287	0
0.3493	11.7439	-5.72599	12.8826	-3.68682	-2.0838	-1.39659	-4.47208	4.99663	2.12287	0
0.3500	23.6555	-3.60771	15.9459	-0.944748	0.0524697	1.95783	-1.4206	8.66937	3.0379	0
0.3507	43.1727	-3.60771	12.2808	-2.78816	-2.0838	0.130522	-3.25149	8.96831	2.12287	-0.320633
0.3513	58.7193	-2.68096	8.91659	-3.38727	-2.69094	-1.09639	-5.39008	9.5662	0.256208	-0.9619
0.3520	61.7951	0.992947	10.4483	2.09688	-0.247357	1.95783	-2.9489	12.3421	2.41568	-0.641267
0.3527	24.2707	0.992947	8.01399	4.23984	-2.0838	0.430723	-3.5592	11.7015	4.53854	0
0.3533	-18.4547	0.0661965	5.25149	4.83895	-4.51989	-1.69679	-5.39008	9.90785	5.16076	-0.320633
0.3540	-19.685	4.03798	6.48231	9.42443	-2.0838	1.65763	-1.11289	13.5379	6.69801	-0.320633
0.3547	-22.7607	8.90342	2.21547	10.9452	-2.38362	1.95783	0.717994	14.4774	8.19866	-0.320633
0.3553	-18.7902	10.1281	-5.71646	9.12488	-4.51989	-1.69679	-3.25149	6.53406	8.82088	0
0.3560	-31.8762	9.53229	-8.47896	9.72399	-4.22006	-2.01004	-4.77979	0.128119	9.4431	-0.320633
0.3567	-149.371	8.60554	-7.54901	10.9452	-4.51989	-2.01004	-4.77979	1.3666	9.73591	-0.320633
0.3573	-217.765	6.15627	-6.94728	10.0466	-6.049	-3.53715	-6.91326	2.56238	8.52807	0
0.3580	-72.812	6.78514	-3.58305	12.7887	-2.99827	-1.39659	-4.77979	4.99663	8.52807	0
0.3587	78.9076	8.90342	-1.7505	15.2312	-0.554679	0.430723	-1.11289	8.96831	9.73591	0
0.3593	79.4668	6.48725	-5.11473	10.3461	-4.22006	-2.9237	-4.16949	5.29558	9.73591	0
0.3600	55.3639	1.8866	-3.88391	4.5394	-6.049	-4.45081	-6.30296	-0.811419	8.82088	0
0.3607	62.4103	-1.45632	2.21547	2.09688	-5.43436	-2.61044	-5.08237	-2.00719	7.61304	0
0.3613	90.7633	-4.20347	3.11807	-0.944748	-7.57062	-4.13755	-7.22097	-1.40931	6.99082	-0.320633
0.3620	165.253	-1.45632	2.8172	0.276511	-7.57062	-3.83735	-8.13384	-0.469769	7.90585	-0.320633
0.3627	294.324	3.40912	7.71312	5.76066	-3.60542	0.130522	-4.47208	0.128119	9.4431	-0.320633
0.3633	353.546	2.81335	8.01399	4.83895	-4.51989	-0.169679	-4.47208	-2.60508	10.0287	-0.320633
0.3640	205.518	-0.860554	4.04802	-1.2443	-7.87795	-2.9237	-7.52355	-6.57676	9.11369	0
0.3647	36.7415	-1.75421	4.04802	-2.78816	-6.35633	-0.169679	-6.00038	-9.35267	7.61304	0
0.3653	-12.6946	-2.97884	2.21547	-4.60852	-5.43436	1.04418	-5.69267	-13.2816	6.69801	0
0.3660	-66.1012	-4.50136	-2.37958	-8.57186	-7.87795	-0.783133	-8.44156	-15.118	5.78298	0
0.3667	-81.6479	0.992947	0.382921	-7.3506	-5.13453	2.27109	-5.08237	-7.21736	5.45357	0
0.3673	-67.2756	8.90342	0.984654	-4.00942	-2.69094	3.7982	-1.72319	2.26343	6.07579	0
0.3680	-175.934	12.5773	-7.54901	-3.68682	-5.43436	0.130522	-4.77979	7.13194	6.69801	-0.320633
0.3687	-303.215	13.1731	-11.515	-3.38727	-5.43436	-0.169679	-5.39008	13.5379	7.61304	-0.320633
0.3693	-273.297	12.2794	-9.38157	-3.68682	-4.22006	1.65763	-3.5592	16.9117	7.61304	-0.320633
0.3700	-137.18	9.53229	-9.0807	-7.3506	-6.049	-0.783133	-5.39008	12.94	5.45357	-0.320633
0.3707	4.13832	7.08302	-5.4156	-11.0144	-5.74168	-0.482932	-4.47208	9.5662	3.33071	0
0.3713	116.712	6.78514	0.683788	-12.5352	-2.99827	3.18474	0.410282	7.77254	1.50065	0
0.3720	153.957	4.93164	1.61374	-14.3786	-3.60542	1.95783	0.107699	3.16026	0.585618	0
0.3727	39.5377	1.8866	-0.218812	-14.9777	-5.74168	-0.783133	-2.33348	0.128119	1.79346	-0.320633
0.3733	-112.462	0.661965	-0.218812	-10.4153	-5.43436	-0.482932	-2.33348	1.3666	4.24573	-0.320633
0.3740	-63.9202	-3.27672	1.61374	-4.90808	-5.74168	-1.39659	-2.9489	2.26343	7.90585	0
0.3747	86.1776	-7.87738	2.51634	0.276511	-6.35633	-3.2239	-2.9489	2.86132	12.1882	0
0.3753	159.437	-7.24851	4.34889	7.60407	-3.60542	-0.783133	0.717994	9.26726	16.4339	0
0.3760	189.636	-4.50136	3.11807	9.12488	-2.38362	0.743977	1.32829	14.1785	17.0561	0
0.3767	200.652	-3.27672	-3.88391	3.94029	-5.13453	-1.69679	-2.64119	13.2389	13.6888	-0.641267
0.3773	194.221	0.661965	-5.11473	3.64073	-3.29809	0.743977	-1.4206	13.8368	12.1882	-0.320633
0.3780	194.836	3.7401	-4.81386	3.64073	-1.16183	1.95783	0.410282	14.4774	10.9437	0
0.3787	177.78	1.58871	-6.64641	-0.345639	-2.99827	-0.783133	-3.25149	10.5057	8.82088	-0.320633
0.3793	76.1115	-2.08519	-0.218812	-0.0230426	-1.77647	1.04418	-3.5592	5.29558	8.19866	-0.320633
0.3800	-94.7898	-4.50136	4.95062	1.49777	-0.554679	3.48494	-1.4206	2.56238	9.4431	0
0.3807	-204.623	-7.57949	1.61374	-0.645193	-3.29809	0.430723	-3.86178	-0.170825	9.11369	-0.320633
0.3813	-196.682	-9.3999	1.28552	-0.944748	-3.91274	-0.783133	-6.00038	-4.44145	8.19866	-0.9619
0.3820	-131.699	-9.10201	4.64976	1.19822	-2.99827	1.35743	-4.16949	-8.71208	9.73591	-0.320633
0.3827	-103.011	-9.10201	1.91461	-1.2443	-5.43436	-0.783133	-4.77979	-12.0859	10.6509	0.320633
0.3833	-139.64	-8.47315	-0.847897	-3.68682	-7.2708	-2.61044	-6.61067	-12.9827	9.4431	-0.320633
0.3840	-165.868	-5.42811	2.8172	0.276511	-4.82721	-0.169679	-4.16949	-11.1463	10.0287	-0.641267
0.3847	-152.447	-5.13023	2.8172	2.71903	-5.13453	-0.169679	-3.25149	-9.95056	11.2732	-0.320633
0.3853	-139.64	-6.02388	-0.54703	-0.0230426	-7.2708	-1.69679	-5.39008	-9.95056	10.0287	0
0.3860	-172.579	-6.35486	0.382921	0.276511	-7.2708	-0.783133	-6.00038	-9.35267	9.11369	0
0.3867	-236.667	-8.47315	0.984654	1.19822	-8.18527	-1.39659	-7.22097	-10.8474	9.73591	-0.320633
0.3873	-252.214	-9.99566	0.683788	0.87562	-8.49259	-1.69679	-7.52355	-10.8474	9.73591	-0.320633
0.3880	-222.351	-8.17526	3.74716	3.94029	-5.74168	0.430723	-4.47208	-5.97888	9.11369	0
0.3887	-202.162	-6.35486	2.8172	4.5394	-5.74168	1.04418	-3.25149	-2.94673	9.4431	-0.320633
0.3893	-179.905	-5.72599	-2.68045	0.276511	-9.09974	-1.09639	-6.91326	-2.30614	8.52807	0
0.3900	-130.748	-1.45632	-5.4156	-1.86645	-9.09974	-0.482932	-7.52355	1.02495	6.99082	0.320633
0.3907	-98.1452	4.03798	-6.94728	-3.38727	-7.2708	1.95783	-5.69267	5.63723	5.78298	0
0.3913	-109.721	5.5605	-10.3115	-7.97275	-7.57062	1.65763	-6.61067	6.53406	3.0379	-0.320633
0.3920	-102.675	5.5605	-8.1781	-10.0927	-6.35633	3.18474	-4.16949	8.07148	1.50065	0
0.3927	-42.2779	7.08302	-4.513	-11.6365	-3.60542	6.23896	-0.502596	11.7015	2.12287	0.320633
0.3933	32.4914	5.5605	-6.01733	-15.3003	-3.60542	5.62551	-2.0309	12.3421	1.20784	-0.320633
0.3940	88.6382	2.21758	-6.34555	-16.5216	-4.82721	3.7982	-3.5592	8.96831	0.256208	-0.641267
0.3947	117.327	1.8866	-4.81386	-12.8578	-4.82721	4.0984	-1.4206	4.0998	2.12287	-0.641267
0.3953	118.557	0.661965	-4.18478	-9.19401	-5.43436	2.57129	-0.810307	0.128119	6.07579	-0.320633
0.3960	123.758	-2.68096	-1.7505	-8.2723	-5.74168	0.130522	-1.11289	0.128119	10.6509	-0.320633
0.3967	165.533	-2.08519	2.8172	-7.67319	-3.91274	1.65763	-0.200013	5.29558	14.3111	0
0.3973	207.363	0.992947	2.21547	-7.67319	-3.29809	1.35743	-0.200013	6.833	16.4339	0.320633
0.3980	208.258	0.661965	-2.68045	-9.49356	-5.74168	-2.01004	-2.64119	0.726006	15.8483	0
0.3987	190.866	-1.45632	-2.37958	-5.82978	-6.049	-2.31024	-2.33348	-4.74039	15.5189	-0.320633
0.3993	164.917	-2.97884	-1.7505	0.87562	-5.74168	-2.31024	-2.33348	-5.67993	17.6784	-0.320633
0.4000	127.393	-3.90559	-2.05136	4.23984	-6.35633	-3.53715	-4.47208	-5.08204	18.264	-0.320633
0.4007	95.349	-3.90559	-0.54703	7.28147	-4.82721	-3.53715	-3.86178	-3.24568	16.7633	-0.320633
0.4013	74.3219	-3.27672	0.683788	10.6457	-4.51989	-3.2239	-2.33348	-1.40931	16.1411	-0.320633
0.4020	47.4229	-4.83234	-0.847897	9.42443	-6.35633	-4.45081	-4.16949	-4.74039	15.2261	0
0.4027	23.32	-6.02388	-2.05136	6.06021	-7.57062	-4.13755	-5.39008	-10.5484	12.481	0
0.4033	19.685	-5.42811	-2.05136	5.4611	-7.2708	-2.9237	-4.77979	-12.3848	10.0287	-0.320633
0.4040	38.3074	-3.90559	-1.44963	6.06021	-7.2708	-2.31024	-4.77979	-8.71208	8.82088	-0.320633
0.4047	53.5744	-2.68096	0.683788	7.90362	-5.43436	-0.783133	-2.9489	-4.74039	9.11369	-0.320633
0.4053	48.3736	-1.45632	1.91461	8.82533	-3.29809	1.35743	0.107699	-2.94673	8.52807	0
0.4060	48.9887	0.364081	-0.218812	5.76066	-3.29809	2.57129	0.410282	-2.30614	4.53854	-0.320633
0.4067	48.3736	0.661965	-2.68045	1.19822	-4.82721	2.27109	-0.502596	-1.11036	-0.32941	-0.320633
0.4073	59.9496	0.661965	-2.68045	-1.86645	-4.51989	2.57129	0.410282	2.26343	-2.48888	-0.320633
0.4080	95.6846	0.992947	-1.44963	-3.08771	-3.29809	4.0984	1.02058	6.23511	-3.98953	-0.320633
0.4087	50.4986	0.992947	-0.54703	-4.30897	-2.38362	4.71185	0.410282	8.96831	-5.52677	0
0.4093	-75.8318	0.661965	0.382921	-6.75149	-0.862002	5.92571	0.410282	10.8047	-6.73461	0
0.4100	-139.305	1.29083	0.984654	-6.12934	1.27426	7.15262	1.02058	13.5379	-5.81958	0
0.4107	-118.278	1.8866	-2.98131	-3.68682	-0.554679	5.92571	-0.200013	14.4774	0.878428	0
0.4113	-65.1505	2.21758	-6.34555	-4.00942	-2.38362	5.01205	-1.72319	11.7015	5.16076	-0.9619
0.4120	16.9447	1.29083	-3.58305	-1.5669	-0.554679	6.53916	-1.11289	7.77254	2.41568	-0.9619
0.4127	129.518	2.21758	-1.7505	4.83895	0.0524697	7.45282	-0.502596	6.23511	0.585618	0
0.4133	171.349	5.26262	-2.98131	8.82533	-0.554679	6.83936	-0.502596	6.833	-1.86666	-0.320633
0.4140	106.366	7.08302	-1.7505	10.3461	0.0524697	6.83936	1.32829	5.93617	-9.18689	-0.320633
0.4147	50.219	4.63375	0.683788	7.90362	-0.554679	6.53916	1.93858	0.427063	-16.5071	-0.320633
0.4153	48.038	0.661965	1.28552	2.41948	-2.38362	5.62551	0.410282	-3.24568	-19.8744	-0.320633
0.4160	89.5889	-1.15844	0.984654	-3.08771	-2.69094	5.32531	-0.502596	-1.40931	-22.6195	-0.641267
0.4167	160.052	-2.38307	3.11807	-7.67319	-2.0838	6.23896	-0.200013	2.26343	-25.0718	-0.320633
0.4173	237.562	-3.60771	7.08404	-10.7148	-0.554679	8.06627	1.63087	5.93617	-21.9973	-0.320633
0.4180	183.54	-1.75421	8.01399	-9.79311	0.974437	7.76607	3.15917	8.37043	-9.4797	-0.320633
0.4187	-75.8318	4.03798	3.41894	-5.53023	0.974437	5.92571	2.85146	9.90785	3.62351	-0.320633
0.4193	-196.682	6.78514	-4.81386	-6.45193	-1.46915	3.18474	0.410282	9.90785	2.70849	-0.320633
0.4200	-93.5595	7.08302	-9.38157	-10.7148	-3.29809	1.65763	-1.11289	9.90785	-7.06402	-0.320633
0.4207	-90.2041	11.3527	-9.0807	-12.2356	-1.46915	3.7982	0.717994	13.8368	-14.6771	0
0.4213	-173.194	13.5041	-8.47896	-12.5352	-0.554679	3.48494	1.32829	14.1785	-18.3372	-0.320633
0.4220	-164.023	10.4259	-7.24815	-10.0927	-2.0838	0.130522	0.107699	8.37043	-25.0718	0
0.4227	-78.9076	8.00977	-2.98131	-8.2723	-2.0838	0.743977	1.02058	1.96449	-21.3751	0.320633
0.4233	-20.5797	4.93164	-1.14876	-13.4569	-2.0838	1.04418	1.02058	-4.74039	10.0287	0
0.4240	-29.7511	-0.529572	-2.68045	-16.199	-4.22006	-1.09639	-1.11289	-11.7869	25.6208	-0.320633
0.4247	-63.9202	-4.20347	0.984654	-4.60852	-2.69094	1.35743	0.410282	-12.3848	14.3111	-0.320633
0.4253	-71.5817	-6.35486	5.88057	9.42443	0.667114	5.01205	4.37976	-7.21736	14.3111	-0.320633
0.4260	-63.6406	-9.99566	5.57971	11.867	-0.862002	3.48494	3.15917	-6.57676	16.7633	-0.320633
0.4267	-82.263	-12.147	6.48231	9.12488	-2.38362	2.57129	0.717994	-10.8474	14.6039	-0.320633
0.4273	-107.261	-11.2203	8.91659	8.50273	-1.77647	4.0984	0.410282	-12.9827	17.3489	-0.320633
0.4280	-104.241	-10.6245	5.88057	8.20317	-2.99827	2.57129	-1.4206	-12.0859	22.8757	-0.320633
0.4287	-84.3881	-9.69778	2.51634	9.42443	-3.91274	1.95783	-1.72319	-9.95056	21.0091	-0.320633
0.4293	-66.6604	-6.65274	2.21547	9.72399	-3.91274	2.87149	-1.72319	-5.38099	-3.0745	0
0.4300	-49.2683	-3.90559	1.61374	7.60407	-4.22006	2.27109	-3.5592	0.128119	-20.7895	0
0.4307	-39.5377	-1.75421	1.28552	10.0466	-2.99827	2.87149	-2.9489	3.16026	-10.7241	-0.320633
0.4313	-48.9887	-0.231688	3.74716	11.5674	-0.554679	6.53916	0.107699	2.86132	-23.2417	-0.320633
0.4320	-55.6995	-0.529572	3.41894	6.06021	-0.862002	6.83936	-0.502596	0.726006	-59.2207	-0.320633
0.4327	-34.6165	-2.08519	0.382921	3.64073	-3.29809	4.71185	-2.9489	-0.469769	-72.0677	-0.320633
0.4333	8.05294	0.364081	-0.54703	4.5394	-3.29809	6.53916	-0.810307	1.02495	-65.6259	-0.320633
0.4340	41.3272	6.78514	-2.68045	3.94029	-1.46915	8.67973	2.24117	4.99663	-41.5423	-0.320633
0.4347	45.6333	11.3527	-8.1781	3.64073	-1.16183	6.23896	2.54888	6.833	-12.2248	-0.320633
0.4353	24.8858	14.0998	-9.68243	6.38281	0.667114	6.23896	5.29264	7.13194	-3.69672	-0.320633
0.4360	-20.3001	13.1731	-6.64641	6.98191	1.88891	8.36647	8.95441	6.833	8.52807	-0.320633
0.4367	-45.0182	6.48725	-3.58305	-2.78816	-0.554679	7.76607	8.34411	3.16026	38.4312	-0.320633
0.4373	27.9057	0.661965	2.21547	-17.7428	0.359792	9.28013	9.26212	1.96449	65.8821	-0.320633
0.4380	168.608	0.661965	8.31486	-22.0057	2.18874	10.2068	11.7033	2.26343	72.2873	-0.320633
0.4387	240.022	0.364081	7.41226	-14.3786	-2.0838	4.0984	7.43124	-2.94673	48.7893	-0.320633
0.4393	216.535	-2.08519	5.25149	-4.90808	-5.13453	0.743977	1.93858	-8.71208	22.5463	-0.320633
0.4400	170.733	-4.50136	8.01399	6.06021	-2.69094	2.87149	2.24117	-6.87571	5.78298	0
0.4407	130.133	-5.42811	7.71312	16.752	-2.38362	0.430723	1.32829	-3.84356	-34.5149	-0.320633
0.4413	99.9347	-4.83234	6.78317	26.8216	-2.38362	-3.2239	-0.200013	-2.60508	-79.0585	-0.9619
0.4420	59.3345	-2.68096	9.54567	32.0062	0.667114	-0.482932	1.93858	1.02495	-75.3984	-0.320633
0.4427	6.54301	-0.529572	7.08404	22.8583	1.27426	1.04418	2.24117	4.0998	-33.5999	0.320633
0.4433	-77.0621	0.992947	2.51634	9.42443	0.0524697	-0.783133	0.410282	6.23511	3.0379	-0.641267
0.4440	-193.942	4.33587	4.04802	1.49777	1.88891	1.95783	3.15917	11.1036	30.4888	-0.9619
0.4447	-231.186	5.5605	4.64976	-6.45193	2.80338	4.3986	5.60035	14.4774	50.6194	0
0.4453	-196.402	4.63375	1.61374	-15.3003	1.88891	3.7982	3.76947	14.1785	30.4888	0
0.4460	-167.098	7.3809	0.683788	-21.084	4.325	7.15262	4.68235	16.3138	-20.1672	0
0.4467	-76.1674	11.9816	-2.68045	-20.7844	5.85412	9.28013	5.60035	18.4491	-49.1554	0
0.4473	32.2118	15.6224	-9.0807	-12.8578	4.93965	7.15262	3.76947	19.6449	-51.3148	0
0.4480	9.61879	18.3695	-8.47896	-0.944748	5.54679	7.15262	4.37976	23.6166	-40.0051	-0.320633
0.4487	-60.5648	15.9202	-2.98131	2.71903	5.54679	8.36647	5.60035	23.0187	14.3111	-0.320633
0.4493	-36.1823	9.53229	-1.14876	-8.57186	3.1107	7.45282	3.76947	12.0432	91.5395	0
0.4500	13.8689	4.63375	0.984654	-22.0057	2.49606	8.36647	2.85146	1.02495	102.52	-0.320633
0.4507	46.2485	2.51547	4.04802	-30.5545	3.41053	10.507	4.99006	-4.74039	36.6012	0
0.4513	116.432	-1.15844	2.8172	-35.4396	2.80338	8.97993	3.46176	-14.5201	-27.8169	-0.320633
0.4520	180.8	-4.83234	2.8172	-31.7758	2.49606	7.76607	1.02058	-23.6593	-71.7383	-0.320633
0.4527	182.925	-3.90559	5.88057	-18.0424	2.80338	8.36647	1.63087	-22.1645	-129.714	-0.320633
0.4533	142.045	-2.97884	5.57971	0.87562	0.359792	5.92571	0.107699	-17.595	-167.267	0
0.4540	119.172	-2.97884	4.95062	19.7936	-2.38362	3.18474	-2.9489	-16.3565	-140.402	-0.320633
0.4547	157.312	-1.75421	6.48231	30.1858	-3.60542	1.35743	-3.5592	-13.9222	-80.5957	0
0.4553	231.186	-1.45632	6.48231	28.665	-6.049	-1.09639	-4.77979	-10.8474	-17.715	0
0.4560	268.711	-2.38307	5.25149	22.2361	-7.87795	-1.39659	-5.69267	-9.01102	47.2887	-0.320633
0.4567	174.984	-2.08519	7.71312	16.1529	-5.43436	3.48494	-1.4206	-6.27782	110.133	0
0.4573	10.2339	-0.231688	9.54567	4.83895	-2.99827	8.36647	4.37976	-2.00719	142.195	0
0.4580	-178.395	1.8866	7.41226	-17.1207	-2.38362	10.507	5.90294	1.3666	122.028	-0.320633
0.4587	-373.064	3.11123	5.25149	-44.2879	-2.69094	12.0341	5.29264	2.26343	44.8364	-0.320633
0.4593	-346.836	3.7401	3.41894	-55.5788	-2.69094	13.8615	4.99006	0.726006	-104.386	0
0.4600	-131.364	7.3809	-0.54703	-32.997	-0.862002	12.6476	4.07205	0.128119	-205.113	0
0.4607	-0.782925	15.9202	-4.81386	3.94029	1.58159	8.36647	3.76947	4.69769	-133.082	-0.320633
0.4613	-51.1138	20.8188	-5.11473	21.637	3.1107	3.7982	3.46176	8.66937	-20.46	-0.320633
0.4620	-168.608	18.6674	-4.513	17.9732	1.58159	-0.482932	0.717994	6.53406	21.3385	-0.320633
0.4627	-173.194	14.0998	-3.88391	10.3461	-2.0838	-4.75101	-3.25149	4.0998	37.809	-0.320633
0.4633	-93.5595	10.4259	-1.7505	3.64073	-4.22006	-7.80523	-6.00038	5.93617	72.9095	-0.320633
0.4640	-47.1432	8.30766	-1.44963	-4.60852	-5.43436	-8.10543	-6.30296	9.5662	133.009	-0.320633
0.4647	-31.2611	7.67879	-4.18478	-10.0927	-5.74168	-6.57832	-4.47208	6.23511	95.4924	-0.320633
0.4653	-27.6261	6.48725	-3.58305	-3.38727	-3.60542	-3.83735	-1.72319	-4.44145	-99.2257	-0.320633
0.4660	-34.952	5.26262	1.61374	20.4158	-1.46915	-0.783133	1.02058	-12.3848	-202.075	-0.320633
0.4667	-34.3368	4.33587	3.41894	51.8459	-1.16183	-0.169679	2.24117	-15.118	-95.8584	-0.320633
0.4673	-25.7806	4.63375	1.61374	70.7639	0.0524697	0.743977	3.46176	-16.6554	9.4431	-0.320633
0.4680	-22.7607	5.5605	1.61374	71.9852	1.27426	3.48494	6.51323	-16.6554	50.0338	0
0.4687	-30.3663	6.15627	3.11807	63.4363	-0.554679	4.3986	8.95441	-11.1463	126.018	-0.320633
0.4693	-31.5966	6.78514	5.57971	52.7676	-1.77647	4.3986	10.4827	-4.14251	196.182	-0.320633
0.4700	-14.4841	8.00977	12.5817	47.8826	2.18874	8.67973	12.9239	2.86132	149.186	0
0.4707	-3.80278	4.93164	14.1134	41.7763	4.325	10.2068	13.2265	5.63723	1.79346	-0.320633
0.4713	-15.0993	-1.15844	7.71312	37.5134	1.88891	7.15262	9.5647	2.86132	-119.979	-1.28253
0.4720	-17.2243	-2.08519	6.18144	28.9646	2.49606	13.8615	7.73382	1.96449	-144.392	-0.641267
0.4727	6.2634	0.661965	6.78317	-7.97275	3.41053	24.8514	7.43124	4.0998	-177.333	0
0.4733	23.32	2.21758	4.34889	-45.2096	1.27426	26.992	5.60035	5.93617	-247.534	-0.320633
0.4740	26.3957	5.26262	6.18144	-36.0387	0.359792	25.1516	5.90294	8.66937	-240.213	0
0.4747	43.7879	8.00977	7.71312	-1.86645	-0.862002	20.2701	5.90294	10.8047	-117.234	0
0.4753	53.5744	7.3809	3.74716	11.867	-5.13453	12.3343	2.24117	10.5057	79.0219	-0.320633
0.4760	36.1823	6.15627	3.11807	7.60407	-7.87795	8.06627	-0.200013	9.26726	215.727	0
0.4767	31.5966	4.93164	4.64976	-6.12934	-8.18527	5.62551	-0.502596	8.37043	253.573	0
0.4773	44.403	3.7401	3.41894	-25.0473	-8.49259	2.87149	-0.810307	8.37043	169.646	-0.320633
0.4780	30.0307	6.15627	4.95062	-30.8541	-5.43436	5.32531	2.24117	10.5057	-70.2376	0
0.4787	-8.38848	8.90342	8.01399	-15.3003	-2.0838	8.06627	5.90294	11.7015	-188.02	0
0.4793	-27.6261	9.53229	5.57971	25.0012	-1.16183	3.18474	4.07205	8.96831	-92.8205	-0.320633
0.4800	-12.6946	11.0548	3.11807	41.4767	1.88891	-2.01004	1.32829	4.99663	-92.8205	0
0.4807	16.9447	12.8752	3.11807	3.01858	5.54679	-3.2239	0.410282	2.56238	-184.653	0
0.4813	31.5966	11.6506	3.11807	-11.0144	3.71785	-5.97792	-1.11289	0.726006	-101.349	0
0.4820	36.4619	9.23441	4.34889	12.4891	0.667114	-9.94579	-2.9489	-1.11036	168.731	-0.320633
0.4827	47.1432	9.23441	6.78317	11.5674	-0.554679	-11.4598	-2.9489	-0.170825	546.236	-0.320633
0.4833	49.8835	9.53229	7.41226	-18.6415	-1.46915	-11.4598	-1.11289	2.26343	780.007	-0.320633
0.4840	34.3368	7.08302	6.18144	-43.6658	-2.99827	-13.9137	-0.810307	-2.30614	519.993	0
0.4847	13.8689	4.63375	5.25149	-39.1033	-2.38362	-16.6546	-0.502596	-10.2495	36.2717	0
0.4853	4.69755	5.85839	5.25149	-9.49356	1.88891	-10.8594	1.63087	-11.488	-170.305	-0.320633
0.4860	6.54301	8.60554	5.25149	23.78	4.02517	-1.39659	3.46176	-8.11419	-165.437	-0.320633
0.4867	9.61879	11.6506	5.25149	33.8496	3.41053	2.27109	4.99006	-5.67993	-247.534	-0.320633
0.4873	10.8491	13.5041	6.48231	24.3791	4.325	2.87149	7.12352	-5.08204	-328.715	-0.320633
0.4880	10.5136	12.2794	7.08404	16.4524	0.974437	-0.783133	6.51323	-5.38099	-221.583	-0.320633
0.4887	8.66809	10.4259	5.88057	12.4891	-6.96348	-10.5462	3.76947	-5.67993	-27.1947	-0.320633
0.4893	6.87855	9.53229	6.78317	11.5674	-9.70689	-16.6546	2.85146	-3.54462	74.4468	0
0.4900	7.49371	8.60554	10.1474	4.23984	-9.40706	-16.9548	3.46176	0.128119	18.264	0
0.4907	7.77332	7.3809	10.7491	-20.7844	-13.9794	-20.0091	4.37976	1.66554	-112.036	-0.320633
0.4913	8.38848	4.33587	9.54567	-47.9517	-16.423	-23.6767	4.07205	0.726006	-287.795	0
0.4920	15.994	4.03798	11.05	-36.3382	-9.70689	-20.3223	4.68235	2.26343	-428.197	-0.320633
0.4927	27.6261	7.08302	9.84654	18.2728	-0.554679	-17.2681	5.29264	4.0998	-324.433	-0.320633
0.4933	34.6165	9.53229	5.88057	48.4817	5.85412	-17.2681	5.60035	2.56238	-114.488	-0.320633
0.4940	39.2022	12.8752	4.34889	25.6004	11.3484	-16.3544	9.5647	-0.469769	-44.9096	-0.641267
0.4947	42.2779	15.9202	3.11807	11.867	12.5702	-18.1817	12.0059	-2.60508	-33.5999	0
0.4953	45.2978	17.1449	3.11807	25.3008	6.76859	-20.9227	11.093	-2.00719	-63.7958	0
0.4960	48.6532	18.9984	4.64976	30.1858	-3.29809	-20.3223	10.4827	0.128119	-158.739	-0.320633
0.4967	43.1727	19.5942	4.64976	45.1405	-8.18527	-20.3223	9.87242	0.726006	-103.471	-0.320633
0.4973	30.9814	16.847	5.25149	56.4314	-6.96348	-23.6767	8.04153	2.26343	141.28	0
0.4980	21.81	13.1731	8.01399	-4.00942	-6.049	-25.2038	5.60035	5.29558	342.697	-0.320633
0.4987	12.359	10.1281	9.54567	-70.833	-9.40706	-23.9769	2.54888	5.93617	396.098	0
0.4993	-1.6777	6.78514	7.41226	-50.3942	-16.1157	-21.5362	-4.77979	2.86132	471.46	-0.320633
0.5000	-15.4348	4.93164	5.88057	-9.79311	-18.252	-27.3313	-10.2724	-0.170825	617.645	-0.320633
0.5007	-23.0404	5.85839	7.08404	-5.82978	-14.2867	-44.73	-9.35443	-1.70825	525.776	-0.320633
0.5013	-26.1161	6.48725	9.21746	-18.3419	-8.79242	-54.8063	-6.30296	-1.40931	105.265	-0.9619
0.5020	-25.1654	7.67879	11.98	-35.4396	-3.91274	-54.8063	-5.08237	1.96449	-356.166	-0.641267
0.5027	-17.8395	11.3527	11.3782	-32.0753	0.974437	-29.4719	-5.08237	3.16026	-540.489	0.320633
0.5033	-7.77332	14.3977	7.08404	-9.49356	4.325	28.506	-6.91326	-0.469769	-312.537	0
0.5040	1.95731	15.9202	1.91461	-4.90808	4.02517	64.5171	-9.05185	-6.57676	70.4572	0
0.5047	10.2339	18.0716	-0.847897	-18.6415	5.54679	70.0121	-8.44156	-8.41313	276.156	-0.320633
0.5053	17.8395	19.5942	5.25149	-18.3419	8.2977	75.2069	-2.33348	-1.11036	197.427	0
0.5060	22.7048	18.0716	11.05	1.79732	9.5195	71.239	4.37976	6.23511	-72.6533	-0.641267
0.5067	19.0698	12.5773	9.54567	11.5674	14.0919	59.0352	5.90294	6.23511	-347.638	-1.28253
0.5073	14.8196	6.48725	11.05	10.0466	20.2008	47.1316	4.37976	8.07148	-464.798	-0.320633
0.5080	16.9447	2.81335	14.1134	21.637	22.9442	30.3464	5.29264	12.94	-276.229	0.320633
0.5087	13.5893	1.29083	11.98	30.7849	24.166	11.4207	9.26212	12.3421	34.7711	-0.320633
0.5093	3.18762	2.81335	8.61572	16.4524	23.8587	-0.783133	13.8368	5.63723	200.172	-0.320633
0.5100	-1.06254	8.60554	8.61572	-7.97275	18.6717	-11.1596	13.2265	-1.70825	302.692	0
0.5107	-3.18762	12.8752	8.31486	-23.5265	6.76859	-27.6446	5.29264	-7.81524	368.025	0
0.5113	-6.54301	14.0998	8.01399	-57.3992	0.974437	-42.2892	-0.502596	-12.0859	212.982	-0.320633
0.5120	-3.52316	16.847	11.05	-119.061	6.16144	-48.6978	-2.0309	-9.65161	-98.3107	-0.320633
0.5127	3.52316	16.847	13.2108	-135.836	7.68306	-48.3976	-3.25149	-2.00719	-358.618	0
0.5133	7.49371	13.5041	10.4483	-85.1655	3.41053	-44.73	-1.4206	2.86132	-502.351	0
0.5140	6.2634	10.7569	7.71312	-25.3699	1.58159	-40.4619	3.15917	2.56238	-386.069	0
0.5147	6.54301	9.53229	8.31486	1.49777	-2.0838	-36.7942	3.46176	2.86132	-93.1133	-0.320633
0.5153	12.6386	9.83017	9.84654	-8.57186	-8.79242	-32.2129	0.107699	4.99663	95.4924	0
0.5160	13.8689	11.9816	8.31486	-35.7391	-14.9014	-21.8364	-0.810307	2.86132	209.615	0
0.5167	3.80278	14.0998	4.34889	-61.3625	-8.18527	-16.3544	-0.200013	-2.94673	404.955	-0.320633
0.5173	-1.39808	13.5041	4.64976	-84.866	9.5195	-1.09639	1.63087	-2.60508	485.807	-0.320633
0.5180	4.69755	11.3527	10.1474	-93.4148	11.9556	53.227	3.15917	5.93617	192.522	0
0.5187	11.4643	8.00977	14.1134	-53.1363	3.41053	104.196	4.37976	13.5379	-187.727	-0.320633
0.5193	13.2538	2.21758	11.98	27.7433	1.58159	109.691	4.68235	13.2389	-325.64	-0.320633
0.5200	15.0993	-2.38307	9.54567	99.7515	-3.60542	98.0874	3.15917	11.4026	-216.715	0
0.5207	23.6555	0.0661965	11.98	121.734	-14.9014	88.0242	4.37976	13.5379	46.0443	0
0.5213	26.6754	5.26262	12.8826	98.2307	-21.9173	73.0663	7.43124	12.3421	288.344	0
0.5220	18.4547	6.78514	10.4483	71.6856	-28.9333	50.1858	8.65183	8.07148	436.981	0
0.5227	7.49371	2.51547	11.6791	65.2798	-35.3421	25.7651	8.65183	7.43089	645.095	-0.320633
0.5233	-1.6777	-2.38307	14.7151	48.4817	-35.3421	5.01205	8.95441	9.26726	720.494	-0.320633
0.5240	-7.15817	-3.27672	12.2808	-18.3419	-40.8364	-13.6004	14.1445	7.43089	146.441	-0.320633
0.5247	-5.98378	-0.860554	8.61572	-64.4272	-41.7509	-26.1175	20.2474	4.0998	-598.173	0
0.5253	1.6777	2.81335	9.21746	-8.2723	-21.9173	-29.4719	18.4165	2.56238	-682.099	0
0.5260	9.8984	6.48725	8.31486	75.6489	1.27426	-30.999	10.4827	0.128119	-381.494	0
0.5267	17.8395	11.9816	4.34889	94.2674	21.4151	-38.6215	6.51323	-3.24568	-198.378	-0.320633
0.5273	25.7806	14.7287	4.64976	81.4557	40.9488	-48.0844	8.04153	-3.24568	-13.762	0
0.5280	28.2412	12.8752	8.31486	78.0914	47.665	-57.8474	9.5647	1.02495	346.027	-0.320633
0.5287	23.6555	11.6506	6.78317	68.6209	34.54	-79.2139	5.90294	3.80086	582.544	-0.320633
0.5293	11.7439	10.7569	3.41894	52.1455	14.3992	-91.731	3.15917	2.56238	344.197	-0.320633
0.5300	-4.41793	8.30766	2.8172	22.8583	6.76859	-74.3324	7.73382	-0.170825	-44.5802	0
0.5307	-15.7144	6.48725	0.683788	-6.75149	1.58159	-53.2792	8.34411	-2.60508	-85.1709	-0.320633
0.5313	-19.4053	5.85839	-0.218812	-6.45193	-12.7651	-41.6757	2.85146	-2.94673	48.7893	-1.28253
0.5320	-16.3296	6.15627	5.88057	4.23984	-20.6955	-28.8585	2.24117	2.56238	53.6939	-0.9619
0.5327	-16.6651	2.81335	9.21746	-7.05104	-21.0029	-17.5683	0.717994	5.63723	-41.8351	0.320633
0.5333	-21.5304	-1.15844	5.57971	-24.1487	-23.439	-6.27812	-2.64119	1.96449	-206.028	-0.320633
0.5340	-20.9153	-2.08519	5.57971	-21.3836	-22.5245	1.95783	-2.33348	0.427063	-287.209	-0.641267
0.5347	-24.8858	-3.60771	7.08404	-24.1487	-20.0884	-4.45081	-10.2724	2.26343	-79.3879	-0.320633
0.5353	-32.8269	-5.72599	4.95062	-41.8454	-18.5593	-14.2139	-25.8324	1.96449	299.361	0
0.5360	-21.5304	-4.20347	4.04802	-29.0337	-13.6796	-16.3544	-28.8839	0.427063	599.637	0
0.5367	-5.03309	-2.38307	4.95062	-12.2356	-15.2012	-21.5362	-20.95	-0.469769	594.147	-0.320633
0.5373	-11.7439	-3.27672	4.95062	-38.1816	-23.439	-32.2129	-12.7136	-0.469769	221.51	-0.641267
0.5380	-28.2412	-3.90559	6.48231	-58.0213	-25.8825	-40.1486	-3.86178	1.02495	-133.375	-0.320633
0.5387	-20.3001	-3.90559	6.78317	-41.2233	-22.5245	-43.503	1.32829	1.66554	-220.668	0
0.5393	14.8196	-3.60771	2.8172	-11.9361	-15.2012	-37.4077	-0.810307	-2.60508	-190.765	0
0.5400	53.5744	-2.08519	-0.54703	27.4438	-11.5433	-22.4498	-0.810307	-8.11419	-152.92	0
0.5407	78.5721	0.992947	1.28552	76.2711	-10.6289	-12.6868	3.46176	-8.11419	-212.433	-0.320633
0.5413	75.8318	3.7401	3.11807	108.3	-4.82721	-14.8273	6.51323	-5.67993	-350.676	0
0.5420	52.9593	4.33587	2.21547	119.591	2.49606	-26.4177	6.21065	-5.08204	-394.304	0.320633
0.5427	38.3074	3.11123	0.0820545	133.624	8.59753	-38.6215	2.85146	-4.74039	-343.355	-0.320633
0.5433	42.8931	1.29083	-1.7505	134.246	11.3484	-43.2028	1.02058	-3.84356	-294.822	-0.320633
0.5440	59.9496	0.992947	-2.05136	110.144	8.90485	-43.503	6.51323	-2.30614	-185.275	0.320633
0.5447	61.18	1.58871	-3.28218	107.379	5.54679	-45.9569	12.9239	0.128119	16.7633	0
0.5453	11.7439	3.11123	-2.68045	127.541	8.90485	-44.73	16.2779	4.0998	141.28	-0.320633
0.5460	-55.4199	2.51547	-1.44963	118.07	15.0063	-40.4619	15.3651	4.0998	106.18	0
0.5467	-88.9738	-1.15844	-2.68045	73.506	18.0646	-36.494	10.4827	-0.170825	5.78298	-0.641267
0.5473	-119.508	-3.27672	0.382921	44.8179	22.0298	-29.7721	6.82094	-1.11036	-97.6885	-0.641267
0.5480	-150.601	-4.50136	3.74716	38.4121	23.2516	-39.8484	0.410282	-2.00719	-178.87	0
0.5487	-148.476	-6.95063	1.91461	32.0062	21.1153	-62.729	-10.575	-5.67993	-188.642	0
0.5493	-131.979	-6.65274	5.57971	35.3704	20.5007	-62.4288	-15.7651	-4.14251	-112.329	-0.320633
0.5500	-119.172	-6.65274	10.7491	22.2361	12.8701	-53.5794	-21.868	-0.811419	26.8286	0
0.5507	-117.047	-9.69778	7.41226	-16.8211	0.359792	-53.5794	-36.2125	-3.24568	199.549	0
0.5513	-115.537	-10.9224	5.25149	-39.7024	-7.2708	-48.3976	-45.0592	-5.38099	267.005	-0.320633
0.5520	-99.9347	-9.3999	6.78317	-37.8821	-10.9287	-39.235	-44.4489	-3.84356	150.101	-0.320633
0.5527	-95.6846	-9.69778	2.8172	-10.0927	-10.9287	-34.3534	-43.8387	-3.24568	124.481	-0.320633
0.5533	-96.2997	-9.69778	0.382921	20.7153	-9.70689	-21.236	-38.346	-1.40931	256.318	-0.320633
0.5540	-61.7951	-6.02388	3.41894	-14.079	-10.3215	4.0984	-24.6118	3.50191	244.423	-0.320633
0.5547	-25.7806	-1.75421	-2.37958	-69.0127	-3.60542	8.06627	-16.3754	5.63723	131.179	-0.320633
0.5553	6.2634	3.40912	-13.6484	-52.2146	7.68306	-39.235	-14.5445	8.66937	136.998	-0.320633
0.5560	74.6015	7.08302	-17.0126	-4.00942	7.68306	-87.4499	-10.575	12.94	273.118	0
0.5567	124.038	3.7401	-15.1801	23.4574	-4.51989	-93.5583	-9.66215	12.0432	450.121	0
0.5573	128.008	-2.38307	-9.9833	32.0062	-17.9521	-81.3545	-10.575	7.77254	512.965	0
0.5580	139.584	-3.90559	-0.54703	32.6284	-22.5245	-60.9017	-6.30296	7.13194	348.187	-0.320633
0.5587	149.706	-6.95063	3.41894	28.665	-31.6842	-41.0623	-6.30296	5.29558	104.936	-0.320633
0.5593	184.155	-13.0738	1.91461	36.8912	-42.3655	-20.0091	-17.2883	-1.11036	9.73591	-0.320633
0.5600	232.081	-11.8492	4.04802	71.9852	-37.4783	15.0884	-21.5603	-2.00719	-80.8886	-0.320633
0.5607	175.319	-7.57949	2.8172	85.419	-34.1203	69.0984	-16.9857	1.02495	-293.322	-0.641267
0.5613	69.7362	-5.72599	-1.44963	62.5377	-21.0029	146.616	-11.7956	1.96449	-380.579	-1.28253
0.5620	42.5575	0.0661965	-1.44963	33.2275	0.667114	209.475	-0.810307	4.99663	-311.293	-0.641267
0.5627	85.0032	7.08302	-9.0807	-28.7111	-2.38362	227.187	6.51323	9.90785	-266.127	0
0.5633	139.025	8.90342	-19.146	-119.361	-15.5085	224.433	6.51323	12.94	-209.066	-0.320633
0.5640	119.787	9.23441	-18.8452	-161.46	-13.9794	224.746	13.2265	14.4774	-175.503	-0.320633
0.5647	-7.49371	11.0548	-18.2435	-154.455	3.41053	218.938	21.7706	14.4774	-242.958	0
0.5653	-115.817	12.5773	-23.7411	-137.657	16.5354	195.744	19.6371	11.4026	-237.139	-0.320633
0.5660	-123.758	10.7569	-20.6777	-51.6155	23.2516	174.077	11.3956	3.16026	-85.7931	-0.641267
0.5667	-106.646	4.93164	-10.9132	63.1368	30.8822	157.606	2.85146	-4.14251	47.8743	-0.320633
0.5673	-63.9202	-4.83234	-3.88391	89.0828	25.995	128.003	-5.69267	-9.65161	115.33	-0.320633
0.5680	16.9447	-13.6696	4.64976	60.9938	28.4386	101.455	-6.61067	-15.7586	277.986	-0.320633
0.5687	63.305	-17.9392	12.2808	57.9522	33.6256	88.0242	-4.47208	-23.6593	550.189	-0.320633
0.5693	85.6184	-22.2089	13.5116	86.3407	15.3137	73.0663	-5.69267	-34.3785	684.478	-0.641267
0.5700	101.165	-24.3603	14.4142	106.48	-5.13453	62.0764	-1.11289	-37.1117	598.429	-0.320633
0.5707	86.1776	-21.911	13.8125	97.6316	-19.1664	54.1406	8.04153	-30.7058	396.098	0
0.5713	70.9665	-19.7596	9.84654	43.9192	-29.5479	48.3454	16.5857	-23.6593	100.983	-0.641267
0.5720	32.4914	-16.1188	6.48231	-32.3749	-12.7651	71.8525	24.5195	-14.8191	-148.637	-0.641267
0.5727	-99.3196	-9.3999	0.683788	-70.2339	18.0646	101.142	19.9397	-7.5163	-312.83	-0.320633
0.5733	-268.711	-2.38307	-10.9132	-52.2146	25.995	98.0874	4.68235	-4.74039	-488.296	-0.320633
0.5740	-348.681	6.78514	-22.5103	-12.8578	24.166	103.282	-5.69267	0.128119	-530.131	0
0.5747	-326.368	12.8752	-23.7411	-35.7391	25.6877	125.863	-9.35443	4.99663	-437.64	-0.320633
0.5753	-281.517	11.3527	-17.9426	-110.812	11.3484	131.658	-10.8827	1.96449	-405.614	-0.320633
0.5760	-236.052	5.5605	-14.8792	-107.77	-6.96348	116.713	-13.0162	-7.21736	-441.3	-0.320633
0.5767	-174.704	0.661965	-10.9132	-44.2879	-18.252	88.6376	-12.1033	-13.6233	-453.232	0
0.5773	-160.667	-2.38307	-4.81386	4.23984	-40.2293	63.0031	-5.69267	-15.4597	-409.567	-0.320633
0.5780	-150.322	-5.13023	-2.98131	52.4681	-60.9773	25.4649	-2.9489	-16.3565	-313.745	-0.320633
0.5787	-63.9202	-7.57949	-2.37958	58.2518	-65.8644	-27.3313	-5.08237	-18.4918	-206.65	-0.320633
0.5793	-45.0182	-8.77103	0.683788	-40.6241	-67.0862	-41.6757	-4.16949	-20.0292	-165.437	-0.320633
0.5800	-105.471	-9.3999	1.91461	-211.831	-68.3005	-32.5261	-5.39008	-19.3886	-196.255	-0.320633
0.5807	-57.8246	-8.77103	0.0820545	-278.055	-63.4208	-49.3113	-9.05185	-14.2212	-235.016	0
0.5813	70.9665	-9.10201	0.683788	-172.151	-53.3467	-73.4187	-10.8827	-9.01102	-223.121	0
0.5820	113.356	-11.8492	5.88057	-58.943	-45.7236	-81.3545	-11.1853	-8.11419	-150.797	-0.320633
0.5827	71.5817	-16.4167	10.4483	-36.0387	-42.3655	-83.7952	-9.66215	-7.21736	-50.9854	-0.320633
0.5833	61.18	-20.6864	12.5817	-104.406	-35.6494	-81.6547	-8.13384	-6.87571	47.5815	-0.641267
0.5840	75.8318	-23.1357	13.8125	-205.425	-22.8318	-71.8916	-4.77979	-12.3848	109.218	-0.320633
0.5847	70.3514	-22.8378	14.1134	-209.388	-9.40706	-64.2561	1.63087	-15.7586	57.6468	-0.320633
0.5853	62.0747	-18.866	10.7491	-123.025	-2.99827	-53.8796	6.82094	-12.6838	-97.0663	-0.320633
0.5860	81.0327	-12.7428	3.41894	-48.8504	2.49606	-37.0944	11.093	-6.87571	-205.406	-0.320633
0.5867	116.712	-8.47315	0.984654	-14.9777	13.792	-23.9769	15.6677	1.66554	-199.916	-0.320633
0.5873	168.888	-9.99566	10.1474	-8.87141	22.3371	-19.0954	22.0783	8.66937	-128.799	-0.320633
0.5880	186.895	-16.4167	19.611	-30.5545	21.4151	-21.8364	21.1603	8.37043	-50.3998	-0.320633
0.5887	56.3146	-16.4167	17.7785	-87.0089	18.6717	-27.9448	3.15917	8.07148	-40.2979	-0.320633
0.5893	-72.812	-6.02388	8.01399	-133.394	25.0805	-35.2671	-19.1192	16.3138	-92.1983	-0.320633
0.5900	-52.0645	4.93164	-2.68045	-137.058	25.995	-46.2571	-37.7357	26.0508	-124.847	0
0.5907	-0.782925	10.7569	-11.2141	-120.582	22.6369	-31.2992	-52.3828	29.4246	-115.989	-0.320633
0.5913	-43.7879	11.3527	-13.0467	-82.1239	37.8981	-32.2129	-50.8596	26.3498	-111.743	-1.28253
0.5920	-140.535	9.23441	-10.3115	-16.5216	50.7157	-135.064	-38.0434	24.5561	-138.901	-0.9619
0.5927	-85.898	7.3809	-14.8792	33.2275	37.5908	-247.979	-34.0739	23.9155	-134.619	0.320633
0.5933	103.29	6.78514	-23.4129	43.5966	23.5514	-273.3	-35.6022	11.1036	-78.4729	0
0.5940	185.665	8.00977	-28.9105	50.3251	29.0457	-246.752	-32.5508	-12.3848	-5.52677	-0.320633
0.5947	143.89	4.63375	-29.8405	88.1611	37.8981	-199.151	-31.0225	-32.8411	46.6665	-0.320633
0.5953	83.4374	-2.38307	-25.8745	141.274	38.2054	-151.536	-29.4942	-37.1117	53.0717	-0.641267
0.5960	22.4252	-6.02388	-19.146	171.783	36.0692	-117.966	-24.0015	-27.9726	64.052	-0.320633
0.5967	-12.0794	-7.87738	-13.0467	157.128	32.7111	-90.2039	-18.5089	-22.7624	131.179	0
0.5973	48.9887	-9.99566	-8.1781	108.922	29.353	-55.4067	-14.8471	-20.6271	216.642	-0.320633
0.5980	176.829	-13.3717	-1.44963	107.079	25.0805	-18.1817	-6.00038	-17.2533	212.689	-0.641267
0.5987	174.984	-18.866	5.88057	110.144	19.8935	9.59338	9.87242	-20.9261	85.7199	-0.320633
0.5993	10.5136	-20.6864	7.08404	15.5307	18.3644	34.3143	19.9397	-25.4956	-53.7305	0
0.6000	-57.545	-13.9675	4.34889	-73.5751	18.3644	62.6898	18.1088	-18.7908	-81.5108	0
0.6007	29.4156	-6.35486	-1.14876	-77.861	16.5354	77.3344	15.9754	-6.57676	-24.7424	-0.320633
0.6013	-15.0993	-0.860554	-7.54901	-69.3122	10.434	79.1748	16.5857	7.77254	5.16076	-0.320633
0.6020	-81.6479	4.63375	-7.84988	-91.5944	7.68306	92.6055	10.4827	28.4851	-0.95163	-0.320633
0.6027	137.795	4.63375	-4.18478	-108.992	9.5195	128.303	-2.33348	43.176	-7.35683	-0.320633
0.6033	343.76	-2.08519	4.64976	-54.3575	3.71785	143.261	-12.1033	46.2082	-18.63	0
0.6040	308.976	-10.3266	19.3102	37.8129	-6.65615	103.582	-15.4574	48.3435	-29.0247	-0.320633
0.6047	186.001	-15.49	26.9412	57.33	-10.9287	55.3675	-15.4574	48.0445	-22.9123	-0.320633
0.6053	30.0307	-18.866	26.3121	5.16155	-13.3723	22.7109	-13.0162	42.5354	-9.80911	0
0.6060	-152.726	-20.0906	22.3462	-31.4762	-22.5245	0.743977	-9.66215	37.9659	-0.0366012	-0.320633
0.6067	-372.784	-17.0125	10.1474	-45.8087	-33.2058	-5.66466	-6.61067	32.1578	4.24573	-0.320633
0.6073	-513.766	-8.17526	-9.9833	-65.0263	-36.8712	-6.57832	1.02058	21.4812	4.86795	-0.320633
0.6080	-518.967	2.81335	-30.4422	-61.3625	-28.9333	-5.36446	10.7853	4.99663	34.1489	-0.320633
0.6087	-464.051	14.7287	-51.8037	-115.397	-31.6842	-3.83735	12.9239	-9.35267	80.5225	-0.320633
0.6093	-281.853	24.1617	-68.2967	-223.122	-57.3194	-6.89157	8.04153	-8.71208	87.2572	-0.320633
0.6100	-42.8931	21.4146	-61.5682	-217.315	-60.0628	-0.169679	5.29264	-5.67993	73.5317	-0.320633
0.6107	131.084	7.3809	-39.9058	-180.7	-38.093	12.9478	2.85146	-16.6554	73.5317	-0.320633
0.6113	294.044	-3.27672	-28.0079	-209.388	-29.8478	12.3343	-1.11289	-32.5422	83.597	-0.320633
0.6120	474.396	-6.95063	-23.112	-198.097	-33.5131	15.0884	-3.5592	-42.6208	91.8323	0
0.6127	526.293	-7.24851	-20.9786	-142.242	-54.5685	27.5924	-8.74414	-49.0268	59.4769	0
0.6133	253.723	-6.95063	-25.5737	-111.411	-80.511	13.8615	-16.3754	-60.8991	17.6784	0
0.6140	-41.6628	-7.24851	-27.3789	-105.927	-67.6934	-13.6004	-14.2368	-73.412	44.8364	0
0.6147	-37.4126	-8.77103	-22.8112	-98.8989	-43.8871	-16.0412	-3.25149	-67.0061	89.38	0
0.6153	-20.0205	-14.8942	-17.0126	-86.7094	-42.0582	-4.13755	4.99006	-46.8915	95.1996	-0.320633
0.6160	-128.344	-23.7314	-10.6124	-79.6814	-40.8364	7.45282	13.8368	-38.9481	75.0324	-0.320633
0.6167	-139.64	-28.0011	-4.513	-72.0543	-22.2247	14.4749	25.1298	-44.1156	29.5737	0
0.6173	12.9742	-28.3321	-0.847897	-61.6851	9.5195	9.59338	25.4375	-41.9802	0.256208	-0.320633
0.6180	329.108	-28.3321	4.34889	-52.5141	33.0184	23.0241	26.9607	-30.7058	16.1411	-0.320633
0.6187	649.548	-28.0011	11.98	-47.6291	53.1593	63.6035	42.5257	-18.4918	37.809	-0.320633
0.6193	692.273	-28.3321	12.5817	-46.4309	68.7203	80.7019	57.7831	-10.5484	48.2037	-0.320633
0.6200	654.469	-25.5849	8.61572	-40.002	64.7551	76.1205	73.6508	-11.488	52.4495	0
0.6207	779.569	-22.2089	8.61572	-25.0473	70.5492	53.227	89.2159	-16.6554	44.507	-0.641267
0.6213	896.169	-20.3885	7.08404	-4.60852	98.9353	5.01205	82.2	-13.6233	45.1292	-1.28253
0.6220	803.057	-11.8492	-1.14876	16.1529	118.769	-26.7309	60.8346	-1.70825	61.3069	-0.9619
0.6227	346.22	1.8866	-11.2141	25.0012	119.376	-44.73	48.6287	11.7015	32.3188	0
0.6233	-338.615	15.0266	-22.8112	19.1945	99.5425	-64.8695	37.3357	27.5882	-23.5345	-0.320633
0.6240	-902.88	26.3131	-32.8765	15.5307	67.4985	-79.5141	16.5857	45.3113	-25.0718	-0.320633
0.6247	-1197.99	32.4032	-34.1073	20.7153	40.0344	-92.6447	8.04153	58.7211	-1.24444	-0.320633
0.6253	-939.789	26.3131	-27.3789	25.3008	22.6369	-93.2581	15.9754	55.9879	3.33071	-0.320633
0.6260	-298.63	11.3527	-18.5443	29.8632	22.3371	-65.7832	19.3294	43.7739	-0.0366012	-0.320633
0.6267	-41.9424	0.661965	-8.77983	37.8129	25.6877	-10.246	15.0574	36.4284	-5.23397	-0.320633
0.6273	-167.378	-6.02388	-4.81386	41.7763	20.2008	63.3033	8.34411	16.0148	-2.15947	-0.320633
0.6280	-283.083	-9.69778	-9.68243	43.9192	19.5862	116.099	-1.72319	-10.8474	14.3111	0
0.6287	-384.975	-7.24851	-15.1801	53.0672	33.6256	132.271	-19.1192	-15.7586	30.7816	-0.320633
0.6293	-497.884	-5.42811	-16.11	60.0952	49.1866	131.971	-41.3975	-8.11419	38.724	-0.320633
0.6300	-625.165	-6.35486	-13.0467	57.0305	60.7824	117.627	-49.639	4.39874	38.1018	0
0.6307	-655.699	-5.13023	-4.513	58.5513	70.8566	99.0141	-41.0949	16.9117	35.3567	0
0.6313	-410.644	-6.02388	5.57971	48.1821	72.0783	85.8836	-36.5151	14.4774	33.5267	0
0.6320	-147.861	-10.3266	6.78317	10.0466	68.413	65.4438	-35.9048	6.833	28.0365	-0.320633
0.6327	-132.314	-13.0738	4.64976	2.41948	64.1404	35.2279	-30.7199	1.66554	23.7908	-0.320633
0.6333	-159.773	-15.7879	5.57971	22.5587	44.6142	21.497	-26.7504	-4.14251	15.2261	-0.320633
0.6340	-42.5575	-19.1639	5.88057	14.9316	-3.91274	62.3896	-23.3912	-5.67993	-2.48888	-0.320633
0.6347	236.667	-15.1921	3.11807	6.06021	-63.1135	120.368	-15.7651	3.50191	-3.40391	-0.320633
0.6353	298.63	-4.83234	-2.37958	19.1945	-96.6866	120.981	-7.52355	16.3138	9.73591	-0.320633
0.6360	-63.0254	3.40912	-9.9833	32.6284	-111.333	76.1205	-4.77979	22.7197	15.8483	0
0.6367	-227.496	6.15627	-13.6484	35.67	-114.384	36.1416	-2.64119	20.8834	17.9712	-0.320633
0.6373	-81.0327	4.63375	-11.2141	33.8496	-90.5777	16.6155	1.63087	18.4491	20.094	-0.320633
0.6380	-43.5082	4.03798	-10.3115	32.6284	-55.1831	-0.169679	8.04153	24.5561	21.9241	0
0.6387	16.3296	8.30766	-12.1441	36.2921	-39.0075	-35.8806	22.9912	35.5316	33.5267	0
0.6393	210.103	6.78514	-7.54901	37.8129	-33.5131	-84.4087	30.3199	39.2043	51.5344	0
0.6400	297.399	-4.50136	2.51634	35.67	-4.82721	-124.074	16.8882	32.7984	65.2599	-0.320633
0.6407	194.221	-13.0738	10.1474	40.2555	32.4038	-156.431	5.60035	21.1823	79.6075	-0.320633
0.6413	28.2412	-17.0125	14.7151	51.5463	42.7778	-169.248	8.65183	3.80086	97.3225	0
0.6420	-133.824	-21.911	14.7151	62.8372	35.7618	-144.827	12.3136	-12.3848	128.433	0
0.6427	-289.179	-24.3603	12.8826	61.616	17.7572	-141.773	13.2265	-12.3848	141.28	-0.320633
0.6433	-368.534	-21.911	15.016	45.1405	-4.22006	-183.579	22.0783	-3.54462	75.9474	0
0.6440	-341.635	-16.4167	11.98	32.0062	-9.40706	-205.86	30.3199	-1.70825	-2.15947	0
0.6447	-356.287	-7.87738	3.41894	25.3008	-4.22006	-196.097	22.6886	-4.44145	-38.175	-0.320633
0.6453	-396.887	-5.13023	3.41894	14.609	-5.74168	-178.398	8.65183	-6.87571	-87.0009	-0.320633
0.6460	-225.986	-8.77103	4.64976	2.41948	-12.4578	-159.172	1.63087	-10.8474	-130.63	0
0.6467	33.1065	-5.13023	-1.14876	5.4611	-6.35633	-132.01	1.63087	-10.8474	-95.5656	-0.320633
0.6473	145.121	0.364081	-2.37958	21.0149	7.07591	-94.472	9.26212	1.3666	2.12287	0
0.6480	187.231	-0.231688	1.28552	28.9646	20.808	-66.6968	17.4985	24.2144	47.5815	-0.320633
0.6487	326.703	1.8866	2.8172	33.8496	22.0298	-61.8153	19.9397	44.3718	11.566	-0.9619
0.6493	544.86	3.7401	5.25149	47.2604	3.71785	-63.9559	17.8062	53.212	-20.46	-0.9619
0.6500	606.207	-1.75421	9.21746	54.2884	-6.049	-40.7621	7.43124	28.4851	-10.7241	0
0.6507	503.7	-8.17526	10.1474	48.8043	-4.82721	27.9056	-6.91326	-22.1645	39.6391	-0.320633
0.6513	329.108	-8.17526	8.31486	46.0392	-8.49259	99.6145	-13.6265	-26.1362	131.801	-0.320633
0.6520	-20.3001	-7.87738	4.64976	41.1772	-13.0649	120.067	-18.5089	10.8047	212.36	-0.320633
0.6527	-317.532	-11.8492	3.41894	21.0149	-13.6796	110.905	-21.868	17.5096	204.454	-0.641267
0.6533	-341.635	-12.7428	7.71312	-0.345639	-15.8159	113.959	-15.4574	8.66937	91.8323	-0.320633
0.6540	-279.392	-8.77103	7.41226	-2.16601	-14.5941	115.486	-10.2724	23.0187	-38.4678	-0.320633
0.6547	-189.356	-8.77103	2.8172	4.23984	0.359792	72.7661	-4.16949	32.4568	-110.499	-1.28253
0.6553	-76.7825	-10.6245	4.64976	4.5394	16.8428	-1.09639	13.2265	26.3498	-144.062	-0.641267
0.6560	-14.2045	-8.77103	4.95062	10.9452	25.0805	-43.2028	23.9092	24.855	-119.649	0.320633
0.6567	18.7343	-6.02388	-1.44963	24.3791	24.7732	-44.1165	17.4985	19.9438	-56.805	0
0.6573	11.1287	-7.24851	-2.37958	30.1858	19.8935	-33.74	2.85146	3.50191	-19.2522	-0.320633
0.6580	-44.1234	-11.8492	6.48231	33.8496	27.2168	-32.2129	-8.74414	6.833	35.3567	-0.320633
0.6587	-69.1211	-17.6414	12.8826	35.3704	36.9836	-62.4288	-9.35443	22.0791	82.9748	-0.320633
0.6593	-38.3074	-21.2822	5.88057	27.1212	35.4545	-103.935	-6.61067	0.726006	50.3266	-0.320633
0.6600	4.69755	-18.535	-3.58305	19.4941	37.5908	-115.838	-1.4206	-11.7869	-24.1568	-0.320633
0.6607	14.8196	-8.47315	-8.77983	19.1945	34.54	-103.935	8.95441	23.9155	-85.7931	0
0.6613	-63.9202	7.3809	-13.9766	23.4574	22.9442	-85.3224	24.2118	52.6141	-87.2938	-0.320633
0.6620	-127.729	17.7737	-15.4809	28.0429	18.979	-66.6968	44.6592	49.8809	-28.4025	-0.320633
0.6627	-52.0645	12.2794	-11.2141	28.665	18.0646	-47.4709	53.8188	29.1257	7.90585	-0.320633
0.6633	44.6826	1.8866	-5.11473	27.4438	9.81933	-20.0091	40.3872	8.37043	-20.46	-0.320633
0.6640	60.9003	-1.15844	-0.847897	25.8999	2.49606	16.6155	19.3294	8.96831	-42.1279	-0.320633
0.6647	45.0182	0.992947	-0.847897	25.0012	11.9556	57.5081	0.107699	21.4812	-36.0521	-0.320633
0.6653	65.7657	3.40912	-2.68045	25.6004	33.9329	95.3465	-16.3754	14.7764	-58.3056	-0.320633
0.6660	130.133	-1.45632	-0.54703	26.2225	43.9996	126.476	-28.8839	-2.30614	-66.5409	-0.320633
0.6667	173.474	-14.5963	1.91461	21.637	37.8981	130.444	-34.3816	-0.170825	-39.3828	-0.320633
0.6673	169.224	-22.8378	3.74716	16.1529	18.0646	107.864	-29.4942	16.3138	-24.4496	0
0.6680	172.243	-23.1357	4.34889	12.7887	-41.7509	74.5934	-19.1192	39.5033	-19.545	0
0.6687	204.623	-22.5068	-2.68045	7.90362	-104.317	47.4318	-5.69267	59.319	-14.9699	0
0.6693	206.748	-19.1639	-10.9132	5.76066	-112.555	70.9258	4.99006	59.6179	-13.4692	-0.320633
0.6700	143.275	-12.7428	-13.9766	10.0466	-93.9357	119.454	3.76947	41.3397	-7.35683	-0.320633
0.6707	97.8096	-11.2203	-15.7818	12.7887	-78.0674	123.122	-7.22097	16.6127	1.79346	-0.320633
0.6713	117.327	-6.95063	-6.34555	17.3511	-52.1324	98.7009	-11.7956	9.5662	9.4431	-0.320633
0.6720	126.163	7.3809	9.21746	22.2361	-12.4578	82.5292	-6.91326	31.8589	17.9712	-0.320633
0.6727	83.4374	13.1731	8.31486	17.0515	20.808	63.0031	-8.44156	34.9337	21.0091	-0.320633
0.6733	-20.0205	8.30766	3.74716	13.7104	34.8474	33.0874	-2.9489	-19.7303	18.5934	-0.320633
0.6740	-109.386	3.11123	9.54567	23.1578	47.0503	9.28013	17.4985	-81.6544	17.9712	-0.320633
0.6747	-55.6995	-3.60771	10.1474	32.0062	57.1245	-18.4819	26.9607	-91.4341	19.8012	0
0.6753	49.2683	-10.3266	2.8172	28.3424	52.852	-58.1607	25.1298	-58.7638	21.0091	-0.320633
0.6760	70.9665	-13.0738	3.74716	21.9366	47.0503	-73.4187	25.7401	-23.0614	18.8862	-0.641267
0.6767	66.3808	-9.3999	5.57971	20.1162	57.4318	-55.7199	18.1088	4.99663	16.7633	-0.320633
0.6773	58.7193	0.992947	-2.37958	18.895	71.771	-35.2671	0.107699	33.9942	21.3385	-0.320633
0.6780	-15.7144	5.26262	-5.4156	19.7936	66.2767	-24.5904	-10.575	44.9697	23.7908	0
0.6787	-103.011	-1.75421	0.0820545	21.0149	50.101	-24.5904	-11.7956	17.2106	17.9712	0
0.6793	-103.626	-2.97884	0.984654	17.6737	37.5908	-27.9448	-13.9342	-18.4918	15.2261	-0.320633
0.6800	-45.2978	1.58871	0.984654	15.8303	25.0805	-26.4177	-13.6265	-25.4956	10.3581	-0.320633
0.6807	9.61879	-0.860554	8.31486	19.4941	11.0411	-30.999	-4.77979	-15.118	-0.32941	0
0.6813	29.4156	-10.9224	12.8826	20.4158	-2.99827	-47.7842	1.63087	-21.8656	12.481	-0.9619
0.6820	11.4643	-17.6414	9.84654	16.752	-6.35633	-53.5794	-2.33348	-43.8166	60.3919	-1.28253
0.6827	-5.36863	-13.0738	4.34889	13.3878	9.5195	-39.8484	-8.44156	-43.8166	95.4924	0
0.6833	-8.72402	-6.65274	-0.847897	8.50273	27.8239	-25.2038	-15.4574	-23.6593	83.597	0
0.6840	1.34216	-5.42811	-2.05136	3.01858	31.182	-13.3002	-20.3397	-14.5201	34.1489	-0.641267
0.6847	24.8858	-3.60771	1.91461	6.06021	21.7224	-2.61044	-20.3397	-18.4918	-10.1019	-0.320633
0.6853	38.587	-0.860554	7.41226	17.6737	18.0646	1.04418	-19.7294	-13.9222	-7.06402	0
0.6860	38.587	-0.860554	7.08404	23.4574	17.1426	-4.75101	-19.4269	-7.5163	17.6784	0
0.6867	47.4229	-6.65274	8.01399	20.1162	12.8701	-11.7731	-17.8986	-24.2999	28.9515	0
0.6873	57.2094	-13.6696	12.2808	16.4524	9.81933	-7.19177	-15.7651	-37.7096	30.196	0
0.6880	52.9593	-16.4167	7.41226	11.2678	4.02517	5.01205	-15.4574	-21.524	24.9986	-0.320633
0.6887	47.7584	-17.0125	-0.218812	5.16155	-0.554679	0.743977	-6.91326	-8.71208	16.7633	-0.320633
0.6893	41.3272	-18.535	-2.98131	0.576066	-14.2867	-17.8685	7.43124	-10.5484	10.9437	-0.320633
0.6900	23.9351	-18.2371	-2.98131	0.87562	-37.1785	-21.236	17.196	-1.70825	8.82088	-0.320633
0.6907	6.87855	-13.3717	-3.58305	0.276511	-45.1089	-19.3956	22.6886	18.748	5.16076	0
0.6913	4.41793	-9.10201	-5.11473	-3.38727	-49.9961	-28.245	20.8577	26.6914	-0.658821	0
0.6920	4.69755	-9.99566	-5.11473	-3.38727	-68.0007	-28.245	10.7853	3.50191	-0.658821	0
0.6927	-4.13832	-10.3266	-2.05136	2.09688	-95.1575	-19.3956	-5.08237	-24.2999	8.82088	0
0.6933	-3.52316	-6.35486	4.95062	7.90362	-115.913	15.3886	-19.1192	-21.524	17.6784	-0.320633
0.6940	13.8689	-1.15844	5.57971	8.50273	-111.333	70.0121	-24.6118	-5.67993	20.094	0
0.6947	29.4156	2.51547	4.34889	7.60407	-95.7722	85.5834	-18.8166	-3.54462	23.1685	0
0.6953	28.5208	2.51547	6.18144	6.68236	-87.8342	65.4438	-7.52355	-6.87571	28.9515	-0.320633
0.6960	15.0993	1.29083	2.21547	2.41948	-81.7328	39.496	2.24117	-16.0576	28.6587	-0.320633
0.6967	12.359	0.364081	3.11807	-1.5669	-64.95	11.7339	19.0268	-30.4069	19.8012	-0.320633
0.6973	22.4252	-5.13023	13.5116	-0.645193	-37.7857	-5.05121	41.6077	-36.5138	6.07579	0
0.6980	26.6754	-15.1921	8.91659	-2.16601	-16.7303	-8.10543	48.0184	-31.9016	-3.40391	-0.320633
0.6987	26.6754	-24.0293	-6.01733	-7.05104	-0.862002	-10.8594	38.2537	-9.35267	-6.73461	-0.641267
0.6993	26.6754	-21.6131	-10.6124	-7.3506	15.621	-24.5904	30.6224	25.4529	-25.9868	-0.320633
0.7000	22.4252	-12.7428	-13.0467	-7.3506	25.6877	-45.0302	29.0993	43.176	-40.9201	-0.320633
0.7007	16.3296	-10.9224	-6.34555	-2.46556	24.4734	-54.8063	27.2684	39.5033	-3.69672	0
0.7013	9.8984	-11.5182	11.6791	16.4524	-14.2867	-54.493	22.3809	33.3963	37.809	0
0.7020	5.92786	-6.02388	16.2468	23.78	-66.7789	-47.1707	16.5857	38.2648	14.6039	0
0.7027	3.18762	-3.60771	6.18144	10.0466	-75.0166	-31.6125	7.43124	38.5637	-24.7424	-0.320633
0.7033	1.34216	-6.65274	0.984654	3.01858	-56.7047	-12.987	-1.4206	35.2327	-26.2796	-0.320633
0.7040	1.95731	-8.17526	1.61374	7.60407	-52.4322	4.3986	-7.22097	52.9131	-11.3098	0
0.7047	3.18762	-9.69778	1.91461	9.72399	-57.3194	14.1747	-12.7136	39.2043	1.50065	-0.320633
0.7053	10.8491	-9.99566	4.95062	10.0466	-38.3928	16.3022	-11.7956	-38.6492	5.16076	-0.320633
0.7060	25.501	-5.13023	7.71312	12.4891	3.1107	11.1205	-3.5592	-79.2201	0.585618	0
0.7067	35.2316	-2.38307	5.57971	10.0466	42.7778	3.18474	3.76947	-48.3862	-0.32941	0
0.7073	36.4619	-5.13023	1.91461	1.79732	61.397	0.430723	-3.86178	-22.1645	-0.0366012	-0.320633
0.7080	23.9351	-2.08519	-2.05136	3.31814	64.1404	-9.63254	-18.2063	-15.118	9.11369	-0.320633
0.7087	4.69755	1.8866	-2.05136	13.3878	66.2767	-10.8594	-16.9857	-9.95056	27.1215	-0.320633
0.7093	5.3127	-2.97884	2.8172	16.752	60.4825	20.8836	-2.64119	-9.65161	39.9319	-0.320633
0.7100	16.6092	-0.231688	1.91461	12.4891	60.1752	44.6908	4.99006	-2.94673	52.4495	-0.320633
0.7107	21.5304	9.53229	-1.7505	5.4611	69.6348	42.5502	-7.83126	6.53406	21.9241	0
0.7113	36.7415	9.23441	1.28552	2.71903	67.4985	30.0332	-31.3302	7.77254	-47.3253	-0.9619
0.7120	59.3345	2.21758	10.1474	11.5674	68.7203	3.48494	-38.346	18.4491	-51.9004	-0.9619
0.7127	53.5744	-9.10201	10.1474	12.1665	70.2494	-35.5803	-26.7504	31.261	-4.61175	0
0.7133	27.0109	-22.2089	1.61374	2.09688	53.7664	-70.6647	-7.22097	18.1502	7.90585	-0.320633
0.7140	6.87855	-21.2822	0.382921	1.49777	31.182	-73.4187	15.6677	6.53406	-12.847	-0.320633
0.7147	-7.49371	-14.2653	-1.14876	3.01858	11.0411	-56.6336	30.9301	16.3138	-26.2796	-0.320633
0.7153	-2.29285	-11.8492	-5.71646	-0.0230426	4.325	-51.1386	31.5404	14.1785	-30.8548	0
0.7160	15.994	-3.60771	-2.37958	2.09688	11.3484	-38.6215	23.6015	-0.469769	-45.4952	0
0.7167	30.6459	2.51547	7.71312	7.60407	15.9283	-35.2671	22.9912	-12.3848	-45.8246	-0.320633
0.7173	41.9424	-7.87738	9.21746	8.20317	11.9556	-55.4067	34.2842	-28.2715	-21.0823	-0.320633
0.7180	34.952	-16.1188	2.51634	6.68236	16.2281	-10.246	40.6949	-27.6309	-10.1019	-0.320633
0.7187	3.52316	-9.3999	-2.98131	6.98191	32.4038	72.4529	31.2327	-4.14251	3.62351	0
0.7193	-35.2316	-2.38307	-8.1781	3.31814	34.8474	64.8304	12.6162	16.3138	49.1188	-0.320633
0.7200	-51.7289	1.58871	-9.0807	-1.5669	26.3023	8.67973	-2.64119	36.1295	76.8624	-0.320633
0.7207	-35.8468	6.48725	-5.4156	-2.46556	24.7732	-9.63254	-2.64119	52.9131	59.4769	-0.320633
0.7213	-12.9742	8.00977	-6.01733	-7.97275	23.8587	-6.27812	7.12352	43.176	45.1292	0
0.7220	1.34216	6.78514	-8.1781	-20.7844	13.792	-9.01908	11.7033	13.2389	46.0443	0
0.7227	5.64824	5.85839	-3.88391	-29.9324	-0.554679	-19.0954	14.7548	-16.0576	6.3686	-0.320633
0.7233	-1.6777	4.93164	7.41226	-25.0473	-10.6289	-44.4298	24.8221	-34.0369	-39.09	-0.320633
0.7240	-16.3296	-7.24851	10.1474	-19.8627	-12.4578	-78.0001	34.2842	-39.546	-28.4025	0
0.7247	-22.1456	-26.7765	-6.34555	-23.5265	-2.38362	-84.4087	29.4018	-22.4635	-3.40391	0
0.7253	-12.359	-31.3771	-29.8405	-21.3836	8.59753	-70.6647	15.0574	7.77254	16.4339	-0.320633
0.7260	-9.33917	-21.2822	-46.3061	-13.1573	14.0919	-76.7732	-2.33348	16.0148	41.1763	-0.641267
0.7267	-11.4643	-11.5182	-50.2721	-11.3139	22.6369	-42.2892	-15.4574	42.5354	49.7044	-0.320633
0.7273	-2.62839	-15.7879	-49.9712	-7.97275	29.6604	108.777	-18.8166	120.688	29.5737	0
0.7280	5.92786	-17.9392	-47.5369	3.31814	26.6096	262.271	-17.8986	185.388	6.99082	-0.320633
0.7287	7.77332	6.48725	-36.5416	13.7104	14.7065	310.186	-15.7651	221.09	-2.48888	0
0.7293	9.61879	32.7341	-16.4109	25.6004	4.02517	305.304	-16.9857	230.229	-30.562	0
0.7300	15.0993	21.4146	29.0746	32.0062	-6.96348	277.229	-20.6475	166.426	-45.4952	0
0.7307	16.3296	-4.83234	81.2613	17.6737	-21.61	230.228	-22.7809	55.0484	-26.9018	0
0.7313	6.54301	-10.3266	85.5281	-3.38727	-27.4117	171.637	-26.1401	-41.0834	-40.2979	0
0.7320	-8.38848	-13.6696	50.737	-12.2356	-26.797	102.369	-23.6989	-119.492	-72.6533	0
0.7327	-23.0404	-21.2822	22.9753	-11.0144	-27.7115	60.5492	-10.575	-179.921	-65.6259	-0.320633
0.7333	-28.5208	-19.1639	14.7151	-8.87141	-24.6607	30.9599	1.63087	-197.004	-42.7501	-0.320633
0.7340	-25.501	-17.0125	12.2808	-10.0927	-13.6796	-16.9548	-1.72319	-174.754	-28.4025	0
0.7347	-29.4715	-23.4335	9.84654	-11.3139	0.667114	-6.89157	-3.86178	-140.845	-15.2993	-0.320633
0.7353	-32.8269	-29.2257	16.2468	-6.75149	9.21218	49.5723	12.3136	-100.573	2.70849	-0.320633
0.7360	-26.1161	-26.1807	18.6811	0.576066	4.63232	45.9047	25.4375	-65.4687	24.7058	0.320633
0.7367	-21.1949	-17.3435	9.84654	4.5394	-4.51989	36.7551	11.7033	-56.9274	39.3462	0
0.7373	-16.6651	-10.3266	3.41894	6.06021	-6.35633	59.3354	-14.2368	-59.0628	42.0913	-0.320633
0.7380	-5.98378	-3.90559	-2.37958	7.90362	-4.82721	36.7551	-26.4427	-47.7883	46.9593	-0.320633
0.7387	9.28325	-3.27672	-15.4809	9.42443	-8.49259	-23.0633	-24.9195	-44.4145	36.6012	-0.320633
0.7393	24.5503	-9.3999	-30.1414	8.50273	-15.8159	-68.5372	-20.0372	-65.4687	-20.1672	-0.320633
0.7400	37.6922	-6.95063	-38.675	5.16155	-19.7811	-106.075	-16.3754	-52.9558	-75.1056	0
0.7407	37.9718	2.51547	-42.0393	0.276511	-15.8159	-128.956	-19.1192	30.962	-69.3226	0
0.7413	18.175	11.9816	-48.1386	-2.78816	-10.6289	-128.042	-25.5298	125.257	-21.7045	-0.9619
0.7420	10.5136	26.3131	-49.3695	-4.60852	-6.65615	-137.192	-19.7294	159.124	11.8588	-1.28253
0.7427	19.9646	42.796	-34.4082	-10.0927	-6.65615	-165.28	-0.502596	159.124	-0.95163	0
0.7433	25.501	55.0093	-20.9786	-17.4202	-17.0302	-180.225	8.65183	179.58	-22.9123	0.320633
0.7440	35.5671	69.0429	-22.5103	-19.8627	-29.5479	-170.462	10.175	181.075	-25.3646	-0.320633
0.7447	40.7121	70.2675	-20.076	-15.8994	-33.8205	-139.332	19.0268	118.852	-13.762	0
0.7453	32.4914	33.3299	-10.9132	-10.7148	-27.1043	-95.6989	21.1603	5.29558	1.79346	0
0.7460	19.0698	-9.69778	-0.54703	-5.23068	-25.8825	-61.5151	13.5342	-99.3775	4.24573	-0.320633
0.7467	6.54301	-27.4053	13.8125	4.83895	-47.5525	-41.3755	7.73382	-117.058	3.33071	0
0.7473	4.41793	-35.3489	11.05	14.3095	-57.6192	-36.7942	-0.200013	-87.1635	11.566	-0.320633
0.7480	8.38848	-26.7765	-5.4156	13.7104	-35.3421	-43.2028	-5.69267	-67.9456	19.179	-0.320633
0.7487	13.8689	1.58871	1.61374	5.76066	-11.5433	-35.5803	-1.4206	-38.9481	14.9333	-0.320633
0.7493	26.3957	21.4146	17.4776	-0.645193	2.80338	-11.4598	1.32829	-4.14251	0.878428	0
0.7500	43.1727	28.4314	15.6451	0.87562	26.3023	8.06627	1.93858	34.5921	-5.52677	0
0.7507	54.1896	37.0038	24.7805	7.28147	54.3736	10.8072	3.46176	92.2882	-6.73461	-0.320633
0.7513	48.038	31.1785	43.4068	10.6457	62.3115	-1.09639	-0.200013	135.934	0.256208	-0.641267
0.7520	29.4156	-13.9675	39.4409	14.609	62.3115	-7.50503	-3.86178	109.072	31.4038	-0.641267
0.7527	8.66809	-69.8042	22.9753	19.4941	73.9073	-3.2239	-7.52355	58.4222	55.1945	0
0.7533	-14.8196	-67.6859	11.3782	17.6737	82.4524	-9.01908	-12.4059	31.5599	43.2992	0
0.7540	-37.4126	-14.8942	5.57971	13.0882	79.0943	-22.1496	-13.6265	-64.5719	40.5541	0
0.7547	-50.219	18.0716	-10.3115	10.9452	72.9928	-25.8042	-10.8827	-220.193	61.5997	-0.320633
0.7553	-51.7289	19.2963	-39.3041	6.68236	67.1912	-23.6767	-10.2724	-320.297	57.0246	-0.320633
0.7560	-43.7879	21.4146	-48.7404	-2.46556	54.6809	-18.1817	-14.2368	-325.208	5.16076	-0.320633
0.7567	-22.1456	45.5432	-30.7431	-5.23068	42.7778	-2.01004	-13.9342	-227.24	-15.8849	0
0.7573	0.16777	73.9083	-18.2435	-4.90808	33.6256	6.83936	-10.575	-111.89	70.4572	0
0.7580	5.3127	76.9534	5.88057	-9.79311	15.621	3.7982	-10.575	-72.5152	151.346	-0.320633
0.7587	2.29285	46.4368	56.2347	-6.75149	-4.82721	28.506	-9.66215	-39.8449	127.518	-0.320633
0.7593	-2.29285	-7.87738	75.4628	2.41948	-13.9794	72.1527	-6.61067	37.069	82.9748	0
0.7600	-16.9447	-43.5904	51.0379	2.41948	-12.4578	86.7973	-5.39008	64.5292	27.1215	0
0.7607	-37.0771	-43.5904	29.0746	-5.23068	-8.79242	85.5834	-4.16949	6.53406	-119.356	-0.320633
0.7613	-47.7584	-36.8714	17.1767	-3.08771	-3.91274	87.1105	0.717994	-51.461	-203.905	-0.320633
0.7620	-51.4493	-26.1807	5.57971	6.68236	-1.77647	78.8615	1.93858	-53.8953	-88.831	-0.320633
0.7627	-49.2683	-9.10201	0.382921	8.82533	-4.51989	64.8304	-3.5592	-31.9016	14.0182	0
0.7633	-34.3368	0.364081	1.61374	8.20317	-4.22006	56.5944	-3.86178	-19.7303	-6.14899	-0.320633
0.7640	-21.5304	3.11123	1.28552	8.50273	-2.99827	45.2912	-1.11289	-27.9726	-3.98953	-0.320633
0.7647	-22.7607	3.40912	-3.58305	4.23984	-6.65615	26.6787	-4.47208	-60.3012	36.6012	-0.320633
0.7653	-25.7806	6.78514	-9.9833	-3.08771	-9.09974	8.06627	-7.52355	-101.513	36.894	-0.320633
0.7660	-21.1949	12.2794	-8.77983	-9.49356	-6.35633	-6.89157	-5.08237	-142.084	21.3385	-0.641267
0.7667	-13.5893	11.3527	-0.847897	-15.8994	-4.22006	-22.7631	-2.9489	-161.942	4.53854	-0.320633
0.7673	-4.75347	16.5491	1.28552	-20.4849	-2.99827	-37.0944	-2.33348	-143.023	-23.8274	-0.320633
0.7680	3.80278	32.1053	0.984654	-13.7564	1.58159	-33.4398	1.93858	-98.4379	-18.3372	0
0.7687	7.15817	37.0038	-0.218812	-8.2723	4.325	-22.7631	4.07205	-61.8387	-9.18689	0
0.7693	5.92786	23.2681	-3.88391	-5.23068	0.974437	-23.3635	0.717994	-43.8166	6.07579	-0.320633
0.7700	1.6777	-7.57949	0.984654	8.50273	-1.16183	-30.6858	-0.502596	-28.8694	95.1996	-0.320633
0.7707	-2.90801	-52.7255	13.8125	15.8303	-1.77647	-42.9026	-0.810307	-17.2533	206.284	-0.641267
0.7713	-8.10886	-85.0624	10.1474	4.23984	-3.29809	-56.6336	-4.16949	-16.0576	288.344	-1.28253
0.7720	-8.38848	-99.725	-0.54703	-15.3003	-3.60542	-62.729	-4.47208	-17.595	253.866	-0.9619
0.7727	1.06254	-118.955	9.21746	-35.117	-3.60542	-57.5472	-1.72319	-27.0331	12.1882	0
0.7733	7.15817	-139.708	18.3802	-44.887	-6.049	-41.0623	-2.64119	-43.8166	-215.8	-0.320633
0.7740	7.49371	-154.668	10.1474	-42.7671	-6.96348	-23.0633	-2.33348	-51.1621	-246.326	-0.641267
0.7747	8.05294	-94.8595	0.0820545	-36.9604	-6.049	-12.987	0.410282	-35.8733	-199.623	-0.320633
0.7753	5.3127	43.6897	-2.98131	-18.6415	-5.43436	-9.33234	1.63087	6.53406	-120.894	-0.320633
0.7760	2.90801	74.8351	-6.34555	8.82533	-4.82721	-8.71888	0.717994	49.8809	-23.2417	-0.320633
0.7767	8.38848	11.6506	-10.9132	19.7936	-3.29809	-6.57832	1.32829	68.7998	-6.14899	-0.320633
0.7773	9.28325	13.802	-6.01733	14.9316	-2.0838	-3.83735	1.93858	77.0421	-47.0325	-0.641267
0.7780	11.1287	37.0038	6.78317	18.5724	-2.99827	-2.9237	1.93858	107.534	-47.0325	-0.641267
0.7787	17.2243	26.9089	10.4483	30.1858	-4.22006	-3.53715	1.32829	167.665	15.5189	0
0.7793	16.6092	15.3245	4.95062	32.3058	-6.35633	-5.05121	-0.502596	225.959	88.465	-0.320633
0.7800	9.28325	-8.47315	4.64976	34.4487	-7.57062	-5.36446	-0.200013	219.254	104.643	-0.320633
0.7807	0.447385	-52.4276	-0.218812	41.1772	-7.57062	-5.05121	1.02058	149.045	82.9748	0
0.7813	1.34216	-82.3484	-15.7818	38.7346	-7.57062	-5.36446	0.107699	94.1246	46.9593	0
0.7820	8.38848	-97.2757	-22.2094	29.5637	-7.87795	-4.13755	-0.200013	49.582	-10.7241	-0.320633
0.7827	12.0235	-146.427	-15.1801	28.0429	-6.65615	-2.01004	-0.200013	2.56238	-30.2326	0
0.7833	38.9225	-212.656	-7.54901	25.0012	-4.82721	-1.09639	-1.11289	1.02495	-36.3449	0
0.7840	78.2925	-234.931	-2.98131	11.867	-3.60542	0.130522	-0.502596	38.5637	-104.386	0
0.7847	64.2557	-240.426	-3.28218	10.0466	-1.16183	2.57129	1.32829	89.2561	-166.059	-0.320633
0.7853	-15.7144	-137.258	8.91659	16.752	-0.247357	3.18474	1.93858	156.049	-157.495	-0.320633
0.7860	-101.501	148.379	44.6376	1.79732	-3.60542	0.430723	0.107699	223.823	-104.094	-0.320633
0.7867	-123.758	346.439	65.3701	-3.38727	-5.74168	-0.169679	0.107699	255.255	-22.6195	0
0.7873	-68.8414	300.069	46.7711	17.9732	-4.82721	1.65763	2.24117	236.635	75.0324	-0.320633
0.7880	-11.7439	150.829	19.3102	17.3511	-6.049	0.130522	1.93858	156.988	162.033	-0.320633
0.7887	11.1287	40.3467	17.7785	-10.0927	-9.09974	-2.9237	-0.200013	32.7984	208.7	-0.320633
0.7893	27.9057	3.40912	31.2081	-30.255	-8.18527	-1.69679	1.02058	-100.872	224.585	-0.320633
0.7900	29.136	-19.1639	25.7104	-42.4445	-6.65615	1.04418	2.54888	-221.731	216.935	0
0.7907	22.1456	16.2512	5.25149	-57.3992	-6.049	2.27109	1.32829	-239.112	45.1292	0
0.7913	30.9814	107.172	-14.5784	-58.6204	-2.69094	6.23896	3.15917	-164.974	-244.166	-0.320633
0.7920	31.8762	62.9197	-43.8718	-42.145	-0.554679	9.59338	5.60035	-112.488	-268.579	-0.320633
0.7927	25.501	-74.1069	-77.733	-27.4898	-2.69094	7.76607	3.15917	-84.3876	-97.3957	-0.320633
0.7933	39.5377	-67.9838	-92.0925	-19.8627	-2.0838	8.06627	2.24117	-79.818	-79.0585	-0.320633
0.7940	54.7488	67.1894	-88.7283	-16.5216	0.359792	10.2068	4.37976	-85.0282	-121.479	-0.320633
0.7947	59.9496	125.806	-83.5315	-14.6782	-1.16183	7.76607	3.76947	-15.4597	-97.9813	-0.320633
0.7953	61.4596	52.8579	-60.3374	-8.87141	-2.69094	6.23896	3.15917	102.965	-72.3605	-0.320633
0.7960	48.3736	-23.7314	-20.3769	-3.68682	-2.0838	7.45282	3.76947	154.554	-57.72	-0.320633
0.7967	37.0771	-42.0347	6.18144	3.01858	-3.91274	5.62551	3.76947	175.907	-39.7123	-0.320633
0.7973	32.8269	-15.7879	40.3708	14.9316	-6.049	2.87149	3.46176	194.228	-23.5345	-0.320633
0.7980	15.994	177.671	85.829	32.3058	-6.049	2.87149	5.29264	146.312	-6.73461	-0.320633
0.7987	-10.8491	395.888	107.491	37.1908	-6.049	1.65763	6.21065	98.3952	12.7738	0
0.7993	-38.587	236.884	93.1592	21.9366	-6.65615	-1.39659	4.99006	72.1309	19.179	0
0.8000	-51.1138	-76.5231	53.4722	24.6786	-5.74168	-1.09639	5.60035	49.582	25.6208	-0.320633
0.8007	-51.1138	-99.725	6.78317	46.0392	-4.22006	1.04418	7.73382	36.4284	42.6769	-0.320633
0.8013	-55.9791	48.2903	-31.673	53.6893	-3.91274	2.87149	6.21065	-49.0268	18.8862	-0.9619
0.8020	-48.3736	94.3631	-46.607	58.2518	-3.29809	7.76607	4.37976	-199.78	-38.175	-1.28253
0.8027	-29.7511	37.8975	-37.1433	61.9155	-2.38362	11.7339	5.29264	-281.861	-54.3527	-0.641267
0.8033	-25.1654	19.2963	-12.7458	12.7887	-3.29809	9.59338	3.76947	-241.29	-40.2979	-0.320633
0.8040	-24.2707	49.184	8.91659	-40.3246	-3.60542	7.45282	0.410282	-139.052	-37.8822	-0.641267
0.8047	-13.3097	11.9816	30.579	-15.8994	-2.38362	7.76607	0.410282	-53.2974	-39.09	-0.320633
0.8053	-2.29285	-75.0006	67.8317	-43.0667	-2.38362	7.45282	-0.200013	-41.0834	-27.8169	-0.641267
0.8060	3.80278	-132.989	90.7249	-149.869	-4.22006	5.32531	-2.0309	-78.6222	-7.06402	-0.641267
0.8067	16.3296	-197.994	80.9331	-134.915	-4.22006	5.32531	0.717994	-91.733	14.9333	0
0.8073	30.9814	-233.078	58.0672	-13.4569	-4.51989	4.71185	3.46176	-76.4869	41.7619	-0.320633
0.8080	31.2611	-214.477	29.9772	56.4314	-6.049	2.87149	2.85146	-36.1722	103.728	-0.320633
0.8087	21.5304	-203.786	4.04802	53.3667	-6.049	3.48494	2.85146	78.5368	184.616	0
0.8093	13.8689	-128.421	-14.8792	28.9646	-5.43436	5.32531	3.46176	223.226	160.789	-0.320633
0.8100	5.64824	28.1335	-31.673	35.67	-5.74168	6.23896	3.46176	250.045	34.4417	-0.320633
0.8107	-9.00363	122.132	-25.2454	68.3214	-5.43436	5.92571	2.54888	169.8	-30.562	-0.641267
0.8113	-20.0205	83.6723	15.9459	93.3457	-4.22006	5.32531	2.24117	81.6117	-11.0169	-0.641267
0.8120	-15.0993	-42.6636	48.9045	102.194	-4.51989	5.01205	2.85146	-17.8939	-0.95163	-0.320633
0.8127	-4.13832	-118.955	41.8751	105.858	-3.91274	5.92571	1.63087	-95.7047	1.50065	-0.320633
0.8133	-1.39808	-148.545	7.08404	119.292	-1.77647	7.15262	0.107699	-118.296	45.4586	-0.320633
0.8140	-0.16777	-215.701	-26.4763	89.6819	-0.862002	7.45282	-0.810307	-131.706	75.3618	0
0.8147	4.41793	-180.915	-37.7724	19.7936	0.0524697	6.53916	-1.11289	-148.49	21.0091	0
0.8153	6.87855	-60.3712	-42.3401	21.9366	0.0524697	6.23896	-0.200013	-100.573	-27.8169	-0.320633
0.8160	13.5893	-59.4444	-48.1386	19.1945	-1.46915	5.01205	-1.4206	48.3435	-2.15947	0
0.8167	26.3957	-27.1074	-36.8425	-95.5578	-2.69094	4.71185	-3.25149	214.343	28.0365	0
0.8173	33.1065	182.57	-7.54901	-194.134	-2.69094	5.62551	-1.72319	339.771	24.9986	-0.320633
0.8180	17.5599	270.743	28.4456	-157.819	-3.29809	4.0984	-1.4206	435.604	9.73591	0
0.8187	-24.5503	174.328	47.3728	-79.3818	-4.22006	1.95783	-2.64119	438.038	15.8483	-0.320633
0.8193	-65.486	127.925	33.0406	-83.3452	-3.91274	2.87149	-1.11289	291.257	4.53854	-0.320633
0.8200	-75.8318	96.1834	17.7785	-86.0872	-3.91274	3.18474	1.02058	38.5637	-80.3029	-0.320633
0.8207	-68.2263	43.3918	7.71312	-19.8627	-6.049	1.65763	-0.200013	-233.347	-137.071	-0.320633
0.8213	-58.7753	46.7678	-11.515	17.0515	-5.43436	2.27109	-0.502596	-413.695	-94.9434	-0.320633
0.8220	-41.6628	75.4309	-31.3448	-39.7024	-3.60542	3.7982	-0.502596	-469.256	-49.7776	0
0.8227	-16.6651	97.706	-49.6703	-125.144	-4.22006	4.71185	-1.4206	-461.911	-40.0051	0
0.8233	5.3127	104.756	-60.3374	-147.749	-3.29809	7.76607	-0.810307	-427.746	-34.5149	-0.320633
0.8240	21.1949	80.0315	-57.0005	-106.849	-1.16183	10.2068	1.32829	-366.676	-33.3071	-0.320633
0.8247	29.136	78.509	-34.1073	-55.2793	-2.69094	8.36647	1.02058	-265.377	-32.9776	0
0.8253	26.6754	117.863	8.91659	-24.7478	-3.91274	7.76607	0.717994	-112.488	-24.7424	-0.320633
0.8260	14.2045	170.654	35.7758	-40.002	-1.77647	8.67973	2.24117	66.6645	-12.847	0
0.8267	-0.447385	199.946	35.174	-74.7964	-2.0838	7.45282	1.63087	200.634	-7.64964	0
0.8273	-2.62839	148.975	47.9745	-43.9884	-2.0838	7.76607	1.93858	225.361	-6.4418	0
0.8280	-0.447385	85.5258	66.9018	8.50273	0.667114	9.59338	3.76947	188.42	-5.52677	0
0.8287	-9.8984	85.8237	49.5062	-0.944748	0.359792	8.36647	2.85146	94.1246	-8.27186	-0.320633
0.8293	-18.4547	118.161	15.9459	-25.6695	-2.99827	5.62551	-0.502596	-87.4624	-9.18689	-0.320633
0.8300	-14.8196	113.891	2.51634	-27.4898	-2.69094	6.23896	-0.502596	-212.293	-6.4418	0
0.8307	-8.72402	12.8752	-1.14876	-27.1903	-1.16183	6.83936	0.410282	-220.834	1.79346	0
0.8313	-4.75347	-142.753	-9.0807	-27.8124	-1.77647	6.23896	-0.502596	-197.645	20.094	-0.9619
0.8320	0.447385	-252.01	-15.1801	-24.4482	-0.862002	6.83936	-0.502596	-153.7	31.4038	-0.641267
0.8327	9.00363	-288.319	-15.4809	-24.4482	0.0524697	6.83936	-0.200013	-85.3271	22.2535	0
0.8333	13.2538	-284.678	-17.6144	-29.3333	-2.0838	4.0984	-2.9489	-45.354	12.7738	0
0.8340	8.66809	-324.032	-23.4129	-30.5545	-3.60542	4.0984	-2.9489	-38.6492	14.0182	-0.320633
0.8347	1.34216	-382.616	-25.5737	-26.2686	-2.0838	7.15262	0.107699	-24.5988	19.5084	0
0.8353	-3.80278	-345.711	-26.4763	-25.3699	-2.38362	5.01205	-2.0309	-26.4352	24.7058	0
0.8360	-6.54301	-258.1	-31.044	-21.3836	-3.60542	1.95783	-6.61067	-54.7921	24.3764	0
0.8367	-5.36863	-150.994	-28.3088	13.3878	-1.46915	5.32531	-2.64119	-65.1697	19.179	0
0.8373	-6.2634	-7.87738	-14.8792	79.6123	-1.46915	6.53916	1.32829	-45.9519	16.7633	-0.320633
0.8380	-6.2634	-24.6582	-1.44963	106.48	-4.22006	2.87149	-1.4206	-22.1645	18.264	0
0.8387	0.447385	-294.442	7.41226	72.2847	-2.99827	3.18474	-1.11289	3.16026	11.2732	0
0.8393	-2.62839	-367.986	-5.4156	40.2555	-2.69094	3.48494	-1.11289	35.5316	-3.40391	-0.320633
0.8400	-16.3296	-38.6918	-38.9759	34.1492	-4.51989	1.95783	-4.16949	71.234	-4.31894	-0.320633
0.8407	-21.5304	221.626	-58.5322	51.5463	-2.0838	4.0984	-2.33348	90.4519	4.86795	0
0.8413	-14.2045	173.7	-51.5029	53.6893	0.974437	5.92571	1.02058	69.3977	8.82088	0
0.8420	-6.54301	19.2963	-26.7771	17.6737	-1.16183	3.7982	-2.0309	24.2144	8.82088	0
0.8427	-6.87855	20.5209	0.382921	7.28147	-3.29809	2.57129	-5.39008	-27.9726	9.4431	0
0.8433	-9.33917	195.975	8.01399	13.3878	-2.38362	4.71185	-4.47208	-67.3051	9.73591	-0.320633
0.8440	-10.8491	306.159	7.41226	-0.645193	-2.38362	4.0984	-4.47208	-50.5215	8.52807	-0.320633
0.8447	-11.1287	286.631	37.3074	1.19822	-2.0838	2.57129	-4.77979	4.39874	8.52807	0
0.8453	-11.7439	255.187	76.3654	19.1945	0.667114	5.92571	-0.810307	17.2106	10.9437	0.320633
0.8460	-21.81	217.952	66.3	21.9366	0.359792	5.92571	0.107699	1.66554	14.3111	0
0.8467	-30.0867	150.531	28.7738	-6.75149	-1.77647	2.87149	-2.64119	50.7777	16.7633	0
0.8473	-20.5797	127.925	9.84654	-28.7111	-0.554679	5.01205	-0.810307	109.371	21.3385	0
0.8480	-10.2339	165.458	-2.37958	-7.97275	-0.554679	6.53916	1.32829	92.5872	26.5358	0
0.8487	-6.87855	158.441	-15.4809	11.2678	-2.69094	3.7982	-1.11289	62.0949	28.3659	-0.320633
0.8493	3.52316	72.6837	-17.3135	6.06021	-1.77647	5.32531	-1.4206	12.3421	27.1215	-0.320633
0.8500	14.8196	-25.2539	-14.2775	3.01858	0.359792	7.76607	1.02058	-70.081	24.3764	-0.320633
0.8507	15.994	-96.6799	-19.146	5.16155	-0.554679	5.01205	0.107699	-102.709	24.7058	0
0.8513	15.3789	-129.944	-25.8745	5.76066	-0.554679	5.32531	0.107699	-71.9173	25.9136	0
0.8520	11.1287	-124.449	-28.3088	3.94029	0.974437	7.76607	2.54888	-19.3886	9.73591	0
0.8527	0.447385	-105.517	-27.7071	-2.46556	-1.46915	3.7982	0.717994	11.1036	-10.3947	0
0.8533	-3.80278	-95.1574	-30.4422	-5.53023	-3.29809	1.65763	-0.810307	14.1785	-9.80911	0
0.8540	-2.90801	-110.118	-33.5056	-1.86645	-1.46915	3.7982	1.93858	25.7519	-7.06402	-0.641267
0.8547	-9.00363	-62.1916	-30.7431	1.49777	-0.247357	4.0984	2.54888	43.7739	-9.18689	-0.320633
0.8553	-16.3296	158.143	-32.8765	3.31814	-1.46915	2.57129	0.717994	46.5071	-3.69672	0
0.8560	-13.8689	226.822	-31.3448	4.23984	-1.46915	2.87149	0.107699	40.998	2.70849	-0.320633
0.8567	-9.00363	-41.1411	-27.7071	4.83895	-1.46915	2.57129	0.107699	34.5921	5.78298	0
0.8573	-10.5136	-164.134	-27.7071	6.68236	-2.38362	1.95783	-1.11289	21.1823	8.19866	0
0.8580	-9.8984	-46.3375	4.04802	14.609	-0.554679	4.71185	0.717994	19.047	16.1411	-0.320633
0.8587	-3.80278	-46.3375	46.7711	16.1529	0.359792	5.32531	2.85146	58.1232	26.5358	0
0.8593	-1.39808	-52.7255	47.0719	1.79732	-2.0838	1.35743	-1.11289	85.5833	26.5358	-0.320633
0.8600	-0.782925	110.217	31.5089	-4.00942	-1.77647	0.743977	-3.25149	42.5354	19.5084	-0.320633
0.8607	4.13832	192.632	28.4456	6.98191	0.0524697	2.27109	-2.0309	-22.1645	20.094	-0.320633
0.8613	7.15817	104.425	26.613	14.3095	-1.46915	0.743977	-3.5592	-50.8204	30.7816	-0.9619
0.8620	8.38848	57.1275	27.543	16.1529	0.0524697	2.57129	-2.33348	-67.3051	45.1292	-0.9619
0.8627	9.61879	62.0261	18.9819	14.0099	3.1107	5.92571	0.717994	-90.1956	40.8469	0.320633
0.8633	7.49371	13.5041	-4.18478	5.16155	1.27426	2.87149	-2.64119	-75.2484	10.6509	0.320633
0.8640	8.05294	-25.2539	-15.1801	1.49777	-0.554679	0.430723	-6.30296	-22.7624	-7.35683	-0.320633
0.8647	10.8491	-26.1807	-14.2775	3.94029	1.58159	2.57129	-4.16949	18.748	-0.32941	0
0.8653	6.2634	-13.0738	-24.042	2.09688	0.359792	1.04418	-5.39008	46.2082	-6.4418	0
0.8660	4.13832	60.5036	-36.5416	-0.345639	-1.16183	0.130522	-6.91326	77.0421	-26.9018	-0.320633
0.8667	9.8984	123.357	-42.0393	2.09688	1.27426	3.18474	-3.25149	102.666	-26.9018	-0.320633
0.8673	11.7439	61.3972	-51.202	3.94029	0.974437	3.7982	-0.502596	102.965	-12.847	-0.320633
0.8680	13.5893	-75.0006	-60.9665	3.94029	-0.862002	2.57129	0.410282	84.3449	-4.61175	-0.320633
0.8687	20.5797	-176.314	-71.6336	6.06021	-0.247357	3.18474	3.46176	77.341	-0.32941	0
0.8693	19.9646	-158.938	-90.2599	7.28147	-1.16183	2.27109	3.46176	78.2379	2.70849	0
0.8700	13.8689	-88.4385	-93.6242	5.76066	-2.99827	-0.169679	1.02058	59.02	3.33071	0
0.8707	13.5893	-64.6408	-58.204	5.16155	-1.46915	0.743977	1.02058	63.5896	-0.658821	0
0.8713	12.359	-57.9219	-7.84988	5.4611	0.974437	1.35743	1.93858	131.962	-7.35683	0
0.8720	6.54301	-92.4103	46.4702	2.09688	-1.16183	-1.39659	0.107699	177.146	-12.2248	0
0.8727	4.13832	-106.444	115.423	-0.645193	-3.29809	-2.61044	-2.0309	159.721	-8.27186	0
0.8733	-2.29285	42.1671	149.613	-0.0230426	-1.46915	-0.783133	-2.0309	196.662	5.78298	0
0.8740	-16.3296	202.098	136.183	0.576066	-0.554679	-0.482932	-2.33348	299.798	13.6888	-0.320633
0.8747	-23.0404	210.339	114.521	2.41948	0.0524697	0.743977	-1.72319	297.065	11.2732	0
