MR32 ASCII
Name	SORD15_fast
Frequency	1500
Date	07-09-2015 12:31:21
"Time,s"	"RT TIB.ANT.,uV"	"RT MED. GASTRO,uV"	"RT LAT. GASTRO,uV"	"RT BICEPS FEM.,uV"	"RT VMO,uV"	"RT VLO,uV"	"RT RECTUS FEM.,uV"	"RT SOLEUS,uV"	"RT SEMITEND.,uV"	"Channel 12,uV"
0.0000	17.5205	-467.756	438.442	-0.481872	10.0588	16.4309	1.24686	583.324	0.393058	-8217.95
0.0007	-4.1284	-432.697	407.924	0.120468	6.70166	11.546	-2.11221	480.786	1.57223	-10520.5
0.0013	23.9648	-279.192	337.708	0.120468	5.18027	8.19247	-2.41928	163.397	1.57223	-9574.48
0.0020	45.0096	-223.015	49.9513	0.120468	4.56417	5.74239	-2.72634	-321.507	0.960808	-9792.75
0.0027	13.5935	-208.057	-357.176	2.56999	5.18027	4.8236	0.939795	-623.958	2.18365	-9878.58
0.0033	-11.0762	-186.737	-652.865	3.49358	3.65888	2.69509	7.64863	-696.558	2.48937	-9786
0.0040	37.9611	-54.5524	-749.027	1.36531	0.905289	-0.3522	10.4029	-635.208	0.698769	-9815.25
0.0047	89.9185	115.738	-703.856	0.441716	0.905289	-4.02733	11.6218	-522.342	-0.524077	-9815.89
0.0053	91.4289	44.603	-616.251	1.36531	1.21963	-7.68714	10.4029	-455.459	-1.1355	-9815.57
0.0060	56.2872	-129.004	-507.307	3.17233	2.12492	-8.29966	6.73675	-505.806	-0.829789	-9786.64
0.0067	21.2461	-260.241	-321.774	3.49358	2.43925	-8.59061	8.26276	-657.215	-1.44121	-9880.5
0.0073	-13.8956	-462.003	-79.4648	1.04406	1.21963	-8.89687	11.3148	-587.32	-4.19262	-9791.46
0.0080	-91.731	-555.067	95.3993	-0.160624	1.21963	-5.84958	13.1478	-88.3377	-7.55544	-9578.66
0.0087	-169.768	-363.389	149.438	-0.481872	2.43925	-0.65846	17.7258	325.749	-10.0011	-10533.1
0.0093	-199.069	-107.683	139.046	0.120468	5.79637	6.96743	25.6536	296.795	-10.6126	-8195.13
0.0100	-177.42	-78.106	163.779	1.36531	9.45524	12.1585	30.2316	232.063	-11.224	-1593.44
0.0107	-107.842	-197.702	268.15	-0.160624	8.83914	11.2398	28.7056	335.216	-12.4468	108.973
0.0113	-39.4715	-59.1548	291.325	-0.160624	8.83914	9.09594	25.0488	440.828	-11.5297	-240.768
0.0120	-5.94087	234.453	194.609	2.56999	9.75701	5.74239	13.4549	566.542	-7.86116	-21.8588
0.0127	22.1524	221.932	190.625	5.3006	9.15348	3.92014	4.90368	752.684	-4.49833	63.3263
0.0133	48.3325	35.1274	345.052	6.22419	8.23562	4.51734	12.2266	782.314	-4.49833	-29.5737
0.0140	43.1971	-57.5981	543.402	2.89123	4.56417	2.38883	18.0329	555.845	-7.86116	-0.321453
0.0147	11.1769	93.7408	611.47	0.722809	2.74101	0.551269	15.8928	402.96	-10.0011	-0.321453
0.0153	-16.0101	356.215	468.648	1.36531	2.43925	-0.65846	13.7526	323.352	-10.0011	-0.964359
0.0160	-23.6628	318.651	292.849	2.89123	2.43925	-1.27098	13.7526	-77.9486	-9.084	-0.642906
0.0167	-49.2387	161.762	201.606	5.62185	5.48203	0.85753	14.9809	-542.136	-7.24973	-0.642906
0.0173	-94.1476	109.917	74.338	5.94309	6.39989	1.47005	10.7006	-572.996	-7.24973	-0.642906
0.0180	-108.748	101.389	-114.555	4.69826	6.70166	1.47005	1.24686	-388.637	-7.24973	-0.642906
0.0187	-87.0991	153.572	-202.438	3.49358	8.83914	4.2264	-5.77835	-314.499	-6.02689	-0.642906
0.0193	-56.8913	127.311	-103.886	1.04406	12.1963	10.321	-2.11221	-271.16	-6.63831	-0.321453
0.0200	-86.495	24.7719	63.6688	0.441716	17.9926	19.7844	15.5857	-182.946	-6.94402	-0.321453
0.0207	-166.747	-45.1445	157.371	-0.481872	19.2248	22.8317	26.8819	-156.389	-5.41546	-0.642906
0.0213	-181.75	-85.0774	145.455	0.120468	15.8677	19.1719	23.5228	-204.646	-2.35835	-0.321453
0.0220	-117.609	-47.8518	50.8519	3.49358	14.3337	17.3344	19.5589	-268.702	0.698769	-0.321453
0.0227	-60.2142	-23.7567	-78.8413	3.17233	11.5927	14.5933	16.5069	-393.247	-0.829789	-0.321453
0.0233	-27.8919	-92.3871	-141.09	4.09592	9.45524	11.546	14.3668	-554.984	-1.74692	-0.321453
0.0240	-4.73255	-67.6829	-115.144	6.54543	7.61952	8.78968	13.1478	-593.713	-1.1355	-0.321453
0.0247	9.36442	143.488	-77.9406	5.0195	3.96064	3.61388	17.4188	-426.197	-2.05263	-0.321453
0.0253	44.4055	317.433	-30.622	5.62185	2.12492	-0.0459391	32.3718	-204.646	-2.35835	-0.321453
0.0260	89.6164	270.122	50.5402	6.54543	0.905289	-0.65846	18.3307	-58.4615	-2.96977	-0.321453
0.0267	75.5195	111.135	71.2897	6.22419	1.82315	0.245008	-36.9033	81.3297	-5.10975	-0.321453
0.0273	-4.73255	12.8597	-105.099	5.62185	2.74101	-0.65846	-78.7102	258.005	-6.02689	-0.321453
0.0280	-95.9601	-8.79877	-344.359	3.77467	0.905289	-5.23706	-91.2253	342.224	-6.02689	-0.321453
0.0287	-134.727	10.1524	-423.096	3.49358	2.12492	-6.4621	-88.4803	184.483	-5.72117	-0.321453
0.0293	-88.0054	59.5609	-326.658	4.69826	3.34454	-5.23706	-68.6423	-74.6291	-4.80404	-0.321453
0.0300	13.5935	116.347	-123.389	5.94309	3.65888	-3.72107	-39.9553	-192.72	-4.19262	0
0.0307	90.2206	158.716	52.9996	5.94309	4.56417	0.245008	-18.2841	-164.012	-4.19262	-0.964359
0.0313	92.6372	152.354	156.124	3.49358	4.56417	2.38883	-1.80515	11.7415	-4.49833	-1.60727
0.0320	47.4262	86.0926	222.979	2.89123	5.79637	2.08257	14.6738	253.456	-3.8869	-0.642906
0.0327	-27.8919	-12.1829	207.426	1.96765	6.39989	1.47005	23.5228	249.768	-4.19262	0.321453
0.0333	-94.7518	-156.483	137.522	1.04406	6.09813	2.08257	29.9339	91.4114	-3.8869	0
0.0340	-95.9601	-280.072	119.197	1.6464	5.79637	3.92014	42.1419	57.232	-2.96977	0
0.0347	-48.9366	-248.328	135.686	-1.08421	3.96064	3.92014	39.0899	-57.232	-3.58119	0
0.0353	2.31593	-134.215	36.1991	-2.93139	3.65888	4.8236	21.0849	-299.869	-3.8869	0
0.0360	33.43	-66.1938	-162.463	-3.85498	4.8785	7.57995	7.04381	-296.18	-4.80404	0
0.0367	43.1971	-30.4573	-170.396	-3.21248	6.09813	9.09594	-0.893271	68.4817	-5.10975	0
0.0373	43.1971	-32.2847	-13.2326	-0.481872	4.8785	6.35491	-2.72634	392.632	-3.58119	0
0.0380	24.569	-106.127	28.2665	-1.08421	0.301763	1.16379	-22.8622	301.037	-2.96977	0
0.0387	-20.2392	-179.36	31.6266	-2.32905	-1.83573	-0.3522	-60.3981	110.038	-2.96977	-0.321453
0.0393	-68.471	-177.532	84.4184	0.120468	-0.917863	0.551269	-72.2991	197.576	-0.524077	0
0.0400	-84.0784	-140.645	84.1066	1.96765	-0.314337	-0.0459391	-61.0123	177.782	1.57223	0
0.0407	-68.471	-112.286	63.9806	1.6464	-0.917863	-0.65846	-50.6373	-205.875	1.87794	-0.321453
0.0413	-45.6138	-92.1164	81.0583	-0.160624	-3.05535	-1.57724	-41.4813	-461.606	2.18365	-0.642906
0.0420	-22.7565	-80.2042	96.3346	-1.08421	-4.89108	-2.49602	-22.5644	-315.729	1.87794	0
0.0427	-8.35749	-67.4121	80.7465	0.441716	-4.58931	-0.0459391	6.73675	-56.0025	1.26652	0.321453
0.0433	-3.82632	-65.2463	46.9029	1.6464	-3.05535	0.85753	25.6536	75.2438	0.393058	0.321453
0.0440	0.201385	-76.8201	0.484964	0.722809	-2.75359	-2.80228	29.0127	112.128	-1.1355	0
0.0447	0.201385	-75.331	-83.102	-0.803121	-4.27498	-5.54332	34.5119	176.245	-2.96977	-0.321453
0.0453	-9.26372	-64.3664	-165.2	-2.0078	-4.58931	-6.4621	52.2098	258.005	-4.49833	0
0.0460	-5.33671	-59.4256	-188.997	-1.40546	-2.75359	-6.15584	59.8398	248.231	-5.72117	0
0.0467	15.406	-54.5524	-186.573	1.04406	0.301763	-3.10855	44.5798	161.614	-5.41546	0
0.0473	19.7358	-39.5945	-170.084	1.96765	1.21963	-0.964721	25.0488	100.264	-5.10975	0
0.0480	9.66649	-17.6652	-121.553	1.04406	-0.314337	-1.27098	14.3668	21.5158	-5.72117	0
0.0487	13.5935	7.64816	-55.6669	-0.481872	-1.53396	-1.27098	7.64863	-107.272	-6.94402	0
0.0493	33.1279	46.7689	3.56795	-0.803121	-1.53396	-2.49602	3.9918	-192.413	-7.55544	0
0.0500	46.2179	76.6847	47.4918	1.36531	0.301763	-2.18976	6.42969	-179.011	-6.94402	-0.321453
0.0507	25.4752	59.5609	99.9719	1.96765	2.12492	-1.27098	10.4029	-92.0261	-7.24973	0
0.0513	-7.75333	12.8597	147.602	1.6464	2.74101	-0.0459391	11.9289	7.19242	-6.3326	0
0.0520	-13.5935	-34.4506	139.67	0.722809	3.65888	2.38883	13.7526	67.3137	-5.41546	0
0.0527	-24.569	-75.6018	96.0229	-0.481872	4.2624	4.2264	13.7526	67.0063	-5.41546	-0.321453
0.0533	-47.7283	-101.254	81.0583	1.04406	5.79637	6.04865	12.2266	31.9048	-4.80404	0
0.0540	-35.8466	-106.736	110.052	2.24874	4.8785	6.04865	11.3148	35.2244	-3.58119	0
0.0547	-6.8471	-98.2078	163.156	1.04406	2.12492	3.92014	8.56982	128.91	-3.58119	0
0.0553	-3.22216	-77.4292	164.68	1.36531	1.52139	2.38883	5.21075	241.53	-2.35835	0
0.0560	-10.17	-50.8975	43.2311	3.17233	0.905289	0.85753	2.4658	283.025	-0.829789	0
0.0567	-5.94087	-28.6299	-103.886	5.3006	1.82315	0.85753	1.24686	299.807	0.0873462	-0.321453
0.0573	-1.71177	-23.1475	-162.775	6.82653	2.74101	1.47005	-0.586209	258.927	0.960808	-0.321453
0.0580	-6.24294	-34.7213	-159.726	5.94309	0.603526	-1.27098	-4.25234	87.4156	1.57223	0
0.0587	-3.82632	-37.1579	-138.665	4.41716	-0.6161	-3.41481	-6.38316	-87.1082	0.960808	-0.321453
0.0593	2.01385	-14.2811	-119.751	3.77467	-1.83573	-3.72107	-6.0761	-162.844	0.393058	-1.28581
0.0600	0.201385	18.3421	-95.6418	4.41716	-1.83573	-2.80228	-4.25234	-207.658	0.393058	-0.964359
0.0607	2.92009	42.7756	-48.3232	3.17233	-2.13749	-2.18976	-3.94528	-277.554	0.0873462	0
0.0613	15.406	62.6067	-19.3293	-0.160624	-5.4946	-4.9308	-6.69023	-347.142	0.0873462	-0.321453
0.0620	35.2424	74.7896	-12.6091	-1.40546	-8.24819	-4.62454	-11.8824	-316.651	1.26652	-1.28581
0.0627	44.7075	64.7725	33.4625	-0.803121	-7.94643	-2.18976	-15.5392	-168.008	3.10079	-0.964359
0.0633	29.2009	42.5048	119.509	0.120468	-6.1107	-0.65846	-12.4872	-50.5314	5.54648	0
0.0640	11.781	10.4232	179.333	1.04406	-4.89108	-0.3522	-7.90917	-16.0446	7.99217	0.321453
0.0647	6.54502	-27.4116	154.011	0.722809	-5.4946	-2.18976	-9.43517	6.57769	9.21502	0
0.0653	7.14918	-37.1579	97.8588	1.36531	-4.58931	-3.10855	-11.5753	27.9091	9.52073	0
0.0660	12.3852	-28.9683	85.9425	3.49358	-3.05535	-4.31827	-12.1801	32.5196	10.4379	0
0.0667	10.8748	-17.936	79.5341	4.41716	-3.67145	-6.4621	-15.2321	39.5276	9.52073	0
0.0673	5.03463	4.60244	54.212	3.49358	-5.80894	-8.89687	-18.5912	64.5474	7.07504	-0.321453
0.0680	4.43048	20.5079	32.5272	1.36531	-7.33033	-9.50939	-19.8101	59.9369	6.1579	-0.321453
0.0687	2.92009	23.5536	4.15683	1.04406	-7.02857	-9.20313	-15.2321	23.6674	6.76933	0.321453
0.0693	3.52424	19.8988	-33.6704	1.6464	-6.7268	-9.50939	-6.38316	15.1225	6.46362	0
0.0700	7.45126	15.6347	-44.6513	3.17233	-3.97321	-7.07462	-2.11221	13.2783	6.76933	0
0.0707	-0.402771	18.6805	-28.7861	5.0195	-0.917863	-5.23706	-4.5501	-11.4341	8.29789	0
0.0713	-15.1039	31.2018	-35.8181	4.09592	-3.36969	-7.9934	-11.8824	-27.2943	9.82644	0
0.0720	-16.9164	36.6841	-60.8283	3.49358	-5.4946	-8.89687	-17.6793	-22.7453	11.355	0
0.0727	-7.75333	5.55	-58.4035	4.41716	-4.89108	-6.76836	-17.3723	-7.19242	12.8836	0
0.0733	2.61801	-33.2323	-37.9657	3.77467	-4.27498	-5.54332	-16.1533	7.80716	12.5778	0
0.0740	3.82632	-41.7603	-30.622	1.6464	-4.27498	-3.41481	-13.4084	8.97516	11.355	-0.321453
0.0747	-1.71177	-39.9329	-35.5063	-0.160624	-3.67145	-2.18976	-8.52329	7.49979	10.7436	0
0.0753	-2.92009	-35.3305	-41.2912	-0.481872	-2.75359	-2.80228	-5.47128	7.19242	10.1322	0
0.0760	-4.43048	-20.3725	-45.5866	0.722809	-2.45183	-4.9308	-4.85716	0.430316	8.29789	0
0.0767	-7.14918	-4.80548	-39.1782	1.96765	-0.6161	-4.02733	-2.72634	2.88926	7.99217	0
0.0773	-5.94087	-0.879877	-24.8371	-0.160624	0.603526	-0.65846	-3.33116	23.36	7.38075	-0.321453
0.0780	-3.52424	-7.24207	-17.4933	-4.73841	-0.917863	-0.3522	-9.12811	41.6792	3.71221	-0.321453
0.0787	-1.71177	-11.5738	-12.6091	-5.98325	1.52139	1.47005	-10.3564	49.9166	0.0873462	-0.321453
0.0793	-5.94087	-9.74633	-10.1842	-6.58559	3.65888	3.61388	-7.60211	56.3099	-2.35835	-0.321453
0.0800	-12.3852	-6.36219	-13.8561	-6.58559	4.56417	2.38883	-7.90917	60.859	-3.58119	-0.321453
0.0807	-12.3852	-1.48902	-14.7568	-5.38091	4.8785	2.08257	-10.0493	60.859	-2.05263	-0.321453
0.0813	-14.1977	4.60244	-17.2162	-7.18793	2.12492	0.245008	-9.12811	56.6173	-1.74692	-0.321453
0.0820	-16.0101	10.7616	-22.3776	-6.90684	-0.6161	-2.80228	-5.16422	52.9289	-1.1355	-0.321453
0.0827	-14.1977	14.4165	-25.7377	-2.93139	0.603526	-5.23706	-5.77835	53.2362	0.960808	-0.321453
0.0833	-13.5935	15.0256	-26.673	1.96765	3.96064	-5.54332	-14.3202	59.3221	3.71221	-0.321453
0.0840	-15.7081	13.4689	-24.8371	5.62185	5.79637	-6.4621	-21.9503	64.8547	5.54648	-0.321453
0.0847	-21.2461	8.93414	-24.8371	3.49358	2.43925	-12.572	-28.9662	58.7689	3.71221	-0.321453
0.0853	-24.2669	5.82073	-23.3129	0.722809	-1.2322	-16.5381	-31.1063	55.3878	2.48937	-0.321453
0.0860	-23.9648	3.99329	-21.477	0.120468	-2.45183	-15.6193	-27.7472	60.2442	3.4065	-0.321453
0.0867	-20.2392	3.11341	-18.4286	2.24874	-0.314337	-12.8629	-24.6952	47.1503	4.93506	0
0.0873	-16.3122	6.42987	-13.2326	5.0195	3.65888	-7.9934	-17.3723	19.979	6.46362	-0.321453
0.0880	-17.2184	9.54328	-13.2326	1.6464	3.96064	-5.23706	-10.0493	12.0488	5.24077	-0.321453
0.0887	-18.7288	10.1524	-15.0685	-2.93139	5.18027	-3.10855	-4.5501	25.1427	1.26652	-0.321453
0.0893	-21.2461	10.4232	-17.8051	-5.05966	6.39989	-1.8835	-4.25234	33.995	-2.96977	-1.28581
0.0900	-22.1524	11.9799	-16.9045	-3.53373	7.61952	-1.27098	-11.2682	39.835	-3.58119	-1.28581
0.0907	-18.4268	15.0256	-11.3967	-0.160624	9.45524	0.245008	-19.5124	48.3798	-1.1355	-0.321453
0.0913	-21.2461	14.078	-12.9208	-2.32905	7.01599	-2.18976	-26.8353	48.3798	-1.74692	-0.321453
0.0920	-25.4752	15.9055	-12.9208	-2.61014	7.01599	-3.41481	-26.8353	45.3061	-2.35835	-0.321453
0.0927	-28.7981	19.8988	-12.9208	-1.08421	7.31775	-4.9308	-29.2732	42.5398	-1.44121	0
0.0933	-33.732	20.7786	-15.9692	-0.803121	5.48203	-6.4621	-32.6323	38.9128	-0.829789	0
0.0940	-31.6175	20.5079	-12.0202	3.17233	7.01599	-3.72107	-18.2841	40.7571	1.87794	0
0.0947	-32.2216	16.2439	-13.5444	2.24874	4.2624	-5.84958	-9.12811	40.1423	3.4065	-0.321453
0.0953	-32.8258	14.078	-15.6574	-0.481872	2.12492	-5.84958	-15.8463	37.6834	2.18365	0
0.0960	-26.6835	16.5146	-11.0849	0.722809	4.2624	-0.0459391	-20.7313	38.2981	2.48937	0
0.0967	-26.9856	14.6872	-14.445	-1.68655	0.905289	0.551269	-28.3613	33.995	2.79508	0
0.0973	-29.1002	13.4689	-14.445	-2.32905	0.905289	3.00135	-30.7992	30.0606	3.4065	-0.321453
0.0980	-28.1939	14.4165	-11.0849	-2.32905	3.34454	6.04865	-19.2053	28.5238	3.10079	-0.321453
0.0987	-31.3154	11.3707	-13.5444	-6.90684	2.12492	5.74239	-5.47128	24.8968	-0.829789	0
0.0993	-29.1002	10.1524	-10.8078	-6.26434	4.8785	8.49873	15.2787	24.2821	-2.96977	0
0.1000	-24.8711	10.7616	-9.56072	-4.45732	6.09813	7.88621	55.5689	22.1305	-3.58119	0
0.1007	-24.569	11.6415	-12.6091	-4.13607	4.2624	3.00135	87.6057	18.1347	-4.19262	0
0.1013	-20.5413	13.4689	-9.24896	-0.803121	5.79637	-0.0459391	68.6888	19.3642	-3.58119	0
0.1020	-16.9164	9.81402	-7.1359	-0.481872	4.56417	-4.02733	23.2157	21.2084	-2.96977	0
0.1027	-18.7288	4.94085	-6.82414	0.120468	4.2624	-4.31827	6.12263	20.9011	-2.05263	0
0.1033	-24.8711	2.775	-5.61173	2.56999	6.70166	-2.18976	6.73675	19.979	-1.1355	0
0.1040	-28.7981	0.338414	-6.82414	0.441716	6.70166	-1.27098	-0.586209	18.1347	-0.524077	0
0.1047	-25.1732	0.338414	-5.92349	-1.68655	6.70166	0.85753	0.939795	18.1347	0.393058	-0.321453
0.1053	-23.9648	1.55671	-5.92349	-3.85498	6.39989	-0.964721	22.3039	16.9053	0.393058	-0.321453
0.1060	-30.0064	0.676829	-9.87248	-6.58559	4.2624	-3.41481	41.8349	12.9709	0.393058	-0.321453
0.1067	-33.1279	1.55671	-8.97183	-4.13607	5.48203	-0.65846	44.8869	12.6636	2.79508	-0.321453
0.1073	-34.3362	3.11341	-6.82414	-0.481872	6.70166	-0.65846	36.9498	14.2004	5.24077	0
0.1080	-40.3777	1.89512	-9.24896	-0.160624	3.96064	-4.31827	24.4347	13.2783	5.24077	0.321453
0.1087	-52.6623	1.28597	-10.1842	0.722809	2.43925	-5.54332	11.3148	12.0488	6.76933	0
0.1093	-68.1689	0.94756	-8.97183	1.6464	2.43925	-6.15584	2.4658	11.7415	8.6036	0
0.1100	-79.4465	-1.15061	-8.66007	0.722809	1.52139	-8.29966	-0.893271	10.8194	8.6036	0
0.1107	-81.9638	-3.58719	-7.1359	0.722809	1.82315	-9.81565	-4.25234	9.89726	7.99217	-0.321453
0.1113	-77.3319	-3.92561	-3.15227	3.17233	3.65888	-10.4282	-8.21623	10.2046	7.99217	-0.321453
0.1120	-74.6132	-4.53475	-1.93986	4.09592	2.74101	-11.347	-13.1013	10.512	8.90931	0
0.1127	-77.0299	-6.63292	-2.56338	3.17233	0.301763	-12.8629	-18.5912	9.5899	9.21502	0
0.1133	-79.1444	-8.18963	0.484964	4.09592	0.301763	-14.088	-21.0384	8.97516	9.21502	-0.964359
0.1140	-77.9361	-9.0695	2.04378	4.69826	-0.314337	-15.6193	-23.7833	8.36042	9.82644	-0.964359
0.1147	-74.3112	-10.0171	1.42025	4.41716	-1.53396	-15.9256	-28.3613	8.97516	11.0493	0
0.1153	-75.8216	-11.2354	3.25619	4.69826	-2.13749	-14.3942	-29.2732	9.5899	12.8836	0
0.1160	-82.568	-13.0628	3.56795	3.49358	-3.67145	-13.7817	-25.0023	8.36042	15.0235	0
0.1167	-81.9638	-13.4012	2.63266	2.56999	-5.19284	-11.347	-19.5124	7.19242	16.2464	0
0.1173	-70.2835	-10.6262	-0.415683	1.96765	-7.33033	-8.59061	-14.9344	7.19242	17.4692	-0.321453
0.1180	-61.5232	-6.63292	-6.82414	-0.160624	-8.85172	-9.20313	-12.7942	8.97516	17.1635	0
0.1187	-69.9814	-4.19634	-9.56072	0.722809	-7.63209	-9.50939	-11.5753	10.512	15.635	-0.321453
0.1193	-74.9153	-4.19634	-8.97183	3.49358	-6.41247	-9.81565	-8.21623	9.89726	15.635	-1.28581
0.1200	-55.0789	-5.75304	-8.03655	3.49358	-7.33033	-11.9595	-5.47128	9.89726	17.1635	-0.964359
0.1207	-45.0096	-6.97134	-6.20061	1.6464	-7.33033	-11.0407	-6.0761	13.5857	16.8578	0
0.1213	-56.2872	-7.24207	-7.1359	-0.481872	-7.33033	-8.89687	-7.30435	18.7495	13.1893	0
0.1220	-72.4987	-5.1439	-5.92349	0.722809	-5.19284	-5.84958	-3.33116	20.9011	10.7436	-0.321453
0.1227	-96.5642	-5.1439	-2.8405	1.36531	-1.83573	-3.72107	2.15874	19.3642	10.4379	0
0.1233	-97.4705	-8.18963	-4.08755	-2.93139	-2.75359	-4.9308	1.24686	15.1225	8.29789	0
0.1240	-68.471	-8.46036	-5.29996	-5.662	-3.05535	-4.62454	-1.49809	12.6636	4.93506	0
0.1247	-34.3362	-8.79877	-8.03655	-7.50918	-3.67145	-4.02733	-3.02409	11.4341	2.79508	0
0.1253	9.96857	-10.9646	-8.34831	-8.43277	-3.97321	-3.72107	-1.49809	10.8194	1.26652	-0.321453
0.1260	46.8221	-14.0104	-3.46403	-6.58559	-2.75359	-2.49602	3.68474	9.5899	-0.218365	-0.321453
0.1267	50.2456	-18.5451	-2.25162	-5.38091	-2.13749	-3.10855	3.68474	5.65558	-1.74692	0
0.1273	24.2669	-18.2744	-2.8405	-2.61014	0.603526	-1.27098	2.15874	4.73347	-2.35835	0
0.1280	5.63879	-11.8445	-8.66007	-4.73841	2.12492	0.551269	2.77286	6.88505	-5.41546	-0.321453
0.1287	17.8226	-5.41463	-19.641	-13.0106	1.21963	0.551269	2.15874	9.28253	-11.8354	-0.321453
0.1293	7.14918	1.55671	-20.5417	-12.087	5.18027	3.30761	5.82487	17.2126	-14.2811	-0.321453
0.1300	-59.0059	7.37743	-19.0175	-8.11152	7.31775	3.61388	6.42969	25.7575	-13.364	-0.321453
0.1307	-148.723	10.7616	-26.673	-10.2398	3.34454	-1.27098	-3.94528	29.1385	-14.8925	-0.321453
0.1313	-238.44	15.6347	-29.7214	-9.63745	3.65888	-1.57724	-23.4763	33.995	-15.5039	-0.321453
0.1320	-268.95	15.9055	-27.5737	-7.50918	4.2624	-0.964721	-56.1272	35.8392	-14.2811	0
0.1327	-215.281	10.7616	-25.7377	-10.2398	1.52139	-0.65846	-73.5274	31.5975	-15.8097	0
0.1333	-143.588	5.55	-16.5927	-10.2398	3.34454	4.2264	-61.3193	23.6674	-16.1154	0
0.1340	-99.2829	-5.41463	-6.51237	-10.8421	3.65888	6.04865	-49.4183	8.36042	-17.3382	0
0.1347	-59.308	-17.3268	-3.46403	-14.2152	0.603526	2.08257	-39.0434	-5.96295	-19.4782	0
0.1353	6.8471	-19.7634	2.04378	-12.087	1.82315	2.38883	-17.9864	-7.80716	-16.1154	-0.321453
0.1360	54.4747	-21.5908	7.51694	-10.2398	1.82315	1.77631	-3.02409	-8.11453	-11.5297	-0.642906
0.1367	65.4502	-26.1933	10.5653	-10.8421	0.603526	-1.8835	0.939795	-10.2046	-10.0011	-0.321453
0.1373	92.6372	-25.5841	15.7613	-8.11152	2.12492	0.551269	-24.3882	-6.88505	-7.86116	0
0.1380	95.3559	-24.3658	13.0247	-9.3162	-0.6161	2.08257	-114.413	-6.88505	-6.63831	0
0.1387	61.2211	-25.2457	9.04111	-10.8421	-3.97321	0.551269	-206.271	-12.0488	-6.02689	0
0.1393	100.894	-23.4183	11.5006	-9.03511	-2.45183	1.77631	-220.005	-12.6636	-3.8869	-0.321453
0.1400	204.305	-19.7634	8.14047	-9.3162	-2.13749	1.47005	-185.828	-8.11453	-3.58119	0
0.1407	254.35	-11.5738	-3.46403	-8.71386	-2.13749	-0.65846	-140.355	-4.42611	-2.96977	0
0.1413	153.053	-3.58719	-13.5444	-7.18793	-1.83573	-1.57724	-90.0063	-4.73347	-1.1355	0
0.1420	-55.381	-0.541463	-22.0659	-8.71386	-4.58931	-3.72107	-50.3302	-5.96295	-1.74692	-0.321453
0.1427	-180.844	4.60244	-30.9338	-9.9587	-5.80894	-5.23706	-20.1172	-1.35242	-2.96977	-0.321453
0.1433	-212.26	12.2506	-34.6056	-6.90684	-4.27498	-3.72107	8.87688	5.34821	-1.44121	-0.321453
0.1440	-218	14.4165	-34.6056	-4.45732	-3.36969	-1.8835	34.8096	10.512	0.393058	0
0.1447	-174.098	9.81402	-35.5063	-6.58559	-5.19284	-3.10855	51.2886	11.7415	-1.1355	0
0.1453	-179.233	0.94756	-30.622	-8.11152	-6.7268	-2.49602	75.3976	6.27032	-2.96977	-0.321453
0.1460	-304.998	-9.40792	-19.9528	-6.26434	-5.4946	-0.964721	123.011	-2.5819	-2.96977	-0.321453
0.1467	-382.531	-15.8378	-14.1332	-5.662	-5.19284	-2.18976	177.64	-12.0488	-4.49833	0
0.1473	-317.786	-18.2744	-13.2326	-6.26434	-5.4946	-3.10855	211.817	-25.2042	-6.02689	-0.321453
0.1480	-218.906	-22.8091	-7.44766	-4.73841	-4.58931	-4.31827	205.406	-41.3718	-6.02689	0
0.1487	-157.282	-30.7957	0.796726	-4.45732	-5.19284	-6.76836	160.854	-52.6215	-6.63831	-0.321453
0.1493	-143.286	-32.2847	4.15683	-5.05966	-5.4946	-7.07462	111.417	-53.851	-6.94402	-1.28581
0.1500	-98.3767	-24.3658	3.25619	-4.73841	-3.67145	-5.54332	79.3708	-48.0724	-6.63831	-1.28581
0.1507	35.5445	-12.1829	-3.15227	-6.58559	-2.75359	-5.23706	58.3138	-37.376	-6.94402	-0.321453
0.1513	123.751	0.94756	-12.9208	-8.71386	-3.05535	-4.31827	44.2727	-22.7453	-7.86116	0
0.1520	82.87	14.4165	-18.4286	-8.11152	-1.83573	-2.49602	42.4397	-8.11453	-7.55544	-0.321453
0.1527	14.1977	24.4335	-21.1652	-7.50918	-1.2322	-1.57724	42.4397	1.96716	-6.3326	-0.321453
0.1533	2.31593	29.9835	-22.0659	-6.90684	-0.0125735	2.08257	40.3088	10.512	-5.41546	-0.321453
0.1540	3.52424	33.6384	-23.3129	-6.26434	0.905289	6.96743	40.0018	19.0568	-4.49833	0
0.1547	-39.1694	37.9024	-30.9338	-7.50918	-0.917863	6.35491	35.4238	22.1305	-3.27548	0
0.1553	-81.0576	42.5048	-38.2429	-5.98325	-1.2322	5.74239	31.1528	21.2084	-1.44121	0
0.1560	-57.7976	45.2122	-39.1782	-2.32905	-0.314337	7.57995	30.8458	19.3642	1.26652	-0.321453
0.1567	2.61801	41.2189	-38.8664	-1.08421	-1.53396	6.04865	28.7056	11.7415	2.18365	-0.321453
0.1573	34.0341	32.0817	-38.2429	-2.61014	-3.67145	3.00135	24.1276	-1.04505	2.18365	0
0.1580	6.54502	23.8244	-37.9657	-4.73841	-6.7268	2.08257	18.3307	-9.03663	1.57223	-0.321453
0.1587	-35.5445	18.9512	-35.5063	-5.98325	-7.33033	3.00135	13.4549	-7.49979	0.0873462	-0.321453
0.1593	-47.1242	15.9055	-27.8854	-4.73841	-4.27498	4.51734	11.3148	-5.65558	-0.218365	0
0.1600	-51.4539	11.0323	-20.8535	-5.05966	-3.36969	4.2264	7.35087	-12.9709	0.960808	0
0.1607	-52.3602	3.72256	-14.1332	-6.58559	-3.97321	3.30761	3.68474	-23.36	2.18365	0
0.1613	-21.5482	-4.53475	-8.66007	-8.11152	-5.4946	2.38883	0.0186098	-31.9048	2.79508	0
0.1620	51.1519	-13.0628	-4.9882	-9.9587	-7.63209	1.16379	-4.5501	-36.4539	2.79508	-0.321453
0.1627	129.591	-16.7177	2.04378	-8.43277	-6.7268	2.38883	-4.25234	-31.9048	5.24077	-0.321453
0.1633	145.702	-16.4469	6.89342	-6.58559	-7.63209	2.08257	-4.25234	-23.36	9.82644	0
0.1640	94.1476	-14.6195	3.84507	-7.18793	-10.9892	0.245008	-8.21623	-15.4299	12.5778	0
0.1647	34.9403	-7.58048	-0.727446	-6.58559	-10.6874	1.77631	-10.9612	-5.96295	12.8836	0
0.1653	5.63879	-3.92561	-4.67644	-8.43277	-11.6053	1.47005	-15.2321	-0.184421	9.21502	-0.321453
0.1660	23.0586	-3.58719	-7.1359	-9.9587	-11.9071	1.47005	-18.8983	3.504	5.54648	-0.321453
0.1667	82.2659	4.94085	-8.03655	-6.90684	-7.63209	5.74239	-14.9344	9.5899	4.93506	-0.321453
0.1673	99.9878	12.2506	-14.445	-9.03511	-7.94643	5.74239	-14.3202	14.2004	3.4065	-0.321453
0.1680	61.8253	14.4165	-21.7887	-14.5365	-9.16605	3.30761	-15.2321	18.1347	2.18365	-0.321453
0.1687	54.7768	18.9512	-20.2646	-11.7657	-4.89108	6.96743	-3.94528	24.8968	5.54648	-0.321453
0.1693	0.805541	20.5079	-20.2646	-9.03511	-4.89108	7.57995	4.29887	26.0648	6.76933	-0.321453
0.1700	-160.101	18.6805	-20.5417	-10.561	-6.41247	6.35491	3.07062	23.6674	3.71221	-0.321453
0.1707	-245.489	18.0713	-12.0202	-9.63745	-1.83573	11.546	6.73675	24.5895	-0.829789	-0.321453
0.1713	-191.215	12.2506	-6.82414	-11.1634	-0.917863	12.1585	6.12263	19.0568	-4.19262	-0.321453
0.1720	-114.89	2.50427	-7.1359	-13.2916	-1.83573	7.57995	-0.279147	6.88505	-5.72117	-0.321453
0.1727	-45.6138	0.338414	-3.77579	-10.8421	2.74101	8.78968	0.325672	1.35242	-7.55544	-0.321453
0.1733	13.8956	4.3317	-4.9882	-11.4846	6.39989	9.4022	0.632734	4.11874	-10.3068	0
0.1740	54.1726	10.4232	-14.7568	-16.6648	6.70166	6.35491	-2.11221	8.36042	-13.364	0
0.1747	93.2414	16.2439	-19.9528	-18.793	8.23562	6.96743	-1.20033	12.3562	-13.9754	0
0.1753	104.821	15.9055	-19.641	-20.9213	8.53738	8.49873	-0.586209	12.9709	-15.1982	0
0.1760	60.3149	13.1982	-17.8051	-23.9732	8.83914	8.49873	-0.586209	9.89726	-21.9239	-0.321453
0.1767	30.4092	15.9055	-16.9045	-21.5236	12.1963	10.6272	-2.72634	8.66779	-24.0639	-0.321453
0.1773	124.96	18.9512	-16.9045	-16.3435	14.032	10.9335	-11.2682	7.80716	-19.1725	-0.321453
0.1780	259.586	17.1238	-12.0202	-10.8421	13.7302	10.321	-11.2682	3.81137	-11.8354	-0.321453
0.1787	283.349	9.20487	-1.93986	-5.662	13.1141	9.70846	-4.25234	-1.04505	-3.27548	0
0.1793	272.978	-1.15061	5.36924	-5.05966	10.0588	4.8236	-5.47128	-3.504	3.10079	0
0.1800	288.585	-2.70731	7.51694	-5.38091	8.23562	2.38883	-6.69023	-4.11874	4.01792	-1.28581
0.1807	255.256	1.89512	7.51694	-3.53373	9.75701	5.43613	0.325672	-5.65558	2.79508	-1.28581
0.1813	197.962	3.11341	7.20518	-2.0078	10.6749	8.19247	7.95569	-12.3562	4.01792	-0.321453
0.1820	167.351	1.28597	5.68101	1.04406	10.9766	8.19247	11.0077	-25.5116	5.24077	-0.321453
0.1827	118.616	5.82073	-2.25162	4.69826	10.3731	6.04865	12.5337	-33.7491	4.62935	-0.642906
0.1833	54.7768	19.5603	-17.4933	8.07136	9.75701	4.2264	11.9289	-26.3722	4.62935	-0.321453
0.1840	27.5898	30.8634	-29.4096	11.4043	9.45524	3.61388	7.35087	-11.1267	5.85219	-0.321453
0.1847	-0.704848	32.0817	-32.7697	14.7774	8.83914	3.30761	3.9918	-5.34821	7.99217	-0.321453
0.1853	-10.7741	28.7652	-29.0978	18.4316	9.45524	4.8236	7.35087	-9.28253	12.2721	-0.321453
0.1860	49.0373	22.9445	-23.9018	20.5599	9.45524	5.74239	14.0597	-13.5857	13.495	-0.321453
0.1867	107.842	17.4622	-21.477	18.4316	7.31775	4.2264	20.7779	-18.7495	11.0493	-0.321453
0.1873	116.703	13.4689	-19.0175	15.9821	6.70166	3.92014	23.5228	-26.987	9.52073	-0.321453
0.1880	44.4055	6.15914	-14.7568	15.0987	5.18027	3.61388	15.8928	-34.9171	9.82644	-0.321453
0.1887	-72.1966	0.676829	-8.03655	16.3034	3.65888	3.30761	10.0958	-36.1465	10.7436	-0.321453
0.1893	-72.1966	-3.58719	-0.727446	17.508	2.74101	4.51734	15.5857	-35.5318	11.9664	-0.321453
0.1900	21.5482	-10.6262	3.56795	15.9821	-0.314337	3.61388	20.1637	-44.0766	12.5778	0
0.1907	79.8493	-15.4994	6.30453	13.8538	-2.45183	3.00135	20.1637	-54.1583	11.6607	0
0.1913	110.963	-14.6195	7.8287	12.0468	-2.45183	3.92014	20.1637	-53.5436	10.4379	-0.321453
0.1920	107.238	-10.0171	6.61629	9.27604	-2.75359	3.61388	20.4708	-42.6013	8.90931	-0.321453
0.1927	5.63879	-2.09817	5.36924	7.75011	-0.917863	5.12987	23.2157	-28.2164	8.29789	-0.321453
0.1933	-137.445	6.15914	2.3209	4.69826	0.603526	7.27369	24.7417	-15.7373	7.38075	-0.321453
0.1940	-196.049	10.4232	-3.15227	0.120468	-0.0125735	5.43613	20.4708	-5.96295	6.1579	-0.321453
0.1947	-178.025	10.4232	-3.15227	0.722809	-0.0125735	4.51734	16.5069	1.96716	5.85219	-0.321453
0.1953	-132.612	9.81402	-0.103921	3.77467	1.52139	3.61388	14.6738	7.49979	5.85219	-0.642906
0.1960	-59.9121	12.589	2.3209	6.22419	3.65888	3.00135	13.1478	12.9709	6.1579	-0.321453
0.1967	-16.0101	15.6347	6.61629	8.6737	7.01599	4.51734	10.4029	17.8274	6.76933	-0.321453
0.1973	-6.8471	11.3707	10.2535	8.07136	7.61952	4.2264	3.9918	14.8152	6.1579	-0.321453
0.1980	20.3399	2.775	12.4012	6.22419	5.18027	2.69509	-0.279147	5.96295	4.93506	-0.321453
0.1987	66.6585	-2.3689	15.7613	7.75011	4.8785	2.38883	2.4658	-1.35242	4.32364	-0.321453
0.1993	117.005	-2.70731	15.1378	7.46902	5.18027	1.47005	3.68474	-5.65558	3.4065	-0.321453
0.2000	75.8216	3.99329	10.877	8.07136	7.31775	1.16379	0.325672	-3.81137	3.10079	-0.321453
0.2007	-66.3564	12.8597	6.61629	10.1996	9.45524	1.77631	-3.63822	3.19663	3.71221	0
0.2013	-153.355	15.9055	0.484964	7.75011	6.39989	0.245008	-7.90917	7.80716	2.48937	-0.321453
0.2020	-135.935	17.7329	-3.15227	5.0195	2.43925	-1.8835	-11.5753	12.6636	0.960808	-0.321453
0.2027	-84.0784	21.9969	-4.08755	5.0195	1.21963	-1.8835	-13.4084	20.9011	1.57223	-0.321453
0.2033	-84.6825	26.9378	-5.92349	5.62185	1.21963	-0.3522	-11.8824	26.987	1.87794	-0.321453
0.2040	-112.172	31.2018	-6.82414	7.14777	3.04278	2.38883	-10.6541	28.5238	1.87794	-0.321453
0.2047	-52.9643	34.8567	-11.0849	6.22419	3.34454	2.69509	-12.4872	26.0648	1.26652	-0.321453
0.2053	69.1758	38.7823	-18.4286	3.77467	3.04278	-0.0459391	-14.3202	23.6674	0.698769	0
0.2060	139.057	40.9481	-19.9528	3.49358	3.65888	-1.57724	-14.3202	22.4379	0.0873462	0
0.2067	125.564	38.5116	-19.641	2.89123	1.82315	-2.18976	-14.6273	18.7495	-1.74692	-0.321453
0.2073	96.8663	36.6841	-17.8051	3.17233	1.21963	0.245008	-12.1801	12.6636	-2.66406	-0.321453
0.2080	98.7795	37.9024	-13.2326	4.69826	4.56417	5.12987	-7.90917	8.97516	-1.1355	-0.321453
0.2087	108.245	36.6841	-12.6091	1.04406	4.56417	4.51734	-7.30435	6.57769	-1.1355	0
0.2093	103.311	35.1274	-13.2326	-0.481872	3.04278	3.30761	-4.5501	3.504	-1.44121	-1.28581
0.2100	71.5925	34.2475	-11.0849	2.89123	2.43925	3.30761	-3.02409	-1.35242	-0.524077	-1.28581
0.2107	33.732	28.4268	-7.1359	4.41716	1.52139	2.38883	-12.4872	-9.89726	0.0873462	-0.321453
0.2113	25.7773	22.6061	-0.103921	7.14777	3.65888	5.43613	-18.2841	-15.7373	0.960808	-0.321453
0.2120	21.8503	19.2896	4.78036	12.0468	4.56417	6.96743	-16.4604	-17.2741	1.57223	-0.321453
0.2127	18.4268	15.0256	4.78036	13.2515	1.52139	4.2264	-18.5912	-18.1347	0.960808	0
0.2133	38.9681	13.4689	4.4686	12.0468	1.52139	2.69509	-21.9503	-16.0446	-0.218365	-0.642906
0.2140	46.2179	13.1982	2.94442	9.87838	0.603526	1.47005	-25.0023	-11.7415	-1.1355	-0.964359
0.2147	39.8743	12.2506	2.94442	8.6737	-0.0125735	1.77631	-25.6071	-7.80716	-0.524077	0
0.2153	58.8045	11.6415	6.89342	10.802	2.74101	4.2264	-21.6432	-6.88505	-0.524077	0.321453
0.2160	78.3389	7.98658	7.8287	10.1996	3.04278	2.08257	-21.0384	-7.80716	-2.05263	-0.321453
0.2167	70.6862	5.82073	7.8287	7.46902	2.74101	1.77631	-19.5124	-5.34821	-3.58119	-0.321453
0.2173	54.1726	7.98658	9.04111	6.22419	3.65888	3.30761	-15.5392	0.737684	-4.19262	0
0.2180	70.0821	7.37743	3.84507	0.441716	0.905289	0.245008	-17.3723	1.04505	-5.41546	0
0.2187	134.727	7.64816	-0.103921	-4.45732	0.603526	0.551269	-18.2841	-2.88926	-6.3326	-0.321453
0.2193	189.403	9.54328	2.04378	-3.21248	2.74101	3.30761	-15.2321	-5.34821	-6.3326	0
0.2200	201.889	8.59572	1.42025	-4.73841	0.603526	1.16379	-14.9344	-3.81137	-6.94402	0
0.2207	210.75	8.59572	0.207842	-7.50918	-0.6161	0.245008	-13.4084	0.430316	-7.86116	0
0.2213	237.937	8.32499	0.484964	-9.03511	-0.0125735	0.85753	-11.8824	2.5819	-9.69542	0
0.2220	250.423	7.37743	-1.31633	-10.561	-0.0125735	0.245008	-13.4084	2.88926	-10.9183	0
0.2227	222.631	9.54328	0.484964	-7.18793	2.74101	2.69509	-9.74224	5.65558	-8.77829	-0.321453
0.2233	203.097	9.20487	2.63266	-3.21248	3.04278	3.61388	-5.16422	6.88505	-6.02689	0
0.2240	213.468	3.72256	2.04378	-3.85498	0.301763	0.551269	-8.83035	5.34821	-5.10975	0
0.2247	207.427	1.28597	4.78036	-2.32905	1.21963	0.245008	-8.21623	5.04084	-3.58119	0
0.2253	153.657	3.38414	5.36924	1.36531	1.82315	0.245008	-3.02409	6.27032	-1.44121	0
0.2260	64.2419	8.93414	1.73201	6.82653	1.82315	-0.3522	-1.20033	9.89726	1.87794	0
0.2267	-52.0581	14.4165	4.15683	14.4562	4.56417	2.08257	2.15874	16.5979	6.1579	0
0.2273	-159.396	16.5146	3.84507	15.9821	3.96064	1.77631	2.4658	20.2863	6.46362	0
0.2280	-144.192	15.6347	-1.93986	15.3798	-0.314337	-1.8835	-4.25234	16.352	4.93506	0
0.2287	-61.2211	12.8597	-1.93986	17.508	-1.53396	-2.80228	-7.90917	10.2046	4.93506	0
0.2293	-63.0336	12.8597	-5.29996	17.508	-3.36969	-3.72107	-8.83035	8.36042	4.01792	0
0.2300	-108.144	21.1171	-14.445	15.3798	-3.97321	-3.41481	-7.60211	12.3562	2.79508	0
0.2307	-115.192	29.6451	-19.3293	11.7256	-1.83573	-0.3522	-3.63822	14.8152	2.18365	0
0.2313	-81.0576	32.4201	-26.0495	5.94309	-3.67145	-0.0459391	-1.20033	11.4341	0.0873462	0
0.2320	-30.0064	32.6908	-31.8344	3.17233	-4.89108	0.551269	3.9918	9.5899	-1.74692	0
0.2327	-14.1977	30.2542	-31.2455	2.24874	-4.27498	3.00135	9.17464	8.97516	-2.05263	0
0.2333	-22.1524	24.7719	-29.4096	-0.481872	-5.4946	3.30761	8.56982	2.5819	-1.44121	0.321453
0.2340	-10.472	18.6805	-21.7887	3.17233	-3.05535	4.8236	11.0077	-3.81137	0.698769	0
0.2347	20.642	13.8073	-15.0685	11.7256	-2.75359	6.04865	12.8408	-8.4219	4.32364	-0.321453
0.2353	67.8668	9.20487	-15.6574	14.7774	-7.94643	2.69509	10.0958	-15.1225	6.76933	-0.321453
0.2360	76.1236	3.72256	-11.7084	16.6246	-7.94643	1.16379	10.7006	-23.36	6.76933	-0.321453
0.2367	-19.0309	-3.31646	-4.9882	19.6363	-5.4946	0.85753	12.5337	-32.5196	5.24077	0
0.2373	-130.498	-9.74633	-1.62809	20.5599	-5.19284	0.245008	13.7526	-37.0686	2.79508	-0.321453
0.2380	-125.564	-13.4012	5.36924	22.6882	-1.2322	3.92014	19.2518	-36.1465	1.87794	0
0.2387	-41.9888	-16.1085	7.8287	21.4835	0.603526	4.8236	20.1637	-32.2122	0.393058	-0.642906
0.2393	22.1524	-14.6195	2.63266	16.6246	-0.6161	3.00135	15.8928	-20.5937	-2.35835	-1.28581
0.2400	75.5195	-5.75304	-1.31633	12.9302	1.82315	3.92014	15.8928	-5.04084	-2.96977	-0.321453
0.2407	162.82	4.94085	-9.24896	2.89123	3.04278	3.30761	15.5857	3.19663	-5.72117	-0.321453
0.2413	247.402	14.4165	-15.9692	-5.662	4.8785	4.8236	14.6738	7.49979	-9.69542	-1.28581
0.2420	262.304	19.8988	-13.8561	-3.53373	7.31775	8.49873	17.1117	14.8152	-10.0011	-0.642906
0.2427	216.489	16.2439	-12.0202	-3.21248	5.18027	6.04865	14.9809	14.5078	-10.3068	0
0.2433	164.028	10.4232	-11.7084	-4.45732	3.34454	3.61388	11.0077	7.80716	-10.9183	0
0.2440	154.563	7.37743	-11.0849	-1.40546	2.74101	2.69509	9.78876	4.73347	-9.38971	0
0.2447	174.098	4.60244	-10.496	5.3006	0.603526	0.245008	7.64863	3.19663	-5.10975	0
0.2453	191.819	1.89512	-6.20061	14.4562	0.905289	0.551269	9.17464	1.04505	0.698769	-0.321453
0.2460	244.884	-2.97805	-2.56338	17.508	-0.6161	0.245008	9.17464	-3.81137	3.10079	-0.321453
0.2467	327.956	-8.79877	-2.56338	15.701	-4.27498	-2.49602	5.51781	-9.03663	2.48937	-0.321453
0.2473	352.021	-10.3555	-1.93986	16.3034	-5.19284	-3.10855	3.68474	-9.5899	3.4065	-0.321453
0.2480	303.488	-9.40792	-2.56338	13.8538	-6.7268	-3.41481	1.85168	-7.49979	3.71221	0
0.2487	233.003	-7.24207	-1.62809	7.14777	-7.33033	-2.49602	1.85168	-2.88926	1.26652	0
0.2493	60.3149	-2.97805	2.3209	3.49358	-3.97321	0.551269	5.51781	2.5819	-0.218365	0
0.2500	-109.654	-2.09817	2.04378	1.96765	-4.89108	0.245008	5.51781	5.04084	-2.96977	0
0.2507	-58.4017	-6.02378	1.42025	-1.08421	-8.85172	-2.49602	3.07062	5.34821	-2.35835	0
0.2513	57.1934	-8.79877	2.63266	-4.73841	-10.6874	-3.72107	3.07062	5.96295	19.9149	0
0.2520	139.661	-10.0171	2.3209	-7.79027	-10.6874	-4.9308	3.37768	8.66779	50.7044	0
0.2527	260.19	-9.0695	4.4686	-6.26434	-8.54995	-3.41481	6.12263	12.0488	67.2129	-0.321453
0.2533	303.488	-9.0695	5.68101	-4.13607	-6.1107	-1.8835	8.56982	10.2046	73.3271	-0.321453
0.2540	244.28	-12.4536	4.78036	-1.40546	-5.4946	-3.10855	6.42969	0.737684	78.4805	-0.321453
0.2547	227.263	-16.4469	4.78036	0.722809	-5.4946	-4.02733	4.90368	-11.1267	83.0662	-0.321453
0.2553	251.027	-17.3268	2.94442	-2.0078	-4.89108	-4.02733	4.90368	-18.1347	83.6776	0
0.2560	229.076	-14.8902	3.56795	-2.61014	-1.2322	-1.57724	7.04381	-14.8152	80.6205	0
0.2567	165.539	-9.74633	6.89342	-1.68655	3.65888	0.551269	10.4029	-3.81137	69.0471	-0.321453
0.2573	5.63879	-4.80548	3.25619	-6.26434	2.43925	-1.57724	8.87688	4.73347	30.8769	-0.321453
0.2580	-261.096	2.775	-5.29996	-7.79027	-0.6161	-4.02733	6.42969	10.512	-24.0639	0
0.2587	-429.857	15.0256	-13.2326	-3.21248	-0.6161	-4.31827	7.04381	16.5979	-67.3876	0
0.2593	-371.254	27.5469	-20.5417	3.17233	1.52139	-3.41481	7.64863	21.8232	-113.768	-0.642906
0.2600	-267.44	35.4658	-22.0659	17.8293	4.2624	-1.57724	10.7006	27.2943	-144.907	-0.642906
0.2607	-309.63	36.075	-20.8535	31.8437	3.65888	-1.27098	12.2266	32.2122	-118.354	-0.321453
0.2613	-382.229	30.8634	-21.7887	29.7155	0.301763	-1.8835	10.4029	31.5975	-78.6552	-0.321453
0.2620	-380.417	22.9445	-19.9528	23.6117	-2.13749	-2.49602	9.78876	25.4501	-59.7448	-0.642906
0.2627	-332.789	15.0256	-15.9692	21.8047	-5.19284	-5.23706	9.4817	16.9053	-46.3371	-0.642906
0.2633	-240.655	8.93414	-11.3967	22.4071	-6.41247	-6.4621	9.4817	6.88505	-38.3886	-0.321453
0.2640	-134.727	4.60244	-4.36468	23.0094	-4.27498	-4.02733	12.5337	-1.04505	-35.6372	-0.321453
0.2647	-73.1029	-0.541463	-0.727446	18.4316	-4.58931	-3.41481	13.1478	-7.49979	-33.4973	-0.321453
0.2653	-62.4294	-6.36219	0.796726	13.8538	-6.41247	-5.23706	12.2266	-16.0446	-31.9687	0
0.2660	-66.0544	-11.2354	4.15683	13.2515	-7.02857	-5.84958	11.6218	-20.2863	-31.0516	-0.321453
0.2667	-68.7731	-14.2811	8.14047	12.3279	-7.63209	-5.84958	10.7006	-19.3642	-29.8287	-0.321453
0.2673	-74.6132	-15.2286	13.9254	13.8538	-5.80894	-3.41481	12.8408	-17.2741	-27.6887	-0.321453
0.2680	-87.0991	-14.2811	16.662	16.6246	-4.27498	-1.27098	14.3668	-12.0488	-24.6316	-0.321453
0.2687	-96.8663	-13.4012	11.7777	15.3798	-6.41247	-2.80228	11.3148	-5.65558	-23.4524	-0.321453
0.2693	-63.3357	-13.4012	9.04111	13.2515	-7.02857	-2.49602	9.4817	-2.5819	-23.1467	-1.28581
0.2700	-8.35749	-12.7921	10.877	11.4043	-5.80894	-0.65846	11.0077	0.737684	-22.841	-0.964359
0.2707	37.0549	-11.8445	12.0895	8.6737	-4.89108	0.85753	12.5337	5.65558	-22.841	0
0.2713	90.8248	-10.3555	13.9254	6.82653	-3.05535	3.30761	14.6738	7.19242	-22.841	-0.321453
0.2720	124.657	-9.0695	13.3019	3.77467	-2.45183	4.8236	14.9809	5.65558	-22.841	0
0.2727	154.865	-8.46036	9.9764	-1.08421	-3.67145	4.2264	13.1478	2.88926	-23.4524	0
0.2733	206.42	-7.85121	7.51694	-3.85498	-3.36969	4.2264	12.8408	-1.65979	-24.6316	-0.321453
0.2740	235.117	-8.46036	6.30453	-7.18793	-3.36969	4.2264	12.5337	-5.65558	-25.5488	0
0.2747	213.166	-6.63292	7.8287	-12.087	-2.75359	4.8236	12.5337	-5.04084	-25.243	-0.321453
0.2753	116.099	-0.879877	7.51694	-13.2916	-0.917863	5.74239	14.3668	-2.5819	-23.1467	-0.321453
0.2760	-31.3154	3.38414	1.10849	-12.087	-1.53396	4.2264	12.8408	-0.49179	-19.1725	0
0.2767	-118.817	5.21158	-2.8405	-11.1634	-3.36969	2.08257	10.0958	5.04084	-15.1982	-0.321453
0.2773	-106.331	7.37743	-1.31633	-8.71386	-3.67145	1.16379	10.0958	11.4341	-12.7525	-0.321453
0.2780	-79.1444	10.4232	1.42025	-3.21248	-3.67145	1.77631	10.4029	14.2004	-9.084	-0.321453
0.2787	-71.2904	11.9799	5.36924	1.36531	-3.36969	2.38883	10.4029	15.4299	-4.49833	-0.321453
0.2793	-37.0549	10.1524	5.36924	3.77467	-4.27498	-0.3522	8.87688	17.2126	-1.1355	-0.321453
0.2800	-10.472	9.54328	2.04378	4.69826	-5.80894	-3.10855	6.73675	19.979	0.393058	-0.321453
0.2807	-41.3847	10.7616	0.484964	4.41716	-6.1107	-3.10855	5.51781	21.5158	0.393058	-0.321453
0.2813	-85.2867	7.03902	1.42025	4.41716	-7.02857	-3.41481	4.90368	15.1225	0.0873462	-0.321453
0.2820	-128.282	2.16585	6.61629	6.82653	-7.02857	-3.10855	5.82487	5.34821	1.57223	0
0.2827	-155.772	2.50427	10.5653	8.35246	-6.7268	-3.10855	7.64863	-1.04505	1.87794	0.321453
0.2833	-80.3527	3.99329	9.04111	6.82653	-7.33033	-3.72107	6.73675	-5.96295	0.0873462	0
0.2840	65.4502	1.28597	9.66464	4.09592	-7.63209	-3.10855	5.51781	-7.49979	-2.05263	-0.321453
0.2847	130.196	-3.31646	12.4012	0.120468	-9.16605	-3.41481	4.59662	-5.34821	-3.58119	-0.321453
0.2853	83.7763	-4.80548	17.2855	-1.40546	-8.85172	-2.80228	4.90368	-2.5819	-4.19262	0
0.2860	43.8013	-5.41463	23.0704	1.36531	-5.4946	-0.3522	7.64863	0.122947	-2.35835	-0.321453
0.2867	64.2419	-7.58048	23.3822	2.24874	-5.4946	-0.65846	7.64863	-0.184421	-1.1355	-0.321453
0.2873	135.331	-7.85121	20.0221	1.04406	-7.63209	-2.80228	4.90368	-1.35242	-0.829789	0
0.2880	216.489	-6.63292	16.9737	1.96765	-7.33033	-2.49602	4.29887	3.81137	0.393058	0
0.2887	180.542	-4.19634	13.0247	3.77467	-5.4946	-0.964721	5.21075	12.6636	1.87794	-0.321453
0.2893	55.9851	4.60244	7.51694	6.22419	-2.45183	1.16379	7.04381	19.3642	3.71221	-0.321453
0.2900	8.35749	15.9055	-1.03921	7.75011	-0.6161	1.77631	7.64863	22.7453	5.24077	-0.321453
0.2907	67.2627	21.7262	-10.1842	5.0195	-2.13749	0.245008	4.59662	21.5158	4.93506	0
0.2913	118.314	22.6061	-12.9208	2.56999	-3.67145	-0.0459391	3.37768	20.5937	3.4065	0
0.2920	12.3852	22.9445	-11.3967	2.89123	-3.05535	1.16379	4.29887	24.2821	1.87794	0
0.2927	-140.265	25.9902	-10.1842	4.41716	-1.2322	2.69509	5.51781	28.2164	1.57223	-0.321453
0.2933	-131.404	28.7652	-8.97183	5.62185	0.905289	3.92014	7.04381	29.1385	2.18365	0
0.2940	-57.1934	24.4335	-8.66007	4.09592	-0.314337	2.38883	5.82487	21.8232	1.57223	0
0.2947	-53.2664	12.2506	-7.1359	1.96765	-3.36969	-0.3522	2.15874	5.96295	0.960808	-0.321453
0.2953	-55.0789	-0.270731	0.207842	2.24874	-4.27498	-0.3522	0.939795	-9.89726	0.960808	-0.321453
0.2960	-20.2392	-9.74633	8.45223	3.77467	-4.27498	-0.0459391	1.24686	-21.5158	1.26652	-0.321453
0.2967	13.5935	-15.8378	15.7613	6.82653	-3.36969	-0.0459391	3.07062	-28.8312	2.79508	-0.321453
0.2973	22.4545	-19.1543	20.6456	9.59729	-2.75359	-0.0459391	3.9918	-30.6754	5.24077	-0.321453
0.2980	0.201385	-21.5908	18.1861	7.46902	-6.1107	-3.10855	0.325672	-30.0606	5.85219	-0.321453
0.2987	17.5205	-19.7634	15.7613	7.14777	-7.94643	-4.62454	-2.41928	-27.6017	6.46362	-0.321453
0.2993	86.495	-15.4994	17.2855	10.1996	-6.1107	-2.80228	-0.893271	-23.9747	8.29789	0
0.3000	132.914	-12.7921	16.9737	11.1232	-5.4946	-2.49602	-0.279147	-19.979	9.21502	0
0.3007	164.028	-8.18963	15.7613	12.3279	-3.97321	-1.57724	0.0186098	-16.0446	9.82644	-1.28581
0.3013	150.334	-1.75975	9.9764	12.6492	-4.58931	-1.57724	-1.80515	-14.5078	10.4379	-1.28581
0.3020	75.8216	2.775	2.04378	9.59729	-6.41247	-4.31827	-3.33116	-13.8931	11.0493	-0.321453
0.3027	29.2009	6.76829	1.10849	9.59729	-5.4946	-4.02733	-2.72634	-12.6636	11.9664	0
0.3033	-8.96165	7.03902	4.4686	10.802	-4.89108	-3.72107	-2.11221	-12.3562	11.9664	0
0.3040	-114.286	3.99329	9.35288	11.7256	-4.58931	-4.02733	-1.20033	-11.1267	11.9664	0
0.3047	-182.656	0.338414	13.6136	11.1232	-4.58931	-3.72107	-1.20033	-7.49979	12.2721	0
0.3053	-104.217	-4.80548	13.9254	8.6737	-7.33033	-5.84958	-4.5501	-4.42611	11.9664	0
0.3060	14.4997	-8.79877	15.7613	7.75011	-8.24819	-7.38088	-6.69023	-1.96716	11.6607	-0.321453
0.3067	75.2174	-11.8445	19.7103	8.07136	-7.94643	-7.07462	-5.77835	-0.49179	12.2721	0
0.3073	126.772	-15.4994	22.4815	7.75011	-7.63209	-6.76836	-4.85716	-1.96716	12.5778	-0.321453
0.3080	165.539	-17.0561	25.5299	8.99495	-6.7268	-6.15584	-4.25234	-3.19663	13.1893	-0.321453
0.3087	156.678	-15.8378	24.3175	8.6737	-7.63209	-6.76836	-5.16422	-1.35242	13.8007	0.321453
0.3093	147.515	-7.24207	14.5489	6.82653	-8.54995	-8.29966	-6.38316	3.81137	13.8007	0.321453
0.3100	150.334	8.59572	0.796726	6.54543	-7.02857	-7.9934	-6.69023	12.3562	14.7178	-0.321453
0.3107	133.216	21.7262	-10.1842	5.94309	-6.41247	-7.38088	-7.60211	19.3642	15.635	-0.642906
0.3113	100.894	29.9835	-15.3803	4.41716	-5.80894	-6.15584	-7.60211	23.6674	15.635	-0.321453
0.3120	65.1481	35.4658	-16.5927	4.41716	-3.67145	-4.62454	-6.38316	26.987	15.635	0
0.3127	-35.5445	38.7823	-19.9528	3.49358	-2.75359	-4.62454	-5.77835	26.3722	15.3293	-0.321453
0.3133	-271.467	40.6097	-23.3129	1.36531	-2.13749	-5.23706	-6.38316	23.6674	15.0235	-0.321453
0.3140	-441.437	40.0006	-21.7887	0.441716	-1.2322	-4.62454	-10.6541	20.2863	14.4121	-0.321453
0.3147	-359.674	35.1274	-18.4286	-0.481872	-1.53396	-3.41481	-10.9612	15.1225	13.1893	0
0.3153	-203.097	27.5469	-15.0685	-2.93139	-1.83573	-3.10855	-6.99729	8.97516	11.6607	0
0.3160	-89.2137	18.9512	-10.1842	-3.21248	-2.45183	-3.10855	-7.60211	3.504	10.4379	-0.964359
0.3167	40.7805	11.0323	-2.8405	-2.0078	-1.53396	-2.18976	-7.90917	-4.73347	10.7436	-0.642906
0.3173	168.66	2.16585	5.36924	-2.93139	-0.6161	-1.57724	-6.0761	-16.6594	10.7436	0
0.3180	229.68	-7.58048	10.5653	-5.38091	-1.53396	-2.18976	-7.30435	-26.6796	9.21502	-0.321453
0.3187	211.052	-13.6719	14.5489	-5.662	-1.53396	-2.18976	-7.60211	-30.6754	8.90931	-0.321453
0.3193	147.213	-14.6195	15.4496	-4.13607	-0.917863	-2.18976	-6.38316	-31.9048	10.1322	0
0.3200	86.1929	-14.8902	12.4012	-4.45732	-2.45183	-3.41481	-7.30435	-33.4417	10.4379	-0.321453
0.3207	56.8913	-14.6195	11.5006	-5.98325	-2.13749	-2.18976	-7.60211	-32.2122	8.90931	-0.321453
0.3213	44.1034	-14.0104	12.4012	-7.18793	-1.2322	-0.3522	-6.69023	-27.6017	7.38075	0
0.3220	39.2701	-13.6719	13.0247	-8.11152	-1.2322	0.245008	-6.99729	-25.819	6.76933	0
0.3227	40.1764	-11.8445	13.9254	-8.43277	-0.0125735	1.47005	-6.38316	-25.819	6.1579	0
0.3233	20.9441	-7.85121	11.7777	-9.03511	0.905289	1.16379	-6.0761	-21.8232	5.54648	-0.321453
0.3240	-25.4752	-4.19634	9.66464	-9.63745	1.52139	2.08257	-5.16422	-12.6636	4.62935	0
0.3247	-74.3112	-3.31646	8.14047	-12.3681	0.905289	2.69509	-5.47128	-5.04084	2.48937	0
0.3253	-92.3352	-3.92561	6.30453	-16.3435	-0.314337	1.16379	-8.52329	-2.88926	0.0873462	-0.321453
0.3260	-82.568	-1.48902	8.72935	-14.8176	2.12492	3.61388	-6.69023	-2.27453	0.393058	-0.321453
0.3267	-71.8945	0.0676829	12.0895	-13.0106	4.56417	5.43613	-3.33116	-5.04084	0.393058	-0.321453
0.3273	-45.3117	-2.3689	10.5653	-15.4199	3.04278	3.61388	-5.16422	-9.5899	-1.44121	-0.321453
0.3280	12.0831	-2.97805	9.35288	-16.6648	2.43925	3.30761	-6.69023	-6.88505	-2.05263	-0.321453
0.3287	53.8706	-2.70731	8.14047	-17.8694	1.21963	2.38883	-7.90917	-2.27453	-2.35835	-0.321453
0.3293	55.0789	-2.70731	7.51694	-15.1388	-0.0125735	2.38883	-8.83035	-1.96716	-2.05263	-1.28581
0.3300	54.4747	1.28597	9.9764	-8.11152	2.12492	4.8236	-6.0761	0.122947	0.698769	-1.28581
0.3307	57.1934	6.42987	7.8287	-9.03511	3.04278	3.92014	-5.47128	5.04084	1.87794	-0.321453
0.3313	25.1732	7.03902	5.36924	-12.3681	1.52139	1.16379	-7.90917	7.80716	1.26652	-0.321453
0.3320	-3.52424	4.60244	5.36924	-10.8421	-0.314337	0.85753	-9.12811	7.19242	1.57223	-0.642906
0.3327	45.3117	2.50427	4.78036	-10.561	-1.83573	-0.3522	-10.3564	3.504	1.87794	-0.321453
0.3333	165.237	2.16585	7.51694	-8.11152	-0.0125735	-0.0459391	-8.21623	-0.49179	2.79508	-0.321453
0.3340	271.467	2.16585	10.877	-4.45732	1.82315	0.551269	-6.0761	-2.88926	4.62935	-0.321453
0.3347	319.699	0.0676829	10.5653	-4.73841	0.301763	-0.3522	-8.21623	-4.73347	5.24077	0
0.3353	340.442	-1.75975	9.9764	-7.18793	-1.53396	-1.8835	-10.9612	-6.27032	3.71221	-0.321453
0.3360	373.67	-1.15061	8.72935	-9.3162	-1.53396	-1.8835	-11.8824	-7.80716	1.87794	-0.321453
0.3367	430.763	3.11341	7.8287	-9.03511	0.603526	0.245008	-10.3564	-6.27032	2.79508	-0.321453
0.3373	431.971	10.7616	6.30453	-6.90684	3.96064	3.00135	-6.99729	-1.65979	6.46362	-0.321453
0.3380	177.823	17.7329	-0.727446	-7.50918	3.65888	2.69509	-7.60211	1.35242	7.99217	0
0.3387	-328.157	21.7262	-8.03655	-8.43277	1.21963	-0.65846	-10.6541	2.5819	6.76933	-0.321453
0.3393	-617.85	22.6061	-10.496	-9.03511	0.905289	-3.41481	-12.7942	4.11874	4.93506	-0.321453
0.3400	-524.105	21.3878	-9.87248	-10.561	1.21963	-3.72107	-13.4084	6.27032	2.79508	0
0.3407	-372.462	19.8988	-4.36468	-9.03511	3.04278	-1.27098	-10.6541	9.28253	0.960808	0
0.3413	-273.28	17.1238	0.207842	-8.11152	3.96064	1.47005	-8.52329	10.2046	-2.05263	0
0.3420	-192.424	15.2963	-1.62809	-11.1634	2.43925	1.47005	-10.3564	8.05305	-6.02689	0
0.3427	-149.629	13.4689	-1.31633	-12.087	1.82315	1.47005	-10.9612	5.34821	-6.02689	0
0.3433	-161.31	9.54328	2.04378	-11.4846	1.82315	2.69509	-9.74224	1.04505	-2.35835	0
0.3440	-199.069	6.15914	5.68101	-11.4846	1.52139	4.8236	-8.52329	-4.73347	0.960808	0
0.3447	-187.49	3.72256	8.72935	-11.1634	3.04278	6.96743	-7.30435	-6.88505	4.62935	-0.321453
0.3453	-134.425	-0.541463	8.72935	-12.087	2.12492	6.04865	-8.83035	-6.88505	13.495	-0.321453
0.3460	-90.1199	-4.80548	10.2535	-12.6893	0.905289	5.74239	-10.0493	-5.34821	21.1378	0
0.3467	-30.6106	-6.02378	12.713	-10.561	2.43925	7.27369	-9.12811	-1.96716	19.6092	0
0.3473	33.732	-3.31646	11.7777	-9.3162	3.34454	7.27369	-9.74224	1.04505	12.2721	0
0.3480	55.0789	0.338414	12.713	-11.7657	4.2624	9.4022	-7.90917	1.96716	-6.02689	-0.321453
0.3487	75.2174	3.99329	11.1888	-12.3681	5.79637	11.2398	-6.0761	1.35242	-24.0639	-0.321453
0.3493	119.824	11.0323	2.04378	-7.18793	6.39989	10.321	-7.30435	3.19663	-18.2553	-0.321453
0.3500	104.821	21.1171	-8.03655	-2.93139	6.70166	10.6272	-8.52329	7.19242	-2.96977	-0.321453
0.3507	2.61801	27.2085	-14.7568	-3.53373	5.79637	10.9335	-9.43517	11.1267	2.79508	-0.321453
0.3513	-107.54	28.7652	-14.445	-2.32905	7.31775	12.7711	-7.60211	14.8152	5.54648	-0.321453
0.3520	-154.261	26.9378	-7.72478	-0.160624	9.75701	15.2058	-5.47128	15.1225	4.01792	-0.321453
0.3527	-114.588	21.7262	-3.77579	-5.98325	8.23562	14.2871	-6.69023	13.2783	-10.3068	-0.321453
0.3533	-41.9888	17.4622	-2.56338	-16.0624	6.70166	13.9808	-7.60211	10.2046	-23.7582	-0.321453
0.3540	12.6873	13.8073	-1.31633	-23.6921	6.09813	15.2058	-7.60211	4.73347	-22.5353	-0.321453
0.3547	63.0336	9.20487	2.94442	-27.3463	6.70166	17.0434	-6.69023	-0.49179	-30.7458	-0.321453
0.3553	140.567	5.55	10.2535	-28.5509	9.15348	19.4782	-3.94528	-2.27453	-65.859	-0.321453
0.3560	199.774	3.11341	12.0895	-33.45	8.53738	18.2531	-4.5501	-3.81137	-89.0494	-0.321453
0.3567	156.98	2.775	9.66464	-41.0796	7.01599	15.5121	-6.69023	-4.11874	-74.0695	-0.321453
0.3573	69.78	1.89512	8.72935	-54.2106	6.09813	15.2058	-7.60211	-5.34821	-59.7448	-0.642906
0.3580	23.0586	-1.15061	10.877	-69.1487	6.39989	15.5121	-7.60211	-11.1267	-75.9038	0
0.3587	38.2632	-3.92561	16.662	-68.8274	8.23562	15.5121	-5.16422	-18.4421	-95.1637	-0.321453
0.3593	110.057	-3.58719	16.9737	-51.4399	8.53738	13.3683	-4.5501	-24.2821	-88.438	-0.964359
0.3600	119.22	0.676829	12.0895	-31.6028	7.01599	9.70846	-6.0761	-23.9747	-64.6362	-0.964359
0.3607	-49.5408	5.55	6.89342	-17.2671	3.96064	4.8236	-6.99729	-17.2741	-46.9486	0
0.3613	-263.815	11.0323	1.73201	-3.53373	0.603526	-0.0459391	-9.43517	-8.4219	-26.4659	-0.321453
0.3620	-310.234	16.5146	2.04378	6.54543	1.21963	0.245008	-8.83035	-0.184421	25.4177	-0.642906
0.3627	-184.167	16.853	3.84507	7.75011	2.12492	1.77631	-6.69023	2.88926	75.4234	-0.321453
0.3633	-5.63879	14.4165	1.42025	9.27604	-0.0125735	0.551269	-7.90917	1.65979	84.289	-0.321453
0.3640	139.963	15.0256	-2.8405	12.0468	-0.917863	0.245008	-9.43517	1.65979	70.8814	-0.321453
0.3647	170.171	18.6805	-8.66007	6.54543	-1.2322	1.47005	-10.0493	3.81137	40.3539	-0.321453
0.3653	138.754	22.9445	-11.0849	1.36531	-0.0125735	2.69509	-9.12811	8.05305	17.4692	-0.321453
0.3660	129.591	23.5536	-8.03655	-2.93139	1.82315	3.92014	-7.30435	9.89726	19.6092	-0.321453
0.3667	88.0054	19.8988	-5.92349	-11.7657	2.43925	4.8236	-6.99729	4.42611	20.5264	0
0.3673	101.196	15.2963	-4.9882	-16.9458	2.43925	4.8236	-8.21623	-5.34821	26.2912	0
0.3680	204.91	6.42987	-0.727446	-14.2152	0.905289	2.69509	-10.3564	-19.6716	43.411	-0.321453
0.3687	245.791	-1.75975	2.94442	-3.53373	-1.2322	0.245008	-11.2682	-33.1343	52.233	-0.321453
0.3693	114.89	0.338414	3.25619	8.99495	-0.6161	-0.65846	-9.12811	-34.9171	58.653	0
0.3700	-200.68	7.64816	-0.415683	14.7774	-0.0125735	-1.27098	-7.90917	-29.1385	68.7414	-0.321453
0.3707	-428.346	10.7616	-4.67644	19.3552	-1.83573	-3.72107	-10.3564	-23.36	69.3529	-0.321453
0.3713	-377.899	10.4232	-5.29996	23.933	-2.45183	-4.31827	-12.4872	-18.4421	80.3148	-0.321453
0.3720	-262.304	10.4232	-3.46403	23.0094	-1.53396	-1.57724	-11.5753	-13.8931	86.7347	-0.642906
0.3727	-182.354	11.6415	0.207842	14.1751	0.603526	1.77631	-9.12811	-8.4219	46.7739	-0.642906
0.3733	-112.474	14.078	5.09212	2.56999	4.56417	4.2264	-4.5501	-1.65979	-2.05263	0
0.3740	-85.8908	11.9799	6.30453	-8.11152	3.04278	0.85753	-5.47128	0.122947	-37.7772	-0.321453
0.3747	-56.8913	5.21158	5.36924	-12.087	-0.917863	-2.80228	-10.3564	-5.04084	-52.102	-0.321453
0.3753	-2.01385	2.50427	9.66464	-6.26434	1.21963	-0.65846	-8.52329	-10.2046	-44.5029	-0.321453
0.3760	37.659	1.89512	12.713	-0.803121	2.12492	-1.27098	-5.77835	-13.5857	-40.2229	-0.321453
0.3767	49.6415	-0.270731	11.7777	-1.40546	-0.0125735	-3.41481	-7.30435	-15.4299	-29.8287	-0.321453
0.3773	45.0096	0.676829	11.7777	-5.38091	-0.0125735	-2.18976	-7.30435	-13.2783	-25.8545	-0.321453
0.3780	42.8951	4.60244	6.89342	-14.2152	-0.0125735	-2.49602	-9.12811	-11.4341	-38.3886	-0.321453
0.3787	57.4955	8.59572	0.796726	-22.1661	0.301763	-1.27098	-10.6541	-11.7415	-33.803	-0.321453
0.3793	73.4049	12.2506	-2.25162	-23.3708	3.34454	2.69509	-8.21623	-13.8931	-48.1714	-0.321453
0.3800	82.568	15.0256	-4.36468	-23.6921	5.48203	4.8236	-6.38316	-16.0446	-87.5209	-0.321453
0.3807	86.1929	16.853	-3.15227	-24.2944	6.39989	7.57995	-4.25234	-13.2783	-24.6316	-0.321453
0.3813	43.1971	18.0713	-1.62809	-28.2698	5.18027	10.321	-3.02409	-8.11453	80.6205	-0.321453
0.3820	-40.0757	17.7329	-1.31633	-34.9759	3.04278	10.0147	-3.02409	-5.65558	56.2073	-0.321453
0.3827	-86.1929	17.7329	1.42025	-28.8722	3.34454	10.6272	-0.893271	-4.11874	-17.0325	-0.642906
0.3833	-64.2419	16.5146	2.04378	-8.71386	3.04278	13.6745	-1.80515	-5.04084	-36.2487	-0.642906
0.3840	-14.4997	12.8597	2.04378	15.701	1.52139	15.8184	-4.5501	-8.4219	-26.4659	-0.321453
0.3847	14.1977	11.0323	5.68101	39.7946	1.52139	17.0434	-3.63822	-9.03663	-7.86116	-0.321453
0.3853	20.642	11.3707	7.20518	51.0785	0.905289	15.8184	-3.33116	-8.11453	15.3293	-0.321453
0.3860	31.0133	11.0323	6.61629	49.5525	-0.6161	13.3683	-3.63822	-7.49979	53.7616	-0.321453
0.3867	50.2456	10.4232	5.99277	41.3206	-0.917863	11.546	-3.02409	-6.88505	109.619	-0.321453
0.3873	56.2872	9.81402	4.15683	28.7919	-2.45183	9.09594	-4.5501	-6.57769	140.758	-0.321453
0.3880	41.9888	10.4232	5.68101	17.2269	-1.83573	10.321	-3.94528	-4.11874	123.376	0
0.3887	25.1732	11.3707	10.5653	7.14777	0.905289	13.3683	-0.279147	-1.65979	75.7291	0
0.3893	11.781	9.81402	13.0247	-2.0078	2.74101	13.9808	1.54461	-0.49179	39.1311	0
0.3900	-1.00693	7.98658	13.0247	-9.63745	2.12492	13.3683	0.939795	-1.04505	33.6283	-0.321453
0.3907	-8.65957	7.64816	12.0895	-15.1388	0.905289	12.4648	0.0186098	-1.65979	-1.1355	0
0.3913	-9.26372	7.64816	10.5653	-16.6648	0.301763	10.6272	-0.893271	-1.35242	-56.382	0
0.3920	-7.75333	9.20487	11.5006	-6.90684	1.82315	10.6272	-0.893271	-0.184421	-46.9486	-0.964359
0.3927	-2.61801	14.078	12.713	6.82653	5.48203	11.8523	0.325672	2.88926	21.1378	-1.28581
0.3933	9.06234	18.3421	8.14047	9.27604	5.79637	9.70846	0.939795	5.65558	77.8691	0
0.3940	18.4268	19.2896	1.73201	11.4043	3.34454	3.00135	-0.586209	4.73347	93.1547	-0.964359
0.3947	27.2877	21.1171	-1.62809	17.2269	3.34454	-1.27098	-1.20033	4.42611	66.9072	-1.28581
0.3953	43.1971	25.9902	-3.46403	14.7774	5.79637	-1.57724	-0.586209	6.57769	-22.5353	0
0.3960	55.0789	28.7652	-2.56338	13.8538	7.61952	-0.964721	1.54461	7.49979	-89.3551	0
0.3967	56.5893	26.3286	0.207842	14.4562	7.31775	-0.964721	2.4658	6.88505	-21.0068	-0.321453
0.3973	58.8045	21.7262	2.04378	8.35246	4.56417	-2.18976	0.325672	4.73347	107.785	0
0.3980	52.6623	18.0713	4.4686	1.6464	2.43925	-3.72107	-1.20033	1.96716	151.109	0
0.3987	35.2424	14.078	9.04111	-7.50918	1.82315	-4.62454	-0.586209	-1.65979	50.1367	-0.321453
0.3993	31.9196	9.81402	13.3019	-23.6921	0.603526	-2.49602	-0.279147	-5.96295	-47.2543	0
0.4000	25.7773	6.76829	16.0731	-27.6274	-0.6161	2.38883	-1.80515	-9.28253	-16.7268	0
0.4007	9.66649	3.38414	18.1861	-14.2152	-1.53396	4.2264	-4.5501	-13.2783	-13.364	0
0.4013	20.3399	-2.97805	20.9574	-5.98325	-3.97321	2.08257	-6.99729	-17.2741	-79.8781	-0.321453
0.4020	50.8498	-7.58048	25.8417	-3.21248	-5.19284	-1.57724	-7.30435	-17.5815	-113.463	-0.642906
0.4027	85.2867	-7.24207	29.4789	4.41716	-5.19284	-5.84958	-5.16422	-12.6636	-115.297	-0.321453
0.4033	107.842	-4.80548	31.6266	8.6737	-6.7268	-8.89687	-2.11221	-5.34821	-66.4704	-0.321453
0.4040	83.4742	0.338414	28.2665	-7.18793	-7.33033	-8.89687	-0.279147	1.35242	23.5835	-0.321453
0.4047	62.4294	10.4232	16.662	-29.1533	-8.24819	-9.50939	-1.80515	6.88505	107.479	-0.321453
0.4053	83.1721	20.7786	6.89342	-32.8476	-3.05535	-11.9595	-2.11221	12.0488	121.236	0
0.4060	138.452	26.9378	3.25619	-18.4718	14.6355	-13.7817	0.0186098	15.7373	-17.6439	-0.321453
0.4067	166.143	29.9835	1.73201	8.35246	27.4604	-16.8443	0.0186098	16.9053	-164.735	0
0.4073	30.4092	32.0817	1.10849	37.3451	28.064	-20.1979	-2.11221	17.8274	-149.755	0
0.4080	-184.771	32.0817	-0.103921	52.9257	23.4872	-22.9389	-3.94528	16.9053	-64.3305	-0.321453
0.4087	-315.369	30.2542	-0.415683	66.0567	14.9498	-29.0488	-5.16422	15.1225	29.3483	-0.321453
0.4093	-335.206	27.5469	3.84507	84.9702	4.8785	-35.7559	-3.33116	16.5979	165.477	0
0.4100	-252.537	22.3353	9.9764	88.3031	-4.27498	-16.5381	-2.11221	14.5078	336.064	0
0.4107	-143.89	14.078	15.7613	72.4415	-12.2088	29.5541	-2.41928	3.504	536.568	-0.321453
0.4113	-66.9606	6.15914	20.0221	55.0539	-12.2088	53.3506	-0.586209	-7.49979	664.748	-0.321453
0.4120	-6.24294	1.55671	21.5463	30.0367	-7.33033	31.0701	4.29887	-12.3562	533.205	-0.321453
0.4127	30.1071	0.676829	20.9574	1.04406	-10.6874	-2.18976	9.4817	-14.8152	127.918	-0.321453
0.4133	28.8988	2.16585	17.5973	2.24874	-14.6607	-15.9256	14.6738	-16.9667	-176.614	-0.321453
0.4140	1.71177	4.94085	13.6136	41.3206	-14.0446	-23.5514	19.2518	-18.4421	-170.543	-0.321453
0.4147	-34.9403	7.64816	13.9254	72.4415	-16.7981	-28.4363	20.7779	-18.4421	-233.695	-0.321453
0.4153	-62.1274	8.59572	16.0731	66.0567	-18.6213	-28.4363	19.8567	-18.7495	-442.146	-0.642906
0.4160	-70.9883	7.03902	16.3849	59.0294	-17.7034	-35.7559	16.5069	-19.979	-495.558	-0.321453
0.4167	-72.8008	7.03902	14.8607	83.123	-18.9231	-48.8792	10.0958	-20.2863	-352.398	-0.321453
0.4173	-71.2904	7.98658	12.4012	107.257	-23.4998	-57.4239	3.37768	-18.7495	-152.812	-0.321453
0.4180	-56.2872	9.54328	11.5006	96.5753	-30.214	-55.6016	0.632734	-15.4299	-6.63831	0
0.4187	-41.0826	12.8597	12.0895	84.0466	-31.4462	-46.7507	2.15874	-15.4299	36.9911	-0.321453
0.4193	-39.4715	17.4622	11.5006	105.41	-28.0891	-39.4157	4.29887	-18.4421	-112.24	-0.964359
0.4200	-40.0757	19.5603	10.2535	146.288	-30.214	-36.981	2.77286	-19.3642	-315.189	0
0.4207	-35.5445	16.853	8.72935	183.834	-34.1872	-35.7559	-0.893271	-16.352	-300.82	0
0.4213	-26.3815	15.2963	8.72935	202.145	-27.473	-37.5935	-3.63822	-7.80716	-138.487	-0.321453
0.4220	-9.86788	17.4622	9.66464	201.543	-12.8249	-28.4363	-4.25234	2.27453	6.1579	-0.321453
0.4227	-2.61801	17.1238	10.5653	204.916	-5.4946	13.3683	-4.5501	7.49979	246.054	0.321453
0.4233	-21.8503	12.2506	10.2535	218.007	-7.63209	48.4657	-6.0761	8.97516	666.888	0
0.4240	-46.52	8.32499	9.66464	200.62	-11.3035	54.2694	-5.47128	8.97516	932.682	-0.964359
0.4247	-47.7283	8.93414	8.14047	154.842	-11.9071	64.6516	-2.72634	10.2046	696.804	-1.28581
0.4253	-38.8674	13.1982	7.20518	143.879	-7.94643	77.1624	-1.80515	12.9709	114.511	-0.321453
0.4260	-34.0341	15.9055	7.51694	186.284	-0.917863	78.0658	0.632734	12.9709	-327.373	0
0.4267	-15.7081	15.9055	5.68101	235.114	6.39989	75.0185	7.04381	8.36042	-381.703	0
0.4273	15.7081	16.5146	1.10849	247.923	10.9766	62.8141	10.4029	3.504	-217.23	0
0.4280	41.6868	18.6805	-1.93986	213.148	10.0588	38.4051	7.64863	1.96716	-71.3618	0
0.4287	48.0304	20.5079	-4.9882	158.817	3.65888	13.9808	2.4658	0.737684	-18.2553	-0.321453
0.4293	23.6628	21.1171	-5.92349	149.34	-6.1107	-5.84958	-1.20033	-0.49179	50.4424	-0.321453
0.4300	-13.5935	21.7262	-2.8405	136.249	-14.0446	-24.164	-0.586209	0.122947	170.063	-0.321453
0.4307	-30.0064	21.1171	-3.15227	60.2341	-20.457	-40.6408	-3.33116	-0.737684	349.472	0
0.4313	-13.8956	19.2896	-4.9882	10.1996	-26.2534	-43.9943	-14.0132	-5.04084	589.674	0
0.4320	0.201385	12.8597	-2.25162	16.6246	-26.2534	-36.0622	-18.5912	-8.72926	489.881	-0.321453
0.4327	-11.781	2.50427	1.42025	28.5108	-23.8141	-32.4024	-12.7942	-8.4219	-32.8858	-0.321453
0.4333	-15.406	-0.270731	5.99277	-30.6792	-20.1427	-25.389	-6.99729	-1.65979	-244.395	0
0.4340	-3.82632	-2.09817	9.9764	-243.105	-10.9892	-13.4755	-5.47128	5.04084	-27.6887	0
0.4347	5.03463	-8.46036	8.14047	-432.922	-1.53396	-7.07462	-3.63822	5.65558	-55.7705	0
0.4353	13.5935	-7.24207	5.68101	-391.722	8.23562	-4.02733	-1.20033	3.504	-390.568	-0.321453
0.4360	23.3607	-2.3689	3.84507	-224.793	18.6087	-5.23706	-1.20033	3.504	-583.123	-0.321453
0.4367	29.5029	-14.2811	-2.56338	-88.3834	22.8837	-12.8629	-2.11221	5.65558	-426.555	-0.321453
0.4373	28.8988	-10.9646	-9.24896	-21.2425	20.7462	-18.3603	-0.279147	8.05305	-182.728	-0.321453
0.4380	27.2877	36.075	-12.0202	-32.8476	15.2516	-22.3264	0.632734	7.80716	-156.175	-0.321453
0.4387	32.8258	64.1634	-10.496	-123.48	13.7302	-23.2452	-0.893271	5.04084	-221.51	-0.321453
0.4393	41.0826	47.6487	-6.20061	-201.905	15.5534	-16.8443	1.54461	2.88926	-110.406	-0.321453
0.4400	39.8743	28.4268	-5.29996	-206.482	15.8677	-14.7005	0.632734	2.27453	191.113	0
0.4407	28.1939	22.3353	-6.51237	-243.386	15.8677	-18.6666	-4.25234	1.65979	318.988	0
0.4413	17.5205	23.5536	-3.77579	-349.317	18.307	-14.3942	-4.25234	1.65979	14.1064	0
0.4420	11.479	25.0427	-0.727446	-410.957	21.6641	-6.15584	-0.279147	-0.49179	-383.231	0.321453
0.4427	12.0831	23.5536	0.207842	-370.038	27.1587	-2.80228	2.77286	-6.57769	-486.387	0.321453
0.4433	21.8503	20.5079	1.10849	-261.416	32.955	-5.54332	1.85168	-12.6636	-342.965	0
0.4440	36.1487	11.6415	1.10849	-161.307	34.1747	-11.0407	1.85168	-15.4299	-118.66	-0.321453
0.4447	45.0096	-3.58719	2.63266	-117.376	32.3389	-12.572	11.3148	-14.8152	100.754	0
0.4453	46.52	-6.02378	6.89342	-74.3288	28.6801	-15.6193	22.3039	-12.0488	243.914	0
0.4460	43.1971	3.72256	8.45223	-2.32905	21.048	-23.5514	25.6536	-9.28253	322.657	-0.321453
0.4467	38.666	6.76829	6.30453	45.5771	15.8677	-27.8238	23.8299	-7.49979	426.686	-0.321453
0.4473	37.0549	7.03902	5.36924	50.4761	15.8677	-27.5175	21.3827	-5.65558	518.268	-0.642906
0.4480	34.3362	8.32499	4.15683	19.9576	14.3337	-27.5175	15.5857	-4.42611	553.032	-0.321453
0.4487	28.8988	8.59572	4.15683	-38.3089	13.1141	-25.6953	7.35087	-2.88926	488.964	-0.321453
0.4493	26.0794	8.59572	6.61629	-75.8548	13.1141	-21.7139	1.24686	-2.27453	84.5948	-0.964359
0.4500	27.2877	8.59572	4.78036	-81.9585	13.4159	-18.6666	-1.49809	-4.73347	-472.324	-1.28581
0.4507	27.2877	9.81402	0.207842	-69.751	11.8945	-18.9728	-1.49809	-6.27032	-573.34	-0.321453
0.4513	23.6628	9.20487	-3.77579	9.27604	2.12492	-28.4363	-4.25234	-6.27032	-243.783	0
0.4520	21.8503	7.98658	-5.61173	122.195	-9.16605	-58.6489	-6.0761	-5.34821	-12.1411	-0.321453
0.4527	21.2461	8.93414	-2.56338	167.973	-12.2088	-106.563	1.85168	-1.96716	-1.74692	-0.321453
0.4533	16.9164	7.98658	-0.415683	164.318	-16.7981	-143.177	9.78876	-0.737684	153.249	0
0.4540	3.52424	2.16585	1.10849	158.496	-23.198	-153.253	12.8408	-2.5819	602.47	0
0.4547	-19.6351	-4.19634	2.94442	124.042	-23.4998	-148.368	15.5857	-4.73347	1049.25	0
0.4553	-36.7528	-7.24207	3.56795	80.6735	-19.2374	-132.504	15.5857	-6.88505	1085.58	-0.642906
0.4560	-31.6175	-7.24207	7.51694	51.6808	-12.8249	-107.773	17.1117	-7.19242	589.063	-1.28581
0.4567	9.96857	-8.79877	13.6136	26.6636	-9.46782	-85.8142	22.6016	-7.19242	190.808	-1.28581
0.4573	74.6132	-11.5738	16.3849	65.7354	-9.16605	-69.0158	23.8299	-7.49979	243.914	-0.642906
0.4580	113.984	-12.7921	16.9737	200.017	-6.1107	-53.7641	21.3827	-5.34821	207.884	-0.321453
0.4587	102.102	-14.2811	16.3849	303.459	-4.58931	-36.6747	22.9087	-2.5819	-61.8848	0
0.4593	52.3602	-16.1085	15.1378	281.173	-5.19284	-12.572	29.9339	0.430316	-183.34	-0.321453
0.4600	4.73255	-13.0628	12.4012	217.405	-3.67145	10.0147	34.2048	6.88505	26.2912	-0.321453
0.4607	0.805541	-10.0171	3.56795	161.548	-5.19284	23.7505	24.1276	12.9709	344.013	-0.321453
0.4613	19.4337	-16.1085	-10.1842	72.1604	-9.46782	32.2952	11.3148	16.0446	436.775	-0.321453
0.4620	-1.4097	-19.1543	-23.9018	-20.319	-10.6874	39.3086	11.0077	18.4421	274.398	-0.321453
0.4627	-80.7555	-8.46036	-33.6704	-60.3144	-8.24819	49.0783	16.1998	22.7453	40.0482	-0.321453
0.4633	-174.098	4.94085	-37.654	-75.5737	-3.97321	66.4739	15.8928	27.9091	-165.346	-0.321453
0.4640	-249.516	14.6872	-36.4416	-89.5881	2.74101	111.035	9.17464	29.4459	-298.069	-0.642906
0.4647	-316.276	20.1695	-37.3422	-108.221	8.53738	178.78	0.325672	23.0526	-319.774	-0.321453
0.4653	-325.137	17.7329	-35.1945	-152.754	16.1695	224.857	-2.41928	13.8931	-313.049	-0.321453
0.4660	-233.003	20.7786	-25.1488	-165.604	22.8837	239.205	-5.16422	7.19242	-370.435	0
0.4667	-99.8871	43.114	-12.9208	-126.532	14.6355	233.707	-15.2321	2.5819	-524.819	0
0.4673	26.3815	37.9024	-0.415683	-76.4571	-4.89108	222.116	-21.6432	-3.81137	-688.419	-0.321453
0.4680	124.657	-23.4183	7.51694	-6.58559	-24.4177	215.699	-22.5644	-15.7373	-644.178	0
0.4687	182.052	-72.556	12.0895	34.6145	-47.9175	207.155	-23.7833	-25.5116	-423.804	0
0.4693	189.101	-71.9469	15.7613	8.07136	-66.8405	188.243	-22.8622	-24.8968	-202.25	0
0.4700	173.191	-55.7707	11.5006	-54.4917	-68.3619	148.873	-18.5912	-19.6716	9.82644	-0.321453
0.4707	204.305	-44.8061	3.56795	-90.5117	-59.2084	99.1366	-12.1801	-16.0446	98.0461	-0.321453
0.4713	236.628	-36.278	0.207842	-19.9977	-49.1371	64.3454	-9.43517	-10.8194	-29.523	0
0.4720	185.375	2.775	-0.415683	119.464	-36.023	45.1122	-9.74224	-1.96716	-187.008	-0.321453
0.4727	83.4742	59.5609	-1.93986	230.215	-16.182	27.7166	-5.47128	4.11874	-342.659	-0.321453
0.4733	32.8258	56.7859	-4.36468	305.909	5.79637	9.4022	3.07062	5.34821	-567.881	0
0.4740	31.6175	13.1982	-6.82414	363.894	22.2676	-4.02733	12.5337	7.19242	-609.065	-0.321453
0.4747	21.2461	-7.24207	-7.72478	344.057	30.8176	-6.76836	16.5069	7.19242	-402.447	-0.321453
0.4753	-16.0101	-9.74633	-9.24896	237.844	34.1747	-5.23706	14.3668	5.04084	-221.51	-0.321453
0.4760	-130.498	-6.36219	-10.8078	118.541	35.6961	-9.50939	15.5857	8.66779	-89.6608	-0.321453
0.4767	-218.906	-5.75304	-12.0202	-64.5709	31.7354	3.92014	20.1637	13.8931	48.9139	0
0.4773	-172.285	-14.2811	-15.0685	-269.327	20.1301	50.3033	19.2518	11.7415	131.587	0
0.4780	-131.102	-16.1085	-16.9045	-336.467	10.0588	83.257	16.5069	7.49979	176.134	0
0.4787	-253.443	-5.75304	-14.445	-279.125	0.603526	83.257	18.0329	4.42611	163.032	-0.321453
0.4793	-411.531	2.50427	-11.3967	-144.522	-3.97321	72.2775	16.1998	1.35242	63.5443	-0.642906
0.4800	-365.112	4.94085	-7.44766	-24.8967	0.603526	57.0104	7.04381	0.430316	-37.7772	-1.28581
0.4807	-190.309	1.28597	-2.56338	-13.0106	6.09813	37.18	-1.49809	2.5819	-242.56	-0.642906
0.4813	-46.2179	0.676829	2.63266	-20.6402	13.7302	20.397	-6.38316	5.34821	-544.996	-0.321453
0.4820	68.1689	2.775	10.877	-56.62	12.5106	19.1719	-6.99729	9.5899	-587.403	-0.321453
0.4827	168.358	-39.3237	15.4496	-213.51	-8.24819	16.4309	-6.38316	11.7415	-432.975	-0.321453
0.4833	243.374	-102.472	14.8607	-323.055	-26.2534	-6.4621	-7.30435	8.66779	-310.297	0
0.4840	287.377	-92.9963	15.4496	-267.198	-31.748	-26.905	-5.47128	8.05305	-110.1	-0.321453
0.4847	234.211	-35.9396	15.4496	-196.724	-36.3247	-31.1773	-3.94528	12.6636	153.249	0
0.4853	88.4081	-9.0695	16.3849	-189.376	-44.8621	-31.1773	-2.41928	15.1225	329.339	-0.321453
0.4860	32.2216	-4.80548	16.9737	-166.487	-53.4121	-29.3551	5.21075	11.4341	423.367	-0.642906
0.4867	102.404	-6.97134	14.2372	-125.608	-51.8907	-22.9389	12.2266	9.89726	575	-0.321453
0.4873	123.751	-17.0561	11.1888	-139.02	-47.3139	-21.1167	8.26276	11.7415	649.157	0
0.4880	55.0789	-23.4183	6.30453	-153.677	-46.6978	-23.8577	0.325672	13.2783	339.733	-0.321453
0.4887	36.1487	-17.0561	-0.415683	-84.7292	-38.764	-17.4415	-0.586209	16.352	-107.043	-0.321453
0.4893	14.1977	-4.53475	-3.77579	26.9849	-26.5552	-6.4621	4.29887	17.8274	-187.008	-0.321453
0.4900	-96.8663	4.3317	-7.1359	117.015	-18.0178	-4.31827	6.73675	17.8274	54.6787	-0.321453
0.4907	-137.445	3.99329	-11.3967	193.592	-9.46782	-14.088	7.04381	19.3642	243.303	-0.321453
0.4913	-56.2872	3.38414	-14.1332	274.788	-2.75359	-24.7765	9.78876	19.3642	329.033	-0.321453
0.4920	-4.73255	-0.541463	-16.2809	301.652	-4.58931	-24.4702	16.1998	13.8931	501.76	0
0.4927	-71.5925	-19.7634	-14.445	251.899	-9.46782	-27.8238	24.7417	8.36042	649.157	0
0.4933	-231.19	-46.6335	-11.3967	147.212	-8.54995	-40.0283	33.5907	12.3562	554.561	-0.321453
0.4940	-301.675	-69.2396	-10.496	-38.6301	-17.4017	-40.0283	37.5639	20.2863	369.343	-0.321453
0.4947	-137.143	-73.1652	-9.56072	-220.216	-36.9283	-29.9676	36.9498	15.7373	290.295	-0.321453
0.4953	92.0331	-59.4256	-9.24896	-302.897	-41.8193	-22.3264	35.1167	-0.737684	129.753	0
0.4960	194.84	-50.2884	-7.1359	-285.509	-32.3515	-19.2791	35.7308	-14.2004	-216.924	0
0.4967	225.35	-53.9432	2.63266	-208.611	-21.0605	-24.7765	38.1687	-19.3642	-425.332	0
0.4973	241.864	-70.1195	9.9764	-195.199	-18.3195	-31.1773	33.8978	-21.5158	-489.139	-0.321453
0.4980	169.566	-37.1579	11.1888	-239.129	-20.457	-25.0827	25.9607	-17.2741	-616.402	-0.321453
0.4987	43.1971	64.7725	7.8287	-215.317	-14.0446	-13.4755	20.7779	-7.80716	-651.471	0
0.4993	34.3362	95.9066	1.42025	-170.181	-3.67145	-4.31827	18.6377	-3.81137	-530.628	0
0.5000	74.0091	37.2933	-0.103921	-158.857	6.09813	1.47005	21.3827	-2.88926	-417.122	-0.321453
0.5007	47.1242	3.11341	-1.31633	-130.507	18.9105	2.08257	22.9087	-0.184421	-370.129	-0.321453
0.5013	-25.7773	3.11341	-6.51237	-86.5363	34.4764	0.85753	18.3307	5.65558	-376.2	-0.321453
0.5020	-158.792	7.64816	-9.56072	-48.7093	37.23	0.245008	16.5069	17.8274	-406.727	-0.321453
0.5027	-262.002	8.59572	-9.87248	-22.7685	29.5979	-0.0459391	16.5069	18.7495	-367.072	-0.321453
0.5033	-312.349	4.60244	-4.67644	2.89123	28.6801	1.47005	17.4188	2.5819	-298.375	0
0.5040	-415.156	5.55	-1.03921	11.7256	26.5426	-2.80228	18.3307	0.430316	-330.431	-0.321453
0.5047	-588.851	7.37743	-7.1359	-58.7884	24.4051	-13.1692	12.5337	9.28253	-405.505	-0.321453
0.5053	-693.47	5.21158	-9.24896	-143.317	27.1587	-15.6193	6.12263	8.05305	-418.039	-0.321453
0.5060	-591.871	1.28597	-8.03655	-136.29	29.2836	-11.6532	2.4658	6.57769	-337.768	0
0.5067	-433.784	-1.48902	-5.92349	-136.611	31.1193	-8.59061	-3.94528	7.80716	-214.173	0
0.5073	-276.603	-0.270731	2.04378	-211.06	30.8176	-3.41481	-7.90917	12.0488	-107.043	-0.321453
0.5080	-51.4539	3.99329	1.10849	-215.317	26.8443	-0.0459391	-8.83035	18.4421	13.495	-0.321453
0.5087	87.0991	5.82073	-7.1359	-111.875	23.8016	-7.68714	-5.16422	17.2126	105.034	-0.321453
0.5093	71.8945	-3.31646	-8.03655	-14.5365	23.1855	-14.3942	-0.586209	1.96716	71.7985	-0.964359
0.5100	1.71177	-16.1085	-2.8405	19.3552	24.1033	13.3683	-2.11221	-11.1267	-15.5039	-0.964359
0.5107	101.196	-19.1543	9.04111	13.5727	43.3282	20.0907	2.77286	-3.504	-49.6563	-0.321453
0.5113	479.901	-21.9293	17.2855	21.4835	64.0744	-61.3899	8.56982	6.57769	-38.0829	0
0.5120	802.52	-28.0207	17.5973	49.5525	59.4976	-133.116	4.90368	-0.737684	-19.1725	-0.321453
0.5127	801.815	-30.1866	17.5973	88.3031	46.987	-132.504	0.325672	-11.4341	17.7749	-0.321453
0.5133	585.83	-29.8481	14.8607	123.399	32.3389	-112.045	-2.41928	-12.0488	97.7404	-0.321453
0.5140	377.396	-24.6366	13.0247	132.274	11.5927	-98.0187	-3.02409	-4.42611	205.744	-0.321453
0.5147	307.515	-20.3725	10.2535	169.499	-10.0839	-93.1339	-5.47128	-1.35242	333.619	0
0.5153	52.3602	-23.1475	8.14047	287.919	-19.2374	-80.6231	-11.2682	-5.96295	464.856	-0.321453
0.5160	-490.877	-20.1018	9.35288	376.101	-10.6874	-46.4444	-13.4084	-2.5819	515.823	-0.321453
0.5167	-819.537	-13.0628	6.89342	273.262	-7.02857	-12.572	-14.0132	8.05305	481.015	0
0.5173	-878.443	-10.6262	4.78036	85.5725	-11.3035	5.12987	-8.83035	20.2863	442.277	0
0.5180	-828.7	-12.4536	5.68101	-1.08421	-19.5392	25.8943	0.325672	29.7533	339.427	-0.321453
0.5187	-659.335	-23.1475	7.51694	-46.2598	-23.4998	64.9426	3.68474	23.36	108.397	0
0.5193	-460.971	-26.8024	6.30453	-106.092	-2.13749	99.1366	3.68474	13.5857	-119.577	0
0.5200	-174.702	-13.0628	-11.3967	-78.6255	18.6087	106.762	-2.11221	16.5979	-229.109	-0.321453
0.5207	230.888	3.38414	-30.3102	27.9084	25.9265	103.7	-7.90917	28.5238	-261.776	-0.642906
0.5213	412.437	17.7329	-37.3422	97.4587	37.23	100.653	-8.21623	38.9128	-243.477	-0.321453
0.5220	-121.335	23.2152	-41.9147	121.592	30.8176	99.7338	-10.0493	39.5276	-183.34	0
0.5227	-774.024	15.0256	-34.6056	153.316	25.6247	104.925	-6.38316	36.1465	-114.38	0
0.5233	-583.615	-1.75975	-13.5444	149.34	49.7406	83.257	-3.33116	32.2122	-103.068	0
0.5240	-72.1966	-17.3268	7.20518	45.8983	66.8279	41.4524	-2.41928	22.1305	-195.568	-0.321453
0.5247	227.565	-25.5841	22.7933	-54.4917	55.537	18.5594	2.4658	13.5857	-258.719	-0.321453
0.5253	579.083	-31.4049	26.1188	-162.23	24.4051	-0.0459391	-0.893271	9.89726	-250.159	-0.321453
0.5260	945	-35.3305	21.858	-241.579	-2.75359	-18.0541	0.0186098	10.2046	-237.363	0
0.5267	1129.97	-28.0207	10.2535	-137.494	-6.1107	-26.2925	9.17464	17.52	-206.836	0
0.5273	951.445	-6.97134	-13.2326	-5.98325	3.34454	-30.8711	-0.893271	19.979	-163.818	-0.321453
0.5280	307.515	18.9512	-33.0815	47.7455	6.09813	-40.3345	-19.2053	22.1305	-83.8523	-0.321453
0.5287	-514.338	37.564	-50.7827	91.0739	-11.3035	-49.4917	-26.8353	40.1423	4.01792	-0.321453
0.5293	-1060.29	46.7689	-62.3525	98.7035	-42.1211	-47.3479	-27.1331	65.4695	-40.2229	-0.321453
0.5300	-1000.78	44.9414	-58.7153	62.6836	-56.7692	-48.2667	-27.7472	76.1659	-176.92	-0.321453
0.5307	-544.848	35.4658	-55.3552	55.3752	-43.039	-53.7641	-31.4134	66.3916	-213.561	-0.321453
0.5313	-280.63	28.7652	-52.3068	64.2095	-13.1267	-55.2954	-26.2212	51.392	-139.099	-0.321453
0.5320	-266.533	12.8597	-43.1272	-11.1634	4.56417	-58.6489	-16.1533	31.2901	-67.3876	-0.321453
0.5327	-38.8674	-19.7634	-23.3129	-114.605	-2.13749	-60.1802	-8.83035	-3.81137	-26.4659	-0.321453
0.5333	523.803	-53.9432	7.20518	-156.127	-16.7981	-87.6365	-2.72634	-46.2282	-0.524077	-0.321453
0.5340	1001.19	-78.7152	27.9547	-235.154	-29.9123	-126.394	-2.11221	-79.1781	10.7436	0
0.5347	1056.97	-81.1518	31.6266	-355.421	-40.2854	-96.4874	-0.893271	-86.8009	28.4312	0
0.5353	794.566	-67.6829	25.8417	-330.083	-53.7138	-31.4836	-1.49809	-76.1659	63.85	0
0.5360	421.902	-55.7707	16.3849	-194.275	-72.3351	-0.65846	-7.60211	-63.9326	111.454	-0.321453
0.5367	-254.652	-41.1512	4.15683	-138.137	-75.994	5.12987	-9.74224	-50.5314	165.172	-0.321453
0.5373	-1007.83	-23.7567	-15.0685	-140.546	-74.4726	21.622	-14.3202	-38.6055	189.585	-0.321453
0.5380	-1045.69	-12.4536	-25.1488	-101.796	-93.6974	64.6516	-14.6273	-29.4459	166.089	0
0.5387	-683.099	-5.75304	-23.9018	-53.8894	-104.071	91.1891	-6.38316	-21.2084	127.613	-0.321453
0.5393	-871.998	-4.53475	-19.9528	-43.8102	-90.3403	85.0945	-14.0132	-15.4299	74.2442	-1.28581
0.5400	-1302.96	-6.63292	-8.34831	-46.8621	-74.4726	80.2097	-34.1583	-2.5819	18.6921	-0.964359
0.5407	-1157.97	-8.46036	-4.08755	-36.1806	-61.0442	76.2436	-46.3663	17.2126	64.4615	0
0.5413	-708.171	-9.0695	-7.44766	-1.08421	-36.9283	65.5551	-52.7681	28.5238	200.853	0
0.5420	-440.832	-5.75304	-12.0202	39.4734	-10.6874	38.4051	-64.6784	26.987	259.156	0
0.5427	-415.458	-5.41463	-21.1652	71.5179	-4.58931	6.66117	-74.4392	17.2126	214.915	0
0.5433	-420.392	-12.1829	-15.3803	98.9846	0.603526	-6.76836	-68.6423	10.8194	206.355	-0.321453
0.5440	-102.102	-23.4183	0.484964	100.832	12.1963	-42.7846	-63.4501	8.97516	253.959	0
0.5447	323.324	-31.6756	5.99277	92.2786	18.6087	-83.9767	-65.8973	9.28253	311.04	0
0.5453	533.268	-29.8481	4.15683	84.3678	38.4496	-75.7383	-61.9241	18.4421	344.013	0
0.5460	652.287	-26.5317	0.207842	56.5799	57.3601	-58.0364	-57.6532	26.3722	241.468	0
0.5467	637.686	-28.6299	4.4686	58.7081	72.3226	-59.874	-52.1633	23.36	30.5712	0
0.5473	357.56	-33.8414	16.3849	106.333	119.624	-79.0918	-41.7883	14.2004	-55.4648	0
0.5480	304.092	-37.767	22.7933	147.212	168.145	-103.501	-31.7111	6.27032	15.0235	-0.321453
0.5487	828.398	-38.7146	27.0541	169.177	181.573	-107.176	-14.3202	1.96716	35.1568	0
0.5493	1302.66	-44.5353	28.89	172.872	173.338	-97.4062	7.95569	-1.04505	4.01792	0.321453
0.5500	1242.55	-46.6335	25.8417	161.548	144.343	-56.5051	30.5387	5.34821	50.4424	0
0.5507	1223.92	-33.2323	13.3019	145.405	95.508	18.2531	40.0018	23.9747	114.817	-0.321453
0.5513	1565.67	-7.58048	-12.3319	135.326	33.5586	75.6311	38.1687	43.4619	207.272	-0.321453
0.5520	1333.77	28.1561	-41.9147	119.143	-12.2088	124.158	43.9657	63.0105	401.05	-0.321453
0.5527	152.147	57.7335	-69.0727	35.8192	-28.0891	152.533	35.4238	79.1781	415.418	-0.321453
0.5533	-1034.11	65.9908	-76.6936	-69.4699	-39.6818	130.559	8.56982	78.256	120.931	-0.321453
0.5540	-1603.23	52.8603	-59.6159	-86.2552	-58.2906	103.103	-11.8824	51.392	-94.2465	0
0.5547	-1602.02	28.1561	-39.767	-36.7829	-75.994	87.223	-20.4243	12.6636	-65.5533	0
0.5553	-1296.52	13.1982	-26.0495	-8.11152	-66.8405	77.7596	-16.7581	-6.88505	22.3606	0
0.5560	-998.065	10.7616	-22.6894	-23.6921	-13.441	90.5766	-9.43517	-1.35242	114.205	-0.321453
0.5567	-776.844	7.37743	-23.3129	-52.3635	40.8889	104.925	-3.02409	3.19663	209.412	-0.321453
0.5573	-570.524	3.11341	-19.641	-94.4872	50.0424	88.4481	2.15874	-17.8274	236.271	-0.321453
0.5580	-332.185	-2.09817	-19.0175	-126.813	45.7674	62.8141	-5.77835	-49.3019	144.121	-0.321453
0.5587	-53.2664	-10.9646	-14.1332	-117.978	44.5478	42.3712	-23.7833	-65.4695	-14.2811	-0.321453
0.5593	121.033	-19.4927	-2.8405	-97.2178	28.3783	19.4782	-37.5174	-73.3996	-129.01	0
0.5600	123.751	-24.975	7.20518	-76.7783	14.032	-1.8835	-38.1222	-78.8708	-221.51	0
0.5607	179.334	-32.2847	19.7103	-52.3635	16.4712	-34.5309	-27.4402	-76.1659	-298.986	-0.321453
0.5613	363.903	-49.4085	34.9867	-49.6329	25.323	-65.9685	-17.3723	-79.7929	-272.782	0
0.5620	454.527	-68.6304	51.1637	-74.0477	29.2836	-60.4712	-12.7942	-87.1082	-184.562	0
0.5627	406.698	-80.2042	59.997	-75.5737	9.15348	-40.947	-14.3202	-85.9402	-135.125	-0.321453
0.5633	425.93	-84.4682	58.1957	-37.1042	-29.9123	-58.0364	-22.5644	-86.1861	-119.883	-0.321453
0.5640	472.853	-82.9792	56.6369	-3.21248	-37.2426	-105.645	-28.6591	-92.3335	-89.3551	-0.321453
0.5647	395.319	-77.4292	54.8356	9.27604	-21.0605	-147.755	-28.0543	-91.4114	-31.663	-0.321453
0.5653	308.119	-68.0213	47.1801	12.6492	-28.0891	-169.73	-24.0811	-74.0143	53.4559	-0.321453
0.5660	275.696	-54.5524	35.2984	-4.45732	-39.0657	-158.444	-14.6273	-43.7693	127.918	0
0.5667	166.445	-37.4963	21.858	-28.2698	-28.9944	-138.905	0.325672	-7.49979	159.975	0
0.5673	162.216	-18.8835	9.35288	-24.8967	-16.7981	-125.169	15.8928	29.4459	171.592	0
0.5680	442.343	-2.3689	-3.77579	-12.087	-17.4017	-100.147	33.2836	61.1663	145.955	0
0.5687	461.575	11.6415	-18.4286	-9.9587	-22.5945	-92.8276	44.2727	84.9566	85.2062	-0.321453
0.5693	-13.8956	21.7262	-33.9821	-7.18793	-25.3355	-89.474	40.3088	99.6489	6.1579	-0.964359
0.5700	-385.25	35.4658	-48.3232	3.49358	-38.4622	-69.3221	42.4397	104.813	-140.016	-0.964359
0.5707	-528.737	50.6945	-58.7153	27.5872	-62.2638	-60.1802	53.7358	94.1162	-255.968	-0.321453
0.5713	-641.311	51.642	-57.1911	60.5553	-79.6529	-43.9943	50.6838	73.3996	-136.653	-0.321453
0.5720	-525.616	38.5116	-43.4389	77.3405	-102.851	-18.0541	39.3877	60.5516	102.588	-0.964359
0.5727	-149.931	18.0713	-30.0331	63.8883	-121.472	-19.5854	35.4238	42.2324	156.612	-0.642906
0.5733	150.334	-6.63292	-18.4286	37.3451	-106.51	-33.3212	36.0379	-0.737684	51.6216	0
0.5740	208.635	-29.239	-1.93986	16.6246	-89.7242	-27.5175	40.6159	-40.7571	108.702	0
0.5747	364.205	-46.3628	18.4979	-10.561	-83.01	-9.81565	43.6679	-53.5436	236.271	0
0.5753	802.822	-57.3274	34.3632	-51.1588	-69.5815	-1.8835	40.0018	-59.3836	-29.8287	0
0.5760	1139.74	-63.1481	39.2474	-75.2524	-71.4173	-0.0459391	46.4129	-72.4775	-581.289	0
0.5767	1227.24	-66.4646	40.4945	-52.6847	-51.5763	11.546	60.7517	-79.7929	-796.117	0
0.5773	1247.98	-65.8554	38.9703	11.4043	10.9766	24.0568	51.2886	-73.0922	-529.405	0
0.5780	1119.2	-58.8164	26.1188	62.6836	51.262	24.9756	27.4867	-54.4657	-244.7	0
0.5787	501.852	-42.0311	6.61629	71.5179	85.4367	21.0095	25.3559	-31.5975	-161.678	0.321453
0.5793	-468.321	-21.5908	-12.9208	65.7354	126.942	28.3291	36.9498	-20.9011	-131.762	0.321453
0.5800	-971.18	-14.6195	-21.7887	56.5799	128.777	54.5756	41.2207	-23.0526	-97.9151	0
0.5807	-738.983	-18.5451	-16.2809	40.9993	100.701	74.7123	52.8146	-23.36	-78.3495	-0.321453
0.5813	-407.201	-14.8902	-12.9208	29.1131	82.0796	75.9373	66.2509	-18.7495	-62.4962	0
0.5820	-350.511	0.338414	-18.1169	27.2659	94.9045	95.4614	57.6997	-6.88505	-55.4648	0.321453
0.5827	-330.977	16.5146	-22.3776	30.0367	121.145	150.711	37.2568	13.5857	-46.6429	0
0.5833	-161.008	20.1695	-20.2646	32.165	145.563	183.358	13.7526	25.7575	-24.3259	0
0.5840	69.78	9.54328	-15.9692	34.8956	150.743	156.805	-13.7061	16.9053	-42.9743	0.321453
0.5847	168.358	-3.92561	-12.9208	36.4215	134.574	110.729	-28.9662	7.80716	-104.903	0
0.5853	-48.9366	-10.9646	-9.24896	39.7946	136.409	86.3042	-20.7313	16.5979	-126.565	-0.321453
0.5860	-366.32	-10.3555	-12.3319	41.9229	132.135	66.7801	-2.41928	29.7533	-103.068	-0.321453
0.5867	-390.184	-10.3555	-11.3967	28.5108	92.4652	39.9211	11.9289	35.2244	-79.8781	-0.321453
0.5873	-182.959	-16.7177	-1.31633	11.4043	46.3835	21.0095	13.7526	31.5975	-49.3506	-0.321453
0.5880	34.3362	-24.3658	3.84507	15.3798	-13.1267	7.88621	3.68474	20.9011	6.1579	0
0.5887	218.704	-27.75	11.1888	35.2168	-70.1976	-0.0459391	-0.279147	11.1267	58.3472	0
0.5893	319.699	-28.6299	18.1861	35.8192	-103.153	4.8236	1.85168	1.35242	74.2442	-0.321453
0.5900	463.388	-30.4573	14.8607	17.8293	-186.779	13.062	4.59662	-9.89726	88.569	0
0.5907	735.056	-35.6689	14.5489	23.0094	-306.101	12.1585	11.0077	-16.0446	128.224	0
0.5913	648.36	-38.7146	9.66464	38.2687	-359.5	30.1667	15.8928	-19.3642	122.765	-0.321453
0.5920	33.1279	-31.6756	-4.36468	30.3178	-339.672	54.8819	25.3559	-27.6017	46.7739	0
0.5927	-431.367	-20.9817	-10.1842	11.7256	-294.508	52.7381	36.0379	-28.5238	-6.3326	0
0.5933	-459.461	-14.8902	-7.44766	0.120468	-275.887	51.8193	35.1167	12.3562	13.8007	-0.321453
0.5940	-399.045	-7.85121	0.207842	1.04406	-230.107	54.5756	33.2836	59.9369	97.1289	-0.321453
0.5947	-265.627	-5.41463	3.56795	8.35246	-132.763	21.622	28.4079	37.376	189.585	0
0.5953	-57.7976	-9.74633	-0.103921	2.89123	-39.0657	-45.5256	14.3668	-0.737684	143.204	-0.642906
0.5960	-95.9601	-10.0171	3.56795	-4.73841	55.2352	-101.066	-4.5501	1.65979	18.0807	-0.642906
0.5967	-295.231	-12.7921	9.9764	1.96765	134.876	-144.096	-34.7631	0.430316	34.5454	-0.321453
0.5973	-322.72	-17.936	9.66464	9.27604	178.518	-185.288	-62.2312	-0.737684	71.4928	-0.321453
0.5980	-205.816	-19.7634	11.5006	13.5727	179.134	-163.926	-73.5274	10.8194	-9.084	-0.321453
0.5987	-32.2216	-28.3591	17.5973	23.6117	153.195	-48.5729	-77.4912	12.6636	-56.0762	-0.642906
0.5993	155.167	-35.9396	13.6136	29.7155	92.767	47.547	-87.5592	8.66779	-27.0773	-0.964359
0.6000	248.006	-34.4506	1.73201	21.8047	-31.748	69.5212	-104.959	9.5899	-26.7716	-0.642906
0.6007	318.491	-36.5487	-0.727446	15.3798	-101.631	92.4141	-109.844	9.5899	-24.3259	-0.321453
0.6013	447.881	-39.5945	0.484964	19.6363	-72.9387	114.388	-100.688	0.430316	19.6092	-0.321453
0.6020	459.461	-24.6366	-6.20061	20.5599	-65.0048	89.6731	-96.4081	-7.80716	7.38075	-0.321453
0.6027	272.374	-1.15061	-9.56072	16.3034	-57.3853	18.5594	-80.2362	1.65979	-42.3629	0
0.6033	136.539	6.42987	-6.51237	12.9302	-14.3463	-65.9685	-30.4922	3.504	-36.5544	0
0.6040	121.033	3.38414	-6.82414	12.3279	19.8284	-114.189	27.7937	-20.9011	4.93506	-0.321453
0.6047	38.9681	4.3317	-9.24896	18.4316	52.7834	-114.189	77.5378	-30.0606	53.4559	-0.321453
0.6053	-38.8674	2.50427	-9.56072	24.8566	101.003	-95.5686	116.6	-3.19663	78.4805	0
0.6060	-63.0336	-6.36219	-6.20061	24.8566	155.634	-52.2327	120.564	24.2821	68.13	0
0.6067	-193.632	-10.9646	-5.29996	22.0858	227.353	20.7032	83.3347	24.5895	60.4872	-0.321453
0.6073	-296.137	-6.97134	-10.8078	23.3307	302.115	83.257	32.6788	13.8931	59.8758	-0.321453
0.6080	-293.116	-2.97805	-12.3319	30.6391	316.461	95.7677	-7.30435	12.0488	50.4424	0
0.6087	-418.881	-7.24207	-7.44766	31.8437	269.764	50.9158	-26.5283	13.2783	41.8825	0
0.6093	-469.53	-11.5738	-6.82414	17.2269	216.062	-0.964721	-38.4293	10.2046	38.2139	0
0.6100	-215.885	-9.74633	-5.92349	2.56999	164.486	-33.3212	-63.7572	6.88505	35.7683	0
0.6107	16.9164	-8.18963	0.207842	-2.0078	104.674	-57.7301	-81.7622	-4.11874	23.5835	-0.321453
0.6113	73.707	-11.2354	2.94442	-6.26434	62.8547	-71.1597	-84.2094	-23.6674	-2.66406	-0.321453
0.6120	114.89	-16.4469	2.63266	-12.6893	41.1907	-62.615	-84.8142	-34.3638	-25.5488	0
0.6127	187.188	-19.7634	5.99277	-15.7412	-10.9892	-28.7426	-77.7983	-32.827	-21.0068	0
0.6133	266.231	-21.9293	13.6136	-10.561	-129.092	-13.7817	-61.0123	-27.9091	1.57223	0
0.6140	302.883	-23.7567	13.6136	-10.8421	-284.123	-18.3603	-32.0182	-26.1263	25.6798	0
0.6147	275.092	-17.6652	4.78036	-23.9732	-388.797	58.5417	6.42969	-26.987	64.7672	-0.321453
0.6153	225.048	-6.97134	5.36924	-29.4745	-396.127	201.673	29.3198	-22.1305	74.8557	-0.321453
0.6160	169.868	-10.3555	9.66464	-14.8176	-349.127	277.043	26.8819	-15.4299	43.1053	0
0.6167	142.379	-26.8024	11.7777	12.9302	-280.765	261.179	20.4708	-20.2863	39.4368	0
0.6173	182.052	-37.4963	18.1861	43.1677	-200.509	218.149	15.2787	-24.2821	43.411	-0.321453
0.6180	237.03	-38.1055	16.0731	53.2067	-106.51	168.397	16.5069	-22.1305	23.5835	-0.321453
0.6187	212.864	-34.7213	9.66464	38.59	-12.5232	110.729	44.8869	-21.5158	10.4379	-0.321453
0.6193	159.497	-30.4573	12.0895	26.9849	20.4444	68.6177	83.3347	-20.2863	15.0235	-0.321453
0.6200	238.843	-28.0207	12.4012	15.3798	16.4712	26.4915	108.365	-16.6594	27.2083	-0.321453
0.6207	331.279	-25.8549	11.1888	-5.662	21.9658	-15.0068	125.449	-10.8194	66.6014	-0.321453
0.6213	137.143	-24.0274	11.5006	-22.1661	24.1033	27.7166	124.23	-4.73347	140.147	-0.321453
0.6220	-273.582	-17.936	6.30453	-31.0005	37.23	111.341	94.3238	3.19663	161.809	0
0.6227	-525.616	-6.02378	-0.727446	-25.4991	58.8941	118.048	50.6838	14.5078	104.422	0
0.6233	-506.987	0.94756	-5.29996	-0.803121	98.8651	96.9927	14.9809	25.1427	64.7672	-0.964359
0.6240	-414.25	5.55	-12.9208	22.0858	147.084	84.482	1.24686	31.2901	65.99	-0.642906
0.6247	-313.557	12.2506	-21.7887	24.5353	147.7	31.6827	-0.893271	31.2901	80.6205	0.321453
0.6253	-205.212	10.7616	-18.1169	16.9057	109.854	-60.4712	-5.77835	28.2164	129.447	0
0.6260	-217.093	0.94756	-5.92349	8.35246	70.7886	-176.146	-12.4872	25.7575	175.828	-0.321453
0.6267	-259.888	-6.97134	-0.103921	-2.32905	44.5478	-277.457	-17.9864	22.4379	139.536	0
0.6273	-130.498	-9.74633	-0.103921	-13.6129	56.7566	-308.282	-15.2321	19.0568	68.4357	0
0.6280	61.5232	-6.02378	-2.56338	-15.4199	87.8885	-256.401	-6.69023	19.6716	28.7369	0
0.6287	183.865	-2.3689	-7.72478	-7.79027	98.5634	-201.78	-12.4872	17.8274	-28.3002	0
0.6293	305.602	-5.41463	-8.03655	7.46902	111.376	-189.866	-33.2371	1.04505	-84.4637	-0.964359
0.6300	370.348	-10.6262	-1.03921	26.6636	114.733	-179.806	-52.4704	-23.36	-78.6552	-1.28581
0.6307	272.978	-16.4469	2.3209	28.5108	78.7224	-201.474	-55.8201	-32.827	-36.8601	0
0.6313	128.081	-24.975	2.04378	22.4071	65.6083	-274.103	-35.0702	-31.5975	14.4121	0
0.6320	51.1519	-31.0664	4.15683	28.7919	86.0528	-314.989	2.4658	-31.9048	41.2711	-0.321453
0.6327	21.8503	-32.6231	5.36924	25.1377	78.4207	-298.512	34.5119	-31.9048	51.6216	-0.321453
0.6333	4.73255	-30.4573	5.09212	-1.68655	56.7566	-277.457	48.5437	-31.5975	103.199	-0.321453
0.6340	-6.8471	-25.5841	5.09212	-24.2944	54.3174	-255.789	45.1846	-29.7533	50.7044	-0.321453
0.6347	-14.4997	-20.3725	2.94442	-16.6648	55.2352	-197.201	27.4867	-24.5895	-147.047	-0.321453
0.6353	-16.0101	-14.8902	2.63266	9.87838	41.4924	-117.849	-6.99729	-18.7495	-206.224	0
0.6360	-12.0831	-10.6262	3.56795	32.165	22.8837	-69.9346	-50.3302	-13.5857	-117.131	-0.321453
0.6367	-8.96165	-10.0171	3.56795	47.4243	18.9105	-62.3087	-80.8503	-9.5899	-47.8657	-0.321453
0.6373	-6.54502	-11.5738	3.84507	58.7081	20.4444	-74.2069	-92.4442	-6.57769	52.8444	-0.321453
0.6380	-0.704848	-13.0628	2.63266	56.9011	4.2624	-102.291	-92.4442	-5.04084	214.304	-0.321453
0.6387	10.8748	-9.40792	2.94442	39.4734	-14.3463	-125.169	-82.3763	-3.81137	393.145	-0.321453
0.6393	20.9441	-2.3689	3.56795	8.07136	-24.1159	-122.428	-53.9964	-3.504	446.863	-0.321453
0.6400	22.1524	-1.75975	2.04378	-26.1014	-28.3909	-92.5213	-27.1331	-3.81137	224.392	0
0.6407	17.2184	-4.19634	6.30453	-27.9486	-24.4177	-31.7899	-27.4402	-0.737684	-45.1143	0
0.6413	7.45126	-7.85121	7.51694	-8.11152	-30.214	18.2531	-36.5962	0.737684	-170.543	0
0.6420	3.22216	-11.5738	3.56795	-2.61014	-34.489	39.9211	-33.8512	-1.65979	-232.472	-0.321453
0.6427	7.75333	-10.0171	6.30453	5.62185	-23.8141	65.8613	-27.4402	-1.96716	-165.958	-0.642906
0.6433	7.75333	-8.79877	6.61629	20.8811	-27.473	67.6989	-22.8622	-1.96716	2.48937	0
0.6440	6.8471	-9.0695	4.15683	24.2141	-38.4622	30.1667	-19.5124	-2.5819	115.428	0
0.6447	10.8748	-6.02378	9.66464	13.5727	-39.9836	11.2398	-11.8824	-0.184421	151.109	-0.642906
0.6453	7.14918	-6.63292	8.45223	-11.7657	-51.2746	13.6745	4.29887	-1.04505	80.9262	0
0.6460	2.92009	-7.24207	3.84507	-29.7958	-68.0602	8.49873	11.9289	-4.11874	-120.8	0.321453
0.6467	7.75333	-1.48902	7.51694	-26.1014	-86.9832	-8.29966	5.82487	-1.96716	-300.82	0
0.6473	8.35749	-0.270731	6.30453	-26.1014	-95.2188	-23.5514	2.15874	-0.737684	-343.576	0
0.6480	6.24294	-3.58719	2.94442	-30.6792	-77.8297	-29.9676	4.90368	-1.65979	-304.489	0
0.6487	7.75333	-3.92561	5.09212	-26.4227	-55.8513	-40.947	8.87688	-0.737684	-234	-0.321453
0.6493	7.45126	-4.19634	5.68101	-23.3708	-25.0338	-39.1095	21.6897	-0.49179	-165.346	0
0.6500	5.03463	-5.1439	4.15683	-24.5755	-30.5284	-35.7559	41.8349	-1.65979	-81.1009	0
0.6507	4.73255	-4.53475	3.25619	-16.6648	-98.2742	-23.2452	32.0647	-1.96716	29.0426	-0.321453
0.6513	6.8471	-2.97805	2.63266	-5.98325	-124.213	161.078	0.939795	-1.96716	64.7672	-0.321453
0.6520	9.36442	-1.15061	2.94442	-1.08421	-108.346	398.813	-20.1172	-1.35242	18.6921	-0.321453
0.6527	10.2706	1.28597	3.56795	10.1996	-126.954	410.405	-49.1113	0.430316	-14.2811	0
0.6533	10.2706	3.38414	4.4686	26.0613	-152.592	370.728	-80.8503	1.65979	-11.224	0
0.6540	9.36442	3.38414	4.78036	27.2659	-140.697	380.498	-85.4283	1.65979	8.6036	-0.321453
0.6547	8.35749	1.55671	2.3209	15.3798	-90.9438	273.077	-63.7572	-0.49179	17.7749	-0.321453
0.6553	9.96857	1.28597	0.484964	10.5209	-21.6766	114.695	-39.0434	-2.88926	14.1064	-0.321453
0.6560	11.479	2.50427	0.207842	19.3552	30.5158	23.138	-18.2841	-4.42611	15.3293	-0.321453
0.6567	10.8748	2.50427	-1.31633	24.5353	50.3441	-34.2399	9.17464	-4.73347	12.8836	-0.321453
0.6573	13.8956	3.72256	-0.415683	14.1751	35.6961	-100.147	38.4758	-3.81137	10.7436	0
0.6580	16.3122	5.21158	0.484964	-2.0078	2.12492	-158.444	54.6477	-2.5819	15.9407	0.321453
0.6587	16.0101	5.55	-1.62809	-7.79027	13.1141	-177.968	50.9909	-2.5819	4.01792	-0.321453
0.6593	20.0378	6.42987	0.484964	8.07136	58.8941	-164.539	39.3877	-2.27453	-8.47258	-1.28581
0.6600	23.0586	8.32499	1.73201	29.4344	82.3939	-127.925	37.2568	-1.04505	35.7683	-0.642906
0.6607	23.0586	8.93414	-0.415683	38.871	80.8599	-85.8142	44.8869	0.430316	100.754	-0.321453
0.6613	23.3607	8.32499	-0.415683	43.7701	93.9866	-65.9685	43.3609	0.430316	104.728	-0.321453
0.6620	16.6143	7.98658	-2.8405	49.8738	135.793	-58.6489	28.1008	-1.04505	123.376	0
0.6627	7.45126	8.59572	-5.29996	51.6808	162.047	-67.4998	21.9968	-2.88926	228.017	0
0.6633	9.66649	7.98658	-2.56338	36.7428	158.69	-100.453	18.6377	-5.34821	281.124	-0.321453
0.6640	14.8018	4.60244	0.484964	4.69826	133.97	-102.291	-3.63822	-5.34821	246.054	-0.321453
0.6647	13.5935	2.775	0.207842	-28.8722	96.7276	-45.5256	-25.3093	-2.27453	197.228	-0.321453
0.6653	12.6873	6.42987	-3.46403	-50.8375	84.217	6.66117	-22.8622	-1.96716	74.5499	0
0.6660	15.1039	12.8597	-5.29996	-45.9385	97.9598	19.7844	-10.9612	-2.27453	-108.266	-0.321453
0.6667	17.5205	16.853	-6.20061	-21.8449	101.317	28.3291	-7.30435	-1.35242	-239.809	-0.642906
0.6673	18.8295	19.2896	-8.66007	3.49358	99.1795	64.0391	-2.11221	-2.27453	-257.496	-0.321453
0.6680	23.6628	22.9445	-7.1359	22.4071	93.0688	141.554	13.1478	-3.81137	-180.588	0
0.6687	28.496	21.7262	-8.03655	24.8566	69.8833	225.469	28.7056	-6.88505	-104.903	0
0.6693	27.2877	16.853	-15.0685	15.701	50.6459	257.826	30.2316	-12.0488	-66.1647	0
0.6700	28.8988	19.2896	-14.7568	16.6246	42.1085	239.511	19.5589	-11.1267	-39.6115	0
0.6707	30.1071	18.9512	-12.0202	20.8811	40.5871	206.557	3.68474	-0.737684	-18.5611	-0.321453
0.6713	25.7773	11.9799	-13.8561	14.4562	42.1085	182.133	-8.83035	12.6636	-5.41546	0
0.6720	27.2877	11.6415	-7.44766	9.59729	23.8016	166.269	0.939795	23.0526	0.698769	0
0.6727	29.805	13.4689	5.99277	11.4043	0.905289	136.056	21.6897	28.5238	5.85219	-0.321453
0.6733	26.0794	6.42987	9.04111	15.0987	-0.0125735	81.741	23.8299	35.5318	12.2721	-0.321453
0.6740	25.1732	-4.53475	7.20518	19.3552	1.21963	28.3291	18.9448	49.9166	18.0807	0
0.6747	24.569	-10.3555	8.45223	17.2269	-3.05535	-14.3942	25.0488	61.4737	19.3035	-0.321453
0.6753	20.0378	-7.85121	6.89342	9.27604	-0.0125735	-52.2327	30.5387	63.0105	2.18365	0
0.6760	19.7358	-4.19634	-0.103921	4.09592	7.01599	-71.7722	26.8819	55.6952	-25.5488	0
0.6767	20.0378	-1.75975	-13.8561	0.441716	14.9498	-66.8873	11.0077	34.3023	-32.5801	0
0.6773	20.642	4.60244	-26.0495	0.722809	19.5266	-55.6016	-8.21623	6.27032	-17.3382	-0.321453
0.6780	28.8988	14.4165	-28.1972	7.75011	10.9766	-54.3766	-20.1172	-22.7453	-3.58119	0
0.6787	39.5722	21.1171	-22.3776	17.508	-5.19284	-62.0025	-29.8874	-32.5196	3.71221	0
0.6793	46.2179	24.1628	-16.2809	25.1377	-15.5659	-65.9685	-32.3252	1.96716	10.4379	0
0.6800	48.7352	25.9902	-8.97183	27.5872	-18.0178	-78.173	-22.2573	41.3718	15.0235	0
0.6807	48.7352	26.3286	10.2535	26.0613	-14.0446	-107.482	-14.3202	63.0105	16.5521	-0.321453
0.6813	48.7352	22.3353	30.4142	23.933	-7.94643	-110.836	-14.6273	121.595	15.9407	0
0.6820	46.52	11.6415	32.2501	20.2788	-1.83573	-72.0784	-14.3202	203.109	16.8578	0
0.6827	44.4055	15.2963	34.3632	15.3798	2.43925	-29.9676	-8.83035	237.903	17.4692	-0.321453
0.6833	44.1034	30.8634	52.6879	10.802	0.301763	-13.7817	-1.80515	244.911	12.8836	-0.321453
0.6840	37.9611	27.2085	60.9323	5.62185	-3.36969	-18.3603	0.325672	227.514	9.52073	0
0.6847	22.7565	26.5994	42.6075	3.49358	-1.83573	-3.10855	2.4658	112.743	6.1579	0
0.6853	8.05541	45.8213	6.89342	7.46902	-0.6161	35.6487	9.17464	-60.3057	-0.524077	0
0.6860	-3.22216	48.2579	-24.8371	13.8538	1.52139	56.3979	15.5857	-156.696	7.68646	0
0.6867	-8.65957	35.1274	-35.1945	18.7529	6.70166	55.8007	11.6218	-160.077	38.5197	-0.321453
0.6873	-9.86788	26.3286	-29.0978	18.7529	8.53738	42.0649	-0.893271	-161	60.4872	-0.321453
0.6880	-12.3852	23.5536	-18.1169	15.0987	7.92128	23.138	-10.9612	-175.016	70.5757	0.321453
0.6887	-8.35749	16.5146	-9.87248	11.1232	7.01599	15.8184	-16.7581	-168.93	99.5746	0
0.6893	-1.00693	0.338414	-10.1842	5.0195	2.12492	13.062	-18.8983	-135.058	116.039	-0.964359
0.6900	-1.00693	-4.53475	-12.0202	-2.0078	-2.45183	10.6272	-15.2321	-90.7966	100.754	-1.28581
0.6907	-3.22216	-2.97805	-16.9045	-4.73841	-5.19284	13.062	-9.74224	-83.7886	102.894	-0.321453
0.6913	-4.43048	-5.75304	-34.6056	-11.1634	-10.6874	11.546	-9.12811	-70.9406	90.0976	0
0.6920	-6.8471	-2.97805	-53.831	-23.6921	-13.1267	7.27369	-9.43517	15.7373	23.5835	-0.321453
0.6927	-3.82632	-2.97805	-61.1401	-29.1533	-11.3035	5.43613	-8.52329	91.7188	-17.9496	-0.321453
0.6933	10.2706	-6.02378	-64.812	-23.3708	-10.3857	3.00135	-10.0493	94.731	0.960808	-0.321453
0.6940	27.2877	12.2506	-69.0727	-14.2152	-7.33033	4.2264	-6.99729	76.1659	8.90931	-0.321453
0.6947	37.0549	36.075	-55.0434	-10.2398	-6.41247	11.546	-3.02409	54.1583	-39.3058	-0.321453
0.6953	37.9611	29.036	-17.8051	-5.38091	-9.46782	16.4309	-3.94528	50.5314	-71.6675	-0.321453
0.6960	33.1279	10.7616	14.2372	6.22419	-9.16605	35.3425	-3.02409	72.7849	-33.4973	0
0.6967	18.1247	8.59572	37.7233	9.27604	-8.24819	86.6105	-1.49809	67.3137	-6.3326	-0.321453
0.6973	6.24294	12.589	70.7008	3.49358	-7.94643	124.158	0.0186098	33.1343	-30.1344	-0.321453
0.6980	13.2914	17.1238	93.5634	0.441716	-6.7268	123.852	3.37768	-24.2821	-41.4458	-0.321453
0.6987	24.2669	19.2896	99.9719	-3.53373	-8.54995	111.035	1.54461	-149.074	-29.523	-0.321453
0.6993	16.3122	14.4165	106.692	-6.90684	-10.9892	93.9454	-2.41928	-251.919	-31.0516	-0.321453
0.7000	-0.100693	8.32499	87.7785	-2.93139	-10.0839	71.665	-3.02409	-224.748	-34.4144	-0.321453
0.7007	11.479	2.50427	30.4142	2.89123	-8.24819	45.1122	-0.893271	-164.012	-17.9496	-0.321453
0.7013	45.6138	-2.09817	-23.3129	5.0195	-6.41247	16.4309	3.07062	-141.758	-4.49833	-0.321453
0.7020	63.3357	3.38414	-51.0598	3.49358	-7.02857	-13.4755	3.9918	-117.353	-6.3326	0
0.7027	67.2627	27.2085	-53.2075	1.6464	-7.63209	-42.4783	3.9918	-75.2438	-7.24973	-0.321453
0.7033	72.8008	51.642	-47.4225	7.14777	-7.94643	-64.1463	4.90368	-57.232	-3.8869	-0.321453
0.7040	76.1236	63.5542	-58.7153	13.2515	-10.3857	-79.0918	5.21075	-94.4851	3.10079	0
0.7047	77.634	89.4768	-64.5002	16.6246	-10.0839	-87.6365	11.3148	-95.3457	9.52073	0
0.7053	78.641	117.227	-35.1945	19.6363	-8.85172	-88.5553	15.2787	13.2783	0.960808	0
0.7060	76.4257	121.22	20.9574	15.3798	-10.6874	-85.508	7.64863	148.766	-13.9754	0
0.7067	71.5925	108.699	78.0099	9.59729	-10.3857	-80.0106	2.15874	211.039	-18.8668	0
0.7073	61.2211	49.8146	102.431	5.0195	-7.02857	-71.7722	4.90368	223.826	-13.0583	-0.321453
0.7080	40.7805	-16.7177	91.1386	0.120468	-4.58931	-58.3426	5.82487	255.608	16.8578	-0.321453
0.7087	19.4337	-10.9646	58.7846	-0.481872	-2.45183	-41.2533	4.59662	242.452	54.9844	-0.321453
0.7093	4.1284	10.1524	25.5299	-2.93139	-6.7268	-26.905	2.77286	90.4893	46.7739	-0.321453
0.7100	-2.31593	-12.4536	30.7259	-8.11152	-12.2088	-16.2318	-3.94528	-94.731	8.6036	0
0.7107	1.4097	-54.5524	45.3788	-7.79027	-8.85172	-3.41481	-10.3564	-135.98	-4.80404	0
0.7113	6.8471	-68.9012	10.2535	-7.18793	-7.02857	10.6272	-14.9344	-37.0686	-1.44121	-0.321453
0.7120	20.3399	-20.711	-28.1972	-5.05966	-7.94643	20.7032	-14.9344	81.3297	-0.524077	0
0.7127	43.1971	39.1207	-13.2326	-0.160624	-4.58931	23.4443	-7.90917	160.385	3.10079	0
0.7133	54.1726	38.5116	0.484964	0.441716	-5.80894	17.6406	-7.90917	200.958	7.07504	0
0.7140	55.9851	-11.2354	-8.03655	0.120468	-8.85172	9.4022	-10.9612	212.576	7.99217	-0.321453
0.7147	62.7315	-60.0347	-0.415683	-0.160624	-4.27498	3.61388	-8.83035	179.257	7.38075	-0.321453
0.7153	64.2419	-58.2073	4.4686	-4.45732	0.905289	-0.3522	-7.60211	117.968	6.1579	-0.321453
0.7160	56.5893	-23.7567	13.3019	-4.13607	1.52139	-4.9308	0.0186098	103.891	7.68646	0
0.7167	50.8498	-7.24207	31.6266	-1.40546	-3.97321	-18.6666	11.0077	100.571	15.635	0
0.7173	45.6138	74.5188	38.6586	-3.85498	-11.3035	-31.4836	11.6218	7.80716	23.2778	0
0.7180	31.9196	227.685	54.5238	-5.38091	-12.5232	-30.8711	8.87688	-106.042	6.76933	0
0.7187	2.01385	254.285	78.0099	-6.58559	-12.2088	-27.2113	7.95569	-137.763	-24.9373	-0.321453
0.7193	-22.4545	138.885	107.939	-6.58559	-11.3035	-22.0201	3.07062	-127.128	-28.3002	-1.28581
0.7200	-25.7773	43.114	130.802	-2.61014	-6.7268	-10.1219	-1.80515	-110.345	-13.9754	-0.964359
0.7207	-31.3154	-16.4469	107.939	-1.40546	-5.19284	-2.80228	-2.72634	-87.723	-6.94402	0
0.7213	-47.1242	-108.293	61.5211	-0.481872	-7.33033	-2.49602	-3.33116	-79.1781	17.4692	0
0.7220	-61.8253	-201.357	22.7933	3.77467	-7.94643	-1.8835	-3.33116	-123.747	60.1815	0
0.7227	-71.2904	-210.494	-12.6091	2.24874	-8.85172	-1.57724	-4.5501	-225.977	99.2689	-0.321453
0.7233	-63.3357	-147.075	-34.2939	-3.85498	-7.63209	-0.0459391	-3.94528	-254.993	108.091	-0.321453
0.7240	-42.2909	-38.9853	-39.767	-8.71386	-6.1107	2.08257	-2.11221	-165.856	46.7739	0
0.7247	-27.5898	38.1731	-39.4899	-11.7657	-8.85172	0.85753	-4.85716	-77.088	-36.8601	0
0.7253	-16.9164	-11.8445	-35.5063	-10.2398	-8.85172	-0.0459391	-5.16422	-40.4497	-65.5533	-0.642906
0.7260	-10.17	2.775	-26.673	-8.43277	-7.63209	0.551269	-3.33116	-44.0766	-59.4391	-0.964359
0.7267	-10.17	140.713	-1.62809	-5.98325	-7.33033	0.85753	-3.63822	-74.9364	-44.8086	0
0.7273	-8.65957	128.259	20.3338	1.04406	-3.67145	3.00135	-0.586209	-83.4813	-24.6316	0
0.7280	-2.31593	1.28597	7.20518	3.49358	-2.45183	4.2264	1.54461	-48.9945	-12.4468	-0.321453
0.7287	2.31593	-44.8061	-27.2619	-0.481872	-5.80894	1.47005	-1.49809	-13.2783	-7.86116	-0.321453
0.7293	2.92009	-37.4963	-52.8957	-1.08421	-6.1107	0.551269	-2.72634	-1.65979	-1.74692	0
0.7300	1.71177	-68.292	-58.4035	-0.803121	-5.80894	0.245008	-3.33116	-34.0564	4.32364	0
0.7307	3.22216	-86.6341	-37.9657	-1.40546	-4.58931	0.245008	-2.72634	-87.4156	7.38075	-0.321453
0.7313	7.14918	-4.80548	-15.0685	-0.803121	-2.13749	2.69509	0.632734	-105.735	7.07504	-0.321453
0.7320	11.1769	44.3323	-21.477	-3.53373	-4.58931	2.38883	-0.279147	-137.763	4.32364	0
0.7327	21.5482	-60.7115	-28.1972	-5.662	-6.1107	1.16379	-2.11221	-185.097	2.79508	-0.321453
0.7333	31.3154	-210.223	-15.0685	-5.98325	-5.80894	1.16379	-2.11221	-149.381	2.79508	-0.321453
0.7340	29.5029	-298.075	7.51694	-5.662	-5.80894	0.551269	-3.02409	-38.2981	2.79508	-0.321453
0.7347	26.3815	-309.717	42.0187	-2.93139	-3.05535	2.69509	-1.49809	66.0842	3.4065	-0.321453
0.7353	20.3399	-279.463	73.7492	-2.61014	-2.45183	2.69509	-0.279147	131.062	3.71221	0
0.7360	1.4097	-314.861	76.174	-4.13607	-4.27498	0.551269	-1.80515	171.327	4.01792	0
0.7367	-16.9164	-251.103	47.1801	-3.21248	-4.27498	0.85753	-2.11221	209.81	4.32364	-0.321453
0.7373	-28.1939	95.9066	19.7103	-2.61014	-4.89108	-0.0459391	-2.11221	222.596	4.32364	-0.642906
0.7380	-40.3777	295.436	29.4789	-1.08421	-4.27498	-0.3522	-0.893271	202.187	4.93506	-0.321453
0.7387	-50.7491	233.506	49.3278	1.6464	-1.83573	1.77631	2.4658	149.074	6.1579	-0.321453
0.7393	-57.7976	259.428	37.7233	0.120468	-3.36969	0.551269	1.24686	40.7571	5.24077	-0.321453
0.7400	-61.8253	221.932	27.0541	-2.61014	-6.1107	-1.57724	-1.20033	-56.3099	3.71221	-0.321453
0.7407	-59.0059	33.9091	26.4305	-2.32905	-5.80894	-1.8835	-1.80515	-94.731	3.71221	-0.321453
0.7413	-48.3325	-43.9262	10.2535	-2.32905	-5.4946	-2.49602	-2.72634	-107.272	3.71221	0
0.7420	-32.5237	8.59572	7.20518	-2.0078	-4.58931	-1.8835	-1.49809	-100.571	2.48937	-0.321453
0.7427	-21.2461	39.1207	13.9254	-2.0078	-3.67145	-1.57724	-0.279147	-106.964	1.26652	-0.321453
0.7433	-19.333	23.2152	7.8287	-4.13607	-5.19284	-3.10855	-2.41928	-149.074	0.393058	-0.321453
0.7440	-24.8711	39.3914	7.8287	-5.05966	-6.1107	-3.41481	-2.72634	-154.852	-0.218365	-0.321453
0.7447	-32.2216	100.78	4.78036	-5.05966	-6.41247	-4.02733	-2.11221	-83.7886	-0.524077	-0.321453
0.7453	-30.6106	126.093	1.42025	-3.53373	-5.4946	-3.41481	-0.586209	-16.9667	-0.218365	-0.321453
0.7460	-24.8711	135.23	14.5489	-1.08421	-3.36969	-1.27098	0.939795	-37.0686	1.57223	-0.321453
0.7467	-29.1002	148.97	15.1378	-2.61014	-4.89108	-0.3522	-1.80515	-94.731	2.79508	-0.321453
0.7473	-33.732	74.7896	-0.727446	-4.45732	-5.80894	0.551269	-4.85716	-72.7849	3.4065	-0.321453
0.7480	-30.9126	-32.6231	-11.0849	-3.53373	-4.27498	2.08257	-4.5501	14.2004	4.62935	-0.321453
0.7487	-31.3154	-86.6341	-15.0685	-3.53373	-3.97321	1.77631	-3.02409	63.3179	4.93506	-0.642906
0.7493	-33.43	-110.729	-19.3293	-2.0078	-2.45183	2.69509	-0.279147	41.6792	5.24077	-1.28581
0.7500	-30.3085	-96.9896	-27.8854	-1.08421	-1.2322	3.00135	0.0186098	-22.1305	5.24077	-1.28581
0.7507	-24.569	-95.1621	-34.6056	-2.61014	-2.45183	1.16379	-2.11221	-72.4775	5.85219	-0.642906
0.7513	-22.1524	-138.818	-40.7023	-4.73841	-3.97321	0.551269	-3.02409	-74.0143	4.62935	-0.321453
0.7520	-26.3815	-120.205	-49.5356	-6.90684	-5.19284	0.245008	-3.94528	-54.4657	-0.218365	-0.321453
0.7527	-31.3154	-38.3762	-46.1755	-5.662	-3.36969	1.47005	-2.11221	-29.7533	-2.35835	0
0.7533	-29.7043	-104.638	-29.4096	-3.21248	-0.917863	2.38883	1.24686	12.6636	0.393058	0
0.7540	-25.4752	-288.938	-6.82414	-4.13607	-2.45183	0.551269	0.0186098	59.0762	2.18365	-0.321453
0.7547	-22.4545	-268.498	13.6136	-4.73841	-3.67145	-0.3522	-2.11221	100.264	3.10079	0
0.7553	-23.0586	-117.159	20.9574	-5.38091	-4.58931	-0.65846	-3.02409	92.6409	2.48937	0
0.7560	-24.8711	-105.247	23.3822	-5.05966	-4.27498	-0.964721	-3.02409	23.9747	0.698769	-0.321453
0.7567	-25.7773	-8.18963	16.3849	-1.68655	-1.2322	0.85753	-0.586209	-22.7453	2.79508	0
0.7573	-28.1939	248.464	-19.9528	-1.08421	-1.2322	0.85753	-0.586209	-12.3562	6.1579	0
0.7580	-24.569	298.82	-57.1911	-2.61014	-3.36969	-0.65846	-3.02409	-10.2046	7.99217	0
0.7587	-12.0831	171.576	-75.1694	-2.93139	-3.36969	-0.65846	-3.63822	-57.5394	9.52073	0
0.7593	-1.00693	124.875	-93.4941	-2.93139	-3.97321	-0.3522	-3.94528	-82.5592	8.6036	0
0.7600	6.24294	156.009	-103.263	-1.68655	-3.36969	-0.0459391	-3.02409	-42.2939	7.07504	0
0.7607	14.1977	165.485	-89.5105	-0.160624	-1.53396	1.16379	-0.893271	8.97516	-3.58119	0
0.7613	20.9441	111.474	-60.2395	-2.32905	-1.83573	1.16379	-1.49809	55.6952	-23.7582	0
0.7620	22.1524	34.8567	-16.2809	-4.13607	-3.05535	0.551269	-3.63822	109.731	-27.0773	0
0.7627	20.642	-18.8835	25.2181	-4.45732	-3.67145	-0.3522	-4.85716	131.062	-13.0583	0
0.7633	23.0586	-41.7603	42.0187	-4.45732	-3.05535	-0.0459391	-3.94528	83.4813	-4.80404	-0.321453
0.7640	26.6835	-84.1975	38.9703	-2.61014	0.301763	2.38883	-1.80515	27.2943	-3.27548	-0.321453
0.7647	22.7565	-167.515	33.4625	-2.61014	1.21963	2.69509	-1.20033	4.42611	-2.35835	0
0.7653	11.1769	-150.391	34.9867	-3.85498	-1.2322	1.77631	-2.11221	-39.835	-2.35835	-0.321453
0.7660	-1.00693	2.16585	13.0247	-3.85498	-2.45183	1.77631	-1.49809	-76.1659	-2.35835	-0.321453
0.7667	-10.7741	92.5225	-37.654	-3.21248	-1.53396	1.77631	-1.20033	-22.7453	-2.96977	0
0.7673	-19.9371	64.4341	-61.7636	-0.803121	0.905289	2.38883	0.939795	83.1739	-3.58119	0
0.7680	-30.3085	24.1628	-50.4709	-0.481872	1.21963	3.00135	1.54461	186.634	-3.58119	0
0.7687	-32.8258	-24.6366	-23.6247	-3.53373	-1.83573	1.16379	-1.80515	255.3	-4.19262	0
0.7693	-19.6351	-81.4225	25.8417	-4.73841	-3.05535	-0.3522	-4.25234	280.32	-5.41546	-0.321453
0.7700	-12.6873	-51.8451	57.8839	-3.21248	-2.45183	-0.65846	-4.5501	303.496	-3.27548	-0.321453
0.7707	-20.2392	35.4658	36.8226	-0.803121	-1.53396	-0.65846	-3.63822	309.274	2.79508	-0.321453
0.7713	-29.7043	14.078	6.30453	2.24874	-0.6161	0.85753	-1.49809	265.013	6.76933	-0.321453
0.7720	-38.5653	-91.778	-4.9882	1.96765	-2.45183	0.85753	-1.80515	158.848	6.76933	0
0.7727	-41.9888	-116.821	7.51694	0.120468	-4.27498	-0.964721	-3.94528	11.4341	5.24077	0
0.7733	-37.0549	-61.9298	33.7743	-0.160624	-4.27498	-1.57724	-4.85716	-67.6211	4.93506	0
0.7740	-30.9126	11.0323	28.2665	-2.0078	-3.67145	-2.18976	-5.77835	-20.2863	7.38075	-0.321453
0.7747	-30.6106	27.8177	4.15683	-3.53373	-2.13749	-1.27098	-5.16422	20.2863	0.393058	-0.642906
0.7753	-34.0341	-13.6719	6.61629	-4.13607	-1.53396	-0.3522	-3.94528	-67.9284	-18.8668	-0.321453
0.7760	-34.0341	46.4305	20.6456	-5.05966	-2.75359	-0.65846	-4.5501	-159.463	-27.9944	0
0.7767	-27.2877	89.1383	23.3822	-5.98325	-3.67145	-0.65846	-4.5501	-89.8745	-20.3953	0
0.7773	-19.9371	-38.1055	23.0704	-5.05966	-3.05535	-0.3522	-3.02409	56.0025	-12.1411	-0.321453
0.7780	-10.472	-122.912	25.5299	-2.32905	-0.917863	1.16379	-0.586209	116.431	-8.77829	0
0.7787	-2.31593	-82.9792	28.89	-0.803121	-0.0125735	2.69509	0.0186098	66.0842	-6.94402	-0.321453
0.7793	-13.5935	-74.9926	34.6749	-1.40546	-1.2322	0.85753	-2.41928	-45.9208	-6.3326	-1.28581
0.7800	-35.2424	-145.18	35.8873	-1.40546	-1.53396	-0.0459391	-3.94528	-170.159	-6.3326	-1.28581
0.7807	-51.1519	-230.663	25.5299	-1.08421	-1.53396	0.551269	-3.63822	-264.152	-6.02689	-0.321453
0.7813	-61.2211	-216.924	8.72935	-0.481872	-2.13749	-0.0459391	-3.63822	-317.204	-6.02689	0
0.7820	-62.4294	25.9902	-4.9882	1.96765	-1.53396	0.551269	-2.41928	-352.92	-6.3326	-0.321453
0.7827	-55.683	274.116	-12.6091	3.49358	-0.917863	1.77631	-1.20033	-351.384	-5.41546	0
0.7833	-47.1242	192.016	-9.56072	3.77467	-1.53396	0.85753	-1.80515	-276.939	-4.49833	0
0.7840	-38.8674	-13.4012	3.25619	2.24874	-2.75359	-0.65846	-3.63822	-178.704	-4.49833	-0.321453
0.7847	-34.0341	-24.6366	10.2535	0.722809	-3.05535	-0.964721	-4.5501	-120.98	-4.80404	-0.321453
0.7853	-29.1002	112.692	4.4686	1.04406	-0.917863	0.85753	-3.94528	-101.493	-4.19262	0
0.7860	-23.6628	181.322	-3.46403	1.36531	0.603526	2.08257	-2.72634	-95.3457	-3.8869	0
0.7867	-23.6628	84.6036	-9.87248	0.722809	-0.0125735	0.551269	-4.25234	-74.9364	-4.49833	-0.321453
0.7873	-23.9648	4.3317	-12.0202	-0.481872	-1.83573	-0.964721	-6.38316	-35.5318	-5.41546	-0.321453
0.7880	-17.8226	122.709	-9.56072	-0.481872	-2.45183	-0.65846	-6.0761	-9.03663	-5.10975	0
0.7887	-12.0831	273.506	-7.72478	0.441716	-1.2322	1.47005	-4.25234	-5.96295	-4.49833	-0.321453
0.7893	-9.86788	226.805	-6.82414	1.36531	0.301763	2.38883	-2.72634	-11.1267	-4.19262	-0.321453
0.7900	-5.33671	111.474	-10.8078	-1.40546	-0.0125735	1.47005	-3.63822	-24.8968	-3.8869	-0.321453
0.7907	2.01385	66.5999	-22.6894	-3.53373	-0.6161	-0.0459391	-4.5501	-52.9289	-4.49833	-0.321453
0.7913	3.22216	11.0323	-36.7187	-2.93139	-0.917863	-0.0459391	-3.63822	-79.4855	-4.80404	0
0.7920	0.503463	-71.3377	-44.6513	-2.0078	-0.314337	1.77631	-2.41928	-64.5474	-4.19262	0
0.7927	4.43048	-101.592	-39.767	-1.08421	1.52139	3.61388	0.632734	-16.0446	-2.96977	0
0.7933	13.8956	-100.035	-29.7214	-1.40546	1.82315	3.30761	1.54461	15.1225	-2.66406	0
0.7940	22.7565	-122.641	-18.4286	-3.85498	0.301763	1.77631	-1.80515	28.8312	-3.58119	0
0.7947	33.1279	-137.87	2.04378	-4.73841	-1.2322	1.47005	-3.94528	67.0063	-4.80404	0
0.7953	41.0826	-165.688	28.2665	-3.21248	-0.6161	2.38883	-3.94528	150.303	-4.80404	-0.321453
0.7960	35.2424	-91.1688	61.5211	-1.08421	1.52139	3.30761	-2.11221	253.149	-3.8869	0
0.7967	15.406	253.946	85.3537	1.6464	3.34454	4.51734	1.24686	325.134	-2.66406	0
0.7973	-9.5658	464.237	57.2604	1.04406	1.82315	3.61388	0.939795	334.294	-2.96977	-0.321453
0.7980	-31.6175	215.502	-0.103921	-0.481872	-0.314337	2.08257	-1.20033	283.947	-3.58119	-0.321453
0.7987	-31.9196	-29.239	-18.1169	-0.160624	-0.6161	3.00135	-1.20033	218.969	-3.8869	-0.321453
0.7993	1.4097	29.036	9.66464	0.441716	-0.314337	3.00135	-2.11221	186.019	-4.19262	-0.321453
0.8000	35.2424	109.917	38.035	1.96765	1.52139	3.30761	-0.893271	142.066	-4.19262	-0.321453
0.8007	28.8988	88.2585	26.1188	1.6464	2.43925	4.8236	1.24686	11.1267	-4.19262	-0.321453
0.8013	-16.9164	67.2091	-23.6247	-1.40546	-0.6161	3.30761	0.0186098	-153.377	-4.80404	0
0.8020	-59.61	50.6945	-62.3525	-2.61014	-1.2322	2.69509	-0.586209	-254.378	-4.80404	0
0.8027	-67.2627	64.7725	-66.9597	-1.68655	0.603526	3.92014	0.632734	-265.689	-4.49833	0
0.8033	-51.756	110.526	-44.0624	-0.481872	2.43925	4.51734	1.54461	-190.261	-4.49833	-0.321453
0.8040	-30.6106	94.9591	-8.34831	-0.160624	3.04278	4.51734	1.54461	-111.821	-4.80404	-0.321453
0.8047	-16.9164	35.1274	5.09212	-2.0078	1.52139	3.00135	0.0186098	-72.1701	-6.02689	0
0.8053	-16.6143	11.9799	4.78036	-2.61014	-0.0125735	2.69509	-1.20033	-34.3638	-7.24973	-0.321453
0.8060	-32.2216	23.2152	9.9764	-1.68655	0.905289	3.30761	-0.586209	-0.737684	-7.24973	-0.642906
0.8067	-57.4955	29.6451	-5.92349	-0.803121	1.52139	3.00135	0.325672	32.827	-6.63831	0
0.8073	-60.5163	9.54328	-35.5063	-0.803121	2.12492	4.2264	0.632734	33.4417	-6.94402	0
0.8080	-36.7528	-24.0274	-56.8793	-2.32905	1.82315	4.2264	0.0186098	-29.7533	-7.86116	-0.321453
0.8087	-16.3122	-38.7146	-77.6289	-3.85498	0.301763	3.30761	-0.893271	-99.0341	-7.86116	-0.321453
0.8093	-16.9164	-74.3835	-89.8223	-3.21248	0.603526	3.92014	0.632734	-139.914	-8.16687	-0.964359
0.8100	-30.9126	-116.55	-85.2497	-2.0078	1.52139	4.51734	2.15874	-120.673	-7.86116	-1.28581
0.8107	-37.357	-54.5524	-60.5512	-2.0078	0.905289	3.92014	2.4658	-15.1225	-7.86116	-0.321453
0.8113	-29.4023	0.94756	-14.1332	-2.32905	-0.0125735	3.61388	1.85168	100.264	-8.47258	-0.321453
0.8120	-26.3815	-42.9786	33.4625	-1.68655	0.905289	4.2264	1.54461	152.455	-7.55544	-0.321453
0.8127	-32.2216	-33.503	56.9486	-0.803121	2.43925	3.92014	2.4658	134.75	-7.24973	0
0.8133	-35.8466	-0.270731	49.3278	-2.0078	1.82315	3.00135	1.54461	75.2438	-7.24973	-0.321453
0.8140	-41.9888	-88.1231	37.1344	-3.85498	0.905289	2.69509	0.939795	22.1305	-6.94402	-0.321453
0.8147	-48.6345	-202.575	40.1827	-2.32905	2.12492	4.8236	3.68474	-4.42611	-6.3326	0
0.8153	-41.9888	-196.145	42.9193	-1.08421	2.43925	6.35491	5.82487	-19.6716	-5.72117	0
0.8160	-25.4752	-104.299	39.871	-1.68655	2.12492	6.04865	6.12263	-41.0644	-5.41546	0
0.8167	-14.1977	-43.5878	36.5109	-0.803121	2.43925	6.04865	7.35087	-65.4695	-6.02689	0
0.8173	-14.1977	-47.5811	26.4305	-0.481872	1.21963	4.8236	7.35087	-56.0025	-6.3326	0
0.8180	-17.5205	-20.1018	15.4496	-0.160624	0.603526	3.61388	6.42969	-15.7373	-6.02689	-0.321453
0.8187	-16.0101	137.667	5.68101	2.89123	1.82315	3.92014	6.42969	1.65979	-5.10975	-0.321453
0.8193	-13.5935	223.76	-0.415683	3.77467	0.905289	3.61388	3.9918	0.737684	-5.41546	-0.321453
0.8200	-13.8956	82.167	-6.82414	2.56999	-0.0125735	2.38883	0.632734	5.65558	-6.3326	0
0.8207	-13.2914	-52.725	-40.7023	1.36531	-0.6161	0.85753	-1.49809	16.0446	-6.3326	0
0.8213	-8.05541	-56.3798	-91.0347	1.04406	-0.6161	0.551269	-3.63822	38.6055	-7.24973	-0.321453
0.8220	2.61801	-13.4012	-121.553	2.24874	0.603526	2.38883	-2.11221	52.3141	-8.16687	-0.321453
0.8227	12.3852	59.2225	-134.681	2.89123	0.603526	3.30761	0.632734	45.6135	-7.86116	0
0.8233	20.0378	118.445	-130.421	1.36531	-0.917863	1.77631	-0.586209	50.5314	-7.86116	0
0.8240	31.0133	86.7018	-99.9026	-0.160624	-2.45183	1.16379	-1.80515	71.8627	-8.16687	0
0.8247	40.7805	3.38414	-57.1911	-0.160624	-2.45183	1.77631	-0.586209	105.427	-7.55544	-0.321453
0.8253	49.6415	-48.4609	-15.9692	1.6464	-0.0125735	3.61388	2.15874	178.397	-6.3326	-0.321453
0.8260	57.7976	-114.722	37.7233	2.89123	0.603526	4.2264	3.37768	299.5	-5.72117	-0.321453
0.8267	58.5024	-182.744	109.463	2.56999	0.301763	3.61388	1.85168	425.275	-6.3326	-0.321453
0.8273	44.4055	-91.778	142.094	1.36531	-0.0125735	2.38883	-1.80515	541.214	-6.94402	-0.321453
0.8280	21.8503	11.6415	115.56	-0.803121	-1.53396	0.551269	-6.38316	631.581	-7.24973	-0.964359
0.8287	6.24294	-44.8061	99.383	-0.160624	-0.917863	1.16379	-6.69023	548.837	-5.41546	-0.964359
0.8293	-4.1284	-51.5067	115.248	2.24874	1.21963	4.2264	-2.72634	242.76	-2.96977	0
0.8300	-17.8226	35.1274	109.463	1.6464	0.301763	4.8236	0.0186098	-82.8665	-2.96977	0
0.8307	-32.8258	35.1274	76.4857	1.04406	-0.917863	4.51734	2.4658	-267.165	-3.58119	-0.321453
0.8313	-43.4992	-53.3341	55.4245	0.120468	-2.13749	4.2264	5.51781	-325.196	-3.58119	0
0.8320	-41.0826	-123.86	43.2311	-0.481872	-2.13749	3.92014	6.73675	-358.453	-3.8869	0
0.8327	-27.8919	-160.747	22.4815	1.96765	-0.6161	5.12987	8.87688	-410.952	-3.27548	-0.321453
0.8333	-21.8503	-97.9371	-5.61173	3.77467	-0.0125735	5.12987	11.6218	-424.046	-2.96977	-0.321453
0.8340	-19.9371	129.477	-28.1972	1.6464	-1.2322	3.00135	9.4817	-318.741	-3.58119	-0.321453
0.8347	-5.03463	280.207	-36.1298	-0.481872	-2.75359	0.85753	5.82487	-109.731	-4.49833	0
0.8353	25.1732	193.505	-47.1108	-0.803121	-3.67145	0.551269	2.4658	68.4817	-4.49833	0
0.8360	55.683	71.1347	-63.5996	0.441716	-1.53396	1.77631	-1.80515	155.16	-4.49833	0
0.8367	76.4257	58.6134	-67.8603	2.24874	-0.314337	1.77631	-6.38316	169.237	-4.80404	-0.321453
0.8373	87.4012	93.1316	-74.5805	1.96765	-1.53396	0.551269	-9.43517	151.533	-5.10975	0
0.8380	88.0054	110.526	-91.6582	0.722809	-3.05535	0.85753	-9.43517	126.513	-4.19262	0
0.8387	80.1513	124.875	-80.989	-0.803121	-4.58931	1.77631	-7.90917	30.368	-2.96977	0
0.8393	79.5472	125.146	-36.1298	0.441716	-3.97321	3.61388	-4.85716	-117.661	-2.96977	-0.964359
0.8400	83.7763	77.2938	4.4686	3.77467	-0.6161	5.74239	-0.279147	-222.965	-1.1355	-1.28581
0.8407	56.8913	13.1982	48.4271	3.77467	0.301763	6.04865	1.24686	-273.619	0.960808	-0.642906
0.8413	4.43048	-29.8481	91.7621	0.722809	-1.2322	4.2264	0.632734	-251.304	0.960808	0.321453
0.8420	-28.7981	-107.074	89.9262	-0.481872	-2.75359	2.69509	1.54461	-147.537	0.0873462	0
0.8427	-34.6383	-187.346	69.4538	-0.803121	-2.45183	2.38883	1.85168	-34.0564	-0.218365	-0.642906
0.8433	-37.659	-173.607	73.7492	1.6464	-0.314337	4.51734	1.85168	22.7453	0.393058	-0.642906
0.8440	-39.7736	-152.828	77.6982	3.49358	-0.0125735	5.43613	3.37768	-11.1267	0.698769	-0.321453
0.8447	-43.4992	-186.128	47.4918	-0.481872	-1.83573	4.51734	1.85168	-89.5672	0.698769	-0.321453
0.8453	-54.4747	-167.177	19.4332	-5.38091	-3.36969	3.00135	-1.80515	-130.447	-0.829789	-0.321453
0.8460	-26.3815	-131.779	45.3788	-5.662	-3.67145	2.08257	-4.25234	-122.517	-2.35835	0
0.8467	30.7113	-178.141	76.7975	-4.13607	-2.75359	2.08257	-4.25234	-90.4893	-2.66406	-0.321453
0.8473	23.6628	-202.575	56.6369	-2.32905	-0.6161	3.30761	-5.16422	-47.1503	-3.27548	-0.321453
0.8480	-44.4055	-90.8981	10.2535	-1.40546	-0.917863	2.69509	-6.38316	31.5975	-3.8869	-0.321453
0.8487	-98.9809	183.15	-34.6056	-1.68655	-3.36969	0.85753	-5.77835	144.217	-4.19262	-0.321453
0.8493	-116.401	427.62	-61.1401	-2.0078	-4.89108	-0.65846	-4.5501	228.436	-4.49833	-0.321453
0.8500	-99.585	374.219	-59.9277	0.120468	-3.05535	0.245008	-1.80515	273.558	-3.58119	-0.321453
0.8507	-63.9398	189.241	-49.2585	3.17233	-0.314337	2.08257	1.85168	302.881	-1.74692	-0.321453
0.8513	-33.1279	126.702	-34.2939	3.17233	-0.917863	1.47005	0.939795	315.114	-1.44121	0
0.8520	-9.86788	171.576	-4.67644	1.6464	-2.45183	-0.3522	-3.33116	306.262	-1.74692	0
0.8527	-0.100693	204.538	49.6395	1.96765	-3.05535	-1.27098	-6.69023	297.102	-1.44121	0
0.8533	-18.1247	108.36	103.644	3.77467	-2.45183	-0.0459391	-6.69023	319.663	0.0873462	0
0.8540	-52.3602	-15.2286	89.9262	6.82653	-0.314337	3.61388	-2.72634	280.627	3.10079	0
0.8547	-80.3527	-30.4573	-5.92349	6.82653	-0.314337	5.43613	-2.72634	109.423	4.32364	0
0.8553	-84.9846	-33.2323	-102.05	4.41716	-1.2322	4.51734	-6.38316	-123.439	2.79508	-0.321453
0.8560	-66.3564	-76.5493	-124.324	2.56999	-1.2322	3.30761	-7.30435	-366.383	1.87794	-0.321453
0.8567	-49.2387	-104.908	-104.787	1.04406	-1.83573	2.38883	-5.16422	-494.863	1.87794	-0.321453
0.8573	-32.8258	-123.251	-83.4138	2.56999	-0.0125735	4.8236	0.325672	-388.329	2.48937	0
0.8580	-16.6143	-123.521	-54.7316	4.41716	2.12492	7.88621	2.77286	-183.56	3.10079	-0.321453
0.8587	-16.3122	-74.7219	-31.8344	1.36531	-0.314337	6.35491	-3.33116	-53.851	2.48937	0
0.8593	-8.05541	-4.80548	-23.0011	-2.61014	-2.45183	3.92014	-12.1801	-4.73347	1.26652	0
0.8600	14.1977	16.5146	-16.9045	-2.93139	-2.13749	2.69509	-18.2841	-21.2084	0.0873462	0
0.8607	18.1247	6.15914	-3.46403	-1.08421	-0.917863	2.69509	-16.7581	-61.1663	0.960808	0
0.8613	22.4545	42.1664	1.42025	0.722809	0.301763	5.12987	-10.3564	-30.368	2.79508	0
0.8620	42.8951	46.1597	-15.0685	-0.803121	-1.2322	6.66117	-7.60211	3.504	2.48937	-0.321453
0.8627	50.2456	-56.1091	-23.9018	-2.93139	-3.05535	6.04865	-4.25234	-9.03663	1.57223	-0.321453
0.8633	59.1066	-172.997	11.7777	-1.68655	-1.83573	5.43613	1.85168	86.1861	2.18365	0
0.8640	83.7763	-196.754	80.7465	0.441716	0.301763	3.61388	2.77286	227.514	2.79508	-0.321453
0.8647	79.5472	-125.349	101.531	1.6464	2.43925	0.85753	-2.11221	157.926	2.18365	-0.321453
0.8653	59.4087	-199.868	30.7259	0.441716	1.82315	-2.49602	-9.43517	-45.9208	1.57223	-0.321453
0.8660	72.1966	-456.792	-62.6643	-2.32905	-0.917863	-4.62454	-14.6273	-132.599	0.698769	0
0.8667	102.404	-399.397	-71.5322	-3.21248	-2.13749	-4.02733	-14.6273	-120.98	0.0873462	-0.321453
0.8673	111.87	30.8634	-2.56338	-2.93139	-1.53396	-3.72107	-13.1013	-24.8968	0.393058	0
0.8680	80.4534	272.288	47.4918	-0.481872	0.301763	-1.8835	-4.85716	200.65	2.18365	0
0.8687	9.06234	173.065	34.9867	1.04406	1.82315	-0.0459391	8.26276	369.395	3.71221	-0.321453
0.8693	-45.3117	-43.9262	-15.0685	-2.32905	-0.314337	-4.62454	14.3668	410.583	1.87794	-0.964359
0.8700	-52.9643	-183.691	-7.72478	-2.93139	-1.2322	-7.38088	21.3827	396.259	0.393058	-1.28581
0.8707	-72.4987	-96.7188	96.3346	0.722809	1.21963	-3.72107	37.5639	262.001	3.4065	-0.321453
0.8713	-126.47	138.005	161.943	3.77467	2.43925	1.47005	48.5437	34.3023	6.1579	0
0.8720	-166.445	225.858	85.0419	3.49358	2.74101	4.8236	45.7987	-145.754	7.07504	-0.321453
0.8727	-171.077	76.6847	-45.5866	-0.481872	1.21963	3.61388	31.4599	-319.663	6.1579	0
0.8733	-150.334	-83.2499	-127.061	-2.61014	-0.0125735	2.38883	18.3307	-527.198	5.54648	-0.321453
0.8740	-112.172	-117.43	-123.112	-0.803121	1.52139	4.2264	14.0597	-535.743	5.54648	0
0.8747	-79.7486	-36.278	-50.1591	-0.803121	2.12492	5.74239	9.4817	-323.659	5.85219	0.321453
0.8753	-74.9153	40.9481	-3.46403	-2.32905	0.905289	5.74239	3.37768	-160.077	5.24077	0
0.8760	-78.5403	-8.79877	1.73201	-2.61014	1.21963	6.35491	2.4658	-120.12	5.54648	-0.321453
0.8767	-68.1689	-88.1231	9.04111	-3.21248	1.52139	4.51734	-0.893271	-132.291	5.24077	0
