MR32 ASCII
Name	CORE15_fast
Frequency	1500
Date	07-09-2015 10:21:00
"Time,s"	"RT TIB.ANT.,uV"	"RT MED. GASTRO,uV"	"RT LAT. GASTRO,uV"	"RT BICEPS FEM.,uV"	"RT VMO,uV"	"RT VLO,uV"	"RT RECTUS FEM.,uV"	"RT SOLEUS,uV"	"RT SEMITEND.,uV"	"Channel 12,uV"
0.0000	14.3462	-0.792746	-103.259	-4.62481	181.376	-24.8997	293.286	-281.157	-2.19746	-10187.7
0.0007	-15.5343	75.1902	-156.647	-5.24979	138.051	-35.2785	319.215	-105.99	1.13105	-10000.5
0.0013	-43.9186	101.747	-88.2769	-0.049998	89.5213	-38.6258	272.221	-22.9663	2.0682	-9580.78
0.0020	-66.8021	26.3674	40.4757	5.74977	97.7544	-34.6765	115.054	158.929	0.226209	-9911.9
0.0027	-71.1147	-32.8472	177.506	5.44978	125.831	-23.6715	-88.1951	284.66	-1.61578	-9807.43
0.0033	-37.5377	-94.1816	217.485	-1.57494	84.3321	0.120405	-224.297	327.701	-2.19746	-9801.21
0.0040	4.57669	-92.6478	130.532	-12.2495	22.0759	18.1329	-255.126	352.392	-3.42545	-9817.07
0.0047	18.9229	-24.6096	49.6635	-12.5745	-20.3365	24.5384	-215.749	357.563	0.549365	-9817.38
0.0053	0.616093	47.7198	-12.2917	-3.72485	-92.9711	37.0605	-156.845	338.99	7.56185	-9800.9
0.0060	-35.9974	90.149	-35.7991	-3.39986	-191.856	38.5776	-84.2252	217.207	5.71986	-9809.92
0.0067	-73.8431	-30.7103	18.8307	-8.59966	-248.923	30.3419	26.2511	61.2806	1.74504	-9913.14
0.0073	-83.9207	43.7561	84.759	-4.02484	-234.269	28.5118	147.403	-84.0246	2.0682	-9575.49
0.0080	-34.7652	298.279	8.7325	4.82481	-176.288	13.2445	176.712	-220.099	0.840206	-10023.5
0.0087	24.7317	57.4913	-144.438	6.97472	-127.455	-19.0962	125.14	-248.793	-1.61578	-10166.2
0.0093	32.6529	-147.589	-151.763	6.34975	-92.6667	-38.3368	99.1926	-213.982	0.549365	-4854.59
0.0100	35.4253	-11.4776	-69.6944	2.69989	-24.6126	-29.7881	65.9317	-179.226	2.35904	108.819
0.0107	43.6546	35.2082	10.2638	1.17495	64.5029	-16.953	-15.8615	-194.463	1.74504	108.819
0.0113	13.7301	38.5688	64.6039	8.49966	111.496	-7.51324	-90.0191	-350.112	1.74504	-235.05
0.0120	-29.5725	39.4822	64.3142	9.72461	103.552	15.0747	-156.237	-422.736	-1.29262	97.3157
0.0127	-46.383	27.591	36.213	5.14979	73.9536	30.3419	-221.543	-271.703	-3.42545	-7.77282
0.0133	-54.9203	32.1579	-46.8078	5.74977	59.3136	14.4726	-260.007	-307.404	0.226209	-13.9911
0.0140	-78.4198	37.9656	-176.802	2.99988	46.7899	-0.481618	-249.01	-448.094	1.74504	1.24365
0.0147	-105.264	41.016	-214.629	-2.17491	39.7743	-0.79467	-157.453	-192.962	1.4542	-1.55456
0.0153	-105.264	39.1892	-198.778	-3.39986	95.3193	-5.97207	-31.723	281.88	2.97304	-0.310913
0.0160	-63.7656	14.1488	-235.695	-4.62481	153.299	-9.03034	71.7256	662.131	0.226209	0
0.0167	-26.536	-16.0617	-208.214	-5.54978	118.816	-12.0886	135.511	780.578	-6.17228	-0.310913
0.0173	-5.50083	-33.1402	-98.9545	-2.79989	17.4955	-31.3052	146.795	522.053	-8.01427	-0.310913
0.0180	33.8851	-59.094	-26.0319	-2.17491	-79.2443	-46.8615	125.444	130.847	-5.55828	-0.621826
0.0187	36.3055	-96.0084	-66.0111	-1.87493	-154.923	-31.9072	92.4689	-112.997	-2.52062	-0.310913
0.0193	-29.3084	-80.7567	-185.328	6.67473	-146.385	1.95055	42.1305	-142.302	4.49187	-0.310913
0.0200	-79.652	-25.8159	-164.262	16.1244	46.4855	23.9364	-50.9643	-46.4888	9.08069	0
0.0207	-76.2635	-51.7697	47.5114	13.9994	242.719	25.7666	-174.548	118.613	5.71986	0
0.0213	-40.5741	-129.269	250.47	4.82481	249.43	22.1063	-286.241	362.79	4.49187	-0.310913
0.0220	12.5419	-90.5109	272.735	-3.39986	182.289	20.5651	-346.057	557.476	6.04302	-0.621826
0.0227	28.6923	2.56781	122.296	-9.19963	128.585	13.5576	-331.715	520.83	5.10587	-0.310913
0.0233	-11.2657	4.39457	42.9175	-11.3495	69.0688	13.8465	-312.796	154.647	2.0682	-0.310913
0.0240	-34.7652	-29.7969	55.1265	-13.1745	55.6464	35.8324	-319.823	-215.817	-4.36261	-0.310913
0.0247	-14.6542	-10.254	-53.5124	-17.1493	107.524	56.8791	-273.437	-218.875	-12.5708	0
0.0253	21.0792	-13.6145	-115.468	-17.7493	123.396	37.6625	-182.488	-17.4611	-15.3176	0
0.0260	49.7715	-68.8482	17.2995	-13.4745	100.813	-10.5474	-114.732	71.9575	-13.7988	-0.310913
0.0267	67.1541	-21.8522	49.0427	-7.67469	102.639	-45.0313	-59.7981	-297.339	-11.0519	-0.310913
0.0273	79.344	22.6967	-32.4468	-5.24979	62.0532	-71.5926	44.8665	-951.629	-7.40027	-0.310913
0.0280	72.963	-30.0899	12.4159	-12.2495	-30.715	-88.979	228.284	-1091.37	-7.69111	0
0.0287	53.4241	-49.0124	111.908	-10.4246	-18.2058	-71.9056	431.23	-751.439	-8.91911	0
0.0293	31.4647	-38.0346	186.983	7.87468	82.2013	-30.7032	574.037	-414.84	-4.94429	0
0.0300	13.114	-50.5462	268.473	16.7243	54.1244	-9.03034	585.946	-49.2136	-1.61578	0
0.0307	14.9623	-52.6831	269.052	12.1495	-70.9966	-15.7489	424.506	125.342	0.549365	0
0.0313	23.8076	-7.51385	154.619	10.9246	-113.119	-2.62482	224.922	29.5282	5.71986	0
0.0320	27.1521	3.77416	76.1921	15.5244	-87.1731	47.1263	141.609	37.7582	13.9603	0
0.0327	15.5784	-50.2359	178.126	12.1495	-92.0579	125.847	132.15	193.685	15.8023	0
0.0333	-10.0775	-31.9339	379.553	-0.349986	-146.385	197.873	149.853	234.613	7.56185	0.310913
0.0340	-11.8818	36.742	364.571	-6.14975	-217.788	207.337	200.817	140.022	1.4542	0.310913
0.0347	11.9258	19.9565	57.8994	-0.974961	-267.23	176.826	221.561	180.561	3.87787	0
0.0353	40.8822	-22.1624	-146.88	5.74977	-251.663	182.317	192.27	334.096	6.94786	0
0.0360	64.3817	-22.1624	-125.235	8.19967	-181.782	233.585	165.106	288.942	6.04302	-0.310913
0.0367	66.23	-27.6599	-203.041	7.87468	-175.071	272.042	150.461	10.2876	5.71986	0
0.0373	46.075	-52.3729	-392.259	4.52482	-239.458	308.043	129.396	-155.092	5.10587	0
0.0380	0	-51.4595	-323.599	0.874965	-227.862	361.454	86.9791	-124.897	2.97304	0
0.0387	-47.9232	-21.249	42.9175	0.24999	-140.587	351.076	-3.64797	-191.738	2.35904	0
0.0393	-53.3801	-31.3135	250.759	1.17495	-79.8531	282.71	-130.308	-201.47	0.840206	0
0.0400	-32.0368	-87.7707	228.493	0.24999	-69.4747	116.696	-200.495	80.7993	-3.42545	0
0.0407	-18.6148	-82.8936	244.055	-3.09988	-93.8843	-293.763	-182.792	341.437	-5.55828	0
0.0413	-27.1521	-41.6881	103.962	-7.3747	-118.613	-566.287	-169.058	356.34	-5.55828	0
0.0420	-47.9232	-34.9842	-183.796	-8.59966	-109.148	-381.658	-190.428	318.192	-6.49544	0
0.0427	-50.6516	-9.65082	-239.047	-6.14975	-28.5842	-158.573	-209.955	314.578	-2.19746	0
0.0433	-35.6894	-8.11703	-137.113	-2.79989	72.1272	-104.559	-217.573	260.526	6.33386	0.310913
0.0440	-7.3051	-56.0264	-86.4559	-1.87493	89.5213	-79.8282	-203.857	69.1771	7.2387	0
0.0447	17.6907	-74.3458	-110.584	-2.4999	30.628	-71.2795	-162.657	-221.044	2.35904	0
0.0453	1.84828	-59.387	-132.229	0.874965	-33.7734	-97.8407	-115.036	-299.452	2.6822	0.310913
0.0460	-6.99706	-70.382	34.1023	1.47494	-84.4335	-122.259	-52.7883	17.906	3.29619	0
0.0467	41.4983	-84.7204	241.903	-2.4999	-148.212	-117.972	49.7483	451.597	2.0682	-0.621826
0.0473	83.6126	-63.6609	262.058	-0.649974	-194.596	-103.933	172.134	562.981	3.87787	-0.621826
0.0480	67.7702	-63.0577	163.186	-1.27495	-182.695	-80.4302	282.914	430.522	3.87787	0
0.0487	9.76947	-115.551	5.7113	-6.14975	-146.69	-42.2861	339.369	405.831	2.35904	0.310913
0.0493	-37.2296	-150.639	-162.441	-1.87493	-102.741	-9.63236	293.59	459.827	6.04302	-0.310913
0.0500	-29.3084	-117.688	-222.575	6.34975	-58.4874	4.69578	187.692	356.673	10.3087	-0.932738
0.0507	30.2326	-50.5462	-158.468	7.5747	-55.1391	11.4144	124.818	143.971	10.9227	-0.310913
0.0513	92.766	-1.10295	-82.4828	2.07492	-60.3138	11.4144	101.625	2.05752	8.46669	0.310913
0.0520	95.5384	-22.1624	-10.7604	-3.09988	-25.5257	-5.68309	58.6	-40.0382	2.97304	0.310913
0.0527	44.5787	-42.6015	90.222	0.24999	-5.08775	-38.6258	11.3016	-63.2269	-1.90662	0
0.0533	-2.42037	-49.6328	191.867	3.59986	-16.3794	-63.0438	1.53787	-208.532	-3.74861	-0.310913
0.0540	-14.0381	-70.382	252.58	0.549978	-18.5101	-59.0705	17.3994	-361.4	-4.36261	-0.621826
0.0547	5.80888	-44.1353	158.302	0.549978	-22.4818	-47.7765	-35.9969	-257.023	-0.387787	-0.932738
0.0553	15.5784	-8.73744	2.93842	1.17495	-41.3978	-34.3635	-137.926	136.352	2.35904	-0.621826
0.0560	-2.72841	12.322	109.467	-0.349986	-67.0395	-11.4625	-174.244	597.737	2.0682	0
0.0567	-6.38096	0.43084	404.261	-0.049998	-76.7946	5.32188	-159.295	659.406	1.74504	0
0.0573	17.9987	-92.6478	423.795	1.47494	-41.3978	12.0164	-146.777	323.086	2.0682	0
0.0580	38.4618	-157.653	192.487	4.52482	10.7843	8.66913	-156.541	246.513	2.35904	0
0.0587	54.6562	-64.8845	164.386	8.19967	32.4544	-3.85295	-168.45	287.385	0.549365	0
0.0593	87.6172	-47.4958	183.3	9.39962	26.9607	-14.5208	-156.237	-43.0966	-2.52062	0.310913
0.0600	121.15	-126.529	42.007	12.1495	12.9296	-22.7565	-116.574	-412.393	-2.19746	0
0.0607	132.46	-117.378	-39.7722	16.1244	3.46431	-27.6449	-33.8689	-578.718	2.6822	-0.310913
0.0613	93.9982	-171.388	-5.29744	15.5244	9.87111	-25.5017	59.512	-679.092	8.46669	0
0.0620	31.1567	-216.247	122.876	11.8495	16.5823	-27.6449	100.713	-486.853	9.98552	0
0.0627	35.1173	-147.899	163.476	10.3246	21.1627	-36.1936	97.0468	-120.949	9.37153	0
0.0633	68.9584	-142.401	38.034	10.3246	40.3831	-35.2785	84.5471	-244.511	7.85269	0
0.0640	71.1147	-202.822	-23.9213	8.49966	61.4444	-18.8072	36.6228	-633.326	3.87787	-0.310913
0.0647	74.7673	-213.817	-12.2917	-1.57494	103.552	0.120405	-29.5951	-718.741	1.4542	0
0.0653	72.3469	-195.188	-75.1574	-19.8992	201.829	13.8465	-62.248	-564.371	-1.61578	0.310913
0.0660	43.0385	-212.283	-128.877	-22.6241	279.957	10.1862	-71.7077	-329.648	-4.36261	0.310913
0.0667	27.7682	-166.511	-145.059	-7.97468	310.773	-10.2585	-61.944	-120.337	-1.90662	0
0.0673	38.7698	-77.3961	-297.319	-0.049998	357.157	-15.7489	-29.8991	-2.83604	2.6822	0
0.0680	37.5377	-90.5109	-433.148	5.14979	354.722	-4.45497	-4.25597	75.016	4.49187	-0.310913
0.0687	26.844	-157.963	-394.08	12.4495	267.433	6.83898	7.9397	25.858	7.2387	0
0.0693	34.5012	-167.735	-389.196	11.2495	151.169	6.52593	49.7483	-133.127	9.08069	0.310913
0.0700	37.5377	-153.086	-391.638	3.59986	35.4983	-5.05699	126.964	-152.367	3.29619	0
0.0707	25.3478	-204.959	-284.53	-2.4999	-20.6409	-5.97207	165.41	-55.6086	-1.29262	0
0.0713	21.0792	-233.653	-253.408	-2.4999	43.1372	0.433456	123.298	-15.626	4.20103	0
0.0720	22.8835	-161.014	-308.948	1.77493	145.066	2.86563	58.6	-31.1964	10.9227	0
0.0727	13.422	-63.3507	-250.966	3.29987	159.402	7.75405	13.4295	34.6997	9.98552	0
0.0733	-16.7665	-45.0486	-155.447	-0.649974	130.107	16.6158	-26.8412	210.812	5.42902	0
0.0740	-60.7292	-89.5975	-133.471	-6.77473	97.7544	26.0555	-73.5317	282.492	3.58703	0
0.0747	-97.6507	-79.5331	-48.9185	-4.02484	7.11706	23.6234	-118.398	178.17	2.0682	0
0.0753	-105.88	-85.944	59.4306	8.19967	-129.904	15.9897	-131.22	253.853	-0.678628	0
0.0760	-78.7279	-144.538	122.586	11.2495	-253.808	19.65	-109.85	799.762	-1.29262	0
0.0767	-21.9593	-166.201	208.628	4.82481	-305.99	20.8782	-81.4714	1218.49	-0.0646312	0.310913
0.0773	25.3478	-172.009	279.44	4.22483	-264.172	14.4726	-54.9163	910.868	3.29619	0.310913
0.0780	39.694	-213.817	306.92	7.27471	-165.301	13.8465	-18.6154	389.038	6.94786	0
0.0787	55.8444	-219.918	203.165	7.27471	-49.6455	8.35608	24.4271	147.029	5.42902	0
0.0793	57.0766	-153.689	13.6161	5.44978	37.0348	-3.22684	73.8535	-108.437	2.6822	0
0.0800	14.3462	-116.154	-7.73923	5.14979	30.0192	-10.2585	138.551	-565.595	2.0682	0
0.0807	-32.6529	-124.702	29.5084	6.67473	-46.2826	-14.8338	169.076	-676.645	0.549365	0.310913
0.0813	-44.2267	-72.812	-109.342	8.49966	-104.872	-16.0379	158.097	-351.335	-3.13461	0
0.0820	-47.3071	-49.6328	-308.948	8.79965	-121.048	-9.03034	140.089	-150.199	-5.55828	0.310913
0.0827	-56.1525	-94.7848	-385.844	4.22483	-124.106	0.433456	94.0068	-1.00095	-8.30511	0
0.0833	-32.6529	-60.0074	-246.993	-0.049998	-135.702	7.75405	48.2283	379.25	-8.62827	0
0.0840	-15.5343	-64.8845	-116.047	1.77493	-153.705	17.8199	30.2209	659.684	-1.29262	0
0.0847	-9.76947	-146.365	-316.274	3.92484	-170.186	24.5384	-5.18584	662.465	6.04302	0
0.0853	35.1173	-156.136	-512.196	5.74977	-168.969	6.23696	-54.3083	685.654	10.5995	-0.310913
0.0860	53.116	-116.465	-261.313	9.39962	-146.385	-18.8072	-95.5089	581.276	13.6695	-0.310913
0.0867	41.8063	-101.816	247.407	7.5747	-118.308	-16.0379	-126.642	215.984	10.5995	0
0.0873	59.541	-108.52	547.375	4.52482	-91.4491	5.9239	-125.122	-39.1484	7.85269	0
0.0880	58.0007	-56.9571	538.849	2.99988	-69.4747	22.7083	-93.6849	3.28091	6.6247	0
0.0887	10.0775	-55.1131	435.673	-0.049998	-52.9938	27.5967	-55.5243	22.1878	3.29619	-0.310913
0.0893	-26.844	-121.652	300.795	-1.57494	-26.1345	28.8008	-15.8615	-55.3305	0.840206	0
0.0900	11.6178	-114.621	239.171	-0.649974	12.9296	26.3686	18.0074	96.6477	-1.00178	0
0.0907	105.308	-109.433	361.219	2.3999	48.9352	17.5309	46.7083	229.719	-2.81146	0
0.0913	160.228	-145.452	482.688	2.69989	73.9536	8.98218	79.6653	32.8647	-1.90662	0
0.0920	138.885	-117.688	442.709	1.47494	79.4472	-0.168566	100.409	-297.005	1.4542	-0.310913
0.0927	88.1893	-60.0074	327.655	7.27471	79.7516	-10.5474	85.1551	-536.289	6.04302	0
0.0933	43.3465	-81.3598	122.586	12.1495	70.3009	-17.868	42.1305	-459.66	8.17585	0.621826
0.0940	-6.68901	-146.365	-111.163	8.19967	45.5724	-24.5866	3.96985	-155.426	2.6822	0
0.0947	-56.7686	-193.051	-133.76	4.52482	132.557	-23.3826	-20.1354	-50.715	-5.26744	-0.621826
0.0953	-65.6139	-219.608	-192.653	3.29987	321.456	-14.5208	-31.723	-144.415	-7.69111	-0.310913
0.0960	-33.5771	-177.489	-406.578	-0.974961	365.405	-14.8338	-29.2911	-108.103	-6.17228	0.310913
0.0967	3.65255	-110.054	-359.274	-3.09988	187.479	-21.2394	-22.5674	-6.17255	-4.94429	0
0.0973	21.3872	-93.8714	-51.6914	1.17495	-34.6866	-20.9263	-17.9895	-32.1418	-3.13461	-0.310913
0.0980	1.23219	-46.2722	97.8785	2.69989	-119.222	-11.1735	-15.2535	49.3804	-1.29262	0
0.0987	-28.3843	-4.1533	-7.73923	0.549978	-106.712	-0.79467	-27.4492	329.203	-0.387787	0
0.0993	-31.7288	-74.3458	-99.9064	0.549978	-122.57	8.06711	-42.4166	558.088	-0.0646312	0
0.1000	-16.1504	-108.83	-90.7187	1.47494	-121.657	23.3103	-33.5649	218.43	-1.29262	-0.310913
0.1007	8.53729	-34.0536	-15.3543	3.29987	-37.7306	38.2646	-25.0172	-540.237	-1.00178	-0.310913
0.1013	26.844	-63.3507	82.6069	6.34975	72.736	37.0605	-30.2031	-475.231	1.13105	-0.310913
0.1020	29.6165	-132.027	88.6907	6.97472	117.294	26.9706	-23.8012	-50.437	0.549365	-0.932738
0.1027	13.114	-48.7022	98.1682	3.92484	78.2297	23.3103	-14.0375	-289.665	-1.61578	-1.24365
0.1033	-11.2657	-51.4595	173.243	-2.17491	43.4416	19.9631	-7.92182	-406.888	-2.52062	-0.932738
0.1040	1.23219	-160.703	119.523	-3.72485	26.0476	8.66913	8.8517	-319.916	-2.81146	-0.310913
0.1047	44.2707	-112.191	-235.984	2.3999	-25.5257	-8.11527	30.5249	-457.825	-2.52062	-0.621826
0.1053	39.0779	-81.67	-528.668	9.39962	-81.6795	-14.5208	41.5046	-495.695	-1.00178	-0.932738
0.1060	-17.0746	-96.0084	-335.808	11.5495	-111.278	-4.14192	6.41971	-487.131	-1.00178	-0.310913
0.1067	-44.5347	-0.18957	-127.677	8.49966	-121.961	-3.22684	-41.8086	-531.674	-2.81146	-0.621826
0.1073	-41.8063	75.7934	-211.898	4.22483	-120.135	-17.5791	-30.8111	-336.71	-0.678628	-0.932738
0.1080	-30.1886	2.86078	-290.614	-1.87493	-105.48	-13.9188	-23.1932	28.3048	3.29619	0
0.1087	0.924139	-100.593	-368.462	-7.3747	-60.6182	12.9314	-41.8086	89.9747	3.58703	0.310913
0.1093	3.38851	-12.391	-425.202	-7.3747	-15.4662	29.4269	-30.8111	-176.168	2.6822	0
0.1100	-46.9991	103.264	-258.581	-7.07472	-23.0906	22.1063	-18.2935	-288.497	-0.0646312	0
0.1107	-71.9949	56.8881	-54.1332	-6.77473	-45.3694	8.06711	-25.3212	-260.693	-2.52062	0
0.1113	-50.3436	18.4227	29.7981	-3.39986	-36.8174	0.746508	-42.4166	-419.066	-2.19746	0.310913
0.1120	-41.8063	54.7511	169.559	-0.049998	-22.1774	-2.31177	-57.0621	-550.914	-2.52062	0.310913
0.1127	-44.5347	32.4681	339.574	1.77493	-10.277	-4.76802	-45.1526	-347.387	-3.74861	0.310913
0.1133	-41.8063	-5.06668	387.789	2.3999	22.0759	-7.20019	-15.8615	1.16778	-4.36261	0
0.1140	-42.1144	73.6736	262.347	1.77493	59.618	-7.20019	5.50772	201.97	-4.65345	0
0.1147	-23.4995	122.807	120.765	1.77493	77.3165	-2.31177	3.36186	192.183	-4.65345	0
0.1153	22.2674	46.8065	26.1561	2.3999	74.5624	1.34853	-3.64797	34.0881	-3.74861	0
0.1160	48.5393	45.8931	-134.381	2.99988	59.9224	1.95055	10.6936	-76.9623	-2.19746	0
0.1167	12.2338	137.455	-282.709	2.07492	44.0504	2.86563	32.0449	-101.986	-1.00178	0
0.1173	-47.3071	93.5095	-355.342	-0.974961	23.9023	2.26361	49.4443	-77.574	-1.29262	0
0.1180	-68.9584	-4.75647	-329.393	-0.974961	10.1755	2.26361	46.7083	129.29	-1.00178	0
0.1187	-71.6868	28.5044	-238.426	0.24999	4.68189	2.57666	9.47757	467.446	-0.387787	0
0.1193	-92.1499	43.1529	-178.333	0.549978	-3.24689	3.49173	-19.2234	690.825	-1.61578	0
0.1200	-118.114	25.747	-62.9485	-0.649974	3.46431	8.35608	-19.2234	569.71	-2.81146	0
0.1207	-95.4944	76.1036	34.392	-2.79989	17.7999	13.8465	-20.1354	162.599	-5.55828	0
0.1213	-22.2674	150.88	-50.7395	-2.79989	25.4388	12.6425	-21.9594	-14.4026	-8.30511	0
0.1220	32.961	137.748	-146.59	-2.17491	40.6875	6.52593	-17.3815	102.487	-7.40027	0
0.1227	34.8092	62.3684	-91.0497	-4.62481	53.2112	2.57666	-12.8037	-26.0248	-6.49544	-0.310913
0.1233	-3.3445	60.2314	35.5922	-7.67469	53.5156	1.95055	-6.40183	-217.04	-7.40027	0
0.1240	-50.0355	72.1399	103.052	-9.19963	36.426	0.120405	1.84187	-211.257	-9.82395	0
0.1247	-81.4563	37.9656	111.908	-11.9495	49.2396	-5.37004	6.11572	-186.567	-11.6659	-0.310913
0.1253	-94.3062	31.2445	192.156	-13.4745	145.979	-12.3776	4.89973	5.39403	-11.9891	-0.310913
0.1260	-100.687	49.5638	518.694	-13.7744	216.164	-18.8072	2.44986	279.155	-13.1848	0
0.1267	-76.2635	8.3583	1004.53	-14.3994	167.041	-19.7223	-8.52982	527.892	-15.0268	0
0.1273	31.4647	-16.6649	1090.61	-16.5243	67.5468	-14.2077	-41.4867	832.46	-16.5456	0
0.1280	148.61	19.9565	675.258	-17.1493	23.2935	-14.5208	-81.4714	896.521	-18.6784	0
0.1287	139.149	-42.3085	266.031	-10.4246	95.3193	-23.0695	-109.546	544.352	-16.2548	0
0.1293	48.5393	-129.579	-102.348	-2.4999	229.297	-17.5791	-129.7	189.736	-11.9891	0
0.1300	-7.61315	-60.9208	-359.274	-0.649974	297.047	5.00883	-133.956	270.313	-11.3751	0
0.1307	-46.9991	25.1438	-220.423	0.549978	265.302	18.446	-105.577	466.556	-8.30511	0
0.1313	-86.9571	-16.9751	50.2429	1.77493	164.287	14.1596	-55.8461	363.68	-3.74861	0
0.1320	-85.4609	-53.8895	133.264	0.549978	33.3675	1.66158	-6.40183	-79.7427	-0.387787	-0.310913
0.1327	-53.3801	42.5325	66.4249	2.99988	56.2552	-5.68309	50.6603	-676.367	3.58703	0.310913
0.1333	-24.9958	24.5406	-71.1843	6.04976	294.901	-9.94542	126.052	-829.847	4.81503	0.310913
0.1340	2.15633	-115.844	-214.008	5.74977	458.782	-26.4168	175.478	-621.426	3.87787	-0.621826
0.1347	30.8487	-65.7979	-154.205	8.19967	383.408	-47.7765	145.275	-640.666	6.04302	-1.24365
0.1353	53.7321	53.5276	-99.2856	12.7745	200.307	-51.4609	68.3637	-574.437	11.5367	-0.621826
0.1360	73.271	41.3089	-192.363	13.3745	13.234	-36.7956	9.47757	-204.862	15.1883	0.310913
0.1367	72.0389	2.56781	-129.787	8.49966	-104.263	-16.664	-22.5674	-159.708	10.5995	0
0.1373	39.0779	50.167	-181.686	4.82481	-154.314	-6.59817	-43.3286	-141.357	3.29619	0
0.1380	-0.616093	50.7702	-520.432	5.14979	-227.253	-14.2077	-60.728	201.359	1.74504	0
0.1387	-34.4572	-10.5642	-648.605	6.04976	-305.99	-24.8997	-74.1575	11.8446	3.58703	0
0.1393	-36.3055	-12.0808	-369.952	6.34975	-345.967	-23.6715	-107.418	-456.936	5.10587	0
0.1400	-8.53729	17.2164	-59.3065	8.19967	-348.402	-11.1735	-177.606	-347.998	6.04302	0
0.1407	-5.19278	37.0522	89.0218	8.79965	-319.108	7.75405	-212.083	-3.44773	6.94786	0
0.1413	-5.19278	36.742	40.8068	4.52482	-292.249	27.5967	-158.991	26.4697	7.56185	0
0.1420	13.7301	-7.20365	-191.453	1.17495	-300.192	51.3887	-79.9514	-168.216	6.04302	0
0.1427	1.84828	-47.7888	-314.411	2.07492	-301.105	58.7093	-49.7304	-120.337	3.58703	0.310913
0.1433	-23.8076	13.5456	-251.256	1.17495	-252.576	24.5384	-35.6929	193.073	1.74504	0.310913
0.1440	-13.422	75.7934	-137.733	-2.4999	-190.32	-7.80222	31.1329	357.563	-1.61578	0
0.1447	5.80888	54.4409	-19.0377	-5.54978	-147.603	-4.76802	94.6148	198.578	-5.55828	0
0.1453	3.9606	-5.06668	24.3351	-8.59966	-127.15	1.66158	105.898	22.1878	-8.01427	0.310913
0.1460	-12.1898	-29.1765	4.8008	-11.0246	-99.3779	-6.59817	112.014	157.372	-10.4379	0.310913
0.1467	-10.3856	12.322	62.1621	-10.4246	-29.8018	-18.1811	90.0369	299.285	-12.5708	-0.310913
0.1473	12.5419	31.8649	153.088	-7.07472	51.066	-25.2127	22.2812	225.159	-11.3751	0
0.1480	-4.26864	18.1297	269.052	-2.4999	128.585	-26.1278	-36.3009	20.9644	-5.55828	0
0.1487	-43.0385	3.17098	381.374	-0.049998	200.002	-31.3052	-29.5951	-273.817	-2.52062	0
0.1493	-16.4585	-17.2853	322.771	-0.049998	222.267	-36.7956	42.7385	-235.669	-7.10943	0.310913
0.1500	24.4237	10.8055	190.046	0.549978	179.245	-20.6373	99.1926	55.4417	-11.6659	0.310913
0.1507	12.5419	54.1307	82.6069	1.77493	98.6821	-0.79467	119.936	-17.4611	-9.24226	-0.310913
0.1513	19.2309	37.6554	-46.4768	4.82481	20.5539	9.27115	134.903	-287.886	-1.00178	0
0.1520	46.383	16.596	-106.901	5.74977	-31.9325	26.3686	108.044	-371.465	7.85269	0.310913
0.1527	35.7334	30.6413	-33.9781	5.14979	-56.9655	32.7741	39.3766	-255.799	13.3463	0.310913
0.1533	8.53729	36.4318	33.4815	5.44978	-61.8503	21.4802	-5.18584	-145.027	16.7072	0.310913
0.1540	-16.1504	25.747	-13.5333	6.67473	-85.6511	14.4726	-7.92182	-144.415	17.9352	0.310913
0.1547	-29.5725	44.9797	-50.4498	9.72461	-138.138	2.26361	2.44986	-3.11408	16.0932	0.310913
0.1553	-24.1156	80.3775	-58.0649	11.8495	-175.071	-19.0962	5.20372	280.99	13.6695	0
0.1560	-37.8457	60.5416	-195.426	10.0246	-140.283	-20.6373	0.32188	389.316	12.7323	0
0.1567	-52.1919	21.7833	-293.677	7.27471	-13.9297	-3.22684	-0.607995	306.904	12.4415	0
0.1573	-21.3432	37.6554	-81.5723	5.74977	130.716	3.49173	16.7914	208.365	12.1184	0
0.1580	8.53729	66.3494	281.592	3.59986	195.118	-1.70974	50.0523	-91.3093	10.3087	0
0.1587	-1.80427	30.6413	467.416	2.07492	176.796	-2.62482	62.5699	-677.257	7.85269	0.310913
0.1593	-20.7271	1.03402	380.753	3.59986	128.585	1.34853	25.0351	-830.458	9.69468	0.310913
0.1600	-17.0746	55.6645	244.634	5.14979	61.14	-0.481618	-52.1803	-303.122	10.9227	0.310913
0.1607	-0.308046	82.5145	372.807	3.59986	-21.5686	-7.20019	-111.388	45.9883	7.56185	0.310913
0.1613	11.3097	14.1488	575.476	1.47494	-80.1575	-5.97207	-110.458	2.33556	3.87787	0.310913
0.1620	10.6936	-11.7878	535.166	1.17495	-100.291	-3.22684	-97.9588	153.424	3.58703	0
0.1627	6.42497	19.3361	431.121	2.69989	-112.206	-5.68309	-91.539	525.112	5.10587	0
0.1633	16.1944	-18.8019	341.395	1.77493	-121.352	-7.51324	-53.3963	560.534	3.87787	0
0.1640	32.961	-23.9892	115.881	-0.649974	-115.554	-12.3776	-25.6252	154.036	-0.387787	-0.310913
0.1647	27.7682	70.6061	-172.208	-1.27495	-95.1164	-14.8338	-55.2203	-150.199	-3.42545	-0.310913
0.1653	0.308046	93.8025	-330.924	-0.974961	-70.6922	-7.51324	-91.2351	-116.055	-4.03945	0
0.1660	-23.1915	48.9434	-349.217	-0.974961	-61.5459	-1.70974	-79.3434	-43.0966	-3.13461	0
0.1667	-35.6894	59.3181	-292.477	-0.974961	-63.3722	-0.79467	-46.3865	-60.5021	-1.00178	0
0.1673	-42.4224	109.071	-98.9545	0.874965	-58.183	0.433456	-35.9969	-71.5126	1.74504	0
0.1680	-34.1492	102.661	73.7503	2.07492	-39.8758	3.49173	-30.5071	-73.3477	2.35904	-0.310913
0.1687	-17.6907	46.8065	35.3025	0.24999	-16.3794	7.15203	5.50772	-41.8733	0.226209	0
0.1693	-12.4979	45.2899	4.18001	-1.57494	-1.42051	10.8123	53.4142	1.77947	-1.90662	0
0.1700	-2.72841	47.1167	-25.1215	-3.39986	1.01465	16.6158	93.3988	118.335	-3.42545	0.310913
0.1707	10.0775	13.8558	-244.22	-5.84977	-0.20293	24.5384	133.974	456.157	-4.94429	0.310913
0.1713	-15.5343	28.5044	-447.178	-6.44974	4.3775	30.944	167.556	693.884	-5.26744	0.310913
0.1720	-56.1525	59.9385	-416.966	-6.44974	12.0019	34.0022	171.526	506.816	-5.26744	0
0.1727	-76.2635	38.879	-281.468	-7.67469	15.6691	32.1721	139.785	74.6823	-6.78628	0
0.1733	-73.227	15.3724	-204.241	-9.19963	15.3647	25.1405	96.1348	-285.439	-8.30511	0
0.1740	-24.6877	25.1438	-127.345	-8.29967	15.0603	18.446	57.08	-465.166	-6.17228	0
0.1747	38.1538	22.6967	-74.8677	-5.84977	15.6691	14.4726	25.3391	-517.327	-3.74861	0.310913
0.1753	50.0796	-15.1483	-154.205	-3.39986	18.7276	15.7008	12.2136	-413.283	-2.81146	0
0.1760	25.0398	-20.0254	-225.638	-2.4999	23.2935	16.9048	15.5754	-269.535	-1.90662	0
0.1767	9.15338	0.43084	-134.05	-3.39986	24.83	14.4726	21.3692	-227.717	-1.61578	0
0.1773	-0.308046	1.63719	45.3593	-5.24979	22.9891	12.9314	25.6431	-186.233	-3.42545	0
0.1780	-11.5737	26.6604	85.3384	-5.54978	22.9891	14.1596	30.8289	-33.6432	-4.36261	0
0.1787	-5.50083	42.8427	-85.8351	-4.32483	24.5256	15.7008	33.5828	82.6343	-2.81146	0.310913
0.1793	8.84533	21.1801	-228.369	-4.02484	22.6847	14.1596	30.5249	-17.7947	-1.90662	0.310913
0.1800	10.0775	15.9928	-197.868	-5.24979	24.2067	9.89725	24.7311	-162.155	-2.81146	0
0.1807	4.88474	55.3543	-107.232	-5.24979	36.1216	7.15203	21.6732	-179.838	-2.81146	0
0.1813	-5.50083	63.2818	-35.7991	-4.62481	45.268	6.23696	20.7612	-156.649	-2.52062	0
0.1820	-19.2309	25.454	-17.1753	-4.32483	44.6592	7.75405	23.5151	-127.01	-2.19746	0
0.1827	-31.7288	23.9202	-56.2439	-4.32483	40.9919	10.4993	25.0351	-59.0007	-3.13461	0
0.1833	-36.9216	22.6967	-83.7244	-5.24979	37.6436	10.8123	22.8892	16.4045	-5.88144	0
0.1840	-13.114	-27.6599	-81.5723	-7.97468	33.6719	12.9314	22.5852	117.723	-10.1471	0
0.1847	10.3856	-35.2772	-66.3008	-10.4246	27.8739	18.446	18.6333	244.678	-13.1848	0
0.1853	-9.15338	48.6332	21.8933	-11.0246	24.2067	21.7932	13.7335	277.932	-14.1219	0
0.1860	-36.6135	85.875	154.95	-9.49962	26.352	21.4802	18.3114	197.967	-13.1848	0
0.1867	-45.7669	23.9202	175.974	-7.97468	21.7715	16.3028	20.4573	54.8301	-11.9891	0
0.1873	-34.1492	16.9062	108.225	-5.54978	1.31905	9.27115	14.0554	-84.6362	-11.0519	0
0.1880	4.88474	51.7008	83.2277	-3.39986	-13.0165	4.40681	6.41971	-108.715	-9.5331	0.310913
0.1887	30.5406	27.591	117.413	-3.09988	-4.47896	1.66158	-0.303998	-73.0141	-8.62827	0.310913
0.1893	18.6148	1.63719	190.046	-2.79989	8.34913	0.120405	-4.88184	-69.6775	-8.62827	0.310913
0.1900	2.15633	10.8055	199.192	-1.87493	8.65353	-3.22684	-9.76369	-55.3305	-7.69111	0
0.1907	0.924139	-4.4635	98.1682	0.874965	5.89948	-8.71729	-15.8615	1.16778	-4.03945	0
0.1913	11.3097	-17.8885	113.109	3.59986	6.81266	-14.8338	-21.9594	33.81	0.226209	0
0.1920	5.19278	18.4227	289.207	4.82481	7.74034	-20.3243	-27.7532	-32.1418	2.6822	0.310913
0.1927	-15.8424	28.1942	385.637	5.14979	8.34913	-22.7565	-28.6831	-113.608	3.58703	0.621826
0.1933	-14.0381	-21.8522	288.586	4.52482	8.95793	-25.5017	-30.5071	-94.9794	3.29619	0
0.1940	-0.924139	-8.42723	110.667	5.14979	8.65353	-29.162	-37.2308	-35.7563	3.58703	-0.621826
0.1947	-4.88474	56.8881	-21.1484	7.5747	8.04474	-29.162	-35.0849	-13.1792	5.42902	-0.310913
0.1953	-10.3856	1.34422	-147.211	10.0246	7.11706	-30.7032	-28.6831	-6.17255	6.94786	0.310913
0.1960	-1.23219	-50.2359	-251.877	13.3745	7.11706	-34.0504	-29.8991	-19.0181	8.17585	0
0.1967	-0.924139	41.016	-265.907	17.0493	6.81266	-35.2785	-35.0849	-39.1484	9.69468	0
0.1973	-13.7301	90.149	-235.984	20.0992	6.50827	-36.7956	-39.0548	7.22911	11.2135	0
0.1980	-11.2657	29.4178	-164.883	21.3241	6.20387	-37.1087	-37.8388	102.487	12.1184	0
0.1987	-7.61315	-4.1533	-25.1215	20.3992	6.20387	-34.6765	-32.6529	173.888	11.5367	0
0.1993	-26.228	38.2586	109.467	18.2493	6.50827	-33.1353	-34.4769	128.678	9.69468	-0.932738
0.2000	-29.8805	50.4772	206.186	13.9994	5.59508	-27.9579	-34.4769	-26.9145	6.04302	-0.621826
0.2007	8.53729	-28.2631	293.47	9.39962	4.3775	-19.7223	-26.2332	-73.0141	3.29619	0.310913
0.2013	44.8868	-33.7606	253.201	7.87468	4.0731	-16.953	-25.0172	21.2981	2.35904	0.310913
0.2020	46.075	-2.92971	48.1322	9.09964	4.98629	-15.7489	-27.4492	44.1532	3.29619	0.310913
0.2027	31.1567	-51.7697	-108.722	9.09964	5.29068	-13.2927	-26.8412	-27.8599	2.6822	0.310913
0.2033	14.9623	-35.2772	-126.766	7.27471	3.76871	-12.6906	-26.2332	-71.5126	-1.29262	0.310913
0.2040	4.57669	49.5638	-63.9004	5.44978	2.24673	-9.34339	-22.8714	-35.7563	-3.13461	0
0.2047	3.08046	30.3311	-11.7123	3.59986	2.24673	-2.31177	-17.0775	41.4284	-3.74861	-0.310913
0.2053	5.80888	-41.0849	-54.7126	3.29987	2.55112	3.49173	-10.0677	35.0334	-2.52062	0
0.2060	7.34911	3.17098	-125.235	3.59986	3.15992	5.9239	-3.64797	-58.0553	-0.678628	0
0.2067	3.08046	55.3543	-146.259	2.3999	1.31905	4.40681	-7.92182	-117.89	-1.61578	0
0.2073	-2.72841	9.89209	-120.641	-0.049998	-0.20293	3.49173	-15.2535	-99.2613	-4.94429	0.310913
0.2080	-4.88474	2.2576	-44.9455	-3.09988	0.101465	7.15203	-14.0375	-35.7563	-8.30511	0
0.2087	-2.42037	15.3724	44.4488	-4.32483	0.710256	11.7274	-5.18584	5.72768	-9.24226	0
0.2093	4.57669	-16.6649	84.759	-3.09988	1.63794	14.1596	-0.607995	16.0709	-8.30511	0
0.2100	9.15338	-29.7969	81.9862	-3.39986	0.710256	13.5576	-1.21599	11.511	-8.91911	0
0.2107	7.04106	1.34422	71.3085	-4.32483	-0.507326	11.7274	-14.6455	-25.0795	-9.82395	0
0.2113	5.19278	15.9928	20.0309	-5.24979	-0.507326	11.1013	-81.4714	-35.4783	-11.0519	0
0.2120	7.9652	-0.792746	-48.2977	-6.44974	-0.811721	13.2445	-169.362	8.4525	-13.5079	0
0.2127	7.65716	-20.0254	-54.1332	-6.14975	-0.20293	20.2761	-197.742	24.3566	-14.4128	0
0.2133	4.88474	-23.9892	-28.8048	-7.67469	0.405861	27.5967	-176.086	13.6797	-16.8687	0.310913
0.2140	5.50083	-31.3135	-14.7335	-11.3495	1.01465	34.9173	-128.466	16.0709	-22.0392	0.310913
0.2147	6.42497	-46.8754	-8.64973	-14.3994	0.405861	38.2646	-66.8258	14.8475	-26.6281	0.310913
0.2153	6.11692	-49.0124	-7.11843	-16.8243	-1.42051	37.9756	-26.5372	14.5694	-29.3749	0.310913
0.2160	7.65716	-33.1402	-0.99327	-17.1493	-0.507326	41.0098	3.66585	24.3566	-29.9889	0.310913
0.2167	6.11692	-4.75647	4.18001	-17.7493	-0.507326	41.6359	61.6579	30.4179	-31.2169	0
0.2173	1.54023	-4.1533	9.68438	-18.3493	-1.42051	39.8057	124.514	31.0296	-31.7986	0
0.2180	-1.80427	0.723811	15.4785	-14.9994	-0.507326	37.3495	170.9	30.1398	-28.1469	0
0.2187	-3.3445	16.2858	8.7325	-11.6495	-1.72491	31.859	190.142	19.1293	-25.7232	0.310913
0.2193	-0.308046	45.2899	1.11743	-8.29967	-1.11612	31.257	153.519	4.50429	-22.3624	0
0.2200	5.50083	15.6826	-0.413862	-5.24979	0.405861	33.0872	103.77	-4.05943	-19.2924	-0.310913
0.2207	8.84533	-46.5652	-1.94515	-5.24979	-1.11612	25.1405	91.8609	-14.4026	-19.6156	-0.310913
0.2213	8.84533	-9.03041	1.73822	-2.17491	-1.72491	13.5576	83.6351	-12.2895	-16.2548	0
0.2220	6.73302	19.3361	6.9115	2.3999	-2.0293	4.40681	75.9994	16.0709	-11.3751	0
0.2227	3.38851	-10.5642	9.06359	3.29987	-3.24689	-1.39669	80.2733	56.3871	-11.0519	0.310913
0.2233	0.616093	-19.1121	13.0367	2.99988	-3.24689	-4.76802	56.168	85.0811	-11.9891	0
0.2240	0	-4.75647	13.6161	2.3999	-4.47896	-8.71729	29.6129	77.1291	-11.9891	-0.310913
0.2247	1.23219	4.39457	9.35329	1.77493	-6.30534	-9.34339	30.8289	27.9711	-10.7611	-0.310913
0.2253	3.38851	12.322	4.46971	2.3999	-6.30534	-7.51324	-4.88184	-21.4649	-8.91911	0
0.2260	4.57669	-22.4726	1.40713	4.22483	-6.00094	-6.88714	-87.5692	-30.5847	-7.40027	0
0.2267	6.42497	-43.5148	-1.94515	5.14979	-6.60973	-10.5474	-132.74	-15.0143	-6.78628	0
0.2273	5.19278	-2.01633	-1.94515	5.44978	-3.55128	-18.1811	-116.878	-1.279	-4.94429	0.310913
0.2280	-1.23219	-31.0032	4.8008	7.27471	-1.72491	-22.4675	-80.5594	6.00573	-1.61578	0
0.2287	-3.65255	-39.5511	4.18001	6.67473	-4.17457	-22.4675	-34.4769	6.00573	-1.61578	0
0.2293	0.616093	9.58188	-1.32436	4.82481	-3.55128	-19.7223	25.6431	3.55895	-2.19746	0.310913
0.2300	1.54023	6.82451	3.55922	4.22483	1.63794	-12.6906	69.2757	4.78234	-1.29262	0
0.2307	0.308046	-18.1987	10.2638	3.92484	1.31905	-2.0228	101.321	7.84081	-1.61578	0
0.2313	5.50083	-46.5652	9.68438	2.69989	-3.55128	12.9314	148.333	8.78615	-2.19746	0
0.2320	10.6936	-51.4595	8.44279	1.17495	-4.78336	19.65	182.506	8.4525	-1.61578	0
0.2327	8.22924	-28.8663	9.68438	2.69989	-4.17457	10.4993	176.712	9.67589	1.4542	0
0.2333	5.80888	-47.4958	10.2638	5.74977	-5.08775	-3.85295	152.589	13.068	4.81503	0
0.2340	8.53729	-45.962	10.2638	6.04976	-3.85568	-11.4625	134.903	14.8475	6.04302	0
0.2347	12.2338	-2.32654	8.7325	4.22483	-2.63809	-16.0379	112.622	14.2914	5.42902	0
0.2353	12.5419	-31.6237	4.18001	2.3999	-5.08775	-20.3243	71.4216	12.4563	4.49187	0
0.2360	11.9258	-106.693	3.26951	1.77493	-5.69655	-18.8072	18.3114	12.4563	4.49187	0
0.2367	13.422	-76.4827	5.09051	1.77493	-3.55128	-13.2927	-31.723	14.8475	4.49187	0
0.2373	13.422	11.0984	5.09051	1.47494	-2.3337	-12.0886	-59.4941	14.5694	4.20103	0
0.2380	11.6178	-2.92971	7.24259	3.29987	-1.42051	-14.2077	-50.9643	15.1811	5.71986	0
0.2387	11.9258	-70.675	5.38021	2.3999	-2.3337	-21.5524	-22.8714	14.5694	5.42902	0
0.2393	13.7301	-27.3497	0.496635	0.549978	-4.47896	-27.0429	-6.40183	9.67589	3.58703	0
0.2400	12.5419	7.13471	2.93842	1.77493	-4.78336	-23.6715	21.9772	8.4525	5.10587	0
0.2407	9.46143	-82.5834	5.7113	1.17495	-5.69655	-20.6373	79.6653	8.17446	5.42902	-0.310913
0.2413	10.0775	-50.5462	5.09051	-0.974961	-6.30534	-20.9263	133.974	6.95107	2.6822	-0.310913
0.2420	8.84533	-0.499774	6.6218	-0.049998	-4.17457	-19.4092	180.056	7.84081	2.6822	-0.310913
0.2427	7.04106	-39.8613	5.38021	1.47494	-2.63809	-16.3509	201.729	6.95107	4.20103	0
0.2433	7.9652	25.1438	3.55922	2.99988	-2.3337	-12.3776	202.945	6.00573	4.49187	0.310913
0.2440	7.34911	37.6554	3.55922	5.74977	-2.63809	-13.6057	184.938	6.33938	6.94786	0.310913
0.2447	6.73302	-53.5965	2.64872	6.97472	-3.24689	-18.4941	94.0068	5.72768	9.69468	0.310913
0.2453	8.22924	-25.2128	2.64872	7.5747	-2.3337	-17.266	-32.331	6.61742	9.98552	0
0.2460	8.84533	12.0118	3.84892	8.19967	-2.63809	-12.6906	-103.753	9.39785	8.78985	0
0.2467	8.53729	-27.6599	3.84892	7.27471	-3.24689	-9.94542	-113.212	10.6212	6.33386	0
0.2473	8.53729	-41.0849	2.64872	4.82481	-0.811721	-4.76802	-102.841	9.39785	1.4542	0
0.2480	8.84533	-68.538	2.35902	4.22483	4.0731	3.49173	-94.5969	9.39785	-2.52062	0.310913
0.2487	9.76947	-76.4827	2.35902	4.52482	9.26232	9.5842	-86.9612	10.2876	-3.42545	0
0.2493	9.46143	-57.25	0.827725	3.92484	12.3063	12.6425	-69.8837	10.8993	-4.03945	0
0.2500	9.15338	-93.8714	1.73822	2.69989	12.6107	14.7857	-56.4541	10.2876	-4.65345	0.310913
0.2507	11.6178	-102.109	3.84892	1.77493	12.3063	14.1596	-64.68	9.0642	-3.42545	0.310913
0.2513	14.6542	-60.0074	3.84892	1.77493	11.6975	12.3294	-70.7957	8.4525	-2.19746	0
0.2520	19.5389	-58.1634	4.18001	1.47494	12.0019	14.1596	-51.2683	10.0095	-2.52062	0
0.2527	29.9245	-67.6246	3.55922	-0.049998	12.9296	15.3877	-43.0246	11.2329	-3.74861	0
0.2533	40.3101	-43.2219	2.02793	-2.17491	12.0019	12.6425	-89.4111	11.511	-4.94429	0.310913
0.2540	43.9626	8.6685	4.18001	-4.02484	11.6975	11.1013	-140.071	13.068	-6.78628	0
0.2547	42.4224	36.742	5.09051	-5.24979	11.0887	8.35608	-145.561	12.1227	-9.24226	0
0.2553	40.002	-13.9247	4.18001	-6.77473	8.04474	3.49173	-188.282	8.78615	-10.7611	0
0.2560	38.1538	-54.1997	4.18001	-7.97468	4.98629	1.03548	-268.537	6.33938	-11.9891	0
0.2567	35.7334	-25.523	4.46971	-7.97468	4.98629	1.03548	-270.379	6.33938	-12.2799	-0.310913
0.2573	33.269	-16.9751	6.9115	-7.3747	4.68189	1.34853	-274.957	7.84081	-10.4379	-0.310913
0.2580	37.8457	-12.7012	8.7325	-8.29967	-0.20293	0.433456	-342.391	6.95107	-8.91911	0
0.2587	47.6152	-3.23992	9.97409	-8.89964	-5.39215	-0.481618	-319.823	9.0642	-8.62827	0
0.2593	32.6529	-12.0808	9.68438	-7.97468	-8.13171	-3.53989	-210.867	13.6797	-8.62827	0
0.2600	-18.6148	-15.7515	5.38021	-7.97468	-11.1902	-10.2585	-118.702	11.511	-8.62827	0
0.2607	-57.0766	-24.6096	1.73822	-6.77473	-8.7405	-15.1228	-13.7157	12.1227	-6.49544	0
0.2613	-62.2254	-15.7515	0.206931	-4.62481	-6.00094	-20.9263	69.5976	13.068	-4.03945	0
0.2620	-67.1101	-34.674	-1.61406	-4.02484	-8.4361	-31.3052	94.6148	6.95107	-3.13461	0.310913
0.2627	-66.23	-27.9529	-1.61406	-2.79989	-8.4361	-34.6765	110.172	4.50429	-1.00178	0
0.2633	-62.2254	33.9847	-2.52456	-0.049998	-5.39215	-30.0771	141.609	10.0095	2.0682	0
0.2640	-97.3427	-42.9117	-6.82873	1.77493	-3.85568	-27.3318	194.719	16.6826	3.29619	0
0.2647	-65.3059	-102.419	-13.2022	1.17495	-2.63809	-26.4168	227.98	20.9644	3.29619	0.310913
0.2653	85.4609	-29.7969	-20.8587	-0.049998	-3.55128	-25.2127	219.433	23.4112	2.97304	0
0.2660	155.035	-13.9247	-21.7692	0.549978	-6.30534	-27.0429	197.759	23.7449	4.20103	0
0.2667	108.344	-12.0808	-12.9125	2.69989	-7.21852	-30.9921	194.094	22.5215	6.94786	0
0.2673	67.4622	10.1851	-0.99327	5.44978	-4.78336	-37.7107	194.398	20.0747	10.3087	0
0.2680	34.1932	-71.6056	5.38021	7.27471	-3.85568	-48.4026	144.971	14.5694	11.5367	0
0.2687	8.84533	-120.118	6.9115	5.74977	-2.3337	-52.376	86.0671	6.33938	9.69468	0.310913
0.2693	21.6953	-83.4968	9.68438	4.22483	5.89948	-41.9971	83.9391	-1.61265	9.08069	0.310913
0.2700	58.6168	-131.113	13.6161	3.29987	6.81266	-26.7298	111.71	-5.28281	8.78985	0
0.2707	79.0359	-105.47	12.4159	1.47494	25.7432	-14.2077	140.697	-4.05943	6.94786	0.310913
0.2713	69.8825	-59.094	9.68438	0.874965	88.3037	-2.0228	179.448	0.222434	6.6247	0.621826
0.2720	54.6562	-88.6841	7.5323	1.17495	131.629	6.83898	183.114	4.17064	5.42902	0
0.2727	42.1144	-74.0356	2.93842	0.874965	126.455	8.35608	129.092	6.61742	3.58703	0
0.2733	15.2703	-33.4504	-2.52456	0.549978	107.828	4.69578	90.6449	11.8446	3.29619	0.310913
0.2740	-4.88474	-0.499774	-8.31864	-1.87493	84.0277	1.66158	64.6978	19.463	2.0682	0.310913
0.2747	-6.68901	-25.8159	-11.0915	-4.62481	53.2112	5.9239	9.78157	27.415	-1.29262	0.310913
0.2753	3.9606	-113.707	-4.38694	-4.62481	22.6847	15.0747	-21.9594	28.5828	-2.52062	0
0.2760	46.075	-158.877	4.8008	-3.72485	-12.1033	17.8199	-8.83381	17.6279	-2.19746	0
0.2767	82.4244	-95.4052	9.97409	-3.72485	-45.065	10.8123	41.2006	6.95107	-2.19746	0
0.2773	54.0402	-9.65082	15.4785	-4.02484	-58.7918	6.23696	88.821	4.78234	-2.19746	0
0.2780	-6.99706	6.82451	18.4997	-4.9248	-58.183	13.8465	86.6751	3.28091	-3.13461	0
0.2787	10.0775	-39.2409	13.6161	-4.9248	-56.9655	29.1138	70.5096	2.05752	-3.13461	0
0.2793	84.2287	-88.6841	7.24259	-3.39986	-55.1391	37.6625	36.0148	6.95107	-1.90662	0.310913
0.2800	53.7321	-52.0627	5.7113	-1.27495	-49.3266	36.4344	3.66585	11.8446	-0.387787	0
0.2807	-50.6516	-21.249	8.44279	-0.349986	-44.4562	36.1454	13.7335	16.0709	0.549365	0.310913
0.2813	-97.6507	-101.816	8.44279	-2.17491	-42.9198	34.9173	6.11572	18.5177	-2.52062	0.310913
0.2820	-112.305	-91.7345	7.24259	-4.32483	-36.2086	31.257	-39.9667	20.9644	-4.94429	0
0.2827	-47.9232	19.0431	11.7951	-2.79989	-25.8301	29.1138	-86.3532	22.7995	-3.13461	0
0.2833	102.844	35.5185	15.7682	-3.09988	-20.0321	21.4802	-114.428	17.6279	-2.52062	0
0.2840	121.15	-50.2359	19.1204	-4.62481	-16.9882	9.89725	-107.114	11.8446	-3.42545	-0.621826
0.2847	27.7682	-13.3043	24.004	-4.32483	-15.4662	7.75405	-63.16	11.511	-3.13461	-0.621826
0.2853	-6.38096	28.7973	27.3563	-6.14975	-14.5385	10.4993	-22.5674	7.84081	-4.03945	0
0.2860	-9.15338	17.8195	35.0128	-7.3747	-7.82731	9.89725	-12.1957	2.33556	-4.36261	0
0.2867	-26.844	12.6322	42.3381	-5.24979	-1.11612	5.32188	-23.8012	2.33556	-1.90662	0
0.2873	-24.6877	-98.4556	38.3651	-3.39986	-0.811721	-1.70974	-42.1126	9.39785	-1.00178	0.310913
0.2880	91.8859	-76.1725	25.5353	-1.57494	-1.11612	-5.68309	-44.2406	23.4112	-0.387787	0
0.2887	234.995	-0.499774	9.06359	-0.349986	0.405861	-6.88714	-18.6154	36.8685	1.74504	0
0.2893	179.767	-77.9993	-4.67665	-0.349986	3.15992	-8.11527	6.11572	37.7582	1.13105	0
0.2900	12.2338	-73.7426	-10.7604	-0.349986	8.04474	-6.59817	8.8517	35.6451	0.549365	-0.310913
0.2907	-193.453	16.596	-13.823	-0.049998	9.87111	-5.05699	0.929875	35.3114	1.13105	0
0.2913	-435.182	-5.37688	-18.4169	-0.974961	8.04474	-7.20019	-10.9797	29.5282	-0.0646312	0.310913
0.2920	-574.639	-36.5008	-19.9482	-0.649974	7.11706	-8.42832	-20.7434	27.415	0.226209	0
0.2927	-657.943	-64.8845	-15.3543	0.24999	7.11706	-8.11527	-25.6252	28.3048	0.840206	0
0.2933	-783.054	-59.6972	-5.29744	0.874965	7.74034	-7.80222	-30.5071	25.5799	1.4542	0
0.2940	-909.705	-37.4141	-1.32436	1.17495	7.74034	-6.59817	-34.1729	20.3527	2.0682	-0.310913
0.2947	-791.899	-78.3095	-8.93943	-0.049998	6.50827	-5.68309	-41.1827	14.2914	1.13105	0
0.2953	-307.914	-46.5652	-10.4707	-0.974961	7.43595	-2.31177	-73.8357	9.0642	-0.0646312	0.310913
0.2960	216.689	-30.4001	-2.52456	-1.87493	11.0887	3.7807	-119.614	1.16778	-1.29262	0
0.2967	453.796	-43.5148	2.64872	-3.72485	13.234	8.98218	-129.074	-7.72959	-3.13461	-0.310913
0.2973	387.875	31.8649	7.5323	-4.32483	15.6691	12.6425	-118.702	-9.23102	-2.81146	0
0.2980	206.303	-3.55012	9.97409	-5.24979	15.6691	8.98218	-141.287	-7.39594	-2.52062	0.310913
0.2987	54.6562	-97.232	7.24259	-7.07472	11.6975	0.433456	-181.576	-9.56467	-3.13461	0.310913
0.2993	-25.9199	-23.9892	4.46971	-7.97468	9.26232	-4.45497	-216.357	-11.6778	-2.81146	0.310913
0.3000	-18.3068	41.3089	5.09051	-8.29967	7.74034	-6.28512	-267.929	-11.3441	-2.81146	0.310913
0.3007	71.4228	-5.68709	6.00101	-9.49962	7.11706	-6.59817	-280.143	-6.5062	-3.13461	0
0.3013	170.306	27.591	5.38021	-10.7246	7.74034	-6.88714	-186.458	-1.279	-4.03945	0
0.3020	215.765	49.2536	6.00101	-11.6495	6.81266	-13.0037	-73.8357	-3.44773	-6.17228	0.310913
0.3027	240.188	-53.2863	8.44279	-13.1745	4.98629	-20.6373	-38.7508	-7.72959	-8.30511	0.310913
0.3033	321.645	-19.7152	9.06359	-14.0994	3.76871	-23.0695	-54.6123	-5.89451	-8.91911	0
0.3040	445.259	-4.1533	4.8008	-13.4745	2.24673	-22.4675	-69.8837	-3.72577	-9.82395	0
0.3047	466.338	-61.2137	2.93842	-11.3495	2.85552	-21.8414	-69.2578	-5.28281	-9.24226	0
0.3053	350.337	-9.65082	6.9115	-10.4246	4.3775	-20.9263	-39.9667	-2.83604	-8.30511	0
0.3060	156.268	62.9888	9.35329	-9.82461	3.46431	-17.868	7.33171	-1.89069	-7.69111	0
0.3067	-102.227	30.3311	11.5054	-6.44974	1.01465	-13.0037	60.12	-2.83604	-5.26744	0
0.3073	-282.875	-4.1533	13.3264	-2.79989	0.101465	-14.2077	140.393	4.78234	-3.74861	0
0.3080	-218.493	15.0794	13.6161	-2.4999	1.31905	-22.1544	220.041	12.7344	-5.88144	0.310913
0.3087	-48.4953	-36.811	14.568	-3.09988	4.68189	-28.873	237.44	14.5694	-7.10943	0
0.3093	2.77242	-97.232	16.389	-3.39986	7.11706	-27.9579	219.129	14.2914	-5.88144	0
0.3100	-78.4198	-11.7878	19.1204	-3.39986	7.43595	-17.266	205.091	17.6279	-4.36261	0
0.3107	-212.376	12.9424	15.4785	-3.09988	6.81266	-4.14192	183.722	25.858	-2.52062	0
0.3113	-295.417	-91.1313	6.9115	-2.79989	6.81266	8.35608	153.215	33.1983	-1.90662	0
0.3120	-281.686	-87.7707	6.00101	-3.09988	10.7843	21.1912	112.926	40.8167	-3.74861	0
0.3127	-173.958	23.61	3.26951	-4.02484	15.9735	24.2254	46.7083	45.3766	-5.88144	0
0.3133	-28.3843	-14.2177	-8.64973	-6.77473	16.5823	15.0747	-9.76369	45.3766	-8.62827	0
0.3140	-59.1889	-63.6609	-14.4438	-8.29967	17.7999	10.4993	-10.6757	49.6585	-9.82395	0
0.3147	-147.686	8.6685	-13.823	-7.07472	19.6408	8.35608	-11.8917	55.1637	-8.91911	0.310913
0.3153	70.8067	-23.386	-13.2022	-6.14975	17.7999	2.26361	-42.7206	51.2155	-9.24226	-0.310913
0.3160	411.066	-2.63674	-8.31864	-3.39986	17.4955	1.34853	-51.5723	36.5348	-6.78628	-0.621826
0.3167	432.145	20.8699	-0.0827725	0.24999	16.8867	3.7807	-45.7606	17.2943	-3.42545	0
0.3173	181.571	76.1036	7.822	-0.349986	12.6107	1.95055	-50.0344	6.61742	-4.03945	0.310913
0.3180	-0.616093	83.4279	11.1743	-1.87493	10.4799	-0.481618	-34.4769	6.00573	-4.65345	0
0.3187	-3.9606	-85.6338	4.18001	-1.57494	10.1755	0.433456	16.4874	4.50429	-4.65345	0
0.3193	85.4609	-0.499774	-10.181	-1.57494	10.7843	6.23696	67.1477	0.834129	-5.88144	0
0.3200	124.539	192.689	-18.0858	-2.17491	13.5384	15.3877	87.5871	-1.61265	-5.55828	0
0.3207	2.77242	213.438	-19.9482	-0.974961	13.5384	16.3028	72.6376	-9.84272	-3.74861	0.310913
0.3213	-171.494	199.1	-22.6797	1.17495	8.95793	8.35608	20.7612	-22.9663	-3.13461	0
0.3220	-206.919	174.99	-24.211	2.07492	6.50827	5.00883	-23.1932	-26.0248	-3.42545	-0.310913
0.3227	-151.031	202.753	-27.5632	2.3999	7.11706	4.69578	2.44986	-19.0181	-3.13461	0
0.3233	-43.9186	195.739	-30.005	2.69989	7.74034	4.69578	68.0597	-19.9079	-3.13461	0.310913
0.3240	131.844	107.227	-21.4795	2.3999	10.4799	9.5842	101.017	-29.973	-3.74861	0
0.3247	180.383	146.606	-11.7123	1.77493	10.7843	11.7274	100.409	-33.6432	-4.65345	0
0.3253	84.5368	201.84	-7.40814	2.99988	8.04474	8.06711	89.4289	-25.0795	-4.65345	0
0.3260	44.5787	198.79	-3.14535	6.34975	6.20387	3.49173	71.1176	-18.6845	-2.52062	0
0.3267	89.1134	191.155	-1.32436	9.72461	3.15992	-3.53989	58.6	-24.8014	0.226209	0
0.3273	153.803	133.784	-1.94515	12.1495	0.405861	-9.03034	51.8942	-28.1379	3.29619	0
0.3280	213.916	163.392	-0.99327	13.6745	0.101465	-9.94542	29.0049	-20.2415	5.42902	0
0.3287	244.457	200.013	0.206931	13.3745	0.101465	-9.63236	5.20372	-15.626	3.87787	0
0.3293	231.343	159.721	2.35902	12.4495	-0.811721	-8.42832	8.2437	-21.1313	2.97304	0
0.3300	210.264	143.556	6.9115	12.1495	-1.42051	-7.80222	16.4874	-30.9184	3.87787	0.310913
0.3307	194.729	126.77	12.7056	13.3745	-1.72491	-6.59817	14.9674	-36.9797	5.42902	0.310913
0.3313	167.533	138.369	15.1474	13.6745	-1.42051	-5.05699	5.81172	-33.3651	6.33386	0
0.3320	135.188	163.392	9.97409	11.8495	-1.11612	-8.42832	-21.9594	-24.4678	6.04302	0
0.3327	88.1893	196.653	0.827725	10.0246	-0.507326	-13.6057	-56.1502	-19.0181	4.49187	-0.310913
0.3333	5.80888	231.137	-4.96635	9.72461	-1.11612	-14.8338	-80.5594	-12.9012	3.29619	-0.310913
0.3340	-79.344	182.004	-8.31864	10.3246	-3.24689	-14.2077	-95.2049	-3.11408	4.20103	0
0.3347	-131.536	189.639	-9.84993	10.0246	-3.55128	-10.2585	-89.1071	2.33556	4.81503	0
0.3353	-155.035	231.74	-7.73923	9.72461	-1.11612	-2.93787	-45.1526	2.94725	3.29619	0
0.3360	-170.878	196.342	-2.85565	8.19967	-0.20293	2.26361	0.929875	1.44582	2.0682	0
0.3367	-185.84	121.583	3.26951	5.44978	-0.811721	5.00883	4.57785	-0.667303	1.74504	0.310913
0.3373	-201.11	119.739	8.44279	2.99988	-0.20293	8.06711	-10.0677	-4.67112	0.549365	0
0.3380	-211.804	246.096	7.822	1.47494	-0.20293	9.5842	-27.4492	-8.34129	-1.61578	0
0.3387	-103.152	274.169	5.7113	1.47494	1.01465	8.98218	-43.3286	-5.89451	-2.52062	0
0.3393	97.3427	232.654	4.46971	2.3999	1.63794	7.15203	-50.6424	-1.61265	-1.00178	0.310913
0.3400	210.264	232.654	-1.94515	2.07492	-1.11612	3.49173	-82.0794	0.222434	-0.387787	0
0.3407	259.727	254.937	-9.84993	0.24999	-2.63809	-0.481618	-123.28	5.11599	-2.19746	0
0.3413	250.574	259.211	-16.2648	-2.17491	-3.24689	-3.53989	-129.378	12.4563	-5.88144	-0.310913
0.3420	128.191	209.767	-22.39	-3.39986	-3.24689	-5.37004	-120.222	21.2981	-7.40027	0.310913
0.3427	-10.6496	207.63	-18.4169	-2.17491	-1.42051	-2.62482	-98.2628	26.8033	-4.36261	0.310913
0.3433	-82.9965	185.658	-10.181	-2.17491	-1.42051	0.433456	-59.7981	24.3566	-4.65345	-0.310913
0.3440	-107.112	141.712	-7.11843	-4.62481	-2.94249	-1.08364	-31.1151	17.6279	-8.30511	-0.621826
0.3447	-121.458	151.794	-4.38694	-5.24979	-2.0293	-2.0228	-12.1957	7.84081	-7.69111	-0.310913
0.3453	-163.265	154.534	-3.14535	-4.62481	-1.42051	-0.79467	-2.12798	-1.279	-4.65345	0
0.3460	-218.493	153.31	-2.85565	-3.09988	-0.20293	1.03548	20.7612	-7.39594	-2.52062	0.310913
0.3467	-195.918	199.393	-0.99327	-0.974961	0.405861	2.26361	54.6302	-13.5129	0.226209	0
0.3473	-65.9219	201.237	-0.99327	-0.049998	-2.94249	-0.481618	52.5022	-13.7909	0.840206	0
0.3480	40.8822	161.255	-1.61406	0.24999	-5.39215	-2.62482	31.1329	-7.1179	-0.387787	0.310913
0.3487	35.4253	181.694	-1.61406	1.77493	-5.69655	-3.22684	9.15569	-3.44773	0.226209	0.310913
0.3493	-5.80888	152.707	-4.05585	3.29987	-5.08775	-4.14192	-24.1052	-4.67112	1.13105	0
0.3500	-36.6135	142.643	-10.181	4.52482	-3.55128	-4.76802	-52.4843	-6.17255	2.6822	-0.310913
0.3507	-35.6894	174.99	-15.644	4.52482	-3.85568	-6.88714	-68.9538	-12.2895	4.49187	0
0.3513	17.6907	145.986	-15.9751	2.99988	-6.91413	-11.1735	-83.9212	-23.2444	4.81503	0
0.3520	27.4601	163.685	-13.5333	1.47494	-7.52292	-13.2927	-81.7754	-31.1964	5.10587	0
0.3527	-61.9613	199.393	-12.2917	0.874965	-8.13171	-14.2077	-28.3791	-34.5885	5.10587	0
0.3533	-151.339	157.584	-9.56022	1.47494	-9.34929	-13.2927	38.7686	-33.3651	4.81503	0
0.3540	-111.073	140.799	-6.20794	1.17495	-8.7405	-9.63236	71.1176	-26.6365	4.81503	0
0.3547	25.9639	189.639	-8.64973	-0.649974	-9.34929	-7.51324	53.7182	-20.8532	3.87787	0
0.3553	76.9236	165.529	-11.7123	-3.09988	-9.97258	-6.88714	-17.0775	-15.0143	1.4542	-0.310913
0.3560	20.4631	114.552	-9.84993	-5.84977	-8.13171	-5.97207	-83.2953	-7.72959	-0.0646312	0
0.3567	-6.99706	166.132	-8.31864	-8.59966	-7.52292	-7.20019	-109.242	-9.23102	-2.81146	0.310913
0.3573	16.1944	171.319	-3.76615	-10.1246	-8.13171	-6.59817	-114.732	-16.2377	-4.03945	0
0.3580	48.5393	136.525	3.55922	-10.7246	-7.21852	-3.53989	-113.516	-19.9079	-3.13461	0
0.3587	86.077	153.62	6.6218	-12.2495	-7.82731	-2.0228	-110.154	-20.8532	-2.81146	0.310913
0.3593	96.4625	171.319	7.5323	-13.7744	-8.7405	-1.08364	-84.8332	-17.7947	-3.42545	0
0.3600	63.5016	152.104	10.5949	-14.0994	-8.4361	-0.168566	-25.9292	-14.4026	-4.36261	0
0.3607	34.8092	125.857	13.6161	-11.9495	-6.91413	1.03548	44.8665	-10.1764	-3.42545	0
0.3613	3.9606	143.849	14.2369	-9.49962	-4.78336	1.34853	107.74	-2.83604	-1.29262	-0.310913
0.3620	-37.8457	174.68	10.5949	-9.19963	-5.08775	-2.31177	135.207	1.16778	-0.678628	0
0.3627	-55.8444	174.077	2.35902	-9.82461	-7.21852	-4.76802	125.748	2.66921	-1.90662	0.310913
0.3633	-75.0753	137.748	-8.64973	-8.29967	-7.52292	-3.22684	109.564	4.50429	-1.61578	0
0.3640	-60.7292	132.871	-18.4169	-6.14975	-6.91413	-2.31177	85.4591	4.50429	-0.0646312	0
0.3647	-8.53729	116.396	-24.5007	-5.24979	-5.69655	-3.22684	43.3465	3.55895	-0.387787	0
0.3653	-34.1492	73.9666	-28.4737	-3.72485	-3.24689	-2.0228	21.9772	4.17064	-0.0646312	-0.310913
0.3660	-75.9995	88.3222	-31.826	-1.87493	-1.72491	2.86563	34.4948	6.95107	1.4542	0
0.3667	-9.46143	138.058	-30.9155	-0.649974	-1.11612	8.66913	45.7785	10.2876	2.35904	0.310913
0.3673	78.7279	177.42	-24.5007	1.47494	1.01465	10.8123	37.8566	6.00573	3.29619	0
0.3680	105	153.017	-18.0858	3.92484	1.63794	6.23696	13.4295	-4.67112	4.49187	0
0.3687	78.7279	139.885	-14.4438	6.04976	1.01465	-1.39669	-3.03998	-8.34129	6.33386	0
0.3693	10.0775	164.305	-13.2022	7.5747	0.405861	-3.85295	8.8517	-4.94916	7.85269	0
0.3700	-24.1156	157.584	-16.2648	8.19967	-0.20293	-1.08364	25.6431	-3.11408	7.85269	0
0.3707	-3.03646	103.884	-19.6171	10.3246	0.405861	1.34853	24.4271	-0.667303	8.17585	0
0.3713	-46.383	52.9072	-19.6171	11.5495	1.63794	4.09375	18.6333	0.834129	9.08069	0
0.3720	-121.766	84.6515	-18.4169	10.3246	4.68189	11.7274	18.3114	-2.50239	8.46669	0.310913
0.3727	-108.036	108.761	-13.5333	9.72461	9.87111	19.65	17.7034	-7.1179	7.2387	0
0.3733	-51.2677	87.0986	-8.64973	10.0246	11.6975	19.048	7.9397	-10.4544	6.94786	0
0.3740	-15.8424	109.985	-9.27052	9.39962	8.65353	11.7274	-8.52982	-9.84272	6.6247	-0.621826
0.3747	-32.3449	112.415	-10.7604	9.72461	5.59508	5.61085	-22.2634	-4.94916	7.2387	-0.621826
0.3753	-99.191	69.0895	-11.3812	8.79965	3.15992	3.17868	-28.9871	0.556086	7.2387	-0.310913
0.3760	-151.031	113.638	-11.0915	7.27471	1.63794	1.95055	-27.4492	6.61742	6.04302	0
0.3767	-125.419	156.36	-8.64973	6.97472	1.63794	1.95055	-19.8314	9.39785	6.33386	0
0.3773	-26.536	126.15	-6.49764	5.14979	1.94233	1.66158	-10.0677	5.11599	6.94786	0
0.3780	58.0007	122.496	-4.96635	1.77493	1.31905	1.34853	1.84187	0.222434	5.71986	0.310913
0.3787	66.8461	138.058	-3.43506	-0.049998	1.01465	1.95055	15.2714	-0.0556086	5.42902	0
0.3793	25.9639	105.09	-4.67665	-0.649974	0.405861	1.95055	29.0049	1.77947	6.6247	0
0.3800	-38.7258	61.7652	-5.87685	-0.049998	0.710256	2.57666	41.8265	5.72768	7.2387	0
0.3807	-114.109	62.0754	-5.29744	1.17495	1.63794	2.57666	44.5625	10.2876	6.6247	0.310913
0.3813	-172.726	58.4047	-6.82873	0.24999	-0.20293	0.433456	35.1028	10.0095	5.42902	0
0.3820	-197.15	55.3543	-10.4707	-2.4999	-1.72491	-0.481618	22.2812	4.17064	4.49187	-0.310913
0.3827	-193.145	93.5095	-15.3543	-4.9248	-1.11612	-0.168566	12.5175	-4.33747	3.87787	0
0.3833	-200.494	105.711	-17.5064	-6.44974	-0.20293	0.746508	8.2437	-7.72959	2.97304	0.310913
0.3840	-166.301	60.2314	-15.644	-7.07472	0.405861	2.26361	6.72371	-6.78425	2.35904	0.310913
0.3847	-34.1492	53.2174	-13.5333	-9.49962	-0.20293	1.66158	3.36186	-4.94916	1.74504	0
0.3853	55.5364	116.999	-11.0915	-12.8745	-0.507326	0.746508	0.0178822	-4.05943	1.13105	0.310913
0.3860	39.0779	168.579	-8.64973	-13.4745	-1.11612	1.34853	-3.03998	-6.5062	0.840206	0
0.3867	40.3101	125.237	-9.56022	-12.2495	-2.0293	1.66158	-7.92182	-7.1179	0.840206	-0.310913
0.3873	122.074	62.3684	-9.56022	-11.3495	-1.11612	2.26361	-8.52982	-5.89451	1.13105	0
0.3880	181.263	59.3181	-6.49764	-11.3495	0.101465	1.95055	-5.79384	-6.17255	1.4542	0
0.3887	132.46	71.2265	-4.38694	-12.5745	-1.11612	-0.168566	-6.70583	-4.94916	0.226209	0
0.3893	57.6927	63.9022	-2.23486	-12.8745	-2.0293	0.120405	-7.00983	-3.72577	-1.29262	0
0.3900	27.4601	62.3684	-0.99327	-12.5745	-2.63809	1.34853	-4.88184	-5.28281	-3.42545	0
0.3907	16.8105	68.4691	-0.703566	-12.8745	-3.24689	0.746508	-4.88184	-7.39594	-4.94429	0
0.3913	20.155	51.0804	0.496635	-11.0246	-2.63809	1.95055	-3.34397	-6.78425	-4.03945	0
0.3920	32.6529	46.2033	-0.413862	-8.29967	-1.11612	3.49173	-1.21599	-4.67112	-3.74861	0
0.3927	29.6165	61.455	-4.05585	-6.77473	-1.42051	3.49173	-2.73598	-3.72577	-4.03945	-0.310913
0.3933	42.4224	79.7743	-7.40814	-6.77473	-2.3337	1.95055	-4.25597	-3.11408	-3.74861	0
0.3940	80.5762	102.35	-10.4707	-6.77473	-2.94249	0.433456	-5.79384	-2.83604	-4.03945	0
0.3947	75.6914	103.574	-11.0915	-4.02484	-2.63809	0.120405	-6.40183	-1.61265	-2.81146	0
0.3953	27.1521	72.1399	-8.31864	-1.27495	-1.42051	0.746508	-5.18584	0.834129	-0.678628	0
0.3960	-10.0775	64.8156	-5.29744	1.47494	-1.42051	-0.79467	-5.79384	1.16778	0.226209	-0.310913
0.3967	-31.1127	73.3634	-3.76615	4.82481	-2.0293	-2.31177	-7.00983	0.834129	1.74504	0
0.3973	-42.1144	71.2265	-5.87685	6.67473	-1.72491	-3.53989	-8.22582	-0.0556086	3.29619	0.310913
0.3980	-39.65	80.6877	-9.56022	7.5747	-2.3337	-5.68309	-10.0677	-1.00095	3.87787	0
0.3987	-10.0775	109.675	-9.56022	9.72461	-1.11612	-5.05699	-9.45969	-0.667303	5.71986	0
0.3993	25.6559	88.9254	-7.73923	11.5495	0.405861	-3.53989	-7.61782	-4.05943	7.2387	0
0.4000	6.11692	62.3684	-3.14535	12.1495	0.405861	-3.53989	-7.92182	-10.4544	7.56185	0.310913
0.4007	-46.075	87.7018	2.02793	12.4495	1.01465	-3.85295	-8.52982	-8.95298	7.56185	0
0.4013	-1.80427	80.9979	1.40713	10.3246	0.710256	-4.45497	-9.45969	-0.38926	6.33386	0
0.4020	146.498	52.304	-2.52456	7.87468	0.101465	-4.76802	-9.76369	5.39403	5.71986	0.310913
0.4027	212.42	73.0532	-2.52456	7.5747	0.710256	-3.22684	-8.22582	6.95107	5.71986	0
0.4033	115.077	88.9254	-0.0827725	7.5747	1.01465	-2.31177	-7.31383	7.56277	5.71986	0
0.4040	-29.5725	50.7702	1.40713	5.74977	0.405861	-3.85295	-8.52982	10.8993	5.10587	-0.310913
0.4047	-118.686	25.454	-1.94515	3.92484	-0.507326	-5.37004	-9.13781	12.1227	4.20103	-0.310913
0.4053	-139.149	59.6283	-6.20794	3.92484	-1.42051	-5.05699	-8.83381	6.61742	2.97304	0
0.4060	-102.844	80.9979	-2.52456	4.52482	-1.11612	-2.93787	-7.61782	4.78234	3.58703	0
0.4067	-31.4207	56.8881	4.46971	3.92484	-1.11612	-1.39669	-6.09783	10.0095	4.81503	0.310913
0.4073	20.155	46.2033	6.29071	2.99988	-1.72491	-1.70974	-5.79384	7.56277	3.87787	0
0.4080	34.8092	59.0251	5.09051	1.77493	-2.94249	-2.31177	-6.40183	0.222434	2.0682	0
0.4087	23.1915	37.6554	3.26951	-0.649974	-4.47896	-2.93787	-7.00983	-5.89451	-0.0646312	0.310913
0.4093	2.46437	31.5547	3.84892	-1.57494	-4.47896	-2.93787	-7.31383	-11.3441	-1.61578	0.310913
0.4100	10.3856	67.2627	7.24259	-1.27495	-2.63809	-0.79467	-6.40183	-8.00763	-2.19746	0
0.4107	25.3478	77.017	7.5323	-1.87493	-1.72491	0.120405	-5.18584	-1.61265	-3.13461	0
0.4113	11.9258	46.8065	2.35902	-3.39986	-2.3337	-0.79467	-5.79384	-0.667303	-4.03945	-0.310913
0.4120	-6.99706	51.7008	-5.58714	-5.54978	-2.94249	-2.31177	-5.79384	-0.38926	-4.65345	-0.310913
0.4127	-16.7665	94.7159	-13.823	-5.84977	-2.0293	-2.0228	-4.55996	3.8926	-5.26744	0
0.4133	-35.3813	65.729	-17.1753	-6.44974	-0.507326	-0.481618	-2.73598	6.61742	-4.94429	0
0.4140	-37.5377	12.322	-13.2022	-7.97468	0.405861	0.120405	-1.51999	6.33938	-4.03945	0
0.4147	3.65255	55.6645	-8.02893	-7.67469	0.101465	-0.481618	-2.73598	5.39403	-3.74861	0
0.4153	13.7301	93.1993	-7.40814	-7.67469	-0.507326	-1.70974	-4.25597	3.8926	-4.94429	0
0.4160	-36.9216	37.9656	-9.56022	-8.59966	-0.507326	-2.62482	-4.25597	3.55895	-5.88144	0
0.4167	-70.8067	17.2164	-9.84993	-7.07472	0.101465	-2.0228	-3.03998	2.94725	-4.94429	0
0.4173	-50.0355	40.1026	-7.11843	-4.02484	1.01465	-1.08364	-1.21599	0.834129	-4.03945	0
0.4180	-21.0352	36.1216	-4.96635	-3.39986	1.31905	-1.70974	-1.21599	-1.279	-3.42545	0
0.4187	-7.9212	25.747	-4.96635	-4.02484	0.405861	-2.31177	-3.03998	-3.11408	-2.52062	0.310913
0.4193	22.2674	34.2949	-5.58714	-3.39986	-0.20293	-2.62482	-4.88184	-2.83604	-3.13461	0.310913
0.4200	45.7669	68.4691	-4.96635	-3.39986	-0.20293	-2.93787	-4.88184	-1.279	-3.42545	0
0.4207	21.6953	71.2265	-2.85565	-2.79989	0.710256	-2.62482	-3.64797	-0.0556086	-2.81146	0
0.4213	-17.0746	52.9072	-0.413862	-1.87493	1.31905	-1.39669	-2.43198	0.834129	-1.90662	0
0.4220	-41.4983	61.455	0.206931	-1.87493	0.405861	-2.31177	-3.64797	0.222434	-2.19746	0
0.4227	-48.8034	75.5004	0.496635	-2.4999	-0.507326	-3.53989	-4.88184	0.222434	-2.52062	0
0.4233	-38.7258	66.9525	2.02793	-2.79989	-0.507326	-2.93787	-4.55996	2.33556	-3.13461	0
0.4240	-38.4618	42.5325	3.55922	-2.17491	0.101465	-1.70974	-3.34397	3.8926	-2.52062	0
0.4247	-47.6152	36.742	3.84892	-1.27495	0.405861	-1.39669	-2.43198	3.55895	-2.19746	0.310913
0.4253	-40.5741	61.455	3.26951	-0.974961	0.405861	-1.70974	-2.73598	2.94725	-2.81146	0
0.4260	-29.0004	57.8015	0.827725	-1.87493	-0.507326	-2.31177	-3.64797	1.77947	-3.42545	-0.310913
0.4267	-24.1156	23.61	-0.703566	-2.79989	-1.11612	-2.31177	-3.03998	-0.667303	-4.03945	0
0.4273	-14.3462	17.5093	-0.413862	-2.79989	-0.20293	-1.39669	-2.43198	-1.61265	-4.03945	0
0.4280	-3.03646	34.2949	-1.94515	-2.79989	0.405861	-0.481618	-1.51999	-0.0556086	-4.03945	0
0.4287	-0.616093	36.742	-2.85565	-3.09988	0.405861	-0.168566	-1.82399	-1.279	-4.36261	-0.310913
0.4293	-3.03646	21.1801	-1.61406	-3.09988	0.101465	-0.79467	-2.73598	-4.67112	-4.65345	0
0.4300	-5.19278	29.4178	-0.413862	-3.39986	-0.20293	-1.08364	-2.73598	-6.5062	-5.26744	0.310913
0.4307	-6.07292	52.304	0.496635	-3.39986	-0.507326	-0.168566	-2.12798	-8.34129	-5.26744	0
0.4313	-4.26864	40.1026	1.40713	-2.4999	-0.20293	0.120405	-2.12798	-7.72959	-4.65345	0
0.4320	-2.11232	31.2445	2.64872	-2.4999	0.405861	0.746508	-1.51999	-3.44773	-4.65345	0
0.4327	-5.19278	70.9163	2.64872	-2.79989	0.405861	0.433456	-0.911993	-3.44773	-4.94429	-0.310913
0.4333	-3.65255	64.2124	2.02793	-2.17491	-0.20293	-0.168566	-0.607995	-1.89069	-4.36261	0
0.4340	8.53729	12.9424	2.02793	-2.17491	-0.20293	0.120405	-0.303998	7.22911	-3.74861	0.310913
0.4347	10.6936	22.0935	1.40713	-1.57494	0.101465	0.120405	-0.607995	9.0642	-3.74861	0
0.4353	4.57669	38.879	0.206931	-0.649974	0.710256	-0.168566	-1.51999	2.66921	-4.03945	0.310913
0.4360	13.7301	26.3674	-0.413862	-0.349986	1.01465	0.433456	0.0178822	1.16778	-3.42545	0.310913
0.4367	18.9229	23.0069	-0.99327	-0.649974	0.405861	-0.481618	0.0178822	0.222434	-3.13461	-0.310913
0.4373	7.04106	32.1579	-0.99327	-1.57494	-1.42051	-3.53989	-3.64797	-0.667303	-4.36261	-0.310913
0.4380	-3.03646	30.3311	1.73822	-1.57494	-1.42051	-2.93787	-4.55996	3.28091	-4.03945	-0.310913
0.4387	-39.3419	31.5547	4.46971	-0.974961	-0.811721	-1.08364	-2.43198	6.95107	-3.42545	-0.310913
0.4393	-133.956	29.4178	4.8008	-0.049998	-0.20293	-0.79467	-0.911993	8.78615	-3.13461	0
0.4400	-176.687	5.91113	3.55922	-0.049998	0.710256	0.120405	0.32188	11.2329	-3.42545	0
0.4407	-90.9177	4.68754	0.496635	-1.57494	0.101465	0.433456	0.32188	12.1227	-4.36261	0.310913
0.4413	3.65255	-4.4635	-2.23486	-2.4999	-0.20293	0.120405	0.0178822	11.2329	-5.26744	0.310913
0.4420	40.3101	-17.2853	-2.52456	-3.09988	-0.20293	0.433456	-0.607995	8.4525	-6.17228	0
0.4427	55.8444	-25.8159	-1.32436	-4.32483	-1.11612	0.433456	-0.607995	6.00573	-7.40027	0
0.4433	51.5758	-42.3085	1.11743	-4.02484	0.101465	1.34853	1.23387	8.78615	-7.40027	0.310913
0.4440	45.7669	-31.3135	2.35902	-4.02484	1.01465	2.26361	2.14587	10.8993	-6.49544	0.310913
0.4447	66.8461	-19.1121	1.73822	-4.62481	0.710256	1.95055	0.929875	8.78615	-6.49544	0.310913
0.4453	71.7308	-16.9751	0.827725	-4.32483	0.710256	2.26361	1.23387	11.2329	-7.10943	0.310913
0.4460	42.4224	-31.9339	-1.94515	-4.9248	0.101465	2.26361	0.32188	16.6826	-8.91911	0
0.4467	20.155	-48.099	-3.43506	-5.54978	0.405861	2.86563	0.32188	18.2396	-9.82395	0
0.4473	31.1567	-47.1856	-3.76615	-4.9248	1.31905	4.09375	3.05786	16.0709	-8.91911	0
0.4480	33.8851	-34.9842	-4.38694	-5.24979	1.31905	3.17868	2.44986	12.4563	-9.24226	0
0.4487	-6.07292	-14.8381	-3.43506	-5.84977	0.405861	2.57666	-0.303998	9.67589	-10.1471	0
0.4493	-23.1915	14.459	-3.14535	-5.24979	-0.507326	1.95055	-0.303998	6.95107	-9.5331	0
0.4500	34.5012	14.1488	-4.38694	-4.02484	-0.811721	1.66158	0.32188	6.95107	-8.01427	0
0.4507	131.228	-28.5733	-3.43506	-2.4999	-0.20293	1.95055	0.625877	9.67589	-6.49544	-0.310913
0.4513	172.11	-17.8885	-2.85565	-1.57494	-0.20293	1.66158	0.929875	10.8993	-4.94429	0
0.4520	148.346	3.17098	-1.94515	-1.57494	-1.11612	1.03548	0.625877	9.39785	-3.74861	0.310913
0.4527	119.654	-35.2772	0.496635	-1.87493	-1.11612	1.66158	0.625877	7.56277	-4.03945	0
0.4533	91.2698	-61.8342	1.73822	-2.4999	-0.811721	1.34853	0.0178822	5.72768	-6.17228	0
0.4540	56.4605	-43.825	2.64872	-1.87493	-0.20293	1.95055	0.929875	3.8926	-7.10943	0
0.4547	4.57669	-39.5511	2.64872	-1.57494	0.101465	2.57666	2.14587	1.16778	-6.78628	0
0.4553	-31.4207	-53.2863	1.11743	-2.17491	-0.507326	2.26361	1.23387	0.556086	-7.10943	0
0.4560	-10.9577	-45.0486	0.206931	-2.17491	-0.507326	2.57666	0.929875	2.05752	-7.40027	0.310913
0.4567	34.1932	5.91113	-2.52456	-1.87493	-1.11612	1.95055	0.32188	0.556086	-7.40027	0
0.4573	43.3465	9.89209	-4.05585	-1.57494	-0.811721	1.66158	0.625877	-2.50239	-6.78628	-0.310913
0.4580	24.1156	-70.0718	-1.94515	-0.974961	0.405861	2.86563	1.53787	-3.72577	-5.88144	0
0.4587	54.9203	-70.0718	-0.703566	-0.974961	0.405861	2.57666	1.23387	-2.50239	-5.88144	0.310913
0.4593	54.0402	-4.4635	-1.32436	-1.27495	-0.507326	1.66158	0.625877	-1.279	-5.88144	0.310913
0.4600	-68.3423	20.5597	-0.703566	-1.27495	-1.11612	0.746508	0.0178822	-1.279	-6.17228	0
0.4607	-176.379	-9.65082	1.40713	-1.57494	-1.42051	1.03548	0.0178822	1.16778	-5.88144	0.310913
0.4613	-194.685	-61.8342	1.40713	-1.57494	-1.42051	0.746508	-0.303998	3.28091	-5.26744	0.310913
0.4620	-147.378	-34.674	0.206931	-0.649974	-1.42051	-0.168566	-0.911993	3.28091	-4.94429	-0.310913
0.4627	-66.8021	-12.7012	-1.61406	0.24999	-1.42051	1.03548	0.32188	3.8926	-3.74861	0
0.4633	-14.0381	-45.0486	-4.96635	0.24999	-1.72491	1.34853	0.929875	1.77947	-3.42545	0
0.4640	1.23219	-31.6237	-7.73923	-0.349986	-2.3337	-0.79467	-1.82399	-1.61265	-4.36261	-0.310913
0.4647	17.6907	-29.4867	-6.20794	-0.649974	-2.0293	-0.79467	-4.25597	-0.0556086	-4.03945	-0.310913
0.4653	36.3055	-72.2088	-1.32436	0.24999	-1.11612	1.66158	-2.43198	2.94725	-2.81146	0
0.4660	35.4253	-49.9257	1.40713	-0.349986	-0.811721	1.95055	-1.82399	2.94725	-3.13461	-0.310913
0.4667	22.8835	38.5688	1.40713	-0.974961	-0.811721	0.120405	-3.95197	0.222434	-4.65345	-0.621826
0.4673	15.8864	27.884	2.02793	-1.27495	-1.11612	0.433456	-2.73598	-2.22434	-4.36261	0
0.4680	14.0381	-64.8845	3.55922	-1.57494	-0.811721	2.26361	0.0178822	-2.50239	-4.03945	0
0.4687	14.6542	-66.1081	4.46971	-1.87493	-0.507326	3.49173	1.23387	-0.667303	-4.65345	0
0.4693	21.0792	-31.0032	4.18001	-2.17491	-0.20293	3.7807	2.14587	1.16778	-4.94429	0.310913
0.4700	28.6923	-78.9299	4.46971	-3.09988	-0.811721	3.7807	2.44986	2.33556	-5.26744	0.310913
0.4707	25.3478	-103.333	4.46971	-3.72485	-1.42051	3.7807	2.14587	2.94725	-5.88144	0.310913
0.4713	12.5419	-65.4877	5.38021	-4.02484	-1.72491	3.49173	1.84187	2.94725	-6.17228	0.310913
0.4720	0	-69.7616	6.6218	-3.09988	-0.811721	3.7807	4.27385	4.17064	-5.55828	0
0.4727	-13.7301	-91.7345	5.7113	-2.4999	-0.20293	4.09375	6.41971	5.72768	-4.94429	0
0.4733	-15.8424	-65.1947	3.84892	-2.79989	-0.20293	3.7807	5.20372	5.39403	-4.94429	0.310913
0.4740	-6.38096	-62.4373	2.64872	-2.4999	-0.811721	2.86563	3.36186	3.8926	-5.26744	0.310913
0.4747	-12.8059	-91.7345	1.40713	-2.17491	-2.0293	2.26361	1.84187	2.66921	-5.55828	0
0.4753	-8.22924	-74.3458	-0.413862	-1.27495	-2.0293	2.26361	1.23387	3.55895	-4.94429	0.310913
0.4760	59.805	-45.3588	-1.94515	0.24999	-0.811721	2.86563	2.44986	6.33938	-3.74861	0
0.4767	124.539	-63.3507	-1.94515	0.549978	-0.507326	2.57666	3.05786	7.22911	-2.19746	0
0.4773	102.535	-68.2451	-1.94515	0.549978	-1.42051	1.66158	2.44986	6.61742	-1.29262	0
0.4780	40.002	-45.3588	-1.32436	1.47494	-2.0293	1.34853	1.53787	7.56277	-0.678628	0
0.4787	-17.9987	-25.8159	0.827725	1.77493	-2.0293	1.03548	1.84187	8.17446	0.840206	0
0.4793	-32.6529	-33.4504	3.26951	2.3999	-0.811721	1.95055	3.36186	8.78615	2.6822	0
0.4800	17.1186	-22.7656	3.84892	2.69989	-0.507326	2.57666	4.57785	10.2876	2.6822	0
0.4807	64.6898	-4.75647	2.35902	2.07492	-2.0293	1.03548	2.14587	8.17446	-1.90662	0
0.4813	64.1177	-15.7515	1.73822	2.07492	-2.63809	0.120405	-0.303998	4.50429	-5.88144	0
0.4820	35.7334	-3.84309	2.64872	2.3999	-2.63809	0.433456	0.0178822	4.50429	-6.17228	0
0.4827	14.9623	-3.55012	3.26951	2.3999	-2.63809	0.746508	1.23387	5.11599	-4.94429	0
0.4833	11.6178	-15.7515	4.46971	2.3999	-1.72491	1.66158	2.44986	3.28091	-0.678628	0
0.4840	8.84533	0.120635	2.35902	0.549978	-2.3337	1.03548	1.53787	-0.0556086	1.13105	0
0.4847	3.08046	-2.01633	-2.23486	-1.27495	-3.55128	-0.168566	-1.21599	-1.61265	1.74504	-0.310913
0.4853	-4.88474	-16.6649	-3.76615	-0.349986	-3.24689	0.120405	-1.82399	-1.279	8.17585	-0.310913
0.4860	-9.46143	1.03402	-3.43506	0.24999	-2.0293	0.120405	-0.607995	-1.00095	14.5743	0.310913
0.4867	-1.49623	19.9565	-0.413862	0.874965	-1.42051	1.03548	1.23387	0.834129	13.9603	0.310913
0.4873	6.73302	22.0935	2.64872	2.99988	-2.0293	1.03548	0.929875	2.05752	17.9352	0
0.4880	4.57669	-0.18957	2.64872	8.19967	-2.94249	-0.79467	-1.51999	1.16778	53.3208	-0.310913
0.4887	2.77242	-4.1533	3.55922	12.4495	-2.3337	-0.79467	-1.82399	1.16778	78.6562	-0.310913
0.4893	7.04106	11.7188	4.46971	10.0246	-1.42051	0.433456	-0.607995	1.77947	74.3905	0
0.4900	10.3856	-27.0395	5.7113	7.87468	0.101465	1.66158	1.23387	3.28091	125.643	0
0.4907	11.9258	-63.0577	6.9115	7.5747	0.405861	1.95055	2.14587	3.55895	146.099	-0.310913
0.4913	9.15338	-23.386	2.02793	0.549978	-2.0293	0.120405	-0.607995	0.222434	32.8973	0
0.4920	-5.80888	-5.06668	-3.43506	-5.54978	-3.55128	-0.481618	-2.12798	-1.279	-39.4574	0.310913
0.4927	-20.7271	5.30795	-2.85565	-6.14975	-3.24689	0.746508	-0.911993	0.222434	-35.4825	0
0.4933	-19.847	34.2949	0.206931	-4.32483	-2.3337	1.95055	0.929875	0.834129	-92.5519	0
0.4940	-18.3068	9.89209	2.64872	2.69989	-1.72491	2.26361	2.14587	1.77947	-116.659	0
0.4947	-23.4995	-2.92971	1.40713	10.6246	-2.94249	0.746508	0.625877	1.44582	-47.9887	0
0.4953	-23.1915	-0.499774	-0.413862	12.7745	-3.55128	-0.168566	-1.51999	-0.0556086	-9.24226	-0.310913
0.4960	-17.6907	-14.5279	0.206931	12.1495	-2.3337	-1.08364	-2.12798	0.222434	-9.82395	-0.310913
0.4967	-14.3462	-1.10295	0.827725	12.4495	-1.42051	-2.0228	-2.43198	0.556086	20.9728	-0.310913
0.4973	-12.8059	-5.37688	2.64872	14.2994	-0.507326	0.120405	0.0178822	0.556086	89.0295	-0.621826
0.4980	-10.9577	-13.9247	2.35902	13.9994	0.405861	0.433456	0.625877	0.556086	142.738	0
0.4987	-10.3856	7.44492	0.206931	11.2495	-0.20293	-1.70974	-1.82399	-1.00095	147.327	0.310913
0.4993	-9.46143	33.3815	1.73822	12.4495	1.01465	-1.08364	-1.21599	-1.00095	212.637	0
0.5000	-7.9212	37.6554	2.64872	10.3246	2.24673	-0.481618	-0.607995	-0.38926	299.307	0
0.5007	-6.38096	30.6413	2.93842	0.549978	2.24673	-0.79467	-0.911993	-1.279	125.643	0
0.5013	-5.50083	26.0572	3.26951	-3.39986	0.710256	0.120405	-0.303998	-1.61265	-94.0707	-0.310913
0.5020	-5.80888	6.53153	1.40713	10.3246	-2.3337	-0.168566	-1.82399	-1.89069	-50.7355	-0.621826
0.5027	6.11692	-23.0758	1.40713	34.7486	-3.55128	-1.39669	-2.43198	-1.89069	-47.6978	-0.310913
0.5033	33.8851	-35.8976	3.84892	53.0479	-2.94249	-0.168566	-0.303998	-1.61265	-141.672	0
0.5040	50.6516	-41.3779	5.38021	57.3227	-3.85568	2.26361	0.929875	-1.61265	-41.267	0
0.5047	52.808	-55.4233	5.7113	57.0227	-3.24689	3.7807	1.53787	-1.61265	132.979	0
0.5053	62.2694	-47.7888	5.38021	54.8728	-2.63809	3.49173	1.53787	-1.89069	68.606	0
0.5060	74.1512	-22.7656	5.09051	53.9728	-2.63809	2.57666	0.32188	-2.83604	-160.285	0
0.5067	70.1906	-11.1674	4.46971	53.6729	-2.0293	2.26361	0.0178822	-3.11408	-230.475	0
0.5073	87.3092	-5.06668	3.84892	6.97472	-1.11612	2.26361	0.0178822	-1.89069	-116.045	-0.310913
0.5080	120.842	18.4227	3.26951	-75.122	0.101465	2.26361	-0.303998	-0.38926	5.42902	0
0.5087	59.805	44.9797	1.73822	-112.67	1.31905	2.26361	0.32188	0.556086	65.8592	0.310913
0.5093	-53.072	24.8336	0.206931	-88.8464	1.01465	1.03548	-0.303998	0.834129	30.7321	0
0.5100	-90.0376	-19.405	-0.99327	-53.1479	-1.42051	-0.79467	-2.12798	1.16778	-59.8808	0
0.5107	-102.227	-24.9026	-0.703566	-40.9484	-3.24689	-0.79467	-2.12798	0.834129	-90.0959	0
0.5113	-128.147	-36.1906	0.827725	-33.6237	-3.24689	1.03548	-1.51999	0.222434	-65.9885	-0.310913
0.5120	-127.575	-56.3366	2.64872	-15.2994	-2.63809	2.86563	0.0178822	-1.00095	-55.6152	0
0.5127	-128.147	-51.1493	3.26951	0.549978	-2.63809	4.69578	1.23387	-4.05943	-32.1217	0.310913
0.5133	-148.61	-34.3638	4.18001	6.67473	-1.72491	6.23696	1.84187	-6.5062	31.0553	0
0.5140	-168.149	-27.3497	6.00101	11.2495	-0.20293	6.83898	3.36186	-4.94916	93.0043	0
0.5147	-156.224	-23.679	5.7113	28.0239	0.405861	5.61085	3.36186	-5.28281	139.7	0
0.5153	-40.5741	-17.5783	4.18001	38.3985	0.101465	4.40681	2.75386	-7.1179	209.89	0
0.5160	99.8071	-0.792746	3.26951	13.6745	-0.507326	3.7807	3.05786	-5.28281	241.01	0
0.5167	106.804	29.728	3.26951	-13.7744	-1.11612	2.57666	3.36186	-3.11408	66.15	0
0.5173	23.1915	24.2304	4.46971	-18.6743	-0.811721	2.86563	3.66585	-3.44773	-242.981	0
0.5180	-42.4224	-4.4635	5.09051	-22.0241	-1.11612	3.49173	3.66585	-4.33747	-329.07	0
0.5187	-29.3084	-17.8885	4.46971	-17.4493	-1.11612	2.57666	2.44986	-4.67112	-131.912	0
0.5193	43.9626	-20.9388	5.09051	16.1244	0.405861	2.86563	3.66585	-3.44773	-6.17228	0
0.5200	59.541	-17.8885	4.18001	35.3486	1.01465	3.17868	4.27385	-2.83604	-2.81146	0.310913
0.5207	20.4631	-20.3356	3.26951	11.8495	1.31905	2.26361	3.05786	-4.05943	185.459	0
0.5213	16.5025	-27.6599	2.93842	-11.6495	2.24673	2.86563	2.75386	-5.28281	451.578	0
0.5220	33.5771	-8.11703	1.73822	-24.149	1.94233	3.17868	2.14587	-7.1179	377.414	0
0.5227	39.3859	29.4178	4.18001	-23.2491	4.0731	3.49173	3.05786	-6.5062	71.0297	0
0.5233	36.0414	19.9565	6.29071	-15.9244	5.29068	2.26361	3.36186	-4.67112	-33.6405	0
0.5240	27.1521	-8.42723	4.46971	-33.9236	2.55112	1.66158	1.84187	-4.94916	57.6187	0
0.5247	20.7711	-9.03041	2.93842	-55.8978	-0.20293	1.66158	0.625877	-5.89451	31.3461	0
0.5253	16.8105	-6.89344	1.40713	-45.8232	-3.24689	-1.39669	-2.12798	-6.5062	-166.716	-0.310913
0.5260	12.8059	-23.386	2.02793	-13.7744	-3.55128	-1.39669	-2.43198	-5.28281	-322.025	-0.310913
0.5267	11.0017	-42.6015	4.46971	20.0992	-1.72491	1.03548	0.929875	-2.50239	-312.589	0
0.5273	11.0017	-33.1402	4.18001	67.6973	-2.3337	-0.79467	1.84187	-2.83604	-234.45	0
0.5280	11.3097	-27.3497	3.26951	140.319	-3.24689	-2.93787	2.14587	-3.72577	-157.248	0
0.5287	10.6936	-31.3135	2.93842	219.366	-3.55128	-2.62482	1.23387	-4.67112	-56.2292	0
0.5293	10.6936	-16.6649	2.35902	281.939	0.405861	-2.31177	0.32188	-5.28281	54.5487	0
0.5300	11.3097	-17.5783	3.26951	336.862	11.0887	-2.62482	2.75386	-3.72577	235.225	-0.310913
0.5307	11.3097	-38.3275	4.18001	337.162	16.5823	-2.62482	4.57785	-2.83604	454.034	0
0.5313	10.6936	-30.0899	3.84892	216.941	15.3647	-1.39669	4.57785	-3.44773	426.243	0.310913
0.5320	11.0017	-47.7888	3.26951	134.52	14.1471	-1.08364	4.89973	-4.05943	131.46	0.310913
0.5327	11.3097	-78.6197	2.64872	194.967	11.6975	-0.481618	4.27385	-4.67112	-166.102	0
0.5333	10.6936	-68.8482	4.18001	169.618	8.34913	3.49173	5.81172	-3.44773	-345.518	-0.310913
0.5340	10.0775	-60.0074	5.38021	-57.4227	6.20387	4.69578	9.15569	-1.89069	-326.905	0
0.5347	10.3856	-59.094	4.46971	-228.616	3.46431	0.120405	8.2437	-2.83604	-188.368	0
0.5353	9.46143	-35.2772	3.55922	-152.344	0.405861	-4.45497	5.50772	-3.44773	-112.394	-0.310913
0.5360	8.22924	4.99774	2.64872	-19.8992	-3.24689	-7.20019	3.66585	-3.72577	-145.937	0
0.5367	7.34911	5.91113	2.64872	-5.84977	-5.39215	-5.68309	3.05786	-3.72577	-119.697	0
0.5373	5.19278	-32.2268	3.84892	-14.0994	-5.39215	4.09375	3.96985	-1.279	165.036	0
0.5380	4.26864	-27.9529	3.26951	-58.6477	-5.69655	15.3877	3.36186	-0.0556086	258.396	0
0.5387	3.08046	-32.8472	2.35902	-229.541	-6.91413	21.1912	1.23387	-0.38926	-19.9064	-0.310913
0.5393	1.54023	-58.7838	1.11743	-315.612	-9.97258	21.7932	-0.303998	-1.279	-91.3239	0
0.5400	1.54023	-39.2409	0.206931	-204.517	-12.4077	21.1912	0.929875	-1.61265	59.7516	0
0.5407	3.65255	-25.2128	2.35902	-90.3714	-11.1902	20.8782	5.20372	0.556086	138.182	0
0.5413	6.42497	2.56781	3.55922	-52.2479	-9.0449	15.0747	6.11572	1.77947	171.725	0.310913
0.5420	4.88474	0.120635	1.73822	-45.8232	-7.21852	11.1013	3.05786	0.556086	206.238	0.310913
0.5427	-8.53729	-41.9983	1.73822	-46.7481	-5.39215	14.7857	1.23387	-0.38926	327.066	0
0.5433	-24.4237	-37.7244	2.64872	-40.0234	-4.47896	15.0747	0.625877	-0.667303	399.712	0
0.5440	-28.6923	-37.7244	0.827725	-55.2978	-3.85568	10.8123	0.929875	0.222434	217.516	0
0.5447	-25.3038	-59.094	-2.52456	-86.1216	-6.00094	9.27115	2.14587	0.834129	70.7389	0
0.5453	-25.3038	-42.9117	-5.29744	-73.2971	-9.65369	8.98218	1.53787	0.556086	62.1752	0.310913
0.5460	-32.3449	-62.7475	-5.87685	-65.9724	-10.8858	6.52593	0.0178822	-0.38926	-73.615	0
0.5467	-34.1492	-95.095	-4.05585	-119.07	-9.0449	3.17868	-0.303998	-0.38926	-195.994	0
0.5473	3.08046	-81.9802	-0.99327	-140.419	-4.78336	3.7807	0.929875	1.16778	-107.191	0.310913
0.5480	68.6944	-71.2954	0.496635	-81.8467	0.710256	7.75405	1.84187	2.33556	62.4984	0.310913
0.5487	86.077	-51.4595	0.827725	-48.2731	4.0731	8.98218	1.23387	2.05752	223.301	0
0.5493	49.1554	-59.387	5.38021	-45.5232	5.29068	6.83898	0.929875	1.44582	375.604	0.310913
0.5500	22.2674	-81.3598	13.3264	-14.6994	5.29068	4.40681	-0.303998	0.556086	497.046	0
0.5507	15.2703	-70.382	16.0579	-84.5966	3.15992	1.66158	-1.82399	0.222434	410.085	0
0.5513	10.0775	-67.6246	10.5949	-245.415	1.94233	0.433456	-1.82399	0.556086	92.7135	0
0.5520	9.46143	-48.099	-0.413862	-248.765	1.63794	1.03548	0.0178822	1.77947	-177.671	0
0.5527	12.2338	-15.7515	-4.96635	-100.446	0.101465	2.26361	0.625877	2.94725	-398.031	0
0.5533	12.8059	-10.8744	-0.703566	40.8484	-1.42051	-0.168566	-1.51999	3.28091	-506.353	0.310913
0.5540	13.114	-34.3638	2.02793	156.494	-1.42051	-4.76802	-4.25597	4.78234	-373.601	0
0.5547	13.114	-48.4092	1.73822	220.291	-0.20293	-2.93787	-3.95197	6.00573	-246.665	-0.310913
0.5553	11.6178	-35.2772	-2.52456	255.39	0.710256	5.32188	-0.607995	5.11599	-191.115	0
0.5560	8.53729	-11.7878	-8.31864	293.213	1.31905	9.89725	3.36186	4.17064	-132.817	0
0.5567	5.19278	-16.3547	-12.2917	251.715	1.31905	8.06711	4.27385	3.8926	-73.001	0
0.5573	3.65255	-23.679	-14.4438	207.767	2.85552	5.61085	2.44986	4.50429	-25.1092	0
0.5580	3.9606	-5.98006	-14.4438	190.992	10.1755	4.69578	2.75386	6.00573	-35.4825	0
0.5587	3.9606	-2.01633	-13.2022	64.9474	18.4087	5.32188	4.57785	6.95107	-41.267	0
0.5593	3.9606	-46.2722	-5.29744	-27.5239	22.3803	9.27115	5.81172	7.56277	-25.7232	0
0.5600	6.11692	-76.7929	6.00101	14.5994	24.2067	11.4144	7.33171	7.84081	-23.8812	0
0.5607	8.53729	-65.4877	6.6218	41.7483	21.7715	6.83898	9.47757	6.61742	-54.0963	0.310913
0.5613	9.46143	-79.2229	1.11743	-14.6994	9.87111	-0.168566	8.8517	6.33938	-114.203	0.310913
0.5620	12.2338	-60.6106	-8.02893	-59.2476	-3.24689	-2.31177	5.81172	7.56277	-105.963	0.310913
0.5627	11.6178	-34.0536	-13.5333	20.3992	16.5823	-1.39669	4.89973	8.4525	-68.7353	0.310913
0.5633	1.23219	-64.5743	-5.29744	134.845	62.0532	-2.62482	3.36186	6.95107	-65.3745	0
0.5640	-7.3051	-62.1444	2.93842	169.318	82.8101	-1.39669	2.75386	6.33938	89.9667	0
0.5647	-8.22924	-60.0074	2.35902	158.944	74.258	1.66158	6.41971	7.22911	352.402	0
0.5653	-6.99706	-81.3598	0.206931	111.346	57.1684	2.57666	7.33171	6.61742	472.034	0
0.5660	-7.9212	-69.4686	-0.0827725	-22.9491	32.4544	5.61085	6.11572	6.61742	389.952	0
0.5667	-13.114	-90.5109	5.38021	-161.794	6.20387	8.66913	4.57785	7.84081	178.77	0
0.5673	-7.3051	-106.09	17.9202	-215.191	-20.9453	4.09375	0.32188	7.84081	50.5739	0
0.5680	17.1186	-64.8845	25.5353	-223.141	-50.863	-1.70974	-3.34397	7.84081	85.9918	0
0.5687	30.8487	-85.944	20.6517	-182.843	-11.799	-1.39669	-4.55996	8.17446	195.833	0
0.5693	38.1538	-103.04	10.8846	-111.746	108.437	1.66158	-4.55996	6.95107	125.643	0
0.5700	39.3859	-67.0215	5.09051	-89.1714	173.752	7.15203	-0.303998	6.33938	-205.753	0
0.5707	21.0792	-54.1997	-4.05585	-93.4463	148.11	14.1596	7.02771	7.22911	-331.203	0
0.5713	22.2674	-56.3366	-27.5632	-36.0736	95.6237	15.3877	9.15569	6.95107	-143.19	0
0.5720	49.4635	-50.5462	-43.1245	71.6721	34.5851	12.0164	7.33171	6.00573	-26.3049	0
0.5727	69.8825	-46.8754	-31.826	128.42	-22.1774	9.89725	5.50772	5.11599	-7.40027	0
0.5733	79.652	-67.0215	-18.4169	142.769	-59.4006	10.4993	4.57785	8.17446	-2.52062	0
0.5740	86.077	-72.812	-18.0858	189.167	-82.2883	12.9314	6.11572	8.78615	-62.9508	0
0.5747	101.919	-77.9993	-4.05585	245.315	-99.3779	13.8465	6.41971	2.66921	-167.912	0
0.5753	132.46	-98.7658	19.4515	278.264	-106.408	9.89725	4.27385	3.28091	-297.013	0
0.5760	76.6156	-86.8573	24.3351	281.014	-89.9271	7.75405	-0.303998	9.67589	-327.519	0
0.5767	-82.9965	-63.0577	16.0579	280.414	-45.6738	8.98218	-3.95197	8.17446	-200.583	0.310913
0.5773	-176.995	-58.4736	5.09051	262.389	5.29068	5.32188	-3.34397	9.0642	-72.387	0.310913
0.5780	-165.993	-95.7154	-5.58714	135.145	33.3675	1.03548	-1.21599	14.8475	-40.9762	0
0.5787	-126.959	-114.621	-13.2022	17.3493	43.4416	2.86563	-1.21599	14.5694	-48.8935	0
0.5793	-97.3427	-63.6609	-22.0589	57.3227	37.0348	4.09375	-2.12798	10.6212	-94.3616	0
0.5800	-72.3029	-32.8472	-21.4795	121.72	2.24673	4.09375	-2.43198	8.78615	-236.906	0
0.5807	-34.4572	-39.2409	5.7113	93.3213	-36.513	6.23696	-1.82399	8.78615	-334.531	0
0.5813	-10.3856	-58.7838	31.9502	24.674	-52.0806	12.3294	-1.21599	7.22911	-342.481	0
0.5820	-8.53729	-89.3045	21.8933	-28.1239	-51.7762	24.2254	-0.607995	5.11599	-406.563	0
0.5827	-2.72841	-60.0074	-7.11843	-28.7488	-57.8786	31.5701	0.32188	4.78234	-375.443	0
0.5833	-1.80427	-15.4413	-25.4112	4.22483	-70.9966	30.6309	-0.303998	3.55895	-161.804	0.310913
0.5840	-20.4191	-77.9993	-25.7422	-48.873	-75.8815	29.7158	-1.21599	5.11599	17.612	-0.310913
0.5847	-33.5771	-118.895	-16.5959	-67.7973	-65.503	24.5384	-3.34397	10.6212	80.789	-0.310913
0.5853	-33.269	-54.8201	-10.7604	154.669	-52.6894	21.1912	-6.09783	14.2914	136.63	0.310913
0.5860	-48.4953	-63.9711	-8.93943	425.983	-49.3266	26.3686	-6.09783	13.6797	241.333	0.310913
0.5867	-74.7673	-112.484	-7.11843	517.829	-44.7606	16.9048	-5.18584	13.3461	319.763	0
0.5873	-75.0753	-58.7838	0.206931	506.855	-31.9325	-0.168566	-4.55996	18.2396	328.908	0.310913
0.5880	-46.383	-35.8976	8.44279	403.084	-27.0622	3.49173	-3.95197	24.3566	292.295	0.310913
0.5887	-17.9987	-65.7979	11.1743	153.769	-32.5558	-4.14192	-5.48984	29.1945	250.155	0
0.5893	23.1915	-32.2268	8.7325	-75.722	-33.469	-52.0629	-7.92182	27.0814	330.136	0
0.5900	72.3469	-12.0808	2.64872	-182.543	-32.8602	-88.979	-11.2837	16.0709	595.932	0
0.5907	44.2707	-41.0849	1.73822	-176.743	-21.2642	-81.3453	-13.7157	6.61742	715.274	0
0.5913	-61.9613	-66.7113	1.40713	-182.243	14.4515	-54.2061	-14.3415	-4.05943	389.338	-0.310913
0.5920	-146.454	-64.8845	0.827725	-394.634	40.9919	-28.2469	-13.1077	-14.4026	-28.7609	0
0.5927	-133.34	-51.7697	8.44279	-589.351	44.9636	-13.9188	-10.9797	-19.2962	-167.298	0
0.5933	-37.5377	-52.0627	19.7412	-507.555	47.1088	-13.6057	-12.4997	-16.2377	-131.589	0
0.5940	29.9245	-24.2994	27.6874	-325.362	47.1088	-16.3509	-14.3415	-7.1179	-69.6401	0
0.5947	48.2313	2.2576	29.2187	-257.315	34.2807	-17.868	-12.1957	-4.94916	12.1184	0
0.5953	97.3427	-41.9983	31.3294	-293.638	9.26232	-24.5866	-11.2837	-8.61933	107.352	0
0.5960	147.422	-52.9761	42.6278	-314.687	-9.65369	-33.1353	-10.9797	-5.56086	84.1498	0.310913
0.5967	134.572	13.5456	59.0996	-278.664	-21.873	-37.1087	-6.40183	-0.38926	-8.01427	0
0.5973	70.1906	13.5456	58.8099	-189.567	-33.7734	-31.6182	2.14587	-2.22434	-19.2924	0
0.5980	-3.03646	-30.7103	20.9414	-75.122	-17.597	-22.7565	7.33171	-6.5062	-113.913	0
0.5987	-11.8818	-13.9247	-31.2466	27.0989	24.2067	-23.9846	8.5477	-5.89451	-291.519	0
0.5993	22.0033	-4.4635	-55.9542	105.546	45.5724	-30.9921	6.72371	-5.56086	-345.842	0
0.6000	6.73302	-25.8159	-49.2496	148.269	38.5568	-29.475	2.44986	-9.84272	-242.076	0
0.6007	-20.7271	-36.811	-29.3842	156.494	33.0632	-24.2976	-1.51999	-10.7325	102.473	0
0.6013	-40.2661	-33.1402	-15.3543	95.4712	30.0192	-24.5866	-7.00983	-9.23102	587.401	0
0.6020	-56.1525	-28.8663	-7.73923	18.5743	16.8867	-23.6715	-9.76369	-8.61933	765.621	0
0.6027	-7.9212	-25.2128	32.571	36.2735	4.68189	-17.266	-11.5877	-8.00763	580.97	0
0.6033	39.694	-13.3043	100.9	90.5964	-9.0449	-11.4625	-14.6455	-5.56086	236.13	-0.310913
0.6040	13.422	-30.0899	135.995	68.9222	-31.9325	-8.42832	-13.4117	-1.89069	-369.335	0
0.6047	-28.0762	-26.4363	133.553	-28.4239	-51.4718	-8.42832	-12.8037	0.834129	-854.263	0
0.6053	3.08046	2.2576	128.67	-145.319	-58.7918	-5.68309	-12.4997	3.55895	-722.125	0
0.6060	79.344	-15.7515	124.117	-246.64	-64.2854	-2.62482	-7.31383	3.55895	-373.31	0
0.6067	16.1944	-8.73744	76.1921	-267.389	-57.5742	-4.14192	-2.73598	2.05752	-247.279	0.310913
0.6073	-161.108	7.13471	-20.2379	-209.392	-19.1189	-1.39669	-2.73598	3.28091	-247.57	0
0.6080	-201.11	7.75512	-96.8438	-144.694	27.8739	3.49173	-5.48984	5.39403	-223.172	0
0.6087	-34.4572	1.03402	-131.319	-90.3714	103.871	3.7807	-6.09783	4.78234	-158.767	0.310913
0.6093	137.037	-4.4635	-126.145	-137.994	200.611	5.9239	-4.55996	0.556086	-131.589	0
0.6100	128.807	32.1579	-88.8977	-263.714	232.645	7.75405	-3.64797	-4.94916	-180.741	0.310913
0.6107	26.272	17.8195	-63.9004	-199.342	201.524	5.9239	-2.12798	-7.1179	-196.608	0
0.6113	-43.0385	8.3583	-72.4259	24.049	149.038	3.49173	3.36186	-6.17255	-73.615	0
0.6120	-63.7656	33.9847	-84.0141	121.42	72.1272	-0.481618	10.6936	-7.39594	57.2956	0
0.6127	-23.1915	-8.73744	-64.8109	101.271	-20.3365	1.03548	17.0954	-11.0661	39.2958	0
0.6133	28.0762	-10.8744	-34.5989	100.346	-95.1164	12.6425	26.8591	-14.1246	-13.5079	0
0.6140	51.5758	24.8336	-24.8317	55.7978	-127.15	25.7666	35.1028	-14.7363	-44.6279	-0.310913
0.6147	97.3427	3.48119	-26.0319	-73.897	-116.468	34.0022	26.8591	-12.5675	-111.166	-0.310913
0.6153	155.651	-11.4776	-25.4112	-161.194	-99.9867	36.1454	7.02771	-11.9558	-138.925	0.310913
0.6160	164.497	-0.499774	-23.5902	-118.145	-90.2315	31.5701	-7.61782	-14.1246	-128.875	0.310913
0.6167	112.305	-23.386	-16.8856	4.52482	-73.1419	20.5651	-16.1655	-12.9012	-199.969	0.310913
0.6173	27.4601	-8.73744	-7.11843	66.4723	-53.907	8.66913	-19.5274	-6.78425	-283.893	0
0.6180	-24.1156	26.6604	-0.413862	41.1484	-35.9042	-0.481618	-16.7735	0.222434	-243.304	-0.310913
0.6187	-8.22924	-6.60047	-0.0827725	75.022	-15.7706	-13.6057	-16.7735	4.50429	-151.14	0
0.6193	53.116	-6.60047	-6.82873	165.968	0.101465	-19.7223	-22.5674	6.61742	-106.577	0.310913
0.6200	95.2304	18.1297	-21.7692	211.442	-0.20293	-20.6373	-26.2332	8.78615	-89.4819	0.310913
0.6207	22.5754	3.77416	-48.008	208.092	-13.6253	-31.9072	-26.2332	8.4525	-92.2287	0
0.6213	-86.6491	-10.254	-42.8348	184.268	-25.2213	-34.9655	-25.6252	6.33938	-95.5896	0.310913
0.6220	-113.229	-16.6649	18.8307	195.267	-31.3237	-26.7298	-24.7132	1.77947	-44.6279	0.310913
0.6227	-100.687	9.89209	74.9919	175.418	-32.5558	-18.1811	-23.1932	-3.44773	-10.7611	0
0.6233	-88.4974	45.2899	95.4367	38.0985	-33.7734	-10.5474	-23.8012	-5.28281	-22.6532	0
0.6240	-74.7673	14.1488	96.968	-54.3728	-34.6866	-5.05699	-24.7132	-1.00095	-25.7232	0
0.6247	-44.5347	11.4086	77.7234	-32.6987	-21.2642	2.26361	-25.3212	4.50429	-50.7355	0
0.6253	-8.53729	40.1026	73.4606	-69.3222	6.81266	9.27115	-22.2634	6.61742	-83.3743	0.310913
0.6260	17.1186	1.03402	65.8041	-155.394	29.3959	2.26361	-12.1957	3.28091	-72.0961	0.310913
0.6267	72.655	-19.7152	-3.76615	-78.1719	38.8612	-21.8414	-6.09783	-2.50239	-23.8812	0.310913
0.6273	50.0796	18.7329	-34.2678	163.218	40.0787	-40.4559	-9.45969	-3.44773	15.8023	0.310913
0.6280	-72.611	13.5456	-10.7604	252.64	36.7304	-37.1087	-6.09783	-0.0556086	28.9225	0.310913
0.6287	-113.229	-25.2128	-62.3691	121.095	21.4671	-27.9579	2.75386	-0.0556086	63.6941	0
0.6293	-124.495	8.96147	-111.163	-13.4745	10.7843	-25.2127	7.9397	0.556086	145.808	-0.310913
0.6300	-183.992	63.2818	-60.217	-156.919	48.9352	-23.6715	11.6056	3.55895	232.478	0
0.6307	-188.304	53.8205	-7.40814	-312.862	106.307	-27.3318	10.9976	5.72768	261.756	0
0.6313	-72.611	13.2354	-8.02893	-385.485	116.989	-32.8223	6.72371	5.39403	241.01	0
0.6320	23.1915	11.4086	-16.2648	-348.261	94.1017	-34.0504	-0.607995	1.77947	173.89	0
0.6327	-114.417	7.13471	-13.5333	-216.716	61.7488	-39.8539	-11.2837	-4.94916	-0.0646312	0
0.6333	-365.915	-20.9388	-6.20794	-69.6222	12.0019	-47.7765	-18.9194	-9.56467	-116.045	0
0.6340	-434.874	-5.98006	1.73822	38.3985	-40.4846	-46.5725	-24.4092	-6.17255	-54.0963	0.310913
0.6347	-294.184	20.5597	3.26951	130.87	-64.2854	-45.3444	-31.723	-0.667303	-15.9316	0.310913
0.6353	-204.763	11.7188	1.11743	223.041	-74.3595	-49.9197	-35.6929	-0.0556086	-60.818	0
0.6360	-220.033	-7.82405	1.73822	282.839	-87.7819	-54.8082	-37.8388	-5.56086	-53.7732	0
0.6367	-218.185	22.0935	6.00101	335.937	-83.8247	-55.1212	-38.1428	-14.7363	31.6693	0
0.6373	-343.604	48.3403	9.97409	418.958	-59.4006	-49.9197	-30.2031	-24.1897	123.833	0
0.6380	-534.373	9.58188	6.9115	425.358	-38.0349	-41.371	-21.3514	-27.5262	159.833	0.310913
0.6387	-404.025	-21.8522	1.73822	339.011	-22.1774	-20.6373	-21.0474	-16.5714	189.434	0.310913
0.6393	-3.3445	9.58188	-3.76615	286.214	-2.63809	11.1013	-21.9594	4.78234	210.181	0
0.6400	326.221	30.6413	-10.7604	175.418	5.59508	37.3495	-17.6855	22.1878	31.0553	0
0.6407	521.875	10.4953	-12.002	-93.7463	-8.13171	48.3545	-9.45969	26.4697	-249.703	0
0.6413	520.643	-2.92971	-7.11843	-392.509	-20.6409	52.9298	-0.607995	18.5177	-298.855	0
0.6420	346.992	-2.92971	-0.413862	-574.702	-16.6838	84.9575	10.6936	15.7928	-155.406	0
0.6427	254.842	-16.6649	7.24259	-510.005	1.01465	140.801	21.3692	24.3566	-26.0141	0
0.6433	278.034	13.8558	11.1743	-294.538	29.0915	167.964	18.9373	28.9165	50.2831	0
0.6440	306.11	54.7511	11.1743	-144.094	43.1372	181.088	5.50772	20.6864	59.4284	-0.310913
0.6447	321.072	24.2304	9.97409	-62.6225	46.1812	215.885	-11.5877	6.33938	-8.01427	-0.310913
0.6453	354.033	11.7188	5.09051	-21.7241	55.6464	219.859	-25.3212	-2.22434	-87.3491	0.310913
0.6460	376.609	40.7058	-1.32436	-1.27495	47.1088	181.402	-28.0751	-0.0556086	-80.6274	0.310913
0.6467	297.573	51.0804	-2.85565	44.1982	17.4955	146.605	-21.3514	-1.61265	15.4792	0
0.6473	156.884	-3.23992	2.93842	99.746	-13.3209	114.866	-9.13781	-14.7363	82.017	0
0.6480	40.3101	1.63719	13.3264	106.146	-39.8758	75.8067	3.96985	-26.6365	86.2827	0.310913
0.6487	-31.4207	38.5688	20.9414	-5.24979	-57.2698	34.6043	13.7335	-30.5847	76.2325	0
0.6493	2.46437	-8.42723	16.0579	-195.967	-60.3138	-9.03034	25.0351	-26.0248	52.4159	-0.310913
0.6500	33.5771	-22.4726	5.09051	-341.236	-52.385	-58.7815	39.0726	-12.9012	14.8652	0
0.6507	-10.9577	-10.5642	0.206931	-367.485	-48.7178	-103.331	46.0825	-5.28281	-54.7103	0.310913
0.6513	24.1156	0.120635	-2.52456	-271.964	-52.6894	-125.293	48.5323	-6.78425	-120.925	0.310913
0.6520	179.151	30.9343	-8.02893	-129.745	-47.1958	-122.548	52.8062	-7.1179	-107.191	0
0.6527	420.219	39.1892	-9.27052	-55.8978	-34.991	-100.586	49.7483	-2.50239	-60.818	0
0.6533	525.219	-4.4635	-7.73923	-91.8963	-30.1062	-64.874	36.6228	3.28091	-40.9762	0
0.6540	255.767	-18.1987	-7.40814	-112.046	-32.5558	-33.7374	16.1834	7.84081	-26.0141	-0.310913
0.6547	-104.648	21.4731	-0.0827725	-53.4479	-33.7734	-15.1228	-5.18584	9.67589	-5.26744	0
0.6553	-341.492	-3.84309	14.8577	-37.8985	-39.5714	3.7807	-16.7735	12.7344	14.2835	0.310913
0.6560	-486.141	-27.9529	26.4458	-85.4966	-38.0349	6.52593	-19.2234	17.0162	31.9601	0.310913
0.6567	-485.525	-19.1121	33.1504	-98.3211	-11.1902	5.61085	-16.4695	19.463	44.7894	0
0.6573	-534.945	-38.9479	40.4757	-73.897	12.3063	34.6043	-10.6757	20.3527	47.8271	0
0.6580	-624.982	-33.7606	46.2698	-46.7481	53.82	69.4012	-1.51999	20.9644	41.1378	0.310913
0.6587	-595.674	-44.7384	45.0696	-57.4227	129.194	82.8383	11.3016	21.9098	63.4032	0.310913
0.6593	-635.676	-27.3497	30.1292	-98.921	161.243	77.3238	18.3114	17.0162	134.821	0
0.6600	-600.251	8.3583	3.26951	-63.2225	128.585	62.9957	16.1834	13.3461	190.048	0
0.6607	-433.949	25.747	-16.5959	4.52482	69.9965	43.755	11.9096	15.7928	194.928	0
0.6613	-464.754	89.2356	-23.3005	-43.3733	10.1755	24.5384	13.7335	10.0095	173.567	0
0.6620	-557.256	51.9938	-24.5007	-98.3211	-34.991	18.446	18.9373	4.17064	81.403	0.310913
0.6627	-324.681	-39.2409	-20.5276	-2.17491	-70.0835	13.5576	18.0074	6.61742	-46.7607	0.310913
0.6633	198.382	-6.89344	-13.2022	134.22	-95.1164	-1.08364	10.3896	2.66921	-57.4571	0.310913
0.6640	419.031	-22.7656	-14.7335	176.043	-99.9867	-8.11527	1.84187	-9.56467	24.6568	0
0.6647	230.419	-54.8201	-25.7422	185.193	-98.4647	-19.7223	-7.00983	-22.9663	69.8017	0
0.6653	130.92	27.591	-26.0319	234.941	-101.219	-42.2861	-8.52982	-26.3029	64.0172	0
0.6660	337.223	51.3906	-14.7335	278.564	-96.0295	-38.9388	-0.607995	-13.1792	48.7643	0
0.6667	642.409	24.2304	-11.0915	317.337	-80.1575	-19.4092	7.02771	0.556086	38.0678	0
0.6673	664.368	35.5185	-6.20794	391.784	-61.5459	-41.6841	7.02771	0.556086	27.6945	0
0.6680	463.566	23.61	2.02793	438.782	-39.5714	-80.7433	-4.88184	-11.9558	11.5367	0
0.6687	324.417	-6.89344	-5.87685	408.284	-26.1345	-96.0106	-18.2935	-14.4026	-5.88144	0
0.6693	252.994	20.8699	-23.5902	257.515	-28.5842	-109.135	-22.2634	0.222434	-20.8113	0.310913
0.6700	189.229	44.6695	-31.826	4.82481	-17.9014	-105.763	-18.2935	2.33556	-32.4126	0
0.6707	126.651	36.1216	-20.8587	-177.668	15.3647	-81.0564	-10.0677	-13.7909	-32.1217	0
0.6713	83.3046	47.1167	-5.29744	-243.89	40.0787	-49.3177	-4.88184	-29.0833	-25.7232	0
0.6720	63.5016	13.5456	2.64872	-230.141	39.1656	1.66158	-7.92182	-40.3718	-22.0392	0
0.6727	54.0402	-6.60047	9.68438	-163.318	33.3675	39.8057	-7.00983	-42.8186	-21.1344	0
0.6733	66.538	14.459	12.7056	-175.843	15.6691	47.4394	9.78157	-29.3613	-26.9189	0
0.6740	57.3847	-21.542	11.5054	-241.14	-2.63809	76.4087	29.3089	-11.9558	-33.0266	-0.310913
0.6747	37.8457	-33.7606	14.8577	-235.941	69.0688	133.794	35.7108	-3.11408	-36.7105	-0.310913
0.6753	199.614	15.3724	18.8307	-197.492	183.522	170.421	43.6505	6.95107	-46.7607	0
0.6760	498.683	31.5547	19.7412	-169.118	218.614	191.154	60.12	22.7995	-57.748	0
0.6767	651.254	3.77416	20.6517	-145.319	195.726	205.193	57.08	27.415	-55.0012	0
0.6773	599.678	0.120635	18.2099	-118.47	142.008	182.004	29.3089	14.2914	-37.6154	0
0.6780	318.608	22.4037	13.0367	-83.9716	60.5312	137.767	-3.95197	-0.38926	-16.5456	0
0.6787	54.0402	-6.29026	9.68438	-56.8227	-18.5101	102.368	-25.9292	2.66921	2.0682	0
0.6793	135.188	-36.5008	13.9472	-39.4234	-69.7791	55.964	-14.9495	17.906	7.85269	0.310913
0.6800	192.265	-3.84309	19.7412	-27.8239	-84.4335	-22.4675	8.8517	20.9644	1.13105	0.310913
0.6807	-102.227	-23.0758	15.7682	-14.0994	-81.6795	-110.05	15.8794	11.2329	1.13105	0
0.6813	-464.182	-76.4827	8.15309	9.09964	-81.3751	-163.437	19.5453	2.66921	5.10587	0
0.6820	-654.599	-11.7878	1.73822	28.0239	-85.0423	-191.829	27.7711	-1.279	-2.52062	0.310913
0.6827	-669.253	35.2082	-1.61406	43.8982	-82.5927	-252.561	30.8289	3.8926	-15.3176	0
0.6833	-519.41	-21.542	-2.85565	64.3474	-58.183	-285.527	23.5151	11.511	-21.7484	0
0.6840	-271.301	-10.5642	-6.82873	26.199	-18.8145	-191.829	16.4874	1.16778	-25.7232	0
0.6847	-40.2661	66.6423	-7.73923	-56.8227	24.5256	-69.7624	12.8215	-15.626	-22.6532	0
0.6853	258.495	47.7198	-11.0915	-77.2719	81.8969	-23.0695	5.81172	-19.6298	-11.3751	0
0.6860	669.869	-17.2853	-12.002	-43.6983	118.511	-23.0695	6.72371	-23.8561	-0.678628	0.310913
0.6867	670.485	-14.5279	-1.94515	-43.0733	106.915	-38.0238	12.8215	-22.0766	10.5995	0.310913
0.6873	127.883	-18.8019	5.7113	-90.9964	81.5925	-52.665	10.3896	0.556086	16.7072	0.310913
0.6880	-343.912	-50.8391	9.06359	-93.4463	48.6308	-63.6459	12.2136	19.463	14.2835	0
0.6887	-485.525	-7.20365	13.3264	-25.374	7.74034	-79.5152	22.2812	19.741	12.7323	0
0.6893	-330.182	33.9847	24.004	18.8742	-23.395	-99.0448	30.8289	16.6826	24.0428	0.310913
0.6900	-95.4944	-28.8663	33.7712	21.6241	-49.6455	-111.88	35.4068	18.8513	41.4286	0
0.6907	-18.6148	-34.3638	28.2668	19.4742	-75.5771	-105.763	26.8591	18.8513	50.8971	0
0.6913	51.8838	52.304	18.8307	18.5743	-89.6227	-83.1995	0.625877	11.511	56.6816	0
0.6920	148.346	35.5185	14.8577	20.9992	-99.0735	-60.2986	-27.4492	0.834129	58.8144	0
0.6927	145.266	-25.2128	7.24259	28.6239	-113.424	-18.4941	-40.8787	-1.89069	57.0047	0
0.6933	-60.4211	-1.10295	-7.73923	27.4239	-63.3722	67.258	-43.0246	3.55895	62.4984	0.310913
0.6940	-310.643	26.0572	-22.0589	12.7745	59.618	148.748	-47.6025	4.17064	65.5361	0.310913
0.6947	-306.066	-3.84309	-20.8587	17.9493	135.905	189.637	-50.3384	0.556086	56.0676	0
0.6953	-275.878	4.68754	-10.181	36.5735	142.921	208.854	-45.7606	1.77947	42.3334	0
0.6960	-612.484	28.5044	-0.0827725	31.6987	124.309	202.448	-39.3587	10.8993	16.7072	0
0.6967	-1012.24	-49.3226	5.7113	17.9493	64.1985	161.559	-28.6831	22.5215	-8.91911	0.310913
0.6973	-790.403	-65.4877	-4.96635	12.4495	-19.1189	112.121	-9.45969	23.4112	-1.00178	0.310913
0.6980	-251.762	17.8195	-18.4169	9.09964	-78.0267	74.2896	13.7335	24.3566	7.56185	0
0.6987	-229.495	5.30795	-15.3543	2.69989	-114.032	31.5701	36.6228	34.6997	-23.2672	0
0.6993	-481.565	-37.7244	-5.87685	-3.72485	-135.094	-30.7032	62.5699	45.3766	-54.7103	0
0.7000	-337.839	8.96147	0.206931	-6.44974	-129.296	-96.2996	86.0671	54.552	-64.7605	0
0.7007	190.725	11.4086	2.64872	-14.0994	-96.0295	-138.73	89.4289	52.7169	-73.615	0.310913
0.7013	605.179	-56.0264	4.8008	-22.9491	-49.3266	-152.456	73.5495	32.253	-82.4694	0.310913
0.7020	513.029	-47.4958	8.44279	-15.2994	-16.3794	-168.639	44.8665	2.66921	-77.8806	0.310913
0.7027	221.265	23.9202	3.84892	-8.29967	-13.0165	-195.176	13.7335	-26.6365	-51.6403	0
0.7033	148.918	5.30795	-6.82873	-22.0241	-14.2341	-211.96	2.14587	-31.8081	-26.0141	0
0.7040	195.61	-52.3729	-17.1753	-29.3488	-12.4077	-204.953	3.05786	-15.0143	-24.4952	0.310913
0.7047	247.185	7.75512	-26.9424	-13.1745	-25.8301	-157.947	0.0178822	-7.39594	-18.6784	0.310913
0.7053	323.493	64.2124	-32.4468	-3.72485	-30.715	-97.2146	-0.303998	-17.4611	-32.1217	0.310913
0.7060	413.53	3.77416	-31.2466	-17.1493	-6.60973	-53.8931	4.89973	-23.2444	-100.469	-0.310913
0.7067	468.143	-23.679	-21.1484	-26.2989	11.0887	-14.8338	4.57785	-16.5714	-124.286	0
0.7073	389.107	8.96147	-6.49764	-16.8243	-3.85568	21.7932	-5.48984	-14.1246	-72.0961	0.310913
0.7080	273.457	-20.0254	0.827725	-4.32483	-20.9453	31.859	-14.6455	-10.1764	-26.3049	0.310913
0.7087	263.38	-36.1906	1.73822	2.07492	-19.1189	16.3028	-14.0375	6.00573	-4.03945	0
0.7093	211.804	-2.01633	-1.32436	6.04976	-6.00094	10.4993	-9.13781	18.2396	8.78985	0
0.7100	62.8855	-18.4917	-5.29744	13.9994	44.3548	32.1721	0.0178822	18.2396	2.35904	0.310913
0.7107	-13.7301	-35.2772	-6.49764	18.2493	104.48	56.2771	7.6357	3.55895	-17.7736	0.310913
0.7113	52.808	-8.11703	-5.58714	13.6745	116.989	64.2238	7.6357	-28.1379	-25.7232	-0.310913
0.7120	145.574	6.22133	0.496635	14.8994	104.785	85.2705	11.9096	-49.2136	-23.8812	0
0.7127	182.187	-20.9388	7.822	15.1994	104.176	124.017	21.3692	-44.042	-25.7232	0.310913
0.7133	202.651	10.1851	12.1262	10.0246	127.977	159.416	31.4369	-29.3613	-23.5581	0
0.7140	238.956	51.7008	14.8577	12.1495	154.836	206.109	35.4068	-20.2415	-15.0268	0
0.7147	254.226	-5.68709	14.8577	8.19967	145.675	260.435	26.8591	-21.1313	-14.4128	0
0.7153	219.109	-31.0032	11.1743	-9.19963	113.018	287.911	12.2136	-22.3546	-25.4001	0
0.7160	176.687	0.723811	6.29071	-13.7744	71.8229	272.957	-2.43198	-20.5196	-30.6029	0
0.7167	58.9249	-6.29026	11.5054	0.549978	12.9296	257.69	-10.0677	-15.348	-29.3749	0.310913
0.7173	-153.187	-56.9571	19.4515	15.5244	-46.587	258.003	-19.8314	-10.1764	-31.7986	0
0.7180	-190.725	-45.0486	16.389	25.574	-89.6227	233.898	-34.1729	-12.2895	-28.4701	0
0.7187	-46.383	3.17098	13.9472	31.9987	-109.148	210.082	-35.3889	-9.56467	-19.0016	0
0.7193	35.1173	-19.1121	15.4785	31.3737	-111.902	210.997	-28.0751	-2.50239	-15.9316	0.310913
0.7200	40.002	-36.1906	20.9414	46.6481	-114.032	183.834	-23.4972	-1.279	-18.6784	0.310913
0.7207	45.1948	-16.0617	26.4458	93.0213	-106.408	110.604	-15.8615	-3.11408	-19.9064	0
0.7213	64.9978	-26.1261	21.2725	130.57	-82.5927	15.3877	-4.25597	-16.5714	-21.4252	0
0.7220	108.344	-37.4141	17.5892	125.995	-48.109	-57.5534	5.50772	-33.0315	-21.7484	0
0.7227	152.923	-3.55012	20.9414	104.321	-21.873	-95.0955	18.6333	-33.0315	-19.6156	0
0.7233	99.8071	3.17098	25.2456	107.371	-13.9297	-165.893	37.5526	-25.4131	-13.5079	-0.310913
0.7240	12.2338	-41.6881	29.7981	113.77	-9.0449	-206.783	50.9822	-14.7363	-2.52062	0
0.7247	-1.80427	-52.9761	31.3294	84.7966	-9.34929	-114.625	49.1403	2.66921	0.226209	0
0.7253	-69.2664	-18.8019	29.2187	65.5724	2.55112	-1.39669	34.1908	15.4592	-1.90662	0
0.7260	-237.108	-27.0395	17.5892	61.8975	33.3675	49.5585	17.0954	16.6826	0.549365	-0.310913
0.7267	-386.334	-71.6056	3.84892	5.44978	39.7743	59.6243	9.47757	15.4592	3.29619	0
0.7273	-348.181	-26.7293	-0.0827725	-49.498	26.0476	15.3877	4.89973	13.068	12.4415	0
0.7280	-105.572	42.2396	-4.96635	-45.8232	16.8867	-32.2203	-10.9797	-12.5675	19.1632	0
0.7287	39.0779	-0.18957	-3.76615	-34.2236	-4.17457	-68.8473	-18.6154	-40.6499	14.5743	0
0.7293	-41.8063	-34.9842	6.9115	-28.4239	-49.6455	-182.678	-7.31383	-43.7083	11.5367	0
0.7300	-251.454	-24.6096	12.1262	-18.0493	-78.3311	-239.75	-4.25597	-34.2549	12.1184	0
0.7307	-463.874	-13.6145	17.2995	-3.39986	-47.5002	-126.208	-23.8012	-13.7909	15.1883	0
0.7313	-481.257	-11.1674	20.0309	12.7745	8.34913	-41.9971	-54.6123	-2.50239	17.3212	0
0.7320	-376.565	-21.249	19.7412	16.7243	50.7616	-65.476	-73.8357	-15.9597	14.8652	0.310913
0.7327	-258.759	-17.2853	23.0935	0.874965	91.3476	-110.652	-71.4037	-30.5847	10.9227	0
0.7333	-183.992	-16.6649	20.9414	15.5244	196.031	-167.122	-64.072	-35.2002	11.2135	0
0.7340	-158.688	-56.3366	13.3264	81.7467	306.497	-208.011	-43.3286	-28.4716	15.8023	-0.621826
0.7347	-99.191	-78.9299	7.5323	137.27	282.696	-205.868	-2.43198	-6.5062	17.9352	-0.310913
0.7353	-158.688	-27.0395	3.84892	159.244	168.258	-208.011	28.093	16.0709	14.2835	0.310913
0.7360	-295.109	18.1297	0.496635	169.943	53.2112	-193.659	38.1606	25.2463	3.29619	0.310913
0.7367	-286.835	-34.674	-1.32436	190.067	-52.6894	-138.417	59.208	13.068	-11.0519	0.310913
0.7373	-234.687	-105.47	-3.43506	184.893	-155.227	-101.501	84.8511	-15.9597	-18.6784	0.310913
0.7380	-308.223	-38.6377	-9.56022	104.621	-236.399	-82.5734	77.5194	-33.6432	-11.9891	0
0.7387	-337.531	21.1801	-13.823	-19.2742	-273.637	-45.6574	53.7182	-20.8532	4.20103	0
0.7393	-74.1512	-58.1634	-12.9125	-177.968	-259.91	-32.2203	31.4369	2.94725	17.612	0
0.7400	372.648	-86.2542	-10.181	-283.564	-214.135	-60.9006	7.02771	5.11599	25.8525	0
0.7407	614.333	-14.5279	-5.87685	-218.241	-157.372	-92.6393	-15.8615	-11.3441	34.4161	-0.310913
0.7413	301.225	-14.8381	1.11743	-83.9716	-103.35	-99.3578	-34.7809	-18.0728	40.5238	0
0.7420	-184.916	-56.9571	10.2638	-5.24979	-86.2599	-72.5076	-42.4166	-3.72577	39.5866	0
0.7427	-373.528	-30.7103	17.5892	22.2241	-74.9683	-34.3635	-38.7508	24.3566	35.935	0
0.7433	-575.255	-30.7103	20.9414	10.6246	-15.4662	-7.51324	-39.3587	49.3804	31.0553	0
0.7440	-821.516	-62.1444	16.0579	12.4495	40.0787	13.5576	-54.3083	61.5587	27.0805	0.310913
0.7447	-711.675	-56.3366	-0.99327	74.422	70.9097	32.4851	-74.4615	56.3871	27.0805	0.310913
0.7453	-151.339	-30.4001	-20.5276	122.02	104.785	39.4927	-78.4135	47.5453	23.1057	0.310913
0.7460	568.874	-33.1402	-33.647	119.57	106.915	30.6309	-65.6098	49.3804	10.5995	0.310913
0.7467	773.945	-70.382	-38.5306	114.095	65.416	18.446	-56.7581	32.253	-0.0646312	0
0.7473	359.182	-42.9117	-30.2947	67.3973	12.6107	18.446	-39.3587	-15.626	-5.88144	0
0.7480	132.152	39.4822	-15.0646	-25.674	-28.2798	7.75405	-7.00983	-59.0007	-8.91911	0
0.7487	275.262	16.2858	-2.23486	-62.6225	-57.8786	-21.5524	10.0856	-73.9038	-7.40027	0
0.7493	393.375	-76.1725	8.7325	-4.9248	-69.4747	-16.953	11.6056	-59.6124	-2.81146	0.310913
0.7500	498.991	-54.1997	17.9202	50.598	-56.0523	31.5701	10.9976	-15.0143	-0.387787	0.310913
0.7507	517.298	-4.4635	17.9202	39.0234	-52.385	89.8459	12.8215	64.0055	2.35904	0.310913
0.7513	378.413	-33.7606	6.9115	45.4232	-71.6054	131.048	27.7711	120.448	6.6247	0
0.7520	223.378	-18.4917	-0.0827725	47.8731	-81.6795	138.056	47.6203	122.617	5.42902	0
0.7527	94.3062	13.2354	1.11743	-1.27495	-62.7635	150.265	53.1102	139.411	4.20103	0.310913
0.7533	174.266	-19.405	-1.94515	68.9222	-38.3538	201.533	40.2886	208.977	13.6695	0.310913
0.7540	391.835	-29.4867	5.09051	220.291	-27.3666	221.376	24.1231	273.65	20.9728	0.310913
0.7547	340.567	-62.4373	23.3832	221.816	-17.2926	183.834	10.6936	259.025	16.4163	0.310913
0.7553	187.072	-87.7707	31.0397	146.444	-2.94249	177.428	-7.92182	163.823	14.5743	0.310913
0.7560	202.034	-16.3547	29.2187	97.2961	10.1755	224.434	-20.1354	81.4109	21.91	0.310913
0.7567	61.9613	-4.75647	15.1474	-47.0481	12.3063	270.212	-18.2935	75.016	20.682	0.310913
0.7573	-340.875	-88.0809	-15.3543	-219.166	11.6975	294.919	-13.4117	58.8339	11.2135	0
0.7580	-644.213	-84.1172	-46.4768	-241.14	26.9607	282.421	-9.76369	-61.1138	11.5367	0
0.7587	-513.91	-5.06668	-67.5424	-183.768	40.0787	227.492	-14.3415	-194.463	20.9728	0
0.7593	44.5787	-32.2268	-63.5693	-139.519	40.6875	167.049	-21.9594	-223.491	28.5993	0.310913
0.7600	327.145	-56.6468	-35.1783	-118.77	40.9919	73.3745	-21.9594	-185.343	29.2133	0.310913
0.7607	26.272	-8.11703	-9.56022	-110.221	40.3831	-79.8282	-21.9594	-160.598	26.1756	0.310913
0.7613	-258.495	-37.7244	3.55922	-60.7726	34.5851	-225.999	-22.8714	-167.938	28.0176	0.310913
0.7620	-303.03	-52.0627	4.46971	-11.6495	10.1755	-396.902	-26.5372	-175.556	31.3461	0.310913
0.7627	-212.684	-51.7697	-5.58714	-13.7744	32.15	-530.888	-39.0548	-135.907	24.3337	0
0.7633	-92.4579	-56.0264	-14.7335	-30.2738	149.038	-410.339	-37.5348	-55.9422	12.7323	0
0.7640	-32.0368	-43.5148	-17.7961	-34.5236	215.556	-190.311	-19.5274	-25.4131	4.81503	0
0.7647	217.613	-82.2732	-19.9482	-30.8738	199.075	-115.227	-14.6455	-68.4541	0.226209	0
0.7653	516.066	-87.7707	-20.5276	-23.5491	204.568	-106.991	-17.9895	-94.0897	-1.90662	0
0.7660	417.183	-1.10295	-15.644	-21.7241	203.96	-76.481	-14.6455	-78.1857	-3.74861	-0.310913
0.7667	197.15	34.9153	-10.181	-26.2989	163.678	-40.4559	-6.40183	-63.5606	-9.24226	0
0.7673	130.304	-29.1765	-10.7604	-25.674	102.335	0.433456	-1.21599	-55.6086	-15.6408	0
0.7680	45.5029	-5.37688	-12.6228	-20.7992	25.4388	66.0539	-14.9495	-52.2721	-18.0644	0
0.7687	-32.6529	30.0209	-14.1541	-21.4241	-51.4718	122.813	-29.8991	-53.4954	-15.6408	0
0.7693	-32.961	-19.1121	-13.823	-18.9742	-104.263	151.493	-24.1052	-49.2136	-8.91911	0
0.7700	-1.23219	29.1076	-4.67665	-11.6495	-114.032	182.004	-8.22582	-39.7601	-4.36261	0.310913
0.7707	48.5393	59.6283	4.46971	-8.59966	-79.2443	204.591	3.05786	-32.1418	-5.88144	0
0.7713	132.768	-34.674	2.93842	-3.72485	-23.395	201.533	1.84187	-34.8666	-4.36261	0
0.7720	235.92	-24.6096	-2.52456	2.3999	15.9735	188.12	6.11572	-47.1005	-1.00178	0.310913
0.7727	269.497	35.2082	-5.87685	-1.87493	11.6975	135.937	36.9268	-45.5434	-5.88144	0.310913
0.7733	201.11	-0.499774	-7.40814	-11.6495	-19.4233	17.5309	72.6376	-22.6883	-13.1848	0
0.7740	114.769	-43.5148	-8.31864	-18.0493	-47.5002	-112.482	77.2154	-10.4544	-13.7988	0.310913
0.7747	64.6898	-50.8391	-11.0915	-18.9742	-42.9198	-234.548	55.5422	-13.5129	-7.69111	0.310913
0.7753	41.1902	-14.2177	-12.002	-16.5243	-19.4233	-371.568	25.9471	-11.6778	-1.00178	0
0.7760	11.9258	24.2304	-7.40814	-12.8745	-0.507326	-405.137	0.0178822	-8.00763	1.4542	0
0.7767	-61.3453	18.1297	-0.703566	-3.39986	30.628	-256.823	0.32188	-3.44773	2.6822	0
0.7773	-113.801	45.5829	2.93842	5.44978	40.3831	-101.501	22.2812	2.05752	5.10587	0
0.7780	-84.2287	52.6142	1.40713	7.5747	12.3063	-16.664	41.5046	2.33556	7.85269	0
0.7787	-60.1131	-54.5099	1.11743	5.74977	1.63794	95.0233	44.2585	6.95107	10.3087	0.310913
0.7793	-86.9571	-86.8573	2.02793	-4.9248	13.5384	198.788	36.6228	14.5694	3.29619	0.310913
0.7800	-120.226	-21.542	-1.32436	-17.7493	13.8427	238.16	41.2006	15.1811	-11.9891	0
0.7807	-90.9177	-36.1906	-1.32436	-14.6994	-3.55128	256.173	43.3465	16.6826	-15.3176	0
0.7813	39.694	-67.0215	-0.703566	-5.54978	-38.3538	219.233	19.8493	25.2463	-4.94429	0.310913
0.7820	153.803	-44.7384	-1.32436	2.07492	-82.5927	106.63	-5.79384	42.3181	8.46669	0
0.7827	119.962	-2.01633	3.26951	11.8495	-115.554	7.441	-20.4394	56.6651	18.226	0
0.7833	16.8105	16.2858	4.46971	18.2493	-128.064	-35.2785	-32.331	49.0468	20.682	0
0.7840	-31.7288	-16.0617	2.35902	23.7491	-119.83	-49.9197	-39.6628	27.415	19.7772	0
0.7847	-31.1127	30.9343	3.84892	19.7742	-105.48	-48.6916	-37.2308	5.11599	15.8023	0
0.7853	-23.1915	69.6927	3.55922	2.99988	-103.35	-46.5725	-28.6831	-9.84272	6.94786	0
0.7860	-21.3432	-9.03041	1.11743	3.29987	-112.51	-97.2146	-15.5575	-9.56467	0.840206	0.310913
0.7867	-25.3038	-10.8744	-0.0827725	27.7239	-109.148	-169.867	-4.55996	-3.72577	3.58703	0.310913
0.7873	-32.6529	41.6191	-0.703566	42.9733	-69.7791	-156.117	-3.64797	-1.00095	8.46669	0
0.7880	-37.8457	-24.2994	-2.52456	35.9486	-25.8301	-51.4609	-3.95197	4.50429	9.37153	0
0.7887	-42.4224	-80.7567	-2.23486	23.1491	-12.4077	77.3238	-0.607995	11.511	6.94786	0.310913
0.7893	-46.9991	-9.65082	2.64872	19.4742	-13.0165	189.324	-2.73598	14.8475	7.56185	0
0.7900	-49.7275	37.9656	4.8008	19.7742	-19.7277	244.277	0.32188	11.511	6.94786	0
0.7907	-55.5364	2.2576	4.18001	14.5994	-24.3082	249.141	26.8591	7.56277	-1.00178	0
0.7913	-64.3817	-9.65082	4.8008	10.6246	-4.47896	276.93	55.2382	10.8993	-6.17228	0
0.7920	-70.4986	-0.18957	2.93842	9.09964	25.1344	339.493	51.2862	15.7928	-4.94429	0
0.7927	-70.8067	-19.7152	0.206931	5.44978	43.1372	397.166	25.0351	16.0709	-3.13461	0
0.7933	-64.0737	-31.0032	-2.52456	-0.349986	50.4572	424.017	1.84187	20.6864	-3.42545	0
0.7940	-47.6152	-32.2268	-10.7604	-3.72485	45.8768	375.181	-20.4394	34.6997	-4.94429	-0.310913
0.7947	-34.7652	3.17098	-14.1541	1.47494	26.9607	247.311	-40.5747	44.4869	-0.387787	-0.310913
0.7953	-46.075	1.03402	-3.14535	10.9246	1.01465	72.7484	-48.2104	40.205	9.37153	-0.310913
0.7960	-65.3059	-42.6015	6.00101	14.8994	-9.97258	-174.442	-45.7606	29.5282	13.9603	0
0.7967	-68.0343	-12.7012	6.9115	14.5994	10.4799	-454.888	-32.331	18.8513	12.7323	0.310913
0.7973	-61.3453	47.1167	8.15309	12.7745	37.3392	-591.62	-7.61782	10.8993	8.78985	0.310913
0.7980	-62.2254	77.6374	6.29071	9.09964	42.224	-483.882	8.5477	10.0095	3.87787	0
0.7987	-67.4182	34.2949	0.496635	8.49966	30.628	-282.782	5.20372	13.9578	1.13105	0
0.7993	-66.23	-9.03041	-0.703566	11.8495	11.0887	-169.241	-1.51999	16.0709	1.13105	0
0.8000	-53.3801	33.3815	0.827725	13.0745	-0.507326	-135.672	-2.73598	20.0747	2.35904	-0.310913
0.8007	-35.0733	47.1167	-2.23486	11.2495	3.15992	-117.057	0.0178822	25.2463	2.97304	0
0.8013	-27.1521	7.44492	-5.58714	11.2495	6.50827	-94.4694	-0.911993	26.8033	2.35904	0.310913
0.8020	-26.228	5.91113	-1.94515	14.2994	8.04474	-70.6775	-1.51999	24.9682	4.49187	0.310913
0.8027	-21.9593	2.2576	2.35902	13.9994	13.5384	-72.5076	6.72371	8.17446	5.42902	0
0.8033	-21.6513	19.6463	1.11743	7.87468	14.4515	-98.1297	13.4295	-21.743	1.74504	-0.310913
0.8040	-29.3084	37.9656	2.93842	2.3999	11.0887	-124.378	15.8794	-28.4716	2.35904	0
0.8047	-38.7258	-32.2268	7.24259	-2.79989	7.74034	-154.286	12.8215	-7.72959	4.81503	0
0.8053	-43.9186	-87.7707	6.29071	-5.54978	6.20387	-163.148	3.36186	1.77947	2.97304	0
0.8060	-43.6106	-21.8522	4.8008	-2.17491	10.4799	-139.043	-0.303998	1.16778	3.29619	-0.310913
0.8067	-37.8457	56.5779	1.73822	1.47494	12.3063	-114.914	2.44986	13.3461	5.42902	-0.310913
0.8073	-27.7682	-5.37688	-1.94515	-0.349986	10.4799	-93.8674	4.57785	30.7515	3.87787	0
0.8080	-20.111	-63.6609	-1.61406	-1.57494	11.3931	-76.1679	2.75386	33.1983	2.35904	-0.310913
0.8087	-24.9958	-38.6377	-0.413862	6.97472	10.4799	-70.9905	-2.43198	19.741	5.10587	-0.621826
0.8093	-36.6135	-11.7878	4.8008	16.1244	6.81266	-70.0755	-4.25597	12.4563	8.17585	-0.310913
0.8100	-49.1114	-20.3356	15.1474	14.5994	6.20387	-61.5267	-1.82399	20.6864	8.46669	0.310913
0.8107	-58.5728	-46.8754	16.0579	8.49966	3.46431	-53.2911	-2.43198	40.483	6.04302	0.310913
0.8113	-46.9991	1.9474	8.15309	5.44978	-1.42051	-49.9197	-4.88184	66.1186	4.20103	0
0.8120	-22.8835	27.2808	3.84892	5.14979	0.101465	-44.4293	-3.34397	75.016	4.20103	0
0.8127	-11.2657	-65.1947	-1.32436	3.59986	2.55112	-40.167	-3.95197	56.3871	3.29619	0
0.8133	-6.38096	-80.4464	-1.94515	0.874965	1.94233	-34.9655	-4.55996	13.3461	0.840206	0
0.8140	-7.3051	1.63719	6.6218	-0.974961	1.63794	-27.6449	-1.21599	-43.7083	-0.387787	0
0.8147	-16.4585	-11.4776	8.44279	-0.349986	1.94233	-24.5866	-3.95197	-62.0036	-0.678628	0
0.8153	-18.9229	-32.537	5.09051	2.69989	2.85552	-22.4675	-11.8917	-26.6365	2.0682	0.310913
0.8160	-15.8424	-5.98006	3.26951	3.29987	2.24673	-17.868	-13.4117	2.94725	3.29619	0
0.8167	-15.5343	-13.3043	1.11743	1.47494	0.710256	-16.3509	-8.52982	4.50429	0.226209	-0.310913
0.8173	-12.8059	24.8336	0.496635	1.77493	-0.20293	-18.8072	-4.88184	6.00573	-1.90662	0
0.8180	-7.9212	51.9938	0.206931	3.59986	-0.811721	-19.4092	-3.95197	15.1811	-1.00178	0
0.8187	-6.38096	-3.55012	0.827725	3.59986	0.710256	-12.6906	-2.43198	28.5828	-0.0646312	-0.310913
0.8193	-4.88474	-33.7606	3.55922	1.77493	3.46431	-5.97207	-1.51999	44.1532	-0.0646312	-0.310913
0.8200	-2.42037	-31.9339	2.02793	-2.4999	3.15992	-0.168566	-6.09783	46.9336	-1.61578	0
0.8207	-4.26864	-47.7888	1.40713	-9.19963	4.0731	17.8199	-11.2837	25.5799	-1.90662	0
0.8213	-3.65255	-43.2219	2.02793	-12.8745	6.50827	34.6043	-13.7157	-1.00095	-1.90662	0.310913
0.8220	-1.49623	-45.962	0.496635	-9.49962	8.04474	37.0605	-14.9495	-12.5675	-3.42545	0.310913
0.8227	-1.80427	-45.962	1.40713	-2.79989	12.0019	38.5776	-13.1077	-13.5129	-2.52062	0
0.8233	-3.65255	27.884	2.35902	-2.17491	14.7559	36.4344	-8.52982	-12.2895	-1.61578	0
0.8240	-6.07292	-31.6237	0.206931	-4.9248	12.3063	19.9631	-5.79384	-9.23102	-3.13461	-0.621826
0.8247	-6.38096	-59.094	1.40713	-1.87493	8.34913	5.32188	-4.25597	-9.56467	-1.90662	-0.932738
0.8253	-7.9212	34.2949	4.8008	2.3999	5.29068	3.49173	-0.911993	-6.17255	2.35904	0
0.8260	-9.15338	-38.0346	6.9115	3.92484	4.0731	12.3294	0.625877	6.61742	5.71986	0
0.8267	-6.07292	-65.1947	6.29071	2.69989	4.0731	19.3611	3.36186	12.7344	6.33386	0
0.8273	-4.57669	26.6604	2.35902	-2.17491	2.55112	20.2761	8.5477	8.17446	3.58703	0
0.8280	-6.68901	2.86078	0.206931	-4.62481	5.29068	26.3686	7.9397	6.00573	2.6822	0
0.8287	-7.61315	-10.8744	3.26951	-1.87493	14.1471	32.7741	10.3896	5.39403	3.87787	0
0.8293	-7.3051	62.3684	4.18001	0.549978	19.032	28.5118	17.0954	2.66921	3.87787	0
0.8300	-7.3051	90.4419	0.827725	2.3999	20.5539	21.7932	16.4874	0.222434	4.81503	0
0.8307	-8.53729	55.6645	0.827725	4.22483	20.2495	17.5309	8.8517	-0.667303	6.04302	-0.310913
0.8313	-9.46143	17.8195	4.8008	3.29987	16.5823	20.8782	2.14587	-0.0556086	3.87787	0
0.8320	-8.84533	-13.3043	5.7113	2.99988	12.9296	34.0022	0.32188	8.17446	2.97304	0
0.8327	-5.80888	-34.3638	2.64872	4.22483	8.95793	37.9756	-1.21599	25.2463	4.49187	0
0.8333	-4.88474	4.99774	-0.413862	5.14979	5.59508	31.5701	-6.09783	35.6451	5.42902	0
0.8340	-6.07292	12.322	-1.94515	5.74977	4.98629	30.3419	-7.61782	26.1916	6.6247	0
0.8347	-5.80888	-4.4635	0.496635	5.14979	-0.507326	26.9706	-8.83381	0.834129	6.94786	0.310913
0.8353	-6.07292	55.9575	5.38021	4.52482	-11.799	21.1912	-10.0677	-21.1313	6.04302	0
0.8360	-5.19278	96.5599	2.64872	6.04976	-19.4233	21.7932	-6.70583	-27.8599	5.71986	0
0.8367	-2.42037	93.5095	-6.49764	6.04976	-17.2926	21.7932	-4.55996	-19.6298	4.81503	0
0.8373	-5.19278	73.9666	-9.56022	3.59986	-6.91413	17.8199	-0.607995	4.17064	4.49187	0.310913
0.8380	-9.46143	53.8205	-7.40814	-0.049998	1.94233	15.9897	2.44986	24.0229	4.20103	0
0.8387	-8.22924	79.7743	-13.2022	-0.349986	2.85552	18.7349	-2.12798	28.5828	3.29619	0
0.8393	-6.68901	126.15	-36.7096	2.07492	1.31905	21.7932	-6.09783	24.3566	4.20103	0.310913
0.8400	-10.6496	103.574	-62.6588	2.07492	-0.507326	19.65	-7.31383	8.4525	3.87787	0
0.8407	-19.5389	31.8649	-66.3008	2.07492	1.01465	18.446	-6.09783	-1.89069	2.97304	0
0.8413	-23.8076	29.4178	-76.6887	3.59986	4.98629	21.7932	-2.73598	-0.667303	4.20103	0
0.8420	-21.9593	47.4269	-61.1275	3.29987	3.46431	22.1063	-2.73598	-13.7909	4.20103	-0.310913
0.8427	-21.0352	-18.4917	27.9771	2.3999	-0.507326	18.7349	-4.88184	-26.6365	2.6822	-0.310913
0.8433	-11.2657	-18.4917	51.1534	2.3999	-2.3337	17.8199	-6.40183	-0.0556086	2.35904	-0.310913
0.8440	3.38851	106.934	12.7056	1.17495	-6.30534	16.9048	-10.3717	76.5174	2.0682	0
0.8447	5.80888	87.3916	59.4306	0.874965	-8.4361	16.6158	-10.9797	133.294	2.0682	0
0.8453	6.11692	9.27168	85.3384	2.3999	-4.17457	19.65	-5.79384	124.118	2.6822	0.310913
0.8460	8.22924	59.3181	25.825	0.549978	-2.3337	19.3611	-2.73598	97.593	0.840206	-0.310913
0.8467	4.57669	91.3726	15.1474	-1.57494	-3.55128	15.9897	0.32188	36.8685	-1.29262	-0.310913
0.8473	2.77242	73.9666	49.3324	-0.349986	-3.55128	12.3294	0.929875	-67.5088	-0.387787	-0.310913
0.8480	5.19278	45.2899	51.1534	-0.649974	-5.39215	10.1862	-2.43198	-116.055	-0.678628	0
0.8487	2.46437	60.5416	38.034	-0.649974	-5.08775	14.7857	0.32188	-100.763	-0.0646312	0
0.8493	-7.3051	120.049	22.183	1.17495	-2.63809	16.6158	3.66585	-80.9661	1.13105	0.310913
0.8500	-14.0381	85.875	-5.29744	-0.049998	-2.94249	11.1013	5.20372	-45.2654	-2.19746	0
0.8507	-14.0381	32.1579	-26.9424	-1.27495	-1.42051	8.98218	12.2136	-15.9597	-3.13461	0
0.8513	-14.3462	83.7381	-48.2977	-0.349986	5.29068	14.4726	14.0554	-38.8148	-0.387787	0
0.8520	-15.8424	113.035	-65.3903	-0.349986	13.5384	25.7666	7.6357	-87.0274	-0.387787	-0.310913
0.8527	-10.9577	80.6877	-33.647	1.17495	21.4671	42.8399	5.20372	-112.385	-1.00178	-0.310913
0.8533	-2.11232	56.2677	20.362	1.47494	26.0476	43.466	1.53787	-91.6429	-1.90662	-0.310913
0.8540	-3.65255	59.3181	56.6578	-1.57494	21.4671	15.3877	-9.45969	-57.1656	-3.74861	-0.932738
0.8547	-14.3462	102.04	70.6877	-3.72485	12.9296	-6.88714	-13.4117	-29.695	-3.13461	-0.621826
0.8553	-13.7301	91.0623	30.1292	-2.17491	4.0731	-8.71729	-7.31383	61.5587	-0.0646312	0
0.8560	-1.49623	45.2899	-22.0589	1.17495	-2.3337	-6.59817	-2.73598	175.111	2.0682	0.310913
0.8567	2.77242	67.2627	6.9115	3.29987	-5.39215	-5.68309	2.75386	211.09	2.6822	-0.310913
0.8573	3.38851	96.8528	61.8724	0.874965	-9.97258	-9.03034	8.5477	185.455	0.226209	0
0.8580	9.76947	87.7018	45.0696	-2.17491	-13.9297	-11.4625	9.47757	134.517	-2.19746	0.310913
0.8587	10.6936	85.2546	21.8933	-2.79989	-17.597	-7.51324	7.02771	62.1704	-2.19746	0
0.8593	5.19278	76.1036	17.0097	-1.87493	-22.4818	-2.62482	0.929875	-32.1418	-1.90662	0
0.8600	5.80888	81.9113	-12.9125	-0.049998	-22.4818	5.00883	-4.25597	-103.21	-0.387787	0
0.8607	8.53729	109.071	0.206931	0.549978	-16.6838	13.5576	-5.48984	-125.175	1.13105	-0.310913
0.8613	4.26864	102.971	46.8906	-0.974961	-12.4077	13.8465	-8.83381	-130.068	0.549365	-0.310913
0.8620	-2.11232	100.834	44.4488	-0.974961	-8.13171	9.89725	-10.9797	-108.715	-0.0646312	0
0.8627	-4.88474	106.021	22.8038	-1.57494	-6.60973	4.69578	-5.48984	-47.7122	-1.00178	0
0.8633	-5.19278	64.2124	29.7981	-3.09988	-8.4361	-2.0228	0.929875	1.16778	-2.52062	0
0.8640	-0.616093	39.4822	47.8011	-2.79989	-7.82731	-1.39669	5.81172	14.8475	-3.13461	0.310913
0.8647	7.34911	91.0623	38.9445	-3.72485	-7.21852	2.26361	8.2437	15.7928	-3.74861	0.310913
0.8653	8.84533	85.875	-0.0827725	-3.72485	-7.21852	3.49173	7.02771	-21.743	-2.19746	0
0.8660	1.54023	44.9797	-26.0319	-1.27495	-6.30534	4.40681	6.72371	-83.4129	-0.0646312	0
0.8667	-12.8059	69.6927	-31.5363	-0.049998	-7.21852	1.66158	4.57785	-98.6496	-0.0646312	0
0.8673	-20.4191	98.3866	-53.5124	0.874965	-5.69655	-1.39669	1.53787	-53.7735	0.549365	-0.310913
0.8680	-10.9577	116.396	-47.3873	0.874965	-2.63809	0.120405	0.929875	28.9165	0.549365	0
0.8687	-2.11232	114.552	36.8338	-1.57494	-3.55128	-1.08364	-1.21599	71.3458	-1.29262	0
0.8693	2.46437	91.9757	92.6638	-1.87493	-4.17457	-0.79467	-4.88184	48.7687	-0.0646312	0
0.8700	13.7301	42.2396	35.5922	-0.649974	-1.42051	3.49173	-4.55996	4.50429	2.6822	0.310913
0.8707	16.5025	53.5276	-38.2409	-1.27495	-0.20293	4.40681	-3.34397	-59.0007	2.0682	0
0.8713	2.15633	103.574	-26.363	-2.17491	-0.811721	2.57666	-0.607995	-85.2479	0.840206	0
0.8720	-13.114	72.1399	8.7325	-2.4999	-1.42051	1.03548	3.36186	-62.6152	0.840206	0
0.8727	-13.7301	73.9666	-9.84993	-5.84977	-3.24689	0.746508	1.23387	-52.8838	-0.387787	0.310913
0.8733	-7.9212	72.1399	-1.61406	-9.19963	-3.85568	1.66158	-2.43198	-52.2721	-1.90662	0
0.8740	-3.3445	66.6423	44.1591	-3.39986	-3.85568	-2.93787	-2.73598	-36.9797	-0.387787	0
0.8747	0	93.8025	17.0097	5.74977	-5.08775	-8.11527	-3.34397	-22.9663	2.0682	0
0.8753	4.88474	59.6283	-51.3603	6.67473	-4.78336	-5.37004	-1.82399	-21.1313	3.29619	0
0.8760	8.53729	55.9575	-77.5992	2.3999	-5.69655	-2.62482	0.0178822	26.4697	2.35904	-0.310913
0.8767	-0.924139	90.149	-87.6975	-1.27495	-7.52292	-3.53989	0.32188	115.61	-0.387787	0
0.8773	-10.9577	80.0673	-92.2499	-2.4999	-6.91413	-2.62482	-0.303998	201.359	-1.61578	0
0.8780	-14.3462	93.5095	-39.7722	-2.17491	-5.08775	-0.79467	-2.73598	282.214	-1.00178	0
0.8787	-16.4585	60.2314	30.7086	-1.27495	-2.0293	0.433456	-1.21599	281.268	0.549365	0
0.8793	-8.22924	11.7188	27.3563	-0.349986	-0.20293	1.03548	1.23387	215.706	1.74504	0
0.8800	6.42497	70.9163	23.3832	-0.649974	-1.11612	-0.481618	-0.911993	102.487	0.840206	-0.310913
0.8807	15.8864	90.149	56.6578	-1.87493	-2.3337	-1.39669	-2.73598	-74.8491	0.226209	-0.310913
0.8813	23.1915	59.0251	27.0666	-2.17491	-2.3337	-1.70974	-2.12798	-174.333	-0.0646312	0
0.8820	24.4237	65.1258	-25.1215	-1.87493	-1.72491	-2.31177	-3.03998	-131.014	-0.678628	0
0.8827	13.422	67.2627	-36.0888	-0.974961	-0.20293	-0.168566	-0.303998	6.00573	-0.387787	0
0.8833	0.308046	91.0623	-8.93943	-1.57494	0.405861	-0.79467	1.53787	110.995	-0.0646312	0
0.8840	-3.65255	99.9032	61.2516	-4.02484	-0.811721	-6.28512	-5.79384	114.053	-1.61578	-0.932738
0.8847	4.57669	67.8659	92.3741	-6.44974	-1.11612	-7.80222	-8.83381	45.9883	-1.90662	-0.932738
0.8853	9.15338	77.6374	44.7799	-9.19963	-1.42051	-5.05699	-3.03998	-112.997	-1.29262	0
0.8860	-1.80427	55.9575	0.496635	-9.82461	-0.811721	-2.62482	0.929875	-218.264	-0.0646312	0
0.8867	-8.53729	31.5547	0.496635	-8.89964	1.01465	-1.70974	-2.12798	-167.326	1.74504	-0.621826
0.8873	-0.924139	71.5367	11.5054	-9.49962	1.63794	-2.31177	-6.70583	-132.515	-1.29262	-0.621826
0.8880	9.46143	61.7652	10.8846	-7.97468	0.405861	-0.481618	-4.88184	-156.316	-8.01427	-0.310913
0.8887	12.2338	57.4913	12.4159	-6.14975	-1.11612	-0.168566	-2.43198	-143.804	-5.88144	0
0.8893	7.04106	94.7159	23.3832	-5.54978	-0.811721	-1.39669	-3.03998	-103.821	3.29619	0.310913
0.8900	1.54023	64.5054	25.825	1.77493	1.94233	1.03548	0.32188	-62.3372	7.56185	0.310913
0.8907	1.84828	4.68754	9.97409	10.9246	2.85552	1.95055	2.14587	-26.9145	8.17585	0.310913
0.8913	4.26864	55.9575	0.206931	8.79965	0.405861	-0.79467	-1.21599	-29.3613	8.78985	0
0.8920	3.65255	117.912	4.46971	2.69989	-0.20293	-2.0228	-2.43198	-74.8491	11.8275	0
0.8927	2.46437	70.6061	2.35902	1.47494	0.405861	-1.08364	-1.51999	-102.931	26.4665	0.310913
0.8933	4.57669	32.7783	-2.23486	1.17495	1.01465	-0.168566	-1.51999	-89.1961	42.0426	-0.310913
0.8940	8.53729	73.6736	-1.94515	-0.349986	2.85552	0.746508	0.0178822	-69.3439	27.0805	0
0.8947	8.53729	93.8025	-5.29744	-3.09988	2.55112	0.120405	-0.303998	-56.832	-6.78628	0.310913
