MR32 ASCII
Name	CRYE15_fast
Frequency	1500
Date	14-09-2015 12:57:58
"Time,s"	"RT TIB.ANT.,uV"	"RT MED. GASTRO,uV"	"RT LAT. GASTRO,uV"	"RT BICEPS FEM.,uV"	"RT VMO,uV"	"RT VLO,uV"	"RT RECTUS FEM.,uV"	"RT SOLEUS,uV"	"RT SEMITEND.,uV"	"Channel 12,uV"
0.0000	179.139	-368.451	-111.705	-1.33831	-0.0628775	-2.07977	-2.91893	184.197	1.38828	-6827
0.0007	192.881	-627.187	-1.22047	0.48328	-0.366785	-1.15922	-1.083	253.774	3.19304	-10533.5
0.0013	153.189	-894.845	111.683	-1.04091	-3.41634	-1.15922	-1.69154	254.691	0.763552	-9720.52
0.0020	104.986	-968.712	140.375	-2.89968	-5.25027	-1.15922	-2.30008	236.076	-1.66593	-9693.52
0.0027	47.2959	-658.293	140.675	-4.08929	-2.20071	-3.88678	-3.21804	225.718	-1.35357	-9906.65
0.0033	-73.8737	-195.077	26.5505	-4.08929	4.82061	-6.03474	-3.52747	115.241	1.97829	-9789.63
0.0040	-219.11	147.975	-125.43	-1.33831	12.1458	-5.42104	-0.474455	-28.7955	6.87197	-9810.53
0.0047	-255.105	348.437	-141.917	-0.743508	15.1954	-6.03474	-0.165028	-39.8047	7.77435	-9816.32
0.0053	-161.141	413.784	-48.2192	-1.67289	14.5876	-8.1827	-3.52747	75.2591	5.0325	-9817.6
0.0060	-62.5729	331.076	78.1313	-1.33831	13.3615	-7.87585	-5.05398	132.317	2.60302	-9790.92
0.0067	4.88306	240.731	221.247	2.00747	12.7536	-2.96623	-3.21804	-136.549	2.91538	-9845.89
0.0073	71.0834	133.266	371.086	6.58005	11.8419	3.1367	0.742625	-447.5	4.44249	-9868.39
0.0080	100.382	19.7729	415.944	5.35326	6.04672	4.94371	0.134085	-361.143	1.66593	-9528.92
0.0087	83.9189	106.099	382.691	1.71007	-2.20071	6.17112	-2.00096	-91.3585	-4.13012	-10343.2
0.0093	87.8951	93.9615	337.513	0.185877	-7.0842	7.70537	-2.91893	97.8397	-7.46199	-9305.51
0.0100	101.637	-107.224	182.192	-0.743508	-9.52594	8.62593	-2.6095	175.969	-7.77435	-2985.79
0.0107	60.6895	-144.76	63.4643	0.780683	-8.90764	11.3535	0.443512	191.211	-4.72014	108.656
0.0113	-2.1625	-264.362	137.014	1.07809	-5.85809	11.0466	2.26913	251.939	-1.35357	-94.5113
0.0120	-16.8117	-495.689	252.08	-1.9703	-3.41634	4.94371	-1.39242	316.662	-1.07591	-121.515
0.0127	42.6919	-391.279	287.474	-4.42387	-0.974601	-0.238662	-5.05398	361.824	-0.138828	91.2966
0.0133	113.217	-154.164	208.122	-5.01868	1.77105	-2.96623	-5.66252	414.62	1.38828	-26.0388
0.0140	108.613	-59.2383	21.0477	-1.04091	7.26235	-1.46607	-2.30008	308.701	5.96959	-4.82201
0.0147	59.5036	119.28	-183.413	4.42387	13.9798	0.988742	2.57856	7.51703	12.0433	0.642934
0.0153	15.8351	280.357	-279.23	1.71007	12.7536	-2.07977	-0.474455	-207.044	9.61382	-0.642934
0.0160	-37.5298	273.686	-209.663	-2.2677	7.87016	-5.72789	-5.66252	-161.557	4.44249	-0.321467
0.0167	-110.776	253.19	-94.5969	-1.33831	5.73233	-4.19363	-4.44544	-102.042	3.81776	-0.321467
0.0173	-164.768	304.471	-65.006	1.37549	4.5167	0.988742	-0.773568	-130.127	4.44249	-0.321467
0.0180	-130.308	432.673	-70.1876	5.35326	4.21279	6.47797	3.49653	-14.7677	6.24725	-0.321467
0.0187	-51.2721	579.443	-31.4324	4.12647	3.29059	3.7504	2.26913	41.9947	5.0325	-0.321467
0.0193	-23.5084	654.837	0.599528	-1.04091	1.16323	-0.545513	-2.00096	-158.213	1.07591	-0.321467
0.0200	-17.9976	573.977	-30.5117	-1.67289	0.24103	1.9093	-0.773568	-308.968	0.763552	-0.321467
0.0207	0.627822	373.756	-64.7062	-1.33831	-1.58242	4.94371	1.36148	-285.469	0.45119	-0.321467
0.0213	9.76612	186.396	-68.9671	-2.2677	-3.41634	5.55741	1.36148	-219.858	-0.763552	-0.321467
0.0220	4.25524	157.379	-107.123	-2.89968	-1.8968	4.63686	1.66059	-169.192	0.173535	0
0.0227	5.51088	162.283	-124.509	-3.79189	-2.80853	2.82985	0.134085	-121.279	-0.763552	-0.642934
0.0233	33.5536	76.841	-17.3863	-3.19708	-6.78029	4.02316	0.134085	-48.328	-3.19304	-1.28587
0.0240	59.2245	84.4769	44.258	-2.5651	-9.82985	7.09167	1.36148	34.9808	-3.81776	-0.642934
0.0247	55.5274	102.482	14.9454	-2.89968	-10.4377	6.17112	0.742625	39.2424	-4.13012	0
0.0253	44.5754	39.6262	106.502	-1.67289	-8.29983	6.17112	0.742625	-78.5441	-2.29066	-0.321467
0.0260	41.227	132.061	204.161	-1.67289	-8.29983	5.86427	1.05205	-218.941	-1.66593	0
0.0267	46.3891	282.849	161.744	-2.89968	-7.99592	2.523	-0.165028	-246.109	-2.88067	0
0.0273	47.2959	107.385	119.327	-2.2677	-4.94636	1.29559	-0.474455	-105.09	-1.66593	0
0.0280	35.9951	-242.098	90.6358	-1.67289	-1.8968	1.29559	-0.165028	101.805	1.07591	0
0.0287	28.3915	-334.21	9.76374	-1.67289	1.46714	0.0681891	0.134085	221.752	3.81776	0
0.0293	32.6467	-190.495	-52.5015	-1.9703	6.35063	-2.07977	1.66059	234.863	6.87197	-1.60734
0.0300	34.1814	-79.4131	-65.9267	-1.67289	10.3119	-3.88678	1.36148	134.774	9.0238	-1.28587
0.0307	10.0452	-124.264	-65.9267	-0.446105	13.0576	-3.57993	1.36148	-77.9522	10.8286	0
0.0313	-35.0883	-5.54606	-44.8575	-1.04091	12.1458	-3.88678	1.66059	-251.288	9.92618	0
0.0320	-55.2483	431.467	-32.9526	-1.04091	9.40018	-2.65938	1.66059	-246.405	8.08671	0
0.0327	-25.0431	675.896	-22.5894	2.89968	8.17407	0.988742	3.79564	-105.712	9.0238	0.321467
0.0333	-8.23144	574.54	61.0234	4.12647	7.26235	1.29559	3.1871	27.0495	8.71144	0.321467
0.0340	-49.4584	434.522	104.361	3.82907	5.12451	1.9093	1.66059	37.7331	6.24725	-0.321467
0.0347	-102.544	411.936	16.7868	2.89968	1.46714	2.82985	1.05205	-70.3168	3.19304	-1.60734
0.0353	-107.427	436.933	-20.4482	1.71007	-0.670693	3.1367	0.742625	-236.638	1.38828	-1.28587
0.0360	-52.179	380.829	61.6443	4.42387	-0.0628775	7.09167	3.1871	-406.926	4.13012	0.321467
0.0367	-0.627822	281.643	97.359	4.12647	-1.58242	7.39852	-0.773568	-441.107	4.44249	0.321467
0.0373	0.279032	187.28	42.4166	-0.148702	-4.64245	4.02316	-7.18903	-277.834	1.07591	0.321467
0.0380	-20.4391	112.207	10.3847	-1.9703	-5.25027	2.21615	-4.74455	-109.056	-0.763552	0
0.0387	-26.8568	77.7252	35.6933	-1.9703	-4.64245	1.60244	-1.39242	-8.37527	-1.35357	-0.321467
0.0393	-1.25564	26.4443	63.1645	2.30487	-1.58242	4.33001	2.88799	92.9566	1.97829	0
0.0400	53.3649	-42.1983	58.9036	5.65066	0.848846	5.86427	6.84866	140.87	4.72014	0.321467
0.0407	102.544	-107.465	29.2912	3.23426	-0.974601	2.82985	5.63158	128.973	2.60302	0
0.0413	115.938	-122.737	6.4021	0.185877	-4.33855	0.37504	4.10507	125.008	-0.45119	0
0.0420	89.081	-34.5624	-10.6844	0.780683	-5.85809	1.29559	5.63158	187.245	-0.45119	0
0.0427	41.227	22.8273	-23.1889	2.60228	-3.72025	3.1367	7.76662	294.969	2.29066	0.321467
0.0433	1.81371	9.96683	-63.7855	2.60228	-8.90764	2.82985	7.4572	299.557	2.60302	0
0.0440	-12.2077	-82.4675	-132.453	2.89968	-31.1872	1.9093	7.15808	180.527	1.97829	-0.321467
0.0447	10.0452	-256.726	-112.005	2.60228	-54.9968	0.37504	5.93069	45.9604	2.29066	0
0.0453	58.2479	-282.688	-18.0072	0.48328	-68.1173	-1.15922	5.93069	-64.5162	0.45119	0
0.0460	85.4536	-144.117	29.591	0.780683	-71.7746	-0.545513	12.0367	-112.43	0.763552	-0.321467
0.0467	70.8044	-14.0661	29.591	5.98524	-65.9794	4.94371	16.9257	-81.0004	5.34487	0
0.0473	38.1576	4.82266	-1.84141	7.80683	-68.1173	9.23963	12.6453	-54.1285	7.49669	0
0.0480	14.9282	-64.1414	-68.6674	5.35326	-73.3047	8.93278	8.37516	3.8473	4.13012	0
0.0487	28.0427	-129.488	-88.8158	6.58005	-58.3503	11.3535	11.1188	95.3834	3.5054	0
0.0493	66.5491	-257.932	-20.4482	8.10424	-41.562	14.1152	14.1718	90.5003	4.72014	0
0.0500	103.451	-424.233	75.0695	7.17485	-29.6677	15.0357	16.3068	-12.0154	4.13012	0.321467
0.0507	136.098	-478.247	135.793	7.17485	-10.1338	17.1496	19.0607	-181.711	3.81776	0.321467
0.0513	125.425	-324.163	136.714	5.65066	7.26235	17.1496	18.7513	-285.469	2.29066	0
0.0520	49.1096	-91.952	176.09	5.65066	14.8915	21.1386	17.8333	-145.073	1.66593	-0.321467
0.0527	-21.3459	-72.0988	230.711	7.17485	23.1284	27.2416	15.3992	131.4	2.91538	0
0.0533	-45.2032	-133.427	103.14	5.98524	46.3302	23.2525	11.7376	353.271	2.60302	0
0.0540	-34.1814	-94.3634	1.22047	6.28264	67.3837	12.274	14.7906	444.836	3.81776	0
0.0547	-3.34838	-108.671	75.9902	2.89968	55.175	-4.19363	13.8727	376.473	2.91538	0
0.0553	-1.25564	-86.406	53.101	0.185877	30.4537	-12.4445	6.84866	133.856	-1.35357	-1.28587
0.0560	-31.4609	53.3708	-46.3778	0.780683	15.8032	-4.80733	-0.773568	-244.57	-4.40778	-1.60734
0.0567	-35.9951	53.0493	-67.7467	-2.89968	-3.41634	2.82985	-15.4301	-491.152	-8.67673	0.321467
0.0573	-3.97621	-59.2383	-57.3834	-4.08929	-24.4803	8.31907	-22.7532	-459.101	-8.67673	0.321467
0.0580	9.48709	-57.7112	-53.4008	-6.54287	-34.5512	6.78482	-19.7002	-341.61	-9.30145	0
0.0587	-2.72056	-12.2978	-51.281	-10.2232	-39.1203	1.60244	-16.6472	-211.927	-12.3557	0
0.0593	-8.58023	-14.3876	-37.235	-7.13768	-45.5338	1.60244	-9.93261	-71.5301	-9.61382	0
0.0600	-6.1387	-38.8224	-16.487	-5.61349	-45.2299	0.0681891	-5.66252	-8.67122	-7.46199	0
0.0607	6.41774	-60.5244	-1.22047	-2.5651	-32.7172	1.60244	-0.474455	7.81297	-4.40778	0
0.0613	17.7185	-67.8388	13.4251	1.07809	-18.6746	4.02316	5.02304	16.6618	-0.138828	0.321467
0.0620	17.9976	-62.9357	16.487	-1.33831	-7.69201	0.988742	2.57856	-6.83635	-1.97829	0
0.0627	12.8355	-47.3424	-3.06187	-0.743508	4.5167	0.0681891	1.66059	-38.5618	-2.29066	-0.321467
0.0633	-0.906854	-44.6096	-22.2896	-1.33831	13.9798	-1.15922	0.134085	-67.2685	-1.66593	-0.321467
0.0640	-3.97621	-52.567	-18.928	-2.2677	20.3828	0.681891	-2.30008	-69.3993	-0.763552	0.321467
0.0647	3.34838	-51.0398	-7.94374	-0.446105	22.2167	5.55741	-0.773568	-35.8391	0.763552	0.321467
0.0653	3.97621	-51.3613	-5.18163	-2.5651	17.941	4.94371	-3.52747	-22.6991	-1.97829	0
0.0660	17.7185	-55.6213	4.26093	-3.79189	24.9624	3.7504	-8.10699	-29.713	-3.81776	-0.321467
0.0667	35.9951	-60.5244	16.1658	-4.72128	42.9663	0.681891	-11.7685	-42.853	-4.13012	0
0.0673	41.506	-60.2029	20.4482	-3.49449	48.1537	1.29559	-12.0677	-32.4653	-2.88067	0.321467
0.0680	38.4367	-52.567	24.1096	-0.743508	35.3371	5.86427	-6.8796	15.7443	-0.45119	0.321467
0.0687	25.95	-50.1557	24.4093	-3.79189	18.2449	4.63686	-6.8796	40.7814	-2.60302	0
0.0693	18.9044	-49.5126	14.0461	-4.42387	16.4215	5.55741	-6.58049	38.325	-2.88067	0
0.0700	18.6254	-49.1911	-8.24351	-3.79189	26.7963	4.63686	-5.35309	29.4762	-1.35357	0.321467
0.0707	25.0431	-53.1296	-21.6686	-3.19708	26.1885	2.82985	-7.79757	20.3315	-0.763552	0.321467
0.0713	38.1576	-52.2455	-18.0072	2.00747	17.0293	7.70537	-6.27106	26.428	2.91538	0
0.0720	34.4605	-52.567	-17.7075	0.780683	14.8915	6.78482	-6.8796	33.4419	2.29066	0
0.0727	24.4153	-55.2998	-20.1484	-2.2677	16.4215	3.1367	-7.79757	35.2768	0.173535	0
0.0733	23.1597	-54.6568	-32.3531	-1.33831	11.538	2.523	-5.66252	33.1459	0.45119	0.321467
0.0740	21.0669	-54.6568	-42.7164	-2.2677	3.60498	1.29559	-4.74455	26.428	0.173535	0.321467
0.0747	20.1601	-54.4157	0.920704	-0.148702	0.544938	4.63686	0.134085	26.428	2.91538	0
0.0753	17.9976	-57.1485	78.4311	0.48328	-1.27851	4.33001	2.26913	23.3797	3.19304	0.321467
0.0760	12.2077	-58.6757	134.273	-1.9703	-3.41634	1.29559	1.05205	9.02635	0.763552	0.321467
0.0767	7.95241	-52.8885	153.501	-2.89968	-3.41634	0.988742	1.36148	-4.08405	0.173535	0
0.0773	8.51048	-47.9855	132.453	-2.2677	-4.94636	1.60244	1.97002	-11.098	0.173535	0
0.0780	17.3697	-46.1368	100.4	2.60228	-7.0842	6.17112	7.15808	1.71649	4.13012	0.321467
0.0787	22.6016	-53.1296	75.6904	4.12647	-10.1338	6.78482	7.15808	17.5792	4.72014	0.321467
0.0793	22.6016	-64.4629	43.3373	1.71007	-13.4872	3.44355	2.57856	10.5653	1.38828	0.321467
0.0800	21.9738	-68.4014	-5.80257	2.00747	-11.9677	3.7504	8.07605	3.8473	1.66593	0
0.0807	17.3697	-67.1957	-80.2725	0.780683	-10.4377	3.1367	11.1188	-3.16662	1.38828	0.321467
0.0813	20.7181	-54.0942	-119.627	3.23426	-10.4377	6.78482	7.15808	-11.4235	4.13012	0.321467
0.0820	28.0427	-33.5979	-85.4541	4.75845	-9.82985	9.23963	1.97002	3.22581	6.24725	0
0.0827	31.1121	-22.988	-34.794	1.71007	-13.1833	4.63686	-4.13601	18.7926	3.19304	-0.321467
0.0833	27.7637	-14.0661	-10.3847	2.89968	-23.862	4.33001	-2.6095	24.2972	3.81776	0
0.0840	8.85927	-9.80608	-24.4093	2.89968	-36.3746	3.7504	-0.773568	22.7582	3.81776	0
0.0847	-1.53468	-9.80608	-41.8171	3.23426	-42.1803	4.02316	-0.773568	9.94378	3.5054	0.321467
0.0853	8.23144	-7.71626	-36.3143	6.58005	-43.6998	6.78482	1.97002	-0.118378	5.34487	-0.964401
0.0860	17.0907	-9.24343	-27.4712	5.35326	-44.0038	5.25056	0.134085	-3.49216	3.5054	-1.60734
0.0867	18.6254	-6.75172	-22.8891	2.60228	-45.5338	4.02316	-2.30008	-5.29743	2.60302	0
0.0873	10.673	1.12529	-23.5101	0.48328	-42.4842	3.1367	-3.21804	-8.67122	2.29066	0.321467
0.0880	6.41774	7.5555	-23.8098	2.89968	-25.392	5.55741	0.443512	3.8473	4.72014	-0.321467
0.0887	8.85927	9.7257	-28.0708	4.75845	-6.16199	6.78482	3.79564	28.5588	7.18433	0.321467
0.0893	6.06895	5.70681	-41.4959	1.07809	8.17407	2.523	-0.773568	37.7331	4.13012	0.642934
0.0900	5.78991	1.76831	-46.9987	0.780683	18.5489	4.94371	-2.00096	31.9326	3.19304	0.321467
0.0907	6.41774	-2.81322	-48.5189	0.185877	14.2837	6.47797	-1.083	17.8751	1.97829	0
0.0913	8.85927	-6.18908	-45.4785	1.37549	10.3119	6.17112	0.134085	4.76473	2.60302	0
0.0920	15.277	-2.1702	-34.794	5.98524	25.8741	8.31907	5.32215	-1.33176	6.24725	0
0.0927	11.3008	1.76831	-33.5736	3.53166	40.8284	4.02316	3.1871	-1.03581	4.13012	-0.321467
0.0933	4.60403	6.02833	-32.9526	1.37549	39.6128	1.29559	-0.165028	8.73041	3.81776	0
0.0940	2.44153	9.08268	-24.7305	2.60228	28.3158	2.523	1.36148	16.9577	5.65723	0
0.0947	0.906854	8.19852	-15.8661	2.30487	11.8419	2.523	1.66059	12.992	5.65723	0
0.0953	4.25524	7.23399	-3.6614	4.75845	2.98668	4.94371	2.26913	6.5996	7.49669	0
0.0960	4.88306	5.70681	7.62257	3.23426	1.46714	4.02316	-0.165028	-0.118378	6.24725	0
0.0967	2.72056	4.50115	14.9454	0.780683	-0.366785	2.82985	-4.13601	-3.78811	3.19304	0
0.0973	1.18589	3.617	13.7249	0.780683	-1.8968	2.82985	-4.44544	-2.24919	1.97829	0
0.0980	1.53468	2.41133	7.02304	1.71007	-1.8968	4.33001	-2.6095	-1.03581	2.29066	0
0.0987	3.97621	4.17964	4.88187	5.65066	-0.974601	8.93278	1.66059	1.39095	5.0325	0
0.0993	-1.53468	4.50115	-3.36164	4.42387	-2.20071	6.47797	-3.21804	0.799054	3.81776	0
0.1000	-7.60362	3.617	-14.6456	2.60228	-3.72025	3.44355	-15.4301	-1.95324	1.97829	0
0.1007	-7.04556	2.41133	-23.8098	3.82907	-3.41634	4.02316	-22.1447	-3.78811	2.60302	0
0.1013	-3.69717	0.241133	-39.9757	5.35326	-2.50462	5.25056	-23.0523	-5.62297	3.5054	0
0.1020	3.97621	3.617	-54.3215	9.33103	-0.974601	9.23963	-19.7002	-2.24919	6.87197	0.321467
0.1027	7.32459	5.70681	-61.0448	7.50943	-1.58242	6.78482	-24.2797	0.177568	5.34487	0.321467
0.1033	3.97621	4.17964	-61.6443	2.60228	-3.11244	1.9093	-34.6558	0.177568	1.07591	0
0.1040	2.44153	3.617	-54.9424	2.30487	-3.41634	1.29559	-35.8729	2.63392	0.173535	-0.321467
0.1047	1.81371	3.29548	-44.258	2.89968	-3.11244	2.21615	-33.4285	2.01243	1.07591	0
0.1053	1.53468	4.17964	-25.3301	5.98524	-1.58242	5.25056	-29.4678	3.55135	3.81776	0
0.1060	-5.16209	2.08982	-2.44093	5.98524	-2.20071	4.94371	-25.4968	3.8473	3.19304	0.321467
0.1067	-14.3701	-0.964532	17.3863	2.00747	-4.33855	1.60244	-24.2797	-3.49216	-0.45119	0.321467
0.1073	-17.0907	3.29548	30.8114	-1.33831	-5.85809	-0.852364	-22.1447	-9.26311	-1.97829	-0.321467
0.1080	-14.6492	12.137	44.258	0.185877	-5.55418	0.37504	-11.7685	-5.00149	-0.763552	-0.321467
0.1087	-7.95241	19.1299	62.2438	6.58005	-3.41634	5.55741	11.7376	-0.739865	4.72014	0
0.1093	-8.85927	22.8273	58.9036	4.75845	-5.25027	3.7504	21.4949	-8.96716	4.72014	0
0.1100	-15.556	27.9714	36.0145	-0.743508	-7.69201	-0.545513	16.6162	-13.2584	0.173535	-0.321467
0.1107	-16.4629	27.9714	15.5663	-1.04091	-7.3881	-0.545513	16.6162	-4.70554	-0.138828	0
0.1113	-13.7423	23.4703	0	-0.446105	-6.4659	0.988742	18.1427	3.8473	1.07591	0
0.1120	-7.60362	25.2386	-3.6614	2.60228	-4.64245	6.47797	25.1564	11.1572	4.13012	0
0.1127	-4.60403	25.2386	-4.28234	2.60228	-4.33855	7.39852	29.1274	13.3176	5.0325	0
0.1133	-10.3939	19.1299	-9.76374	-2.89968	-6.4659	1.9093	23.3308	6.5996	2.60302	0
0.1140	-15.556	15.5129	-13.4251	-5.61349	-8.29983	-1.15922	18.7513	2.30838	2.60302	0.321467
0.1147	-18.6254	14.8699	-14.3458	-5.01868	-9.82985	-0.238662	16.3068	2.01243	3.5054	0
0.1153	-19.2532	17.3616	-11.284	-0.446105	-9.52594	3.7504	18.4522	1.095	5.0325	-1.60734
0.1160	-19.2532	20.9786	-7.94374	2.00747	-8.29983	6.17112	21.4949	0.799054	6.24725	-1.60734
0.1167	-22.2528	19.7729	-11.284	-2.2677	-10.1338	2.82985	13.5632	1.71649	5.34487	0.321467
0.1173	-25.0431	17.0401	-8.84304	-5.01868	-12.8794	0.988742	2.26913	1.095	3.19304	0.321467
0.1180	-21.9738	18.5672	7.02304	-1.33831	-12.2716	4.94371	-2.30008	2.01243	4.72014	0
0.1187	-14.9282	21.6216	17.0865	2.89968	-9.22203	8.62593	-5.35309	6.27405	7.77435	0.321467
0.1193	-15.9048	18.8888	3.96117	0.185877	-9.52594	3.7504	-9.6335	3.22581	4.44249	0
0.1200	-19.5322	14.3072	-20.7479	-2.89968	-10.4377	-0.238662	-14.2027	-3.16662	-0.45119	0
0.1207	-18.3464	14.8699	-42.1168	-2.5651	-9.22203	0.988742	-20.6182	-3.78811	-1.97829	0
0.1213	-15.9048	18.8888	-48.8401	-1.33831	-8.60373	3.44355	-26.7139	-3.16662	-1.35357	-0.321467
0.1220	-11.0218	26.7658	-38.1557	2.60228	-5.85809	8.31907	-27.3327	-0.118378	2.29066	-0.321467
0.1227	-8.58023	31.0258	-24.7305	4.75845	-3.41634	8.31907	-26.1053	2.30838	1.66593	0
0.1233	-11.3008	27.0873	-24.4093	2.00747	-4.64245	3.1367	-30.9943	-1.33176	-4.13012	0
0.1240	-15.556	23.7114	-36.614	-1.04091	-5.55418	-0.238662	-33.1293	-5.91892	-6.55961	-0.321467
0.1247	-14.9282	25.5601	-40.5966	-0.148702	-3.72025	1.60244	-27.0233	-3.78811	-4.13012	0.321467
0.1253	-11.9286	25.8816	-19.2277	1.07809	-3.11244	3.44355	-20.9173	-1.03581	-3.19304	-0.642934
0.1260	-11.5798	21.3001	18.928	-0.743508	-4.64245	0.681891	-14.2027	-3.78811	-6.24725	-0.964401
0.1267	-9.48709	16.397	48.2192	-2.89968	-4.94636	-1.15922	-3.21804	-2.57473	-7.18433	0
0.1273	-5.78991	12.78	56.7624	-2.89968	-4.64245	-0.852364	3.79564	1.095	-5.93488	0
0.1280	-3.69717	10.2883	48.2192	-1.9703	-4.33855	-0.852364	3.1871	0.799054	-5.65723	-0.321467
0.1287	-3.34838	10.6099	32.6529	-1.67289	-3.41634	-0.238662	2.57856	-0.414324	-5.0325	0
0.1293	-5.51088	10.2883	17.7075	-2.89968	-4.94636	-1.46607	9.90167	-1.33176	-5.0325	0.321467
0.1300	-7.32459	9.96683	7.02304	-2.5651	-6.16199	-2.07977	21.8043	-1.95324	-3.19304	0.321467
0.1307	-8.23144	12.4585	0.920704	-0.743508	-5.55418	0.0681891	23.3308	-1.95324	-0.45119	0
0.1313	-8.23144	16.7186	-1.22047	2.00747	-4.02416	2.82985	18.4522	0.473514	2.60302	0
0.1320	-3.34838	20.9786	8.24351	5.65066	-2.50462	6.47797	20.8863	5.68216	7.18433	0
0.1327	-3.69717	22.1842	31.7322	4.75845	-1.8968	4.63686	12.9547	6.5996	6.55961	0
0.1333	-10.0452	22.1842	55.542	1.07809	-2.20071	0.37504	-21.5258	5.35662	2.29066	0
0.1340	-14.9282	23.7114	62.565	-1.67289	-2.50462	-2.07977	-56.9346	6.5996	0.173535	0
0.1347	-17.3697	25.8816	54.0217	-3.19708	-1.58242	-3.57993	-62.4218	8.10892	-0.138828	0
0.1353	-15.556	30.7846	42.7164	-2.2677	1.16323	-2.96623	-50.5191	11.7786	1.97829	0
0.1360	-13.1145	33.196	28.9915	-5.31608	1.16323	-3.57993	-40.7516	14.8269	1.38828	0
0.1367	-13.4633	33.5175	13.4251	-8.99645	0.544938	-5.72789	-24.5788	16.9577	0.173535	0
0.1373	-17.3697	33.839	-13.7249	-11.7474	-0.366785	-9.68286	-5.96163	17.2832	0.763552	0
0.1380	-20.4391	34.0801	-55.2422	-12.3422	-0.0628775	-9.37601	4.71361	18.7926	4.13012	0
0.1387	-19.2532	35.9288	-79.3518	-7.76966	2.07496	-2.65938	16.6162	24.5931	10.8286	0.321467
0.1393	-21.9738	31.9903	-76.9109	-8.06706	0.848846	-2.65938	30.6539	25.2146	11.1409	0.321467
0.1400	-21.0669	26.2031	-56.1629	-8.66187	0.544938	-2.96623	53.8506	24.8891	10.5162	0
0.1407	-17.7185	23.1488	-39.3761	-7.47226	1.16323	-1.15922	77.0371	26.7239	12.668	0.321467
0.1413	-21.3459	17.6027	-40.8964	-11.7474	-0.974601	-4.80733	78.2645	23.0838	9.92618	0
0.1420	-18.3464	18.5672	-35.0938	-10.5206	1.77105	-0.852364	68.1874	24.2972	12.3557	0.321467
0.1427	-15.9048	19.4514	-29.2912	-10.2232	3.29059	-0.852364	57.8113	26.428	14.5075	0.321467
0.1433	-20.4391	15.5129	-34.794	-15.688	-0.0628775	-7.87585	55.3772	22.7582	8.71144	0
0.1440	-17.3697	19.4514	-30.5117	-12.3422	1.46714	-3.88678	50.7976	24.2972	9.61382	0
0.1447	-15.9048	22.8273	-25.6298	-9.59125	2.68277	-1.46607	27.6009	25.5105	11.1409	0.321467
0.1453	-16.4629	21.3001	-24.7305	-9.88866	1.77105	-2.07977	7.76662	21.2489	9.0238	-0.642934
0.1460	-12.8355	22.1842	-21.6686	-9.88866	2.68277	-1.46607	-5.96163	17.8751	6.87197	-0.964401
0.1467	-13.4633	20.4159	-23.1889	-14.1638	2.37886	-5.11419	-32.5208	15.7443	2.91538	0.321467
0.1473	-11.9286	19.1299	-21.9684	-15.0932	2.37886	-5.11419	-60.5962	17.2832	2.91538	0.642934
0.1480	-9.48709	19.1299	-19.2277	-14.1638	2.68277	-4.19363	-80.7296	15.4484	3.81776	-0.642934
0.1487	-7.60362	19.7729	-16.487	-11.7474	4.21279	-2.96623	-113.384	11.1572	4.13012	-1.60734
0.1493	-4.88306	21.3001	-13.7249	-9.29385	5.73233	-0.852364	-173.506	12.6961	5.96959	-0.321467
0.1500	-8.23144	18.5672	-16.487	-10.818	3.29059	-2.65938	-215.929	12.4001	5.0325	0.321467
0.1507	-10.0452	16.397	-17.0865	-9.29385	1.77105	-3.27308	-195.475	10.8612	5.34487	0
0.1513	-9.76612	16.7186	-15.2665	-5.01868	2.68277	-2.38662	-153.063	12.0746	7.49669	0.321467
0.1520	-9.1383	17.3616	-13.4251	-2.89968	3.60498	-2.38662	-125.287	13.9095	8.08671	0
0.1527	-10.3939	18.5672	-13.4251	-3.19708	3.29059	-3.88678	-97.8203	15.7443	6.55961	0
0.1533	-16.1839	18.2457	-16.487	-6.84027	2.37886	-7.26214	-70.6629	16.0403	2.29066	0.321467
0.1540	-18.3464	17.6027	-15.5663	-8.99645	2.68277	-8.1827	-37.09	16.9577	0.173535	0.321467
0.1547	-18.9044	17.3616	-14.9454	-10.2232	2.68277	-8.7623	15.0897	17.5792	-0.138828	0
0.1553	-19.5322	16.397	-15.2665	-10.5206	3.29059	-8.7623	55.0677	16.6618	-0.45119	0
0.1560	-14.3701	18.2457	-10.3847	-8.06706	5.42842	-4.80733	57.8113	18.2007	1.07591	0
0.1567	-13.1145	18.8888	-9.16421	-8.66187	3.90888	-2.65938	68.8063	18.7926	1.07591	0
0.1573	-15.277	16.0755	-11.9049	-12.0448	1.46714	-1.77292	109.083	16.3658	-1.66593	0.642934
0.1580	-14.6492	13.9857	-12.8256	-12.0448	0.848846	-0.545513	152.723	12.992	-1.35357	0.321467
0.1587	-15.277	13.3427	-11.9049	-9.88866	0.544938	0.0681891	197.889	11.7786	1.38828	0
0.1593	-15.9048	13.0212	-9.46398	-7.47226	1.16323	3.44355	206.44	12.992	4.44249	0.321467
0.1600	-14.3701	13.6642	-6.72328	-5.61349	2.07496	7.70537	159.438	14.235	5.96959	0.321467
0.1607	-15.277	14.3072	-5.50281	-6.54287	1.77105	7.09167	104.813	13.9095	5.34487	0
0.1613	-21.3459	10.9314	-8.54327	-12.0448	0.544938	0.37504	71.849	10.5653	3.19304	0.321467
0.1620	-24.6943	7.5555	-9.46398	-12.937	-0.974601	-1.46607	57.5122	8.10892	4.72014	0.321467
0.1627	-17.9976	9.7257	-3.06187	-6.24547	1.16323	4.63686	38.895	11.1572	11.7656	0.321467
0.1633	-14.6492	8.43966	-4.28234	-7.47226	1.46714	2.21615	12.0367	9.02635	11.4533	0.321467
0.1640	-13.7423	6.34984	-5.80257	-9.59125	1.16323	0.37504	10.8196	6.27405	9.61382	0
0.1647	-9.1383	6.91248	-1.52023	-6.54287	3.29059	3.44355	28.2094	7.81297	12.3557	0
0.1653	-11.3008	2.97397	-4.58211	-8.66187	2.68277	-1.15922	44.3925	4.14324	10.2385	0
0.1660	-10.673	0.884154	-5.18163	-8.66187	2.98668	-2.07977	73.6849	2.63392	9.30145	0
0.1667	-9.76612	0.562644	-4.58211	-6.84027	2.98668	-1.46607	70.6319	2.92987	11.1409	0
0.1673	-18.6254	-1.60755	-9.46398	-7.76966	2.07496	-4.80733	22.1137	0.799054	10.5162	0
0.1680	-20.7879	1.12529	-5.80257	-3.79189	5.42842	-0.545513	3.79564	5.06068	12.9804	0
0.1687	-18.3464	3.29548	-3.06187	-1.33831	7.87016	1.29559	10.2111	7.51703	13.2928	0
0.1693	-16.8117	-0.0803777	-5.18163	-3.19708	6.04672	-2.07977	8.07605	4.46878	10.5162	0
0.1700	-10.673	-0.643021	-1.84141	-0.743508	6.95844	1.29559	26.9924	7.19149	12.3557	0.321467
0.1707	-11.3008	-3.45624	-3.6614	-2.5651	6.04672	0.988742	57.2028	6.5996	11.7656	0
0.1713	-17.9976	-7.71626	-8.84304	-5.31608	2.37886	-1.77292	79.791	2.01243	9.61382	0
0.1720	-16.4629	-5.86757	-7.3228	-0.743508	1.46714	1.9093	94.4372	3.8473	12.9804	0
0.1727	-12.2077	-3.69737	-4.58211	3.82907	1.46714	4.94371	67.2798	6.89554	15.4099	0
0.1733	-12.2077	-5.86757	-7.02304	3.23426	0.24103	3.44355	1.36148	3.8473	13.8828	0.321467
0.1740	-12.4867	-6.75172	-11.284	0.48328	-0.974601	2.523	-61.2047	1.71649	11.1409	0.321467
0.1747	-7.04556	-3.69737	-14.3458	0.185877	-3.41634	2.523	-95.3861	3.22581	9.92618	-0.321467
0.1753	1.18589	-0.401888	-16.1658	2.00747	-5.55418	3.1367	-104.535	4.14324	8.71144	-1.60734
0.1760	1.81371	0.241133	-16.7868	2.89968	-4.02416	3.1367	-124.07	4.46878	8.39907	-0.642934
0.1767	-3.34838	-0.401888	-17.3863	0.780683	-2.50462	3.1367	-155.198	5.68216	8.08671	0.642934
0.1773	-6.69677	-3.69737	-18.928	-2.89968	-4.02416	1.29559	-166.492	5.06068	5.96959	0.321467
0.1780	-8.23144	-8.03777	-19.8487	-5.61349	-4.02416	0.37504	-151.836	1.71649	4.13012	0
0.1787	-3.06935	-10.1276	-17.7075	-6.84027	-2.20071	3.44355	-110.331	-1.95324	5.0325	0
0.1793	9.1383	-13.5034	-16.1658	-10.2232	-1.58242	2.82985	-68.5278	-8.37527	3.81776	0
0.1800	19.2532	-17.442	-14.0461	-13.2716	-0.0628775	-0.545513	-40.4524	-14.4718	1.38828	0
0.1807	18.2766	-16.8793	-9.46398	-12.0448	2.98668	0.681891	-0.165028	-13.5543	2.60302	-0.321467
0.1813	11.9286	-14.3876	-7.02304	-9.88866	4.82061	0.988742	40.1121	-8.96716	4.72014	-0.321467
0.1820	10.952	-15.3521	-5.80257	-8.66187	5.42842	-0.238662	71.849	-5.62297	4.72014	0
0.1827	6.69677	-18.4065	-7.02304	-9.29385	5.73233	-2.07977	104.504	-5.62297	2.60302	0
0.1833	-5.16209	-20.1748	-9.46398	-8.99645	6.95844	-3.27308	122.513	-6.54041	0.45119	0
0.1840	-7.32459	-18.6476	-7.02304	-5.31608	9.70409	-1.15922	128.01	-3.78811	1.66593	0
0.1847	3.62742	-18.4065	-4.58211	-3.49449	11.2341	-0.238662	136.241	-2.24919	1.97829	0
0.1853	13.7423	-18.6476	-4.58211	-1.9703	11.8419	-0.238662	147.236	-1.95324	0.763552	0
0.1860	8.23144	-17.7635	-5.80257	0.48328	10.9197	0.0681891	151.805	-0.118378	0.45119	0
0.1867	-14.9282	-18.4065	-9.76374	-0.743508	8.79237	-2.65938	134.415	-1.03581	-1.97829	0
0.1873	-27.1359	-16.8793	-7.02304	2.30487	10.9197	0.0681891	105.123	1.71649	-1.66593	0
0.1880	-27.7637	-14.3876	-5.18163	6.28264	12.4497	2.21615	77.955	5.97811	0.173535	0
0.1887	-44.8544	-13.5034	-12.8256	4.42387	10.3119	-2.07977	49.8797	4.76473	-2.29066	0
0.1893	-47.9237	-7.39475	-15.8661	7.50943	10.6158	0.681891	37.3685	9.35189	-0.45119	0
0.1900	-21.3459	-3.13473	-21.3689	8.69904	8.48846	0.37504	31.2625	12.0746	-0.763552	0
0.1907	10.0452	-6.18908	-28.6917	5.98524	5.42842	-3.88678	15.0897	7.19149	-5.0325	0.321467
0.1913	43.3197	-6.75172	-22.5894	10.5578	7.56626	0.681891	2.88799	5.97811	-2.88067	0
0.1920	71.7112	-9.80608	-18.6068	11.45	8.17407	0.988742	-10.5412	2.30838	-3.19304	0
0.1927	84.1979	-15.3521	-20.1484	9.03362	6.65453	-2.65938	-26.1053	-4.08405	-7.18433	0.321467
0.1933	85.4536	-16.8793	-14.3458	12.9742	7.87016	0.37504	-26.1053	-6.54041	-4.13012	0.642934
0.1940	80.5705	-21.1393	-10.6844	13.6062	6.95844	0.0681891	-18.1737	-16.3066	-2.60302	0.321467
0.1947	60.1314	-25.3993	-10.6844	12.3794	4.82061	-2.65938	-8.71553	-26.9903	-4.13012	0.321467
0.1953	28.6705	-21.702	-6.4021	15.4278	6.04672	-0.238662	1.97002	-23.6165	-1.66593	0.321467
0.1960	7.60362	-20.1748	-8.24351	12.3794	4.21279	-3.57993	-0.165028	-19.9468	-2.88067	0
0.1967	2.72056	-23.5507	-11.6051	6.87745	1.46714	-8.7623	-10.242	-24.5339	-6.87197	0.321467
0.1973	7.60362	-24.1937	-7.3228	7.17485	1.77105	-7.26214	-12.6762	-27.5822	-4.40778	0.321467
0.1980	11.5798	-22.0235	-1.22047	9.92583	2.98668	-4.19363	-4.44544	-26.0728	0.763552	0.321467
0.1987	2.72056	-21.702	-1.84141	9.33103	1.77105	-5.72789	6.54954	-25.4514	0.45119	0.321467
0.1993	-10.0452	-22.988	-4.58211	6.58005	-0.974601	-9.06915	11.7376	-25.4514	-3.5054	0.321467
0.2000	-17.3697	-22.6665	-4.58211	4.75845	-2.20071	-9.68286	11.4282	-22.1072	-5.65723	0.321467
0.2007	-23.5084	-22.0235	-3.96117	4.75845	-1.27851	-8.7623	7.76662	-18.4374	-5.93488	0
0.2013	-32.9955	-22.0235	-4.58211	4.12647	-0.974601	-9.06915	5.93069	-17.8159	-7.77435	0
0.2020	-36.3439	-20.4963	-2.44093	5.35326	-0.974601	-6.03474	6.54954	-15.3892	-7.46199	0
0.2027	-30.833	-17.7635	0.299764	7.50943	-0.670693	-2.38662	1.05205	-12.0154	-6.55961	0.321467
0.2033	-31.4609	-18.085	-1.84141	5.65066	-1.8968	-5.42104	-10.8506	-12.0154	-8.67673	0.321467
0.2040	-34.8092	-18.6476	-1.22047	6.87745	-2.80853	-5.11419	-23.6712	-11.098	-8.98909	0.321467
0.2047	-38.1576	-16.8793	0.299764	9.62843	-3.11244	-2.96623	-37.3994	-8.96716	-7.18433	0.321467
0.2053	-57.4108	-16.2363	-2.44093	9.33103	-3.72025	-4.50048	-45.6405	-7.45784	-8.39907	0.321467
0.2060	-94.0338	-14.3876	-0.299764	11.45	-3.72025	-1.46607	-43.8046	-3.16662	-8.08671	0
0.2067	-114.473	-12.2978	0.920704	12.6768	-4.94636	1.29559	-47.4661	-0.118378	-6.24725	0.321467
0.2073	-90.9644	-9.56494	-4.88187	10.8552	-7.3881	-1.46607	-56.6252	1.39095	-7.46199	0.321467
0.2080	-32.6467	-5.86757	-7.94374	12.082	-7.3881	-0.852364	-56.3158	4.14324	-7.77435	-0.964401
0.2087	44.5754	-4.01888	-6.4021	12.9742	-4.94636	0.681891	-49.9106	5.68216	-7.46199	-1.28587
0.2093	102.195	-3.13473	-4.58211	10.8552	-2.50462	-0.545513	-44.114	8.10892	-7.18433	0.321467
0.2100	111.683	-1.60755	-1.22047	10.2232	-2.80853	-0.852364	-38.6165	11.7786	-6.55961	0.321467
0.2107	123.89	1.4468	0.299764	10.5578	-4.94636	0.37504	-30.3754	13.9095	-6.55961	0
0.2113	168.745	4.82266	-1.84141	9.03362	-6.78029	0.37504	-22.1447	13.9095	-7.77435	0
0.2120	186.463	7.5555	-4.88187	7.50943	-6.16199	-1.46607	-16.3378	11.7786	-9.30145	0
0.2127	131.215	12.78	-8.54327	8.10424	-5.55418	-1.77292	-9.93261	11.1572	-9.92618	0
0.2133	-8.58023	25.2386	-11.9049	11.7846	-5.25027	3.1367	1.36148	19.71	-7.46199	0
0.2140	-236.549	36.5718	-18.0072	11.7846	-5.55418	4.02316	11.7376	30.0977	-6.55961	0
0.2147	-365.881	40.5103	-24.4093	9.62843	-6.78029	1.60244	17.2248	34.0634	-7.77435	0
0.2153	-300.936	43.5647	-21.9684	12.6768	-5.55418	4.33001	25.1564	39.2424	-4.40778	0
0.2160	-228.876	40.5103	-21.3689	12.9742	-6.4659	3.1367	30.3445	38.325	-3.5054	0.321467
0.2167	-153.816	29.8201	-19.8487	10.2232	-7.0842	1.29559	24.8573	25.2146	-5.65723	0
0.2173	14.0214	19.4514	-5.18163	13.9036	-2.50462	6.78482	20.2778	12.6961	-2.29066	0
0.2180	172.442	7.23399	1.22047	15.1304	-0.670693	4.63686	12.6453	-2.24919	-3.19304	0
0.2187	246.874	-2.81322	0	12.9742	-1.8968	0.0681891	3.49653	-16.6026	-6.87197	0
0.2193	252.384	-3.45624	8.54327	15.7252	0.848846	4.94371	4.71361	-19.0293	-3.81776	0
0.2200	180.045	-8.60041	9.76374	12.3794	0.24103	1.60244	0.443512	-28.2036	-5.93488	0.321467
0.2207	68.3628	-13.1819	8.84304	9.92583	-0.670693	-0.238662	-4.13601	-43.1489	-8.39907	0.321467
0.2213	-21.0669	-5.86757	14.3458	16.0226	2.68277	6.78482	2.26913	-44.6878	-3.19304	0
0.2220	-65.2935	0.884154	9.16421	14.201	1.16323	4.02316	-0.474455	-39.8047	-4.40778	0.321467
0.2227	-53.7137	2.65246	2.14117	9.92583	-2.20071	-0.238662	-6.58049	-37.0524	-7.77435	0.321467
0.2233	-10.673	6.02833	4.88187	13.3088	-1.58242	3.7504	-1.083	-32.1693	-4.72014	0
0.2240	16.8117	6.02833	4.26093	13.6062	-2.80853	3.7504	1.36148	-30.6304	-4.13012	0.321467
0.2247	18.9044	3.617	4.58211	12.6768	-4.02416	3.1367	-4.44544	-33.6786	-5.65723	0.321467
0.2253	6.41774	3.29548	8.54327	13.9036	-2.80853	5.25056	-9.93261	-35.8391	-4.72014	0
0.2260	-8.58023	1.4468	6.70187	11.1526	-3.72025	2.523	-15.7292	-36.135	-7.46199	0
0.2267	-11.3008	0.884154	4.88187	8.69904	-4.64245	0.37504	-19.7002	-33.0868	-9.61382	0
0.2273	-5.16209	2.65246	5.4814	9.03362	-4.94636	0.37504	-23.6712	-29.417	-9.61382	0.321467
0.2280	0	4.82266	8.54327	11.45	-4.02416	3.44355	-27.6318	-23.9124	-8.08671	0.321467
0.2287	1.53468	7.5555	12.5044	14.833	-2.20071	6.78482	-29.4678	-16.3066	-5.65723	0.321467
0.2293	-3.34838	9.40419	10.3847	11.7846	-2.50462	3.7504	-27.9413	-11.4235	-6.87197	0
0.2300	-5.16209	10.2883	7.02304	8.10424	-3.72025	0.681891	-24.5788	-8.37527	-8.98909	0
0.2307	4.25524	12.78	5.18163	8.10424	-4.33855	0.681891	-36.7909	-5.00149	-8.67673	0
0.2313	2.72056	15.1914	2.44093	7.50943	-5.25027	0.0681891	-62.7312	-2.57473	-9.92618	0
0.2320	-15.9048	15.8344	4.26093	7.50943	-4.64245	0.681891	-74.6338	-0.739865	-10.8286	0
0.2327	-22.2528	13.9857	6.4021	6.28264	-4.02416	-0.238662	-68.5278	-0.414324	-11.1409	0
0.2333	-10.673	11.8155	4.26093	2.89968	-5.25027	-3.27308	-61.5038	-0.414324	-13.5704	0
0.2340	5.78991	13.6642	6.10234	2.89968	-4.64245	-1.77292	-52.9636	4.46878	-13.5704	0
0.2347	20.4391	13.3427	8.24351	2.89968	-4.02416	-1.15922	-41.979	7.19149	-13.258	0
0.2353	35.0883	9.40419	8.24351	2.30487	-4.33855	-0.852364	-32.5208	3.55135	-14.7851	-1.28587
0.2360	55.2483	9.96683	10.6844	3.53166	-2.50462	3.44355	-15.7292	2.01243	-13.258	-1.28587
0.2367	62.852	13.9857	10.0635	2.30487	-2.80853	3.7504	-0.165028	2.30838	-12.3557	0.321467
0.2373	43.6685	15.8344	8.54327	0.780683	-4.33855	3.1367	5.93069	2.30838	-12.668	0.642934
0.2380	18.6254	15.5129	12.2047	1.37549	-3.11244	4.94371	15.0897	2.92987	-10.5162	0
0.2387	-3.06935	14.5484	13.7249	0.48328	-2.50462	4.33001	24.5479	4.46878	-8.98909	0
0.2393	-12.8355	16.7186	14.6456	2.00747	-2.50462	6.47797	36.76	7.51703	-7.46199	0
0.2400	-3.06935	17.6027	16.1658	3.23426	-3.11244	8.62593	54.7686	8.10892	-6.24725	0
0.2407	3.06935	13.0212	11.6051	-1.33831	-5.25027	4.02316	62.3908	1.71649	-8.67673	0
0.2413	3.34838	10.9314	10.3847	-3.19708	-5.25027	1.9093	64.2268	-2.24919	-8.98909	0
0.2420	16.4629	12.4585	14.9454	-1.04091	-2.50462	4.63686	63.6182	-2.57473	-5.65723	0.321467
0.2427	35.9951	10.6099	15.5663	-1.9703	-2.80853	5.55741	52.6233	-4.08405	-5.65723	0.321467
0.2433	47.575	10.6099	16.487	-1.04091	-2.80853	7.09167	41.6386	-3.49216	-4.13012	0.321467
0.2440	44.2266	12.78	18.307	0.780683	-1.58242	8.62593	38.5856	-3.16662	-2.88067	0
0.2447	23.1597	12.4585	14.9454	-1.67289	-1.58242	5.55741	34.0164	-6.83635	-5.65723	0
0.2453	0.627822	13.3427	11.9049	-3.19708	-1.27851	3.1367	19.0607	-7.75378	-6.24725	0
0.2460	-32.0189	15.8344	10.6844	-3.19708	-0.366785	3.1367	-2.30008	-5.29743	-6.24725	0
0.2467	-69.6185	18.5672	13.4251	-0.743508	2.07496	6.17112	-11.1497	-0.414324	-4.40778	0
0.2473	-65.9213	18.8888	15.8661	0.185877	3.60498	6.17112	-7.79757	2.01243	-2.29066	0.321467
0.2480	-53.0858	13.9857	13.1254	-3.49449	2.68277	1.9093	-9.6335	-0.739865	-5.0325	0.321467
0.2487	-43.9475	12.137	15.8661	-2.2677	3.90888	4.33001	-16.9566	0.177568	-4.40778	0
0.2493	-11.9286	12.4585	16.1658	-1.67289	4.5167	4.33001	-28.8592	3.55135	-4.40778	0
0.2500	-2.72056	10.9314	10.3847	-5.31608	2.98668	-0.852364	-40.4524	6.27405	-7.77435	0.321467
0.2507	-27.7637	14.5484	14.6456	-1.9703	5.73233	3.1367	-35.8729	14.8269	-4.40778	0.321467
0.2513	-43.3197	19.7729	15.8661	1.07809	8.17407	5.25056	-22.7532	23.6757	-1.66593	0
0.2520	-26.5778	23.1488	4.58211	-2.89968	6.04672	0.681891	-15.1207	25.8065	-5.34487	0
0.2527	17.0907	26.4443	-3.06187	-5.61349	3.29059	0.0681891	-6.58049	27.0495	-6.55961	0.321467
0.2533	57.062	29.2575	-7.94374	-8.36446	1.77105	-0.852364	-1.083	27.3454	-7.46199	0.321467
0.2540	35.0883	34.0801	-15.8661	-11.1154	1.16323	-2.96623	-8.71553	27.9669	-9.92618	0.321467
0.2547	-66.2003	44.4488	-19.2277	-7.13768	1.77105	2.21615	-21.2267	34.0634	-7.46199	0.321467
0.2553	-148.654	49.6734	-21.3689	-5.94806	2.07496	4.02316	-32.5208	34.9808	-5.93488	0
0.2560	-125.704	42.359	-23.1889	-10.5206	1.77105	-0.238662	-41.6695	24.8891	-8.39907	0
0.2567	-40.3201	32.8745	-18.0072	-10.2232	3.29059	0.681891	-38.008	14.8269	-7.77435	0
0.2573	27.7637	25.5601	-14.6456	-10.2232	4.21279	0.988742	-24.8883	5.06068	-7.46199	0.321467
0.2580	86.6394	20.9786	-10.9842	-9.88866	5.42842	1.60244	-16.3378	-3.49216	-6.87197	0
0.2587	157.165	17.3616	0.599528	-5.01868	9.70409	5.25056	-6.27106	-8.37527	-1.35357	0
0.2593	178.511	6.91248	4.58211	-7.13768	9.70409	1.60244	7.15808	-21.4857	-1.66593	0
0.2600	152.282	-4.01888	3.36164	-11.4128	7.87016	-3.27308	17.2248	-36.431	-5.93488	0
0.2607	125.704	-6.75172	7.62257	-9.59125	9.70409	-0.545513	26.6829	-41.0181	-5.34487	0
0.2613	78.129	-6.51059	6.70187	-9.29385	9.70409	-0.545513	33.3975	-43.1489	-5.34487	0
0.2620	22.8806	-4.01888	5.80257	-7.13768	11.2341	0.37504	34.0164	-44.3623	-4.40778	0.321467
0.2627	-1.25564	-0.643021	7.92233	-4.42387	13.6759	4.63686	34.924	-45.2797	-1.35357	0
0.2633	-10.0452	-3.45624	3.6614	-8.99645	10.9197	2.21615	35.5326	-50.1628	-4.13012	0
0.2640	-14.0214	-6.18908	1.22047	-11.1154	7.87016	0.988742	33.3975	-49.2454	-6.24725	0.321467
0.2647	-1.25564	-4.98342	2.7407	-8.36446	5.73233	2.523	28.5189	-41.3141	-4.40778	0.321467
0.2653	23.1597	-5.22455	-0.299764	-9.29385	3.29059	0.988742	23.6402	-35.2176	-5.0325	-0.964401
0.2660	39.3435	-2.81322	0	-7.47226	4.82061	3.7504	18.1427	-28.2036	-3.19304	-1.28587
0.2667	37.8088	1.76831	1.82	-4.08929	6.04672	6.47797	9.29313	-19.0293	-1.35357	0
0.2673	24.1363	-0.401888	-2.44093	-7.47226	2.07496	3.1367	2.26913	-15.3892	-4.40778	0.642934
0.2680	15.277	-3.69737	-4.58211	-9.59125	0.544938	0.988742	5.32215	-14.4718	-6.87197	0
0.2687	18.2766	-3.45624	-3.6614	-8.66187	2.68277	2.21615	8.37516	-12.6369	-5.93488	0
0.2693	28.0427	-2.49171	-2.14117	-7.13768	5.12451	4.94371	5.02304	-9.58865	-3.5054	0
0.2700	37.2508	-1.28604	0.299764	-4.72128	6.65453	7.70537	0.742625	-6.21487	-1.35357	0
0.2707	21.3459	-1.28604	-0.920704	-5.01868	6.65453	7.09167	-11.1497	-4.08405	-0.763552	0
0.2713	-28.1125	-2.49171	-3.96117	-6.24547	6.35063	4.33001	-21.2267	-3.16662	-1.35357	0.321467
0.2720	-68.9907	-4.98342	-5.50281	-6.54287	5.73233	1.9093	-18.7822	-3.16662	-1.97829	0.321467
0.2727	-69.6185	-7.07323	-6.10234	-6.54287	4.82061	2.21615	-15.7292	-4.08405	-1.35357	0.321467
0.2733	-48.5516	-4.98342	-4.28234	-4.08929	5.73233	5.55741	-11.1497	-1.6573	1.07591	0
0.2740	-29.2984	-2.1702	-2.14117	-2.5651	6.65453	7.39852	-5.66252	1.71649	1.97829	0
0.2747	-7.60362	-3.69737	-3.6614	-5.31608	5.42842	5.25056	-6.58049	1.71649	0.763552	0.321467
0.2753	11.9286	-7.07323	-4.58211	-6.84027	4.21279	3.1367	-8.71553	1.71649	0.45119	0
0.2760	30.2052	-11.3333	-3.6614	-7.47226	3.90888	0.681891	-9.01465	2.63392	1.07591	0
0.2767	61.6661	-14.3876	-2.44093	-7.47226	5.12451	0.0681891	-7.79757	3.8473	1.38828	0.321467
0.2773	89.7088	-13.5034	1.82	-5.61349	7.26235	2.523	-3.21804	6.27405	3.81776	0
0.2780	93.406	-13.1819	3.6614	-5.61349	6.35063	2.21615	-2.30008	6.5996	4.44249	0
0.2787	82.3842	-13.825	1.52023	-8.06706	3.60498	0.681891	-3.82658	5.97811	1.38828	0.321467
0.2793	65.2935	-12.8604	-1.22047	-9.59125	0.848846	-0.545513	-3.52747	6.5996	-1.97829	0
0.2800	57.3411	-13.825	-3.36164	-11.4128	-0.974601	-2.65938	-4.13601	5.68216	-3.81776	0
0.2807	64.6657	-14.7091	0	-8.36446	-1.27851	0.37504	0.742625	6.5996	-0.45119	0
0.2813	4.25524	-11.9763	4.88187	-3.19708	-0.974601	4.94371	7.15808	10.5653	4.13012	0.321467
0.2820	-112.589	-11.0921	3.36164	-2.5651	-3.72025	3.1367	5.63158	12.0746	2.91538	0.321467
0.2827	-133.377	-11.6548	0.599528	-2.5651	-6.78029	0.988742	3.49653	12.992	-0.763552	0.321467
0.2833	-67.456	-10.1276	-1.52023	-3.79189	-7.0842	-0.238662	5.02304	16.6618	-2.60302	0
0.2840	-0.906854	-9.24343	-3.96117	-6.24547	-5.85809	-0.852364	6.54954	19.4141	-3.5054	0
0.2847	58.8758	-8.60041	-2.7407	-4.42387	-4.33855	1.9093	8.37516	22.4623	-2.29066	0.321467
0.2853	61.6661	-7.39475	-3.6614	-3.79189	-3.11244	2.523	6.24012	23.6757	-3.19304	0
0.2860	-13.1145	-8.03777	-7.02304	-5.94806	-3.11244	0.0681891	2.57856	22.4623	-5.0325	0.321467
0.2867	-75.0596	-9.24343	-6.10234	-6.84027	-1.58242	0.0681891	1.97002	21.8408	-3.5054	0.321467
0.2873	-97.6612	-13.825	-5.50281	-8.06706	0.544938	-1.77292	-1.39242	19.4141	-4.13012	0
0.2880	-97.9402	-19.2906	-4.88187	-8.66187	3.29059	-2.38662	-4.44544	16.3658	-5.0325	0
0.2887	-71.7112	-18.6476	-0.62094	-5.31608	6.35063	1.29559	-2.91893	16.3658	-2.29066	0
0.2893	-84.2677	-16.8793	-1.84141	-5.61349	6.35063	0.0681891	-4.74455	16.0403	-2.29066	0
0.2900	-103.172	-15.0306	-7.94374	-8.99645	3.60498	-2.65938	-8.40611	15.7443	-4.72014	0
0.2907	-39.9713	-12.2978	-11.6051	-11.4128	0.848846	-3.27308	-9.32407	14.5309	-6.87197	0.321467
0.2913	10.952	-12.8604	-12.2047	-12.937	-0.366785	-5.11419	-10.8506	6.5996	-8.98909	0
0.2920	-9.1383	-16.2363	-7.02304	-10.5206	1.46714	-3.27308	-9.32407	-1.6573	-7.46199	0
0.2927	-26.229	-18.085	-3.96117	-8.06706	2.68277	-1.15922	-7.18903	-6.21487	-6.24725	0
0.2933	-15.556	-18.9691	-6.72328	-9.59125	2.07496	-3.27308	-10.242	-8.37527	-8.39907	0
0.2940	4.60403	-18.4065	-7.3228	-9.59125	1.77105	-3.88678	-12.0677	-5.91892	-8.67673	0
0.2947	49.4584	-18.6476	-8.24351	-9.29385	0.848846	-4.80733	-12.3771	-3.78811	-8.39907	0
0.2953	97.6612	-19.6122	-7.62257	-8.36446	-0.670693	-4.19363	-10.8506	-4.70554	-8.39907	-1.28587
0.2960	84.1979	-18.6476	-0.920704	-3.79189	1.16323	0.37504	-3.82658	-3.49216	-4.72014	-1.28587
0.2967	21.9738	-19.9337	1.52023	-2.89968	0.544938	0.0681891	-0.773568	-3.49216	-2.88067	0.321467
0.2973	-45.4822	-21.702	-0.920704	-5.01868	-1.58242	-3.27308	-2.91893	-3.78811	-5.0325	0.321467
0.2980	-93.685	-20.4963	0	-4.42387	-2.20071	-2.96623	-1.39242	-3.49216	-5.0325	0
0.2987	-91.8713	-21.702	0.920704	-5.01868	-3.41634	-3.57993	0.134085	-7.45784	-4.72014	0.321467
0.2993	-36.902	-24.1937	1.22047	-5.31608	-5.25027	-3.57993	3.1871	-12.0154	-3.19304	0.321467
0.3000	25.3222	-23.2291	3.04046	-0.743508	-5.25027	-0.852364	10.2111	-12.3409	1.07591	0.321467
0.3007	65.2935	-22.6665	3.36164	2.00747	-5.55418	0.681891	12.6453	-10.802	3.81776	0
0.3013	100.382	-22.988	1.82	1.37549	-7.0842	0.0681891	10.5102	-10.1805	3.5054	-0.321467
0.3020	116.566	-21.4608	0.599528	1.71007	-8.90764	0.0681891	10.2111	-7.75378	3.19304	0
0.3027	83.9189	-18.9691	-0.62094	1.71007	-10.4377	-0.852364	10.2111	-5.29743	1.07591	0
0.3033	42.4129	-19.2906	0	0.780683	-10.1338	-1.77292	7.76662	-7.45784	-1.35357	0
0.3040	26.229	-19.6122	0	0.780683	-8.90764	-1.77292	4.10507	-10.5061	-2.60302	0
0.3047	13.3935	-18.085	0	1.07809	-8.29983	-2.38662	2.57856	-8.96716	-3.5054	0
0.3053	-3.69717	-15.9148	0.920704	1.37549	-7.0842	-2.07977	2.57856	-5.62297	-3.81776	0
0.3060	-17.9976	-17.1204	-1.84141	-1.67289	-5.85809	-4.50048	0.134085	-5.91892	-6.87197	0
0.3067	-24.6943	-18.9691	-2.44093	-4.42387	-4.64245	-6.03474	-2.00096	-5.62297	-9.30145	0
0.3073	-21.6947	-16.5578	2.14117	-1.9703	-2.80853	-3.57993	0.742625	-1.33176	-7.77435	0
0.3080	-12.8355	-14.0661	3.36164	-1.33831	-2.20071	-3.27308	1.36148	1.095	-7.18433	0.321467
0.3087	-0.906854	-13.825	3.36164	-3.49449	-1.27851	-3.88678	-0.165028	0.799054	-8.08671	0.321467
0.3093	3.62742	-14.3876	3.04046	-4.42387	-0.670693	-5.11419	-0.474455	-0.118378	-9.61382	0.321467
0.3100	-0.627822	-15.0306	-0.62094	-6.84027	-0.974601	-7.26214	-2.6095	-1.95324	-11.7309	0.321467
0.3107	2.44153	-12.6193	0.299764	-5.31608	1.16323	-5.11419	-2.00096	-0.118378	-10.2038	0
0.3113	13.1145	-8.60041	2.44093	-2.2677	4.5167	-2.65938	1.97002	5.35662	-7.46199	0.321467
0.3120	19.8113	-7.07323	-0.920704	-3.19708	6.35063	-4.50048	1.36148	5.97811	-9.30145	0
0.3127	24.4153	-5.86757	-4.58211	-5.01868	7.26235	-5.72789	-1.39242	4.46878	-10.8286	0
0.3133	31.1121	-4.98342	-7.02304	-5.94806	7.26235	-6.95529	-3.52747	3.55135	-11.4533	0
0.3140	41.227	-2.49171	-7.3228	-5.31608	8.17407	-6.34159	-3.21804	4.76473	-10.8286	0
0.3147	51.5512	3.29548	-5.50281	-1.33831	10.3119	-2.96623	0.134085	10.5653	-7.77435	0
0.3153	54.3415	3.617	-6.72328	-0.743508	10.3119	-3.27308	-0.474455	10.5653	-7.77435	0
0.3160	49.4584	-2.81322	-7.3228	-2.89968	9.40018	-6.03474	-4.13601	2.63392	-9.61382	0
0.3167	39.9713	-8.03777	-3.6614	-2.5651	8.48846	-6.64844	-4.44544	-3.78811	-9.61382	0
0.3173	31.4609	-11.3333	-0.920704	-2.89968	7.56626	-7.26214	-4.74455	-8.04973	-9.92618	0
0.3180	25.3222	-11.9763	3.36164	-1.33831	8.48846	-4.80733	-3.52747	-8.67122	-8.98909	-0.321467
0.3187	14.3701	-9.56494	7.3228	1.07809	10.008	-2.38662	-0.165028	-7.45784	-5.93488	0
0.3193	-1.81371	-8.03777	5.4814	-0.446105	9.40018	-4.19363	-0.474455	-7.1323	-6.24725	0.321467
0.3200	-12.2077	-6.18908	3.36164	-2.2677	7.87016	-5.42104	-2.00096	-2.57473	-8.08671	0.321467
0.3207	-12.4867	-4.6619	0.920704	-3.49449	6.65453	-6.64844	-3.52747	1.39095	-8.98909	0
0.3213	-11.0218	-4.01888	-2.14117	-3.49449	5.12451	-6.95529	-4.44544	1.39095	-8.98909	0
0.3220	-13.4633	0.562644	-1.52023	1.07809	5.12451	-2.96623	0.443512	5.68216	-4.72014	0
0.3227	-22.8806	3.617	-2.44093	2.89968	5.73233	-1.77292	3.79564	10.5653	-1.35357	0.321467
0.3233	-37.2508	2.65246	-5.18163	2.00747	5.12451	-3.27308	1.97002	10.2397	-1.35357	0
0.3240	-42.1338	3.617	-6.72328	3.53166	3.90888	-2.65938	1.97002	9.02635	-0.763552	0
0.3247	-23.5084	4.50115	-11.284	2.60228	2.98668	-4.19363	1.05205	6.5996	-0.763552	0
0.3253	19.2532	4.50115	-12.2047	2.60228	3.60498	-4.19363	-0.474455	3.8473	-0.763552	-0.964401
0.3260	51.5512	5.14417	-7.94374	5.05585	5.73233	-0.852364	0.742625	2.01243	0.45119	-1.60734
0.3267	48.5516	2.08982	-4.28234	4.42387	6.35063	-1.15922	0.742625	-1.33176	-0.45119	0
0.3273	41.785	-4.6619	-0.920704	2.30487	5.42842	-3.88678	-0.165028	-9.58865	-2.60302	0.964401
0.3280	44.8544	-11.3333	1.22047	0.185877	5.12451	-5.72789	-1.39242	-22.1072	-4.72014	-1.28587
0.3287	38.4367	-13.1819	4.26093	0.185877	6.35063	-3.88678	0.443512	-25.7473	-3.5054	-1.9288
0.3293	22.8806	-8.60041	7.92233	2.89968	8.17407	-0.545513	5.32215	-16.3066	0.45119	-0.321467
0.3300	7.95241	-5.22455	7.62257	3.53166	7.56626	-0.545513	6.54954	-9.58865	1.97829	0.321467
0.3307	-0.279032	-5.22455	5.80257	2.89968	6.04672	-1.77292	6.24012	-9.58865	1.07591	-0.321467
0.3313	-4.60403	-5.54606	4.26093	1.71007	4.82061	-2.65938	5.02304	-9.58865	-0.763552	-0.642934
0.3320	-9.48709	-4.98342	3.36164	2.00747	4.5167	-1.77292	3.79564	-7.75378	-1.66593	-0.642934
0.3327	-14.3701	-4.34039	4.26093	5.35326	2.68277	0.0681891	5.63158	-5.00149	0.45119	0.321467
0.3333	-15.277	-4.34039	5.4814	7.17485	0.24103	0.681891	8.68459	-4.08405	1.66593	0.321467
0.3340	-7.60362	-3.45624	6.70187	8.10424	-0.670693	1.60244	12.3461	-2.24919	2.29066	0
0.3347	1.18589	-3.45624	7.02304	9.03362	-0.670693	1.60244	13.2641	-1.03581	2.91538	0.321467
0.3353	11.5798	-4.6619	5.80257	8.40164	-1.58242	0.0681891	9.60256	-0.739865	1.97829	0
0.3360	28.3915	-4.34039	4.26093	6.58005	-1.8968	-1.77292	4.71361	0.177568	-0.45119	0
0.3367	39.9713	-2.49171	4.88187	6.28264	-1.27851	-1.46607	2.88799	1.095	-1.97829	0.321467
0.3373	41.227	1.12529	5.80257	7.50943	-1.58242	0.0681891	5.32215	3.55135	-1.35357	0
0.3380	36.902	3.617	3.6614	6.28264	-3.72025	-0.238662	7.4572	5.97811	-1.66593	0
0.3387	17.3697	3.617	2.7407	4.12647	-5.25027	-0.852364	6.24012	6.89554	-2.88067	0.321467
0.3393	-20.7879	3.617	3.36164	3.53166	-6.16199	-1.46607	1.97002	7.81297	-3.81776	0.321467
0.3400	-41.785	5.14417	3.04046	5.65066	-7.3881	-1.77292	-1.69154	9.02635	-4.13012	0
0.3407	-25.3222	6.91248	2.7407	8.10424	-7.99592	-0.852364	-2.00096	10.5653	-4.13012	0
0.3413	-24.4153	9.08268	0.920704	9.33103	-7.69201	-0.238662	-1.39242	11.7786	-4.40778	0.321467
0.3420	-72.6181	9.96683	-1.52023	9.92583	-7.3881	-0.852364	-1.69154	11.7786	-4.40778	0
0.3427	-120.263	9.40419	-3.6614	9.62843	-7.3881	-1.46607	-2.6095	9.02635	-5.0325	-0.321467
0.3433	-109.869	9.08268	-2.7407	10.5578	-6.16199	-1.15922	-1.69154	8.10892	-4.13012	0.321467
0.3440	-63.4798	9.7257	0	12.3794	-4.02416	0.681891	1.97002	8.73041	-0.763552	0.321467
0.3447	-31.7399	9.7257	0.299764	11.7846	-2.20071	1.29559	3.79564	7.51703	3.81776	0
0.3453	-23.2294	9.08268	-2.7407	9.33103	-1.27851	-0.238662	3.79564	5.68216	6.55961	0
0.3460	-18.9044	6.91248	-4.88187	5.98524	-1.58242	-3.27308	1.97002	2.01243	3.5054	0
0.3467	3.06935	3.29548	-2.7407	3.53166	-1.58242	-4.50048	0.443512	-4.4096	-1.07591	0
0.3473	29.2984	-0.643021	2.44093	4.42387	-0.974601	-2.96623	3.1871	-9.88459	-0.763552	0.321467
0.3480	35.9951	-2.81322	7.02304	6.58005	-0.974601	-1.46607	7.15808	-13.2584	1.38828	0.321467
0.3487	25.3222	-2.81322	7.3228	6.58005	-0.366785	-2.07977	7.76662	-13.2584	1.97829	0
0.3493	7.60362	-3.13473	5.4814	4.12647	0.24103	-4.50048	5.63158	-12.6369	0.45119	0.321467
0.3500	1.18589	-4.34039	4.58211	2.60228	1.16323	-5.42104	3.49653	-13.2584	-0.138828	0.321467
0.3507	2.1625	-3.69737	6.4021	4.12647	2.68277	-3.88678	3.49653	-12.6369	1.97829	0
0.3513	0.279032	-3.13473	8.24351	5.65066	3.29059	-2.07977	3.1871	-11.4235	3.5054	0
0.3520	0.906854	-1.92906	8.54327	6.28264	3.29059	-1.77292	2.57856	-10.5061	3.81776	0.321467
0.3527	-6.1387	-0.643021	7.02304	5.98524	2.07496	-2.65938	1.66059	-8.96716	4.13012	0.321467
0.3533	-17.9976	1.4468	3.6614	4.12647	0.544938	-3.88678	-0.165028	-7.45784	2.60302	0.321467
0.3540	-17.0907	3.93851	1.52023	3.53166	-0.670693	-3.88678	-1.39242	-5.00149	1.66593	0.642934
0.3547	-8.58023	4.50115	1.82	4.12647	-1.8968	-3.57993	-1.39242	-3.16662	1.66593	0
0.3553	1.18589	5.14417	2.7407	4.42387	-2.20071	-2.96623	-1.69154	-2.87068	0.173535	-1.28587
0.3560	18.9044	6.67135	3.6614	4.42387	-1.8968	-2.07977	-1.083	-2.24919	0.173535	-1.28587
0.3567	41.227	5.70681	3.04046	3.82907	-2.80853	-2.38662	-1.39242	-3.78811	0.173535	0.321467
0.3573	49.7375	5.14417	2.14117	3.82907	-3.41634	-2.38662	-1.083	-7.45784	-0.138828	0.321467
0.3580	27.1359	6.02833	0.920704	3.53166	-3.41634	-2.38662	-0.773568	-7.75378	0.173535	0
0.3587	3.06935	9.08268	0.920704	4.75845	-3.41634	-0.545513	1.05205	-3.16662	1.07591	0.321467
0.3593	-1.25564	10.9314	0.599528	6.28264	-4.02416	0.988742	2.88799	-1.6573	1.97829	0
0.3600	-7.32459	7.87701	-1.52023	4.75845	-6.4659	-1.15922	-0.165028	-5.91892	0.763552	0
0.3607	-17.7185	6.34984	-0.920704	5.35326	-7.99592	-0.852364	-0.773568	-6.21487	1.66593	0.321467
0.3613	-22.6016	4.50115	3.6614	8.69904	-6.16199	2.21615	2.88799	-6.54041	5.0325	0.321467
0.3620	-17.3697	1.12529	8.24351	11.7846	-3.72025	4.63686	5.02304	-10.1805	8.08671	0.321467
0.3627	-11.5798	-0.643021	9.16421	12.9742	-3.11244	4.94371	5.02304	-12.0154	8.39907	0
0.3633	-16.4629	-0.401888	7.02304	12.3794	-3.72025	3.44355	5.32215	-10.5061	7.77435	0
0.3640	-18.3464	0.562644	6.70187	12.9742	-3.11244	3.1367	6.54954	-8.96716	8.71144	0.321467
0.3647	-14.6492	0.562644	7.02304	13.6062	-2.20071	3.44355	5.63158	-9.88459	8.71144	0
0.3653	-14.0214	-0.643021	6.10234	12.6768	-0.974601	1.9093	3.79564	-10.802	6.87197	-0.321467
0.3660	-15.556	0.241133	5.80257	11.45	-0.0628775	0.988742	3.79564	-9.58865	5.96959	0
0.3667	-16.4629	2.08982	4.88187	11.45	0.24103	1.29559	5.02304	-6.83635	5.96959	0
0.3673	-13.1145	2.08982	4.58211	11.1526	0.24103	1.29559	6.54954	-4.4096	5.96959	0
0.3680	-10.3939	1.76831	7.62257	11.45	0.544938	2.21615	6.24012	-3.78811	7.18433	0.321467
0.3687	-21.0669	1.12529	9.46398	12.6768	0.848846	3.44355	5.63158	-3.49216	8.08671	0.321467
0.3693	-39.3435	0.241133	7.02304	12.082	-0.670693	2.21615	4.10507	-3.49216	7.77435	0.321467
0.3700	-50.9931	0.562644	5.80257	10.8552	-0.974601	0.681891	0.134085	-4.4096	7.18433	0
0.3707	-56.4342	1.76831	6.4021	12.3794	-0.366785	2.82985	-0.474455	-1.95324	6.87197	0
0.3713	-60.4104	2.65246	5.80257	13.3088	-0.974601	4.63686	3.49653	1.095	7.18433	0
0.3720	-61.9451	4.50115	4.58211	12.6768	-1.8968	3.44355	6.24012	3.22581	6.87197	0.321467
0.3727	-66.5491	6.34984	2.44093	11.7846	-1.8968	1.60244	5.63158	4.46878	5.65723	0.321467
0.3733	-68.3628	7.23399	1.52023	11.7846	-1.27851	2.21615	4.10507	3.22581	5.34487	0.321467
0.3740	-57.4108	7.23399	2.7407	12.9742	-1.27851	3.44355	4.10507	3.22581	6.55961	0.321467
0.3747	-36.623	8.19852	1.82	12.6768	-1.8968	3.1367	3.49653	5.06068	6.55961	0.321467
0.3753	-6.69677	9.7257	-0.62094	9.92583	-2.50462	1.60244	1.66059	8.43446	4.13012	0.321467
0.3760	24.1363	8.43966	-3.96117	6.58005	-3.72025	-1.15922	-1.69154	9.64784	1.66593	0
0.3767	35.3673	6.34984	-3.36164	7.17485	-3.11244	-0.545513	-2.6095	10.5653	1.38828	0
0.3773	26.8568	8.19852	1.82	10.8552	0.24103	3.1367	1.66059	14.5309	3.5054	0.321467
0.3780	2.44153	9.40419	2.7407	10.8552	1.16323	3.1367	3.1871	16.3658	4.13012	0.321467
0.3787	-28.6705	9.40419	0.920704	10.2232	1.46714	2.21615	2.88799	14.235	3.19304	0
0.3793	-35.4371	7.23399	-0.62094	8.10424	1.16323	0.0681891	1.36148	9.94378	1.38828	0
0.3800	-12.4867	3.29548	-0.920704	5.05585	0.24103	-2.96623	-1.083	6.89554	-0.138828	0.321467
0.3807	2.1625	2.41133	3.96117	7.50943	2.37886	-0.545513	1.05205	7.19149	2.29066	0.321467
0.3813	-16.1839	3.93851	6.70187	9.62843	2.98668	1.29559	2.57856	8.10892	2.91538	0
0.3820	-39.3435	4.82266	4.58211	7.17485	1.77105	-0.852364	0.742625	8.43446	0.763552	0
0.3827	-39.9713	6.34984	3.36164	6.28264	2.37886	-1.15922	0.134085	9.64784	0.45119	0
0.3833	-20.7879	7.23399	0.599528	5.65066	1.46714	-1.46607	-1.39242	10.2397	-0.138828	0
0.3840	-6.69677	10.6099	-1.84141	5.65066	0.24103	-1.46607	-1.39242	12.0746	0.173535	0
0.3847	-20.1601	14.3072	-1.52023	6.28264	1.16323	0.37504	0.742625	13.9095	1.07591	0
0.3853	-32.6467	13.3427	-0.62094	5.35326	1.77105	-0.238662	1.05205	13.9095	0.45119	0.321467
0.3860	-29.9262	9.96683	0	4.75845	1.46714	-1.77292	-0.474455	12.0746	-0.763552	-0.642934
0.3867	-31.1121	7.87701	-0.62094	3.82907	2.37886	-2.96623	-2.6095	10.5653	-1.97829	-1.60734
0.3873	-28.6705	6.91248	-0.920704	3.23426	3.90888	-3.57993	-2.91893	13.3176	-1.66593	-0.321467
0.3880	-2.72056	7.23399	1.52023	5.65066	5.12451	-2.07977	-0.474455	17.2832	1.07591	0.321467
0.3887	24.4153	7.23399	3.04046	8.40164	5.42842	0.37504	1.66059	16.6618	2.91538	0
0.3893	41.227	6.34984	0.599528	7.80683	5.12451	-0.238662	1.05205	14.8269	1.66593	0
0.3900	79.9427	4.82266	-2.7407	4.75845	4.82061	-2.96623	-1.083	14.5309	-0.763552	0.321467
0.3907	113.845	2.65246	-3.6614	3.23426	3.90888	-4.19363	-2.91893	14.8269	-1.97829	0.321467
0.3913	109.869	1.12529	-0.299764	5.98524	4.5167	-2.38662	-2.00096	14.8269	-0.138828	0
0.3920	105.265	0.562644	3.6614	8.40164	5.42842	-0.238662	0.443512	12.6961	1.07591	0
0.3927	92.1503	-0.401888	2.7407	6.28264	6.04672	-1.46607	0.134085	9.02635	-0.45119	0.321467
0.3933	66.5491	0.241133	-1.22047	3.53166	5.73233	-3.88678	-2.30008	7.19149	-2.60302	0.321467
0.3940	81.7564	2.65246	-4.88187	2.30487	4.5167	-5.11419	-3.52747	6.27405	-3.81776	0
0.3947	144.05	5.14417	-5.50281	2.60228	4.5167	-4.19363	-2.91893	6.89554	-3.81776	0
0.3953	205.368	5.70681	-2.14117	2.89968	5.42842	-1.77292	-0.773568	8.73041	-2.88067	0.321467
0.3960	175.162	4.50115	-1.84141	2.30487	5.73233	-2.65938	-1.39242	8.43446	-2.29066	0.321467
0.3967	25.95	2.41133	-3.96117	1.37549	5.73233	-4.50048	-4.44544	5.97811	-3.5054	0
0.3973	-116.008	0.884154	-4.58211	0.780683	5.12451	-5.11419	-5.66252	3.8473	-4.40778	0
0.3980	-142.516	-0.401888	-3.06187	0.48328	4.82061	-5.42104	-5.35309	4.14324	-4.40778	0
0.3987	-74.7806	-0.964532	2.14117	3.23426	5.73233	-2.65938	-2.6095	5.97811	-1.97829	0
0.3993	0	-4.01888	5.80257	4.12647	5.12451	-1.46607	-0.165028	3.22581	0.173535	0
0.4000	20.4391	-8.92192	4.26093	1.37549	4.21279	-4.19363	-2.6095	-3.16662	-1.66593	0
0.4007	-4.25524	-11.0921	3.04046	-0.743508	5.12451	-6.03474	-4.44544	-6.21487	-3.19304	0
0.4013	-24.4153	-10.1276	2.14117	-1.33831	4.5167	-6.03474	-4.13601	-5.91892	-2.60302	0.321467
0.4020	-18.3464	-7.71626	3.36164	0.48328	4.82061	-4.50048	-2.6095	-1.95324	-0.763552	0.321467
0.4027	-16.1839	-5.54606	4.58211	0.185877	6.35063	-4.19363	-2.6095	0.473514	-0.763552	0
0.4033	-31.4609	-5.86757	2.44093	-2.5651	6.35063	-6.03474	-5.05398	-1.03581	-4.13012	0
0.4040	-41.227	-7.07323	1.82	-3.19708	6.35063	-6.34159	-6.58049	-3.49216	-4.40778	0
0.4047	-37.5298	-7.39475	1.82	-3.49449	6.95844	-7.87585	-7.79757	-5.29743	-4.72014	0.321467
0.4053	-27.4847	-7.07323	2.7407	-4.72128	7.87016	-8.1827	-8.40611	-5.00149	-6.24725	0.321467
0.4060	-18.9044	-6.75172	4.88187	-4.72128	7.87016	-6.64844	-6.58049	-2.57473	-5.0325	0
0.4067	-15.277	-6.51059	3.6614	-4.72128	7.26235	-6.64844	-5.35309	-0.414324	-4.13012	0
0.4073	-13.1145	-5.22455	2.14117	-5.01868	6.04672	-7.56899	-5.96163	2.01243	-4.72014	0.321467
0.4080	-12.8355	-3.69737	0.920704	-5.61349	5.42842	-8.1827	-6.8796	4.46878	-4.72014	0.321467
0.4087	-10.0452	-3.13473	-0.299764	-3.79189	4.5167	-6.34159	-5.05398	5.68216	-2.29066	0.321467
0.4093	-5.51088	-0.964532	0	-1.33831	3.29059	-3.57993	-2.91893	6.89554	0.173535	0
0.4100	-3.97621	0.241133	-0.62094	-1.33831	2.98668	-3.88678	-2.91893	7.19149	-0.45119	0
0.4107	-3.97621	-2.81322	0.599528	-1.33831	3.90888	-4.50048	-3.52747	5.97811	-1.66593	0.321467
0.4113	-2.1625	-6.51059	2.14117	-1.33831	3.90888	-5.11419	-3.52747	3.8473	-1.66593	0
0.4120	7.95241	-7.07323	3.04046	-2.2677	3.60498	-5.72789	-3.21804	1.71649	-1.35357	0
0.4127	18.2766	-6.75172	4.88187	-1.9703	3.90888	-4.80733	-2.91893	2.01243	-0.138828	0.321467
0.4133	12.2077	-6.18908	4.58211	-1.04091	3.90888	-3.88678	-2.91893	2.63392	1.07591	0.321467
0.4140	-1.25564	-5.54606	3.6614	-0.446105	3.60498	-3.57993	-2.30008	3.55135	1.66593	0.321467
0.4147	-8.85927	-5.86757	2.7407	-1.9703	2.07496	-4.80733	-2.91893	3.8473	1.38828	0.321467
0.4153	-14.6492	-6.51059	1.52023	-2.5651	1.46714	-4.80733	-4.74455	1.39095	1.07591	-1.28587
0.4160	-15.556	-4.98342	3.96117	-0.148702	2.98668	-2.65938	-3.21804	2.01243	2.91538	-0.964401
0.4167	-17.0907	-4.01888	5.4814	1.07809	3.60498	-2.38662	-1.39242	4.76473	4.72014	0
0.4173	-20.7879	-4.34039	3.36164	-1.04091	3.60498	-4.19363	-2.91893	3.8473	3.19304	0.321467
0.4180	-22.6016	-4.6619	2.7407	-3.49449	3.60498	-5.72789	-4.13601	2.30838	2.29066	0
0.4187	-26.5778	-5.22455	4.26093	-3.19708	2.68277	-5.42104	-3.82658	1.71649	2.29066	0.321467
0.4193	-26.5778	-4.98342	5.18163	-2.2677	2.37886	-4.50048	-2.91893	2.63392	2.91538	0.321467
0.4200	-22.8806	-2.81322	5.4814	-1.9703	2.68277	-3.88678	-2.00096	6.5996	3.81776	0.321467
0.4207	-17.0907	-1.28604	5.4814	-2.2677	2.68277	-3.57993	-2.00096	8.73041	3.81776	0
0.4213	-3.06935	-1.28604	3.04046	-3.49449	2.68277	-4.50048	-2.30008	7.81297	2.91538	0
0.4220	6.69677	-0.0803777	0.920704	-3.49449	2.68277	-4.50048	-1.69154	8.73041	3.5054	0.321467
0.4227	17.0907	3.93851	0	-2.2677	1.77105	-2.65938	-0.773568	10.5653	4.44249	0.321467
0.4233	48.5516	8.76117	-1.52023	-0.446105	0.544938	0.0681891	0.742625	11.4827	5.65723	0
0.4240	88.1741	10.6099	-1.22047	1.37549	-0.974601	1.29559	2.26913	11.7786	7.77435	0
0.4247	102.195	8.19852	-1.84141	0.780683	-1.8968	-0.545513	1.05205	10.5653	8.08671	0.321467
0.4253	83.9189	3.93851	-2.44093	-0.743508	-2.20071	-1.77292	-0.773568	8.73041	6.87197	0.321467
0.4260	46.11	0.241133	0.299764	-0.148702	-1.58242	-1.46607	-0.773568	5.68216	7.49669	0.321467
0.4267	0.279032	-2.1702	3.96117	1.37549	-1.27851	-0.545513	0.443512	-0.739865	9.61382	0.321467
0.4273	-23.7875	-2.1702	6.4021	3.23426	-0.366785	1.9093	2.88799	-5.62297	11.4533	0
0.4280	-28.6705	-1.92906	6.4021	3.23426	-0.366785	1.9093	3.1871	-8.04973	10.8286	0
0.4287	-39.3435	-3.13473	4.26093	1.71007	-1.8968	-0.545513	1.05205	-11.098	8.71144	0
0.4293	-41.227	-3.45624	5.4814	1.71007	-2.20071	-0.545513	0.742625	-10.5061	9.30145	0
0.4300	-22.2528	-2.1702	7.3228	3.23426	-1.27851	0.681891	1.36148	-8.37527	10.5162	0.321467
0.4307	-3.34838	-1.60755	9.16421	4.42387	-0.366785	1.9093	3.1871	-8.67122	11.7656	0.321467
0.4313	-2.1625	-0.401888	10.6844	4.12647	-0.366785	2.523	4.41449	-7.75378	12.3557	0.321467
0.4320	-13.4633	-0.643021	7.3228	1.71007	-1.58242	0.37504	2.26913	-5.62297	10.8286	-0.321467
0.4327	-20.7879	-0.0803777	6.4021	1.71007	-2.20071	0.0681891	1.05205	-4.08405	10.5162	-1.28587
0.4333	-26.8568	2.08982	9.16421	3.53166	-0.670693	2.21615	2.26913	-0.118378	11.4533	-0.321467
0.4340	-33.5536	2.97397	8.54327	3.53166	-0.974601	1.9093	3.49653	3.55135	10.8286	0
0.4347	-33.2746	3.617	7.92233	3.53166	-1.27851	2.523	5.02304	4.76473	11.4533	0
0.4353	-31.7399	3.93851	7.62257	3.82907	-0.974601	2.21615	3.79564	5.06068	10.8286	0.321467
0.4360	-41.506	4.50115	4.88187	2.89968	-2.20071	0.681891	1.36148	5.06068	8.71144	0.321467
0.4367	-75.9665	6.91248	3.04046	2.89968	-2.50462	1.60244	1.97002	5.97811	9.30145	0.321467
0.4373	-112.31	8.43966	0.920704	3.23426	-2.20071	0.988742	1.36148	6.27405	9.0238	0
0.4380	-94.9406	9.40419	0.599528	3.82907	-2.20071	1.29559	1.36148	5.97811	8.71144	-0.321467
0.4387	-11.9286	10.6099	3.36164	4.42387	-1.58242	3.44355	3.79564	6.89554	9.61382	0
0.4393	74.7806	9.96683	3.04046	1.71007	-1.58242	2.82985	3.49653	6.5996	6.87197	0
0.4400	96.7544	8.76117	3.04046	-0.446105	-1.58242	1.9093	2.57856	5.06068	3.5054	0
0.4407	65.2935	7.5555	3.96117	-1.67289	-1.27851	1.9093	1.97002	2.92987	3.81776	0.321467
0.4413	28.6705	5.70681	4.26093	-2.89968	-0.974601	1.29559	1.05205	-0.414324	4.72014	0.321467
0.4420	3.97621	6.02833	6.10234	-2.5651	-0.670693	2.523	2.57856	-1.95324	4.13012	0
0.4427	-10.0452	6.02833	6.10234	-3.49449	-1.27851	2.21615	2.88799	-2.87068	2.29066	0
0.4433	-16.1839	4.82266	4.88187	-4.42387	-2.20071	0.37504	1.97002	-3.78811	3.19304	0
0.4440	-17.0907	4.50115	6.10234	-4.08929	-3.11244	1.60244	2.57856	-3.49216	7.49669	0
0.4447	-16.4629	4.17964	6.10234	-4.08929	-4.02416	4.94371	2.57856	-3.78811	11.4533	0
0.4453	-14.6492	5.70681	5.18163	-2.89968	-4.02416	9.54648	2.88799	-4.4096	16.6246	-0.964401
0.4460	-11.9286	7.5555	6.10234	-2.2677	-3.41634	15.0357	3.79564	-5.62297	25.1972	-1.60734
0.4467	-10.3939	8.43966	5.4814	-2.89968	-4.33855	17.1496	3.49653	-4.4096	31.5833	-0.321467
0.4473	-9.76612	7.23399	4.26093	-4.08929	-6.16199	15.9563	1.97002	-5.00149	31.5833	-0.642934
0.4480	-6.69677	6.91248	4.88187	-3.49449	-6.16199	16.8427	1.97002	-5.62297	30.9933	-1.28587
0.4487	-5.51088	9.7257	6.70187	-0.148702	-5.55418	18.0701	5.02304	-0.414324	28.8415	0
0.4493	-8.85927	9.7257	4.58211	-1.04091	-6.78029	15.6494	4.41449	1.095	23.9478	0.321467
0.4500	-9.48709	9.40419	2.14117	-0.446105	-6.78029	13.8083	2.57856	0.473514	18.7764	0.321467
0.4507	-5.16209	11.2529	4.88187	3.23426	-4.94636	12.8877	5.02304	2.01243	-7.46199	0.321467
0.4513	-1.81371	10.6099	5.80257	3.53166	-5.25027	9.23963	5.02304	-0.118378	-47.4444	0
0.4520	0.279032	10.2883	5.18163	3.53166	-6.16199	5.86427	3.79564	-2.24919	-51.4009	0
0.4527	-0.279032	12.137	5.80257	2.30487	-5.85809	2.82985	5.32215	-0.414324	-36.7546	0.321467
0.4533	-3.69717	12.78	6.10234	0.185877	-5.55418	-0.238662	5.32215	-0.414324	-26.0996	0.321467
0.4540	-6.69677	12.4585	5.80257	0.48328	-4.94636	-2.38662	4.41449	-1.95324	-10.2038	0
0.4547	-8.58023	12.137	5.4814	-1.9703	-4.94636	-6.34159	3.79564	-1.03581	-26.0996	0
0.4553	-8.85927	13.0212	5.4814	-5.94806	-5.25027	-9.68286	3.79564	1.095	-69.7262	0
0.4560	-7.95241	13.9857	5.80257	-8.36446	-6.16199	-10.2966	3.49653	1.71649	-99.9559	0
0.4567	-7.60362	14.8699	6.70187	-8.66187	-7.3881	-12.4445	4.41449	2.30838	-124.355	0
0.4573	-7.95241	15.5129	7.62257	-4.08929	-7.69201	-16.7063	5.93069	3.22581	-121.925	0.321467
0.4580	-9.76612	15.1914	6.4021	2.30487	-7.69201	-20.0817	4.71361	2.30838	-79.4789	0.321467
0.4587	-10.0452	16.397	6.70187	8.69904	-6.16199	-17.9337	4.71361	2.92987	-57.8217	0
0.4593	-9.1383	16.7186	6.70187	12.6768	-6.4659	-13.9788	4.71361	3.8473	-68.8238	0.321467
0.4600	-10.0452	15.8344	3.96117	15.4278	-9.22203	-10.9103	1.97002	2.01243	-12.9804	0.321467
0.4607	-9.48709	17.6027	3.96117	22.7513	-9.22203	-4.80733	3.1871	3.55135	114.29	0.321467
0.4613	-7.95241	19.7729	4.88187	27.9559	-7.69201	-2.38662	4.71361	5.68216	135.947	-0.321467
0.4620	-4.25524	19.4514	4.58211	25.5023	-6.16199	-5.11419	2.57856	4.46878	61.813	-0.321467
0.4627	1.81371	19.1299	4.58211	25.2049	-5.25027	-5.11419	2.26913	4.14324	72.7804	0.321467
0.4633	0.627822	18.8888	3.96117	26.4317	-5.25027	-4.50048	1.97002	3.55135	128.624	0.321467
0.4640	-7.95241	18.5672	3.36164	20.0004	-3.41634	-3.88678	1.97002	2.92987	117.656	0
0.4647	-13.4633	20.4159	5.18163	9.62843	1.16323	-0.545513	5.02304	4.76473	73.4051	0
0.4653	-17.9976	21.3001	4.26093	-4.42387	2.07496	-0.852364	5.63158	5.06068	49.2838	0
0.4660	-20.7879	20.9786	3.36164	-23.0116	0.24103	-3.88678	2.57856	3.55135	48.3814	0.321467
0.4667	-21.0669	21.6216	3.96117	-36.1345	0.24103	-4.80733	1.66059	4.14324	46.8543	0
0.4673	-22.6016	21.3001	3.36164	-38.2907	-0.670693	-6.03474	1.36148	4.14324	39.8435	0
0.4680	-22.2528	21.3001	3.36164	-30.6697	-2.50462	-5.11419	1.66059	4.46878	35.5399	0
0.4687	-19.2532	23.7114	3.6614	-21.4874	-4.02416	-1.77292	3.1871	6.89554	26.412	0
0.4693	-13.7423	25.5601	2.7407	-15.688	-4.64245	-0.238662	2.88799	9.64784	16.347	0
0.4700	-8.23144	25.5601	1.22047	-7.47226	-4.02416	-1.15922	0.742625	10.2397	19.0888	0.321467
0.4707	-3.97621	25.8816	-1.22047	5.98524	-3.41634	-1.77292	-0.773568	9.64784	12.3557	0.321467
0.4713	1.53468	27.0873	-1.52023	25.7997	-0.366785	0.681891	0.134085	9.94378	15.7222	0.321467
0.4720	7.95241	27.9714	-0.299764	54.7965	3.29059	3.44355	2.57856	10.5653	63.3401	0.321467
0.4727	15.8351	26.7658	0.299764	72.492	4.5167	1.9093	1.97002	8.43446	-18.4641	0
0.4733	25.3222	24.9171	1.82	63.0495	3.29059	-0.238662	-1.083	3.55135	-275.122	-0.321467
0.4740	29.0193	24.3544	3.96117	41.6736	-0.670693	0.37504	-0.773568	0.799054	-411.52	0
0.4747	21.6947	24.6759	3.6614	21.5246	-6.78029	-0.545513	-0.773568	-0.414324	-352.31	0.321467
0.4753	14.9282	24.3544	3.6614	10.8552	-9.82985	-2.96623	-2.30008	-0.414324	-307.781	-0.964401
0.4760	13.1145	25.5601	5.18163	14.4984	-10.4377	-4.80733	-2.6095	1.39095	-349.256	-0.642934
0.4767	8.51048	26.2031	4.88187	22.7513	-12.8794	-8.48955	-2.30008	2.92987	-395.971	0.642934
0.4773	2.44153	25.5601	3.36164	19.703	-15.0172	-12.7514	-2.30008	2.01243	-424.327	0
0.4780	-0.627822	25.8816	3.36164	14.201	-11.9677	-16.3995	-0.773568	3.22581	-374.592	0
0.4787	-2.72056	27.4088	4.26093	43.1978	-4.64245	-21.275	1.36148	6.27405	-104.225	0
0.4793	-5.16209	27.7303	3.6614	86.8417	3.90888	-23.7298	1.05205	6.5996	247.669	-0.321467
0.4800	-5.16209	28.2929	3.36164	75.243	13.3615	-20.0817	1.05205	6.5996	353.872	0.321467
0.4807	-3.97621	29.8201	3.6614	13.6062	20.0789	-18.5474	1.97002	7.51703	354.774	0.642934
0.4813	-1.25564	31.3473	3.36164	-54.1646	19.775	-17.6269	1.05205	8.10892	460.977	0.321467
0.4820	4.88306	34.0801	4.26093	-117.623	15.4993	-10.9103	1.97002	10.8612	448.17	0.321467
0.4827	11.5798	37.456	5.4814	-174.985	8.17407	-3.88678	3.79564	12.992	264.744	0
0.4833	15.277	38.099	6.10234	-199.409	0.24103	2.523	4.10507	12.4001	99.6436	0
0.4840	14.0214	37.456	6.10234	-153.943	-4.64245	9.85333	3.49653	11.1572	18.7764	0.321467
0.4847	11.5798	38.099	3.6614	-92.6039	-7.3881	12.5809	2.26913	10.8612	-21.2059	0
0.4853	14.3701	38.099	3.36164	-93.5333	-7.69201	12.5809	1.36148	11.4827	-59.9736	0
0.4860	18.6254	35.9288	4.58211	-114.277	-6.4659	10.4329	-1.083	10.8612	-79.4789	0.321467
0.4867	14.0214	34.0801	5.4814	-96.5817	-4.02416	7.09167	-4.13601	9.64784	-60.2512	0
0.4873	-2.1625	33.839	6.4021	-67.2875	0.24103	9.54648	-4.44544	9.94378	-7.18433	-0.321467
0.4880	-15.277	31.9903	5.80257	-83.4588	3.60498	20.2181	-6.58049	9.64784	80.1036	0
0.4887	-12.2077	30.7846	7.62257	-135.021	5.42842	31.8102	-7.18903	10.5653	136.259	0.321467
0.4893	-13.1145	29.4986	8.84304	-162.196	5.73233	33.0376	-7.48814	11.7786	87.1491	0
0.4900	-26.229	26.4443	7.62257	-172.271	4.82061	27.5484	-10.242	10.8612	2.29066	0
0.4907	-35.7161	25.2386	10.6844	-167.066	6.65453	25.7073	-9.32407	11.7786	-9.92618	0
0.4913	-40.5992	25.2386	12.8256	-101.452	7.87016	22.6388	-6.58049	14.235	11.4533	0.321467
0.4920	-39.6923	26.2031	10.6844	-13.2716	4.82061	16.5359	-5.66252	16.3658	-23.9478	0.321467
0.4927	-33.5536	27.4088	9.16421	16.6546	1.46714	9.85333	-6.8796	19.4141	-69.1015	0.321467
0.4933	-34.4605	26.4443	6.10234	-17.5468	1.46714	-2.38662	-13.5942	20.3315	-61.7783	0.321467
0.4940	-33.2746	27.4088	3.04046	-65.4287	4.21279	-16.0926	-15.1207	21.2489	-5.93488	0
0.4947	-24.1363	31.9903	0.920704	-99.3327	4.82061	-23.423	-10.242	25.8065	77.6741	0
0.4953	-17.7185	37.456	-5.18163	-134.426	2.37886	-28.9122	-8.71553	31.0151	118.559	0.321467
0.4960	-13.1145	41.716	-11.6051	-189.037	1.77105	-35.322	-9.93261	32.5245	112.173	0
0.4967	-5.16209	39.6262	-14.0461	-222.011	2.37886	-38.3905	-9.93261	28.8547	107.279	0.321467
0.4973	10.952	33.196	-12.2047	-182.94	2.98668	-34.4014	-6.27106	21.2489	79.7912	0
0.4980	25.3222	30.7846	-8.24351	-113.645	3.90888	-30.4464	0.443512	16.0403	27.002	0
0.4987	21.9738	29.8201	-5.18163	-44.3874	3.90888	-32.5944	4.41449	16.6618	61.813	0
0.4993	17.7185	26.2031	-2.44093	39.5546	1.77105	-30.4464	4.41449	15.4484	106.967	0
0.5000	35.0883	20.6571	3.04046	95.6895	-0.974601	-20.6954	5.02304	8.10892	-66.082	0
0.5007	52.8068	15.8344	7.62257	104.835	-0.670693	-13.9788	7.76662	-1.6573	-303.2	0
0.5013	45.4822	14.3072	9.16421	114.017	3.29059	-9.98971	10.8196	-2.87068	-375.217	0
0.5020	32.3677	15.8344	9.46398	132.01	7.56626	-4.50048	12.3461	5.68216	-286.402	0
0.5027	32.9258	17.6027	7.92233	118.887	6.65453	-2.07977	11.4282	10.5653	-96.9017	0.321467
0.5033	37.2508	18.8888	5.18163	70.373	0.24103	-2.96623	11.4282	9.94378	58.7588	0
0.5040	30.833	19.4514	3.04046	24.5729	-4.64245	-2.07977	12.3461	10.8612	97.8041	0
0.5047	21.3459	19.7729	2.44093	9.33103	-7.0842	6.17112	12.0367	12.0746	70.3509	0
0.5053	19.8113	20.4159	4.26093	8.10424	-10.4377	11.6603	10.2111	12.992	37.6917	0.642934
0.5060	16.8117	17.9242	3.04046	2.30487	-15.0172	6.78482	4.10507	12.6961	-0.45119	-0.321467
0.5067	21.9738	14.5484	3.6614	2.89968	-13.4872	2.82985	-0.773568	10.2397	-65.1449	-1.60734
0.5073	29.9262	12.4585	8.84304	-5.31608	-4.02416	7.09167	1.36148	9.94378	-109.084	-0.321467
0.5080	13.3935	11.494	9.76374	-16.9148	-3.41634	11.6603	3.49653	12.0746	-59.3488	0.642934
0.5087	-6.69677	12.137	9.46398	23.9781	-14.095	11.6603	3.79564	14.5309	24.8849	0
0.5093	-9.48709	11.494	10.9842	70.0385	-19.9007	8.31907	5.93069	14.8269	31.8957	0
0.5100	-9.1383	8.76117	11.9049	69.4436	-21.7242	3.1367	3.1871	13.6135	-29.1538	0
0.5107	-10.673	6.67135	12.2047	55.7259	-19.9007	-0.238662	-2.6095	12.4001	-64.2425	0.321467
0.5113	-11.5798	6.34984	12.5044	3.53166	-12.8794	-3.57993	-6.58049	12.6961	-13.8828	0.642934
0.5120	-11.5798	7.5555	13.4251	-75.8006	-9.22203	-8.1827	-7.48814	14.235	62.403	0.321467
0.5127	-7.04556	9.7257	14.6456	-110.931	-5.85809	-8.1827	-4.44544	16.0403	80.4159	0
0.5133	-2.1625	10.9314	13.1254	-111.824	0.544938	-7.56899	0.443512	17.5792	50.2209	0
0.5140	-3.34838	10.2883	7.92233	-117.326	2.98668	-12.4445	2.57856	17.2832	13.8828	0.321467
0.5147	-1.81371	13.6642	4.88187	-110.931	-0.366785	-17.0132	2.57856	19.71	14.1951	0.321467
0.5153	1.53468	17.9242	3.6614	-82.8268	-0.974601	-19.468	1.66059	23.6757	88.9538	0
0.5160	-4.60403	17.6027	1.52023	-67.5849	-1.27851	-21.275	0.742625	24.5931	175.027	0
0.5167	-16.8117	17.3616	1.52023	-73.0868	-5.55418	-21.5819	0.443512	25.2146	141.743	0.321467
0.5173	-32.9955	14.8699	2.44093	-80.7078	-6.16199	-22.8093	-2.6095	22.4623	8.08671	0.321467
0.5180	-42.4129	8.76117	5.4814	-76.1352	-1.58242	-23.423	-5.96163	15.1228	-58.4465	0
0.5187	-24.4153	1.12529	10.6844	-50.4842	-0.366785	-21.0023	-6.27106	6.27405	-55.9823	0
0.5193	4.25524	-4.34039	12.5044	-28.2161	-4.33855	-18.8543	-7.79757	-1.33176	-95.3746	0
0.5200	20.7181	-4.98342	14.0461	-41.0416	-0.366785	-16.3995	-9.32407	-2.87068	-145.11	0
0.5207	27.4847	-3.69737	15.8661	-68.8117	15.1954	-9.06915	-10.8506	1.095	-183.877	0
0.5213	26.8568	-2.81322	15.2665	-90.1503	21.6089	2.21615	-12.6762	4.76473	-224.45	0
0.5220	24.1363	-0.401888	14.3458	-113.645	17.6371	12.274	-8.40611	6.89554	-201.265	0
0.5227	23.1597	2.08982	10.9842	-148.144	16.7254	17.4564	-4.44544	6.89554	-96.5894	0
0.5233	13.1145	2.08982	5.4814	-196.658	20.3828	13.5014	-8.71553	4.76473	12.3557	0
0.5240	-20.1601	3.29548	3.96117	-243.648	26.7963	13.1946	-13.5942	7.51703	72.1904	0.321467
0.5247	-53.0858	5.14417	3.36164	-277.849	25.5702	26.0142	-15.4301	11.4827	46.8543	0.321467
0.5253	-44.5754	3.29548	3.36164	-298.593	10.9197	39.4474	-15.4301	9.94378	-48.0691	0
0.5260	-15.277	-0.643021	6.70187	-260.153	-6.78029	46.7777	-13.9036	6.5996	-151.53	0
0.5267	-0.627822	-4.98342	9.16421	-175.914	-13.7911	46.7777	-11.4591	3.8473	-247.356	0
0.5273	-0.279032	-4.6619	12.8256	-109.073	-9.22203	44.0161	-6.8796	4.46878	-232.988	0
0.5280	-14.9282	-2.1702	13.1254	17.2494	-2.50462	41.8681	-5.35309	5.68216	-57.5094	0
0.5287	-31.7399	-1.28604	7.02304	171.081	-1.58242	38.5269	-9.01465	3.55135	52.0257	0
0.5293	-40.8782	-1.28604	4.88187	163.758	-10.4377	36.9926	-9.6335	0.473514	-13.5704	0
0.5300	-52.179	-3.13473	4.88187	49.9266	-24.7842	30.8897	-5.35309	-0.118378	-51.1233	0
0.5307	-53.9927	-5.54606	5.18163	-24.8703	-29.9716	21.7523	-1.083	0.177568	-63.9301	0
0.5313	-49.4584	-5.22455	9.16421	-29.7403	-20.5085	19.2975	3.1871	1.71649	-188.459	0
0.5320	-47.6447	-5.86757	11.284	25.5023	-10.4377	20.2181	6.84866	3.8473	-235.139	0
0.5327	-38.4367	-7.71626	12.2047	54.2017	-8.90764	16.8427	7.15808	6.89554	-79.2012	0.321467
0.5333	-39.9713	-8.92192	16.1658	-8.06706	-4.94636	-1.77292	2.26913	9.94378	69.7262	0
0.5340	-47.6447	-11.9763	18.928	-104.5	0.848846	-36.8562	-6.27106	9.64784	74.6199	0
0.5347	-50.0862	-14.3876	21.3689	-176.211	-0.670693	-59.7337	-11.4591	9.64784	-22.733	0
0.5353	-77.8499	-11.9763	24.4093	-225.655	-5.55418	-60.3474	-11.1497	12.6961	-141.153	0
0.5360	-76.9431	-9.80608	21.9684	-203.684	-9.22203	-50.9032	-11.4591	15.1228	-186.931	0
0.5367	-12.2077	-7.39475	16.1658	-89.5555	-10.4377	-32.9013	-11.7685	19.4141	-130.151	0
0.5373	47.2959	-0.964532	8.54327	10.5578	-13.4872	-14.5925	-9.93261	26.428	-26.0996	0.321467
0.5380	96.1265	8.19852	-3.96117	71.2652	-18.6746	-2.07977	-7.18903	34.6553	37.3794	0.321467
0.5387	153.189	17.6027	-13.4251	121.006	-20.2046	7.39852	-4.74455	42.6162	27.6267	0.321467
0.5393	186.184	20.6571	-18.6068	120.114	-19.9007	9.23963	-5.66252	43.8296	-9.61382	0.321467
0.5400	164.768	17.9242	-22.5894	74.6482	-16.8512	7.39852	-6.58049	38.0291	-48.3814	0.321467
0.5407	78.7568	12.78	-20.4482	63.9417	-8.60373	7.39852	-3.52747	30.3937	-91.3833	0.321467
0.5413	-62.852	3.93851	-13.7249	92.0091	2.98668	3.7504	-2.91893	18.7926	-131.053	-0.321467
0.5420	-223.714	-4.34039	-3.36164	83.4959	18.8632	3.7504	-0.474455	4.76473	-144.485	-1.28587
0.5427	-315.864	-9.24343	7.3228	45.354	28.6197	7.39852	4.41449	-1.95324	-95.0623	-0.321467
0.5433	-264.313	-13.825	12.8256	11.45	22.5206	4.94371	3.1871	-2.87068	-44.0778	0
0.5440	-108.055	-17.1204	18.6068	-15.688	15.4993	2.523	-1.39242	-4.4096	-71.878	0
0.5447	12.2077	-19.9337	20.7479	-19.9632	16.1176	0.0681891	-7.48814	-7.45784	-106.967	0.321467
0.5453	21.6947	-18.6476	19.2277	-5.94806	17.3332	-2.38662	-11.7685	-8.37527	-117.934	0
0.5460	-8.85927	-12.8604	17.0865	-5.61349	15.8032	0.0681891	-15.1207	-5.91892	-102.073	0
0.5467	1.81371	-10.7706	11.9049	13.3088	12.7536	3.44355	-19.3908	-4.08405	38.9065	0.321467
0.5473	28.6705	-12.8604	11.9049	121.935	13.9798	7.39852	-18.7822	-5.00149	262.905	0.321467
0.5480	22.6016	-15.9148	15.2665	275.135	17.0293	10.4329	-17.8643	-7.45784	363.312	0.321467
0.5487	42.1338	-18.085	16.1658	346.846	13.6759	13.5014	-14.8216	-9.58865	253.742	0
0.5493	148.933	-18.085	19.2277	284.578	2.37886	17.4564	-6.27106	-10.1805	74.9322	0
0.5500	265.499	-15.0306	19.8272	200.673	-9.52594	17.7633	0.134085	-9.26311	-19.3665	0.321467
0.5507	281.962	-9.24343	16.1658	180.226	-15.929	15.9563	4.41449	-4.70554	-58.7588	0.321467
0.5513	224.272	-5.54606	12.2047	172.903	-19.5968	19.2975	4.41449	0.799054	-114.602	0
0.5520	176.697	-7.39475	11.6051	182.68	-18.3707	34.5719	0.742625	2.30838	-124.043	0
0.5527	155.63	-7.07323	11.284	211.974	-10.4377	47.6642	0.134085	4.76473	-66.082	0
0.5533	112.31	-2.49171	7.62257	202.494	-0.670693	46.4709	-1.39242	11.7786	-56.9193	0.321467
0.5540	8.51048	1.12529	6.10234	171.081	8.79237	44.9366	-2.91893	15.4484	-113.075	0.321467
0.5547	-93.406	-3.13473	9.76374	145.133	20.9906	44.6298	-4.74455	12.4001	-171.973	0
0.5553	-205.716	-20.4963	12.2047	105.132	33.5032	36.0721	-11.4591	5.97811	-189.673	0
0.5560	-378.088	-30.6239	13.1254	55.7259	38.3867	23.5593	-14.5121	3.8473	-104.225	0.321467
0.5567	-487.05	-23.2291	14.0461	19.703	39.6128	7.39852	-13.2951	8.10892	50.2209	0.321467
0.5573	-459.008	-18.6476	16.1658	4.42387	43.8885	-6.03474	-14.5121	10.5653	194.845	0.321467
0.5580	-399.155	-19.9337	18.6068	2.89968	39.9167	-12.7514	-13.5942	12.992	338.288	0
0.5587	-350.953	-25.0778	14.9454	23.3461	22.8245	-21.5819	-10.5412	14.5309	492.109	0
0.5593	-265.848	-28.1322	4.26093	88.6633	9.09628	-27.9916	-8.40611	11.4827	558.018	0
0.5600	-178.511	-16.8793	-3.96117	174.13	2.07496	-35.0151	-0.474455	13.6135	496.691	0.321467
0.5607	-132.122	-9.56494	-10.0635	195.803	-0.974601	-55.165	11.1188	21.5449	401.143	0.321467
0.5613	-98.289	-18.9691	-14.6456	144.501	0.544938	-75.6217	14.4812	24.8891	296.467	0
0.5620	-59.8524	-24.1937	-16.1658	117.363	1.77105	-79.2699	9.29313	20.0059	230.246	0.321467
0.5627	-2.44153	-23.2291	-17.0865	123.162	2.37886	-67.9846	-0.165028	12.6961	252.528	0.321467
0.5633	66.5491	-13.825	-14.6456	115.839	8.48846	-52.0965	-10.5412	2.92987	287.026	0.321467
0.5640	86.6394	-0.0803777	-5.18163	128.032	16.4215	-39.6179	-15.1207	-12.6369	294.939	0
0.5647	47.0169	-8.60041	3.6614	159.78	22.2167	-31.0602	-16.6472	-27.2862	291.92	0
0.5653	17.9976	-30.3024	10.9842	178.405	25.8741	-23.423	-16.0386	-35.2176	310.523	-0.321467
0.5660	46.3891	-43.4039	17.7075	190.896	23.7467	-15.4789	-10.8506	-37.9699	393.229	-1.28587
0.5667	118.379	-50.3968	24.1096	210.45	17.0293	-3.88678	-5.96163	-36.431	465.871	-0.321467
0.5673	172.093	-45.5741	31.7322	225.989	13.0576	6.17112	-4.74455	-35.8391	458.235	0.642934
0.5680	165.675	-26.9265	30.2119	218.368	10.6158	-1.46607	-5.05398	-35.8391	422.522	0
0.5687	170	-9.24343	13.7249	228.74	4.82061	-14.8652	-5.96163	-28.2036	387.121	0
0.5693	267.94	14.8699	-8.24351	274.206	-3.11244	-16.3995	-6.8796	-14.1462	364.214	0.321467
0.5700	321.654	41.716	-25.6298	302.905	-10.4377	-12.7514	-7.48814	-3.49216	360.258	0
0.5707	201.74	38.6617	-32.3531	283.053	-11.3494	-9.37601	-1.083	7.19149	342.245	-0.321467
0.5713	113.217	17.9242	-35.0938	218.071	-9.22203	-11.2171	5.63158	22.4623	278.766	0.321467
0.5720	202.298	11.494	-40.2754	154.278	-7.69201	-17.9337	2.26913	32.2285	163.123	0.321467
0.5727	311.26	8.43966	-32.3531	121.935	-3.41634	-19.468	-0.165028	29.1803	79.2012	0
0.5733	331.42	-3.69737	-15.5663	102.418	2.68277	-18.8543	7.15808	13.9095	80.4159	0
0.5740	311.609	-13.1819	-4.88187	92.0091	7.26235	-17.9337	18.1427	-8.96716	89.8909	0
0.5747	241.711	-16.2363	0.599528	91.4143	7.26235	-10.9103	18.4522	-29.713	90.4809	0
0.5753	171.535	-19.6122	0.599528	84.3882	1.77105	-5.72789	6.84866	-39.1832	97.4917	0
0.5760	218.831	-18.9691	-0.62094	75.243	1.46714	-2.96623	0.443512	-35.5135	71.2533	0.321467
0.5767	178.232	-13.1819	-1.52023	70.9678	6.04672	3.7504	-2.00096	-25.7473	43.4878	0.321467
0.5773	-69.2697	-7.39475	-3.6614	63.3469	11.538	5.86427	-5.05398	-13.5543	38.0041	0
0.5780	-256.082	-4.6619	-5.80257	45.9488	13.9798	-2.38662	-2.6095	-0.118378	24.5725	0.321467
0.5787	-233.131	-8.2789	-10.0635	22.4539	6.65453	14.7289	1.97002	4.14324	43.8001	0.321467
0.5793	-12.8355	-14.0661	-9.76374	13.9036	-0.670693	94.3738	11.4282	-2.57473	108.806	0.321467
0.5800	215.134	-15.0306	-6.10234	11.1526	-10.1338	176.78	23.6402	-11.4235	139.314	0.321467
0.5807	126.332	-13.5034	-9.16421	-4.08929	-21.7242	196.589	25.7753	-17.2241	103.6	0.321467
0.5813	-323.817	-10.4491	-14.6456	-16.6174	-23.5581	177.394	23.0214	-14.1462	54.1775	0
0.5820	-798.38	-7.39475	-21.9684	-25.7626	-18.9785	146.845	19.0607	-4.4096	25.7872	0
0.5827	-885.299	-5.22455	-29.2912	-39.5174	-11.9677	117.558	12.3461	3.55135	9.61382	0
0.5833	-536.509	-0.401888	-32.0533	-50.4842	-1.27851	94.6806	8.07605	10.8612	-5.34487	0.321467
0.5840	-74.7806	-3.45624	-25.6298	-62.3803	4.5167	66.2798	18.1427	15.1228	-27.002	0.321467
0.5847	117.193	-17.442	-10.0635	-77.362	3.29059	31.1965	38.895	13.3176	-47.7567	0
0.5853	-144.05	-22.345	-3.36164	-97.1765	6.04672	-6.64844	47.4352	9.35189	-68.1991	0
0.5860	-528.556	-18.4065	-5.80257	-126.768	2.98668	-29.219	47.1361	6.89554	-104.815	0
0.5867	-523.673	-23.2291	1.22047	-152.717	-13.4872	-24.3435	43.7736	0.473514	-141.153	0
0.5873	-148.654	-28.1322	3.96117	-160.672	-26.922	-24.3435	27.3018	-8.04973	-164.025	0.321467
0.5880	285.938	-22.345	-6.4021	-151.192	-28.4416	-51.8237	13.2641	-2.87068	-178.671	0.321467
0.5887	602.709	-11.3333	-24.1096	-137.177	-25.6959	-92.7031	5.02304	8.73041	-182.94	0
0.5893	707.695	1.76831	-45.7782	-130.151	-22.6464	-136.651	-8.10699	16.9577	-194.845	0
0.5900	588.967	13.6642	-60.7236	-129.519	-14.7133	-157.687	-15.1207	26.7239	-225.352	0.321467
0.5907	317.678	19.1299	-66.2264	-140.226	-0.0628775	-105.216	-18.1737	31.3111	-254.055	0
0.5913	-96.7544	15.8344	-60.7236	-153.014	15.4993	-8.1827	-24.8883	24.5931	-258.324	0
0.5920	-537.137	3.617	-43.6371	-142.642	20.0789	77.9061	-27.3327	8.43446	-250.376	0.321467
0.5927	-469.332	-12.6193	-24.4093	-125.876	9.40018	197.817	-26.4148	-10.5061	-252.84	0.321467
0.5933	235.922	-23.8722	-9.16421	-126.471	-5.85809	320.796	-22.1447	-20.8642	-275.712	0
0.5940	847.141	-34.2409	3.6614	-134.724	-13.4872	348.583	-18.7822	-24.238	-319.373	0
0.5947	875.882	-46.4583	13.7249	-133.497	-16.2329	315.92	-18.1737	-30.0385	-325.169	0.321467
0.5953	498.072	-50.7183	13.1254	-112.121	-21.1164	278.075	-16.0386	-38.2658	-252.215	-1.28587
0.5960	156.537	-39.7066	-3.36164	-88.3287	-26.3037	230.479	-11.4591	-40.1007	-179.296	-1.28587
0.5967	21.9738	-16.8793	-30.5117	-83.4588	-30.2755	197.817	-5.96163	-32.1693	-153.96	0
0.5973	-116.287	-0.401888	-48.8401	-84.6856	-29.9716	177.974	-2.91893	-31.5478	-128.311	0.321467
0.5980	-390.296	0.884154	-48.5189	-70.3359	-22.6464	130.684	0.134085	-36.431	-75.2099	0
0.5987	-805.077	-0.643021	-46.6989	-41.9338	-11.3494	58.3699	9.90167	-30.3345	-6.87197	0
0.5993	-994.54	-8.03777	-47.6196	-20.5952	-8.29983	-30.7533	13.8727	-23.9124	56.9193	0.321467
0.6000	-587.153	-18.9691	-40.2754	-17.8442	-16.2329	-125.059	6.54954	-27.2862	74.3075	0
0.6007	-26.229	-23.8722	-28.0708	-27.9187	-19.9007	-211.42	-0.773568	-34.9216	26.6896	0
0.6013	109.241	-33.0352	-12.8256	-46.5064	-14.7133	-269.688	-6.8796	-43.4449	-49.9086	0.321467
0.6020	-126.332	-39.7066	-4.28234	-73.0868	-7.3881	-276.405	-9.32407	-42.853	-108.181	0.321467
0.6027	-423.292	-32.7137	-13.4251	-92.6039	5.12451	-263.005	-12.3771	-31.8734	-123.14	0.321467
0.6033	-530.37	-18.4065	-30.2119	-91.0797	15.8032	-232.764	-19.7002	-18.1415	-113.353	0.321467
0.6040	-310.702	-0.643021	-42.4166	-72.4548	13.6759	-169.007	-14.5121	-3.16662	-94.4375	0
0.6047	146.143	5.3853	-44.5578	-56.581	12.4497	-118.342	1.97002	0.799054	-51.7133	0
0.6053	476.377	1.4468	-43.0375	-55.3542	19.4711	-102.454	7.4572	-3.78811	-14.5075	0
0.6060	433.616	-1.60755	-43.3373	-48.96	24.0506	-101.84	6.54954	-1.95324	-5.65723	0
0.6067	259.36	-9.56494	-34.4943	-5.94806	25.2663	-107.364	12.3461	2.63392	27.3143	0
0.6073	269.126	-24.7563	-16.487	79.8156	23.4323	-128.707	21.8043	-6.21487	88.0515	0
0.6080	452.241	-47.3424	6.10234	162.828	22.5206	-143.368	33.3975	-39.4792	106.654	0
0.6087	626.218	-68.7229	25.3301	201.9	20.6867	-129.014	51.7156	-82.8353	60.8759	0.321467
0.6093	704.974	-80.9403	30.2119	202.494	6.65453	-115.887	64.2268	-126.458	-12.3557	0
0.6100	636.891	-84.3162	24.1096	172.271	-19.5968	-111.319	55.9857	-161.557	-77.0494	-0.321467
0.6107	431.523	-74.1886	11.9049	123.162	-44.6221	-98.1924	39.813	-165.523	-81.943	-0.321467
0.6113	306.098	-52.8885	-8.84304	60.2985	-58.3503	-70.1325	26.0744	-140.811	-8.39907	0
0.6120	311.888	-30.865	-28.0708	-8.66187	-67.5095	-21.0023	16.6162	-109.678	49.2838	-0.321467
0.6127	149.212	-15.5933	-39.6759	-51.1162	-72.0786	-0.545513	10.2111	-81.9178	52.0257	0
0.6133	-203.554	-8.2789	-45.4785	-64.8339	-56.8203	-27.9916	-0.474455	-56.5849	49.2838	0.321467
0.6140	-457.473	-6.18908	-43.6371	-77.9568	-35.7668	-32.9013	-14.5121	-38.8873	32.208	0
0.6147	-502.606	-12.6193	-33.2738	-104.797	-39.1203	-20.0817	-22.7532	-37.0524	-9.30145	0
0.6153	-333.583	-22.345	-18.307	-135.616	-43.6998	-13.0582	-20.9173	-43.1489	-48.6591	0.321467
0.6160	-120.821	-26.0424	-8.84304	-157.624	-17.7629	41.5613	-16.3378	-47.1146	-97.4917	0.321467
0.6167	-126.681	-27.8107	-4.88187	-173.795	13.6759	120.933	-10.242	-52.9151	-165.552	0
0.6173	-257.547	-33.5979	2.44093	-181.713	27.4041	157.551	4.71361	-61.172	-202.793	0
0.6180	-331.141	-41.2337	9.76374	-174.687	28.3158	150.528	17.8333	-66.3511	-197.309	0
0.6187	-347.325	-40.9926	11.284	-164.315	17.3332	127.343	23.9394	-62.0599	-191.478	0
0.6193	-286.845	-34.2409	5.18163	-160.04	-4.94636	91.3053	24.5479	-51.0803	-209.491	0.321467
0.6200	-129.68	-27.248	-4.28234	-156.062	-27.8338	26.0142	20.8863	-37.6443	-243.053	0.321467
0.6207	134.912	-18.9691	-11.6051	-138.069	-38.5125	-46.3004	25.7753	-22.1072	-258.636	0
0.6213	309.447	-7.71626	-18.928	-72.7523	-40.3464	-96.3512	40.4215	-5.62297	-211.018	0
0.6220	204.182	9.40419	-31.1326	11.1526	-36.9929	-125.366	54.7686	11.7786	-44.7025	0.321467
0.6227	79.6636	24.6759	-44.8575	17.2494	-29.3533	-134.503	51.7156	30.0977	154.272	0.321467
0.6233	-122.983	32.8745	-53.722	-26.06	-22.3425	-138.185	34.3155	44.1255	204.007	0
0.6240	-506.583	36.8933	-52.1803	-16.9148	-2.80853	-148.857	22.1137	50.222	60.5983	0
0.6247	-519.139	33.196	-42.7164	32.2311	22.2167	-154.96	6.84866	50.5476	-136.884	0.321467
0.6253	-117.472	28.936	-35.0938	49.592	29.238	-144.288	-7.79757	51.1395	-193.63	0
0.6260	225.807	23.4703	-27.4712	20.6323	27.1002	-100.34	-4.74455	46.5819	-107.557	-0.321467
0.6267	319.492	7.5555	-14.3458	-2.89968	19.775	-48.7552	3.49653	27.6414	-39.2188	0
0.6273	187.37	-9.80608	-0.299764	62.1201	-6.16199	-47.5278	8.37516	-3.49216	-13.258	-0.321467
0.6280	18.6254	-19.9337	8.84304	222.049	-25.0881	-32.2876	19.0607	-28.7955	59.9736	-1.28587
0.6287	-42.7617	-24.1937	15.8661	342.869	3.90888	65.973	31.5719	-34.9216	170.446	-0.642934
0.6293	-64.1076	-31.1865	21.6686	339.523	38.6906	152.948	35.2334	-40.1007	261.378	0
0.6300	-263.685	-39.7066	21.9684	267.812	28.9341	168.836	26.3838	-47.4105	287.929	0.321467
0.6307	-606.406	-37.6167	18.6068	194.279	5.73233	165.768	17.2248	-39.8047	233.925	0.321467
0.6313	-699.185	-28.1322	13.1254	145.43	-1.8968	161.199	19.0607	-26.6647	139.626	0
0.6320	-446.8	-16.2363	5.4814	110.931	5.42842	138.322	28.2094	-14.1462	49.9086	0
0.6327	-158.699	-0.401888	-6.4021	74.3136	11.2341	99.5561	37.6779	9.35189	11.7656	0.321467
0.6333	-121.797	14.3072	-22.2896	61.5253	7.87016	57.4493	41.6386	34.6553	33.1104	0.321467
0.6340	-385.413	24.6759	-32.0533	74.6482	6.95844	-1.15922	48.054	52.6784	67.2967	0
0.6347	-560.296	30.7846	-32.0533	78.9234	-4.02416	-72.5532	58.7293	64.5754	86.212	0
0.6353	-324.724	31.3473	-23.5101	73.4214	-30.2755	-124.752	61.4729	70.08	100.858	0.321467
0.6360	57.3411	26.2031	-10.3847	68.5143	-43.6998	-125.366	53.2421	71.5893	120.086	0.321467
0.6367	347.883	11.2529	3.96117	57.8449	-36.6785	-67.9846	44.3925	61.8231	138.411	0
0.6373	541.043	-8.60041	18.0072	38.9226	-25.9998	-13.6719	38.2865	38.9465	144.797	0.321467
0.6380	546.554	-21.1393	23.8098	15.7252	-24.1659	4.94371	19.0607	15.4484	129.249	0.321467
0.6387	393.993	-21.1393	21.3689	11.7846	-20.2046	42.4818	-8.40611	-3.49216	110.021	-0.642934
0.6393	268.568	-15.0306	13.7249	29.1455	8.17407	149.914	-21.5258	-17.2241	109.396	-0.642934
0.6400	229.783	-12.8604	7.3228	44.1272	40.2206	286.633	-23.6712	-24.238	119.774	0.321467
0.6407	275.893	-12.8604	3.6614	56.0233	49.0759	350.731	-28.8592	-30.3345	121.301	0.321467
0.6413	338.466	-11.6548	-4.58211	55.7259	60.3624	329.047	-35.2644	-36.135	107.279	0.321467
0.6420	182.487	-7.07323	-7.3228	42.9004	88.1333	281.144	-33.4285	-33.0868	91.1057	0.321467
0.6427	-230.132	0.562644	-9.16421	31.8965	107.363	270.165	-34.0473	-20.2723	78.2988	0
0.6433	-502.955	4.50115	-13.1254	29.1455	111.943	309.204	-33.4285	-3.16662	66.082	0
0.6440	-317.678	0.562644	-5.50281	37.101	110.413	321.103	-18.1737	5.97811	62.7154	0
0.6447	124.518	-12.6193	2.14117	36.4691	118.346	320.523	-5.96163	-0.739865	61.1883	0.321467
0.6453	456.217	-23.8722	9.46398	30.0749	145.813	348.583	7.15808	-9.26311	56.607	0
0.6460	550.53	-27.5695	17.7075	32.5285	160.767	322.023	30.0454	-10.1805	52.6504	0
0.6467	482.795	-28.4537	14.0461	34.3501	143.979	210.329	49.8797	-10.5061	42.273	0.321467
0.6473	339.652	-25.7209	11.9049	36.4691	115.904	78.2129	70.3225	-10.1805	31.2709	0
0.6480	174.535	-23.8722	13.1254	35.2795	77.1507	-44.8003	83.4525	-12.9328	23.6701	0
0.6487	68.9907	-22.6665	10.9842	23.3461	45.1041	-134.503	89.5585	-17.8159	16.347	0.321467
0.6493	49.1096	-17.1204	11.9049	4.12647	50.2915	-174.803	85.5876	-18.4374	7.49669	0
0.6500	24.1363	-15.0306	5.4814	-24.5358	58.2245	-203.783	40.7206	-22.1072	-8.67673	0
0.6507	-51.9	-10.7706	-2.7407	-50.4842	32.8954	-175.11	-11.1497	-20.2723	-23.9478	0
0.6513	-105.265	-3.69737	-1.84141	-65.4287	-32.7172	-128.4	-27.0233	-13.8503	-31.8957	0
0.6520	-94.0338	-6.75172	-1.22047	-72.4548	-100.468	-164.097	-41.979	-17.2241	-38.9065	0.321467
0.6527	-54.6205	-9.24343	4.26093	-67.8823	-96.1921	-226.968	-60.5962	-17.8159	-37.3794	0
0.6533	12.4867	-9.56494	9.46398	-63.3097	-57.1347	-299.623	-73.4064	-13.2584	-32.4857	0
0.6540	92.1503	-14.7091	4.26093	-64.5365	-68.7251	-345.992	-91.1057	-11.7195	-35.8522	0.321467
0.6547	147.399	-14.7091	1.82	-56.9155	-102.606	-322.501	-84.4014	-8.37527	-35.5399	0.321467
0.6553	182.487	-9.80608	3.04046	-44.9822	-103.213	-287.724	-58.1517	-2.87068	-29.1538	0
0.6560	160.792	-6.18908	-2.7407	-41.9338	-77.5803	-223.319	-48.085	-0.118378	-30.3686	0
0.6567	88.8019	-0.401888	-11.9049	-39.5174	-27.2259	-108.25	-47.7756	5.06068	-38.9065	0.321467
0.6573	73.8737	5.3853	-17.7075	-30.0377	40.2206	-51.21	-40.143	9.64784	-44.3902	0.321467
0.6580	111.055	5.70681	-20.4482	-21.19	71.6594	-89.3278	-26.7139	7.51703	-46.542	0.321467
0.6587	92.4294	2.65246	-18.307	-15.0932	66.1576	-123.525	-16.6472	2.30838	-45.6049	-0.642934
0.6593	49.1096	0.562644	-13.4251	-9.29385	50.8993	-150.391	-21.5258	-2.87068	-43.4878	-1.28587
0.6600	62.5729	-3.13473	-6.72328	-1.04091	14.8915	-196.76	-32.8199	-9.88459	-40.1212	-0.321467
0.6607	60.6895	-10.4491	4.58211	8.40164	-26.3037	-195.839	-38.6165	-20.2723	-35.5399	0.321467
0.6613	-6.41774	-15.0306	12.8256	10.2232	-45.2299	-151.584	-49.6115	-30.6304	-35.5399	0
0.6620	-26.8568	-13.5034	16.1658	1.71007	-61.7038	-118.956	-55.7072	-30.6304	-38.0041	0
0.6627	16.1839	-9.80608	17.0865	-7.76966	-80.6299	-71.3258	-51.4371	-22.4031	-39.2188	0
0.6633	-21.6947	-9.24343	12.8256	-5.01868	-63.8416	48.8916	-50.8286	-15.9811	-37.067	0.321467
0.6640	-210.878	-10.1276	8.54327	5.98524	-19.2929	196.589	-47.4661	-10.5061	-32.798	0
0.6647	-303.378	-8.60041	5.4814	14.201	-7.3881	342.48	-36.4815	-3.78811	-32.4857	0
0.6653	3.62742	-4.98342	2.14117	26.0971	-45.2299	458.436	-26.1053	3.8473	-31.2709	0
0.6660	372.019	-4.01888	1.22047	32.8259	-76.0503	461.811	-30.9943	12.4001	-27.002	0
0.6667	477.912	-4.34039	6.70187	34.9449	-70.8629	444.423	-40.4524	25.5105	-21.2059	0.321467
0.6673	584.433	2.97397	3.6614	42.2684	-65.3716	446.537	-23.0523	43.5041	-14.5075	0.321467
0.6680	715.299	20.4159	-23.8098	43.1978	-40.6503	404.43	20.8863	61.2312	-12.9804	0
0.6687	715.02	47.2621	-52.8013	37.6959	46.3302	363.55	90.7756	81.0596	-12.0433	0
0.6693	423.85	68.321	-62.8648	27.9559	106.441	297.611	168.287	97.5438	-10.2038	0.321467
0.6700	-166.303	61.8908	-61.6443	2.30487	87.8294	94.6806	201.86	94.7915	-19.6788	0.321467
0.6707	-784.01	43.5647	-44.8575	-33.3835	64.638	-179.678	177.137	82.273	-38.5941	0.321467
0.6713	-1200.26	27.7303	-19.8487	-68.4771	61.8924	-338.968	107.866	68.837	-59.3488	0
0.6720	-920.387	4.17964	-2.14117	-102.046	44.1924	-393.622	20.8863	48.3872	-80.7283	0
0.6727	-10.3939	-14.3876	12.8256	-123.125	10.008	-410.089	-48.3841	30.0977	-94.4375	0.321467
0.6733	619.8	-22.0235	18.0072	-123.422	5.12451	-357.277	-98.1297	15.7443	-95.9646	0.321467
0.6740	539.578	-25.7209	11.6051	-111.526	20.0789	-258.403	-128.65	2.63392	-86.5244	0
0.6747	-8.58023	-20.8178	6.70187	-93.8307	23.7467	-193.112	-128.041	-8.67122	-74.3075	0
0.6753	-471.215	-14.7091	0	-80.0758	16.1176	-193.418	-109.114	-23.6165	-70.0386	0
0.6760	-477.284	-11.9763	-11.9049	-78.2542	-14.4094	-191.577	-92.9416	-32.4653	-71.5657	0.321467
0.6767	-217.924	-10.4491	-19.2277	-78.2542	-41.8659	-137.265	-82.5655	-34.9216	-75.5223	0.321467
0.6773	-25.0431	-21.1393	-15.2665	-67.2875	-45.2299	-104.295	-72.7979	-47.4105	-82.8454	0
0.6780	-37.5298	-34.5624	-9.16421	-48.3652	-40.9542	-143.675	-60.5962	-65.4337	-91.1057	0
0.6787	-111.125	-36.9737	-3.96117	-33.0861	-33.629	-223.626	-53.5722	-73.6609	-97.1794	0.321467
0.6793	-20.7879	-39.4654	5.18163	-21.7848	-14.095	-313.636	-50.5191	-77.3307	-115.505	0
0.6800	203.833	-44.047	10.0635	-17.8442	7.87016	-335.013	-34.6558	-83.7527	-156.702	0
0.6807	328.979	-41.8768	9.46398	-19.3684	12.4497	-226.354	-20.9173	-90.1451	-176.554	0
0.6813	149.561	-35.7681	6.4021	-12.937	-6.16199	-92.3963	-37.09	-93.1934	-149.066	0
0.6820	-97.3822	-29.9809	-3.36164	-3.19708	-39.4242	-29.5259	-67.6098	-92.6015	-98.7065	0
0.6827	-108.055	-25.0778	-7.94374	1.71007	-68.4212	17.7633	-79.5125	-83.7527	-27.3143	0.321467
0.6833	-152.91	-24.1937	-2.14117	-5.31608	-71.4707	80.9405	-79.8219	-69.1034	9.30145	0
0.6840	-357.37	-27.248	1.22047	-27.5841	-38.5125	89.4982	-78.9039	-63.3028	-14.1951	0
0.6847	-328.7	-31.508	5.80257	-32.4913	8.48846	47.3574	-59.6782	-60.2546	-10.8286	0.321467
0.6853	-43.0407	-37.9383	12.8256	-5.61349	33.1993	47.6642	-26.7139	-56.2889	44.7025	-0.642934
0.6860	144.957	-41.5553	14.9454	6.28264	29.8458	85.5092	6.84866	-53.2111	83.4701	-1.60734
0.6867	130.029	-39.7066	14.3458	-30.0377	5.73233	104.739	22.4128	-44.0664	70.6633	-0.321467
0.6873	-43.9475	-35.4466	16.1658	-63.0123	-23.5581	116.944	22.1137	-30.3345	46.8543	0.321467
0.6880	-225.528	-31.8296	16.487	-70.0385	-35.7668	93.1464	34.0164	-22.6991	31.8957	0.321467
0.6887	-205.089	-32.1511	10.3847	-93.1987	-29.0494	30.5828	40.1121	-25.7473	-3.81776	0.321467
0.6893	-82.3842	-32.1511	10.0635	-110.931	-20.2046	0.0681891	45.001	-28.2036	-35.2275	0
0.6900	-45.2032	-30.6239	14.6456	-89.8529	-25.392	-9.68286	68.8063	-23.9124	-27.6267	0
0.6907	-54.3415	-33.3567	11.6051	-49.8894	-34.5512	-9.98971	74.2935	-22.1072	-21.2059	0
0.6913	-47.0169	-33.0352	13.4251	-17.5468	-32.1094	18.0701	54.4592	-14.4718	-29.1538	0
0.6920	-31.4609	-29.0967	16.1658	-13.569	-17.7629	13.8083	24.8573	-3.49216	-30.0562	0.321467
0.6927	-16.8117	-29.6594	10.0635	-30.6697	-0.974601	13.8083	-15.7292	-1.6573	-28.2167	0.321467
0.6933	-6.41774	-27.5695	11.9049	-35.5397	10.6158	108.421	-52.6542	2.92987	-20.3035	0.321467
0.6940	-3.97621	-25.3993	14.6456	-27.2867	17.0293	208.522	-80.121	10.5653	-5.0325	0.321467
0.6947	-2.44153	-29.0967	11.6051	-20.2606	30.4537	214.625	-84.7005	12.0746	12.0433	0
0.6953	7.32459	-27.8107	13.1254	-8.66187	62.5002	168.836	-62.4218	17.8751	31.2709	0
0.6960	16.1839	-25.7209	12.5044	4.75845	43.5741	159.085	-29.7669	23.3797	47.1667	0
0.6967	20.1601	-25.0778	8.84304	20.6323	-76.962	178.894	9.60256	23.3797	58.4465	0.321467
0.6973	34.4605	-16.8793	3.6614	36.8036	-184.692	192.021	33.7069	27.0495	55.3922	0
0.6980	53.0858	-8.03777	-5.18163	40.1494	-193.233	226.831	36.1514	30.6896	26.6896	0
0.6987	65.5725	-4.98342	-9.76374	44.722	-154.479	268.938	48.054	31.9326	1.38828	0.321467
0.6993	72.6181	-4.6619	-8.84304	57.5475	-131.592	256.425	67.8883	32.2285	0.45119	0
0.7000	66.8282	-5.86757	-3.36164	64.2391	-108.097	177.974	77.6559	29.1803	-1.66593	0
0.7007	50.3653	-10.4491	0	63.9417	-45.8377	46.164	85.2781	21.2489	-12.9804	0.321467
0.7013	38.4367	-16.2363	0	64.8711	24.9624	-156.187	102.369	12.4001	-4.72014	0.321467
0.7020	40.8782	-19.2906	4.26093	70.373	72.2672	-343.264	115.189	6.27405	29.4662	0
0.7027	38.4367	-20.8178	5.18163	64.5737	88.7411	-398.19	123.121	2.92987	61.1883	0
0.7033	20.7181	-21.1393	4.26093	47.473	77.4546	-360.652	124.957	1.39095	61.5007	0.321467
0.7040	13.7423	-18.085	9.16421	31.3017	49.6837	-265.119	89.5585	3.8473	30.9933	0.321467
0.7047	17.0907	-13.825	9.46398	9.33103	21.305	-140.913	33.7069	9.35189	-1.66593	0
0.7053	14.6492	-9.80608	4.26093	-7.13768	18.2449	-67.064	1.05205	12.992	-16.3123	0
0.7060	17.0907	-4.98342	3.04046	-12.937	40.5245	-80.4973	-22.4438	15.1228	-22.1083	0
0.7067	27.7637	-2.1702	2.7407	-16.32	53.645	-141.833	-52.9636	17.5792	-26.3773	0
0.7073	38.7854	1.12529	1.82	-5.31608	39.6128	-172.348	-53.5722	23.9716	-21.2059	0
0.7080	46.6681	5.14417	5.4814	2.00747	13.9798	-155.88	-23.3618	33.1459	-12.0433	0.321467
0.7087	51.2721	2.97397	16.1658	-37.0639	6.95844	-95.4648	-11.1497	37.7331	-13.8828	0
0.7093	54.6205	-4.98342	25.9296	-92.9013	16.1176	4.94371	-26.7139	34.0634	-19.0541	0.321467
0.7100	57.3411	-14.3876	28.9915	-106.954	16.4215	131.298	-43.196	20.6274	-19.0541	0.321467
0.7107	58.2479	-13.825	28.0708	-81.9346	10.6158	268.324	-43.5055	11.1572	-18.7764	0.321467
0.7113	52.179	-4.01888	21.3689	-54.7594	7.56626	342.173	-44.4234	20.9234	-19.0541	0
0.7120	35.3673	-4.98342	6.10234	-42.2313	8.48846	314.693	-61.2047	33.1459	-18.1517	-0.321467
0.7127	23.5084	-9.56494	-8.54327	-32.7887	10.008	228.024	-71.2714	41.0773	-13.258	0
0.7133	23.5084	6.34984	-12.8256	-26.9893	10.6158	139.549	-57.5431	49.6301	-9.30145	0
0.7140	21.6947	14.5484	1.82	-34.3129	17.941	78.2129	-40.7516	44.747	-8.98909	0.321467
0.7147	23.5084	-6.18908	12.8256	-37.3613	29.5419	24.7868	-34.6558	28.8547	-2.88067	-0.321467
0.7153	27.7637	-15.0306	-4.28234	-12.3422	21.6089	-22.1956	-19.0917	5.35662	4.13012	-1.28587
0.7160	25.0431	1.4468	-18.6068	22.4539	-11.3494	-73.7806	11.1188	-22.1072	2.60302	-0.964401
0.7167	25.0431	13.3427	-11.6051	29.7775	-44.926	-157.687	40.1121	-19.9468	1.97829	0.321467
0.7173	28.0427	3.617	-12.5044	17.2494	-62.3221	-237.366	50.4882	-2.87068	-1.35357	0.321467
0.7180	25.0431	-11.6548	-22.8891	41.971	-58.0464	-298.089	33.3975	-8.37527	-11.1409	0
0.7187	26.229	-9.80608	-9.76374	103.608	-44.0038	-338.968	18.7513	-11.4235	-15.0975	0
0.7193	31.1121	-11.3333	-1.52023	114.017	-31.795	-313.329	9.90167	11.7786	-15.7222	0.321467
0.7200	29.9262	-13.825	-18.6068	59.3691	-6.4659	-244.663	-8.71553	29.7722	-16.937	0.321467
0.7207	24.4153	3.617	-9.16421	8.69904	26.4924	-191.577	-14.5121	22.4623	-13.5704	0
0.7213	19.5322	6.91248	10.0635	-3.79189	43.5741	-120.456	-0.165028	23.3797	-9.30145	0
0.7220	23.7875	-13.1819	-1.84141	-8.99645	41.4467	-28.6053	16.9257	48.0912	-9.92618	0
0.7227	32.0189	-20.4963	-14.3458	-37.0639	31.0615	19.6044	31.871	58.4789	-15.0975	0.321467
0.7233	34.1814	-15.9148	-10.9842	-55.9861	24.0506	27.2416	40.7206	8.43446	-19.0541	0.321467
0.7240	34.4605	-29.0967	5.4814	-45.9116	23.7467	27.8553	28.2094	-49.2454	-18.7764	0.321467
0.7247	34.4605	-35.4466	24.1096	-29.7403	55.175	32.7308	8.68459	-34.5961	-16.937	0.321467
0.7253	26.5778	-14.3876	22.2682	-20.8926	112.551	36.6858	4.10507	10.2397	-12.9804	0
0.7260	11.3008	-0.643021	12.2047	-14.7958	130.555	20.8318	6.54954	38.325	-8.67673	0
0.7267	-1.53468	-0.401888	17.3863	-18.439	100.646	-11.2171	0.134085	21.5449	-6.87197	0
0.7273	-1.81371	14.3072	21.3689	-25.4651	67.9915	-38.6973	-7.18903	-33.3827	-2.29066	0
0.7280	6.06895	33.196	-2.14117	-23.3461	58.8324	-57.313	-2.6095	-46.1972	1.66593	0
0.7287	7.95241	28.2929	-9.76374	-21.4874	46.6341	-43.266	2.88799	-18.4374	-3.5054	0
0.7293	13.3935	18.2457	26.5505	-8.99645	13.6759	25.4005	10.5102	1.39095	-8.98909	0
0.7300	24.4153	18.2457	41.8171	10.5578	-3.41634	88.5777	25.1564	6.27405	-6.24725	0
0.7307	15.8351	1.76831	25.3301	32.5285	-13.1833	105.045	26.3838	-6.21487	-1.35357	0.321467
0.7313	2.44153	-23.5507	17.3863	74.0162	-29.0494	99.5561	14.1718	-23.3205	3.5054	0
0.7320	4.60403	-37.2952	13.4251	81.9718	-31.795	98.6356	5.32215	-22.6991	3.19304	0
0.7327	9.48709	-45.2526	5.4814	42.603	-37.9046	117.251	-1.083	-19.0293	-1.07591	0.321467
0.7333	10.673	-42.1983	-7.62257	29.7775	-43.6998	141.049	-5.66252	-26.3688	-2.29066	0
0.7340	8.85927	-32.1511	-18.0072	52.343	-30.5794	160.585	-6.58049	-13.2584	-1.97829	0
0.7347	8.23144	-23.8722	-10.0635	61.5253	-29.3533	178.587	-4.13601	18.4966	-1.35357	0
0.7353	4.25524	-18.4065	-3.6614	46.8782	-50.4173	171.291	-6.58049	23.0838	-1.35357	0.321467
0.7360	-4.25524	-20.8178	-9.46398	34.0527	-65.0677	143.504	-17.2557	-0.414324	-4.13012	0
0.7367	0	-13.825	-12.5044	21.5246	-77.5803	137.708	-27.0233	-9.88459	-5.65723	0
0.7373	6.41774	15.5129	-19.5275	-8.66187	-80.6299	125.809	-35.8729	-1.33176	-9.61382	0
0.7380	0.627822	45.7349	-23.8098	-45.3168	-59.5659	69.6552	-40.143	-1.95324	-17.2493	0.321467
0.7387	1.18589	66.1508	-9.46398	-68.4771	-33.3251	26.0142	-24.8883	9.94378	-19.0541	0.321467
0.7393	8.85927	74.1082	1.82	-74.611	-19.5968	25.0936	-4.74455	54.8092	-19.3665	0
0.7400	7.32459	57.9523	5.80257	-66.6555	-27.5299	14.7289	6.84866	78.9288	-23.0454	0.321467
0.7407	0.906854	21.9431	21.9684	-49.8894	-40.3464	-42.0386	18.4522	66.1143	-26.0996	-0.321467
0.7413	-7.95241	-14.7091	25.9296	-51.1162	-44.926	-141.22	16.9257	74.3416	-35.8522	-0.964401
0.7420	-11.9286	-30.6239	18.6068	-80.0758	-57.1347	-246.504	-7.48814	80.7637	-52.6504	0
0.7427	-1.25564	-19.6122	39.3761	-82.232	-61.7038	-317.625	-24.2797	34.3593	-63.0278	0.321467
0.7433	7.95241	-5.54606	45.4785	-48.3652	-55.3007	-314.556	-22.7532	-32.7908	-61.5007	0
0.7440	10.952	-0.643021	9.46398	-16.32	-57.1347	-236.446	-22.1447	-71.5301	-48.9715	0
0.7447	22.6016	-4.98342	-7.3228	20.9297	-52.859	-153.732	-22.7532	-61.172	-16.6246	0.321467
0.7453	25.6012	-19.9337	-8.24351	23.0487	-41.8659	-103.988	-24.5788	-35.8391	29.1538	-0.321467
0.7460	11.3008	-13.5034	-29.2912	1.37549	-38.5125	-70.1325	-27.3327	-24.238	55.3922	-1.60734
0.7467	-1.81371	15.8344	-34.1731	31.0043	-38.8164	-42.9592	-22.7532	-6.83635	56.2946	-0.964401
0.7473	-3.34838	31.3473	-11.9049	48.0678	-38.2085	-25.8778	-17.2557	3.22581	46.2296	0
0.7480	4.25524	25.5601	-11.6051	12.6768	-28.7455	-17.9337	-10.5412	-18.7334	27.002	0
0.7487	8.51048	5.3853	-31.1326	-25.4651	-8.60373	-13.6719	1.36148	-26.9903	12.668	0
0.7493	3.06935	-7.07323	-35.0938	-74.611	3.60498	-7.26214	8.37516	9.02635	13.5704	0
0.7500	-1.25564	-4.98342	-24.1096	-123.422	5.73233	-3.27308	6.24012	20.3315	29.1538	0
0.7507	-1.81371	4.17964	-14.3458	-164.018	10.9197	-6.95529	1.97002	-25.1554	55.7046	0.321467
0.7513	-3.69717	13.3427	-12.2047	-252.198	13.3615	-9.98971	1.66059	-71.2342	61.1883	0
0.7520	-3.34838	11.2529	-11.6051	-365.434	10.9197	-8.7623	4.71361	-84.9661	-1.66593	0
0.7527	-4.25524	2.08982	-14.0461	-347.739	7.56626	-9.68286	1.36148	-70.0208	-84.6849	0
0.7533	-8.85927	-2.81322	-19.8487	-108.18	3.90888	-5.42104	-2.91893	-49.8669	-94.7499	0.321467
0.7540	-12.2077	2.65246	-22.8891	131.08	4.5167	7.70537	-0.474455	-39.1832	-51.7133	0.321467
0.7547	-10.673	10.9314	-21.6686	133.831	7.26235	13.1946	-2.00096	-32.1693	-10.2038	-0.321467
0.7553	-0.627822	15.5129	-9.16421	51.1162	10.6158	13.5014	-5.66252	-25.1554	7.49669	0
0.7560	7.60362	24.0329	1.22047	38.3278	15.8032	18.6838	-3.82658	-13.8503	29.4662	0
0.7567	3.06935	32.3118	-3.96117	-9.88866	21.305	20.5249	-2.6095	4.14324	65.7696	0
0.7573	5.51088	23.1488	12.8256	-130.448	26.1885	18.9907	-2.91893	15.7443	38.9065	0
0.7580	15.277	7.23399	46.3778	-197.885	29.5419	23.5593	0.443512	15.7443	-35.5399	0
0.7587	17.7185	4.82266	48.8187	-156.992	30.1498	27.2416	3.49653	12.4001	-126.507	0
0.7593	23.7875	19.7729	36.0145	-49.2574	27.708	29.6623	4.41449	1.71649	-203.383	0
0.7600	22.8806	31.3473	28.6917	73.124	23.4323	32.4239	5.32215	-2.24919	-201.855	0
0.7607	1.18589	10.9314	25.3301	159.78	19.4711	30.276	1.05205	8.43446	-197.899	0
0.7613	-20.4391	-12.2978	19.8272	206.175	16.7254	29.3554	-1.69154	12.0746	-190.576	0
0.7620	-27.4847	-3.45624	1.82	208.591	15.1954	32.1171	0.443512	9.94378	-122.515	0
0.7627	-29.5774	22.1842	-21.0691	172.605	13.3615	35.1515	2.26913	21.8408	-58.1341	0
0.7633	-26.5778	40.1888	-29.2912	157.326	11.2341	39.7543	5.32215	24.2972	-1.66593	0
0.7640	-12.4867	37.456	-19.2277	143.311	10.008	39.1406	6.24012	-6.21487	18.4641	0
0.7647	5.51088	25.8816	-6.4021	94.7601	9.09628	36.0721	4.71361	-36.431	-63.9301	0
0.7653	14.9282	26.7658	-4.88187	64.5737	8.17407	35.4584	4.10507	-49.2454	-142.68	0
0.7660	15.277	24.9171	0	67.3246	9.40018	32.1171	1.05205	-51.7018	-136.572	0
0.7667	16.1839	12.78	19.2277	65.4659	14.5876	31.5034	0.134085	-38.2658	-115.817	0.321467
0.7673	17.3697	9.7257	32.0319	56.0233	20.0789	33.9582	2.26913	-22.4031	-110.611	0
0.7680	11.5798	10.2883	26.8503	39.5546	21.6089	32.4239	1.36148	-16.6026	-110.333	0
0.7687	4.88306	10.9314	17.7075	-5.61349	22.2167	29.6623	0.134085	-15.0636	-90.7933	0
0.7693	-0.906854	17.3616	0.920704	-66.6555	23.7467	26.9347	-0.773568	-5.29743	38.5941	0
0.7700	-6.69677	18.5672	-25.0303	-96.8791	23.7467	28.1621	-1.69154	20.9234	197.309	0
0.7707	-5.78991	15.8344	-24.4093	-86.2097	20.9906	34.5719	2.26913	34.6553	158.229	0
0.7713	-3.69717	13.6642	3.36164	-79.481	16.4215	34.8787	3.79564	12.0746	95.0623	0
0.7720	-7.60362	9.96683	20.4482	-64.5365	12.7536	28.7417	0.742625	-20.2723	233.3	0.321467
0.7727	-12.2077	16.397	27.771	32.2311	11.8419	29.6623	1.97002	-31.2519	345.924	0
0.7733	-12.4867	35.9288	32.0319	163.423	11.538	33.0376	5.02304	-40.3966	297.994	0
0.7740	-13.4633	61.8908	18.0072	204.651	11.2341	32.1171	5.02304	-59.3372	227.191	0
0.7747	-15.9048	78.0467	5.4814	169.222	12.4497	33.6513	7.76662	-37.9699	198.836	0.321467
0.7753	-8.85927	54.5764	13.7249	124.389	12.1458	31.5034	8.07605	12.992	183.877	0
0.7760	9.76612	26.7658	16.487	78.5888	10.3119	24.4799	2.26913	32.85	167.391	-1.28587
0.7767	23.1597	32.8745	0.920704	55.0939	12.1458	24.7868	2.57856	49.0087	148.164	-1.60734
0.7773	19.2532	20.4159	-15.8661	59.0717	13.9798	24.4799	3.79564	59.9882	116.129	-0.321467
0.7780	12.4867	-17.1204	-28.3919	56.3207	14.2837	19.6044	0.134085	25.5105	85.3096	0
0.7787	14.6492	-12.2978	-50.9599	39.5546	15.8032	19.9112	1.36148	-16.6026	75.2446	0
0.7793	13.1145	24.0329	-69.2669	10.2232	16.1176	18.6838	1.97002	-38.2658	73.4051	-0.321467
0.7800	13.3935	29.4986	-37.235	-5.61349	13.9798	14.422	-1.083	-37.9699	67.9214	-0.321467
0.7807	20.7181	7.5555	19.5275	25.5023	13.0576	14.422	-1.69154	-5.29743	67.9214	0
0.7813	22.8806	-14.7091	43.3373	62.4175	11.8419	14.1152	-1.69154	38.6209	78.2988	0.321467
0.7820	17.9976	-29.3378	40.2754	85.3175	10.3119	12.5809	-1.69154	61.5272	92.008	0
0.7827	2.72056	-26.2835	29.2912	136.88	8.48846	14.422	0.742625	79.5207	106.342	0.321467
0.7833	-15.9048	-26.0424	16.1658	143.311	6.65453	14.7289	1.05205	108.523	92.008	0.321467
0.7840	-26.5778	-36.6522	0.920704	91.1169	6.95844	12.8877	-0.773568	97.8397	39.5312	0
0.7847	-41.785	-27.248	-22.5894	93.8679	8.79237	12.5809	-0.773568	52.3824	1.38828	0
0.7853	-54.9693	2.97397	-37.235	113.088	9.70409	14.1152	0.742625	10.2397	-19.6788	0
0.7860	-44.5754	30.1416	-32.0533	99.6672	9.40018	17.4564	2.88799	-36.135	-54.4552	0
0.7867	-31.7399	44.7704	-28.6917	57.2501	6.65453	18.9907	4.10507	-52.9151	-77.0494	0.321467
0.7873	-32.3677	56.6663	-28.9915	-36.1345	3.60498	17.1496	2.57856	-37.9699	-44.7025	0.321467
0.7880	-23.2294	58.8365	-21.3689	-118.552	2.68277	15.0357	0.742625	-41.6396	12.0433	0
0.7887	1.81371	38.6617	-17.3863	-141.415	3.60498	11.0466	-0.474455	-62.9773	29.7438	0
0.7893	24.6943	14.3072	-21.6686	-139.891	5.12451	8.62593	-0.165028	-68.186	-7.18433	0.321467
0.7900	24.1363	0.884154	-21.0691	-133.199	6.65453	8.01222	1.05205	-56.8808	-58.1341	0.321467
0.7907	0.279032	3.29548	-10.9842	-105.727	7.56626	6.47797	2.57856	-35.8391	-64.5549	0
0.7913	-12.8355	4.82266	10.9842	-73.0868	9.09628	6.17112	5.02304	-5.91892	-33.4228	-0.321467
0.7920	-6.69677	-10.4491	34.4729	-104.797	9.70409	3.44355	4.10507	-4.4096	-23.0454	0.321467
0.7927	2.1625	-4.98342	24.7091	-183.535	10.3119	-0.545513	-0.474455	-18.4374	-36.1646	0.321467
0.7933	2.44153	48.1462	8.24351	-182.011	12.4497	0.0681891	-1.69154	18.4966	-24.2601	0
0.7940	-6.1387	87.2098	33.2524	-112.121	11.538	0.0681891	-2.91893	67.9196	27.6267	0.321467
0.7947	-3.97621	46.619	70.4874	-94.1281	8.48846	-0.852364	-4.44544	68.5411	56.017	0
0.7953	14.3701	-13.825	86.0537	-101.452	6.04672	0.37504	-3.21804	42.2907	-10.5162	0
0.7960	27.7637	-8.03777	68.3676	-52.0084	3.60498	-0.238662	-3.82658	-3.78811	-105.44	0.321467
0.7967	28.6705	9.08268	25.6298	45.9488	3.90888	0.0681891	-4.44544	-53.5366	-121.613	0.321467
0.7973	22.6016	-9.80608	-10.3847	66.9901	6.35063	3.7504	-1.69154	-64.8122	-111.826	0.321467
0.7980	12.8355	-34.5624	-20.4482	-47.1384	5.73233	2.82985	0.443512	-24.8299	-153.96	0.321467
0.7987	9.1383	-52.2455	-17.7075	-133.794	4.5167	-0.852364	2.26913	51.7609	-205.847	0.321467
0.7993	4.60403	-73.9475	-31.1326	-162.196	3.90888	-3.27308	2.26913	117.372	-243.053	0.321467
0.8000	-6.41774	-128.524	-41.8171	-130.448	2.37886	-2.96623	1.36148	123.173	-255.269	0.321467
0.8007	8.23144	-187.762	-9.46398	54.2017	2.07496	2.21615	5.63158	80.1422	-184.78	0
0.8013	38.7854	-181.975	21.3689	140.858	2.98668	2.82985	7.4572	56.0226	-127.721	0.321467
0.8020	39.0645	-173.375	10.9842	-14.4612	4.5167	-3.27308	0.742625	92.6607	-130.151	0.321467
0.8027	16.8117	-184.065	20.7479	-146.917	7.56626	-5.72789	-2.30008	117.994	25.1972	0.321467
0.8033	0	-77.0018	44.8575	-176.211	9.40018	-4.80733	-1.39242	72.8027	248.571	0
0.8040	-19.8113	54.2549	26.2508	-202.16	9.40018	-1.46607	1.36148	53.5958	265.959	0.321467
0.8047	-55.5274	92.6755	7.3228	-227.476	7.87016	2.523	6.24012	78.9288	163.747	-0.321467
0.8053	-83.6398	130.533	0.299764	-177.438	6.04672	0.0681891	3.49653	8.73041	98.1165	-1.9288
0.8060	-74.1528	130.855	-10.0635	-18.7364	4.82061	-2.96623	-3.21804	-147.204	88.3638	-1.28587
0.8067	-41.227	84.4769	-2.14117	37.3984	4.5167	-3.57993	-3.82658	-233.59	106.967	0.642934
0.8073	-15.556	79.2524	8.54327	-30.3351	1.46714	-4.19363	-1.39242	-215.271	98.7412	0.321467
0.8080	2.72056	85.3611	15.5663	169.557	-5.55418	3.44355	6.84866	-147.529	53.2404	0
0.8087	10.3939	71.6165	13.7249	467.406	-13.1833	13.1946	15.0897	-80.083	36.1646	0.321467
0.8093	8.51048	59.158	-0.299764	454.878	-17.459	15.3426	14.1718	-54.4541	54.7675	0
0.8100	22.2528	30.1416	5.18163	309.634	-16.8512	16.5359	11.7376	-38.5618	49.2838	0
0.8107	30.833	-12.6193	15.8661	206.77	-12.2716	16.2631	8.68459	-1.6573	18.4641	0.321467
0.8113	15.556	-35.7681	2.7407	135.653	-8.60373	12.5809	4.71361	30.0977	-3.5054	0.321467
0.8120	10.3939	-57.7112	0.299764	60.8933	-4.94636	11.0466	3.1871	38.9465	-17.527	0.321467
0.8127	22.8806	-100.794	20.4482	-101.749	-0.366785	5.86427	-0.474455	30.3937	-35.5399	0.321467
0.8133	26.8568	-118.477	18.307	-306.214	4.21279	-0.852364	-4.44544	27.3454	-54.1775	0
0.8140	17.3697	-78.2075	4.88187	-430.119	8.48846	-2.96623	-2.91893	30.3937	-73.6828	0.321467
0.8147	7.32459	-32.1511	11.284	-473.763	11.2341	-6.34159	-2.30008	23.9716	-102.073	0.321467
0.8153	1.53468	14.8699	29.9122	-486.291	13.0576	-9.06915	-2.00096	23.0838	-135.357	0
0.8160	-8.58023	95.7298	39.3761	-494.21	14.5876	-9.98971	-0.474455	46.2564	-151.218	0.321467
0.8167	-28.1125	124.425	26.8503	-544.248	16.7254	-13.9788	-0.773568	103.019	-113.978	0.321467
0.8173	-41.506	50.3164	5.18163	-575.698	20.0789	-18.5474	-4.44544	169.251	-70.9409	0
0.8180	-32.9955	-19.2906	-15.2665	-474.061	22.5206	-22.1956	-9.32407	175.052	-128.034	0
0.8187	-11.5798	-29.9809	-29.6124	-345.917	21.6089	-27.6848	-11.1497	83.8119	-208.276	0
0.8193	7.32459	-14.7091	-30.2119	-387.107	18.5489	-32.2876	-7.48814	-45.2797	-164.337	0
0.8200	12.4867	20.6571	-26.5505	-353.538	11.2341	-31.6739	-0.773568	-133.472	-82.2554	0
0.8207	4.60403	49.0304	-30.2119	172.271	-1.58242	-21.8887	5.93069	-139.272	-79.7912	0.321467
0.8213	-1.81371	38.6617	-34.4943	720.385	-9.82985	-11.524	10.2111	-89.5532	-111.548	0.321467
0.8220	-3.97621	10.9314	-28.3919	558.635	-7.69201	-9.37601	7.15808	-45.6053	-131.99	0
0.8227	-5.78991	-1.28604	-17.0865	-56.581	-0.670693	-9.68286	1.05205	-17.52	-140.841	0
0.8233	-6.41774	5.70681	-13.1254	-498.485	4.5167	-10.9103	-0.474455	-2.24919	-147.851	0.321467
0.8240	-8.58023	2.41133	-16.487	-636.108	2.07496	-14.5925	-1.083	0.473514	-159.131	0
0.8247	-9.48709	-32.3922	-14.6456	-591.572	0.24103	-14.2856	-2.6095	3.55135	-128.936	0
0.8253	-4.25524	-84.6377	-7.3228	-396.253	4.21279	-8.1827	-4.13601	4.14324	-19.3665	0
0.8260	-2.44153	-123.38	-7.94374	-239.075	5.42842	-4.80733	-5.96163	-0.118378	70.9409	0
0.8267	-6.69677	-131.016	-13.1254	-247.923	1.46714	-1.77292	-0.165028	0.473514	45.9173	0
0.8273	-5.78991	-122.415	-12.5044	-210.71	-6.4659	1.60244	5.63158	4.14324	-25.4749	0
0.8280	-1.25564	-125.791	-6.72328	-57.5103	-15.3211	2.523	2.88799	6.27405	-3.5054	0
0.8287	-1.25564	-118.155	-0.920704	50.224	-18.0668	4.63686	3.79564	11.1572	106.654	0
0.8293	-4.88306	-73.9475	-2.7407	244.614	-19.5968	7.70537	8.68459	21.2489	186.931	-0.321467
0.8300	-6.69677	-46.1368	-7.3228	750.906	-27.2259	18.6838	17.8333	28.2628	247.946	-0.321467
0.8307	-4.25524	-71.4557	-7.94374	1218.13	-35.4629	36.0721	30.0454	27.6414	303.512	0
0.8313	-4.88306	-129.73	-14.6456	1187.61	-35.7668	38.22	32.1804	27.3454	286.714	0
0.8320	-3.06935	-166.703	-21.3689	838.194	-30.5794	27.8553	24.8573	30.3937	219.278	0
0.8327	1.53468	-140.42	-15.8661	621.796	-25.6959	21.4455	19.0607	34.9808	160.971	0
0.8333	3.06935	-69.6874	3.36164	576.962	-22.9503	17.1496	14.1718	40.1599	124.667	0.321467
0.8340	11.5798	-11.6548	37.8345	497.927	-18.0668	14.1152	11.7376	39.5384	96.9017	0.321467
0.8347	19.5322	39.6262	62.2438	395.695	-13.1833	11.0466	10.8196	26.428	78.8888	0.321467
0.8353	7.95241	117.432	60.1241	343.203	-10.1338	3.44355	5.02304	8.43446	77.9865	-1.28587
0.8360	-1.53468	143.635	42.7164	318.147	-5.85809	0.0681891	1.05205	-2.87068	103.01	-1.60734
0.8367	0.627822	72.2595	2.14117	319.671	-1.58242	0.0681891	1.05205	-5.62297	165.864	0.321467
0.8373	-2.72056	3.617	-26.5505	311.753	1.77105	-1.46607	-0.474455	-0.118378	192.103	0.642934
0.8380	-6.41774	-4.01888	-8.24351	183.572	6.04672	-3.27308	-2.00096	20.0059	139.626	0
0.8387	-11.3008	-12.2978	-14.3458	-10.2232	8.79237	-9.98971	-5.35309	49.0087	81.943	0
0.8393	-16.1839	-32.1511	-53.101	-116.396	10.3119	-16.3995	-9.32407	55.4307	42.273	0
0.8400	-3.97621	-30.3024	-41.8171	-166.471	12.7536	-16.3995	-8.71553	32.2285	10.5162	0
0.8407	11.5798	-56.184	-4.88187	-261.975	14.2837	-16.7063	-8.10699	20.6274	1.07591	0.321467
0.8413	6.69677	-86.7275	-2.14117	-400.23	14.2837	-16.7063	-9.01465	9.64784	0.763552	0.642934
0.8420	-20.7879	-44.2881	-20.4482	-474.395	13.3615	-13.6719	-8.71553	-21.4857	7.77435	-0.642934
0.8427	-52.5278	-58.9972	-44.258	-434.692	12.7536	-11.524	-8.71553	-24.8299	33.1104	-1.28587
0.8433	-63.2008	-148.377	-43.9368	-345.582	14.8915	-10.6034	-10.8506	-3.78811	58.1341	0
0.8440	-50.9931	-42.5198	-3.06187	-373.055	14.5876	-10.6034	-14.2027	15.7443	63.0278	0.321467
0.8447	-32.6467	106.099	39.6759	-425.547	4.5167	-8.1827	-10.242	34.9808	61.5007	0
0.8453	-19.5322	-72.9829	59.5031	-117.028	-11.3494	4.02316	6.24012	31.3111	81.3183	0.321467
0.8460	-9.76612	-218.868	64.7062	347.776	-22.0386	16.2631	18.4522	4.46878	111.236	0.321467
0.8467	3.06935	42.9217	66.5262	476.849	-22.0386	17.4564	18.1427	-9.26311	114.915	0.321467
0.8473	14.3701	295.066	67.7467	331.902	-18.6746	15.3426	15.0897	-1.95324	95.687	0
0.8480	19.5322	255.038	83.313	264.131	-18.0668	15.3426	13.8727	15.7443	77.3617	0
0.8487	25.6012	172.33	104.682	354.802	-15.929	14.422	12.3461	30.6896	62.7154	0
0.8493	26.8568	172.651	93.6976	399.933	-11.0455	11.0466	10.5102	21.8408	42.8978	-0.321467
0.8500	18.9044	167.748	54.0217	306.251	-6.4659	6.17112	8.37516	0.799054	19.9912	0
0.8507	13.1145	134.231	0.299764	219.892	-4.02416	4.63686	7.15808	-13.2584	9.61382	0.321467
0.8513	7.04556	88.4154	-56.4627	220.524	-4.02416	4.63686	5.63158	-28.4996	10.2385	0
0.8520	3.06935	29.8201	-72.3288	220.822	-4.64245	1.60244	2.57856	-41.9355	6.87197	0
0.8527	10.0452	-17.442	-52.8013	196.1	-2.80853	1.60244	3.1871	-42.5274	4.44249	0.321467
0.8533	12.4867	-10.4491	-51.5808	161.899	-0.974601	2.523	5.32215	-32.7908	6.55961	0
0.8540	8.85927	0.241133	-54.6213	119.482	-0.366785	1.29559	5.63158	-20.8642	4.44249	0
0.8547	10.0452	-79.7346	-39.9757	93.5705	-0.366785	-0.238662	4.41449	-11.098	-4.72014	0.321467
0.8553	7.95241	-163.649	-28.3919	77.6966	-1.58242	-2.38662	1.97002	-3.49216	-19.3665	0
0.8560	4.88306	-135.838	-18.307	38.9226	-0.974601	-2.07977	1.66059	6.5996	-28.2167	-0.321467
0.8567	6.69677	-89.7819	0.299764	-9.59125	1.77105	-0.238662	2.57856	17.5792	-30.6809	0
0.8573	7.95241	-46.7798	22.2682	-48.3652	4.5167	-0.238662	2.88799	11.1572	-32.798	0.321467
0.8580	5.51088	49.6734	28.6917	-69.4065	6.35063	-2.07977	1.97002	-8.37527	-36.477	0
0.8587	-7.95241	76.5195	10.6844	-66.3581	5.42842	-6.03474	-1.69154	-16.3066	-45.9173	0
0.8593	-18.6254	55.4606	-3.36164	-62.7149	3.60498	-8.1827	-4.44544	-18.1415	-58.1341	0
0.8600	-5.78991	115.905	0.920704	-74.2764	3.29059	-5.42104	-2.6095	-29.417	-66.082	0
0.8607	15.277	168.391	-7.94374	-63.3097	3.90888	-3.57993	-1.083	-35.5135	-65.1449	0
0.8613	29.5774	161.398	-32.6529	-22.4168	4.21279	-4.19363	-1.39242	-34.0042	-66.3596	0
0.8620	33.2746	118.637	-28.3919	-14.1638	4.5167	-5.72789	-2.30008	-35.2176	-86.212	-0.321467
0.8627	15.8351	29.2575	-4.28234	-29.4429	4.82061	-7.56899	-4.44544	-31.8734	-93.2228	0
0.8633	3.34838	-58.6757	1.82	-22.1194	5.42842	-6.64844	-4.44544	-19.6508	-59.0365	0.321467
0.8640	17.0907	-86.406	4.58211	-15.688	6.35063	-3.57993	-2.00096	-2.24919	-12.9804	0
0.8647	28.0427	-44.2881	12.8256	-25.4651	5.73233	-2.96623	-0.474455	28.8547	1.07591	0
0.8653	29.2984	16.397	14.0461	-30.9671	3.90888	-3.88678	-1.083	50.5476	-16.937	0.642934
0.8660	36.623	25.8816	6.70187	-29.1455	0.848846	-5.72789	-3.52747	37.4076	-13.8828	-0.321467
0.8667	52.458	-16.8793	4.88187	-30.0377	-0.0628775	-5.11419	-4.44544	12.992	4.13012	-2.25027
0.8673	61.9451	-66.6331	5.4814	-28.2161	3.60498	-2.96623	-2.00096	-3.16662	-0.138828	-0.642934
0.8680	55.8064	-125.228	-14.6456	-26.6919	2.98668	0.988742	1.05205	-9.58865	-5.0325	0.964401
0.8687	43.0407	-207.857	-31.1326	-34.6103	1.16323	0.37504	1.36148	-14.7677	-10.2038	-1.28587
0.8693	8.23144	-254.315	-34.4943	-37.0639	6.04672	-6.34159	-2.30008	-4.08405	-18.4641	-2.57174
0.8700	-26.229	-261.629	-42.7164	-36.4691	7.26235	-5.72789	-2.00096	16.6618	-5.65723	-0.321467
0.8707	-46.3891	-174.018	-38.1557	-44.3874	6.65453	-3.57993	1.05205	17.2832	20.6159	0.642934
0.8713	-64.7354	22.5057	-21.0691	-49.592	8.17407	-5.11419	0.443512	22.4623	30.0562	-1.28587
0.8720	-48.5516	161.077	3.96117	-50.1868	7.26235	-5.42104	-0.474455	34.9808	22.4207	-2.25027
0.8727	-14.9282	229.719	44.5578	-52.9378	6.04672	-6.64844	-2.00096	40.4558	22.143	-1.9288
0.8733	8.51048	238.239	65.3057	-54.1646	5.73233	-6.64844	-2.6095	37.4076	13.8828	-1.60734
0.8740	32.9258	185.19	53.7006	-51.1162	6.35063	-4.19363	-0.165028	-17.52	-19.6788	0
0.8747	44.5754	139.375	30.2119	-49.8894	6.95844	-3.57993	0.742625	-74.9039	-32.798	0.321467
0.8753	30.4842	96.6943	0.599528	-49.592	6.95844	-4.50048	0.134085	-57.5023	-12.9804	-0.321467
0.8760	6.06895	64.3021	-17.7075	-49.592	5.42842	-5.11419	0.443512	-25.1554	-6.55961	0
0.8767	-7.60362	40.1888	-9.46398	-49.2574	2.98668	-5.11419	0.443512	-6.21487	-31.5833	0.321467
0.8773	-11.3008	22.8273	11.6051	-43.1606	2.07496	-2.96623	2.26913	-9.88459	-63.9301	0
0.8780	-13.4633	71.0539	28.9915	-36.7665	1.16323	-0.238662	3.49653	-51.7018	-63.9301	0
0.8787	-14.3701	137.285	18.0072	-37.6587	-0.0628775	-1.15922	2.26913	-59.3372	-42.5507	0
0.8793	-15.277	135.758	-14.6456	-40.4097	-0.366785	-4.19363	0.134085	-20.5682	-29.4315	0.321467
0.8800	-16.8117	107.385	-18.307	-41.339	-1.27851	-5.11419	-1.39242	17.2832	-18.7764	0
0.8807	-11.9286	89.0585	-1.52023	-41.0416	-3.11244	-4.19363	-0.773568	27.9669	-11.7309	0
0.8813	-6.1387	56.6663	-3.6614	-39.5174	-2.50462	-2.65938	0.443512	16.6618	-13.5704	0
0.8820	-9.76612	35.9288	-1.22047	-38.2907	-0.670693	-2.65938	0.443512	7.51703	-14.1951	0
0.8827	-16.1839	50.8791	14.3458	-39.5174	-0.670693	-4.19363	-0.773568	-7.45784	-13.258	0
0.8833	-16.1839	68.321	17.7075	-41.9338	-2.50462	-5.11419	-2.30008	-13.8503	-18.4641	0
0.8840	-12.2077	77.1626	22.8891	-42.2313	-3.41634	-4.50048	-1.39242	-9.58865	-27.6267	0
0.8847	-20.4391	56.6663	23.4886	-41.339	-3.41634	-3.27308	1.36148	-36.7565	-32.4857	0
0.8853	-37.8786	-24.1937	17.7075	-45.6142	-3.11244	-2.07977	2.88799	-68.186	-35.5399	0
0.8860	-43.6685	-127.961	17.0865	-51.711	-3.41634	-4.19363	1.97002	-56.2889	-45.3272	0
0.8867	-38.4367	-160.273	-8.54327	-55.6887	-4.64245	-8.1827	-1.083	-25.4514	-55.7046	0.321467
0.8873	-37.2508	-125.791	-34.4943	-68.8117	-3.72025	-5.72789	-1.39242	52.0569	-58.4465	0
0.8880	-41.506	-134.311	-25.951	-100.857	-1.58242	-2.65938	0.134085	175.674	-52.0257	0
0.8887	-42.1338	-157.219	14.0461	-137.177	-0.670693	-4.50048	-0.165028	180.231	-45.0149	-0.321467
0.8893	-45.7613	-68.7229	48.2192	-167.066	-0.0628775	-6.34159	0.134085	46.8778	-44.7025	-0.321467
0.8900	-53.4346	57.9523	8.84304	-193.907	1.46714	-7.26214	-0.474455	-34.5961	-33.1104	0
0.8907	-58.3177	80.7796	-43.0375	-221.38	3.29059	-7.56899	-2.6095	-22.1072	-10.2038	0
0.8913	-56.1552	19.4514	-31.4324	-254.651	4.5167	-6.64844	-2.00096	-9.88459	-12.0433	0
0.8920	-47.9237	-56.5055	-16.487	-252.198	4.5167	-8.1827	-1.39242	9.02635	-39.2188	0
0.8927	-36.623	-127.318	-25.0303	-196.992	4.5167	-8.7623	0.443512	74.9631	-72.7804	0
