MR32 ASCII
Name	TYR30_fast
Frequency	1500
Date	14-09-2015 14:19:13
"Time,s"	"RT TIB.ANT.,uV"	"RT MED. GASTRO,uV"	"RT LAT. GASTRO,uV"	"RT BICEPS FEM.,uV"	"RT VMO,uV"	"RT VLO,uV"	"RT RECTUS FEM.,uV"	"RT SOLEUS,uV"	"RT SEMITEND.,uV"	"Channel 12,uV"
0.0000	-574.15	6.47895	-24.552	-4.68184	0.926372	-9.83344	178.15	-1.6772	-9.6388	-6521.51
0.0007	-432.27	-0.175107	-20.5727	-9.55478	-0.909217	-8.34121	120.776	-2.92618	-11.7957	-10507.5
0.0013	-187.827	-7.8798	-15.9952	-12.2938	-3.03644	-4.66802	31.6647	-7.49388	-12.7057	-9761.26
0.0020	24.6119	-15.4969	-9.28504	-13.2175	-3.94566	-0.0765248	-56.2313	-10.8483	-11.1891	-9673.08
0.0027	133.879	-25.8282	-5.92994	-15.0647	-5.78125	0.841773	-101.394	-17.5571	-11.7957	-9910.7
0.0033	126.183	-34.0583	-5.01964	-12.6123	-6.70762	2.98447	-107.506	-27.6203	-11.1891	-9791.41
0.0040	47.1664	-38.0857	0.18206	-4.68184	-5.18082	9.06819	-92.8527	-36.7914	-5.39233	-9809.68
0.0047	-23.6213	-40.7999	0.780256	-1.30582	-4.87203	8.45599	-69.044	-41.6802	-3.53872	-9817.06
0.0053	-81.9126	-40.7999	-1.66455	-1.91096	-3.65402	1.14787	-52.574	-38.9325	-5.39233	-9818.34
0.0060	-151.176	-39.3115	1.69055	-0.700684	0.325946	-5.89241	-42.4923	-32.2237	-4.75199	-9792.69
0.0067	-190.571	-41.0625	2.00266	-2.54794	2.45317	-12.2822	-18.6957	-29.1547	-7.21225	-9838.87
0.0073	-164.282	-41.6754	-0.130043	-4.36335	2.14438	-12.5883	25.5531	-26.7282	-12.4024	-9879.91
0.0080	-166.721	-40.7999	0.780256	-4.07671	4.88919	-8.91514	69.8019	-22.7314	-15.4356	-9530.06
0.0087	-253.129	-40.7999	3.82325	-3.75821	10.0872	-6.19851	107.951	-16.0226	-17.2892	-10292.9
0.0093	-326.355	-38.0857	6.58016	-1.01918	9.77837	-2.83142	132.373	-5.95942	-16.0759	-9489.65
0.0100	-349.824	-35.6342	5.04565	-1.01918	3.07075	-1.30092	125.047	1.96268	-15.4356	-3292.34
0.0107	-323.307	-30.9939	3.22506	-0.700684	2.76196	1.14787	99.4094	9.27813	-16.3792	108.067
0.0113	-265.321	-18.824	0.18206	2.64349	7.03357	5.0889	74.9992	21.8036	-13.919	-54.5143
0.0120	-238.499	-8.14246	-12.6401	1.43322	5.19798	3.59667	54.8478	29.4402	-14.5256	-142.699
0.0127	-176.55	-0.78798	-20.8848	2.64349	3.37954	5.0889	48.7483	37.0768	-13.919	94.919
0.0133	-64.2347	5.86608	-21.509	6.30616	3.37954	8.76209	47.8339	47.14	-10.2454	-24.3711
0.0140	-50.5191	12.345	-34.9294	1.71986	-1.50964	3.90277	20.0671	48.96	-14.2223	-6.09277
0.0147	-110.944	20.575	-49.2601	-0.700684	-6.70762	2.67837	-17.7813	47.14	-16.9859	0.962017
0.0153	-55.3958	27.5793	-51.3928	3.24863	-7.92563	6.6194	-29.9804	44.9989	-13.919	-0.641344
0.0160	116.735	28.8051	-52.9273	4.17226	-11.5797	6.0072	-26.9367	40.7167	-13.3123	-0.641344
0.0167	257.167	24.7776	-52.9273	4.17226	-15.5425	4.4767	-22.6658	31.5813	-13.3123	-0.641344
0.0173	239.413	18.9991	-47.4395	9.0452	-14.0157	6.0072	-11.6697	18.7704	-10.8858	-0.320672
0.0180	83.8175	8.93044	-43.1741	11.2109	-10.9792	3.90277	-10.1539	4.42496	-10.2454	-0.641344
0.0187	4.41947	-9.63087	-31.8604	8.75855	-8.83484	0.535674	-19.3092	-17.2716	-12.0991	-0.962017
0.0193	117.954	-28.8926	-12.6401	8.15342	-5.18082	-0.0765248	-18.3949	-45.9268	-14.2223	-1.28269
0.0200	287.647	-40.7999	-2.26274	6.62465	-3.34523	-2.21922	-5.26943	-73.7255	-16.3792	-0.320672
0.0207	375.274	-43.8642	0.468153	4.17226	-3.34523	-4.05582	14.5691	-88.0709	-16.3792	-0.320672
0.0213	343.804	-42.6385	0.780256	2.64349	-3.03644	-6.19851	31.9655	-88.963	-17.5925	-0.320672
0.0220	250.995	-42.2883	3.82325	4.77739	0.325946	-4.97411	50.8897	-83.7887	-17.5925	-0.641344
0.0227	188.742	-43.8642	10.2474	7.83492	5.50677	-3.13752	63.0888	-74.0109	-17.5925	-0.641344
0.0233	150.643	-47.8041	12.3801	6.62465	9.77837	-6.50461	59.7323	-64.2689	-21.2323	-0.320672
0.0240	96.9235	-49.0299	14.5128	6.01951	10.9964	-6.50461	53.0191	-59.0589	-23.3892	-0.320672
0.0247	27.9646	-44.7398	13.9146	6.01951	8.56036	-4.97411	42.0351	-59.0589	-24.6025	-0.320672
0.0253	-30.9363	-38.9613	9.02496	5.38253	10.0872	-6.19851	28.9097	-57.2389	-25.2092	-0.320672
0.0260	-25.4501	-31.957	10.8456	10.2873	14.3588	-2.21922	17.6249	-45.6413	-20.019	0
0.0267	109.725	-23.727	12.9783	14.2366	15.5768	0.841773	2.05724	-31.9025	-15.4356	-0.320672
0.0273	320.64	-20.0497	10.2474	13.0264	16.486	-0.382624	-32.7354	-21.2326	-17.2892	-0.320672
0.0280	437.223	-18.2111	10.5595	13.3448	18.9392	0.535674	-80.04	-9.63498	-17.2892	-0.320672
0.0287	393.257	-13.0455	9.33706	13.3448	18.9392	0.535674	-112.691	3.81831	-16.0759	0
0.0293	298.009	-4.46522	5.04565	14.2366	18.6304	0.841773	-114.821	21.5181	-16.9859	0
0.0300	258.082	6.82916	2.31476	17.8993	19.248	3.29057	-91.024	37.3623	-16.6825	-0.320672
0.0307	258.082	17.7733	-5.33175	17.0075	14.3588	1.45397	-73.0141	42.5723	-17.8958	0
0.0313	189.656	29.6806	-15.0849	14.8736	7.34236	-0.994823	-74.2412	46.8189	-18.5024	0
0.0320	-84.3509	40.7123	-20.5727	14.2366	2.14438	-1.60702	-79.7272	56.5966	-16.3792	0
0.0327	-523.479	49.205	-24.8641	13.0264	-1.81843	-1.30092	-85.8268	67.5876	-16.6825	0
0.0333	-832.613	61.7251	-29.1295	13.6315	-3.65402	2.37227	-90.7112	79.4708	-17.5925	0
0.0340	-734.394	74.2453	-37.3742	12.4212	-6.70762	2.06617	-79.4265	84.6808	-18.1991	0
0.0347	-344.947	78.1852	-51.3928	6.91129	-14.6332	-4.05582	-56.2313	75.5097	-19.4124	0
0.0353	-87.7036	80.374	-56.2824	8.44006	-18.3044	-3.44362	-36.092	62.3776	-13.009	0
0.0360	-136.546	75.471	-53.2394	11.2109	-17.6868	-3.13752	-27.851	45.9268	-4.44868	0
0.0367	-254.958	58.6608	-45.905	9.96882	-18.5961	-6.19851	-33.0362	25.7647	3.168	0
0.0373	-248.252	41.5879	-29.7277	13.95	-17.0693	-2.83142	-24.4944	5.0316	15.0648	0
0.0380	-137.461	21.1879	-14.1746	16.0839	-16.16	-1.30092	-3.12797	-22.7314	18.1317	0
0.0387	56.9197	-3.85235	-4.39544	12.7079	-18.3044	-4.05582	11.5133	-52.6712	11.6946	0.320672
0.0393	265.397	-21.8883	11.4698	11.2109	-17.0693	-1.60702	28.3082	-75.8666	10.7847	0
0.0400	339.842	-32.2196	26.1126	17.8993	-14.6332	1.76007	31.6647	-88.3564	13.8516	-0.320672
0.0407	277.284	-37.4728	27.9332	29.8109	-15.5425	3.29057	24.9516	-89.2842	13.8516	0
0.0413	195.219	-35.0214	27.6471	30.4161	-17.0693	8.76209	61.8737	-86.5364	12.9416	0
0.0420	139.67	-28.0171	23.6678	20.6702	-18.9049	9.68039	124.132	-84.0742	11.6946	-0.320672
0.0427	99.6667	-22.151	13.9146	13.3448	-21.3409	5.7011	152.814	-79.221	9.26807	0
0.0433	66.9778	-16.7227	7.49045	9.96882	-22.576	6.9255	147.015	-70.3711	7.44816	0
0.0440	43.5089	-9.018	4.44746	9.36369	-20.1229	9.68039	129.017	-60.8788	5.59455	0
0.0447	19.1256	-2.36394	5.04565	9.68218	-15.8513	12.1292	101.551	-55.419	5.29123	0.320672
0.0453	-35.2034	-1.40085	7.49045	7.22979	-14.942	13.3536	61.2601	-56.0256	4.98791	0.320672
0.0460	-106.296	-4.81544	7.80256	2.64349	-16.16	12.1292	23.7245	-57.8456	1.95472	0
0.0467	-144.776	-6.30384	9.33706	0.222945	-13.724	10.9048	0.842147	-55.7045	-0.80885	0
0.0473	-165.197	-5.0781	12.9783	0.509588	-8.21726	10.2926	-8.31319	-50.8156	-2.62876	0
0.0480	-209.772	-4.46522	15.7352	0.222945	-2.72765	9.06819	-7.39886	-43.5002	-4.14536	-0.320672
0.0487	-240.937	-1.40085	18.18	1.71986	1.85274	10.9048	-3.12797	-30.0826	-2.02213	-0.641344
0.0493	-201.848	2.53905	19.4024	3.56712	3.97997	10.2926	0.529349	-16.0226	2.56136	-0.641344
0.0500	-95.3234	4.64033	18.7782	2.64349	4.28876	6.3133	0.842147	-3.53283	5.59455	-0.320672
0.0507	7.16259	6.82916	20.0006	1.43322	4.59755	5.0889	-2.82721	10.8126	5.89787	-0.320672
0.0513	110.334	10.1562	16.3334	-0.414041	3.07075	3.59667	-8.31319	26.3713	2.56136	0
0.0520	307.153	22.0635	3.53716	-1.91096	0.617581	3.29057	-10.7554	42.5723	-0.202213	0
0.0527	544.89	41.3252	-11.1316	-2.54794	-2.12722	5.7011	-9.23955	58.4165	0.741446	0
0.0533	650.195	55.3337	-24.8641	-4.68184	-8.52605	5.0889	-10.7554	71.5487	-2.93208	0
0.0540	518.373	65.1397	-34.3052	-5.57362	-14.3245	5.7011	-13.8112	79.1853	-7.51557	0
0.0547	288.561	73.0195	-38.5966	-4.36335	-16.7776	7.8438	-17.4685	79.7919	-7.81888	0
0.0553	133.27	75.471	-41.6396	-3.75821	-17.9956	6.6194	-29.9804	81.6119	-7.81888	0
0.0560	-1.67635	75.8212	-38.2845	0.509588	-16.7776	8.45599	-46.1617	88.963	-6.30229	0
0.0567	-12.344	64.5268	-27.595	4.49075	-14.3245	9.98649	-57.7592	83.4675	-3.53872	0
0.0573	247.948	36.072	-15.9952	2.35685	-13.4152	5.395	-64.1595	55.99	-4.14536	0
0.0580	591.904	9.54332	-3.19905	2.35685	-13.4152	2.67837	-52.2612	22.4103	-2.93208	0
0.0587	763.425	-7.26693	8.40075	6.30616	-14.6332	3.59667	-39.1358	-12.0616	1.04476	0
0.0593	670.921	-16.3725	13.6025	11.4976	-15.8513	3.59667	-64.7731	-51.1368	3.168	0
0.0600	333.137	-15.4969	15.7352	15.1603	-14.942	4.4767	-109.635	-83.182	4.07795	0
0.0607	-162.758	-10.2437	13.2904	14.8736	-14.6332	2.98447	-128.56	-94.4585	3.168	-0.320672
0.0613	-607.449	-8.14246	5.35776	12.1027	-15.8513	-1.91312	-119.092	-91.4253	-0.80885	-0.320672
0.0620	-754.815	-6.65406	1.09236	9.36369	-15.2508	-4.05582	-106.58	-84.3953	-3.53872	0
0.0627	-574.455	-7.8798	3.22506	6.91129	-13.724	-2.52532	-98.6515	-76.4732	-4.14536	0
0.0633	-286.046	-11.2068	9.02496	5.70102	-12.1972	0.535674	-75.4563	-66.6955	-5.08902	0
0.0640	-79.4743	-14.2712	14.5128	5.09588	-10.9792	4.20887	-35.7792	-55.419	-5.39233	-0.320672
0.0647	13.9442	-18.824	14.2007	0.828081	-10.6704	3.59667	-11.0682	-50.5301	-7.51557	0
0.0653	4.72426	-23.3768	11.4698	-4.96849	-10.9792	0.841773	-0.998545	-49.9235	-12.0991	0
0.0660	-62.1012	-25.5656	8.40075	-7.73938	-10.9792	-0.0765248	19.7544	-50.209	-14.2223	0
0.0667	-115.211	-24.9527	5.95595	-8.02602	-10.0529	0.535674	51.804	-50.8156	-13.919	0
0.0673	-127.403	-20.3124	7.80256	-4.68184	-7.92563	4.20887	80.7979	-46.8546	-10.5825	0.320672
0.0680	-114.601	-15.4969	8.40075	-4.07671	-6.70762	4.20887	116.192	-40.7524	-8.72884	0
0.0687	-96.2378	-13.921	3.22506	-9.87328	-7.92563	-1.91312	152.513	-37.0768	-11.1891	-0.320672
0.0693	-77.9503	-13.0455	1.69055	-12.0072	-7.61684	-3.44362	152.513	-31.9025	-11.1891	0
0.0700	-64.8443	-12.4326	1.09236	-12.0072	-6.70762	-1.91312	103.981	-25.8003	-11.1891	0.320672
0.0707	-51.7383	-11.4695	-1.66455	-11.402	-7.30805	-0.0765248	61.2601	-21.5181	-11.4924	0
0.0713	-33.3746	-6.91672	-0.754247	-7.10239	-6.39883	5.395	59.7323	-16.0226	-9.6388	-0.641344
0.0720	-23.6213	-4.46522	-1.35244	-8.34451	-5.18082	4.7828	53.0191	-12.0616	-10.2454	-0.641344
0.0727	-21.183	-5.69097	-5.61784	-12.899	-4.87203	-0.994823	27.6946	-11.1694	-12.7057	0
0.0733	-15.6967	-5.69097	-6.24205	-13.5359	-1.81843	-1.60702	9.07112	-8.70717	-12.7057	0.320672
0.0740	-8.99134	-5.0781	-7.77655	-14.1411	-0.600426	-1.91312	-4.3551	-6.28058	-13.009	0
0.0747	1.98114	-3.85235	-9.59715	-14.4277	-0.909217	-2.21922	-12.2833	-3.81831	-13.009	0
0.0753	16.3825	-1.13819	-5.92994	-10.7651	1.23516	1.76007	-11.369	0.749388	-9.33548	-0.320672
0.0760	20.04	-2.36394	-5.61784	-10.1599	2.76196	2.06617	-8.01242	2.89049	-8.72884	-0.320672
0.0767	17.2969	-4.81544	-8.37474	-12.2938	2.76196	-0.382624	-4.3551	1.6772	-11.1891	0
0.0773	14.5538	-4.46522	-7.46445	-13.5359	4.28876	0.535674	3.58514	2.28385	-11.4924	0
0.0780	5.33384	-4.81544	-8.37474	-15.3514	5.19798	-1.30092	17.3121	2.28385	-12.0991	-0.320672
0.0787	-0.152396	-4.46522	-7.15234	-12.899	6.72477	-1.60702	34.4077	1.96268	-10.8858	-1.28269
0.0793	4.72426	-1.75107	-1.97665	-8.63116	9.17795	1.45397	44.1766	5.31708	-7.51557	-0.962017
0.0800	4.72426	-2.36394	-3.48514	-11.0835	9.46958	-0.994823	42.0351	6.85154	-8.42552	-0.320672
0.0807	-0.152396	-3.85235	-6.55415	-13.8226	8.25157	-3.13752	43.2623	7.17271	-11.1891	-0.641344
0.0813	-2.59072	-1.75107	-7.46445	-15.9565	8.25157	-2.21922	45.0909	10.2059	-12.0991	0
0.0820	-0.457187	1.92617	-11.4177	-18.7274	6.72477	-3.44362	37.7643	14.167	-13.009	0.320672
0.0827	6.55301	6.82916	-11.1316	-16.275	7.03357	-0.994823	34.4077	19.9837	-11.1891	0
0.0833	11.5059	8.31757	-8.37474	-13.5359	8.25157	0.841773	37.1507	23.0169	-9.03216	-0.320672
0.0840	15.4681	4.02746	-11.7298	-15.9565	7.94278	-3.44362	32.579	20.2691	-10.8858	0
0.0847	26.1358	0.700427	-14.7728	-17.4853	6.72477	-6.50461	20.0671	18.4492	-13.009	0
0.0853	35.5844	-2.36394	-15.0849	-17.1986	4.88919	-7.42291	4.1987	16.9147	-13.3123	-0.320672
0.0860	40.7658	-5.69097	-12.354	-15.3514	3.97997	-5.89241	-10.7554	13.8815	-11.4924	-0.320672
0.0867	47.4712	-5.42831	-6.24205	-11.6887	5.19798	-0.382624	-21.4386	14.7736	-8.1222	0
0.0873	55.3958	-5.42831	-5.01964	-12.0072	5.19798	1.14787	-29.9804	16.0226	-7.81888	0
0.0880	62.1012	-7.52959	-9.28504	-14.1411	2.45317	-1.91312	-38.5342	14.7736	-9.94212	0
0.0887	62.406	-8.49268	-10.5074	-13.8226	0.325946	-1.60702	-45.8489	15.7015	-10.2454	0
0.0893	49.2999	-9.018	-10.8195	-13.8226	-0.291636	-0.0765248	-51.0461	16.0226	-10.5825	0
0.0900	38.3275	-6.30384	-9.59715	-11.402	0.325946	2.98447	-46.7752	16.9147	-8.42552	0
0.0907	43.8137	-2.6266	-5.92994	-7.73938	0.926372	6.6194	-33.6498	18.4492	-5.08902	0
0.0913	51.4335	-5.0781	-6.24205	-9.87328	-0.600426	6.3133	-24.4944	17.2359	-5.99897	-0.320672
0.0920	57.8341	-11.4695	-7.46445	-13.2175	-2.41886	5.0889	-18.9964	13.8815	-8.42552	0
0.0927	60.2724	-14.5339	-6.55415	-14.7462	-3.03644	4.7828	-8.92675	9.27813	-9.03216	0
0.0933	48.9952	-13.0455	-7.46445	-14.4277	-3.03644	3.90277	6.64093	3.81831	-9.03216	0
0.0940	33.7556	-9.63087	-5.33175	-12.0072	-1.50964	6.9255	20.9815	4.42496	-7.21225	0
0.0947	22.1735	-6.91672	-3.48514	-11.6887	0.017155	8.45599	28.6089	10.2059	-6.30229	0
0.0953	19.7352	-6.65406	-6.55415	-15.6698	-0.600426	3.90277	26.7803	13.5603	-10.2454	-0.320672
0.0960	25.5262	-7.52959	-6.55415	-17.1986	-0.600426	1.45397	17.9257	16.9147	-12.7057	0
0.0967	17.9065	-7.52959	-5.33175	-15.6698	1.54395	2.06617	8.77035	20.5903	-11.7957	0
0.0973	-1.67635	-9.36821	-8.37474	-15.6698	2.76196	1.14787	1.44368	19.6625	-12.4024	0.320672
0.0980	-9.60092	-11.8197	-8.97294	-15.0647	3.67118	1.76007	-2.51441	15.7015	-12.7057	0
0.0987	-4.72426	-13.6583	-7.77655	-14.1411	3.37954	1.45397	-5.87096	10.5271	-11.7957	-0.320672
0.0993	-5.63863	-14.2712	-8.68685	-14.7462	3.07075	0.229575	-9.23955	7.45819	-11.7957	0
0.1000	-16.3063	-12.4326	-9.28504	-16.5616	2.76196	0.535674	-10.1539	8.99265	-12.4024	0.320672
0.1007	-18.7446	-12.0824	-10.5074	-19.6192	1.85274	-1.30092	-11.369	10.8126	-13.919	0
0.1013	-10.5153	-10.2437	-10.8195	-19.3325	2.76196	-1.60702	-11.369	12.3471	-13.919	0
0.1020	-2.89551	-5.42831	-10.5074	-17.8037	3.67118	1.14787	-10.4546	15.3803	-12.0991	0.320672
0.1027	4.11468	-3.58969	-12.6401	-20.2243	2.76196	0.229575	-14.112	14.7736	-12.7057	0
0.1033	-2.59072	-7.8798	-11.1316	-24.2055	3.07075	-1.91312	-16.5542	8.99265	-14.5256	-0.320672
0.1040	-25.4501	-16.3725	-5.33175	-27.8681	3.97997	-3.13752	-14.7255	3.81831	-15.1322	0
0.1047	-34.8986	-21.8883	-1.04034	-29.6835	4.88919	-3.74972	-13.1976	1.6772	-14.2223	0
0.1053	-16.9159	-20.6626	0.468153	-30.002	6.41598	-2.83142	-12.8969	1.6772	-12.7057	0
0.1060	6.55301	-17.9484	-0.130043	-32.1359	8.25157	-2.83142	-13.1976	4.10379	-11.4924	0.320672
0.1067	-22.0973	-16.7227	-3.19905	-36.1171	8.86915	-5.28021	-14.7255	7.17271	-12.0991	0
0.1073	-97.7617	-16.3725	-5.61784	-39.4613	7.65115	-6.50461	-15.6399	10.5271	-13.6156	0
0.1080	-104.772	-15.1467	-7.15234	-40.0664	5.81556	-6.50461	-15.6399	14.4882	-14.2223	0
0.1087	-8.38175	-12.6952	-6.24205	-37.0089	3.67118	-5.28021	-13.8112	17.5214	-13.3123	-0.641344
0.1093	98.7523	-9.98109	-3.48514	-32.4544	4.28876	-2.52532	-10.1539	21.5181	-11.1891	-0.962017
0.1100	174.417	-7.8798	-4.39544	-32.1359	5.50677	-2.21922	-8.62599	24.8725	-10.8858	-0.320672
0.1107	232.708	-5.42831	-8.97294	-35.7986	3.67118	-3.13752	-9.54032	27.2991	-13.3123	0
0.1113	247.338	-2.36394	-14.4867	-37.9325	1.54395	-4.66802	-10.1539	27.9058	-15.4356	-0.320672
0.1120	236.061	0.437767	-19.0642	-35.1935	0.926372	-4.36192	-9.84108	25.158	-14.8289	0
0.1127	226.307	8.93044	-23.9278	-30.002	-0.600426	-0.382624	-6.48453	23.9447	-13.009	0
0.1133	152.472	22.6763	-32.7967	-26.3394	-4.56324	2.98447	-2.51441	25.7647	-13.3123	-0.320672
0.1140	16.0777	27.2291	-38.2845	-22.9952	-5.78125	2.37227	-1.91288	23.9447	-14.2223	0
0.1147	-106.601	18.1236	-34.9294	-21.4664	-4.25445	-0.994823	-4.0423	16.9147	-15.4356	0
0.1153	-170.759	6.47895	-27.2829	-18.7274	-2.41886	-3.44362	-6.48453	9.27813	-16.9859	0
0.1160	-160.015	-4.46522	-17.5297	-10.7651	-0.600426	-2.21922	-5.26943	1.35603	-15.4356	0
0.1167	-87.7036	-16.3725	-6.24205	0.509588	1.85274	0.229575	-2.51441	-12.0616	-11.7957	0
0.1173	-2.59072	-26.7913	0.468153	9.68218	2.76196	0.229575	-3.12797	-29.4759	-9.94212	0
0.1180	27.0502	-32.5699	1.09236	16.3705	2.14438	-2.83142	-6.48453	-42.5723	-11.7957	0.320672
0.1187	-7.16259	-29.7682	0.18206	20.0332	1.85274	-5.89241	-9.54032	-38.9325	-14.5256	0
0.1193	-62.7108	-21.5381	-0.442145	19.4281	2.45317	-6.50461	-11.0682	-24.8725	-15.1322	0
0.1200	-94.1042	-15.7596	-1.35244	19.1414	2.76196	-5.89241	-10.4546	-20.0194	-15.1322	0
0.1207	-88.3132	-11.4695	-1.97665	21.2753	3.37954	-5.89241	-9.23955	-20.3048	-15.4356	0
0.1213	-68.5018	-7.26693	-2.88695	21.2753	4.28876	-5.89241	-8.31319	-14.5238	-15.4356	0
0.1220	-34.5938	-6.65406	-6.24205	16.689	3.37954	-8.03511	-9.23955	-8.42169	-16.6825	0
0.1227	19.7352	-7.52959	-9.59715	12.4212	1.85274	-9.52734	-11.0682	-3.53283	-18.1991	0
0.1233	61.1868	-8.49268	-8.37474	13.0264	0.926372	-6.50461	-9.23955	0.428221	-16.3792	-0.320672
0.1240	57.8341	-10.8566	-3.79724	15.7654	0.325946	-3.44362	-6.18376	1.96268	-14.2223	-0.320672
0.1247	26.7454	-12.0824	-3.48514	13.95	0.325946	-3.74972	-6.48453	0.428221	-14.2223	0
0.1253	1.06677	-12.6952	-5.01964	6.01951	0.325946	-4.66802	-7.39886	-2.31953	-15.1322	-0.320672
0.1260	-12.344	-13.0455	-5.61784	-0.414041	0.325946	-5.89241	-7.71166	-5.35277	-16.0759	-0.320672
0.1267	-20.8782	-11.4695	-5.61784	-1.30582	1.23516	-5.58631	-5.26943	-5.95942	-15.7389	-0.320672
0.1273	-28.498	-8.75534	-3.79724	-0.414041	2.76196	-2.83142	1.75648	-3.21166	-13.6156	0
0.1280	-33.0698	-8.14246	-3.19905	-1.91096	2.76196	-2.21922	3.58514	-2.92618	-12.4024	0
0.1287	-34.289	-9.63087	-4.10935	-5.28698	1.85274	-4.05582	-0.685748	-4.13947	-13.6156	-0.320672
0.1293	-43.1279	-9.98109	-5.61784	-8.02602	1.85274	-5.28021	-4.95663	-5.0316	-14.8289	-0.320672
0.1300	-54.7862	-8.49268	-5.61784	-8.63116	1.85274	-4.36192	-5.5702	-4.13947	-13.3123	0
0.1307	-54.4814	-6.30384	-2.88695	-5.57362	2.45317	-1.91312	-4.0423	-1.99837	-9.94212	0.320672
0.1313	-52.3479	-5.69097	-2.26274	-3.43972	2.76196	-1.91312	-3.44077	-1.99837	-9.03216	0.320672
0.1320	-51.1287	-6.65406	-3.19905	-4.07671	1.54395	-1.30092	-3.74154	-2.31953	-8.42552	0
0.1327	-43.1279	-6.91672	-3.79724	-4.96849	-0.291636	-0.382624	-4.65587	-2.31953	-8.1222	-0.320672
0.1333	-39.4704	-7.26693	-2.88695	-4.68184	-1.20085	-0.688724	-5.87096	-3.21166	-7.21225	0
0.1340	-36.7273	-6.91672	-1.04034	-1.62431	-2.12722	0.229575	-4.95663	-3.81831	-5.39233	0
0.1347	-24.2309	-6.04118	-0.754247	3.56712	-2.41886	1.45397	-4.65587	-3.53283	-4.75199	-0.320672
0.1353	-4.41947	-4.20256	-1.35244	10.8925	-2.12722	2.67837	-4.0423	-2.60501	-3.2354	-0.320672
0.1360	17.9065	-2.6266	-2.26274	17.2942	-3.03644	2.67837	-0.384981	-1.99837	-2.32544	0
0.1367	9.90571	-3.85235	-4.70754	18.8229	-4.25445	-0.382624	0.228583	-2.60501	-5.39233	-0.320672
0.1373	-15.6967	-4.20256	-3.19905	20.3517	-3.03644	-1.91312	0.529349	-0.178426	-6.60561	0
0.1380	-3.80989	-3.23948	-1.04034	24.938	-1.50964	-1.91312	1.44368	3.17598	-5.69565	-0.320672
0.1387	23.6975	-2.36394	0.18206	26.7534	-1.20085	-1.60702	-0.0842147	4.42496	-5.69565	-0.962017
0.1393	42.2898	-2.36394	2.60085	22.4856	-0.291636	-1.60702	-3.44077	3.81831	-6.30229	-0.962017
0.1400	57.8341	-4.20256	2.31476	13.95	0.017155	-4.36192	-7.71166	1.07055	-8.72884	0
0.1407	55.3958	-3.23948	2.00266	8.44006	1.23516	-5.58631	-8.62599	-0.785073	-9.94212	0.320672
0.1413	40.1562	-1.40085	1.09236	8.15342	1.23516	-5.28021	-6.79733	-0.785073	-8.72884	0
0.1420	28.5742	-1.13819	-1.04034	8.75855	0.017155	-4.97411	-6.18376	-1.07055	-8.72884	-0.320672
0.1427	18.8208	-1.40085	1.09236	10.574	-0.291636	-2.52532	-5.26943	-0.785073	-6.90893	0
0.1433	9.29613	-2.97681	3.53716	12.4212	-0.909217	-1.30092	-1.60008	-1.6772	-3.84204	0
0.1440	3.80989	-5.42831	4.44746	11.4976	-2.41886	-1.30092	2.67081	-3.21166	-2.32544	0
0.1447	-0.457187	-7.8798	4.13535	9.0452	-3.94566	-1.60702	3.58514	-4.74612	-2.02213	0
0.1453	-4.11468	-8.75534	3.22506	8.44006	-4.87203	-1.91312	1.44368	-5.0316	-2.93208	0
0.1460	-5.02905	-6.91672	4.44746	10.8925	-3.94566	-0.0765248	2.67081	-1.39172	-1.41549	0
0.1467	-6.55301	-5.0781	5.95595	12.7079	-3.65402	1.14787	4.80024	1.07055	0.101106	0
0.1473	-10.2105	-5.69097	4.75956	12.7079	-4.87203	-0.688724	2.97157	-0.463907	-1.11217	0
0.1480	-11.4297	-6.30384	4.75956	15.4788	-5.47246	0.229575	4.49947	-0.785073	-0.202213	0
0.1487	-11.1249	-5.69097	5.04565	18.8229	-4.87203	1.45397	9.68468	0.428221	0.741446	0
0.1493	-16.9159	-4.20256	3.22506	18.2178	-3.94566	0.535674	10.9118	-0.463907	-0.80885	0
0.1500	-22.0973	-3.23948	4.13535	15.7654	-2.41886	1.45397	9.38392	-1.07055	0.101106	0
0.1507	-16.0015	-3.85235	6.58016	12.7079	-1.20085	1.45397	6.64093	-1.07055	0.404425	0
0.1513	-15.0872	-3.85235	7.49045	9.96882	-0.600426	0.535674	4.1987	-0.785073	-0.202213	0
0.1520	-28.498	-3.23948	7.17835	9.96882	-0.600426	0.535674	3.8859	-1.07055	0.741446	0
0.1527	-35.5082	-5.42831	2.91295	11.8161	-1.20085	-0.994823	2.05724	-3.21166	0.741446	-0.320672
0.1533	-25.1453	-6.04118	1.37845	14.5551	-0.600426	-0.0765248	1.75648	-2.92618	0.741446	-0.320672
0.1540	-19.9638	-3.58969	4.13535	15.1603	0.926372	2.67837	3.8859	1.07055	2.25804	0
0.1547	-26.6692	1.05064	3.82325	10.574	0.325946	0.841773	3.58514	5.0316	1.34808	0
0.1553	-15.6967	4.64033	2.60085	8.15342	-1.20085	0.229575	3.8859	8.67148	1.04476	0
0.1560	15.7729	3.41458	2.00266	7.54828	-2.12722	1.14787	4.49947	8.386	1.34808	0
0.1567	40.461	1.3133	0.18206	7.54828	-3.94566	1.14787	4.49947	6.53038	1.95472	0
0.1573	45.3377	3.15192	0.18206	12.7079	-4.56324	2.67837	6.94169	8.06484	4.98791	0
0.1580	29.4885	4.99054	-0.442145	18.2178	-3.94566	4.7828	9.07112	9.27813	7.75148	0
0.1587	18.2113	3.7648	-0.754247	18.5044	-4.25445	4.7828	8.46959	9.27813	8.66144	-0.320672
0.1593	48.6904	2.53905	1.09236	15.4788	-4.87203	3.59667	7.55526	9.92046	8.35812	0
0.1600	81.9888	2.18883	2.00266	13.95	-5.78125	3.29057	7.85602	10.5271	8.35812	0
0.1607	46.8616	2.53905	1.37845	14.5551	-6.99926	4.4767	8.46959	10.2059	9.26807	0
0.1613	-24.2309	1.3133	-0.754247	13.0264	-8.52605	3.90277	7.55526	6.85154	8.66144	-0.320672
0.1620	-62.7108	-0.175107	-1.04034	12.4212	-8.83484	3.59667	7.55526	3.81831	9.57139	0
0.1627	-80.6934	-0.52532	0.468153	16.0839	-7.61684	4.20887	8.77035	3.17598	10.7847	0
0.1633	-98.0665	-1.13819	-0.130043	17.2942	-6.70762	2.67837	6.94169	2.89049	8.66144	0
0.1640	-106.601	-0.78798	0.468153	16.0839	-5.18082	2.06617	5.11303	2.89049	7.75148	0
0.1647	-112.468	-1.40085	1.37845	14.8736	-3.94566	2.06617	4.80024	0.428221	7.75148	0
0.1653	-82.827	-3.23948	0.780256	12.7079	-3.34523	1.76007	5.11303	-4.13947	6.84152	0
0.1660	-12.0392	-6.65406	1.37845	10.8925	-2.72765	1.45397	5.4138	-7.77936	6.23489	0
0.1667	33.7556	-10.2437	2.00266	9.68218	-3.34523	0.841773	3.58514	-12.9894	5.89787	0
0.1673	32.8412	-10.594	2.91295	9.96882	-3.65402	1.14787	2.97157	-17.5571	7.14484	-0.320672
0.1680	8.38175	-8.49268	3.22506	11.2109	-3.03644	2.37227	3.58514	-20.0194	8.35812	-0.320672
0.1687	-14.4776	-7.26693	2.91295	13.0264	-2.41886	2.98447	3.8859	-20.0194	8.66144	-0.641344
0.1693	-26.974	-8.75534	3.53716	12.4212	-2.12722	2.06617	3.28437	-17.8782	8.0548	-0.962017
0.1700	-33.6794	-11.2068	4.75956	9.96882	-1.81843	1.14787	2.05724	-14.5238	7.14484	-0.320672
0.1707	-30.6315	-10.594	7.49045	11.8161	-0.600426	2.37227	2.97157	-10.8483	8.35812	0
0.1713	-31.2411	-9.63087	7.80256	12.1027	0.017155	2.98447	3.28437	-9.63498	8.96476	-0.320672
0.1720	-37.9465	-8.75534	6.89226	11.2109	-0.291636	3.29057	3.8859	-8.10052	8.66144	-0.320672
0.1727	-36.4225	-6.91672	6.26805	11.8161	-1.20085	3.90277	4.49947	-4.42496	8.96476	0
0.1733	-30.6315	-6.30384	2.91295	10.2873	-3.03644	1.45397	2.35801	-2.31953	7.75148	0
0.1740	-25.4501	-4.46522	1.09236	10.2873	-3.94566	1.14787	2.05724	0.14274	8.0548	-0.320672
0.1747	-14.7824	1.05064	1.69055	13.3448	-3.94566	3.29057	4.1987	5.0316	9.26807	-0.641344
0.1753	-4.41947	5.86608	0.468153	13.95	-4.56324	4.4767	5.11303	9.92046	9.87471	0
0.1760	-3.5051	6.82916	-1.97665	13.0264	-4.25445	3.90277	4.80024	12.0259	9.57139	0
0.1767	-5.33384	6.21629	-3.79724	12.7079	-3.65402	2.37227	3.28437	12.0259	8.96476	0
0.1773	-2.59072	6.21629	-3.79724	13.3448	-3.03644	2.37227	2.67081	12.6682	8.66144	0
0.1780	0.152396	4.37767	-2.57484	13.0264	-2.41886	2.06617	2.05724	10.5271	7.44816	0
0.1787	0.761978	1.66351	-0.442145	12.1027	-1.20085	2.06617	1.44368	8.99265	7.44816	0.320672
0.1793	-0.152396	1.66351	3.22506	12.4212	0.926372	3.59667	3.28437	9.27813	8.96476	0.320672
0.1800	-12.344	0.437767	2.60085	9.96882	1.23516	1.14787	1.75648	6.53038	6.84152	0
0.1807	-33.9842	-0.52532	-0.130043	6.62465	0.017155	-1.91312	-0.998545	5.31708	4.07795	-0.320672
0.1813	-48.3094	1.66351	0.468153	6.62465	0.325946	-1.30092	-0.0842147	9.27813	4.38127	0
0.1820	-51.7383	2.80171	1.09236	7.54828	1.23516	-0.382624	0.529349	11.4192	4.68459	-0.320672
0.1827	-48.3094	1.92617	2.60085	8.44006	2.45317	-0.0765248	1.44368	10.8126	5.89787	-0.320672
0.1833	-49.9095	0.437767	2.31476	8.44006	2.45317	-0.382624	1.75648	9.5993	6.53821	0
0.1840	-66.3682	0.437767	0.18206	7.54828	2.76196	-1.30092	-0.384981	8.386	5.59455	0
0.1847	-80.6934	2.80171	1.37845	7.83492	3.67118	-0.688724	-0.384981	10.5271	5.59455	0
0.1853	-76.1216	3.41458	-0.442145	6.62465	2.45317	-1.91312	-0.685748	11.1338	4.98791	0.320672
0.1860	-58.7485	3.15192	-3.19905	6.30616	1.54395	-2.83142	-0.998545	11.1338	4.38127	0
0.1867	-37.6417	5.2532	-1.35244	9.68218	3.07075	-0.0765248	1.14291	14.4882	6.53821	-0.320672
0.1873	-30.3267	6.47895	-2.26274	10.2873	2.76196	-0.688724	0.842147	16.3081	6.53821	0
0.1880	-29.4123	6.47895	-5.01964	10.574	1.85274	-1.60702	-0.384981	16.6293	5.89787	0
0.1887	-12.0392	7.09182	-6.24205	10.8925	1.23516	-2.21922	-0.685748	16.3081	5.59455	0
0.1893	11.1249	7.44204	-8.06264	8.75855	-0.909217	-3.13752	-1.91288	15.3803	3.77463	-0.320672
0.1900	48.3856	9.28066	-5.33175	10.8925	-0.600426	0.229575	0.529349	16.6293	5.29123	0
0.1907	90.2181	8.66778	-2.26274	13.0264	1.23516	1.45397	2.67081	16.3081	7.14484	-0.320672
0.1913	87.475	4.02746	-1.66455	12.1027	1.54395	-1.60702	0.842147	12.3471	6.53821	-0.320672
0.1920	53.567	-1.40085	-1.35244	10.2873	1.23516	-4.05582	-1.29931	7.45819	4.98791	0
0.1927	33.7556	-6.04118	-0.130043	8.75855	0.926372	-4.97411	-2.82721	1.35603	4.38127	0
0.1933	30.0981	-6.30384	3.22506	11.2109	2.45317	-2.21922	-0.998545	-1.99837	6.53821	0
0.1940	21.2592	-3.58969	4.44746	13.95	3.37954	-0.382624	1.44368	-1.6772	8.0548	0
0.1947	13.3346	-1.40085	2.31476	12.7079	1.54395	-1.60702	0.842147	0.749388	7.75148	-0.320672
0.1953	20.3448	-0.175107	1.69055	11.4976	0.325946	-1.60702	0.529349	3.49714	7.75148	0
0.1960	22.4783	-1.40085	-0.130043	9.96882	-0.291636	-3.44362	-1.29931	3.81831	6.84152	0
0.1967	11.8107	-1.40085	-0.754247	10.574	-0.600426	-3.13752	-1.60008	3.17598	7.14484	-0.320672
0.1973	3.80989	1.05064	3.53716	14.2366	1.23516	0.841773	1.75648	5.92373	11.088	0
0.1980	-7.16259	0.700427	4.13535	13.6315	1.85274	0.229575	1.14291	6.53038	11.6946	-0.320672
0.1987	-28.498	-1.75107	2.31476	10.8925	0.617581	-2.83142	-1.29931	3.81831	9.57139	-0.962017
0.1993	-49.6047	-3.23948	2.31476	9.68218	0.617581	-3.44362	-1.91288	1.35603	8.66144	-0.641344
0.2000	-52.3479	-3.23948	2.31476	9.0452	0.926372	-3.74972	-2.21364	1.07055	8.0548	0
0.2007	-34.5938	-0.52532	5.66986	11.8161	2.45317	-1.91312	0.529349	4.42496	9.57139	0
0.2013	-15.6967	2.18883	9.33706	13.0264	2.76196	0.535674	1.75648	8.06484	11.3913	0
0.2020	2.59072	2.80171	6.26805	9.68218	1.23516	-2.21922	-0.685748	7.77936	9.87471	0
0.2027	23.0879	3.7648	2.60085	6.62465	0.325946	-4.97411	-2.51441	8.06484	7.44816	0
0.2033	39.2418	7.44204	-0.754247	6.01951	-0.291636	-4.36192	-2.51441	11.4192	6.23489	-0.320672
0.2040	55.7006	13.4832	-2.26274	7.83492	0.325946	-1.60702	-0.685748	15.3803	8.0548	-0.320672
0.2047	52.3479	17.1605	-2.26274	9.36369	1.54395	0.229575	1.14291	18.4492	9.87471	0
0.2053	0.152396	18.1236	-6.24205	7.22979	1.23516	-1.60702	-0.0842147	19.377	8.66144	0.320672
0.2060	-61.7964	18.3862	-10.8195	5.70102	0.325946	-3.44362	-2.21364	17.5214	6.84152	0
0.2067	-61.1868	14.4463	-10.1953	5.70102	0.617581	-4.97411	-3.74154	13.8815	6.23489	0
0.2073	2.89551	7.7047	-3.48514	6.30616	2.45317	-4.36192	-3.12797	9.27813	7.14484	0.320672
0.2080	67.2826	2.18883	5.35776	8.75855	3.37954	-1.91312	-1.29931	4.10379	9.26807	0
0.2087	86.5607	-1.13819	7.80256	7.54828	3.67118	-2.83142	-0.998545	-2.60501	8.66144	0
0.2093	57.5293	-3.58969	5.66986	4.49075	3.37954	-4.97411	-2.21364	-9.31382	6.84152	0.320672
0.2100	9.90571	-3.85235	5.04565	4.77739	2.14438	-4.97411	-3.44077	-11.4549	6.84152	0.320672
0.2107	-14.4776	-1.13819	6.26805	7.54828	2.14438	-2.83142	-2.82721	-9.31382	6.53821	0
0.2113	-16.0015	1.66351	8.11466	9.96882	3.07075	-0.382624	-0.0842147	-9.31382	5.89787	0
0.2120	-18.7446	0.700427	8.40075	8.44006	2.14438	-1.30092	0.529349	-12.0616	7.14484	0
0.2127	-21.4878	-0.175107	6.58016	6.62465	0.325946	-3.13752	-0.998545	-13.2749	8.0548	0
0.2133	-18.1351	1.66351	5.95595	7.54828	-0.600426	-1.60702	0.228583	-9.02834	7.44816	0
0.2140	-23.3165	3.7648	5.04565	6.91129	-0.909217	-0.994823	0.842147	-4.13947	6.23489	0
0.2147	-33.6794	4.37767	5.35776	7.83492	-1.20085	-0.0765248	1.75648	-1.99837	7.44816	-0.320672
0.2153	-30.0219	4.99054	7.80256	10.8925	-1.50964	1.45397	3.28437	0.428221	12.6383	0
0.2160	-21.183	5.60342	8.11466	11.4976	-1.81843	1.76007	3.28437	1.6772	19.0417	0
0.2167	-15.3919	5.2532	7.17835	9.96882	-2.41886	1.14787	2.35801	0.14274	21.7716	-0.320672
0.2173	-13.868	3.41458	6.58016	8.15342	-3.65402	-0.0765248	1.14291	-1.39172	18.435	-0.320672
0.2180	-18.4399	3.41458	7.80256	8.75855	-3.03644	0.841773	1.75648	-1.07055	12.9416	-0.320672
0.2187	-12.9536	6.21629	10.2474	11.8161	-0.909217	4.4767	3.8859	1.35603	10.4813	0
0.2193	2.89551	7.7047	8.71286	10.2873	-0.600426	5.395	2.97157	1.96268	4.68459	0
0.2200	16.9921	6.47895	6.26805	7.54828	-1.20085	4.7828	0.529349	-0.785073	0.404425	0
0.2207	4.11468	6.82916	6.58016	8.44006	-1.20085	5.7011	0.842147	-2.60501	6.84152	0
0.2213	-37.9465	7.44204	7.49045	9.0452	-0.909217	7.2316	1.44368	-3.53283	13.8516	-0.320672
0.2220	-50.8239	7.44204	9.02496	9.36369	0.325946	9.06819	2.35801	-4.13947	15.9748	-0.320672
0.2227	-26.974	7.7047	9.33706	9.36369	0.617581	9.68039	2.67081	-2.31953	15.0648	0
0.2233	-10.2105	8.31757	8.40075	7.22979	0.017155	9.06819	1.14291	-1.07055	10.178	0
0.2240	2.59072	7.09182	7.49045	2.35685	0.325946	6.3133	-1.60008	-2.31953	3.168	-0.320672
0.2247	21.2592	6.47895	7.17835	-0.0955478	1.54395	5.395	-3.44077	-1.99837	-0.505531	0
0.2253	29.1837	8.93044	10.2474	2.35685	3.37954	11.517	-1.29931	0.749388	10.4813	0
0.2260	23.0879	11.1193	11.4698	4.17226	4.59755	15.4963	0.529349	2.56933	37.3419	0
0.2267	21.564	11.1193	8.11466	2.03835	3.97997	12.7414	-1.60008	2.89049	54.7322	0
0.2273	30.0981	11.1193	6.26805	-0.414041	2.14438	9.98649	-3.12797	1.35603	52.609	0
0.2280	33.146	11.7322	6.89226	-1.30582	0.617581	9.68039	-2.82721	1.07055	45.9022	0
0.2287	25.831	12.8703	7.80256	-0.0955478	0.017155	10.9048	-2.21364	2.89049	37.3419	-0.641344
0.2293	13.0298	13.8334	8.71286	3.56712	-0.909217	12.7414	-1.29931	3.49714	-0.80885	-0.962017
0.2300	6.24822	13.2206	8.11466	8.15342	-2.72765	10.2926	-0.998545	2.89049	-74.6501	0
0.2307	2.59072	11.3819	7.80256	13.95	-4.56324	5.0889	-1.91288	1.96268	-98.7471	0.320672
0.2313	-10.5153	10.5064	9.02496	23.0907	-4.87203	2.37227	-1.60008	0.14274	-60.9334	0.320672
0.2320	-19.0494	9.89353	9.62315	31.6582	-5.47246	1.45397	-0.685748	-1.07055	-113.711	0.320672
0.2327	-23.9261	11.1193	10.2474	39.8753	-5.18082	1.14787	0.842147	-0.463907	-226.31	0
0.2333	-37.9465	11.9948	10.8456	51.7869	-3.03644	-0.0765248	3.28437	0.14274	-185.429	0
0.2340	-37.3369	9.89353	8.11466	58.5071	-0.600426	-5.28021	2.67081	-3.53283	-48.3962	0
0.2347	-31.8507	9.54332	6.89226	46.914	1.23516	-9.22124	2.05724	-4.13947	24.8384	0
0.2353	-44.3471	13.2206	8.71286	21.8805	2.14438	-9.83344	2.67081	-0.178426	60.2256	0.320672
0.2360	-52.0431	15.9347	9.93526	3.24863	0.926372	-9.83344	3.58514	1.6772	75.796	0
0.2367	-53.567	15.3218	10.5595	-1.91096	-0.291636	-10.7517	4.49947	-0.178426	66.629	0
0.2373	-48.3094	13.2206	10.5595	-2.22945	-1.20085	-14.1188	3.28437	-3.81831	98.6797	0
0.2380	-12.6488	12.345	12.068	0.828081	-0.291636	-16.8737	3.58514	-5.95942	172.858	-0.320672
0.2387	41.985	11.1193	12.9783	2.96198	0.325946	-19.9347	4.1987	-5.67393	153.007	0
0.2393	70.6353	8.93044	12.3801	2.64349	0.325946	-24.4879	2.35801	-7.17271	15.0648	0.320672
0.2400	57.5293	10.5064	14.2007	8.15342	0.926372	-24.4879	2.97157	-6.88723	-61.8433	0
0.2407	31.0125	14.4463	12.6922	14.5551	1.54395	-19.0164	4.1987	-3.81831	-2.32544	-0.320672
0.2413	19.1256	15.6721	6.58016	8.44006	-0.291636	-15.0371	1.14291	-3.21166	67.2694	-0.320672
0.2420	23.6975	16.5476	6.89226	-8.02602	-1.50964	-12.2822	1.75648	-2.31953	56.5858	0
0.2427	31.0125	19.3493	7.80256	-25.4157	-1.50964	-10.4456	3.58514	-0.785073	6.84152	0
0.2433	40.1562	21.4506	5.04565	-33.6647	-3.03644	-8.03511	2.35801	-0.178426	-46.5763	0
0.2440	46.8616	23.5519	6.26805	-25.1291	-3.03644	-3.74972	3.58514	1.96268	-58.4731	0
0.2447	41.6802	22.4137	6.89226	-12.2938	-2.72765	-2.21922	3.58514	1.96268	-5.69565	0.320672
0.2453	37.7179	18.7364	6.26805	-2.83459	-3.03644	-2.83142	1.14291	-1.99837	38.2519	0.320672
0.2460	46.252	15.6721	9.02496	4.17226	-2.72765	-3.74972	0.529349	-5.95942	50.7891	0
0.2467	46.252	13.2206	9.62315	6.01951	-2.12722	-5.89241	-0.0842147	-8.70717	41.3188	0
0.2473	14.8586	12.8703	9.62315	7.22979	-2.12722	-6.81071	-0.685748	-8.10052	1.95472	0
0.2480	-17.8303	14.0961	10.2474	13.0264	-3.94566	-7.72901	-0.384981	-6.56606	-35.8927	0
0.2487	-16.6111	15.3218	9.62315	20.0332	-5.47246	-6.81071	0.842147	-5.35277	-41.3862	0
0.2493	-7.16259	16.2849	9.33706	17.0075	-6.70762	-5.58631	1.75648	-5.95942	-52.0697	0
0.2500	-9.90571	15.6721	8.11466	7.22979	-10.0529	-6.81071	0.529349	-8.70717	-110.678	-0.641344
0.2507	-12.344	15.6721	8.40075	6.01951	-11.5797	-3.44362	-0.0842147	-8.70717	-132.348	-0.962017
0.2513	-10.5153	14.0961	8.40075	10.2873	-10.9792	6.0072	-0.685748	-10.2416	-89.6139	-0.320672
0.2520	-10.5153	12.345	8.40075	19.1414	-9.45243	16.1085	-0.685748	-13.596	-93.5907	0
0.2527	-14.7824	13.4832	9.93526	33.1551	-6.99926	26.1715	2.05724	-13.2749	-114.924	0
0.2533	-19.659	14.4463	9.62315	32.8685	-4.56324	32.5613	2.97157	-14.2027	-101.511	-0.320672
0.2540	-22.0973	15.9347	9.02496	15.7654	-3.03644	34.0918	4.49947	-12.6682	-123.181	0
0.2547	-21.183	17.5107	9.02496	8.75855	-1.81843	33.1735	6.32813	-9.02834	-124.698	0
0.2553	-18.1351	16.5476	7.49045	15.4788	0.617581	32.2552	6.02736	-9.02834	4.07795	0
0.2560	-15.3919	17.7733	7.49045	13.95	3.37954	30.1125	7.55526	-9.31382	126.147	0
0.2567	-16.6111	19.3493	7.80256	6.91129	2.45317	24.0288	7.55526	-9.02834	133.797	0
0.2573	-17.8303	19.9622	8.11466	12.1027	-2.41886	20.6617	6.64093	-7.77936	165.208	0
0.2580	-16.3063	21.8008	9.02496	16.689	-5.78125	19.7434	6.32813	-5.67393	192.675	0
0.2587	-15.6967	23.2892	9.33706	7.22979	-5.47246	16.4146	3.8859	-5.0316	125.54	-0.962017
0.2593	-15.3919	24.5149	9.93526	-10.4784	-1.81843	13.0475	2.05724	-3.21166	103.263	-0.962017
0.2600	-14.7824	25.3905	9.33706	-37.9325	1.54395	8.76209	2.97157	-0.785073	152.401	0
0.2607	-13.2584	26.3536	8.71286	-63.8897	1.54395	0.535674	2.35801	0.428221	139.291	0
0.2613	-10.2105	27.5793	9.33706	-84.3369	0.017155	-11.0578	-0.384981	1.07055	89.8498	0
0.2620	-6.8578	27.842	8.40075	-92.8725	-2.12722	-22.3453	-1.91288	1.07055	49.2388	0
0.2627	-4.11468	27.842	8.11466	-72.1068	-5.47246	-27.2428	-0.0842147	0.749388	22.0749	0
0.2633	-1.06677	28.1922	8.11466	-41.5952	-5.78125	-25.7123	0.228583	-0.463907	58.709	0
0.2640	0.761978	27.5793	5.95595	-21.4664	-1.50964	-22.0392	-1.91288	-1.39172	86.7829	0.320672
0.2647	1.06677	26.9664	5.95595	-4.36335	-1.20085	-16.2615	-1.91288	-0.178426	44.0486	0
0.2653	2.28593	27.2291	7.49045	6.91129	-3.34523	-11.3639	-1.91288	2.89049	4.07795	0
0.2660	8.99134	26.6162	8.71286	-1.01918	-3.94566	-9.52734	-1.60008	4.42496	-6.30229	0
0.2667	17.6017	26.3536	10.8456	-4.36335	-6.39883	-7.42291	-1.60008	3.81831	10.4813	0.320672
0.2673	20.04	25.3905	10.5595	17.0075	-8.52605	-8.60904	-7.39886	2.89049	56.2825	0.320672
0.2680	17.2969	23.5519	8.71286	25.8298	-7.61684	-10.7517	-13.5104	1.6772	87.0862	0
0.2687	8.99134	22.6763	9.02496	10.2873	-4.56324	-9.22124	-12.5961	1.96268	80.0762	0
0.2693	-4.41947	21.4506	8.71286	-4.68184	-0.291636	-7.42291	-8.62599	2.56933	57.7991	0
0.2700	-9.29613	20.575	8.40075	-14.1411	2.14438	-4.97411	-6.48453	3.81831	7.44816	0.320672
0.2707	-6.24822	19.612	8.71286	-18.7274	3.97997	-4.05582	-6.48453	5.31708	-80.1436	0
0.2713	-2.28593	17.5107	8.11466	-10.7651	8.86915	-4.36192	-8.62599	4.10379	-111.284	-0.641344
0.2720	5.63863	16.8978	9.02496	3.88561	4.59755	-2.52532	-7.71166	3.81831	-55.7433	-0.641344
0.2727	12.4202	16.8978	9.33706	10.574	-12.7977	-2.83142	-4.65587	6.53038	-57.2599	0
0.2733	13.6394	17.7733	7.49045	8.15342	-21.3409	-6.50461	-2.82721	9.5993	-177.206	-0.320672
0.2740	15.4681	20.2248	3.53716	-3.75821	-21.0492	-9.52734	0.228583	12.9537	-220.209	0
0.2747	18.5161	23.5519	-2.57484	-27.5496	-19.8141	-11.9761	3.58514	15.3803	-79.5369	0.320672
0.2753	24.0023	27.842	-6.84024	-63.5712	-15.5425	-13.2005	6.94169	16.0226	71.5158	-0.320672
0.2760	28.879	29.6806	-7.77655	-110.867	-12.506	-14.4249	11.5133	15.7015	126.147	-0.962017
0.2767	19.4304	27.5793	-7.46445	-132.238	-8.52605	-18.0981	14.5691	14.4882	152.401	0
0.2773	0.152396	24.7776	-4.39544	-102.332	7.94278	-19.3225	17.6249	12.9537	157.288	0.320672
0.2780	-1.06677	18.9991	-0.754247	-76.3746	32.3716	-19.0164	20.6687	7.77936	90.1531	0
0.2787	11.8107	12.6077	2.60085	-55.0356	47.6224	-18.4042	20.3679	-1.07055	17.5251	0.320672
0.2793	9.90571	9.28066	4.75956	8.15342	48.5316	-19.9347	17.9257	-9.31382	36.432	0
0.2800	-8.99134	8.93044	4.13535	47.8058	43.042	-15.0371	17.6249	-12.3827	56.5858	-0.320672
0.2807	-19.3542	11.1193	5.35776	4.17226	40.9148	7.8438	17.9257	-9.31382	24.5351	0
0.2813	-16.6111	12.345	7.49045	-78.2218	34.8076	30.7247	18.2265	-4.74612	-0.202213	0
0.2820	-16.0015	12.8703	9.62315	-131.315	18.0128	41.1321	22.1966	1.96268	-69.46	0
0.2827	-18.1351	12.345	9.93526	-112.109	5.50677	42.3182	24.0252	5.92373	-117.384	0
0.2833	-18.1351	10.7691	9.02496	-44.3342	6.12435	43.8487	20.9815	5.92373	-62.7533	0
0.2840	-17.8303	9.89353	9.33706	-11.402	7.65115	54.2561	18.2265	6.53038	-83.2105	0
0.2847	-13.5632	7.7047	8.11466	-33.9832	0.325946	59.4215	12.4397	6.85154	-178.722	0
0.2853	-3.20031	6.47895	7.49045	-23.887	-6.70762	50.5829	9.99748	8.06484	-119.204	0
0.2860	5.33384	7.09182	9.33706	28.2822	-3.03644	36.8467	15.1827	11.7404	3.47132	0
0.2867	11.1249	7.09182	8.71286	43.2513	0.926372	26.4776	17.9257	13.8815	-52.9797	0
0.2873	17.2969	7.7047	6.89226	20.3517	1.23516	16.7207	17.0114	14.7736	-191.226	0
0.2880	15.1634	8.31757	4.75956	-8.94965	0.325946	1.76007	13.6548	14.4882	-242.79	0
0.2887	6.24822	7.09182	-1.04034	-48.9205	-0.909217	-8.34121	6.32813	12.3471	-284.917	-0.641344
0.2893	9.29613	8.05491	-4.70754	-94.6879	3.67118	-7.11681	-0.998545	12.6682	-320.642	-0.641344
0.2900	17.2969	9.89353	-4.10935	-117.906	1.23516	-4.97411	-6.79733	14.7736	-271.504	0
0.2907	16.0777	7.44204	-4.10935	-130.709	-9.74406	-8.91514	-13.8112	12.6682	-320.305	0
0.2913	16.3825	3.7648	-1.66455	-155.743	-6.39883	-12.2822	-21.1379	7.45819	-473.514	0
0.2920	16.6873	0.700427	1.09236	-181.668	6.12435	-13.2005	-23.2673	1.96268	-388.383	0.320672
0.2927	1.98114	-0.78798	0.18206	-211.575	12.5232	-22.0392	-23.8809	-0.178426	-91.1305	0
0.2933	-19.0494	0.700427	0.18206	-249.412	16.486	-38.2242	-29.6796	0.428221	89.2094	0
0.2940	-31.5459	1.66351	1.37845	-273.522	12.2144	-52.5726	-34.2633	-1.39172	144.447	0
0.2947	-34.5938	2.18883	2.31476	-261.037	-1.50964	-60.1868	-26.3231	-1.6772	248.216	0
0.2953	-29.7171	3.7648	2.00266	-183.516	-8.21726	-35.7754	-15.0263	0.428221	305.914	0
0.2960	-22.0973	3.7648	2.00266	-87.9996	-9.14364	11.2109	-11.9825	1.07055	172.858	0.320672
0.2967	-16.9159	4.64033	2.91295	-55.3222	-8.21726	31.0308	-9.84108	3.81831	5.29123	0
0.2973	-12.0392	6.47895	5.04565	-29.3969	-7.92563	42.9304	-4.3551	7.17271	-20.6257	-0.320672
0.2980	-6.55301	6.21629	6.58016	39.5887	-12.7977	75.3004	-0.685748	8.67148	34.3087	-0.320672
0.2987	-1.67635	5.2532	5.95595	94.8153	-17.3781	100.018	1.14291	8.67148	86.1762	-0.320672
0.2993	0.152396	3.7648	3.82325	108.542	-15.8513	100.936	1.75648	7.45819	130.124	-0.320672
0.3000	-2.89551	2.18883	4.13535	108.861	-9.14364	89.0367	2.05724	7.45819	91.3664	0
0.3007	-10.8201	1.3133	5.66986	106.408	-3.03644	71.6273	2.35801	7.45819	-59.9897	0
0.3013	-23.3165	-1.13819	4.13535	87.1715	-3.65402	53.6439	2.05724	5.63825	-185.126	0
0.3020	-38.2513	-3.85235	4.13535	58.5071	-9.45243	39.6016	1.44368	4.42496	-210.47	0
0.3027	-55.7006	-5.69097	4.44746	44.4616	-14.3245	30.1125	-2.51441	4.71044	-165.612	0
0.3033	-67.8922	-6.04118	4.44746	42.9328	-13.724	26.7837	-4.95663	6.85154	-78.3237	0.320672
0.3040	-64.5395	-5.42831	6.26805	17.2942	-6.99926	18.519	3.28437	8.386	-43.8464	0.320672
0.3047	-55.3958	-6.91672	7.49045	-55.0356	-1.50964	-2.83142	15.7963	5.31708	-86.2437	0
0.3053	-51.7383	-7.8798	7.80256	-135.582	-2.72765	-22.0392	20.3679	4.42496	-136.898	0
0.3060	-48.3094	-6.04118	4.75956	-204.249	-6.09004	-38.2242	9.07112	7.17271	-190.012	0.320672
0.3067	-37.3369	-2.36394	-0.754247	-268.649	-9.74406	-73.0047	-6.79733	8.386	-265.404	0
0.3073	-19.659	3.15192	-5.33175	-298.555	-18.5961	-109.048	-17.7813	10.2059	-320.642	0
0.3080	-0.761978	8.66778	-13.2643	-312.282	-25.012	-126.419	-27.5382	13.8815	-365.802	0
0.3087	14.8586	11.9948	-17.2176	-327.856	-23.1765	-138.931	-33.0362	16.0226	-430.78	0
0.3093	25.2215	8.93044	-12.9522	-298.237	-17.3781	-125.195	-32.4226	12.3471	-380.733	0.320672
0.3100	40.461	1.92617	-5.92994	-256.737	-11.8884	-80.3511	-29.6796	2.89049	-215.66	0
0.3107	64.2347	-4.20256	2.60085	-219.219	-5.78125	-47.675	-24.4944	-7.17271	-57.8665	0
0.3113	84.1223	-9.63087	10.5595	-159.406	6.41598	-38.8364	-19.3092	-13.2749	109.97	0.320672
0.3120	87.475	-11.2068	13.2904	-145.679	23.2108	-39.4486	-19.61	-12.9894	221.052	0
0.3127	71.9307	-5.0781	12.068	-178.929	24.4288	-36.3876	-22.0522	-8.70717	270.796	0
0.3133	46.5568	0.437767	5.35776	-189.312	-0.909217	-27.2428	-19.61	-5.0316	324.821	-0.320672
0.3140	31.3173	0.0875534	0.18206	-138.353	-32.9377	-16.5676	-14.112	-1.6772	310.767	-0.320672
0.3147	26.7454	-2.6266	-0.130043	-11.6887	-48.8061	-8.34121	-11.369	2.28385	217.715	0
0.3153	19.7352	-6.65406	-0.130043	141.188	-46.9876	-1.60702	-13.8112	1.6772	123.72	0.320672
0.3160	18.8208	-9.98109	2.91295	221.767	-37.5181	10.2926	-11.9825	-2.31953	61.4389	0.320672
0.3167	27.355	-11.2068	6.58016	207.434	-31.1192	22.4983	-4.65587	-4.74612	2.56136	0
0.3173	23.3927	-13.0455	5.35776	175.681	-30.5017	24.9471	-2.82721	-9.63498	-74.9534	0
0.3180	8.99134	-15.7596	3.53716	159.215	-28.0656	21.2739	-5.5702	-15.416	-115.227	0
0.3187	-2.59072	-17.3356	1.69055	157.367	-15.8513	17.2946	-6.18376	-15.416	-59.6864	-0.641344
0.3193	-17.2207	-16.9854	-3.79724	184.216	-1.81843	13.3536	-6.48453	-10.5271	28.8153	-0.641344
0.3200	-18.4399	-13.6583	-6.55415	215.651	1.23516	9.68039	-7.09809	-1.99837	6.53821	0
0.3207	3.5051	-6.04118	1.09236	197.338	-4.87203	9.68039	-4.65587	7.45819	-147.581	0
0.3213	19.7352	-1.40085	11.4698	143.322	-10.0529	22.8044	-1.29931	12.0259	-274.841	-0.320672
0.3220	26.1358	-5.0781	14.2007	114.052	-10.3616	39.2955	2.67081	12.0259	-254.72	-0.320672
0.3227	18.8208	-12.6952	6.26805	105.198	-7.92563	36.5406	3.8859	13.8815	-70.9766	-0.641344
0.3233	-21.4878	-16.1098	-2.26274	101.822	-3.65402	27.3959	2.05724	17.5214	202.752	-0.320672
0.3240	-45.2615	-15.1467	1.69055	99.6882	-5.47246	28.3142	-1.29931	17.5214	397.752	0
0.3247	-12.0392	-13.3081	6.89226	82.9037	-20.1229	32.2552	-7.09809	16.3081	434.69	0
0.3253	26.7454	-9.63087	4.13535	59.7174	-35.0821	32.2552	-11.9825	20.2691	402.942	0
0.3260	28.2694	-6.30384	-3.79724	28.6007	-36.6089	23.7227	-17.1678	20.8758	349.221	0
0.3267	4.11468	-5.69097	-10.5074	-5.89212	-29.5924	13.9658	-21.7514	15.0948	284.547	0
0.3273	-25.4501	-7.26693	-10.8195	-19.6192	-21.9584	8.76209	-21.1379	9.92046	261.056	0
0.3280	-48.3094	-12.0824	-8.37474	-18.7274	-15.8513	2.37227	-22.0522	4.42496	224.422	0
0.3287	-60.5772	-17.9484	-5.01964	-5.57362	-10.3616	-4.66802	-22.9665	-5.0316	115.463	0
0.3293	-68.197	-21.5381	-2.26274	33.1551	-4.25445	-12.2822	-20.2235	-14.8093	-46.8796	0
0.3300	-68.197	-21.5381	-5.33175	74.6866	0.325946	-22.6514	-16.2534	-16.3438	-214.413	0
0.3307	-48.919	-16.9854	-8.97294	90.229	1.85274	-31.2221	-11.9825	-8.42169	-317.271	0
0.3313	-28.8028	-10.8566	-10.5074	75.8968	3.07075	-34.2449	-8.31319	0.749388	-245.25	0
0.3320	-23.6213	-9.98109	-10.1953	29.4924	6.72477	-31.2221	-0.685748	4.42496	-18.5024	0
0.3327	-17.2207	-16.1098	-5.33175	-43.1239	14.6676	-24.794	10.9118	-0.178426	79.4695	-0.320672
0.3333	-3.80989	-21.8883	3.22506	-102.013	27.4824	-13.8127	18.5393	-8.10052	-14.8289	0
0.3340	19.1256	-22.7639	9.33706	-72.4253	34.19	-2.52532	17.9257	-9.63498	-8.42552	0.320672
0.3347	43.5089	-20.3124	12.6922	0.509588	25.9556	6.0072	11.2126	-6.28058	141.111	0
0.3353	43.5089	-16.9854	12.9783	7.83492	10.396	13.0475	3.58514	-5.67393	185.058	0
0.3360	23.6975	-15.7596	8.40075	-22.9952	1.54395	13.6597	-3.12797	-9.31382	90.4564	0
0.3367	-1.06677	-16.7227	6.89226	-41.5952	6.41598	9.68039	-4.95663	-9.31382	43.1387	-0.320672
0.3373	-25.1453	-14.8841	6.58016	-48.6339	18.9392	5.7011	-8.01242	-1.6772	92.883	-0.320672
0.3380	-48.919	-13.3081	0.18206	-41.3085	24.4288	0.535674	-20.2235	3.49714	172.555	0
0.3387	-84.0461	-12.6952	-1.04034	-23.6003	18.9392	1.45397	-27.5382	6.53038	269.583	0
0.3393	-105.686	-9.98109	5.66986	-8.02602	10.6876	8.76209	-25.108	11.4192	358.085	0
0.3400	-50.8239	-8.14246	14.2007	67.3612	2.76196	16.1085	-22.353	13.5603	397.752	0.320672
0.3407	50.8239	-10.2437	25.4884	216.894	-5.78125	24.0288	-18.9964	17.2359	394.416	0
0.3413	96.0092	-14.5339	28.8695	361.84	-10.9792	28.6203	-11.9825	22.7314	409.346	0
0.3420	70.6353	-18.5613	24.292	487.581	-8.83484	29.8064	-4.3551	23.9447	490.534	0
0.3427	53.8718	-20.6626	26.1126	536.406	-4.56324	30.7247	1.75648	25.7647	542.098	0
0.3433	120.392	-21.5381	26.4247	476.593	-3.34523	22.8044	2.67081	30.9747	476.177	0
0.3440	257.167	-16.1098	17.8679	419.2	-2.72765	11.2109	-1.60008	37.0768	345.278	0
0.3447	300.143	-4.46522	4.13535	406.078	-1.81843	0.841773	-0.0842147	41.6445	237.836	0
0.3453	106.372	3.41458	-13.2643	370.089	-3.65402	-11.67	6.94169	42.5723	179.868	-0.320672
0.3460	-163.368	11.3819	-24.552	291.644	-3.34523	-15.0371	12.4397	45.6056	125.844	-0.320672
0.3467	-265.321	22.0635	-27.9071	215.365	-2.41886	-10.4456	16.097	50.4944	59.3157	-0.320672
0.3473	-169.769	26.9664	-27.2829	154.947	-4.56324	-15.0371	17.0114	48.6745	12.0316	-0.320672
0.3480	-24.5357	24.5149	-19.6624	89.3054	-4.87203	-26.9367	11.8261	43.179	1.34808	0
0.3487	42.5945	14.4463	-8.68685	-2.22945	-2.12722	-35.1632	4.80024	33.7224	-2.02213	-0.641344
0.3493	61.4916	-2.6266	0.468153	-119.721	0.325946	-32.4465	5.71457	17.2359	-39.5663	-0.962017
0.3500	57.8341	-19.4369	12.6922	-209.441	3.37954	-27.5489	9.38392	3.81831	-72.8302	0
0.3507	-2.28593	-29.5055	24.8902	-234.761	12.832	-27.5489	8.15679	-3.81831	-63.6632	0.320672
0.3513	-57.8341	-34.6711	28.8695	-242.723	37.5524	2.67837	3.8859	-16.9504	-33.7695	-0.320672
0.3520	-73.988	-36.2471	27.335	-251.864	64.7088	58.1971	-1.60008	-31.9025	-16.6825	0
0.3527	-111.249	-32.5699	23.0696	-247.883	79.9768	79.2797	-7.39886	-38.3258	-92.647	0
0.3533	-142.642	-25.5656	15.4231	-238.424	96.1368	74.9943	-13.8112	-34.3291	-258.36	0
0.3540	-129.841	-16.9854	8.11466	-207.912	113.24	74.3821	-15.6399	-18.1637	-372.813	0
0.3547	-134.108	-12.4326	-1.35244	-161.54	107.133	67.648	-12.5961	-0.463907	-424.983	-0.320672
0.3553	-210.687	-13.3081	-10.1953	-97.1403	87.302	57.891	-9.23955	8.06484	-529.359	-0.320672
0.3560	-341.29	-16.3725	-9.59715	-1.91096	72.034	48.7463	-10.7554	14.7736	-608.39	0
0.3567	-443.547	-18.824	-5.61784	74.3681	54.33	40.826	-13.1976	19.377	-485.715	0
0.3573	-431.355	-16.1098	-4.70754	124.117	32.972	32.2552	-8.31319	20.2691	-175.959	0
0.3580	-361.787	-12.4326	-5.01964	206.829	14.9763	8.45599	1.75648	22.1248	184.452	0
0.3587	-359.653	-16.3725	-3.79724	295.912	-0.909217	-15.0371	18.84	22.1248	428.286	0
0.3593	-327.269	-22.7639	2.00266	340.787	-14.6332	-6.81071	37.1507	18.128	470.987	0.320672
0.3600	-129.231	-26.1785	7.17835	379.548	-24.3945	8.1499	37.4635	12.9537	400.819	0
0.3607	129.536	-28.0171	9.93526	425.92	-26.8476	7.2316	31.9655	9.92046	301.33	0
0.3613	283.989	-26.1785	9.62315	399.071	-23.4852	2.98447	35.6228	14.167	222.602	-0.320672
0.3620	296.79	-17.9484	3.82325	281.898	-28.3744	-15.9554	36.5371	17.2359	190.248	-0.320672
0.3627	212.287	-11.8197	-1.04034	178.42	-27.7569	-42.2034	30.7504	13.2749	184.148	-0.320672
0.3633	106.372	-16.9854	-5.92994	123.798	-3.94566	-46.4506	24.0252	10.5271	197.865	-0.320672
0.3640	63.3203	-22.151	-10.5074	81.0883	19.8484	-27.5489	18.2265	10.8126	224.119	0
0.3647	52.9574	-15.4969	-13.8625	42.6143	31.754	-5.89241	12.4397	7.17271	261.056	0
0.3653	1.67635	-1.75107	-20.8848	5.70102	41.5152	-3.13752	6.32813	7.77936	291.86	0
0.3660	-102.334	10.5064	-28.5053	-35.7986	42.4416	-4.36192	1.44368	16.6293	271.403	-0.320672
0.3667	-207.639	18.1236	-33.707	-77.2982	32.3716	13.3536	-3.74154	28.5124	182.901	0
0.3673	-178.989	19.612	-34.9294	-110.867	19.248	19.4373	-10.7554	40.7167	77.3126	-0.320672
0.3680	-117.649	15.9347	-32.7967	-124.594	1.54395	8.1499	-11.9825	45.6056	24.8384	-0.641344
0.3687	-60.2724	9.89353	-33.3949	-119.116	-14.0157	-7.72901	-5.87096	41.6445	-5.39233	-0.320672
0.3693	337.708	-0.78798	-36.4379	-117.906	-17.9956	-31.5282	-4.95663	20.8758	-81.9635	-0.320672
0.3700	839.699	-12.6952	-35.2415	-117.269	-13.4152	-47.0628	-8.62599	-13.596	-162.848	-0.320672
0.3707	806.172	-15.4969	-32.1725	-90.4201	-7.61684	-53.4909	-3.74154	-30.0826	-187.552	0
0.3713	310.506	-12.6952	-31.2622	-49.239	-6.70762	-51.9604	6.32813	-22.4459	-182.396	0
0.3720	-140.204	-12.0824	-22.4193	-16.8801	-12.1972	-48.8994	14.2684	-15.1305	-152.772	0
0.3727	-323.917	-12.0824	-8.97294	-0.700684	-11.2709	-44.04	22.5094	-20.0194	-69.1567	0
0.3733	-272.331	-17.9484	4.44746	-16.275	-6.70762	-41.5913	26.4675	-37.398	6.53821	0
0.3740	-60.2724	-31.6068	20.9109	-38.8561	-6.39883	-33.6709	23.7245	-57.2389	-6.90893	0
0.3747	74.9786	-45.7029	31.9125	-31.2123	8.56036	37.1528	10.9118	-63.0199	-61.8433	0
0.3753	-82.5222	-51.1312	34.3573	-28.7917	28.7004	127.184	-2.51441	-50.209	-71.6169	0.320672
0.3760	-286.656	-47.8041	27.6471	-40.6715	25.0464	154.044	1.14291	-32.2237	-52.0697	0
0.3767	-204.591	-40.7999	12.068	-10.7651	6.12435	149.147	6.02736	-23.6592	-27.9727	0
0.3773	116.735	-26.7913	-4.10935	40.7989	-10.9792	144.862	0.842147	-12.9894	18.1317	0
0.3780	385.027	-6.91672	-20.5727	66.1191	-28.6661	151.29	0.842147	6.85154	56.5858	-0.641344
0.3787	251.605	11.9948	-42.2378	85.6427	-49.4237	170.191	10.2982	25.158	42.532	-0.320672
0.3793	-180.817	26.0034	-59.0393	87.49	-62.2385	164.414	21.2822	37.969	-35.5894	0.320672
0.3800	-444.462	24.7776	-64.215	45.6719	-61.3293	121.368	30.1368	48.6745	-147.278	0
0.3807	-298.009	8.05491	-61.4841	-4.36335	-54.6045	68.5663	44.4774	55.0621	-227.557	-0.320672
0.3813	117.649	-11.2068	-48.974	-34.875	-50.9505	22.1922	52.7184	45.3201	-236.993	-0.320672
0.3820	478.674	-29.2428	-30.664	-49.239	-49.4237	-27.2428	34.7085	19.6625	-175.352	0
0.3827	619.107	-43.8642	-13.5504	-46.4681	-44.2428	-69.3698	14.8699	-0.785073	-93.2537	0
0.3833	555.634	-50.2556	-5.33175	-32.1359	-38.1357	-67.8393	5.11303	-9.92046	-68.2467	0
0.3840	296.181	-51.744	-4.39544	-33.6647	-29.2836	-54.7153	-9.84108	-18.4849	-85.637	-0.641344
0.3847	-235.451	-54.5458	1.09236	-60.5136	-16.4688	-87.3531	-18.6957	-25.8003	-81.3568	-0.962017
0.3853	-678.846	-58.8359	8.11466	-83.4133	-11.2709	-81.2694	-27.5382	-27.6203	-53.283	-0.320672
0.3860	-445.681	-53.32	8.40075	-60.227	-16.7776	-3.74972	-51.6476	-26.1215	-10.8858	0
0.3867	111.554	-20.3124	-3.19905	-34.875	-11.8884	44.1548	-67.2153	-13.8815	43.442	0
0.3873	281.855	22.6763	-28.5053	-90.1335	-5.78125	94.5082	-67.2153	12.9537	68.4827	0
0.3880	355.082	45.5278	-41.6396	-182.273	-25.012	172.946	-67.5281	39.5034	38.5552	0.320672
0.3887	610.192	55.5964	-36.1518	-250.049	-51.8597	238.872	-67.8289	72.4765	-19.1091	0.320672
0.3893	493.609	69.6925	-42.5499	-288.172	-64.3829	313.025	-63.2452	113.372	-36.8027	0
0.3900	-222.878	87.6409	-68.7925	-278.108	-63.7653	363.99	-52.574	133.213	28.8153	0
0.3907	-1035.3	102.613	-91.68	-257.661	-57.9669	349.03	-40.6636	128.609	73.9761	0
0.3913	-1169.86	96.5714	-91.68	-277.184	-46.6789	298.064	-27.5382	112.765	2.86468	-0.320672
0.3920	-539.709	67.8539	-77.6614	-317.474	-28.3744	230.34	-11.0682	79.7919	-79.2336	-0.320672
0.3927	128.927	33.7081	-65.1253	-348.304	-18.3044	132.044	4.1987	29.4402	-136.595	0
0.3933	501	0.437767	-44.6826	-416.971	-16.16	18.519	10.599	-20.9115	-253.777	0
0.3940	540.928	-29.7682	-19.0642	-536.278	9.77837	-79.4328	7.55526	-60.8788	-395.696	-0.320672
0.3947	172.893	-52.9698	-4.10935	-543.922	48.8404	-166.709	4.1987	-99.954	-514.732	-0.641344
0.3953	-334.584	-71.0058	7.49045	-412.99	56.4744	-243.005	0.842147	-142.669	-605.964	-0.320672
0.3960	-547.633	-87.816	26.1126	-251.259	39.0792	-285.438	-7.71166	-170.147	-649.001	-0.320672
0.3967	-387.389	-99.7233	41.9778	-31.8493	21.3752	-333.648	-8.31319	-165.579	-683.478	0
0.3973	-33.3746	-98.1473	47.4656	147.908	6.72477	-409.331	9.99748	-139.315	-677.378	0.320672
0.3980	270.883	-84.4015	41.3796	194.918	10.0872	-459.991	29.2225	-103.915	-561.409	0
0.3987	383.199	-61.55	15.7352	180.554	28.7004	-463.932	29.2225	-63.9477	-483.895	0
0.3993	352.338	-28.8926	-21.7951	94.8153	24.7376	-397.432	17.3121	-31.2959	-537.312	0.320672
0.4000	69.4162	4.99054	-50.1964	8.15342	2.45317	-290.909	11.2126	-8.70717	-540.346	0
0.4007	-425.564	30.0308	-62.9926	14.8736	-3.34523	-220.43	10.9118	7.77936	-428.354	0
0.4013	-669.397	41.9381	-61.172	59.3989	4.28876	-188.06	11.2126	19.9837	-325.191	0
0.4020	-646.157	48.3295	-60.8599	84.7509	5.50677	-162.424	5.11303	35.5424	-214.716	0
0.4027	-671.836	56.5595	-65.4374	103.669	4.28876	-124.276	-6.18376	58.1311	1.04476	0
0.4033	-302.581	47.9793	-48.974	133.863	4.28876	-86.4348	-11.0682	67.5876	216.806	0
0.4040	678.617	15.6721	-19.0642	144.245	-9.45243	-68.1454	-12.8969	41.6445	302.544	0
0.4047	1152.8	-7.26693	-3.48514	143.035	-25.9213	-65.0844	-12.5961	1.07055	358.691	0
0.4053	507.401	-12.0824	-5.92994	163.769	-31.1192	-69.3698	-10.4546	-27.0136	459.393	0
0.4060	-178.989	-20.6626	-9.90925	188.803	-29.2836	-66.6149	-7.09809	-50.8156	519.214	0
0.4067	-228.974	-37.4728	-2.26274	215.97	-14.0157	-59.5746	5.11303	-81.6476	484.434	0
0.4073	-60.5772	-60.0616	11.1577	244.348	0.617581	-61.1051	15.1827	-120.402	380.665	-0.320672
0.4080	75.5882	-79.8487	24.292	263.585	-1.50964	-43.1217	16.3978	-151.234	264.393	-0.320672
0.4087	51.4335	-82.3002	24.5781	283.108	-5.78125	4.4767	14.8699	-152.161	192.675	0
0.4093	-125.879	-72.4942	7.17835	280.656	-6.99926	38.6833	6.64093	-135.354	155.434	-0.962017
0.4100	-182.646	-57.8728	-7.77655	245.876	-5.18082	40.5199	3.28437	-116.726	123.417	-0.641344
0.4107	-115.821	-42.0256	-13.8625	193.389	0.325946	35.9284	10.599	-98.1341	84.963	0
0.4113	-95.933	-36.2471	-10.5074	104.88	3.67118	44.1548	15.7963	-88.6775	54.4289	-0.320672
0.4120	-215.563	-39.9243	2.91295	-12.0072	10.0872	49.0524	16.7106	-84.7165	38.5552	-0.320672
0.4127	-343.118	-44.7398	10.5595	-123.703	18.6304	44.4609	14.5691	-74.6176	17.5251	0
0.4133	-107.82	-42.2883	12.9783	-194.185	22.5932	53.6439	21.2822	-49.6023	42.8354	0
0.4140	306.848	-32.2196	9.93526	-224.41	19.248	71.3212	34.7085	-14.2027	121.563	0
0.4147	386.856	-15.1467	-8.97294	-249.125	8.86915	73.7699	35.322	19.6625	186.878	0
0.4153	339.232	12.6077	-34.3052	-234.474	1.54395	72.5455	25.8659	55.0621	239.689	0
0.4160	602.877	34.8462	-50.7946	-185.044	4.28876	76.5248	10.599	89.5697	295.534	0
0.4167	768.912	40.3621	-54.1497	-171.922	5.50677	46.6036	-7.39886	113.372	277.84	0
0.4173	78.6361	40.0994	-52.017	-173.738	0.325946	-5.89241	-11.9825	127.396	148.121	0
0.4180	-1012.67	33.0952	-42.2378	-153.609	-0.600426	-14.1188	-0.685748	127.075	72.4258	0.320672
0.4187	-1161.63	16.2849	-16.3073	-71.215	-10.0529	6.0072	8.77035	109.375	105.386	0.320672
0.4193	-458.177	-2.6266	7.49045	134.181	-40.8805	0.535674	5.11303	81.933	112.733	0
0.4200	-36.7273	-11.4695	14.8249	385.344	-63.1649	-0.0765248	0.228583	63.3054	131.337	0
0.4207	113.992	-5.42831	7.49045	540.673	-57.0577	30.7247	2.97157	58.1311	243.026	0
0.4213	269.969	-1.75107	-1.66455	533.953	-39.9712	61.2581	5.4138	42.8578	336.111	0
0.4220	224.174	-6.04118	8.11466	450.03	-34.1728	79.5858	10.9118	10.5271	309.25	0
0.4227	153.081	-12.6952	21.223	424.105	-37.5181	129.327	17.9257	-20.9115	237.532	-0.320672
0.4233	326.431	-21.2755	24.5781	442.418	-20.1229	218.746	21.8958	-42.2869	210.368	0
0.4240	458.558	-28.8926	27.6471	427.768	16.486	247.405	27.9954	-54.4912	198.775	0
0.4247	254.12	-36.86	24.8902	376.172	29.6096	196.745	19.4536	-57.8456	150.884	0
0.4253	-22.7069	-37.7355	23.6678	335.914	27.4824	154.044	6.64093	-46.2479	107.24	0
0.4260	-180.817	-32.8325	27.6471	305.084	33.8812	133.574	14.2684	-30.368	125.237	0
0.4267	-207.639	-34.6711	26.1126	263.266	35.1164	103.079	20.3679	-27.9415	214.649	0
0.4273	-167.025	-38.9613	27.9332	236.417	33.8812	57.891	11.8261	-31.5813	330.314	0
0.4280	-197.276	-38.9613	29.4677	221.161	43.9684	5.7011	12.1269	-31.2959	382.485	0.320672
0.4287	-77.9503	-27.4042	25.4884	202.243	51.894	-35.4693	36.8499	-26.407	374.565	0
0.4293	292.828	-4.46522	18.18	186.382	39.0792	-62.0234	61.5729	-16.6293	348.918	0
0.4300	532.394	11.1193	3.82325	164.087	24.12	-83.106	56.3757	-0.785073	295.837	-0.320672
0.4307	430.746	18.9991	-6.84024	138.162	26.2644	-102.008	38.9794	23.9447	236.319	0
0.4313	98.4475	19.9622	-8.37474	114.944	30.2272	-133.459	27.3818	35.5424	193.585	0
0.4320	-324.526	10.7691	-1.97665	92.3629	39.9884	-148.076	11.8261	27.6203	160.018	0
0.4327	-504.886	4.02746	13.9146	76.8205	63.4908	-94.3934	4.80024	22.1248	133.46	0
0.4333	-162.454	0.437767	17.5558	56.9784	74.47	6.0072	7.55526	14.7736	107.24	0
0.4340	306.544	2.80171	12.068	31.3397	78.1412	95.1204	4.49947	9.27813	82.5027	0.320672
0.4347	470.14	8.66778	10.2474	5.70102	96.4456	168.661	2.97157	11.1338	61.7759	0
0.4353	470.14	9.54332	3.22506	-22.0716	106.516	226.054	2.67081	10.5271	40.1055	0
0.4360	456.425	11.9948	-1.04034	-30.9257	94.6272	223.299	3.58514	14.4882	27.265	0
0.4367	418.859	10.5064	-2.26274	-25.1291	79.9768	142.757	11.5133	11.7404	16.5814	0
0.4373	280.027	3.7648	-7.15234	-34.875	63.4908	10.5987	15.1827	-1.39172	-1.41549	0
0.4380	28.879	1.05064	-3.79724	-56.2458	49.7668	-122.746	22.1966	-9.31382	-17.2892	0.320672
0.4387	-133.498	-4.81544	3.22506	-69.3677	72.3428	-195.1	45.0909	-17.2716	-28.8827	-0.641344
0.4393	-131.06	-13.6583	7.80256	-69.6862	101.644	-216.451	73.1585	-24.2659	-39.5663	-1.28269
0.4400	-63.0155	-19.0866	12.6922	-67.5523	79.668	-264.355	101.852	-20.626	-49.6432	-0.320672
0.4407	-29.1075	-21.2755	15.137	-78.2218	39.9884	-273.844	117.72	-13.596	-66.4268	0.320672
0.4413	-70.9401	-21.5381	16.9576	-101.727	15.8856	-185.343	89.3397	-8.10052	-90.5238	0
0.4420	24.0023	-17.5982	20.6248	-114.243	-13.1064	-101.089	31.3519	-0.463907	-108.217	0
0.4427	332.832	-11.4695	18.4921	-113.001	-43.9341	-48.5933	-22.9665	10.8126	-114.317	0
0.4433	595.562	-12.0824	11.4698	-114.243	-58.2757	-16.2615	-64.1595	16.6293	-119.811	0
0.4440	677.398	-13.921	12.6922	-114.849	-63.1649	-9.52734	-76.0699	16.6293	-123.484	0
0.4447	477.455	-9.36821	16.3334	-112.715	-76.2713	-8.34121	-69.9583	19.0559	-123.181	0
0.4453	172.893	-3.58969	13.9146	-111.791	-90.3213	-8.34121	-62.0301	27.2991	-122.575	0
0.4460	-2.28593	-1.13819	16.0473	-103.255	-91.8481	13.9658	-43.1059	43.7856	-118.294	0
0.4467	-396.228	0.0875534	14.5128	-94.4013	-90.0125	60.952	-27.851	70.6209	-112.498	0
0.4473	-692.561	8.31757	-0.442145	-94.6879	-70.1813	96.0387	-23.8809	102.666	-110.678	0
0.4480	-153.919	30.6437	-20.8848	-96.5352	-31.7197	101.548	-16.2534	132.891	-111.588	-0.320672
0.4487	761.597	54.7209	-42.2378	-99.5927	-27.1393	103.079	0.842147	158.513	-116.474	-0.320672
0.4493	1079.57	67.5037	-55.06	-99.5927	-60.4029	124.429	15.7963	173.18	-121.024	0
0.4500	400.267	69.9552	-58.4151	-87.9996	-86.0497	155.269	6.32813	158.834	-119.204	0
0.4507	-643.414	62.338	-59.0393	-77.0116	-81.7781	165.332	-12.2833	120.687	-115.227	0
0.4513	-1280.66	44.6522	-45.3068	-73.954	-48.8061	145.474	-11.9825	83.4675	-113.104	0
0.4520	-1401.2	17.5107	-18.44	-72.4253	-17.6868	112.836	-9.54032	46.5334	-112.194	0
0.4527	-998.343	-10.8566	9.62315	-73.0304	-13.1064	115.591	-13.8112	4.71044	-112.498	0
0.4533	-347.69	-30.1184	30.0659	-78.827	-1.50964	170.497	-5.5702	-33.1158	-113.408	0
0.4540	68.8066	-39.3115	37.4003	-81.566	39.9884	192.498	18.2265	-70.9777	-116.171	0
0.4547	127.098	-45.9655	37.4003	-83.0948	62.5816	159.21	35.6228	-94.7797	-117.081	0
0.4553	24.0023	-57.8728	31.0022	-91.6622	51.5852	124.123	2.05724	-77.972	-115.868	-0.320672
0.4560	-41.2992	-66.453	24.5781	-97.4588	64.7088	115.897	-75.1556	-38.3258	-112.801	0
0.4567	-76.4264	-71.0058	25.2023	-94.4013	77.5236	172.946	-137.101	-22.1248	-109.127	0
0.4573	-160.93	-79.586	22.7575	-92.2674	57.0748	286.471	-169.452	-26.1215	-107.307	0
0.4580	-194.533	-72.2315	16.3334	-85.2287	67.4536	376.196	-176.779	-10.2416	-99.6908	0
0.4587	-69.7209	-46.3157	4.44746	-72.7119	108.66	373.747	-154.197	20.8758	-90.5238	0
0.4593	277.588	-21.5381	-16.9315	-63.5712	111.096	279.469	-111.777	38.8968	-84.7271	0
0.4600	744.528	4.37767	-41.0154	-57.1695	68.9804	132.35	-65.6874	41.0379	-78.0203	0
0.4607	770.74	29.6806	-60.5478	-51.6595	40.2972	-35.4693	-1.91288	42.2512	-73.1335	-0.320672
0.4613	77.4169	46.7535	-64.5271	-43.4424	36.3344	-187.754	86.8975	53.2422	-67.6401	0
0.4620	-662.997	52.8822	-52.017	-40.3849	32.0628	-257.353	142.13	44.6778	-59.3831	0
0.4627	-812.802	40.975	-30.9501	-50.4493	25.6468	-231.411	160.754	-17.5571	-57.5632	0
0.4633	-611.716	17.1605	-8.37474	-70.8965	3.37954	-192.651	194.933	-95.993	-66.7301	0.320672
0.4640	-228.365	-2.36394	7.80256	-96.8218	-57.3664	-185.343	193.706	-131.071	-80.4469	0.320672
0.4647	345.023	-18.824	21.5351	-109.944	-130.293	-206.081	128.09	-129.858	-90.5238	0
0.4653	555.939	-32.2196	31.2883	-98.6691	-157.449	-180.139	63.0888	-128.966	-88.7039	0
0.4660	271.188	-40.187	34.0452	-75.1643	-143.107	-28.1611	14.2684	-117.047	-78.9303	-0.320672
0.4667	8.07696	-53.32	40.1572	-58.0931	-127.239	134.186	-27.851	-91.4253	-70.9766	-0.320672
0.4673	63.6251	-69.78	45.3329	-50.1308	-111.062	215.991	-52.8748	-73.4043	-66.4268	0
0.4680	347.767	-68.2916	36.8021	-47.7102	-73.8353	239.178	-51.9604	-56.9178	-63.9666	0
0.4687	481.722	-43.2514	13.9146	-58.0931	-29.2836	189.437	-32.7354	-34.6503	-63.6632	-0.962017
0.4693	444.538	-3.58969	-21.7951	-68.4441	-1.81843	85.0574	-33.9505	3.49714	-65.4832	-1.28269
0.4700	540.928	36.4222	-54.4618	-61.7558	14.6676	-9.52734	-50.7333	52.0289	-63.0566	0
0.4707	657.206	52.8822	-64.8392	-53.1883	28.0828	-95.0056	-50.4325	68.5154	-60.9334	-0.641344
0.4713	329.479	51.0436	-63.9289	-53.5068	25.6468	-187.141	-48.9047	65.7677	-62.1467	-1.28269
0.4720	-680.675	52.6196	-70.0149	-52.9017	10.396	-250.925	-55.317	65.1254	-60.6301	0
0.4727	-1581.87	47.3664	-63.6168	-45.2578	17.7212	-300.666	-47.9903	43.179	-54.193	0.320672
0.4733	-1354.49	21.1879	-24.552	-28.1866	40.2972	-376.961	-28.4646	8.99265	-41.6895	0
0.4740	-368.188	-24.3398	21.5351	-11.402	24.12	-446.255	-20.2235	-33.437	-31.6126	-0.320672
0.4747	395.085	-66.453	56.0224	-0.414041	-7.92563	-445.642	-10.1539	-92.9241	-27.9727	-0.320672
0.4753	622.459	-87.816	69.7549	3.56712	-14.3245	-380.328	8.46959	-144.81	-26.1191	0
0.4760	423.736	-90.5302	54.4879	0.222945	-14.942	-298.256	11.8261	-168.327	-26.7258	0
0.4767	43.8137	-81.6873	36.8021	-0.700684	-14.3245	-211.859	5.11303	-171.967	-27.0291	0
0.4773	-167.025	-72.8444	28.2453	0.509588	-21.6497	-122.172	8.77035	-164.972	-28.2761	0
0.4780	-152.396	-66.1028	21.223	1.11472	-45.7696	-48.2872	18.5393	-143.918	-28.2761	0.320672
0.4787	-80.9982	-59.4487	23.3557	0.509588	-62.2385	-6.50461	6.02736	-123.471	-27.9727	0.320672
0.4793	-28.1932	-53.9329	27.6471	-7.42088	-59.4937	11.517	-25.4088	-115.513	-31.0059	0
0.4800	0.457187	-46.5784	23.9799	-13.5359	-46.0613	13.9658	-42.8051	-103.915	-33.7695	0
0.4807	8.68654	-40.187	19.4024	-7.10239	-27.1393	-11.9761	-38.5342	-81.3264	-29.4893	0
0.4813	0.457187	-38.0857	16.3334	3.56712	-1.50964	-57.1641	-29.9804	-61.8066	-20.929	-0.641344
0.4820	-5.94343	-33.4454	13.6025	13.3448	25.9556	-80.3511	-24.4944	-43.5002	-11.1891	-0.962017
0.4827	5.33384	-24.6025	13.6025	25.5431	50.0584	-90.7202	-14.112	-21.5181	-0.80885	0
0.4833	26.7454	-18.5613	16.0473	37.4548	68.0712	-121.254	2.97157	-7.17271	5.29123	0
0.4840	36.1939	-17.9484	13.9146	43.538	74.47	-98.3344	16.097	-1.6772	4.98791	0
0.4847	34.67	-18.5613	9.93526	41.4041	69.598	9.68039	9.38392	2.28385	3.77463	0
0.4853	34.67	-17.5982	11.1577	25.8298	62.8732	62.4825	-16.867	5.63825	3.77463	0
0.4860	32.5364	-16.9854	9.93526	2.96198	64.7088	81.0781	-58.6736	6.2449	-1.41549	-0.320672
0.4867	39.8514	-13.921	6.58016	-2.83459	82.104	160.74	-94.3806	11.4192	-6.30229	-0.320672
0.4873	63.3203	-6.30384	4.75956	11.2109	111.714	219.932	-88.5818	19.9837	-0.80885	-0.320672
0.4880	77.7217	-0.78798	-0.754247	18.5044	122.693	210.175	-54.0899	23.6236	7.75148	-0.320672
0.4887	89.6086	0.0875534	-3.19905	12.7079	106.516	150.677	-3.44077	24.5514	14.4582	0
0.4893	110.334	-1.13819	1.09236	1.11472	100.426	71.6273	67.0589	24.5514	19.345	0
0.4900	115.821	-5.42831	5.04565	-16.8801	102.862	14.578	128.09	20.2691	17.5251	-0.320672
0.4907	101.8	-10.594	7.17835	-17.1986	75.0876	-22.9575	164.411	13.2749	16.2781	-0.320672
0.4913	85.9511	-12.4326	9.02496	8.75855	29.6096	-62.9417	183.937	11.1338	18.1317	0
0.4920	81.0744	-9.36821	14.5128	32.55	-7.30805	-81.5755	170.21	14.7736	18.1317	0
0.4927	85.3415	-7.8798	15.7352	32.8685	-35.9913	-102.008	116.192	17.5214	10.7847	-0.320672
0.4933	92.6565	-9.98109	10.5595	15.7654	-32.3372	-140.767	52.7184	16.0226	-3.84204	0
0.4940	99.0571	-8.14246	10.8456	6.01951	-8.21726	-84.9043	-4.0423	15.3803	-15.4356	0
0.4947	93.2661	-5.69097	9.02496	6.30616	-45.4608	67.9541	-58.6736	15.0948	-23.0859	0
0.4953	82.5984	-6.65406	4.75956	-1.01918	-117.478	127.49	-99.8665	15.3803	-31.6126	0
0.4960	82.2936	-4.20256	9.93526	-14.4277	-128.766	36.2345	-111.464	20.8758	-35.2861	0
0.4967	82.5984	-3.85235	12.068	-18.4089	-119.005	-42.5095	-96.2092	22.1248	-31.9159	-0.320672
0.4973	82.9032	-7.8798	7.49045	-5.89212	-137.927	-23.5697	-65.6874	16.0226	-23.3892	-0.320672
0.4980	90.8277	-6.30384	7.80256	3.56712	-130.91	6.0072	-26.0223	10.8126	-13.009	0
0.4987	89.3038	-3.58969	4.44746	-5.28698	-93.3749	-4.66802	7.85602	6.53038	-9.6388	-0.320672
0.4993	75.2834	-1.75107	-0.754247	-10.1599	-79.6337	-31.5282	27.3818	3.49714	-7.51557	-1.28269
0.5000	65.1491	5.60342	2.31476	-6.21061	-71.9997	-51.9604	42.9495	7.17271	-2.32544	-1.28269
0.5007	62.7108	8.93044	5.35776	-10.4784	-48.2057	-55.9397	52.4176	11.7404	-3.84204	0
0.5013	59.9676	-2.6266	0.780256	-13.8226	-50.9505	-65.6966	42.9495	14.7736	-9.03216	0
0.5020	56.6149	-12.6952	-1.97665	-2.22945	-86.9589	-97.7222	22.1966	21.197	-8.1222	0
0.5027	56.6149	-10.8566	1.37845	6.62465	-94.5929	-126.725	-6.18376	27.2991	-6.90893	0
0.5033	55.7006	-7.8798	2.91295	-9.55478	-59.8025	-131.011	-41.2772	30.6535	-13.009	0
0.5040	50.5191	-9.36821	0.468153	-31.8493	-35.3908	-111.765	-64.1595	28.5124	-18.5024	0.320672
0.5047	45.3377	-13.921	-0.130043	-34.5883	-26.8476	-76.0657	-64.7731	26.3713	-16.9859	0.320672
0.5053	43.8137	-16.9854	1.09236	-25.7342	-14.3245	-46.7567	-52.2612	36.149	-12.4024	0
0.5060	43.5089	-12.6952	-3.19905	-18.7274	-13.724	-26.0184	-29.3789	49.2812	-8.42552	0
0.5067	44.4233	-6.30384	-8.37474	-10.4784	-20.7404	0.229575	-2.21364	48.0679	-2.93208	0.320672
0.5073	41.985	-7.52959	9.33706	-4.07671	-25.3208	6.3133	12.1269	43.4645	0.101106	0.320672
0.5080	37.4131	-2.6266	30.6901	-1.01918	-32.9377	-10.1395	8.15679	45.9268	0.741446	-0.320672
0.5087	34.67	19.9622	17.8679	2.64349	-36.9176	-8.34121	-4.95663	24.5514	2.25804	-0.320672
0.5093	34.67	23.9021	0.18206	4.77739	-31.7197	8.1499	-15.6399	-20.3048	4.38127	0
0.5100	34.3652	1.3133	0.780256	2.64349	-23.1765	26.7837	-16.2534	-48.9957	4.98791	0
0.5107	29.1837	-2.6266	5.66986	-1.30582	-16.16	48.1341	-13.5104	-38.0047	2.86468	0.320672
0.5113	27.355	6.21629	14.8249	-1.91096	-9.74406	60.0337	-14.7255	-3.21166	1.04476	0.320672
0.5120	32.2317	2.80171	4.44746	3.56712	-1.20085	60.952	-15.3391	36.149	5.89787	0
0.5127	31.0125	-2.97681	-28.5053	6.01951	3.97997	48.1341	-17.4685	69.7287	8.0548	0
0.5133	32.2317	-1.13819	-30.664	7.22979	7.03357	39.9077	-11.9825	73.3686	8.66144	0
0.5140	36.8035	0.0875534	-12.0419	4.49075	10.9964	51.1951	-6.18376	53.2422	11.088	0
0.5147	31.3173	-13.921	-13.5504	-1.01918	14.6676	50.5829	-17.4685	44.3923	8.66144	0
0.5153	29.1837	-37.7355	-10.1953	6.62465	18.3216	34.3979	-22.353	48.3533	8.96476	0
0.5160	28.879	-41.0625	-5.01964	9.36369	19.248	26.4776	-21.4386	16.0226	5.89787	0
0.5167	20.6496	-20.9253	-12.0419	-1.30582	16.1944	24.9471	-19.3092	-44.7135	-3.53872	0
0.5173	19.1256	-10.2437	-6.55415	-1.30582	12.2144	21.58	0.529349	-81.0409	-2.93208	-0.320672
0.5180	19.1256	-9.98109	-0.754247	7.83492	8.56036	9.06819	9.99748	-101.167	4.38127	-0.320672
0.5187	7.16259	-5.69097	-10.8195	9.96882	3.37954	-9.52734	-6.79733	-98.4196	4.68459	0
0.5193	1.37156	-6.04118	-12.0419	12.4212	-6.39883	-14.731	-11.369	-35.5781	6.23489	0.320672
0.5200	4.72426	-7.8798	-8.37474	12.7079	-13.1064	-7.11681	-5.26943	15.7015	7.14484	0
0.5207	-1.67635	-1.75107	-15.9952	7.83492	-12.506	12.1292	-9.54032	6.2449	3.168	0
0.5213	-12.344	5.2532	-23.9278	5.09588	-14.0157	34.704	-12.5961	0.749388	0.101106	0
0.5220	-10.5153	4.99054	-18.44	4.77739	-16.4688	36.5406	-11.6697	11.4192	-3.53872	0
0.5227	-2.59072	-4.46522	-7.46445	3.88561	-21.6497	28.9264	-7.71166	29.4402	-6.60561	0
0.5233	-2.89551	-15.1467	-7.15234	1.71986	-28.0656	28.3142	1.14291	37.0768	-6.60561	0
0.5240	-3.20031	-17.9484	-9.90925	-2.54794	-17.6868	25.8654	2.35801	1.07055	-6.90893	0
0.5247	0.457187	-14.2712	-8.06264	-7.42088	3.97997	30.4186	-6.48453	-34.0436	-9.03216	0
0.5253	-1.98114	-4.46522	-5.61784	-11.402	14.05	52.4195	-15.0263	-26.1215	-12.0991	0
0.5260	-6.55301	3.41458	-2.26274	-14.4277	15.268	67.648	-15.0263	-11.7761	-13.3123	0
0.5267	-2.89551	7.09182	4.13535	-12.6123	15.5768	61.8703	-3.74154	-10.5271	-9.94212	-0.320672
0.5273	-2.28593	12.6077	10.2474	-10.7651	8.86915	43.2365	1.44368	-3.21166	-9.6388	0
0.5280	-6.8578	17.5107	9.33706	-12.899	-0.291636	30.4186	-2.51441	2.28385	-12.7057	0
0.5287	-8.07696	11.9948	-4.70754	-11.402	-8.21726	32.5613	-1.29931	-7.17271	-12.0991	-1.28269
0.5293	-9.29613	-2.97681	-22.1072	-5.89212	-15.2508	36.2345	-0.384981	-10.2416	-7.21225	-0.962017
0.5300	-5.63863	-6.91672	-26.3726	0.222945	-14.3245	33.4796	2.97157	1.6772	-1.11217	0
0.5307	-0.152396	-0.78798	-19.6624	1.71986	-7.30805	16.9885	14.5691	9.92046	1.34808	0
0.5313	-5.33384	3.41458	-6.84024	-4.07671	0.325946	-13.8127	15.1827	12.6682	-2.62876	0
0.5320	-11.1249	10.1562	9.93526	-7.73938	4.88919	-26.9367	5.4138	13.5603	-4.44868	0
0.5327	-9.90571	15.3218	14.5128	-6.81575	5.19798	-18.0981	-0.0842147	3.17598	-1.11217	0
0.5333	-8.38175	13.8334	11.7559	-7.10239	5.19798	-9.83344	-4.65587	-0.785073	1.04476	-0.320672
0.5340	-8.07696	10.7691	10.5595	-12.899	7.03357	-2.52532	-8.92675	12.6682	0.101106	-0.320672
0.5347	-8.99134	4.64033	2.91295	-20.2243	8.86915	2.67837	-11.9825	17.5214	-1.11217	-0.320672
0.5353	-8.38175	-8.49268	-2.57484	-18.0904	10.0872	5.395	-8.62599	12.0259	0.404425	-0.320672
0.5360	-7.16259	-16.3725	-3.19905	-14.4277	9.46958	5.0889	-2.21364	5.92373	1.95472	0
0.5367	-8.68654	-9.98109	-5.61784	-15.6698	8.56036	2.06617	-0.685748	0.749388	0.741446	0
0.5373	-4.11468	1.3133	-2.88695	-12.2938	10.6876	5.0889	3.58514	0.14274	3.47132	0
0.5380	-0.152396	9.89353	-1.35244	-8.63116	12.2144	8.76209	7.24246	-5.95942	6.53821	0
0.5387	-7.16259	7.09182	-6.24205	-12.899	11.3052	4.7828	3.8859	-19.377	3.168	0
0.5393	-8.38175	1.3133	-2.26274	-13.2175	12.2144	6.0072	5.71457	-32.2237	3.77463	-0.320672
0.5400	-7.46738	6.21629	0.780256	-11.402	13.1408	6.6194	6.64093	-25.4792	4.07795	0
0.5407	-12.9536	17.5107	-6.84024	-12.6123	11.3052	4.7828	2.97157	3.49714	1.6514	0
0.5413	-9.90571	20.2248	-1.04034	-7.42088	12.832	10.5987	6.64093	16.3081	5.59455	0
0.5420	-4.72426	4.64033	9.02496	-5.57362	13.7412	12.4353	8.46959	10.8126	7.44816	0
0.5427	-7.16259	-6.65406	4.44746	-10.1599	12.2144	9.37429	3.28437	9.92046	4.07795	0
0.5433	-4.72426	4.02746	2.60085	-5.89212	14.3588	15.1902	4.49947	8.67148	7.75148	-0.320672
0.5440	-3.5051	11.9948	-5.61784	-4.36335	14.9763	15.8024	3.28437	6.85154	9.26807	0
0.5447	-5.63863	5.2532	-17.2176	-7.42088	13.4495	11.517	-2.51441	20.5903	6.23489	0
0.5453	0.152396	4.64033	-7.77655	-3.75821	15.8856	18.8251	-0.685748	35.8279	9.26807	0
0.5460	-1.37156	8.66778	-3.79724	-9.23629	15.8856	28.0081	-3.44077	25.158	8.0548	0
0.5467	-8.38175	6.21629	-12.354	-21.1479	14.05	33.1735	-10.7554	14.167	2.25804	-0.320672
0.5473	-5.63863	17.1605	-9.90925	-22.3582	14.3588	37.1528	-8.92675	15.0948	3.168	0
0.5480	-1.06677	36.4222	7.17835	-17.1986	15.5768	39.6016	-6.48453	8.67148	4.98791	0
0.5487	1.06677	33.7081	22.1333	-13.2175	16.1944	42.6243	-7.71166	-0.785073	5.59455	-0.320672
0.5493	1.98114	20.575	15.7352	-11.0835	16.486	43.2365	-8.62599	-9.63498	5.59455	-0.320672
0.5500	2.59072	23.0265	5.95595	-11.0835	15.268	44.4609	-6.48453	-17.2716	4.98791	-0.320672
0.5507	3.80989	31.2566	10.5595	-11.0835	13.7412	45.0731	-0.685748	-16.3438	5.29123	-0.320672
0.5513	-0.152396	16.5476	9.62315	-10.4784	12.832	38.3772	0.529349	2.89049	5.59455	0
0.5520	-1.37156	-7.26693	5.35776	-5.89212	13.7412	32.5613	1.75648	36.7557	8.0548	0
0.5527	0.152396	-9.018	8.71286	-2.22945	14.9763	26.1715	8.15679	52.6356	10.4813	0
0.5533	-2.59072	-9.98109	7.80256	-4.96849	15.268	9.37429	12.4397	23.6236	9.26807	0
0.5540	-5.02905	-14.8841	0.780256	-8.02602	14.9763	-8.60904	16.097	-32.8303	8.66144	0
0.5547	-5.33384	-16.3725	-12.6401	-9.23629	13.4495	-21.1209	19.7544	-59.0589	7.75148	0
0.5553	-3.20031	-21.8883	-21.7951	-9.23629	11.614	-28.7733	21.8958	-37.7192	6.84152	-0.320672
0.5560	1.98114	-6.04118	-4.10935	-6.81575	11.3052	-37.3059	26.1667	-14.5238	8.66144	-0.320672
0.5567	2.59072	23.2892	25.2023	-8.63116	10.6876	-46.1827	27.9954	0.428221	7.75148	-0.320672
0.5573	2.28593	20.575	32.5107	-11.402	10.0872	-40.0608	20.3679	27.9058	6.23489	0
0.5580	3.5051	7.44204	22.1333	-9.87328	8.56036	-19.6286	8.15679	48.6745	6.84152	0
0.5587	2.28593	16.2849	11.7559	-8.02602	6.72477	-8.91514	-0.0842147	54.17	6.53821	-0.320672
0.5593	2.59072	5.86608	-6.84024	-4.36335	7.94278	-11.3639	0.842147	58.7377	8.35812	-0.962017
0.5600	-0.761978	-15.4969	-21.509	-2.22945	10.9964	-9.83344	2.35801	46.5334	10.4813	-0.641344
0.5607	-10.5153	3.41458	-15.7091	-5.57362	11.614	-6.19851	-2.51441	16.9147	7.44816	0
0.5613	-13.868	15.6721	-9.59715	-8.02602	11.614	-3.13752	-6.18376	-22.7314	4.98791	0
0.5620	-6.55301	6.82916	-25.4623	-7.73938	11.614	-0.382624	-4.65587	-56.9178	5.59455	-0.320672
0.5627	-1.37156	24.5149	-27.9071	-6.21061	10.9964	-0.0765248	-2.82721	-29.7614	5.89787	-0.320672
0.5633	-6.24822	32.1321	22.1333	-3.15308	10.9964	1.14787	-0.998545	34.9357	8.35812	0
0.5640	-20.8782	3.7648	46.2432	-4.68184	9.77837	-1.60702	-2.21364	80.3986	7.14484	0
0.5647	-32.1555	-9.018	7.49045	-10.4784	7.65115	-6.19851	-6.48453	86.5007	2.86468	-0.320672
0.5653	-30.3267	8.31757	-24.8641	-11.402	7.03357	-4.66802	-5.87096	17.5214	3.168	0
0.5660	-25.1453	23.5519	-30.0398	-8.63116	7.03357	-2.52532	-3.74154	-93.2452	4.07795	0
0.5667	-15.6967	27.842	-10.5074	-4.36335	8.25157	-0.382624	-1.60008	-152.768	5.29123	0
0.5673	-0.761978	18.3862	23.9799	-2.22945	8.86915	1.14787	0.842147	-144.81	6.23489	0.320672
0.5680	2.28593	-4.46522	42.2899	-4.36335	7.65115	-0.382624	-0.685748	-95.6718	5.29123	0
0.5687	-5.94343	-1.40085	44.4226	-4.96849	7.34236	-0.994823	-1.60008	-40.7524	5.29123	-0.320672
0.5693	-14.4776	18.7364	35.2676	-5.57362	7.03357	-1.30092	-1.91288	-36.4702	4.98791	0
0.5700	-15.3919	7.09182	20.3127	-4.96849	7.34236	0.535674	-0.998545	-46.8546	5.59455	0
0.5707	-7.46738	-5.0781	13.6025	-0.700684	8.56036	4.7828	3.28437	-34.3291	8.66144	-0.320672
0.5713	-6.55301	3.41458	6.89226	-1.91096	7.94278	3.29057	2.35801	-17.2716	7.44816	0
0.5720	-13.5632	1.05064	4.13535	-4.07671	6.72477	1.76007	0.842147	37.3623	4.98791	0
0.5727	-13.868	2.18883	0.780256	-3.43972	7.03357	2.37227	1.44368	55.6688	5.29123	0
0.5733	-7.46738	11.7322	-19.6624	-4.96849	6.72477	0.535674	-0.685748	-14.2027	4.38127	0
0.5740	0.761978	-3.58969	-40.1051	-1.30582	7.65115	4.4767	2.67081	-42.2869	7.14484	-0.320672
0.5747	1.98114	-6.30384	-47.1274	1.71986	8.56036	7.5377	6.64093	-29.4759	9.57139	0
0.5753	-6.8578	28.4548	-34.6173	-1.91096	7.03357	3.29057	2.67081	-20.3048	6.53821	0
0.5760	-10.5153	40.7123	7.49045	-4.07671	5.50677	2.37227	0.529349	54.17	4.38127	0
0.5767	-7.77217	13.8334	45.645	-4.36335	4.59755	2.37227	1.14291	136.567	4.38127	0
0.5773	-6.55301	-11.8197	42.8881	-4.36335	3.97997	2.06617	0.228583	106.663	3.77463	0
0.5780	-4.41947	-15.7596	20.9109	-0.0955478	5.19798	6.6194	3.8859	8.386	7.14484	0
0.5787	-8.38175	-2.6266	1.37845	0.509588	5.19798	6.9255	5.11303	-69.7287	8.35812	0
0.5793	-13.2584	11.3819	-20.2866	-3.15308	4.28876	3.90277	1.75648	-88.3564	5.59455	0
0.5800	-8.68654	0.0875534	-38.8827	-3.43972	4.59755	4.4767	1.75648	-28.2269	5.29123	0
0.5807	-3.20031	-42.9012	-43.7723	-4.96849	4.28876	1.45397	-0.384981	3.17598	3.47132	0
0.5813	4.11468	-69.78	-34.9294	-2.83459	4.88919	2.98447	0.228583	-43.8213	4.38127	-0.320672
0.5820	10.2105	-62.4256	-28.2192	2.03835	6.72477	7.5377	5.4138	-56.9178	9.26807	0
0.5827	12.725	-58.223	-30.0398	-0.700684	5.81556	4.7828	3.58514	-50.5301	6.84152	-0.641344
0.5833	16.3825	-59.7114	-19.9745	-2.54794	5.19798	3.90277	1.44368	-39.5391	4.68459	-0.962017
0.5840	6.8578	-64.8771	-7.15234	-2.22945	4.59755	3.90277	1.44368	46.5334	4.98791	0
0.5847	-10.2105	-74.9457	-12.0419	-4.96849	3.07075	0.535674	-1.60008	145.096	2.25804	0
0.5853	-19.659	-61.55	-13.2643	-1.30582	4.28876	4.7828	1.75648	162.189	4.68459	0
0.5860	-33.3746	-23.3768	-5.01964	2.64349	5.81556	7.2316	5.4138	112.765	8.35812	0
0.5867	-47.0902	0.0875534	-1.35244	-0.700684	3.67118	2.37227	1.75648	76.723	5.29123	0
0.5873	-44.9567	-29.7682	-1.04034	-2.54794	2.76196	0.229575	0.529349	78.2575	3.168	0
0.5880	-37.0321	-78.9732	4.75956	-2.83459	3.07075	-0.688724	-0.998545	63.6266	1.95472	0
0.5887	-27.8884	-35.6342	23.9799	-1.30582	3.37954	1.14787	-0.998545	8.67148	2.25804	-0.641344
0.5893	-17.8303	63.914	28.8695	4.49075	4.88919	6.3133	4.80024	-30.0826	6.23489	-1.60336
0.5900	-17.8303	76.9594	2.91295	3.56712	4.59755	3.90277	4.49947	-14.5238	5.59455	-0.320672
0.5907	-20.2686	47.3664	-14.7728	-1.30582	2.76196	-0.688724	-0.0842147	-6.56606	2.86468	0.320672
0.5913	-14.1728	62.6882	-14.7728	-1.30582	1.85274	-0.382624	-1.29931	-30.0826	2.25804	-0.320672
0.5920	-8.68654	84.0512	-16.6194	0.222945	1.54395	0.841773	-0.0842147	-42.5723	2.25804	-0.320672
0.5927	-5.94343	73.3697	-17.8418	4.77739	3.07075	5.395	4.49947	-39.2179	5.59455	0
0.5933	-4.41947	40.975	-9.28504	6.30616	3.97997	6.6194	6.02736	-33.7224	7.75148	0
0.5940	-3.80989	7.09182	3.82325	2.03835	2.45317	1.14787	0.842147	-23.6592	3.77463	0
0.5947	-0.152396	1.05064	8.40075	1.11472	2.14438	-0.0765248	-0.685748	-5.67393	2.86468	-0.320672
0.5953	2.28593	15.3218	-2.26274	1.71986	2.14438	-0.0765248	-0.384981	17.2359	3.47132	-0.320672
0.5960	9.29613	-0.175107	2.31476	2.35685	1.23516	1.14787	-0.0842147	17.2359	2.86468	-0.320672
0.5967	17.2969	-31.957	28.8695	6.62465	2.45317	6.6194	4.1987	22.1248	6.53821	0
0.5973	-1.37156	-54.5458	26.1126	6.91129	3.07075	5.0889	4.49947	80.3986	7.14484	0
0.5980	-30.6315	-67.9414	8.71286	3.24863	3.07075	-0.382624	0.228583	116.726	3.77463	0.320672
0.5987	-32.765	-30.381	19.4024	1.71986	3.07075	-1.91312	-1.29931	54.4555	2.86468	0.320672
0.5993	-16.0015	11.1193	27.0229	1.71986	2.45317	-1.60702	-1.91288	-38.6113	2.25804	0
0.6000	-5.63863	-9.36821	19.4024	5.09588	2.76196	1.45397	1.44368	-65.4822	4.07795	-0.320672
0.6007	-6.55301	-29.5055	8.40075	7.83492	4.28876	4.20887	5.4138	-42.8935	6.84152	-0.320672
0.6013	-6.24822	-24.6025	-1.66455	5.09588	3.37954	0.535674	2.35801	-44.7135	4.38127	0
0.6020	-0.152396	-10.594	0.780256	2.64349	1.85274	-2.21922	-0.998545	-74.0109	2.25804	-0.320672
0.6027	-3.5051	3.7648	5.04565	2.96198	1.54395	-1.91312	-0.685748	-73.7255	2.56136	0
0.6033	-9.90571	-0.52532	13.2904	5.38253	1.85274	-0.0765248	0.842147	-58.7734	3.168	0.320672
0.6040	-4.72426	25.7407	33.1349	9.36369	3.37954	3.90277	4.1987	-64.5544	6.23489	0
0.6047	-3.20031	92.8941	41.6657	7.54828	2.45317	2.37227	3.8859	-52.3501	5.29123	0.320672
0.6053	-14.1728	102	29.7798	3.24863	0.017155	-1.60702	0.228583	-20.3048	1.95472	0.320672
0.6060	-19.9638	45.2651	7.49045	3.56712	0.325946	-0.994823	-0.384981	-17.2716	1.95472	0
0.6067	-18.4399	15.6721	-4.70754	3.56712	0.017155	-1.60702	-0.685748	-38.0047	1.6514	0
0.6073	-18.1351	24.7776	-1.35244	5.38253	0.325946	0.229575	1.14291	-43.179	3.168	0
0.6080	-18.7446	8.66778	-14.4867	8.15342	0.926372	3.29057	3.8859	-48.6745	5.29123	-0.320672
0.6087	-17.5255	-33.4454	-31.8604	6.30616	-0.291636	0.841773	2.05724	-63.0199	2.86468	-0.320672
0.6093	-12.6488	-65.2273	-20.2866	3.88561	-1.50964	-1.60702	-0.384981	-47.1757	0.404425	0
0.6100	-10.8201	-82.3002	-3.48514	2.96198	-2.72765	-2.21922	-0.998545	0.428221	-0.202213	-0.320672
0.6107	-9.60092	-84.7517	3.82325	4.17226	-3.34523	-0.994823	-0.384981	52.6356	0.101106	-0.320672
0.6113	-2.28593	-93.5946	8.40075	7.54828	-2.12722	2.98447	2.97157	74.9031	2.56136	0
0.6120	5.33384	-90.2675	-7.46445	8.15342	-1.81843	2.67837	2.97157	60.2722	3.168	0.320672
0.6127	18.5161	-70.3929	-28.5053	6.01951	-3.03644	0.229575	-0.384981	53.8489	0.404425	0
0.6133	34.9748	-147.265	-24.552	5.38253	-3.94566	0.229575	-0.685748	62.3776	-0.202213	0
0.6140	40.461	-327.625	-10.8195	4.77739	-4.25445	-0.994823	-0.685748	66.0532	-0.80885	0
0.6147	41.6802	-493.714	-5.01964	6.62465	-3.03644	0.535674	0.228583	56.5966	0.741446	-0.320672
0.6153	37.4131	-573.65	-11.1316	9.36369	-1.50964	3.59667	2.97157	8.67148	3.77463	-0.320672
0.6160	27.355	-591.073	-28.5053	6.62465	-3.03644	-0.0765248	0.842147	-41.0736	1.04476	0.320672
0.6167	20.04	-526.634	-30.664	3.88561	-3.94566	-3.13752	-1.29931	-54.17	-1.11217	0
0.6173	-1.06677	-228.164	-5.92994	2.96198	-2.72765	-3.13752	-1.60008	-44.7135	0.101106	0
0.6180	-30.3267	128.616	3.22506	4.49075	-0.600426	-2.83142	-1.29931	5.63825	1.6514	0
0.6187	-44.9567	218.621	-9.90925	9.0452	2.14438	0.841773	2.35801	55.99	4.98791	-0.641344
0.6193	-53.567	196.295	-9.59715	10.2873	2.45317	1.45397	3.28437	64.2332	5.89787	-0.962017
0.6200	-58.4437	285.161	-8.37474	6.91129	1.23516	-1.60702	0.842147	78.5786	3.168	-0.320672
0.6207	-53.567	364.747	-19.9745	4.77739	0.325946	-4.36192	-1.60008	83.753	1.04476	0
0.6213	-43.7375	349.25	-20.8848	4.49075	0.617581	-4.97411	-3.12797	42.5723	0.741446	0
0.6220	-31.5459	318.432	-6.24205	7.83492	1.54395	-1.30092	-0.998545	-3.21166	3.168	0
0.6227	-26.6692	307.75	5.04565	10.574	2.45317	1.14787	1.44368	-18.1637	5.29123	0
0.6233	-31.8507	276.931	1.09236	8.15342	1.23516	-1.30092	-0.685748	-16.0226	3.168	0
0.6240	-33.6794	224.662	-4.10935	5.38253	-1.20085	-3.74972	-3.74154	-37.7192	0.404425	0
0.6247	-31.2411	174.056	-4.39544	5.09588	-1.50964	-4.05582	-4.3551	-60.8788	0.404425	0
0.6253	-25.4501	116.358	-12.6401	8.15342	-0.291636	-0.382624	-0.685748	-20.9115	3.168	0
0.6260	-17.8303	70.3054	-12.6401	10.574	0.017155	2.67837	2.67081	43.7856	4.68459	0
0.6267	-13.2584	66.0153	6.89226	8.15342	-1.20085	-0.0765248	0.529349	70.3354	1.95472	0
0.6273	-3.80989	82.2126	25.4884	4.77739	-1.81843	-3.13752	-2.82721	80.7197	-1.11217	0
0.6280	14.5538	76.0839	27.335	3.24863	-1.81843	-4.05582	-3.12797	94.1374	-1.71881	0
0.6287	35.2796	53.8453	34.0452	5.38253	-0.291636	-1.91312	-0.685748	97.8129	0.101106	0
0.6293	48.0808	69.6925	85.6201	9.36369	2.14438	2.37227	2.67081	102.987	2.25804	0
0.6300	41.985	101.737	131.083	9.36369	2.76196	2.06617	2.67081	138.994	2.86468	0
0.6307	21.564	47.9793	121.642	6.62465	1.54395	-1.30092	0.228583	203.691	1.6514	0
0.6313	2.28593	-86.853	107.285	3.88561	0.017155	-3.74972	-2.82721	234.523	-0.80885	0
0.6320	-7.16259	-173.881	80.1323	2.96198	-1.20085	-3.74972	-4.0423	168.291	-1.41549	-0.320672
0.6327	-20.2686	-177.208	8.71286	5.38253	-0.909217	-0.382624	-0.685748	73.6898	0.404425	0
0.6333	-50.2143	-143.325	-47.1274	8.15342	-0.291636	2.67837	2.97157	29.1191	1.6514	0
0.6340	-74.2928	-86.853	-51.7049	5.38253	-1.20085	-0.0765248	1.14291	-2.60501	-0.505531	-0.320672
0.6347	-64.5395	-81.0744	-51.7049	2.03835	-2.72765	-2.83142	-2.51441	-48.6745	-2.02213	0
0.6353	-44.6519	-89.6547	-70.0149	3.56712	-2.41886	-1.60702	-1.29931	-79.8276	-0.80885	0.320672
0.6360	-40.6896	35.1965	-76.7251	5.38253	-1.50964	0.229575	0.842147	-70.6565	-0.202213	0
0.6367	-36.7273	186.839	-60.8599	7.22979	0.017155	1.76007	1.44368	-80.4343	0.404425	-0.320672
0.6373	-24.5357	210.653	-37.9724	6.62465	0.017155	0.229575	0.228583	-161.618	0.404425	0
0.6380	-11.7345	179.835	-13.5504	2.96198	-1.50964	-3.74972	-3.12797	-222.318	-1.41549	0
0.6387	-4.11468	171.867	-8.97294	0.828081	-2.41886	-5.28021	-5.87096	-194.27	-3.2354	0
0.6393	-3.5051	162.762	-23.0175	1.71986	-2.12722	-4.66802	-5.26943	-151.234	-2.93208	-0.320672
0.6400	-0.761978	116.358	-15.397	4.77739	-1.50964	-0.994823	-1.29931	-131.999	-0.505531	-0.320672
0.6407	3.20031	50.781	-5.61784	7.54828	-0.600426	2.37227	2.35801	-99.0262	1.95472	0
0.6413	-3.80989	-7.52959	-21.509	4.77739	-1.50964	-0.382624	0.842147	-80.1131	-0.505531	0
0.6420	-9.90571	-56.3844	-41.0154	1.11472	-2.41886	-3.44362	-1.91288	-98.4196	-2.93208	0
0.6427	-7.46738	-67.3286	-48.0377	1.71986	-2.41886	-2.83142	-1.29931	-90.8186	-2.32544	0
0.6433	-4.41947	-39.9243	-50.1964	3.56712	-2.41886	-1.91312	-0.685748	-31.2959	-1.11217	0
0.6440	5.33384	-6.65406	-37.0621	5.38253	-1.50964	0.535674	0.842147	31.8668	1.04476	0
0.6447	14.8586	37.0351	-8.97294	4.77739	-1.50964	-0.0765248	0.529349	64.8399	0.741446	0
0.6453	9.90571	93.1568	-7.77655	0.828081	-3.65402	-4.36192	-3.74154	72.4765	-3.2354	0
0.6460	4.41947	130.717	-24.8641	1.43322	-3.94566	-3.44362	-3.74154	49.2812	-3.2354	-0.320672
0.6467	8.38175	122.137	-26.6847	5.70102	-2.12722	1.45397	0.228583	9.92046	-0.202213	-0.320672
0.6473	18.2113	94.9954	-12.9522	7.22979	-1.20085	2.67837	2.97157	-34.3291	1.04476	0
0.6480	31.3173	74.2453	12.9783	5.70102	-1.50964	0.535674	1.14291	-101.774	-0.202213	-0.320672
0.6487	43.8137	35.8093	34.9555	2.35685	-3.03644	-0.0765248	-3.12797	-118.582	-3.2354	-1.28269
0.6493	56.0054	-13.6583	55.7103	1.71986	-3.03644	3.90277	-5.5702	-67.3021	-3.53872	-0.641344
0.6500	66.3682	-44.1269	88.377	3.24863	-1.20085	6.3133	-7.09809	-30.0826	-1.41549	0.320672
0.6507	69.1114	-41.0625	109.106	4.17226	0.617581	5.395	-8.01242	7.77936	-0.202213	0.320672
0.6513	59.9676	-32.8325	101.173	4.77739	1.54395	5.0889	-7.09809	70.6209	1.04476	0
0.6520	40.7658	-61.2874	60.5999	6.01951	1.23516	5.0889	-6.18376	114.585	1.95472	0
0.6527	11.1249	-29.5055	5.35776	4.49075	0.017155	0.229575	-5.87096	107.555	0.404425	0
0.6533	-11.7345	59.8865	-22.4193	1.71986	-0.909217	-7.11681	-4.95663	80.0774	-1.71881	0
0.6540	-12.344	21.4506	-23.6417	0.828081	-2.41886	-9.22124	-4.95663	62.0921	-2.32544	0
0.6547	-4.72426	-99.3731	-24.552	1.43322	-4.87203	-8.34121	-6.18376	76.723	-2.32544	0
0.6553	-0.761978	-133.869	-35.5276	3.24863	-6.39883	-8.34121	-2.51441	92.6029	-0.80885	0
0.6560	-2.89551	-99.986	-39.819	3.56712	-6.99926	-10.1395	6.94169	48.0679	0.404425	-0.320672
0.6567	-5.94343	-82.9131	-28.8174	2.96198	-5.18082	-12.8944	16.7106	-22.7314	0.741446	-0.320672
0.6573	-3.80989	-87.816	-19.9745	3.56712	-3.94566	-9.83344	23.4237	-87.1431	1.04476	-0.320672
0.6580	-10.8201	-66.7157	-6.84024	2.35685	-3.34523	-5.58631	20.3679	-121.615	1.04476	-0.320672
0.6587	-16.3063	-64.6144	24.292	4.77739	-4.56324	3.59667	12.7405	-94.7797	0.404425	-0.320672
0.6593	27.9646	-161.361	57.843	-3.15308	-10.6704	16.7207	11.8261	-66.0888	-5.39233	-0.320672
0.6600	51.1287	-224.224	58.7533	-11.402	-0.291636	6.6194	1.75648	-65.161	-0.80885	0
0.6607	18.2113	-178.084	28.2453	5.70102	8.25157	-0.382624	-6.48453	-83.182	5.89787	0
0.6613	17.2969	-83.1757	2.00266	11.4976	-1.50964	9.37429	1.14291	-137.174	-0.202213	0
0.6620	28.2694	42.8136	9.02496	6.01951	-4.25445	9.37429	7.55526	-163.438	1.04476	0
0.6627	24.3071	107.866	42.2899	10.574	-1.20085	6.9255	12.4397	-111.552	6.84152	-0.320672
0.6633	26.4406	44.3896	49.0001	8.15342	-0.291636	4.20887	12.4397	-19.6982	5.29123	0
0.6640	38.9371	-30.9939	25.8005	2.03835	0.017155	-0.382624	6.32813	54.4555	1.34808	0.320672
0.6647	45.3377	54.7209	-3.19905	-1.30582	-0.291636	-0.382624	-0.685748	95.0652	-2.62876	0
0.6653	25.5262	171.867	-34.6173	-1.62431	-0.600426	1.76007	-3.12797	119.474	-2.32544	-0.320672
0.6660	-2.89551	121.524	-56.5945	3.24863	-0.291636	5.395	1.44368	118.225	2.56136	-0.320672
0.6667	-21.4878	50.1681	-49.2601	5.38253	-0.909217	7.5377	3.58514	90.1763	3.47132	-0.320672
0.6673	-31.5459	59.011	-26.3726	5.09588	-3.34523	2.98447	0.529349	65.7677	1.95472	-0.320672
0.6680	-37.6417	-2.01373	-41.9517	5.09588	-4.25445	-7.72901	-2.51441	21.5181	1.34808	0
0.6687	-37.6417	-116.183	-77.9475	2.35685	-3.65402	-15.0371	-2.82721	-62.1278	-0.202213	0
0.6693	-25.1453	-157.946	-71.8615	2.96198	-1.81843	-11.3639	-0.0842147	-92.6386	-0.202213	0
0.6700	-10.2105	-150.329	-20.2866	6.01951	0.017155	-5.28021	1.44368	-37.398	1.6514	0
0.6707	-5.02905	-139.648	52.9534	4.77739	-0.291636	-0.994823	-1.60008	3.81831	1.04476	0
0.6713	-9.90571	-153.394	89.5994	1.71986	-1.81843	1.45397	-5.26943	12.9537	-1.11217	0
0.6720	-22.4021	-177.821	55.1121	0.222945	-2.72765	0.229575	-6.48453	31.2602	-1.71881	0
0.6727	-37.9465	-170.817	-2.88695	2.03835	-2.41886	1.76007	-4.3551	79.7919	0.101106	-0.320672
0.6733	-48.0046	-121.699	-66.6598	6.01951	-1.20085	1.45397	2.67081	153.339	3.77463	0
0.6740	-51.7383	31.8694	-97.1678	5.38253	-1.50964	-7.42291	6.32813	201.264	5.29123	0
0.6747	-55.7006	260.734	-27.9071	2.03835	-2.72765	-13.5066	5.71457	189.952	3.47132	0
0.6753	-57.8341	343.997	52.0431	1.11472	-4.87203	-14.731	9.07112	111.516	1.34808	-0.320672
0.6760	-56.9197	271.415	31.0022	2.96198	-6.70762	-15.6493	12.4397	-2.60501	1.34808	0
0.6767	-46.1758	211.617	-26.6847	6.30616	-5.18082	-9.83344	14.2684	-99.0262	3.77463	-0.320672
0.6773	-25.7548	150.854	-36.4379	6.62465	-3.65402	-3.13752	14.8699	-157.336	4.38127	-0.320672
0.6780	-18.7446	42.5509	-21.509	2.35685	-5.18082	-3.44362	8.77035	-112.765	1.95472	-0.320672
0.6787	-36.1177	-45.9655	-20.8848	-1.30582	-7.30805	-2.83142	-1.60008	19.9837	-0.80885	-0.641344
0.6793	-61.7964	-82.9131	-23.0175	-1.91096	-8.52605	-4.05582	-6.18376	115.513	-2.32544	-0.962017
0.6800	-71.8545	-111.28	-10.1953	0.509588	-7.92563	-4.05582	-3.12797	171.645	-0.505531	-0.641344
0.6807	-58.4437	-154.357	7.49045	2.96198	-6.09004	1.14787	1.44368	157.015	2.25804	0
0.6813	-40.08	-203.474	16.9576	0.828081	-6.09004	2.67837	1.14291	19.377	1.04476	-0.320672
0.6820	-38.5561	-210.128	5.35776	-1.62431	-6.09004	1.14787	-0.384981	-106.984	-0.505531	-0.320672
0.6827	-54.1766	-129.929	-19.9745	-2.22945	-5.47246	0.229575	2.35801	-121.329	-0.202213	0
0.6833	-55.3958	-75.9088	-24.2399	-0.700684	-4.87203	0.841773	5.11303	-65.4822	0.741446	-0.320672
0.6840	-26.3644	-162.236	-5.61784	2.03835	-2.12722	4.4767	5.11303	-1.07055	4.07795	0
0.6847	7.46738	-312.741	13.2904	1.11472	-0.909217	6.3133	-0.685748	23.9447	4.07795	0
0.6853	41.6802	-418.593	23.9799	-2.54794	-0.909217	4.4767	-6.79733	26.0858	1.6514	-0.641344
0.6860	72.8451	-405.46	24.5781	-3.15308	0.926372	1.45397	-8.01242	90.1763	1.95472	-0.320672
0.6867	65.7587	-303.548	22.7575	-1.62431	2.76196	-4.05582	-6.48453	229.313	2.56136	0.320672
0.6873	24.9167	-206.188	31.6004	1.71986	3.67118	-2.52532	-1.91288	339.187	4.07795	0
0.6880	-24.8405	-82.6504	62.4205	2.64349	2.14438	4.4767	1.14291	353.854	4.68459	-0.320672
0.6887	-90.4467	140.786	107.597	0.222945	-1.50964	4.20887	6.94169	303.181	3.168	0
0.6893	-148.128	370.001	102.708	0.509588	-2.41886	-2.21922	14.2684	208.865	3.47132	0
0.6900	-153.615	459.042	30.378	4.49075	-1.81843	-13.8127	10.9118	93.8162	5.29123	0.320672
0.6907	-117.649	412.989	-26.0865	10.2873	-1.81843	-23.2636	7.85602	-58.4522	9.57139	0
0.6913	-80.6934	319.307	-43.7723	12.1027	-1.81843	-23.2636	10.2982	-244.015	10.4813	0
0.6920	-58.1389	270.19	-63.3047	8.15342	-1.81843	-17.792	4.80024	-323.057	5.89787	0
0.6927	-50.2143	257.67	-75.5027	4.17226	-2.12722	-10.4456	-4.3551	-259.252	2.25804	-0.320672
0.6933	-53.567	220.459	-62.0823	0.828081	-3.94566	3.29057	-8.92675	-189.666	-0.80885	-0.320672
0.6940	-48.6142	173.706	-31.5743	-0.0955478	-4.87203	22.4983	-7.71166	-146.345	-1.11217	0
0.6947	-35.8129	142.624	-20.8848	1.43322	-3.03644	25.2532	-3.44077	-78.8998	1.34808	0.320672
0.6953	-31.2411	99.8984	-47.7516	-0.414041	-0.909217	9.98649	-4.0423	-13.596	0.101106	0
0.6960	-23.3165	45.5278	-60.8599	-4.36335	0.617581	1.76007	-8.31319	15.7015	-2.32544	-0.320672
0.6967	-6.55301	51.0436	-33.707	-8.63116	0.017155	1.45397	-10.7554	25.158	-3.84204	0
0.6973	11.8107	131.33	-8.06264	-9.23629	-1.50964	3.29057	-8.92675	47.14	-3.53872	0
0.6980	32.2317	180.798	-14.1746	-4.07671	-1.81843	12.7414	-2.82721	93.8162	0.741446	-0.320672
0.6987	39.2418	160.048	-10.5074	-1.91096	-1.50964	18.8251	-1.91288	156.087	1.04476	-0.320672
0.6993	27.6598	119.423	23.9799	-4.36335	-3.03644	16.9885	-6.18376	208.865	-1.41549	-0.320672
0.7000	15.4681	15.9347	33.7331	-6.49725	-6.39883	14.2719	-8.92675	183.243	-2.62876	0
0.7007	8.99134	-80.1989	15.4231	-6.21061	-6.70762	11.8231	-10.1539	37.0768	-2.32544	0
0.7013	10.2105	-42.9012	27.9332	-2.83459	-3.65402	9.98649	-8.62599	-150.02	1.95472	0
0.7020	21.8688	-30.9939	46.8674	-2.22945	-1.50964	6.0072	-10.1539	-256.826	2.86468	0
0.7027	31.0125	-150.679	13.9146	-5.57362	-0.291636	3.29057	-14.112	-259.252	0.404425	0
0.7033	15.1634	-225.713	-43.4602	-8.02602	1.54395	2.37227	-13.5104	-186.027	-0.80885	-0.320672
0.7040	-15.3919	-166.264	-59.9496	-8.63116	2.14438	-0.994823	-14.4248	-66.6955	-2.32544	0
0.7047	-29.4123	-89.9173	-43.4602	-4.36335	2.14438	-2.83142	-12.8969	5.63825	0.741446	0
0.7053	-28.498	-37.4728	-46.2171	0.222945	2.14438	-11.3639	-4.3551	-74.3321	4.68459	-0.641344
0.7060	-13.2584	48.5921	-15.9952	-1.30582	-0.291636	-16.5676	1.44368	-220.82	3.47132	-0.320672
0.7067	1.37156	121.874	95.3733	-3.43972	-1.81843	-9.22124	2.67081	-209.222	1.95472	-0.320672
0.7073	-4.72426	188.415	170.148	-3.75821	-3.03644	-14.731	2.67081	-12.0616	0.741446	0
0.7080	-1.98114	251.891	139.328	-1.01918	-2.41886	-16.5676	8.77035	134.711	1.6514	-0.320672
0.7087	16.9921	181.06	83.1753	-0.414041	-0.909217	-8.60904	18.84	98.4196	2.86468	-0.641344
0.7093	26.7454	38.2608	42.8881	-2.54794	-3.03644	-16.8737	24.6388	28.5124	1.04476	-0.320672
0.7100	34.67	-31.6068	19.4024	-1.01918	-8.21726	-15.9554	28.9097	11.7404	1.34808	0.320672
0.7107	41.3754	-100.949	11.7559	-0.414041	-12.1972	3.59667	28.6089	-16.0226	0.741446	0.320672
0.7113	38.3275	-217.483	9.93526	0.222945	-11.2709	14.578	20.3679	0.14274	-0.505531	-0.320672
0.7120	49.9095	-318.782	5.35776	3.88561	-5.47246	16.1085	8.15679	99.6329	1.34808	-0.320672
0.7127	76.8073	-420.431	-32.1725	0.222945	-0.600426	10.2926	-10.1539	152.126	-1.41549	0
0.7133	84.4271	-527.859	-66.6598	-6.21061	0.325946	3.90277	-22.6658	164.33	-5.69565	0
0.7140	81.9888	-576.364	-8.06264	-7.73938	-2.72765	2.67837	-24.4944	244.586	-6.90893	-0.320672
0.7147	66.3682	-495.552	74.0203	-8.34451	-4.56324	2.06617	-24.1816	360.848	-6.60561	0
0.7153	7.46738	-413.69	38.0245	-4.36335	-0.909217	3.59667	-19.9107	418.23	-2.32544	0.320672
0.7160	-49.2999	-515.339	-34.9294	-1.62431	1.23516	0.841773	-15.9527	286.088	0.404425	0
0.7167	-63.0155	-518.053	-53.8376	-3.43972	0.926372	-6.50461	-15.9527	2.28385	-0.505531	-0.320672
0.7173	-68.8066	-252.241	-86.1922	-5.28698	0.926372	-11.9761	-15.3391	-157.942	-1.41549	0
0.7180	-66.673	-34.6711	-112.435	-5.89212	0.325946	-16.5676	-7.39886	-186.027	-0.505531	0
0.7187	-42.2136	172.217	-81.3026	0.828081	0.017155	-14.731	15.7963	-236.985	5.29123	-0.320672
0.7193	-25.7548	417.892	-35.5276	8.44006	-1.20085	-12.2822	35.322	-265.961	11.088	0
0.7200	-22.4021	439.868	-16.9315	9.96882	-3.34523	-20.5469	34.7085	-250.724	10.7847	0.320672
0.7207	-16.3063	369.388	-22.1072	6.91129	-3.65402	-25.7123	27.9954	-195.769	6.84152	0.320672
0.7213	-12.344	359.319	-35.2415	1.71986	-0.909217	-15.9554	15.7963	-86.8219	1.34808	0
0.7220	-1.37156	305.561	-26.6847	2.96198	3.67118	-2.83142	2.97157	-9.31382	0.741446	0
0.7227	24.3071	216.169	20.6248	6.30616	4.88919	6.0072	-0.0842147	-14.2027	2.86468	0
0.7233	44.7281	176.508	59.6896	0.222945	1.23516	12.7414	-3.44077	-63.3411	-0.202213	0.320672
0.7240	54.4814	244.274	59.6896	-10.1599	-0.291636	13.9658	-9.23955	-124.077	-4.75199	0.320672
0.7247	59.9676	334.892	41.0675	-15.0647	0.926372	8.76209	-11.6697	-142.669	-7.51557	0
0.7253	59.9676	299.783	3.53716	-10.1599	3.37954	8.1499	-8.92675	-70.9777	-5.99897	0
0.7260	64.8443	153.306	-38.8827	-1.91096	5.50677	11.2109	-1.91288	24.5514	-2.32544	0
0.7267	83.8175	-46.3157	-51.7049	-1.91096	3.97997	6.9255	2.35801	55.3833	-2.93208	0
0.7273	96.6188	-268.439	-52.017	-5.57362	1.23516	-0.0765248	1.75648	59.3444	-5.99897	-0.320672
0.7280	87.475	-426.823	-52.017	-5.28698	-0.291636	-1.30092	-0.384981	98.705	-7.21225	0
0.7287	69.7209	-532.762	-28.8174	-3.15308	-1.50964	1.45397	-0.998545	160.654	-6.30229	0
0.7293	48.3856	-628.896	-4.10935	0.222945	-2.12722	5.7011	1.44368	187.204	-4.14536	0
0.7300	13.3346	-630.122	-7.46445	0.222945	-2.41886	5.395	-1.91288	153.946	-4.75199	-0.320672
0.7307	-31.2411	-445.734	-5.01964	-4.36335	-2.12722	0.229575	-11.6697	92.9241	-7.21225	-0.320672
0.7313	-66.9778	-180.885	3.22506	-4.36335	1.85274	-0.382624	-15.3391	21.8036	-4.44868	0.320672
0.7320	-79.1695	-38.3484	20.3127	-1.30582	7.94278	1.76007	-14.7255	-24.2659	-0.80885	0.641344
0.7327	-63.3203	-2.6266	64.8653	0.509588	11.614	5.7011	-13.8112	-36.4702	0.741446	0.320672
0.7333	-33.6794	-53.5827	75.2427	2.03835	12.5232	9.98649	-9.23955	-55.0978	2.25804	-0.320672
0.7340	-7.46738	-185.788	47.1795	-1.62431	9.77837	5.7011	-8.01242	-27.0136	-0.202213	0
0.7347	9.60092	-242.173	16.6455	-4.96849	8.86915	1.45397	-9.84108	50.1733	-3.2354	0
0.7353	3.5051	-81.4246	-21.509	-4.36335	11.3052	5.0889	-8.31319	42.2512	-2.62876	-0.320672
0.7360	-22.4021	228.689	-45.905	-1.30582	12.2144	17.6007	-0.384981	-97.8129	0.404425	-0.320672
0.7367	-21.7926	427.348	-45.3068	6.30616	13.7412	40.5199	11.8261	-222.639	7.75148	0
0.7373	-0.457187	466.747	-41.0154	9.36369	13.4495	54.2561	19.1528	-186.633	10.4813	-0.320672
0.7380	5.02905	474.364	-47.1274	5.38253	10.6876	60.0337	24.338	-65.161	6.23489	0
0.7387	16.9921	453.001	-21.7951	4.49075	10.0872	72.2394	33.1806	-28.2269	4.38127	-0.320672
0.7393	52.3479	409.925	69.4428	5.38253	11.9228	78.6675	32.579	-82.8609	3.77463	-1.28269
0.7400	83.5127	345.223	156.415	6.30616	16.1944	99.4058	23.4237	-81.0409	2.25804	-0.320672
0.7407	92.0469	194.456	166.194	4.17226	17.1036	118.614	12.7405	-19.6982	-2.02213	0
0.7413	84.7319	-51.744	121.642	1.43322	14.05	95.7326	1.75648	-3.53283	-8.42552	0
0.7420	72.8451	-309.326	100.263	4.17226	11.614	62.7886	4.49947	45.9268	-9.03216	0
0.7427	69.1114	-486.009	140.862	8.15342	9.46958	32.2552	17.6249	182.636	-6.60561	0
0.7433	94.1804	-613.924	199.459	10.8925	3.37954	-4.97411	22.5094	303.787	-5.08902	-0.320672
0.7440	126.793	-731.684	233.947	7.83492	-10.0529	-31.2221	13.354	367.878	-6.60561	0
0.7447	117.649	-749.107	209.837	0.509588	-16.7776	-61.1051	-4.95663	322.701	-10.8858	0
0.7453	71.9307	-606.57	93.2406	3.24863	-7.92563	-105.375	-16.867	187.204	-11.1891	0
0.7460	34.0604	-361.508	-12.0419	6.91129	-3.94566	-133.153	-17.1678	66.3743	-9.94212	0
0.7467	21.8688	-224.487	-59.6375	1.43322	-9.74406	-126.419	-13.5104	-33.7224	-10.5825	0
0.7473	5.33384	-318.782	-153.632	-4.07671	-7.61684	-95.6178	-11.0682	-61.5211	-9.6388	0
0.7480	-35.8129	-436.016	-210.097	-7.73938	0.325946	-69.3698	-9.54032	20.5903	-7.81888	0
0.7487	-63.3203	-285.249	-121.278	-10.4784	5.50677	-58.0824	-9.23955	102.381	-5.69565	-0.320672
0.7493	-58.4437	168.278	-28.5053	-8.94965	10.9964	-50.1238	-10.1539	2.56933	-3.2354	0
0.7500	-50.5191	534.776	-47.7516	-5.89212	13.4495	-45.2644	-6.18376	-218.357	-2.02213	0.320672
0.7507	-53.2622	539.679	-98.3902	-4.36335	9.77837	-41.5913	-2.21364	-280.628	-2.93208	0
0.7513	-48.6142	483.47	-112.435	-0.700684	8.86915	-30.3038	-0.0842147	-171.074	-2.62876	0
0.7520	-28.8028	576.889	-114.568	0.828081	9.77837	-25.4062	2.05724	-77.0799	-2.93208	0
0.7527	0.152396	635.462	-82.2389	-0.700684	10.9964	-30.916	0.842147	-83.4675	-3.84204	-0.320672
0.7533	20.04	580.829	-22.1072	-1.01918	8.25157	-29.0794	-3.44077	-120.402	-4.44868	0
0.7540	4.11468	514.901	11.1577	-2.22945	-3.65402	-19.9347	-10.7554	-72.4765	-7.51557	0
0.7547	-23.6213	479.18	2.91295	-1.62431	-3.34523	-9.22124	-11.9825	34.6146	-8.72884	-0.320672
0.7553	-15.0872	387.336	-48.0377	0.509588	9.17795	-4.36192	-5.5702	91.0684	-6.30229	-0.320672
0.7560	17.2969	202.423	-30.0398	0.509588	9.46958	-6.81071	-4.95663	88.963	-6.90893	0
0.7567	12.4202	63.5638	91.42	0.222945	2.14438	-11.0578	-12.2833	115.798	-9.6388	0
0.7573	-22.7069	18.9991	115.53	-0.414041	0.617581	-17.4859	-15.6399	234.201	-12.7057	-0.320672
0.7580	-29.7171	-77.3972	38.6227	2.03835	3.37954	-26.0184	-11.6697	341.328	-11.7957	0
0.7587	-16.9159	-291.64	-15.397	7.83492	3.97997	-37.612	-7.71166	235.736	-7.21225	0
0.7593	-18.7446	-496.69	-78.2596	11.2109	0.926372	-44.04	4.1987	-9.31382	-4.75199	-0.320672
0.7600	-29.4123	-591.336	-80.0802	8.75855	-3.34523	-38.5303	22.8101	-184.813	-4.75199	0
0.7607	-34.5938	-646.232	-13.2643	2.35685	-4.56324	-29.9977	24.6388	-256.219	-5.39233	0
0.7613	-49.2999	-573.037	-28.8174	0.828081	-4.87203	-28.7733	13.0412	-228.135	-6.60561	0
0.7620	-85.2653	-149.103	-106.947	5.38253	-3.94566	-28.7733	10.9118	-75.5454	-3.2354	0
0.7627	-119.173	415.703	-120.68	8.44006	-0.600426	-15.6493	13.0412	80.0774	0.101106	0
0.7633	-130.146	692.197	-90.4576	6.30616	-0.600426	7.2316	5.11303	13.2749	-0.505531	-0.320672
0.7640	-111.858	616.814	-94.749	0.828081	-0.291636	18.519	-8.92675	-176.57	-4.44868	-0.320672
0.7647	-76.1216	450.812	-96.2575	-3.15308	3.07075	14.8841	-17.7813	-157.942	-7.51557	-0.320672
0.7653	-60.882	377.268	-67.284	-0.0955478	-2.12722	11.2109	-13.5104	55.6688	-5.39233	0
0.7660	-63.0155	361.771	-15.397	6.01951	-11.2709	10.5987	-3.44077	158.834	-1.11217	0
0.7667	-52.0431	278.07	51.4449	6.30616	-13.4152	8.76209	-1.91288	81.0052	-1.11217	-0.320672
0.7673	-33.9842	29.0677	105.751	1.71986	-13.1064	5.395	-5.26943	-25.1937	-5.69565	-0.320672
0.7680	-18.7446	-243.398	117.975	0.222945	-15.5425	6.3133	-1.91288	-78.8998	-7.51557	0
0.7687	-0.761978	-285.862	93.5527	2.35685	-16.7776	13.3536	5.71457	-44.1068	-5.69565	0
0.7693	16.3825	-227.901	55.7103	2.03835	-10.3616	18.2129	7.24246	22.4103	-5.69565	-0.641344
0.7700	24.3071	-321.846	2.60085	-0.0955478	-0.909217	20.0495	4.1987	92.3174	-7.51557	-0.641344
0.7707	11.1249	-196.12	-19.9745	-3.75821	0.926372	17.6007	-0.685748	257.718	-9.94212	0
0.7713	-31.2411	268.351	2.00266	-7.73938	-1.50964	10.5987	-4.3551	390.752	-12.7057	0
0.7720	-62.406	283.323	-8.37474	-6.21061	-6.39883	6.0072	0.228583	369.698	-10.8858	-0.320672
0.7727	-57.2245	-243.749	-82.2389	-0.414041	-9.74406	5.395	12.4397	281.52	-5.99897	0
0.7733	-59.3581	-568.134	-166.455	3.24863	-3.94566	5.0889	20.0671	193.913	-1.71881	-0.320672
0.7740	-94.7138	-498.879	-196.676	1.43322	2.45317	-3.13752	7.24246	175	-1.71881	0
0.7747	-131.06	-241.034	-136.545	1.71986	10.6876	-10.7517	-9.84108	180.495	-2.62876	0
0.7753	-119.173	48.9423	-56.5945	4.77739	23.5196	-3.44362	-2.51441	103.915	0.101106	0
0.7760	-68.8066	160.048	-61.172	6.01951	25.9556	13.0475	11.2126	-1.6772	1.6514	0
0.7767	-36.7273	60.8496	-60.5478	6.30616	25.9556	24.641	9.99748	-68.5154	1.34808	0
0.7773	-37.0321	-59.4487	3.53716	5.70102	37.5524	23.7227	6.64093	-71.2632	1.95472	0
0.7780	-31.8507	-62.1629	40.4433	3.88561	42.7332	14.578	8.46959	-23.0526	1.34808	0
0.7787	1.37156	-113.119	61.1981	2.96198	35.7168	9.98649	2.35801	12.0259	0.101106	-0.320672
0.7793	23.3927	-442.407	69.7549	4.49075	32.6632	11.2109	-6.48453	60.2722	2.56136	-0.320672
0.7800	5.02905	-706.994	12.068	4.17226	30.536	12.7414	-6.48453	89.2485	3.77463	0
0.7807	-9.90571	-524.532	-38.2845	1.43322	18.3216	11.2109	-2.51441	25.7647	1.95472	0
0.7813	40.1562	-310.289	0.18206	-1.01918	1.54395	5.0889	1.44368	-95.6718	0.404425	0
0.7820	126.183	-417.367	59.6896	-2.54794	-7.92563	-1.91312	7.55526	-179.318	-0.202213	0
0.7827	156.739	-519.892	63.3307	-2.22945	-10.0529	-5.28021	13.9556	-102.095	-1.41549	0
0.7833	91.1325	-295.93	38.3106	-4.68184	-14.3245	-7.72901	6.94169	77.0442	-5.08902	0
0.7840	-16.3063	200.585	-25.4623	-5.89212	-17.6868	-4.36192	-7.71166	196.375	-6.60561	0
0.7847	-80.9982	454.49	-146.012	-1.30582	-14.3245	4.7828	-7.39886	274.811	-2.93208	0
0.7853	-90.4467	380.682	-189.03	0.222945	-10.9792	8.45599	-1.60008	322.701	-3.2354	0
0.7860	-87.094	480.405	-121.59	-1.62431	-10.9792	8.1499	0.228583	176.213	-6.60561	0
0.7867	-91.9707	504.57	-66.6598	-3.43972	-10.6704	6.9255	0.529349	-90.4975	-7.81888	0
0.7873	-78.2551	-16.9854	-41.0154	-6.21061	-12.1972	3.90277	-1.91288	-264.462	-8.72884	0
0.7880	-35.2034	-620.929	-11.1316	-5.28698	-12.7977	6.3133	-1.60008	-438.713	-6.30229	0
0.7887	-27.5836	-696.049	8.11466	-3.15308	-7.92563	11.2109	1.75648	-516.221	-2.02213	-0.320672
0.7893	-86.4845	-593.787	-27.2829	-5.28698	-1.81843	8.45599	-0.685748	-275.132	-1.11217	-0.320672
0.7900	-147.824	-537.052	-75.2166	-8.34451	6.72477	1.76007	-6.18376	4.10379	0.101106	0
0.7907	-170.15	-84.7517	-52.9273	-10.4784	14.6676	-4.66802	-10.4546	65.1254	2.25804	0
0.7913	-143.557	280.521	-21.1969	-11.402	18.0128	-8.03511	-12.5961	-14.2027	4.38127	-0.320672
0.7920	-61.4916	233.855	-1.97665	-8.34451	20.7748	-5.28021	-10.4546	-102.095	8.0548	0
0.7927	31.9269	454.227	64.2671	-6.49725	21.3752	-2.83142	-8.31319	-172.894	9.57139	0.320672
0.7933	92.9613	861.613	112.175	-8.34451	19.8484	-4.97411	-9.54032	-293.118	6.53821	0
0.7940	118.259	1075.24	142.085	-9.87328	17.1036	-7.72901	-11.9825	-379.19	3.168	0
0.7947	111.858	1232.05	269.942	-8.02602	-0.909217	-4.97411	-9.23955	-240.339	3.168	0
0.7953	86.2559	1186.35	323.65	-4.36335	-31.1192	1.14787	-2.51441	68.8009	4.68459	0.320672
0.7960	51.1287	738.338	157.326	-4.07671	-46.0613	2.67837	1.75648	291.904	3.47132	0
0.7967	-11.1249	271.065	-18.44	-6.21061	-43.3165	0.841773	2.05724	384.971	0.101106	-0.320672
0.7973	-74.2928	91.9311	-139.588	-7.42088	-40.8805	0.841773	2.97157	386.506	-2.02213	0
0.7980	-91.6659	-91.1431	-350.777	-5.28698	-41.1892	3.59667	4.80024	283.34	-2.93208	0.320672
0.7987	-63.9299	-318.782	-545.477	-0.700684	-30.8104	7.8438	3.8859	120.366	-2.62876	0
0.7993	-14.7824	-414.653	-538.454	2.64349	-7.61684	10.5987	2.05724	-48.0679	-1.71881	-0.641344
0.8000	-4.41947	-556.84	-452.704	0.509588	12.5232	6.9255	5.11303	-61.8066	-3.53872	-0.641344
0.8007	-46.4806	-652.36	-389.842	-2.83459	25.338	2.37227	9.99748	163.723	-5.08902	0
0.8013	-72.4641	-512.888	-296.757	-2.54794	36.0256	2.06617	13.9556	343.469	-3.53872	0
0.8020	-56.6149	-362.121	-153.632	-0.0955478	36.9348	0.229575	18.5393	239.09	-0.80885	0
0.8027	-20.2686	-247.426	41.3796	2.96198	29.318	0.841773	24.9516	59.6655	2.86468	0
0.8033	-1.37156	-91.7559	150.927	3.24863	26.2644	8.45599	26.1667	-23.9804	3.168	-0.320672
0.8040	1.06677	-172.655	141.772	1.11472	33.5896	18.519	20.3679	-126.218	0.741446	0
0.8047	23.0879	-402.395	199.459	2.96198	34.4988	27.702	16.7106	-244.907	2.56136	-0.320672
0.8053	63.3203	-329.463	323.962	5.70102	21.3752	26.7837	15.7963	-237.592	6.23489	-0.320672
0.8060	129.231	-151.292	423.133	7.54828	12.832	19.1312	17.9257	-166.792	7.75148	-0.320672
0.8067	209.544	-202.511	441.755	7.83492	12.2144	14.578	22.1966	-84.7165	8.0548	0
0.8073	250.081	-552.9	309.631	3.56712	10.6876	10.5987	18.2265	159.12	3.47132	0
0.8080	229.965	-1165.34	126.505	0.222945	7.65115	12.1292	2.67081	520.753	-1.11217	0
0.8087	124.66	-1601.18	11.4698	-0.0955478	6.41598	15.8024	-11.0682	818.938	0.101106	0
0.8093	-28.1932	-1446.47	-47.1274	-2.54794	10.0872	10.9048	-19.3092	885.776	3.168	0
0.8100	-91.0563	-754.01	5.95595	-5.28698	21.3752	3.90277	-18.3949	534.813	8.0548	0
0.8107	-80.6934	301.009	117.663	-7.42088	34.4988	-2.21922	-9.84108	-14.2027	13.2449	0
0.8113	-68.8066	1112.45	174.725	-8.63116	41.5152	-9.22124	-11.369	-311.139	16.2781	0
0.8120	-47.6998	1114.55	289.475	-5.89212	47.0048	-10.7517	-19.61	-382.259	18.435	-0.320672
0.8127	-66.3682	980.598	393.847	-3.75821	52.8032	-8.91514	-23.5801	-410.022	17.1881	-0.320672
0.8133	-124.05	1146.95	271.165	-3.75821	51.2764	-10.7517	-26.9367	-316.634	13.2449	0
0.8140	-145.385	1205.52	89.5994	-2.22945	43.6596	-8.60904	-24.1816	-124.969	10.178	0
0.8147	-116.735	1152.11	19.4024	-1.91096	40.606	14.2719	-16.2534	-154.267	8.35812	-0.320672
0.8153	-76.7311	1139.95	-26.6847	-2.83459	33.2808	47.828	-12.8969	-512.545	6.84152	0
0.8160	-37.9465	1097.22	-50.1964	-4.07671	9.77837	68.2602	-12.5961	-724.337	4.98791	0
0.8167	23.0879	934.282	-73.6821	-3.43972	-8.83484	84.4452	-8.01242	-489.957	3.77463	0
0.8173	78.0265	629.947	-72.1476	0.222945	-6.99926	96.6509	1.75648	-243.408	6.23489	0
0.8180	85.6463	344.61	29.1556	2.35685	-2.12722	91.1793	7.55526	-260.787	6.84152	0
0.8187	69.4162	282.097	90.7958	2.64349	-8.21726	81.6903	8.46959	-206.76	5.59455	-0.320672
0.8193	58.7485	379.106	98.4423	2.64349	-23.1765	77.137	11.5133	-46.5691	6.84152	-0.320672
0.8200	52.3479	395.566	149.393	2.35685	-35.6825	83.2208	16.7106	-4.13947	7.44816	0
0.8207	58.7485	316.856	139.328	6.30616	-34.7733	112.836	22.1966	-16.6293	9.26807	0
0.8213	65.7587	335.505	48.0898	8.75855	-33.2465	133.268	24.338	19.0559	12.0316	-0.320672
0.8220	66.673	333.666	5.04565	2.96198	-46.0613	90.261	13.9556	151.519	9.57139	-0.320672
0.8227	112.468	107.866	-15.397	-6.21061	-63.4565	-22.6514	-1.29931	281.199	1.6514	0
0.8233	156.129	-64.0015	-139.9	-12.0072	-69.8725	-139.237	-7.39886	306.214	-5.08902	0
0.8240	85.0367	-114.345	-323.624	-11.6887	-54.0041	-159.095	-10.4546	332.764	-7.21225	-0.320672
0.8247	-46.1758	-254.693	-377.332	-7.10239	-15.2508	-94.3934	-12.5961	333.085	-3.53872	-0.320672
0.8253	-110.334	-162.849	-270.515	-4.07671	5.81556	-54.7153	-11.369	167.684	-1.41549	0
0.8260	-121.612	244.537	-216.209	-6.49725	3.37954	-53.4909	-13.1976	7.45819	-3.84204	0
0.8267	-133.803	403.271	-284.871	-9.55478	10.0872	-38.8364	-14.112	-35.2569	-5.39233	0
0.8273	-91.0563	252.504	-302.869	-8.94965	12.2144	-17.1798	-12.2833	-252.865	-3.53872	-0.320672
0.8280	11.8107	152.693	-245.494	-2.83459	14.6676	-5.28021	-6.18376	-572.996	0.741446	-0.320672
0.8287	56.0054	116.096	-201.254	0.509588	24.4288	6.3133	7.24246	-559.257	3.47132	-0.320672
0.8293	21.2592	49.5552	-99.3265	-1.62431	12.2144	11.8231	17.9257	-413.662	1.34808	-0.962017
0.8300	16.3825	-1.13819	103.02	-0.414041	-9.74406	5.7011	24.338	-501.269	0.741446	-0.641344
0.8307	76.1978	-57.2599	310.23	0.828081	-16.16	20.3556	30.7504	-512.26	-0.202213	0.320672
0.8313	116.43	-107.953	443.887	3.56712	-9.74406	62.4825	38.6786	-174.108	1.95472	0.320672
0.8320	103.934	-53.5827	366.694	12.4212	-15.5425	73.7699	48.1347	213.754	7.75148	-0.320672
0.8327	96.6188	-38.6986	81.0426	17.8993	-42.4073	48.4402	48.1347	309.89	8.66144	-0.641344
0.8333	103.019	-161.624	-117.637	17.2942	-56.4401	27.702	39.8937	221.069	6.23489	0
0.8340	86.8654	-334.366	-101.745	11.4976	-55.8396	-8.34121	30.1368	225.673	2.25804	0
0.8347	66.9778	-544.932	-90.4576	8.75855	-68.3457	-47.3689	26.7803	291.583	0.101106	0
0.8353	78.9409	-647.195	-171.656	16.3705	-95.8109	-35.4693	29.824	335.833	3.47132	0
0.8360	89.9134	-505.008	-127.078	20.3517	-114.115	1.76007	16.7106	372.16	2.86468	0
0.8367	47.776	-242.173	149.705	14.2366	-109.535	32.2552	-11.369	335.226	-2.93208	0
0.8373	-10.2105	-190.604	370.647	0.828081	-107.716	45.6853	-25.4088	437.464	-9.94212	-0.320672
0.8380	-44.9567	-690.796	281.23	-10.7651	-88.4857	31.9491	-22.9665	832.641	-13.6156	0
0.8387	-88.3132	-1380.54	59.3775	-10.4784	-26.5388	0.841773	-21.1379	995.329	-13.919	0
0.8393	-132.584	-1466.87	-109.392	-8.34451	25.9556	-42.8156	-25.4088	687.688	-16.3792	-0.320672
0.8400	-152.7	-1055.81	-130.147	-8.94965	60.1284	-76.3718	-31.8211	242.766	-15.4356	-0.320672
0.8407	-103.858	-735.711	-16.3073	-9.23629	89.1204	-85.2104	-40.0621	-316.313	-9.94212	-0.320672
0.8413	20.6496	-539.767	25.4884	-6.49725	97.0632	-77.9023	-41.8908	-775.009	-3.84204	0
0.8420	92.3517	-268.789	-8.68685	3.88561	97.9724	-60.1868	-33.0362	-828.716	4.38127	0
0.8427	65.1491	86.5027	0.780256	9.0452	112.932	-37.9181	-27.5382	-740.823	6.84152	0
0.8433	28.2694	414.828	58.4672	8.44006	129.418	-13.2005	-26.3231	-661.495	3.47132	0
0.8440	26.4406	474.977	124.061	7.54828	118.73	1.14787	-22.6658	-549.194	2.56136	0
0.8447	52.0431	301.009	136.285	4.77739	90.956	3.59667	-19.61	-425.581	1.6514	0
0.8453	90.2181	273.254	135.66	7.83492	73.252	13.6597	-11.9825	-215.003	3.168	-0.320672
0.8460	98.7523	297.681	215.923	12.4212	61.3464	32.5613	-0.384981	52.0289	4.98791	0
0.8467	54.7862	77.9225	332.207	6.91129	46.7132	49.0524	12.1269	185.991	1.95472	0
0.8473	-3.5051	-42.2883	344.717	-3.43972	36.0256	52.4195	28.6089	211.327	1.04476	0
0.8480	-45.2615	204.875	270.853	-9.55478	31.754	56.3605	32.2662	227.493	2.56136	0
0.8487	-54.7862	444.421	276.965	-6.49725	32.0628	73.4638	24.338	154.267	6.84152	0.320672
0.8493	-53.8718	391.013	287.03	1.43322	29.0092	82.6086	18.2265	51.4223	11.3913	0
0.8500	-67.5874	384.009	152.748	5.09588	17.1036	74.6882	11.2126	1.6772	11.3913	-0.320672
0.8507	-53.2622	704.717	1.37845	7.22979	5.50677	56.6666	9.99748	-110.338	9.26807	-0.320672
0.8513	-11.1249	800.238	-129.236	7.22979	-2.12722	31.3369	11.2126	-189.06	5.89787	-0.320672
0.8520	1.98114	470.95	-318.422	1.43322	-5.47246	2.37227	10.599	-111.873	2.56136	0
0.8527	-9.90571	225.275	-464.616	-7.73938	-3.65402	-45.2644	14.2684	-177.462	2.56136	0
0.8533	-25.1453	152.343	-507.036	-15.3514	-7.30805	-87.3531	16.7106	-430.47	1.04476	0
0.8540	-29.1075	130.104	-392.885	-16.275	-12.7977	-75.1474	14.2684	-542.771	-1.41549	-0.320672
0.8547	-4.72426	167.665	-115.79	-12.2938	-12.506	-29.3855	16.3978	-500.341	-2.62876	0
0.8553	31.3173	203.912	92.6424	-6.81575	-35.0821	14.578	27.9954	-393.25	-1.11217	0
0.8560	62.7108	190.253	100.263	0.828081	-80.2513	44.4609	40.5072	-250.117	5.59455	-0.320672
0.8567	78.3313	105.064	17.8679	4.49075	-106.19	56.6666	44.4774	-114.299	10.4813	-0.320672
0.8573	71.9307	-30.7312	-8.06264	2.64349	-111.679	52.4195	38.3778	21.197	10.4813	0
0.8580	69.1114	-147.615	11.1577	4.77739	-118.387	28.9264	35.0213	113.05	13.2449	0
0.8587	91.4373	-208.377	-14.1746	7.83492	-117.786	25.8654	37.1507	196.054	16.2781	-0.320672
0.8593	119.783	-185.175	-112.123	12.4212	-87.2677	67.648	40.82	346.503	19.0417	-0.641344
0.8600	120.697	-88.6916	-218.628	16.3705	-46.3701	108.244	43.8638	432.575	21.7716	-0.320672
0.8607	100.276	-62.1629	-193.92	11.4976	-8.21726	141.533	32.8798	337.367	15.0648	0
0.8613	69.1114	-177.558	-13.2643	2.35685	32.3716	183.315	12.1269	192.093	2.86468	0
0.8620	-15.0872	-300.833	87.1546	-5.57362	47.3136	194.297	-11.0682	191.165	-6.90893	0
0.8627	-102.334	-391.101	-82.2389	-9.87328	56.4744	132.044	-39.4486	316.92	-13.009	0
0.8633	-63.9299	-512.012	-272.361	-8.94965	82.104	14.2719	-60.2014	411.521	-12.4024	-0.320672
0.8640	52.3479	-554.125	-278.759	-9.23629	78.7416	-101.702	-63.558	394.428	-10.2454	0
0.8647	106.067	-409.487	-171.942	-7.73938	58.0012	-184.731	-58.9743	213.147	-7.81888	0
0.8653	55.091	-203.124	-34.6173	-6.49725	47.3136	-235.697	-55.0042	31.5813	-7.51557	0
0.8660	-18.7446	-63.6513	-1.04034	-5.28698	28.7004	-229.881	-47.076	1.6772	-8.42552	0
0.8667	-31.8507	86.1525	-16.3073	-1.30582	12.2144	-163.036	-33.6498	42.2512	-5.69565	0
0.8673	-34.5938	243.661	75.5548	-5.28698	0.325946	-98.0283	-26.9367	136.567	-8.42552	0
0.8680	-59.0533	282.36	155.193	-11.402	-19.8141	-65.3905	-18.0821	67.2665	-13.6156	-0.320672
0.8687	-52.3479	266.25	94.1769	-8.02602	-42.716	-46.4506	0.529349	-222.639	-12.0991	0
0.8693	-12.0392	221.335	22.7575	-3.15308	-52.1685	-30.6099	18.84	-481.428	-8.72884	0
0.8700	25.5262	153.306	52.3552	-0.0955478	-48.8061	-11.67	34.4077	-648.363	-5.08902	-0.320672
0.8707	41.985	122.75	116.128	-4.96849	-54.3129	2.67837	30.4376	-634.018	-6.30229	-0.320672
0.8713	33.7556	64.7895	165.882	-11.6887	-64.9833	9.37429	9.68468	-454.878	-10.8858	-0.320672
0.8720	16.3825	4.99054	202.19	-10.1599	-58.5845	25.2532	1.14291	-296.793	-9.94212	-0.320672
0.8727	10.2105	11.1193	211.345	-6.21061	-36.9176	49.6646	2.35801	-185.099	-6.90893	0
0.8733	15.1634	30.0308	187.86	-1.62431	-32.9377	68.8724	2.67081	-103.308	-3.53872	0
0.8740	19.1256	31.8694	127.442	0.222945	-61.3293	80.4659	1.14291	-86.8219	-3.2354	-0.320672
0.8747	20.9544	26.6162	70.067	-1.91096	-87.8681	89.9549	-1.29931	-88.0709	-5.08902	-0.320672
0.8753	18.5161	25.3905	56.6206	-0.700684	-90.0125	91.1793	-0.998545	-62.1278	-2.62876	0
0.8760	3.5051	25.3905	49.9104	0.509588	-79.3249	75.9126	-2.82721	-48.9957	-0.202213	-0.320672
0.8767	-3.5051	18.9991	31.6004	2.35685	-78.7245	57.5849	-5.87096	-40.1458	1.6514	-0.320672
0.8773	2.59072	8.05491	35.2676	2.64349	-82.9961	25.5593	-11.6697	15.3803	1.95472	0
0.8780	1.37156	-1.40085	65.1774	-1.01918	-66.5101	-43.7339	-20.5243	77.3653	-2.32544	0
0.8787	-4.72426	-2.97681	85.9322	-1.62431	-34.1728	-102.926	-20.8251	91.3896	-3.53872	0
0.8793	-5.33384	-6.30384	75.5548	1.71986	1.23516	-113.295	-16.2534	87.1074	-0.80885	0
0.8800	2.59072	-15.4969	47.4656	2.03835	18.9392	-118.805	-14.7255	76.723	1.04476	0
0.8807	11.1249	-27.4042	27.0229	-2.54794	22.2844	-138.319	-15.6399	51.7077	0.404425	0
0.8813	18.2113	-40.4497	25.8005	-5.57362	50.9848	-130.398	-17.1678	41.0379	-0.80885	-0.320672
0.8820	26.4406	-47.8041	38.9348	-1.91096	88.2112	-88.8836	-15.0263	48.3533	1.34808	-0.320672
0.8827	13.3346	-46.5784	56.9327	4.17226	83.9396	-53.4909	-10.4546	55.0621	5.59455	0
0.8833	-9.29613	-45.7029	57.843	10.2873	50.0584	-33.0587	-4.65587	72.1553	10.7847	0
0.8840	1.67635	-62.7758	38.6227	11.2109	30.8448	-25.4062	-0.685748	99.6329	12.335	0
0.8847	37.1083	-99.7233	9.33706	6.30616	17.4124	-27.855	-1.60008	116.405	8.96476	0
0.8853	63.0155	-127.74	-43.7723	5.09588	-6.70762	-27.2428	-1.60008	124.363	7.75148	0
0.8860	55.3958	-121.699	-92.9024	5.70102	-22.576	-24.794	-3.12797	93.5307	8.66144	0
0.8867	27.0502	-84.7517	-89.8594	5.38253	-25.9213	-22.0392	-9.84108	27.6203	8.35812	0
0.8873	12.1154	-55.4213	-55.3721	3.56712	-25.9213	-19.3225	-15.3391	1.96268	6.84152	-0.320672
0.8880	9.90571	-50.6059	-28.2192	-1.01918	-25.012	-21.1209	-17.7813	0.749388	3.168	0
0.8887	9.90571	-44.7398	8.40075	-2.83459	-25.9213	-19.3225	-17.4685	-19.377	1.04476	-0.962017
0.8893	10.2105	-31.6068	50.8207	-0.0955478	-23.4852	-13.8127	-11.6697	-13.596	3.77463	-0.962017
0.8900	7.16259	-20.0497	58.1551	2.64349	-14.3245	-8.34121	-6.48453	6.2449	6.23489	0
0.8907	4.41947	-18.2111	33.7331	3.56712	-3.94566	4.20887	-6.18376	-6.56606	6.23489	0
0.8913	-0.152396	-27.4042	-5.01964	3.24863	-1.20085	14.578	-7.71166	-4.42496	4.98791	0
0.8920	-5.02905	-36.5098	-35.8397	3.24863	-7.92563	19.1312	-6.79733	22.4103	3.168	0
0.8927	-4.11468	-41.0625	-41.9517	2.03835	-6.09004	23.1105	-4.95663	30.6535	1.95472	0
0.8933	3.20031	-39.9243	-39.1948	2.35685	5.50677	24.9471	-2.51441	25.4792	2.25804	0
0.8940	12.1154	-36.86	-34.9294	3.88561	10.9964	27.702	-0.998545	19.0559	3.168	0
