MR32 ASCII
Name	KneeFJC2
Frequency	1500
Date	31-08-2015 09:47:19
"Time,s"	"RT TIB.ANT.,uV"	"RT MED. GASTRO,uV"	"RT LAT. GASTRO,uV"	"RT BICEPS FEM.,uV"	"RT VMO,uV"	"RT VLO,uV"	"RT RECTUS FEM.,uV"	"RT SOLEUS,uV"	"RT SEMITEND.,uV"	"Channel 12,uV"
0.0000	-10.3392	26.91	-9.89682	1.23779	-1.31407	-0.200176	-0.333587	52.1431	-5.36227	-6430.43
0.0007	-6.48127	29.3657	-5.32345	1.84797	0.500597	1.96172	1.80137	-0.650183	-16.9672	-10497
0.0013	-2.46906	-0.24212	13.9076	1.23779	0.500597	1.64144	1.50114	-25.3732	-31.9068	-9775.55
0.0020	-0.617264	54.3733	12.9909	1.84797	-0.375448	-0.200176	-0.0222391	-10.419	-43.5117	-9668.87
0.0027	0.617264	222.543	-10.8136	2.15306	-1.62694	-2.00176	-1.85697	14.6091	-66.4014	-9912.98
0.0033	1.23453	258.239	-12.0325	4.28868	-0.375448	-0.480422	-0.633815	66.4873	-94.7868	-9793.81
0.0040	2.46906	112.655	6.27146	5.82284	2.37784	1.96172	1.80137	83.2716	-93.2395	-9810.78
0.0047	3.08632	11.9677	11.4595	2.15306	2.06496	1.96172	2.11272	-0.955208	-40.7639	-9818.79
0.0053	-0.925896	3.42427	8.10498	-3.64363	-0.375448	-0.200176	0.277989	-49.1731	17.8209	-9819.75
0.0060	-5.55538	-3.28592	10.2406	-6.38943	-1.62694	-1.72151	-1.54562	11.8558	15.3932	-9795.09
0.0067	-4.93811	-20.3727	13.293	-6.38943	-0.0625746	-0.480422	-0.333587	21.9296	5.92251	-9838.98
0.0073	-1.85179	-5.11912	9.62596	-6.38943	2.06496	1.64144	2.11272	-38.1922	41.3242	-9884.79
0.0080	-0.617264	64.7499	4.13583	-6.69452	2.06496	2.24197	2.41294	-31.1687	45.9128	-9533.04
0.0087	1.54316	113.589	2.91696	-4.5589	0.187724	0.440387	0.589337	18.5744	17.5274	-10279.5
0.0093	3.70358	86.7137	-1.96895	-0.897833	-1.62694	-1.12098	-1.54562	34.4437	19.9818	-9541.05
0.0100	4.01222	48.2857	-7.76119	3.6785	-0.688321	0.440387	-0.333587	39.019	4.722	-3384.84
0.0107	3.08632	38.4971	-5.93809	6.43302	1.43922	3.16278	2.41294	21.6246	-40.7639	106.357
0.0113	1.85179	33.6201	-4.40669	6.12793	2.37784	3.16278	2.72429	-32.3888	-46.2596	-42.2865
0.0120	0.617264	8.92387	-10.2094	3.6785	0.500597	0.720633	0.277989	-56.5017	-31.6134	-148.643
0.0127	-3.39495	-14.5964	-8.98006	0.9327	-1.00119	-1.40123	-1.54562	-25.6782	-34.3612	95.4649
0.0133	-4.32085	-20.684	9.62596	2.15306	-0.375448	-1.12098	-0.333587	3.92518	-56.0237	-23.7061
0.0140	-1.23453	-28.6394	18.1789	4.28868	1.43922	1.04091	1.50114	-0.345159	-46.2596	-6.40704
0.0147	0.925896	-34.4157	1.39597	2.76323	1.12634	1.64144	1.50114	-18.0446	51.4084	0.640704
0.0153	-0.617264	-44.2043	-12.345	-0.287655	-1.00119	-0.200176	0.277989	-23.238	128.908	-0.640704
0.0160	-2.46906	-35.0383	-14.7827	-0.592744	-2.56556	-2.00176	-1.54562	-17.7396	96.8677	-0.320352
0.0167	0.308632	43.0974	-17.533	3.06832	-0.688321	-0.480422	-0.333587	6.97542	41.3242	-0.320352
0.0173	4.93811	112.067	-2.8857	6.43302	1.12634	1.64144	1.50114	46.9577	21.7959	-0.640704
0.0180	5.70969	107.19	18.7831	4.89886	1.12634	2.24197	1.50114	56.7185	24.8639	-0.640704
0.0187	3.39495	85.8144	5.96935	0.627611	-0.688321	0.440387	-0.0222391	38.714	28.8122	-0.320352
0.0193	-0.617264	51.6408	-15.6995	-0.897833	-2.25269	-1.72151	-2.15719	4.84025	15.6866	-0.320352
0.0200	-4.62948	5.84548	-14.4806	1.84797	0.81347	0.120105	-1.54562	-35.134	1.04044	-0.640704
0.0207	-7.7158	-19.1621	-11.4282	3.6785	2.94101	2.56225	0.889565	-36.6671	-7.20305	-0.640704
0.0213	-8.02443	-24.0391	-10.8136	3.37341	2.37784	2.24197	1.50114	-10.724	-19.3949	-0.320352
0.0220	-5.55538	-18.2628	-6.54232	0.9327	0.81347	0.120105	-0.0222391	8.80557	-38.6297	-0.320352
0.0227	-4.93811	-35.6609	3.21907	-0.897833	-1.00119	-2.00176	-2.46854	13.999	-29.7726	-0.320352
0.0233	-6.48127	-85.3993	16.6475	-0.897833	-1.62694	-2.00176	-1.24539	0.569914	46.2062	-0.640704
0.0240	-7.7158	-119.884	15.1265	-1.50801	-1.62694	-4.76418	-0.945163	-24.4581	103.884	-1.92211
0.0247	-2.77769	-120.783	-0.750075	0.0174336	-0.688321	-5.36471	-1.85697	-31.1687	73.3644	-1.60176
0.0253	2.16042	-122.617	-13.866	1.54288	-0.0625746	-1.72151	-0.633815	-26.8983	33.6943	-0.320352
0.0260	1.23453	-64.9574	-20.5854	-0.592744	-1.31407	-1.40123	-1.24539	-52.2314	31.56	-0.320352
0.0267	1.23453	58.939	-22.1064	-0.287655	-0.0625746	-0.200176	-0.333587	-75.1162	27.2916	0
0.0273	3.39495	79.1042	-24.8566	2.76323	1.75209	2.56225	2.41294	-13.1642	9.89752	0
0.0280	5.40106	27.2212	-20.8875	3.6785	2.37784	2.88253	3.02452	99.751	0.426847	0
0.0287	5.40106	27.8438	-6.54232	1.23779	0.500597	-0.200176	0.589337	109.52	-3.22803	0
0.0293	2.46906	43.4087	6.8861	-1.50801	-1.31407	-2.92257	-2.15719	35.9688	-10.2443	-0.320352
0.0300	4.32085	39.431	20.6166	-1.20292	-0.375448	-1.40123	-0.945163	0.874938	-14.5128	-0.320352
0.0307	6.01832	22.033	27.3361	0.9327	0.81347	1.32116	1.20091	-12.2491	-13.6058	-0.320352
0.0313	4.62948	3.42427	26.7214	1.84797	1.12634	1.04091	1.20091	-11.9441	-16.0335	0
0.0320	5.24674	-12.4519	21.2313	-0.287655	-0.375448	-2.00176	-0.945163	-9.80894	-7.49651	0
0.0327	1.85179	-27.3942	2.61484	-2.42328	-2.25269	-2.64232	-2.46854	-34.5239	24.2503	-0.320352
0.0333	-1.54316	-29.2274	-11.4282	-0.287655	-0.688321	0.720633	-0.333587	-43.6827	35.2416	-0.320352
0.0340	2.16042	-27.7055	-4.40669	3.06832	1.12634	2.88253	2.41294	-23.238	9.28393	0
0.0347	1.23453	-32.8938	-1.65642	2.76323	0.81347	1.64144	2.41294	-13.7743	-13.2856	-0.320352
0.0353	-7.40717	-12.4519	-19.9707	0.322522	-1.62694	-1.12098	-0.0222391	2.09503	-21.8492	0
0.0360	-10.6478	13.4896	-35.5348	-0.897833	-3.12873	-2.00176	-2.15719	71.3676	-24.2769	0
0.0367	-3.70358	7.67867	-20.8875	0.0174336	-0.688321	-0.480422	-0.633815	78.0862	-24.5971	-0.320352
0.0373	3.08632	23.5549	1.08344	0.9327	1.12634	1.32116	1.20091	-28.7285	-26.4112	-0.320352
0.0380	4.32085	48.2857	6.58399	0.0174336	1.12634	1.32116	0.589337	-58.3319	-9.33729	-0.320352
0.0387	5.24674	15.3228	15.1265	-2.42328	0.187724	0.120105	-0.633815	4.84025	24.2503	0
0.0393	2.77769	-22.2059	12.3762	-4.5589	-1.62694	-1.72151	-2.15719	24.0648	29.7459	0
0.0400	-3.08632	-18.2628	-8.37584	-3.64363	-0.688321	-1.72151	-1.54562	12.1608	4.722	-0.320352
0.0407	-2.46906	-7.88621	-1.3543	-0.592744	0.81347	0.120105	0.277989	15.8292	-12.9922	-0.320352
0.0413	0.925896	-4.21981	23.3669	1.54288	1.12634	1.32116	1.20091	22.2347	-16.3536	0
0.0420	-2.16042	2.80168	19.6999	0.9327	-0.0625746	0.440387	-0.0222391	9.11059	-17.5541	0
0.0427	-4.62948	1.59108	7.18822	-0.592744	-1.93981	-2.32204	-2.46854	-8.89386	-16.9672	0
0.0433	-1.85179	-3.28592	9.62596	1.54288	-1.00119	-0.800703	-1.24539	-2.78535	-14.8329	0
0.0440	-0.925896	-2.38662	6.8861	3.37341	1.75209	1.64144	1.80137	18.2693	-6.58946	0
0.0447	-1.85179	2.80168	8.71962	2.76323	2.06496	1.32116	1.80137	35.6638	15.0997	-0.320352
0.0453	-4.01222	16.2221	20.9188	1.54288	0.500597	-0.200176	-0.333587	34.4437	27.2916	0
0.0460	-6.48127	14.1122	16.3454	0.0174336	-1.62694	-2.00176	-1.85697	8.19552	13.2589	0
0.0467	-3.08632	-7.88621	7.18822	0.9327	-0.688321	-1.12098	-0.633815	-13.4692	-5.04213	-0.320352
0.0473	0.308632	-9.7194	6.27146	3.37341	2.06496	1.32116	1.50114	-28.4234	-15.74	0
0.0480	-0.617264	3.42427	4.75047	2.15306	2.06496	1.64144	1.80137	-43.9877	-22.4628	0
0.0487	-2.16042	7.67867	1.39597	-1.8131	-0.0625746	-0.800703	-0.333587	-33.6089	-22.1427	0
0.0493	-1.54316	10.4458	-5.62556	-5.16908	-0.688321	-2.64232	-2.46854	-16.5195	-15.1264	0
0.0500	2.77769	9.82317	-9.89682	-5.47417	0.81347	-1.72151	-1.54562	-13.4692	-7.20305	0
0.0507	5.24674	-5.11912	-9.29259	-3.64363	2.06496	0.440387	0.277989	9.11059	-5.04213	0
0.0513	4.32085	-19.4734	-0.437544	-3.33854	2.37784	1.32116	1.50114	38.104	0.13339	0
0.0520	0.925896	-16.7409	14.2098	-5.47417	1.12634	-0.800703	0.277989	29.5633	15.6866	0
0.0527	-3.08632	-5.43041	12.6783	-3.64363	-0.688321	-2.32204	-1.85697	8.19552	9.89752	0
0.0533	-4.32085	7.98997	-1.96895	2.45814	-0.688321	-0.480422	-0.333587	-1.87028	-20.3019	0
0.0540	-4.93811	16.8447	-16.3141	5.21266	-0.375448	-2.92257	-0.633815	-18.3496	-38.3095	-1.28141
0.0547	-5.24674	8.61257	-26.0755	6.12793	-0.688321	-4.76418	-2.15719	-31.7787	-44.1253	-1.92211
0.0553	-1.85179	-23.1398	-21.5021	7.95846	-0.375448	-1.40123	-1.24539	-29.9486	-48.6873	-0.320352
0.0560	4.32085	-61.291	-10.8136	6.43302	-1.00119	-0.800703	-1.54562	-18.3496	-48.3938	0
0.0567	9.72191	-76.8559	-5.62556	3.6785	-0.375448	-0.480422	-0.945163	-9.80894	-38.0161	-0.320352
0.0573	10.6478	-74.7114	-3.18782	2.76323	1.43922	2.56225	2.11272	-14.9943	-7.20305	-0.320352
0.0580	8.79601	-67.0673	-1.65642	1.23779	2.37784	4.08358	3.02452	-1.56526	39.5101	0
0.0587	5.70969	-56.6908	0.781328	-1.8131	0.500597	2.24197	0.889565	45.4326	59.6519	0
0.0593	-1.85179	-41.7485	5.05259	-3.33854	-1.00119	-0.200176	-1.54562	78.0862	39.1899	-0.320352
0.0600	-7.40717	-7.57491	9.02173	0.627611	0.500597	1.04091	-0.633815	81.4415	15.3932	-0.640704
0.0607	-7.09854	13.8009	14.5119	3.6785	2.06496	3.48306	1.80137	86.0168	6.85624	-0.320352
0.0613	-5.55538	-9.7194	20.6166	2.45814	1.75209	2.56225	2.11272	75.638	6.24264	0
0.0620	-4.32085	-52.1251	16.96	0.322522	-0.0625746	-0.200176	0.277989	39.019	4.40186	0
0.0627	-4.62948	-97.2978	11.772	-1.50801	-3.12873	-2.64232	-1.85697	4.2302	-2.00085	0
0.0633	-4.01222	-130.261	18.1789	-1.50801	-3.12873	-2.00176	-0.633815	-34.829	-5.36227	0
0.0640	-5.24674	-74.0888	7.80286	0.0174336	-1.62694	0.120105	1.50114	-58.6369	-5.97586	0
0.0647	-7.7158	88.8582	-29.1279	0.627611	-0.375448	0.720633	1.80137	-55.2816	-5.04213	0
0.0653	-5.86401	164.227	-34.9202	-0.592744	-1.00119	-1.12098	0.277989	-54.0615	-0.480203	0
0.0660	-2.77769	80.3148	-5.62556	-2.72837	-2.56556	-2.92257	-2.46854	-34.2189	-2.00085	0
0.0667	-0.925896	21.7217	17.2621	-1.20292	-0.688321	-1.40123	-1.24539	8.50054	-3.52149	0
0.0673	0	41.8522	20.6166	0.627611	1.75209	2.24197	1.80137	23.7598	6.85624	0
0.0680	0	65.6838	10.5427	0.627611	1.43922	2.56225	2.41294	-5.5386	-2.9079	0
0.0687	-1.23453	48.2857	2.91696	-0.592744	-0.688321	-0.800703	0.889565	-32.6938	-32.227	0
0.0693	-0.925896	17.156	-2.57317	-1.50801	-2.81586	-3.52309	-1.24539	-32.0837	-36.4954	0
0.0700	4.62948	16.5334	-8.98006	0.322522	-1.93981	-1.72151	-1.54562	-22.628	-19.715	0
0.0707	9.41328	19.5772	-10.8136	2.45814	0.500597	1.04091	0.277989	-9.19889	-4.13508	0
0.0713	6.63559	11.3451	-10.8136	1.23779	1.43922	1.64144	1.20091	4.2302	11.4182	0
0.0720	0.308632	20.8224	-12.9492	-0.897833	0.187724	-0.200176	-0.0222391	3.62016	16.6204	0
0.0727	-3.08632	37.2865	-19.3561	-3.03345	-0.375448	-2.00176	-2.15719	-7.06372	11.1247	-0.320352
0.0733	-1.54316	22.033	-14.7827	-2.72837	1.43922	0.120105	-0.333587	-4.3185	15.3932	-0.320352
0.0740	0.617264	-24.973	-0.13543	0.0174336	2.62813	2.56225	2.41294	5.75533	19.0481	0
0.0747	1.54316	-83.8774	0.781328	0.0174336	1.43922	1.32116	1.80137	-2.48033	10.191	0
0.0753	-0.308632	-126.283	-5.32345	-1.50801	-0.688321	-1.72151	-0.633815	-18.9597	2.26763	0
0.0760	-4.62948	-122.305	-13.866	-2.11819	-2.25269	-3.24285	-2.76877	-19.8747	-1.70739	0
0.0767	-2.77769	-115.595	-23.6378	-0.592744	-0.375448	-1.40123	-2.15719	-13.7743	-2.00085	0
0.0773	4.01222	-151.602	-12.0325	2.45814	1.12634	1.32116	-0.0222391	-23.238	-0.773661	0
0.0780	5.70969	-178.477	22.148	2.76323	0.81347	1.32116	1.20091	-31.4737	-1.38725	0
0.0787	0.617264	-159.246	55.7139	0.0174336	-0.375448	-0.800703	-0.333587	-18.3496	-1.0938	0
0.0793	-7.7158	-64.3348	59.3705	-3.03345	-1.62694	-2.32204	-2.76877	-14.6893	-0.160068	0
0.0800	-12.8082	93.4239	35.5661	-1.8131	-0.375448	-1.12098	-1.54562	-21.7129	1.97417	-0.320352
0.0807	-12.191	150.218	24.5858	0.0174336	1.12634	0.440387	1.20091	-16.8245	1.65403	0
0.0813	-8.17875	72.7053	27.3361	0.322522	1.12634	1.32116	1.20091	-1.56526	-3.84163	0
0.0820	-6.17264	0.345886	5.66723	-0.592744	0.187724	0.440387	-0.633815	20.7095	-10.8579	0
0.0827	-5.55538	-38.0821	-23.3252	-0.897833	-0.375448	-1.12098	-2.15719	46.9577	-14.2194	0
0.0833	-0.925896	-52.7477	-15.0848	1.84797	0.81347	0.720633	-0.0222391	70.1476	-12.3786	0
0.0840	1.85179	-66.4793	5.66723	1.84797	1.43922	-0.200176	0.589337	55.1933	-7.20305	-0.961056
0.0847	0.308632	-134.826	2.61484	-0.287655	1.43922	-4.16366	-1.54562	-9.50391	-9.01715	-2.24247
0.0853	0	-190.064	-17.533	-0.287655	1.12634	-2.64232	-2.15719	-46.4279	-16.647	-1.28141
0.0860	0.308632	-168.101	-41.6396	-1.50801	-0.688321	-1.40123	-2.46854	-25.3732	-13.6058	0
0.0867	0.308632	-143.681	-59.6414	-2.11819	-0.375448	-1.40123	-1.54562	4.2302	-5.97586	0
0.0873	1.85179	-96.6752	-54.4534	-0.287655	1.12634	1.64144	1.20091	29.8683	-4.74868	-0.320352
0.0880	6.94422	-14.2851	-18.4498	-0.592744	1.12634	1.64144	1.50114	51.8381	-3.22803	-0.320352
0.0887	11.2651	38.8084	5.3547	-3.03345	-1.00119	-1.12098	-0.333587	64.6571	-7.49651	0
0.0893	9.10465	134.031	2.0002	-3.94872	-3.12873	-2.64232	-2.46854	61.3018	-10.2443	0
0.0900	8.79601	200.856	17.5643	-1.8131	-1.62694	0.120105	-0.945163	26.81	12.0318	-0.320352
0.0907	12.4996	133.097	26.1068	0.9327	1.12634	2.88253	1.80137	-31.4737	28.1986	0
0.0913	14.3514	65.6838	0.781328	2.45814	1.43922	2.88253	2.11272	-76.0313	15.6866	0
0.0920	13.1169	68.7276	-22.721	1.84797	1.12634	1.32116	0.589337	-88.2403	4.40186	0
0.0927	9.41328	84.6038	-30.0447	0.627611	0.500597	-0.200176	-1.24539	-80.6067	1.04044	0
0.0933	9.41328	112.067	-2.57317	1.23779	1.43922	1.04091	-0.0222391	-42.7676	0.746983	0
0.0940	9.41328	157.24	32.5241	2.76323	2.62813	2.88253	2.11272	18.8794	1.65403	0
0.0947	4.93811	162.705	32.8262	2.45814	3.25388	2.56225	1.80137	64.6571	1.36058	-0.320352
0.0953	-2.16042	128.843	31.6073	0.627611	1.43922	0.440387	0.277989	85.7118	-1.0938	-0.320352
0.0960	-11.2651	75.7491	24.5858	-0.897833	-1.93981	-2.00176	-1.24539	97.3108	-4.13508	-0.320352
0.0967	-16.5118	-9.09681	-0.750075	0.0174336	-2.81586	-1.40123	-1.24539	91.8123	-3.22803	-0.320352
0.0973	-14.9687	-89.6537	-21.5021	1.54288	-2.81586	-0.200176	0.889565	53.3632	-0.160068	0
0.0980	-9.72191	-161.979	-29.1279	-0.287655	-2.81586	-2.92257	-0.0222391	-4.92855	0.13339	-0.640704
0.0987	-3.39495	-247.136	-20.5854	-2.72837	-2.56556	-5.08446	-2.76877	-42.1576	-0.773661	-1.28141
0.0993	-0.617264	-292.62	-19.9707	-1.8131	-1.93981	-2.64232	-2.46854	-14.3843	-1.70739	-0.320352
0.1000	-2.77769	-293.83	-16.0016	0.627611	-0.375448	1.04091	-0.0222391	3.01011	-1.0938	0
0.1007	-4.32085	-260.245	-1.96895	1.23779	1.12634	3.16278	2.11272	-46.4279	1.36058	0
0.1013	-2.77769	-168.689	-12.9492	0.9327	1.43922	3.16278	2.11272	-68.0927	2.26763	0
0.1020	-3.08632	-100.653	-33.7013	0.0174336	-0.375448	1.32116	0.277989	-49.7832	1.04044	0
0.1027	-4.62948	-40.8492	-37.9725	-0.897833	-2.25269	-0.800703	-2.15719	-26.8983	-5.04213	0
0.1033	0.617264	114.177	-4.10458	0.627611	-1.62694	-0.480422	-1.54562	-8.58884	-9.63074	0
0.1040	6.32696	266.782	43.5043	1.54288	-0.0625746	0.720633	0.889565	-2.78535	-9.33729	0
0.1047	5.24674	280.514	35.5661	0.627611	-0.0625746	0.720633	1.50114	8.19552	-8.1101	0
0.1053	2.77769	223.131	-4.40669	-0.592744	-1.00119	-0.480422	-0.0222391	2.09503	-7.78996	0
0.1060	2.16042	184.081	-15.3974	-3.03345	-1.93981	-2.64232	-2.46854	-20.4928	-10.2443	-0.320352
0.1067	1.85179	140.119	-4.10458	-2.11819	-0.688321	-1.40123	-2.15719	-29.0335	-7.49651	-0.320352
0.1073	-0.617264	109.923	3.21907	0.627611	0.81347	1.32116	0.589337	-37.2772	3.49481	0
0.1080	-0.925896	108.712	-2.27106	0.9327	0.81347	1.64144	1.50114	-47.0379	14.166	0
0.1087	-0.308632	85.5031	-16.9184	-1.20292	-1.00119	-0.200176	-0.633815	-41.2425	16.0068	0
0.1093	-3.39495	48.597	-5.02134	-2.42328	-3.4416	-4.16366	-3.08012	-21.4079	9.89752	0
0.1100	-4.01222	40.3303	34.3472	0.0174336	-2.56556	-5.68499	-2.15719	22.2347	5.62905	-0.320352
0.1107	-1.54316	58.6623	50.5259	2.45814	0.187724	-4.16366	0.277989	90.8972	4.722	-0.320352
0.1113	1.23453	76.0604	37.7121	2.45814	1.43922	-3.84337	1.20091	109.825	4.722	0
0.1120	1.85179	78.1703	25.19	0.627611	0.187724	-6.6058	-0.0222391	36.5788	2.58776	0
0.1127	0.925896	75.7491	17.5643	-1.20292	-1.31407	-8.12714	-1.24539	-29.9486	-3.22803	0
0.1133	2.77769	62.3287	6.58399	0.322522	-1.00119	-5.36471	-0.333587	-30.5586	-7.49651	-0.320352
0.1140	1.23453	40.6416	2.91696	1.23779	-0.375448	-7.20633	-0.945163	-47.648	-7.78996	-1.92211
0.1147	-4.93811	28.7431	17.8664	0.627611	-0.0625746	-9.04794	-0.945163	-107.465	-4.45522	-1.60176
0.1153	-9.10465	16.8447	27.0235	0.0174336	-0.688321	-6.28552	-0.0222391	-115.395	-2.32098	-0.320352
0.1160	-9.72191	14.7002	19.3978	-1.8131	-1.93981	-6.88605	-1.54562	-65.0424	-3.84163	0
0.1167	-4.62948	32.7208	14.2098	-1.50801	-0.0625746	-5.68499	-0.333587	-28.4234	-2.9079	-0.320352
0.1173	1.54316	38.4971	9.02173	1.23779	2.06496	-2.32204	2.11272	6.36537	0.13339	0
0.1180	1.85179	24.4542	1.08344	1.54288	2.06496	-2.92257	1.50114	45.7376	0.426847	-0.320352
0.1187	-0.925896	2.17908	-8.67795	-0.592744	0.187724	-4.76418	0.589337	61.9119	-2.00085	0
0.1193	-0.925896	-11.8293	-19.3561	-2.72837	-1.31407	-5.36471	-1.24539	83.8817	-4.13508	0
0.1200	0.617264	14.7002	-21.5021	-1.50801	-0.0625746	-3.52309	0.277989	114.095	-2.61444	-0.320352
0.1207	2.16042	38.8084	-21.1896	0.322522	1.43922	0.120105	3.02452	137.895	0.746983	-0.320352
0.1213	4.01222	0.968481	-10.5115	0.0174336	1.75209	2.88253	2.72429	113.79	1.04044	-0.320352
0.1220	0.925896	-56.414	8.40709	-0.287655	0.81347	6.52573	0.889565	-6.14865	-0.480203	0
0.1227	-4.93811	-98.8197	1.39597	-0.592744	-1.62694	13.2516	-1.54562	-112.04	-3.22803	0
0.1233	-4.01222	-123.551	-16.3141	1.23779	-1.00119	20.2578	-1.54562	-115.395	-1.70739	-0.320352
0.1240	0.308632	-125.972	-15.3974	3.37341	0.187724	18.7364	1.20091	-90.3755	1.65403	0
0.1247	1.23453	-75.0227	-12.0325	2.76323	-0.688321	11.7303	1.80137	-58.9419	1.36058	-0.320352
0.1253	-1.85179	73.6046	-19.054	0.9327	-1.93981	4.40387	-0.0222391	-2.78535	-0.773661	-0.320352
0.1260	-4.93811	187.436	-27.909	-1.20292	-2.56556	-1.40123	-2.15719	29.2582	-2.9079	0
0.1267	-2.77769	151.74	-34.618	0.0174336	-1.00119	-0.800703	-0.945163	28.0301	-2.00085	0
0.1273	2.46906	78.7929	-30.6489	1.54288	0.81347	2.88253	1.80137	22.5397	0.746983	0
0.1280	5.40106	48.8737	-11.7303	1.23779	0.81347	3.7633	1.80137	23.4548	0.746983	0
0.1287	4.93811	28.4318	8.40709	0.627611	-0.0625746	2.24197	-0.0222391	24.3698	-1.0938	-0.320352
0.1293	4.62948	0.0691772	22.7523	-1.50801	-1.31407	0.440387	-2.46854	0.874938	-3.22803	-0.320352
0.1300	6.01832	-5.43041	31.9094	-0.592744	0.187724	1.64144	-1.54562	-28.4234	-2.00085	0
0.1307	4.62948	16.2221	42.9001	1.54288	1.75209	3.48306	0.589337	-32.0837	0.746983	0
0.1313	-0.308632	26.0106	50.5259	1.84797	1.43922	2.56225	0.889565	-15.9094	1.04044	0
0.1320	-4.01222	14.7002	41.6708	0.0174336	-0.0625746	-0.200176	-0.0222391	-12.5542	-0.480203	0
0.1327	-4.01222	1.27978	30.378	-1.8131	-1.62694	-2.00176	-1.24539	-25.0682	-2.61444	-0.320352
0.1333	-0.617264	-8.78551	31.9094	-0.592744	-1.00119	-1.12098	-0.333587	-13.4692	-1.70739	-0.320352
0.1340	0.925896	-21.3066	24.2837	1.23779	0.187724	0.440387	2.72429	3.31513	0.746983	-0.320352
0.1347	0.308632	-20.684	-7.15696	1.23779	0.187724	0.720633	4.24767	-13.1642	1.36058	0
0.1353	0.308632	-5.11912	-32.7845	0.0174336	-1.00119	-1.12098	3.33587	-13.1642	0.13339	-0.320352
0.1360	-3.39495	-11.5526	-31.2635	-1.50801	-2.56556	-3.52309	-1.85697	32.9185	-2.00085	-0.320352
0.1367	-6.17264	-31.3719	-16.3141	-1.50801	-1.93981	-3.24285	-7.35003	45.7376	-1.38725	-0.320352
0.1373	-1.85179	-40.2266	-10.8136	-0.287655	-0.375448	-1.40123	-8.87341	5.75533	1.65403	0
0.1380	0.308632	-44.2043	-14.4806	-0.287655	-0.0625746	-1.12098	-10.3968	-16.5195	1.97417	0
0.1387	-2.46906	-46.9368	-1.96895	-1.8131	-1.31407	-2.64232	-13.1433	-19.5697	0.13339	-0.320352
0.1393	0.617264	-67.3786	21.2313	-2.72837	-1.93981	-3.84337	-15.5896	-25.6782	-1.70739	-0.320352
0.1400	6.63559	-100.964	14.2098	-1.50801	-0.688321	-2.92257	-14.3665	-12.5542	-0.773661	-0.320352
0.1407	8.17875	-101.863	-12.9492	0.627611	0.500597	-1.72151	-10.3968	30.4783	2.58776	0
0.1413	5.40106	-17.0176	-11.1261	0.9327	0.187724	-1.40123	-9.48499	75.333	2.26763	0
0.1420	2.16042	122.755	3.21907	0.0174336	-1.31407	-0.480422	-12.5429	68.6224	-6.88291	0
0.1427	0.617264	155.407	-2.8857	-1.8131	-2.81586	1.32116	-13.7549	27.7251	-18.1677	-0.320352
0.1433	2.16042	71.7714	-6.84443	0.322522	-1.62694	4.08358	-9.79633	10.6357	-23.0498	0
0.1440	0.617264	22.033	-7.76119	2.76323	-0.375448	1.32116	-7.35003	12.7789	-26.1177	-0.961056
0.1447	-2.16042	33.6201	-13.5639	2.15306	-1.00119	-3.84337	-7.65026	16.7442	-30.3862	-1.92211
0.1453	-0.925896	24.4542	-11.4282	2.45814	-1.62694	-2.00176	-4.90373	-7.06372	-37.109	-0.961056
0.1460	0.308632	-24.3504	-4.10458	1.84797	-1.62694	1.64144	-1.54562	-36.049	-32.8139	0
0.1467	-3.08632	-36.5602	0.781328	-0.287655	0.500597	4.08358	3.33587	17.6593	6.85624	0
0.1473	-7.7158	-12.1406	3.83372	-0.897833	2.62813	5.60492	11.5755	97.0057	39.8035	0
0.1480	-5.86401	-5.74171	17.2621	-0.592744	2.06496	4.68411	17.6801	92.4223	33.4008	-0.320352
0.1487	-2.16042	-4.84241	37.7121	-0.287655	0.500597	2.88253	18.8921	16.4392	27.2916	-0.320352
0.1493	-3.39495	5.84548	37.3996	-1.8131	-1.00119	1.64144	18.5919	-79.3866	27.9051	-0.320352
0.1500	-2.16042	12.5557	15.1265	-0.897833	-1.31407	2.88253	17.9803	-108.075	24.8639	0
0.1507	1.54316	11.0338	-19.9707	0.627611	-0.375448	4.08358	13.3991	-58.6369	21.7959	0
0.1513	-0.617264	18.9892	-46.8276	0.627611	-0.0625746	4.40387	8.21736	-29.0335	15.6866	-0.320352
0.1520	-3.70358	17.4673	-39.8061	-0.287655	-1.31407	2.88253	4.24767	-37.2772	8.99047	-0.320352
0.1527	-3.08632	-40.8492	-18.7519	-1.8131	-1.93981	0.720633	0.589337	-58.0268	4.722	-0.320352
0.1533	-0.925896	-107.674	-8.07372	-0.897833	0.187724	2.24197	1.50114	-75.7263	4.722	-0.320352
0.1540	1.85179	-136.037	-7.15696	1.23779	2.06496	4.08358	4.5479	-65.9575	7.14969	-0.320352
0.1547	4.32085	-158.035	-10.5115	0.9327	1.12634	2.88253	4.5479	-47.648	6.85624	0
0.1553	2.16042	-159.869	-16.3141	-0.897833	0.500597	-1.12098	1.50114	-23.5431	4.10841	0
0.1560	-5.24674	-154.369	-27.2944	-2.42328	-0.375448	-3.52309	-1.24539	39.019	1.65403	-0.320352
0.1567	-8.79601	-129.016	-37.3683	-0.592744	-0.0625746	-2.00176	0.589337	107.072	2.88122	0
0.1573	-6.78991	48.597	-30.9614	3.37341	1.43922	-1.40123	3.02452	116.23	4.40186	-0.320352
0.1580	-4.01222	233.819	-10.8136	3.37341	0.81347	-3.24285	3.02452	60.9968	3.78827	-0.320352
0.1587	-5.86401	193.523	0.781328	0.322522	-1.00119	-6.28552	2.11272	3.92518	1.65403	-0.320352
0.1593	-7.40717	88.5469	2.0002	-2.11819	-2.56556	-8.72766	0.589337	-12.5542	-0.773661	0
0.1600	-1.23453	60.4955	5.3547	-0.592744	-1.31407	-8.40738	0.889565	-10.419	0.13339	0
0.1607	3.08632	55.3072	5.3547	2.15306	0.81347	-5.08446	3.6361	-11.3341	2.58776	-0.320352
0.1613	3.39495	57.4171	-0.437544	2.15306	1.43922	-3.84337	5.47082	-19.8747	3.17468	-0.320352
0.1620	3.70358	56.5178	-2.57317	0.322522	-0.0625746	-5.96524	4.85925	-32.3888	1.36058	-0.320352
0.1627	2.46906	32.0982	-2.57317	-1.20292	-1.93981	-8.12714	4.24767	-30.2536	-1.38725	0
0.1633	1.54316	6.77937	-1.65642	0.322522	-1.00119	-8.40738	6.69398	-14.6893	-1.0938	0
0.1640	1.85179	3.42427	-0.13543	1.84797	0.500597	-8.72766	9.74074	5.75533	1.36058	-0.320352
0.1647	1.85179	10.1345	-0.437544	0.0174336	-0.0625746	-9.64847	11.8757	43.5944	1.36058	-0.320352
0.1653	0.925896	4.01228	-2.57317	-2.11819	-1.31407	-13.9322	11.2641	64.0471	-0.160068	0
0.1660	-2.16042	-13.6625	-4.10458	-3.33854	-2.25269	-19.7373	11.5755	38.409	-1.38725	0
0.1667	-2.77769	-10.0307	-2.8857	-3.03345	-1.31407	-18.176	15.8454	13.0839	-0.160068	-0.320352
0.1673	0.925896	6.15677	-0.13543	-1.20292	-0.0625746	-12.4109	20.4266	17.3543	1.65403	0
0.1680	1.23453	0.968481	1.39597	0.322522	-0.0625746	-9.64847	19.8151	33.2236	0.426847	0
0.1687	-1.85179	-10.93	1.39597	0.322522	-1.31407	-9.32819	15.2338	26.81	-2.00085	0
0.1693	-3.39495	-12.7632	0.166683	-1.8131	-2.81586	-8.40738	14.0106	-0.0401348	-3.52149	0
0.1700	-1.23453	-10.0307	1.39597	-0.592744	-1.62694	-2.32204	17.6801	-8.58884	-2.00085	0
0.1707	1.54316	-8.47421	4.13583	1.84797	0.500597	5.00439	18.8921	-1.56526	-0.480203	-0.320352
0.1713	2.16042	-8.47421	4.75047	1.23779	1.12634	12.0105	15.8454	1.17996	0.13339	0
0.1720	1.54316	-10.6187	2.61484	-0.897833	0.187724	15.3735	10.6525	0.874938	-0.480203	0
0.1727	0	-12.4519	0.166683	-2.11819	-1.31407	16.2943	5.47082	-0.650183	-2.61444	0
0.1733	0	-11.2413	0.479215	-0.287655	-1.00119	22.0994	4.85925	-0.0401348	-2.61444	0
0.1740	0.308632	-10.0307	0.781328	0.627611	-0.0625746	24.5415	0.589337	-0.345159	-1.0938	-0.961056
0.1747	-0.925896	-6.05301	0.166683	0.322522	-1.00119	22.0994	-11.0084	-1.87028	-1.0938	-1.92211
0.1753	-0.308632	2.49038	-1.96895	0.9327	-1.93981	20.5781	-21.9945	-1.26023	-2.61444	-0.640704
0.1760	-0.308632	7.98997	-8.37584	0.0174336	-1.62694	19.337	-29.3223	-1.56526	-4.45522	0
0.1767	0.925896	11.0338	-12.0325	0.627611	1.12634	18.4162	-28.7107	-2.1753	-2.9079	0
0.1773	2.77769	14.3889	-10.2094	1.84797	2.62813	15.974	-21.3829	-2.48033	-0.160068	0
0.1780	3.08632	0.345886	-8.07372	1.54288	1.43922	15.3735	-16.2012	-0.955208	-0.773661	0
0.1787	3.08632	-30.1613	-9.29259	1.23779	0.500597	13.8522	-14.6778	2.09503	-2.32098	-0.320352
0.1793	1.85179	-39.604	-4.10458	-0.287655	-0.375448	4.40387	-14.978	2.09503	-3.84163	-0.320352
0.1800	0.617264	-25.8723	17.5643	-0.592744	-0.375448	-1.12098	-14.3665	4.53523	-3.52149	-0.320352
0.1807	-0.308632	-15.4957	26.4193	1.54288	1.12634	1.64144	-11.0084	12.1608	-1.0938	-0.640704
0.1813	-1.23453	-12.1406	13.293	2.15306	1.43922	2.56225	-8.26183	20.0995	-0.480203	-0.640704
0.1820	-1.85179	-12.1406	3.21907	0.322522	0.187724	-2.92257	-7.96161	26.505	-1.38725	0
0.1827	-1.85179	-13.3858	-0.437544	-1.50801	-1.00119	-6.88605	-9.79633	32.3085	-2.9079	0
0.1833	-0.308632	-10.93	0.781328	0.0174336	-0.375448	-3.24285	-8.87341	42.6793	-2.32098	0
0.1840	1.23453	-6.95231	3.5316	1.84797	1.43922	1.32116	-5.5153	29.5633	0.13339	0
0.1847	1.54316	-17.6402	5.3547	1.84797	2.37784	1.64144	-4.6035	-23.8481	0.426847	-0.320352
0.1853	1.85179	-43.893	7.18822	0.627611	1.12634	-1.12098	-5.82665	-60.7721	-1.0938	-0.320352
0.1860	-1.23453	-56.414	5.3547	-0.897833	-0.688321	-4.16366	-7.96161	-46.7329	-2.9079	0
0.1867	-2.16042	-46.3142	1.69809	-0.287655	-0.0625746	-2.64232	-7.35003	-23.238	-2.00085	0
0.1873	-0.925896	-41.1259	-3.48993	1.84797	1.75209	0.120105	-4.6035	-15.2994	0.426847	0
0.1880	-1.54316	-47.5594	-7.76119	2.15306	1.75209	-2.92257	-4.6035	-6.45367	0.746983	0
0.1887	-0.925896	-64.9574	-9.59471	0.9327	-0.0625746	-8.40738	-5.5153	-0.955208	-1.0938	0
0.1893	-0.617264	-62.1903	-13.2617	-0.897833	-1.62694	-10.8495	-6.12688	-7.06372	-3.52149	0
0.1900	-1.54316	-3.59722	-14.4806	-0.592744	-1.00119	-11.1698	-4.90373	-7.97879	-2.9079	0
0.1907	-1.54316	30.8876	-8.07372	1.54288	0.81347	-9.64847	-1.85697	-7.36874	-0.160068	0
0.1913	0.308632	-9.40811	-1.05219	2.45814	2.06496	-7.80685	-0.333587	-10.419	1.36058	0
0.1920	0.308632	-53.647	1.08344	0.9327	1.43922	-9.04794	-1.24539	-10.114	-0.160068	0
0.1927	-4.01222	-65.5454	-1.96895	-0.897833	-0.375448	-11.4901	-2.15719	-9.50391	-2.32098	0
0.1933	-4.93811	-35.9376	-5.32345	-0.592744	0.500597	-10.249	-0.633815	-11.3341	-0.480203	0
0.1940	-0.617264	60.4955	0.479215	0.9327	2.37784	-8.12714	1.20091	-10.724	1.97417	0
0.1947	2.77769	129.154	9.32385	0.9327	1.75209	-7.52661	2.11272	-9.19889	-1.38725	0
0.1953	2.46906	76.3371	8.71962	0.0174336	-0.375448	-8.72766	0.889565	-10.114	-8.72369	0
0.1960	-0.308632	16.5334	0.781328	-2.11819	-2.56556	-10.5693	-5.5153	-10.724	-13.2856	0
0.1967	-1.85179	31.7869	-5.02134	-1.8131	-1.31407	-8.12714	-12.5429	-7.67377	-12.0851	0
0.1973	0.308632	56.2065	-5.93809	0.322522	0.81347	-5.36471	-14.0662	-3.3954	-10.2443	0
0.1980	2.16042	47.9744	-2.27106	0.9327	0.81347	-6.88605	-13.4547	-0.0401348	-11.765	-0.320352
0.1987	2.16042	26.91	8.40709	-0.592744	-0.375448	-9.32819	-14.0662	0.569914	-14.5128	0
0.1993	1.54316	18.6779	22.7523	-2.42328	-1.93981	-7.52661	-15.5896	-0.0401348	-6.26932	0
0.2000	3.70358	13.4896	29.1592	-3.33854	-1.62694	-1.72151	-15.5896	5.4503	20.5687	-0.640704
0.2007	5.24674	1.90237	15.7307	-3.33854	-0.0625746	2.56225	-15.2894	10.9407	34.628	-1.60176
0.2013	2.77769	1.90237	-4.10458	-1.8131	1.12634	5.00439	-12.5429	6.6704	22.4095	-0.640704
0.2020	1.54316	4.63488	-11.4282	-2.42328	-0.0625746	1.04091	-9.18476	-0.345159	9.60406	0
0.2027	2.16042	1.90237	-11.4282	-5.16908	-1.62694	-8.12714	-6.73845	5.14528	5.30891	0
0.2033	2.46906	10.1345	-1.3543	-4.25381	0.187724	-11.7703	-0.0222391	15.2191	1.36058	0
0.2040	2.77769	11.3451	13.5951	-2.11819	2.37784	-9.64847	5.77105	8.80557	-6.58946	0
0.2047	1.23453	-0.553418	13.5951	-1.8131	2.62813	-8.12714	9.44051	1.17996	-14.2194	-0.320352
0.2053	-1.54316	-12.7632	3.21907	-2.72837	1.43922	-8.40738	13.0988	-0.0401348	-16.647	0
0.2060	-4.93811	-46.0375	-7.45908	-4.86399	-1.62694	-9.96875	7.60578	1.79001	-17.8742	-0.320352
0.2067	-4.01222	-82.6322	-8.37584	-5.16908	-2.81586	-12.0906	-1.85697	25.895	-21.2357	-2.24247
0.2073	0.617264	-73.8121	10.8553	-1.20292	-0.0625746	-7.80685	2.72429	31.0884	-10.8579	-1.60176
0.2080	1.54316	-34.727	30.378	1.84797	1.12634	-0.480422	12.4873	-3.70043	28.1986	0
0.2087	0.925896	-9.09681	48.3903	0.9327	-0.375448	4.68411	9.74074	-20.7978	61.1726	0
0.2093	2.46906	-22.5172	72.7989	0.9327	-1.93981	8.64759	0.277989	-10.724	45.0057	0
0.2100	4.01222	-51.2257	77.0702	2.45814	-1.31407	3.16278	-7.65026	-10.114	7.76329	0
0.2107	3.39495	-60.3571	42.2855	3.98359	0.81347	-7.20633	-15.8899	-20.1878	-9.33729	-0.320352
0.2113	-3.08632	-41.7485	-16.6162	5.21266	1.12634	-9.96875	-19.248	-11.3341	-12.3786	-0.320352
0.2120	-13.1169	-17.0176	-47.1297	4.59377	-0.688321	-14.5328	-17.113	-1.26023	-16.9672	-0.320352
0.2127	-15.5859	18.6779	-28.8258	2.15306	-2.25269	-24.9019	-14.6778	-8.28382	-27.9318	0
0.2133	-8.02443	92.2133	-5.02134	1.54288	-1.00119	-26.7435	-11.3197	-10.114	-27.9318	0
0.2140	-1.85179	118.777	1.08344	1.23779	0.81347	-22.1394	-6.12688	-10.724	-13.2856	0
0.2147	0.308632	65.9605	1.39597	1.23779	1.43922	-14.853	-1.85697	-15.2994	-4.45522	0
0.2153	2.77769	27.8438	0.479215	1.84797	0.81347	-2.00176	0.889565	-9.80894	-5.36227	0
0.2160	3.39495	18.9892	-5.62556	2.76323	-1.31407	9.5684	3.94744	4.53523	-7.78996	0
0.2167	3.70358	11.9677	-14.4806	4.28868	-1.31407	18.7364	7.90601	17.9643	6.5361	0
0.2173	3.70358	9.82317	-19.054	3.06832	0.187724	23.3005	11.8757	21.0146	23.3165	0
0.2180	3.39495	8.30127	-17.2205	0.9327	-0.375448	21.7791	17.3688	17.6593	10.5111	0
0.2187	3.39495	1.27978	-16.9184	-0.287655	-2.25269	19.9375	21.95	21.6246	-6.58946	0
0.2193	1.54316	-4.21981	-19.3561	-1.50801	-3.12873	20.8583	22.5616	21.6246	-5.04213	0
0.2200	1.23453	-3.59722	-15.0848	-0.287655	-1.00119	28.8253	24.085	6.6704	-3.52149	0
0.2207	1.85179	2.17908	-5.62556	1.23779	1.75209	37.0325	24.6965	-6.14865	-9.63074	0
0.2213	4.01222	6.77937	5.96935	0.9327	2.37784	36.7523	21.6387	-10.419	-18.1677	0
0.2220	6.32696	0.968481	8.40709	-1.20292	1.43922	34.5904	20.1153	-15.6044	-7.78996	0
0.2227	4.93811	-11.8293	-6.24021	-4.25381	-1.00119	30.3466	19.8151	-20.7978	33.0807	-0.320352
0.2233	4.62948	-23.1398	-6.54232	-3.64363	-1.31407	23.941	20.7269	-14.0793	57.5177	0
0.2240	4.32085	-26.4949	4.43794	-0.287655	0.500597	21.4989	19.5037	-0.650183	41.6443	0
0.2247	-0.617264	-29.5387	-2.27106	0.9327	0.81347	13.8522	14.9336	19.4894	21.1823	0
0.2253	-6.17264	-45.4149	-13.2617	-0.592744	-0.375448	-5.68499	10.041	40.2391	11.7383	0
0.2260	-12.4996	-52.4364	-16.6162	-3.03345	-2.25269	-27.344	6.69398	34.7487	5.92251	0
0.2267	-14.66	-10.0307	-21.8043	-3.03345	-0.688321	-37.4329	7.90601	17.0492	5.01546	0
0.2273	-9.10465	58.6623	-27.5965	-0.592744	1.43922	-39.875	11.5755	21.3196	6.85624	0
0.2280	-2.77769	71.4601	-25.1588	0.0174336	1.12634	-39.875	14.0106	35.3587	6.5361	0
0.2287	-0.925896	32.4095	-18.1372	-0.897833	-0.375448	-33.1491	16.7572	18.2693	3.78827	0
0.2293	-2.46906	8.61257	-12.9492	-2.42328	-2.25269	-26.4232	18.2806	-27.8134	-0.480203	0
0.2300	-1.85179	3.11298	2.0002	-1.50801	-1.00119	-20.6181	19.5037	-47.343	-0.480203	0
0.2307	-1.23453	2.49038	22.148	0.0174336	0.81347	-8.72766	18.5919	-29.0335	0.13339	0
0.2313	-1.54316	9.51187	26.7214	0.9327	1.12634	8.04706	14.6222	-7.97879	-2.32098	0
0.2320	-1.23453	11.9677	16.6475	1.84797	0.187724	17.2151	12.187	-2.1753	-3.84163	-0.320352
0.2327	-0.308632	10.1345	5.3547	0.627611	-1.62694	22.3796	9.12916	-3.70043	-5.97586	0
0.2333	-0.925896	18.3666	-1.96895	0.9327	-0.688321	35.5112	6.0824	-2.48033	-4.74868	0
0.2340	-4.93811	19.5772	-10.8136	0.322522	1.12634	45.8803	3.02452	-3.70043	-2.61444	-0.961056
0.2347	-5.55538	6.77937	-19.3561	-2.42328	1.43922	45.6	-1.24539	0.569914	1.04044	-2.24247
0.2353	-0.617264	7.98997	-19.3561	-2.42328	1.43922	41.9168	-1.24539	17.9643	7.76329	-0.640704
0.2360	-0.308632	12.5557	-17.8351	-3.33854	-1.00119	31.5477	-0.633815	34.7487	6.24264	-0.320352
0.2367	-3.08632	-13.3858	-3.18782	-3.64363	-1.62694	19.0567	3.02452	38.104	-0.773661	-1.92211
0.2373	-3.39495	-44.2043	23.3669	1.84797	1.12634	19.6573	14.0106	34.4437	-2.9079	-0.961056
0.2380	-4.93811	-45.7262	26.4193	5.82284	2.37784	22.6999	17.9803	43.8994	-2.61444	0
0.2387	-7.40717	-32.5825	2.61484	2.45814	0.500597	13.8522	12.187	41.4592	-3.84163	-0.320352
0.2393	-5.55538	-19.1621	-24.8566	-0.897833	-1.62694	3.48306	6.9942	3.01011	-5.97586	-0.320352
0.2400	3.08632	-10.3074	-21.8043	0.322522	-0.0625746	-4.16366	5.77105	-21.1029	-5.36227	0
0.2407	10.3392	5.53418	-1.3543	2.15306	2.37784	-13.6119	4.24767	-1.26023	-2.9079	0
0.2413	9.41328	53.7853	11.772	2.15306	3.25388	-20.0176	-2.46854	-0.955208	-2.00085	0
0.2420	2.46906	82.148	25.19	0.322522	1.75209	-23.0602	-13.1433	-43.9877	-4.13508	-0.320352
0.2427	-1.85179	15.0115	15.4286	-1.8131	-0.688321	-23.3805	-19.248	-62.6022	-6.88291	-0.320352
0.2433	1.85179	-65.2341	-8.98006	-0.897833	0.187724	-22.1394	-16.8128	-29.9486	-5.65573	0
0.2440	4.32085	-86.6099	-9.29259	2.15306	2.62813	-28.8653	-14.3665	3.62016	-2.00085	0
0.2447	3.39495	-108.574	10.2406	2.45814	3.56675	-40.1553	-12.5429	-11.3341	-0.773661	0
0.2453	1.23453	-132.094	21.8355	1.54288	1.43922	-42.5974	-11.6199	-49.1731	-1.70739	0
0.2460	-6.48127	-97.2978	11.4595	-0.287655	-3.12873	-35.271	-15.5896	-41.2425	-4.45522	0
0.2467	-10.9564	13.4896	-1.65642	-1.20292	-4.06735	-24.9019	-17.4244	13.0839	-4.13508	0
0.2473	-7.40717	97.4016	-1.05219	-0.897833	-1.62694	-17.2952	-14.978	32.0035	-1.38725	0
0.2480	-5.24674	64.7499	2.91696	-1.50801	0.500597	-13.6119	-14.6778	17.6593	-0.480203	0
0.2487	-3.39495	10.1345	1.69809	-4.25381	0.500597	-12.4109	-17.4244	13.389	-0.773661	0
0.2493	0.308632	-10.3074	-0.13543	-7.91488	-1.62694	-11.7703	-22.6061	3.01011	-2.00085	0
0.2500	3.39495	-33.2051	1.69809	-7.91488	-1.31407	-10.8495	-26.5758	-4.62353	-2.9079	0
0.2507	4.01222	-55.7915	4.75047	-5.77925	0.187724	-10.249	-24.741	-4.92855	-2.32098	-0.320352
0.2513	2.46906	-79.0004	5.66723	-6.08434	5.06854	-5.08446	-18.0359	-11.6391	-0.480203	-0.320352
0.2520	-0.925896	-95.7759	2.0002	-5.47417	14.8302	0.720633	-12.5429	-18.9597	-0.160068	0
0.2527	-5.24674	-32.3058	-4.7088	-2.72837	17.8963	0.120105	-11.0084	-21.4079	-2.32098	0
0.2533	-4.93811	69.0389	-2.8857	1.84797	17.8963	1.04091	-8.57318	-19.8747	-2.32098	-0.320352
0.2540	0	65.3725	5.66723	6.73811	21.2754	7.12626	-4.29215	-11.3341	-4.74868	-0.320352
0.2547	1.85179	14.3889	9.62596	8.56864	22.214	13.8522	-1.85697	-0.345159	-14.8329	0
0.2553	1.23453	20.8224	11.772	6.73811	19.4607	21.1786	-2.76877	-6.7587	-22.7563	0
0.2560	0.925896	58.939	14.814	4.89886	15.1431	31.868	-4.29215	-27.5084	-23.9835	0
0.2567	-1.54316	72.982	13.5951	5.21266	6.63291	44.0787	-3.08012	-30.2536	-23.3699	-0.320352
0.2573	-3.08632	51.9521	13.5951	5.82284	-1.93981	47.1214	-0.333587	-9.19889	-20.9155	-0.320352
0.2580	-0.925896	31.7869	10.2406	6.12793	-5.56914	37.9533	-3.69169	16.7442	-23.0498	0
0.2587	0	25.6993	-6.54232	5.51775	-10.45	24.8218	-11.9313	43.2894	-32.227	0
0.2593	-2.16042	23.5549	-24.242	2.45814	-17.4583	13.5319	-17.113	44.8225	-14.8329	0
0.2600	-1.23453	22.6555	-27.5965	-0.287655	-19.3356	7.76682	-20.7825	15.2191	28.8122	-0.320352
0.2607	1.54316	21.7217	-19.3561	1.54288	-17.7712	5.9252	-23.529	-7.67377	38.8965	0
0.2613	2.16042	20.1998	-10.8136	3.06832	-15.3308	3.16278	-23.529	-21.1029	16.9138	0
0.2620	1.54316	15.9108	3.5316	1.23779	-12.0143	-1.12098	-24.1294	-29.3385	0.426847	0
0.2627	1.54316	10.1345	25.19	-0.287655	-10.7628	-5.08446	-22.3058	-24.1531	-5.04213	0
0.2633	0.925896	10.1345	19.6999	1.23779	-10.7628	-4.76418	-15.8899	-28.7285	9.89752	0
0.2640	-2.16042	7.98997	-4.40669	0.0174336	-10.7628	-6.28552	-11.6199	-32.3888	24.2503	-1.60176
0.2647	-2.16042	-3.00921	-3.18782	-1.50801	-10.1371	-8.12714	-7.0498	3.01011	18.141	-2.24247
0.2653	-0.308632	-8.78551	5.3547	-0.287655	-8.00955	-5.96524	-0.0222391	36.8839	10.5111	-0.320352
0.2660	-2.77769	-4.84241	-1.96895	-1.50801	-5.88201	-4.76418	1.20091	24.3698	-0.480203	0
0.2667	-3.08632	0.345886	-6.24021	0.322522	-2.25269	-4.4439	5.47082	4.84025	-12.672	-0.320352
0.2673	0.308632	2.80168	-2.8857	5.51775	0.187724	-7.20633	16.457	3.01011	-26.4112	-0.320352
0.2680	1.54316	2.49038	-1.05219	7.04319	-0.0625746	-13.9322	21.0271	3.01011	-52.6623	0
0.2687	0	0.0691772	-2.27106	3.37341	-2.25269	-19.0968	21.95	-1.87028	-73.7112	0
0.2693	-2.46906	-2.69791	-5.32345	-2.42328	-3.75448	-18.4962	24.6965	-4.62353	-75.8454	-0.320352
0.2700	-1.85179	-2.69791	-5.02134	-2.42328	-2.56556	-10.5693	23.4734	0.569914	-72.1906	0
0.2707	-0.925896	-0.864716	-2.27106	2.15306	-0.688321	-4.16366	18.5919	6.36537	-80.1406	0
0.2713	-2.16042	0.657184	-0.13543	3.06832	-0.375448	-2.00176	12.7875	4.84025	-60.9058	-0.320352
0.2720	-1.23453	-1.17601	0.479215	-0.592744	-1.62694	-4.4439	4.85925	4.2302	34.3079	-0.320352
0.2727	-0.925896	-2.69791	-0.437544	-3.64363	-3.12873	-9.04794	-1.85697	14.304	126.774	0
0.2733	-0.617264	0.657184	-0.437544	-2.72837	-2.56556	-10.8495	-1.24539	26.81	128.908	0
0.2740	0.308632	4.32358	-1.05219	0.0174336	-1.00119	-9.04794	6.38263	28.3351	82.5416	0
0.2747	1.23453	4.32358	-4.7088	2.76323	0.81347	-5.08446	13.7104	24.3698	48.047	0
0.2753	1.23453	6.77937	-8.07372	1.54288	0.81347	-1.12098	18.2806	28.9532	32.4938	0
0.2760	-0.925896	10.4458	-8.67795	-2.11819	-0.688321	-0.200176	20.4266	21.9296	23.3165	0
0.2767	-1.85179	0.0691772	-5.93809	-2.42328	-0.688321	3.48306	23.7736	-8.89386	17.234	0
0.2773	-0.308632	-10.6187	-3.79205	-0.287655	0.81347	15.3735	26.5202	-17.7396	15.0997	0
0.2780	-0.617264	-5.43041	-2.57317	1.54288	1.12634	27.2639	23.1732	1.48499	12.9388	0
0.2787	-2.16042	-10.6187	2.30231	0.322522	-0.0625746	34.9106	15.2338	2.70508	10.8046	0
0.2793	-1.85179	-21.9292	2.0002	-2.72837	-0.375448	37.3528	6.69398	-19.5697	7.46983	-0.320352
0.2800	1.85179	-13.3858	-3.79205	-2.11819	1.12634	26.9837	3.02452	-40.6324	1.97417	-0.320352
0.2807	6.32696	-4.53111	-0.13543	2.15306	2.62813	11.0897	4.85925	-49.7832	-1.0938	0
0.2813	7.56149	-7.26361	8.10498	4.59377	2.37784	3.16278	6.38263	-47.648	-0.480203	-0.320352
0.2820	4.32085	-9.09681	5.66723	3.37341	0.187724	0.440387	3.94744	-21.1029	-2.32098	-0.320352
0.2827	-1.23453	-13.3858	-3.48993	0.322522	-1.93981	-1.40123	1.80137	20.7095	-8.40356	0
0.2833	-2.77769	-12.1406	-4.10458	0.0174336	-1.62694	-1.40123	3.6361	32.0035	-10.5378	-0.320352
0.2840	-0.617264	-4.84241	0.479215	1.54288	0.81347	-0.800703	6.0824	20.7095	-6.26932	-0.320352
0.2847	0.308632	-3.00921	1.39597	0.9327	1.43922	-1.40123	5.77105	18.5744	-2.9079	-0.320352
0.2853	-1.54316	-4.84241	-0.437544	-0.287655	0.187724	-3.84337	4.24767	15.5241	-4.74868	0
0.2860	-3.70358	-6.36431	-2.27106	-1.8131	-1.31407	-6.28552	2.41294	7.28045	-13.6058	0
0.2867	-2.77769	-5.11912	-1.3543	-2.11819	-0.375448	-4.4439	2.41294	4.2302	-12.0851	0
0.2873	-0.308632	-2.69791	1.39597	-0.897833	1.43922	-1.40123	4.24767	5.14528	8.99047	0
0.2880	0	-1.45272	1.39597	0.322522	1.12634	-2.32204	5.15948	4.53523	14.7796	0
0.2887	-1.54316	-2.38662	-0.437544	-0.287655	0.187724	-5.08446	2.72429	3.01011	3.78827	0
0.2893	-2.46906	-5.11912	-1.3543	-2.42328	-1.62694	-6.88605	-1.54562	-0.0401348	1.97417	0
0.2900	-2.16042	-5.11912	-0.13543	-1.50801	-1.62694	-6.28552	-1.24539	-0.345159	8.37688	0
0.2907	0	-2.07532	2.0002	1.54288	0.500597	-4.16366	1.20091	1.17996	8.05674	0
0.2913	1.23453	0.0691772	3.83372	2.45814	1.12634	-2.64232	1.50114	2.40006	-0.773661	-0.320352
0.2920	0.308632	0.345886	3.5316	0.9327	-0.0625746	-2.32204	-0.945163	2.70508	-14.8329	-0.320352
0.2927	-1.85179	-0.864716	-2.8857	-0.897833	-1.31407	-1.40123	-4.6035	-0.955208	-43.5117	0
0.2933	-2.16042	-1.76402	-7.76119	-0.287655	-0.688321	-0.480422	-4.29215	-4.3185	-61.8128	-0.320352
0.2940	-1.23453	0.657184	-7.45908	0.0174336	0.500597	-3.52309	-6.73845	-4.3185	-48.3938	-1.92211
0.2947	0	5.25747	-5.02134	-0.287655	2.06496	-4.4439	-12.8431	-2.1753	-32.8139	-1.60176
0.2953	0.925896	5.53418	-2.8857	-0.592744	2.06496	-3.84337	-16.8128	-0.955208	-26.4112	0
0.2960	-1.85179	6.46807	-5.02134	-3.94872	0.500597	-6.6058	-23.8292	-7.97879	-27.3449	0
0.2967	-1.54316	10.7225	-9.59471	-6.38943	1.43922	-5.96524	-26.876	-17.1295	-29.159	-0.320352
0.2973	1.85179	6.15677	-9.29259	-6.69452	3.25388	-4.16366	-22.6061	-16.2144	-6.58946	-0.320352
0.2980	0.925896	-3.28592	-5.93809	-6.38943	2.37784	-1.40123	-19.8595	-10.114	21.1823	-0.320352
0.2987	-2.46906	-11.2413	-5.93809	-7.3047	-0.688321	-3.24285	-20.1709	-11.3341	23.6367	0
0.2993	-3.08632	-16.4296	-7.45908	-6.38943	-3.75448	-25.5024	-17.113	2.40006	20.5687	0
0.3000	1.23453	-12.1406	-1.96895	-0.592744	-2.81586	-49.003	-9.18476	30.1733	35.535	0
0.3007	5.24674	-5.11912	18.1789	2.45814	-0.375448	-55.1284	-2.15719	38.104	49.2742	0
0.3013	5.40106	-0.864716	33.1283	2.45814	0.187724	-52.9665	3.02452	41.7642	48.6606	0
0.3020	2.46906	0.657184	21.5334	2.45814	-0.688321	-48.7228	6.69398	44.8225	35.8285	0
0.3027	-0.617264	-1.17601	5.66723	0.627611	-2.81586	-41.6766	8.21736	43.2894	17.234	0
0.3033	0.617264	-2.69791	6.8861	0.627611	-2.56556	-26.7435	10.6525	30.7834	7.76329	0
0.3040	1.54316	-16.1183	12.9909	2.15306	-0.688321	-6.6058	12.7875	-25.6782	6.5361	0
0.3047	0.925896	-40.2266	12.0741	1.54288	0.187724	8.96787	13.0988	-48.258	5.30891	-0.320352
0.3053	1.85179	-53.0589	1.39597	0.322522	-0.0625746	18.1359	8.82893	-7.36874	5.30891	-0.320352
0.3060	4.93811	-68.9005	2.0002	0.9327	-2.25269	20.8583	1.80137	-1.87028	3.17468	0
0.3067	8.48738	-78.3778	8.10498	5.51775	-1.93981	25.7426	4.85925	-14.9943	-4.13508	0
0.3073	6.32696	-53.0589	-17.2205	10.3992	-0.0625746	36.432	13.0988	13.694	-10.5378	-0.320352
0.3080	-0.308632	-53.9583	-28.5133	9.78899	-0.0625746	42.5574	15.2338	55.4984	-9.95088	-0.320352
0.3087	-3.08632	-71.045	-5.02134	6.43302	-1.31407	39.4747	14.9336	41.1542	-7.20305	0
0.3093	-6.48127	1.59108	3.83372	3.37341	-3.12873	34.5904	9.74074	-28.4234	-8.1101	0
0.3100	-8.17875	62.6054	5.05259	2.45814	-2.56556	36.432	3.33587	-53.1465	-7.49651	0
0.3107	-0.925896	43.6854	11.4595	2.76323	-0.375448	40.1152	2.41294	-14.9943	2.58776	-0.320352
0.3113	3.70358	68.7276	6.58399	1.54288	0.81347	38.2736	0.889565	-2.1753	14.7796	-0.320352
0.3120	-2.16042	107.778	-4.7088	-1.20292	-0.0625746	32.1482	-3.38035	-39.1073	13.8725	-0.320352
0.3127	-8.02443	97.0903	-8.07372	-2.42328	-1.31407	15.0532	-6.43823	-35.744	1.97417	0
0.3133	-5.55538	75.1265	-5.93809	-0.287655	0.187724	-9.64847	-4.6035	7.28045	-5.36227	-0.320352
0.3140	0.617264	40.6416	-4.40669	1.84797	2.06496	-25.2221	-1.24539	-28.1184	-7.20305	-0.320352
0.3147	2.16042	4.94617	-2.57317	1.84797	1.12634	-33.1491	0.889565	-98.0011	-9.01715	0
0.3153	-1.23453	-5.43041	-0.13543	1.23779	0.187724	-39.2344	3.33587	-110.82	-7.20305	-0.320352
0.3160	-4.32085	-4.84241	-0.750075	0.0174336	-1.00119	-38.9542	6.0824	-85.4951	-6.88291	-0.320352
0.3167	-2.77769	-2.07532	-1.65642	0.9327	-0.688321	-31.6278	10.3523	-21.1029	-23.6633	-0.320352
0.3173	0.308632	5.53418	-0.437544	3.37341	1.12634	-22.4597	15.534	67.7074	-52.3688	0
0.3180	-0.925896	10.1345	-0.750075	3.37341	1.43922	-13.0114	18.5919	113.79	-74.6449	0
0.3187	-3.39495	7.67867	-1.96895	1.84797	0.500597	-3.24285	18.8921	99.4459	-96.6009	0
0.3193	-4.62948	3.11298	-3.79205	1.54288	-1.31407	5.60492	17.6801	70.7576	-121.011	-0.320352
0.3200	-4.32085	2.80168	-3.79205	2.45814	-1.31407	15.3735	16.7572	35.6638	-137.498	0
0.3207	-1.85179	4.63488	-1.96895	1.84797	0.500597	22.3796	15.534	-8.89386	-108.819	0
0.3213	-0.617264	4.63488	-0.437544	-1.20292	0.81347	26.0629	12.187	-24.1531	-14.8329	-0.320352
0.3220	-1.23453	3.11298	-1.96895	-3.94872	-0.375448	30.9472	5.47082	-12.5542	59.0383	0
0.3227	-2.46906	0.657184	-2.8857	-5.47417	-1.62694	35.8315	-3.08012	-4.62353	78.2465	0
0.3233	-1.85179	0.657184	0.479215	-4.25381	-1.31407	37.6731	-4.90373	-0.0401348	73.978	-0.320352
0.3240	-0.925896	3.11298	3.83372	-2.72837	-1.00119	31.868	-2.76877	1.48499	30.3328	-1.60176
0.3247	-0.617264	3.73557	4.43794	-2.72837	-0.375448	19.9375	-4.29215	0.569914	-4.74868	-1.92211
0.3253	-0.925896	0.968481	2.30231	-3.03345	0.500597	12.3308	-6.73845	0.264889	15.0997	-0.640704
0.3260	-1.54316	-1.45272	-1.3543	-4.5589	-1.62694	5.9252	-8.57318	-1.56526	62.6932	0
0.3267	0.925896	1.27978	-5.93809	-3.64363	-1.62694	-2.32204	-5.5153	-0.0401348	109.993	0
0.3273	5.40106	2.17908	-11.7303	1.23779	1.12634	-9.04794	-0.633815	-1.26023	114.262	0
0.3280	6.32696	-3.00921	-8.67795	4.59377	1.75209	-14.853	0.889565	-6.7587	70.9367	-0.320352
0.3287	6.32696	3.42427	0.479215	3.98359	1.12634	-13.0114	-0.945163	-6.14865	35.535	-0.320352
0.3293	5.24674	11.3451	3.5316	1.54288	-0.375448	-3.52309	-6.12688	-9.80894	23.6367	-0.320352
0.3300	1.54316	-8.78551	4.75047	0.322522	-1.00119	8.96787	-10.7081	-14.0793	18.4345	-0.320352
0.3307	-2.16042	-27.3942	0.166683	1.84797	-0.0625746	20.5781	-11.9313	-6.14865	16.3002	-0.320352
0.3313	-4.62948	-15.4957	-13.2617	2.45814	2.06496	23.0202	-11.3197	23.7598	15.3932	0
0.3320	-5.24674	-4.84241	-17.8351	0.0174336	2.62813	15.0532	-11.0084	77.4762	12.0318	0
0.3327	-2.46906	-21.3066	-11.7303	-1.50801	1.12634	5.00439	-11.3197	63.742	6.24264	0
0.3333	-0.925896	-37.7708	-8.37584	0.0174336	0.81347	1.96172	-9.18476	4.84025	4.40186	0
0.3340	-4.01222	-21.9292	-7.15696	2.15306	2.62813	4.08358	-6.12688	11.2458	5.30891	-0.320352
0.3347	-8.02443	6.15677	-5.93809	2.15306	2.62813	4.08358	-5.5153	-11.029	5.30891	-0.320352
0.3353	-9.41328	13.4896	-6.84443	-0.897833	0.500597	0.720633	-6.43823	-83.9619	3.78827	0
0.3360	-9.72191	7.36738	1.08344	-3.94872	-1.62694	-2.92257	-8.87341	-104.11	1.97417	-0.320352
0.3367	-6.48127	8.61257	13.5951	-2.11819	-0.375448	-2.00176	-7.0498	-85.1901	-0.160068	-0.320352
0.3373	-1.23453	14.7002	11.4595	3.37341	2.37784	0.720633	-4.90373	-50.6982	-17.2606	-0.320352
0.3380	0.925896	15.9108	-0.437544	4.89886	2.94101	0.720633	-9.48499	-6.14865	-43.5117	0
0.3387	-0.308632	10.7225	-10.5115	1.84797	1.43922	-6.28552	-15.8899	19.1844	-62.4264	0
0.3393	-2.16042	2.17908	-11.4282	-1.50801	-0.0625746	-20.6181	-22.3058	18.2693	-76.7792	0
0.3400	0.308632	-4.84241	6.27146	-0.592744	0.81347	-28.8653	-29.0221	9.72064	-86.2232	0
0.3407	4.01222	-6.36431	26.7214	1.23779	2.94101	-28.2648	-32.0688	6.36537	-101.803	-0.320352
0.3413	3.39495	-5.11912	26.1068	-1.20292	3.25388	-26.4232	-32.0688	5.4503	-99.9623	-0.640704
0.3420	1.23453	-3.59722	9.62596	-7.60979	1.43922	-26.143	-31.157	7.8905	-31.6134	0
0.3427	-0.925896	-3.59722	-1.3543	-13.7116	-0.375448	-26.4232	-30.8457	9.72064	56.9041	0
0.3433	-0.617264	-3.28592	2.30231	-12.7963	0.187724	-21.8592	-27.4876	6.6704	89.8514	-0.320352
0.3440	1.54316	-1.76402	8.10498	-6.38943	2.06496	-13.6119	-20.4711	4.2302	73.0709	-0.320352
0.3447	1.85179	-1.17601	6.8861	-2.72837	1.75209	-9.32819	-14.3665	3.31513	54.1563	0
0.3453	0.308632	-2.69791	3.21907	-1.20292	0.81347	-11.7703	-10.0966	1.48499	47.7535	0
0.3460	-1.23453	-4.21981	-0.437544	1.54288	-0.375448	-14.5328	-4.6035	-1.26023	29.4258	-0.320352
0.3467	-1.23453	-3.90851	-0.437544	6.73811	-0.0625746	-12.6911	5.15948	-0.650183	8.99047	-0.640704
0.3473	0.925896	-1.45272	1.39597	11.3144	1.43922	-13.6119	15.8454	2.09503	6.5361	-0.320352
0.3480	1.85179	-0.24212	2.30231	11.9246	2.37784	-11.4901	18.2806	2.40006	3.17468	-0.320352
0.3487	0.617264	-1.45272	0.781328	7.65337	0.81347	1.04091	17.3688	1.17996	-13.6058	-0.320352
0.3493	-0.925896	-3.28592	-1.3543	2.15306	-1.31407	7.44654	19.8151	-0.650183	-35.8819	0
0.3500	0	-2.69791	-1.05219	0.0174336	-0.688321	11.0897	24.9968	-0.650183	-26.7313	0
0.3507	1.23453	-0.864716	1.08344	-1.8131	0.81347	20.2578	33.5477	1.79001	12.0318	0
0.3513	1.23453	0.657184	2.0002	-3.03345	1.75209	25.1421	38.7294	2.70508	16.6204	0
0.3520	0.617264	-0.24212	0.479215	-3.33854	1.12634	20.5781	30.4898	0.874938	2.58776	0
0.3527	0	-3.00921	-1.65642	-5.16908	-0.688321	12.9314	18.2806	-2.48033	11.4182	0
0.3533	0.925896	-2.38662	-0.750075	-3.94872	0.500597	12.9314	14.6222	-2.1753	26.3845	0
0.3540	3.08632	-0.24212	1.08344	0.0174336	2.06496	15.974	14.9336	0.264889	48.6606	-0.320352
0.3547	3.39495	-0.24212	2.0002	3.06832	2.06496	15.974	14.9336	0.874938	61.7862	0
0.3553	2.77769	-1.17601	1.39597	5.51775	1.12634	15.3735	14.0106	-0.650183	38.8965	0
0.3560	0.925896	-3.28592	-2.27106	4.28868	-1.93981	8.96787	6.0824	-1.87028	10.8046	-1.28141
0.3567	0.308632	-2.69791	-2.8857	3.06832	-1.62694	3.48306	-1.24539	3.01011	3.17468	-2.24247
0.3573	-0.925896	-0.24212	0.479215	4.89886	1.75209	10.8095	2.41294	8.50054	2.88122	-0.320352
0.3580	-2.77769	0.968481	1.69809	4.89886	2.94101	18.4162	6.69398	6.97542	-5.04213	0
0.3587	-3.08632	0.345886	0.166683	3.37341	1.75209	20.2578	4.85925	3.92518	-21.8492	-0.320352
0.3593	-3.39495	-3.00921	-1.65642	2.45814	-0.0625746	21.1786	1.20091	2.70508	-32.8139	-0.320352
0.3600	-1.85179	-3.59722	-1.96895	3.37341	-0.0625746	19.337	-0.333587	2.70508	-37.109	0
0.3607	0	0.0691772	0.166683	6.12793	2.06496	15.0532	1.80137	4.53523	-45.3259	-0.320352
0.3613	0	2.80168	1.69809	7.04319	2.94101	12.6511	2.41294	5.14528	-48.0737	-0.320352
0.3620	-0.925896	1.59108	-0.13543	4.28868	1.75209	7.76682	-0.633815	2.09503	-43.8052	0
0.3627	-2.16042	-1.17601	-3.18782	1.54288	-0.0625746	-4.4439	-4.90373	-2.1753	-29.159	0
0.3633	-2.46906	-1.45272	-1.65642	2.15306	0.81347	-20.3379	-4.6035	-1.56526	17.5274	-0.320352
0.3640	-0.308632	0.345886	1.08344	3.6785	2.62813	-31.6278	-1.54562	1.79001	37.3758	0
0.3647	1.54316	1.27978	1.39597	5.82284	2.37784	-35.5912	-0.0222391	2.40006	-24.2769	0
0.3653	0.308632	0.345886	-0.13543	4.89886	1.12634	-38.3136	-0.945163	2.09503	-83.1819	0
0.3660	-2.16042	-2.38662	-1.96895	-0.287655	-1.93981	-39.875	-3.99192	1.79001	-94.4667	0
0.3667	-2.16042	-2.38662	-1.96895	-2.11819	-1.31407	-35.5912	-4.90373	0.874938	-103.004	-0.320352
0.3673	0.308632	0.0691772	0.479215	0.627611	9.94936	-26.143	-3.99192	0.874938	-111.247	-0.640704
0.3680	1.23453	0.968481	1.69809	0.9327	22.214	-16.9749	-5.5153	2.40006	-74.0313	-0.320352
0.3687	0	0.0691772	0.166683	-2.72837	27.0948	-7.52661	-8.26183	2.70508	30.9464	0
0.3693	-1.54316	-1.45272	-2.57317	-5.47417	27.9709	2.88253	-10.3968	0.874938	130.749	0
0.3700	-1.54316	-1.17601	-2.57317	-3.94872	28.2837	9.88868	-9.79633	0.874938	142.967	0
0.3707	0.308632	1.27978	-0.13543	-0.287655	26.4691	14.1724	-5.21507	3.01011	96.2541	-0.320352
0.3713	1.54316	2.17908	0.166683	2.15306	21.9011	15.974	-4.29215	3.92518	49.8878	0
0.3720	1.23453	0.345886	-1.3543	2.45814	11.2009	12.0105	-10.3968	3.62016	20.8888	0
0.3727	-0.925896	-2.38662	-3.18782	1.54288	-1.93981	5.60492	-14.978	2.09503	6.85624	0
0.3733	-1.54316	-2.38662	-1.96895	1.23779	-6.19489	7.76682	-13.4547	2.70508	3.49481	0
0.3740	-0.308632	-0.24212	1.08344	2.76323	-7.13351	8.36735	-9.48499	5.14528	0.426847	0
0.3747	0.925896	-0.24212	2.30231	2.76323	-13.5161	-0.480422	-4.29215	6.06035	-8.40356	0
0.3753	0.617264	-1.17601	1.69809	0.0174336	-19.8987	-7.52661	-0.0222391	5.75533	8.05674	0
0.3760	-1.54316	-2.38662	-0.437544	-4.86399	-23.5906	-17.2952	3.94744	4.53523	44.072	0
0.3767	-2.46906	-1.76402	0.479215	-8.21997	-20.8373	-26.4232	14.322	5.14528	44.072	-0.320352
0.3773	-1.54316	0.657184	3.21907	-8.83014	-14.1419	-19.7373	23.7736	5.75533	22.116	-0.320352
0.3780	0.617264	0.345886	2.61484	-6.99961	-14.1419	-1.12098	22.8618	3.31513	-1.70739	0
0.3787	1.23453	-1.45272	1.08344	-3.94872	-18.7098	18.4162	16.457	-1.56526	-22.1427	0
0.3793	-0.617264	-2.69791	-0.750075	-4.5589	-22.0888	26.9837	9.74074	-4.62353	-9.63074	0
0.3800	-1.54316	-0.553418	-0.437544	-6.08434	-21.776	22.0994	7.29443	-2.78535	7.46983	0
0.3807	1.23453	2.17908	1.69809	-2.72837	-16.2694	19.6573	7.90601	-0.345159	-0.160068	0
0.3813	1.85179	2.80168	2.0002	3.06832	-7.44638	24.5415	6.9942	-0.0401348	-5.65573	0
0.3820	-0.308632	0.968481	0.166683	4.59377	-2.81586	24.8218	-0.333587	0.264889	0.746983	-0.320352
0.3827	-2.16042	-1.76402	-1.96895	2.76323	-4.6931	22.0994	-9.18476	-0.955208	2.58776	0
0.3833	-1.54316	-1.45272	-1.05219	3.6785	-5.00597	21.1786	-10.7081	-0.650183	-3.22803	0
0.3840	0	1.27978	-0.13543	4.59377	-2.56556	15.3735	-10.7081	0.874938	-8.1101	-1.28141
0.3847	0.308632	3.42427	-0.437544	3.98359	-1.31407	14.4527	-11.9313	0.264889	-10.5378	-2.24247
0.3853	-0.308632	1.27978	0.479215	4.59377	-0.375448	9.5684	-8.26183	0.569914	-15.4199	-0.640704
0.3860	-2.46906	-2.69791	-1.05219	4.89886	-0.688321	-26.143	-5.5153	-0.0401348	-21.8492	0
0.3867	-2.16042	-2.07532	-1.3543	5.21266	-2.56556	-57.5705	-5.21507	-0.345159	-21.5291	0
0.3873	0.617264	0.657184	1.39597	6.12793	-3.12873	-61.8143	-1.85697	1.17996	-17.2606	0
0.3880	0.925896	0.968481	2.0002	5.51775	-2.81586	-69.1407	-8.57318	1.79001	-18.7813	0
0.3887	-0.617264	-0.864716	-0.437544	2.45814	-3.75448	-70.9823	-27.1873	0.264889	-22.1427	-0.320352
0.3893	-2.46906	-2.38662	-1.65642	-1.8131	-2.81586	-56.3295	-39.0853	-0.955208	-18.7813	-0.320352
0.3900	-2.46906	-1.76402	-0.437544	-1.50801	0.500597	-34.6704	-39.3966	-0.650183	-14.5128	0
0.3907	-0.617264	0.968481	1.69809	2.15306	1.43922	-13.6119	-36.0385	1.17996	-19.1014	0
0.3913	0.617264	1.90237	2.0002	3.6785	0.81347	-2.32204	-32.369	2.40006	-29.7726	0
0.3920	0	0.345886	0.781328	2.15306	1.43922	2.88253	-30.2341	1.79001	-34.6547	0
0.3927	-1.85179	-2.07532	-1.3543	0.322522	0.187724	5.32467	-29.6225	-0.650183	-18.4878	0
0.3933	-1.54316	-1.45272	-1.05219	1.54288	-0.0625746	10.209	-25.0524	-0.650183	6.5361	0
0.3940	0.308632	0.0691772	0.781328	4.28868	1.43922	8.96787	-14.3665	1.17996	12.0318	0
0.3947	0	0.345886	1.39597	3.37341	0.500597	-1.72151	-0.0222391	1.48499	16.0068	-0.320352
0.3953	-0.308632	-0.24212	0.781328	0.9327	-1.62694	-8.12714	12.7875	1.17996	30.3328	0
0.3960	-1.85179	-2.07532	-1.65642	-2.11819	-2.81586	-22.78	20.1153	-0.345159	23.3165	-0.320352
0.3967	-2.16042	-2.69791	-2.27106	-3.33854	-2.81586	-37.1126	26.5202	-1.26023	4.722	-0.640704
0.3973	0.308632	-1.17601	0.781328	-1.20292	-1.62694	-22.1394	33.5477	0.569914	-8.1101	-0.320352
0.3980	0.925896	-2.07532	1.69809	1.23779	-0.688321	1.64144	38.7294	1.48499	-30.6797	-0.320352
0.3987	-0.617264	-5.43041	-0.13543	0.627611	-0.375448	11.7303	38.7294	-0.0401348	-56.0237	0
0.3993	-2.16042	-8.47421	-2.27106	-1.8131	0.500597	19.6573	25.9197	-2.78535	-62.7199	0
0.4000	-1.23453	-7.26361	-1.05219	-0.592744	2.37784	34.3101	8.82893	-2.78535	-63.9471	-0.320352
0.4007	0.617264	-4.84241	1.69809	3.37341	3.87963	48.3224	5.15948	-0.650183	-72.1906	-0.320352
0.4013	0.308632	-1.45272	1.08344	4.89886	5.38142	55.6489	8.21736	-0.0401348	-54.1829	0
0.4020	-1.54316	7.36738	-1.05219	0.9327	4.1925	60.8534	6.9942	-2.78535	16.3002	0
0.4027	-2.77769	10.7225	-2.8857	-1.8131	0.81347	57.4905	7.29443	-5.84362	79.4736	0
0.4033	-1.85179	3.73557	-1.96895	1.23779	0.187724	48.963	12.4873	-3.70043	77.3394	-0.640704
0.4040	0.925896	-0.24212	1.69809	5.21266	1.43922	49.5635	18.8921	1.79001	43.1649	-0.320352
0.4047	1.54316	-0.24212	3.21907	4.89886	1.75209	48.6427	18.2806	5.14528	16.9138	-0.320352
0.4053	0.308632	0.0691772	1.69809	1.84797	0.81347	37.0325	7.60578	5.4503	2.88122	-1.60176
0.4060	-1.23453	-1.45272	-0.13543	0.0174336	0.81347	30.6269	-3.38035	4.2302	-6.58946	-0.640704
0.4067	-1.85179	-3.28592	1.39597	1.54288	2.37784	30.3466	-5.5153	2.70508	-13.2856	0
0.4073	-0.617264	-0.864716	1.69809	2.76323	4.1925	26.9837	-0.333587	2.40006	-7.49651	0
0.4080	0.925896	2.17908	-1.96895	2.15306	4.81825	23.3005	2.41294	2.09503	-8.40356	-0.320352
0.4087	0	1.59108	-2.8857	0.322522	4.81825	15.3735	-2.46854	0.569914	-12.9922	0
0.4093	-1.85179	-0.24212	1.39597	-3.33854	3.25388	5.9252	-7.65026	-3.70043	19.6617	0
0.4100	1.23453	2.17908	5.3547	-5.16908	2.37784	1.96172	-7.65026	-4.3185	48.047	-0.320352
0.4107	6.63559	4.63488	5.3547	-2.11819	3.25388	2.88253	-4.6035	1.79001	19.9818	-0.320352
0.4113	11.2651	2.80168	3.5316	0.9327	4.81825	2.24197	-2.15719	9.72064	-21.2357	-0.320352
0.4120	12.8082	-1.76402	1.08344	1.84797	3.87963	-0.480422	-2.15719	18.2693	-44.7389	0
0.4127	8.48738	-13.6625	-4.10458	2.76323	2.06496	-2.92257	-3.38035	22.8447	-56.9308	0
0.4133	5.70969	-23.4511	-11.1261	3.37341	2.62813	-3.84337	-4.6035	17.0492	-59.065	0
0.4140	7.25285	-14.5964	-8.67795	3.37341	3.25388	-5.08446	-5.5153	1.48499	-62.7199	-1.60176
0.4147	3.70358	0.968481	8.71962	3.37341	3.56675	-4.16366	-3.69169	-16.8245	-38.0161	-1.60176
0.4153	-7.7158	9.82317	13.293	1.54288	3.25388	-2.64232	-0.633815	-27.8134	41.6443	0
0.4160	-14.3514	10.4458	-1.3543	-2.42328	2.37784	-4.4439	-1.54562	-27.8134	100.229	0
0.4167	-10.0305	8.61257	-5.32345	-3.64363	1.43922	-3.84337	-1.85697	-22.0179	94.44	0
0.4173	-6.48127	11.3451	-0.437544	-1.8131	1.43922	0.440387	1.20091	-13.1642	39.5101	0
0.4180	-5.86401	8.92387	0.479215	0.0174336	1.43922	1.96172	3.02452	3.92518	-21.5291	0
0.4187	-5.86401	-0.864716	-1.96895	1.23779	-0.0625746	-0.800703	0.277989	20.0995	-40.4438	0
0.4193	-8.17875	-0.24212	-5.32345	3.06832	-3.12873	-4.16366	-3.99192	22.2347	-43.8052	0
0.4200	-8.02443	6.77937	-5.32345	6.12793	-2.81586	-3.52309	-3.69169	16.7442	-51.1416	-0.320352
0.4207	-4.93811	4.01228	-2.8857	8.56864	-0.0625746	-2.32204	-0.945163	13.389	-41.3775	-0.320352
0.4213	-2.77769	-7.26361	-0.750075	7.95846	-3.4416	-2.92257	-0.333587	5.4503	-8.72369	0
0.4220	-2.46906	-13.6625	-0.437544	3.6785	-12.8904	-4.76418	-2.15719	-15.2994	13.8725	0
0.4227	-4.32085	-12.1406	-1.65642	-0.897833	-19.6484	-6.88605	-4.90373	-21.4079	8.67034	0
0.4233	-3.70358	-6.95231	-1.05219	-3.94872	-19.6484	-6.6058	-4.6035	-7.06372	16.9138	-0.320352
0.4240	-0.308632	-3.00921	0.479215	-5.77925	-16.8951	-3.84337	-1.85697	-3.09038	39.8035	0
0.4247	1.23453	-1.45272	1.08344	-6.69452	-10.45	-3.84337	-0.0222391	-6.7587	26.678	0
0.4253	0.308632	-1.45272	0.479215	-5.47417	-2.81586	-8.40738	-0.0222391	-8.58884	-20.6221	-0.320352
0.4260	-1.54316	-3.00921	-1.05219	-3.64363	3.56675	-13.0114	-2.46854	-13.1642	-61.5194	-0.320352
0.4267	-1.85179	-2.69791	-1.3543	-3.03345	15.7688	-13.0114	-3.99192	-12.5542	-76.7792	0
0.4273	0	-0.24212	0.166683	-1.50801	24.6544	-9.96875	-3.08012	-0.650183	-85.0227	-0.320352
0.4280	0.617264	-0.864716	-0.13543	0.627611	20.6496	-6.6058	-3.69169	10.0257	-105.458	-0.640704
0.4287	-1.54316	-3.00921	-2.27106	0.9327	14.5799	-5.36471	-6.43823	9.41562	-125.893	-0.320352
0.4293	-3.70358	-4.21981	-5.93809	0.0174336	11.5137	-10.5693	-7.65026	2.70508	-125.6	0
0.4300	-3.39495	-3.00921	-7.15696	-0.897833	11.5137	-15.4536	-5.82665	0.264889	-67.3085	0
0.4307	-1.85179	0.345886	3.83372	1.54288	10.5751	-16.0541	-0.945163	1.48499	-14.5128	0
0.4313	-2.77769	5.53418	19.6999	6.73811	8.1347	-14.5328	0.589337	3.31513	-41.3775	0
0.4320	-2.77769	-1.45272	25.8047	7.34828	9.07332	-12.4109	-6.12688	3.31513	-37.696	0
0.4327	-3.39495	-34.139	33.4304	3.06832	9.38619	-10.249	-14.6778	2.09503	20.2752	0
0.4333	-3.39495	-70.1457	51.1301	0.0174336	3.56675	-3.84337	-17.113	3.31513	53.8361	0
0.4340	-1.54316	-86.9212	52.9636	0.322522	-5.00597	4.68411	-16.8128	5.4503	90.7584	0
0.4347	-0.925896	-84.7767	15.7307	1.84797	-8.6353	8.04706	-16.5014	4.53523	104.818	0
0.4353	-2.16042	-80.5223	-14.7827	0.627611	-6.82063	7.12626	-16.8128	2.09503	76.7258	0
0.4360	-4.01222	-81.4216	3.21907	-2.72837	-4.6931	3.48306	-17.7246	-3.09038	79.1802	-0.320352
0.4367	-4.93811	-11.5526	15.7307	-3.33854	-2.56556	1.04091	-15.8899	-7.36874	93.5062	-0.320352
0.4373	-1.85179	123.966	-0.750075	-3.64363	0.500597	1.32116	-12.5429	-5.5386	82.5416	0
0.4380	1.85179	157.517	-12.9492	-6.69452	0.81347	0.120105	-11.6199	-0.955208	59.3318	-0.320352
0.4387	0.617264	85.5031	-8.37584	-7.60979	-1.31407	-2.32204	-10.7081	3.31513	24.2503	-0.320352
0.4393	-2.46906	40.3303	-5.62556	-6.38943	-3.4416	-3.84337	-7.35003	3.92518	-9.33729	-0.320352
0.4400	-3.08632	33.9314	-9.59471	-3.03345	-4.06735	-2.92257	-2.46854	1.79001	-23.6633	-0.320352
0.4407	-1.23453	26.91	-2.8857	2.76323	-1.93981	-0.800703	2.72429	1.48499	-26.1177	0
0.4413	1.23453	17.156	1.69809	7.95846	-0.375448	-0.800703	4.85925	2.40006	-34.9748	0
0.4420	2.16042	13.1783	-5.32345	9.4839	-1.62694	-3.84337	6.9942	0.569914	-36.4954	-0.320352
0.4427	0	11.0338	-12.6471	5.82284	-2.81586	-6.88605	10.9639	-2.48033	8.99047	-0.320352
0.4433	0	7.67867	-13.2617	4.28868	-1.93981	-5.08446	12.4873	-1.56526	81.3144	0
0.4440	0.925896	4.63488	-11.1261	6.73811	-1.93981	-5.68499	6.69398	-0.650183	100.229	-0.961056
0.4447	0.308632	2.17908	-10.5115	13.145	-2.81586	-7.20633	1.20091	-2.1753	60.559	-2.24247
0.4453	-0.617264	-0.864716	-9.89682	18.6366	-3.75448	-4.16366	-0.333587	-2.48033	27.2916	-0.961056
0.4460	-1.23453	-3.28592	-11.1261	17.4162	-5.25627	-2.92257	-3.38035	-4.3185	16.0068	0
0.4467	0.617264	-1.76402	-10.8136	18.6366	-4.38022	-1.72151	-2.76877	-5.23357	12.9388	-0.320352
0.4473	3.08632	1.90237	-7.76119	22.2976	-1.93981	1.32116	0.277989	-3.3954	11.4182	-0.320352
0.4480	4.01222	3.11298	-6.84443	21.3824	-0.375448	1.64144	3.94744	-1.56526	8.05674	-0.320352
0.4487	4.93811	1.27978	-8.37584	18.3315	1.75209	-2.64232	7.60578	0.264889	5.62905	-0.320352
0.4493	4.01222	-0.864716	-9.29259	9.78899	3.56675	-8.72766	6.9942	0.569914	-0.480203	-0.320352
0.4500	3.70358	-0.553418	-8.07372	-6.99961	6.00716	-15.7338	8.51758	-0.345159	-11.1514	-0.320352
0.4507	5.70969	0.0691772	-6.24021	-20.7286	3.87963	-21.5389	15.2338	-0.0401348	-23.3699	0
0.4513	6.94422	0.345886	-5.32345	-24.9999	-0.688321	-27.6643	18.8921	1.48499	-44.4188	0
0.4520	4.93811	0.0691772	-5.62556	-17.9828	17.5835	-47.2014	16.1456	3.31513	-76.7792	-0.320352
0.4527	1.23453	-2.38662	-7.45908	-2.42328	56.3797	-74.9458	12.187	3.92518	-106.365	0
0.4533	1.54316	-2.69791	-7.15696	17.1111	84.726	-89.5987	11.5755	4.2302	-129.868	0
0.4540	4.32085	-0.864716	-4.10458	37.5608	99.3685	-89.9189	10.6525	5.75533	-147.262	-0.320352
0.4547	3.39495	-0.864716	-3.18782	47.6287	103.999	-89.2784	7.29443	4.53523	-138.725	0
0.4553	1.85179	-2.69791	-4.10458	47.9338	86.2904	-89.2784	5.77105	0.569914	-99.6689	0
0.4560	2.77769	-4.53111	-5.02134	49.4593	55.1282	-80.7509	5.47082	-3.09038	-58.158	0
0.4567	6.01832	-4.53111	-4.10458	55.561	22.7772	-62.4548	7.90601	-3.09038	-11.1514	-0.320352
0.4573	9.41328	-2.38662	-1.96895	57.3916	-12.8904	-39.5547	15.534	-1.26023	62.6932	-0.320352
0.4580	11.5737	-1.17601	-2.57317	47.9338	-38.8588	-16.0541	22.8618	0.264889	131.362	0
0.4587	11.5737	-1.76402	-5.02134	32.3656	-53.1884	0.440387	24.3852	-0.0401348	156.066	0
0.4593	9.10465	-3.28592	-8.07372	13.7551	-66.9548	15.3735	14.6222	-0.955208	126.16	-0.320352
0.4600	6.01832	-3.59722	-7.45908	-4.86399	-71.5228	40.3955	3.94744	0.569914	84.9693	0
0.4607	3.70358	-1.17601	-3.79205	-31.1103	-69.6455	77.0276	-0.633815	3.62016	68.4823	0
0.4613	2.46906	-0.864716	-3.18782	-73.8315	-67.518	112.138	-6.43823	3.01011	53.8361	-0.320352
0.4620	1.54316	-3.28592	-5.02134	-98.8575	-61.4483	126.751	-13.4547	-1.26023	39.5101	-0.320352
0.4627	-3.08632	-6.05301	-5.93809	-76.2722	-58.3821	114.861	-15.5896	-7.06372	29.1323	0
0.4633	-8.48738	-5.74171	-6.24021	-33.246	-56.5675	87.0764	-8.87341	-7.97879	22.4095	0
0.4640	-10.3392	-2.69791	-2.8857	-8.21997	-48.9333	62.695	-3.38035	-3.70043	23.3165	0
0.4647	-10.6478	0.0691772	4.43794	-5.47417	-39.4846	46.2006	-6.73845	-0.0401348	29.4258	0
0.4653	-10.3392	-0.553418	7.18822	-7.60979	-28.7843	31.5477	-11.3197	0.264889	31.8802	-0.320352
0.4660	-10.6478	-3.00921	2.91696	-7.3047	-16.8951	19.337	-14.3665	-1.56526	27.2916	-0.320352
0.4667	-10.0305	-3.00921	-0.13543	-4.5589	-8.00955	12.0105	-14.978	-1.87028	21.5024	-0.320352
0.4673	-9.10465	-1.17601	0.781328	-1.50801	-2.56556	9.88868	-12.2315	-1.56526	15.6866	0
0.4680	-8.48738	-0.24212	2.0002	-1.8131	1.43922	13.2516	-8.57318	-1.87028	5.62905	0
0.4687	-8.48738	-0.864716	0.781328	-5.47417	0.81347	15.3735	-7.0498	-1.87028	-16.9672	-0.320352
0.4693	-10.6478	-3.00921	-5.93809	-8.52505	-3.75448	12.9314	-8.26183	-2.1753	-39.8569	-0.320352
0.4700	-10.3392	-2.38662	-9.89682	-4.5589	-4.38022	10.209	-7.35003	-1.87028	-41.9911	0
0.4707	-7.40717	0.0691772	-1.96895	0.9327	-1.31407	8.04706	-3.69169	-0.0401348	-31.2932	-0.320352
0.4713	-4.62948	-10.6187	7.18822	3.06832	0.187724	3.48306	-1.54562	1.17996	-20.0085	0
0.4720	-4.01222	-33.5164	6.27146	1.54288	0.500597	-3.52309	-2.76877	0.569914	-15.74	-0.320352
0.4727	-5.24674	-45.7262	1.69809	-5.77925	1.12634	-7.52661	-6.12688	-0.955208	8.67034	0
0.4733	-4.93811	-43.2704	0.781328	-16.4574	1.75209	-11.4901	-9.48499	-0.955208	58.7182	-0.320352
0.4740	-4.32085	-38.7047	-0.437544	-22.8642	-1.93981	-31.3075	-16.8128	-0.955208	62.9867	-1.92211
0.4747	-2.77769	-40.5379	-0.13543	-18.2879	-4.6931	-50.5244	-31.157	-0.650183	29.7459	-1.60176
0.4753	-1.85179	-51.2257	1.08344	-11.881	3.56675	-58.7716	-46.1017	0.264889	19.6617	0
0.4760	-4.62948	-27.1175	-1.65642	-12.1861	24.9047	-72.2234	-55.2642	-2.1753	19.3682	0
0.4767	-4.62948	43.6854	-2.57317	-9.13523	60.3219	-77.1077	-56.7876	-3.70043	10.8046	0
0.4773	-0.617264	76.6484	1.08344	-0.287655	87.4793	-64.897	-52.5177	-1.26023	1.65403	-0.320352
0.4780	1.23453	51.0182	3.21907	3.37341	87.4793	-51.4452	-44.2781	0.264889	-0.773661	0
0.4787	2.46906	26.5987	2.30231	0.9327	71.6479	-38.9542	-32.9806	0.264889	-9.95088	0
0.4793	4.01222	18.3666	0.479215	-1.20292	50.5603	-23.7008	-21.6943	-0.650183	-31.9068	0
0.4800	6.01832	15.6341	0.479215	2.76323	29.7855	-5.08446	-4.29215	-0.955208	-35.5617	0
0.4807	8.79601	13.8009	2.30231	12.2297	12.3898	20.8583	20.4266	0.264889	-17.5541	0
0.4813	11.2651	9.82317	2.91696	20.4671	-7.44638	47.1214	36.2942	0.874938	-7.49651	0
0.4820	12.8082	5.84548	0.781328	22.6027	-26.3439	55.6489	42.3989	-0.650183	-5.04213	0
0.4827	12.191	3.11298	-1.3543	22.2976	-40.6735	44.3589	50.9387	-2.48033	-2.61444	-0.320352
0.4833	13.7341	3.11298	-0.750075	26.874	-46.4929	37.9533	56.4318	-0.955208	-2.9079	-0.320352
0.4840	15.5859	5.53418	2.0002	31.4503	-44.6783	51.4051	53.385	1.48499	-9.01715	0
0.4847	14.0428	5.53418	3.21907	30.8401	-36.7313	64.8169	46.0572	1.79001	-14.8329	-0.320352
0.4853	10.6478	3.73557	1.69809	21.3824	-31.5376	42.2371	32.3246	0.569914	-21.2357	-0.320352
0.4860	5.24674	1.27978	-1.65642	-6.38943	-39.7975	-7.80685	15.2338	-2.48033	-39.8569	0
0.4867	-1.54316	1.27978	-1.96895	-26.534	-49.5591	-48.4025	2.41294	-1.87028	-54.7965	-0.320352
0.4873	-8.17875	3.73557	0.166683	-24.6948	-53.8142	-74.6656	-4.6035	3.92518	-57.5444	-0.320352
0.4880	-14.66	4.63488	0.479215	-32.9409	-59.6336	-87.1565	-5.21507	7.28045	-60.5856	-0.320352
0.4887	-16.8204	3.11298	-0.13543	-41.4834	-62.6372	-90.8398	-8.26183	5.4503	-66.6949	-0.320352
0.4893	-15.5859	-0.24212	-1.96895	-25.9238	-60.5097	-120.746	-20.1709	0.569914	-77.6862	0
0.4900	-11.5737	-1.45272	-1.96895	-9.74541	-49.8094	-148.49	-26.2755	-0.650183	-33.134	-0.320352
0.4907	-8.17875	0.345886	0.166683	-7.3047	-34.6038	-124.069	-21.0827	0.874938	64.8274	-0.320352
0.4913	-7.7158	1.27978	1.39597	-7.3047	-22.652	-76.4671	-11.9313	-0.0401348	96.5742	-0.320352
0.4920	-8.02443	-0.24212	0.781328	-7.3047	-13.5161	-30.3867	-4.29215	-1.87028	66.6682	-0.320352
0.4927	-8.17875	-2.69791	-0.750075	-7.60979	-9.26104	9.28815	0.277989	-4.3185	26.3845	0
0.4933	-6.48127	-2.69791	-0.437544	-1.50801	-5.88201	23.941	3.6361	-4.3185	-41.9911	-0.320352
0.4940	-4.62948	-1.17601	1.69809	5.21266	-4.38022	21.1786	4.24767	-2.48033	-103.004	-0.320352
0.4947	-4.93811	-0.553418	1.39597	4.59377	-4.06735	21.4989	4.5479	-1.56526	-115.222	-0.320352
0.4953	-4.32085	-2.07532	-0.13543	1.23779	24.3415	21.7791	2.41294	-0.955208	-112.181	-0.320352
0.4960	-3.70358	-4.21981	-1.65642	-0.897833	73.4626	15.0532	-4.29215	-1.87028	-126.507	0
0.4967	-4.01222	-4.21981	-1.65642	-0.592744	92.673	9.28815	-7.65026	-2.1753	-141.473	-0.320352
0.4973	-2.77769	-2.07532	0.479215	-1.20292	84.4132	5.32467	-2.76877	-0.0401348	-120.104	-0.320352
0.4980	-1.54316	-0.864716	2.30231	-13.1014	75.5901	5.32467	4.85925	1.48499	-12.9922	0
0.4987	-1.54316	-2.07532	2.30231	-30.1951	58.1944	14.1724	12.7875	0.264889	140.806	0
0.4993	-2.46906	-5.11912	0.479215	-36.6019	35.605	12.6511	21.3384	-1.56526	179.569	-0.320352
0.5000	-0.308632	-5.43041	0.479215	-34.1612	42.0501	9.28815	29.578	-1.56526	135.924	-0.320352
0.5007	4.93811	-3.00921	2.30231	-27.7544	57.2558	28.8253	28.6662	0.874938	135.337	-0.320352
0.5013	9.41328	-2.38662	3.5316	-19.8133	50.8732	64.8169	24.6965	2.70508	98.3883	-0.320352
0.5020	13.1169	-3.00921	2.0002	-16.1523	46.6181	90.1591	27.4431	2.09503	23.3165	-0.640704
0.5027	16.8204	-4.21981	-0.13543	-15.8472	49.6217	95.644	25.3081	-0.345159	6.5361	0
0.5033	20.6783	-3.59722	-0.437544	-10.0505	39.6097	91.6805	15.8454	-0.345159	20.5687	0
0.5040	23.456	-0.553418	-1.65642	0.9327	10.888	72.7439	6.69398	-0.0401348	17.5274	-1.28141
0.5047	26.2337	0.968481	-3.18782	11.6195	-21.776	49.2432	-0.633815	0.264889	7.46983	-1.92211
0.5053	24.9992	-0.24212	-1.65642	19.5518	-50.748	39.1944	-4.90373	2.09503	-6.88291	-0.640704
0.5060	15.5859	-3.28592	-1.65642	18.9417	-89.2314	34.9106	-7.35003	2.40006	-36.1753	0
0.5067	5.40106	-4.53111	-1.05219	12.2297	-118.516	38.8741	-7.0498	1.48499	-61.8128	-0.320352
0.5073	-3.08632	-3.00921	2.0002	13.4501	-112.071	45.8803	-8.26183	1.17996	-70.0563	-0.961056
0.5080	-10.0305	-1.76402	3.5316	28.7045	-93.4865	39.7949	-14.978	3.01011	-76.7792	-1.60176
0.5087	-15.5859	-3.00921	3.5316	43.9677	-81.5973	30.6269	-19.5593	4.84025	-81.6612	-0.320352
0.5093	-18.3636	-5.43041	0.166683	39.3913	-67.8309	24.5415	-20.7825	2.40006	-64.2672	0
0.5100	-16.5118	-4.84241	-1.65642	23.518	-49.5591	18.7364	-18.0359	2.70508	-32.227	-0.320352
0.5107	-22.5301	-0.553418	1.08344	9.78899	-39.7975	8.64759	-10.0966	7.28045	3.17468	0
0.5113	-18.6722	1.59108	2.61484	-0.287655	-47.1187	-8.12714	-6.12688	6.06035	65.1476	0
0.5120	16.2032	0.0691772	1.39597	-2.11819	-62.6372	-22.1394	-7.35003	0.264889	89.5579	0
0.5127	44.906	-3.90851	-0.750075	0.627611	-70.897	-28.8653	-11.9313	-5.5386	12.0318	-0.320352
0.5133	47.5293	-4.53111	-1.05219	1.54288	-39.7975	-29.7861	-15.5896	-7.67377	-70.6699	-0.320352
0.5140	26.851	-1.17601	1.08344	2.76323	26.7819	-27.9445	-16.2012	-6.7587	-92.6525	0
0.5147	1.85179	1.90237	-0.437544	6.73811	61.8863	-25.8227	-19.8595	-3.09038	-81.6612	0
0.5153	25.9251	1.90237	-4.40669	7.04319	53.9393	-24.3013	-24.4408	2.70508	-35.2683	0
0.5160	77.158	-0.553418	-7.15696	-1.8131	57.5686	-25.8227	-27.7989	4.2302	35.535	-0.320352
0.5167	25.3078	-0.24212	-6.24021	-9.44032	85.3518	-27.0237	-26.876	5.14528	88.9443	-0.320352
0.5173	-81.7875	1.90237	-2.27106	-9.13523	93.6116	-25.5024	-15.5896	6.06035	126.774	0
0.5180	-51.5416	1.59108	0.781328	-2.72837	68.8947	-29.1856	-0.945163	3.92518	165.243	-0.320352
0.5187	37.1902	-0.553418	0.166683	4.89886	34.1032	-37.1126	11.5755	3.01011	127.094	-0.320352
0.5193	50.307	-3.28592	-2.57317	8.56864	12.7026	-43.5182	19.2035	3.92518	29.7459	-0.320352
0.5200	41.2024	-2.07532	-2.8857	10.3992	-1.93981	-46.2806	18.2806	5.4503	-2.32098	0
0.5207	46.9121	1.27978	-0.750075	9.78899	-31.5376	-43.1979	20.4266	3.01011	13.8725	-0.320352
0.5213	52.4674	1.27978	1.08344	5.51775	-50.748	-40.7558	32.9361	-0.345159	1.97417	-0.640704
0.5220	39.3506	-1.45272	0.479215	-1.20292	-43.4268	-33.7496	40.2528	1.48499	-17.5541	-0.320352
0.5227	8.48738	-3.59722	-2.27106	-4.5589	-28.1586	-10.249	38.7294	4.84025	-21.8492	-0.320352
0.5233	-38.7333	-3.00921	-1.96895	-1.20292	-18.3969	4.08358	36.2942	5.4503	-38.6297	-0.320352
0.5240	-88.5774	-2.07532	2.0002	0.322522	-17.7712	-3.52309	31.713	2.09503	-18.7813	0
0.5247	-96.4475	-3.28592	5.96935	-0.287655	-18.3969	5.00439	24.085	-4.3185	51.7019	0
0.5253	-39.3506	-6.36431	7.80286	2.15306	-15.0179	47.7219	15.2338	-8.28382	48.9541	-0.320352
0.5260	59.566	-10.3074	6.8861	6.12793	-11.3886	80.9911	10.041	-9.80894	-37.4025	-0.320352
0.5267	135.181	-11.5526	7.49033	12.8399	-4.06735	70.0215	11.5755	-7.97879	-101.483	-0.320352
0.5273	157.711	-9.09681	9.62596	21.3824	1.43922	44.0787	8.82893	-3.09038	-135.978	0
0.5280	159.563	-6.36431	9.62596	25.3485	-1.62694	33.6696	-0.0222391	-0.0401348	-150.01	0
0.5287	168.513	-4.53111	6.58399	24.4333	0.500597	30.0264	-7.35003	-0.345159	-148.169	0
0.5293	167.896	-5.43041	2.91696	18.9417	4.1925	25.1421	-14.978	-3.09038	-148.783	-0.320352
0.5300	79.6271	-3.28592	0.781328	10.3992	2.94101	23.0202	-22.6061	-2.78535	-141.767	-0.320352
0.5307	-163.575	4.63488	-1.96895	2.45814	4.81825	22.3796	-24.741	1.79001	-85.0227	-0.320352
0.5313	-434.554	9.20057	-5.32345	-2.42328	7.25866	14.773	-26.876	6.97542	15.0997	-0.320352
0.5320	-533.162	5.53418	-2.57317	-6.08434	3.56675	-4.4439	-30.8457	8.80557	87.7171	0
0.5327	-418.659	-3.00921	5.05259	-9.74541	-0.688321	-25.5024	-32.6804	6.97542	126.16	0
0.5333	-203.543	-8.1975	10.8553	-7.3047	7.82183	-34.9907	-31.4572	7.28045	124.026	-0.320352
0.5340	17.4377	-7.57491	14.2098	0.322522	26.1562	-39.5547	-29.0221	8.19552	74.2981	-2.24247
0.5347	258.479	-8.1975	18.481	5.21266	48.1199	-40.7558	-26.2755	6.36537	27.2916	-1.92211
0.5353	459.244	-9.7194	19.0957	1.84797	63.701	-34.0699	-22.9174	4.2302	3.78827	-0.320352
0.5360	492.885	-8.47421	11.772	-3.94872	74.3386	-28.5851	-21.3829	4.2302	8.99047	0
0.5367	288.417	-0.553418	1.39597	-1.8131	85.6646	-22.4597	-19.248	10.0257	38.5763	-0.320352
0.5373	1.85179	10.7225	-10.2094	4.89886	79.8452	-12.0906	-14.6778	20.0995	37.0557	0
0.5380	-180.395	17.744	-19.054	7.34828	60.9477	-2.00176	-10.0966	28.9532	3.78827	0
0.5387	-332.088	18.0553	-21.8043	4.89886	38.984	4.68411	-4.29215	32.3085	-19.1014	0
0.5393	-355.235	12.867	-20.2729	0.322522	7.82183	2.56225	4.5479	30.1733	-39.5367	-0.320352
0.5400	-241.35	12.5557	-17.8351	-3.03345	-12.3272	-4.76418	17.9803	37.1889	-52.0487	-0.320352
0.5407	-185.796	17.156	-16.0016	-5.47417	-16.5823	-11.7703	30.4898	50.3129	-65.1743	-0.320352
0.5413	-60.8005	15.0115	-12.6471	-8.21997	-31.5376	-14.853	31.713	45.7376	-27.3449	-0.320352
0.5420	145.211	5.84548	-7.15696	-9.13523	-39.4846	-3.52309	20.7269	24.9799	64.8274	0
0.5427	197.987	-2.38662	-3.79205	-7.3047	-18.3969	16.6146	3.02452	4.53523	45.2992	0
0.5433	128.391	-6.05301	-0.437544	-2.42328	1.43922	35.8315	-11.6199	-10.419	-46.553	-0.320352
0.5440	80.2443	-6.64102	6.27146	2.45814	2.62813	45.2798	-16.5014	-18.3496	-30.6797	0
0.5447	13.1169	-8.78551	11.772	4.28868	13.6413	38.8741	-14.978	-20.7978	34.0144	0
0.5453	-70.8311	-11.8293	11.4595	6.12793	53.3136	25.1421	-8.57318	-19.8747	15.3932	-0.320352
0.5460	-30.8632	-13.3858	8.40709	6.43302	78.9692	7.76682	-6.73845	-18.3496	-27.6384	-0.320352
0.5467	82.0961	-13.3858	7.80286	2.76323	72.8369	-8.40738	-19.8595	-18.0446	-18.7813	0
0.5473	112.342	-12.1406	9.93849	0.627611	61.8863	-8.12714	-35.4269	-21.7129	-9.01715	-0.320352
0.5480	96.1389	-9.40811	9.93849	0.627611	35.605	6.84601	-43.6665	-23.238	-12.3786	-0.320352
0.5487	109.256	-6.95231	5.3547	-0.592744	-1.62694	14.1724	-46.413	-23.238	-1.38725	-0.320352
0.5493	128.082	-6.05301	-1.3543	-4.5589	-32.1634	11.0897	-46.413	-27.5084	1.97417	-0.320352
0.5500	129.317	-3.59722	-4.10458	-8.83014	-62.3243	13.2516	-43.3552	-27.8134	5.30891	-0.320352
0.5507	92.1267	1.59108	-3.48993	-14.0167	-84.9138	20.8583	-34.8153	-18.6546	49.2742	-0.640704
0.5513	4.01222	5.84548	-5.32345	-14.9319	-90.1075	25.4624	-24.4408	-6.45367	76.7258	-0.320352
0.5520	-23.7647	5.53418	-6.54232	-9.74541	-93.4865	21.4989	-14.978	1.48499	45.5926	0
0.5527	18.3636	0.0691772	-5.32345	-7.91488	-96.8655	12.3308	-7.0498	0.569914	54.1563	0
0.5533	50.307	-3.00921	-2.57317	-7.60979	-82.7862	6.84601	-3.99192	-2.1753	120.371	0
0.5540	132.403	-0.553418	-0.13543	-4.25381	-60.5097	1.32116	-6.12688	-1.26023	144.168	-0.320352
0.5547	188.883	2.17908	-1.3543	-0.287655	-46.1801	-13.6119	-6.12688	-0.955208	105.725	-0.320352
0.5553	65.2757	2.80168	-5.93809	2.15306	-43.7397	-30.707	-3.08012	0.264889	59.0383	-0.320352
0.5560	-111.108	2.80168	-10.5115	3.06832	-53.1884	-43.1979	6.69398	-0.650183	32.7872	-0.320352
0.5567	-119.904	2.80168	-8.98006	3.37341	-52.5627	-47.4817	28.9665	-6.45367	19.9818	-0.320352
0.5573	-24.0733	3.11298	-4.40669	3.06832	-20.5245	-33.4694	49.7156	-12.5542	14.166	-0.320352
0.5580	-14.66	2.49038	-1.96895	0.322522	42.9262	-11.1698	57.9552	-18.9597	11.7383	0
0.5587	-72.9915	-0.24212	-0.750075	-2.72837	139.354	4.68411	51.5503	-24.4581	15.6866	-0.320352
0.5593	-93.6698	-3.90851	-1.05219	-2.72837	202.554	8.64759	34.4595	-24.4581	30.0394	-0.320352
0.5600	-111.108	-5.43041	0.166683	-1.50801	183.907	1.64144	24.9968	-20.1878	24.5437	-0.320352
0.5607	-134.564	-4.21981	3.5316	-0.897833	138.79	-8.12714	28.6662	-18.0446	4.10841	0
0.5613	-100.151	-4.53111	7.18822	-0.287655	96.052	-12.0906	30.1896	-20.4928	23.0231	0
0.5620	-92.7439	-7.88621	9.02173	1.23779	44.4906	-9.32819	25.3081	-23.238	51.7019	-0.320352
0.5627	-139.502	-12.1406	9.62596	1.23779	-15.9565	-13.9322	23.7736	-25.6782	44.3921	-0.320352
0.5633	-98.6079	-12.4519	11.772	0.9327	-74.2761	-25.5024	30.1896	-26.8983	30.3328	0
0.5640	43.3628	-9.40811	10.5427	2.45814	-112.697	-34.0699	39.0408	-23.8481	25.1573	-1.28141
0.5647	144.285	-4.84241	6.58399	3.37341	-128.278	-34.6704	41.7873	-15.6044	21.7959	-2.24247
0.5653	14.9687	-0.553418	3.83372	2.45814	-134.973	-27.6643	32.0132	-5.23357	17.8209	-0.961056
0.5660	-200.765	2.80168	-3.79205	1.23779	-136.225	-27.9445	11.2641	3.01011	10.5111	0
0.5667	-169.439	5.53418	-9.29259	2.76323	-113.01	-34.3502	-0.633815	6.97542	4.10841	-0.320352
0.5673	-54.6279	6.15677	-5.32345	6.12793	-71.2099	-28.8653	1.20091	7.8905	3.78827	-0.320352
0.5680	-102.929	5.53418	-1.65642	7.65337	-51.3738	-12.6911	2.41294	8.50054	1.36058	-0.320352
0.5687	-162.958	4.32358	-4.40669	6.12793	-52.8756	-4.16366	0.889565	9.41562	-8.40356	-0.320352
0.5693	-115.12	2.80168	-8.98006	3.6785	-51.3738	-8.72766	0.589337	13.389	-28.5454	0
0.5700	-2.77769	5.53418	-11.1261	5.21266	-47.6819	-8.12714	3.94744	24.9799	-58.4514	0
0.5707	183.945	9.82317	-9.89682	9.4839	-37.0442	2.24197	6.9942	33.5286	-92.946	-0.320352
0.5713	282.553	9.51187	-8.37584	12.5348	-20.8373	9.5684	6.0824	31.6984	-129.575	-0.640704
0.5720	177	4.94617	-7.76119	12.2297	-13.2032	12.3308	5.15948	20.4045	-157.026	-0.320352
0.5727	38.1161	-1.45272	-6.24021	8.56864	-7.69668	15.6938	4.5479	2.70508	-168.018	0
0.5733	-72.0656	-3.90851	-1.65642	5.82284	2.62813	25.7426	4.24767	-11.029	-161.615	-0.320352
0.5740	-118.36	-3.28592	4.13583	3.06832	10.2622	38.8741	3.33587	-14.6893	-141.153	-0.320352
0.5747	-50.6157	-4.21981	8.10498	-3.03345	10.5751	42.2371	2.41294	-11.9441	-71.577	0
0.5753	6.94422	-6.64102	9.32385	-8.21997	8.44757	38.5538	0.589337	-12.5542	50.7948	-0.320352
0.5760	1.23453	-9.40811	7.80286	-9.13523	10.2622	39.7949	-5.5153	-18.9597	96.8677	-0.320352
0.5767	12.8082	-8.78551	6.58399	-3.33854	14.267	45.8803	-12.5429	-22.323	60.2655	-0.320352
0.5773	-16.5118	-5.43041	7.80286	4.59377	12.1395	51.0848	-14.3665	-18.0446	82.2215	0
0.5780	-71.757	-3.00921	8.10498	4.28868	9.94936	54.728	-16.5014	-10.724	127.094	0
0.5787	27.1596	-0.864716	5.66723	-0.592744	12.1395	47.4016	-22.6061	-1.87028	91.0786	-0.320352
0.5793	53.3933	0.345886	-0.437544	-4.25381	12.7026	25.1421	-29.6225	5.75533	30.3328	-0.320352
0.5800	-241.968	4.32358	-5.32345	-2.72837	12.7026	8.04706	-32.9806	10.0257	4.40186	0
0.5807	-394.277	10.1345	-6.84443	-1.50801	7.50895	4.08358	-31.4572	13.999	-1.70739	0
0.5813	-99.2252	11.9677	-8.37584	-2.72837	-1.31407	3.16278	-28.4105	18.5744	-22.7563	0
0.5820	205.395	10.1345	-8.37584	3.06832	-1.31407	-0.200176	-29.6225	22.8447	-105.165	-0.320352
0.5827	266.658	3.42427	-4.7088	14.9755	2.94101	-2.00176	-34.5151	21.0146	-247.678	-0.320352
0.5833	347.828	-4.53111	2.91696	24.4333	5.38142	2.24197	-32.9806	11.8558	-390.192	-0.320352
0.5840	549.674	-6.36431	9.62596	23.518	4.1925	9.88868	-28.4105	3.92518	-422.526	-0.320352
0.5847	641.8	-6.95231	10.8553	9.78899	3.25388	2.88253	-31.157	-2.78535	-293.751	0
0.5853	456.775	-8.1975	6.8861	-3.03345	-5.56914	-21.2587	-35.1156	-7.36874	-193.655	0
0.5860	156.168	-6.95231	2.0002	-5.77925	-15.0179	-38.0334	-35.4269	-4.62353	-239.115	0
0.5867	72.6828	-3.59722	-0.13543	-7.3047	36.2307	-44.439	-30.8457	-2.1753	-216.545	0
0.5873	83.9479	0.968481	-0.437544	-18.2879	114.95	-61.2137	-23.8292	-6.45367	48.6606	0
0.5880	-61.1091	4.32358	-1.3543	-30.5002	129.905	-80.7509	-14.3665	-4.3185	365.435	-0.320352
0.5887	-290.268	7.98997	-6.84443	-30.1951	107.315	-82.5925	-8.26183	11.8558	425.86	0
0.5893	-409.246	9.51187	-13.2617	-22.8642	86.8536	-72.5037	-16.8128	24.3698	270.221	0
0.5900	-264.961	7.36738	-11.4282	-13.7116	58.8201	-57.5705	-21.9945	24.0648	151.504	0
0.5907	-98.2993	6.77937	-6.84443	-3.03345	23.09	-39.2344	-9.79633	21.3196	128.001	0
0.5913	-147.989	3.11298	-1.3543	4.89886	-13.2032	-23.9811	0.889565	13.0839	128.294	0
0.5920	-237.184	-4.53111	3.5316	8.87373	-44.9286	-13.0114	3.02452	1.17996	89.2378	0
0.5927	-147.372	-6.05301	-0.13543	8.56864	-65.3905	0.120105	4.24767	3.92518	0.426847	0
0.5933	57.0969	-3.90851	-2.8857	7.95846	-75.1521	18.4162	10.041	9.72064	-83.7955	-0.320352
0.5940	194.747	-5.43041	1.08344	9.17882	-80.3458	36.432	17.0685	-2.48033	-143.607	-1.60176
0.5947	250.609	-6.95231	3.83372	7.65337	-75.465	52.2859	19.8151	-17.4345	-159.161	-1.60176
0.5953	281.318	-5.11912	1.39597	0.0174336	-63.5758	65.7377	21.3384	-19.8747	-151.851	0
0.5960	202	-3.28592	-6.54232	-10.6607	-52.2498	69.3809	24.6965	-19.8747	-202.512	0
0.5967	-37.1902	0.345886	-11.4282	-15.8472	-38.2331	62.9753	28.6662	-18.0446	-234.553	0
0.5973	-237.184	4.01228	-7.76119	-20.4235	-27.8457	54.1275	27.1317	-16.8245	-106.365	0
0.5980	-262.183	4.32358	-4.40669	-22.5591	-17.208	46.8011	24.9968	-18.9597	142.647	0
0.5987	-193.204	4.01228	-4.7088	-8.21997	-14.4547	29.1056	27.1317	-14.6893	231.458	0
0.5993	-152.619	0.968481	-5.32345	9.17882	-29.0972	-2.64232	29.2667	-12.2491	45.2992	0
0.6000	-156.014	-0.24212	-2.57317	11.6195	-35.4798	-24.5816	31.713	-14.6893	-34.0411	0
0.6007	-100.46	0.657184	1.08344	7.95846	-24.2164	-29.4659	30.4898	-19.8747	123.412	-0.320352
0.6013	-13.4255	-1.45272	2.30231	8.87373	-9.57392	-31.3075	25.9197	-29.9486	200.031	0
0.6020	-0.308632	-3.59722	1.08344	9.78899	2.37784	-32.2283	17.9803	-35.134	131.362	0
0.6027	-16.2032	-2.69791	-3.18782	5.21266	8.1347	-28.5851	6.38263	-29.6435	74.5916	0
0.6033	-3.39495	0.345886	-7.45908	-1.50801	11.5137	-18.4962	0.889565	-20.7978	102.683	0
0.6040	-18.3636	4.32358	-5.62556	-6.69452	18.835	-6.88605	0.589337	-15.6044	153.025	0
0.6047	-80.2443	3.42427	-1.05219	-8.83014	23.4029	-1.12098	-0.333587	-14.9943	144.488	0
0.6053	-118.36	-0.864716	0.166683	-7.60979	16.7074	2.88253	0.589337	-14.9943	105.431	0
0.6060	-118.36	-3.90851	-1.96895	-3.03345	6.94578	7.44654	-1.54562	-14.6893	58.1046	0
0.6067	-81.1702	-3.00921	-2.8857	3.6785	2.94101	10.8095	-6.12688	-11.6391	8.37688	0
0.6073	7.25285	0.657184	-1.05219	7.65337	-0.375448	19.9375	-8.26183	-5.5386	-17.2606	0
0.6080	85.1824	2.17908	-0.13543	8.87373	-3.4416	30.9472	-11.0084	-2.78535	-43.1916	0
0.6087	105.244	1.59108	-1.65642	10.3992	-2.56556	37.0325	-15.2894	-1.87028	-110.34	0
0.6093	33.1779	0.345886	-5.02134	11.3144	-0.375448	34.3101	-17.4244	3.01011	-179.916	0
0.6100	-59.566	-1.17601	-6.54232	8.26355	2.37784	28.8253	-12.2315	6.06035	-164.363	-0.961056
0.6107	-35.647	-1.17601	-1.3543	0.9327	7.50895	34.3101	-6.12688	0.874938	-92.3324	-0.961056
0.6113	16.8204	-0.864716	3.5316	-7.3047	5.38142	36.7523	-6.73845	-4.62353	-5.04213	0
0.6120	-1.23453	-2.07532	1.69809	-14.9319	-9.88679	0.440387	-7.65026	-3.3954	111.22	0
0.6127	-34.8754	-3.28592	-3.18782	-13.7116	-25.7182	-57.5705	-5.82665	0.264889	105.111	-0.320352
0.6133	-51.8502	-1.17601	-3.18782	-6.38943	-27.8457	-98.4464	-1.54562	1.48499	3.17468	0
0.6140	-54.9365	1.27978	0.781328	-10.6607	-19.8987	-114.941	1.20091	2.09503	73.978	0
0.6147	-49.6898	2.17908	1.39597	-19.8133	-14.4547	-110.657	-2.46854	4.2302	202.459	0
0.6153	-40.2765	2.80168	-1.3543	-16.1523	-10.1371	-91.7205	-5.5153	3.92518	155.159	0
0.6160	-43.9801	0.968481	-3.18782	-5.77925	-5.56914	-65.8178	-5.82665	-0.0401348	38.5763	0
0.6167	-64.0412	0.345886	-0.437544	3.6785	-1.31407	-38.0334	-0.0222391	-3.09038	-29.4791	0
0.6173	-82.0961	2.49038	2.30231	9.4839	7.50895	-15.4536	9.74074	-2.1753	-37.4025	0
0.6180	-86.417	3.42427	1.69809	5.82284	14.267	6.84601	18.8921	1.48499	57.8111	0
0.6187	-54.0106	3.11298	-0.437544	-3.64363	12.7026	32.7888	34.1593	6.6704	200.031	0
0.6193	5.24674	1.90237	-3.79205	-9.13523	7.25866	52.9265	45.1454	10.6357	221.694	0
0.6200	32.715	1.59108	-5.32345	-10.0505	2.06496	68.7804	39.9526	10.9407	99.0019	0
0.6207	0.617264	2.80168	-2.8857	-9.74541	-5.00597	84.9546	28.6662	10.9407	-12.0851	0
0.6213	-34.2582	4.01228	-0.437544	-9.44032	11.2009	88.9181	17.0685	13.694	-21.2357	0
0.6220	3.70358	2.80168	0.479215	-7.3047	64.3267	82.5124	-1.54562	14.304	11.1247	0
0.6227	77.7753	-1.45272	1.39597	-6.69452	96.052	70.622	-26.5758	8.50054	38.8965	-0.320352
0.6233	128.082	-3.59722	4.13583	-8.52505	93.2988	41.6366	-40.92	-0.650183	75.8188	0
0.6240	148.915	-6.36431	7.18822	-5.77925	89.6068	1.04091	-43.6665	-9.80894	79.1802	-0.961056
0.6247	139.81	-9.7194	7.49033	3.6785	68.5818	-34.6704	-43.9667	-13.1642	33.4008	-2.24247
0.6253	107.713	-5.11912	4.13583	5.51775	58.8201	-69.1407	-40.3084	-5.84362	6.85624	-1.28141
0.6260	29.6287	1.27978	-2.8857	-4.5589	77.7177	-98.7667	-39.0853	6.06035	-10.5378	0
0.6267	-123.607	4.63488	-8.07372	-10.9658	125.024	-107.895	-47.0246	13.694	-54.7965	0
0.6273	-184.099	7.98997	-7.15696	-8.52505	193.418	-100.288	-53.4295	12.7789	-93.5596	0
0.6280	-55.2451	9.51187	-6.84443	-5.77925	191.541	-87.1565	-49.4598	14.304	-80.1406	0
0.6287	42.7455	9.20057	-9.29259	-6.38943	141.231	-72.2234	-39.6968	20.7095	-20.6221	0
0.6293	59.566	5.84548	-8.98006	-6.69452	96.3649	-75.2661	-31.157	21.3196	-11.1514	0
0.6300	102.774	1.59108	-2.27106	0.322522	56.0669	-110.977	-14.978	18.2693	-53.5693	0
0.6307	133.946	0.0691772	4.13583	5.21266	72.524	-137.2	6.9942	12.1608	-78.9134	0
0.6313	67.7447	0.968481	4.13583	2.76323	75.903	-120.426	13.3991	5.14528	-93.8531	0
0.6320	-87.3429	3.42427	-0.13543	3.6785	-7.69668	-83.7936	3.33587	4.53523	-41.9911	0
0.6327	-241.968	1.59108	-3.18782	9.78899	-105.063	-52.366	-3.08012	7.58547	30.653	0
0.6333	-286.256	-1.17601	-0.437544	15.8908	-155.435	-23.7008	5.47082	11.5508	-36.7889	0
0.6340	-114.811	-0.864716	4.43794	16.5009	-126.15	4.68411	14.9336	13.389	-156.413	-0.320352
0.6347	155.242	0.657184	4.43794	9.4839	-20.5245	23.3005	19.2035	7.8905	-191.201	0
0.6353	258.788	0.345886	1.08344	1.84797	68.8947	29.1056	28.6662	-3.09038	-204.94	-0.320352
0.6360	172.68	-1.76402	-2.8857	-6.08434	91.7344	37.9533	36.5945	-13.1642	-196.697	-0.320352
0.6367	38.4247	0.345886	-6.24021	-12.1861	84.726	58.7316	41.7873	-15.6044	-78.2998	-0.320352
0.6373	-71.4483	4.63488	-5.62556	-5.47417	43.8648	71.8231	50.3271	-11.3341	49.2742	-0.320352
0.6380	-140.428	5.25747	-2.57317	6.12793	-42.801	63.5758	49.4153	-6.45367	82.2215	-0.320352
0.6387	-158.637	5.53418	-1.65642	7.65337	-139.229	50.4843	42.6991	0.264889	103.884	0
0.6393	-143.205	3.73557	-2.57317	6.43302	-216.446	44.0787	41.7873	3.01011	137.151	0
0.6400	-137.341	0.345886	-0.437544	8.87373	-249.422	34.5904	39.6524	-1.56526	135.631	-0.320352
0.6407	-172.68	0.345886	2.30231	11.6195	-242.727	16.6146	32.0132	-3.09038	80.7008	0
0.6413	-184.408	0.0691772	2.61484	10.3992	-235.719	5.32467	26.5202	0.569914	-2.32098	0
0.6420	-109.873	-2.69791	3.21907	5.21266	-213.129	4.68411	24.3852	0.264889	-25.184	0
0.6427	-48.3009	-5.11912	0.781328	2.15306	-178.901	5.60492	21.6387	-2.48033	-3.84163	0
0.6433	-21.7586	-3.00921	-1.3543	0.322522	-146.863	29.7061	19.2035	-1.26023	3.78827	0
0.6440	35.9556	0.657184	0.479215	-6.38943	-73.0246	82.8327	12.187	2.40006	30.0394	0
0.6447	82.4048	0.968481	2.0002	-11.5759	4.81825	128.313	-0.945163	3.01011	67.8954	0
0.6453	104.318	0.345886	1.08344	-10.3556	25.8433	125.23	-11.3197	3.62016	99.322	0
0.6460	98.2993	-2.07532	-1.65642	-9.44032	27.0948	87.9973	-18.3362	5.14528	105.431	0
0.6467	37.1902	-3.90851	0.166683	-8.83014	25.5304	66.6585	-20.4711	6.06035	84.0622	0
0.6473	-11.2651	-2.38662	5.3547	-6.08434	12.1395	59.0118	-18.0359	6.97542	57.8111	0
0.6480	60.0289	-2.07532	8.10498	-2.72837	-5.25627	45.6	-18.3362	5.4503	4.40186	0
0.6487	253.233	-6.05301	9.62596	-1.20292	-30.599	30.6269	-20.1709	0.569914	-50.2079	0
0.6493	401.222	-12.4519	12.0741	-2.42328	-17.208	19.9375	-23.8292	-10.114	-66.6949	0
0.6500	452.609	-15.4957	15.4286	-3.64363	42.3004	13.5319	-27.4876	-16.2144	-70.0563	0
0.6507	565.723	-11.5526	16.96	-1.50801	63.3881	11.0897	-23.8292	-5.5386	-69.4427	-0.320352
0.6513	676.213	-3.00921	11.1574	2.15306	40.7986	10.209	-13.7549	14.6091	-69.4427	0
0.6520	475.448	7.36738	-1.3543	2.45814	9.38619	6.84601	-5.82665	34.7487	-81.0476	0
0.6527	81.1702	13.4896	-11.4282	-2.11819	-21.1502	1.32116	-0.945163	44.5095	-6.26932	0
0.6533	-112.033	15.3228	-13.5639	-5.47417	-35.7927	0.440387	1.50114	42.3743	183.544	0
0.6540	-124.842	13.4896	-12.345	-2.72837	-41.925	4.08358	-1.24539	38.409	241.836	-1.92211
0.6547	-190.735	11.0338	-9.89682	1.84797	-58.3821	5.9252	-3.08012	40.2391	107.859	-2.24247
0.6553	-318.045	7.09067	-2.27106	1.23779	-81.2844	5.60492	-2.15719	38.409	-6.26932	-0.320352
0.6560	-287.799	-3.00921	6.8861	-3.33854	-84.3506	5.00439	-3.69169	27.7251	-38.6297	0
0.6567	-125.15	-8.78551	12.9909	-3.64363	-70.2713	6.84601	-1.85697	22.8447	-16.9672	-0.320352
0.6573	-16.2032	-5.11912	15.7307	-2.72837	-59.8839	12.3308	7.29443	26.2	4.722	0
0.6580	4.93811	-0.24212	11.772	-6.38943	-47.369	20.8583	14.9336	30.4783	-6.88291	0
0.6587	-116.354	3.42427	3.5316	-6.38943	-27.2825	30.9472	17.0685	28.9532	4.722	0
0.6593	-210.024	4.63488	-3.79205	-1.20292	-10.1371	18.7364	12.4873	17.3543	15.0997	0
0.6600	-95.213	8.30127	-8.98006	3.06832	0.187724	-34.9907	5.15948	7.28045	-8.1101	0
0.6607	179.47	14.1122	-11.4282	3.37341	9.07332	-83.7936	3.33587	5.14528	-15.4199	0
0.6613	390.574	12.5557	-8.37584	0.9327	13.9541	-95.724	4.24767	6.97542	-6.88291	-0.320352
0.6620	216.968	7.36738	-5.32345	-3.64363	11.2009	-94.8032	1.50114	7.8905	-0.480203	0
0.6627	-147.68	2.80168	-5.02134	-10.0505	6.32004	-84.4341	-2.46854	2.70508	33.0807	0
0.6633	-301.225	-0.24212	-1.65642	-13.1014	6.00716	-57.2503	-1.54562	-6.14865	63.9204	0
0.6640	-438.258	0.0691772	0.479215	-11.881	8.44757	-27.9445	1.50114	-12.8592	69.416	-0.320352
0.6647	-580.537	0.0691772	-1.05219	-15.237	10.2622	-1.72151	2.11272	-19.8747	95.6405	-0.320352
0.6653	-373.29	-4.53111	0.166683	-18.593	5.38142	23.3005	-0.0222391	-27.8134	95.9606	0
0.6660	-37.1902	-12.4519	0.781328	-15.5421	3.25388	39.4747	-6.73845	-36.6671	36.4421	0
0.6667	100.768	-16.7409	1.39597	-11.2709	27.3451	57.4905	-15.2894	-45.2078	2.88122	0
0.6673	130.243	-15.807	5.96935	-6.69452	49.9345	65.4174	-18.9477	-48.258	15.6866	-0.320352
0.6680	137.341	-13.9738	8.40709	-2.72837	41.7373	47.1214	-17.113	-44.2927	23.6367	0
0.6687	94.9044	-11.5526	5.96935	-0.287655	20.9625	23.941	-16.5014	-37.5822	17.8209	0
0.6693	19.7525	-11.2413	3.21907	-0.592744	-3.4416	5.32467	-17.7246	-36.6671	15.6866	0
0.6700	-18.055	-10.0307	2.91696	-2.11819	-25.4053	-6.88605	-14.0662	-37.2772	17.5274	0
0.6707	-10.9564	-4.53111	1.08344	-2.42328	-32.7265	-14.5328	-7.35003	-32.6938	16.0068	0
0.6713	2.77769	-2.38662	-1.65642	-2.11819	-31.5376	-23.0602	-3.08012	-27.8134	9.60406	-0.320352
0.6720	8.48738	-3.90851	-1.05219	-3.64363	-34.8541	-35.9115	2.72429	-25.0682	-1.70739	-0.320352
0.6727	-0.925896	-4.21981	-0.13543	-6.69452	-40.6735	-61.8143	12.7875	-19.8747	-16.0335	0
0.6733	-15.2773	-3.00921	3.21907	-8.21997	-36.1056	-84.7144	28.3549	-13.7743	-27.6384	0
0.6740	-22.8388	-3.90851	9.62596	-8.21997	-18.0841	-74.025	46.6688	-11.9441	-34.3612	0
0.6747	-34.8754	-5.43041	12.3762	-6.69452	3.25388	-10.249	54.597	-7.67377	-38.3095	-0.320352
0.6753	-35.4927	-4.53111	9.32385	-4.25381	25.2176	74.5855	42.9993	2.70508	-48.0737	0
0.6760	-8.02443	-3.00921	3.83372	-3.03345	41.7373	136.52	21.3384	11.2458	-78.9134	0
0.6767	30.5546	0.968481	-0.750075	-0.287655	45.0537	148.13	5.47082	19.4894	-102.417	0
0.6773	115.274	6.77937	-4.10458	3.06832	49.3714	76.7073	-4.29215	29.5633	-58.4514	-0.320352
0.6780	226.999	8.92387	-6.54232	5.82284	57.5686	-17.5754	-18.3362	30.1733	-8.1101	0
0.6787	255.702	5.53418	-7.76119	9.17882	36.5436	-63.9762	-39.6968	14.9141	-36.7889	0
0.6793	243.202	-0.553418	-8.07372	8.26355	17.8963	-98.1662	-65.6388	-6.14865	-71.2835	-0.320352
0.6800	337.181	-2.07532	-6.24021	4.89886	73.1497	-157.979	-87.3108	-11.029	-72.1906	-0.320352
0.6807	353.075	3.73557	-5.62556	-1.20292	173.582	-215.95	-92.8039	-0.955208	-48.3938	0
0.6813	-7.7158	8.92387	-7.15696	-11.5759	253.49	-254.704	-87.611	4.53523	38.5763	-0.320352
0.6820	-347.057	7.09067	-7.45908	-19.8133	304.488	-309.952	-80.8948	4.53523	115.195	-0.320352
0.6827	-248.449	-0.24212	-5.62556	-19.2032	389.902	-356.313	-76.3247	-0.955208	88.6242	0
0.6833	-103.237	-4.21981	1.39597	-10.3556	468.371	-347.785	-66.5506	-4.01348	38.5763	0
0.6840	-207.246	-4.21981	11.1574	-3.64363	446.094	-310.873	-44.8897	0.874938	45.2992	-0.320352
0.6847	-210.95	-6.64102	12.0741	-4.25381	352.983	-268.756	-21.9945	4.2302	69.7095	-2.24247
0.6853	30.2459	-6.36431	5.05259	-3.33854	230.9	-213.828	-4.90373	5.14528	65.441	-2.24247
0.6860	145.829	-1.45272	-1.96895	-1.8131	124.398	-145.768	11.2641	7.58547	41.6443	-0.320352
0.6867	61.8807	3.11298	-6.54232	-3.94872	7.50895	-72.8239	37.2061	11.5508	27.9051	0
0.6873	-15.5859	7.98997	-7.15696	-2.42328	-143.233	17.2151	73.5225	15.8292	29.7459	-0.320352
0.6880	-116.972	9.82317	-8.07372	2.45814	-257.057	108.135	104.346	11.8558	26.3845	0
0.6887	-269.436	8.30127	-10.2094	5.51775	-324.199	151.773	124.183	4.84025	-4.13508	0
0.6893	-408.32	5.53418	-10.8136	8.87373	-366.312	178.637	136.393	4.2302	-70.3498	0
0.6900	-467.578	3.42427	-6.54232	14.6704	-361.118	257.706	137.304	6.36537	-124.986	0
0.6907	-323.755	3.73557	-3.18782	17.1111	-318.38	342.541	120.825	13.999	-121.945	-0.320352
0.6913	-41.2024	6.46807	-5.02134	16.806	-256.118	348.306	86.032	22.2347	-92.6525	0
0.6920	161.723	7.09067	-6.84443	18.0264	-196.297	307.43	47.2804	19.1844	-85.6096	0
0.6927	247.832	1.90237	-7.15696	14.0602	-169.452	275.682	15.534	6.36537	-113.381	-0.320352
0.6933	277.769	-3.28592	-2.8857	2.45814	-164.571	246.096	-6.12688	-5.5386	-66.6949	-0.320352
0.6940	263.417	-4.84241	2.91696	-10.0505	-167.012	207.342	-15.2894	-14.3843	83.7421	0
0.6947	205.086	-5.43041	5.05259	-11.881	-165.823	165.826	-19.5593	-18.3496	136.244	0
0.6953	124.842	-5.11912	3.83372	-2.72837	-144.422	132.276	-24.4408	-10.419	65.7345	-0.320352
0.6960	39.042	-3.28592	-0.750075	4.59377	-105.376	112.138	-29.6225	-2.78535	8.37688	-0.320352
0.6967	-88.5774	-1.76402	-1.65642	7.34828	-68.4566	109.376	-29.0221	-5.5386	-12.3786	0
0.6973	-185.334	0.345886	2.91696	7.95846	-54.6902	109.056	-21.6943	-6.14865	-13.8992	0
0.6980	-137.65	1.27978	4.13583	7.34828	-48.9333	93.5221	-16.5014	-3.3954	-10.8579	0
0.6987	-46.4491	-1.76402	2.91696	6.12793	-27.8457	75.5063	-19.5593	-5.84362	-11.765	0
0.6993	-18.3636	-6.36431	2.30231	3.6785	-8.94817	66.9388	-26.2755	-9.80894	-11.1514	-0.320352
0.7000	18.6722	-3.90851	1.08344	2.76323	1.12634	62.0545	-27.4876	-4.92855	-6.26932	-0.320352
0.7007	90.2749	3.73557	-0.750075	3.98359	10.888	52.2859	-21.9945	7.28045	-2.32098	-0.320352
0.7013	144.594	3.73557	-0.13543	4.89886	14.5799	40.996	-18.3362	10.3307	-2.61444	-0.320352
0.7020	195.364	-2.69791	2.61484	4.28868	10.888	33.6696	-18.3362	-3.3954	-3.84163	0
0.7027	274.991	-5.11912	0.781328	0.9327	5.06854	27.9045	-20.7825	-12.2491	-5.04213	0
0.7033	206.938	3.73557	-8.37584	-0.592744	2.37784	25.4624	-21.0827	3.31513	-5.04213	0
0.7040	-32.4064	15.9108	-17.2205	-1.20292	5.69429	24.5415	-15.5896	19.4894	-5.04213	-0.320352
0.7047	-52.1588	15.9108	-15.3974	-2.11819	10.2622	19.9375	-7.65026	16.1342	-5.36227	-0.320352
0.7053	46.9121	6.77937	-5.93809	-0.592744	12.3898	13.5319	-1.54562	8.50054	-3.52149	0
0.7060	-81.7875	-0.24212	-2.27106	-0.592744	11.8266	7.76682	-2.46854	8.19552	-8.1101	0
0.7067	-330.236	-3.59722	0.479215	-2.72837	15.7688	9.88868	-3.99192	9.41562	-20.3019	0
0.7073	-435.48	-8.78551	11.1574	0.0174336	24.0287	11.41	-4.29215	2.70508	-30.3862	0
0.7080	-218.82	-13.3858	18.1789	2.76323	26.4691	-7.20633	-7.35003	-4.92855	-32.8139	-0.320352
0.7087	104.318	-11.8293	13.293	1.23779	26.4691	-27.6643	-11.3197	-2.78535	-25.7976	0
0.7093	342.736	-9.40811	5.05259	-1.50801	25.8433	-21.5389	-19.248	-0.955208	-30.6797	0
0.7100	426.992	-7.88621	3.5316	-6.69452	17.8963	-54.8081	-27.4876	-4.3185	-40.1503	0
0.7107	192.895	-4.53111	6.58399	-13.1014	15.7688	-183.001	-29.0221	-5.5386	16.3002	0
0.7113	-113.885	-3.90851	9.62596	-12.7963	26.4691	-318.48	-30.2341	-2.1753	95.6405	0
0.7120	-203.543	-4.21981	10.8553	-6.38943	34.1032	-405.756	-32.6804	5.14528	80.0872	0
0.7127	-147.68	-5.74171	6.58399	-2.42328	38.0454	-438.105	-37.5619	10.6357	8.05674	-0.320352
0.7133	24.0733	-4.53111	1.69809	1.23779	39.6097	-411.561	-45.8015	15.8292	-45.0324	-1.60176
0.7140	318.817	7.36738	-1.65642	6.73811	34.416	-347.465	-50.0714	34.4437	-81.3411	-0.320352
0.7147	495.354	19.8885	-9.89682	10.7043	-1.31407	-265.673	-48.2478	56.7185	-86.5433	0
0.7153	426.684	22.033	-19.3561	12.2297	-6.50776	-252.261	-39.6968	51.533	-64.2672	-0.320352
0.7160	306.009	12.5557	-20.8875	11.0093	180.903	-312.394	-31.157	12.7789	-66.4014	-0.320352
0.7167	-17.4377	-0.24212	-11.1261	8.87373	427.134	-322.443	-22.6061	-25.6782	-99.9623	-0.320352
0.7173	-563.408	-5.43041	3.21907	7.04319	473.565	-275.762	-10.7081	-35.744	-110.047	0
0.7180	-622.819	-9.40811	10.2406	2.15306	493.401	-220.834	0.277989	-31.1687	-66.6949	0
0.7187	-144.44	-18.8508	10.2406	-4.86399	639.888	-154.896	12.7875	-35.744	-46.553	-1.92211
0.7193	180.704	-23.1398	9.62596	-9.13523	708.532	-117.984	23.1732	-45.8179	-70.0563	-2.24247
0.7200	289.96	-14.9077	10.5427	-9.44032	623.681	-109.136	27.4431	-43.6827	-72.8041	-0.320352
0.7207	331.162	-4.84241	8.10498	-5.47417	437.209	-63.6559	30.1896	-28.7285	-51.7552	0
0.7213	223.141	3.42427	0.479215	-4.5589	170.203	-4.76418	35.0711	-13.4692	46.2062	0
0.7220	-31.1718	9.82317	-8.67795	-6.38943	-82.4733	24.2213	42.9993	-3.3954	139.606	0
0.7227	-423.597	9.51187	-12.345	-5.47417	-268.007	45.8803	48.1922	-4.01348	94.44	0
0.7233	-596.586	5.53418	-7.76119	-3.64363	-418.499	90.4394	49.7156	-6.45367	18.4345	0
0.7240	-335.174	6.77937	-5.02134	2.15306	-550.657	155.136	50.9387	2.40006	-3.22803	0
0.7247	-24.3819	6.77937	-5.02134	8.56864	-592.144	221.074	52.1619	7.28045	8.37688	0
0.7253	196.753	-1.76402	1.39597	8.87373	-536.89	291.256	56.1315	-1.87028	15.0997	-0.320352
0.7260	236.258	-11.8293	8.40709	4.59377	-464.867	367.843	53.9855	-14.0793	-3.52149	0
0.7267	51.8502	-17.9515	13.9076	-1.50801	-351.669	434.381	42.9993	-22.628	-15.74	0
0.7273	-128.545	-17.6402	19.6999	-7.60979	-220.45	459.724	37.5063	-22.628	-13.6058	0
0.7280	-217.586	-11.2413	17.2621	-9.74541	-146.863	426.775	36.2942	-13.7743	-8.1101	-0.320352
0.7287	-79.3184	-6.36431	12.0741	-7.60979	-125.212	367.242	34.1593	-7.06372	-9.33729	0
0.7293	187.34	-6.05301	8.40709	-3.64363	-159.065	318.119	35.0711	-5.23357	-27.0248	0
0.7300	318.045	0.657184	1.69809	1.23779	-204.869	276.002	37.8176	5.75533	-6.88291	0
0.7307	472.053	13.1783	-5.02134	3.98359	-203.055	213.748	35.0711	25.2849	65.1476	0
0.7313	617.418	20.1998	-10.2094	1.23779	-193.606	143.846	23.4734	43.8994	80.9943	0
0.7320	-77.158	25.3881	-17.533	-1.20292	-203.055	90.1591	10.6525	63.132	14.4861	0
0.7327	-1203.67	27.8438	-23.0231	3.06832	-182.593	57.4905	1.50114	71.6727	-53.8895	0
0.7333	-979.289	18.6779	-14.1681	9.78899	-91.0461	45.8803	-4.90373	56.1084	-106.979	0
0.7340	-20.8327	5.84548	2.30231	10.0941	2.94101	49.8438	-8.57318	30.7834	-121.945	0
0.7347	196.444	-1.45272	9.02173	9.17882	27.3451	45.8803	-15.5896	14.9141	-68.8291	0
0.7353	168.204	-10.0307	11.1574	12.5348	34.6663	22.0994	-22.3058	-4.3185	-15.4199	0
0.7360	177	-17.9515	8.71962	15.2806	45.6795	-2.00176	-25.6639	-37.2772	-11.1514	0
0.7367	-9.72191	-13.9738	0.479215	18.9417	30.0984	-8.72766	-25.0524	-58.9419	-49.621	0
0.7373	-141.353	-2.38662	-4.10458	23.8231	0.500597	-2.64232	-21.6943	-54.0615	-106.072	0
0.7380	-175.149	3.42427	-4.7088	18.9417	-26.031	6.52573	-19.5593	-31.4737	-111.247	-0.320352
0.7387	-235.332	1.59108	-2.57317	5.21266	-48.6205	25.4624	-14.978	-7.06372	-28.252	-0.320352
0.7393	-277.46	-2.69791	-0.750075	-2.11819	-63.2629	46.8011	-10.7081	4.2302	46.5264	-0.320352
0.7400	-268.819	-1.76402	-1.3543	0.0174336	-55.0031	49.8438	-10.0966	11.2458	47.14	-0.320352
0.7407	-82.4048	5.25747	-4.10458	0.627611	-37.6073	47.4016	-15.5896	25.895	25.7709	0
0.7413	281.627	10.4458	-7.45908	-1.8131	-29.0972	48.3224	-35.7271	35.3587	36.1486	0
0.7420	534.705	3.11298	-1.05219	-7.91488	-19.0227	41.6366	-55.2642	23.1497	84.0622	-0.320352
0.7427	542.266	-12.7632	12.6783	-17.3726	-9.26104	43.1579	-62.2807	-4.3185	96.2541	-0.320352
0.7433	434.245	-18.5741	17.8664	-20.1184	-6.82063	66.3382	-62.2807	-26.8983	64.2138	0
0.7440	379	-18.2628	15.7307	-16.7625	31.6628	87.3967	-57.0878	-40.9375	64.8274	-0.961056
0.7447	333.168	-18.8508	11.4595	-14.9319	117.077	80.0703	-49.4598	-44.5978	82.2215	-2.24247
0.7453	221.289	-13.3858	8.10498	-14.3217	166.511	51.4051	-45.1899	-29.9486	76.7258	-1.28141
0.7460	209.098	-5.43041	4.13583	-14.6268	162.569	14.4527	-49.4598	-7.06372	59.0383	0
0.7467	152.927	3.11298	-0.437544	-13.7116	143.358	-27.6643	-55.5644	13.389	43.4584	0
0.7473	-37.4988	12.5557	-2.27106	-10.9658	103.373	-59.6924	-54.9529	35.6638	35.535	0
0.7480	3.39495	15.3228	-1.65642	-11.2709	51.186	-74.9458	-49.4598	54.2783	36.1486	-0.320352
0.7487	-152.927	13.4896	-3.18782	-11.881	4.81825	-88.9981	-40.6086	62.827	33.4008	-0.320352
0.7493	-559.087	12.867	-8.98006	-8.21997	-40.9864	-117.984	-31.157	65.8772	11.4182	0
0.7500	-413.876	12.5557	-10.8136	-1.50801	-87.3542	-162.863	-19.8595	68.0124	-2.61444	0
0.7507	-62.6523	16.5334	-10.5115	2.45814	-88.9185	-195.812	1.50114	74.4179	5.62905	0
0.7513	141.353	20.1998	-15.0848	2.45814	-34.6038	-194.891	24.6965	71.3676	-0.480203	0
0.7520	399.524	13.1783	-15.0848	5.21266	4.81825	-168.028	33.5477	46.0426	-24.2769	0
0.7527	459.862	-0.24212	-8.07372	11.3144	5.06854	-133.557	31.1014	8.19552	-51.4351	0
0.7533	174.84	-8.78551	-1.05219	16.1959	1.43922	-92.6413	26.8315	-25.3732	-80.434	0
0.7540	-162.34	-12.7632	6.8861	14.3653	5.38142	-52.366	27.7433	-49.1731	-63.3335	0
0.7547	-124.224	-17.9515	16.3454	3.37341	1.12634	-27.0237	36.2942	-68.7107	0.13339	0
0.7553	289.034	-22.2059	20.6166	-3.64363	29.5352	-1.72151	43.6109	-79.9966	22.116	-0.320352
0.7560	601.833	-18.8508	11.4595	-3.03345	108.88	35.8315	39.341	-74.5062	-1.38725	-0.320352
0.7567	578.222	-5.43041	-5.62556	-4.5589	145.173	69.1007	23.4734	-53.7565	-2.61444	-0.320352
0.7573	524.829	12.867	-17.8351	-8.21997	114.637	61.7742	11.2641	-24.4581	28.8122	-0.320352
0.7580	286.873	18.6779	-15.0848	-8.21997	71.3351	12.6511	20.7269	1.48499	53.2225	-0.640704
0.7587	-681.46	11.3451	-5.62556	-3.94872	30.7241	-27.6643	34.7598	17.0492	41.6443	0
0.7593	-1296.72	1.27978	1.39597	-1.8131	-7.44638	-30.3867	30.1896	13.389	13.5524	0
0.7600	-582.852	-9.7194	12.3762	-1.20292	-35.4798	-25.5024	14.322	-7.36874	-0.773661	0
0.7607	237.955	-15.1844	21.5334	3.6785	-52.2498	-16.3744	0.277989	-18.0446	-2.00085	-0.320352
0.7613	500.755	-12.7632	18.481	7.04319	-61.4483	14.4527	-10.0966	-13.4692	-0.773661	-0.320352
0.7620	625.289	-8.78551	8.71962	4.89886	-57.1306	27.5842	-20.1709	-12.5542	0.746983	0
0.7627	455.541	-1.17601	-7.15696	2.45814	-47.1187	12.3308	-29.6225	-14.6893	-2.9079	0
0.7633	89.0403	8.92387	-19.6686	1.84797	-37.6073	17.2151	-27.4876	-16.5195	-9.33729	-0.320352
0.7640	-89.8119	12.867	-17.533	2.15306	-30.599	54.1275	-14.0662	-17.1295	-12.9922	0
0.7647	-349.371	9.82317	-8.67795	2.15306	-39.4846	99.0069	-5.5153	-10.724	-12.9922	0
0.7653	-751.673	3.73557	-1.65642	0.0174336	-44.3654	131.035	-2.46854	-4.3185	-12.3786	0
0.7660	-663.096	-4.84241	3.83372	-4.5589	-22.9649	148.731	2.41294	-7.97879	-16.9672	-0.320352
0.7667	-81.1702	-13.9738	12.0741	-9.44032	-4.38022	142.645	12.187	-16.8245	-7.20305	-0.320352
0.7673	295.978	-15.4957	17.5643	-11.5759	16.7074	100.809	26.2199	-20.4928	9.28393	-0.320352
0.7680	357.396	-9.7194	14.814	-10.0505	109.756	50.7646	34.7598	-21.1029	-18.1677	-0.320352
0.7687	304.311	-5.74171	17.5643	-9.74541	243.415	12.9314	37.8176	-22.628	-31.2932	-0.320352
0.7693	48.7639	-2.69791	18.1789	-14.6268	292.599	-12.4109	41.476	-24.1531	42.2579	-0.320352
0.7700	-421.128	8.61257	0.166683	-16.4574	249.235	-18.4962	44.2225	-16.8245	95.0536	0
0.7707	-549.674	23.5549	-25.7734	-11.5759	184.22	-15.1333	40.5642	0.569914	65.7345	0
0.7713	-166.353	24.7655	-33.0971	-8.83014	115.888	-10.249	30.8012	14.304	41.9378	0
0.7720	44.2887	11.0338	-16.6162	-7.3047	48.7456	-16.6546	21.95	21.6246	40.4171	-0.320352
0.7727	122.373	-5.43041	2.0002	-6.69452	-6.50776	-41.6766	17.0685	15.8292	26.9981	0
0.7733	283.787	-14.5964	12.0741	-6.69452	-60.8225	-58.4913	14.6222	0.569914	12.0318	0
0.7740	315.885	-16.4296	10.5427	-2.72837	-98.3673	-45.9604	12.4873	-7.67377	3.49481	-1.60176
0.7747	213.573	-14.2851	5.3547	3.6785	-88.2928	-14.5328	11.2641	-11.3341	-6.88291	-2.24247
0.7753	24.0733	-7.88621	3.5316	6.43302	-64.5144	23.0202	13.0988	-3.3954	-16.0335	-0.320352
0.7760	10.9564	-2.07532	-1.96895	6.43302	-57.1306	55.6489	10.041	16.1342	-20.0085	0
0.7767	-30.8632	1.90237	-7.76119	7.95846	-50.1223	67.8596	-5.21507	17.3543	-20.0085	-0.320352
0.7773	-447.054	3.42427	-3.48993	8.26355	-38.8588	58.091	-22.9174	2.70508	-16.3536	-0.320352
0.7780	-596.277	-3.00921	7.49033	4.59377	-30.599	43.1579	-37.8621	-8.89386	-12.0851	-0.320352
0.7787	-461.096	-14.2851	19.0957	-1.50801	-26.6568	26.6634	-51.5948	-19.8747	-12.9922	-0.320352
0.7793	-363.106	-24.0391	25.5025	-5.16908	-29.0972	1.64144	-59.5341	-24.7632	-25.5041	-0.320352
0.7800	331.779	-26.1836	27.6382	-3.64363	-29.7229	-18.4962	-58.0107	-15.2994	-41.671	-0.320352
0.7807	1125.43	-20.684	27.9403	0.322522	-24.2164	-23.9811	-51.2945	-4.3185	-51.7552	0
0.7813	1272.34	-9.09681	18.7831	6.12793	-23.2778	-25.5024	-47.0246	2.09503	-56.6373	0
0.7820	1529.58	2.49038	5.3547	7.95846	-25.7182	-35.271	-42.4434	17.9643	-61.1992	0
0.7827	1286.53	9.51187	-2.8857	3.6785	-46.1801	-52.0857	-36.9503	46.9577	-63.6536	0
0.7833	-1017.41	23.5549	-15.3974	3.98359	-41.6121	-59.3721	-32.6804	79.3063	-56.3172	0
0.7840	-3025.21	40.019	-26.0755	10.7043	90.2326	-57.5705	-31.4572	101.886	-35.5617	0
0.7847	-2114.9	41.8522	-23.6378	14.9755	246.169	-53.2868	-46.7133	118.365	8.05674	0
0.7853	-597.82	35.7646	-19.3561	18.6366	271.198	-41.0761	-70.8205	132.1	41.3242	0
0.7860	197.679	25.3881	-14.7827	25.9587	204.994	-75.2661	-83.3411	116.535	6.5361	0
0.7867	1130.06	18.3666	-8.67795	35.7303	70.0836	-266.594	-80.2832	98.8359	-49.3009	0
0.7873	1451.65	20.5111	-8.98006	40.0015	0.500597	-617.542	-58.0107	93.6505	-78.5933	0
0.7880	842.257	14.1122	-9.89682	36.9506	258.683	-990.79	-32.9806	39.9341	-143.607	0
0.7887	0.925896	-4.53111	-5.02134	37.5608	680.436	-1193.41	-21.9945	-53.1465	-263.231	-0.320352
0.7893	-416.345	-23.1398	2.91696	40.0015	944.752	-1147.33	-7.65026	-126.079	-370.05	-0.320352
0.7900	-260.948	-30.1613	9.32385	33.5859	980.732	-982.543	5.47082	-158.733	-387.444	0
0.7907	-148.298	-20.9953	8.71962	17.1111	779.617	-800.343	3.02452	-144.694	-283.373	0
0.7913	-205.703	-6.05301	4.43794	2.15306	420.126	-604.13	-5.5153	-100.754	-189.067	0
0.7920	-77.4666	3.11298	8.10498	0.322522	13.9541	-394.186	-12.5429	-66.2625	-233.939	0
0.7927	20.987	7.67867	13.5951	0.322522	-348.603	-172.311	-11.6199	-50.0882	-258.643	0
0.7933	-156.014	8.61257	9.93849	-16.4574	-591.831	32.7888	9.74074	-36.049	12.0318	0
0.7940	-232.246	4.01228	-1.05219	-36.907	-746.265	201.537	52.1619	-27.8134	420.978	0
0.7947	-25.3078	-7.57491	-6.54232	-32.6358	-836.247	373.368	103.734	-35.134	499.411	0
0.7953	110.182	-17.6402	-2.57317	-19.5083	-744.388	545.479	159.888	-45.2078	323.924	0
0.7960	-1.54316	-19.4734	-2.57317	-12.4912	-518.618	665.704	223.058	-42.4626	212.223	-0.320352
0.7967	-139.81	-11.5526	-9.89682	-3.94872	-374.822	740.17	263.956	-35.439	136.538	-0.320352
0.7973	-167.279	0.0691772	-14.1681	0.0174336	-322.384	775.561	244.419	-29.9486	36.7622	0
0.7980	-157.557	3.42427	-11.7303	0.322522	-285.153	748.697	172.097	-21.1029	-33.7476	0
0.7987	-181.63	0.657184	-6.84443	3.37341	-235.093	696.852	79.0156	-9.50391	-6.58946	0
0.7993	-206.012	-1.45272	-2.8857	6.43302	-185.346	648.93	0.889565	0.264889	51.0883	0
0.8000	-77.158	-2.69791	0.781328	6.73811	-174.646	574.144	-35.1156	6.06035	48.9541	0
0.8007	103.7	-1.17601	2.61484	6.73811	-192.354	456.681	-33.9035	7.28045	33.0807	0
0.8013	162.032	0.345886	1.39597	6.73811	-208.499	359.916	-24.741	4.84025	39.8035	0
0.8020	162.649	4.32358	-5.93809	3.06832	-206.684	311.393	-25.3526	7.8905	47.4334	0
0.8027	129.008	7.98997	-15.0848	-2.11819	-186.535	245.175	-32.0688	14.6091	45.9128	0
0.8033	35.0297	1.27978	-7.15696	-3.33854	-157.563	173.472	-31.157	11.5508	41.9378	0
0.8040	-144.903	-14.2851	18.481	-3.03345	-125.838	150.252	-21.6943	-5.5386	39.8035	0
0.8047	-290.886	-31.0606	38.931	-4.25381	-78.5311	150.892	-22.3058	-23.8481	38.5763	-0.640704
0.8053	-112.342	-47.2481	48.0881	-4.25381	-12.5775	144.487	-35.1156	-29.9486	37.9627	-2.24247
0.8060	261.566	-51.8138	51.1301	-5.16908	58.5073	126.471	-43.9667	-29.3385	38.5763	-1.60176
0.8067	450.757	-38.3934	41.3687	-6.69452	133.597	102.05	-48.548	-22.933	41.6443	0
0.8073	409.246	-15.1844	16.96	-7.3047	177.524	82.8327	-52.5177	-0.345159	45.5926	0
0.8080	242.893	10.1345	-11.1261	-10.3556	161.317	67.5793	-53.1293	29.2582	48.9541	-0.320352
0.8087	-65.8929	32.4095	-34.3159	-14.9319	193.105	46.5208	-52.2063	64.0471	52.022	0
0.8093	-460.479	42.1635	-46.2129	-18.8981	344.473	23.6207	-50.3827	101.581	56.9041	0
0.8100	-480.386	31.4756	-32.7845	-21.6439	469.873	7.12626	-44.8897	109.207	56.2905	-0.640704
0.8107	202	11.9677	-5.62556	-25.9238	473.252	-17.8957	-35.1156	87.847	45.2992	-0.640704
0.8113	959.383	2.49038	8.10498	-28.9747	372.82	-63.3756	-24.741	76.8581	47.4334	0
0.8120	1224.03	-1.17601	11.4595	-27.1442	222.077	-95.4038	-17.4244	72.2827	66.9617	0
0.8127	1503.04	-6.36431	12.9909	-26.534	81.9727	-131.716	-6.12688	52.4481	76.7258	0
0.8133	1385.14	-3.59722	9.32385	-29.2798	-36.7313	-197.654	16.1456	36.8839	76.7258	0
0.8140	-42.4369	8.30127	1.69809	-27.1442	-139.229	-222.675	28.9665	34.4437	75.8188	0
0.8147	-1178.36	10.1345	0.479215	-22.5591	-214.944	-191.208	18.5919	12.7789	72.7775	0
0.8153	-472.361	-1.45272	3.21907	-22.2541	-257.369	-141.164	4.85925	-16.5195	72.4573	-1.28141
0.8160	688.095	-3.28592	-0.750075	-24.0846	-288.782	-88.9981	-0.0222391	-4.3185	71.2301	-1.28141
0.8167	577.759	5.84548	-0.437544	-22.8642	-302.235	-49.9238	3.33587	37.4939	65.7345	0
0.8173	-224.993	2.80168	14.814	-18.8981	-300.108	-17.2952	17.9803	64.3521	56.9041	0
0.8180	-376.531	-18.2628	40.452	-15.5421	-271.386	23.941	35.9829	46.6527	49.2742	-0.320352
0.8187	-365.266	-42.3711	61.8187	-15.5421	-164.258	69.7012	42.3989	-6.45367	43.7785	0
0.8193	-492.268	-50.2919	59.3705	-16.4574	-44.3654	87.9973	35.9829	-51.9183	35.2416	0
0.8200	-260.64	-25.2843	20.002	-13.4065	19.7736	73.6647	29.2667	-65.9575	25.1573	-0.320352
0.8207	22.2215	23.5549	-37.3683	-6.69452	59.6962	65.7377	20.1153	-43.0726	16.6204	0
0.8213	-106.169	58.351	-70.3299	0.322522	82.5985	48.0422	5.47082	3.92518	7.14969	0
0.8220	-1067.87	58.351	-62.6938	2.45814	64.0138	-20.3379	-3.99192	47.2627	7.46983	0
0.8227	-2087.12	34.2427	-32.4824	-1.8131	19.7736	-90.1992	-14.0662	61.3018	28.1986	0
0.8233	-1722.17	15.3228	-10.5115	0.627611	78.3434	-86.8362	-25.9642	59.4637	41.3242	-0.320352
0.8240	-163.575	13.1783	-6.24021	8.26355	249.86	-87.757	-25.9642	64.0471	32.1736	-0.320352
0.8247	1186.54	10.1345	-4.40669	8.26355	338.654	-240.371	-15.5896	50.923	23.3165	0
0.8253	1170.02	0.345886	1.69809	4.59377	316.064	-424.693	-4.6035	6.97542	22.116	0
0.8260	212.03	-11.8293	6.27146	2.15306	249.235	-461.005	0.277989	-39.7174	15.3932	0
0.8267	-359.865	-22.2059	8.71962	3.06832	144.86	-408.198	1.80137	-77.2514	14.7796	0
0.8273	-260.022	-26.4949	11.4595	8.87373	39.2969	-335.895	2.72429	-107.77	18.7546	0
0.8280	-69.5965	-24.6617	12.0741	15.5857	-50.748	-233.045	-1.54562	-118.149	-18.4878	0
0.8287	-38.4247	-24.3504	12.9909	19.2467	-131.031	-107.014	-7.96161	-116.311	-103.937	0
0.8293	107.095	-29.5387	16.3454	20.7722	-192.667	-1.40123	-10.7081	-116.006	-171.993	0
0.8300	460.788	-31.0606	20.002	22.6027	-220.138	72.4636	-3.08012	-101.669	-180.823	0
0.8307	666.8	-24.0391	19.0957	22.2976	-216.758	149.331	17.6801	-78.1665	-160.388	0
0.8313	494.737	-11.2413	7.49033	20.4671	-211.252	205.18	39.0408	-65.6525	-186.639	0
0.8320	4.01222	7.67867	-14.4806	19.8569	-211.252	205.18	46.969	-46.7329	-267.82	0
0.8327	-758	26.0106	-34.9202	14.3653	-162.444	208.863	38.4292	-8.58884	-260.19	0
0.8333	-1300.73	29.6425	-36.7537	1.84797	-41.6121	233.885	18.5919	21.6246	-88.971	-0.320352
0.8340	-988.857	17.744	-23.6378	-7.91488	85.3518	229.001	-3.69169	28.3351	130.749	-1.60176
0.8347	-72.3742	3.11298	-7.76119	-7.60979	163.758	182.6	-24.741	17.6593	214.678	-1.60176
0.8353	661.861	-5.11912	3.21907	0.0174336	240.099	108.135	-40.92	5.14528	108.473	-0.320352
0.8360	702.447	-0.24212	-4.40669	4.59377	350.23	32.1482	-49.7712	12.7789	-5.36227	0
0.8367	155.551	10.7225	-20.2729	4.28868	393.281	-17.8957	-51.5948	30.4783	-17.8742	0
0.8373	-269.436	12.867	-22.1064	3.06832	355.737	-39.5547	-49.4598	26.505	-2.61444	0
0.8380	-197.216	6.77937	-14.7827	0.627611	279.458	-45.6401	-47.6362	-0.650183	0.746983	0
0.8387	-98.9166	-0.553418	-6.84443	-2.42328	143.671	-58.1711	-48.548	-25.0682	-0.160068	-0.320352
0.8393	-196.907	-3.90851	-4.40669	-1.50801	6.32004	-51.7654	-51.2945	-28.1184	-7.49651	-0.320352
0.8400	-227.925	0.0691772	-8.98006	1.23779	-102.31	-3.84337	-47.9364	-21.7129	-16.0335	0
0.8407	-130.706	4.63488	-10.2094	1.84797	-199.988	37.9533	-29.6225	-21.7129	-14.2194	-0.320352
0.8413	33.7952	1.27978	-1.65642	-2.72837	-239.348	62.695	-6.43823	-20.1878	1.04044	-0.320352
0.8420	181.321	-4.53111	7.49033	-10.0505	-228.335	87.9973	9.12916	-12.5542	15.3932	0
0.8427	309.095	-5.43041	9.62596	-14.0167	-171.267	105.092	13.7104	-12.5542	14.166	0
0.8433	251.998	-1.76402	6.58399	-11.5759	-1.62694	132.556	19.2035	-5.23357	7.46983	-0.320352
0.8440	-84.5652	2.80168	2.91696	-8.52505	148.239	174.073	44.5338	14.304	10.191	-0.320352
0.8447	-246.597	0.0691772	6.58399	-11.5759	162.882	178.957	81.1506	14.6091	18.7546	0
0.8453	-239.344	-0.864716	8.40709	-14.9319	114.95	145.368	96.1064	7.8905	22.116	0
0.8460	-156.322	7.98997	-5.32345	-14.3217	39.86	123.709	83.2855	22.2347	19.9818	0
0.8467	258.171	19.8885	-20.5854	-11.5759	-32.1634	121.266	61.6246	55.4984	15.6866	0
0.8473	534.088	21.7217	-17.2205	-6.69452	-77.2797	116.983	36.5945	80.8314	8.99047	0
0.8480	221.598	4.94617	4.75047	-0.897833	-123.397	119.745	22.5616	64.6571	2.58776	0
0.8487	-138.267	-11.5526	22.7523	2.76323	-172.831	127.072	25.3081	25.895	-0.480203	0
0.8493	-282.553	-13.6625	21.2313	4.59377	-195.733	110.897	20.4266	5.75533	-5.97586	0
0.8500	-535.631	-5.43041	12.9909	8.87373	-203.931	76.7073	3.33587	10.9407	-11.765	0
0.8507	-470.664	4.01228	9.02173	12.2297	-201.177	47.4016	-10.7081	30.1733	-11.1514	0
0.8513	49.9984	7.36738	7.80286	12.5348	-172.518	23.3005	-17.4244	48.7878	-10.2443	0
0.8520	569.735	2.17908	6.27146	14.0602	-134.348	4.40387	-26.876	46.9577	-14.2194	0
0.8527	767.568	-10.6187	8.10498	14.6704	-94.1122	8.04706	-40.6086	21.9296	-18.4878	0
0.8533	229.777	-25.8723	19.0957	12.8399	-60.1968	32.1482	-44.2781	-4.62353	-19.1014	0
0.8540	-406.468	-25.561	21.2313	12.5348	-49.5591	11.0897	-35.1156	-15.9094	-23.3699	0
0.8547	-133.638	-8.47421	4.75047	15.2806	-37.9202	-57.8508	-26.2755	-15.2994	-34.0411	0
0.8553	619.116	8.61257	-16.0016	17.7213	-16.5823	-100.288	-21.6943	-4.3185	-44.1253	0
0.8560	1077.9	23.2436	-35.5348	17.4162	-9.57392	-110.337	-20.7825	22.2347	-49.0074	0
0.8567	1258.6	29.0544	-38.5872	18.0264	-11.3886	-110.057	-21.3829	47.5677	-55.4101	0
0.8573	933.766	12.279	-8.37584	19.2467	-5.56914	-109.736	-20.1709	44.8225	-65.1743	0
0.8580	55.5538	-14.9077	28.857	17.4162	3.25388	-110.057	-21.0827	10.9407	-74.3248	0
0.8587	-160.489	-28.0168	38.0142	14.3653	13.3284	-96.0043	-26.5758	-29.3385	-83.7955	0
0.8593	260.022	-18.5741	18.481	6.73811	24.3415	-75.8666	-34.8153	-35.439	-72.8041	-0.320352
0.8600	-83.3307	10.1345	-13.866	-4.86399	29.7855	-56.0492	-36.3387	-5.23357	-2.61444	-0.320352
0.8607	-915.866	35.142	-36.4516	-7.3047	27.3451	-39.2344	-29.9339	21.0146	51.4084	0
0.8613	-1289.31	27.5325	-26.0755	-0.592744	34.9792	-39.5547	-26.876	14.9141	23.9301	0
0.8620	-991.172	-10.3074	15.1265	-2.72837	51.4989	-49.003	-28.7107	-23.8481	27.2916	0
0.8627	-257.553	-44.7923	49.307	-10.0505	85.3518	-56.6497	-30.5454	-58.9419	80.7008	0
0.8633	345.205	-44.5156	49.6091	-4.5589	164.071	-57.8508	-26.5758	-43.6827	84.9693	0
0.8640	1029.6	-13.6625	24.2837	10.7043	215.069	-48.7228	-20.4711	9.72064	36.1486	0
0.8647	1904.88	19.8885	-11.4282	17.1111	200.114	-34.3502	-16.5014	54.8883	-11.1514	0
0.8653	1841.14	31.4756	-35.2327	13.145	173.832	-26.4232	-11.9313	71.6727	-34.6547	-1.92211
0.8660	558.47	26.2874	-33.0971	7.34828	134.473	-39.875	-7.0498	54.8883	-38.3095	-1.60176
0.8667	-1056.6	24.7655	-20.8875	2.15306	86.2904	-59.0919	0.889565	21.0146	-32.8139	0
0.8673	-1997.93	21.0991	-7.76119	-2.11819	29.7855	-69.461	9.44051	-1.87028	-38.6297	0
0.8680	-1488.38	16.5334	-0.13543	-10.9658	-50.4351	-79.5498	13.7104	2.40006	-34.9748	0
0.8687	-368.97	18.0553	-6.84443	-28.3645	-17.208	-63.3756	16.1456	28.9532	43.4584	0
0.8693	309.404	14.7002	-17.533	-42.7037	174.145	-21.2587	21.6387	40.5441	142.647	0
0.8700	676.521	8.92387	-23.0231	-33.5511	301.109	1.32116	37.8176	17.6593	134.11	0
0.8707	566.031	8.61257	-22.721	-3.94872	281.586	9.5684	57.3436	-21.1029	55.6769	0
0.8713	58.6401	0.0691772	-11.4282	19.8569	217.822	33.069	60.7017	-56.1967	2.88122	0
0.8720	-118.978	-21.3066	11.1574	23.8231	150.054	57.1702	46.0572	-87.6303	-9.63074	0
0.8727	-66.5102	-36.8715	22.7523	13.7551	72.2111	60.5331	24.3852	-111.43	16.6204	0
0.8733	-408.012	-30.7493	14.814	7.34828	-15.3308	55.0483	3.02452	-105.33	52.3155	0
0.8740	-772.352	-15.1844	3.83372	12.8399	-99.3059	58.7316	-16.8128	-82.1318	55.6769	0
0.8747	-614.641	-4.84241	-6.54232	16.806	-168.826	67.259	-27.1873	-69.0157	36.1486	0
0.8753	-302.459	1.27978	-12.9492	13.7551	-220.763	62.695	-21.3829	-53.4515	11.7383	0.320352
0.8760	-267.893	-2.38662	-5.62556	10.0941	-254.616	33.069	-9.48499	-28.1184	-19.1014	0
0.8767	-410.172	-6.05301	2.61484	11.3144	-282.399	-3.84337	-0.945163	-4.01348	-67.6286	-0.320352
0.8773	-251.535	-0.553418	1.69809	13.7551	-241.788	-37.1126	5.15948	11.2458	-138.405	-0.320352
0.8780	0.925896	2.80168	2.61484	10.3992	-72.7117	-86.2357	7.60578	17.0492	-171.993	0
0.8787	29.32	3.42427	1.39597	1.84797	163.195	-135.999	3.94744	13.999	-147.262	0
0.8793	21.2956	5.25747	-8.37584	-9.44032	410.364	-153.094	-4.29215	5.4503	-128.348	0
0.8800	-170.982	3.11298	-12.6471	-18.8981	532.135	-151.253	-10.0966	-6.14865	-98.4417	-0.320352
0.8807	-329.002	-3.90851	-2.8857	-25.6187	439.336	-169.869	-5.82665	-17.7396	-10.2443	0
0.8813	-296.287	-10.6187	8.40709	-31.7205	255.93	-197.654	3.6361	-27.2033	66.9617	0
0.8820	-262.8	-8.1975	4.43794	-33.246	55.1282	-187.565	8.82893	-19.8747	94.7334	0
0.8827	72.9915	-1.76402	-6.54232	-29.5849	-128.591	-144.527	13.3991	8.50054	146.916	-0.320352
0.8833	565.105	-6.95231	-1.05219	-22.8642	-214.005	-78.9093	24.9968	16.1342	185.065	-0.320352
0.8840	531.31	-7.88621	2.91696	-10.9658	-232.027	15.3735	43.3107	3.31513	122.212	0
0.8847	287.799	7.67867	-12.345	0.322522	-265.567	105.092	58.8781	7.28045	47.4334	0
0.8853	289.343	15.9108	-19.9707	4.59377	-270.76	146.609	62.2362	20.7095	25.4508	0
0.8860	-29.32	10.1345	-12.345	3.98359	-220.45	130.715	51.8505	27.7251	18.4345	0
0.8867	-576.216	0.968481	-0.750075	3.98359	-182.28	95.0434	39.9526	18.5744	16.9138	-0.320352
