MR32 ASCII
Name	TBAS30_slow
Frequency	1500
Date	31-08-2015 11:10:53
"Time,s"	"RT TIB.ANT.,uV"	"RT MED. GASTRO,uV"	"RT LAT. GASTRO,uV"	"RT BICEPS FEM.,uV"	"RT VMO,uV"	"RT VLO,uV"	"RT RECTUS FEM.,uV"	"RT SOLEUS,uV"	"RT SEMITEND.,uV"	"Channel 12,uV"
0.0000	46.8552	-749.89	211.033	0.245757	6.10965	2.91844	0.393239	-404.86	-4.16399	-8662.56
0.0007	47.7416	-782.267	-46.2188	1.16176	3.97692	3.53647	1.91704	-232.412	-2.62989	-10464.4
0.0013	41.0299	-848.79	-205.541	0.558538	-0.301092	1.37338	1.3108	80.7018	-2.33768	-9546.71
0.0020	55.9729	-920.178	-138.982	2.07776	-4.8802	0.171673	1.91704	137.154	0.0730525	-9824.23
0.0027	22.4145	-16.8077	-47.7547	1.78732	-10.3751	-1.95707	1.91704	25.45	1.60715	-9865.17
0.0033	-28.2397	928.848	-21.5036	-0.960685	-14.6406	-5.01286	0.0819248	-61.8244	0.730525	-9787.17
0.0040	-25.2005	721.051	-19.0833	-1.27347	-13.11	-4.12015	0.688169	-228.75	0.365262	-9816.18
0.0047	-36.7876	537.051	-51.4318	-1.58625	-10.6762	-1.95707	1.91704	-388.053	-0.511367	-9815.53
0.0053	-45.9054	824.551	-74.8902	-3.41825	-9.4593	-1.6824	-0.524319	-301.379	-1.46105	-9813.6
0.0060	0.443225	868.782	-9.91399	-2.79269	-5.79602	0.171673	-2.04812	-9.33368	0.365262	-9786.52
0.0067	30.3925	646.566	92.6237	-0.960685	-2.43383	1.99141	0.393239	122.178	1.60715	-9892.57
0.0073	14.1832	458.585	150.013	-1.27347	-1.518	1.99141	1.60573	66.9564	1.02273	-9755.9
0.0080	-19.3752	350.574	139.913	-4.33425	-2.43383	-0.137338	-0.524319	99.9094	-1.75326	-9622.46
0.0087	-8.10468	279.804	59.996	-5.54069	-2.13273	-0.755362	-2.67075	139.285	-3.28736	-10561.7
0.0093	50.7809	233.716	-53.247	-2.79269	0.915821	1.99141	-1.13056	22.3888	-0.803577	-7705.9
0.0100	63.3178	109.781	-76.4262	-0.960685	3.66328	4.12015	0.688169	-108.523	1.02273	-1149.42
0.0107	27.29	-141.096	-11.1242	-1.58625	4.89274	4.12015	0.0819248	-113.715	0.365262	108.947
0.0113	-8.10468	-350.751	-11.7292	-1.58625	5.80856	4.12015	0.0819248	-61.5243	0.365262	-268.499
0.0120	-27.6066	-417.893	-78.8931	-2.18947	5.49493	2.60943	-1.13056	-11.1644	-1.75326	9.34751
0.0127	-28.2397	-437.355	-132.605	-3.41825	6.72438	3.22745	-2.67075	42.8569	-3.28736	50.6055
0.0133	-21.528	-477.958	-121.9	-1.58625	10.3877	6.28324	-0.524319	36.4344	-1.09579	-28.3649
0.0140	-2.27944	-507.859	-75.8211	0.245757	12.2193	6.86692	0.999483	-26.1103	0.730525	0.644656
0.0147	9.94089	-475.57	-124.972	-0.960685	11.6046	4.73818	-0.835633	-65.1857	-1.09579	-0.644656
0.0153	-5.06542	-646.39	-233.002	-2.18947	11.3035	4.73818	-1.13056	-38.9554	-2.33768	-0.644656
0.0160	15.3862	-1055.97	-180.174	-3.10547	11.6046	2.91844	-2.04812	34.0034	-4.16399	-1.93397
0.0167	67.8767	-1303.48	-56.924	-2.50225	15.569	0.789696	-4.19455	46.5184	-6.64778	-2.90095
0.0173	57.4926	-1291.54	-0.465446	0.558538	19.847	5.66521	-1.44188	56.8724	-4.4562	-0.966984
0.0180	-12.9801	-735.205	191.205	0.245757	17.7017	7.79396	0.688169	151.5	-2.33768	0
0.0187	-60.9117	-20.1693	470.426	-2.50225	13.7373	2.60943	-2.04812	167.346	-5.40588	-0.322328
0.0193	-68.5098	171.439	571.148	-0.670245	14.352	1.6824	-1.75319	275.989	-5.40588	-0.322328
0.0200	-70.9792	217.262	407.591	2.70332	16.1837	2.91844	0.393239	579.949	-3.28736	-0.322328
0.0207	-40.7133	146.139	164.023	1.78732	13.7373	-1.37338	-1.13056	534.781	-3.87178	-0.322328
0.0213	35.8379	11.2346	128.649	1.78732	6.41075	-7.45061	-2.04812	229.32	-3.28736	-0.322328
0.0220	81.0468	58.2078	185.992	4.82576	0.313637	-8.99567	-0.524319	100.51	-1.75326	-0.322328
0.0227	88.3283	19.4616	-34.0241	5.74177	-3.96438	-10.8154	-0.524319	62.0645	-1.75326	-0.322328
0.0233	90.1645	292.897	-433.19	4.82576	-9.14566	-13.5622	-1.75319	-43.8173	-1.75326	-0.322328
0.0240	74.0185	800.136	-483.831	6.05455	-11.2909	-12.6695	-0.524319	-155.221	0.730525	0
0.0247	39.1937	519.624	-109.1	6.65777	-11.592	-11.4334	0.688169	10.204	1.31494	0
0.0253	-34.6348	82.9771	157.646	5.45133	-10.0615	-10.8154	-1.13056	234.182	-0.511367	0
0.0260	-90.4811	581.636	48.0805	4.82576	-4.26547	-7.45061	-1.75319	201.53	-1.46105	-0.322328
0.0267	-59.6454	1046.41	-119.48	4.53533	-0.301092	-5.01286	-2.67075	269.296	-2.99515	-0.322328
0.0273	-12.6636	748.828	-88.9467	2.99376	-0.301092	-6.86692	-3.88324	412.723	-5.11367	-0.322328
0.0280	-4.43225	545.012	-1.07053	3.30654	0.0125455	-7.75962	-2.96568	-1.41056	-4.4562	0
0.0287	-5.31869	471.766	22.4345	4.82576	2.44637	-5.93989	-0.22939	-596.815	-1.46105	-0.322328
0.0293	16.336	195.235	45.3344	3.90976	3.36219	-5.32187	0.688169	-629.768	-0.511367	0
0.0300	49.5778	54.227	63.6264	2.99376	4.27801	-5.32187	0.0819248	-427.429	-0.219157	-0.322328
0.0307	90.1645	123.846	10.8449	2.70332	7.02547	-4.12015	0.393239	-327.039	-0.803577	-0.322328
0.0313	127.079	191.873	-74.2851	0.245757	9.47185	-3.19312	-0.22939	-233.942	-3.28736	0
0.0320	123.47	169.935	-32.2088	-2.18947	11.3035	-1.6824	-1.75319	-115.245	-5.11367	0.322328
0.0327	63.0012	168.962	99.0469	-0.960685	14.352	1.37338	-0.835633	-21.2484	-5.11367	0
0.0333	-54.2	170.82	94.4389	1.47454	18.9311	5.04719	1.91704	-32.2327	-3.87178	0
0.0340	-151.519	34.4116	-12.055	0.245757	21.9797	6.28324	1.91704	-50.8401	-4.16399	0
0.0347	-128.915	-165.512	-33.6983	-0.670245	21.6786	5.97422	-0.524319	-34.0634	-6.64778	-0.322328
0.0353	-59.3288	-321.116	11.1707	0.558538	19.5333	5.66521	-0.835633	-109.123	-6.35557	-0.322328
0.0360	-46.5386	-254.858	-18.4317	0.245757	14.0384	2.60943	-0.524319	-106.692	-4.4562	0
0.0367	-46.5386	53.077	-88.0158	-0.357464	6.41075	-1.37338	-1.13056	-13.2952	-2.99515	0
0.0373	-9.94089	177.543	-95.044	2.99376	2.44637	-1.37338	0.999483	-115.846	0.730525	-0.322328
0.0380	20.5783	67.054	-82.2443	3.61932	0.313637	-2.26609	1.91704	-203.12	3.14126	0
0.0387	20.2617	12.7385	-102.072	0.245757	-1.8191	-5.63088	-1.13056	-45.3479	0.730525	0
0.0393	47.425	-85.8078	-128.323	-0.044683	0.614729	-3.50213	-0.524319	110.594	0.0730525	0
0.0400	88.0117	-208.504	-113.383	0.558538	5.19383	-0.755362	1.3108	34.3035	0.730525	0
0.0407	100.232	-239.908	-129.534	-0.960685	6.10965	-2.5751	-0.835633	-112.184	-2.33768	0
0.0413	95.9898	-350.751	-213.779	0.245757	7.6402	-2.26609	-0.524319	-68.8472	-2.33768	0
0.0420	36.7876	-541.12	-175.939	2.07776	9.77294	-0.137338	1.91704	20.8882	-0.219157	-0.322328
0.0427	-25.7703	-635.155	-15.4063	0.558538	8.24239	-1.37338	1.3108	34.9038	-1.46105	0
0.0433	-18.7421	-388.258	20.6192	-0.044683	7.6402	-1.6824	0.999483	145.077	-1.46105	0.322328
0.0440	-10.8273	177.896	-15.6855	0.558538	8.24239	-0.44635	2.21197	324.518	-0.511367	0
0.0447	-14.4998	656.386	46.5446	-1.58625	7.02547	-2.26609	0.393239	399.908	-2.99515	0.322328
0.0453	-1.0764	782.709	106.354	-2.18947	7.02547	-2.26609	0.688169	295.227	-2.99515	-0.322328
0.0460	0.443225	500.428	86.2006	-0.044683	9.77294	-2.26609	2.8346	138.355	-1.09579	-2.2563
0.0467	-17.539	56.3501	68.2344	-0.044683	11.3035	-4.12015	1.3108	46.1882	-2.04547	-1.61164
0.0473	-25.7703	-263.439	72.4699	-0.044683	10.3877	-1.6824	1.3108	-47.4787	-2.04547	0.322328
0.0480	-22.4145	-408.693	78.288	0.558538	8.24239	0.171673	2.52328	-87.1544	-2.33768	0.322328
0.0487	-32.7986	-305.547	73.1215	-0.670245	5.49493	-2.88411	1.60573	-125.299	-4.16399	-0.322328
0.0493	-50.8442	-46.7962	49.8958	0.245757	2.74746	-3.50213	2.21197	-210.443	-1.46105	0.322328
0.0500	-47.4883	288.65	32.5347	2.70332	-0.301092	-3.19312	4.04709	-262.033	3.43347	0
0.0507	-39.8269	564.828	32.2088	-0.357464	-3.04855	-10.5064	-0.524319	-320.617	1.31494	-2.2563
0.0513	-34.0017	591.366	-23.0396	-2.50225	-2.43383	-13.2532	-3.88324	-289.194	-0.219157	-1.28931
0.0520	0.126636	432.401	-125.857	-0.357464	-1.21691	-6.55791	-0.524319	-163.444	2.55684	0.644656
0.0527	44.0692	209.566	-98.721	-0.960685	-1.518	-5.93989	-1.44188	-218.066	-0.511367	-1.28931
0.0533	63.3178	117.123	42.5883	-0.960685	1.83164	-6.86692	-2.67075	-420.406	-2.99515	-2.57862
0.0540	55.7197	115.885	137.167	1.16176	6.41075	-3.19312	0.688169	-316.955	0.0730525	-1.61164
0.0547	30.6458	46.6193	122.552	1.47454	7.9413	-1.37338	1.60573	86.4941	1.60715	-0.966984
0.0553	11.7771	-79.0847	120.411	-0.670245	7.6402	-1.6824	-0.524319	336.133	0.0730525	0.322328
0.0560	8.35795	-152.066	228.72	-1.87669	9.47185	-1.6824	-0.835633	301.319	-0.511367	0
0.0567	22.7311	-201.162	240.03	-1.58625	11.3035	-1.37338	-0.524319	170.107	-0.219157	0
0.0573	39.8269	-275.027	59.6702	-3.10547	7.6402	-1.6824	-2.04812	232.052	-0.511367	0
0.0580	11.4605	-201.781	-161.277	-3.70869	5.49493	-1.37338	-1.44188	328.48	1.31494	-0.322328
0.0587	-58.4423	-65.6386	-261.674	-2.50225	5.19383	0.789696	1.60573	148.739	4.09094	-0.322328
0.0593	-78.0075	-2.47693	-132	-3.10547	1.22946	0.480685	2.52328	-75.8699	3.14126	0
0.0600	-11.1439	64.9309	59.996	-2.50225	-2.73492	1.37338	3.12953	-131.422	1.60715	0
0.0607	26.7201	53.9616	58.1342	-2.18947	-6.71184	-1.95707	1.91704	-66.1161	1.60715	0
0.0613	14.8164	5.39616	-47.7547	-4.33425	-14.0259	-20.6008	-1.75319	16.2964	2.55684	0.322328
0.0620	45.9054	64.9309	-62.6955	-4.33425	-18.0028	-39.5191	-1.44188	33.7033	5.55199	0
0.0627	74.3351	127.208	-20.5727	-4.02147	-15.5564	-49.2702	-0.524319	-37.1246	6.79388	0
0.0633	38.3073	92.4425	-12.9394	-5.25025	-12.2068	-53.253	-0.524319	-167.406	5.55199	0
0.0640	-13.6133	-6.19232	2.6065	-7.08226	-11.592	-45.9054	4.65333	-212.274	6.50167	0
0.0647	-40.4601	-87.3117	77.0778	-8.89192	-9.4593	-32.4806	11.9774	-116.146	7.74356	-0.322328
0.0653	-67.8767	-95.8925	154.295	-9.2047	-3.34965	-16.927	15.6476	28.2111	7.08609	0
0.0660	-88.6449	-81.2078	143.59	-7.68548	4.5791	9.92271	18.4003	213.444	7.3783	0
0.0667	-52.3638	-78.2001	60.8803	-4.62469	11.3035	40.1372	16.8601	344.356	7.08609	0
0.0673	-7.78809	-16.5423	-10.8449	-2.50225	16.4848	61.4933	11.6825	155.161	3.72568	0
0.0680	-9.94089	65.8155	-77.3571	-2.79269	20.1481	70.0426	8.92981	-117.376	-1.09579	0
0.0687	-27.0367	62.1886	-114.267	-1.58625	19.847	62.4203	6.48845	-161.914	-3.87178	0
0.0693	-44.1325	-6.19232	-62.4163	1.47454	21.365	51.7423	0.0819248	-155.221	-4.82146	0
0.0700	-50.8442	-74.8386	-8.37802	3.61932	25.0283	45.6307	-6.93084	-102.731	-5.69809	0
0.0707	-27.29	-92.5309	-6.23697	4.82576	26.5588	42.2659	-9.99483	24.8498	-6.35557	0
0.0713	-5.63528	-81.8271	-0.139634	4.53533	27.161	37.6994	-8.76596	76.7103	-4.4562	0.322328
0.0720	-27.29	-77.3155	-12.6601	0.871319	25.9441	14.5235	-8.47103	52.6108	-4.16399	0
0.0727	-55.7197	-58.0309	-44.6828	-1.58625	22.5944	-16.618	-9.99483	44.9878	-4.4562	0
0.0733	-48.3748	-41.2231	-41.3316	0.245757	21.6786	-28.8411	-6.93084	15.3661	-1.09579	0
0.0740	-32.482	-40.3385	-24.8548	1.16176	19.2322	-24.2402	1.60573	-35.594	-0.219157	0
0.0747	-26.0869	-49.8039	-16.0113	-0.044683	14.6531	-14.7982	7.71732	-34.6637	-2.99515	0
0.0753	0.759813	-66.6116	4.42173	1.47454	12.2193	-7.45061	11.3712	-5.37212	-2.33768	0
0.0760	30.3925	-75.7232	16.663	2.39054	10.9899	-4.42917	11.0762	30.342	-1.75326	0
0.0767	29.7594	-71.2117	12.055	0.245757	9.77294	-4.42917	8.01225	60.2338	-5.11367	0
0.0773	25.7703	-74.4847	25.1806	-0.357464	10.3877	-3.50213	7.406	44.9878	-5.9903	0
0.0780	32.7986	-90.4078	40.1214	-0.357464	10.074	-3.19312	-4.19455	2.55101	-4.4562	0
0.0787	42.5496	-86.1617	-1.07053	-0.960685	10.3877	-2.88411	-22.2016	31.8726	-4.16399	-0.322328
0.0793	52.0472	-32.9962	-38.5855	0.245757	12.5204	-0.44635	-27.6906	120.347	-1.09579	0
0.0800	53.8834	34.1462	-22.1087	-0.044683	11.3035	-2.5751	-26.773	138.985	0.365262	-0.644656
0.0807	55.9729	36.2693	-26.9959	-2.79269	8.24239	-7.75962	-29.2144	99.9094	-1.75326	-2.57862
0.0813	58.7589	-56.7924	-6.84205	-2.79269	8.85712	-3.81114	-29.8206	32.7729	-0.219157	-0.966984
0.0820	44.0692	-159.673	77.3571	-2.18947	7.9413	-0.755362	-27.6906	-40.7861	1.02273	-0.322328
0.0827	3.22921	-184.973	110.311	-0.960685	7.9413	-5.93989	-23.7254	134.393	-1.75326	-2.2563
0.0833	-34.9514	-138	50.5009	2.39054	9.77294	-5.32187	-20.9728	411.492	-0.511367	-0.966984
0.0840	-29.1262	-76.3424	6.8886	3.30654	8.55602	-1.37338	-22.2016	336.133	2.84905	0.966984
0.0847	-5.06542	-55.0232	47.1497	-0.357464	5.80856	-3.50213	-20.3665	124.939	1.31494	0
0.0853	-11.4605	-35.4731	63.0214	-2.18947	5.19383	-5.01286	-13.96	0.120047	-0.219157	0
0.0860	-36.7876	-0.0884617	-1.34979	-0.670245	5.80856	-1.95707	-6.63591	-197.628	0.730525	0
0.0867	-55.7197	4.24616	-50.7801	-0.357464	5.19383	-1.37338	4.3584	-356.03	-0.219157	0
0.0873	-46.5386	-12.5616	-46.2188	-0.357464	4.5791	-3.50213	18.089	-290.395	-2.04547	0.322328
0.0880	-12.0304	-12.9154	-12.9394	1.16176	4.89274	-2.88411	29.0669	-154.591	-0.511367	0
0.0887	1.64626	-3.71539	29.4627	-0.044683	3.66328	-4.42917	28.4607	-156.752	-0.511367	0
0.0893	-2.27944	-9.81925	33.419	-1.27347	2.14528	-7.17594	13.8125	-215.035	-2.62989	0
0.0900	-8.99113	-21.7616	0.791258	0.558538	3.0611	-6.55791	0.393239	-223.558	-1.09579	-0.322328
0.0907	-21.2115	-17.1616	-11.1242	1.16176	3.36219	-6.55791	-5.11211	-228.75	-1.46105	-0.322328
0.0913	-21.528	-3.09616	-3.81666	-0.044683	2.14528	-7.45061	-6.02967	-185.743	-3.57957	0
0.0920	-13.8666	-3.45001	4.74755	0.871319	3.0611	-5.63088	-5.71835	-39.2555	-1.46105	0.322328
0.0927	-10.5108	-15.3039	26.3908	0.245757	2.44637	-5.93989	-8.76596	63.8952	-0.511367	0.322328
0.0933	-7.4715	-21.7616	44.1243	-2.18947	0.313637	-9.30468	-12.1249	21.4885	-2.99515	0
0.0940	-13.2967	-19.9039	33.1397	-1.58625	0.614729	-9.92271	-11.8136	-44.4475	-1.46105	0
0.0947	-29.1262	-16.5423	16.3371	-1.27347	0.614729	-9.30468	-7.55347	-45.3479	0.0730525	-0.322328
0.0953	-31.5956	-15.0385	14.8012	-2.50225	-0.602184	-9.61369	-1.13056	-21.2484	-1.46105	-0.322328
0.0960	-13.8666	-11.9423	20.6192	-0.670245	0.0125455	-7.75962	2.8346	5.61221	-0.511367	0
0.0967	1.96285	-3.45001	16.0113	0.558538	1.83164	-4.42917	4.04709	24.8498	2.19157	0
0.0973	-1.96285	5.39616	-5.63189	-1.27347	1.53055	-1.95707	9.24112	22.0887	2.19157	0.322328
0.0980	-20.5783	9.37694	-23.6446	-1.58625	1.22946	0.789696	16.8601	15.0659	2.19157	0.322328
0.0987	-16.6526	6.98847	-16.0113	-0.357464	0.915821	2.30042	17.7777	16.8967	3.14126	0.322328
0.0993	12.6636	-3.09616	5.35263	-0.670245	0.0125455	1.37338	14.7301	16.2964	2.84905	0.322328
0.1000	9.94089	-9.55386	8.42457	-0.357464	0.313637	2.91844	10.7649	4.08161	2.84905	0.322328
0.1007	-7.4715	-10.1731	0.791258	0.558538	0.614729	5.04719	-2.67075	-8.43333	4.09094	0
0.1013	4.11566	-13.5346	2.00142	-1.87669	-0.903275	2.30042	-22.2016	-11.7947	2.55684	0
0.1020	14.4998	-14.0654	4.14247	-3.10547	-1.8191	-1.95707	-33.1796	-5.97236	1.89936	0
0.1027	10.5108	-10.1731	2.6065	-0.357464	-0.903275	-3.50213	-36.8498	-0.180071	2.55684	0
0.1033	6.83832	-8.93463	2.00142	0.245757	-1.518	-5.63088	-45.6977	-0.180071	0.730525	-0.322328
0.1040	5.95187	-9.20002	2.6065	0.871319	-1.8191	-6.55791	-53.0218	-0.480189	-1.09579	0
0.1047	7.15491	-7.43078	5.35263	2.39054	-2.13273	-5.93989	-55.1518	2.25089	-0.511367	0.322328
0.1053	4.43225	-11.0577	7.49368	-0.670245	-4.56656	-9.92271	-59.117	4.08161	-3.87178	-0.644656
0.1060	3.79907	-21.4077	11.1707	-0.960685	-4.8802	-15.1072	-54.8569	4.38173	-7.23219	-1.93397
0.1067	14.4998	-21.1423	18.1524	4.53533	-2.43383	-14.1802	-40.2087	5.91233	-5.11367	-0.966984
0.1073	27.6066	-15.0385	23.0396	5.13855	-4.8802	-14.4892	-27.0844	6.54258	-5.9903	0.644656
0.1080	38.3073	-14.6846	22.7603	3.61932	-7.01293	-18.7467	-18.5314	9.27366	-9.05851	0
0.1087	51.414	-10.4385	17.5473	5.74177	-5.79602	-18.4377	-6.3246	15.0659	-7.81661	-0.322328
0.1093	55.7197	-4.95385	15.127	5.45133	-6.09711	-18.163	16.8601	17.1968	-8.47409	0
0.1100	43.4993	-3.45001	18.7575	4.53533	-6.09711	-17.236	41.8964	18.7274	-9.05851	0.322328
0.1107	15.7028	-1.8577	11.7758	5.13855	-5.48238	-12.9442	54.7094	20.5581	-7.5244	0
0.1113	-11.4605	2.03462	-4.701	5.13855	-6.09711	-11.4334	60.5097	21.1884	-7.5244	0
0.1120	-14.4998	3.89231	-9.30892	3.30654	-6.3982	-10.8154	67.5224	21.1884	-6.93998	-0.322328
0.1127	-10.5108	-5.21924	-6.23697	1.16176	-5.48238	-10.5064	76.3703	19.6578	-5.11367	-1.93397
0.1133	-16.6526	-13.1808	-1.95487	0.558538	-3.96438	-9.30468	71.4876	16.2964	-1.09579	-1.93397
0.1140	-12.9801	-4.60001	6.8886	1.78732	-3.96438	-5.32187	38.8324	11.7046	2.19157	0.322328
0.1147	0.443225	6.36924	5.67844	1.16176	-6.09711	-5.01286	4.3584	12.9351	1.60715	0.644656
0.1153	2.27944	4.51155	-5.35263	-1.58625	-7.01293	-8.68666	-20.9728	20.5581	-0.511367	-0.966984
0.1160	-2.91262	-1.8577	-5.95771	-0.357464	-5.48238	-10.5064	-42.6501	23.9194	0.365262	-2.2563
0.1167	-15.133	-3.45001	-2.6065	2.07776	-3.34965	-6.55791	-31.0495	23.0191	3.14126	-2.2563
0.1173	-27.9231	-1.59231	-3.81666	0.245757	-4.26547	-0.44635	1.3108	20.5581	4.38315	-0.966984
0.1180	-20.0084	4.24616	-2.88576	-1.27347	-6.3982	1.99141	1.60573	19.9579	3.43347	0.322328
0.1187	-7.15491	9.37694	0.791258	0.871319	-7.31402	1.99141	-20.0552	22.3888	2.84905	0.322328
0.1193	-4.11566	8.49232	2.00142	1.16176	-7.31402	-0.137338	-30.4433	16.2964	2.84905	-0.322328
0.1200	-3.22921	6.98847	-0.465446	-0.044683	-7.92875	-2.88411	-31.6558	4.38173	1.02273	-0.322328
0.1207	-1.0764	7.25386	-0.744713	0.558538	-7.92875	-4.42917	-31.9671	1.35053	0.730525	0
0.1213	-0.443225	7.60771	0.139634	0.558538	-7.92875	-5.63088	-22.8079	3.78149	1.31494	0
0.1220	-0.759813	7.25386	-0.465446	0.558538	-7.92875	-6.2489	-4.8008	5.01198	1.31494	0
0.1227	0.126636	7.60771	-0.465446	1.78732	-8.22984	-5.63088	14.7301	7.44294	1.02273	0
0.1233	-0.126636	7.25386	0.139634	1.78732	-7.92875	-3.50213	29.3782	9.8739	1.60715	0.322328
0.1240	0.126636	7.87309	0.791258	1.47454	-6.71184	-0.44635	29.6896	10.204	2.55684	0
0.1247	0.126636	7.25386	0.791258	0.558538	-6.09711	2.60943	15.0414	9.8739	3.72568	-0.322328
0.1253	-1.39299	7.25386	0.791258	-1.58625	-6.3982	8.72099	5.27596	11.1044	5.25978	0
0.1260	1.0764	9.73079	3.21158	-0.960685	-4.26547	16.6523	17.4828	16.5965	8.62019	0.322328
0.1267	5.63528	11.5	4.42173	0.245757	-3.34965	16.6523	30.2958	21.1884	10.4465	0
0.1273	7.15491	9.99617	3.21158	-1.27347	-4.26547	7.48495	24.4955	21.1884	7.08609	-0.322328
0.1280	7.15491	7.87309	3.21158	-1.58625	-3.96438	2.30042	6.19352	20.8882	6.50167	0
0.1287	6.83832	9.99617	4.14247	0.558538	-1.8191	5.3562	-15.4838	26.0503	11.3962	0
0.1293	0.443225	9.37694	0.791258	-0.357464	-3.04855	3.53647	-41.4212	28.8114	9.86208	0
0.1300	-2.59603	6.01539	-1.95487	-0.357464	-4.26547	-4.12015	-61.2634	23.3192	5.25978	-0.322328
0.1307	5.63528	8.49232	-1.07053	5.13855	-1.21691	-8.37765	-56.0694	20.258	7.08609	0
0.1313	6.58505	8.13848	-4.09592	4.82576	-2.43383	-13.5622	-44.7801	17.1968	4.38315	0
0.1320	-1.0764	4.51155	-2.88576	2.70332	-4.8802	-14.1802	-43.2563	10.204	0.365262	0
0.1327	-7.15491	7.60771	5.02681	4.22254	-2.73492	-8.68666	-30.4433	8.3733	4.96757	0
0.1333	-21.2115	10.35	5.35263	1.16176	-3.04855	-7.75962	-4.19455	11.1044	5.55199	0
0.1340	-29.7594	4.51155	11.1707	-2.50225	-5.48238	-7.75962	5.8822	10.8043	1.02273	0
0.1347	-7.4715	0.53077	26.7166	0.871319	-4.26547	-0.755362	-12.7311	9.57378	2.55684	0.322328
0.1353	13.2967	3.89231	21.8294	2.39054	-4.56656	-0.137338	-30.7382	7.74306	2.55684	0
0.1360	-7.4715	7.60771	-7.16786	-0.044683	-6.3982	-9.61369	-23.7254	11.7046	-3.87178	-1.93397
0.1367	-35.8379	16.1	-27.6009	3.61932	-3.04855	-11.7424	4.65333	27.881	-3.87178	-2.2563
0.1373	-30.9624	25.5654	-26.67	6.65777	-2.13273	-8.06864	20.8417	36.7345	-1.46105	0
0.1380	-10.2575	20.7	-17.8266	4.22254	-6.71184	-9.30468	5.57089	25.45	-5.9903	0.322328
0.1387	8.35795	9.99617	-6.84205	3.61932	-7.31402	-9.61369	4.65333	13.2352	-6.35557	0
0.1393	21.2115	6.01539	1.6756	5.13855	-5.18129	-6.86692	43.4202	9.57378	-0.803577	0.322328
0.1400	25.2005	4.51155	-1.07053	2.70332	-6.3982	-7.45061	85.5295	4.38173	-1.46105	0.322328
0.1407	24.8839	6.01539	-6.84205	0.871319	-8.54348	-9.30468	109.026	1.05041	-4.16399	0
0.1413	18.7421	10.6154	-10.8449	0.558538	-8.22984	-7.17594	127.639	7.14282	-3.28736	0
0.1420	10.5108	11.2346	-10.8449	-0.960685	-7.62766	0.171673	139.551	11.4045	-1.46105	0
0.1427	12.6636	9.11155	-1.95487	-0.357464	-6.3982	7.17594	134.062	9.57378	0.0730525	0
0.1433	18.7421	8.13848	5.67844	1.47454	-6.09711	5.97422	128.556	11.1044	1.60715	0
0.1440	14.4998	9.73079	4.42173	1.78732	-5.79602	1.37338	127.033	15.0659	3.72568	0.322328
0.1447	14.8164	8.75771	4.74755	0.558538	-6.09711	-3.81114	118.185	8.04317	3.72568	0.322328
0.1453	25.4538	6.01539	8.09876	-0.357464	-7.01293	-9.61369	89.806	1.95077	1.60715	0.322328
0.1460	19.3752	8.13848	5.95771	2.70332	-5.79602	-11.1244	6.79976	13.5353	0.730525	0
0.1467	-1.0764	13.0923	-3.81666	5.74177	-4.8802	-11.7424	-92.3784	27.2808	0.730525	0
0.1473	-10.8273	14.2423	-15.4063	3.61932	-7.01293	-13.8712	-132.669	26.9806	-1.09579	0
0.1480	-11.4605	12.1193	-19.9676	0.558538	-9.4593	-15.4162	-127.786	18.4273	-4.16399	0
0.1487	-9.6243	9.99617	-14.1961	0.245757	-10.0615	-14.4892	-111.926	12.3349	-4.4562	0
0.1493	-7.4715	8.75771	-9.58818	-1.27347	-9.76039	-13.2532	-92.3784	12.635	-3.57957	0
0.1500	-6.83832	9.11155	-7.44713	-1.58625	-8.54348	-11.1244	-63.7048	16.8967	-2.33768	0
0.1507	-4.74883	10.8808	-5.35263	0.558538	-7.01293	-7.45061	-29.2144	17.827	0.0730525	0
0.1513	-4.74883	10.6154	-5.35263	0.245757	-7.31402	-8.06864	1.91704	13.8655	-0.803577	0
0.1520	-7.78809	9.73079	-5.63189	-1.27347	-7.31402	-10.1974	33.6547	11.7046	-2.62989	0
0.1527	-9.94089	10.35	-4.701	-1.58625	-6.71184	-6.86692	48.9091	13.2352	-0.803577	0
0.1533	-10.5108	10.8808	-4.09592	-0.960685	-5.79602	-4.12015	45.5502	15.3661	1.31494	0
0.1540	-11.1439	11.2346	-3.21158	-0.044683	-5.18129	-4.70384	36.391	16.8967	2.55684	0
0.1547	-13.6133	11.5	-2.88576	-1.27347	-5.18129	-6.86692	12.6	16.8967	3.72568	0
0.1553	-16.0194	9.73079	-3.81666	-3.70869	-6.3982	-10.1974	-14.8776	14.1656	2.19157	0
0.1560	-15.7028	8.13848	-3.81666	-4.93747	-6.71184	-11.4334	-18.2365	14.4657	1.31494	0
0.1567	-12.9801	9.73079	-2.88576	-5.54069	-5.48238	-8.37765	-14.2549	19.3576	4.67536	0
0.1573	-10.8273	9.11155	-3.49084	-8.60148	-5.48238	-6.2489	-25.5605	21.4885	7.08609	0
0.1580	-8.99113	9.37694	-2.88576	-9.2047	-3.65074	-3.81114	-38.9798	23.3192	9.27766	-0.322328
0.1587	-9.6243	11.2346	-2.6065	-7.08226	-1.8191	-1.06437	-53.3167	26.3804	11.104	0
0.1593	-11.4605	10.35	-4.42173	-7.99826	-3.65074	-4.12015	-49.0566	26.6805	8.62019	0.322328
0.1600	-7.4715	10.6154	-4.42173	-6.45669	-3.65074	-7.45061	-28.0019	26.0503	7.08609	0
0.1607	-2.59603	11.5	-3.81666	-3.10547	-2.13273	-7.45061	-36.2272	26.3804	6.79388	0
0.1613	-2.27944	9.99617	-5.35263	-4.02147	-2.43383	-6.55791	-46.6152	24.5497	3.72568	0.644656
0.1620	-0.759813	9.11155	-5.35263	-4.02147	-0.903275	0.480685	-30.132	22.719	3.14126	0.322328
0.1627	0.126636	12.1193	-2.28068	-0.044683	2.14528	8.10297	-20.0552	25.1499	6.50167	0
0.1633	-9.94089	10.8808	-3.21158	-0.960685	0.313637	5.04719	-23.4141	25.1499	4.09094	0.322328
0.1640	-17.539	6.98847	-5.95771	-3.70869	-2.13273	0.480685	-18.8427	21.1884	-1.09579	0.322328
0.1647	-14.1832	6.98847	-3.49084	-0.670245	-0.602184	2.91844	-17.9252	22.0887	-0.219157	0
0.1653	-16.336	6.01539	-2.6065	0.871319	-0.903275	3.53647	-55.758	22.719	-1.46105	0
0.1660	-22.4145	5.13078	-4.09592	-0.044683	-3.34965	0.480685	-103.979	20.5581	-5.40588	0.322328
0.1667	-22.0979	-0.973079	-3.49084	0.871319	-2.43383	-4.70384	-97.8838	19.9579	-5.9903	-1.61164
0.1673	-16.9692	-7.07694	-0.139634	3.61932	1.83164	-7.45061	-43.2563	23.3192	-2.99515	-1.93397
0.1680	-15.133	0.53077	0.139634	3.61932	1.83164	-7.75962	10.4536	26.3804	-2.33768	0
0.1687	-19.6918	6.36924	-4.701	-0.670245	-2.43383	-12.0515	35.1785	23.9194	-6.64778	0.644656
0.1693	-18.7421	5.75001	-6.56279	-2.18947	-3.04855	-15.9999	32.4258	22.719	-7.81661	0
0.1700	-10.8273	6.98847	-4.701	-0.044683	-0.602184	-12.9442	30.2958	24.8498	-4.4562	0
0.1707	-7.78809	6.98847	-3.81666	0.245757	0.313637	-6.86692	68.1287	25.45	-3.57957	0
0.1713	-10.2575	4.77693	-5.02681	-0.960685	-0.602184	-6.55791	126.115	25.1499	-7.23219	0
0.1720	-9.6243	5.39616	-5.35263	1.16176	-0.602184	-10.1974	152.052	28.2111	-8.7663	0
0.1727	-1.96285	7.60771	-5.35263	3.90976	0.313637	-9.30468	175.254	33.0731	-7.81661	0
0.1733	15.133	8.13848	-6.56279	3.30654	0.313637	-7.75962	221.639	33.7033	-7.5244	0
0.1740	29.1262	9.37694	-6.84205	4.22254	1.83164	-10.1974	224.392	31.5424	-5.69809	0.322328
0.1747	28.5563	9.11155	-8.09876	4.53533	1.22946	-12.0515	158.475	29.1115	-6.64778	0
0.1753	30.3925	5.39616	-8.70384	2.70332	-0.903275	-11.4334	88.5771	23.3192	-9.35072	0
0.1760	45.3355	4.77693	-6.23697	2.07776	-1.518	-8.06864	41.8964	19.0575	-9.35072	0.322328
0.1767	51.7306	-0.353847	-3.49084	1.16176	0.0125455	-4.12015	1.91704	17.827	-8.47409	-0.966984
0.1773	49.8944	-9.20002	0.465446	1.78732	2.44637	-0.44635	-20.3665	18.1272	-6.35557	-1.28931
0.1780	23.9341	-4.33462	3.81666	2.70332	3.36219	3.22745	-7.8484	17.827	-3.57957	0.322328
0.1787	-61.4816	1.50385	4.42173	1.78732	3.0611	5.3562	27.2482	15.0659	-4.16399	0.322328
0.1793	-129.232	-0.353847	5.95771	2.39054	5.19383	7.17594	67.2275	18.4273	-2.99515	-0.322328
0.1800	-107.577	-0.0884617	7.16786	1.78732	5.80856	11.1588	104.143	27.2808	-0.803577	0
0.1807	-73.7019	0.53077	7.16786	-0.044683	5.80856	16.0343	119.414	31.2423	-0.511367	-0.322328
0.1813	-85.2891	-1.59231	4.74755	-4.02147	3.66328	15.1072	98.6539	29.4116	-2.33768	-0.322328
0.1820	-87.1253	-1.32693	0.791258	-6.45669	2.74746	12.6695	62.0335	28.2111	-3.28736	0
0.1827	-48.0582	5.75001	-0.139634	-1.58625	7.02547	14.7982	35.7848	34.3035	1.31494	0
0.1833	-14.4998	10.35	-4.701	-0.960685	7.6402	12.0515	13.8125	38.8653	1.60715	0
0.1840	-12.347	7.87309	-9.91399	-4.93747	3.66328	5.97422	-14.5662	37.0346	-3.87178	0
0.1847	-36.7876	6.98847	-8.37802	-3.10547	3.66328	5.97422	-45.3864	37.6649	-5.11367	0
0.1853	-51.414	6.63463	-5.63189	-0.670245	4.5791	7.48495	-74.0764	38.8653	-3.57957	0.322328
0.1860	-8.10468	2.65385	-3.81666	-1.87669	3.97692	7.48495	-101.243	34.3035	-5.40588	0
0.1867	67.6234	-2.21154	2.28068	-1.27347	4.5791	9.61369	-116.186	29.4116	-5.40588	-0.322328
0.1873	100.232	-5.21924	8.42457	0.871319	5.49493	12.0515	-108.255	25.1499	-2.33768	0
0.1880	64.8374	-6.4577	8.42457	-0.044683	4.89274	11.1588	-93.9186	17.827	-2.04547	0
0.1887	55.7197	-6.4577	6.8886	-2.50225	4.27801	9.92271	-70.4062	9.57378	-3.57957	-0.322328
0.1893	121.633	-3.45001	3.81666	-1.58625	3.97692	9.61369	-27.0844	9.8739	-4.16399	0
0.1900	186.281	2.38847	-4.42173	-0.357464	3.0611	8.10297	22.3655	14.7658	-5.9903	0
0.1907	209.835	8.13848	-10.8449	1.16176	3.66328	7.48495	65.9986	16.5965	-6.35557	0
0.1913	186.914	12.7385	-14.1961	3.30654	5.19383	8.10297	79.4343	19.6578	-5.40588	0
0.1920	117.011	13.9769	-16.3371	2.99376	5.19383	7.79396	63.8686	22.3888	-5.69809	0
0.1927	-5.06542	12.7385	-15.4063	1.78732	5.19383	6.86692	59.5921	21.7886	-5.11367	0
0.1933	-156.712	12.1193	-14.1961	1.16176	5.19383	5.97422	66.9162	22.0887	-4.16399	0
0.1940	-193.942	8.13848	-12.3343	-0.960685	3.97692	2.30042	48.5978	18.7274	-5.69809	-0.322328
0.1947	-96.6229	1.50385	-6.56279	-2.18947	2.44637	0.480685	9.84737	12.3349	-6.64778	0
0.1953	-62.1148	-0.973079	-0.139634	-0.670245	2.14528	2.60943	-16.6963	10.5041	-5.9903	0.322328
0.1960	-117.328	-10.4385	3.21158	-1.27347	1.83164	1.37338	-28.2968	6.21245	-6.35557	-1.28931
0.1967	-92.3173	-26.8924	8.09876	-2.79269	3.0611	2.60943	-21.8903	-2.94116	-4.82146	-2.57862
0.1973	-1.39299	-23.8847	12.9859	-2.79269	4.27801	9.92271	0.999483	-9.33368	-1.46105	-0.322328
0.1980	43.1827	-12.9154	13.591	-2.50225	3.66328	13.5965	15.3363	-13.6254	-0.803577	0.644656
0.1987	74.9049	-12.2962	12.9859	-1.27347	3.0611	11.7768	11.6825	-16.3565	-2.33768	0
0.1993	111.249	-12.5616	13.2652	0.245757	2.74746	9.61369	-4.48948	-12.3949	-3.87178	0
0.2000	108.78	-10.7039	15.7321	2.07776	3.97692	9.92271	-16.6963	-5.072	-3.28736	0
0.2007	88.3283	-12.2962	17.8731	2.39054	3.36219	9.92271	-7.55347	-2.61103	-3.57957	0
0.2013	77.3743	-13.5346	15.127	-0.357464	0.313637	7.79396	19.3015	-2.01079	-5.9903	0
0.2020	68.8264	-7.96155	10.5191	-0.670245	0.313637	9.30468	49.5154	6.54258	-5.11367	0
0.2027	61.7982	-1.32693	3.21158	-0.670245	0.313637	12.0515	55.9219	15.6962	-5.11367	0
0.2033	32.1654	5.75001	-5.02681	0.871319	0.313637	13.2875	32.7372	23.3192	-5.69809	0
0.2040	-52.6171	14.2423	-10.8449	3.90976	2.74746	12.9785	6.48845	32.4728	-3.87178	0
0.2047	-145.441	15.8346	-14.8012	2.07776	2.14528	9.30468	-18.8427	35.2039	-5.11367	0
0.2053	-232.693	13.7116	-16.9422	-0.357464	0.915821	8.41198	-42.3388	34.6037	-6.93998	-0.322328
0.2060	-341.979	15.2154	-15.4063	2.39054	3.0611	12.3605	-50.8753	36.4344	-4.82146	0
0.2067	-307.788	17.3385	-15.4063	3.90976	3.0611	13.9055	-50.5804	34.6037	-4.16399	0
0.2073	-72.4989	14.8616	-19.0833	0.245757	-1.21691	7.79396	-46.3039	27.881	-8.47409	0
0.2080	97.5094	10.6154	-15.0804	-0.044683	-2.73492	3.53647	-33.7858	20.8882	-8.7663	0
0.2087	110.616	7.87309	-6.56279	3.30654	-0.602184	4.42917	-20.9728	11.4045	-5.11367	0
0.2093	115.808	2.38847	-2.6065	2.39054	-2.13273	2.91844	-18.5314	-4.44175	-5.9903	0
0.2100	82.5664	-3.09616	-0.139634	0.245757	-3.65074	1.06437	-20.9728	-14.5257	-9.05851	0
0.2107	-33.4318	-4.06924	4.14247	2.70332	-1.8191	3.81114	-17.3189	-20.9483	-8.18188	0
0.2113	-97.5094	-6.4577	6.28352	2.99376	-1.21691	4.42917	-13.6487	-34.3636	-7.23219	0
0.2120	-82.883	-9.81925	4.74755	1.47454	-2.13273	2.60943	-14.8776	-40.1558	-8.47409	0.322328
0.2127	-51.414	-9.20002	3.53739	1.78732	-1.8191	3.53647	-17.0076	-36.7945	-8.7663	0
0.2133	-59.3288	-5.83847	2.6065	3.30654	0.0125455	5.04719	-20.6778	-34.6637	-7.5244	0
0.2140	-131.701	-2.83077	0.465446	2.70332	0.313637	5.04719	-24.3317	-30.402	-6.93998	0
0.2147	-134.424	-3.71539	-2.28068	0.558538	-1.21691	3.53647	-19.7603	-27.6409	-8.18188	0
0.2153	-50.5276	-2.83077	-4.09592	0.245757	-2.73492	3.81114	-13.0424	-25.5101	-9.05851	0.322328
0.2160	-7.15491	-0.353847	-5.02681	0.558538	-2.73492	5.3562	-17.9252	-21.8486	-7.81661	0
0.2167	30.9624	1.50385	-5.35263	1.16176	-1.8191	5.66521	-25.8555	-20.9483	-6.35557	0
0.2173	117.011	3.27308	-6.84205	1.47454	-1.21691	4.12015	-29.5257	-19.7178	-6.35557	0.322328
0.2180	165.259	2.65385	-8.37802	0.245757	-2.43383	2.60943	-35.9322	-18.7874	-8.18188	0.322328
0.2187	116.695	1.15	-6.84205	0.558538	-3.04855	3.81114	-44.4688	-18.7874	-8.47409	0
0.2193	29.4428	1.50385	-5.02681	1.78732	-2.43383	5.3562	-45.3864	-16.9567	-7.23219	-0.322328
0.2200	-31.9122	-0.707694	-3.21158	0.558538	-3.34965	3.81114	-41.7325	-19.7178	-7.5244	0
0.2207	-42.5496	-4.06924	-0.139634	-0.960685	-4.56656	2.60943	-34.7034	-22.4489	-7.5244	0.322328
0.2213	26.7201	-5.57309	3.53739	-0.044683	-4.26547	2.60943	-21.8903	-20.318	-6.64778	0
0.2220	114.289	-6.4577	4.14247	1.16176	-3.65074	2.30042	-7.24216	-19.1175	-7.23219	0
0.2227	89.8479	-6.19232	1.39634	1.47454	-4.26547	0.789696	3.75216	-21.5485	-8.7663	0
0.2233	-3.48248	-4.06924	-1.95487	1.47454	-4.8802	0.171673	4.96464	-23.6793	-10.0082	0
0.2240	-30.9624	-0.973079	-2.88576	3.30654	-3.96438	1.06437	-5.40704	-18.4873	-8.7663	0
0.2247	-18.1722	4.51155	-5.02681	2.39054	-4.26547	-0.137338	-22.2016	-8.1032	-7.23219	0.322328
0.2253	-40.7133	6.98847	-10.1933	-1.58625	-5.18129	-2.5751	-39.8974	-1.41056	-7.23219	-0.644656
0.2260	-45.0189	-1.8577	-11.7292	-0.960685	-3.04855	-2.5751	-52.4155	3.18126	-5.69809	-2.90095
0.2267	-6.83832	-4.33462	-8.70384	2.70332	-0.903275	-2.26609	-48.7453	5.01198	-3.28736	-1.61164
0.2273	6.26846	8.13848	-8.70384	2.70332	-3.34965	-4.12015	-32.5733	1.95077	-4.4562	0.644656
0.2280	-14.1832	15.2154	-9.91399	3.61932	-4.56656	-4.70384	-19.7603	1.95077	-5.9903	0.322328
0.2287	-35.268	13.9769	-9.58818	4.82576	-4.56656	-3.50213	-10.6011	4.38173	-6.35557	0
0.2293	-23.3643	11.2346	-10.5191	3.61932	-5.79602	-4.12015	-3.58831	-1.41056	-8.18188	-0.322328
0.2300	9.30772	8.49232	-8.9831	2.99376	-5.79602	-3.19312	3.12953	-11.1644	-6.64778	0
0.2307	26.9734	6.63463	-5.63189	3.61932	-5.18129	-1.95707	20.5304	-20.0179	-3.28736	0
0.2313	25.4538	3.89231	-5.02681	2.99376	-5.79602	-6.2489	37.0136	-27.941	-4.82146	0
0.2320	6.26846	2.03462	-4.09592	2.99376	-6.71184	-10.1974	31.2134	-30.402	-6.35557	0
0.2327	-2.91262	3.0077	-1.07053	5.45133	-5.79602	-8.68666	13.2063	-24.9098	-3.57957	0
0.2333	10.5108	3.0077	-0.139634	6.05455	-5.48238	-10.1974	-2.96568	-17.5869	-2.62989	0
0.2340	22.4145	1.50385	-0.465446	4.53533	-5.48238	-9.92271	-8.76596	-16.3565	-2.62989	0.322328
0.2347	21.2115	-0.707694	1.39634	2.99376	-4.8802	-6.55791	5.57089	-25.8102	0.365262	0.322328
0.2353	13.55	-3.45001	2.6065	1.78732	-5.79602	-5.32187	26.9369	-38.3251	1.60715	0
0.2360	8.67454	-4.33462	3.21158	1.78732	-6.71184	-4.70384	41.2737	-41.6864	0.730525	0
0.2367	7.4715	-2.83077	4.42173	3.61932	-5.79602	-3.81114	55.9219	-34.6637	2.19157	0
0.2373	7.15491	-0.707694	5.95771	6.05455	-3.96438	-5.32187	69.3576	-24.9098	4.09094	0
0.2380	4.11566	-1.8577	3.81666	3.90976	-4.8802	-12.6695	56.5445	-20.318	1.31494	0
0.2387	6.83832	-2.21154	2.93231	3.61932	-4.56656	-17.545	15.959	-18.4873	0.365262	0
0.2393	13.55	0.884617	5.95771	8.48977	-1.8191	-14.7982	-15.7951	-15.4561	4.09094	0.322328
0.2400	8.10468	-1.32693	5.67844	7.88655	-3.04855	-14.1802	-20.0552	-16.3565	1.60715	0.322328
0.2407	4.74883	-4.95385	3.81666	4.22254	-4.56656	-13.2532	-11.5186	-18.4873	-2.62989	0
0.2413	8.10468	-1.8577	6.8886	7.57377	-1.21691	-7.17594	2.52328	-12.9951	1.60715	0
0.2420	4.43225	0.884617	8.42457	9.09299	0.0125455	-3.81114	11.3712	-6.90272	4.38315	0.322328
0.2427	6.58505	-0.973079	4.42173	4.22254	-2.73492	-4.42917	-6.02967	-7.20284	-0.219157	0.322328
0.2433	18.4888	-0.0884617	2.28068	2.70332	-2.43383	-1.95707	-31.0495	-6.27247	-0.511367	0
0.2440	23.3643	3.27308	3.21158	5.74177	0.313637	1.99141	-34.7034	-2.01079	3.72568	0
0.2447	23.9341	3.89231	2.28068	5.13855	-0.602184	0.480685	-28.0019	-2.94116	2.55684	0
0.2453	25.7703	3.62693	-1.07053	2.99376	-1.8191	-3.50213	-23.4141	-6.90272	-0.803577	0
0.2460	11.1439	9.37694	-5.35263	4.53533	-0.602184	-4.42917	-16.09	-3.84152	1.31494	-0.322328
0.2467	-15.3862	15.4808	-8.9831	5.45133	0.313637	-4.42917	-6.02967	1.35053	2.84905	0
0.2473	-20.5783	15.2154	-9.30892	3.90976	0.0125455	-5.93989	4.65333	2.88114	1.31494	0.322328
0.2480	6.83832	11.5	-6.84205	2.70332	-0.301092	-7.17594	15.3363	4.08161	-0.219157	0.322328
0.2487	56.9227	8.49232	-3.21158	3.30654	-0.602184	-6.86692	9.53605	3.78149	0.365262	0
0.2493	99.9155	4.24616	0.465446	4.22254	-1.518	-6.86692	-20.6778	-3.5414	1.02273	0
0.2500	116.695	-0.0884617	2.93231	4.53533	-2.13273	-8.37765	-50.5804	-11.4645	1.02273	0.322328
0.2507	138.983	0.884617	3.21158	5.13855	-0.903275	-8.68666	-66.1461	-10.5642	1.89936	0
0.2513	164.943	2.38847	-0.465446	2.99376	-1.21691	-8.68666	-73.1589	-11.4645	1.89936	0
0.2520	113.339	4.24616	-4.09592	0.245757	-1.518	-7.17594	-71.9464	-14.5257	2.19157	0
0.2527	-0.126636	8.49232	-5.95771	0.245757	-0.903275	-4.12015	-64.6223	-10.264	3.14126	0
0.2533	-85.6057	10.8808	-7.77294	0.558538	-0.903275	-2.88411	-54.8569	-5.67224	3.43347	0
0.2540	-110.933	10.35	-7.16786	0.558538	-0.301092	-3.50213	-41.1099	-5.072	4.09094	0.322328
0.2547	-66.6736	10.8808	-4.42173	3.30654	1.83164	-4.12015	-26.1668	-5.67224	5.25978	0
0.2553	-16.336	9.99617	-3.81666	5.45133	1.53055	-6.55791	-14.2549	-9.03356	4.09094	-0.322328
0.2560	-6.58505	7.87309	-3.81666	4.53533	-0.602184	-9.30468	-4.48948	-14.8258	1.02273	0.322328
0.2567	-0.443225	7.60771	-4.42173	4.22254	-1.21691	-10.1974	11.0762	-16.3565	-0.511367	-0.322328
0.2573	1.64626	-0.973079	-6.23697	4.82576	-0.903275	-12.9442	39.1437	-15.4561	-2.04547	-1.93397
0.2580	-9.94089	-7.69617	-5.35263	5.45133	-0.602184	-14.4892	73.0114	-17.2868	-2.99515	-1.93397
0.2587	-12.347	0.884617	-2.28068	6.65777	-0.602184	-12.3605	92.2474	-19.1175	-1.75326	-0.322328
0.2593	-3.79907	5.75001	-0.465446	5.13855	-0.903275	-11.4334	89.1998	-20.6181	1.02273	0
0.2600	0.759813	1.50385	-0.744713	1.47454	-1.518	-12.6695	80.6468	-21.5485	3.14126	-0.322328
0.2607	3.48248	1.15	-1.07053	1.16176	-0.903275	-12.0515	70.2751	-18.7874	5.55199	0.322328
0.2613	21.8446	2.38847	-0.465446	2.39054	-0.301092	-8.68666	51.6618	-14.8258	7.3783	0.322328
0.2620	56.2895	0.884617	-0.744713	0.558538	-1.21691	-7.17594	29.9845	-12.695	7.08609	0
0.2627	77.9442	-0.973079	-1.6756	-1.27347	-2.13273	-6.86692	13.5176	-10.5642	6.20946	0.322328
0.2633	80.7302	-0.707694	-0.465446	-0.670245	-1.518	-3.81114	7.71732	-7.20284	8.03577	0.322328
0.2640	75.2215	-0.707694	-0.139634	-1.58625	-0.903275	-1.6824	6.79976	-6.27247	10.4465	0
0.2647	62.4313	-2.47693	-2.88576	-4.62469	-2.43383	-3.50213	2.52328	-7.20284	8.9124	0
0.2653	76.4246	-1.8577	-3.49084	-3.10547	-1.8191	-5.01286	-2.04812	-5.072	8.03577	0.322328
0.2660	130.435	-0.0884617	-1.95487	0.245757	-0.301092	-4.42917	-5.11211	-3.5414	8.62019	0
0.2667	140.502	-1.32693	-2.6065	-0.357464	-1.21691	-6.2489	-7.24216	-4.77188	6.79388	0
0.2673	60.5951	-2.21154	-3.49084	-0.670245	-2.13273	-8.68666	-6.93084	-5.37212	5.25978	0
0.2680	-19.6918	0.265385	-3.21158	1.16176	-0.602184	-7.45061	-6.93084	-2.94116	6.79388	0
0.2687	-28.2397	2.38847	-4.42173	1.16176	-0.602184	-7.17594	-9.3722	1.35053	5.91725	0.322328
0.2693	-13.8666	2.38847	-6.56279	-0.044683	-1.8191	-8.37765	-8.76596	4.08161	2.55684	0
0.2700	-6.83832	4.51155	-6.56279	2.07776	-0.903275	-7.17594	-6.02967	7.14282	3.14126	0
0.2707	15.133	5.39616	-5.95771	3.30654	-0.602184	-6.55791	-8.47103	8.67342	3.72568	-0.322328
0.2713	19.6918	3.62693	-8.09876	1.16176	-2.13273	-8.68666	-14.8776	6.54258	1.02273	-0.322328
0.2720	-23.0477	2.65385	-8.9831	1.47454	-2.43383	-9.61369	-18.2365	5.01198	-0.219157	0
0.2727	-71.8657	2.65385	-7.16786	3.61932	-2.13273	-8.37765	-19.449	3.18126	0.730525	0.322328
0.2733	-82.883	0.53077	-4.701	3.90976	-2.43383	-8.37765	-21.8903	-0.180071	-0.219157	0
0.2740	-54.7699	-1.32693	-2.88576	4.22254	-1.8191	-7.45061	-17.0076	-2.31091	-1.09579	-0.322328
0.2747	-36.471	-1.59231	-2.6065	4.22254	-1.8191	-6.2489	-4.19455	-4.14163	-0.219157	0
0.2753	-70.3461	-1.32693	-4.42173	3.30654	-2.13273	-5.63088	9.53605	-5.97236	0.730525	0
0.2760	-107.26	1.50385	-5.63189	2.99376	-1.518	-3.50213	20.219	-4.44175	2.55684	0
0.2767	-77.6909	4.24616	-4.701	4.53533	0.313637	-1.6824	22.3655	-0.180071	4.96757	0
0.2773	-9.94089	3.27308	-5.02681	4.22254	-0.301092	-2.88411	22.3655	-2.01079	4.09094	0.322328
0.2780	18.4888	0.884617	-7.44713	2.39054	-2.43383	-4.12015	18.6952	-9.6338	0.0730525	0
0.2787	2.59603	0.265385	-6.84205	2.99376	-1.8191	-2.88411	9.84737	-15.126	0.365262	0
0.2793	-11.4605	0.884617	-3.49084	5.13855	0.0125455	-1.6824	5.27596	-17.5869	3.43347	0
0.2800	-17.8556	-1.32693	-2.6065	4.22254	-1.21691	-2.88411	2.52328	-20.9483	2.19157	0
0.2807	-27.6066	-3.45001	-1.95487	4.53533	-1.21691	-3.81114	-0.22939	-22.4489	0.365262	0
0.2813	-40.4601	-2.83077	-0.139634	6.34499	-0.301092	-2.88411	-0.524319	-21.2484	0.365262	-0.322328
0.2820	-48.3748	-4.60001	-0.465446	4.82576	-2.13273	-5.01286	-3.58831	-21.5485	-2.33768	0
0.2827	-26.7201	-6.19232	-1.07053	4.22254	-3.34965	-6.55791	-6.02967	-19.7178	-4.4562	0.322328
0.2833	11.4605	-4.33462	-0.139634	6.34499	-2.43383	-4.70384	-4.8008	-14.5257	-3.87178	0
0.2840	19.3752	-3.45001	0.465446	8.17699	-1.8191	-3.50213	-4.19455	-11.1644	-3.57957	-0.322328
0.2847	5.95187	-2.47693	-0.465446	6.34499	-1.8191	-4.12015	-4.8008	-10.264	-4.16399	0.644656
0.2853	6.83832	-2.21154	-1.95487	5.13855	-2.13273	-4.12015	-4.8008	-8.73345	-4.4562	0
0.2860	11.7771	-10.1731	-3.49084	5.74177	-1.21691	-3.50213	-5.40704	-8.1032	-5.40588	-2.2563
0.2867	9.94089	-13.8	-4.42173	5.45133	-0.602184	-3.50213	-6.93084	-9.33368	-5.69809	-1.93397
0.2873	9.30772	-2.83077	-4.42173	5.45133	-0.903275	-3.19312	-7.55347	-8.73345	-4.4562	0.322328
0.2880	8.67454	3.27308	-4.42173	5.13855	-1.518	-3.50213	-7.55347	-6.27247	-4.4562	0.322328
0.2887	10.5108	1.15	-3.49084	4.53533	-1.21691	-3.50213	-7.55347	-5.97236	-3.87178	0.322328
0.2893	16.9058	-0.0884617	-0.139634	4.82576	0.313637	-1.6824	-6.3246	-7.20284	-2.33768	0.322328
0.2900	19.3752	-0.353847	2.6065	5.74177	1.53055	0.171673	-4.8008	-8.73345	-0.803577	0
0.2907	10.8273	-2.21154	2.28068	4.22254	0.313637	-0.44635	-6.02967	-12.3949	-2.04547	0
0.2913	0.759813	-3.45001	0.139634	2.07776	-0.903275	-1.37338	-8.76596	-14.8258	-4.82146	0.322328
0.2920	-8.10468	-2.47693	-0.139634	2.39054	-1.21691	-1.95707	-9.68352	-11.7947	-5.69809	0
0.2927	-29.1262	-1.59231	0.791258	3.61932	-0.903275	-2.26609	-9.3722	-8.43333	-5.69809	0
0.2933	-41.3465	-1.59231	1.6756	4.82576	-0.301092	-1.6824	-8.15971	-9.33368	-5.40588	0.322328
0.2940	-28.5563	-0.353847	4.74755	7.26099	1.53055	0.789696	-3.58831	-9.33368	-3.28736	0.322328
0.2947	-24.5673	-1.32693	5.35263	5.74177	1.53055	0.789696	-1.44188	-8.1032	-3.28736	-0.322328
0.2953	-33.7484	-2.83077	1.39634	2.07776	0.0125455	-0.755362	-3.88324	-7.20284	-5.11367	-0.322328
0.2960	-20.8949	-2.83077	-0.139634	2.07776	-0.301092	-0.755362	-4.8008	-7.20284	-5.11367	0
0.2967	9.94089	-3.71539	1.07053	2.70332	-0.602184	-1.06437	-5.71835	-9.33368	-4.82146	0.322328
0.2973	31.9122	-4.06924	1.39634	2.07776	0.0125455	-0.137338	-6.93084	-10.8643	-3.57957	0.322328
0.2980	44.0692	-2.21154	0.791258	2.39054	0.313637	1.37338	-6.3246	-9.6338	-1.75326	0
0.2987	48.3748	0.265385	-0.465446	3.30654	0.313637	1.6824	-4.19455	-5.072	-0.219157	0.322328
0.2993	52.0472	1.76923	-3.49084	2.39054	-0.301092	1.37338	-3.88324	-0.780308	-0.511367	0.322328
0.3000	68.5098	2.38847	-5.35263	2.70332	-0.602184	1.37338	-4.8008	0.420166	-1.46105	0
0.3007	74.9049	1.50385	-4.09592	3.90976	-1.21691	0.480685	-4.8008	-0.180071	-2.33768	0.322328
0.3013	55.0865	-0.973079	-2.6065	2.39054	-1.8191	0.480685	-4.8008	-0.180071	-2.62989	0
0.3020	35.5213	-1.59231	0.139634	1.78732	-1.518	1.37338	-3.88324	3.48137	-0.511367	-0.322328
0.3027	39.5103	-0.0884617	2.28068	4.22254	0.313637	1.99141	-3.27699	8.67342	2.19157	0
0.3033	59.0755	-0.0884617	2.28068	4.82576	0.614729	1.37338	-3.27699	8.97354	1.89936	-0.322328
0.3040	80.097	-2.47693	0.465446	4.22254	-0.602184	-0.44635	-3.88324	3.18126	-0.511367	0
0.3047	73.0687	-4.33462	-1.07053	4.22254	-1.518	-1.37338	-4.8008	-3.24128	-2.99515	0.322328
0.3053	-28.5563	-4.06924	-2.6065	3.61932	-1.518	-1.06437	-6.02967	-5.67224	-4.16399	0.322328
0.3060	-153.672	-2.83077	-1.6756	4.53533	-0.602184	0.171673	-3.88324	-2.01079	-2.62989	0
0.3067	-140.565	-1.59231	0.465446	6.65777	1.22946	1.6824	-0.22939	5.01198	-1.75326	-0.322328
0.3073	-53.5669	-1.8577	0.465446	7.57377	2.14528	0.789696	-0.22939	9.27366	-2.33768	-0.322328
0.3080	-15.3862	-3.71539	-1.6756	5.13855	0.313637	-1.6824	-3.88324	8.3733	-4.4562	0
0.3087	-7.78809	-4.06924	-4.09592	3.90976	0.0125455	-1.6824	-4.8008	5.01198	-4.82146	0.322328
0.3093	-5.95187	-1.8577	-7.16786	3.90976	1.22946	0.171673	-3.58831	0.720284	-3.57957	0.322328
0.3100	9.6243	-0.0884617	-10.5191	2.99376	1.22946	0.480685	-3.88324	-4.77188	-3.87178	0
0.3107	49.8944	1.15	-10.1933	2.39054	2.14528	1.37338	-4.48948	-5.072	-2.99515	0
0.3113	82.5664	1.50385	-5.35263	3.90976	3.97692	2.60943	-3.88324	0.720284	-0.219157	0
0.3120	71.2325	-0.973079	-1.6756	4.22254	3.66328	1.6824	-4.48948	3.18126	0.365262	0
0.3127	29.7594	-3.71539	-1.6756	1.78732	2.44637	0.789696	-5.71835	-0.480189	-2.04547	0
0.3133	-3.79907	-5.83847	-2.28068	0.871319	1.53055	0.789696	-5.11211	-8.1032	-2.99515	0.322328
0.3140	1.64626	-6.19232	-2.88576	1.16176	1.53055	0.480685	-4.48948	-13.6254	-2.62989	-0.322328
0.3147	60.5951	-2.83077	-3.49084	1.47454	2.14528	1.37338	-2.96568	-8.73345	-1.46105	0
0.3153	129.865	0.53077	-2.6065	1.47454	0.915821	2.30042	-0.524319	-1.71068	1.02273	0.644656
0.3160	130.435	-6.4577	-0.744713	1.47454	0.0125455	2.60943	-0.524319	-0.480189	1.60715	-1.61164
0.3167	38.8771	-16.5423	1.39634	1.78732	-0.301092	2.91844	-1.44188	-2.01079	0.730525	-2.57862
0.3173	-29.7594	-12.9154	2.28068	0.871319	-2.13273	1.99141	-2.04812	-3.24128	0.0730525	-0.322328
0.3180	-5.06542	-6.4577	2.00142	-0.670245	-4.56656	0.789696	-2.35944	-5.072	-0.803577	0.322328
0.3187	10.8273	-7.07694	2.6065	0.245757	-4.26547	0.789696	-2.35944	-5.072	-1.09579	0
0.3193	-67.3068	-6.81155	2.93231	1.47454	-3.96438	1.06437	-1.75319	-3.24128	-0.511367	0.322328
0.3200	-182.672	-2.83077	2.00142	2.99376	-3.34965	1.99141	0.0819248	0.720284	1.31494	0
0.3207	-182.355	-2.21154	0.139634	2.99376	-2.73492	1.37338	0.999483	2.88114	1.31494	0
0.3213	-75.8547	-5.57309	-2.28068	-0.357464	-4.26547	-1.06437	-1.44188	-1.41056	-1.09579	0
0.3220	-6.26846	-6.4577	-2.88576	-1.58625	-3.96438	-0.44635	-2.96568	-5.67224	-1.46105	-0.322328
0.3227	36.1545	-3.71539	-1.6756	-0.670245	-1.8191	2.60943	-0.524319	-5.37212	1.60715	0
0.3233	92.3173	-2.21154	-1.07053	-0.357464	-0.602184	3.22745	1.3108	-3.5414	3.14126	0
0.3240	104.538	0.53077	-2.6065	0.245757	0.313637	3.22745	0.999483	-1.11044	2.84905	0
0.3247	13.2967	3.27308	-5.63189	0.245757	1.22946	3.22745	0.688169	-0.180071	3.14126	0
0.3253	-141.135	2.03462	-9.30892	-2.18947	0.614729	1.6824	-1.75319	-3.5414	1.02273	0
0.3260	-215.597	-1.8577	-6.84205	-3.70869	0.915821	1.37338	-2.96568	-6.90272	0.365262	0
0.3267	-144.808	-4.95385	1.07053	-2.50225	3.36219	5.04719	-0.22939	-8.1032	4.09094	0.322328
0.3273	-23.6809	-6.19232	5.67844	-1.87669	4.89274	7.17594	1.91704	-6.90272	6.50167	0.322328
0.3280	53.8834	-7.43078	6.8886	-2.79269	4.5791	6.55791	1.3108	-2.01079	5.91725	0
0.3287	83.7694	-8.58078	8.42457	-3.70869	5.19383	6.28324	0.999483	3.48137	5.55199	0.322328
0.3293	61.165	-8.93463	7.49368	-4.33425	5.49493	6.28324	0.999483	3.48137	5.91725	0.322328
0.3300	-40.7133	-7.96155	4.42173	-6.16625	4.89274	6.28324	0.0819248	1.35053	4.96757	0.322328
0.3307	-150	-4.60001	1.6756	-6.76948	4.89274	7.17594	-0.22939	1.65065	5.25978	0.322328
0.3313	-144.175	-0.707694	-1.6756	-6.76948	6.10965	8.10297	0.688169	1.95077	6.79388	0.322328
0.3320	-81.3634	2.65385	-5.02681	-6.76948	7.02547	8.72099	0.688169	1.35053	7.08609	0
0.3327	-74.0185	5.75001	-7.77294	-7.08226	7.32657	9.30468	0.688169	3.78149	8.32798	0
0.3333	-101.182	6.36924	-7.44713	-6.76948	8.24239	10.2317	2.21197	5.91233	9.86208	0
0.3340	-94.1536	1.76923	-3.81666	-7.08226	6.72438	9.30468	2.21197	3.48137	8.62019	0
0.3347	-47.1718	-5.21924	1.07053	-8.60148	5.19383	8.10297	1.60573	-1.71068	8.03577	0
0.3353	-19.6918	-8.93463	5.95771	-8.89192	5.49493	9.03001	3.12953	-2.94116	10.1543	0
0.3360	3.22921	-9.55386	6.28352	-10.4335	4.89274	8.72099	3.44084	-1.41056	10.4465	0
0.3367	74.0185	-8.93463	4.14247	-11.9527	3.66328	7.48495	1.91704	-1.11044	9.56987	0
0.3373	149.367	-6.4577	5.67844	-9.80792	4.5791	9.61369	4.04709	-1.11044	12.2728	0.322328
0.3380	157.598	-4.95385	6.8886	-8.89192	4.5791	10.2317	4.65333	-2.01079	12.565	0
0.3387	113.655	-6.19232	5.35263	-10.4335	3.66328	8.41198	2.21197	-6.27247	9.86208	0
0.3393	70.3461	-5.57309	5.67844	-8.89192	4.5791	9.92271	2.8346	-7.50296	10.4465	0
0.3400	67.3068	-4.95385	6.56279	-7.68548	4.5791	10.5407	3.12953	-4.77188	11.6884	0
0.3407	105.108	-5.83847	6.28352	-8.89192	3.0611	8.72099	1.60573	-3.5414	10.4465	0.322328
0.3413	109.097	-4.33462	5.35263	-8.89192	2.44637	8.72099	1.3108	-3.24128	10.4465	0.322328
0.3420	-11.4605	-0.707694	2.6065	-8.60148	2.14528	8.72099	1.91704	-1.41056	11.104	0
0.3427	-161.587	1.76923	-0.465446	-8.89192	2.14528	8.10297	2.21197	-0.480189	10.4465	0
0.3433	-134.424	0.53077	2.6065	-7.3727	2.44637	8.72099	2.8346	-3.24128	10.7387	0.322328
0.3440	-24.2507	-3.45001	7.77294	-5.85347	1.83164	8.41198	3.12953	-7.80308	10.1543	0.322328
0.3447	15.3862	-4.95385	6.56279	-7.08226	1.22946	5.04719	0.999483	-9.6338	7.74356	0.322328
0.3453	24.5673	-1.8577	0.791258	-7.08226	0.915821	4.12015	-0.835633	-7.20284	6.50167	0
0.3460	18.4888	4.24616	-4.42173	-4.62469	2.44637	6.28324	1.3108	-3.5414	7.74356	0.322328
0.3467	24.5673	9.11155	-8.09876	-4.93747	4.27801	6.55791	2.21197	-4.44175	8.62019	0.322328
0.3473	62.6846	5.39616	-9.30892	-6.16625	3.97692	6.28324	0.688169	-6.60261	6.79388	-0.966984
0.3480	105.108	-2.83077	-5.95771	-4.62469	4.5791	7.17594	1.3108	-4.44175	6.20946	-1.93397
0.3487	137.146	-2.83077	-1.34979	-5.54069	3.0611	6.28324	1.60573	-3.24128	6.50167	-0.322328
0.3493	143.858	-1.8577	1.39634	-8.2887	-0.301092	3.22745	0.0819248	-7.50296	4.96757	0.644656
0.3500	109.73	-5.57309	5.95771	-6.45669	0.614729	3.53647	0.688169	-11.1644	4.96757	0
0.3507	41.3465	-7.43078	10.8449	-4.93747	1.83164	4.12015	2.52328	-13.9255	6.50167	0
0.3513	-21.528	-8.3154	12.3809	-6.16625	0.313637	3.22745	1.91704	-17.2868	5.25978	0.322328
0.3520	-40.4601	-7.07694	12.3809	-5.85347	0.915821	4.73818	1.91704	-17.2868	5.55199	0.322328
0.3527	12.347	-5.21924	11.1707	-6.45669	1.83164	5.66521	2.21197	-14.5257	7.3783	0
0.3533	80.4136	-3.45001	5.35263	-8.60148	-0.301092	3.81114	0.0819248	-12.3949	5.25978	0
0.3540	56.9227	2.03462	-0.744713	-8.60148	0.0125455	3.53647	0.0819248	-7.80308	4.09094	0.322328
0.3547	-24.2507	6.98847	-1.95487	-6.76948	2.14528	5.3562	2.52328	-3.84152	6.79388	0.322328
0.3553	-52.3638	6.01539	-0.744713	-7.08226	2.14528	5.97422	2.8346	-6.90272	7.3783	0
0.3560	-20.5783	2.03462	2.28068	-8.2887	0.915821	5.3562	1.60573	-12.695	6.50167	-0.322328
0.3567	16.9058	-2.47693	6.28352	-9.51748	0.313637	5.04719	1.60573	-15.4561	5.91725	0
0.3573	27.6066	-5.57309	8.09876	-11.0367	0.313637	5.3562	1.3108	-14.8258	6.50167	0.322328
0.3580	-40.4601	-4.33462	7.16786	-10.7239	0.313637	5.3562	0.0819248	-11.1644	6.50167	0.322328
0.3587	-164.31	0.265385	5.02681	-8.60148	1.83164	5.97422	0.0819248	-5.97236	6.79388	0.322328
0.3593	-191.79	3.0077	4.74755	-7.08226	3.36219	7.48495	2.21197	-3.5414	7.74356	0.322328
0.3600	-102.068	2.65385	5.35263	-7.3727	3.0611	8.10297	2.8346	-3.5414	8.62019	0.322328
0.3607	-36.7876	2.38847	2.28068	-8.60148	1.22946	7.17594	2.21197	-2.31091	8.32798	0.322328
0.3613	-22.0979	3.27308	-1.07053	-8.89192	-0.301092	6.55791	0.999483	-1.41056	7.74356	0
0.3620	-6.58505	3.27308	-1.34979	-9.51748	-0.903275	5.97422	-5.11211	-4.77188	6.79388	0
0.3627	8.10468	3.0077	-1.34979	-9.80792	-0.903275	5.3562	-14.5662	-9.6338	5.91725	0
0.3633	23.9341	4.24616	1.39634	-6.16625	1.53055	7.48495	-18.5314	-9.03356	8.32798	0
0.3640	34.0017	4.51155	3.53739	-4.62469	2.14528	8.10297	-17.6138	-6.60261	9.56987	0.322328
0.3647	13.2967	4.24616	1.07053	-6.76948	0.614729	5.66521	-15.4838	-9.03356	7.08609	0
0.3653	-20.325	3.27308	0.791258	-6.76948	-0.301092	5.3562	-11.2073	-15.126	6.20946	-0.322328
0.3660	-37.1042	-0.0884617	2.93231	-6.76948	-1.21691	4.73818	-7.24216	-20.318	5.55199	0
0.3667	-43.8159	-2.47693	4.42173	-7.99826	-2.13273	3.22745	-2.96568	-22.4489	3.43347	0
0.3673	-40.1435	-0.973079	6.56279	-6.16625	-0.301092	4.73818	5.8822	-18.4873	4.96757	0
0.3680	-23.3643	0.265385	8.70384	-3.70869	0.614729	5.97422	11.9774	-14.2256	6.79388	0
0.3687	4.74883	-1.59231	6.8886	-4.93747	-1.21691	3.22745	11.0762	-13.9255	3.14126	0.322328
0.3693	25.2005	-0.973079	4.42173	-4.93747	-1.8191	2.30042	10.4536	-11.7947	0.365262	0.322328
0.3700	16.9058	0.53077	4.42173	-3.41825	-0.903275	4.12015	12.2887	-8.43333	1.02273	0
0.3707	8.67454	-0.707694	2.93231	-5.85347	-2.13273	3.53647	12.2887	-10.264	0.365262	0
0.3713	14.4998	-0.707694	3.81666	-6.76948	-0.903275	3.53647	13.2063	-12.3949	1.89936	0
0.3720	12.347	1.50385	5.95771	-4.62469	1.53055	4.42917	12.2887	-8.73345	4.67536	0.322328
0.3727	12.9801	-0.353847	5.95771	-5.25025	-0.602184	1.6824	5.8822	-5.37212	2.55684	0
0.3733	11.7771	-3.71539	7.16786	-4.93747	-2.13273	0.171673	-0.22939	-5.97236	-0.219157	0
0.3740	-28.2397	-3.09616	8.09876	-2.18947	-0.602184	1.37338	-0.524319	-4.77188	0.0730525	0
0.3747	-73.3853	-1.32693	4.14247	-3.10547	-1.8191	-0.44635	-0.524319	-2.31091	-2.04547	0.322328
0.3753	-71.2325	0.884617	1.07053	-5.25025	-2.73492	-1.37338	-1.44188	1.35053	-3.87178	0
0.3760	-51.0975	0.265385	2.28068	-1.58625	0.313637	2.60943	1.3108	8.3733	-1.09579	-1.61164
0.3767	-21.528	-1.59231	2.6065	1.78732	2.44637	4.42917	3.44084	14.7658	0.365262	-1.93397
0.3773	29.1262	4.24616	-1.07053	-0.357464	0.313637	1.99141	2.52328	15.3661	-0.511367	-0.322328
0.3780	45.9054	9.11155	-4.701	-3.10547	-1.518	-0.755362	-0.22939	11.4045	-3.57957	0.322328
0.3787	12.9801	6.98847	-4.701	-2.50225	-2.13273	-2.88411	-3.27699	8.3733	-6.93998	0
0.3793	-27.6066	5.39616	-3.49084	-1.87669	-2.43383	-3.50213	-4.19455	11.1044	-7.81661	0
0.3800	-60.5951	8.49232	-2.28068	0.871319	-0.301092	-1.37338	-1.44188	19.6578	-4.4562	0.322328
0.3807	-66.6736	9.99617	-4.09592	1.47454	0.0125455	-1.6824	-1.44188	20.258	-4.82146	0.644656
0.3813	-13.2967	8.49232	-10.1933	-1.58625	-3.34965	-5.63088	-6.3246	9.57378	-10.3004	0.322328
0.3820	62.1148	9.99617	-14.1961	-1.27347	-3.04855	-5.32187	-6.93084	5.61221	-10.8848	0
0.3827	91.3676	11.5	-15.0804	-0.357464	-2.13273	-4.12015	-5.71835	7.14282	-9.35072	0
0.3833	84.6559	7.60771	-12.9394	-1.58625	-2.73492	-5.01286	-6.63591	1.65065	-9.64293	0
0.3840	76.108	5.13078	-6.56279	-0.044683	-0.301092	-2.88411	-3.88324	-2.94116	-6.64778	0.322328
0.3847	76.108	4.24616	-3.21158	-0.357464	-0.602184	-2.26609	-1.75319	-4.44175	-5.69809	0
0.3853	99.9155	2.38847	-5.63189	-4.02147	-3.04855	-4.12015	-2.96568	-7.20284	-7.81661	0
0.3860	131.701	3.89231	-5.02681	-3.70869	-0.903275	-0.44635	0.393239	-5.072	-3.57957	0
0.3867	122.203	5.13078	-2.88576	-2.79269	0.915821	2.60943	3.44084	0.420166	0.365262	0
0.3873	25.7703	2.65385	-4.701	-5.54069	-0.903275	0.480685	0.0819248	1.35053	-2.62989	0
0.3880	-97.1928	2.03462	-4.42173	-5.25025	-0.903275	0.171673	-1.44188	-0.480189	-4.16399	0
0.3887	-105.108	3.0077	-1.95487	-2.50225	0.614729	0.789696	-0.524319	-2.31091	-2.99515	0
0.3893	-40.7133	1.50385	-2.28068	-2.18947	0.313637	-1.06437	-1.75319	-4.44175	-5.11367	0
0.3900	-19.3752	1.76923	-3.21158	-1.87669	-0.301092	-1.6824	-2.35944	-3.84152	-6.93998	0.322328
0.3907	-20.325	3.0077	-3.49084	-1.27347	0.0125455	-0.755362	-1.75319	-0.780308	-6.64778	0.322328
0.3913	-16.336	1.50385	-4.701	-3.10547	-1.518	-2.26609	-3.58831	-0.180071	-9.05851	0
0.3920	-12.347	0.53077	-4.42173	-4.02147	-1.518	-2.26609	-3.88324	-0.780308	-9.35072	-0.322328
0.3927	-14.1832	3.0077	-1.07053	-1.27347	1.22946	1.6824	0.393239	1.95077	-4.4562	0.322328
0.3933	-24.2507	2.03462	-0.465446	-1.87669	0.915821	1.37338	0.999483	1.95077	-4.16399	0.322328
0.3940	-28.8729	-0.973079	-2.88576	-4.33425	-1.21691	-0.755362	-2.35944	-0.780308	-7.23219	0
0.3947	-23.3643	-1.59231	-2.88576	-4.62469	-1.21691	-0.755362	-3.58831	-0.480189	-7.5244	-0.322328
0.3953	-19.3752	-2.47693	-2.88576	-5.54069	-2.13273	-2.26609	-4.48948	-0.180071	-9.05851	0
0.3960	-15.3862	-2.21154	-2.6065	-4.62469	-1.518	-2.26609	-5.11211	0.120047	-9.64293	0
0.3967	-15.3862	0.265385	-0.744713	-1.27347	0.614729	-0.44635	-3.58831	3.18126	-7.23219	0
0.3973	-26.4035	-0.0884617	-0.744713	-1.87669	-0.301092	-1.6824	-3.88324	3.78149	-7.81661	0
0.3980	-20.0084	-2.47693	-3.21158	-4.62469	-2.13273	-3.81114	-6.63591	2.55101	-10.5926	0
0.3987	6.58505	-2.21154	-3.21158	-3.70869	-1.8191	-2.5751	-5.71835	4.38173	-9.35072	0
0.3993	24.2507	-2.83077	-2.88576	-3.70869	-1.518	-1.6824	-4.48948	5.01198	-8.7663	0
0.4000	33.7484	-4.06924	-2.28068	-5.25025	-1.518	-1.06437	-5.11211	4.71186	-10.0082	0
0.4007	37.3575	-3.09616	1.07053	-3.41825	0.614729	2.30042	-2.35944	7.44294	-6.64778	0
0.4013	31.9122	-2.21154	2.28068	-2.79269	1.83164	3.22745	-0.835633	9.27366	-4.82146	0.322328
0.4020	44.7024	-4.33462	0.791258	-4.93747	0.0125455	1.06437	-3.58831	8.04317	-6.93998	0.322328
0.4027	36.7876	-4.60001	0.465446	-4.62469	0.313637	1.99141	-3.58831	8.67342	-7.23219	0.322328
0.4033	-88.6449	-3.71539	-0.465446	-4.93747	0.614729	1.99141	-2.67075	9.57378	-6.93998	0.322328
0.4040	-203.377	-4.33462	-2.6065	-6.16625	-0.903275	0.789696	-4.8008	9.57378	-9.05851	0
0.4047	-152.469	-3.09616	-0.465446	-4.62469	0.614729	1.99141	-3.58831	11.7046	-7.23219	0.322328
0.4053	-71.5491	-3.09616	-0.139634	-3.70869	1.53055	2.91844	-1.75319	12.635	-5.11367	-0.644656
0.4060	-54.4533	-9.55386	-3.81666	-4.02147	0.614729	3.22745	-4.8008	9.57378	-8.7663	-2.2563
0.4067	-39.1937	-9.81925	-4.09592	-1.87669	2.74746	5.66521	-2.67075	8.04317	-8.18188	-0.966984
0.4073	-11.4605	-3.09616	-3.21158	-3.41825	3.0611	4.73818	0.688169	5.61221	-5.11367	0.644656
0.4080	5.63528	-2.83077	-6.23697	-7.08226	0.614729	2.30042	-2.35944	0.420166	-6.93998	0
0.4087	14.4998	-2.83077	-5.95771	-6.45669	1.53055	4.12015	-2.67075	0.120047	-5.69809	0
0.4093	24.8839	-0.707694	-2.28068	-4.02147	3.36219	6.28324	0.999483	3.48137	-2.33768	0.322328
0.4100	29.1262	-1.32693	-1.95487	-4.93747	2.44637	5.3562	0.0819248	5.01198	-2.99515	0
0.4107	26.7201	-2.83077	-3.49084	-6.16625	1.53055	4.73818	-1.44188	5.61221	-4.82146	-0.322328
0.4113	20.8949	-4.06924	-3.49084	-7.08226	1.22946	5.04719	-1.13056	7.44294	-4.82146	0
0.4120	8.10468	-4.60001	-2.28068	-8.2887	0.915821	4.12015	-0.835633	11.1044	-5.69809	0
0.4127	0.126636	-4.33462	-1.07053	-7.3727	1.22946	4.73818	0.0819248	13.2352	-4.82146	0
0.4133	8.99113	-3.45001	1.39634	-4.33425	2.74746	7.48495	3.12953	10.8043	-1.09579	0.322328
0.4140	24.2507	-4.95385	2.6065	-4.02147	3.0611	8.41198	3.75216	4.71186	-0.219157	0.322328
0.4147	28.2397	-9.55386	2.00142	-7.68548	0.614729	5.97422	1.3108	-1.71068	-2.62989	0
0.4153	24.5673	-10.7039	2.00142	-8.89192	-0.602184	5.04719	-0.22939	-4.44175	-3.87178	0
0.4160	34.0017	-8.58078	1.6756	-6.76948	0.614729	5.66521	-0.22939	-4.14163	-3.57957	0.322328
0.4167	50.5276	-6.4577	1.6756	-4.93747	1.53055	5.66521	0.0819248	-1.71068	-2.33768	0.322328
0.4173	49.008	-5.57309	2.6065	-3.70869	1.83164	6.55791	0.393239	0.720284	-0.511367	0.322328
0.4180	40.7133	-4.95385	2.00142	-3.10547	2.14528	5.97422	0.393239	1.05041	-1.09579	0
0.4187	43.4993	-4.33462	-3.21158	-4.62469	0.614729	3.53647	-2.04812	0.720284	-4.16399	0
0.4193	38.8771	-2.83077	-7.16786	-6.16625	0.0125455	2.30042	-3.27699	1.65065	-4.4562	0
0.4200	21.2115	-1.59231	-7.77294	-5.54069	0.313637	3.22745	-2.04812	3.48137	-2.04547	0
0.4207	13.2967	-1.59231	-6.56279	-4.93747	0.614729	3.53647	-0.835633	4.71186	-0.511367	-0.322328
0.4213	9.6243	-0.973079	-5.95771	-5.25025	0.915821	4.42917	-0.524319	5.3121	2.19157	0
0.4220	1.39299	-0.707694	-4.09592	-4.93747	1.53055	5.04719	-0.22939	6.54258	3.72568	0.322328
0.4227	4.74883	-3.09616	-2.6065	-4.93747	1.22946	4.12015	-1.44188	4.08161	2.19157	0
0.4233	13.8666	-6.19232	-2.88576	-7.08226	-0.602184	2.91844	-3.58831	-1.11044	-0.219157	0
0.4240	16.0194	-7.43078	-2.88576	-6.45669	-1.518	2.91844	-3.27699	-2.94116	-6.93998	0
0.4247	16.6526	-7.43078	-0.744713	-1.58625	-0.903275	3.81114	-2.04812	-3.24128	-17.6056	0
0.4253	17.2224	-7.07694	0.465446	7.26099	-0.301092	3.81114	-2.67075	-3.24128	-34.9921	0
0.4260	15.3862	-5.21924	0.139634	14.2986	0.915821	3.81114	-2.67075	-1.11044	-48.1416	0
0.4267	12.6636	-3.45001	-0.465446	15.2146	1.83164	4.42917	-1.75319	1.05041	-36.234	0
0.4273	8.67454	-4.06924	-1.6756	15.2146	0.614729	1.99141	-3.27699	1.05041	-41.4208	0.322328
0.4280	6.26846	-5.83847	-3.21158	16.7338	-1.21691	-0.44635	-6.02967	-0.180071	-90.8773	0
0.4287	8.67454	-4.33462	-2.28068	16.421	0.313637	1.99141	-3.58831	0.420166	-158.012	0
0.4293	8.10468	-2.21154	-1.07053	6.97055	1.83164	4.73818	0.393239	1.35053	-187.599	0.322328
0.4300	-0.126636	-4.33462	-1.95487	-6.16625	-0.301092	4.42917	0.688169	-0.180071	-141.795	0.322328
0.4307	-11.4605	-5.21924	-0.744713	-6.45669	-2.13273	3.81114	0.0819248	0.720284	-117.688	0
0.4313	-24.8839	-4.33462	1.07053	-7.68548	-2.43383	2.60943	-0.524319	3.18126	-166.56	-0.322328
0.4320	-38.6239	-4.95385	1.07053	-19.5935	-2.43383	2.91844	-0.524319	4.38173	-136.024	-0.322328
0.4327	-35.5846	-3.71539	2.6065	-20.1967	0.313637	8.41198	2.52328	7.44294	58.0767	0
0.4333	-16.9692	-2.21154	2.93231	-5.25025	2.14528	10.2317	3.44084	8.67342	177.737	0
0.4340	-4.11566	-4.33462	0.791258	12.1538	0.313637	6.28324	-0.835633	5.3121	58.9533	-0.322328
0.4347	5.00211	-4.60001	1.39634	19.4818	0.313637	4.12015	-2.04812	4.08161	-77.7278	0
0.4353	18.1722	-0.973079	2.6065	7.57377	2.14528	5.04719	1.3108	6.8427	-23.7421	0.322328
0.4360	31.9122	-2.47693	-1.95487	-3.41825	3.36219	5.97422	0.393239	8.97354	35.7957	-1.61164
0.4367	48.0582	-2.83077	-6.23697	-5.85347	5.49493	9.61369	-0.524319	11.1044	-42.2974	-1.93397
0.4373	58.4423	3.89231	-5.95771	-18.3647	5.80856	13.2875	3.44084	12.0347	-22.5002	0
0.4380	42.233	5.39616	-7.16786	-27.8152	1.53055	11.1588	3.75216	6.54258	96.7945	0.644656
0.4387	-12.347	1.15	-8.9831	-24.1512	-2.43383	8.10297	0.0819248	-1.71068	136.827	0
0.4393	-69.7129	1.15	-6.84205	-20.1967	-2.43383	7.17594	-0.22939	-4.44175	139.238	0
0.4400	-67.3068	2.38847	-2.6065	-23.2352	-1.21691	5.97422	1.3108	-3.5414	148.37	0
0.4407	-23.3643	0.884617	1.39634	-19.5935	-2.13273	4.12015	1.91704	-3.84152	132.809	-0.322328
0.4413	7.78809	-0.707694	3.21158	12.1538	-3.96438	3.81114	1.60573	-5.072	92.8497	0
0.4420	20.8949	-1.59231	3.21158	48.1683	-4.26547	5.3562	0.688169	-4.77188	73.0525	0
0.4427	19.0587	-1.59231	2.6065	62.5115	-2.73492	7.17594	0.393239	-4.77188	38.2064	0
0.4433	5.31869	-0.0884617	1.6756	76.8548	-1.8191	5.04719	-1.44188	-3.84152	-43.5393	0
0.4440	-3.48248	2.65385	2.28068	88.45	-0.301092	3.81114	-1.75319	-0.480189	-148.516	0
0.4447	-5.63528	3.62693	2.6065	74.4195	0.915821	3.81114	-0.835633	1.95077	-277.307	0
0.4453	-8.42127	1.50385	1.07053	62.5115	0.0125455	2.60943	-1.13056	0.420166	-376.512	0
0.4460	-8.99113	0.53077	0.791258	67.382	-0.301092	4.42917	-1.13056	-0.480189	-411.87	0
0.4467	-7.78809	1.15	1.39634	68.6108	0.0125455	5.3562	-0.524319	-0.480189	-429.914	-0.322328
0.4473	-8.10468	1.15	1.39634	66.466	0.313637	2.91844	-0.524319	0.120047	-476.594	-0.322328
0.4480	-7.78809	1.76923	2.6065	46.9395	0.614729	0.789696	-1.13056	0.720284	-403.688	0
0.4487	-7.15491	1.50385	1.6756	20.6882	-1.518	-1.06437	-3.58831	0.120047	-38.0603	-0.322328
0.4493	-6.83832	1.76923	-0.139634	44.8171	-3.65074	0.171673	-4.19455	0.420166	409.605	0
0.4500	-5.06542	3.62693	0.465446	97.61	-3.34965	3.53647	-1.44188	2.25089	613.202	0
0.4507	-1.39299	2.38847	1.07053	132.083	-5.48238	4.12015	-1.75319	1.95077	510.637	0
0.4513	2.27944	1.15	0.139634	166.869	-8.22984	2.30042	-3.58831	1.95077	353.793	0
0.4520	6.26846	2.38847	0.465446	216.936	-7.92875	2.60943	-2.35944	4.38173	351.967	-0.322328
0.4527	10.8273	4.51155	2.28068	217.226	-6.09711	5.3562	-0.22939	5.61221	372.422	0
0.4533	15.3862	6.01539	2.6065	121.091	-4.56656	7.79396	0.688169	3.78149	169.19	0
0.4540	16.0194	4.51155	0.791258	55.7867	-3.04855	5.97422	-0.524319	1.65065	-125.358	0
0.4547	13.8666	3.27308	0.139634	104.022	-0.903275	2.30042	-4.19455	0.120047	-137.558	0
0.4553	17.2224	6.01539	3.21158	107.664	3.66328	4.42917	-2.67075	2.55101	-5.11367	0.322328
0.4560	17.539	7.87309	3.21158	-16.8455	6.72438	6.86692	0.688169	5.91233	71.5184	0
0.4567	5.95187	5.39616	-1.07053	-117.248	6.10965	5.97422	-0.22939	5.01198	119.441	0
0.4573	-1.39299	4.77693	-2.28068	-169.416	7.02547	9.30468	0.688169	4.08161	37.9142	0
0.4580	-1.0764	6.36924	-0.139634	-268.299	7.6402	14.7982	4.3584	4.38173	52.89	0
0.4587	-7.15491	5.75001	-0.744713	-342.763	4.5791	16.6523	4.3584	5.3121	307.113	0
0.4593	-12.0304	5.39616	-1.07053	-314.39	1.53055	18.781	5.27596	5.61221	368.404	0
0.4600	-9.30772	7.87309	2.28068	-241.132	-0.602184	18.472	7.09469	5.91233	228.946	0
0.4607	-11.1439	7.60771	2.28068	-177.972	-4.8802	8.72099	3.12953	2.88114	214.336	0
0.4613	-15.7028	4.24616	-0.465446	-112.043	-7.01293	-1.6824	-3.88324	-2.61103	161.519	0
0.4620	-12.9801	4.51155	-0.139634	-43.9904	-3.65074	-3.19312	-5.71835	-2.61103	-34.1155	0
0.4627	-10.5108	6.98847	0.791258	7.88655	0.915821	1.37338	-2.67075	1.35053	-261.163	0.322328
0.4633	-10.8273	7.25386	0.465446	51.2067	3.66328	5.97422	0.0819248	2.55101	-533.064	0
0.4640	-10.2575	6.63463	1.07053	87.2212	5.49493	7.79396	1.3108	1.95077	-778.739	0
0.4647	-9.30772	5.39616	1.39634	88.45	4.27801	5.66521	0.688169	1.65065	-906.873	0
0.4653	-10.2575	3.62693	-0.744713	52.7483	-0.301092	2.60943	-0.835633	0.420166	-925.502	0.322328
0.4660	-11.1439	3.0077	-1.6756	22.5202	-5.48238	-0.137338	-0.835633	-0.180071	-642.277	0
0.4667	-9.94089	-0.353847	-1.34979	-1.58625	-7.31402	-0.755362	-1.44188	0.420166	99.8627	-1.93397
0.4673	-6.83832	-1.32693	-0.139634	-33.0207	-7.01293	-1.06437	-2.67075	2.25089	694.948	-1.61164
0.4680	-5.06542	4.51155	-0.465446	-45.2192	-8.22984	-6.55791	-2.35944	3.18126	651.336	0.322328
0.4687	-3.48248	7.25386	-1.07053	-43.3872	-7.92875	-10.5064	-2.96568	2.88114	386.74	0
0.4693	0.443225	7.25386	0.139634	-20.1967	-4.8802	-8.06864	-4.19455	2.25089	178.906	-0.644656
0.4700	2.59603	7.60771	0.465446	26.8098	-3.65074	-5.01286	-5.71835	1.05041	14.7566	-0.322328
0.4707	4.74883	7.87309	1.07053	32.909	-2.73492	-0.44635	-4.8008	1.65065	-105.78	0
0.4713	12.0304	9.99617	4.42173	-33.624	0.0125455	6.86692	-0.22939	4.08161	-199.506	0
0.4720	17.539	9.99617	4.14247	-126.699	0.0125455	9.61369	2.52328	3.78149	-103.661	0
0.4727	15.133	9.11155	-0.139634	-180.408	-1.21691	7.48495	1.91704	3.18126	243.922	0
0.4733	8.35795	10.8808	-2.28068	-205.14	-3.04855	6.28324	1.91704	5.91233	542.707	0
0.4740	-0.126636	11.2346	-2.28068	-231.369	-3.34965	6.28324	1.91704	7.44294	542.415	0
0.4747	-8.10468	10.35	-2.88576	-210.01	1.53055	5.97422	1.91704	7.14282	381.261	-0.322328
0.4753	-11.1439	10.35	-4.701	-110.523	6.72438	5.3562	0.999483	8.3733	213.678	0
0.4760	-11.7771	10.35	-6.56279	8.48977	8.24239	5.3562	0.0819248	7.74306	7.74356	0.322328
0.4767	-12.0304	10.6154	-6.23697	64.3435	8.24239	4.73818	0.393239	5.61221	-102.127	0.322328
0.4773	-15.133	10.8808	-5.02681	54.5803	8.24239	2.30042	-0.835633	3.78149	-2.04547	0.322328
0.4780	-22.4145	9.73079	-5.35263	44.8171	6.72438	-1.06437	-2.96568	1.35053	51.6481	0
0.4787	-23.9341	9.11155	-4.42173	49.6875	5.19383	-3.50213	-2.04812	1.05041	-20.3816	0
0.4793	-17.8556	10.35	-2.88576	48.4811	3.66328	-5.93989	-0.524319	3.18126	-44.1967	0
0.4800	-14.1832	10.6154	-2.6065	45.4203	1.53055	-8.06864	0.688169	5.3121	1.02273	0
0.4807	-15.7028	9.73079	-2.88576	44.1915	-2.13273	-12.0515	-0.524319	5.3121	142.014	0
0.4813	-16.0194	7.87309	-5.02681	55.7867	-8.22984	-15.6909	-5.40704	2.25089	338.817	-0.322328
0.4820	-9.6243	7.25386	-4.09592	71.6715	-10.0615	-13.8712	-6.63591	-0.780308	429.768	-0.322328
0.4827	-2.91262	9.11155	-1.07053	46.3363	-8.22984	-10.5064	-3.27699	-0.180071	415.742	0
0.4833	-1.39299	10.6154	-1.95487	25.8938	-9.4593	-12.0515	-2.67075	1.65065	313.833	0.322328
0.4840	1.39299	11.2346	-5.35263	66.7788	-9.4593	-13.5622	-1.75319	2.88114	58.9533	0
0.4847	9.6243	12.1193	-4.701	88.7628	-7.31402	-10.8154	3.12953	5.01198	-152.168	0
0.4853	13.8666	11.8539	-4.42173	45.1075	-7.62766	-10.5064	5.57089	4.08161	-225.44	0
0.4860	9.94089	9.73079	-6.84205	-9.80792	-7.92875	-12.0515	2.52328	1.05041	-380.457	0
0.4867	8.35795	9.37694	-5.63189	-19.8839	-3.65074	-9.61369	3.75216	1.95077	-585.516	0
0.4873	11.4605	10.35	-3.21158	21.001	1.22946	-7.45061	7.71732	5.61221	-624.306	0
0.4880	12.9801	8.13848	-5.02681	53.3515	1.22946	-6.86692	7.406	6.8427	-421.074	0
0.4887	15.3862	6.98847	-5.02681	78.0612	-0.903275	-4.12015	6.19352	7.14282	-229.677	0
0.4893	18.1722	8.75771	-3.21158	127.816	-1.21691	-1.37338	5.57089	6.21245	-295.936	0
0.4900	15.133	8.75771	-3.49084	147.342	-2.43383	-1.6824	4.04709	1.05041	-355.108	-0.322328
0.4907	10.8273	8.49232	-2.6065	98.2132	-2.13273	-1.06437	2.8346	-2.61103	-269.418	-0.322328
0.4913	6.83832	8.49232	-0.744713	33.5123	-0.301092	-2.5751	0.688169	-0.180071	-119.879	0
0.4920	-1.70958	6.98847	-1.6756	32.5963	-1.518	-8.99567	-3.27699	1.95077	39.7405	0
0.4927	-9.6243	6.36924	-3.21158	73.5035	-3.96438	-11.7424	-2.96568	1.35053	18.7014	0
0.4933	-8.67454	8.13848	-2.88576	47.2523	-5.79602	-11.1244	-1.13056	3.18126	-37.4759	0.322328
0.4940	-5.06542	9.73079	-2.88576	-29.6472	-6.3982	-12.0515	-2.04812	4.71186	-0.219157	0
0.4947	-7.15491	10.6154	-3.21158	-58.3337	-3.96438	-12.6695	-1.75319	5.01198	2.19157	0.322328
0.4953	-10.5108	10.8808	-4.09592	-53.1504	0.0125455	-12.6695	0.0819248	6.54258	102.931	0
0.4960	-9.94089	6.63463	-5.02681	-56.5017	4.27801	-11.1244	-0.22939	4.71186	168.532	-1.61164
0.4967	-6.58505	3.62693	-3.21158	-29.96	6.41075	-7.75962	0.999483	0.720284	102.639	-1.28931
0.4973	-5.31869	6.98847	-1.95487	61.5955	3.36219	-11.1244	2.52328	-1.11044	129.449	0
0.4980	-4.74883	8.75771	-2.28068	170.845	1.53055	-19.3647	0.688169	-0.780308	30.0246	0
0.4987	-1.96285	9.11155	-0.465446	229.447	0.313637	-20.6008	1.3108	1.35053	-320.993	0
0.4993	-2.91262	9.11155	-0.744713	259.05	-5.18129	-18.7467	0.393239	1.35053	-533.356	0.322328
0.5000	-5.31869	7.60771	-2.28068	294.126	-6.71184	-28.5321	-4.19455	-0.780308	-367.673	0.322328
0.5007	-4.74883	7.60771	-2.6065	314.881	-1.518	-48.0685	-5.40704	0.120047	-99.7166	0.322328
0.5013	-4.11566	8.75771	-3.21158	313.362	2.44637	-57.5105	-5.11211	1.35053	-49.0182	0
0.5020	-3.79907	9.73079	-2.88576	337.468	6.41075	-51.3989	-4.48948	0.120047	-240.708	0
0.5027	-3.79907	9.73079	-1.6756	396.361	9.47185	-42.5749	-1.75319	-0.780308	-457.382	0.322328
0.5033	-5.63528	8.49232	-1.34979	371.048	9.15821	-36.1544	-1.13056	-0.480189	-445.182	0.322328
0.5040	-5.06542	7.25386	-0.465446	193.433	8.85712	-27.605	-0.835633	0.120047	-238.882	0.322328
0.5047	-3.48248	6.01539	0.791258	-37.8912	7.32657	-16.927	1.3108	0.420166	-28.5635	0
0.5053	-5.31869	5.13078	1.6756	-149.889	13.7373	-7.17594	2.8346	2.25089	-89.051	0
0.5060	-6.83832	5.39616	2.00142	-157.82	32.9696	1.37338	4.3584	5.61221	-235.229	0
0.5067	-1.96285	6.98847	2.93231	-228.621	37.5487	9.92271	8.32356	7.74306	-4.4562	0.322328
0.5073	4.11566	7.87309	2.93231	-284.474	19.5333	12.6695	8.32356	7.74306	344.954	0
0.5080	2.27944	7.25386	1.6756	-223.147	14.6531	9.03001	0.999483	7.74306	468.559	0
0.5087	-0.759813	7.25386	0.791258	-105.027	37.8497	7.48495	-5.40704	6.21245	407.779	0
0.5093	1.96285	8.49232	-1.07053	43.9011	54.322	15.1072	-5.71835	2.88114	183.216	0
0.5100	5.31869	10.6154	-1.34979	112.244	49.7554	26.0943	-0.835633	4.71186	-247.721	-0.322328
0.5107	8.35795	13.0923	0.791258	21.6042	50.3576	31.2788	4.3584	8.3733	-705.76	0
0.5113	10.8273	12.7385	1.39634	-92.5162	59.5158	29.4591	4.65333	5.91233	-804.381	0
0.5120	9.30772	10.8808	0.791258	-123.347	57.9853	21.8368	0.393239	0.120047	-463.153	0
0.5127	2.27944	9.11155	-0.139634	-157.82	44.2605	9.92271	-7.24216	-3.24128	-132.371	0
0.5133	-0.759813	9.11155	0.791258	-267.986	24.4261	1.6824	-11.5186	-4.14163	-100.009	0
0.5140	6.58505	10.35	5.02681	-334.229	2.44637	-2.5751	-7.55347	-5.67224	118.199	0
0.5147	11.7771	8.13848	7.77294	-291.49	-24.7146	-10.1974	-4.19455	-9.03356	776.767	0.322328
0.5153	7.78809	6.01539	6.28352	-213.674	-49.4292	-15.9999	-2.35944	-7.80308	1207.7	0
0.5160	0.443225	9.37694	5.35263	-103.821	-61.9496	-16.927	-0.22939	2.55101	1102.36	-0.322328
0.5167	-5.95187	12.7385	4.42173	-0.960685	-74.1564	-15.1072	-0.22939	13.5353	756.897	-0.322328
0.5173	-7.4715	12.4731	1.07053	46.0235	-79.0366	-6.2489	-0.22939	16.5965	335.165	0.322328
0.5180	-1.96285	12.1193	2.00142	65.2595	-67.7457	8.10297	3.44084	13.5353	-6.64778	0.322328
0.5187	1.64626	13.0923	4.14247	42.6723	-58.5874	17.2703	5.27596	10.204	-187.891	0.322328
0.5193	-2.27944	13.0923	-1.07053	11.841	-56.7558	17.545	-0.835633	11.1044	-275.773	0
0.5200	-5.31869	12.4731	-5.95771	19.7946	-54.0083	16.6523	-5.71835	12.3349	-352.99	0
0.5207	-2.59603	10.35	-6.23697	1.78732	-49.4292	16.3433	-1.75319	7.14282	-351.163	0
0.5213	-7.78809	6.36924	-7.16786	-63.8297	-48.2123	12.0515	1.91704	-4.77188	-198.557	0
0.5220	-20.325	2.65385	-4.42173	-105.653	-48.827	7.79396	2.8346	-12.3949	-59.7569	0
0.5227	-23.3643	3.27308	-0.465446	-114.5	-41.1868	2.60943	2.21197	-9.6338	-49.6757	-0.322328
0.5233	-25.7703	3.27308	-0.744713	-95.577	-27.4621	-8.06864	-1.75319	-7.20284	-98.1825	0
0.5240	-32.2288	0.265385	-1.07053	-45.532	-19.8344	-19.0557	-5.40704	-11.4645	-103.077	0
0.5247	-28.5563	-1.59231	1.6756	-19.5935	-14.3395	-20.8755	-3.27699	-16.3565	34.5538	0
0.5253	-20.325	1.76923	1.6756	-61.3945	-5.18129	-13.2532	1.60573	-14.8258	229.312	0
0.5260	-9.30772	1.50385	-3.21158	-171.56	-4.56656	-8.37765	2.52328	-12.9951	319.897	-0.966984
0.5267	13.2967	-3.71539	-6.84205	-269.528	-9.4593	-9.30468	-2.35944	-13.9255	359.272	-1.93397
0.5273	32.482	-0.353847	-6.23697	-228.017	3.0611	-12.6695	-6.3246	-12.695	218.281	-0.322328
0.5280	34.0017	5.75001	-6.56279	-83.0657	26.5588	-15.1072	-8.76596	-11.7947	-207.104	0.322328
0.5287	29.1262	4.51155	-9.30892	6.05455	35.4034	-16.3089	-10.6011	-11.1644	-483.9	0
0.5293	30.3925	4.51155	-10.5191	20.085	32.9696	-24.2402	-9.68352	-8.73345	-460.084	0
0.5300	31.5956	7.87309	-9.58818	81.7252	33.8854	-33.0986	-6.3246	-7.50296	-391.123	0.322328
0.5307	17.8556	8.75771	-9.30892	215.394	29.9084	-38.9011	-4.19455	-4.77188	-356.642	0
0.5313	5.95187	6.98847	-9.30892	305.431	15.87	-45.9054	-2.67075	1.35053	-361.829	0
0.5320	10.5108	5.39616	-7.44713	301.454	4.89274	-48.6522	-1.44188	1.35053	-229.385	0
0.5327	10.5108	3.89231	-6.23697	245.622	-1.518	-47.4504	-2.35944	-4.44175	98.3286	0
0.5333	12.9801	1.76923	-6.84205	216.02	-11.2909	-42.2659	-2.96568	-10.5642	243.63	0
0.5340	30.3925	3.27308	-5.35263	269.729	-24.4135	-30.3518	3.12953	-12.9951	-18.5553	0
0.5347	34.6348	3.27308	-5.02681	316.423	-32.6434	-22.7295	3.12953	-13.9255	-393.315	0
0.5353	20.2617	-0.0884617	-5.63189	226.074	-32.957	-13.8712	-4.8008	-15.7562	-453.729	0
0.5360	4.11566	-0.0884617	-4.09592	29.245	-30.8117	8.72099	-5.71835	-15.4561	-101.835	0
0.5367	-18.7421	1.15	-3.21158	-143.79	-26.5463	36.1887	-1.75319	-11.7947	473.088	0
0.5373	-28.2397	0.53077	-4.42173	-251.521	-14.6406	46.2487	0.688169	-9.33368	865.599	0.322328
0.5380	-1.70958	0.53077	-2.6065	-365.663	-11.8931	32.5149	2.8346	-8.1032	864.649	0.322328
0.5387	25.4538	0.884617	0.465446	-434.632	-31.7275	16.6523	2.21197	-9.96393	794.153	0.322328
0.5393	30.9624	0.265385	0.139634	-271.963	-42.1027	3.53647	-2.67075	-14.5257	785.606	0.322328
0.5400	30.9624	1.15	0.139634	-1.27347	-30.8117	-12.3605	-2.96568	-14.5257	617.732	0
0.5407	25.2005	2.03462	1.39634	94.862	-26.2326	-18.4377	1.3108	-11.7947	383.087	-0.322328
0.5413	5.63528	-0.0884617	2.93231	45.1075	-14.6406	-23.3475	-1.13056	-10.5642	292.137	0
0.5420	-14.8164	-1.32693	5.67844	21.6042	7.02547	-28.2231	-6.3246	-7.80308	319.605	0
0.5427	-20.0084	-1.59231	9.02965	79.29	18.0153	-17.545	-8.15971	-4.77188	351.675	0
0.5433	-18.1722	-3.45001	10.2398	3.61932	37.5487	-11.4334	-9.68352	-4.77188	246.99	0.322328
0.5440	-29.1262	-5.21924	10.2398	-245.421	64.7096	-21.8025	-10.2898	-3.24128	38.5717	0
0.5447	-54.2	-4.95385	9.02965	-284.474	68.9751	-25.4763	-9.99483	4.71186	-63.7018	0.322328
0.5453	-69.7129	-2.21154	6.28352	-175.224	61.6485	-22.7295	-11.8136	13.2352	-39.5944	0.322328
0.5460	-64.5208	0.884617	2.28068	-222.521	54.0209	-17.854	-9.07727	11.7046	76.4129	-0.322328
0.5467	-53.5669	3.62693	-4.42173	-293.322	34.1865	-4.42917	0.0819248	6.21245	295.789	0
0.5473	-45.3355	4.51155	-9.58818	-243.88	14.352	8.10297	4.04709	2.88114	465.783	0.322328
0.5480	-38.9404	1.76923	-9.30892	-130.966	0.614729	12.6695	-2.96568	-0.180071	453.875	0
0.5487	-26.0869	-1.59231	-8.09876	-45.2192	-14.9417	28.5321	-12.4362	-2.61103	333.046	-0.322328
0.5493	-15.133	0.53077	-7.44713	-47.364	-21.3524	55.6908	-14.8776	-3.84152	209.149	0
0.5500	-14.4998	4.24616	-6.56279	-90.6842	-16.1711	59.6736	-11.8136	-8.1032	109.067	0
0.5507	-1.0764	3.0077	-6.84205	-102.905	-24.0999	41.0642	-11.2073	-16.6566	37.3298	0.322328
0.5513	19.3752	1.50385	-8.09876	-95.2642	-54.3094	27.6394	-11.5186	-20.6181	-63.994	0.322328
0.5520	22.4145	1.50385	-7.77294	-79.4017	-76.2891	20.6008	-9.3722	-16.6566	-252.615	-0.322328
0.5527	41.0299	-0.353847	-8.09876	-43.0744	-72.6258	16.6523	-7.55347	-13.9255	-447.008	0
0.5533	88.9615	0.265385	-8.9831	3.90976	-51.2609	18.781	-4.48948	-11.1644	-592.529	0
0.5540	99.9155	2.38847	-7.77294	34.741	-28.9801	20.9098	-0.22939	-4.77188	-659.737	0
0.5547	76.108	2.38847	-6.84205	10.009	-19.2197	17.2703	-0.22939	-0.780308	-585.881	0.322328
0.5553	60.8484	0.53077	-6.23697	-37.8912	-14.3395	12.0515	-0.835633	-1.41056	-569.079	0.322328
0.5560	56.6061	-4.33462	-3.81666	-52.8377	-3.34965	14.2145	1.60573	-2.61103	-631.612	-0.966984
0.5567	64.5208	-9.20002	-2.88576	-74.8217	5.80856	15.1072	7.406	-0.180071	-381.991	-1.61164
0.5573	79.7804	-7.07694	-3.81666	-109.607	3.66328	5.04719	15.3363	-0.180071	0.0730525	-0.322328
0.5580	57.2393	-3.45001	-4.42173	-93.4322	3.0611	-1.6824	20.5304	-3.84152	17.1673	0.322328
0.5587	-26.4035	-2.83077	-4.701	-33.0207	8.85712	2.60943	21.4479	-4.77188	-98.4747	0
0.5593	-58.7589	-3.45001	-4.701	1.16176	9.15821	10.5407	21.1366	-3.5414	-28.5635	0.322328
0.5600	-0.443225	-4.33462	-1.95487	-30.2727	12.8215	11.4678	22.0542	-5.67224	18.117	0
0.5607	70.6627	-4.60001	2.00142	-91.6002	25.643	7.17594	19.3015	-7.80308	44.0506	0
0.5613	141.135	-5.57309	1.6756	-96.493	30.5232	14.7982	10.7649	-7.50296	215.578	0
0.5620	182.672	-5.57309	2.6065	-25.6927	26.5588	34.3346	7.09469	-3.84152	335.749	0
0.5627	150.886	-3.09616	5.67844	49.6875	20.1481	47.7595	9.24112	1.35053	362.925	0
0.5633	41.3465	-4.33462	5.35263	114.701	5.49493	38.9355	5.57089	2.88114	435.904	0
0.5640	-30.6458	-6.81155	5.95771	165.349	1.83164	14.7982	2.8346	3.48137	471.554	-0.322328
0.5647	28.8096	-6.4577	9.02965	131.793	23.1966	-3.50213	4.04709	7.44294	393.753	0
0.5653	130.181	-6.19232	10.8449	43.5883	36.9339	-9.61369	0.393239	12.635	287.535	0
0.5660	204.327	-5.57309	12.9859	10.925	37.8497	-8.06864	-5.11211	15.6962	214.628	0
0.5667	229.97	-6.19232	15.7321	37.1763	39.9825	-6.55791	-8.15971	14.1656	136.535	0.322328
0.5673	231.173	-7.69617	13.2652	54.5803	32.3548	-7.75962	-13.3537	8.3733	39.1561	0.322328
0.5680	229.337	-7.96155	7.77294	39.0083	13.4362	-3.50213	-22.2016	4.08161	-45.3656	0
0.5687	134.107	-4.33462	3.81666	-2.79269	-5.48238	6.86692	-25.2492	10.5041	-141.503	0
0.5693	-12.347	5.39616	-3.81666	-57.1272	-16.1711	14.2145	-14.5662	22.719	-264.523	0
0.5700	-179.569	13.0923	-11.7292	-91.3097	-20.4366	12.9785	1.91704	30.9422	-314.272	0
0.5707	-541.24	11.2346	-11.45	-106.256	-32.3423	8.72099	8.63488	36.1343	-245.602	0
0.5713	-805.212	4.77693	-6.56279	-162.4	-45.7659	14.7982	6.19352	38.5652	-67.0622	0
0.5720	-527.817	-0.707694	-1.95487	-244.193	-43.0185	30.3861	2.52328	35.2039	101.689	0
0.5727	-70.0295	-4.95385	-0.139634	-215.193	-32.0412	37.6994	-6.63591	27.881	105.049	0
0.5733	87.1253	-6.4577	0.465446	-105.027	-29.2937	30.0771	-18.8427	23.3192	164.587	0
0.5740	98.7124	-9.55386	6.28352	-58.9592	-41.8016	25.7853	-27.0844	20.5581	344.296	0
0.5747	230.223	-19.2846	16.3371	-39.4104	-57.0569	21.5278	-33.1796	4.08161	323.549	0
0.5753	406.943	-26.627	20.6192	17.337	-53.7072	4.73818	-26.773	-14.5257	118.199	0
0.5760	380.413	-22.6462	19.6884	82.038	-37.5361	-12.0515	-4.19455	-14.2256	-19.7242	0
0.5767	118.278	-15.3039	12.6601	177.861	-30.2095	-33.4076	8.32356	-4.77188	-62.4599	0
0.5773	-83.7694	-6.19232	-1.6756	332.598	-23.1841	-49.2702	9.24112	4.08161	-118.637	0
0.5780	-75.5381	7.60771	-12.6601	450.382	-8.22984	-29.7338	19.0066	13.2352	-194.612	0
0.5787	-53.2503	16.9846	-20.5727	448.26	-4.56656	-3.50213	30.2958	14.1656	-236.106	-0.322328
0.5793	-245.546	21.5847	-29.4162	375.628	-13.7248	14.5235	33.9496	14.1656	-211.122	0
0.5800	-583.663	22.5577	-23.6446	304.827	-5.79602	49.6135	28.4607	25.45	-113.45	0.322328
0.5807	-729.548	11.2346	-3.49084	257.218	14.6531	50.1972	10.1587	33.7033	-42.0052	0
0.5813	-586.069	-7.69617	15.7321	218.142	29.6074	-22.7295	-7.24216	27.5809	-12.1267	0
0.5820	-184.761	-19.9039	32.8139	139.098	45.7785	-78.8666	-14.2549	19.3576	120.902	-0.322328
0.5827	372.752	-26.0077	39.5163	-10.7239	39.0667	-100.841	-15.4838	14.1656	282.713	0
0.5833	695.673	-29.9885	31.278	-202.682	22.5944	-164.326	-10.2898	4.38173	281.471	0
0.5840	686.492	-27.2462	21.2243	-322.008	34.8012	-234.196	-1.44188	-7.80308	185.334	0
0.5847	569.923	-19.9039	10.2398	-280.207	43.031	-251.913	-1.13056	-19.4177	117.249	0
0.5853	417.328	-9.81925	-6.84205	-164.232	30.2221	-230.248	-9.99483	-28.5713	62.679	0.322328
0.5860	99.029	1.76923	-19.6884	-73.3025	11.9057	-183.862	-14.8776	-25.8102	16.5829	-0.644656
0.5867	-417.644	5.75001	-22.1087	-42.4712	-4.8802	-119.45	-16.4014	-13.9255	6.20946	-1.61164
0.5873	-737.146	2.65385	-18.7575	-45.532	-24.0999	-49.8882	-18.5314	-5.072	16.8751	-0.322328
0.5880	-613.866	3.89231	-16.0113	-29.6472	-61.0338	19.7081	-19.7603	6.54258	20.82	0.644656
0.5887	-359.962	8.49232	-18.4317	-122.431	-85.4473	79.828	-21.2841	22.3888	19.6511	-0.322328
0.5893	-235.732	7.25386	-19.9676	-296.382	-70.1795	124.978	-20.3665	31.5424	0.0730525	-0.322328
0.5900	-94.1536	-0.0884617	-8.9831	-289.658	-36.0056	151.21	-10.6011	42.2267	-34.9921	0
0.5907	152.406	-8.3154	12.055	-136.171	5.19383	154.574	9.24112	52.3106	-72.2489	0
0.5913	268.404	-22.9116	29.742	3.61932	39.9825	141.459	19.9241	31.8726	-126.892	0
0.5920	263.529	-35.1193	40.1214	108.58	70.8067	106.06	15.959	-11.7947	-178.759	0.644656
0.5927	316.336	-35.1193	41.3781	162.311	102.547	57.8538	6.19352	-46.8785	-211.706	-0.644656
0.5933	350.464	-30.2539	27.3217	156.502	114.139	36.1887	-9.07727	-55.4319	-236.763	-2.2563
0.5940	199.704	-13.1808	5.02681	143.388	132.142	33.4419	-11.5186	-41.9866	-230.627	-0.966984
0.5947	-177.796	11.8539	-14.4754	147.655	163.581	-29.1158	0.999483	-24.2796	-204.109	0.644656
0.5953	-506.732	23.4423	-27.6009	132.999	154.422	-124.669	3.75216	-3.84152	-187.307	0
0.5960	-521.675	19.8154	-28.5318	93.03	126.346	-178.986	-4.19455	12.3349	-156.186	-0.322328
0.5967	-472.287	14.8616	-19.9676	88.45	107.427	-204.291	-8.76596	23.0191	-81.0882	0
0.5973	-460.067	9.99617	-14.4754	144.594	61.3475	-195.158	-5.11211	32.1727	-1.46105	0.322328
0.5980	-225.095	3.89231	-12.6601	193.723	8.55602	-146.918	-1.75319	30.342	10.7387	0.322328
0.5987	165.829	-1.59231	-4.42173	178.486	-33.2581	-88.343	2.52328	18.4273	-13.6608	0
0.5993	424.039	-10.1731	3.81666	141.243	-80.5546	-40.7209	13.5176	-1.41056	-17.8979	0
0.6000	382.25	-18.4	3.21158	81.122	-94.593	-7.75962	21.4479	-30.1019	-17.0212	0
0.6007	203.377	-19.6385	2.00142	-125.179	-78.1208	32.8239	22.9717	-49.6096	-9.35072	0
0.6013	166.462	-19.2846	2.28068	-365.038	-68.6615	79.519	23.283	-62.7548	15.0488	0
0.6020	246.116	-21.1423	2.28068	-389.77	-59.5033	92.9438	20.219	-73.7391	33.385	0.322328
0.6027	256.817	-15.9231	-0.465446	-251.833	-53.0925	86.2142	23.578	-59.0933	39.7405	0.322328
0.6033	83.1363	-4.95385	-7.44713	-126.386	-66.2151	128.652	39.455	-30.1019	43.3932	0
0.6040	-48.6914	1.50385	-12.9394	-57.7304	-85.1337	205.561	49.2204	-10.264	38.8639	0.322328
0.6047	51.0975	3.0077	-14.4754	-20.1967	-88.4959	232.72	43.7151	5.61221	24.1804	0.322328
0.6053	-43.8159	2.65385	-14.4754	8.48977	-83.6157	197.905	28.1658	15.0659	3.72568	0
0.6060	-397.193	-0.353847	-12.3343	39.6115	-66.5162	169.853	6.19352	12.3349	-18.8475	0.322328
0.6067	-513.761	-4.95385	-3.49084	68.0075	-31.7275	164.944	-16.6963	1.95077	-51.7942	0
0.6073	-455.192	-9.20002	9.02965	68.0075	-0.602184	136.583	-38.0623	-9.6338	-99.4244	0
0.6080	-392.317	-15.9231	18.7575	23.4362	21.6786	104.824	-50.2691	-16.3565	-126.527	0
0.6087	-121.633	-23.5308	25.1806	-38.8072	34.4876	109.115	-55.4631	-12.9951	-118.345	0
0.6093	151.519	-24.5039	26.7166	-77.5697	28.3904	119.175	-61.8696	-5.37212	-104.611	0
0.6100	180.202	-20.7885	19.0833	-78.7985	14.352	99.0554	-65.8348	-7.20284	-103.954	-0.322328
0.6107	123.47	-13.5346	6.8886	-58.6464	8.55602	63.0384	-59.4283	-9.96393	-68.5963	-0.322328
0.6113	82.2498	-5.57309	-1.6756	-44.3032	15.569	48.6865	-47.8277	-12.3949	35.7957	0
0.6120	89.2781	-5.57309	-1.34979	-33.9367	29.6074	56.9268	-47.5328	-26.7406	128.28	0
0.6127	60.2785	-7.69617	1.39634	-28.7312	37.235	67.6049	-58.822	-29.7717	141.064	0
0.6133	-42.8661	-5.83847	1.07053	-52.5472	31.439	61.4933	-62.7872	-11.7947	116.373	0
0.6140	-58.7589	-5.21924	-0.465446	-69.3257	12.8215	24.8926	-58.1994	2.55101	98.6939	-0.322328
0.6147	59.6454	-1.59231	-4.701	-48.5704	-3.34965	-22.7295	-47.5328	15.6962	92.2653	-0.322328
0.6153	203.377	9.73079	-11.7292	-44.9064	2.74746	-61.8023	-31.6558	43.157	92.2653	0.322328
0.6160	171.971	14.2423	-14.1961	-59.5624	19.2322	-80.7207	-26.1668	60.5339	91.3156	-1.28931
0.6167	-9.94089	4.77693	-7.44713	-59.8752	19.847	-79.4846	-20.0552	42.5268	93.1419	-2.2563
0.6173	-84.4026	-2.83077	5.02681	-56.8144	-1.21691	-84.6692	-4.48948	14.1656	90.7312	0
0.6180	-196.412	-3.45001	10.5191	-41.2424	-18.3039	-94.1455	3.12953	7.14282	64.5053	0.322328
0.6187	-395.673	-4.06924	7.77294	-4.93747	-3.04855	-92.9095	17.7777	15.3661	32.4353	-0.322328
0.6193	-149.683	-7.07694	10.8449	28.9322	28.9926	-60.5663	40.9788	17.827	14.4644	0
0.6200	376.108	-12.2962	20.6192	47.5651	32.6559	20.9098	40.6675	12.0347	1.02273	0
0.6207	492.106	-18.4	25.1806	54.2675	5.19383	73.0984	38.2261	10.204	-15.1949	-0.322328
0.6213	380.413	-24.15	28.2526	59.1603	-21.9672	50.8152	54.3981	12.3349	-21.5505	0
0.6220	539.404	-29.9885	37.7011	54.2675	-37.5361	47.1758	64.1635	3.78149	19.2859	0
0.6227	842.127	-32.7308	42.5883	40.237	-39.3552	84.3945	54.1032	-7.20284	78.8236	0.322328
0.6233	1106.1	-28.75	41.0523	37.1763	-46.9954	97.8193	37.6199	-7.50296	79.7733	0
0.6240	1221.78	-25.7424	42.8676	42.3595	-72.6258	58.1628	46.1565	-1.71068	51.3559	0
0.6247	890.945	-22.027	39.5163	47.2523	-98.871	-12.9442	67.5224	16.5965	43.7584	0
0.6253	385.605	-9.55386	22.4345	41.153	-97.9552	-56.8925	62.0335	46.8185	49.2374	0
0.6260	-412.452	9.37694	-0.139634	29.8482	-50.3451	-63.9311	40.9788	74.2793	52.89	0
0.6267	-1464.41	29.5462	-26.065	27.7258	-13.4237	-74.6091	26.6256	88.0247	43.101	0
0.6273	-1407.93	41.7539	-40.7265	3.61932	-7.01293	-51.7079	31.8196	89.8555	29.0749	0
0.6280	-363.951	32.9077	-29.1369	-32.3952	11.9057	11.4678	47.074	90.1556	11.104	0.322328
0.6287	285.816	12.7385	-10.8449	-20.7999	25.0283	-16.927	37.6199	78.2409	-24.3265	0.322328
0.6293	673.955	2.65385	-9.58818	19.169	27.4746	-127.999	9.53605	43.4571	-53.3283	0.322328
0.6300	1014.22	9.11155	-23.6446	35.9475	39.3677	-206.454	-9.3722	14.1656	-54.5702	0.322328
0.6307	530.54	17.9577	-34.0241	34.1378	44.5616	-269.595	-17.9252	8.3733	-51.2098	0.322328
0.6313	-511.608	21.9385	-33.0932	29.8482	45.7785	-340.702	-12.7311	14.4657	-51.7942	0
0.6320	-929.442	20.0808	-22.4345	21.6042	60.7327	-366.041	1.3108	12.635	-42.6626	0
0.6327	-569.607	11.5	-9.30892	20.6882	65.0107	-320.582	9.84737	6.21245	-36.8184	0
0.6333	-297.087	6.98847	-5.02681	20.085	50.6712	-298.917	26.3306	10.204	-34.4077	0
0.6340	-519.839	12.1193	-6.84205	-22.9447	29.6074	-304.994	53.1856	12.9351	-15.4871	0
0.6347	-688.644	16.1	-8.09876	-82.1497	-10.3751	-236.943	67.8338	4.38173	6.50167	0.322328
0.6353	-464.309	8.75771	-1.34979	-83.6689	-63.1665	-159.45	80.6468	-7.20284	20.82	0.322328
0.6360	-183.558	-4.06924	10.5191	-37.5784	-96.7383	-122.506	109.337	-14.5257	36.3801	0
0.6367	90.7977	-14.0654	20.0142	-0.044683	-55.84	-40.7209	131.309	-19.4177	52.89	0
0.6373	348.944	-21.1423	23.6446	11.5506	35.1023	86.5232	118.185	-32.833	60.4874	0
0.6380	396.243	-28.1308	27.3217	13.9858	84.5441	202.506	71.7989	-49.6096	54.7163	0
0.6387	383.769	-32.9962	30.3936	12.4666	103.463	316.634	29.3782	-54.2014	49.2374	0
0.6393	398.396	-29.9885	23.9705	6.97055	121.767	400.239	16.2539	-54.5015	49.2374	0.322328
0.6400	151.203	-19.0193	11.1707	-0.960685	109.259	368.204	4.3584	-56.3322	48.5799	0
0.6407	-378.894	-6.19232	-4.09592	-13.1815	65.9266	265.681	-19.1376	-41.0862	41.9321	-0.322328
0.6413	-593.098	7.87309	-20.2934	-21.7159	22.8955	191.21	-32.5733	-4.14163	33.385	0
0.6420	-356.289	19.1962	-30.6729	-25.6927	-15.2553	184.48	-36.2272	27.2808	32.4353	0.322328
0.6427	-240.354	21.3193	-33.6983	-18.3647	-47.2965	228.737	-36.5385	37.0346	33.385	0
0.6433	-214.394	15.2154	-28.8111	2.39054	-45.7659	202.197	-31.3444	35.534	29.6593	0
0.6440	-45.9054	9.37694	-16.9422	15.2146	-23.4977	99.6391	-20.0552	37.965	29.6593	0
0.6447	63.6344	5.75001	-9.58818	18.8786	-33.2581	22.1458	-8.15971	43.4571	26.2989	0.322328
0.6453	173.174	0.884617	-5.35263	35.3443	-57.3705	-66.6778	2.8346	39.4956	15.341	0
0.6460	212.558	-6.81155	2.93231	56.4123	-32.957	-145.716	2.52328	28.8114	8.03577	-1.93397
0.6467	-112.136	-11.9423	9.91399	54.8707	11.6046	-102.077	-15.1725	16.5965	4.67536	-0.966984
0.6473	-422.52	-10.7039	13.9168	54.5803	35.717	119.175	-26.773	5.91233	-3.57957	0.644656
0.6480	-214.077	-10.4385	21.2243	79.6028	60.1305	402.676	-31.9671	2.88114	-12.1267	0
0.6487	256.5	-15.0385	26.3908	89.0532	82.0977	388.668	-30.7382	1.05041	-14.8297	0
0.6493	558.59	-18.6654	26.9959	55.7867	101.631	81.0297	-9.3722	-6.90272	-14.2452	0.322328
0.6500	647.108	-15.0385	28.8576	16.1306	106.21	-101.768	17.7777	-7.80308	-9.64293	0
0.6507	603.165	-9.81925	24.9014	3.61932	56.4673	-117.939	33.0485	0.420166	-9.35072	0
0.6513	423.406	-7.43078	16.3371	11.5506	-6.3982	-103.588	36.0961	11.1044	-17.0212	0.322328
0.6520	211.038	0.265385	10.2398	20.3978	-13.4237	-36.1544	35.1785	24.2196	-26.1528	0.322328
0.6527	137.463	5.39616	5.02681	20.3978	37.5487	35.2617	33.3434	33.7033	-38.0603	0
0.6533	308.358	7.87309	-5.35263	13.3826	112.922	76.4632	23.8893	39.7957	-49.9679	0
0.6540	480.202	22.5577	-21.5036	11.2378	150.759	164.944	16.8601	55.3718	-50.5523	0
0.6547	-138.983	37.5078	-36.4444	11.5506	76.6028	262.935	25.1018	69.0873	-48.726	0
0.6553	-1143.96	34.4116	-41.0523	7.57377	-49.7429	231.484	29.9845	58.1029	-55.4468	0
0.6560	-1033.79	19.4616	-24.2497	10.6346	-114.126	118.866	25.4131	34.0034	-57.9306	0
0.6567	-323.617	2.03462	-2.6065	18.5658	-114.44	61.4933	18.6952	11.1044	-56.3965	0
0.6573	-170.135	-11.0577	5.35263	17.337	-89.7128	62.7294	5.27596	-11.7947	-64.2862	0.322328
0.6580	-139.299	-16.5423	8.42457	13.9858	-86.9653	75.8452	-16.09	-28.5713	-79.2619	0.322328
0.6587	-8.67454	-18.0462	12.6601	24.9778	-110.162	84.3945	-47.2215	-39.5556	-85.6906	0
0.6593	-14.8164	-19.2846	14.1961	44.1915	-105.282	68.2229	-76.8291	-42.2867	-82.0379	0
0.6600	-37.6741	-17.427	11.7758	49.0843	-63.4676	12.9785	-81.4005	-34.3636	-76.4859	0.322328
0.6607	1.64626	-12.9154	6.8886	35.9475	-33.2581	-61.8023	-54.8569	-31.0022	-71.007	0.322328
0.6613	50.211	-11.0577	2.93231	28.9322	-46.9954	-183.862	-22.8079	-34.3636	-72.2489	0
0.6620	115.492	-11.3231	3.21158	39.6115	-66.2151	-334.934	-9.07727	-30.7021	-73.783	0
0.6627	78.894	-8.3154	5.02681	42.6723	-60.118	-384.342	-5.40704	-14.2256	-67.0622	0
0.6633	-159.181	-3.45001	5.02681	28.329	-49.4292	-290.368	24.1842	5.01198	-58.2228	0
0.6640	-285.183	-3.71539	5.02681	15.8178	-43.3321	-122.506	87.6596	11.7046	-49.9679	0
0.6647	-164.626	-8.3154	5.95771	16.421	-40.271	1.99141	139.846	7.44294	-36.5262	0.322328
0.6653	-45.3355	-10.4385	9.63473	17.337	-21.6661	59.0555	135.586	4.38173	-19.7242	0.322328
0.6660	-10.5108	-12.5616	15.7321	10.009	21.6786	135.965	87.6596	2.88114	-13.3686	0.322328
0.6667	-10.5108	-18.0462	19.0833	3.90976	68.3604	180.222	36.391	-3.5414	-20.6738	0
0.6673	-24.8839	-22.9116	20.8985	5.74177	111.705	155.811	-7.24216	-10.8643	-29.5132	0
0.6680	-36.7876	-23.2654	23.9705	12.4666	122.996	146.643	-31.0495	-8.43333	-33.458	0
0.6687	-29.7594	-21.1423	22.7603	14.2986	87.2915	195.467	-45.3864	-2.01079	-31.3395	0
0.6693	-45.0189	-16.277	16.9422	11.5506	53.4062	290.402	-83.8419	4.38173	-18.8475	0
0.6700	-53.2503	-8.58078	10.8449	12.757	72.6384	331.295	-127.786	13.5353	-3.87178	0
0.6707	-9.30772	-4.06924	3.53739	13.9858	127.876	260.462	-161.048	19.0575	-1.09579	0
0.6713	33.4318	-3.09616	-3.21158	10.3218	169.69	182.042	-184.544	21.4885	-7.5244	0
0.6720	59.3288	-4.95385	-1.6756	9.71855	172.739	146.025	-193.703	25.1499	-12.4189	0
0.6727	102.068	-11.3231	11.45	13.673	125.129	33.7509	-192.179	24.2196	-13.0033	0
0.6733	150	-18.0462	22.7603	10.925	70.8067	-203.982	-163.194	19.6578	-7.5244	0
0.6740	91.3676	-19.6385	21.8294	-2.50225	14.9542	-473.783	-98.49	18.7274	5.91725	-0.322328
0.6747	-28.5563	-15.3039	12.055	-16.2199	-62.5518	-651.396	-8.47103	21.7886	19.9433	0
0.6753	-16.0194	-6.4577	1.6756	-22.3415	-98.871	-725.559	105.667	26.6805	26.0067	0
0.6760	103.904	0.265385	-9.58818	-24.7767	-66.5162	-780.186	191.114	28.2111	26.0067	-1.61164
0.6767	71.2325	3.62693	-17.5473	-27.212	-22.883	-614.143	181.349	26.9806	26.6642	-1.93397
0.6773	-160.067	11.8539	-17.2215	-18.3647	3.36219	-230.557	139.239	31.5424	27.833	0
0.6780	-202.174	15.4808	-16.9422	-3.41825	20.7628	-86.7979	144.728	34.0034	24.8378	0.322328
0.6787	-27.29	9.73079	-19.9676	2.39054	1.83164	-152.102	163.964	25.45	14.0991	0
0.6793	-25.2005	6.01539	-17.2215	5.74177	-52.4778	-74.6091	143.205	16.8967	2.55684	0
0.6800	-113.655	3.0077	-7.16786	9.40577	-97.0394	140.257	87.9709	15.9963	1.31494	0
0.6807	-5.63528	-3.45001	-1.34979	7.26099	-121.453	327.621	38.2261	13.5353	4.38315	0
0.6813	183.558	-9.81925	2.28068	6.97055	-107.716	431.38	4.04709	1.65065	3.72568	0.322328
0.6820	236.935	-14.4193	12.3809	13.673	-43.0185	472.891	-29.8206	-15.7562	1.60715	0
0.6827	164.31	-20.1693	20.0142	11.841	24.7272	463.414	-58.5107	-38.025	0.0730525	-0.322328
0.6833	67.8767	-26.627	20.8985	1.78732	94.3045	429.56	-74.994	-61.2242	-0.511367	0
0.6840	-52.6171	-25.7424	17.268	-1.58625	186.464	396.908	-96.0487	-64.8856	-3.28736	0
0.6847	-164.626	-18.6654	9.63473	0.871319	224.614	338.299	-116.186	-46.8785	-7.23219	0
0.6853	-140.819	-13.5346	5.67844	5.13855	162.665	247.038	-115.58	-31.6025	-6.93998	0
0.6860	-28.5563	-12.5616	5.95771	4.53533	73.8553	184.789	-104.29	-27.941	-2.04547	0
0.6867	37.6741	-11.9423	5.95771	-2.50225	-4.56656	142.386	-96.6549	-23.6793	4.67536	0.322328
0.6873	38.3073	-9.55386	5.35263	-5.85347	-101.92	43.811	-75.2889	-17.5869	8.62019	0
0.6880	14.4998	-10.1731	3.81666	-7.3727	-196.826	-30.6608	-33.7858	-17.2868	3.72568	0
0.6887	11.1439	-12.5616	1.07053	-1.87669	-234.375	-24.8583	-9.99483	-16.9567	-6.93998	-0.966984
0.6893	37.6741	-10.1731	2.00142	11.841	-209.033	-37.3561	-4.19455	-12.9951	-8.7663	-0.966984
0.6900	29.7594	-6.4577	3.81666	13.9858	-151.361	-124.669	16.5652	-12.3949	-3.57957	0
0.6907	-49.5778	-8.93463	1.39634	3.30654	-88.4959	-233.304	29.0669	-17.2868	-4.16399	0
0.6913	-101.498	-10.1731	-1.07053	-2.79269	-56.1411	-245.493	24.8068	-18.4873	-8.47409	-0.322328
0.6920	-79.7804	-6.81155	-2.6065	-0.044683	-57.9727	-222.008	21.7429	-14.8258	-12.7111	0
0.6927	-40.7133	-3.09616	-5.02681	-0.044683	-68.0467	-231.175	29.0669	-12.9951	-15.4871	-0.322328
0.6933	-20.8949	-1.32693	-2.6065	-5.25025	-57.0569	-177.441	68.1287	-12.695	-10.5926	-0.322328
0.6940	-52.0472	-0.707694	1.39634	-2.50225	-19.5208	-95.3472	93.7712	-11.7947	-8.18188	0
0.6947	-84.9725	-3.09616	0.465446	1.16176	17.7017	-54.1457	82.7768	-12.3949	-13.3686	0
0.6953	-27.6066	-5.57309	-0.744713	-1.58625	53.7198	-28.8411	95.6063	-14.2256	-12.1267	0
0.6960	72.7521	-4.95385	-1.07053	1.16176	82.3988	35.8797	99.8664	-13.6254	-13.0033	0
0.6967	103.018	-4.06924	-0.465446	11.841	80.2661	197.63	46.1565	-12.9951	-26.7372	0
0.6973	54.1367	-5.57309	1.6756	21.917	76.9164	391.689	-11.8136	-13.6254	-41.4208	0
0.6980	-3.22921	-6.81155	2.6065	25.581	106.21	483.569	-29.8206	-13.9255	-46.0231	0
0.6987	-32.2288	-7.43078	2.28068	24.665	112.621	425.887	-27.6906	-16.0563	-44.489	0
0.6993	-36.1545	-8.3154	4.74755	22.2298	59.2147	304.136	-22.4966	-18.7874	-42.9549	0
0.7000	-28.2397	-7.96155	7.49368	19.7946	16.1837	216.239	-15.1725	-18.4873	-40.8363	0
0.7007	-20.325	-7.43078	3.81666	16.421	16.4848	118.557	-18.5314	-19.4177	-39.3022	0
0.7013	-14.8164	-5.57309	2.00142	16.421	4.89274	2.91844	-11.8136	-17.8871	-34.1155	-0.322328
0.7020	-5.31869	-1.59231	5.95771	21.3138	-26.5463	-79.7937	10.1587	-12.695	-27.9791	-0.322328
0.7027	2.59603	-2.83077	2.6065	19.4818	-49.1281	-128.308	11.0762	-14.5257	-31.9239	0
0.7033	6.26846	-3.09616	-4.42173	12.757	-63.4676	-135.347	-7.24216	-16.3565	-32.2892	0
0.7040	14.8164	0.53077	-3.49084	10.009	-67.7457	-120.377	-26.4617	-10.5642	-20.9661	0
0.7047	22.4145	-1.32693	-2.6065	9.71855	-58.8885	-90.7807	-42.6501	-9.96393	-18.5553	0
0.7053	21.2115	-6.19232	-3.49084	12.4666	-40.5847	-67.8795	-42.3388	-13.2952	-26.1528	-0.644656
0.7060	15.7028	-8.3154	-1.34979	16.421	-26.5463	-92.2915	-25.2492	-12.695	-29.221	-1.93397
0.7067	12.0304	-6.4577	2.28068	15.505	-21.6661	-136.549	-3.27699	-11.7947	-25.8606	-1.61164
0.7073	9.94089	-4.33462	2.93231	8.48977	-14.6406	-158.832	11.6825	-14.5257	-23.0846	0
0.7080	8.35795	-5.21924	0.465446	1.16176	1.22946	-149.081	16.2539	-16.9567	-21.9157	0
0.7087	11.7771	-5.57309	-1.07053	0.245757	28.0768	-120.995	14.4188	-15.7562	-20.0894	0
0.7093	15.7028	-4.60001	-2.28068	3.90976	54.322	-13.2532	3.12953	-14.8258	-20.3816	0
0.7100	17.8556	-4.33462	-1.6756	9.40577	68.3604	152.137	-13.0424	-13.2952	-22.208	0
0.7107	19.3752	-4.33462	-2.28068	10.6346	73.2531	181.149	-19.7603	-11.7947	-23.7421	0
0.7113	17.2224	-3.09616	-3.49084	7.88655	68.674	112.48	-19.449	-10.5642	-22.5002	0
0.7120	9.30772	-2.47693	-2.88576	8.17699	55.5514	107.879	-31.6558	-10.5642	-20.9661	0
0.7127	-2.27944	-4.60001	-2.6065	10.009	44.2605	143.278	-52.4155	-12.695	-24.6187	0
0.7133	-6.58505	-5.21924	-2.6065	10.6346	34.4876	156.703	-60.0345	-11.7947	-26.1528	-0.322328
0.7140	-2.27944	-3.45001	-0.139634	8.80255	25.9441	130.781	-52.4155	-8.73345	-18.5553	0
0.7147	-1.70958	-4.06924	0.465446	3.90976	22.5944	110.935	-44.1739	-9.03356	-12.7111	0
0.7153	-4.11566	-5.57309	-1.07053	2.07776	20.7628	126.214	-44.1739	-10.264	-13.3686	0
0.7160	-1.39299	-4.95385	-2.6065	3.61932	17.0995	46.8668	-42.6501	-9.03356	-13.3686	-0.322328
0.7167	7.15491	-3.45001	-3.21158	4.53533	3.66328	-120.377	-35.326	-6.60261	-9.64293	0
0.7173	13.8666	-3.09616	-2.6065	3.61932	-11.592	-191.484	-30.132	-5.97236	-7.5244	0
0.7180	12.6636	-3.45001	-2.28068	1.16176	-14.9417	-176.24	-18.2365	-5.97236	-6.64778	-0.322328
0.7187	14.4998	-1.32693	-3.21158	0.245757	-15.5564	-152.411	5.57089	-4.77188	-2.62989	0
0.7193	21.8446	-0.353847	-5.02681	0.245757	-23.1841	-128.308	23.578	-4.14163	-0.803577	0.322328
0.7200	26.4035	-1.8577	-5.02681	-2.50225	-22.2682	-109.081	31.8196	-5.37212	-0.219157	0
0.7207	29.4428	-2.47693	-3.49084	-4.93747	0.614729	-95.6563	23.283	-5.37212	2.19157	0.322328
0.7213	25.7703	-4.60001	-2.6065	-4.93747	17.0995	-99.9481	-7.55347	-6.60261	4.38315	0
0.7220	14.8164	-7.43078	0.465446	-5.54069	10.074	-117.63	-22.4966	-8.1032	8.32798	0
0.7227	9.30772	-7.43078	3.81666	-5.85347	13.1351	-144.789	-6.02967	-7.80308	12.9303	0
0.7233	10.8273	-6.19232	7.16786	-3.41825	29.9084	-164.944	5.57089	-5.67224	12.2728	0
0.7240	15.133	-6.81155	12.9859	-0.670245	20.7628	-110.935	-2.04812	-4.14163	8.32798	0
0.7247	20.0084	-7.07694	18.1524	-1.27347	1.22946	-4.42917	-11.2073	-4.14163	9.27766	0
0.7253	17.539	-6.4577	17.268	-5.25025	-8.54348	49.6135	-4.48948	-5.37212	11.104	0
0.7260	14.4998	-7.69617	15.7321	-10.1207	-24.0999	45.0127	17.7777	-8.43333	7.74356	0
0.7267	28.2397	-4.33462	22.4345	-5.54069	-38.753	52.3603	35.1785	-7.20284	5.55199	0
0.7273	38.6239	2.38847	17.268	3.30654	-47.5976	55.9998	30.2958	-3.24128	0.365262	-0.322328
0.7280	25.2005	4.77693	-13.2652	1.47454	-35.0897	-32.7896	19.6128	-4.44175	-9.35072	-0.322328
0.7287	8.99113	6.98847	-34.955	-3.10547	4.5791	-158.214	31.5083	-3.84152	-7.5244	0
0.7293	6.83832	5.75001	-24.2497	0.245757	35.4034	-210.403	49.5154	-3.24128	0.0730525	0
0.7300	16.336	-3.71539	-8.9831	2.07776	28.6915	-204.909	47.9916	-11.1644	0.0730525	0
0.7307	20.2617	-8.3154	-9.30892	0.558538	-10.0615	-160.343	26.3306	-16.3565	-2.99515	0
0.7313	12.6636	-4.06924	-11.1242	2.07776	-40.5847	-89.5447	2.52328	-11.7947	-3.87178	0
0.7320	10.5108	-0.0884617	-6.84205	5.45133	-48.5134	-48.6522	-4.48948	-6.90272	-2.99515	0
0.7327	15.7028	0.265385	-4.701	3.30654	-44.549	-38.5921	-1.44188	-7.80308	-3.28736	-0.322328
0.7333	17.8556	-0.973079	-4.701	-5.25025	-32.957	-23.0385	10.1587	-11.4645	-1.46105	-0.322328
0.7340	25.2005	-2.83077	0.791258	-9.2047	-24.4135	21.8368	13.2063	-13.2952	1.02273	0
0.7347	41.9797	-7.07694	12.3809	-5.54069	-17.087	99.9481	-19.7603	-18.7874	-4.4562	0
0.7353	55.7197	-10.4385	21.8294	-0.670245	-5.48238	141.15	-52.1042	-23.9795	-8.7663	0
0.7360	43.4993	-9.81925	13.2652	1.16176	4.27801	134.454	-61.2634	-20.318	-9.35072	0
0.7367	12.347	-4.60001	-2.88576	2.70332	14.9542	130.472	-62.7872	-9.03356	-8.47409	-0.322328
0.7373	-3.48248	-1.8577	-2.28068	4.53533	26.8599	96.5833	-49.6628	1.35053	-6.35557	0
0.7380	-0.759813	-6.4577	9.63473	1.16176	22.2808	14.7982	-29.5257	0.720284	-6.93998	0
0.7387	8.10468	-8.93463	19.4091	-3.41825	15.569	-45.5964	-5.11211	-4.77188	-6.93998	0
0.7393	13.2967	-6.81155	17.8731	-3.70869	23.5103	2.30042	27.5431	-5.97236	-2.62989	-0.644656
0.7400	3.22921	-4.33462	1.07053	0.558538	31.1379	119.484	50.4329	-4.14163	-0.511367	-1.61164
0.7407	-16.9692	-0.707694	-11.7292	7.57377	31.439	148.772	58.0683	0.120047	-4.16399	-0.966984
0.7413	-27.6066	3.27308	-11.45	9.09299	19.847	78.5919	52.5794	4.71186	-9.64293	0.322328
0.7420	-16.336	3.89231	-9.58818	5.74177	4.5791	25.2016	38.8324	6.21245	-10.0082	0
0.7427	-3.79907	0.53077	-6.84205	2.07776	-2.13273	14.7982	19.6128	5.3121	-10.0082	-0.322328
0.7433	-3.22921	-3.71539	0.791258	2.70332	-10.6762	16.9613	-2.96568	4.71186	-12.4189	0
0.7440	-5.63528	-3.71539	12.9859	6.97055	-23.7988	15.1072	-9.99483	1.65065	-9.05851	0
0.7447	-16.0194	-5.21924	24.5755	7.26099	-19.5208	3.81114	-7.24216	-4.77188	-5.69809	0
0.7453	-20.8949	-7.96155	27.3217	2.39054	10.9899	-5.01286	-13.6487	-4.44175	-6.64778	0
0.7460	-23.9341	-3.09616	19.6884	0.245757	36.9339	-7.75962	-14.5662	2.25089	-3.87178	0
0.7467	-33.4318	3.27308	13.591	3.30654	41.513	-18.7467	-2.04812	5.01198	-0.219157	0
0.7473	-27.9231	5.39616	13.2652	7.26099	40.5972	-39.8282	12.895	2.55101	1.02273	0
0.7480	-29.4428	4.77693	1.39634	2.99376	32.6559	-48.3431	27.8544	0.120047	1.31494	0.322328
0.7487	-44.3858	5.75001	-18.1524	-2.18947	18.6175	-35.2273	35.1785	-3.84152	1.31494	0
0.7493	-31.9122	6.36924	-27.9267	-2.79269	8.24239	-22.1115	29.9845	-11.1644	0.365262	0
0.7500	-3.48248	4.77693	-30.0678	-2.79269	-9.14566	-11.7424	13.2063	-16.9567	-0.511367	0
0.7507	12.6636	3.62693	-28.5318	-0.670245	-27.4621	-34.9183	-19.1376	-15.7562	-0.219157	0
0.7513	14.4998	2.03462	-24.2497	1.78732	6.41075	-118.557	-50.8753	-15.7562	-2.62989	0
0.7520	8.67454	3.27308	-20.2934	1.47454	79.0491	-166.145	-61.5583	-14.2256	-2.04547	0
0.7527	5.95187	8.75771	-19.3625	1.78732	98.8836	-143.862	-63.3934	-7.20284	1.02273	-0.322328
0.7533	5.95187	9.37694	-19.0833	1.47454	61.6485	-124.944	-68.8824	-6.90272	-1.46105	0
0.7540	11.7771	5.13078	-14.8012	-1.27347	6.10965	-126.489	-72.2413	-14.5257	-3.28736	0
0.7547	32.482	1.76923	-3.49084	0.245757	-48.827	-126.489	-69.1937	-16.6566	-0.219157	0
0.7553	52.3638	-1.32693	7.77294	4.22254	-89.1106	-110.626	-63.0821	-13.6254	-0.511367	0
0.7560	49.5778	-5.21924	7.77294	2.07776	-116.874	-77.3559	-45.0914	-16.6566	-3.57957	0.322328
0.7567	40.1435	-4.95385	2.93231	-1.27347	-126.647	-55.3817	-1.13056	-19.7178	0.730525	0.322328
0.7573	32.482	1.15	-3.49084	-2.79269	-112.909	-53.562	45.8615	-13.6254	8.03577	0.322328
0.7580	18.4888	3.62693	-12.6601	-7.99826	-79.9524	-52.326	64.1635	-11.1644	7.08609	0
0.7587	12.0304	0.884617	-13.2652	-11.3495	-42.4163	-36.1544	61.7222	-18.4873	4.96757	0
0.7593	13.8666	0.884617	-6.84205	-8.2887	-12.2068	3.53647	64.4748	-19.7178	5.55199	0
0.7600	10.8273	0.53077	-4.09592	-4.33425	1.83164	17.545	65.3924	-18.4873	1.31494	0.322328
0.7607	13.8666	-2.47693	-1.95487	-2.18947	-7.62766	6.55791	40.0612	-26.4404	-6.93998	0.322328
0.7613	30.076	-4.60001	1.07053	-0.357464	-19.5208	51.4333	6.48845	-31.0022	-10.0082	0
0.7620	49.8944	-4.60001	5.95771	0.871319	-5.18129	118.283	-3.58831	-26.4404	-5.40588	0
0.7627	55.4031	-4.33462	6.28352	-1.58625	14.352	104.24	-4.8008	-21.8486	-2.33768	0
0.7633	42.8661	-1.59231	-0.139634	-2.79269	9.15821	28.5321	-7.24216	-17.2868	-2.33768	0
0.7640	27.9231	1.15	-4.42173	2.70332	-7.62766	-25.7853	-3.58831	-12.3949	-1.75326	0
0.7647	18.4888	-2.21154	-6.84205	6.05455	-16.4722	-34.0256	-5.40704	-11.4645	-5.69809	0
0.7653	13.8666	-8.93463	-8.09876	5.45133	-15.8575	-18.163	-2.67075	-11.1644	-10.8848	-0.644656
0.7660	10.8273	-10.7039	-8.9831	5.74177	-16.4722	-3.50213	12.895	-5.37212	-11.5423	-1.61164
0.7667	9.6243	-3.45001	-13.2652	4.82576	-24.0999	-7.17594	20.8417	0.120047	-7.81661	-0.966984
0.7673	11.7771	2.38847	-13.591	1.78732	-29.5948	-26.0943	15.959	-2.31091	-5.40588	0
0.7680	13.8666	7.87309	-0.465446	-0.960685	-22.2682	-26.987	2.21197	-11.1644	-6.35557	0
0.7687	15.3862	20.3462	10.8449	-0.960685	0.614729	-1.06437	-10.9124	-26.4404	-7.23219	-0.322328
0.7693	16.0194	11.5	4.42173	0.871319	19.5333	14.5235	-13.96	-34.6637	-6.93998	0.322328
0.7700	14.1832	-7.43078	-7.16786	2.70332	21.0639	5.3562	-6.63591	-14.8258	-6.35557	0.322328
0.7707	9.6243	-0.0884617	-13.591	1.16176	21.365	-7.17594	5.57089	8.97354	-7.5244	0
0.7713	8.10468	6.98847	-8.70384	-1.27347	26.2452	-5.93989	12.895	7.74306	-8.18188	0
0.7720	8.99113	1.50385	3.21158	-1.27347	26.8599	23.3475	14.1238	0.720284	-6.35557	0
0.7727	5.00211	-0.0884617	4.74755	-0.960685	20.4492	53.562	16.8601	-1.71068	-5.69809	0
0.7733	0.759813	-0.973079	-2.88576	1.78732	14.352	33.1329	22.3655	-13.9255	-6.93998	0
0.7740	1.39299	1.76923	-10.1933	5.13855	10.6888	-8.06864	22.6604	-24.2796	-5.69809	0
0.7747	-0.759813	6.98847	-1.6756	3.61932	-4.26547	-24.8583	15.6476	-25.8102	-4.16399	0
0.7753	-4.74883	2.38847	31.6038	0.245757	-25.3293	-28.2231	7.406	-26.1103	-6.64778	0.322328
0.7760	-1.39299	-2.47693	38.632	0.558538	-26.8473	-23.9312	-2.96568	-9.33368	-7.23219	0
0.7767	6.83832	3.62693	6.8886	1.47454	-14.3395	-11.7424	-13.0424	11.7046	-3.87178	0
0.7773	18.4888	9.99617	-13.8703	-0.960685	-7.01293	2.91844	-18.2365	5.3121	-3.28736	0
0.7780	32.1654	11.2346	-24.2497	-4.33425	-3.65074	24.8926	-19.1376	-18.7874	-4.16399	0
0.7787	34.6348	4.51155	-15.0804	-4.33425	0.915821	47.4504	-15.4838	-32.5328	-1.46105	0.322328
0.7793	27.29	-9.20002	34.0241	-2.79269	4.89274	57.2358	-13.0424	-5.97236	-1.09579	0.322328
0.7800	24.5673	-1.32693	63.9523	-3.10547	5.80856	53.253	-13.96	34.0034	-4.82146	0
0.7807	26.7201	16.1	41.3781	-2.79269	6.41075	43.811	-13.6487	34.0034	-4.82146	0
0.7813	24.2507	11.5	6.56279	-1.58625	6.41075	34.0256	-12.7311	9.27366	-3.28736	0
0.7820	12.0304	-1.32693	-20.2934	-2.79269	4.27801	13.2875	-12.7311	8.67342	-5.40588	0
0.7827	-2.91262	-10.4385	-27.6009	-2.50225	3.36219	-7.17594	-9.68352	73.3489	-4.82146	0.322328
0.7833	-10.8273	-11.3231	-9.91399	-0.960685	2.74746	-8.99567	-6.3246	125.239	-0.219157	0.322328
0.7840	-9.94089	-0.353847	15.4063	-2.18947	-0.301092	-4.42917	-9.3722	60.864	-0.511367	0
0.7847	-7.15491	7.25386	34.3499	-2.18947	-1.518	-6.55791	-12.4362	6.54258	-2.04547	0
0.7853	-0.443225	5.39616	33.419	0.245757	-1.8191	-34.0256	-9.3722	29.7117	-0.511367	-0.322328
0.7860	14.4998	1.50385	10.5191	-1.27347	-6.71184	-80.9954	-8.76596	26.6805	-1.46105	0
0.7867	16.6526	-3.45001	-2.28068	-3.41825	-10.9773	-104.206	-9.68352	-4.77188	-3.28736	0
0.7873	9.94089	-9.20002	20.8985	-1.87669	-8.84457	-101.768	-4.48948	-38.025	-1.46105	0.322328
0.7880	22.0979	-13.1808	54.5037	-1.87669	-7.31402	-96.8923	0.999483	-40.7861	-0.511367	0.322328
0.7887	30.076	-9.55386	39.8422	-2.50225	-8.84457	-85.9052	-0.835633	-6.60261	-2.04547	0
0.7893	-5.95187	4.51155	-21.1778	-0.044683	-6.3982	-71.8624	-0.22939	6.54258	-0.511367	0
0.7900	-52.9337	16.7193	-62.0905	-0.357464	-1.21691	-63.313	5.8822	-7.20284	2.19157	0.644656
0.7907	-45.9054	13.3577	-55.6673	-4.02147	2.44637	-55.3817	6.19352	-38.6252	1.31494	0.644656
0.7913	-16.336	2.03462	-34.955	-5.25025	6.10965	-41.9569	0.0819248	-73.1088	-1.09579	-0.644656
0.7920	-21.8446	-2.47693	-24.2497	-2.79269	8.85712	-16.927	-3.58831	-77.7007	-1.46105	-1.28931
0.7927	-36.7876	7.60771	-29.1369	-1.58625	7.32657	10.5407	-4.48948	-65.4858	0.365262	-0.322328
0.7933	-26.7201	13.9769	-49.57	-2.79269	4.27801	15.4162	-4.48948	-68.8472	1.89936	0.322328
0.7940	0.126636	14.2423	-63.0214	-2.18947	3.36219	10.2317	-3.58831	-96.0079	1.89936	-0.322328
0.7947	7.4715	36.8885	-58.1342	-2.18947	0.915821	20.0171	-4.8008	-92.6466	-1.09579	0
0.7953	-3.22921	60.9501	-48.9649	-3.70869	-0.903275	28.2574	-6.02967	-12.695	-2.33768	0
0.7960	-10.5108	42.3731	-41.9367	-4.02147	-0.903275	21.8368	-4.48948	56.8724	0.365262	0.322328
0.7967	-12.9801	-2.47693	-16.3371	-4.62469	-1.518	3.53647	-3.58831	41.3263	1.02273	0.322328
0.7973	1.0764	-18.6654	45.9395	-3.70869	-1.518	-24.2402	-3.88324	-4.44175	-0.803577	-1.61164
0.7980	24.2507	-10.7039	84.9904	-0.357464	-0.602184	-37.3561	0.393239	-2.94116	0.365262	-1.93397
0.7987	26.7201	-5.21924	46.8704	-0.960685	-3.34965	-29.1158	4.65333	20.258	1.60715	-0.322328
0.7993	13.8666	13.9769	1.07053	-4.33425	-7.62766	-9.30468	-0.835633	-17.5869	0.0730525	0.322328
0.8000	4.11566	25.5654	2.00142	-2.50225	-6.71184	19.09	-11.2073	-75.2697	0.0730525	0
0.8007	-4.11566	-0.707694	12.055	-1.27347	-4.26547	41.0642	-20.6778	-76.7703	-0.803577	0.322328
0.8013	-6.58505	-4.33462	11.45	-2.18947	-3.65074	41.9569	-27.0844	-46.2783	-3.28736	0.322328
0.8020	1.39299	20.7	2.93231	-0.960685	-1.8191	33.4419	-25.5605	-2.61103	-1.46105	0
0.8027	7.4715	2.38847	-9.58818	-0.670245	1.22946	30.6952	-18.8427	43.157	2.55684	0
0.8033	5.95187	-25.1231	-11.45	-4.62469	-0.602184	15.4162	-14.5662	37.965	1.02273	0.322328
0.8040	10.8273	-6.19232	1.39634	-5.85347	-3.04855	-9.92271	-11.2073	-2.01079	0.0730525	0
0.8047	23.0477	10.8808	15.7321	-4.02147	-1.518	-19.0557	-7.55347	-32.2327	2.55684	0
0.8053	20.8949	3.89231	24.5755	-5.25025	-1.8191	-21.1845	-2.67075	-39.5556	-0.803577	0
0.8060	7.4715	-0.707694	24.5755	-4.62469	-3.04855	-20.2918	8.63488	-20.318	-1.75326	0
0.8067	-3.22921	-11.0577	15.7321	-2.18947	-3.04855	-4.12015	18.6952	2.88114	4.09094	0
0.8073	-13.8666	-24.7693	8.70384	-3.10547	-5.79602	16.9613	16.2539	10.5041	3.72568	0
0.8080	-12.9801	-19.6385	4.42173	-4.62469	-7.01293	39.5191	6.79976	0.720284	-2.33768	0
0.8087	4.11566	-11.6769	-2.88576	-1.87669	-1.8191	63.9311	7.71732	-3.5414	-1.75326	0
0.8093	12.347	-13.1808	-16.6164	-0.044683	2.44637	72.7894	15.6476	11.7046	0.0730525	0.322328
0.8100	14.4998	-13.8	-34.3034	-2.18947	3.0611	68.2229	13.8125	17.5269	-2.04547	0
0.8107	27.29	-7.69617	-34.955	-1.27347	7.9413	68.2229	6.79976	-16.9567	-0.511367	0
0.8113	43.1827	24.6808	-1.95487	1.47454	15.2679	77.6649	3.44084	-77.4005	1.89936	0
0.8120	41.3465	62.1886	31.6038	-0.357464	13.4362	81.0297	-0.835633	-93.877	-0.511367	-0.322328
0.8127	15.7028	69.7963	33.1397	-2.50225	7.02547	69.7336	-5.11211	-39.8557	-2.04547	0.322328
0.8133	-7.15491	55.4655	31.883	-1.58625	6.10965	53.562	-5.40704	30.342	0.0730525	0.322328
0.8140	-2.27944	28.927	44.1243	-1.58625	7.32657	35.5707	-6.93084	84.3633	-1.75326	-0.322328
0.8147	17.8556	29.8116	34.0241	-2.50225	5.19383	20.2918	-9.3722	88.625	-4.82146	-0.322328
0.8153	25.4538	19.1962	-3.81666	-0.670245	7.02547	12.9785	-6.02967	78.8711	-1.46105	0
0.8160	6.83832	-37.9501	-38.3062	-0.670245	10.3877	6.28324	-3.27699	139.885	1.89936	0
0.8167	-16.0194	-45.5578	-44.4035	-4.62469	7.9413	-0.137338	-7.24216	161.854	-1.09579	0
0.8173	-16.9692	-11.0577	-28.5318	-4.33425	4.27801	0.789696	-6.93084	42.5268	-0.511367	0
0.8180	-15.3862	-2.83077	-15.6855	-4.02147	2.74746	1.37338	-4.48948	-95.7078	1.89936	0
0.8187	-21.2115	-12.9154	-11.7292	-7.68548	1.53055	-4.12015	-7.8484	-121.338	-0.803577	0
0.8193	-13.6133	-23.2654	-1.34979	-5.85347	3.0611	-6.55791	-7.55347	-57.8628	-0.219157	0
0.8200	-0.443225	-19.0193	12.6601	-0.357464	5.49493	-4.42917	-1.44188	-12.695	4.38315	0.322328
0.8207	1.0764	-7.07694	5.35263	-1.58625	3.66328	-6.55791	-0.524319	-17.5869	3.14126	0.322328
0.8213	-0.759813	-16.5423	-8.9831	-4.33425	0.614729	-9.61369	-3.27699	-18.7874	-1.46105	0.322328
0.8220	2.59603	-24.5039	-11.45	-2.50225	0.614729	-7.45061	-1.44188	-9.33368	-1.09579	0.322328
0.8227	3.79907	-13.8	-8.37802	-1.58625	0.313637	-7.75962	-1.44188	-10.264	-0.803577	0
0.8233	1.96285	-7.69617	-4.09592	-1.58625	-1.21691	-10.1974	-5.71835	1.95077	-3.57957	0.322328
0.8240	8.67454	-2.21154	-0.465446	2.07776	0.313637	-8.06864	-4.48948	1.05041	-1.46105	0
0.8247	20.0084	-5.21924	-11.7292	3.90976	1.83164	-7.17594	-2.35944	-48.7092	1.60715	0
0.8253	23.3643	-12.2962	-36.7702	-0.357464	-0.602184	-10.5064	-6.3246	-75.2697	-1.09579	0.322328
0.8260	22.0979	-0.353847	-12.9394	-3.10547	-1.8191	-12.3605	-8.15971	-70.3778	-2.99515	-1.28931
0.8267	21.528	3.89231	44.4035	-2.50225	0.0125455	-11.1244	-5.40704	-74.3393	-1.09579	-1.93397
0.8273	13.55	-10.7039	47.1497	-3.70869	-0.903275	-12.6695	-6.02967	-63.0549	-2.33768	-0.322328
0.8280	5.31869	-9.55386	19.6884	-4.93747	-1.8191	-14.1802	-8.47103	-54.5015	-1.46105	0.644656
0.8287	7.78809	8.13848	3.81666	-3.10547	-0.301092	-10.8154	-6.63591	-69.4474	4.09094	0
0.8293	6.58505	2.38847	-7.77294	-4.62469	-1.21691	-9.61369	-7.8484	-54.8016	2.55684	0.322328
0.8300	2.59603	-9.55386	2.6065	-5.85347	-2.43383	-8.37765	-11.2073	-6.90272	-1.75326	0.322328
0.8307	7.4715	6.01539	15.127	-1.58625	-1.21691	-4.70384	-7.8484	2.88114	-0.219157	0.322328
0.8313	8.10468	22.8231	-5.35263	-2.18947	-1.8191	-5.32187	-3.58831	-11.4645	0.0730525	0
0.8320	6.26846	20.7	-28.5318	-5.25025	-3.04855	-6.55791	-1.75319	-2.94116	-2.04547	0
0.8327	14.4998	28.927	-30.6729	-2.79269	-0.602184	-4.70384	4.04709	-0.780308	1.31494	0
0.8333	15.133	49.3616	-22.1087	-1.87669	0.614729	-5.63088	8.01225	-23.9795	3.43347	0
0.8340	6.26846	40.8693	-15.4063	-5.25025	-2.13273	-8.68666	2.21197	-23.9795	0.0730525	0.322328
0.8347	1.96285	30.4308	-8.9831	-5.54069	-2.73492	-10.1974	-0.524319	30.342	-1.09579	0.322328
0.8353	-1.70958	47.5039	0.465446	-4.62469	-1.21691	-13.5622	4.65333	85.5638	0.730525	0
0.8360	-3.48248	33.7924	7.16786	-6.16625	-1.8191	-17.854	6.79976	121.578	-0.511367	0
0.8367	-0.126636	-10.4385	18.4782	-5.54069	-1.518	-14.4892	4.65333	175.299	-0.803577	0
0.8373	2.91262	-31.8462	15.127	-2.18947	0.614729	-6.55791	2.8346	149.669	1.89936	-0.322328
0.8380	5.95187	-26.8924	-8.9831	-2.79269	0.313637	-4.70384	-1.44188	-9.03356	1.31494	-0.322328
0.8387	14.4998	-12.2962	-13.2652	-4.62469	-0.903275	-6.2489	-5.11211	-128.061	-1.46105	0
0.8393	23.9341	-10.7039	-4.701	-4.02147	-1.21691	-4.42917	-4.48948	-112.184	-1.46105	0
0.8400	27.29	-14.6846	-1.07053	-4.33425	-1.8191	-4.42917	-3.58831	-63.0549	-1.46105	0
0.8407	26.4035	-10.7039	14.8012	-5.85347	-2.73492	-5.93989	-4.19455	-62.4246	-2.33768	0.322328
0.8413	20.0084	-13.5346	36.4909	-2.50225	-1.21691	-4.70384	-2.35944	-44.4475	-0.219157	0
0.8420	1.39299	-14.0654	55.388	2.07776	-0.602184	-4.70384	-2.35944	37.965	0.730525	-0.322328
0.8427	-24.8839	-7.07694	65.4882	0.558538	-2.13273	-7.17594	-4.19455	100.84	-1.46105	0
0.8433	-40.7133	-5.57309	31.6038	-0.960685	-2.13273	-6.55791	-2.04812	77.6406	-0.511367	0.322328
0.8440	-32.2288	-10.7039	-29.4162	-1.27347	-1.8191	-4.12015	0.393239	1.95077	-0.219157	0.322328
0.8447	-10.5108	-5.21924	-55.0622	-2.79269	-2.73492	-4.12015	-1.44188	-43.5172	-2.33768	0.322328
0.8453	9.30772	-9.81925	-43.1934	-1.27347	-2.13273	-3.19312	-1.44188	-29.4716	-0.511367	0.322328
0.8460	13.8666	-16.277	-53.247	0.558538	-1.21691	-1.95707	-0.524319	0.420166	1.31494	0.322328
0.8467	4.74883	20.3462	-76.752	-0.960685	-2.43383	-3.81114	0.688169	29.7117	-0.511367	0.322328
0.8473	5.00211	34.7654	-50.7801	-2.18947	-2.43383	-5.01286	6.19352	50.78	-1.09579	0.322328
0.8480	22.4145	26.1847	6.56279	-1.87669	-1.518	-4.42917	7.71732	34.3035	-0.803577	0.322328
0.8487	45.0189	42.6385	51.4318	-3.10547	-1.8191	-4.42917	1.60573	36.1343	-2.33768	0.322328
0.8493	47.425	33.1731	63.0214	-2.50225	-0.903275	-3.19312	-1.44188	66.0261	-2.33768	0.322328
0.8500	3.48248	19.4616	33.1397	-0.357464	0.614729	-0.137338	-1.75319	74.5794	-0.511367	0
0.8507	-53.2503	20.0808	4.74755	0.245757	0.313637	0.171673	-2.35944	97.4785	0.365262	0
0.8513	-72.1823	4.51155	2.93231	-0.670245	-1.21691	-1.06437	-3.58831	131.962	-0.803577	0.322328
0.8520	-57.2393	-15.9231	-6.84205	-1.87669	-1.21691	-2.26609	-4.48948	135.624	-1.75326	0.322328
0.8527	-37.3575	-19.2846	-22.1087	-3.10547	-1.21691	-2.88411	-4.8008	31.5424	-2.04547	0.322328
0.8533	-27.9231	2.03462	-22.1087	-2.50225	-0.903275	-1.95707	-3.88324	-143.307	-1.46105	0
0.8540	-24.8839	25.9193	-17.5473	-0.960685	-0.301092	-0.755362	-1.44188	-211.073	0.0730525	0
0.8547	-18.7421	30.4308	-12.9394	-0.044683	0.915821	0.480685	0.999483	-128.361	1.60715	0.644656
0.8553	-13.8666	16.7193	-10.8449	-1.58625	-0.301092	-1.6824	-1.13056	-25.5101	-0.511367	-0.322328
0.8560	-11.7771	-8.3154	-10.8449	-3.41825	-1.8191	-5.32187	-4.48948	-19.7178	-3.57957	-2.57862
0.8567	-9.30772	-20.7885	-6.23697	-1.27347	-0.602184	-3.81114	-3.27699	-45.3479	-2.33768	-1.28931
0.8573	-11.7771	-9.81925	-2.28068	-0.357464	-0.301092	-1.06437	-1.75319	-14.8258	-0.511367	0.966984
0.8580	-14.1832	9.99617	-1.6756	-0.960685	-0.602184	-0.137338	-1.13056	34.6037	-0.219157	0.322328
0.8587	-13.8666	18.577	3.21158	-0.357464	-0.301092	0.171673	0.0819248	52.9109	0.0730525	-0.322328
0.8593	-17.2224	8.13848	1.39634	-0.357464	-0.602184	-0.137338	0.393239	34.3035	-0.219157	0.322328
0.8600	-20.8949	-1.32693	-12.3343	-1.58625	-1.518	-0.44635	-0.22939	18.4273	-1.46105	0
0.8607	-13.2967	1.15	-12.9394	-1.58625	-2.43383	-1.06437	-0.524319	33.0731	-2.33768	0
0.8613	2.59603	1.15	-2.88576	-2.18947	-3.04855	-1.95707	-2.04812	35.8341	-2.04547	-0.322328
0.8620	12.347	6.01539	-4.701	-2.79269	-3.04855	-1.95707	-2.67075	-7.80308	-0.803577	0
0.8627	19.3752	22.5577	-10.5191	-0.670245	-1.518	-0.137338	-0.835633	-41.3863	0.730525	0.322328
0.8633	22.7311	21.9385	-5.95771	0.558538	-0.903275	0.789696	0.393239	-19.7178	1.31494	0.322328
0.8640	11.7771	1.50385	6.8886	-0.357464	-1.518	0.171673	-0.22939	17.5269	-0.219157	0
0.8647	0.443225	-2.47693	14.1961	-1.87669	-2.73492	-1.06437	-0.524319	35.534	-2.33768	0
0.8653	-13.2967	11.5	2.00142	-1.27347	-2.43383	-0.755362	0.393239	46.1882	-1.46105	0
0.8660	-42.5496	-0.353847	-16.6164	-0.357464	-0.903275	-0.137338	0.0819248	56.5723	0.0730525	0
0.8667	-50.5276	-35.7385	-16.0113	-1.58625	-0.602184	-0.44635	-1.75319	39.1955	-0.511367	0
0.8673	-20.8949	-61.7463	5.67844	-1.27347	-0.301092	-0.44635	-1.13056	9.27366	-0.219157	0
0.8680	-5.31869	-94.0348	30.6729	0.245757	-0.301092	-0.44635	-0.835633	-4.77188	0.730525	0
0.8687	-22.0979	-117.566	48.3598	-1.87669	-1.8191	-1.95707	-4.19455	-53.9013	-1.46105	0
0.8693	-25.7703	-113.319	47.4755	-2.18947	-0.903275	-2.26609	-4.8008	-89.2852	-2.04547	-0.322328
0.8700	-3.22921	-52.2809	22.1552	0.558538	1.22946	0.480685	-0.835633	-13.2952	0.365262	0
0.8707	0.443225	80.5001	-8.70384	0.245757	0.313637	1.06437	0.393239	56.2722	-0.219157	0.322328
0.8713	-7.78809	121.369	-26.67	-0.670245	-0.903275	-0.137338	-0.22939	19.3576	-1.46105	0.322328
0.8720	6.83832	61.304	-23.3188	0.871319	0.0125455	0.480685	1.3108	-15.126	0.730525	0
0.8727	12.347	65.2847	-27.6009	0.245757	-0.602184	0.171673	0.688169	48.3491	-0.219157	0
0.8733	-1.39299	77.4924	-51.1059	-1.87669	-2.13273	-1.37338	-1.44188	65.4258	-2.33768	0
0.8740	-1.0764	53.9616	-48.9649	-0.357464	-0.301092	-0.44635	-0.524319	-47.7789	0.0730525	0
0.8747	0.443225	61.9232	-26.9959	-0.044683	0.0125455	-0.137338	-0.524319	-79.2313	0.730525	0
0.8753	-9.6243	64.0463	-20.2934	-1.58625	-0.903275	-1.37338	-2.96568	-5.072	-1.46105	0.322328
0.8760	-11.4605	22.2039	-22.7138	0.245757	0.614729	0.789696	-1.75319	8.3733	0.0730525	0
0.8767	-10.8273	-4.95385	-29.742	1.16176	1.22946	1.37338	0.0819248	-1.11044	1.02273	0
0.8773	-12.9801	8.49232	-40.7265	-1.27347	-0.301092	-0.44635	-1.44188	8.3733	-1.75326	0
0.8780	-11.7771	42.0193	-39.1905	-1.27347	0.614729	0.480685	-2.35944	2.55101	-1.46105	0
0.8787	-13.2967	66.4347	-21.8294	0.245757	2.74746	1.6824	-1.13056	41.9265	1.02273	0
0.8793	-15.3862	37.5078	-9.30892	-0.960685	2.44637	0.789696	-0.835633	90.1556	0.730525	0.322328
0.8800	-15.133	7.25386	-13.2652	-1.27347	1.53055	0.171673	-2.04812	59.6335	0.365262	0.322328
0.8807	-13.6133	33.527	1.07053	-0.044683	1.53055	0.480685	-2.04812	28.5112	1.60715	0.322328
0.8813	-10.5108	31.0501	37.3753	-1.27347	0.313637	-0.755362	-2.35944	61.4643	0.0730525	0
0.8820	-5.31869	-15.9231	41.0523	-0.960685	0.313637	-0.137338	-1.44188	81.6022	-0.511367	0.322328
0.8827	-4.11566	-72.0963	10.5191	1.78732	1.83164	1.99141	1.60573	60.2338	1.89936	0.322328
0.8833	-20.0084	-113.585	7.16786	0.558538	-0.301092	0.480685	0.999483	40.6961	1.31494	0.322328
0.8840	-41.6631	-67.2309	26.1115	-1.27347	-2.43383	-1.6824	-0.524319	34.0034	-0.511367	0.322328
0.8847	-42.8661	5.39616	14.8012	0.558538	-0.903275	-0.137338	0.999483	63.8952	1.89936	0.644656
0.8853	-37.9907	28.3077	-19.0833	-0.960685	-1.21691	-2.26609	-0.524319	76.4101	1.60715	-0.644656
0.8860	-38.9404	28.0424	-34.0241	-2.79269	-1.518	-5.01286	-2.35944	20.8882	-0.803577	-2.2563
0.8867	-32.482	16.7193	-24.8548	2.07776	3.0611	0.171673	2.21197	-14.2256	4.09094	-0.966984
0.8873	-25.2005	12.4731	-11.7292	2.39054	2.74746	2.60943	2.52328	-8.73345	4.96757	0.966984
