MR32 ASCII
Name	KneeFJC1
Frequency	1500
Date	26-08-2015 08:58:16
"Time,s"	"RT TIB.ANT.,uV"	"RT MED. GASTRO,uV"	"RT LAT. GASTRO,uV"	"RT BICEPS FEM.,uV"	"RT VMO,uV"	"RT VLO,uV"	"RT RECTUS FEM.,uV"	"RT SOLEUS,uV"	"RT SEMITEND.,uV"	"Channel 12,uV"
0.0000	0.620728	1.39326	-3.0766	0.609553	1.4366	-59.0823	-0.773152	0.478454	-0.0231924	-5557.94
0.0007	0	1.08649	-1.24432	1.21911	2.08539	-35.586	0.441801	-1.04804	1.19441	-10347.6
0.0013	-0.620728	-0.741369	-0.943492	0.304776	1.15855	-16.0513	-0.773152	-1.35182	0.278309	-9905.45
0.0020	-2.17255	-2.876	-2.46812	-0.914329	-1.29757	-7.51336	-4.73095	-4.10104	-3.38609	-9614.92
0.0027	-2.79328	-3.79632	-2.16046	-1.52388	-1.29757	-4.75846	-6.57179	-5.62753	-4.30219	-9917.13
0.0033	-1.24146	-0.741369	0.587973	-0.304776	1.15855	-1.4116	-2.90852	-2.87832	0.278309	-9802.5
0.0040	0.310364	1.08649	1.49728	0.304776	1.76099	0.432588	0.441801	-1.35182	2.71351	-9806.92
0.0047	0.620728	-0.127822	-0.0273476	-0.914329	0.834154	-1.70758	-1.38063	-2.27076	1.79741	-9819.23
0.0053	-0.620728	-2.56923	-1.55198	-2.75145	-1.29757	-8.42407	-5.35684	-4.40482	-1.25239	-9819.87
0.0060	-1.86219	-3.48955	-2.16046	-2.75145	-2.22441	-12.3857	-4.73095	-5.31616	-2.77149	-9800.29
0.0067	0	-0.127822	-0.635832	-0.609553	0.556103	-9.94951	0.441801	-2.27076	0.88131	-9822.08
0.0073	0.931093	1.08649	-0.635832	-0.304776	1.4366	-7.80934	3.49759	0.174674	3.32811	-9907.02
0.0080	-0.310364	-1.35492	-2.16046	-2.75145	-1.57562	-8.10532	1.06769	-2.87832	1.49591	-9554.29
0.0087	-0.620728	-3.18277	-3.0766	-4.27534	-3.10491	-9.33478	-3.20306	-5.93131	-1.25239	-10130.3
0.0093	0	-1.35492	-1.24432	-2.13344	-1.57562	-7.19461	-2.90852	-3.48588	-0.336289	-9953.13
0.0100	0.310364	0.472942	0.280313	0.609553	-0.370735	-2.32231	-1.69357	-1.04804	1.19441	-4256.56
0.0107	0.931093	1.08649	3.02875	1.21911	-0.0926838	1.95803	-3.82894	-4.10104	-0.0231924	107.053
0.0113	1.86219	1.08649	4.55337	0.914329	-0.695128	3.77945	-6.25885	-5.31616	-2.46999	87.4744
0.0120	-0.310364	-0.741369	-1.24432	-0.304776	-1.57562	1.3433	-4.73095	-5.01238	-4.91678	-203.054
0.0127	-1.86219	-2.27524	-7.95815	-0.914329	-1.29757	-0.478123	-1.69357	-5.31616	-5.51979	99.1587
0.0133	0	-0.127822	-7.95815	0	-0.0926838	1.04732	1.67516	2.00495	-1.85539	-15.4738
0.0140	1.55182	3.52789	-7.04201	0.304776	1.76099	-2.00356	4.41801	12.379	1.49591	-11.3685
0.0147	0.931093	3.22112	-7.65733	-1.82866	1.4366	-3.23302	5.63297	11.7715	1.19441	0.947376
0.0153	-0.931093	-2.27524	-8.87429	-3.66578	-0.0926838	7.14908	3.81054	7.49578	-1.25239	-0.947376
0.0160	-1.55182	-3.79632	-9.79044	-3.66578	1.15855	20.2633	2.89012	16.351	-2.16849	-0.631584
0.0167	0.620728	3.22112	-7.04201	-0.914329	3.89272	26.0691	2.89012	13.9055	-0.336289	-0.947376
0.0173	0.931093	6.27607	-2.76894	2.74299	3.29027	21.4928	-1.06769	-15.0827	-0.336289	-0.947376
0.0180	-0.620728	0.472942	-0.635832	3.65732	0.834154	8.9705	-3.82894	-19.0546	-1.85539	-0.631584
0.0187	-1.55182	-7.75881	0.888797	1.52388	-1.29757	-8.42407	-3.20306	1.08601	-4.30219	-0.631584
0.0193	-1.86219	-8.67913	3.94489	0.304776	-0.0926838	-15.4365	-2.90852	5.05794	-4.91678	-0.631584
0.0200	-1.24146	-3.18277	6.99415	1.82866	3.29027	-7.19461	-1.38063	2.00495	-1.55389	-0.631584
0.0207	-0.310364	-2.56923	6.99415	0.609553	2.36344	-2.00356	1.9697	2.61251	1.49591	-0.631584
0.0213	-0.620728	-4.10309	5.16186	-1.52388	-1.90002	-6.89863	5.63297	5.05794	2.11051	-0.631584
0.0220	-1.86219	-1.04814	2.1126	-2.43821	-6.16347	-12.0897	4.10507	2.61251	-0.939291	-0.315792
0.0227	-1.55182	0.779716	-0.0273476	-1.82866	-6.48787	-14.5258	-1.69357	-4.7086	-3.38609	-0.631584
0.0233	1.86219	-8.37236	3.32957	-0.609553	-3.4293	-17.8727	-0.46021	-1.35182	-1.85539	-0.315792
0.0240	3.00019	-12.6416	6.68649	-0.609553	-1.57562	-14.2299	5.02549	13.9055	0.88131	-0.631584
0.0247	0	-5.62418	8.21111	-1.21911	-0.695128	-1.4116	4.73095	21.538	1.49591	-0.631584
0.0253	-4.24164	-5.01063	8.82644	-2.75145	-1.57562	11.1107	-0.773152	15.1283	-0.0231924	-0.631584
0.0260	-6.41419	-9.89344	6.078	-3.05623	-2.82686	21.7887	-4.73095	5.6655	-1.85539	-0.315792
0.0267	-4.86237	-15.3898	5.16186	-1.21911	-1.90002	27.5945	-5.0439	-6.53887	-0.0231924	-0.631584
0.0273	-4.24164	-13.2552	12.1834	0	-0.97318	24.2249	-5.0439	-11.1184	1.79741	-0.631584
0.0280	-3.10364	-1.35492	20.4218	0.609553	-2.22441	17.2124	-7.49221	9.32606	-0.336289	-0.631584
0.0287	-0.620728	-0.434596	20.1142	-0.304776	-3.75369	12.3401	-11.1555	24.8948	-3.38609	-0.315792
0.0293	0.310364	-3.18277	16.4564	-1.21911	-3.10491	10.2	-10.8425	23.9759	-3.08459	-0.315792
0.0300	0.620728	10.5453	17.0649	0.304776	-0.97318	8.9705	-2.90852	28.5554	0.278309	-0.631584
0.0307	1.86219	25.1938	15.8411	0.914329	-0.370735	6.83033	2.89012	20.0115	1.49591	-0.315792
0.0313	2.48291	23.6727	-0.635832	-0.304776	-0.0926838	6.83033	1.67516	-0.744262	0.278309	-0.315792
0.0320	0.620728	10.5453	-27.7988	-2.13344	-0.695128	5.62364	-1.98811	-12.6449	-2.77149	-0.315792
0.0327	-2.48291	-1.04814	-38.4781	-2.43821	-0.97318	0.432588	-1.06769	-21.7962	-3.38609	-0.315792
0.0333	-3.93128	-1.35492	-31.4566	-0.914329	-0.0926838	-1.4116	4.41801	-12.9486	-0.336289	-0.631584
0.0340	-4.24164	-3.79632	-20.7773	0	0.834154	-1.09285	7.76834	1.70117	1.49591	-0.631584
0.0347	-2.79328	-12.3348	-11.9304	-1.21911	0.834154	-3.84775	9.0017	-12.6449	1.79741	-0.315792
0.0353	-2.48291	-7.45204	-10.0981	-3.66578	0.834154	-7.80934	7.76834	-20.2697	-0.0231924	-0.315792
0.0360	-2.79328	2.91435	-8.87429	-4.27534	1.76099	-10.2455	4.73095	-6.23509	-1.85539	-0.631584
0.0367	-1.24146	1.08649	-2.16046	-1.52388	2.96588	-7.19461	3.20306	-10.5032	-0.336289	0
0.0373	0.310364	-3.18277	1.80494	0.609553	2.96588	-1.09285	-0.165675	-23.019	1.19441	-0.631584
0.0380	-0.620728	-1.04814	-0.635832	1.21911	1.4366	1.95803	-5.65137	-17.5281	-1.85539	-2.21054
0.0387	-0.931093	8.71747	-2.76894	2.13344	1.15855	3.77945	-9.62758	-3.1821	-6.73739	-1.57896
0.0393	-1.55182	14.2138	-3.0766	2.74299	0.834154	5.00891	-9.31464	4.13901	-7.05048	-0.315792
0.0400	-0.931093	7.49038	-3.38426	3.35254	1.4366	4.69016	-5.0439	6.58444	-3.38609	-0.315792
0.0407	-0.310364	3.52789	0.280313	3.35254	2.08539	2.57276	-1.98811	6.28066	-0.939291	-0.631584
0.0413	-1.24146	6.58284	5.16186	1.52388	0.556103	0.728568	-1.38063	2.92389	-0.939291	-0.631584
0.0420	-2.48291	5.9693	2.72109	-1.21911	-1.57562	0.432588	-0.773152	-1.04804	-2.16849	-0.315792
0.0427	-1.24146	1.39326	-3.99275	-2.43821	-2.22441	-0.478123	3.49759	-7.45781	-2.46999	-0.315792
0.0433	2.17255	-1.96846	-6.43352	-1.52388	-0.695128	1.3433	9.29623	-10.5032	1.49591	-0.631584
0.0440	3.00019	-8.37236	-5.21655	0	0.231709	4.69016	7.16086	-8.67293	3.32811	-0.315792
0.0447	1.24146	-13.2552	-2.16046	-0.609553	-0.695128	2.86874	0.441801	-5.31616	1.49591	-0.315792
0.0453	-1.86219	-13.8687	-0.328171	-3.05623	-2.82686	-4.14373	-3.82894	-8.06537	-2.16849	-0.631584
0.0460	-2.79328	-17.2177	-0.0273476	-1.52388	-3.4293	-6.89863	-5.65137	-12.0297	-4.30219	-0.631584
0.0467	0.620728	-11.7341	-0.0273476	2.43821	-1.29757	1.3433	-5.0439	-5.01238	-2.77149	-0.631584
0.0473	2.68982	10.5453	-0.635832	2.43821	-0.0926838	9.88121	-4.73095	4.13901	-0.939291	-0.315792
0.0480	1.24146	25.1938	-0.635832	0.304776	-0.370735	7.14908	-4.12348	9.02228	-0.939291	-0.315792
0.0487	-2.48291	17.8695	-0.0273476	-2.43821	-2.50246	-2.00356	-2.59558	6.58444	-1.85539	-0.315792
0.0493	-4.24164	7.79716	1.80494	-3.05623	-3.10491	-5.66917	-0.773152	0.174674	-1.85539	-0.631584
0.0500	-1.55182	4.44821	2.1126	-1.82866	-0.695128	-5.37319	1.9697	-4.7086	0.88131	-0.631584
0.0507	-0.310364	0.779716	0.888797	-1.52388	-0.0926838	-7.80934	3.81054	-6.53887	2.71351	-0.315792
0.0513	-1.55182	-1.66169	1.19646	-1.21911	-0.0926838	-8.10532	4.10507	-3.48588	1.19441	0
0.0520	-2.79328	-2.56923	-7.04201	-1.21911	-0.97318	-6.2839	0.754744	-2.27076	-3.08459	-0.315792
0.0527	-3.62092	-3.79632	-15.5881	-1.52388	-1.90002	-2.61829	-3.20306	-7.76159	-4.91678	-0.631584
0.0533	-2.79328	-2.27524	-6.12586	0.914329	-0.0926838	5.91962	-3.20306	-16.0016	-2.46999	-0.631584
0.0540	-0.620728	-0.127822	2.72109	2.43821	2.08539	11.4066	-3.20306	-18.1357	-1.55389	-0.631584
0.0547	2.17255	-1.66169	-1.85964	2.74299	1.4366	9.58523	-5.35684	-8.36915	-3.08459	-0.315792
0.0553	4.86237	-5.93095	-8.26581	1.52388	-0.695128	5.00891	-7.49221	2.30873	-5.51979	-0.315792
0.0560	6.10383	-7.75881	-4.90889	0	-0.97318	2.25401	-7.78675	9.32606	-6.13438	-0.631584
0.0567	6.41419	-1.04814	3.94489	1.52388	1.4366	3.16472	-3.82894	28.5554	-1.55389	-0.315792
0.0573	3.93128	7.19639	6.68649	2.74299	2.08539	3.16472	-1.06769	67.6215	0.278309	-0.315792
0.0580	0.620728	5.9693	2.72109	0.914329	1.15855	2.86874	-1.06769	77.3805	-1.25239	-0.315792
0.0587	-1.24146	-2.56923	-5.82504	-1.21911	-0.695128	5.00891	-2.30105	19.0926	-3.08459	-0.315792
0.0593	-1.86219	-7.45204	-9.79044	-1.52388	-1.29757	9.58523	-1.69357	-34.9196	-3.38609	-0.631584
0.0600	-3.41401	-8.9859	-3.99275	0.304776	-0.0926838	12.9321	1.9697	-29.7325	-0.939291	-0.631584
0.0607	-3.93128	-8.9859	0.280313	1.21911	0.556103	13.8656	2.59558	-4.7086	-0.0231924	-0.315792
0.0613	-2.17255	-9.29268	-1.24432	0.304776	0.231709	16.3017	0.147267	12.9942	-0.336289	-0.315792
0.0620	-2.79328	-12.3348	-4.90889	-1.52388	-0.97318	16.5977	-4.43642	17.5661	-2.46999	-0.315792
0.0627	-4.24164	-8.37236	-3.99275	-2.43821	-2.22441	15.0723	-6.57179	-1.04804	-4.00069	-0.315792
0.0633	-3.62092	2.31358	2.41343	-1.52388	0.231709	20.2633	-1.38063	-26.0719	-0.0231924	-0.315792
0.0640	-2.17255	6.58284	6.99415	-1.21911	2.36344	24.2249	2.28264	-26.3757	2.71351	-0.315792
0.0647	-0.931093	4.14144	7.60263	-2.43821	1.4366	20.5593	0.754744	-6.23509	1.19441	-0.631584
0.0653	-0.620728	-1.96846	7.30181	-3.05623	-0.97318	14.1615	-2.90852	-2.87832	-1.85539	-0.631584
0.0660	-0.620728	-8.37236	6.078	-2.13344	-1.57562	7.44506	-5.0439	-6.23509	-3.68759	-0.631584
0.0667	0.310364	-6.85127	5.77034	0	0.556103	2.86874	-2.90852	6.28066	-1.25239	-0.631584
0.0673	1.55182	-0.741369	6.38566	1.82866	1.15855	-9.0388	-0.165675	13.298	1.79741	-0.315792
0.0680	0.310364	0.166169	4.55337	2.43821	-0.370735	-29.7802	-1.06769	9.32606	0.579809	-1.57896
0.0687	-1.86219	-1.66169	1.19646	0	-1.90002	-35.882	-1.06769	8.41472	-1.55389	-1.89475
0.0693	-3.41401	1.08649	1.19646	-2.75145	-1.90002	-23.6785	3.81054	0.478454	-0.939291	0
0.0700	-4.55201	4.75499	4.24571	-1.82866	-0.0926838	-14.5258	6.86633	-23.3227	1.79741	0
0.0707	-4.55201	3.22112	4.55337	-0.609553	0.834154	-13.6151	4.10507	-36.7498	2.11051	-0.631584
0.0713	-2.48291	-2.27524	2.72109	-0.304776	-0.0926838	-13.0004	1.06769	-24.5455	0.88131	-0.315792
0.0720	-2.48291	-4.40987	3.32957	-1.21911	-1.57562	-13.0004	-2.30105	-11.4221	-1.85539	-0.315792
0.0727	-3.10364	-2.56923	6.078	-2.13344	-3.10491	-15.1406	-5.35684	-11.1184	-4.60369	-0.947376
0.0733	-0.620728	0.779716	7.30181	-0.304776	-1.57562	-13.9111	-3.516	-8.67293	-3.38609	-2.21054
0.0740	2.48291	6.27607	6.99415	1.82866	1.15855	-10.2455	0.147267	7.192	0.278309	-0.947376
0.0747	1.86219	8.71747	9.74258	1.21911	0.834154	-8.10532	0.754744	16.351	0.579809	0
0.0753	-0.620728	4.44821	6.99415	-1.52388	-0.695128	-8.42407	-0.773152	16.0396	-1.85539	-0.315792
0.0760	0	0.166169	-2.46812	-3.05623	-0.97318	-6.57988	0.147267	17.8775	-1.55389	0
0.0767	3.31055	3.22112	-8.57347	-1.52388	0.556103	-3.23302	3.81054	1.08601	1.19441	-0.315792
0.0773	3.00019	10.8521	-13.7558	0	1.76099	-1.09285	3.49759	-25.4644	2.11051	-0.315792
0.0780	-0.310364	18.7899	-17.1128	0.609553	0.556103	0.113839	-0.773152	-28.8212	-0.63779	-0.315792
0.0787	0	26.4209	-13.1474	-0.609553	-0.370735	-2.61829	-1.98811	-24.2417	-2.77149	0
0.0793	0.620728	30.0766	-7.65733	-1.82866	0.231709	-7.19461	0.441801	-24.8492	-2.46999	-0.315792
0.0800	-2.48291	32.2112	-0.328171	0	2.08539	-6.2839	2.28264	-13.2524	0.278309	-0.631584
0.0807	-5.79347	41.67	10.6587	1.52388	2.36344	-2.32231	1.9697	10.245	1.19441	-0.315792
0.0813	-5.79347	46.8596	18.8972	0.914329	1.15855	-1.70758	1.67516	25.8061	-1.55389	-0.315792
0.0820	-5.17274	0.779716	21.0303	-1.21911	-0.370735	-3.84775	-0.773152	17.5661	-4.91678	-0.631584
0.0827	-4.55201	-70.3278	21.9464	-0.914329	-0.97318	-2.61829	-4.43642	2.00495	-6.13438	-0.631584
0.0833	-3.10364	-75.8114	24.3872	1.82866	0.834154	2.25401	-3.82894	-1.35182	-5.51979	-0.315792
0.0840	-3.10364	-36.1481	23.7787	3.04776	2.36344	5.30489	-2.90852	-3.48588	-4.30219	-0.315792
0.0847	-2.17255	-8.9859	14.3165	2.13344	2.36344	5.62364	-4.43642	-10.8146	-2.77149	-0.315792
0.0853	-2.17255	12.3732	-5.51738	-0.304776	0.834154	3.48347	-6.86633	-20.8849	-3.08459	-0.315792
0.0860	-3.10364	31.9044	-20.4697	-1.52388	-0.695128	0.728568	-7.17927	-33.3931	-4.00069	0
0.0867	-2.17255	39.2286	-19.5535	0.914329	0.231709	-1.09285	-3.82894	-46.2126	-2.16849	-0.315792
0.0873	-1.55182	36.7872	-12.5389	2.13344	1.76099	-1.70758	-0.46021	-46.2126	1.49591	-0.315792
0.0880	-0.931093	29.169	-11.0142	0.609553	0.834154	-2.93704	-0.165675	-28.8212	1.79741	-0.315792
0.0887	-3.10364	22.4456	-14.0635	-1.82866	-1.57562	-6.2839	-3.516	-10.5032	-2.16849	-0.315792
0.0893	-5.79347	27.0216	-12.8397	-2.43821	-1.90002	-7.19461	-5.35684	2.30873	-3.38609	-0.315792
0.0900	-4.24164	43.2039	-9.48278	-0.609553	-1.90002	-3.84775	-1.38063	17.8775	0.579809	-0.315792
0.0907	-0.310364	48.0867	-6.74118	0.914329	-3.10491	-1.09285	1.9697	37.403	2.11051	-0.315792
0.0913	0.931093	7.79716	-2.46812	-0.304776	-4.35614	-4.14373	1.67516	47.7847	0.278309	-0.315792
0.0920	-0.310364	-57.2004	0.280313	-3.66578	-4.95858	-1.4116	1.67516	30.0819	-2.16849	-0.315792
0.0927	-0.310364	-82.8416	0.587973	-4.88489	-5.23663	24.2249	2.59558	-1.95938	-2.46999	-0.631584
0.0933	0.620728	-63.0036	3.02875	-2.13344	-4.03174	53.8458	2.28264	-14.1714	0.278309	-0.631584
0.0940	1.86219	-38.8963	3.32957	0.304776	-3.10491	68.1667	-1.06769	-3.48588	1.79741	0
0.0947	2.17255	-26.3825	-1.24432	0.914329	-2.50246	70.9216	-5.0439	8.7185	-0.63779	0
0.0953	0	-24.5419	-4.60123	0.304776	-3.75369	69.3961	-9.62758	10.8526	-4.30219	-0.315792
0.0960	-2.48291	-26.6893	-2.76894	-0.914329	-4.03174	65.1158	-12.0575	6.58444	-4.91678	-0.631584
0.0967	-1.24146	-24.5419	-1.55198	0	-0.97318	57.8074	-7.17927	3.83523	-0.939291	-0.315792
0.0973	-0.620728	-20.2726	-3.68509	0.609553	0.231709	50.1801	-1.38063	5.6655	0.88131	-0.315792
0.0980	-3.41401	-18.7515	-4.90889	-0.304776	-1.29757	35.8365	-0.165675	6.88822	-1.55389	-1.89475
0.0987	-3.62092	-19.9658	-3.99275	-0.914329	-2.22441	10.8147	1.67516	4.13901	-3.08459	-1.57896
0.0993	0	-14.1755	-3.38426	-1.82866	-2.22441	-13.0004	7.4738	0.782234	-2.46999	0
0.1000	1.55182	0.779716	-2.76894	-1.82866	-1.90002	-35.586	15.4078	0.478454	-0.0231924	0
0.1007	-0.310364	5.9693	0.280313	-1.21911	-0.695128	-59.0823	19.6786	3.53145	1.79741	0
0.1013	0.620728	-0.741369	2.72109	-1.21911	0.834154	-78.0024	15.0949	2.30873	1.19441	0
0.1020	0.310364	-7.45204	0.888797	-3.05623	-0.0926838	-88.9992	5.02549	-3.48588	-1.25239	-0.315792
0.1027	-1.86219	-9.29268	-0.328171	-3.97056	-0.97318	-85.9255	-1.69357	-3.1821	-2.46999	-0.315792
0.1033	0	-6.5445	1.49728	-0.609553	1.15855	-72.1966	-2.90852	2.00495	-0.63779	-0.315792
0.1040	2.68982	-3.79632	2.72109	2.74299	2.08539	-51.7511	-3.20306	3.53145	0.278309	0
0.1047	1.55182	-4.40987	1.49728	3.35254	0.231709	-28.8695	-5.35684	1.70117	-2.77149	0
0.1053	-1.86219	-7.15804	-0.635832	1.52388	-2.22441	-16.0513	-8.39422	1.08601	-7.35198	-0.315792
0.1060	-2.79328	-8.67913	-1.85964	0	-2.82686	-10.5642	-10.2351	2.30873	-9.18418	-0.315792
0.1067	-0.931093	-5.62418	0.587973	1.52388	-0.0926838	-3.84775	-7.49221	5.05794	-4.30219	0
0.1073	-0.931093	-2.56923	2.41343	2.43821	2.08539	0.432588	-4.73095	5.05794	-0.63779	-0.631584
0.1080	-1.24146	-2.876	1.49728	1.21911	0.834154	0.728568	-5.0439	3.83523	-2.46999	-0.631584
0.1087	-1.55182	-4.40987	-0.635832	-0.914329	-2.22441	-0.478123	-7.78675	1.39739	-5.51979	-0.315792
0.1093	-1.86219	-0.127822	-1.55198	-1.52388	-3.4293	-0.796872	-9.92212	-0.744262	-5.51979	-0.315792
0.1100	-0.931093	14.2138	0.587973	0	-1.90002	1.95803	-7.17927	2.00495	-1.55389	-0.315792
0.1107	0.310364	23.6727	1.80494	0.914329	-0.695128	3.77945	-4.43642	4.75416	2.41201	-0.315792
0.1113	0	22.7524	1.80494	0.609553	-0.695128	4.39418	-5.35684	4.13901	4.2442	-0.315792
0.1120	-2.48291	22.1388	0.587973	-1.52388	-2.50246	1.63928	-5.35684	2.00495	1.79741	0
0.1127	-4.24164	25.8073	-1.24432	-5.18967	-2.82686	-6.89863	5.63297	2.61251	0.88131	-0.315792
0.1133	-1.24146	33.4383	0.587973	-5.79922	-0.0926838	-14.8218	22.1269	6.88822	5.7749	-0.315792
0.1140	-0.620728	43.5107	2.41343	-4.27534	1.4366	-14.8218	25.4772	9.63743	7.5955	-0.315792
0.1147	-5.4831	33.1315	0.888797	-4.27534	1.15855	-11.475	17.2302	9.94121	3.9427	-0.315792
0.1153	5.79347	-2.27524	-2.16046	-5.18967	-0.370735	-9.63076	7.16086	9.94121	-1.85539	-0.315792
0.1160	35.0712	-19.9658	-3.0766	-3.36101	-0.695128	-4.14373	-1.98811	12.6828	-5.21829	-0.315792
0.1167	51.2101	-11.7341	-0.328171	1.52388	1.15855	4.0982	-6.25885	19.0926	-4.30219	-0.315792
0.1173	51.8308	0.779716	2.1126	3.96209	2.68783	6.23837	-6.86633	21.538	-3.08459	-0.315792
0.1180	52.1412	9.93179	1.80494	3.35254	2.36344	2.57276	-5.35684	16.351	-4.30219	-0.315792
0.1187	50.3825	-2.876	-0.328171	1.82866	0.556103	-0.796872	-4.73095	8.7185	-8.26808	-0.315792
0.1193	41.4854	-31.8661	-1.24432	1.21911	-0.97318	-1.09285	-6.25885	5.6655	-8.26808	-0.315792
0.1200	37.8644	-47.7416	1.49728	1.52388	0.231709	1.3433	-4.73095	3.22767	1.19441	-0.315792
0.1207	45.4166	-42.552	2.41343	1.52388	1.15855	4.69016	-2.30105	-8.06537	7.5955	-0.315792
0.1213	36.0023	-26.6893	-0.328171	0.609553	1.15855	5.00891	-1.98811	-19.3584	5.1603	-0.315792
0.1220	-24.105	-19.0583	-3.38426	-0.609553	0.231709	0.113839	-4.12348	-19.966	2.11051	-0.315792
0.1227	-98.282	-18.138	-4.30041	-2.13344	-0.97318	0.113839	-5.0439	-15.3865	0.579809	-0.315792
0.1233	-103.455	-12.3348	-1.55198	-1.21911	-0.695128	8.9705	-1.98811	-12.3411	3.02661	-0.315792
0.1240	-55.2448	-5.01063	0.888797	0	-0.695128	13.5468	-0.773152	-8.9843	4.8588	-0.315792
0.1247	-26.8982	-3.48955	2.41343	-0.914329	-0.370735	11.7254	-2.59558	-2.57454	3.62961	-0.315792
0.1253	-19.5529	-6.23772	1.19646	-3.05623	-1.29757	7.44506	-3.20306	0.174674	-0.336289	-0.315792
0.1260	-18.0011	-6.5445	-0.635832	-3.05623	-1.90002	3.48347	-2.59558	-2.87832	-3.68759	-0.315792
0.1267	-20.7944	-3.48955	-0.328171	-0.304776	-0.97318	0.728568	0.147267	-1.6556	-3.08459	0
0.1273	-20.7944	-1.35492	-0.0273476	0.914329	0.231709	0.728568	0.754744	2.61251	-2.16849	0
0.1280	-16.1389	-1.04814	-1.55198	0	-0.370735	1.63928	0.441801	0.478454	-2.77149	-1.57896
0.1287	-10.9662	-2.56923	-2.76894	-1.21911	-0.97318	-1.09285	0.147267	-2.57454	-3.38609	-1.89475
0.1293	-6.72456	-4.40987	-2.76894	-1.82866	-0.370735	-3.84775	-0.46021	3.22767	-3.38609	-0.315792
0.1300	-7.34529	-3.18277	-0.0273476	0	0.834154	-4.46248	-0.165675	6.28066	-0.63779	0
0.1307	-13.4491	-2.27524	3.32957	1.82866	2.08539	-9.0388	-0.165675	1.70117	0.278309	-0.631584
0.1313	-17.07	-4.10309	3.63723	1.52388	2.68783	-12.7044	-1.98811	2.00495	-1.25239	-0.315792
0.1320	-12.8284	-5.01063	0.280313	0.304776	1.76099	-5.37319	-5.0439	-2.27076	-3.38609	-0.315792
0.1327	-5.4831	-5.3174	-3.0766	0.304776	-0.0926838	6.53435	-7.78675	-15.6979	-6.73739	-0.315792
0.1333	-3.41401	-4.71664	-2.16046	3.04776	0.231709	13.2508	-4.73095	-17.5281	-8.26808	-0.315792
0.1340	-6.72456	-2.27524	0.280313	3.96209	1.4366	12.3401	1.06769	-6.84265	-7.35198	-0.315792
0.1347	-10.3455	9.6378	1.49728	1.82866	1.15855	8.05979	3.20306	7.49578	-6.73739	-0.315792
0.1353	-9.72475	26.7276	0.888797	-1.21911	-0.370735	4.0982	0.147267	15.1283	-8.26808	-0.315792
0.1360	-1.55182	36.4932	-1.24432	-2.13344	-1.90002	2.25401	-3.20306	9.32606	-10.4018	-0.631584
0.1367	3.62092	41.9768	-1.24432	0.304776	-0.0926838	3.77945	-1.69357	4.45038	-7.96658	-0.315792
0.1373	1.24146	44.725	0.888797	1.82866	2.68783	3.48347	0.147267	5.36172	-5.21829	0
0.1380	13.1388	46.2589	2.1126	1.21911	3.29027	0.113839	0.441801	4.75416	-1.25239	-0.315792
0.1387	31.1399	53.8771	0.888797	-0.609553	1.15855	-3.529	-1.98811	1.39739	8.8247	0
0.1393	26.2775	48.7003	-0.328171	-2.43821	-0.370735	-4.46248	-2.90852	-2.27076	11.573	0
0.1400	4.55201	-4.10309	2.1126	-1.82866	0.556103	-1.70758	1.36222	-4.10104	6.0764	-0.315792
0.1407	-6.41419	-53.5447	3.94489	-1.21911	1.76099	4.0982	4.41801	-6.53887	5.4618	-0.315792
0.1413	4.24164	-30.345	1.80494	-1.21911	1.4366	7.44506	1.06769	-8.9843	5.1603	-0.315792
0.1420	18.3115	8.4107	-1.55198	-1.82866	-0.695128	6.83033	-5.35684	-7.14643	-0.336289	-0.315792
0.1427	29.5881	11.7724	-2.76894	-2.75145	-2.22441	6.23837	-10.8425	-5.01238	-3.38609	-0.315792
0.1433	59.1761	7.19639	-0.943492	-1.52388	-0.97318	4.0982	-11.1555	-4.10104	-0.336289	0
0.1440	59.7968	5.66252	-0.0273476	-0.304776	-0.0926838	0.113839	-6.86633	0.782234	2.41201	0
0.1447	-9.20747	4.44821	-1.24432	-1.52388	-2.22441	-1.4116	-1.69357	6.88822	0.88131	-0.315792
0.1453	-37.2437	-8.06558	-2.16046	-4.27534	-4.35614	-1.4116	1.67516	6.58444	-1.55389	-0.315792
0.1460	45.727	-34.6143	-0.328171	-6.71355	-4.63419	-2.00356	6.24044	5.36172	-0.336289	-0.315792
0.1467	124.456	-46.8213	3.02875	-6.10399	-3.4293	-3.84775	17.8377	11.1639	4.8588	-0.315792
0.1473	78.1083	-32.4796	3.02875	-3.05623	-3.4293	-4.75846	25.1643	15.432	7.5955	-0.315792
0.1480	-15.8286	-17.2177	0.888797	-2.43821	-4.63419	-2.00356	18.4636	11.7715	7.294	-0.315792
0.1487	-60.1072	-16.9237	-1.85964	-3.05623	-5.88542	0.113839	6.55338	5.6655	3.9427	-0.315792
0.1493	-75.4185	-19.9658	-4.60123	-1.82866	-5.23663	2.25401	-0.165675	1.39739	0.579809	0
0.1500	-60.7279	-14.7762	-3.99275	2.74299	-2.22441	6.83033	-1.98811	-4.10104	0.579809	0
0.1507	-30.2088	-4.71664	-2.76894	6.40877	-1.29757	7.44506	-5.0439	-13.5562	0.278309	-0.315792
0.1513	-15.0009	1.70004	-0.0273476	6.10399	-0.370735	7.14908	-7.78675	-18.1357	-1.55389	-0.315792
0.1520	-15.3113	-3.48955	2.1126	2.74299	0.231709	8.05979	-9.0017	-14.1714	-5.51979	-0.315792
0.1527	-27.519	-10.8138	3.02875	0.304776	-0.0926838	8.05979	-8.70716	-10.1994	-7.65348	-0.631584
0.1533	-35.3815	-6.5445	4.24571	2.13344	2.08539	8.05979	-5.0439	-12.6449	-7.65348	-0.315792
0.1540	-33.3124	-1.04814	3.32957	3.65732	4.21711	8.9705	-1.06769	-15.3865	-14.6808	-0.315792
0.1547	-31.4502	1.39326	0.888797	2.74299	3.89272	6.83033	-0.773152	-1.35182	-18.3336	-0.315792
0.1553	-29.2777	1.39326	-0.0273476	0.609553	1.4366	1.63928	-3.20306	16.351	-9.48568	-0.315792
0.1560	-23.1739	-5.93095	1.80494	-1.52388	-0.0926838	-1.70758	-4.12348	12.9942	-1.55389	0
0.1567	-16.4493	1.08649	3.32957	-1.21911	1.76099	-0.182142	-1.69357	6.88822	5.1603	0.315792
0.1573	-14.0698	31.3037	3.63723	-0.609553	2.96588	1.3433	-0.165675	10.5488	15.5389	-0.631584
0.1580	-14.6906	54.4906	4.24571	-2.75145	1.76099	1.3433	-1.69357	9.02228	23.4707	-1.89475
0.1587	-11.8973	66.3909	4.55337	-3.97056	0.556103	3.16472	-5.0439	2.61251	21.94	-1.26317
0.1593	-7.96602	132.616	3.94489	-3.66578	-0.695128	6.23837	-8.70716	5.6655	10.6569	0
0.1600	-8.89711	240.344	5.77034	-3.05623	-1.57562	7.14908	-9.31464	22.1456	-2.16849	0
0.1607	-11.5869	240.958	7.60263	-2.75145	-1.90002	5.00891	-8.39422	35.5727	-7.96658	-0.315792
0.1613	-10.9662	129.267	4.24571	-3.05623	-2.82686	3.48347	-9.0017	36.1878	-12.234	-0.315792
0.1620	-9.20747	53.5831	-0.943492	-3.36101	-3.4293	3.48347	-10.5296	28.2516	-20.1658	-0.315792
0.1627	-13.1388	57.8523	-1.85964	-3.36101	-3.10491	5.30489	-10.5296	21.2342	-21.998	0
0.1633	-17.6908	111.256	1.49728	-2.43821	-1.57562	10.4959	-8.39422	20.0115	-12.234	0
0.1640	-14.0698	192.436	1.19646	-2.13344	-0.97318	14.4575	-8.39422	6.28066	-4.30219	0
0.1647	-2.48291	205.244	-3.99275	-3.05623	-1.29757	13.2508	-6.86633	-19.3584	-4.00069	-0.315792
0.1653	3.00019	55.4109	-7.65733	-5.49444	-1.90002	5.00891	1.36222	-20.8849	-3.08459	-0.315792
0.1660	0	-111.218	-6.43352	-9.76978	-3.10491	-7.51336	11.7445	-3.1821	4.2442	0
0.1667	4.55201	-124.345	-1.85964	-10.3793	-1.90002	-13.9111	22.4214	4.45038	11.573	-0.315792
0.1673	5.79347	-87.1108	0.587973	-7.93265	-0.97318	-6.2839	23.0289	2.00495	11.2599	-0.631584
0.1680	-1.55182	-95.3426	-1.85964	-7.93265	-0.0926838	6.23837	14.4874	-6.23509	8.2101	-0.315792
0.1687	4.86237	-93.5147	-6.74118	-8.84698	1.4366	6.83033	6.86633	-19.0546	6.691	0
0.1693	13.4491	-76.1181	-10.7066	-5.49444	0.231709	1.3433	-2.59558	-26.6795	1.79741	-0.947376
0.1700	14.0698	-99.0111	-9.18195	1.52388	0.834154	1.95803	-6.25885	-18.4395	0.579809	-1.26317
0.1707	13.1388	-139.901	-6.74118	4.58011	2.08539	5.62364	-0.46021	-10.5032	5.1603	0
0.1713	-11.5869	-139.288	-8.26581	3.04776	0.231709	4.39418	3.49759	-11.7259	5.1603	0
0.1720	-49.141	-113.966	-10.0981	-0.914329	-1.90002	-6.89863	5.63297	-8.9843	-1.55389	-0.315792
0.1727	-31.7606	-94.7418	-8.87429	-3.66578	-2.22441	-16.962	6.86633	-6.23509	-7.35198	-0.631584
0.1733	21.9324	-82.228	-4.30041	-1.52388	-0.695128	-13.2964	5.02549	-7.45781	-7.05048	-0.315792
0.1740	48.8306	-74.597	-0.635832	1.52388	1.15855	-6.57988	2.59558	-4.7086	-4.30219	-0.315792
0.1747	82.0396	-67.5796	-0.635832	3.96209	0.834154	-4.14373	-1.98811	-3.48588	0.278309	-0.631584
0.1753	116.904	-61.4697	-3.99275	3.65732	-0.695128	-5.66917	-7.78675	-8.06537	3.9427	-0.631584
0.1760	98.5924	-56.8937	-6.12586	1.82866	-1.90002	-7.19461	-9.62758	-6.23509	3.62961	-0.315792
0.1767	78.4187	-50.7966	-3.99275	2.43821	-0.695128	-4.46248	-6.86633	0.478454	2.41201	-0.315792
0.1773	107.076	-45.607	-0.0273476	3.04776	1.15855	-0.182142	-2.90852	3.22767	0.88131	-0.315792
0.1780	134.595	-44.6866	1.19646	2.43821	1.76099	0.432588	-2.30105	5.6655	0.278309	-0.631584
0.1787	99.5235	-44.6866	1.19646	-0.609553	-0.0926838	-2.32231	-4.12348	4.45038	-1.25239	-0.315792
0.1793	-38.1748	-40.7242	1.49728	-2.75145	-1.90002	-2.93704	-5.35684	-12.0297	-11.9325	0
0.1800	-171.838	-28.8239	2.41343	-1.21911	-0.97318	0.432588	-3.20306	-24.5455	-15.8984	-0.315792
0.1807	-160.562	-17.5244	2.72109	-0.304776	0.556103	2.86874	-0.46021	-14.1714	-3.08459	-0.631584
0.1813	-106.558	-12.9484	0.888797	-0.914329	-0.0926838	2.25401	-1.38063	-2.87832	2.71351	-0.631584
0.1820	-89.3849	-11.7341	-2.16046	-2.75145	-1.29757	1.3433	-3.516	-4.7086	-4.30219	-0.631584
0.1827	-66.211	-10.2002	-5.51738	-3.97056	-2.50246	1.04732	-3.82894	-8.06537	-10.4018	-0.315792
0.1833	-70.763	-0.434596	-4.60123	-2.43821	-1.29757	1.04732	-2.30105	-9.89565	-12.8486	-0.315792
0.1840	-95.7991	-0.127822	-0.328171	-1.52388	0.231709	-2.00356	0.441801	-15.3865	-12.234	-0.631584
0.1847	-94.3507	-18.7515	2.1126	-4.27534	-0.0926838	-6.89863	2.28264	-16.3054	-6.13438	-0.315792
0.1853	-99.2131	-8.06558	0.587973	-7.3231	-0.97318	-13.2964	2.28264	-7.45781	-0.336289	-0.631584
0.1860	-126.318	47.1664	-3.68509	-8.23743	-0.97318	-5.98792	-1.06769	-4.40482	4.54571	-0.631584
0.1867	-118.145	105.453	-5.51738	-6.40877	-0.0926838	27.2758	-2.30105	-8.67293	13.7067	-0.315792
0.1873	-58.0381	134.443	-5.82504	-5.49444	-0.370735	57.1926	-1.38063	-7.45781	18.2872	-0.315792
0.1880	-6.41419	135.671	-5.51738	-6.40877	-1.29757	65.1158	-2.30105	2.92389	16.455	-1.57896
0.1887	-29.5881	111.563	-3.99275	-7.01832	-1.29757	61.7689	-4.73095	14.5207	7.294	-2.21054
0.1893	-108.938	72.5008	-0.328171	-4.58011	-0.97318	58.4221	-4.43642	18.485	-13.7647	-0.631584
0.1900	-129.732	80.1317	3.94489	0.304776	0.834154	56.8966	-0.773152	14.2093	-36.3425	0
0.1907	-85.4536	142.074	5.77034	3.04776	2.68783	50.7721	2.59558	8.11094	-49.4693	-0.315792
0.1913	-40.2439	129.267	3.02875	3.96209	3.89272	41.6195	4.10507	4.13901	-54.6528	0
0.1920	8.58674	-23.9411	-1.55198	3.04776	4.21711	28.8012	2.89012	2.30873	-57.0996	-0.315792
0.1927	19.8633	-162.181	-0.635832	0.304776	2.96588	13.5468	-1.06769	1.70117	-45.5034	-0.631584
0.1933	1.86219	-164.622	4.24571	-0.304776	2.68783	1.95803	-2.90852	0.478454	-15.5969	-0.631584
0.1940	13.7595	-105.722	3.94489	0.914329	2.68783	-14.2299	-2.59558	-3.48588	17.6726	-0.315792
0.1947	78.7291	-70.3278	-0.943492	2.13344	1.76099	-37.4074	-2.59558	-9.28808	37.8152	-0.315792
0.1953	234.635	-54.759	-6.74118	1.21911	-0.370735	-60.9038	-5.0439	-15.6979	40.5635	-0.315792
0.1960	348.229	-51.3973	-9.48278	0.609553	-1.90002	-80.4385	-8.09969	-16.913	34.7654	-0.315792
0.1967	323.193	-59.6418	-5.21655	4.58011	-0.370735	-87.155	-5.96432	-8.36915	14.0082	-0.631584
0.1973	297.225	-60.2554	1.80494	8.23743	0.834154	-82.8747	0.754744	1.08601	-14.6808	-0.315792
0.1980	307.881	-54.4523	2.1126	8.23743	-0.370735	-70.3752	5.94591	5.36172	-29.9414	0
0.1987	294.225	-42.8588	-5.21655	7.01832	-3.75369	-50.2257	5.02549	8.41472	-33.2927	0
0.1993	241.36	-26.6893	-8.26581	5.49444	-6.16347	-32.8311	1.36222	16.0396	-19.2497	-0.315792
0.2000	206.289	-18.138	-4.60123	6.10399	-4.63419	-21.8571	0.441801	25.5024	-2.16849	-0.631584
0.2007	192.529	-16.3101	0.587973	8.23743	-1.57562	-14.2299	1.67516	27.6364	0.88131	-0.315792
0.2013	127.87	-18.7515	5.77034	6.71355	-1.29757	-9.0388	1.36222	28.2516	16.7565	-0.315792
0.2020	55.8656	-18.7515	9.74258	2.43821	-3.4293	-5.66917	-1.06769	28.8591	37.8152	-0.315792
0.2027	23.4842	-15.083	11.2672	0.304776	-4.35614	-2.00356	-4.43642	12.0753	32.9332	-0.315792
0.2033	-45.5201	-25.769	12.4842	0.304776	-2.82686	0.728568	-3.82894	-12.0297	24.0853	-0.315792
0.2040	-149.285	-42.552	15.5403	0.304776	-1.29757	1.63928	-0.46021	-17.8319	20.1078	-0.315792
0.2047	-225.221	-40.1106	17.3726	-1.52388	-0.97318	2.86874	-0.773152	-17.5281	5.7749	-0.315792
0.2053	-266.706	-29.7314	11.8757	-5.18967	-1.29757	6.83033	-4.73095	-26.6795	-11.0164	0
0.2060	-233.187	-22.1005	1.49728	-7.93265	-2.82686	11.7254	-8.09969	-35.2233	-25.0478	-0.315792
0.2067	-151.665	2.31358	-4.90889	-7.62788	-2.50246	15.983	-6.57179	-30.0363	-29.9414	-0.315792
0.2073	-95.4887	49.6078	-12.2312	-7.01832	-1.57562	18.4419	-4.73095	-15.3865	-17.7306	-0.631584
0.2080	-67.4525	111.256	-31.1557	-6.71355	-2.22441	19.0338	-5.35684	-5.31616	-7.35198	-0.631584
0.2087	-60.1072	186.02	-54.955	-8.23743	-3.75369	14.7763	-5.96432	-2.27076	2.71351	-0.315792
0.2093	-59.4865	249.189	-64.7249	-8.54221	-4.03174	6.83033	-6.57179	8.41472	23.1692	0
0.2100	-62.5901	283.369	-59.8434	-4.27534	-1.90002	8.35577	-6.57179	18.7888	27.4366	-0.631584
0.2107	-66.211	293.135	-59.2281	0	-0.370735	16.9164	-7.49221	10.5488	14.9243	-0.631584
0.2113	-55.2448	292.841	-60.1442	0.609553	-0.0926838	19.6486	-8.09969	5.05794	9.4277	-0.315792
0.2120	-43.0372	296.803	-52.8219	-2.43821	0.556103	13.8656	-7.78675	16.0396	8.8247	-0.315792
0.2127	-42.1061	244.307	-47.9403	-7.01832	2.36344	0.728568	-5.65137	20.3153	9.1262	-0.315792
0.2133	-42.4164	79.2114	-15.8958	-8.23743	5.7464	-12.7044	0.754744	13.298	7.9086	-0.315792
0.2140	-37.8644	-128.921	62.8379	-5.49444	7.27568	-25.4999	7.76834	14.5207	-7.05048	-0.315792
0.2147	-28.657	-268.989	99.4632	-3.05623	5.422	-37.4074	10.5296	22.7607	-24.1317	-0.315792
0.2153	-15.6217	-289.747	57.3479	-3.97056	1.76099	-34.3566	10.2167	24.591	-29.6283	-0.315792
0.2160	-4.86237	-225.044	20.1142	-4.27534	-1.57562	-16.666	13.8799	14.2093	-27.1931	-0.631584
0.2167	0.931093	-161.874	14.6241	-0.609553	-0.370735	-2.00356	16.9357	-7.14643	-19.5628	-0.631584
0.2173	-2.17255	-144.477	12.7918	3.96209	2.96588	1.04732	13.2724	-21.1887	-17.116	-0.315792
0.2180	-16.7597	-138.687	10.0434	5.79922	3.89272	-2.00356	9.29623	-21.1887	-13.4516	-0.315792
0.2187	-24.7257	-111.832	6.68649	5.18967	0.231709	-6.89863	7.4738	-23.019	11.8745	-1.26317
0.2193	-19.2426	-77.9588	6.68649	8.23743	-2.82686	-9.63076	5.94591	-22.4114	25.9059	-1.89475
0.2200	-22.5531	-68.1932	12.1834	15.2558	-2.82686	-7.51336	5.33843	-11.4221	-0.0231924	-0.315792
0.2207	-35.0712	-74.2903	14.6241	19.2263	-3.75369	-7.19461	3.20306	-4.40482	-27.1931	0
0.2213	-40.2439	-67.5796	13.4003	20.1406	-5.23663	-13.2964	-3.516	-13.5562	-26.88	-0.315792
0.2220	-40.2439	-58.4275	13.0995	18.6168	-4.35614	-22.7678	-10.5296	-27.2947	-19.2497	-0.315792
0.2227	-40.2439	-56.8937	11.568	16.7796	-2.50246	-21.8571	-12.9779	-30.0363	-17.116	0
0.2233	-37.2437	-50.183	11.2672	15.5605	-1.29757	-5.98792	-11.1555	-17.8319	-6.13438	-0.315792
0.2240	-39.4163	-51.3973	13.4003	11.9032	0.834154	7.76381	-9.0017	-2.57454	23.4707	-0.315792
0.2247	-56.1759	-60.5622	13.4003	7.93265	1.76099	12.3401	-10.8425	1.08601	54.5949	-0.315792
0.2253	-64.9696	-58.4275	10.3511	6.40877	-1.29757	14.4575	-13.2909	-4.7086	58.5608	-0.631584
0.2260	-30.2088	-42.8588	6.99415	5.18967	-5.56103	13.8656	-13.8983	-7.45781	37.5137	-0.315792
0.2267	21.622	-12.0409	5.16186	4.27534	-4.95858	9.58523	-9.62758	-3.78966	22.5546	0
0.2273	50.3825	18.4831	6.38566	0.609553	-0.97318	-2.61829	5.63297	2.30873	18.2872	0
0.2280	66.5214	32.518	6.99415	-4.58011	1.4366	-20.3316	23.6364	5.05794	7.5955	-0.315792
0.2287	64.6592	35.8797	3.94489	-6.10399	0.834154	-32.5351	33.4112	-1.35182	-8.26808	-0.315792
0.2293	37.2437	44.725	1.19646	-6.71355	-0.370735	-30.6909	34.0187	-11.1184	-12.5355	0
0.2300	14.8975	70.3661	4.55337	-4.58011	1.4366	-17.8727	27.9071	-11.1184	-3.08459	-0.315792
0.2307	7.34529	82.2664	8.21111	0	2.68783	-8.42407	16.9357	-2.57454	2.11051	-0.631584
0.2313	7.03492	54.7974	7.30181	2.74299	1.15855	-2.00356	3.81054	9.32606	0.278309	-0.315792
0.2320	9.72475	8.4107	6.38566	3.35254	-1.57562	7.76381	-8.09969	11.4677	-3.38609	-0.315792
0.2327	8.58674	-44.3799	8.51878	4.88489	-2.82686	14.7763	-16.6412	0.174674	-6.73739	-0.315792
0.2333	5.4831	-90.4598	11.8757	7.62788	-0.370735	14.1615	-13.5854	0.478454	-6.43588	-0.631584
0.2340	5.4831	-95.3426	8.82644	7.62788	1.76099	7.44506	-3.20306	5.05794	-4.60369	-0.631584
0.2347	7.03492	-68.1932	3.02875	5.18967	0.556103	-0.796872	-0.773152	3.53145	-4.00069	-0.315792
0.2353	4.24164	-49.5695	0.587973	2.74299	-2.50246	-6.89863	-5.0439	12.0753	-3.68759	0
0.2360	-3.10364	-40.4174	-0.635832	1.52388	-4.35614	-8.10532	-7.78675	16.6548	-4.30219	-0.315792
0.2367	-3.93128	-24.2479	-0.0273476	2.74299	-2.22441	-1.70758	-6.86633	1.08601	-4.30219	-0.631584
0.2373	10.0351	-9.89344	2.41343	5.18967	1.15855	10.2	-6.57179	-13.5562	-3.68759	-0.315792
0.2380	33.8297	-9.29268	5.46952	5.18967	2.96588	17.8272	-9.0017	-16.6092	-3.08459	-0.315792
0.2387	49.7617	-11.1205	5.77034	2.74299	2.08539	14.1615	-11.1555	-16.0016	-4.60369	0
0.2393	50.6928	-8.37236	1.19646	0.914329	0.834154	5.91962	-8.09969	-11.1184	-6.73739	0
0.2400	44.8994	-5.01063	-3.0766	0.914329	1.4366	4.0982	-3.516	-1.95938	-7.96658	-0.315792
0.2407	31.7606	-2.27524	-5.21655	1.52388	1.76099	6.53435	-2.30105	3.83523	-9.79878	-0.315792
0.2413	22.8635	2.91435	-11.9304	0	0.834154	9.28925	-4.43642	2.92389	-5.21829	0
0.2420	21.3117	10.8521	-18.3366	-2.75145	0.556103	11.7254	-8.39422	-0.432887	0.88131	0
0.2427	11.2766	18.4831	-14.3712	-3.97056	0.231709	9.58523	-9.92212	1.08601	-0.63779	-0.315792
0.2433	11.5869	19.0966	-3.99275	-3.05623	-0.0926838	3.16472	-7.49221	5.6655	-0.0231924	-0.315792
0.2440	-1.86219	9.93179	3.63723	-2.13344	1.4366	1.04732	-4.12348	4.45038	3.62961	-0.315792
0.2447	-61.9694	12.3732	8.21111	-3.05623	2.96588	1.95803	-0.773152	1.39739	3.9427	-0.315792
0.2453	-83.5914	29.463	8.82644	-4.88489	2.96588	0.432588	1.9697	3.83523	2.71351	-0.315792
0.2460	-28.3466	28.5555	6.99415	-6.71355	1.4366	-3.529	5.94591	1.70117	3.02661	-0.315792
0.2467	38.1748	17.5628	10.0434	-5.49444	1.76099	-7.80934	14.4874	-3.78966	6.0764	0
0.2473	81.212	36.4932	13.708	-3.36101	2.36344	-8.10532	19.0711	6.58444	6.9925	0
0.2480	91.5574	45.9521	9.12726	-3.36101	1.15855	-2.00356	13.567	15.7358	1.19441	-1.26317
0.2487	72.9356	1.08649	1.49728	-3.66578	0.556103	3.48347	8.68876	-6.84265	-2.16849	-1.89475
0.2493	54.0034	-15.6966	-1.24432	-3.97056	0.556103	4.0982	6.24044	-25.7682	-3.38609	-0.315792
0.2500	61.0383	25.1938	-1.85964	-0.914329	1.15855	7.14908	1.36222	-12.6449	-18.9482	0
0.2507	87.8331	78.2911	-4.60123	2.43821	2.08539	12.0214	-3.82894	9.02228	-37.2586	-0.315792
0.2513	112.248	134.75	-4.90889	2.13344	1.15855	14.4575	-7.49221	19.404	-41.8391	-0.315792
0.2520	100.041	143.915	-2.46812	-0.609553	-0.370735	10.8147	-7.17927	21.2342	-41.8391	-0.315792
0.2527	15.8286	76.4632	0.888797	-2.43821	-1.57562	5.00891	-5.35684	42.9014	-37.8732	-0.315792
0.2533	-89.6953	27.0216	3.94489	-0.609553	-0.695128	5.00891	-5.65137	68.5329	-40.6214	-0.315792
0.2540	-113.8	41.0693	2.72109	0.304776	-0.0926838	3.48347	-5.0439	55.1058	-33.9073	-0.315792
0.2547	-44.589	19.6974	-3.99275	-3.97056	-1.57562	-0.796872	-4.73095	23.9759	26.219	-0.315792
0.2553	9.72475	-41.9385	-10.0981	-7.93265	-2.22441	-2.32231	-9.31464	3.83523	72.6037	-0.631584
0.2560	-31.7606	-63.9111	-9.18195	-7.3231	-1.29757	-4.46248	-10.2351	-8.36915	49.4114	-0.315792
0.2567	-71.0734	-51.1033	-4.60123	-4.88489	0.556103	-9.63076	-0.46021	-16.6092	19.5048	-0.315792
0.2573	-16.1389	-31.5721	-1.24432	-3.66578	2.36344	-13.2964	7.76834	-17.8319	12.4891	-0.315792
0.2580	28.657	-16.9237	1.19646	-3.66578	2.68783	-13.2964	8.37581	-10.1994	9.7408	-0.315792
0.2587	-8.89711	-15.6966	2.1126	-4.27534	1.4366	-10.8602	5.63297	-1.04804	4.8588	-0.315792
0.2593	-36.9333	-29.4247	5.16186	-4.58011	0.556103	-7.19461	1.9697	4.75416	0.579809	-0.315792
0.2600	-12.8284	-35.2278	11.2672	-2.75145	1.4366	-2.61829	0.754744	5.05794	-0.0231924	-0.315792
0.2607	7.65565	14.5206	9.74258	-0.304776	2.36344	0.728568	-1.06769	2.61251	1.79741	-0.315792
0.2613	9.10402	81.6528	2.1126	-1.21911	1.76099	-0.182142	-4.73095	7.80716	5.4618	-0.315792
0.2620	39.3128	81.3461	-2.16046	-3.05623	-0.370735	6.83033	-6.86633	17.5661	10.3438	-0.315792
0.2627	91.2471	59.6802	-6.12586	-3.97056	-1.90002	35.2217	-7.78675	22.1456	14.9243	-0.315792
0.2633	122.387	91.1117	-8.87429	-3.36101	-0.97318	65.7305	-6.86633	23.3683	19.2033	-0.315792
0.2640	152.596	117.354	-7.95815	-1.82866	0.834154	78.5488	-4.73095	15.432	22.5546	-0.315792
0.2647	186.425	42.5904	-6.43352	-2.75145	1.15855	80.9849	-2.90852	1.08601	26.219	-0.315792
0.2653	172.149	-59.0283	-3.38426	-4.27534	-0.0926838	80.9849	-4.73095	-1.35182	25.0014	-0.315792
0.2660	130.56	-39.4971	-0.943492	-2.75145	-1.57562	75.8167	-9.62758	2.00495	15.2258	-0.315792
0.2667	101.593	44.1114	-0.0273476	-0.609553	-0.370735	66.3453	-12.0575	-5.31616	3.32811	-0.315792
0.2673	83.2811	84.7078	2.41343	0	0.231709	56.8966	-11.45	-9.89565	-6.43588	-0.631584
0.2680	63.7281	80.1317	4.55337	-1.52388	-0.695128	40.4128	-5.65137	3.22767	-7.05048	-0.315792
0.2687	-51.0032	10.5453	3.94489	-5.18967	-0.0926838	16.5977	-3.516	5.36172	-0.63779	0
0.2693	-279.845	-64.5247	0.587973	-7.3231	0.556103	-1.09285	-13.5854	-9.28808	1.79741	-0.315792
0.2700	-407.405	-33.0932	-2.76894	-5.49444	0.834154	-15.7553	-22.7344	-7.76159	2.71351	-0.315792
0.2707	-327.124	92.3388	-3.99275	-2.75145	0.556103	-35.2673	-21.5194	5.36172	5.7749	0
0.2713	-204.427	209.526	0.280313	-2.43821	-0.97318	-56.6462	-11.763	7.80716	6.3779	-0.315792
0.2720	-159.631	162.219	5.16186	-4.88489	-2.22441	-77.3876	3.20306	3.53145	4.8588	-1.57896
0.2727	-133.043	16.0417	5.46952	-7.01832	-2.22441	-87.155	22.4214	5.05794	5.1603	-0.947376
0.2733	-77.1772	-31.2653	1.80494	-5.18967	0.556103	-76.7729	33.0983	7.192	6.691	0.315792
0.2740	-40.2439	-60.2554	-2.76894	-1.82866	2.96588	-53.8913	24.2622	2.61251	6.0764	-0.315792
0.2747	-1.55182	-114.874	-5.21655	-0.914329	3.89272	-34.6753	12.0391	-11.7259	3.9427	-0.631584
0.2753	73.246	-112.138	-7.95815	-2.13344	2.36344	-27.6401	9.0017	-26.6795	0.579809	-0.315792
0.2760	120.214	-95.9561	-11.9304	-2.43821	-0.370735	-23.6785	12.0391	-31.259	-1.25239	-0.315792
0.2767	122.387	-114.874	-10.7066	0.609553	23.1246	-22.449	18.4636	-38.8915	0.88131	0
0.2773	113.179	-144.784	-3.68509	3.35254	65.5274	-28.5735	24.2622	-45.2937	3.02661	-0.315792
0.2780	100.972	-123.732	-1.24432	1.82866	78.9666	-27.9588	27.2996	-30.3401	1.79741	-1.89475
0.2787	84.5225	-59.3351	-5.51738	0.609553	66.1762	-15.1406	24.8697	-11.7259	-0.0231924	-1.57896
0.2793	53.0723	-26.0757	-9.48278	0.609553	49.3541	-3.84775	16.6228	-2.57454	0.278309	0.631584
0.2800	-6.72456	-20.8862	-9.79044	1.21911	30.771	-5.37319	13.8799	8.11094	-0.0231924	-0.631584
0.2807	-83.2811	-7.75881	-11.3151	4.88489	12.1416	-11.475	11.4316	14.5207	-13.1501	-2.52634
0.2813	-132.422	11.7724	-13.455	7.62788	-4.35614	-15.7553	4.73095	10.8526	-27.7961	-0.947376
0.2820	-150.113	35.5729	-7.95815	7.01832	-18.0733	-23.0637	4.10507	18.1813	-25.9639	0.315792
0.2827	-157.458	41.67	-0.635832	4.88489	-27.8515	-24.2932	4.73095	36.4916	-18.9482	-0.315792
0.2833	-106.869	-10.507	-3.0766	3.65732	-34.5711	-17.2807	5.33843	38.9295	-13.1501	-0.315792
0.2840	-5.79347	-70.021	-5.51738	3.96209	-38.5101	-12.3857	7.4738	5.05794	-7.96658	-0.315792
0.2847	52.4516	-88.9387	-2.76894	3.96209	-39.1126	-8.72005	4.10507	-58.7283	-10.4018	-0.315792
0.2853	57.3139	-91.6869	4.55337	2.43821	-40.0394	-7.19461	-4.43642	-87.109	-9.79878	-0.315792
0.2860	39.0024	-52.9312	14.3165	0.914329	-38.8345	-9.33478	-12.0575	-52.0072	5.4618	-0.315792
0.2867	14.3802	20.0042	17.981	2.13344	-29.0564	-7.80934	-12.9779	-16.0016	17.058	-0.315792
0.2873	18.0011	72.8075	14.0156	4.27534	-14.0879	4.0982	-11.1555	-9.28808	11.2599	-0.631584
0.2880	42.7268	106.067	10.6587	5.18967	-1.57562	14.1615	-12.0575	-21.7962	2.41201	-0.315792
0.2887	56.7967	133.536	9.12726	3.96209	6.02445	16.5977	-13.2909	-25.7682	-0.63779	0
0.2893	72.6252	164.967	-2.46812	0.914329	6.62689	19.9673	-11.1555	5.05794	-2.16849	0
0.2900	91.5574	201.895	-13.7558	0	0.834154	26.9798	-5.65137	19.7078	0.278309	-0.315792
0.2907	97.6613	262.317	-13.455	-1.52388	-7.09031	28.8012	1.06769	-1.35182	5.4618	-0.315792
0.2913	92.4885	307.489	-8.87429	-4.88489	-9.82448	22.1075	10.2167	-1.6556	9.7408	-0.315792
0.2920	78.1083	196.706	-1.24432	-7.62788	-9.54643	12.3401	14.1745	27.0289	7.5955	0
0.2927	64.0385	-31.2653	6.68649	-9.76978	-11.0757	4.0982	12.9595	46.5619	1.19441	-0.315792
0.2933	16.1389	-185.981	12.4842	-7.3231	-12.2806	-2.32231	23.6364	49.9187	7.294	0
0.2940	-85.764	-186.288	15.5403	-1.21911	-11.0757	-5.05444	36.467	48.9998	19.5048	0
0.2947	-162.631	-80.4002	14.6241	2.74299	-0.97318	-0.478123	30.0609	37.403	21.337	-0.315792
0.2953	-208.151	9.02425	7.30181	6.10399	17.6099	10.8147	8.08128	5.6655	20.7224	-0.315792
0.2960	-223.359	44.725	-5.82504	9.45654	30.4466	23.6329	-9.92212	-30.0363	20.1078	-0.315792
0.2967	-156.527	80.4385	-13.7558	11.5984	31.3735	26.9798	-15.4262	-40.7218	16.7565	-0.631584
0.2973	-88.5573	108.815	-11.9304	13.4271	26.4612	14.7763	-16.3282	-12.9486	17.6726	-0.631584
0.2980	-78.7291	77.0768	-7.34967	13.1223	21.2709	-8.72005	-16.3282	36.1878	11.8745	-0.315792
0.2987	-77.1772	-5.62418	-3.38426	8.54221	15.2001	-33.4458	-13.8983	52.6679	-19.2497	0
0.2993	-41.4854	-73.6767	0.888797	1.82866	6.34884	-37.7262	-10.8425	30.9932	-43.9727	-0.315792
0.3000	39.9335	-116.714	4.24571	-0.914329	-4.35614	-22.7678	-8.39422	28.5554	-28.7122	-0.315792
0.3007	114.111	-132.577	7.60263	1.21911	-14.0879	-11.7709	-8.70716	45.0354	-7.05048	0
0.3013	141.94	-100.225	8.82644	1.52388	-19.0002	-5.37319	-9.0017	23.6721	-6.13438	-0.315792
0.3020	153.216	-60.2554	5.46952	-2.13344	-19.2782	4.69016	-3.20306	-31.8666	-13.4516	-0.315792
0.3027	160.562	-29.7314	-0.0273476	-4.88489	-19.0002	9.28925	2.89012	-54.7564	-12.5355	-0.315792
0.3033	151.975	-8.67913	-2.46812	-3.36101	-19.0002	1.04732	4.10507	-42.2483	-2.77149	-0.315792
0.3040	96.4198	-39.8038	-4.90889	-1.82866	-19.2782	-7.51336	4.41801	-41.6331	0.88131	-0.315792
0.3047	-11.2766	-82.8416	-8.87429	-0.914329	-17.7489	-2.93704	3.49759	-51.7034	-5.82129	-0.315792
0.3053	-97.0406	-73.076	-9.79044	0	-14.4123	6.23837	1.36222	-46.5164	-13.7647	-0.315792
0.3060	-100.455	-34.6143	-7.04201	-0.914329	-10.4269	7.76381	-1.98811	-28.5098	-14.3677	-0.631584
0.3067	-35.3815	2.91435	-3.68509	0	-5.23663	8.9705	-4.73095	-5.93131	-9.18418	0
0.3073	30.2088	34.0518	-2.76894	0.609553	-0.97318	11.1107	-6.86633	8.41472	-6.13438	-0.631584
0.3080	45.727	36.4932	-1.24432	0.609553	0.556103	8.35577	-9.0017	-3.78966	-5.82129	-2.21054
0.3087	28.657	-20.8862	8.82644	1.52388	-0.695128	5.62364	-9.62758	-17.2243	-11.3179	-1.26317
0.3093	12.8284	-71.5421	18.2819	1.21911	-3.75369	7.76381	-10.2351	-5.01238	-25.3609	0.315792
0.3100	20.484	-49.8762	18.8972	1.21911	-5.23663	11.7254	-7.49221	12.6828	-32.9912	0
0.3107	42.4164	-52.9312	12.7918	1.82866	-4.03174	13.8656	-2.90852	12.9942	-25.6624	0
0.3113	50.0721	-96.5697	4.55337	0.609553	-2.82686	13.5468	-3.516	-5.93131	-8.88268	0.315792
0.3120	56.7967	-100.839	-1.24432	-2.43821	-2.22441	12.9321	-8.39422	-25.4644	1.79741	-0.315792
0.3127	44.2786	-88.6319	-5.51738	-2.75145	-1.90002	10.4959	-12.665	-30.9552	-4.91678	-0.631584
0.3133	-37.2437	-80.4002	-9.48278	0.304776	-0.0926838	6.23837	-12.3704	-22.4114	0.88131	-0.631584
0.3140	-76.66	-63.9111	-6.43352	0	2.08539	4.0982	-3.82894	-16.0016	34.1508	0
0.3147	-15.0009	-55.6794	0.888797	-3.66578	1.4366	3.77945	5.63297	-26.3757	43.3118	0
0.3153	5.4831	-55.6794	-1.85964	-4.27534	-1.29757	3.48347	4.73095	-38.2763	13.7067	0
0.3160	-11.2766	-49.8762	-12.5389	-3.36101	-2.82686	3.77945	-2.30105	-28.206	-7.35198	-0.315792
0.3167	9.41438	-40.1106	-12.5389	-2.13344	-1.29757	2.86874	-3.516	1.70117	-5.82129	-0.315792
0.3173	32.6917	-34.3075	-2.16046	-1.21911	-0.0926838	-1.4116	-2.30105	21.2342	-3.08459	-0.315792
0.3180	42.7268	-32.4796	3.63723	-1.52388	-0.0926838	-6.89863	-3.82894	17.5661	-7.35198	-0.315792
0.3187	47.8995	-30.345	5.16186	-1.52388	-0.97318	-8.72005	-4.43642	2.30873	-18.9482	-0.631584
0.3193	63.2108	-16.0033	3.94489	-2.43821	-1.29757	-11.7709	-0.46021	-8.9843	-27.7961	-0.315792
0.3200	92.4885	7.19639	2.72109	-3.97056	0.834154	-24.5892	15.7023	-7.14643	-26.88	0
0.3207	102.213	22.7524	4.24571	-3.97056	1.76099	-34.0606	32.4908	0.782234	-14.6808	-0.315792
0.3213	98.282	40.7625	1.80494	-2.43821	0.556103	-22.153	29.7479	12.0753	7.294	-0.315792
0.3220	81.5223	67.9247	-1.55198	-2.13344	0.231709	-4.75846	16.6228	15.1283	14.0082	-0.315792
0.3227	-5.17274	75.2489	-1.24432	-2.13344	0.231709	1.3433	7.4738	4.75416	9.4277	-0.315792
0.3233	-93.73	29.7698	1.80494	1.82866	1.4366	6.83033	-0.773152	-6.53887	5.7749	-0.315792
0.3240	-78.7291	-37.0557	4.55337	5.18967	2.68783	12.3401	-8.70716	-18.1357	-6.43588	-0.631584
0.3247	-46.1408	-48.9559	3.94489	4.27534	2.08539	8.9705	-12.9779	-19.6622	-5.51979	-0.631584
0.3253	-119.283	-9.59945	3.32957	2.13344	0.231709	1.3433	-13.2909	-10.8146	6.3779	-0.315792
0.3260	-210.324	18.1763	2.72109	1.52388	-0.695128	-3.23302	-11.1555	-13.2524	-1.85539	-0.315792
0.3267	-191.391	18.4831	1.49728	3.35254	1.4366	-2.32231	-7.78675	-20.2697	-9.48568	-0.315792
0.3273	-148.044	9.33102	-1.85964	2.13344	7.27568	1.95803	-6.86633	-16.6092	6.691	0
0.3280	-121.766	8.71747	-7.65733	-3.05623	10.9367	5.30489	-6.57179	-6.53887	21.6385	-0.315792
0.3287	-56.4863	26.4209	-10.0981	-5.18967	10.0098	6.53435	-5.65137	3.53145	23.7722	-0.315792
0.3293	14.6906	44.725	-7.65733	-2.43821	6.02445	6.83033	-9.31464	0.478454	14.0082	0
0.3300	54.6241	33.4383	-0.635832	1.82866	5.422	9.88121	-8.39422	7.80716	-8.88268	-0.315792
0.3307	63.2108	5.66252	6.99415	3.96209	6.95128	11.4066	2.89012	52.3565	-18.0321	-0.315792
0.3313	69.5216	-36.1481	9.74258	1.82866	6.62689	13.2508	11.4316	64.8723	-5.21829	-0.315792
0.3320	99.2131	-79.1731	8.21111	-1.82866	3.29027	18.7379	11.7445	29.4743	0.88131	-0.315792
0.3327	112.248	-71.2353	3.63723	-4.88489	-0.695128	18.7379	8.08128	10.245	-6.73739	-0.631584
0.3333	103.144	-37.976	-0.943492	-3.66578	0.556103	16.3017	7.76834	5.36172	-9.79878	-0.315792
0.3340	101.903	-28.2104	-2.46812	-2.43821	4.21711	11.4066	14.4874	6.28066	10.0423	-0.315792
0.3347	94.2473	-29.1307	-1.24432	-4.27534	5.09761	6.53435	21.501	23.6721	41.1665	-0.315792
0.3353	80.5912	-30.345	0.280313	-7.01832	1.76099	20.2633	27.0051	29.4743	38.4182	0
0.3360	82.6603	-21.8065	-0.943492	-8.84698	-6.16347	35.5177	32.1963	11.1639	7.5955	0
0.3367	59.7968	9.02425	-0.943492	-10.0746	-9.22204	36.7472	35.5466	-0.129107	5.1603	-0.315792
0.3373	-29.2777	34.0518	1.80494	-10.3793	-4.35614	41.0275	28.2201	5.05794	26.219	-0.315792
0.3380	-140.698	36.1865	4.55337	-8.23743	0.231709	51.0909	9.29623	10.245	22.2531	-0.315792
0.3387	-192.012	41.9768	5.46952	-3.66578	1.4366	57.4886	-5.96432	13.298	-4.60369	-0.315792
0.3393	-143.181	59.6802	2.72109	-1.52388	0.834154	52.9123	-7.17927	18.1813	-20.4789	-1.57896
0.3400	-77.4876	65.4833	0.888797	0	1.76099	42.2342	-2.90852	22.4494	-8.88268	-1.57896
0.3407	-88.7642	67.618	-0.635832	2.13344	3.61467	35.5177	-5.96432	24.591	11.2599	0
0.3413	-125.387	80.1317	-6.12586	-0.609553	1.76099	24.2249	-13.8983	23.0645	12.7906	0.315792
0.3420	-111.11	47.1664	-7.34967	-5.49444	-1.57562	7.44506	-15.7208	17.2623	13.0921	-0.315792
0.3427	-65.2799	-8.06558	-3.0766	-6.10399	-2.50246	-9.94951	-17.2487	10.8526	25.6044	-0.315792
0.3433	-32.6917	2.91435	2.1126	-1.52388	-1.29757	-36.7927	-19.384	9.02228	27.7381	-0.315792
0.3440	-5.17274	47.4732	7.60263	5.18967	-0.370735	-63.6587	-19.0895	12.0753	17.6726	-0.315792
0.3447	40.2439	65.7901	9.43492	7.01832	2.68783	-78.0024	-19.0895	11.4677	13.3936	-0.631584
0.3453	40.5543	99.9698	5.77034	4.27534	6.95128	-85.0148	-22.4398	2.30873	14.0082	-0.631584
0.3460	15.2078	157.95	2.41343	0.914329	5.09761	-86.2443	-32.1963	-6.53887	13.7067	-0.315792
0.3467	83.9018	85.6153	5.16186	0.304776	0.556103	-74.3367	-36.467	-6.84265	16.7565	0
0.3473	126.008	-97.49	8.82644	0.914329	-1.57562	-48.0855	-19.697	3.83523	17.3711	-0.315792
0.3480	16.4493	-165.543	7.30181	-0.304776	-3.4293	-22.153	2.59558	15.7358	8.5116	-0.315792
0.3487	-83.9018	-117.021	2.72109	-2.13344	-5.88542	-6.57988	4.10507	11.1639	4.54571	-0.315792
0.3493	-32.071	-77.0385	-1.24432	0.609553	-6.76592	7.14908	-5.35684	-10.5032	2.41201	-0.315792
0.3500	94.868	-58.7215	-2.16046	5.79922	-4.03174	18.7379	-1.69357	-26.6795	-3.38609	0
0.3507	79.9705	-43.4723	-1.55198	6.40877	-0.370735	19.0338	6.24044	-22.4114	-0.939291	-0.315792
0.3513	-29.2777	-33.7067	0.280313	3.96209	-0.370735	14.7763	5.02549	-13.2524	-0.939291	-0.315792
0.3520	14.0698	-28.5171	-0.0273476	0.914329	-2.22441	4.39418	2.89012	-10.1994	-5.82129	-0.315792
0.3527	102.213	-23.3276	-3.68509	-3.05623	-3.4293	-11.475	7.4738	-11.7259	-7.65348	-0.315792
0.3533	72.0045	-15.083	-5.21655	-3.66578	-1.90002	-15.4365	14.1745	-17.8319	-6.13438	-0.631584
0.3540	8.58674	-9.59945	-3.0766	-2.43821	2.68783	-15.4365	17.5432	-18.7432	-2.77149	-0.315792
0.3547	-20.7944	-10.507	-0.0273476	-2.43821	6.02445	-22.449	19.9731	-12.9486	-1.25239	-0.315792
0.3553	-32.071	-12.3348	2.1126	2.13344	4.21711	-25.8186	16.6228	-11.1184	-5.82129	-0.315792
0.3560	-74.1771	-13.5619	1.80494	12.208	-0.370735	-26.4334	8.68876	-12.9486	-19.2497	-0.315792
0.3567	-144.319	-10.2002	1.19646	16.4749	-1.29757	-29.1655	8.08128	-12.3411	-27.1931	-0.631584
0.3573	-151.975	-4.40987	-0.0273476	10.9889	-0.370735	-28.8695	10.5296	-10.1994	-18.3336	-0.631584
0.3580	-86.3847	-1.96846	-2.76894	3.96209	0.834154	-18.4874	7.76834	-8.67293	-7.65348	-0.315792
0.3587	-26.5879	-0.434596	-6.12586	0.914329	2.36344	-2.32231	1.9697	-9.59186	-13.7647	-0.315792
0.3593	25.036	0.779716	-8.26581	2.43821	2.68783	6.83033	-5.0439	-13.8676	-25.6624	-0.315792
0.3600	73.5563	2.00681	-6.43352	4.88489	2.36344	6.53435	-6.57179	-14.1714	-12.5355	-0.315792
0.3607	82.35	4.14144	-3.38426	4.58011	0.556103	4.69016	-2.90852	-8.9843	15.2258	-0.315792
0.3613	77.798	3.22112	-0.0273476	3.65732	-2.22441	1.95803	-3.20306	-1.6556	13.3936	-0.315792
0.3620	113.8	-2.56923	3.63723	-0.304776	0.231709	-0.182142	-5.35684	6.28066	-26.5785	-0.315792
0.3627	132.422	-6.85127	4.55337	-12.5128	5.422	-0.182142	-4.43642	8.11094	-56.7865	-0.315792
0.3633	77.798	-4.10309	3.02875	-24.1112	7.27568	-0.182142	0.147267	4.45038	-37.5601	-0.315792
0.3640	-39.1059	-1.66169	3.32957	-29.6056	5.7464	-0.478123	5.33843	5.05794	-6.43588	-0.315792
0.3647	-178.873	-2.56923	5.16186	-31.4343	2.96588	1.04732	5.33843	9.02228	-1.25239	-0.315792
0.3653	-190.771	-1.04814	2.72109	-28.6913	0.556103	3.16472	1.36222	5.36172	-18.3336	-0.315792
0.3660	-59.7968	5.04898	-3.99275	-26.8542	0.231709	4.69016	-2.59558	-7.14643	-14.6808	-0.631584
0.3667	50.6928	12.0792	-5.82504	-27.7685	3.89272	6.53435	-4.12348	-14.7789	40.865	-0.315792
0.3673	84.2122	14.5206	-2.76894	-23.5016	5.7464	6.23837	-5.0439	-10.1994	75.0505	-0.947376
0.3680	87.6262	12.68	0.280313	-16.4833	3.61467	2.86874	-4.73095	-4.10104	54.5949	-1.89475
0.3687	113.8	10.8521	1.19646	-7.62788	2.08539	-0.478123	0.754744	-0.744262	33.2347	-0.947376
0.3693	169.355	6.58284	-0.0273476	15.8653	1.76099	-3.23302	6.86633	-0.129107	19.5048	0
0.3700	197.392	3.52789	-0.328171	44.2518	2.08539	-4.75846	13.567	0.782234	2.41201	-0.631584
0.3707	177.011	5.04898	1.80494	50.3558	3.29027	-3.84775	18.1507	4.75416	-5.51979	-0.315792
0.3713	167.493	5.9693	0.587973	34.1773	4.49516	-3.84775	13.2724	6.28066	-1.85539	-0.315792
0.3720	149.802	5.66252	-1.85964	13.7319	3.89272	-4.46248	3.49759	7.192	3.9427	0
0.3727	97.6613	5.9693	-4.30041	3.04776	2.36344	-0.182142	-5.0439	4.45038	5.4618	0
0.3733	127.87	10.5453	-5.51738	5.18967	2.68783	10.4959	-10.2351	1.39739	6.691	0
0.3740	197.702	15.7349	-6.74118	10.3709	2.36344	18.1231	-14.8003	2.61251	9.1262	-0.315792
0.3747	171.838	16.6552	-8.57347	10.6841	-0.0926838	17.8272	-17.8561	2.61251	7.9086	-1.57896
0.3753	132.732	12.68	-7.95815	10.6841	-3.75369	14.7763	-16.3282	0.478454	6.3779	-1.26317
0.3760	171.838	7.49038	-4.30041	10.3709	-5.88542	12.0214	-14.8003	-2.87832	6.691	-0.315792
0.3767	240.429	5.66252	0.888797	10.3709	-3.10491	12.0214	-12.9779	-2.57454	5.4618	-0.631584
0.3773	183.425	4.75499	3.32957	8.84698	1.15855	11.1107	-6.25885	10.245	1.79741	-0.315792
0.3780	-28.9673	2.31358	3.02875	3.35254	3.89272	5.30489	1.9697	23.0645	3.62961	-0.315792
0.3787	-168.114	0.779716	1.80494	-2.43821	6.95128	0.113839	6.24044	12.9942	14.0082	-0.315792
0.3793	-104.386	1.70004	-0.635832	-5.49444	8.15617	-0.478123	7.4738	-5.01238	21.6385	0
0.3800	30.5191	5.35575	-3.0766	-3.97056	7.87812	2.25401	9.90371	-5.93131	23.4707	-0.315792
0.3807	76.2461	8.4107	-4.30041	-2.75145	7.55373	6.23837	9.90371	2.61251	19.8063	-0.315792
0.3813	0.310364	10.5453	-4.60123	-4.58011	6.34884	8.67452	5.02549	7.192	3.62961	-0.315792
0.3820	-117.525	12.0792	-4.90889	-1.21911	0.834154	8.67452	0.754744	9.94121	-16.8145	-0.315792
0.3827	-184.046	6.58284	-4.60123	3.35254	-3.10491	2.86874	-0.165675	9.32606	-28.7122	-0.315792
0.3833	-171.528	1.39326	-0.0273476	6.71355	21.2709	-3.84775	1.36222	9.94121	-27.1931	-0.315792
0.3840	-66.5214	3.83467	5.46952	10.3709	59.4567	-1.70758	-0.165675	12.9942	-13.4516	-0.315792
0.3847	27.4155	6.58284	5.46952	8.84698	65.5274	6.53435	-5.96432	9.32606	-1.25239	-0.315792
0.3853	36.9333	6.27607	4.24571	4.27534	49.0761	10.4959	-13.2909	4.45038	0.579809	-0.631584
0.3860	26.7948	4.44821	4.24571	2.13344	30.4466	8.9705	-19.384	2.00495	-4.00069	-0.631584
0.3867	31.1399	6.58284	4.8542	2.13344	10.9367	8.05979	-21.2249	-4.40482	-4.60369	-0.315792
0.3873	103.765	10.2386	6.38566	1.82866	-3.75369	9.28925	-22.1269	-9.59186	-0.63779	-0.631584
0.3880	110.8	8.4107	8.21111	0.304776	-14.0879	8.05979	-19.697	-5.93131	1.49591	-0.631584
0.3887	-117.835	2.60757	8.82644	-3.36101	-26.3222	-1.70758	-1.69357	-2.27076	3.02661	-0.315792
0.3893	-337.883	-1.66169	7.60263	-7.3231	-35.4515	-8.42407	18.7581	-5.93131	6.0764	-0.315792
0.3900	-320.089	1.70004	3.02875	-6.10399	-34.2467	-0.478123	20.599	-7.76159	4.8588	0
0.3907	-192.219	9.6378	-2.46812	-0.609553	-27.5271	11.7254	8.68876	-7.45781	-4.30219	-0.315792
0.3913	-89.0745	12.9867	-3.38426	2.43821	-20.2051	14.7763	-5.0439	-7.45781	-10.1003	-0.631584
0.3920	-36.623	10.5453	-3.0766	0.914329	-8.2952	1.95803	-16.3282	-3.1821	-5.82129	-0.315792
0.3927	-48.2099	5.9693	-4.30041	-1.52388	3.29027	-9.33478	-23.6548	2.30873	-4.00069	-0.315792
0.3933	-90.6264	4.44821	-1.55198	1.21911	9.08301	5.91962	-24.2622	3.53145	-8.56958	-0.631584
0.3940	-159.941	5.04898	2.1126	4.88489	12.4196	20.2633	-12.0575	3.53145	-11.3179	-0.631584
0.3947	-226.462	4.44821	2.1126	0.304776	16.405	3.77945	12.9595	1.70117	-7.35198	-0.315792
0.3953	-229.773	5.66252	0.888797	-7.3231	16.405	-24.2932	36.7615	-0.432887	0.88131	-0.315792
0.3960	-188.288	7.19639	-0.328171	-9.76978	6.95128	-35.2673	44.401	-1.04804	4.2442	-0.631584
0.3967	-112.662	9.02425	0.888797	-6.71355	-7.09031	-26.7294	42.2656	0.174674	4.2442	0
0.3973	-41.4854	11.4657	2.72109	-1.52388	-20.8075	-16.0513	31.8833	-5.31616	2.41201	-0.631584
0.3980	-25.6568	10.5453	3.02875	3.04776	-27.5271	-8.72005	9.29623	-15.3865	-2.46999	-2.21054
0.3987	-30.8295	7.19639	3.94489	7.3231	-28.4539	-0.796872	-8.39422	-15.0827	-8.26808	-1.57896
0.3993	-19.2426	3.22112	1.19646	10.0661	-29.0564	3.77945	-14.8003	-8.9843	-14.0662	0
0.4000	-11.5869	4.14144	-2.46812	12.208	-26.6002	-0.182142	-13.5854	-8.36915	-15.8984	0
0.4007	13.4491	8.4107	-1.55198	10.0661	-23.588	-10.8602	-6.25885	-9.28808	-12.8486	-0.315792
0.4013	53.3826	6.88962	1.49728	3.65732	-22.3368	-15.4365	-2.59558	-7.14643	-10.4018	-0.315792
0.4020	-12.518	3.83467	1.80494	14.3414	-20.8075	-9.94951	-5.35684	-4.7086	-10.1003	-0.315792
0.4027	-116.593	13.6003	-0.0273476	51.5749	-17.4709	-6.2839	-7.78675	-2.57454	-9.79878	-0.315792
0.4033	-124.249	30.9969	-0.328171	87.2761	-10.7513	-5.66917	-6.25885	2.30873	-3.38609	-0.315792
0.4040	-89.6953	40.4557	0.280313	99.7889	-2.82686	-4.14373	-1.69357	4.75416	5.4618	-0.315792
0.4047	-54.6241	42.5904	-0.635832	97.9602	-1.90002	-4.75846	1.67516	0.782234	6.691	-0.631584
0.4053	-39.1059	39.5354	-1.24432	86.9713	-5.88542	-4.46248	-0.46021	1.39739	4.54571	-0.631584
0.4060	-62.9005	37.4008	-2.76894	66.8307	-8.01715	-3.84775	-4.73095	5.96928	3.02661	-0.315792
0.4067	-67.7629	42.2836	-4.30041	47.2996	-8.01715	-2.32231	-5.35684	7.49578	3.62961	-0.315792
0.4073	-12.8284	10.2386	-0.328171	30.2152	-5.88542	0.432588	-0.773152	9.02228	8.8247	-0.315792
0.4080	90.9367	-55.3726	7.60263	7.3231	-3.75369	1.63928	4.41801	9.32606	13.7067	0
0.4087	170.907	-68.7939	10.3511	-7.01832	-2.22441	2.25401	3.20306	3.22767	14.6228	-0.315792
0.4093	115.352	-36.4549	7.30181	-14.6462	-1.90002	2.57276	-2.59558	-6.53887	10.9584	-0.315792
0.4100	3.00019	-2.876	5.77034	-64.3925	-0.0926838	4.39418	-1.69357	-6.53887	6.9925	-0.315792
0.4107	20.484	23.3659	4.8542	-131.833	2.96588	6.83033	3.20306	0.478454	3.62961	-0.315792
0.4113	103.144	33.1315	-2.46812	-132.451	3.89272	9.88121	1.9697	0.174674	-12.234	-0.315792
0.4120	144.009	38.9346	-18.0289	-84.2284	2.08539	11.1107	-0.165675	-3.48588	-28.7122	-0.315792
0.4127	175.459	51.7424	-25.9665	-49.4415	-0.370735	6.53435	1.9697	-1.35182	-26.5785	-0.315792
0.4133	141.94	61.8148	-14.3712	-31.4343	-0.370735	4.39418	3.20306	9.94121	-12.234	-0.315792
0.4140	43.0372	37.4008	0.280313	-22.8921	2.08539	10.2	2.28264	20.3153	10.0423	-0.631584
0.4147	-11.2766	5.35575	3.63723	-25.0255	2.96588	18.1231	1.67516	24.591	35.0669	-0.315792
0.4153	-35.6919	12.68	-0.635832	-18.6168	1.15855	16.3017	-0.165675	32.8311	56.4271	-0.315792
0.4160	-46.3477	-14.4823	-2.76894	9.76131	-0.0926838	3.16472	0.147267	38.0181	60.393	-0.315792
0.4167	-3.41401	-66.6593	-2.76894	39.9765	1.15855	-5.66917	6.24044	22.1456	30.1849	-0.315792
0.4173	20.7944	-51.3973	-6.12586	48.8235	2.08539	-4.46248	11.7445	-8.67293	-3.68759	0
0.4180	-6.41419	-19.3651	-6.43352	52.794	1.76099	-2.00356	11.1371	-20.2697	-4.91678	0
0.4187	-1.24146	-15.6966	-2.46812	84.2284	0.556103	-2.32231	5.94591	-8.67293	19.2033	-0.315792
0.4193	42.4164	-4.10309	-1.85964	118.71	-0.97318	-0.796872	-1.98811	-1.04804	14.9243	-0.315792
0.4200	63.7281	39.5354	-0.328171	130.918	-0.370735	2.57276	-7.78675	1.08601	-23.8302	-0.315792
0.4207	42.4164	81.3461	3.63723	130.004	1.4366	5.00891	-5.35684	2.61251	-12.8486	-0.315792
0.4213	56.7967	49.9146	6.38566	127.261	1.15855	5.00891	-1.69357	2.00495	23.4707	-0.315792
0.4220	120.835	-18.7515	7.30181	116.577	-0.695128	-1.70758	-3.82894	0.782234	11.573	-0.315792
0.4227	69.5216	-40.1106	6.38566	58.2885	-2.50246	-5.37319	-7.78675	-2.27076	-12.234	0
0.4233	-91.8678	-22.714	6.38566	-18.9215	-2.22441	19.9673	-7.17927	-2.27076	-9.79878	-0.315792
0.4240	-150.113	15.4281	6.99415	-39.367	-0.695128	53.231	-4.12348	-4.40482	-10.1003	-0.315792
0.4247	-96.4198	48.0867	5.77034	-1.82866	0.231709	64.5238	-4.43642	-8.67293	-36.3425	-0.315792
0.4253	-29.5881	17.8695	1.49728	1.82866	-1.29757	67.256	-9.62758	-8.9843	-51.9045	-0.315792
0.4260	26.2775	-26.0757	-3.0766	-133.975	-4.35614	68.7814	-14.8003	-8.9843	-50.0723	-0.315792
0.4267	35.0712	-9.89344	-4.60123	-277.406	-3.75369	66.3453	-9.62758	-7.14643	-54.0498	0
0.4273	1.24146	34.3458	-4.60123	-234.678	-0.695128	56.2819	-1.38063	-1.95938	-54.0498	-0.631584
0.4280	-24.7257	48.7003	-2.76894	-120.548	-0.695128	42.2342	-0.165675	2.61251	-47.6371	-2.21054
0.4287	-12.8284	-1.66169	4.55337	-71.4108	-1.29757	30.3267	1.06769	7.80716	-15.5969	-1.57896
0.4293	3.93128	-61.4697	10.3511	-51.8797	0.834154	20.2633	0.754744	9.94121	17.6726	0
0.4300	-21.9324	-54.759	9.12726	-38.7574	7.55373	11.7254	-5.96432	8.41472	11.8745	-0.315792
0.4307	-24.4153	-9.29268	3.94489	-37.8431	15.8026	-4.75846	-9.0017	6.58444	34.1508	-0.631584
0.4313	18.6219	27.3284	0.888797	-38.1479	17.9343	-34.6753	-5.0439	2.61251	40.5635	-0.315792
0.4320	27.7259	25.5005	2.1126	-35.4049	13.9489	-60.3118	-1.38063	-0.129107	-47.0225	-0.315792
0.4327	14.8975	13.6003	-1.55198	-32.9582	8.75862	-73.426	-2.90852	-5.62753	-89.1399	-0.315792
0.4333	-6.41419	18.4831	-7.65733	-26.2446	6.62689	-83.4894	-10.5296	-15.3865	-50.0723	-0.315792
0.4340	-21.1048	-18.138	-6.74118	-17.7024	6.02445	-86.5403	-14.5058	-17.8319	-29.6283	-0.631584
0.4347	3.62092	-43.7791	-3.99275	-17.7024	3.61467	-74.3367	-8.09969	-15.6979	-19.2497	-0.631584
0.4353	2.17255	-7.15804	-3.0766	-23.5016	-1.29757	-59.0823	5.94591	-15.0827	-12.234	-0.315792
0.4360	-74.7978	-26.9833	-2.46812	-28.3865	-6.76592	-45.0346	23.6364	-12.0297	0.579809	-0.315792
0.4367	-142.25	-89.2455	-0.328171	-29.3009	-9.22204	-32.8311	38.8969	-2.57454	54.2934	-0.315792
0.4373	-69.0043	-79.4799	3.94489	-27.159	-9.82448	-28.8695	45.0085	6.28066	96.7122	-0.315792
0.4380	101.593	-35.8414	6.99415	-23.5016	-14.7367	-23.9745	43.1677	9.32606	84.1999	-0.315792
0.4387	198.633	-26.9833	6.68649	-20.4454	-19.0002	-14.5258	34.6262	9.02228	59.4769	-0.315792
0.4393	222.428	-34.921	3.02875	-21.6645	-16.8685	-6.89863	19.3656	4.45038	45.4455	0
0.4400	253.878	-23.3276	-2.16046	-18.9215	-11.0757	-0.796872	1.06769	-0.744262	22.2531	-0.315792
0.4407	141.319	-5.93095	-1.85964	-6.10399	-4.95858	4.69016	-17.8561	5.05794	-25.0478	-0.631584
0.4413	-131.284	-6.5445	3.02875	2.43821	-2.82686	5.30489	-32.5092	5.96928	-45.5034	-0.631584
0.4420	-202.668	-12.3348	2.72109	-0.304776	-5.23663	0.113839	-36.467	-11.7259	-9.79878	-0.631584
0.4427	-48.8306	-12.3348	-1.85964	0	-6.16347	-4.46248	-33.4296	-23.9379	21.6385	-0.315792
0.4433	50.0721	-8.67913	-4.30041	5.79922	-1.29757	-1.09285	-24.5752	-19.0546	6.9925	-0.315792
0.4440	53.0723	-4.10309	-3.99275	6.71355	3.89272	7.14908	-13.8983	-15.6979	-12.8486	-0.315792
0.4447	-16.7597	-3.18277	-2.16046	5.18967	3.89272	10.4959	-5.35684	-15.3865	3.02661	-0.315792
0.4453	-95.1784	-5.62418	-0.0273476	2.74299	0.231709	7.44506	2.59558	-12.0297	34.7654	-0.315792
0.4460	-105.938	-6.23772	-0.0273476	-0.304776	-3.4293	6.53435	6.24044	-12.6449	43.3118	-0.315792
0.4467	-90.6264	-4.71664	1.80494	-1.21911	-2.50246	8.35577	7.4738	-11.7259	20.4209	-0.315792
0.4473	-43.3475	-4.40987	6.99415	-0.304776	-0.695128	9.28925	17.5432	-6.23509	2.11051	-0.315792
0.4480	43.6579	-6.23772	9.43492	-1.52388	-0.0926838	7.14908	29.1405	-6.84265	1.79741	0
0.4487	90.9367	-6.23772	6.68649	-3.05623	-0.0926838	4.0982	29.435	-12.3411	4.54571	-0.315792
0.4493	40.5543	-5.62418	2.1126	-3.66578	-2.82686	3.48347	25.7717	-14.1714	6.9925	-0.631584
0.4500	-60.7279	-4.10309	0.587973	-1.21911	-3.75369	3.77945	24.8697	-8.36915	6.3779	-0.315792
0.4507	-103.455	-1.04814	1.49728	2.74299	-1.90002	2.25401	19.9731	-1.95938	1.49591	-0.315792
0.4513	-35.6919	1.39326	1.80494	6.40877	-1.29757	-0.796872	9.29623	1.08601	-1.55389	-0.315792
0.4520	102.834	2.00681	-1.24432	6.71355	-0.695128	-2.93704	1.9697	2.61251	-1.85539	-0.315792
0.4527	225.221	0.779716	-6.74118	5.18967	-0.370735	1.95803	-3.20306	3.83523	-5.82129	-0.315792
0.4533	224.29	0.472942	-7.04201	5.18967	-3.4293	11.7254	-5.0439	8.11094	-10.7149	-0.315792
0.4540	148.354	2.31358	-3.0766	4.88489	-6.16347	15.391	0.441801	12.6828	-9.18418	-0.315792
0.4547	159.941	5.66252	-0.635832	4.58011	-0.695128	8.35577	3.81054	10.5488	-5.51979	-0.315792
0.4553	235.566	8.10393	-1.24432	5.49444	10.2879	-2.32231	4.73095	3.83523	-12.5355	-0.631584
0.4560	264.534	6.88962	-3.68509	5.79922	13.6709	-7.51336	5.33843	0.174674	-29.9414	-0.631584
0.4567	198.633	4.14144	-3.0766	6.40877	11.2147	-9.33478	6.55338	0.478454	-35.1249	-0.315792
0.4573	72.9356	4.44821	-1.55198	7.01832	7.87812	-8.42407	6.86633	0.174674	-18.9482	-0.315792
0.4580	-35.0712	2.31358	-3.38426	5.49444	2.96588	-2.00356	2.89012	-1.6556	-2.77149	-1.89475
0.4587	-44.8994	0.472942	-4.90889	3.96209	0.834154	0.432588	-1.38063	-2.27076	-3.68759	-2.21054
0.4593	27.1051	2.31358	-5.51738	3.65732	2.08539	0.728568	-3.20306	-3.48588	-13.1501	-0.315792
0.4600	-97.6613	2.00681	-5.21655	4.58011	3.89272	7.76381	-4.43642	1.08601	-1.85539	0.315792
0.4607	-397.37	0.472942	-1.55198	7.01832	4.81956	11.1107	-3.20306	14.2093	22.2531	-0.315792
0.4613	-433.682	1.08649	1.19646	8.54221	4.49516	8.35577	-3.516	17.8775	7.294	-0.631584
0.4620	-249.016	0.472942	3.02875	10.0661	4.21711	9.28925	-9.62758	11.7715	-26.88	-0.631584
0.4627	-238.98	-3.18277	6.99415	9.45654	3.29027	10.2	-17.5616	10.5488	-21.6965	-0.315792
0.4633	-327.124	-5.62418	10.6587	6.10399	3.61467	9.58523	-18.4636	16.6548	14.0082	0
0.4640	-208.151	-5.01063	10.9595	4.27534	4.81956	10.8147	-13.8983	24.8948	35.983	-0.315792
0.4647	35.0712	-3.48955	6.38566	2.13344	4.21711	10.8147	-12.3704	23.0645	39.9489	-0.631584
0.4653	168.114	-1.96846	-0.0273476	-4.27534	1.76099	9.28925	-14.1929	13.6018	49.4114	-0.315792
0.4660	194.081	-2.56923	-0.0273476	-7.3231	-1.90002	7.14908	-14.8003	5.05794	51.8466	-0.315792
0.4667	166.666	0.472942	3.63723	-0.304776	-2.82686	6.53435	-10.2351	0.782234	25.9059	-0.315792
0.4673	139.767	8.71747	1.80494	7.01832	0.231709	7.76381	-3.20306	-2.57454	-0.939291	-0.315792
0.4680	199.875	13.9071	-2.46812	7.01832	0.231709	4.39418	-2.59558	-8.36915	-6.13438	-0.315792
0.4687	234.325	12.68	-3.38426	1.52388	8.15617	-3.23302	-7.17927	-11.1184	-3.08459	-0.315792
0.4693	197.702	7.19639	-1.55198	-3.36101	41.1516	-8.10532	-6.57179	-9.59186	-0.336289	-0.315792
0.4700	204.116	5.35575	-0.328171	3.96209	68.9104	-7.80934	0.754744	-9.59186	1.19441	-0.315792
0.4707	207.53	6.88962	-0.635832	15.2558	66.4543	-9.33478	12.0391	-8.06537	2.71351	0
0.4713	218.807	5.66252	0.280313	17.3977	51.2078	-11.7709	19.0711	-6.23509	5.7749	-0.315792
0.4720	269.5	1.70004	3.63723	15.8653	35.0345	-10.8602	15.4078	-5.31616	9.1262	-0.315792
0.4727	163.872	-4.10309	5.16186	13.1223	19.4636	-10.5642	7.76834	-2.57454	10.0423	-0.315792
0.4733	-177.632	-7.45204	6.68649	9.15176	4.49516	-6.89863	7.4738	2.30873	11.8745	-0.315792
0.4740	-439.476	-1.66169	6.99415	5.79922	-11.0757	-1.70758	10.8241	2.92389	15.2258	-0.315792
0.4747	-396.128	6.27607	3.02875	6.40877	-28.1295	-2.93704	10.8241	-2.27076	15.5389	-0.315792
0.4753	-245.084	8.10393	-2.46812	10.6841	-42.7736	-8.10532	10.8241	-8.06537	15.2258	-0.315792
0.4760	-122.077	7.19639	-5.82504	11.9032	-46.4346	-9.33478	11.4316	-11.4221	15.2258	-0.315792
0.4767	-37.5541	7.79716	-6.12586	12.208	-43.098	-2.00356	9.90371	-9.59186	15.5389	-0.631584
0.4773	-34.7608	9.33102	-3.99275	-11.5984	-42.7736	9.28925	6.86633	-4.40482	18.2872	-1.57896
0.4780	-57.107	9.93179	-0.943492	-56.4598	-43.098	20.2633	2.59558	-0.129107	17.6726	-0.947376
0.4787	-53.693	8.10393	-0.0273476	-64.3925	-40.6418	23.6329	1.67516	2.00495	7.9086	0
0.4793	-43.0372	4.14144	-1.55198	-37.8431	-35.7759	14.1615	5.63297	0.782234	-4.30219	-0.315792
0.4800	-48.5203	4.14144	-1.55198	-18.312	-22.6612	6.23837	9.0017	1.39739	-12.5355	-0.315792
0.4807	-42.4164	6.27607	-0.635832	-9.16022	-7.69275	4.69016	7.76834	5.36172	-20.7804	0
0.4813	-74.1771	6.58284	-1.55198	-6.40877	-7.4147	0.113839	5.33843	6.28066	-22.9141	0
0.4820	-241.67	4.75499	-3.99275	-9.465	-20.2051	-0.478123	5.33843	4.13901	-15.2838	-0.631584
0.4827	-307.054	1.70004	-4.90889	-12.208	-30.2613	6.53435	6.86633	6.58444	-8.56958	-0.315792
0.4833	-129.422	1.08649	-3.38426	-9.16022	-25.1173	13.8656	6.55338	12.9942	-3.08459	0
0.4840	10.6558	4.44821	-0.943492	2.13344	-12.605	21.174	1.36222	18.485	2.11051	-0.315792
0.4847	45.4166	6.27607	-1.55198	18.0072	-7.69275	18.4419	-5.96432	20.6191	-2.77149	-0.631584
0.4853	66.8318	5.04898	-3.0766	29.5972	-9.82448	6.23837	-10.2351	18.7888	-13.1501	-0.315792
0.4860	122.697	2.00681	-3.38426	41.5004	-12.883	-5.05444	-18.7766	16.6548	-16.8145	-0.315792
0.4867	236.808	1.39326	-1.85964	67.745	-9.54643	-17.2807	-25.1827	18.485	-9.18418	-0.315792
0.4873	228.221	3.83467	0.587973	92.7706	-0.695128	-19.3981	-19.697	18.485	0.88131	0
0.4880	-3.10364	-1.96846	2.72109	76.2957	3.29027	-4.14373	-14.5058	13.9055	0.88131	-1.26317
0.4887	-237.739	-9.89344	4.24571	28.6828	4.21711	5.91962	-17.2487	10.8526	2.41201	-2.52634
0.4893	-264.948	-10.2002	5.46952	-5.18967	4.81956	2.86874	-20.599	5.96928	9.7408	-0.947376
0.4900	-135.836	-5.3174	4.55337	-8.84698	7.27568	3.77945	-17.2487	-5.31616	7.294	0
0.4907	-19.5529	0.779716	3.02875	3.96209	9.4074	1.04732	-12.9779	-11.7259	-7.35198	-0.631584
0.4913	5.4831	5.04898	1.80494	11.9032	4.81956	-4.14373	-15.1133	-11.4221	-38.1747	-0.631584
0.4920	9.41438	9.02425	-1.85964	12.208	7.27568	2.25401	-14.1929	-12.6449	-64.4168	-0.315792
0.4927	25.9671	8.71747	-3.99275	8.84698	28.9173	5.00891	-2.90852	-13.2524	-59.8479	-0.315792
0.4933	20.7944	27.6352	-1.24432	-0.609553	48.1492	0.113839	11.7445	-8.06537	-39.0908	-0.315792
0.4940	-7.03492	63.6427	3.32957	-11.5984	48.7517	-0.796872	20.8935	-4.40482	-11.9325	-0.315792
0.4947	-33.0021	38.9346	5.16186	-19.2263	40.8272	-2.93704	21.501	-6.23509	-6.43588	-0.631584
0.4953	-26.2775	-12.0409	3.02875	-23.5016	31.0491	-11.179	15.7023	-8.36915	-12.234	-0.631584
0.4960	-26.5879	-8.37236	-1.55198	-24.1112	18.8612	-20.3316	10.8241	-9.59186	33.5362	-0.315792
0.4967	-41.7957	7.49038	-4.90889	-21.055	10.6123	-16.0513	13.567	-16.3054	78.7033	0
0.4973	-15.3113	21.538	-3.68509	-17.7024	5.422	4.0982	18.4636	-24.2417	60.706	-0.315792
0.4980	19.2426	48.3935	-3.0766	-14.0366	-7.4147	21.174	13.8799	-19.966	25.9059	-0.315792
0.4987	48.2099	68.2315	-2.16046	-4.27534	-18.3977	27.2758	2.59558	-0.744262	6.3779	-0.315792
0.4993	106.765	87.7627	3.02875	14.951	-18.0733	28.5052	-6.57179	21.538	-4.91678	-0.315792
0.5000	156.527	103.012	6.99415	31.7391	-12.605	23.6329	-10.2351	36.1878	-9.18418	-0.631584
0.5007	155.906	52.356	7.30181	29.9104	-9.82448	15.687	-9.0017	40.4559	-5.51979	-0.631584
0.5013	98.9027	-23.6343	7.91029	14.6462	-12.2806	12.0214	-7.78675	36.4916	2.41201	-0.315792
0.5020	33.8297	-9.29268	7.91029	4.58011	-14.7367	5.00891	-4.43642	35.2689	8.2101	-0.315792
0.5027	29.8984	19.4034	7.30181	2.13344	-13.2074	-5.37319	-1.69357	33.7424	6.691	-0.631584
0.5033	42.4164	-42.8588	3.32957	2.13344	-7.4147	-5.05444	-3.516	30.3856	7.9086	-0.315792
0.5040	21.3117	-86.1905	-0.635832	2.74299	1.76099	3.48347	-4.12348	24.8948	16.1419	0
0.5047	7.34529	-42.2452	-3.38426	2.13344	10.2879	12.3401	-4.12348	1.08601	14.0082	0
0.5053	18.0011	-13.2552	-10.3989	1.82866	13.0684	17.2124	-4.73095	-26.0719	5.7749	-0.315792
0.5060	17.3804	-34.921	-14.3712	1.52388	8.75862	13.8656	-5.0439	-26.9833	3.32811	-0.315792
0.5067	-15.6217	-53.5447	-8.87429	1.21911	3.89272	13.8656	-5.96432	-17.2243	-1.25239	-0.315792
0.5073	-29.8984	-55.0658	-2.76894	2.43821	3.61467	20.2633	-6.57179	-21.7962	-6.13438	0
0.5080	0	-49.5695	-0.328171	4.58011	6.62689	19.6486	-6.86633	-26.9833	-6.43588	0
0.5087	39.6232	-41.9385	-1.85964	3.65732	6.34884	12.6361	-6.57179	-24.8492	-1.25239	-0.315792
0.5093	48.5203	-35.8414	-5.51738	0	3.61467	5.62364	-3.82894	-23.6265	0.88131	-0.315792
0.5100	-4.55201	-30.6518	-5.21655	-0.609553	4.49516	1.3433	-2.90852	-20.5811	-8.26808	0
0.5107	-38.4852	-21.4997	3.63723	-0.304776	5.7464	2.86874	-4.43642	-14.4751	-6.73739	-0.315792
0.5113	-18.6219	-6.5445	16.4564	-2.75145	5.09761	7.14908	-7.49221	-6.23509	3.9427	-0.631584
0.5120	-63.2108	-0.127822	16.7572	-4.27534	2.08539	8.05979	-13.5854	-1.6556	4.54571	-0.631584
0.5127	-120.835	-5.93095	2.1126	-4.58011	-3.10491	3.77945	-16.3282	-1.6556	6.3779	-0.315792
0.5133	-58.3485	-9.29268	-6.12586	-4.27534	-5.88542	-0.478123	-10.8425	-2.57454	12.4891	-0.631584
0.5140	32.8986	-6.5445	-2.76894	0	-5.23663	-0.182142	-4.73095	-5.01238	19.8063	-0.631584
0.5147	60.1072	-5.62418	-0.635832	2.43821	-5.23663	-2.32231	-0.165675	-5.62753	30.4864	-0.315792
0.5153	72.9356	-6.5445	-1.85964	3.65732	-7.69275	-6.89863	3.20306	-2.57454	52.7627	-0.315792
0.5160	68.694	-7.15804	-5.51738	8.54221	-9.82448	-1.4116	-0.46021	-3.48588	67.4202	-0.315792
0.5167	25.3464	-4.71664	-7.04201	15.2558	-6.16347	15.391	-5.96432	-5.31616	41.7811	-0.315792
0.5173	-13.7595	-2.876	-4.60123	17.3977	-0.97318	25.1584	-3.516	-1.95938	18.5887	-0.315792
0.5180	-29.5881	-6.85127	-0.0273476	11.9032	-0.97318	13.2508	3.81054	3.22767	40.2504	-1.57896
0.5187	-50.0721	-10.8138	3.94489	1.82866	-4.63419	-2.00356	12.352	5.05794	37.2006	-1.89475
0.5193	-132.112	-11.1205	4.24571	-10.6841	-4.95858	14.4575	16.6228	1.39739	-35.7395	-0.315792
0.5200	-189.529	-8.67913	2.72109	-22.5873	-0.97318	47.1293	20.286	-0.129107	-89.4414	0
0.5207	-73.8667	-3.79632	2.41343	-28.6913	0.231709	57.4886	28.8275	0.782234	-49.1562	-0.631584
0.5213	94.2473	-0.127822	2.72109	-23.5016	-0.370735	52.2976	32.1963	-7.45781	0.579809	-0.631584
0.5220	182.184	-0.434596	3.32957	-13.7319	-0.370735	48.336	24.8697	-15.0827	-11.6194	-0.315792
0.5227	249.326	-3.18277	4.24571	-11.2937	-3.10491	44.0784	16.3282	-10.8146	-21.395	-0.631584
0.5233	307.571	-3.48955	4.8542	-8.54221	-5.23663	38.8873	9.29623	-3.48588	-6.73739	-0.315792
0.5240	342.125	-0.434596	4.55337	0.914329	-5.23663	33.0816	0.441801	1.39739	-4.91678	-0.315792
0.5247	310.364	1.70004	1.19646	6.71355	-8.2952	25.7503	-3.516	1.39739	-10.7149	-0.631584
0.5253	83.2811	1.39326	-1.55198	5.18967	-9.54643	18.4419	1.67516	-1.35182	-9.79878	-0.315792
0.5260	-119.076	-1.35492	-0.635832	1.82866	-7.09031	10.8147	5.33843	-0.432887	-8.88268	0
0.5267	-8.58674	-1.04814	0.888797	0.609553	-5.88542	3.48347	3.49759	2.92389	-9.48568	-0.315792
0.5273	130.25	1.08649	2.1126	1.82866	-4.03174	-10.8602	0.147267	5.96928	-10.7149	-0.631584
0.5280	-0.931093	1.08649	1.80494	0.609553	0.834154	-49.315	-0.773152	6.58444	-14.3677	-0.315792
0.5287	-256.671	-0.127822	0.587973	-4.88489	6.62689	-99.0625	5.02549	5.05794	-14.3677	-0.315792
0.5293	-368.713	-1.04814	-2.46812	-8.54221	17.9343	-126.839	5.02549	1.39739	-13.4516	-0.315792
0.5300	-310.675	2.31358	-5.21655	-4.27534	34.1076	-126.52	-7.17927	-4.7086	-13.7647	-0.631584
0.5307	-233.497	7.49038	-5.51738	0.914329	43.8858	-114.932	-14.8003	-8.36915	-7.05048	-0.315792
0.5313	-187.046	9.33102	-4.30041	1.82866	45.0907	-104.55	-11.763	-8.36915	4.2442	-0.315792
0.5320	-195.323	7.79716	-4.60123	-0.304776	38.9735	-83.8081	-9.62758	-4.40482	3.62961	-0.315792
0.5327	-212.703	4.14144	-5.51738	-4.27534	27.11	-40.7771	-14.8003	-0.432887	-7.96658	-0.315792
0.5333	-124.249	1.08649	-3.0766	-7.01832	13.6709	0.728568	-18.4636	3.22767	-12.234	-0.315792
0.5340	3.31055	-0.127822	1.80494	-6.71355	0.834154	20.878	-15.1133	9.32606	-7.96658	0
0.5347	79.3498	-2.56923	4.8542	-5.18967	-8.2952	29.7347	-12.0575	14.5207	-3.38609	-0.315792
0.5353	106.765	-5.01063	4.24571	-2.43821	-15.9416	39.798	-14.8003	13.9055	-4.30219	-0.315792
0.5360	84.5225	-1.96846	0.280313	1.52388	-25.9978	43.4637	-15.4262	6.28066	-4.91678	-0.315792
0.5367	108.938	5.04898	-3.38426	6.71355	-29.6588	46.1958	-9.62758	0.174674	5.7749	0
0.5373	238.049	9.6378	-3.0766	11.2937	-25.3954	62.9984	-5.96432	2.30873	10.3438	-0.315792
0.5380	345.746	8.10393	0.888797	11.9032	-20.5295	67.8707	-8.39422	5.6655	3.02661	-0.315792
0.5387	258.43	3.22112	5.16186	14.6462	-19.0002	58.4221	-9.62758	6.28066	1.79741	-0.315792
0.5393	43.9683	-0.741369	5.16186	22.8836	-20.8075	68.7814	-2.90852	5.6655	4.2442	0
0.5400	29.5881	-1.04814	2.72109	31.7391	-18.6758	72.447	9.60918	6.28066	8.2101	-0.315792
0.5407	219.117	-0.741369	3.94489	34.1773	-6.16347	42.2342	22.4214	8.7185	10.6569	-0.315792
0.5413	217.255	-1.66169	5.46952	30.8247	5.422	8.9705	25.4772	12.0753	8.8247	-0.315792
0.5420	-82.1431	-1.35492	3.32957	21.9693	3.89272	-12.7044	17.2302	8.7185	4.54571	-0.315792
0.5427	-285.018	0.779716	-1.24432	-11.9032	-3.75369	-34.6753	8.68876	-7.76159	-1.85539	-0.315792
0.5433	-181.563	5.66252	-4.30041	-49.4415	-9.82448	-55.1208	8.37581	-23.9379	2.41201	-0.315792
0.5440	-15.6217	9.33102	-1.55198	-43.9471	-13.4855	-62.748	6.55338	-23.3227	10.3438	-0.315792
0.5447	82.0396	7.19639	3.02875	-17.3977	-15.0148	-52.6618	-2.90852	-11.4221	4.2442	-0.631584
0.5453	95.4887	3.83467	5.16186	-9.76978	-20.5295	-35.586	0.147267	-1.95938	-4.30219	-0.631584
0.5460	-36.623	0.166169	3.32957	-8.23743	-28.4539	-27.6401	16.3282	1.70117	-14.3677	-0.315792
0.5467	-123.628	-0.434596	1.19646	1.82866	-27.249	-25.8186	23.0289	2.61251	-32.6781	0
0.5473	-70.5561	2.31358	0.587973	6.40877	-20.2051	-19.7169	19.6786	2.92389	-41.5375	0
0.5480	-100.972	3.83467	-0.328171	-0.914329	-16.266	-10.5642	19.0711	2.30873	-32.3766	-1.57896
0.5487	-204.427	4.14144	-1.85964	-3.36101	-15.3392	-7.19461	13.8799	0.174674	-20.7804	-2.52634
0.5493	-185.598	5.04898	-4.30041	19.5311	-15.3392	-9.0388	1.36222	-1.35182	-3.38609	-0.315792
0.5500	-102.213	6.58284	-6.43352	57.0694	-9.54643	-7.19461	-7.78675	0.174674	30.1849	0.315792
0.5507	-90.316	9.33102	-5.21655	79.953	1.15855	-2.32231	-10.8425	3.83523	35.0669	-0.315792
0.5513	-111.421	9.33102	-2.76894	81.4769	7.87812	-1.09285	-7.49221	4.75416	4.2442	0
0.5520	-43.0372	6.58284	-2.76894	72.3251	12.4196	-3.84775	2.89012	2.92389	-7.35198	0
0.5527	97.3509	2.60757	-3.38426	60.4219	17.0075	-6.89863	10.2167	0.478454	-4.60369	-0.315792
0.5533	132.732	-1.66169	-0.943492	45.471	20.3904	-9.0388	12.665	1.70117	-7.05048	-0.315792
0.5540	24.7257	-4.40987	3.94489	30.8247	21.5953	-6.57988	16.6228	11.7715	-13.4516	-0.315792
0.5547	-103.455	-3.79632	6.078	17.3977	19.1392	-1.70758	15.0949	18.7888	-30.5444	-0.315792
0.5553	-130.353	-0.741369	2.41343	2.13344	12.744	0.728568	4.41801	13.9055	-37.5601	-0.315792
0.5560	45.1063	-0.127822	-3.38426	-5.49444	8.15617	1.63928	-6.86633	5.96928	-24.1317	-0.631584
0.5567	299.088	-0.741369	-2.76894	-23.8064	9.68546	4.39418	-9.92212	5.96928	-1.55389	-0.631584
0.5573	328.676	-1.66169	3.63723	-86.9798	12.744	8.35577	-6.86633	12.379	31.7156	-0.315792
0.5580	192.529	-1.35492	6.99415	-132.756	12.4196	11.1107	-4.43642	15.432	56.7286	-0.315792
0.5587	115.662	5.35575	3.94489	-99.1793	11.8172	11.1107	-4.73095	12.6828	36.2845	-0.315792
0.5593	-25.036	10.5453	0.888797	-45.471	10.2879	7.44506	-6.57179	10.8526	-5.51979	-0.315792
0.5600	-273.741	11.4657	-0.0273476	-26.2446	9.08301	5.30489	-5.65137	8.7185	-7.05048	-0.315792
0.5607	-367.161	12.9867	-0.943492	-30.8247	10.0098	6.53435	-2.30105	8.11094	14.0082	-0.631584
0.5613	-244.153	11.4657	-0.635832	-32.9582	8.75862	5.91962	-0.46021	8.7185	10.0423	-0.315792
0.5620	-111.731	8.71747	0.587973	-25.0255	5.422	3.48347	-1.69357	-0.129107	-6.43588	-0.315792
0.5627	-101.593	9.33102	-1.85964	-16.4833	2.96588	1.3433	-4.12348	-13.8676	-31.4605	-0.315792
0.5633	-124.249	8.71747	-3.99275	-10.0746	4.21711	1.95803	-5.65137	-17.5281	-54.3513	-0.631584
0.5640	-61.0383	0.472942	-0.0273476	-9.76978	7.27568	5.30489	-5.0439	-12.3411	-48.2517	-0.315792
0.5647	50.0721	-9.59945	6.078	-18.9215	7.27568	7.14908	-6.57179	-2.27076	-13.4516	-0.315792
0.5653	162.631	-13.2552	6.99415	-28.6913	3.89272	6.83033	-9.31464	4.13901	50.3275	-0.315792
0.5660	278.914	-11.4273	-0.0273476	-29.9104	1.15855	5.30489	-12.0575	-3.1821	104.041	-0.315792
0.5667	401.922	-5.62418	-5.51738	-23.1969	0.556103	4.39418	-13.2909	-10.5032	118.385	-0.315792
0.5673	457.787	-1.04814	-3.99275	-10.3793	-2.22441	5.30489	-11.1555	-5.31616	95.1815	-0.315792
0.5680	340.263	0.472942	-3.0766	0	15.8026	5.00891	-9.62758	-0.432887	45.1324	-0.631584
0.5687	156.527	2.60757	-5.51738	2.43821	66.1762	1.95803	-10.5296	-5.31616	20.1078	-0.315792
0.5693	88.1434	5.04898	-5.82504	1.52388	97.596	-0.478123	-13.2909	-12.9486	11.8745	-0.315792
0.5700	126.629	8.71747	-4.30041	2.74299	90.5521	-1.09285	-13.8983	-15.3865	-31.4605	-0.315792
0.5707	51.8308	15.4281	-4.60123	2.43821	70.4397	-3.84775	-11.1555	-12.6449	-72.0471	-0.315792
0.5713	-155.906	16.3485	-4.60123	-0.914329	47.5468	-6.2839	-8.70716	-7.14643	-53.7367	-0.315792
0.5720	-174.839	12.68	-3.38426	-1.82866	23.7271	-10.8602	-4.73095	-1.35182	-19.2497	-0.315792
0.5727	-32.6917	12.0792	-4.60123	-0.914329	-0.370735	-20.0129	2.89012	0.174674	1.19441	-0.315792
0.5733	-25.6568	2.91435	-3.0766	-1.21911	-19.927	-0.796872	18.1507	0.478454	38.1167	-0.315792
0.5740	-52.7619	-17.8312	0.587973	-1.21911	-33.6442	47.7212	35.2336	4.13901	57.0417	-0.631584
0.5747	11.5869	-22.714	0.888797	1.21911	-46.759	75.8167	43.7935	5.36172	23.1692	-0.631584
0.5753	-18.0011	-8.67913	0.280313	4.58011	-54.6834	85.2653	41.9527	3.53145	-7.05048	-0.315792
0.5760	-136.457	-3.18277	-0.635832	5.18967	-54.4054	95.6474	30.3554	5.96928	-0.939291	-0.315792
0.5767	-108.938	-5.01063	-1.55198	6.40877	-52.5517	99.609	18.1507	8.41472	2.11051	-0.315792
0.5773	33.5193	-2.56923	-0.328171	11.9032	-48.8907	95.0326	15.7023	5.96928	-20.1658	-0.315792
0.5780	89.3849	-1.66169	0.587973	15.2558	-46.1565	79.7782	12.0391	2.92389	-38.1747	-0.315792
0.5787	18.0011	-5.01063	2.41343	14.0366	-44.3029	51.7056	1.9697	4.75416	-38.4762	0
0.5793	-53.0723	-7.75881	6.38566	10.3709	-32.1149	22.4035	-8.39422	6.58444	-36.3425	-0.947376
0.5800	-21.9324	-5.01063	11.2672	8.23743	-7.69275	1.63928	-10.8425	9.63743	-20.1658	-1.89475
0.5807	23.1739	3.83467	14.3165	11.2937	8.48057	-13.2964	-2.30105	17.8775	-1.85539	-0.631584
0.5813	56.7967	11.1589	10.9595	12.8175	6.34884	-29.4843	-1.06769	20.3153	-6.73739	0
0.5820	158.7	14.8146	4.24571	8.54221	-5.23663	-43.2132	-8.39422	14.8245	3.02661	-0.631584
0.5827	253.257	19.4034	-2.76894	-5.18967	-17.7489	-54.802	-8.39422	8.7185	28.9673	-0.315792
0.5833	316.158	21.8448	-7.95815	-25.3303	-22.9392	-64.2734	-3.82894	2.30873	37.5137	0
0.5840	310.675	14.2138	-9.18195	-27.159	-18.0733	-67.939	-2.59558	-2.87832	35.0669	-0.315792
0.5847	20.484	3.52789	-8.87429	-11.2937	-6.76592	-67.3243	-6.25885	-2.87832	31.7156	-0.315792
0.5853	-332.917	4.75499	-8.57347	-3.05623	4.49516	-71.2859	-12.0575	-5.93131	28.9673	-1.26317
0.5860	-321.951	8.4107	-5.82504	-2.43821	11.2147	-71.5818	-11.1555	-10.8146	22.8561	-2.21054
0.5867	-129.732	-2.56923	1.80494	0.914329	14.5977	-53.5953	-4.12348	-5.62753	12.176	-0.631584
0.5873	-95.4887	-19.6591	8.51878	2.43821	15.2001	-32.8311	0.147267	-4.40482	2.41201	0
0.5880	-269.5	-15.6966	8.51878	0.304776	13.0684	-20.9236	6.55338	-10.1994	-2.16849	-0.315792
0.5887	-433.062	6.58284	3.94489	-1.52388	8.48057	-15.7553	10.8241	-9.28808	5.4618	-0.315792
0.5893	-362.816	14.2138	-1.24432	-2.43821	3.29027	-18.1914	-1.06769	-0.432887	10.0423	-0.631584
0.5900	-149.802	5.04898	-0.635832	-6.10399	0.556103	-22.7678	-23.9677	8.11094	6.0764	-0.315792
0.5907	2.68982	4.44821	1.49728	-9.465	-2.22441	-25.2039	-38.3078	11.4677	11.8745	-0.315792
0.5913	-7.65565	13.2935	-2.46812	-9.465	-7.09031	-29.4843	-35.2521	8.7185	9.1262	-0.315792
0.5920	-107.696	23.6727	-7.65733	-11.5984	-12.883	-36.2007	-19.384	2.30873	3.02661	-0.631584
0.5927	-139.147	60.6005	-7.04201	-15.2558	-18.3977	-43.8279	-9.62758	0.174674	10.3438	-0.315792
0.5933	-62.2798	94.1666	-0.943492	-11.2937	-20.5295	-48.4043	-7.49221	8.41472	6.3779	-0.631584
0.5940	-22.2428	38.3211	5.77034	-5.18967	-15.6172	-39.5476	5.94591	10.245	-2.16849	-0.315792
0.5947	-82.1431	-51.1033	5.77034	-0.609553	0.231709	-12.0897	21.8139	-1.04804	-3.68759	0
0.5953	-94.0404	-70.9286	2.72109	5.79922	33.5052	1.3433	18.4636	-9.28808	-15.2838	-0.631584
0.5960	-26.5879	-54.4523	-0.635832	6.71355	70.4397	-13.0004	5.63297	-22.1	-29.0253	-0.631584
0.5967	28.9673	-42.8588	-1.55198	2.74299	90.8765	-13.2964	1.06769	-38.8915	-21.6965	-0.315792
0.5973	57.6243	-30.9585	2.1126	4.27534	90.8765	-0.182142	4.10507	-37.9725	-11.6194	-0.631584
0.5980	69.5216	-20.8862	6.078	10.0661	76.8349	0.113839	8.08128	-23.3227	-23.5287	-0.631584
0.5987	24.105	-15.3898	5.46952	9.76131	56.0737	-8.10532	11.7445	-12.9486	-27.1931	-0.315792
0.5993	-59.7968	-14.1755	2.41343	4.58011	36.8418	-19.1022	17.5432	-11.4221	-3.38609	-0.631584
0.6000	-69.0043	-11.7341	1.19646	3.04776	20.6685	-19.1022	20.599	-13.2524	16.1419	-0.631584
0.6007	-31.7606	-6.85127	1.80494	3.35254	-1.57562	-12.7044	18.7581	-12.9486	17.6726	-0.315792
0.6013	-34.4504	-4.71664	0.888797	2.13344	-27.249	-21.2423	20.286	-14.4751	11.573	-0.315792
0.6020	-68.694	-4.10309	-2.16046	3.65732	-45.8321	-27.3441	24.2622	-16.913	10.9584	-0.631584
0.6027	-105.938	-1.66169	-7.34967	7.3231	-58.0664	-19.3981	24.2622	-14.1714	12.176	-0.315792
0.6033	-72.6252	4.14144	-10.7066	11.5984	-63.8591	-9.63076	17.8377	-12.0297	-2.77149	0
0.6040	57.6243	10.2386	-9.48278	17.0929	-59.5957	0.728568	5.33843	-12.0297	-5.82129	-0.315792
0.6047	190.771	9.33102	-6.43352	18.312	-55.2859	13.8656	-10.2351	-7.76159	12.4891	-0.631584
0.6053	264.017	2.60757	-3.68509	16.1701	-52.8761	29.7347	-20.9119	-1.6556	13.3936	-0.315792
0.6060	294.536	-2.27524	-2.46812	13.1223	-45.5541	41.0275	-24.2622	-0.432887	-8.88268	-0.631584
0.6067	366.23	-4.40987	-0.943492	7.3231	-34.2467	46.8105	-28.2385	1.70117	-33.2927	-0.315792
0.6073	481.582	-6.23772	2.72109	3.96209	-18.3977	50.1801	-30.3738	13.298	-39.7053	-0.315792
0.6080	380.817	-9.29268	3.32957	6.40877	-0.370735	42.553	-28.2385	24.8948	-22.6126	-1.57896
0.6087	-30.5191	-9.59945	-2.16046	8.23743	8.15617	25.7503	-25.4956	24.8948	-3.38609	-2.52634
0.6093	-314.916	-7.45204	-9.48278	6.40877	2.36344	12.6361	-19.384	16.6548	-4.00069	-0.631584
0.6100	-219.117	-4.71664	-12.2312	5.18967	-7.4147	5.00891	-8.39422	10.245	-6.43588	0
0.6107	-38.1748	-0.434596	-9.79044	3.65732	-10.1489	0.432588	1.36222	5.96928	9.1262	-0.631584
0.6113	-5.4831	5.04898	-8.26581	2.74299	-9.54643	-3.23302	3.81054	-5.31616	18.5887	-0.631584
0.6120	-182.805	9.6378	-9.18195	3.35254	-9.82448	-7.51336	5.94591	-17.8319	-0.939291	-0.631584
0.6127	-340.883	6.88962	-5.51738	3.04776	-9.22204	-12.7044	14.8003	-12.0297	-13.1501	-0.315792
0.6133	-254.499	-1.35492	3.02875	0	-7.09031	-14.5258	25.1643	5.6655	8.2101	-0.315792
0.6140	-247.153	-5.3174	9.12726	-3.97056	-4.95858	-8.42407	33.4112	16.351	3.62961	-0.315792
0.6147	-268.569	-5.01063	9.74258	-5.79922	-3.4293	0.432588	33.7057	16.9585	-21.0819	-0.315792
0.6153	-10.6558	-3.48955	5.77034	-4.58011	-2.22441	5.30489	27.9071	13.6018	-8.88268	-0.315792
0.6160	169.666	-4.40987	3.63723	-4.58011	1.76099	8.9705	30.0609	14.2093	3.62961	-0.315792
0.6167	-2.48291	-8.67913	5.77034	-4.88489	6.62689	17.5084	30.9629	23.0645	-0.63779	0
0.6173	-87.9365	-9.29268	7.30181	-0.609553	6.95128	31.2601	21.2065	28.8591	6.3779	-0.315792
0.6180	138.216	-4.71664	4.8542	3.65732	5.7464	38.2726	12.352	20.0115	17.6726	-0.315792
0.6187	297.846	1.39326	0.280313	6.40877	7.27568	30.6454	8.37581	3.83523	19.2033	-0.315792
0.6193	313.675	4.75499	-4.60123	5.79922	7.55373	17.8272	1.67516	-9.28808	2.71351	0
0.6200	257.913	4.44821	-4.60123	4.58011	9.68546	16.5977	-7.78675	-14.1714	-4.60369	-0.315792
0.6207	16.1389	4.75499	0.280313	3.35254	13.6709	22.6995	-13.8983	-10.5032	17.9741	-0.631584
0.6213	-158.7	6.88962	-1.24432	0.609553	13.9489	19.9673	-10.5296	-7.14643	13.7067	-0.631584
0.6220	31.1399	9.33102	-8.87429	0	9.4074	12.9321	-3.20306	-6.53887	-14.9823	-0.315792
0.6227	298.157	8.71747	-13.7558	-0.914329	2.68783	8.9705	-6.25885	-4.10104	-6.73739	-0.315792
0.6233	343.573	6.27607	-12.2312	-2.13344	0.231709	-4.14373	-11.763	0.478454	11.573	-0.315792
0.6240	317.399	5.66252	-5.82504	1.21911	3.61467	-28.8695	-11.1555	7.80716	-0.939291	-0.315792
0.6247	286.57	0.166169	3.63723	4.27534	8.48057	-39.5476	-21.2249	15.1283	-27.4946	-0.315792
0.6253	94.868	-9.59945	14.3165	2.74299	11.8172	-17.2807	-35.8595	19.404	-31.4605	-0.315792
0.6260	-162.32	-12.6416	14.9249	0	11.5391	14.4575	-37.7004	13.6018	-14.9823	-0.315792
0.6267	-179.804	-8.37236	7.91029	0.609553	8.48057	27.5945	-28.533	6.28066	-5.82129	0
0.6273	19.2426	-1.35492	2.72109	2.13344	5.422	31.2601	-19.9915	6.28066	-3.38609	-0.315792
0.6280	115.042	2.91435	-0.328171	-0.304776	5.09761	33.6963	-16.6412	6.58444	-6.13438	-0.315792
0.6287	-45.2097	2.31358	-1.24432	-5.79922	6.95128	31.2601	-11.763	2.61251	-14.9823	-0.315792
0.6293	-219.738	-0.741369	-0.328171	-9.76978	6.95128	26.9798	-5.0439	-5.01238	-14.6808	-0.631584
0.6300	-184.356	-1.96846	1.49728	-9.76978	5.09761	21.7887	-0.165675	-11.1184	-6.13438	-0.631584
0.6307	-88.2469	2.00681	3.02875	-5.79922	2.68783	16.9164	9.29623	-12.9486	-0.0231924	-0.315792
0.6313	-54.6241	6.88962	0.888797	-2.43821	0.231709	10.4959	9.29623	-13.5562	1.79741	-0.631584
0.6320	0.620728	9.02425	-3.38426	-2.13344	-2.50246	-2.32231	-2.59558	-12.6449	-2.46999	-0.631584
0.6327	159.32	7.19639	-7.04201	-3.05623	-5.88542	-17.2807	-6.57179	-10.1994	-7.05048	-0.631584
0.6333	333.538	4.75499	-7.65733	-4.58011	-7.69275	-24.5892	-4.73095	-7.45781	-2.16849	-0.315792
0.6340	434.82	5.04898	-3.99275	-2.43821	-5.23663	-22.7678	2.59558	-5.62753	-7.65348	-0.631584
0.6347	489.755	4.14144	-0.635832	6.10399	-4.03174	-18.1914	11.4316	-3.48588	-59.2333	-0.631584
0.6353	535.275	1.39326	-1.24432	14.6462	-0.370735	-9.33478	3.20306	0.478454	-136.139	-0.315792
0.6360	600.244	-1.35492	-4.30041	16.4749	6.95128	0.113839	-18.7766	0.478454	-176.111	-0.315792
0.6367	504.756	-1.35492	-3.99275	14.6462	6.02445	-7.19461	-38.9153	-6.23509	-161.767	-0.315792
0.6373	4.86237	0.779716	0.587973	11.9032	-1.57562	-23.6785	-46.8493	-12.9486	-126.677	-0.631584
0.6380	-624.349	2.60757	1.49728	4.58011	-2.50246	-31.6244	-38.6208	-19.3584	-42.1405	-2.21054
0.6387	-678.146	3.83467	-0.0273476	-3.97056	-0.0926838	-37.7262	-16.9357	-17.5281	124.184	-2.21054
0.6393	-262.465	1.08649	0.888797	-7.01832	-7.09031	-51.4551	2.59558	-8.67293	201.078	-0.315792
0.6400	-110.8	-3.18277	3.32957	-1.52388	-15.0148	-63.6587	7.76834	-1.6556	104.644	-0.315792
0.6407	-136.457	-2.876	6.38566	5.49444	-17.1465	-69.1457	12.352	3.53145	22.5546	-0.631584
0.6413	-74.1771	1.39326	4.24571	8.84698	-17.4709	-75.2475	17.5432	0.174674	18.2872	-0.315792
0.6420	-12.2077	5.66252	-2.16046	8.54221	5.7464	-78.2983	10.5296	-9.59186	17.6726	-0.315792
0.6427	64.0385	4.14144	-5.82504	4.27534	43.5614	-79.2318	4.73095	-9.89565	14.6228	-0.315792
0.6433	63.2108	0.166169	-4.90889	-0.914329	54.8688	-79.2318	5.02549	-2.27076	20.1078	-0.315792
0.6440	-36.9333	-0.127822	-0.0273476	-2.75145	47.8248	-67.0055	8.68876	4.45038	24.6883	-0.315792
0.6447	-111.731	-1.04814	3.94489	0.304776	42.9589	-52.6618	11.4316	8.11094	24.6883	-0.315792
0.6453	-207.53	-1.35492	3.32957	8.54221	32.5784	-36.2007	9.0017	9.02228	19.5048	-0.631584
0.6460	-311.916	0.472942	-0.635832	10.9889	17.3319	-11.7709	12.0391	6.88822	10.9584	-0.631584
0.6467	-286.259	2.91435	-3.38426	-6.71355	13.9489	5.30489	25.4772	5.05794	4.8588	-0.631584
0.6473	-180.942	6.58284	-2.16046	-32.9582	16.127	15.0723	37.369	4.45038	8.8247	-0.315792
0.6480	-55.2448	8.71747	-0.635832	-36.3192	11.5391	23.9289	41.0323	4.45038	17.058	0
0.6487	75.1081	7.19639	-2.16046	-21.3597	6.62689	30.3267	41.0323	8.7185	21.6385	0
0.6493	-58.8657	5.04898	-7.65733	-10.9889	5.422	40.7088	29.435	9.02228	19.5048	-0.315792
0.6500	-290.811	6.88962	-12.8397	-2.75145	12.4196	57.1926	5.63297	2.61251	13.7067	-0.631584
0.6507	-187.357	10.8521	-12.2312	3.04776	17.9343	75.8167	-4.43642	1.08601	10.9584	-0.315792
0.6513	-6.72456	12.68	-10.3989	1.21911	7.87812	102.364	-2.59558	5.36172	13.3936	-0.315792
0.6520	-45.5201	10.5453	-9.48278	-2.13344	-2.82686	116.389	-5.35684	7.192	16.455	-0.315792
0.6527	-134.905	2.91435	-4.30041	-4.88489	-4.63419	90.1603	-7.78675	10.8526	19.8063	-0.315792
0.6533	-45.8305	-8.67913	7.30181	-7.01832	-4.35614	57.8074	-3.82894	22.1456	24.0853	-0.315792
0.6540	92.4885	-13.5619	17.0649	-5.49444	-6.48787	53.231	4.73095	25.5024	25.0014	-0.315792
0.6547	-0.310364	-6.5445	12.4842	-2.75145	-8.2952	54.7565	8.37581	9.63743	19.2033	-0.315792
0.6553	-70.5561	3.52789	-3.99275	-1.82866	-16.8685	47.4253	7.76834	-9.28808	15.8404	-0.315792
0.6560	224.6	6.27607	-15.5881	-0.304776	-34.8491	37.3619	2.89012	-17.5281	16.7565	-0.315792
0.6567	622.901	5.35575	-16.1966	4.88489	-41.8931	33.6963	-13.2909	-19.3584	18.8902	-0.315792
0.6573	745.805	6.58284	-11.0142	10.3709	-47.0834	33.6963	-30.0609	-17.5281	29.8834	0
0.6580	338.711	3.83467	-1.85964	11.2937	-32.1149	29.7347	-35.2521	-9.28808	41.4796	-0.315792
0.6587	-275.603	-5.01063	6.68649	10.0661	48.1492	23.3142	-33.4296	6.58444	39.0328	-0.631584
0.6593	-307.364	-10.2002	5.77034	8.23743	114.696	15.687	-32.8221	20.0115	32.6201	-0.631584
0.6600	-61.3487	-6.5445	1.19646	6.71355	117.106	11.4066	-32.1963	17.8775	7.5955	-0.315792
0.6607	-201.426	1.08649	2.72109	6.10399	105.845	11.1107	-24.5752	-1.35182	-48.8547	-0.315792
0.6613	-466.064	2.60757	8.21111	7.62788	82.3495	6.53435	-15.1133	-16.0016	-67.1651	-0.315792
0.6620	-507.239	-3.79632	14.0156	10.0661	47.5468	3.16472	-8.70716	-9.59186	-35.1249	0
0.6627	-415.06	-8.67913	13.0995	8.54221	14.5977	5.00891	-4.73095	-5.62753	-16.8145	-0.315792
0.6633	-283.776	-5.62418	6.99415	6.10399	-19.0002	5.30489	-1.06769	-12.0297	-13.4516	-0.315792
0.6640	0.620728	-0.127822	4.55337	7.3231	-51.9493	3.77945	7.16086	-6.84265	-11.0164	-0.315792
0.6647	307.571	0.472942	6.38566	12.208	-60.1981	1.63928	17.5432	9.94121	-8.26808	-0.315792
0.6653	409.888	-2.56923	6.68649	22.8836	-34.8491	-0.796872	23.0289	20.3153	10.0423	-0.315792
0.6660	379.886	-3.18277	1.19646	32.6534	-18.6758	-0.478123	28.533	16.9585	34.4523	-0.631584
0.6667	160.562	-0.741369	-3.38426	36.9287	-24.7929	0.728568	37.682	4.75416	49.7129	-0.631584
0.6673	-213.634	4.14144	-3.68509	39.9765	-32.4393	1.95803	37.369	-5.62753	58.5608	0
0.6680	-314.606	7.49038	-3.99275	41.1956	-36.7028	2.25401	22.7344	-12.3411	57.3432	-1.57896
0.6687	-158.389	5.9693	-3.0766	42.4147	-37.9077	3.16472	7.16086	-13.5562	39.0328	-2.52634
0.6693	-112.352	0.472942	0.280313	42.1099	-41.2906	6.53435	-1.98811	-10.5032	-24.4448	-0.631584
0.6700	-133.043	-3.48955	2.1126	35.0916	-50.0956	8.35577	-8.39422	-9.59186	-86.3916	0
0.6707	-79.0394	-1.66169	3.02875	30.52	-47.6858	9.88121	-13.5854	-8.67293	-69.9134	-0.631584
0.6713	-15.3113	1.08649	1.80494	29.9104	-29.6588	11.1107	-16.6412	-6.84265	-49.7708	-0.315792
0.6720	-37.5541	3.52789	-0.635832	23.1884	-28.4539	9.28925	-19.9915	-7.45781	-60.764	0
0.6727	-140.078	2.91435	-0.635832	12.5128	-47.9639	6.53435	-28.533	-8.06537	-41.5375	-0.315792
0.6733	-222.531	-1.04814	2.1126	-11.5984	-60.4762	6.23837	-37.0929	-4.10104	-4.91678	-0.631584
0.6740	-164.803	-1.66169	5.46952	-62.8686	-58.9469	9.28925	-34.6446	4.13901	4.8588	-0.315792
0.6747	-13.7595	-1.96846	7.30181	-98.265	-51.3468	10.8147	-26.7106	7.80716	9.1262	-0.315792
0.6753	54.9345	-3.79632	6.68649	-74.7718	-42.4955	8.35577	-22.4398	4.13901	11.573	-0.315792
0.6760	35.3815	-4.40987	1.80494	-36.9287	-35.7759	4.69016	-10.2351	-0.744262	-29.6283	-0.315792
0.6767	9.41438	-1.04814	-5.51738	-25.0255	-26.3222	-0.182142	14.8003	-3.48588	-66.249	0
0.6773	-3.93128	6.27607	-9.18195	-21.6645	-12.2806	-6.89863	11.1371	-7.45781	-53.7367	-0.315792
0.6780	21.9324	8.71747	-6.74118	-19.5311	-3.4293	-13.9111	-26.1031	-5.01238	-26.88	-0.631584
0.6787	59.1761	4.44821	-2.46812	-23.5016	-3.75369	-18.8062	-48.3772	-1.35182	-7.35198	-0.631584
0.6793	20.7944	-0.741369	-0.943492	-28.3865	-8.2952	-19.7169	-36.7799	-9.59186	19.2033	0
0.6800	-15.3113	-2.876	-0.328171	-29.6056	-12.2806	-14.2299	-10.5296	-10.8146	73.8213	-0.315792
0.6807	82.9707	-1.35492	0.280313	-24.416	-12.605	6.83033	3.49759	3.53145	80.8486	-0.631584
0.6813	204.737	2.60757	-2.46812	-11.2937	-10.7513	49.5654	4.73095	10.8526	11.8745	-0.315792
0.6820	244.464	6.58284	-9.18195	0.914329	-10.1489	90.7523	8.68876	5.96928	-21.998	-0.315792
0.6827	241.981	7.49038	-15.2873	2.43821	-10.7513	102.364	16.3282	0.782234	-6.43588	-0.315792
0.6833	290.811	6.27607	-17.1128	-2.13344	-8.2952	91.9818	24.5568	0.782234	-0.0231924	-0.315792
0.6840	381.127	6.58284	-13.7558	-4.27534	-1.29757	73.3577	28.533	6.28066	-4.91678	-0.315792
0.6847	306.123	5.66252	-7.34967	-3.66578	6.95128	47.4253	18.7581	13.6018	-18.9482	-0.631584
0.6853	160.769	2.31358	-1.85964	-3.97056	13.3465	26.6838	16.0153	21.2342	-34.5103	-0.631584
0.6860	133.974	-1.96846	0.587973	-6.10399	15.4782	14.7763	39.5044	26.1175	-39.3923	-0.315792
0.6867	150.423	-6.5445	3.02875	-8.84698	14.2733	3.48347	52.6296	26.7251	-38.4762	-0.631584
0.6873	168.424	-9.29268	7.60263	-8.23743	12.1416	-9.94951	32.1963	29.1629	-29.6283	-0.315792
0.6880	170.907	-8.06558	10.0434	-5.79922	8.75862	-27.6401	0.754744	29.4743	8.8247	-0.315792
0.6887	79.6602	-3.48955	6.68649	-3.66578	5.09761	-43.8279	-30.6868	27.6364	45.747	-0.315792
0.6893	-215.186	-3.79632	5.46952	-4.27534	2.96588	-58.7864	-55.9983	27.6364	35.3684	-0.315792
0.6900	-370.471	-7.45204	6.68649	-5.49444	4.21711	-75.2475	-61.7969	26.7251	25.3029	0
0.6907	36.0023	-1.96846	0.888797	-3.97056	-2.22441	-87.155	-46.2419	17.8775	26.219	0
0.6913	504.756	10.5453	-9.79044	-3.66578	-6.16347	-87.7697	-19.9915	-5.62753	9.4277	-0.315792
0.6920	473.616	18.1763	-16.8119	-7.01832	33.7832	-80.1425	3.20306	-30.3401	11.573	-0.631584
0.6927	316.158	14.5206	-16.8119	-14.0366	91.2009	-79.5278	36.7615	-39.8028	34.1508	-0.315792
0.6933	438.855	6.58284	-11.0142	-18.9215	109.784	-83.4894	71.2589	-34.0082	34.7654	-0.315792
0.6940	401.611	2.91435	-2.76894	-16.4833	102.786	-72.1966	81.0153	-19.966	21.0239	-0.631584
0.6947	-135.526	-3.48955	5.77034	-13.4271	101.257	-52.6618	78.567	-1.35182	15.5389	-0.315792
0.6953	-511.791	-14.1755	11.2672	-14.6462	92.6838	-39.5476	68.2031	20.0115	14.9243	0
0.6960	-271.362	-16.3101	5.77034	-18.0072	62.1908	-34.9713	54.4704	26.1175	14.6228	0
0.6967	-209.392	-10.507	-2.76894	-18.9215	44.1638	-38.9329	50.1997	18.1813	16.1419	0
0.6973	-518.205	-5.62418	-2.76894	-15.8738	40.8272	-49.9297	50.1997	8.11094	20.1078	-0.631584
0.6980	-399.128	1.08649	-1.24432	-9.76978	16.127	-63.6587	53.8629	-12.6449	22.5546	-2.52634
0.6987	-135.526	5.35575	0.280313	-2.13344	-19.6026	-69.1457	66.9697	-20.8849	23.4707	-1.57896
0.6993	-222.531	1.08649	2.1126	0.304776	-49.2151	-62.4292	76.1371	-8.9843	21.337	0.315792
0.7000	-238.36	-1.66169	3.02875	1.52388	-78.5032	-44.1239	63.9323	-6.23509	15.2258	0
0.7007	-23.1739	0.779716	7.60263	8.84698	-99.8668	-9.94951	49.2792	-11.1184	10.9584	-0.315792
0.7013	84.5225	-1.96846	13.708	15.8653	-104.733	22.4035	43.1677	-10.1994	-4.30219	-0.315792
0.7020	17.07	-8.37236	16.7572	19.8359	-100.469	29.416	27.0051	-3.48588	-31.159	-0.315792
0.7027	-31.4502	-10.8138	14.6241	21.055	-90.0886	20.5593	-3.82894	1.08601	-40.923	-0.315792
0.7033	10.0351	-7.45204	8.82644	20.7502	-79.43	15.0723	-31.5888	-5.01238	-33.5942	-0.315792
0.7040	7.03492	-0.434596	5.46952	20.7502	-67.5201	14.1615	-38.6208	-14.1714	-25.9639	-0.631584
0.7047	-48.2099	4.14144	3.32957	17.0929	-46.1565	13.5468	-25.4956	-17.8319	-18.0321	-0.631584
0.7053	-25.036	6.88962	-1.85964	9.76131	-28.7783	15.391	-8.70716	-20.8849	-9.79878	-0.315792
0.7060	8.79365	9.02425	-7.65733	2.43821	-27.5271	15.0723	3.49759	-25.7682	-4.30219	-0.315792
0.7067	20.1737	10.5453	-11.3151	-1.21911	-29.0564	14.7763	10.8241	-27.5984	-0.0231924	-0.631584
0.7073	75.6254	12.0792	-8.57347	-0.304776	-19.0002	20.5593	9.0017	-23.9379	3.62961	-0.315792
0.7080	218.496	9.02425	-1.85964	2.74299	-5.88542	26.0691	5.02549	-16.0016	4.54571	-0.315792
0.7087	451.373	4.14144	0.888797	3.65732	-1.29757	29.416	3.49759	-8.67293	3.62961	-0.631584
0.7093	445.269	0.472942	-1.55198	3.35254	1.76099	32.7856	-10.2351	-3.1821	-0.336289	-0.631584
0.7100	-30.8295	-4.71664	-0.635832	4.58011	11.5391	36.7472	-30.0609	7.80716	-4.60369	-0.315792
0.7107	-411.957	-9.29268	3.94489	8.84698	18.5368	37.0432	-43.1861	22.4494	-7.05048	-0.315792
0.7113	-256.051	-9.29268	3.63723	12.5128	17.9343	31.5561	-31.2943	21.538	-9.48568	-0.631584
0.7120	32.071	-6.23772	-0.943492	11.9032	19.1392	26.3651	18.1507	9.94121	-10.1003	-0.315792
0.7127	65.9007	-5.01063	-3.68509	8.84698	20.3904	23.3142	50.8071	5.96928	-9.18418	-0.315792
0.7133	-87.6262	-2.876	-5.51738	6.71355	19.788	20.5593	48.9663	3.53145	-8.26808	-0.631584
0.7140	-264.327	3.52789	-7.04201	5.49444	25.8588	9.88121	51.4146	-4.10104	-4.91678	-0.631584
0.7147	-298.777	7.19639	-7.34967	4.88489	31.6515	-11.7709	42.8731	-12.0297	-2.77149	-0.315792
0.7153	-196.874	6.88962	-4.60123	4.58011	29.5198	-26.7294	17.5432	-14.1714	-2.77149	-0.315792
0.7160	-124.87	5.04898	-0.943492	1.82866	33.1808	-42.5985	4.10507	-13.2524	-3.38609	-0.315792
0.7167	-91.2471	3.22112	1.49728	-0.304776	49.9566	-63.9546	-0.773152	-12.6449	-2.46999	-0.631584
0.7173	-39.4163	3.52789	1.80494	0.914329	58.5298	-72.5153	-12.665	-9.89565	-0.336289	-0.315792
0.7180	20.1737	2.00681	1.49728	1.82866	60.0591	-70.6711	-29.4534	-2.87832	2.11051	-0.315792
0.7187	-37.8644	-1.04814	1.19646	1.21911	68.9104	-62.4292	-44.4194	1.70117	2.11051	-0.315792
0.7193	-189.529	-2.56923	-1.55198	-0.609553	70.7177	-53.5953	-57.2317	1.39739	-1.25239	-0.631584
0.7200	-138.216	-1.96846	-4.90889	-1.21911	60.0591	-49.9297	-72.7867	-1.35182	-3.08459	-0.315792
0.7207	23.4842	3.22112	-5.82504	-0.609553	49.6785	-41.9838	-80.1133	-6.23509	0.88131	-0.315792
0.7213	-56.7967	7.49038	-4.90889	0.914329	38.093	-25.4999	-85.6174	-10.5032	2.71351	-0.315792
0.7220	-118.456	6.27607	-1.24432	5.49444	22.8002	-12.7044	-110.634	-5.93131	-4.30219	-0.315792
0.7227	33.8297	0.166169	4.55337	6.40877	6.02445	-12.0897	-121.017	5.05794	-9.18418	-0.631584
0.7233	158.389	-4.71664	6.68649	0.609553	-10.1489	-12.0897	-90.7901	10.245	-1.85539	-0.315792
0.7240	128.801	-3.79632	5.77034	-1.21911	-17.7489	-3.529	-50.8255	9.32606	0.579809	0
0.7247	-216.427	-1.04814	5.77034	1.21911	-14.7367	12.3401	-26.1031	5.96928	-12.234	0
0.7253	-421.475	3.22112	1.49728	1.21911	-7.09031	38.2726	-16.6412	-2.87832	-24.4448	-0.315792
0.7260	10.9662	7.49038	-7.95815	-0.609553	-0.695128	61.7689	-15.4262	-12.0297	-51.603	-0.315792
0.7267	443.717	4.44821	-8.87429	0.914329	5.09761	76.1126	-10.5296	-14.4751	-98.9039	-0.315792
0.7273	372.334	-1.04814	3.02875	7.3231	13.9489	92.5965	-3.82894	-7.76159	-120.879	0
0.7280	154.665	-3.48955	8.82644	10.9889	21.2709	94.7367	-3.20306	1.08601	-112.634	-1.57896
0.7287	79.6602	-2.56923	6.38566	6.40877	24.6539	87.1095	-2.59558	5.36172	-90.056	-2.21054
0.7293	-119.283	-3.48955	6.078	-3.97056	21.9197	90.1603	0.147267	8.11094	15.8404	-0.315792
0.7300	-391.266	-6.5445	7.60263	-9.76978	13.9489	86.7907	1.9697	7.192	158.659	0
0.7307	-236.498	-4.71664	10.0434	-2.43821	6.95128	68.1667	7.16086	7.192	154.392	-0.315792
0.7313	96.4198	-1.04814	7.91029	6.71355	-2.22441	50.1801	12.665	9.02228	57.9578	-0.315792
0.7320	108.938	1.08649	-0.328171	7.62788	-12.2806	37.6579	17.5432	5.6655	5.7749	-0.631584
0.7327	-25.6568	-0.434596	-3.99275	4.27534	-15.9416	26.0691	19.9731	5.05794	-18.3336	-0.315792
0.7333	-56.7967	-2.27524	-3.0766	1.52388	-20.2051	17.2124	-1.06769	9.32606	-22.3111	0
0.7340	-77.798	-0.434596	-0.635832	5.49444	-28.4539	14.1615	-41.9711	12.0753	-20.7804	0
0.7347	-158.389	0.166169	2.72109	11.5984	-31.7905	9.28925	-68.516	8.7185	-61.0655	-0.315792
0.7353	-105.938	0.472942	3.32957	13.7319	-28.7783	1.3433	-82.8561	-3.78966	-108.366	-0.315792
0.7360	-16.1389	-0.434596	1.49728	9.45654	-26.9246	-3.529	-94.1589	-18.1357	-91.8882	0
0.7367	-88.5573	-1.96846	0.888797	1.82866	-27.8515	-5.66917	-92.0235	-23.6265	-39.3923	0
0.7373	-126.008	0.472942	2.72109	-0.609553	-29.3808	-9.63076	-80.7208	-19.0546	-18.3336	-0.315792
0.7380	-125.18	2.91435	2.72109	0.914329	-31.7905	-21.5383	-69.4364	-12.0297	24.0853	-0.315792
0.7387	-198.633	1.70004	2.72109	0.609553	-32.7174	-40.7771	-55.9983	-6.84265	89.0819	-0.631584
0.7393	-241.05	-1.66169	4.24571	2.43821	-30.5857	-37.7262	-44.1065	-6.23509	46.6631	-0.631584
0.7400	-206.599	-2.876	3.02875	7.01832	-21.1319	1.63928	-29.1589	-6.84265	-65.646	-0.315792
0.7407	-173.39	-0.741369	1.19646	10.9889	-4.03174	32.4668	-7.17927	-1.6556	-123.928	-0.315792
0.7413	-194.081	0.779716	2.41343	12.208	4.81956	31.5561	4.10507	5.96928	-142.54	-0.315792
0.7420	-148.044	-0.434596	3.02875	7.01832	15.2001	21.174	16.9357	9.32606	-118.13	-0.315792
0.7427	66.211	-2.876	0.888797	-2.75145	43.5614	11.4066	39.8173	10.245	-6.43588	-0.631584
0.7433	249.947	-4.40987	-0.328171	-7.3231	62.1908	0.113839	45.0085	9.94121	92.4448	-0.631584
0.7440	227.6	-1.96846	0.888797	-7.93265	57.3249	-11.475	39.2099	6.28066	111.671	0
0.7447	154.665	2.60757	2.1126	-12.8175	49.0761	-25.4999	37.682	1.08601	131.199	-0.315792
0.7453	162.941	5.66252	1.19646	-17.0929	44.1638	-43.2132	30.9629	-5.93131	135.78	-0.631584
0.7460	182.805	5.66252	-2.16046	-15.2558	33.7832	-53.8913	18.1507	-12.3411	84.8145	-0.315792
0.7467	137.905	1.70004	-3.68509	-11.9032	15.8026	-52.3659	17.8377	-12.0297	38.4182	-0.315792
0.7473	27.4155	-1.35492	-1.55198	-9.16022	-6.16347	-47.7895	33.7057	-6.23509	26.219	-0.631584
0.7480	-45.2097	-1.35492	0.280313	-4.88489	-12.2806	-45.0346	45.616	-0.744262	25.9059	-0.631584
0.7487	-33.3124	-1.04814	1.49728	-1.21911	14.5977	-44.4427	49.5922	0.782234	28.3527	-0.315792
0.7493	-22.8635	-0.434596	2.72109	-2.13344	31.3735	-46.2641	40.1303	-4.10104	25.0014	-0.315792
0.7500	-14.6906	-0.127822	1.49728	-5.18967	15.8026	-38.3181	11.4316	-3.78966	29.5703	-0.315792
0.7507	21.622	3.22112	-1.55198	-3.97056	0.556103	-32.2164	-16.6412	9.63743	50.3275	-0.315792
0.7513	10.0351	9.02425	-2.76894	-0.609553	-10.7513	-47.1748	-28.8459	19.7078	42.6972	0
0.7520	-47.5892	12.9867	-2.16046	0.304776	-27.8515	-62.4292	-27.9255	18.1813	9.4277	-0.315792
0.7527	-57.107	10.8521	-3.99275	1.82866	-39.1126	-67.6203	-19.9915	16.351	-5.82129	-0.315792
0.7533	-35.3815	8.71747	-8.57347	-0.304776	-39.437	-60.3118	-3.82894	12.6828	1.19441	-0.315792
0.7540	-54.0034	10.5453	-9.79044	-7.3231	-38.2321	-38.9329	13.567	2.00495	11.573	-0.315792
0.7547	-78.4187	11.4657	-7.34967	-11.5984	-41.8931	-25.8186	25.4772	-8.06537	14.3097	-0.315792
0.7553	-19.5529	9.02425	-4.30041	-12.5128	-47.9639	-25.4999	35.2336	-10.1994	13.0921	-0.315792
0.7560	101.903	2.60757	-3.0766	-14.0366	-56.2127	-30.099	46.8309	-6.84265	10.6569	-0.631584
0.7567	142.768	-2.27524	-4.90889	-16.1785	-55.0078	-34.3566	66.9697	-0.744262	9.7408	-0.631584
0.7573	170.597	-0.741369	-9.79044	-19.2263	-44.0248	-29.1655	84.3656	4.45038	13.3936	-0.631584
0.7580	424.164	1.08649	-15.2873	-21.9778	-40.9662	-17.2807	82.2302	-5.01238	15.2258	-1.89475
0.7587	779.428	-0.434596	-12.2312	-21.6645	-43.4224	-6.2839	72.4738	-12.3411	15.2258	-1.89475
0.7593	953.956	-4.10309	-5.51738	-20.7502	-44.9516	2.57276	63.3248	0.174674	12.7906	0
0.7600	966.785	-5.3174	-4.90889	-19.2263	-45.8321	10.2	46.8309	12.0753	8.8247	0
0.7607	1107.48	-2.56923	-2.16046	-15.2558	-36.3784	19.3526	30.9629	21.538	9.1262	-0.315792
0.7613	1087.93	-0.434596	2.1126	-10.6841	-13.4855	28.8012	22.4214	28.8591	9.7408	-0.315792
0.7620	300.639	-2.56923	3.02875	-7.3231	3.61467	36.4284	14.1745	26.1175	5.7749	-0.315792
0.7627	-449.201	-3.48955	-1.24432	-5.49444	4.49516	41.3235	2.59558	18.7888	1.49591	-0.315792
0.7633	-484.582	-1.35492	-7.95815	-4.27534	-0.0926838	40.7088	-5.96432	13.9055	-0.0231924	-0.315792
0.7640	-400.68	-4.71664	-3.99275	10.3709	-0.97318	42.8489	-6.86633	23.3683	0.278309	0
0.7647	-343.366	-17.2177	12.1834	39.0622	1.15855	46.8105	-4.12348	43.2052	1.19441	0
0.7653	-216.427	-26.6893	24.0864	56.7646	3.89272	30.3267	-2.30105	47.1695	2.41201	-0.315792
0.7660	-228.325	-26.0757	22.5549	54.6227	4.21711	-13.6151	-0.165675	26.7251	1.79741	-0.631584
0.7667	-146.492	-17.8312	13.0995	41.8052	0.556103	-59.6971	-1.06769	2.30873	-0.63779	-0.315792
0.7673	188.598	-1.66169	2.72109	24.1112	-1.90002	-84.7188	-5.35684	-11.7259	-0.939291	-0.315792
0.7680	249.326	11.4657	-3.68509	10.9889	8.48057	-86.859	-8.09969	-19.966	-0.63779	-0.315792
0.7687	-15.3113	13.2935	-2.76894	5.49444	30.1222	-88.0657	-47.1623	-22.4114	-3.08459	-0.315792
0.7693	-158.7	11.7724	-0.635832	3.65732	41.754	-101.795	-132.614	-17.2243	-9.48568	-0.631584
0.7700	-130.974	10.5453	0.888797	2.74299	41.4297	-100.588	-185.096	-6.84265	-14.6808	-0.315792
0.7707	-73.246	9.6378	4.55337	3.04776	37.4443	-83.8081	-179.611	5.05794	-13.1501	0
0.7713	-125.387	8.4107	4.55337	2.13344	27.7125	-71.5818	-143.291	8.7185	-8.26808	-0.315792
0.7720	-127.56	1.39326	-0.328171	-0.609553	15.8026	-60.3118	-89.8881	3.53145	-7.05048	-0.315792
0.7727	117.214	-8.37236	-4.30041	-2.75145	20.9929	-49.019	-45.6344	1.70117	-9.48568	-0.315792
0.7733	48.2099	-11.1205	-3.0766	-1.52388	35.0345	-38.9329	-6.25885	0.174674	-12.5355	-0.631584
0.7740	-467.512	-3.48955	-0.0273476	-0.609553	23.7271	-23.6785	38.2894	-12.6449	-10.4018	0
0.7747	-573.45	1.70004	1.19646	-4.27534	37.7686	-5.05444	80.7023	-23.3227	0.88131	-0.315792
0.7753	-264.948	-2.56923	-0.0273476	-7.93265	118.635	6.23837	128.932	-23.9379	9.1262	-0.631584
0.7760	-164.493	-2.876	-0.328171	-6.10399	159.555	1.04732	164.332	-23.019	6.691	-0.631584
0.7767	-57.107	-0.741369	0.587973	-0.304776	128.691	3.77945	174.088	-16.3054	-6.43588	-0.315792
0.7773	259.982	0.166169	1.49728	3.04776	114.974	43.7596	178.985	-3.1821	-22.6126	-0.315792
0.7780	440.614	1.70004	2.1126	0.914329	118.357	96.2621	164.939	2.00495	-38.4762	-0.315792
0.7787	268.879	1.70004	3.02875	-1.52388	95.4643	120.373	120.391	3.83523	-60.764	-0.631584
0.7793	-77.1772	-1.35492	2.1126	-1.82866	54.8688	108.762	68.4976	8.11094	-55.5689	-0.631584
0.7800	-230.704	-3.79632	1.19646	-3.36101	13.0684	80.689	30.3554	10.8526	-8.26808	0
0.7807	-334.469	-5.93095	4.55337	-2.43821	-24.1905	58.4221	-0.773152	13.9055	29.5703	0
0.7813	-578.622	-7.75881	8.21111	1.82866	-57.742	48.336	-23.3602	13.6018	31.7156	-0.315792
0.7820	-593.83	-3.79632	8.21111	3.96209	-91.0155	46.5145	-15.7208	2.92389	20.4209	-0.315792
0.7827	-405.232	2.91435	3.02875	1.52388	-116.365	49.5654	7.76834	-14.4751	6.3779	-0.631584
0.7833	-317.71	4.44821	-2.16046	-0.609553	-126.699	61.7689	13.8799	-25.7682	-5.82129	-0.631584
0.7840	-275.293	3.83467	-0.0273476	2.43821	-129.155	77.9341	6.24044	-21.4925	-5.51979	-0.631584
0.7847	-238.98	3.22112	3.94489	10.0661	-134.345	81.5997	-4.73095	-12.0297	-4.00069	-0.631584
0.7853	-143.699	2.00681	4.8542	16.4749	-131.009	74.5872	3.20306	-8.36915	-7.96658	-0.315792
0.7860	69.832	-2.27524	3.02875	17.0929	-108.718	68.4854	37.369	-10.5032	-11.9325	-0.315792
0.7867	187.357	-5.62418	-0.0273476	14.3414	-84.2959	61.7689	33.4112	-11.7259	-14.3677	-0.315792
0.7873	95.7991	-2.56923	-2.46812	14.0366	-59.5957	56.5779	-0.46021	-9.89565	-13.1501	-0.315792
0.7880	-19.2426	3.52789	-4.60123	13.7319	-30.2613	61.7689	9.90371	-14.7789	-9.48568	-0.631584
0.7887	-76.8669	6.88962	-7.04201	11.2937	-15.6172	70.6256	32.4908	-22.1	-6.13438	0
0.7893	-185.908	4.14144	-8.26581	6.10399	-20.8075	63.9091	29.1405	-20.8849	-4.30219	-0.315792
0.7900	-348.229	-6.23772	-2.16046	0	-25.3954	46.1958	19.3656	-12.6449	-1.85539	-1.89475
0.7907	-405.025	-11.7341	9.74258	-2.13344	-22.0587	37.0432	15.0949	-1.6556	6.0764	-1.89475
0.7913	-284.707	-6.5445	12.7918	-3.05623	-16.5441	37.6579	19.6786	0.782234	13.0921	0
0.7920	-90.6264	-2.27524	6.078	-4.88489	-11.6782	36.7472	9.90371	-4.40482	13.3936	0
0.7927	121.766	-1.66169	-0.328171	-7.01832	-10.1489	28.8012	-14.1929	-10.1994	11.573	-0.315792
0.7933	244.464	0.166169	-4.60123	-9.16022	-12.2806	21.4928	-28.2385	-13.5562	10.9584	-0.315792
0.7940	158.079	3.22112	-3.68509	-7.62788	-11.3538	19.9673	-53.8629	-7.45781	10.9584	-0.315792
0.7947	6.72456	3.83467	-0.943492	-5.79922	-0.695128	16.3017	-82.8561	0.478454	12.4891	-0.315792
0.7953	-70.5561	2.60757	-1.55198	-7.93265	20.9929	9.88121	-77.6834	3.22767	19.5048	-0.315792
0.7960	-108.317	1.70004	-4.30041	-10.0746	43.2833	1.3433	-62.7174	-0.432887	17.6726	-0.315792
0.7967	-161.803	3.52789	-7.95815	-7.62788	49.9566	-7.51336	-62.1099	-7.45781	0.579809	-0.315792
0.7973	-233.808	7.19639	-9.18195	-0.304776	41.754	-10.8602	-71.5718	-5.31616	-6.73739	-0.315792
0.7980	-191.391	7.19639	-6.43352	3.96209	31.9759	-9.63076	-105.756	5.05794	-2.16849	-0.315792
0.7987	43.6579	4.14144	-3.0766	0.609553	24.6539	-9.63076	-134.749	13.298	1.49591	-0.315792
0.7993	295.363	0.166169	-0.635832	-5.18967	13.9489	-17.5767	-125.895	15.432	3.9427	-0.315792
0.8000	399.128	-5.3174	3.02875	-8.54221	1.76099	-32.5351	-108.794	16.351	4.8588	-0.315792
0.8007	339.642	-6.5445	6.68649	-9.16022	-9.22204	-42.9172	-90.7901	19.0926	6.3779	-0.315792
0.8013	229.463	-3.48955	7.30181	-9.465	-17.1465	-41.6878	-69.7494	19.404	10.6569	-0.315792
0.8020	139.147	-0.741369	6.68649	-9.76978	-21.7343	-37.7262	-48.9847	16.351	11.2599	-0.315792
0.8027	7.34529	-0.127822	1.80494	-10.9889	-28.1295	-34.6753	-24.5752	11.7715	6.3779	-0.315792
0.8033	-48.5203	-0.741369	-5.21655	-13.4271	-35.7759	-29.7802	-7.17927	6.28066	-1.55389	-0.315792
0.8040	42.7268	0.779716	-6.12586	-11.9032	-34.2467	-24.2932	1.36222	4.13901	-0.336289	-0.315792
0.8047	60.7279	3.52789	-4.30041	-9.465	-23.588	-12.7044	5.63297	3.83523	8.2101	0
0.8053	-64.4523	3.52789	-3.38426	-6.10399	-13.8099	2.86874	4.41801	2.61251	1.19441	-0.315792
0.8060	-119.076	-0.741369	-2.16046	-0.304776	-10.4269	5.91962	19.3656	4.45038	-10.7149	-0.631584
0.8067	36.9333	-4.10309	-1.55198	0.609553	-9.82448	3.16472	58.4282	7.80716	-9.48568	-0.315792
0.8073	305.191	-2.876	1.19646	0	-7.09031	3.77945	79.4874	9.63743	-7.65348	0
0.8080	436.372	-0.127822	2.72109	5.18967	-6.48787	-1.09285	64.5398	4.13901	-10.1003	-0.315792
0.8087	343.263	4.44821	-0.635832	11.5984	-5.23663	-7.19461	34.0187	-5.62753	-11.0164	-0.315792
0.8093	185.805	2.31358	0.888797	13.1223	2.36344	-3.529	6.55338	-4.40482	-12.234	0
0.8100	78.4187	-5.62418	6.99415	9.76131	10.2879	4.69016	-1.38063	5.36172	-14.6808	-0.315792
0.8107	-108.938	-3.79632	5.46952	4.58011	14.5977	5.62364	18.1507	7.192	-5.82129	-0.315792
0.8113	-352.781	-1.66169	4.55337	6.10399	13.9489	4.39418	45.303	4.45038	10.0423	-0.315792
0.8120	-228.842	-6.5445	10.0434	10.9889	11.2147	7.14908	46.2234	8.41472	10.6569	-0.315792
0.8127	310.675	-7.45204	8.21111	10.6841	10.2879	6.83033	49.8867	10.8526	5.4618	-0.315792
0.8133	641.213	-5.3174	1.19646	8.54221	10.6123	4.0982	89.5568	11.7715	-0.336289	-0.631584
0.8140	154.458	-5.3174	2.1126	9.15176	13.9489	-0.796872	105.13	19.7078	-13.1501	-0.315792
0.8147	-497.41	-5.3174	5.77034	10.9889	17.9343	-10.8602	72.4738	24.2796	-22.9141	-0.315792
0.8153	-325.365	-3.48955	5.16186	11.2937	9.08301	-20.0129	44.6956	16.9585	-28.4107	-0.315792
0.8160	105.007	-0.741369	1.49728	6.71355	8.48057	-22.7678	29.7479	6.88822	-38.4762	-0.315792
0.8167	150.734	2.31358	-3.0766	-0.609553	31.9759	-17.5767	16.0153	-5.93131	-36.041	-0.315792
0.8173	70.763	10.2386	-5.82504	-2.13344	56.6761	-4.14373	12.352	-21.1887	-7.65348	-0.315792
0.8180	38.4852	16.0417	-4.30041	-1.82866	124.752	32.1708	9.0017	-26.0719	14.6228	-0.315792
0.8187	-21.7255	13.9071	-0.635832	-5.18967	220.865	84.6505	4.73095	-19.6622	10.6569	-1.57896
0.8193	-98.282	10.5453	3.02875	-8.54221	239.819	106.621	-1.69357	-11.4221	1.79741	-1.89475
0.8200	-87.0054	4.14144	5.77034	-8.84698	196.165	94.4179	-41.0507	-4.40482	-0.336289	-0.315792
0.8207	-9.51784	-8.67913	8.21111	-7.93265	142.733	69.7149	-91.1031	1.39739	3.62961	-0.315792
0.8213	22.8635	-11.7341	6.38566	-8.54221	83.23	33.0816	-115.218	1.39739	5.7749	-0.631584
0.8220	-25.036	-1.66169	0.888797	-11.9032	20.066	-5.37319	-143.898	-7.14643	-0.0231924	-0.315792
0.8227	-89.6953	2.60757	-3.38426	-14.951	-35.4515	-21.2423	-192.423	-15.6979	-1.25239	-0.315792
0.8233	-133.974	-0.741369	-4.30041	-14.0366	-80.9593	-29.7802	-222.336	-16.913	4.54571	-0.631584
0.8240	-153.837	-1.35492	-1.55198	-11.2937	-121.508	-58.4676	-203.413	-13.2524	9.1262	-0.315792
0.8247	-115.042	-1.35492	1.19646	-12.208	-130.36	-98.1518	-164.35	-6.84265	10.9584	-0.315792
0.8253	-46.9685	-3.18277	2.1126	-11.9032	-98.0131	-156.733	-130.479	-1.04804	9.7408	-0.315792
0.8260	-31.1399	-5.01063	0.888797	-9.465	-11.0757	-213.812	-83.7766	-0.432887	6.691	-0.315792
0.8267	-26.5879	-6.5445	-0.328171	-11.2937	170.816	-232.413	-13.8983	-3.1821	6.3779	-0.315792
0.8273	41.4854	-4.10309	0.587973	-11.2937	323.096	-232.117	53.8629	-2.87832	9.1262	-0.315792
0.8280	135.215	-1.04814	2.1126	-8.54221	337.74	-215.019	96.8833	2.30873	7.9086	-0.315792
0.8287	193.46	0.779716	0.280313	-7.3231	300.527	-162.835	134.418	5.96928	1.49591	0
0.8293	209.082	1.70004	-3.0766	-8.54221	256.271	-117.072	171.658	0.478454	-4.60369	-0.315792
0.8300	190.15	-0.127822	-4.30041	-8.84698	167.48	-111.881	186.919	-10.8146	-5.51979	-0.315792
0.8307	167.804	1.70004	-3.0766	-5.49444	50.281	-101.795	186.311	-17.5281	-4.60369	-0.315792
0.8313	101.282	3.83467	-1.85964	-3.36101	-23.8661	-67.6203	174.088	-12.6449	-4.60369	-0.631584
0.8320	-158.079	3.83467	-5.21655	-3.05623	-50.0956	-41.6878	142.96	-3.78966	-7.96658	-0.315792
0.8327	-444.959	5.35575	-11.3151	-1.52388	-79.1056	-10.8602	108.794	-0.432887	-15.5969	-0.315792
0.8333	-319.882	6.27607	-12.5389	0.609553	-125.494	29.7347	86.2065	1.70117	-20.1658	-0.315792
0.8340	63.2108	6.58284	-9.18195	7.93265	-177.072	59.014	62.699	6.28066	-22.6126	-0.631584
0.8347	231.325	7.79716	-7.95815	15.2558	-214.609	89.5456	30.3554	6.88822	-28.1092	-0.631584
0.8353	264.017	7.79716	-6.43352	18.0072	-235.046	122.491	-3.20306	1.39739	-20.1658	-0.631584
0.8360	402.232	4.44821	-3.68509	23.1884	-242.368	132.873	-40.1303	-2.87832	-8.26808	-0.315792
0.8367	632.315	-1.35492	-0.0273476	28.0733	-231.709	138.36	-69.7494	4.13901	-29.3268	-0.315792
0.8373	682.388	-8.9859	9.12726	26.2446	-210.624	156.688	-51.7276	20.6191	-63.8138	-0.315792
0.8380	298.157	-16.3101	19.198	21.6645	-186.248	162.175	0.441801	33.4386	-68.3827	0
0.8387	-154.768	-18.7515	18.5895	18.9215	-156.311	140.5	22.7344	35.8765	-58.0157	-0.315792
0.8393	-217.565	-16.0033	9.43492	17.0929	-129.155	111.198	6.24044	32.2159	-58.6187	-0.315792
0.8400	-42.1061	-11.4273	3.02875	13.4271	-115.716	89.8416	-14.8003	27.3326	-26.88	-0.315792
0.8407	54.6241	-5.62418	2.72109	8.54221	-101.396	75.8167	-23.3602	18.7888	39.9489	-0.315792
0.8413	-64.1419	-1.96846	3.02875	7.01832	-78.5032	67.8707	-21.8323	7.49578	52.4612	-0.315792
0.8420	-262.465	-1.66169	2.1126	7.62788	-65.9909	68.1667	-16.9357	-0.432887	20.4209	-0.315792
0.8427	-387.541	-2.56923	0.888797	8.23743	-68.447	65.1158	-15.4262	-7.45781	14.0082	-0.315792
0.8433	-368.092	-4.10309	1.19646	9.45654	-66.5933	48.6547	-24.5752	-11.4221	19.5048	-0.315792
0.8440	-191.081	-0.741369	1.49728	10.9889	-52.5517	30.6454	-26.1031	-6.53887	19.5048	-0.315792
0.8447	-111.421	6.58284	-2.16046	10.3709	-37.3052	19.9673	-21.2249	-2.87832	18.8902	-0.315792
0.8453	-166.666	9.6378	-3.99275	9.45654	-30.2613	13.8656	-49.5922	-4.10104	17.6726	-0.631584
0.8460	-140.388	7.19639	-3.0766	6.40877	-31.1881	11.1107	-88.3602	-5.93131	9.7408	-0.315792
0.8467	-69.625	5.66252	-5.51738	-0.304776	-33.3198	10.4959	-99.9575	-10.1994	-22.3111	-0.315792
0.8473	-55.2448	8.4107	-7.65733	-4.58011	-31.7905	7.44506	-115.218	-14.4751	-42.4536	0
0.8480	-98.282	9.33102	-6.12586	-7.62788	-11.3538	-3.23302	-129.853	-12.0297	-18.3336	-0.315792
0.8487	-129.422	5.35575	-1.85964	-12.208	35.6369	-16.0513	-105.443	-3.78966	7.5955	-1.89475
0.8493	-155.906	3.52789	-0.0273476	-15.2558	67.6592	-21.2423	-68.516	1.08601	13.0921	-1.57896
0.8500	-292.673	4.75499	-4.30041	-14.0366	64.925	-20.3316	-49.5922	-3.48588	11.573	0.315792
0.8507	-185.598	9.6378	-10.7066	-11.9032	52.4127	-21.2423	-22.1269	-5.93131	13.3936	0
0.8513	437.924	14.5206	-14.672	-10.6841	37.7686	-25.8186	40.1303	0.174674	16.1419	-0.315792
0.8520	924.368	14.5206	-15.5881	-8.84698	30.1222	-37.4074	101.154	3.83523	15.5389	0
0.8527	726.873	5.9693	-6.74118	-9.465	42.0321	-50.8404	123.741	5.96928	16.1419	0
0.8533	248.084	-9.29268	9.74258	-12.5128	75.3056	-50.8404	131.675	8.7185	17.9741	-0.315792
0.8540	-54.9345	-13.8687	16.7572	-14.3414	126.56	-40.4583	134.123	4.13901	20.4209	-0.315792
0.8547	-412.578	-7.75881	9.43492	-15.2558	153.114	-35.586	128.325	-1.35182	23.4707	-0.315792
0.8553	-599.106	-5.01063	2.41343	-15.569	131.148	-33.1499	117.943	1.70117	24.3868	-0.315792
