MR32 ASCII
Name	CRYE15_fast
Frequency	1500
Date	26-08-2015 12:40:01
"Time,s"	"RT TIB.ANT.,uV"	"RT MED. GASTRO,uV"	"RT LAT. GASTRO,uV"	"RT BICEPS FEM.,uV"	"RT VMO,uV"	"RT VLO,uV"	"RT RECTUS FEM.,uV"	"RT SOLEUS,uV"	"RT SEMITEND.,uV"	"Channel 12,uV"
0.0000	156.191	20.1011	-8.24686	4.32542	5.65191	0.332493	-62.5544	23.0924	-3.81687	-5066.44
0.0007	193.134	23.7559	-13.1374	2.78062	6.25833	-0.28134	-70.4813	23.3893	-1.0828	-10219.3
0.0013	259.642	17.6751	-21.3843	-3.60451	1.98908	-4.24567	-57.669	17.8882	-1.38057	-9980.69
0.0020	292.326	17.6751	-14.6717	2.16271	5.04548	0.332493	-93.374	25.2295	-0.46019	-9584.6
0.0027	312.729	9.73549	-3.67592	5.56125	4.73014	1.24045	-245.346	37.4188	-2.00318	-9911.14
0.0033	345.711	-8.56975	3.64396	2.16271	0.776227	-3.33771	-368.947	40.1694	-5.35986	-9804.17
0.0040	304.212	-18.3368	16.1421	4.63437	2.28017	-3.93876	-397.021	44.7601	-5.9554	-9800.11
0.0047	173.573	-25.9928	27.4576	4.63437	1.98908	-7.60896	-411.973	52.6951	-6.25317	-9815.39
0.0053	-56.2071	-39.4146	35.0651	-0.257465	-0.75197	-14.9238	-392.136	61.8371	-6.25317	-9815.71
0.0060	-314.364	-47.6378	42.0973	-2.67764	-0.145543	-16.7653	-304.858	67.9515	-4.43948	-9798.86
0.0067	-408.702	-46.7241	41.49	-3.60451	-1.06731	-10.9595	-197.743	59.4032	-2.89649	-9810.09
0.0073	-250.629	-38.7844	35.6725	-3.60451	-3.80837	-2.11005	-123.278	40.486	-3.5191	-9910.2
0.0080	69.2313	-30.2462	32.6358	-3.29556	-6.54942	2.77503	-73.2268	27.9603	-3.81687	-9569.32
0.0087	280.095	-23.8504	36.9191	-1.18434	-7.47119	4.60374	-29.5949	22.7758	-3.5191	-10039.9
0.0093	280.392	-17.1395	42.7047	1.85375	-6.25833	3.08195	7.64434	11.4967	-3.22133	-10129.5
0.0100	104.639	-11.9409	38.4214	-0.566424	-6.86476	-1.49622	61.047	-12.0112	-3.5191	-4748.02
0.0107	-219.777	-7.65607	31.4212	-3.29556	-6.86476	-1.80313	131.542	-34.9058	-4.14171	111.34
0.0113	-475.21	-3.08763	26.2109	-3.29556	-6.25833	-1.49622	184.648	-47.4117	-4.73725	111.34
0.0120	-454.757	2.11093	16.7494	-3.29556	-7.1801	-3.0308	193.181	-58.0972	-4.73725	-229.23
0.0127	-254.244	13.0752	8.53454	-0.566424	-4.41479	0.0255764	175.793	-68.7826	-3.22133	98.2413
0.0133	-154.161	23.1572	0.575362	0.66941	-0.460885	4.29683	175.793	-72.4434	-1.67834	-9.35631
0.0140	-163.322	25.2997	-9.17383	-0.875382	1.38266	8.26116	134.287	-70.6031	-1.0828	-13.7226
0.0147	-117.267	27.7257	-15.2791	-0.566424	1.98908	13.4532	22.5965	-63.895	-1.67834	1.55939
0.0153	-80.3241	29.8681	-19.2427	-3.91347	-4.12371	14.668	-22.5696	-56.2569	-5.35986	-1.55939
0.0160	-129.747	28.0407	-19.85	-4.22243	-7.1801	13.4532	8.24996	-46.1849	-7.49839	-1.24751
0.0167	-167.284	22.8422	-12.8498	0.051493	-3.80837	12.8393	17.7112	-30.9284	-6.87578	-0.935631
0.0173	-151.437	17.3601	-7.63953	-2.11122	-5.02122	9.48883	27.778	-21.4698	-6.57801	-1.55939
0.0180	-176.743	17.045	-5.4979	-2.11122	-2.8866	5.21758	64.3981	-19.9462	-4.43948	-0.623754
0.0187	-262.811	13.0752	-2.14163	-0.566424	1.06731	3.08195	100.413	-12.6247	-3.5191	-0.311877
0.0193	-296.09	2.11093	3.64396	-2.67764	0.145543	3.98991	125.432	0.494697	-5.03502	-0.623754
0.0200	-276.876	-1.85888	12.1785	0.360451	1.67374	8.26116	130.936	9.95329	-5.03502	-0.311877
0.0207	-303.073	-1.57532	13.3932	1.28733	1.06731	7.95425	109.874	5.99572	-5.35986	-0.311877
0.0213	-331.498	-4.91501	9.14186	-4.22243	-3.51728	2.46812	93.697	-6.21339	-6.87578	-0.311877
0.0220	-270.141	-0.661635	12.1785	-1.4933	-2.28017	3.37608	100.722	-10.171	-4.73725	-0.311877
0.0227	-168.819	3.02462	11.2835	0.978368	-3.20194	3.98991	101.637	-12.9215	-4.73725	-0.311877
0.0233	-123.061	1.19725	4.85861	-1.80226	-5.65191	0.332493	90.9515	-20.8564	-7.17355	-0.311877
0.0240	-106.571	7.27799	5.46594	2.47167	-1.98908	2.1612	89.1211	-22.9935	-5.65763	-0.311877
0.0247	-77.2538	13.3902	0.895008	3.7075	-1.98908	2.46812	69.5931	-28.7913	-4.73725	-0.311877
0.0253	-78.1947	12.7916	-10.3885	-2.42017	-7.78653	-2.11005	6.72917	-41.9107	-6.25317	-0.311877
0.0260	-77.5509	17.3601	-11.6031	-0.566424	-5.94299	-0.28134	-47.8982	-42.5241	-4.73725	-0.311877
0.0267	22.8295	21.0148	-7.95918	3.7075	-0.75197	2.46812	-60.724	-27.5843	-3.22133	-0.311877
0.0273	159.559	12.4766	-9.17383	1.54479	-2.28017	-0.588256	-60.4145	-13.5349	-4.73725	-0.311877
0.0280	230.969	4.53693	-7.35185	0.66941	-3.20194	-0.28134	-51.2628	-4.98654	-5.03502	-0.311877
0.0287	291.385	3.30818	-5.21022	0.978368	-2.28017	2.46812	-35.3954	-0.415545	-5.03502	0
0.0293	319.167	-0.945193	-3.67592	-0.875382	-2.59551	2.46812	-23.7943	8.13281	-5.65763	-0.311877
0.0300	219.975	-8.2862	2.71699	-1.80226	-1.98908	0.933537	-16.7691	25.8232	-5.65763	-0.311877
0.0307	134.204	-12.5396	10.3565	-1.4933	-0.75197	0.933537	-10.6725	38.0323	-4.14171	-0.311877
0.0313	135.145	-13.7683	16.4618	-0.875382	-0.145543	1.24045	-6.39271	35.2818	-3.5191	-0.311877
0.0320	36.547	-17.7381	19.4984	-2.42017	-1.98908	-0.588256	-7.01179	27.9603	-4.73725	-0.311877
0.0327	-100.777	-21.7079	21.9597	-2.9866	-2.8866	-2.11005	-7.61742	22.7758	-5.65763	-0.311877
0.0333	-77.8976	-25.3627	28.6722	-1.80226	-0.460885	-1.80313	-8.22304	19.1151	-5.35986	-0.311877
0.0340	53.0377	-30.2462	33.2431	-2.9866	-0.460885	-1.20209	-5.47754	17.2946	-5.65763	-0.311877
0.0347	137.571	-30.5613	32.0285	-4.22243	-0.145543	-0.895172	1.84379	14.8409	-5.65763	-0.311877
0.0353	63.7344	-25.3627	32.0285	-1.80226	2.91085	0.0255764	9.77075	6.90596	-4.43948	-0.311877
0.0360	-107.165	-20.4792	26.2109	-1.80226	1.98908	-0.588256	10.6859	-7.12363	-4.43948	-0.311877
0.0367	-215.815	-14.3669	13.3932	-3.29556	-1.38266	-3.0308	5.814	-23.3101	-5.03502	0
0.0373	-195.066	-5.82869	4.85861	-2.42017	-1.67374	-4.24567	2.44942	-37.6365	-5.35986	-0.311877
0.0380	-117.862	-0.0315064	-2.14163	-3.29556	-2.59551	-5.47334	-0.901709	-45.2746	-6.57801	-0.311877
0.0387	-103.797	5.13555	-6.1372	-2.9866	-1.67374	-5.47334	-1.52079	-46.1849	-6.25317	-0.311877
0.0393	-138.017	10.0191	-2.78092	0.66941	1.38266	-3.93876	2.15333	-48.0251	-4.14171	-0.311877
0.0400	-143.167	6.99443	-0.926972	0.051493	0.776227	-5.16642	1.84379	-44.9778	-4.43948	-0.311877
0.0407	-47.0456	-1.26026	-1.5343	-2.67764	-2.28017	-6.68822	-2.12642	-27.2677	-5.65763	-0.311877
0.0413	143.365	-5.82869	-0.926972	-3.60451	-3.80837	-6.68822	-3.04158	-9.26072	-5.9554	-0.311877
0.0420	238.298	-3.4027	-1.24662	-2.9866	-4.41479	-6.07438	-1.21125	-5.30315	-5.35986	-0.311877
0.0427	170.85	4.22186	-0.319646	0.360451	-1.98908	-3.33771	2.44942	-12.0112	-4.14171	0
0.0433	102.807	6.67937	-1.24662	0.66941	-1.38266	-2.11005	3.0685	-21.173	-3.81687	-0.311877
0.0440	75.0253	0.567116	-3.0686	-2.11122	-3.20194	-3.33771	-0.605625	-27.2677	-3.81687	-0.311877
0.0447	31.3967	-3.08763	-3.99557	-2.9866	-3.51728	-1.49622	-2.73204	-33.9758	-3.22133	0
0.0453	-11.6376	-4.91501	-7.95918	-5.1493	-5.65191	-2.72388	-4.87192	-42.8407	-4.14171	-0.623754
0.0460	-31.1987	-5.54514	-7.35185	-5.45826	-6.54942	-5.16642	-4.26629	-42.2273	-5.03502	-0.935631
0.0467	17.9268	-0.0315064	0.575362	0.978368	-1.67374	-1.20209	0.619084	-31.5419	-2.30095	-0.311877
0.0473	129.053	3.62324	-1.5343	0.978368	-3.51728	-0.588256	0.0134583	-27.2677	-2.00318	-0.311877
0.0480	215.073	2.70955	-7.63953	-4.53139	-10.8429	-4.24567	-5.18146	-25.744	-4.14171	-0.311877
0.0487	249.886	1.4808	-0.639291	-4.84035	-13.8751	-2.72388	-5.78709	-15.0586	-4.14171	-0.311877
0.0493	252.957	-5.82869	7.92721	-5.76722	-16.6404	-2.41697	-6.70225	-3.77948	-4.14171	0
0.0500	278.262	-10.4286	12.4981	-5.1493	-17.2468	-3.0308	-7.30788	1.72154	-4.43948	0
0.0507	328.329	-6.14376	16.7494	0.360451	-13.584	0.0255764	-2.43596	4.76888	-2.59872	-0.311877
0.0513	362.499	-7.05744	13.7128	-0.566424	-14.7968	-0.28134	-2.43596	2.01836	-2.59872	-0.311877
0.0520	371.363	-11.0273	6.68059	-4.53139	-18.775	-3.33771	-6.09663	-2.84945	-4.43948	-0.311877
0.0527	167.779	-7.97113	6.39291	-2.42017	-17.2468	-2.41697	-4.87192	-5.91657	-4.14171	0
0.0533	-231.662	-5.54514	4.57093	-3.29556	-16.9315	-2.41697	-5.47754	-15.0586	-4.14171	0
0.0540	-354.08	-3.68625	3.64396	-3.91347	-17.2468	-2.11005	-6.09663	-26.0408	-3.5191	0
0.0547	-221.907	1.4808	7.92721	1.28733	-14.1904	0.639409	-1.52079	-26.6543	-1.0828	-0.311877
0.0553	-199.968	0.882181	3.03663	-0.566424	-15.7186	-1.49622	-2.12642	-26.0408	-1.67834	-0.311877
0.0560	-187.737	-0.945193	-5.21022	-4.53139	-18.4597	-4.24567	-5.78709	-28.4945	-3.22133	-0.311877
0.0567	-111.127	3.93831	-3.99557	-1.18434	-16.0097	-1.80313	-3.04158	-28.7913	-0.78503	-0.311877
0.0573	-88.2476	6.99443	-6.42488	-2.42017	-17.5379	-2.11005	-3.35113	-32.4521	-0.46019	0
0.0580	-83.6916	10.3341	-11.6031	-4.84035	-20.9096	-2.72388	-5.47754	-36.4295	-1.67834	-0.311877
0.0587	-36.6956	17.045	-9.49347	-0.257465	-20.3032	-0.28134	-2.73204	-29.4048	-0.46019	0
0.0593	32.8824	13.0752	-9.78116	-2.11122	-23.6507	-2.11005	-3.64721	-18.4225	-0.78503	-0.311877
0.0600	100.331	3.02462	-10.7081	-6.95156	-28.2353	-5.16642	-7.30788	-8.9639	-1.67834	-0.311877
0.0607	149.159	-0.661635	-9.17383	-7.87844	-28.5264	-5.78026	-13.7275	-2.84945	-1.0828	-0.311877
0.0613	164.759	0.882181	-10.9958	-7.26052	-27.9199	-5.78026	-19.8241	-1.64239	-0.16242	-0.311877
0.0620	146.436	6.08074	-11.9228	-3.91347	-26.3917	-3.33771	-16.1635	0.494697	0.46019	-0.311877
0.0627	103.995	8.19168	-13.1374	-2.11122	-25.7853	-2.11005	-13.1084	3.24521	0.13535	-0.311877
0.0633	61.605	3.30818	-16.8134	-4.53139	-26.7071	-4.55259	-15.8539	3.24521	-2.30095	-0.311877
0.0640	56.7023	-0.661635	-16.4937	-5.76722	-26.3917	-5.78026	-16.7691	2.63179	-4.14171	0
0.0647	46.0056	-6.14376	-13.7448	-6.95156	-26.1006	-6.07438	-17.9938	2.33497	-5.35986	-0.311877
0.0653	-7.67586	-8.88482	-6.1372	-5.1493	-22.7289	-5.16642	-16.473	2.63179	-3.81687	-0.311877
0.0660	-13.4699	-6.45882	2.71699	0.360451	-18.1443	-2.41697	-10.6725	1.42473	-0.46019	0
0.0667	41.7468	-5.82869	2.42931	-0.566424	-19.6725	-2.41697	-10.0668	-8.35048	-0.78503	-0.311877
0.0673	44.8171	-7.37251	1.21465	-3.60451	-23.966	-3.93876	-13.1084	-22.3801	-2.59872	0
0.0680	-65.6657	-7.05744	4.57093	-3.29556	-26.3917	-4.24567	-12.8123	-29.4048	-3.22133	0
0.0687	-182.834	-6.45882	5.46594	-3.60451	-27.6046	-4.24567	-4.56238	-28.1779	-3.81687	-0.311877
0.0693	-167.284	-4.91501	6.07327	-1.80226	-27.3135	-3.33771	12.8258	-21.4698	-3.81687	-0.311877
0.0700	-99.8357	-3.68625	8.53454	0.978368	-26.1006	-2.41697	22.8926	-14.7617	-2.89649	-0.311877
0.0707	-68.7361	-5.23007	5.17826	-0.566424	-27.9199	-3.0308	16.4865	-13.2381	-3.5191	-0.311877
0.0713	-20.502	-6.74238	0.895008	-2.42017	-29.4481	-2.11005	0.0134583	-14.7617	-3.81687	-0.311877
0.0720	45.7085	-7.37251	-3.0686	-3.29556	-27.9199	-0.588256	-21.0488	-16.2854	-2.89649	-0.311877
0.0727	89.3371	-4.91501	-10.9958	-5.1493	-27.3135	0.0255764	-33.2556	-20.243	-1.38057	-0.311877
0.0733	83.5431	2.39449	-15.8864	-4.22243	-28.2353	3.08195	-33.5651	-24.2203	1.05573	0
0.0740	47.5408	5.76568	-17.7084	-3.91347	-31.5828	5.5117	-30.2005	-26.3574	1.97611	-0.311877
0.0747	47.5408	1.79587	-19.85	-6.6941	-34.9302	4.29683	-39.0561	-23.6069	1.67834	0
0.0753	86.0191	-1.85888	-19.5623	-7.56948	-33.7174	3.08195	-73.8459	-16.5822	1.67834	0
0.0760	144.9	-4.00132	-18.955	-9.11427	-30.661	0.933537	-95.2043	-16.8988	1.67834	-0.311877
0.0767	233.098	-3.68625	-14.6717	-8.1874	-25.47	-0.588256	-84.8279	-21.7864	2.89649	-0.623754
0.0773	291.385	-3.68625	-2.78092	-4.22243	-18.775	2.1612	-66.8206	-14.7617	5.03502	-0.311877
0.0780	338.679	-9.48344	5.17826	-2.67764	-15.4033	2.1612	-53.6988	-1.64239	3.81687	0
0.0787	461.988	-11.6259	4.57093	-3.29556	-11.7404	0.332493	-37.8314	1.72154	1.3535	0
0.0793	560.239	-9.48344	7.31988	-2.9866	-6.54942	1.24045	-6.39271	-2.84945	1.67834	0
0.0800	543.451	-13.7683	17.6764	-2.11122	-3.80837	1.54737	38.4639	-3.16606	3.19426	0
0.0807	480.905	-18.9669	28.0649	-0.257465	0.776227	1.85429	86.0661	-0.712363	4.11464	0
0.0813	360.963	-20.4792	27.1379	-1.18434	3.20194	0.639409	113.225	-5.30315	3.19426	-0.311877
0.0820	141.83	-19.8806	19.4984	-2.67764	1.06731	-0.588256	117.195	-13.5349	2.27388	-0.623754
0.0827	-33.6252	-16.2258	16.4618	-1.4933	0.776227	2.1612	115.055	-17.8091	4.11464	-0.311877
0.0833	-121.526	-12.8546	12.1785	-2.11122	0.776227	4.60374	111.704	-21.173	5.63056	0
0.0840	-278.658	-9.79851	5.46594	-1.18434	1.98908	5.5117	122.686	-27.8811	4.41241	-0.311877
0.0847	-441.931	-4.91501	1.50233	1.85375	4.12371	6.73937	124.517	-31.5419	2.89649	-0.311877
0.0853	-462.087	-2.17394	-4.89058	1.28733	-0.145543	5.5117	84.2357	-37.0429	0.46019	-0.311877
0.0860	-407.167	-1.26026	-9.49347	0.360451	-2.59551	3.37608	36.0145	-41.9107	-1.0828	-0.311877
0.0867	-362.301	0.567116	-7.63953	2.16271	1.06731	4.60374	3.98367	-35.816	0.13535	-0.311877
0.0873	-311.64	1.4808	-7.0322	3.08958	2.59551	4.60374	-21.6545	-30.0182	0.13535	-0.311877
0.0880	-252.759	1.79587	-6.74452	4.01646	5.04548	3.08195	-30.8061	-26.3574	0.13535	-0.311877
0.0887	-206.357	1.79587	-2.14163	6.43663	9.60581	3.37608	-28.3702	-16.8988	1.97611	0
0.0893	-168.225	-4.59994	-1.5343	2.78062	7.78653	0.639409	-41.8016	-10.171	0.75796	0
0.0900	-122.418	-10.4286	-1.24662	-0.875382	5.04548	0.332493	-54.0083	-8.6473	-1.0828	0
0.0907	-81.8593	-8.2862	1.50233	0.051493	5.33656	5.81862	-44.5471	-8.05366	-0.78503	0
0.0913	-65.0715	-5.54514	1.50233	0.051493	5.33656	9.48883	-28.6797	-7.12363	-0.46019	0
0.0920	-50.1159	-0.945193	3.64396	2.47167	7.47119	11.0106	-10.3629	-3.16606	1.97611	-0.311877
0.0927	-32.3872	0.252052	3.64396	3.08958	6.25833	8.87499	3.0685	-0.118727	2.89649	0
0.0933	-31.1987	-4.59994	-1.85394	-2.9866	-0.460885	3.08195	2.15333	-3.16606	-0.16242	0
0.0940	-19.6106	-6.45882	-1.85394	-5.1493	-1.98908	0.933537	-3.04158	-4.37312	-2.00318	0
0.0947	12.1328	-7.65607	3.64396	-3.91347	0.776227	1.24045	-5.18146	-1.02897	-2.00318	0
0.0953	26.197	-7.97113	7.00024	-2.11122	3.80837	1.54737	-3.64721	3.24521	-1.67834	0
0.0960	14.2622	-5.23007	10.3565	1.85375	8.7083	2.77503	-0.296083	6.29254	0.13535	0
0.0967	-3.71412	-6.14376	9.74919	0.66941	10.5276	1.24045	-2.43596	0.197879	-0.16242	0
0.0973	-0.0495217	-10.4286	5.78559	-4.53139	5.94299	-1.49622	-4.87192	-8.35048	-2.59872	0
0.0980	43.5791	-11.9409	8.21489	-3.91347	3.51728	-0.895172	-1.52079	-3.77948	-2.89649	0
0.0987	94.2397	-9.19988	11.8908	-1.4933	2.59551	0.639409	-0.296083	-0.415545	-2.30095	-0.311877
0.0993	136.036	-1.85888	10.6762	-0.566424	1.06731	2.1612	-0.605625	-10.7844	-1.38057	-0.311877
0.1000	142.177	4.85199	8.82222	0.360451	-0.460885	3.08195	0.619084	-22.0833	0.13535	-0.311877
0.1007	45.4114	2.70955	4.85861	-2.67764	-6.54942	0.0255764	-2.43596	-27.8811	-0.46019	-0.311877
0.1013	-55.6128	-1.26026	-0.639291	-6.07618	-12.3469	-3.0308	-6.39271	-27.5843	-2.00318	-0.311877
0.1020	-46.4513	-1.85888	-2.46127	-5.1493	-12.9776	-3.0308	-5.78709	-20.243	-1.38057	-0.311877
0.1027	-37.8841	-2.77257	-1.24662	-3.60451	-11.134	-2.72388	-2.73204	-15.3752	0.13535	-0.311877
0.1033	-47.3427	0.252052	2.42931	-1.18434	-7.78653	-0.28134	2.75896	-12.3081	2.59872	0
0.1040	14.2622	1.79587	3.32431	-0.875382	-6.25833	1.54737	5.50446	-7.12363	3.81687	0
0.1047	46.0056	-2.48901	-3.67592	-6.38514	-9.92116	-1.80313	1.22471	-8.9639	1.3535	0
0.1053	-26.5931	-2.77257	-7.63953	-7.26052	-12.0558	-4.85951	-1.52079	-15.3752	-1.0828	-0.935631
0.1060	-91.6151	-0.0315064	-6.74452	-3.60451	-10.5276	-4.85951	-1.21125	-13.8515	-2.00318	-0.623754
0.1067	-81.5622	1.4808	-7.95918	-1.4933	-8.99939	-3.64463	-2.43596	-5.59997	-2.00318	0
0.1073	-37.8841	4.85199	-8.24686	1.54479	-5.33656	-1.49622	-0.296083	-1.32579	-1.38057	-0.311877
0.1080	17.3326	5.13555	-8.85418	1.85375	-1.38266	-2.41697	1.53425	-2.55263	-1.0828	0
0.1087	39.3202	1.4808	-11.3155	-1.18434	-0.75197	-3.93876	1.53425	-4.37312	-0.16242	0.311877
0.1093	-25.4046	1.79587	-10.7081	-2.42017	-0.75197	-3.33771	4.58929	-4.37312	2.89649	0
0.1100	-145.94	1.79587	-9.17383	-3.60451	-0.75197	-2.41697	7.33479	-3.16606	4.71018	0
0.1107	-221.609	0.882181	-4.89058	-2.67764	0.460885	-0.28134	8.85559	2.01836	6.84871	-0.311877
0.1113	-205.763	-0.945193	2.10966	-1.80226	1.67374	2.1612	9.47467	12.0904	9.31207	-0.311877
0.1120	-142.276	-7.37251	3.32431	-6.07618	-2.28017	0.332493	5.19492	17.2946	8.3917	-0.311877
0.1127	-77.2538	-11.9409	1.50233	-8.49635	-8.07762	-1.80313	0.619084	11.7936	5.33279	0
0.1133	-108.403	-10.4286	3.03663	-6.38514	-9.60581	-1.49622	-0.605625	11.4967	3.19426	0
0.1140	-272.27	-9.79851	7.00024	-3.29556	-11.4494	-0.588256	0.0134583	24.0027	2.59872	-0.311877
0.1147	-326.893	-8.88482	9.14186	-0.875382	-14.4815	0.639409	1.53425	28.5737	3.49203	0
0.1153	-126.082	-6.74238	5.78559	-2.42017	-15.1122	-0.28134	1.22471	15.7511	4.41241	0
0.1160	107.66	-7.05744	-0.639291	-7.56948	-15.1122	-2.72388	-2.43596	0.197879	3.81687	-0.311877
0.1167	238.298	-7.97113	-2.78092	-8.1874	-13.2686	-3.0308	-3.04158	-3.77948	3.49203	-0.311877
0.1173	300.547	-7.37251	-3.0686	-6.07618	-10.2122	-2.11005	-2.12642	-0.415545	4.11464	0
0.1180	306.044	-3.4027	-3.67592	-4.84035	-7.78653	-0.588256	-1.21125	2.01836	6.25317	0
0.1187	280.986	-0.0315064	-1.85394	-2.9866	-5.33656	1.54737	2.15333	5.99572	8.98724	0
0.1193	159.856	-3.08763	-3.0686	-5.45826	-4.73014	0.0255764	1.22471	7.22257	8.3917	-0.311877
0.1200	-36.3489	-8.2862	-6.1372	-8.49635	-4.73014	-1.80313	-3.35113	6.60915	6.84871	-0.311877
0.1207	-59.2774	-12.8546	0.575362	-7.56948	-2.28017	-0.28134	-2.12642	15.1575	7.76909	-0.311877
0.1213	71.6579	-17.4231	7.60757	-6.38514	-2.28017	0.933537	0.928625	24.6161	8.68946	-0.311877
0.1220	151.635	-14.682	8.82222	-3.60451	-3.80837	3.08195	3.36458	19.7285	9.90761	-0.311877
0.1227	181.844	-7.97113	6.68059	-2.42017	-6.25833	2.46812	3.0685	3.56182	8.06686	-0.311877
0.1233	178.773	-6.45882	-0.0319646	-5.76722	-10.8429	-2.72388	-2.73204	-12.9215	3.81687	-0.311877
0.1240	119.892	-4.59994	-2.78092	-5.76722	-10.5276	-3.93876	-5.47754	-16.8988	1.97611	0
0.1247	50.314	-3.08763	0.895008	-2.11122	-8.68404	-1.80313	-3.35113	-9.87414	2.27388	0
0.1253	13.3708	-1.85888	6.39291	1.54479	-8.68404	-0.895172	-1.21125	-1.32579	2.27388	-0.311877
0.1260	7.27969	1.4808	8.53454	4.63437	-8.07762	-0.588256	0.0134583	5.08548	2.59872	-0.311877
0.1267	31.991	3.62324	2.71699	1.54479	-9.60581	-1.20209	-1.21125	2.63179	1.97611	0
0.1273	80.8194	2.70955	-2.46127	-1.80226	-11.134	-2.11005	-3.35113	-3.77948	1.3535	-0.311877
0.1280	126.28	1.19725	0.287681	-0.875382	-10.5276	-1.80313	-2.12642	-4.37312	0.75796	-0.311877
0.1287	168.423	-0.346571	2.71699	0.978368	-10.2122	-1.49622	-0.296083	-4.0763	-0.46019	-0.311877
0.1293	177.238	0.252052	2.71699	3.08958	-9.60581	-1.20209	0.928625	-6.21339	-0.46019	-0.311877
0.1300	104.936	-0.661635	3.64396	4.01646	-9.60581	-1.20209	1.22471	-4.37312	0.13535	0
0.1307	46.0056	-4.59994	2.42931	1.54479	-11.7404	-2.41697	-0.296083	0.197879	-1.0828	0
0.1313	73.7873	-5.54514	0.575362	0.360451	-13.2686	-2.41697	-1.81688	3.56182	-2.00318	-0.311877
0.1320	112.86	-4.91501	0.895008	0.66941	-12.6622	-2.41697	-2.73204	4.47206	-2.00318	-0.311877
0.1327	148.565	-4.91501	-0.639291	0.978368	-12.3469	-2.72388	-4.26629	3.24521	-2.00318	-0.311877
0.1333	150.397	-3.08763	-2.14163	1.85375	-10.8429	-1.49622	-4.56238	3.85863	-2.59872	-0.311877
0.1340	27.0884	-1.85888	-1.24662	2.16271	-9.31473	-0.895172	-4.26629	5.67912	-2.89649	-0.311877
0.1347	-119.694	-4.91501	-3.38824	-1.18434	-12.6622	-3.64463	-7.01179	5.08548	-4.43948	-0.311877
0.1353	-120.288	-5.82869	-6.1372	-3.29556	-15.1122	-6.07438	-8.84213	1.42473	-5.65763	-0.623754
0.1360	-30.2577	-0.945193	-5.81755	-0.566424	-11.7404	-3.93876	-5.78709	-0.118727	-4.14171	-0.311877
0.1367	-3.417	3.30818	-6.42488	1.28733	-8.99939	0.0255764	-3.35113	-1.93921	-2.59872	-0.311877
0.1373	-41.5487	3.30818	-7.63953	-1.18434	-9.60581	1.24045	-4.56238	-8.6473	-1.67834	-0.311877
0.1380	-69.6275	0.882181	-10.7081	-3.91347	-8.99939	0.332493	-5.18146	-9.26072	-2.30095	-0.311877
0.1387	-113.603	0.882181	-11.6031	-3.91347	-6.86476	0.639409	-2.43596	-2.84945	-1.67834	-0.311877
0.1393	-134.352	0.567116	-9.17383	-3.91347	-5.02122	2.1612	-0.605625	2.01836	0.46019	-0.311877
0.1400	-58.3365	-1.57532	-7.0322	-5.45826	-5.02122	3.08195	-2.12642	2.94839	1.05573	-0.311877
0.1407	-14.7079	0.567116	-5.21022	-4.84035	-3.20194	3.98991	-2.12642	1.10812	2.89649	-0.311877
0.1413	-60.1688	3.62324	-3.67592	-4.84035	-1.38266	4.60374	-0.901709	-2.55263	6.25317	0
0.1420	-73.5892	3.62324	-3.0686	-7.26052	-1.38266	4.91066	-1.52079	-6.51021	7.47132	0
0.1427	-23.5723	5.13555	-0.319646	-7.56948	-1.06731	7.04628	0.0134583	-4.0763	8.3917	-0.311877
0.1433	46.3523	7.59305	-0.0319646	-7.56948	-1.67374	7.3532	0.619084	-0.415545	9.31207	-0.311877
0.1440	110.433	7.90812	-6.1372	-10.3501	-3.51728	5.21758	-2.12642	-5.59997	7.76909	0
0.1447	159.559	10.0191	-8.5665	-10.3501	-2.59551	5.5117	-0.901709	-8.05366	8.3917	0
0.1453	169.612	12.7916	-6.1372	-7.87844	-0.145543	7.3532	1.53425	-2.55263	10.2054	0
0.1460	172.979	10.0191	-3.38824	-6.6941	0.145543	6.73937	0.309542	-0.118727	8.98724	0
0.1467	150.992	1.4808	3.32431	-6.38514	-1.38266	5.21758	-1.21125	1.72154	6.55094	-0.311877
0.1473	-78.789	-8.56975	6.68059	-8.1874	-3.80837	1.54737	-5.18146	5.08548	3.49203	-0.311877
0.1480	-293.614	-15.3121	10.0369	-6.95156	-3.51728	-0.588256	-6.09663	13.0204	1.67834	0
0.1487	-155.102	-16.8244	21.0327	-0.257465	1.38266	1.54737	-0.605625	28.5737	1.3535	0
0.1493	19.7591	-17.7381	25.6036	1.54479	3.51728	1.54737	0.619084	36.2118	0.13535	-0.311877
0.1500	-1.58469	-17.1395	21.0327	0.360451	2.28017	0.0255764	-1.52079	30.4139	-1.67834	-0.311877
0.1507	-8.9139	-12.5396	13.3932	-0.875382	1.98908	-1.20209	-2.73204	14.8409	-2.59872	-0.311877
0.1513	31.6939	-6.14376	5.46594	-2.42017	1.67374	-2.41697	-4.56238	-3.16606	-2.30095	-0.311877
0.1520	18.2735	2.70955	4.25129	0.051493	3.80837	-0.588256	-3.04158	-12.3081	-1.38057	-0.311877
0.1527	-2.82274	9.10536	4.85861	1.85375	6.86476	1.54737	-0.296083	-17.5123	-0.16242	0
0.1533	29.2178	10.9327	1.21465	0.360451	7.47119	1.24045	-0.605625	-21.4698	-0.16242	0
0.1540	66.1609	10.9327	-3.67592	-1.80226	7.1801	1.54737	-1.52079	-18.7193	-0.46019	-0.311877
0.1547	50.6111	9.10536	-8.24686	-5.45826	6.25833	1.24045	-3.95675	-12.3081	-0.78503	-0.311877
0.1553	-16.2431	7.27799	-8.24686	-7.26052	7.47119	1.24045	-4.56238	-6.51021	0.13535	-0.311877
0.1560	-87.3562	8.19168	-3.67592	-3.91347	10.8429	3.68299	-2.12642	1.42473	2.89649	0
0.1567	-126.082	8.50674	-0.639291	-2.67764	13.8993	5.81862	0.0134583	5.99572	4.41241	0
0.1573	-120.585	6.3643	-2.78092	-5.45826	14.7968	5.5117	0.928625	3.24521	5.03502	-0.311877
0.1580	-96.1711	3.30818	-7.35185	-9.42323	13.8993	3.98991	-0.605625	2.01836	5.33279	-0.311877
0.1587	-112.365	2.11093	-8.85418	-11.5344	13.2686	3.98991	-2.12642	5.67912	5.63056	0
0.1593	-163.322	4.53693	-4.28325	-9.73219	15.7186	5.81862	0.0134583	8.74624	6.84871	-0.311877
0.1600	-143.167	5.45062	0.895008	-6.6941	18.1686	6.12554	1.84379	9.95329	7.17355	-0.311877
0.1607	-42.4896	3.93831	3.03663	-6.6941	18.1686	4.60374	0.309542	8.74624	6.55094	-0.311877
0.1613	0.247608	-0.0315064	3.03663	-8.80531	16.0339	2.1612	-2.73204	3.56182	5.33279	0
0.1620	-25.7017	-3.68625	2.71699	-9.42323	13.8993	0.332493	-5.18146	-2.23603	3.49203	-0.311877
0.1627	-34.5661	-3.08763	5.78559	-8.1874	14.5057	0.933537	-4.56238	-3.46288	3.81687	-0.311877
0.1633	-32.09	-0.0315064	9.42955	-5.45826	17.2468	2.46812	-0.901709	-3.46288	5.63056	-0.311877
0.1640	-33.6252	2.70955	9.74919	-3.29556	18.1686	2.46812	0.928625	-4.0763	5.63056	-0.311877
0.1647	-25.9989	0.882181	5.46594	-4.53139	15.1122	-0.895172	-3.04158	-5.59997	3.49203	-0.311877
0.1653	-9.80529	-0.661635	1.21465	-4.22243	12.3711	-4.55259	-5.18146	-8.6473	0.75796	-0.935631
0.1660	-0.643782	3.30818	1.21465	0.051493	13.2686	-3.64463	-0.605625	-9.26072	0.75796	-0.935631
0.1667	-7.0816	6.3643	-0.0319646	0.978368	15.4033	-1.49622	0.0134583	-6.21339	1.67834	0
0.1673	-16.2431	5.45062	-3.0686	-1.18434	15.1122	-1.49622	-3.35113	-4.0763	0.75796	0
0.1680	-20.7991	3.93831	-4.6029	-2.42017	13.2686	-2.11005	-4.56238	-3.77948	-0.46019	-0.311877
0.1687	-21.0962	2.70955	-6.74452	-5.1493	12.3711	-2.72388	-4.87192	-5.91657	-0.16242	-0.311877
0.1693	-19.9077	3.93831	-6.42488	-6.38514	13.2686	-1.49622	-2.43596	-9.87414	1.97611	0
0.1700	-15.5993	7.27799	-3.38824	-4.53139	14.7968	1.24045	3.0685	-12.6247	4.71018	0
0.1707	10.6472	8.19168	-1.5343	-3.91347	15.4033	3.37608	6.11009	-11.101	5.9554	-0.311877
0.1713	55.1671	6.08074	-2.78092	-4.84035	15.1122	2.77503	4.27975	-8.05366	5.63056	0
0.1720	81.7107	3.93831	-5.21022	-6.07618	14.5057	1.85429	0.309542	-7.73705	4.71018	0
0.1727	99.4395	3.62324	-7.63953	-6.6941	14.1904	1.85429	-1.21125	-6.51021	5.03502	-0.311877
0.1733	142.177	3.93831	-8.85418	-7.26052	14.1904	3.08195	-0.605625	-2.23603	6.84871	-0.311877
0.1740	210.814	6.3643	-7.95918	-7.56948	15.7186	6.43245	2.15333	0.811302	9.31207	-0.311877
0.1747	286.829	9.73549	-7.95918	-8.1874	16.9315	8.87499	5.50446	0.811302	12.6688	-0.311877
0.1753	336.252	7.90812	-11.3155	-13.3882	15.1122	8.26116	4.58929	-0.415545	14.7802	-0.311877
0.1760	310.006	4.85199	-10.3885	-15.1904	13.2686	8.26116	2.44942	2.01836	14.7802	-0.311877
0.1767	160.153	5.45062	-6.1372	-11.5344	14.5057	9.48883	3.98367	8.42963	14.1847	-0.311877
0.1773	-32.7338	5.45062	-4.6029	-10.3501	15.1122	9.48883	5.814	13.9307	14.1847	-0.311877
0.1780	-152.972	4.85199	-4.28325	-10.0411	14.5057	8.87499	5.814	16.3646	13.5621	-0.311877
0.1787	-213.389	1.4808	-3.99557	-8.1874	12.6622	6.12554	4.58929	15.7511	10.828	-1.24751
0.1793	-198.136	-1.85888	-3.38824	-8.1874	11.134	4.29683	2.44942	15.1575	9.31207	-0.935631
0.1800	-152.329	0.252052	-0.639291	-8.80531	11.7404	6.43245	1.53425	16.978	9.90761	-0.311877
0.1807	-188.331	1.4808	0.895008	-8.49635	12.0558	7.04628	2.44942	19.4119	10.828	-0.311877
0.1813	-215.221	0.567116	1.82198	-8.1874	11.4494	6.12554	4.27975	24.0027	12.0461	0
0.1820	-143.167	1.79587	2.71699	-7.87844	10.8429	6.12554	5.19492	26.1398	13.2643	0
0.1827	-91.318	3.30818	1.21465	-7.56948	10.2365	5.81862	4.27975	20.6387	12.3439	-0.311877
0.1833	-107.462	4.85199	-0.926972	-8.1874	8.99939	4.91066	2.44942	13.0204	10.5302	-0.311877
0.1840	-130.391	6.67937	-2.78092	-10.3501	7.1801	3.37608	0.928625	7.51939	10.2054	-0.311877
0.1847	-181.943	5.76568	-2.46127	-9.73219	6.86476	2.1612	0.309542	8.13281	9.90761	-0.311877
0.1853	-301.587	-1.57532	5.78559	-5.76722	9.31473	3.08195	1.84379	13.614	9.31207	-0.311877
0.1860	-462.087	-13.7683	16.7494	-3.29556	10.5276	3.68299	3.98367	17.5914	9.31207	-0.311877
0.1867	-488.63	-22.9367	22.567	-3.29556	9.31473	2.46812	4.27975	16.6812	8.06686	-0.311877
0.1873	-321.693	-25.0476	24.1013	-2.9866	8.39296	1.54737	3.67413	11.4967	6.55094	-0.311877
0.1880	-131.282	-23.8504	20.745	-3.60451	6.25833	0.0255764	2.15333	4.76888	4.41241	-0.311877
0.1887	20.9972	-20.7943	14.0324	-4.53139	4.73014	-0.895172	0.0134583	1.72154	3.81687	-0.311877
0.1893	139.403	-14.682	10.9638	-0.875382	7.1801	0.639409	0.309542	4.47206	4.71018	-0.311877
0.1900	188.529	-13.1697	6.68059	0.360451	6.25833	0.0255764	-0.605625	7.51939	3.19426	-0.311877
0.1907	185.162	-12.256	-0.926972	-1.4933	3.51728	-2.72388	-3.64721	6.90596	0.46019	-0.311877
0.1913	194.323	-4.00132	-5.21022	0.360451	3.80837	-2.72388	-4.26629	3.56182	-0.78503	-0.311877
0.1920	203.782	3.93831	-9.17383	0.360451	3.20194	-2.72388	-5.18146	-6.51021	-1.0828	-0.311877
0.1927	167.482	9.42043	-9.78116	0.978368	3.51728	-1.80313	-3.64721	-18.1059	0.46019	-0.311877
0.1933	113.454	11.2478	-7.35185	2.78062	4.73014	-1.20209	-2.43596	-22.3801	1.3535	-0.311877
0.1940	73.7873	8.19168	-7.0322	2.16271	4.12371	-2.72388	-6.09663	-19.3327	-0.16242	-0.311877
0.1947	51.5025	7.27799	-7.63953	-0.257465	2.91085	-3.64463	-10.3629	-15.3752	-1.67834	0
0.1953	45.1142	4.85199	-10.9958	-2.42017	0.145543	-6.07438	-14.0236	-13.5349	-4.14171	-0.623754
0.1960	49.9674	1.19725	-9.17383	2.47167	1.06731	-5.47334	-12.8123	-2.55263	-4.14171	-1.55939
0.1967	50.6111	-0.0315064	-0.639291	6.43663	5.04548	-1.49622	-8.22304	15.4543	-0.46019	-0.623754
0.1973	45.4114	-3.08763	1.50233	1.54479	4.73014	-1.49622	-8.53259	22.479	0.75796	0
0.1980	51.5025	-3.68625	-1.5343	-1.18434	4.12371	-1.49622	-8.22304	16.3646	1.05573	-0.311877
0.1987	49.3731	-3.4027	-4.6029	-3.60451	3.20194	-0.895172	-6.39271	7.51939	2.89649	-0.311877
0.1993	32.8824	-4.91501	-6.42488	-7.56948	1.98908	-0.588256	-5.47754	3.85863	4.71018	0
0.2000	30.1587	-0.346571	-4.28325	-6.38514	4.12371	3.08195	-2.12642	4.76888	7.76909	0.311877
0.2007	39.6173	3.93831	-2.14163	-5.45826	6.57368	5.5117	0.928625	5.99572	11.7484	0
0.2013	51.5025	0.567116	-3.0686	-7.56948	5.33656	3.98991	1.53425	5.99572	12.6688	-0.311877
0.2020	32.8824	-3.4027	-5.21022	-8.80531	3.80837	1.85429	2.15333	5.3823	11.1258	-0.311877
0.2027	-7.37873	-5.54514	-5.81755	-10.0411	2.59551	1.54737	3.36458	5.99572	10.828	-0.311877
0.2033	20.9972	-4.59994	-3.67592	-8.1874	3.51728	3.98991	6.41963	7.81621	11.7484	0
0.2040	67.1019	0.252052	-1.85394	-5.76722	6.57368	7.04628	10.3898	7.81621	13.5621	0
0.2047	35.9527	1.4808	-4.28325	-6.95156	5.33656	7.04628	10.0803	5.3823	12.9665	0
0.2053	-15.3022	-0.661635	-5.21022	-9.11427	2.28017	5.81862	7.33479	3.85863	10.828	-0.311877
0.2060	-26.296	-4.00132	-3.38824	-9.11427	0.460885	4.29683	3.36458	3.85863	7.76909	-0.311877
0.2067	3.61508	-3.68625	-1.85394	-6.95156	0.460885	3.37608	0.309542	4.47206	5.9554	0
0.2073	49.076	2.11093	-0.639291	-2.9866	2.91085	4.29683	0.309542	5.3823	6.55094	-0.311877
0.2080	70.1227	3.62324	-2.78092	-2.11122	2.59551	3.08195	-1.21125	3.24521	6.55094	-0.311877
0.2087	61.605	1.19725	-8.24686	-4.84035	-1.38266	-0.28134	-5.18146	-0.415545	4.71018	-0.311877
0.2093	67.399	2.70955	-11.9228	-5.45826	-2.8866	-1.80313	-8.22304	-2.23603	3.49203	-0.311877
0.2100	106.125	4.53693	-13.1374	-3.91347	-1.98908	-2.72388	-9.44775	-2.23603	3.49203	0
0.2107	161.094	7.27799	-12.5301	-1.18434	-0.460885	-0.895172	-6.09663	-0.415545	4.41241	0
0.2113	217.252	9.10536	-11.6031	-0.566424	0.460885	0.639409	-2.12642	2.33497	6.55094	-0.311877
0.2120	216.014	5.45062	-11.3155	-2.42017	-0.460885	-1.49622	-1.81688	4.15545	8.3917	-0.311877
0.2127	131.183	-1.85888	-9.17383	-4.22243	-1.06731	-2.72388	-0.901709	9.04305	8.68946	0
0.2133	56.108	-7.37251	-3.99557	-3.29556	-0.145543	-2.11005	2.44942	16.3646	8.98724	0
0.2140	28.6235	-8.88482	3.64396	8.9083	2.91085	0.332493	6.41963	23.0924	9.90761	0
0.2147	14.2622	-9.48344	9.42955	25.695	5.65191	2.77503	7.94042	27.05	11.1258	-0.311877
0.2153	53.0377	-11.9409	6.39291	30.5869	4.43905	1.85429	4.58929	26.4366	10.5302	0
0.2160	122.021	-11.3423	-0.0319646	29.351	3.20194	0.933537	2.15333	21.8656	9.31207	-0.311877
0.2167	97.3101	-6.74238	-4.89058	30.2779	3.20194	0.639409	1.22471	16.978	9.31207	-0.311877
0.2173	4.8036	-2.17394	-8.24686	31.7712	3.20194	0.332493	0.0134583	14.2275	9.31207	-0.311877
0.2180	-34.8633	0.252052	-5.81755	32.6981	4.73014	0.933537	0.619084	16.0677	9.90761	0
0.2187	-67.7952	-1.26026	-1.5343	33.007	4.43905	0.933537	1.84379	19.4119	10.2054	-0.311877
0.2193	-153.864	-4.00132	-2.46127	31.1533	3.20194	0.639409	0.928625	18.2048	9.31207	-0.311877
0.2200	-194.769	-4.59994	-5.81755	26.8794	2.28017	0.933537	-1.21125	8.42963	8.06686	-0.311877
0.2207	-136.779	-2.48901	-7.63953	32.0802	2.59551	0.639409	-2.73204	-4.0763	8.06686	-0.311877
0.2213	-58.3365	3.30818	-6.74452	23.2234	5.04548	1.85429	-0.296083	-11.7144	11.1258	-0.311877
0.2220	-40.3602	6.99443	-6.74452	-48.455	5.94299	2.77503	2.15333	-16.2854	15.1051	-0.311877
0.2227	-76.3624	4.22186	-9.17383	-106.745	3.51728	1.24045	0.309542	-17.5123	16.0254	-0.311877
0.2233	-112.959	-0.0315064	-9.17383	-71.9873	1.98908	0.332493	-0.605625	-12.9215	12.6688	-0.311877
0.2240	-138.314	-2.48901	-7.95918	-22.8629	1.38266	0.332493	0.309542	-9.87414	6.55094	0
0.2247	-134.947	-0.945193	-5.4979	-10.6591	1.98908	2.1612	1.84379	-7.12363	1.67834	0
0.2253	-90.6742	0.252052	-3.0686	-5.1493	2.91085	3.08195	3.67413	-5.59997	-4.43948	-0.935631
0.2260	-45.2133	-1.85888	-4.6029	-1.18434	2.28017	1.85429	3.67413	-6.21339	-12.371	-0.935631
0.2267	-22.6314	-2.77257	-6.74452	-6.95156	1.06731	0.0255764	0.619084	-4.37312	-17.8662	-0.311877
0.2273	-6.14069	-3.08763	-7.63953	-17.3532	-0.460885	-2.72388	-4.87192	-2.84945	-17.8662	-0.311877
0.2280	32.5853	-1.85888	-5.21022	-17.9711	-0.145543	-2.72388	-6.70225	-2.55263	-24.2818	-0.311877
0.2287	82.3545	1.79587	-2.46127	-9.42323	2.28017	-0.895172	-4.26629	0.197879	-34.6496	0
0.2293	98.2015	1.4808	-3.99557	-18.589	1.98908	-1.80313	-2.43596	2.01836	-14.2117	0
0.2300	78.9871	-1.26026	-7.35185	-42.0698	0.145543	-3.93876	-0.901709	1.10812	-18.164	0
0.2307	52.1463	-2.77257	-8.85418	-44.49	-1.67374	-5.47334	-0.901709	1.42473	-37.3836	-0.311877
0.2313	33.8233	-2.17394	-7.63953	-20.3912	-3.80837	-2.41697	0.0134583	4.76888	31.8884	0
0.2320	35.3585	0.252052	-3.67592	18.0741	-4.12371	3.08195	2.15333	8.13281	107.251	-0.311877
0.2327	24.0675	-0.0315064	-3.99557	67.8163	-2.28017	3.68299	0.619084	6.90596	107.576	-0.311877
0.2333	-44.0248	-2.77257	-6.42488	132.183	-0.75197	1.85429	-2.43596	2.94839	76.1208	-0.311877
0.2340	-109.294	-5.23007	-6.74452	202.368	-0.460885	1.85429	-2.43596	-0.118727	9.31207	-0.311877
0.2347	-97.7062	-4.91501	-6.42488	239.597	-0.75197	1.85429	-1.52079	-2.55263	-75.2275	-0.311877
0.2353	-51.6511	-0.945193	-3.67592	231.667	1.06731	2.1612	0.619084	-4.0763	-135.648	-0.311877
0.2360	-28.1283	0.882181	-1.5343	211.224	1.67374	1.24045	1.53425	-4.0763	-148.777	-0.311877
0.2367	-27.2369	-1.26026	-3.38824	199.948	-2.59551	-2.72388	-1.81688	-4.98654	-2.89649	-0.311877
0.2373	-38.825	-3.08763	-4.89058	195.056	-6.86476	-5.16642	-4.87192	-5.59997	177.444	-0.311877
0.2380	-59.8717	-4.31638	-4.6029	180.689	-11.134	-4.85951	-5.18146	-5.30315	135.025	0
0.2387	-70.2712	-4.31638	-2.78092	156.59	-12.6622	-3.93876	-4.26629	-1.64239	59.3374	0
0.2393	-59.5746	-2.17394	-0.0319646	120.597	-10.2122	-3.0308	-3.04158	2.94839	63.9122	-0.311877
0.2400	-49.4721	-3.08763	-0.926972	-9.73219	-8.99939	-3.64463	-3.64721	3.85863	21.4936	-0.311877
0.2407	-47.6398	-6.45882	-3.38824	-238.619	-7.78653	-3.93876	-4.87192	4.47206	-14.8073	0
0.2413	-46.4513	-7.65607	-4.6029	-381.1	-3.20194	-2.72388	-5.78709	6.60915	-39.847	0
0.2420	-43.0839	-6.45882	-4.6029	-342.686	1.98908	0.0255764	-4.87192	7.81621	-110.012	0
0.2427	-32.7338	-2.77257	-2.46127	-244.077	6.25833	3.98991	-1.81688	8.74624	-197.611	0
0.2433	-23.8694	-2.77257	-1.5343	-177.548	5.94299	3.98991	-2.73204	8.13281	-245.525	0
0.2440	-19.9077	-7.05744	-5.21022	-117.147	1.98908	0.933537	-7.01179	5.08548	-244.902	0
0.2447	-9.80529	-7.37251	-7.0322	-70.1335	0.776227	-0.895172	-7.92696	3.24521	-205.84	-0.311877
0.2453	9.11199	-4.59994	-4.6029	-57.9297	2.28017	0.639409	-4.56238	4.15545	-91.7131	-0.311877
0.2460	36.2499	-1.85888	0.895008	-29.866	3.51728	4.29683	0.0134583	8.42963	0.13535	0
0.2467	56.9994	-2.48901	1.50233	12.2553	0.776227	4.60374	-0.605625	10.2699	32.1862	0
0.2473	55.4643	-6.74238	-4.28325	17.4561	-4.73014	1.54737	-4.56238	6.90596	144.797	-0.311877
0.2480	45.4114	-6.74238	-4.28325	50.4117	-5.02122	1.54737	-3.95675	4.47206	248.854	-0.311877
0.2487	33.229	-3.4027	0.575362	165.447	-1.98908	1.85429	0.0134583	5.08548	179.88	-0.311877
0.2493	17.9268	-0.945193	3.32431	282.336	1.67374	2.1612	3.0685	5.67912	34.6225	0
0.2500	12.1328	-0.346571	0.895008	338.155	2.91085	1.54737	3.67413	3.56182	-50.5126	-0.311877
0.2507	8.4682	-2.17394	-4.28325	362.305	0.145543	-2.11005	-0.296083	-0.415545	-120.705	-0.311877
0.2513	0.544738	-2.48901	-5.81755	353.448	0.460885	-3.93876	-3.35113	-2.55263	-223.842	-0.311877
0.2520	1.48565	-0.945193	-4.89058	299.123	3.80837	-3.33771	-2.43596	-1.64239	-232.694	0
0.2527	9.40912	-0.0315064	-4.89058	257.311	4.43905	-3.33771	-1.52079	-1.64239	-158.549	0
0.2533	15.5003	1.19725	-5.81755	200.565	2.59551	-2.41697	-0.901709	-3.77948	-48.6718	0
0.2540	31.991	1.79587	-5.4979	24.7682	-0.460885	-0.588256	0.0134583	-4.37312	203.999	0.311877
0.2547	64.6258	-1.26026	-7.0322	-189.185	-3.20194	0.639409	-2.12642	-3.16606	372.158	-0.311877
0.2553	90.8723	-4.00132	-9.17383	-283.778	-5.02122	0.639409	-3.95675	-2.84945	306.838	-1.24751
0.2560	92.4074	-2.17394	-7.95918	-320.081	-7.1801	0.933537	-1.52079	-3.46288	265.638	-0.623754
0.2567	88.7428	0.567116	-5.21022	-389.339	-6.54942	2.46812	0.928625	-1.64239	232.991	0.311877
0.2573	88.7428	-0.0315064	-4.6029	-401.285	0.145543	7.64733	2.75896	1.72154	120.678	-0.311877
0.2580	66.1609	-3.4027	-5.81755	-320.081	8.07762	14.668	5.50446	3.56182	0.46019	-0.311877
0.2587	66.7552	-4.00132	-4.6029	-218.176	14.1904	20.4739	8.5595	3.56182	-168.619	-0.311877
0.2593	97.6072	-3.08763	-2.46127	-187.95	15.4033	22.3026	10.3898	1.42473	-291.923	-0.311877
0.2600	-39.4192	-4.59994	-2.78092	-264.262	11.4494	17.4175	8.24996	0.811302	-231.475	-0.311877
0.2607	-275.043	-4.91501	0.575362	-306.023	8.07762	11.9314	5.50446	8.42963	-13.5891	-0.311877
0.2613	-258.255	-7.65607	5.17826	-229.144	5.33656	8.26116	3.36458	18.2048	244.902	-0.311877
0.2620	-58.6337	-11.6259	6.07327	-153.758	2.59551	7.04628	0.619084	21.2522	322.404	-0.311877
0.2627	65.8638	-11.3423	4.85861	-153.449	1.38266	7.95425	0.0134583	18.2048	187.514	-0.311877
0.2633	95.4778	-11.9409	0.287681	-171.472	-1.06731	5.81862	-2.43596	10.2699	53.8422	-0.311877
0.2640	62.1992	-7.65607	-1.5343	-170.236	-0.460885	4.91066	-2.43596	2.94839	39.8199	0
0.2647	3.61508	-1.57532	-0.926972	-157.414	1.38266	6.12554	1.53425	-1.02897	77.366	-0.311877
0.2653	-24.1666	-2.17394	-2.78092	-129.968	-0.145543	4.91066	1.22471	-1.93921	64.5348	-0.311877
0.2660	-21.4429	-3.4027	-4.6029	-85.7359	-0.75197	3.68299	-2.12642	-1.93921	0.13535	-0.311877
0.2667	-19.9077	-4.00132	-6.42488	-50.3087	-0.145543	3.37608	-5.47754	-6.21339	-28.8566	-0.311877
0.2673	-21.0962	-3.4027	-6.42488	-36.2511	0.776227	3.37608	-7.01179	-9.26072	-9.31207	0
0.2680	-24.7608	-3.08763	-3.38824	-31.4108	1.38266	3.68299	-6.70225	-5.91657	-2.00318	0
0.2687	-30.9015	-4.91501	-0.0319646	-28.6301	0.460885	2.46812	-6.09663	0.197879	0.46019	0
0.2693	2.07991	-6.45882	2.42931	-24.9741	-0.460885	-1.20209	-5.47754	4.15545	5.63056	0
0.2700	72.2521	-9.79851	2.10966	-13.0792	-1.98908	-6.07438	-7.01179	2.94839	-7.49839	0
0.2707	132.074	-12.256	1.21465	10.0926	-2.28017	-10.3584	-8.22304	0.197879	-11.1528	-0.311877
0.2713	177.882	-10.1136	0.895008	35.1183	-1.06731	-11.5733	-5.18146	-1.32579	35.8407	-0.311877
0.2720	219.975	-6.14376	-0.0319646	64.7268	1.38266	-9.43767	-0.296083	-0.712363	102.676	0
0.2727	241.666	-4.31638	-0.926972	117.559	3.80837	-8.51692	0.619084	2.63179	136.568	-0.311877
0.2733	257.81	-5.23007	-3.38824	177.033	2.59551	-9.13076	-1.52079	4.76888	158.847	-0.311877
0.2740	288.662	-6.45882	-3.99557	222.501	0.776227	-8.21001	-2.12642	5.67912	175.305	0
0.2747	214.478	-8.56975	0.895008	264.005	0.145543	-6.3813	-0.296083	12.407	130.152	-0.311877
0.2753	-3.417	-12.8546	6.07327	304.015	-2.28017	-5.47334	0.928625	20.6387	-6.25317	-0.311877
0.2760	-210.319	-14.9971	8.21489	342.429	-4.73014	-5.16642	0.619084	24.2995	-136.27	-0.311877
0.2767	-320.207	-16.5094	7.31988	395.879	-8.68404	-6.68822	-1.52079	23.6861	-130.477	-0.311877
0.2773	-324.763	-18.0532	6.39291	442.222	-12.3469	-7.91588	-3.64721	22.1624	5.33279	0
0.2780	-293.961	-15.9108	8.82222	432.799	-10.2122	-6.07438	-3.35113	19.7285	151.808	-0.311877
0.2787	-254.244	-14.3669	11.8908	400.152	-6.86476	-3.33771	-1.81688	14.8409	132.887	-0.311877
0.2793	-184.072	-14.3669	12.1785	393.716	-1.67374	-0.28134	-0.296083	6.90596	-37.7085	-0.311877
0.2800	-182.24	-14.682	9.74919	355.251	7.47119	0.639409	0.0134583	0.494697	-163.746	-0.311877
0.2807	-240.527	-16.2258	7.31988	180.689	12.6622	-1.49622	-1.52079	1.72154	-210.415	-0.311877
0.2813	-210.616	-15.5957	7.92721	-97.0129	11.134	-4.55259	-2.12642	5.08548	-247.366	-0.311877
0.2820	-98.3005	-11.0273	7.92721	-294.437	8.07762	-4.24567	-0.605625	2.63179	-182.343	0
0.2827	-19.9077	-4.91501	6.07327	-295.055	8.07762	0.639409	1.22471	-4.37312	-33.7292	0
0.2833	-22.0371	-2.17394	0.895008	-225.488	8.39296	2.1612	-0.605625	-14.4451	-37.3836	-0.311877
0.2840	-66.26	-0.346571	-3.38824	-244.386	6.86476	-2.41697	-3.95675	-22.3801	-51.433	-0.311877
0.2847	-77.8976	1.79587	-1.24662	-259.679	5.04548	-5.47334	-3.95675	-24.8338	142.659	0
0.2853	-61.1097	-0.0315064	1.21465	-162.924	2.28017	-6.68822	-3.64721	-22.3801	281.203	0
0.2860	-59.2774	-2.77257	0.575362	-24.9741	1.67374	-9.43767	-4.87192	-9.57733	166.156	-0.311877
0.2867	-47.3427	-4.91501	1.50233	92.533	1.67374	-5.78026	-4.26629	6.60915	-98.1287	-0.935631
0.2873	3.61508	-10.1136	4.25129	164.52	-3.20194	11.3175	-3.04158	8.13281	-300.45	-1.24751
0.2880	82.3545	-11.6259	5.46594	141.657	-8.68404	26.2669	-3.04158	2.94839	-285.507	-0.311877
0.2887	148.565	-9.48344	5.46594	107.466	-5.94299	31.152	-2.43596	3.24521	-225.682	0
0.2893	86.0191	-11.0273	3.96361	181.616	5.33656	30.2312	-2.73204	2.01836	-200.345	0
0.2900	-79.0861	-10.1136	5.46594	268.588	14.1904	22.3026	-2.73204	0.197879	-14.2117	0
0.2907	-114.197	-7.65607	9.42955	262.821	15.4033	12.5324	-2.12642	1.10812	148.452	-0.311877
0.2913	-22.0371	-10.4286	10.6762	202.059	14.7968	8.87499	-2.73204	1.42473	79.8023	-0.311877
0.2920	21.5914	-12.256	10.9638	87.3322	16.6404	9.18191	-1.52079	0.197879	11.7484	-0.311877
0.2927	23.1266	-14.682	9.14186	-78.0635	16.6404	7.04628	0.0134583	-1.02897	-100.565	-0.311877
0.2933	48.7788	-16.8244	7.60757	-237.383	18.4597	1.54737	2.44942	-0.118727	-293.141	-0.311877
0.2940	71.3607	-12.256	8.21489	-296.291	24.2571	-3.93876	7.02525	-0.415545	-285.805	-0.311877
0.2947	79.8784	-7.37251	5.17826	-211.43	29.4481	-11.2664	8.24996	-3.77948	-206.463	-0.311877
0.2953	87.8514	-4.91501	-1.24662	-80.8441	33.1109	-18.9009	8.85559	-8.05366	-238.811	0
0.2960	92.7046	-3.68625	-5.81755	18.9494	28.2353	-24.694	10.6859	-11.3978	-301.37	-0.311877
0.2967	92.4074	-2.48901	-6.42488	-22.245	20.5943	-28.0573	10.6859	-8.6473	-390.782	-0.311877
0.2973	20.9972	-2.77257	-3.38824	-214.211	25.7853	-31.1008	9.16513	-1.32579	-406.348	-0.311877
0.2980	-105.333	-7.37251	0.287681	-263.026	27.0224	-39.3492	5.19492	5.3823	-343.491	-0.311877
0.2987	-124.25	-12.256	3.32431	-100.669	15.7186	-45.7561	1.53425	10.2699	-289.784	-0.311877
0.2993	-72.054	-14.9971	3.64396	7.36351	4.43905	-47.5848	-1.52079	13.0204	-54.4919	-0.311877
0.3000	-64.4277	-16.8244	3.03663	33.316	-8.07762	-50.0273	-5.18146	14.2275	281.826	-0.311877
0.3007	-29.9606	-15.3121	5.17826	101.338	-21.8071	-51.8561	-7.01179	16.6812	380.685	-0.311877
0.3013	44.1733	-11.9409	6.39291	163.027	-25.47	-49.4135	-6.39271	16.3646	289.459	-0.311877
0.3020	108.601	-10.4286	5.17826	152.934	-16.6404	-43.3135	-2.43596	12.0904	274.49	-0.311877
0.3027	144.9	-11.0273	3.64396	117.559	-12.9776	-37.2136	-0.296083	6.60915	312.956	-0.311877
0.3033	92.4074	-11.0273	2.71699	127.6	-16.9315	-28.3514	-1.52079	-0.415545	283.639	-0.311877
0.3040	-0.0495217	-11.0273	2.71699	229.247	-20.9096	-16.7653	0.619084	-2.84945	237.268	-0.311877
0.3047	-25.4046	-10.4286	2.10966	351.595	-31.8981	-6.68822	0.928625	-1.32579	194.227	0
0.3053	-29.6635	-6.74238	2.10966	336.353	-33.7174	2.1612	-1.21125	-2.23603	163.421	-0.311877
0.3060	-49.175	-5.54514	-0.639291	172.759	-14.1904	8.56808	-3.64721	-5.91657	85.5953	-0.311877
0.3067	-49.4721	-7.97113	-3.99557	23.8413	7.1801	10.7037	-5.18146	-4.0763	-63.6415	-0.311877
0.3073	-31.1987	-6.14376	-1.5343	4.94333	18.4597	11.0106	-0.605625	2.94839	-135.052	-0.311877
0.3080	-13.4699	-4.59994	0.575362	42.4818	15.1122	9.18191	3.67413	4.76888	-117.348	-0.311877
0.3087	-0.990433	-4.00132	-0.0319646	21.7301	11.7404	5.5117	3.36458	-0.118727	-23.9569	-0.311877
0.3093	5.44738	-1.85888	-1.85394	46.4467	20.9096	-1.80313	3.0685	-6.51021	69.4074	0
0.3100	3.31795	-2.77257	-6.1372	201.132	32.8199	-11.8802	3.36458	-10.4876	4.11464	-0.311877
0.3107	3.61508	-3.68625	-7.35185	179.814	38.302	-19.2078	5.19492	-7.44024	-108.199	-0.311877
0.3113	16.0945	-3.68625	-5.21022	-102.471	34.9545	-19.8089	7.94042	-0.712363	-183.264	-0.311877
0.3120	35.9527	-3.68625	-3.0686	-229.144	19.6968	-10.9595	8.5595	1.72154	-251.318	0
0.3127	50.9083	-3.08763	-1.85394	-139.443	-3.80837	-2.72388	4.58929	-0.415545	-323.649	-0.311877
0.3133	55.1671	-3.08763	-0.639291	-103.089	-11.4494	2.1612	-1.21125	0.197879	-376.76	-0.311877
0.3140	56.9994	-2.17394	2.10966	-153.758	-11.134	10.3968	-1.81688	1.42473	-285.182	-0.311877
0.3147	61.9021	-0.945193	3.64396	-194.026	-30.9763	14.067	-0.605625	-1.93921	-129.855	-0.311877
0.3153	65.2696	-3.4027	-0.639291	-260.246	-53.2443	7.3532	-5.78709	-5.30315	20.6003	-0.311877
0.3160	71.6579	-5.82869	-2.78092	-418.33	-59.0418	0.933537	-11.5876	-4.68972	182.641	-0.623754
0.3167	69.5284	-4.59994	2.10966	-577.34	-62.7046	0.933537	-8.53259	-0.415545	238.784	-1.24751
0.3173	0.544738	-4.31638	4.25129	-689.029	-74.6149	1.85429	-8.53259	3.24521	235.13	-0.311877
0.3180	-108.106	-5.82869	1.50233	-678.06	-75.2213	4.91066	-14.6427	6.60915	244.28	0.311877
0.3187	-138.314	-8.56975	-2.46127	-443.046	-62.7046	11.9314	-17.0786	6.29254	238.189	-0.311877
0.3193	-82.7507	-10.4286	-5.81755	-142.172	-54.4815	16.8037	-20.4298	-1.32579	231.151	-1.24751
0.3200	-11.9347	-5.82869	-3.99557	90.9882	-56.9072	14.067	-27.1455	-4.98654	237.268	-0.311877
0.3207	46.6494	-0.945193	-1.85394	267.661	-66.0764	8.26116	-32.3404	-2.23603	148.154	-0.623754
0.3213	63.0906	-1.26026	-3.67592	313.129	-69.7392	3.37608	-32.946	-0.415545	-52.3533	-1.24751
0.3220	41.4496	-2.77257	-5.4979	214.88	-64.5482	-3.64463	-30.5101	-3.77948	-186.918	-1.24751
0.3227	41.4496	-2.48901	-6.1372	105.046	-45.3123	8.87499	-26.5398	-7.44024	-224.464	-0.623754
0.3233	77.749	0.252052	-4.6029	37.281	-11.7404	41.8301	-23.1887	-4.37312	-197.313	0
0.3240	109.195	3.62324	-2.46127	-0.875382	10.5276	56.4854	-19.8241	-1.93921	-69.7323	0
0.3247	113.157	3.30818	-2.78092	-0.875382	7.47119	51.9072	-16.1635	-1.93921	59.3374	-0.311877
0.3253	105.828	0.567116	-5.81755	-9.73219	1.38266	41.2163	-13.1084	-1.64239	60.2578	0
0.3260	100.628	-0.661635	-8.5665	-46.3437	5.94299	21.9957	-10.982	-1.32579	-33.7292	0
0.3267	90.278	0.252052	-7.95918	-94.2323	5.04548	-0.895172	-10.982	-0.712363	-138.707	-0.311877
0.3273	89.3371	2.70955	-4.28325	-174.201	9.92116	-14.6297	-10.982	0.494697	-218.671	-0.311877
0.3280	79.8784	3.30818	-0.926972	-199.845	35.2456	-21.9445	-6.09663	1.72154	-262.606	0
0.3287	-27.534	-0.346571	-0.639291	-35.0668	49.2904	-32.0216	0.928625	3.24521	-295.875	0
0.3293	-182.24	-3.68625	-1.24662	268.897	45.3123	-28.3514	4.58929	4.47206	-349.582	-0.311877
0.3300	-195.957	-4.00132	0.895008	495.363	42.8866	-8.82384	9.16513	9.04305	-327.628	-0.311877
0.3307	-35.1604	-3.4027	5.17826	547.835	38.6173	4.60374	15.2752	16.978	-211.038	-0.311877
0.3313	149.159	-2.77257	7.00024	513.025	28.2353	10.7037	15.8808	20.6387	-138.111	0
0.3320	230.969	-3.4027	5.46594	348.247	12.0558	11.9314	8.85559	15.1575	-52.0285	0
0.3327	217.549	-4.59994	2.42931	24.1502	-2.28017	0.639409	-2.43596	3.85863	74.3071	0
0.3333	164.412	-3.68625	-0.639291	-171.163	-6.86476	-21.0365	-11.8972	-3.77948	124.035	0
0.3340	115.584	-0.0315064	-1.5343	-184.912	-8.68404	-32.3285	-8.84213	-3.16606	172.571	0
0.3347	97.3101	6.67937	-1.5343	-311.842	-9.31473	-24.0801	0.928625	-1.32579	260.765	0
0.3353	84.1868	8.50674	-3.0686	-465.034	-15.1122	-17.6733	-0.296083	0.197879	276.628	-0.311877
0.3360	45.4114	2.70955	-4.89058	-534.601	-26.9982	-10.9595	-10.982	5.3823	248.557	-0.311877
0.3367	-32.7338	-1.57532	-3.99557	-623.426	-36.1673	0.332493	-20.1337	10.2699	249.477	-0.311877
0.3373	-106.571	-3.08763	-1.5343	-552.005	-44.7058	9.79574	-27.1455	13.614	260.143	-0.311877
0.3380	-90.377	-4.00132	2.42931	-276.157	-36.7738	18.3382	-27.1455	20.6387	273.894	0
0.3387	-11.3405	-3.08763	5.17826	2.16271	10.5276	15.2819	-24.4	23.0924	287.619	0
0.3393	36.8936	-1.85888	0.575362	189.237	58.1443	3.37608	-27.455	9.95329	278.171	0
0.3400	98.4986	3.93831	-2.14163	282.027	67.2892	0.933537	-27.1455	-7.44024	237.566	0
0.3407	193.432	14.9026	1.21465	309.473	59.6725	4.91066	-19.5146	-18.7193	196.691	0
0.3413	175.406	19.1874	1.50233	207.26	49.5815	0.0255764	-12.1933	-21.173	182.641	0
0.3420	102.807	17.9587	1.50233	40.628	34.3238	-3.64463	-6.09663	-13.8515	162.799	-0.311877
0.3427	107.957	18.8724	0.287681	54.0677	10.2365	4.60374	-3.95675	-8.6473	107.251	-0.311877
0.3433	109.79	18.5888	-4.6029	218.228	-21.8071	7.64733	-3.95675	-11.101	14.7802	0
0.3440	132.718	9.42043	-6.42488	381.821	-49.2904	1.24045	2.15333	-12.0112	-112.774	0
0.3447	62.4963	-9.79851	-6.1372	464.519	-70.3456	1.54737	7.64434	-7.12363	-228.444	-0.311877
0.3453	-298.517	-18.0532	-3.67592	356.795	-85.288	14.067	9.16513	2.94839	-285.182	-1.24751
0.3460	-583.266	-6.45882	0.575362	135.221	-90.1879	27.7887	17.4016	10.8833	-272.378	-1.24751
0.3467	-485.907	5.13555	-1.85394	-44.49	-90.479	33.2876	24.723	10.2699	-203.702	-0.311877
0.3473	-268.903	10.3341	-10.1008	-104.943	-76.4341	37.252	23.2022	3.56182	-167.996	-0.311877
0.3480	-119.397	15.8162	-16.8134	-91.8121	-55.0879	46.4083	17.7112	-6.82681	-147.558	-0.311877
0.3487	-5.84356	17.3601	-20.4573	-81.153	-50.5033	57.0864	10.6859	-13.5349	-43.5015	0
0.3493	83.2459	17.6751	-14.0644	-71.3694	-5.33656	65.3348	6.41963	-11.7144	43.7722	0
0.3500	120.189	13.9889	0.575362	-181.822	130.164	68.6853	1.84379	-4.0763	14.4824	0
0.3507	84.484	1.79587	14.9275	-385.992	258.629	67.7773	-6.39271	8.42963	-72.1956	-0.311877
0.3513	0.841868	-11.6259	26.5306	-524.251	287.01	57.7002	-14.0236	21.549	-145.718	0
0.3520	-181.002	-21.1093	29.2795	-585.579	235.439	41.5232	-16.1635	23.6861	-101.485	-0.311877
0.3527	-397.708	-25.3627	28.3526	-552.005	167.398	34.8094	-5.78709	25.2295	31.8884	-0.311877
0.3533	-320.504	-23.5353	30.2065	-458.649	109.108	36.945	8.85559	28.8903	53.8422	0
0.3540	-134.947	-15.5957	22.2473	-318.279	41.9648	30.5382	9.77075	13.9307	23.9569	0
0.3547	-289.652	-5.23007	5.46594	-154.685	-23.0443	16.2026	3.98367	-10.171	70.0301	0
0.3553	-364.43	2.11093	-5.21022	-73.2231	-61.1764	9.18191	6.41963	-15.0586	102.379	-0.311877
0.3560	2.37704	6.08074	-9.78116	-69.5156	-91.0854	11.9314	11.9106	-5.91657	103.597	0
0.3567	382.951	10.9327	-8.5665	-75.0254	-135.355	9.18191	15.8808	-1.02897	110.012	-0.311877
0.3573	425.044	13.0752	-2.14163	21.1122	-158.836	-16.1515	14.0505	2.63179	111.528	-0.311877
0.3580	121.724	6.3643	5.17826	186.508	-125.264	-49.7204	2.15333	13.9307	117.944	0
0.3587	-209.724	-6.14376	15.8544	299.123	-81.0187	-64.0688	-7.61742	28.5737	125.253	-0.311877
0.3593	-192.342	-16.2258	25.3159	393.407	-67.2892	-61.0124	-7.61742	33.1447	124.657	-0.311877
0.3600	24.9589	-16.5094	25.3159	459.627	-63.02	-55.8204	-4.26629	23.6861	102.081	-0.311877
0.3607	69.8255	-10.4286	25.9233	481.306	-51.7161	-45.7561	1.84379	15.4543	48.9696	0
0.3613	-94.9826	-10.1136	27.1379	482.85	-45.3123	-42.3928	4.89884	9.65648	7.47132	0
0.3620	-286.631	-9.48344	19.2107	437.382	-43.7841	-76.8825	6.41963	-5.30315	5.63056	0
0.3627	-306.44	-1.57532	7.00024	355.868	-42.8866	-121.743	10.3898	-21.173	-40.7403	-0.311877
0.3633	-123.358	6.3643	-3.38824	290.266	-45.0212	-131.501	7.33479	-32.4521	-191.195	0.311877
0.3640	63.4373	15.8162	-7.63953	226.775	-25.1789	-115.337	3.67413	-43.4541	-290.082	0
0.3647	143.068	21.9285	-8.5665	97.9913	9.60581	-93.6606	2.44942	-53.2096	-236.673	-0.311877
0.3653	169.315	17.6751	-9.78116	-108.908	13.2686	-73.8261	-1.81688	-50.7757	-111.555	0
0.3660	185.508	12.7916	-6.74452	-313.696	2.59551	-52.163	-2.73204	-34.5892	30.0477	-0.311877
0.3667	230.969	12.1615	-4.89058	-367.094	9.31473	-28.9652	0.309542	-23.9037	129.855	-0.311877
0.3673	320.356	15.2176	-5.21022	-245.622	22.4378	-12.1871	4.27975	-19.3327	128.609	-0.311877
0.3680	337.787	15.5327	-7.63953	-95.7771	10.2365	-0.588256	3.36458	-12.3081	55.683	0
0.3687	211.755	12.4766	-13.1374	-27.4458	-17.8532	11.3175	3.36458	-7.12363	-43.7992	-0.311877
0.3693	110.433	14.3039	-17.7084	-36.869	12.6622	22.3026	14.6561	-5.59997	-117.051	0
0.3700	128.41	18.8724	-23.8136	-39.3407	78.593	31.4589	21.9775	-5.59997	-101.188	0
0.3707	210.814	25.2997	-27.4895	-30.4839	88.6597	44.5796	17.7112	-6.21339	-41.9585	-0.311877
0.3713	311.838	30.1832	-25.9552	-98.8152	54.7725	56.7923	12.8258	-6.82681	21.4936	0
0.3720	376.513	28.9544	-28.4165	-169	23.0443	63.1992	10.0803	-5.59997	66.3756	0
0.3727	439.703	23.7559	-27.7772	-152.831	13.8993	67.7773	13.741	5.67912	67.8915	0
0.3733	561.18	14.619	-16.8134	-133.624	-1.38266	64.721	18.0207	25.5263	118.242	0
0.3740	634.422	5.76568	-0.926972	-129.042	-26.3917	50.9865	17.7112	46.2838	211.931	-0.311877
0.3747	574.897	1.19725	11.5712	-92.1211	56.0097	29.6302	14.9657	59.0866	210.117	-0.311877
0.3753	402.76	-10.1136	21.64	-54.8916	195.464	14.067	3.67413	60.0166	136.866	-0.623754
0.3760	144.603	-23.5353	35.9921	-46.0348	233.305	18.6452	-8.53259	61.5403	94.7449	-1.24751
0.3767	-220.074	-29.6476	42.7047	-50.3087	206.137	31.152	-13.418	68.8618	72.7641	-0.311877
0.3773	-827.061	-29.9311	37.8141	-86.3024	188.138	27.4946	-15.2483	74.9564	44.097	0
0.3780	-1265.92	-19.8806	33.2431	-111.328	191.51	9.79574	-14.0236	63.0639	4.71018	-0.311877
0.3787	-997.069	-2.48901	20.745	-19.2069	168.296	-8.82384	-15.5578	18.2048	-84.0794	0
0.3793	-539.291	10.0191	1.21465	119.979	122.232	-48.4928	-23.7943	-29.4048	-190.898	0
0.3800	-451.39	12.4766	-9.17383	173.995	136.568	-94.5813	-29.2853	-43.4541	-202.483	-0.311877
0.3807	-459.363	12.1615	-10.9958	167.61	157.623	-86.3458	-24.1039	-45.2746	-110.337	0
0.3813	-385.823	14.619	-7.35185	142.584	112.456	-39.9503	-14.6427	-50.7757	-8.09393	0
0.3820	-333.627	18.2737	-5.21022	116.941	28.5264	-8.51692	-12.5028	-50.459	49.89	0
0.3827	-113.9	21.9285	-11.6031	147.734	-51.1097	-4.85951	-20.1337	-52.9127	49.5922	0
0.3833	251.719	24.386	-19.2427	222.193	-108.478	-10.6526	-30.2005	-50.459	-2.59872	-0.311877
0.3840	304.509	22.5586	-21.3843	246.034	-159.442	-10.9595	-34.7763	-30.9284	-44.4218	-0.311877
0.3847	77.4519	20.4162	-16.8134	226.157	-210.721	-10.6526	-32.3404	-8.6473	-37.3836	0
0.3853	120.189	18.8724	-6.42488	214.572	-220.788	-7.60896	-25.0191	4.76888	-28.8566	-0.311877
0.3860	476.646	9.10536	-0.319646	105.046	-152.432	-8.82384	-12.8123	7.81621	-41.6607	-0.311877
0.3867	627.093	2.11093	-1.5343	-86.9203	-62.7046	-22.5583	10.3898	9.35966	-49.5922	-0.311877
0.3873	361.558	3.30818	-1.5343	-147.064	-34.6391	-34.4641	24.1173	26.4366	-49.917	0
0.3880	146.436	3.93831	6.68059	-81.7195	-62.4135	-27.4434	14.6561	53.9021	-35.8677	-0.311877
0.3887	272.171	3.93831	17.3887	-16.4263	-45.6276	-8.51692	12.5163	74.3628	-17.5684	-0.311877
0.3893	374.087	-4.91501	21.9597	6.43663	27.9199	7.04628	17.4016	81.0709	-20.6003	0
0.3900	387.507	-15.3121	22.567	-69.2067	34.0327	27.1877	12.5163	62.7473	-15.1051	0
0.3907	253.551	-13.1697	24.389	-201.698	-23.0443	49.7716	5.814	21.549	21.4936	-0.311877
0.3913	-147.476	-11.3423	30.8138	-232.8	-53.5597	56.7923	-3.35113	-12.6247	70.0301	-0.311877
0.3920	-378.494	-10.7122	36.9191	-142.481	-79.8059	47.329	-11.5876	-25.744	84.6749	0
0.3927	-383.05	-5.82869	25.9233	-33.8309	-142.971	41.5232	-10.3629	-35.2026	47.7515	0
0.3933	-358.636	0.882181	6.07327	66.8895	-198.205	47.636	0.928625	-43.4541	34.6225	0
0.3940	-327.833	11.2478	-0.0319646	134.036	-204.609	80.5911	14.36	-41.0005	67.8915	0
0.3947	-351.01	18.2737	-1.85394	141.966	-200.655	164.814	17.7112	-37.9531	77.6638	-0.311877
0.3953	-358.933	23.4723	-10.7081	157.517	-220.182	232.566	20.7662	-39.18	68.8119	-0.311877
0.3960	-323.872	27.4421	-14.9594	182.852	-225.979	232.259	25.6516	-35.2026	65.753	-0.311877
0.3967	-241.468	19.7861	-7.0322	168.485	-186.319	199.304	21.3718	-19.9462	40.1177	-0.311877
0.3973	-126.379	6.67937	7.00024	183.161	-130.77	146.207	11.6011	4.15545	-9.31207	0
0.3980	-18.9668	-3.68625	17.996	225.849	-104.524	72.6496	0.928625	25.8232	-54.167	-0.311877
0.3987	-103.797	-11.0273	23.494	230.74	-98.4111	6.43245	-6.70225	35.2818	-71.573	0
0.3993	-377.256	-12.8546	27.7452	243.253	-85.288	-31.7147	-8.53259	33.1447	-72.4934	0
0.4000	-426.679	-13.7683	26.2109	248.454	-75.8277	-51.5491	-10.0668	24.6161	-82.5635	-0.311877
0.4007	-292.723	-11.6259	21.3523	272.553	-71.8738	-70.1687	-6.09663	9.65648	-92.0109	-0.311877
0.4013	-267.714	-4.91501	16.1421	491.965	-52.0315	-97.6377	-2.12642	-9.26072	-87.4361	-0.311877
0.4020	-199.325	1.19725	11.8908	824.043	-9.60581	-136.386	-2.73204	-16.8988	-94.4472	-0.311877
0.4027	29.5644	3.02462	14.0324	991.55	27.6288	-180.94	9.16513	-9.57733	-124.684	0
0.4033	167.185	2.70955	13.1055	985.783	75.5366	-212.987	23.2022	-11.101	-140.25	-0.311877
0.4040	102.163	6.08074	3.32431	891.757	162.498	-218.793	26.8628	-28.1779	-118.864	0
0.4047	-69.6275	9.42043	-5.21022	636.66	215.306	-234.957	31.1426	-42.8407	-69.4345	-0.311877
0.4053	-332.389	10.9327	-9.78116	287.228	191.801	-271.276	27.4819	-47.1149	-14.8073	-0.935631
0.4060	-524.335	18.5888	-12.5301	90.3703	160.679	-255.712	15.2752	-45.5714	19.6799	-0.623754
0.4067	-445.596	27.4421	-19.5623	-1.18434	145.421	-186.439	3.98367	-47.7085	43.4744	0
0.4073	-235.971	32.0106	-28.7042	-233.727	111.534	-124.493	-5.47754	-55.9601	82.8342	-0.311877
0.4080	-163.62	33.5229	-32.0605	-656.073	51.4251	-88.7883	1.84379	-59.6208	124.36	-0.311877
0.4087	-113.603	32.9242	-28.7042	-1173.68	-8.99939	-56.7411	29.3123	-51.6859	154.245	-0.311877
0.4093	164.115	33.8379	-22.3113	-1468.79	-38.302	-1.80313	54.0218	-38.2499	164.342	0
0.4100	494.622	28.0407	-16.206	-1245.67	-26.3917	39.0807	60.7375	-23.9037	136.243	-0.311877
0.4107	676.813	10.9327	-4.28325	-803.498	-1.38266	47.0221	53.7257	-0.415545	104.815	-0.311877
0.4113	647.545	-5.23007	13.3932	-542.84	-3.51728	59.222	41.2094	26.1398	107.251	0
0.4120	453.42	-7.97113	19.2107	-429.658	21.2007	92.791	27.778	27.3468	115.508	0
0.4127	420.488	-0.661635	14.6398	-373.479	83.784	134.301	15.2752	11.4967	112.746	0
0.4133	499.228	-0.346571	12.7858	-358.855	155.173	136.437	8.85559	15.4543	109.39	-0.311877
0.4140	301.438	-5.82869	12.7858	-331.358	259.551	94.9394	13.1353	26.4366	94.7449	0
0.4147	-113.9	-4.91501	10.6762	-280.998	305.033	68.6853	19.5415	20.9553	67.8915	-0.311877
0.4153	-298.517	0.882181	7.92721	-224.561	241.552	61.9715	12.2202	16.3646	42.8789	-0.311877
0.4160	-163.917	8.50674	5.46594	-183.367	139.309	50.3726	1.22471	25.5263	23.6321	-0.311877
0.4167	-121.823	17.6751	-3.38824	-188.568	52.3468	15.2819	3.36458	26.1398	16.3232	0
0.4173	-256.423	26.2134	-19.5623	-162.306	2.91085	-54.2986	-0.605625	8.74624	16.3232	-0.311877
0.4180	-221.015	33.8379	-33.8824	-79.6083	-45.0212	-56.4342	-28.0606	-16.8988	5.63056	-0.311877
0.4187	98.2015	39.32	-42.7366	-7.26052	-122.232	36.945	-53.6988	-44.6612	-5.65763	-0.311877
0.4193	373.195	46.0309	-44.2709	155.972	-170.139	88.5198	-58.5841	-61.1445	-3.5191	-0.311877
0.4200	469.614	47.5747	-39.3803	388.515	-169.824	78.1485	-54.6139	-55.3467	1.05573	-0.311877
0.4207	653.339	31.6955	-26.2749	484.344	-182.025	63.1992	-50.0381	-25.744	10.2054	0
0.4213	809.58	8.82181	-6.1372	445.312	-174.409	53.7359	-36.9162	16.0677	29.4521	0
0.4220	627.39	-9.48344	14.3201	381.821	-95.3547	42.7509	-9.7573	55.7424	45.3152	-0.311877
0.4227	230.375	-21.7079	33.5628	311.636	-21.8071	17.4175	14.9657	77.0935	48.3741	-0.311877
0.4233	-312.878	-25.3627	43.0243	188.928	-14.7968	-6.68822	22.5965	68.8618	51.1081	-0.311877
0.4240	-806.312	-22.6216	41.49	58.0327	-36.4584	-29.5791	35.7184	45.6704	51.7307	-0.311877
0.4247	-802.35	-13.4533	34.4578	-4.84035	-54.7725	-70.7826	45.7853	24.0027	35.8407	-0.311877
0.4253	-392.212	3.93831	15.8544	-6.38514	-71.8738	-99.7733	26.5668	1.42473	17.5413	0
0.4260	33.8233	24.6695	-5.4979	-12.1524	-90.479	-102.51	0.619084	-22.3801	9.90761	0
0.4267	244.092	33.8379	-15.2791	-123.532	-103.602	-110.145	-20.4298	-39.7736	8.3917	-0.311877
0.4273	216.014	28.3558	-17.4207	-252.934	-76.4341	-116.858	-38.7466	-49.5488	9.31207	-0.311877
0.4280	143.365	22.2436	-14.6717	-268.227	-5.33656	-111.359	-43.6319	-48.6386	-1.67834	0
0.4287	76.8576	18.2737	-9.49347	-243.202	44.0994	-104.646	-38.1409	-29.1079	-25.7977	-0.311877
0.4293	-129.153	15.2176	-1.85394	-205.663	48.684	-53.3778	-20.1337	-3.77948	-42.2833	-0.311877
0.4300	-342.789	12.7916	3.96361	-140.01	34.6391	43.9657	1.22471	7.51939	-52.9489	0
0.4307	-418.458	8.19168	1.21465	-107.054	23.0443	103.175	12.5163	7.51939	-60.2849	0.311877
0.4313	-347.048	9.42043	-7.0322	-98.8152	24.8635	111.104	16.4865	6.29254	-62.0985	0
0.4320	-90.6742	13.9889	-14.9594	-97.6308	6.25833	99.8117	10.0803	3.85863	-60.2849	-0.311877
0.4327	78.6899	17.9587	-14.3521	-109.526	8.07762	117.817	8.24996	3.56182	-47.1559	0
0.4333	-20.502	21.9285	-11.9228	-91.5032	123.444	184.047	18.0207	4.47206	-30.6703	0
0.4340	-121.823	20.6997	-13.7448	-40.834	242.474	217.003	24.723	7.51939	-23.9569	0
0.4347	-224.977	14.9026	-11.6031	-20.7002	253.462	181.605	32.6634	20.3419	-17.2436	0
0.4353	-475.507	8.82181	-13.7448	-40.2161	213.463	114.16	36.0145	27.6634	-8.09393	-0.311877
0.4360	-490.165	14.619	-17.4207	-41.1429	163.735	39.0807	36.6336	25.2295	-3.81687	0
0.4367	-145.297	23.7559	-20.4573	-23.1719	135.646	-30.1929	42.4341	25.8232	-5.03502	0
0.4373	124.448	17.6751	-20.1696	-10.3501	131.983	-92.4457	33.8881	33.4613	-17.2436	-0.623754
0.4380	169.315	4.85199	0.287681	18.6405	80.4123	-137.92	10.3898	54.5156	-44.097	-0.935631
0.4387	57.2966	-8.88482	22.2473	51.905	-14.1904	-147.077	-9.13821	74.6596	-74.0093	0
0.4393	-95.5768	-17.1395	32.0285	76.0552	-95.67	-143.1	-18.3033	80.4575	-88.979	0
0.4400	-104.441	-8.56975	33.2431	90.3703	-155.488	-129.071	-26.8494	68.5452	-91.7131	0
0.4407	24.9589	4.85199	13.1055	79.7112	-172.88	-83.2894	-41.4921	38.6457	-103.624	0
0.4413	204.425	16.7614	-9.78116	63.8514	-158.836	-51.5491	-43.6319	16.6812	-121.923	0
0.4420	268.209	26.812	-21.3843	64.7268	-141.152	-52.4699	-32.946	8.74624	-135.973	0
0.4427	122.913	30.1832	-28.0969	65.6536	-107.265	-44.2215	-27.7646	5.3823	-136.568	-0.311877
0.4433	5.74451	29.8681	-26.2749	75.4373	-87.4226	-33.8503	-22.8792	5.99572	-116.428	-0.311877
0.4440	51.5025	24.386	-24.4209	115.705	-31.8981	-21.9445	-10.3629	-2.84945	-82.2657	0
0.4447	62.1992	17.9587	-20.1696	154.788	114.591	-7.91588	3.98367	-13.5349	-47.4537	0
0.4453	19.462	13.9889	-9.17383	140.73	210.721	-45.1423	10.3898	-9.57733	-13.5891	-0.311877
0.4460	148.268	10.0191	1.50233	107.466	204.318	-57.048	15.5713	2.01836	20.898	-0.311877
0.4467	371.66	9.73549	4.25129	134.345	166.792	36.945	21.3718	4.76888	33.4044	0
0.4473	477.24	9.42043	1.21465	202.986	114.299	83.3405	13.1353	-5.30315	18.1369	-0.311877
0.4480	434.206	6.99443	1.82198	251.492	72.4802	5.21758	1.84379	-15.0586	5.9554	-0.311877
0.4487	241.666	4.22186	2.71699	260.967	31.8981	-50.0273	0.309542	-15.9886	1.3535	0
0.4493	58.5346	7.59305	-0.639291	223.737	-30.0546	-29.2721	2.75896	-16.8988	-0.78503	0
0.4500	-54.3748	15.8162	-9.49347	111.431	-47.4469	-25.9216	3.0685	-22.0833	7.47132	-0.311877
0.4507	-182.537	20.4162	-18.3157	-109.217	-7.78653	-68.34	0.0134583	-25.4472	26.0955	0
0.4513	-145.94	20.4162	-19.5623	-298.093	-0.460885	-97.3308	-1.21125	-24.2203	41.9585	0
0.4520	63.7344	19.1874	-17.4207	-273.068	-54.4815	-80.233	7.33479	-24.5172	47.1288	-0.311877
0.4527	89.9809	21.9285	-13.4571	-128.733	-106.658	-45.1423	15.5713	-32.1553	63.3167	-0.311877
0.4533	-93.4474	24.0709	-9.78116	-32.5951	-124.973	-46.971	1.53425	-45.2746	89.5475	0
0.4540	-152.972	21.6449	-9.49347	-46.6527	-119.466	-98.2388	-27.1455	-46.5015	98.7242	-0.311877
0.4547	-111.77	21.0148	-10.7081	-160.195	-70.952	-124.787	-37.5218	-30.9284	99.3198	-0.311877
0.4553	-135.244	23.1572	-12.8498	-220.905	-11.7404	-85.425	-22.2736	-15.3752	83.4568	-0.311877
0.4560	-53.1367	27.7257	-11.6031	-125.695	-4.41479	-35.3721	-0.605625	-3.16606	41.9585	0
0.4567	140.939	30.1832	-11.6031	-8.49635	-38.5931	2.77503	10.3898	0.197879	-0.16242	0
0.4573	240.428	30.1832	-12.8498	28.4242	-67.2892	46.1014	0.619084	-3.46288	-40.1448	-0.311877
0.4580	246.519	26.2134	-13.1374	29.351	-92.929	72.3555	-30.8061	-4.37312	-63.6415	-0.311877
0.4587	241.319	17.6751	-12.5301	20.4942	-130.164	71.4347	-52.178	-1.93921	-55.0874	-0.311877
0.4593	278.559	17.6751	-2.78092	8.59934	-143.893	67.7773	-39.3522	5.67912	-31.8884	0
0.4600	285.294	17.045	2.42931	6.12767	-132.905	56.7923	-28.3702	7.22257	5.03502	0
0.4607	115.93	10.6492	-0.0319646	5.25229	-120.388	51.2934	-26.5398	1.10812	45.9107	0
0.4613	-108.106	12.1615	5.46594	0.978368	-87.1315	59.8359	-11.2781	2.94839	74.0093	0
0.4620	-188.034	11.5629	6.68059	-4.53139	-25.1789	42.7509	-3.95675	3.24521	53.8422	-0.311877
0.4627	-168.225	10.9327	3.64396	-17.0442	45.6276	3.08195	-2.12642	-3.46288	-6.25317	-0.311877
0.4633	-128.212	16.4464	2.42931	-61.5857	78.2777	-25.3078	3.67413	-12.3081	-14.2117	-0.311877
0.4640	-85.5239	15.2176	-5.81755	-137.589	70.6609	-25.9216	4.89884	-26.6543	19.3821	0
0.4647	-52.2454	14.3039	-11.6031	-159.886	75.2213	-7.60896	26.5668	-40.387	103.001	-0.311877
0.4653	-26.8903	17.6751	-10.7081	-76.5702	91.7161	3.08195	67.4532	-46.5015	199.425	-1.24751
0.4660	-14.7079	20.4162	-8.85418	27.1883	70.6609	1.85429	92.4722	-44.9778	162.799	-0.623754
0.4667	-13.4699	21.6449	-8.5665	64.4178	35.5609	11.3175	86.3756	-40.387	67.296	0.311877
0.4673	-8.9139	22.2436	-9.78116	65.9626	74.9302	43.9657	45.4757	-33.0655	15.7006	0
0.4680	-1.58469	23.4723	-9.17383	100.154	146.634	48.5439	-7.92696	-23.9037	-12.9665	-0.311877
0.4687	-0.0495217	22.2436	-7.95918	128.836	175.937	-10.6526	-46.9831	-19.6493	-28.8566	0
0.4693	1.48565	21.9285	-4.89058	72.3477	192.723	-65.5906	-68.651	-20.5596	-28.5318	0
0.4700	4.50647	20.6997	-5.21022	-8.80531	203.711	-83.5963	-75.3667	-21.4698	-9.60984	0
0.4707	1.48565	17.6751	-9.49347	-16.1173	204.924	-83.2894	-59.1898	-17.5123	17.5413	0
0.4713	-6.48734	17.6751	-10.7081	4.63437	196.677	-62.8411	-22.5696	-8.6473	38.304	-0.311877
0.4720	0.841868	15.5327	-10.9958	-6.95156	189.06	4.60374	14.9657	-4.68972	36.761	0
0.4727	40.8554	15.8162	-6.74452	-9.73219	191.801	148.65	26.5668	-4.37312	-5.03502	0
0.4733	70.4198	16.7614	-3.38824	12.8733	162.498	258.206	-1.21125	-3.77948	-47.7785	-0.311877
0.4740	60.9612	12.4766	-7.95918	26.3129	102.705	255.764	-32.6499	-4.68972	-40.1448	0
0.4747	48.4817	11.8779	-8.24686	22.2965	17.8532	209.675	-21.0488	-4.98654	-12.371	0.311877
0.4753	43.8762	13.0752	-4.28325	7.98142	-44.7058	136.13	19.851	-5.30315	4.41241	0
0.4760	42.6877	12.4766	-0.639291	3.39854	13.584	52.2141	58.9071	-2.55263	22.7388	0
0.4767	40.5087	11.2478	-2.78092	21.1122	131.692	2.1612	76.3088	2.01836	33.4044	0
0.4773	35.9527	15.2176	-3.99557	44.9019	212.856	-14.6297	74.4784	5.08548	24.2547	0
0.4780	35.3585	24.0709	3.96361	55.561	298.92	-14.3228	72.3386	7.22257	12.0461	0
0.4787	31.6939	20.6997	2.10966	50.4117	397.501	-3.93876	47.6156	2.94839	-2.59872	0
0.4793	30.1587	14.619	-4.28325	47.94	426.173	9.18191	3.98367	-1.02897	-17.2436	0
0.4800	34.7147	17.9587	-0.319646	55.3035	371.546	1.24045	-13.7275	2.94839	-22.1432	0
0.4807	30.4558	15.2176	-2.14163	58.0327	289.775	-30.1929	-25.0191	2.63179	-25.4999	0
0.4813	21.9381	10.0191	-5.4979	54.6856	232.383	-46.063	-38.1409	-1.32579	-27.3136	-0.311877
0.4820	21.5914	11.5629	-1.85394	50.7207	162.207	-40.5641	-21.0488	-0.712363	-21.8184	-0.311877
0.4827	23.4237	11.5629	-2.78092	45.8288	34.9545	-24.694	5.19492	-0.712363	-15.7277	0
0.4833	27.3855	12.1615	-3.38824	43.3571	-130.455	-4.85951	11.9106	-1.32579	-12.9665	0.311877
0.4840	29.2178	10.9327	-6.74452	39.3922	-294.942	-0.28134	4.27975	-3.46288	-16.0254	0
0.4847	27.3855	7.59305	-12.8498	37.5899	-407.859	-3.64463	-7.61742	-8.05366	-23.9569	0
0.4853	24.6618	6.99443	-5.21022	42.4818	-465.542	-19.502	-19.5146	-8.05366	-30.0748	0
0.4860	19.462	4.22186	5.78559	45.2109	-487.519	-42.3928	-28.9758	-7.12363	-32.8088	-0.623754
0.4867	17.3326	4.85199	9.42955	46.1378	-464.014	-57.956	-33.2556	-5.30315	-30.6703	-0.623754
0.4873	16.0945	8.50674	9.14186	45.5199	-413.972	-95.5021	-36.6067	-3.77948	-26.3932	0
0.4880	13.0737	5.45062	7.60757	44.284	-357.501	-119.608	-34.4803	-6.21339	-26.0955	0
0.4887	11.2414	-0.346571	9.14186	41.5549	-258.023	-73.5192	-22.5696	-5.30315	-24.5795	0
0.4893	8.17107	-5.54514	9.42955	30.2779	-182.025	-19.2078	-12.5028	-2.23603	-19.0843	0
0.4900	7.87394	-6.14376	8.82222	20.8032	-167.398	-17.3663	-4.26629	-3.46288	-12.0732	0
0.4907	10.6472	-4.31638	9.74919	17.4561	-132.298	-33.8503	4.27975	-4.98654	-6.87578	0
0.4913	7.87394	-4.31638	7.60757	12.2553	-99.6482	-30.7939	1.84379	-5.59997	-6.25317	-0.311877
0.4920	5.74451	0.567116	3.32431	7.98142	-117.647	-3.93876	-6.09663	-3.77948	-3.5191	-0.311877
0.4927	6.33877	3.62324	-0.926972	8.29038	-160.364	38.1727	-8.53259	-1.02897	-0.46019	0
0.4933	4.50647	-0.346571	-3.99557	11.3285	-198.52	73.2635	-0.901709	-1.64239	-3.5191	-0.311877
0.4940	6.04164	1.79587	-2.14163	18.0741	-223.845	73.2635	14.0505	-0.712363	-6.87578	-0.311877
0.4947	7.57682	4.22186	-2.46127	23.8413	-248.247	41.5232	20.1471	0.197879	-9.93468	0
0.4953	3.61508	-0.346571	-7.35185	22.2965	-211.934	14.067	14.9657	-4.68972	-13.5891	-0.623754
0.4960	2.07991	-2.17394	-5.21022	17.1472	-70.3456	6.12554	11.305	-8.35048	-12.9665	-0.935631
0.4967	0.841868	-1.57532	2.10966	14.6755	35.2456	-0.895172	7.94042	-5.91657	-11.4506	-0.311877
0.4973	-1.88182	-2.48901	6.68059	15.2934	34.6391	-0.28134	7.94042	-3.77948	-12.371	0
0.4980	-1.88182	-3.4027	7.60757	16.8382	10.2365	28.7095	14.36	-5.59997	-14.8073	0
0.4987	-0.643782	-3.08763	7.00024	20.8032	-7.47119	55.8715	16.4865	-5.91657	-19.6799	0
0.4993	-1.28756	-2.48901	5.46594	25.3861	-29.1328	65.0279	12.8258	-1.02897	-22.441	0
0.5000	-4.01125	-5.82869	-0.319646	29.351	-49.5815	68.0842	11.305	-0.712363	-20.3025	0
0.5007	-4.01125	-5.54514	-3.0686	40.3191	-68.5021	57.0864	15.2752	0.197879	-17.2436	0
0.5013	1.18852	1.19725	-0.0319646	53.4498	-93.5354	38.7865	20.4567	11.4967	-13.5891	-0.311877
0.5020	-0.990433	-1.57532	-3.0686	62.6155	-107.265	31.4589	16.4865	14.2275	-12.6688	-0.311877
0.5027	-4.30838	-4.00132	-1.5343	76.9306	-90.479	32.9807	2.15333	9.35966	-16.0254	-0.311877
0.5033	-4.01125	-1.57532	4.25129	89.4434	-77.9623	32.3669	-25.6247	5.99572	-20.0047	0
0.5040	-8.31964	-6.74238	2.71699	87.6412	-77.0648	25.052	-53.3892	-0.118727	-23.6592	0.311877
0.5047	-7.97299	-7.97113	2.42931	88.568	-41.043	21.6887	-55.5291	-1.32579	-20.9251	0
0.5053	-3.417	-3.68625	1.21465	92.2241	7.1801	19.86	-47.2926	-1.32579	-13.8869	0
0.5060	-6.48734	-6.45882	-3.38824	103.501	23.3596	8.87499	-47.6021	-3.16606	-11.1528	-0.311877
0.5067	-7.67586	-9.48344	-1.85394	121.524	26.1006	-0.588256	-42.0977	2.01836	-9.60984	-0.311877
0.5073	-5.2493	-9.48344	1.21465	67.5074	24.5724	-1.49622	-29.2853	2.94839	-5.9554	-0.311877
0.5080	-7.67586	-15.5957	3.64396	-7.26052	15.7186	-3.93876	-25.6247	-4.0763	-5.9554	0
0.5087	-5.54643	-22.023	10.3565	-11.5344	14.1904	-8.51692	-20.7393	-4.98654	-7.17355	0
0.5093	-4.65504	-26.5914	9.14186	-44.799	19.3814	-10.9595	-12.5028	-11.101	-4.43948	0
0.5100	-11.3405	-29.6476	3.03663	-96.086	25.1789	-9.43767	-11.8972	-25.1306	-3.81687	0
0.5107	-12.8756	-26.2764	8.21489	-75.0254	29.7635	-4.85951	-10.982	-23.6069	-9.01431	-0.311877
0.5113	-9.80529	-14.9971	14.0324	-46.9617	33.1109	-3.64463	-8.84213	-9.87414	-12.371	-0.311877
0.5120	-5.2493	10.9327	10.0369	-59.7834	36.7738	-6.3813	-1.21125	13.3172	-6.87578	0
0.5127	-0.0495217	39.32	2.71699	-56.6938	36.4827	-14.0158	17.1055	36.5086	0.46019	0
0.5133	-2.47608	41.4625	-0.319646	-88.1561	34.0327	-24.3871	36.6336	33.4613	6.25317	-0.311877
0.5140	-5.2493	17.3601	3.64396	-172.965	36.7738	-5.78026	50.3611	37.4188	12.3439	0
0.5147	-1.28756	-17.1395	16.4618	-153.14	41.6494	34.8094	53.4161	40.486	12.6688	0.311877
0.5153	2.37704	-40.0132	34.1701	-48.455	45.3123	61.3705	46.0948	2.63179	4.41241	-0.311877
0.5160	8.4682	-50.3788	37.8141	16.8382	64.2328	77.5347	34.1842	-17.8091	-1.0828	-0.311877
0.5167	12.4795	-73.284	12.4981	47.6311	97.1982	78.4555	17.7112	-0.118727	-2.89649	-0.311877
0.5173	8.81486	-78.7661	-26.5626	72.6567	110.321	64.1071	8.24996	-8.9639	-8.09393	0
0.5180	4.20934	-48.2679	-52.1981	81.2045	104.209	46.7152	5.50446	-40.0902	-16.0254	-0.311877
0.5187	2.9713	-32.7037	-56.1617	68.6917	92.3225	24.7451	-2.73204	-49.5488	-21.5206	0
0.5193	6.33877	-14.682	-40.3073	72.9657	74.3238	1.54737	-6.09663	-48.322	-13.5891	0
0.5200	8.17107	39.0365	-18.955	51.596	54.4815	-13.7089	3.36458	-43.1375	11.7484	0
0.5207	0.247608	69.8498	-10.1008	-8.1874	33.7174	-18.9009	12.2202	0.197879	26.3932	0
0.5213	-7.67586	57.9404	-12.2424	4.32542	16.0339	-22.8653	14.9657	57.2661	14.1847	-0.311877
0.5220	-12.2814	24.6695	-16.8134	61.0708	-0.145543	-28.3514	13.741	78.0235	-5.65763	-0.311877
0.5227	-17.1345	-7.97113	-17.4207	77.2396	-18.1443	-32.3285	10.0803	80.1606	-14.2117	-0.311877
0.5233	-16.5402	-6.74238	-6.42488	49.7938	-31.5828	-36.2928	10.6859	56.3558	-6.57801	0
0.5240	-13.1728	5.76568	0.287681	-26.21	-31.5828	-40.2572	11.6011	27.3468	5.03502	0
0.5247	-13.4699	13.3902	0.287681	-103.707	-23.0443	-37.2136	5.814	33.4613	15.4028	-0.311877
0.5253	-11.6376	22.2436	6.68059	-133.933	-16.9315	-28.6583	1.53425	2.63179	37.3836	-1.24751
0.5260	-8.31964	7.90812	13.7128	-167.198	-8.99939	-22.8653	5.50446	-72.1268	40.1177	-0.623754
0.5267	-6.48734	-16.5094	20.745	-203.192	4.12371	-17.9802	14.36	-105.093	14.4824	0.623754
0.5273	-2.82274	-25.9928	21.3523	-220.905	11.4494	-11.8802	18.3168	-92.5874	1.67834	-0.311877
0.5280	2.07991	-31.4749	7.00024	-252.625	9.60581	-7.60896	10.3898	-57.4837	-4.14171	-1.24751
0.5287	3.31795	-31.4749	-19.5623	-219.669	11.134	-6.3813	-0.901709	-17.8091	-21.5206	-0.623754
0.5293	4.20934	-10.1136	-44.8782	-114.727	16.325	-3.33771	-3.35113	6.60915	-42.2833	0
0.5300	10.6472	24.0709	-53.4128	-43.9236	18.1686	-3.33771	-1.81688	31.9376	-48.3741	0
0.5307	18.8678	48.1734	-45.4856	4.63437	19.3814	-1.49622	-5.18146	50.2414	-28.234	0
0.5313	21.9381	50.6309	-43.3439	85.1695	21.8314	3.98991	-14.9388	33.7581	-9.93468	-0.311877
0.5320	14.2622	29.553	-41.2023	197.785	28.8417	3.98991	-26.2303	-10.171	-17.5684	0
0.5327	0.841868	-1.26026	-14.9594	286.301	43.1776	9.18191	-25.6247	-39.18	-26.0955	0
0.5333	-8.9139	-25.6778	7.00024	292.378	47.7622	16.5095	-19.8241	-17.5123	-24.2818	-0.311877
0.5340	-16.2431	-33.6174	19.818	258.547	43.493	14.3611	-17.9938	10.2699	-18.164	-0.311877
0.5347	-26.296	-26.5914	39.9557	264.623	43.1776	14.975	-9.13821	-4.68972	-3.81687	0
0.5353	-33.6252	-22.023	29.2795	306.744	37.6955	14.668	-3.35113	-21.7864	6.55094	0
0.5360	-27.534	-24.7641	-4.89058	316.837	25.4942	10.0899	-11.8972	5.99572	1.97611	-0.311877
0.5367	-18.3725	-7.97113	-9.49347	241.451	18.1686	8.87499	-14.9388	48.7177	1.05573	-0.311877
0.5373	-21.74	29.8681	4.25129	88.568	10.8429	5.5117	-11.8972	31.3242	5.63056	0
0.5380	-21.74	46.6611	15.8544	-163.233	4.43905	2.1612	-9.13821	-14.4451	13.2643	0
0.5387	-11.6376	30.1832	42.7047	-427.495	4.73014	3.37608	-2.43596	-39.18	24.8502	-0.311877
0.5393	-12.5785	-0.0315064	61.308	-484.292	2.28017	0.639409	3.0685	-87.9966	25.7706	-0.311877
0.5400	-11.0433	-21.1093	44.239	-351.234	-2.8866	-6.07438	5.19492	-121.26	16.3232	0
0.5407	6.33877	-23.5353	24.9963	-245.622	-3.80837	-11.5733	15.2752	-106.32	12.9665	-0.311877
0.5413	17.6297	-31.79	17.0691	-246.549	-4.73014	-20.4227	26.5668	-92.2708	16.0254	0
0.5420	26.7912	-54.6637	9.42955	-261.482	0.460885	-19.2078	32.3538	-57.7806	15.1051	0
0.5427	38.0822	-52.8363	7.31988	-257.208	11.134	-2.11005	34.1842	-14.7617	10.828	0
0.5433	30.1587	-27.5051	-2.46127	-246.549	14.7968	7.95425	22.287	-33.0655	4.41241	0
0.5440	9.40912	-22.9367	-14.3521	-175.746	15.1122	6.73937	0.309542	-51.3891	-4.73725	0
0.5447	-9.80529	9.10536	-17.4207	-76.8791	12.3711	26.2669	-14.6427	-35.2026	-13.8869	-0.311877
0.5453	-20.7991	65.2814	-26.8822	-21.3181	5.65191	72.6496	-23.7943	-34.5892	-21.2229	0
0.5460	-13.4699	56.4281	-27.1699	11.0195	14.5057	104.083	-26.8494	-2.55263	-21.2229	0
0.5467	-4.30838	33.5229	-12.2424	36.972	33.1109	107.753	-18.909	52.6951	-16.3232	-0.311877
0.5473	-13.4699	22.8422	-2.46127	41.8638	34.0327	94.0187	-5.78709	80.4575	-11.7484	-0.311877
0.5480	-27.2369	11.8779	21.3523	37.5899	24.2571	68.6853	4.27975	90.8263	-7.17355	-0.311877
0.5487	-31.4958	27.7257	44.5266	33.007	16.0339	36.945	6.11009	114.631	-5.65763	-0.311877
0.5493	-27.534	30.4667	27.7452	27.4973	9.60581	2.77503	7.02525	149.121	-5.03502	0
0.5500	-19.9077	34.4366	-5.4979	3.39854	8.07762	-19.502	10.9955	79.2306	-2.59872	0
0.5507	-13.4699	67.1087	-25.6675	-66.1686	9.92116	-29.2721	10.9955	-91.6574	-1.38057	-0.311877
0.5513	-5.84356	105.263	-22.3113	-109.835	12.6622	-37.2136	4.58929	-172.53	-3.22133	-0.311877
0.5520	0.247608	124.482	-4.28325	-76.2612	15.4033	-50.3343	-5.47754	-121.26	-5.65763	-0.311877
0.5527	3.31795	89.0687	7.60757	-32.2861	15.1122	-71.9974	-16.1635	-40.387	-7.79616	-0.311877
0.5533	10.9443	67.3923	22.8547	-14.624	13.584	-90.617	-18.909	14.8409	-7.17355	-0.311877
0.5540	11.8357	83.5866	50.3442	-21.936	12.0558	-102.51	-10.6725	22.7758	-3.81687	0
0.5547	9.70625	-22.6216	45.134	-43.6146	8.07762	-109.531	-0.605625	18.5017	-2.30095	0
0.5553	23.7704	-154.445	-13.1374	-42.3788	4.43905	-97.3308	3.36458	47.4909	-3.22133	-0.935631
0.5560	35.6556	-76.9388	-72.0481	-22.554	4.73014	-67.4193	3.36458	67.0215	-2.00318	-0.935631
0.5567	24.3647	70.7635	-83.012	-11.8434	6.25833	-42.6997	-0.296083	62.4505	0.46019	0
0.5573	6.98255	82.0428	-63.8013	0.051493	10.2365	-28.3514	-4.26629	78.3204	1.97611	0
0.5580	-1.58469	-36.9571	-55.2667	13.4912	12.3711	-22.2514	-6.39271	74.6596	3.19426	0
0.5587	-9.21103	-155.988	-45.8052	19.2584	7.78653	-22.8653	-10.3629	20.0253	1.67834	0
0.5593	-21.4429	-147.45	-12.2424	24.4592	2.91085	-21.9445	-12.8123	-44.0478	-1.0828	0
0.5600	-33.6252	-62.9184	16.7494	19.8763	1.38266	-19.502	-12.8123	-98.3853	-1.38057	0
0.5607	-35.4575	-43.983	14.3201	7.67246	2.28017	-17.0722	-9.13821	-127.671	1.67834	0
0.5613	-28.7226	-98.9303	9.14186	8.29038	3.51728	-13.0951	-2.12642	-114.552	2.89649	0
0.5620	-27.534	-116.605	34.7774	29.351	1.98908	-11.8802	-2.12642	-75.1741	-0.78503	0
0.5627	-25.7017	-81.5072	62.5546	66.5805	2.91085	-13.7089	-6.09663	-11.3978	-3.5191	0
0.5633	-18.3725	-58.3184	42.0973	95.5711	6.86476	-15.5376	-4.87192	63.3607	-4.43948	-0.311877
0.5640	-11.6376	-47.9528	3.03663	101.647	4.12371	-17.3663	-4.26629	77.7069	-5.35986	-0.311877
0.5647	-4.30838	-45.8104	-3.38824	95.2621	1.98908	-15.2307	-6.39271	31.621	-3.81687	0
0.5653	2.67417	-66.2581	9.42955	87.0233	16.6404	-11.2664	-4.26629	0.811302	-0.16242	0
0.5660	4.20934	-84.8784	22.567	83.3672	34.3238	-12.494	0.619084	-31.245	1.67834	0
0.5667	5.15025	-72.0553	37.2068	94.6442	37.6955	-17.3663	10.0803	-76.4009	3.81687	0.311877
0.5673	14.2622	-24.7641	49.7369	109.32	30.9763	-19.2078	19.5415	-80.3783	6.55094	0
0.5680	23.4237	9.73549	55.8421	80.8956	21.2007	-17.0722	17.7112	-47.1149	7.47132	0
0.5687	22.8295	-0.0315064	43.0243	29.351	12.3711	-15.8445	13.1353	-10.4876	7.47132	-0.311877
0.5693	17.3326	-16.5094	9.14186	-16.7352	4.43905	-17.3663	9.47467	-1.64239	9.60984	-0.311877
0.5700	7.27969	-20.7943	-24.1332	-58.2386	-5.65191	-16.7653	3.67413	-22.0833	12.0461	0
0.5707	-6.14069	-8.88482	-43.6636	-42.9967	-13.584	-10.6526	1.22471	-37.9531	9.31207	0
0.5713	-19.2639	-18.6518	-52.5178	-7.26052	-20.5943	-4.85951	-4.87192	-26.6543	4.41241	-0.311877
0.5720	-23.8694	-55.8924	-43.6636	-44.799	-26.1006	1.54737	-12.8123	15.7511	6.25317	-0.311877
0.5727	-14.1137	-12.5396	-22.5989	-86.3024	-24.5724	7.3532	-10.0668	31.9376	7.76909	0
0.5733	-3.71412	66.7937	-14.9594	-65.8596	-22.7289	4.91066	-5.78709	-2.55263	-0.16242	0
0.5740	-1.88182	80.8456	-16.206	-40.525	-22.7289	-0.588256	-5.18146	24.6161	-7.79616	0
0.5747	-4.95217	117.771	-7.95918	-27.4458	-18.1443	-2.11005	-2.12642	133.251	-8.3917	0
0.5753	-13.4699	174.231	-0.639291	-11.5344	-11.134	-3.33771	-2.43596	165.605	-10.8551	-0.311877
0.5760	-15.5993	141.874	-0.639291	-7.56948	-6.86476	1.24045	-5.47754	107.013	-14.2117	-0.311877
0.5767	-11.3405	29.2695	9.14186	-12.4613	-6.25833	13.1462	-5.18146	112.197	-13.5891	-0.311877
0.5773	-15.5993	-71.7402	16.1421	-7.56948	-9.60581	19.86	-7.01179	149.735	-10.8551	0
0.5780	-15.946	-58.3184	3.96361	2.47167	-11.134	18.0313	-9.44775	89.6192	-9.01431	0
0.5787	-7.0816	10.6492	-5.4979	6.43663	-9.60581	16.8037	-10.3629	-19.3327	-8.09393	-0.311877
0.5793	-5.54643	46.9446	2.10966	9.21726	-10.5276	18.3382	-13.418	-88.9069	-6.87578	-0.311877
0.5800	-10.4491	49.087	22.567	11.6374	-11.4494	17.1106	-14.3331	-87.3832	-4.14171	0
0.5807	-16.2431	-4.31638	45.4536	14.6755	-9.60581	13.7601	-10.6725	-32.7687	-2.59872	0
0.5813	-20.7991	-5.23007	57.0567	30.8443	-8.07762	11.9314	-7.61742	-7.44024	-4.43948	-0.311877
0.5820	-18.9668	89.3838	54.5955	51.596	-6.54942	10.0899	-2.43596	-27.2677	-5.35986	0
0.5827	-15.5993	148.584	44.8463	73.5836	-5.02122	2.77503	6.72917	-18.1059	-2.89649	0
0.5833	-10.1519	105.547	33.2431	144.695	-2.8866	-6.07438	15.2752	24.6161	0.75796	-0.311877
0.5840	0.544738	9.73549	20.4254	256.384	1.67374	-7.91588	17.7112	57.2661	5.63056	0
0.5847	1.48565	-42.1556	7.60757	321.42	1.06731	-6.07438	10.3898	56.6527	10.828	-0.311877
0.5853	-4.95217	-71.4566	-0.639291	317.403	-0.145543	-6.07438	0.619084	35.5984	13.5621	-1.24751
0.5860	-4.95217	-99.5289	-10.3885	285.066	6.86476	-4.24567	-2.12642	44.4435	16.0254	-0.935631
0.5867	-6.48734	-102.869	-21.9916	226.775	11.7404	-1.49622	-4.26629	51.4682	18.1369	0.311877
0.5873	-5.84356	-91.9043	-20.1696	153.552	8.99939	-3.64463	-7.61742	-18.1059	18.7595	-0.311877
0.5880	2.37704	-31.1599	-17.7084	104.428	5.04548	-11.2664	-7.92696	-113.939	18.7595	-0.311877
0.5887	4.8036	24.386	-28.7042	67.8163	-0.460885	-20.1158	-9.13821	-106.004	15.7006	0.311877
0.5893	4.50647	20.4162	-40.595	-20.0823	-4.41479	-19.8089	-8.84213	-21.4698	11.1258	0
0.5900	6.33877	61.3116	-43.3439	-184.294	-3.80837	-10.0515	-5.18146	-0.415545	7.47132	-0.311877
0.5907	6.33877	156.524	-33.5948	-364.622	-2.28017	-2.11005	-2.43596	-11.3978	4.71018	-0.311877
0.5913	8.4682	162.92	-12.5301	-433.623	-1.67374	2.46812	1.22471	59.7	2.89649	-0.311877
0.5920	6.98255	-5.23007	1.82198	-315.498	-4.41479	3.37608	4.27975	143.62	-5.65763	-0.311877
0.5927	1.18852	-140.739	7.00024	-140.628	-7.78653	2.77503	2.75896	117.085	-20.9251	0
0.5933	-0.346652	-69.6292	6.39291	-57.0028	-8.68404	4.91066	-0.605625	49.628	-26.0955	-0.311877
0.5940	-0.643782	4.53693	1.50233	-43.3057	-9.92116	8.56808	-3.95675	25.5263	-15.7277	0
0.5947	-3.11986	-40.3283	4.85861	-42.0698	-9.92116	11.9314	-6.09663	-8.9639	-2.59872	0
0.5953	-4.30838	-113.549	15.5348	-39.6496	-7.47119	12.8393	-6.70225	-83.109	6.25317	-0.311877
0.5960	-3.71412	-123.316	24.1013	-45.1079	-5.02122	10.0899	-6.09663	-128.898	10.5302	0
0.5967	2.9713	-69.6292	30.4942	-78.0635	-4.41479	7.3532	-4.26629	-115.779	11.7484	0
0.5973	9.40912	-16.8244	33.8505	-129.351	-5.65191	5.81862	-3.04158	-87.6998	12.9665	0
0.5980	5.74451	33.8379	31.7088	-142.79	-3.80837	1.54737	-3.95675	-73.3536	10.828	0
0.5987	7.27969	79.3017	12.1785	-101.596	3.51728	1.24045	-3.35113	-82.5154	8.06686	-0.311877
0.5993	18.5706	134.249	-27.4895	-57.3118	6.57368	5.81862	-0.296083	-79.7649	8.98724	-0.311877
0.6000	17.9268	141.558	-51.5908	-36.2511	2.28017	5.5117	-1.21125	-26.0408	6.84871	-0.311877
0.6007	10.0034	44.5186	-56.4814	-39.9586	0.460885	3.98991	-3.35113	47.1941	3.49203	0
0.6013	12.4795	5.45062	-60.445	-51.5445	-1.98908	3.08195	-3.95675	97.5542	1.67834	0
0.6020	14.6089	-31.1599	-51.3031	-29.2481	-5.94299	-0.588256	-2.43596	84.7316	-4.14171	-0.311877
0.6027	11.8357	-109.894	-30.8458	21.4211	-6.25833	0.332493	4.58929	47.1941	-8.71653	-0.311877
0.6033	8.81486	-13.4533	-5.81755	31.1533	-7.47119	0.0255764	10.6859	24.0027	-4.43948	0
0.6040	2.67417	47.5747	3.32431	-8.1874	-11.134	-5.78026	10.3898	-24.2203	0.46019	0
0.6047	2.37704	-67.4868	-19.2427	-17.3532	-12.3469	11.0106	8.5595	-53.823	-2.59872	-0.311877
0.6053	11.8357	-83.6496	-25.6675	21.4211	-14.7968	48.5439	8.24996	-52.9127	-10.5302	0
0.6060	18.8678	-27.8202	-0.0319646	64.1088	-15.1122	71.1278	10.0803	-47.1149	-14.2117	0.311877
0.6067	15.7974	-40.9269	14.6398	72.0903	-8.39296	73.2635	10.9955	36.5086	-9.31207	0
0.6073	5.74451	-72.0553	22.2473	40.937	0.145543	67.1635	5.50446	143.323	-2.89649	0
0.6080	-7.67586	-44.5816	40.8827	2.78062	6.57368	65.9358	-0.296083	106.399	-0.46019	0
0.6087	-26.5931	19.1874	53.3808	-26.8279	7.1801	62.2784	-2.73204	-3.16606	-4.43948	-0.311877
0.6093	-36.0518	-38.5009	51.8465	-43.9236	4.43905	45.5003	-4.56238	-28.1779	-9.60984	0
0.6100	-30.9015	-131.571	44.239	-50.9266	5.04548	30.5382	-2.73204	5.99572	-8.71653	0
0.6107	-29.3663	-65.0293	33.2431	-57.9297	5.94299	18.9393	0.0134583	39.5559	-4.73725	0
0.6113	-27.8312	21.6449	26.2109	-32.2861	3.51728	2.77503	-1.52079	63.6773	-5.35986	0
0.6120	-14.1137	15.5327	13.3932	20.4942	1.06731	-14.3228	-3.64721	103.035	-9.01431	-0.311877
0.6127	-4.30838	-32.9873	-16.4937	26.8794	-2.28017	-30.4998	-5.78709	120.746	-11.7484	-0.311877
0.6133	-3.11986	-143.48	-36.951	0.66941	-4.12371	-45.4492	-6.70225	81.0709	-12.371	0
0.6140	6.33877	-240.835	-26.8822	-11.5344	-1.06731	-61.9331	-3.95675	44.4435	-8.3917	0
0.6147	11.8357	-94.0468	-3.67592	-30.4839	1.38266	-75.3607	-3.35113	-3.77948	-3.5191	-0.311877
0.6153	3.91221	159.864	3.03663	-33.213	0.145543	-73.2123	-4.56238	-86.473	-1.67834	-0.623754
0.6160	3.91221	127.223	-21.672	-2.42017	-1.98908	-60.0916	-5.18146	-136.516	-1.67834	-1.24751
0.6167	13.9651	-46.409	-41.2023	16.5293	-4.12371	-45.1423	-7.92696	-132.559	-1.67834	-0.311877
0.6173	21.9381	-114.179	-14.3521	34.2429	-3.20194	-29.886	-7.92696	-116.689	1.3535	0
0.6180	27.3855	-153.531	24.389	63.2335	-0.75197	-17.3663	-4.26629	-85.2461	6.84871	-0.311877
0.6187	28.0293	-135.856	23.1743	84.6031	-0.460885	-10.9595	-3.35113	-43.1375	8.68946	0
0.6193	22.2352	-43.6679	2.71699	140.113	-1.06731	-9.74459	-4.56238	-8.9639	2.89649	0
0.6200	10.3005	33.5229	3.96361	201.441	-1.98908	-11.5733	-4.26629	47.4909	-4.14171	0
0.6207	-4.95217	86.9263	10.6762	191.091	-2.59551	-11.5733	-1.21125	90.8263	-3.5191	0
0.6213	-13.4699	140.046	14.9275	153.243	-0.145543	-7.91588	3.67413	70.9989	1.97611	0
0.6220	-15.946	140.645	36.3117	129.454	1.67374	-7.91588	4.89884	49.3311	3.19426	0
0.6227	-16.2431	37.4927	42.385	102.265	0.460885	-9.74459	0.619084	44.7601	-6.25317	-0.311877
0.6233	-8.31964	-15.9108	11.8908	65.3447	-0.145543	-9.74459	-3.35113	0.811302	-22.7388	0
0.6240	-1.88182	58.5705	-6.74452	5.81871	0.145543	-9.13076	-2.73204	-48.6386	-26.3932	0
0.6247	-3.71412	95.7796	1.21465	-8.49635	1.98908	-7.60896	0.619084	-42.5241	-17.2436	0
0.6253	0.544738	80.5305	-11.6031	56.7968	3.51728	-4.55259	1.22471	34.9849	-8.3917	-0.311877
0.6260	8.81486	55.7979	-40.9146	93.4084	3.51728	0.639409	0.619084	138.752	4.71018	-0.311877
0.6267	6.33877	20.1011	-39.3803	12.2553	2.28017	2.46812	0.928625	144.847	15.1051	-0.311877
0.6273	-6.78447	48.8035	-19.85	-125.386	0.460885	-0.895172	0.928625	62.4505	14.1847	-0.311877
0.6280	-23.5723	85.729	-4.28325	-147.682	-0.75197	-3.64463	0.0134583	24.6161	11.7484	-0.311877
0.6287	-29.0692	52.4582	-4.6029	-91.5032	0.145543	-1.80313	-1.52079	34.6881	11.7484	-0.311877
0.6293	-18.3725	74.4182	-26.2749	-62.2036	1.98908	2.46812	-2.12642	12.407	2.59872	0.311877
0.6300	-8.9139	99.1508	-24.1332	-23.1719	1.67374	4.29683	-3.35113	-26.0408	-13.8869	0
0.6307	-9.80529	-0.346571	-0.639291	-45.7258	-0.145543	3.68299	-5.18146	-54.4364	-14.8073	-0.311877
0.6313	-8.9139	-23.8504	-2.78092	-104.016	-0.75197	4.60374	-5.78709	-56.2569	0.75796	-0.311877
0.6320	-1.88182	117.456	-14.0644	-55.2005	0.460885	6.43245	-4.87192	-29.4048	6.84871	-0.311877
0.6327	2.9713	186.424	-11.6031	17.1472	0.776227	6.73937	-4.26629	-27.2677	6.25317	-0.311877
0.6333	3.31795	41.7775	-1.5343	26.3129	-1.38266	5.21758	-3.64721	-25.744	15.4028	-0.311877
0.6340	1.78278	-102.869	5.78559	27.8062	-3.51728	2.46812	-3.95675	-23.9037	15.7006	-0.311877
0.6347	-1.88182	-93.4166	3.64396	40.0101	-3.80837	-0.28134	-3.64721	-41.0005	4.71018	-0.311877
0.6353	-9.50816	-108.981	1.21465	39.0832	-1.67374	-0.28134	-0.901709	-15.0586	5.9554	-0.311877
0.6360	-13.1728	-126.372	10.0369	16.5293	1.67374	1.54737	3.0685	4.47206	12.6688	0
0.6367	-8.9139	-3.08763	18.8911	-0.875382	2.91085	-0.895172	7.94042	-27.8811	15.1051	-0.311877
0.6373	-3.417	92.4399	16.4618	38.5168	1.98908	-5.16642	10.3898	-17.5123	10.828	-0.311877
0.6380	1.48565	72.9059	19.818	64.7268	1.98908	-3.64463	7.64434	28.5737	8.68946	-0.311877
0.6387	0.841868	64.3677	28.9599	25.3861	1.38266	-0.588256	3.67413	30.7108	12.6688	-0.311877
0.6393	-3.71412	124.482	29.2795	32.0802	0.460885	-2.11005	1.53425	6.29254	14.1847	0
0.6400	-2.17895	122.655	29.2795	52.214	1.06731	-2.72388	1.84379	-7.12363	16.9187	-0.311877
0.6407	5.15025	3.62324	16.7494	0.978368	0.460885	0.933537	1.22471	-25.744	22.7388	-0.311877
0.6413	16.0945	-47.3542	-20.1696	-29.557	-1.98908	1.24045	-3.64721	-49.252	20.6003	-0.311877
0.6420	24.3647	-34.216	-43.0563	-20.0823	-2.28017	-0.895172	-5.78709	-30.9284	15.7006	-0.311877
0.6427	22.5324	22.2436	-43.0563	-10.9165	-0.460885	1.54737	-3.95675	31.0274	13.8869	-0.311877
0.6433	15.7974	94.2673	-44.5906	24.7682	0.776227	5.5117	-1.21125	89.0058	11.4235	-0.311877
0.6440	6.04164	61.5951	-37.5584	-5.76722	1.67374	5.5117	-0.901709	93.5768	15.4028	0
0.6447	-4.01125	80.5305	-34.8094	-158.341	0.776227	1.24045	-4.26629	61.8371	23.0366	-0.311877
0.6453	-5.54643	122.34	-53.1251	-213.902	0.460885	-0.588256	-3.35113	46.2838	18.4617	-1.24751
0.6460	-0.990433	99.1508	-57.4084	-104.325	2.91085	2.77503	1.22471	7.51939	7.47132	-1.24751
0.6467	6.98255	82.3579	-43.3439	-18.28	5.04548	6.12554	3.36458	-56.2569	-2.00318	0
0.6473	14.2622	-59.5472	-45.8052	0.360451	4.12371	6.43245	3.0685	-15.672	-7.17355	0
0.6480	12.7766	-190.456	-60.1253	-7.56948	1.06731	4.60374	0.309542	81.3677	-4.73725	-0.311877
0.6487	3.61508	-170.639	-51.9104	-55.8185	0.460885	4.91066	-1.52079	100.285	1.97611	0
0.6493	-8.31964	-148.049	-18.3157	-95.1592	1.98908	7.04628	0.309542	112.811	6.55094	0
0.6500	-23.8694	-144.394	25.3159	-65.2417	1.06731	4.91066	0.0134583	152.485	2.27388	0
0.6507	-40.6573	-198.396	56.7371	-21.936	-0.75197	1.85429	-2.12642	136.615	-1.67834	0
0.6513	-50.1159	-232.266	41.49	-2.9866	0.145543	3.08195	-2.12642	77.4101	0.46019	0
0.6520	-42.7867	-131.571	8.82222	13.4912	0.460885	4.91066	-3.95675	16.0677	1.97611	0
0.6527	-25.7017	87.5564	22.8547	-20.7002	1.06731	4.91066	-3.64721	-29.4048	3.49203	0
0.6533	-18.0754	333.811	78.7287	-66.7865	1.67374	3.98991	-1.81688	-35.5192	4.41241	0
0.6540	-23.5723	328.014	126.324	-38.1049	0.776227	3.37608	-2.12642	-42.5241	3.49203	-0.311877
0.6547	-26.8903	164.149	131.215	1.85375	1.06731	2.1612	-1.21125	-45.8881	6.84871	0
0.6553	-16.2431	69.5347	101.008	-6.95156	-0.145543	-0.895172	-1.81688	-12.6247	8.68946	-0.311877
0.6560	-5.54643	-114.179	72.3038	-29.2481	-1.06731	-2.41697	-4.26629	7.22257	4.71018	-0.311877
0.6567	-0.0495217	-293.01	54.9151	7.05455	-0.75197	-0.895172	-4.87192	20.0253	1.97611	-0.311877
0.6573	9.11199	-266.166	21.64	70.8544	-1.98908	0.639409	-6.39271	57.2661	0.75796	-0.311877
0.6580	14.2622	-162.101	-6.1372	59.5775	-2.28017	-1.49622	-5.47754	49.9446	3.81687	0
0.6587	15.5003	-96.4727	-5.21022	44.9019	-0.145543	-4.85951	1.53425	-19.9462	11.7484	0
0.6593	26.4941	-49.4651	-26.5626	134.036	1.67374	-1.80313	6.11009	-77.0144	12.9665	0
0.6600	34.1204	-0.346571	-66.5502	238.67	1.98908	3.37608	5.19492	-92.2708	9.90761	0
0.6607	21.2943	39.32	-67.1575	260.04	0.460885	1.54737	1.22471	-112.118	10.828	-0.311877
0.6613	-4.30838	40.2337	-42.4489	238.361	0.776227	-0.588256	-2.12642	-137.743	7.47132	0
0.6620	-19.2639	14.3039	-27.4895	166.683	4.43905	4.91066	-2.12642	-112.712	1.97611	0
0.6627	-15.3022	-21.3929	-29.0238	-14.0061	7.1801	10.3968	-4.56238	-67.5558	3.81687	-0.311877
0.6633	-7.97299	-120.292	-37.5584	-159.886	6.57368	11.3175	-7.30788	-58.0972	2.89649	-0.311877
0.6640	-2.47608	-234.723	-35.7364	-190.37	5.65191	10.3968	-6.39271	-56.8703	-5.35986	-0.311877
0.6647	2.9713	-192.914	-42.1293	-258.444	4.12371	8.56808	-8.84213	-35.2026	-6.57801	-0.311877
0.6653	5.15025	-64.7458	-59.8377	-333.52	4.43905	8.26116	-10.982	-29.4048	1.3535	-0.311877
0.6660	2.37704	-14.0834	-50.6638	-261.173	6.86476	10.7037	-7.01179	-47.7085	7.17355	0
0.6667	0.544738	3.30818	-18.955	-137.589	7.47119	11.6245	-1.81688	-52.5961	8.98724	0
0.6673	6.98255	11.8779	-17.4207	-81.7195	7.47119	7.3532	1.22471	-71.8299	6.55094	-0.311877
0.6680	13.668	6.67937	-24.1332	-58.5476	5.33656	3.08195	-1.52079	-90.4503	2.27388	-0.311877
0.6687	13.0737	62.8239	-15.2791	-37.7959	3.20194	2.77503	-7.30788	-19.3327	-2.30095	-0.311877
0.6693	11.5385	145.213	-33.5948	-28.6301	5.04548	5.5117	-4.26629	86.2553	-5.35986	-0.311877
0.6700	8.17107	159.265	-36.0241	-49.6908	7.47119	6.12554	7.02525	111.584	-3.5191	-0.311877
0.6707	0.247608	102.49	4.25129	-71.9873	5.65191	2.46812	14.36	72.8193	-0.16242	-0.311877
0.6713	-5.2493	32.3256	37.5264	-57.6207	2.59551	-1.49622	15.5713	36.5086	-0.46019	0
0.6720	-13.1728	-4.59994	69.5549	-32.9041	1.38266	-2.72388	11.9106	2.63179	-2.30095	-0.311877
0.6727	-10.7462	-52.8363	119.611	-20.7002	3.20194	0.0255764	6.11009	-61.7579	-2.00318	-0.311877
0.6733	13.9651	-87.6194	160.814	-10.9165	6.86476	4.60374	4.27975	-80.9719	0.13535	-0.311877
0.6740	29.5644	-44.8967	132.429	-3.91347	6.25833	7.64733	3.0685	27.05	1.67834	-0.311877
0.6747	20.4029	-20.1641	28.3526	-2.11122	1.98908	4.60374	0.619084	159.807	0.75796	-0.311877
0.6753	-3.71412	-74.7963	-58.623	-0.257465	-1.98908	-1.80313	1.84379	132.638	-1.0828	-0.935631
0.6760	-27.534	-122.718	-96.1494	5.81871	-2.59551	-3.64463	4.27975	-20.5596	-1.67834	-1.24751
0.6767	-39.7164	-120.575	-107.433	14.0576	0.460885	0.0255764	3.67413	-52.2993	-0.16242	-0.311877
0.6773	-46.4513	-125.175	-73.8701	18.0741	2.91085	0.933537	-0.296083	19.7285	-0.78503	-0.311877
0.6780	-47.3427	-134.911	-0.639291	22.2965	4.12371	0.332493	-3.95675	8.13281	-2.30095	-1.55939
0.6787	-46.4513	-103.499	79.6237	27.8062	5.04548	1.85429	-3.95675	-22.9935	-1.38057	-0.623754
0.6793	-53.7805	-17.4231	132.717	32.6981	5.94299	1.24045	-1.81688	14.5441	0.46019	0
0.6800	-59.8717	71.0786	133.644	44.593	6.86476	1.24045	1.22471	67.0215	1.05573	-0.311877
0.6807	-48.5808	117.141	99.7614	56.4879	5.65191	3.08195	3.67413	86.8687	0.13535	-0.311877
0.6813	-17.7783	126.624	58.2714	58.9595	1.98908	2.1612	1.53425	89.3026	-1.38057	0
0.6820	5.74451	85.729	25.3159	67.8163	2.28017	-0.28134	-2.43596	132.341	-2.00318	0
0.6827	2.07991	115.629	-10.7081	90.6793	3.20194	-0.895172	-5.47754	210.464	-3.22133	0
0.6833	-9.21103	175.743	-44.5906	104.119	3.20194	2.77503	-7.30788	206.19	-5.9554	-0.311877
0.6840	-14.1137	63.454	-56.7691	90.3703	5.94299	7.64733	-5.78709	90.8263	-5.65763	0
0.6847	-18.6697	9.10536	-82.7243	80.5866	7.47119	5.81862	-5.47754	0.811302	-6.25317	0
0.6853	-25.058	216.04	-90.6515	69.3096	5.65191	0.933537	-7.30788	-23.3101	-6.87578	0
0.6860	-30.9015	391.814	-50.6638	29.969	4.73014	2.1612	-7.30788	-27.2677	-1.0828	-0.311877
0.6867	-30.9015	325.588	-30.8458	26.5704	5.94299	6.43245	-5.47754	-22.3801	3.19426	0
0.6873	-15.5993	255.99	-26.2749	26.8794	8.39296	9.18191	-2.12642	-43.1375	9.60984	0
0.6880	-6.14069	284.377	-33.2751	-48.7639	9.92116	9.48883	0.0134583	-87.3832	17.5413	0
0.6887	-24.1666	259.046	-86.4002	-103.707	10.2365	8.56808	-1.81688	-114.255	12.9665	0
0.6893	-33.031	191.622	-101.647	-61.5857	10.5276	5.81862	-4.26629	-98.6821	6.25317	-0.311877
0.6900	-7.0816	81.4442	-19.5623	-9.73219	10.8429	3.37608	-7.01179	-60.8477	5.33279	-0.623754
0.6907	20.9972	69.2512	37.2068	-19.7733	14.5057	4.29683	-5.47754	8.74624	5.03502	-0.311877
0.6913	30.4558	172.372	20.745	-33.8309	17.2468	4.29683	-1.52079	119.519	5.33279	0.311877
0.6920	29.5644	54.8842	39.3484	-14.0061	15.4033	1.85429	-1.52079	180.248	2.59872	0
0.6927	33.229	-238.063	83.5873	-0.875382	12.9776	-0.588256	-0.901709	184.225	-0.78503	0
0.6933	54.87	-305.833	90.2999	0.051493	11.134	-4.24567	0.619084	165.288	-1.0828	-0.311877
0.6940	67.6961	-192.914	67.1256	6.12767	10.8429	-6.07438	0.0134583	63.9742	-1.38057	-0.311877
0.6947	51.2054	-242.663	10.3565	13.8001	13.8993	-2.11005	1.53425	-72.4434	-0.46019	0
0.6953	23.1266	-329.337	-44.5906	13.8001	14.7968	-0.28134	1.84379	-100.819	-0.16242	0
0.6960	-7.67586	-261.283	-40.595	8.59934	12.0558	-2.72388	-1.81688	-47.1149	-1.0828	-0.311877
0.6967	-35.4575	-136.139	-7.35185	7.05455	11.134	-3.33771	-3.64721	-39.7736	-1.0828	0
0.6973	-45.5104	-14.9971	24.389	6.43663	12.3711	-2.41697	-4.26629	-99.5923	0.46019	0
0.6980	-36.9927	128.452	69.2672	7.36351	12.9776	-0.895172	-2.73204	-145.678	2.59872	-0.311877
0.6987	-24.4637	232.801	112.579	7.05455	11.134	-2.72388	-1.52079	-148.429	2.89649	-0.311877
0.6993	-12.8756	67.7074	123.575	3.08958	8.39296	-8.21001	-2.12642	-127.374	3.19426	0
0.7000	-0.990433	-257.313	92.4415	8.59934	6.25833	-11.8802	-4.56238	-83.7225	4.71018	-0.311877
0.7007	9.70625	-335.134	21.64	29.66	5.94299	-9.74459	-6.39271	-50.459	5.63056	0
0.7013	6.6359	-238.063	-45.4856	50.4117	7.78653	-4.24567	-4.56238	14.5441	6.25317	0
0.7020	-4.95217	-112.352	-95.2224	59.8349	8.99939	-0.28134	-2.73204	114.334	6.55094	0
0.7027	-2.17895	123.568	-173.663	59.2685	5.94299	1.24045	-3.04158	125.93	5.33279	0
0.7033	5.74451	189.165	-248.429	59.2685	9.60581	3.68299	-3.35113	54.2187	2.27388	0
0.7040	21.2943	-12.8546	-290.846	61.9976	26.7071	6.43245	-4.56238	-10.171	-0.46019	0
0.7047	53.632	-103.782	-300.627	57.4147	39.2237	5.81862	-4.56238	-39.7736	-0.46019	-0.311877
0.7053	75.6196	-37.8708	-226.469	46.7557	37.0891	6.12554	-0.605625	-76.7175	1.67834	-0.935631
0.7060	70.7665	-40.3283	-112.004	23.8413	30.0546	5.5117	0.619084	-77.0144	2.59872	-0.935631
0.7067	47.8379	-80.5935	-47.3076	-19.2069	23.3596	2.1612	-2.73204	8.13281	2.89649	-0.311877
0.7073	25.6027	-32.3886	3.64396	-51.2356	16.6404	2.46812	-3.35113	70.0886	3.19426	-0.311877
0.7080	20.9972	89.9824	71.3769	-40.834	8.99939	3.68299	-4.26629	92.9634	1.05573	-0.311877
0.7087	30.4558	205.359	98.2591	-14.3151	4.43905	0.933537	-3.95675	118.608	-1.0828	-0.311877
0.7093	24.9589	253.249	92.1538	-2.9866	1.06731	7.3532	0.0134583	130.818	-0.46019	-0.311877
0.7100	11.5385	117.141	61.0204	-1.4933	-6.86476	31.4589	0.0134583	87.4821	-2.00318	-0.311877
0.7107	8.4682	-166.354	-2.46127	3.08958	-14.7968	51.9072	-1.81688	-62.3713	-3.22133	-0.311877
0.7113	6.33877	-267.08	-66.5502	9.21726	-16.9315	57.7002	-0.901709	-202.45	-2.30095	-0.311877
0.7120	7.87394	-145.906	-111.396	2.47167	-15.4033	61.3705	0.619084	-217.706	-0.78503	0
0.7127	13.3708	-77.2538	-123	-15.1904	-14.7968	67.4704	2.15333	-204.884	2.89649	0
0.7133	23.4237	-89.1633	-146.206	-20.3912	-16.6404	66.8566	1.53425	-230.212	3.81687	-0.311877
0.7140	37.1908	-28.4188	-178.554	-13.3882	-18.4597	58.9279	-2.43596	-198.789	-0.16242	-0.311877
0.7147	44.1733	117.141	-197.477	-11.5344	-18.1443	49.1577	-2.73204	-88.61	0.13535	-0.311877
0.7153	43.5791	97.922	-182.198	-12.7703	-18.1443	35.7302	-1.21125	-5.30315	2.89649	-0.311877
0.7160	38.3793	-131.886	-64.1209	-5.1493	-16.0097	19.86	-0.605625	45.6704	1.97611	0
0.7167	24.3647	-268.592	94.5831	2.16271	-11.7404	3.08195	-1.21125	125.613	0.75796	-0.311877
0.7173	19.7591	-256.683	205.053	-0.257465	-11.134	-16.7653	-4.87192	185.135	0.75796	-0.311877
0.7180	25.6027	-167.583	220.012	-3.29556	-10.8429	-42.0859	-6.09663	167.425	1.05573	-0.311877
0.7187	9.70625	-45.4953	112.292	-2.67764	-7.1801	-70.4756	-3.95675	118.608	1.05573	-0.311877
0.7193	-11.3405	-10.7122	-3.0686	-1.18434	-5.94299	-83.2894	-2.43596	69.4752	0.46019	-0.311877
0.7200	-25.058	-7.37251	7.92721	1.85375	-5.94299	-77.7905	0.928625	-8.6473	0.46019	-0.311877
0.7207	-40.3602	54.2856	88.7976	4.01646	6.86476	-70.7826	3.67413	-84.0391	-0.16242	-0.311877
0.7213	-37.2898	116.857	115.648	7.67246	30.3699	-55.2193	4.89884	-127.058	0.75796	-0.311877
0.7220	-26.5931	120.197	105.259	11.3285	42.2801	-28.9652	6.11009	-141.721	3.81687	-0.311877
0.7227	-44.0248	75.3319	92.7612	3.08958	37.3802	-13.402	4.27975	-72.1268	5.9554	-0.311877
0.7233	-63.5363	60.0828	65.3036	-9.73219	31.5828	-6.3813	-0.605625	41.3962	5.9554	-0.311877
0.7240	-36.6956	49.7172	82.6923	-9.11427	27.9199	4.60374	-3.35113	67.9515	6.84871	-0.311877
0.7247	8.17107	58.2554	122.648	-1.80226	16.9315	7.3532	-3.95675	68.5452	5.63056	0
0.7253	24.6618	52.7733	102.223	2.47167	4.12371	2.77503	-2.73204	149.418	3.19426	0
0.7260	13.3708	-101.671	72.3038	3.7075	-2.59551	2.1612	0.928625	153.079	3.19426	-0.311877
0.7267	-0.990433	-153.247	53.7005	0.66941	-6.86476	5.21758	4.89884	2.94839	5.63056	-0.311877
0.7273	-3.71412	0.882181	110.15	3.7075	-14.1904	9.48883	6.41963	-50.7757	6.55094	-0.311877
0.7280	-10.7462	112.257	276.781	14.9845	-22.4378	11.6245	4.58929	32.551	1.67834	-0.311877
0.7287	-9.21103	159.265	315.235	22.9144	-26.9982	9.18191	1.53425	67.3381	-4.43948	-0.311877
0.7293	26.197	162.321	135.178	32.3891	-30.9763	3.37608	-4.87192	90.5295	-5.9554	0
0.7300	65.8638	98.2371	-80.5827	24.4592	-34.0327	-5.78026	-13.418	85.3451	-2.59872	-0.311877
0.7307	66.4581	-18.3368	-229.825	-13.0792	-21.5161	-17.9802	-12.1933	-34.9058	2.89649	-0.311877
0.7313	23.4237	-97.0714	-267.352	-29.557	3.20194	-26.2158	-6.39271	-117.916	5.03502	-0.311877
0.7320	-11.0433	44.8337	-242.323	-17.9711	18.775	-21.0365	-6.39271	-57.4837	3.49203	-0.311877
0.7327	-18.9668	190.393	-176.412	-10.9165	15.7186	-14.3228	-7.30788	2.33497	2.89649	0
0.7333	-25.7017	82.3579	38.1337	-8.80531	8.39296	-16.4584	-7.30788	-22.6967	0.75796	0
0.7340	-27.2369	93.0385	237.72	-2.67764	22.4378	-17.9802	-2.12642	-12.0112	0.75796	0
0.7347	-30.2577	367.082	226.117	1.54479	42.2801	-17.6733	7.02525	47.4909	2.89649	0
0.7353	-29.3663	387.246	127.539	-3.29556	44.0994	-20.1158	10.0803	39.8725	3.81687	-0.623754
0.7360	-18.9668	118.968	45.7413	-8.80531	33.7174	-18.2871	3.36458	-8.9639	5.03502	-1.24751
0.7367	-29.6635	41.1474	-14.3521	-10.6591	23.0443	-14.9238	-7.30788	-38.2499	6.84871	-0.311877
0.7373	-25.4046	51.5446	-65.0159	-11.2255	25.4942	-12.7882	-14.9388	-53.823	5.9554	0
0.7380	25.6027	46.346	-92.1858	-9.11427	37.0891	-7.30205	-9.44775	-48.322	6.25317	-0.311877
0.7387	60.3669	109.201	-33.5948	-8.49635	32.1892	-5.78026	1.53425	-50.7757	9.60984	0
0.7393	51.7997	154.697	57.3444	-9.73219	14.7968	-4.85951	1.53425	-92.8842	10.5302	0
0.7400	17.9268	181.855	77.1944	-6.07618	13.584	2.77503	-3.35113	-44.0478	7.76909	0
0.7407	-24.7608	114.715	27.1379	0.051493	22.1225	9.48883	-7.61742	211.987	3.49203	0
0.7413	-41.5487	20.4162	-35.1291	2.78062	10.2365	11.6245	-10.982	444.831	1.97611	0
0.7420	-20.2048	-135.226	-70.8335	2.16271	-12.9776	10.3968	-10.0668	435.373	2.89649	-0.311877
0.7427	13.3708	-350.383	-83.9389	-0.566424	-27.6046	1.54737	0.619084	319.099	4.11464	-0.311877
0.7433	43.8762	-308.259	-146.813	-6.6941	-39.5148	-13.0951	24.723	181.771	6.84871	-0.311877
0.7440	60.664	-110.21	-287.489	-13.6972	-45.9187	-21.9445	46.7004	-46.1849	10.2054	-0.311877
0.7447	37.1908	-112.636	-356.149	-12.4613	-32.7956	-14.3228	50.065	-256.767	10.5302	0
0.7453	-11.0433	-189.543	-257.89	-5.45826	-15.1122	2.77503	42.1246	-221.664	5.33279	0
0.7460	-43.381	-42.1556	-133.388	-0.566424	-14.1904	18.9393	30.5235	-11.101	-0.78503	0
0.7467	-61.704	139.731	-101.04	3.7075	-25.7853	28.4025	9.77075	36.8252	-4.73725	0
0.7473	-65.9629	143.102	-90.3638	7.98142	-42.2559	17.7244	-19.2185	-62.3713	-11.4506	0
0.7480	-59.8717	291.718	-23.8136	12.8733	-38.302	15.8957	-37.5218	-48.322	-17.8662	0
0.7487	-62.5954	584.98	117.182	16.5293	-10.2122	58.621	-40.8864	68.2483	-17.2436	0
0.7493	-51.3044	538.918	241.972	14.6755	4.12371	102.868	-39.6617	116.471	-14.8073	0
0.7500	-25.4046	245.309	206.587	10.0926	-0.145543	115.081	-35.0859	11.1801	-14.5095	-0.311877
0.7507	-14.1137	-13.4533	144.32	5.81871	3.80837	115.081	-28.6797	-128.285	-12.371	-0.311877
0.7513	-24.4637	-304.006	171.17	2.16271	20.3032	107.446	-14.6427	-163.388	-6.25317	-0.311877
0.7520	-46.7485	-496.573	124.502	-2.9866	32.1892	111.104	12.5163	-109.051	1.97611	-0.311877
0.7527	-51.6511	-480.379	2.71699	-5.76722	38.6173	131.245	32.6634	-16.2854	10.2054	0
0.7533	-40.0135	-325.367	-36.0241	-6.95156	45.943	137.959	26.8628	39.2591	12.9665	0
0.7540	-28.7226	-193.229	-7.35185	-7.87844	36.7738	130.03	8.24996	2.63179	7.47132	-0.311877
0.7547	-5.54643	-198.711	24.9963	-3.60451	16.6404	101.346	-2.12642	-100.206	2.27388	-0.311877
0.7553	9.70625	-201.137	68.6599	0.360451	1.98908	49.4647	-9.13821	-196.335	0.46019	0
0.7560	-11.6376	-110.808	92.7612	3.08958	-16.9315	-7.60896	-15.5578	-206.407	-3.81687	0
0.7567	-14.7079	43.92	98.2591	7.67246	-37.3802	-61.3193	-13.7275	-163.072	-7.49839	-0.311877
0.7573	24.6618	92.1249	99.7614	6.74559	-52.0315	-102.216	-7.30788	-98.9789	-5.35986	-0.311877
0.7580	43.8762	14.619	74.1258	1.28733	-66.9739	-134.864	-4.56238	50.558	-1.67834	-0.311877
0.7587	41.7468	-52.2377	42.7047	-1.80226	-73.0867	-150.427	-3.35113	193.98	-2.30095	-0.311877
0.7593	40.5087	-223.727	60.0934	-1.80226	-66.6828	-127.23	0.0134583	233.358	-4.14171	-0.311877
0.7600	13.9651	-332.677	100.369	-2.42017	-58.4354	-90.9239	2.75896	290.723	-3.5191	0
0.7607	-19.6106	-223.412	32.6358	-1.80226	-52.6379	-74.1331	1.84379	317.279	-2.30095	-0.311877
0.7613	-24.1666	-106.555	-125.749	1.28733	-50.188	-64.3629	-3.95675	191.547	-4.43948	-0.311877
0.7620	-15.5993	29.2695	-214.258	3.08958	-46.8405	-38.7354	-9.44775	75.8865	-6.25317	-0.311877
0.7627	-11.0433	219.694	-244.145	0.360451	-41.043	-17.6733	-13.418	36.2118	-6.87578	-0.311877
0.7633	-18.3725	306.967	-223.72	-4.22243	-34.6391	-18.2871	-17.9938	6.29254	-6.25317	-0.311877
0.7640	-43.381	284.094	-42.4489	-2.42017	-26.1006	-18.2871	-16.1635	-12.3081	-3.22133	0
0.7647	-62.2983	331.385	177.595	1.54479	-18.775	-14.3228	-11.5876	-80.3783	-2.00318	-0.311877
0.7653	-60.466	259.676	244.113	0.978368	-15.7186	-13.0951	-10.3629	-166.733	-2.89649	-0.935631
0.7660	-45.2133	-40.9269	165.385	-0.875382	-14.7968	-11.5733	-9.13821	-123.397	-2.59872	-0.623754
0.7667	-28.1283	-208.793	25.6036	-0.875382	-15.4033	-10.6526	-6.70225	-18.4225	-2.89649	0
0.7673	-19.9077	-166.984	-73.2628	0.66941	-13.8751	-9.13076	-1.52079	58.4929	-3.5191	0
0.7680	-17.1345	-199.94	-76.0117	2.78062	-9.92116	-5.78026	3.0685	141.8	-2.59872	0
0.7687	-13.4699	-395.248	-18.955	2.47167	-9.60581	-3.0308	1.22471	102.125	-1.67834	0
0.7693	-11.9347	-362.293	16.4618	-1.4933	-12.6622	-3.33771	-3.64721	-40.0902	-1.67834	0
0.7700	-15.3022	-28.7339	-36.3437	-5.1493	-13.8751	-6.07438	-6.70225	-82.1988	-0.78503	-0.311877
0.7707	-18.9668	31.3804	-169.7	-5.76722	-10.8429	-8.21001	-5.18146	-41.0005	1.3535	-0.311877
0.7713	-3.417	-218.844	-242.643	-4.22243	-7.1801	-5.47334	-0.901709	-37.6365	2.59872	0
0.7720	39.9145	-226.468	-160.846	-3.60451	-4.73014	-1.80313	1.53425	-81.902	2.59872	-0.311877
0.7727	83.2459	-31.79	-82.7243	-5.1493	-4.73014	-1.20209	-0.901709	-31.245	1.67834	-0.311877
0.7733	89.04	68.9361	-68.3722	-7.26052	-4.73014	-1.49622	-3.64721	95.1005	1.05573	-0.311877
0.7740	54.87	122.655	25.9233	-6.07618	-3.51728	0.0255764	-2.43596	108.833	1.3535	0
0.7747	15.7974	169.032	138.822	-2.11122	-1.38266	2.46812	0.0134583	131.728	1.3535	-0.311877
0.7753	-8.31964	458.639	158.352	0.978368	0.460885	4.60374	1.84379	181.158	1.67834	0
0.7760	-41.5487	851.997	180.632	1.28733	-0.145543	4.91066	3.98367	86.5521	1.3535	0
0.7767	-81.5622	582.554	173.312	-0.566424	-1.98908	3.68299	4.27975	40.1694	0.46019	-0.311877
0.7773	-92.2093	-179.177	81.7654	-2.67764	-5.02122	2.46812	3.0685	87.4821	0.13535	-0.311877
0.7780	-67.2009	-564.911	48.4902	-2.67764	-5.94299	2.77503	3.36458	-53.2096	-0.16242	0
0.7787	-24.1666	-425.463	61.6277	-0.875382	-5.02122	3.68299	4.58929	-210.681	-0.16242	0.311877
0.7793	13.668	-187.715	12.1785	-0.257465	-6.54942	2.77503	3.36458	-112.712	-0.16242	0
0.7800	40.2116	-47.6378	-57.0887	-2.67764	-9.31473	0.332493	-0.605625	-8.6473	-0.78503	-0.311877
0.7807	57.2966	116.857	-78.441	-9.73219	-9.60581	-0.28134	-3.35113	-61.7579	1.67834	-0.311877
0.7813	53.3348	211.156	-67.7649	-16.7352	-8.68404	1.54737	-1.81688	-144.155	5.9554	-0.311877
0.7820	33.5262	111.344	-96.469	-14.624	-8.68404	3.68299	2.44942	-189.31	5.9554	-0.311877
0.7827	29.2178	51.8281	-176.093	-9.42323	-7.78653	6.73937	7.33479	-200.609	4.71018	0
0.7833	42.9848	148.899	-251.178	-10.9165	-8.99939	7.3532	7.64434	-174.667	1.3535	0
0.7840	31.6939	201.673	-285.667	-11.5344	-10.2122	6.12554	4.58929	-55.3467	-5.9554	-0.311877
0.7847	-15.0051	260.59	-191.052	-6.38514	-6.86476	7.64733	3.0685	156.443	-12.0732	-0.311877
0.7853	-43.6781	516.926	10.9638	-2.42017	-4.41479	9.79574	3.36458	310.254	-13.5891	0
0.7860	-45.5104	612.769	140.676	0.051493	-3.51728	10.0899	5.50446	365.798	-10.5302	0
0.7867	-50.1159	337.497	193.45	0.051493	-4.12371	9.48883	7.02525	368.232	-6.57801	0
0.7873	-35.1604	77.7894	160.814	-3.29556	-6.54942	7.3532	4.89884	237.019	-4.73725	0
0.7880	6.6359	-21.3929	60.0934	-5.45826	-6.25833	6.12554	3.67413	-0.712363	-2.30095	-0.311877
0.7887	24.3647	-108.067	96.1174	-5.76722	-5.33656	6.43245	5.19492	-162.458	1.05573	0
0.7893	3.91221	-221.585	216.336	-5.1493	-5.33656	6.73937	6.41963	-234.486	1.97611	-0.311877
0.7900	3.61508	-263.709	244.721	-2.11122	-3.20194	6.73937	7.94042	-278.435	2.59872	-0.311877
0.7907	33.5262	-192.914	197.445	-0.875382	-3.80837	4.29683	7.64434	-220.14	5.9554	0
0.7913	52.7406	-183.462	94.2955	-3.60451	-6.54942	1.85429	5.50446	-62.0547	10.828	0
0.7920	61.605	-280.785	-48.8419	-4.84035	-5.94299	0.933537	3.98367	61.2236	11.4235	0
0.7927	55.8109	-328.108	-182.518	-6.07618	-3.51728	-0.28134	1.84379	143.027	7.47132	0
0.7933	31.3967	-329.62	-274.384	-6.6941	1.38266	-0.895172	0.928625	238.226	5.63056	0
0.7940	13.9651	-307.03	-322.906	-4.53139	8.07762	0.933537	2.75896	215.648	6.55094	-0.311877
0.7947	7.57682	-257.597	-307.339	-4.22243	12.3711	1.54737	3.67413	36.5086	6.55094	0
0.7953	-1.58469	-255.454	-170.915	-4.22243	14.5057	2.46812	3.98367	-134.696	6.25317	0
0.7960	-8.61677	-278.359	79.336	-5.76722	14.1904	2.46812	2.44942	-249.446	5.63056	-0.311877
0.7967	-6.14069	-258.51	324.696	-7.56948	15.7186	2.1612	0.619084	-293.691	4.41241	-0.311877
0.7973	-1.28756	-164.842	348.19	-4.22243	20.5943	4.29683	3.0685	-227.165	5.03502	0
0.7980	-6.14069	-51.6076	155.635	-3.29556	21.2007	4.29683	4.58929	-100.206	5.63056	-0.311877
0.7987	-20.7991	-53.75	36.5994	-7.56948	20.9096	1.85429	1.53425	3.56182	5.03502	-0.623754
0.7993	-19.2639	-157.217	39.3484	-9.73219	25.1789	0.639409	-0.901709	63.9742	5.03502	-0.311877
0.8000	3.91221	-183.746	16.4618	-11.2255	29.7635	0.933537	-1.81688	54.8124	4.71018	0
0.8007	29.2178	-88.8482	-5.21022	-13.0792	35.5609	3.37608	-1.52079	-33.6789	5.03502	-0.311877
0.8013	56.9994	-32.3886	-9.78116	-12.1524	41.3584	8.26116	0.619084	-103.253	6.25317	-0.311877
0.8020	79.8784	-11.3423	-56.7691	-12.4613	41.9648	10.3968	1.84379	-120.963	5.63056	-0.311877
0.8027	68.2904	56.4281	-60.1253	-14.624	39.8302	11.3175	2.44942	-87.0864	4.11464	-0.311877
0.8033	25.8998	25.5832	35.6725	-14.3151	38.9084	14.3611	3.0685	-18.7193	3.19426	0
0.8040	-7.97299	-18.0532	105.579	-13.0792	37.0891	15.2819	2.75896	-25.744	2.89649	-0.311877
0.8047	-12.8756	32.3256	100.369	-10.0411	37.3802	17.4175	5.50446	-43.1375	3.49203	-0.311877
0.8053	-20.7991	45.1172	77.1944	-8.1874	39.5148	19.2462	8.24996	5.67912	4.11464	0
0.8060	-42.7867	25.5832	100.688	-11.2255	37.0891	16.5095	5.814	34.3715	4.41241	0
0.8067	-43.381	5.45062	140.676	-14.3151	34.9545	12.2255	3.67413	19.1151	5.63056	-0.311877
0.8073	-16.8374	30.4667	105.867	-14.3151	34.6391	9.18191	3.0685	-63.5784	6.84871	-0.311877
0.8080	6.04164	81.1291	109.83	-11.2255	34.6391	7.64733	3.98367	-164.912	8.06686	0
0.8087	4.8036	81.4442	245.328	-9.11427	33.7174	5.81862	5.19492	-184.739	8.98724	0
0.8093	19.462	95.496	297.526	-12.1524	30.0546	0.933537	2.44942	-125.534	8.98724	-0.311877
0.8100	66.4581	190.992	108.616	-14.0061	26.7071	-3.0308	0.619084	15.1575	10.2054	-0.311877
0.8107	67.9932	168.433	-110.789	-13.3882	22.1225	-4.55259	0.309542	171.699	10.2054	-0.311877
0.8113	27.3855	-39.4146	-227.364	-10.6591	18.4597	-3.33771	1.22471	236.089	9.31207	0
0.8120	10.9443	-72.0553	-364.716	-5.76722	20.9096	-0.28134	4.27975	221.149	9.31207	-0.311877
0.8127	-11.0433	85.729	-451.691	-3.60451	23.6507	0.639409	3.98367	216.558	6.84871	-0.311877
0.8133	-39.4192	129.365	-381.177	-2.67764	26.7071	1.85429	2.75896	219.625	3.19426	-0.311877
0.8140	-25.4046	102.806	-234.684	-0.875382	30.3699	3.08195	2.44942	201.619	-0.46019	-0.311877
0.8147	6.04164	135.163	-39.3803	1.28733	34.0327	3.98991	2.44942	176.29	-2.59872	0
0.8153	10.6472	153.468	183.093	4.94333	38.302	5.5117	5.50446	45.3538	-2.89649	0.311877
0.8160	13.668	93.9522	275.566	6.74559	39.5148	5.21758	5.814	-185.65	-5.03502	0
0.8167	40.5087	29.8681	180.632	6.43663	38.302	2.1612	2.75896	-292.465	-9.01431	-0.311877
0.8173	36.2499	36.2639	22.2473	8.59934	37.9866	0.332493	1.22471	-199.086	-11.4506	-0.311877
0.8180	8.81486	-5.54514	-85.4732	10.7106	40.1213	-0.28134	1.22471	-24.8338	-12.6688	-0.311877
0.8187	14.906	-103.184	-81.5096	12.2553	44.7058	-1.80313	1.84379	63.0639	-12.6688	-0.311877
0.8193	12.4795	-99.8439	-32.0605	13.8001	44.4148	-3.64463	2.44942	-59.9176	-13.2914	0
0.8200	-17.1345	-105.925	-7.95918	12.5643	34.0327	-6.07438	0.309542	-254.927	-15.1051	0
0.8207	-25.9989	-207.249	26.2109	10.0926	22.1225	-9.13076	-2.73204	-321.454	-17.2436	-0.311877
0.8213	4.8036	-251.201	-11.3155	7.98142	16.0339	-10.3584	-4.56238	-265.612	-16.3232	-0.311877
0.8220	41.7468	-186.802	-136.137	5.81871	13.584	-8.21001	-3.04158	-179.555	-12.9665	-0.311877
0.8227	42.0439	-70.8265	-144.352	5.56125	11.7404	-3.64463	1.84379	-67.2392	-8.71653	0
0.8233	9.70625	41.4625	1.50233	0.978368	4.73014	-3.64463	0.928625	61.8371	-7.17355	-0.311877
0.8240	-15.3022	107.689	54.5955	-5.76722	-4.73014	-5.16642	-3.04158	43.8301	-8.09393	-0.311877
0.8247	-10.4491	101.577	-84.2586	-6.95156	-10.2122	-1.80313	-1.52079	-78.2412	-7.17355	-0.311877
0.8253	-0.990433	75.647	-249.643	-6.38514	-15.1122	3.08195	0.309542	-155.75	-6.87578	-0.623754
0.8260	-3.71412	118.055	-343.331	-2.9866	-16.6404	9.18191	2.44942	-175.894	-5.35986	-0.623754
0.8267	-1.58469	41.1474	-314.34	-2.11122	-19.6725	13.1462	3.98367	-39.7736	-4.14171	-0.311877
0.8273	-0.0495217	-153.247	-189.23	-6.95156	-25.7853	11.3175	1.22471	136.002	-4.73725	0
0.8280	-15.5993	-158.729	-96.7567	-7.26052	-27.3135	10.0899	0.928625	99.6913	-4.43948	0
0.8287	-20.502	12.4766	-17.101	-5.76722	-30.661	8.56808	1.84379	-46.7983	-4.73725	0
0.8293	-6.14069	292.915	116.543	-6.38514	-37.3802	7.3532	1.53425	-113.939	-4.43948	-0.311877
0.8300	-20.2048	480.316	282.886	-8.1874	-41.3584	8.26116	1.84379	-48.0251	-2.59872	-0.311877
0.8307	-47.9865	382.047	384.821	-11.2255	-43.7841	9.18191	0.928625	92.9634	-2.30095	-0.311877
0.8313	-39.1221	269.128	397.639	-13.0792	-46.234	10.7037	0.928625	121.953	-1.38057	-0.311877
0.8320	-8.61677	300.256	363.149	-13.6972	-46.8405	11.3175	2.44942	38.6457	0.46019	-0.311877
0.8327	39.0231	222.436	236.506	-14.933	-46.234	8.87499	1.53425	59.7	1.67834	-0.311877
0.8333	73.4902	-28.7339	82.3727	-14.3151	-42.8866	9.18191	1.53425	161.014	3.81687	-0.311877
0.8340	46.6494	-247.83	-16.206	-14.624	-40.4366	10.7037	2.15333	98.7612	6.25317	-0.311877
0.8347	34.4176	-370.201	-143.457	-17.3532	-41.3584	8.56808	-0.296083	-63.895	6.84871	-0.311877
0.8353	74.7282	-389.451	-266.744	-16.7352	-41.9648	7.64733	-1.21125	-113.939	7.47132	-0.311877
0.8360	92.7046	-336.646	-318.942	-14.3151	-39.8302	6.73937	-1.81688	-73.037	5.9554	-0.311877
0.8367	50.6111	-228.296	-319.55	-11.8434	-35.5609	4.60374	-1.21125	37.4188	4.11464	-0.311877
0.8373	-12.8756	-58.3184	-172.129	-7.87844	-30.0546	4.29683	0.309542	159.193	3.19426	-0.311877
0.8380	-42.1925	64.0526	26.2109	-5.45826	-26.3917	4.91066	-0.296083	130.818	1.67834	0
0.8387	-40.3602	79.0182	93.6562	-4.22243	-25.47	5.5117	-2.43596	-10.171	-0.46019	0
0.8393	-18.3725	67.1087	110.15	-1.4933	-24.8635	4.91066	-5.47754	-116.986	-3.5191	0
0.8400	14.906	78.388	151.96	1.85375	-21.5161	3.98991	-7.01179	-119.736	-5.35986	-0.311877
0.8407	21.9381	54.2856	214.514	4.63437	-18.1443	1.85429	-6.70225	-7.12363	-5.9554	-0.311877
0.8413	2.37704	-15.5957	270.676	6.74559	-16.6404	-2.11005	-7.92696	71.6123	-8.3917	0
0.8420	-4.65504	-59.5472	260	9.21726	-14.7968	-4.55259	-10.0668	73.4328	-11.4506	-0.311877
0.8427	6.04164	-51.0089	164.458	9.21726	-12.6622	-4.24567	-11.5876	137.822	-12.371	-0.311877
0.8433	8.81486	-1.26026	45.4536	8.59934	-9.31473	-3.0308	-11.5876	154.622	-11.4506	0
0.8440	13.9651	53.0569	-12.5301	9.83517	-3.20194	-1.20209	-10.0668	38.0323	-10.2325	-0.311877
0.8447	13.9651	95.181	33.2431	8.59934	1.06731	0.332493	-8.53259	-53.823	-9.31207	-0.311877
0.8453	-14.4108	111.659	115.328	6.12767	2.91085	0.639409	-7.30788	-96.545	-9.01431	-0.311877
0.8460	-30.2577	86.3277	116.255	6.74559	4.12371	0.933537	-5.18146	-171.917	-9.01431	-0.311877
0.8467	-6.48734	53.0569	34.1701	7.36351	4.73014	0.639409	-3.35113	-165.209	-9.01431	0
0.8473	21.9381	13.9889	-81.19	9.83517	7.1801	1.54737	-0.296083	-78.2412	-9.31207	0
0.8480	7.87394	-6.14376	-193.513	12.8733	9.60581	0.933537	1.53425	-92.8842	-10.2325	0
0.8487	-34.5661	14.9026	-213.044	12.2553	8.99939	-0.895172	0.0134583	-172.847	-12.371	-0.311877
0.8493	-44.0248	17.6751	-128.817	12.5643	8.99939	-1.20209	0.619084	-196.652	-13.2914	-0.311877
0.8500	-28.1283	3.02462	-10.3885	11.9464	10.5276	-0.895172	2.44942	-143.244	-13.5891	0
0.8507	-15.946	-20.1641	117.182	11.9464	12.9776	0.639409	6.41963	-51.6859	-12.6688	0
0.8513	-4.01125	-18.6518	206.267	13.4912	14.5057	3.08195	10.3898	-0.712363	-10.2325	0
0.8520	-11.0433	90.2975	205.372	11.9464	13.2686	3.08195	9.47467	-17.8091	-9.93468	-0.311877
0.8527	-22.0371	155.61	122.648	7.67246	12.9776	1.54737	7.94042	-48.9354	-9.60984	-0.311877
0.8533	-5.84356	79.6168	32.6358	4.63437	14.7968	1.85429	8.5595	-87.0864	-7.49839	-0.311877
0.8540	-2.17895	14.619	51.5588	5.56125	19.3814	5.81862	10.9955	-130.422	-4.14171	0
0.8547	-18.3725	-9.19988	118.397	6.43663	22.7289	9.18191	14.9657	-141.404	0.13535	-0.311877
0.8553	-4.95217	-33.6174	76.5871	2.16271	21.8314	8.87499	17.1055	-102.046	3.81687	-0.623754
0.8560	23.7704	-38.7844	-26.5626	-1.4933	20.5943	8.87499	18.9359	0.811302	4.71018	0
0.8567	28.9207	-1.85888	-61.0523	-2.9866	19.6968	7.3532	17.4016	155.533	2.59872	0
0.8573	21.2943	-8.88482	-52.1981	-2.42017	21.2007	7.04628	14.36	241.293	1.3535	-0.311877
0.8580	15.7974	-72.9689	-90.0442	0.360451	24.8635	8.56808	13.4314	185.135	2.89649	-0.311877
0.8587	2.37704	-33.6174	-100.113	0.978368	23.6507	6.73937	9.47467	89.6192	1.05573	-0.311877
0.8593	-14.1137	43.2899	13.7128	1.85375	21.2007	3.68299	4.58929	44.7601	-3.22133	-0.311877
0.8600	-23.2257	29.553	116.862	2.78062	19.9879	2.1612	2.15333	49.628	-5.65763	0
0.8607	-20.2048	1.4808	87.5509	3.39854	17.8532	0.332493	0.928625	31.0274	-5.9554	0
0.8613	2.67417	-0.346571	5.78559	6.12767	15.7186	-0.28134	0.928625	-36.1129	-5.9554	-0.311877
0.8620	17.0355	0.252052	-56.4814	7.36351	14.5057	-0.28134	0.0134583	-46.1849	-6.25317	-0.311877
0.8627	-5.2493	5.13555	-115.36	5.81871	14.7968	0.0255764	-2.12642	8.74624	-7.79616	-0.311877
0.8633	-33.6252	15.2176	-160.238	4.94333	14.1904	-0.28134	-6.09663	29.1871	-9.60984	-0.311877
0.8640	-42.7867	14.3039	-133.676	6.43663	16.0339	1.85429	-7.01179	1.72154	-9.31207	-0.311877
0.8647	-43.381	9.10536	-19.2427	7.67246	18.775	4.91066	-3.64721	-15.672	-7.17355	0
0.8653	-38.1812	14.3039	71.0892	6.12767	17.8532	4.91066	-3.04158	35.8952	-6.57801	0
0.8660	-16.5402	19.5025	45.134	4.01646	17.5379	6.43245	-3.64721	62.7473	-5.35986	-0.311877
0.8667	3.91221	25.2997	-10.7081	1.85375	17.5379	12.5324	-3.04158	-15.0586	-3.5191	-0.311877
0.8673	-1.28756	50.9144	-26.8822	0.051493	17.8532	20.167	3.0685	-27.2677	-0.16242	0
0.8680	-21.4429	49.087	-7.95918	0.978368	20.5943	23.2233	14.36	61.5403	2.89649	-0.311877
0.8687	-38.825	-9.48344	26.8502	-0.566424	20.3032	18.6452	20.7662	103.035	3.81687	-0.311877
0.8693	-34.5661	-23.5353	27.1379	-5.1493	18.4597	11.6245	24.4269	107.626	4.41241	0
0.8700	-11.3405	16.4464	3.64396	-7.56948	18.1686	7.04628	26.8628	64.2908	5.33279	0
0.8707	3.91221	32.9242	-20.4573	-7.87844	17.2468	6.43245	19.232	-14.7617	3.49203	-0.311877
0.8713	9.70625	32.3256	-33.5948	-4.53139	17.5379	9.79574	9.77075	-7.12363	1.3535	-0.311877
0.8720	15.5003	22.8422	-29.3115	-2.11122	17.8532	9.79574	4.89884	-9.57733	-0.46019	-0.311877
0.8727	22.5324	-7.05744	-46.0929	-2.9866	14.7968	7.04628	0.0134583	-102.046	-2.89649	-0.311877
0.8733	22.5324	-27.5051	-81.5096	-2.9866	13.584	5.5117	-4.56238	-136.22	-5.03502	-0.311877
0.8740	20.9972	-22.3066	-101.04	-2.42017	12.6622	4.29683	-8.84213	-39.7736	-5.9554	-0.311877
0.8747	26.4941	-11.3423	-69.9065	-0.257465	12.6622	5.5117	-7.92696	81.6843	-4.73725	-0.311877
