MR32 ASCII
Name	TYR15_fast
Frequency	1500
Date	26-08-2015 11:21:21
"Time,s"	"RT TIB.ANT.,uV"	"RT MED. GASTRO,uV"	"RT LAT. GASTRO,uV"	"RT BICEPS FEM.,uV"	"RT VMO,uV"	"RT VLO,uV"	"RT RECTUS FEM.,uV"	"RT SOLEUS,uV"	"RT SEMITEND.,uV"	"Channel 12,uV"
0.0000	13.3131	258.596	-8.11987	-82.1705	7.22782	27.7267	18.8336	14.8841	-44.9206	-9148.39
0.0007	24.9138	250.333	-34.3533	-126.449	9.66693	44.4981	5.1092	-13.1903	-37.8974	-10368.5
0.0013	18.2296	178.015	-17.8733	-125.786	7.22782	53.0529	-10.7578	7.26185	-28.4231	-9529.12
0.0020	4.19833	24.8194	19.0505	-81.2668	2.64051	40.8409	-16.2565	44.1838	-22.9423	-9855.73
0.0027	-2.5411	-173.867	17.2007	-51.0252	2.32722	23.1351	-11.3721	49.9861	-19.8851	-9848
0.0033	-3.42496	-258.398	1.3453	-44.0371	4.78871	15.8208	-7.71623	33.8046	-17.4615	-9787.77
0.0040	-4.6955	-272.421	13.2368	-59.2784	2.64051	10.9392	-4.36005	11.8388	-15.9191	-9815.15
0.0047	-7.73377	-260.834	26.3776	-109.641	-0.716069	6.05766	-1.30352	-51.0312	-17.1585	-9814.5
0.0053	-13.5341	-148.818	18.1376	-177.715	-0.716069	5.13935	-1.60318	-94.9807	-21.1245	-9809.99
0.0060	-15.9647	-100.002	8.6724	-194.161	2.64051	6.66987	-2.51714	-68.1317	-19.5822	-9786.8
0.0067	-9.22528	-165.309	7.13491	-141.69	4.78871	6.95987	-1.91782	-65.9874	-12.559	-9903.08
0.0073	-9.22528	-184.532	27.2904	-89.2188	4.47543	5.44545	-1.30352	-82.4752	-8.59302	-9707.89
0.0080	-21.765	-107.013	62.6767	-60.7845	3.87125	4.22103	0.224745	-33.0297	-8.29006	-9693.39
0.0087	-33.3657	-5.10213	79.469	-35.7839	2.32722	3.30272	1.13871	19.7674	-8.59302	-10554.4
0.0093	-39.7737	29.6911	73.3671	-8.91586	1.11886	3.91493	1.13871	-17.7672	-7.07822	-7056.01
0.0100	-39.7737	27.8807	46.1968	10.3014	3.24469	9.10261	2.05267	-89.1784	-3.11221	-662.89
0.0107	-40.3813	33.3778	1.65761	40.784	6.91454	14.9025	-0.0749149	-103.216	-0.661001	111.126
0.0113	-47.0655	59.9089	-39.8546	72.5317	8.14529	13.6781	-7.40159	-58.0588	-0.661001	-285.384
0.0120	-46.1817	164.289	-57.5598	35.6032	6.31036	8.4904	-14.114	2.97322	1.15675	42.1956
0.0127	-38.2269	250.959	-40.7675	-29.3982	5.07962	6.05766	-13.8143	41.4268	4.51684	34.4651
0.0133	-29.0569	139.568	-12.396	-31.5067	5.99708	5.44545	-8.92986	29.2276	4.8198	-26.0904
0.0140	-18.7268	-52.4038	4.99684	-5.90374	6.31036	5.13935	-5.57367	-11.3703	3.30501	1.28842
0.0147	-8.61763	-80.1528	11.7234	2.04824	4.78871	5.75156	-6.18797	6.03653	2.09317	-0.322104
0.0153	8.45191	-3.25878	-6.2941	6.92786	3.55797	5.44545	-9.22952	61.5726	1.45971	-0.644208
0.0160	23.6985	-40.1916	-53.8842	18.2534	2.32722	4.52714	-13.8143	100.026	0.247876	-0.644208
0.0167	26.1291	-164.684	-98.1351	30.4224	2.64051	6.66987	-17.1705	153.436	0.853794	-0.644208
0.0173	21.8755	-200.695	-103.636	38.6755	3.87125	6.66987	-15.6422	231.244	4.21388	-0.322104
0.0180	7.84425	-121.365	-92.0332	40.4828	4.47543	-0.660543	-7.40159	309.07	6.96806	-0.322104
0.0187	-9.83294	75.7748	-80.7422	43.5552	4.16215	-5.84822	0.524404	257.805	8.48285	-0.322104
0.0193	-22.3727	263.467	-53.5959	61.2664	2.95379	-4.92991	3.88059	61.2663	10.9341	-0.322104
0.0200	-28.4492	268.668	-23.9752	72.2305	2.95379	-2.49718	16.0917	-77.5919	17.0483	-0.322104
0.0207	-29.996	179.529	17.2007	56.688	5.6838	0.257773	29.5165	-127.326	24.0439	-0.322104
0.0213	-26.6263	46.775	51.6981	37.1695	5.3929	1.77219	20.3619	-193.547	24.0439	-0.322104
0.0220	-11.3797	-67.6443	22.3897	15.7835	12.7102	0.257773	2.36731	-268.328	16.4149	-0.322104
0.0227	9.99866	-82.5886	-16.6722	-13.4943	32.2455	-1.88496	-2.21748	-262.22	11.8429	-0.322104
0.0233	24.0299	-102.438	-2.93084	-15.3618	40.7936	-3.41549	-2.83178	-165.473	7.57397	0
0.0240	29.2226	-190.951	29.4285	13.0123	37.1237	-3.41549	-6.48763	-37.3003	-0.661001	-0.322104
0.0247	29.8303	-247.108	56.5748	13.3738	31.328	-0.966648	-2.83178	28.0023	-3.41517	-0.322104
0.0253	25.5214	-189.733	62.989	-21.7475	26.1365	0.563878	3.58093	-1.60373	-5.23293	-0.322104
0.0260	21.5993	-107.309	18.1376	-38.5551	25.2191	-0.660543	3.88059	-10.4513	-10.4383	-0.322104
0.0267	24.3061	-101.845	-29.4766	-32.1091	19.1101	-2.19107	4.49489	0.540585	-9.19894	-0.322104
0.0273	20.9917	-94.8008	-21.5489	-17.7715	8.74947	-1.27275	6.02316	-57.1398	-4.92997	-0.966311
0.0280	7.2366	74.2607	8.6724	5.12059	2.32722	0.869984	9.37934	-54.0945	-3.41517	-1.61052
0.0287	-8.61763	275.976	15.3749	10.9039	-3.75936	-0.0483324	15.1778	55.7703	-4.02109	-0.322104
0.0293	-27.8416	274.462	12.9485	-6.50617	-11.0991	-2.19107	18.2343	57.9146	-4.92997	0.322104
0.0300	-44.3587	247.305	32.1672	-18.3739	-18.7297	0.563878	16.4064	-61.1041	-3.11221	-0.322104
0.0307	-50.159	305.897	45.5962	-20.5426	-21.1688	2.6905	5.40886	-125.506	-2.20334	-0.322104
0.0313	-46.7893	288.188	27.5787	-18.3739	-15.3731	1.77219	-9.54416	-114.514	-4.02109	0
0.0320	-29.0569	239.372	6.22203	-4.33744	-11.39	3.60882	-15.9569	-64.4557	-4.62701	0
0.0327	-7.40232	131.339	4.08396	14.2774	-8.95086	5.75156	-16.8708	-13.8029	-5.23293	0
0.0333	1.43627	-47.8283	-3.24314	25.5427	-3.75936	5.44545	-17.7848	-29.0654	-4.32405	0
0.0340	2.37537	-94.5046	-44.1308	30.4224	-1.94681	3.91493	-15.6422	-21.4252	-2.20334	-0.322104
0.0347	-0.386689	-107.638	-87.1565	28.6151	-3.15518	1.17609	-11.9864	50.887	-0.0550834	-0.322104
0.0353	1.10482	-161.655	-80.454	47.8324	-1.94681	-0.660543	-8.92986	77.4478	2.69909	0
0.0360	2.98303	-120.443	-37.7165	106.147	-1.32025	-2.19107	-7.71623	72.5645	4.21388	0
0.0367	-3.42496	-27.6832	-12.396	141.208	-6.51175	-4.6238	-10.4581	85.07	3.60797	-0.322104
0.0373	-5.91081	64.1881	-4.75661	131.449	-10.7858	-3.70549	-11.6717	92.7103	3.00205	0
0.0380	-7.73377	71.8248	19.651	118.316	-10.1816	-2.49718	-7.40159	91.4849	1.15675	0
0.0387	-3.42496	-33.1803	40.4072	107.051	-8.95086	-4.01159	5.1092	80.1867	3.30501	-0.322104
0.0393	7.84425	-73.7669	19.3387	146.69	-9.55505	-3.41549	17.62	76.5288	9.72223	-0.322104
0.0400	-1.93344	-67.0518	-8.43217	238.258	-10.4725	-3.10939	14.2638	89.6469	7.87693	0.322104
0.0407	-17.5115	-33.7728	-12.0837	291.03	-8.65996	-3.41549	2.96663	92.7103	5.12276	0
0.0413	-15.9647	104.775	-16.0476	250.186	-8.65996	-4.6238	-2.21748	108.261	5.75622	-0.322104
0.0420	-14.7494	174.657	-8.43217	52.712	-9.55505	-6.15433	-4.65971	147.94	6.6651	0
0.0427	-18.7268	188.087	24.2395	-120.304	-2.23772	-5.54212	-6.48763	138.173	8.78581	0
0.0433	-19.003	253.395	51.3858	-42.8323	4.78871	-5.54212	-8.31555	50.887	4.8198	-0.322104
0.0440	-17.5115	244.54	59.9381	149.762	5.07962	-5.54212	-9.84382	-39.4447	-3.11221	-0.322104
0.0447	-15.0256	67.5456	57.1994	269.102	3.24469	-6.46043	-9.54416	-67.519	-8.59302	0
0.0453	-5.57936	-159.219	30.0291	196.45	-0.111886	-8.60317	-9.22952	-45.5352	-6.47231	-0.322104
0.0460	11.8216	-271.499	-16.3599	50.3023	-0.402789	-7.37875	-6.18797	-8.91965	7.87693	-0.322104
0.0467	18.8373	-254.711	-43.2179	88.4357	-1.02935	-8.90928	-4.65971	31.6602	17.9572	0
0.0473	16.0752	-140.588	-52.3708	207.414	-2.23772	-12.2603	-4.65971	21.299	22.8321	-0.322104
0.0480	17.2905	-140.885	-87.1565	251.692	-0.716069	-10.4237	-2.21748	-52.8692	33.2153	-0.322104
0.0487	16.4066	-344.443	-141.473	266.632	-1.63353	-10.7298	-4.0454	-62.6357	33.5183	-0.322104
0.0493	10.8825	-385.03	-173.52	131.75	-1.32025	-14.097	-4.65971	56.0766	27.1011	-0.322104
0.0500	0.828618	-131.734	-221.735	-204.523	-0.716069	-2.19107	-1.60318	191.277	25.5863	0
0.0507	-13.5341	76.9928	-310.237	-510.975	-0.402789	27.4206	-0.0749149	248.651	29.2493	0
0.0513	-29.0569	133.149	-296.808	-674.533	24.0107	52.1346	3.88059	260.237	37.1813	0
0.0520	-46.7893	158.495	-119.204	-630.857	58.7848	61.2855	4.49489	197.692	26.4951	0
0.0527	-47.397	164.881	50.1606	-402.298	67.3329	61.2855	1.75301	-27.8401	-5.86639	-0.322104
0.0533	-31.8189	192.07	133.786	-229.583	56.0548	58.2406	2.96663	-226.505	-27.2112	-0.322104
0.0540	-24.1957	251.551	197.567	-174.341	41.3977	55.1795	3.28127	-201.494	-29.9654	-0.322104
0.0547	-22.0413	277.194	228.077	-146.268	22.1758	48.7835	-1.91782	-141.057	-25.0905	-0.322104
0.0553	-22.9804	314.423	201.531	-139.521	-1.32025	35.3471	-3.13144	-119.397	-15.3132	-0.322104
0.0560	-31.5427	285.423	166.433	-136.81	-18.4164	17.0452	6.02316	-46.7606	-2.80926	0
0.0567	-32.758	38.5458	113.342	-116.629	-23.8988	1.48219	15.1778	-0.684741	4.8198	0
0.0573	-15.0256	-189.733	31.5666	-97.1106	-28.4861	-7.07264	16.706	3.58588	6.36214	-1.28842
0.0580	6.2975	-218.108	-24.2875	-85.8453	-33.3643	-14.097	17.62	-4.64903	7.27102	-0.966311
0.0587	20.3288	-198.259	-62.1242	-75.7848	-34.2818	-35.4438	15.1778	-27.2274	6.36214	0
0.0593	31.9294	-210.175	-116.753	-63.5556	-32.4469	-65.6676	4.49489	-15.3346	1.15675	0
0.0600	46.0159	-201.616	-158.578	-47.7119	-27.2554	-73.9003	-8.31555	43.2648	-3.71813	-0.322104
0.0607	57.5614	-200.102	-168.019	-32.1091	-21.773	-64.1371	-17.7848	104.909	-5.23293	0
0.0613	55.4622	-266.924	-182.985	-24.5186	-11.39	-56.5167	-20.227	150.679	-5.86639	0
0.0620	35.9068	-302.638	-150.025	-24.8198	-3.75936	-42.4681	-17.4702	189.133	-3.71813	-0.322104
0.0627	15.799	-258.398	-68.2261	-23.5547	-6.82503	-24.4723	-15.0279	123.83	-0.96396	-0.322104
0.0633	19.1135	-132.655	-62.4365	-16.5666	-10.7858	-13.1786	-11.6717	-19.2989	-1.87284	-0.322104
0.0640	22.8146	34.5957	-53.8842	-5.24108	-10.1816	-4.6238	-9.54416	-119.397	-3.11221	0
0.0647	12.4293	48.9146	52.2987	1.44581	-8.0334	1.77219	-10.7578	-164.554	-2.80926	0
0.0653	27.0682	-46.2812	124.32	-0.0602423	-4.67683	2.6905	-10.4581	-122.749	-0.96396	0
0.0660	43.8615	-50.2642	106.639	-1.62654	-1.94681	1.77219	-7.10193	-62.3294	1.15675	0
0.0667	27.3996	-22.186	90.4476	3.85551	-3.75936	1.48219	-8.31555	-19.9115	0.247876	-0.322104
0.0673	9.99866	-1.11918	106.327	16.3859	-1.02935	3.60882	-9.22952	53.0314	-1.56988	-0.322104
0.0680	1.71248	114.222	112.117	26.1451	7.83201	6.36377	-7.71623	70.7265	-2.20334	0
0.0687	-4.6955	203.657	81.6071	24.0367	9.35365	3.60882	-11.6717	-47.0669	-1.87284	0
0.0693	-4.6955	140.16	22.3897	18.8558	6.60126	0.869984	-12.9003	-175.852	-0.0550834	-0.322104
0.0700	-12.595	8.03174	-49.0075	19.157	4.47543	4.83324	-9.54416	-194.773	0.247876	0
0.0707	-21.4336	-33.4765	-117.978	22.1692	0.201394	9.10261	-11.0724	-157.238	0.853794	0
0.0713	-11.1035	28.4732	-157.665	25.2415	-5.59429	6.05766	-11.9864	-157.238	4.21388	-0.322104
0.0720	0.220965	51.9759	-185.724	25.8439	-10.4725	2.99661	-9.84382	-167.005	4.8198	-0.322104
0.0727	0.497171	76.0711	-191.538	25.5427	-10.1816	17.9474	-7.71623	-112.37	0.247876	0
0.0733	6.02129	73.0427	-157.953	23.7355	-6.82503	39.6165	-4.0454	-122.136	-0.96396	0.322104
0.0740	16.4066	-21.5606	-169.556	21.2655	-1.02935	47.253	1.43837	-227.73	3.30501	-0.322104
0.0747	27.6759	49.2438	-171.694	20.6631	7.22782	43.902	13.3498	-201.188	11.237	0
0.0753	37.7298	216.462	-54.8211	19.4583	7.22782	36.5715	22.8041	-59.8788	16.4149	0.322104
0.0760	44.7454	170.378	65.1271	19.157	-3.46846	35.6532	13.6495	-17.1546	13.3853	0
0.0767	60.6549	99.2775	46.8214	22.5306	-13.2249	30.1594	-3.74574	-59.8788	5.12276	0
0.0773	86.8944	185.026	-44.1308	27.4102	-17.1857	10.327	-11.0724	-33.3361	-0.0550834	-0.322104
0.0780	95.733	365.378	-33.1521	30.4224	-18.4164	-15.3053	-7.71623	89.9533	2.09317	-0.322104
0.0787	72.8632	492.964	61.7639	26.4464	-18.4164	-42.162	-3.13144	182.123	7.27102	-0.322104
0.0793	52.4239	286.048	97.7747	21.2655	-20.5422	-45.5291	-2.21748	216.901	7.87693	-0.322104
0.0800	44.1377	-184.532	80.9825	22.1692	-27.8819	-23.554	-5.57367	244.687	3.91092	-0.322104
0.0807	21.5993	-450.041	124.633	25.8439	-32.4469	-11.6481	-8.31555	237.659	1.15675	-0.322104
0.0813	-2.8173	-421.041	225.026	32.5911	-25.4428	-18.9785	-4.0454	277.644	1.15675	0
0.0820	-16.9038	-384.733	220.774	40.1816	-18.1031	-20.4929	-2.21748	340.803	-1.87284	0
0.0827	-37.6193	-327.063	162.469	41.1455	-18.1031	-4.92991	-8.6302	258.111	-7.9871	0
0.0833	-59.8815	-167.745	168.884	35.6032	-16.8948	3.30272	-10.7578	190.664	-11.3472	0.322104
0.0840	-83.0828	-128.08	109.979	29.2175	-14.1424	-1.57886	-8.92986	187.619	-11.6501	0
0.0847	-111.201	-120.739	35.5304	28.3139	-7.42922	-0.966648	-6.48763	18.8484	-8.89598	-0.322104
0.0853	-111.201	19.026	72.1419	32.5911	3.24469	2.6905	-4.65971	-286.33	-5.53589	0
0.0860	-94.0758	23.6015	144.476	32.8923	5.07962	-6.46043	-5.87333	-400.159	-5.86639	0
0.0867	-89.4908	-16.9851	188.415	26.7476	0.514675	-9.19927	-5.27401	-221.009	-2.80926	-0.322104
0.0873	-64.1903	44.6683	156.992	22.5306	-3.75936	22.2329	-3.74574	-87.0521	3.91092	0
0.0880	-22.9804	17.8081	81.6071	13.3738	-5.30339	64.9588	-4.0454	-84.2952	7.87693	-0.322104
0.0887	6.90515	53.8192	33.6806	-1.92775	-3.15518	95.7788	-1.91782	-22.0378	13.6882	-0.966311
0.0893	28.2835	293.389	13.5491	-3.43381	-4.38592	108.281	2.05267	90.8723	17.3513	-0.322104
0.0900	35.0229	481.345	14.462	4.51817	-9.26414	101.885	2.96663	143.669	14.9001	0.322104
0.0907	32.2609	712.06	7.75952	8.13271	-12.0165	89.0605	0.839047	114.982	12.7518	0
0.0913	16.6828	1005.05	-13.9095	8.79537	-12.6207	67.6976	-4.0454	68.2939	12.1459	0
0.0920	-5.91081	836.584	-9.03275	11.5063	-13.2249	45.1103	-6.18797	28.9213	13.3853	0
0.0927	6.62895	325.121	23.6149	13.3738	-18.7297	26.1962	-3.74574	-8.61332	15.203	-0.322104
0.0933	51.4848	-120.739	-2.93084	9.3978	-25.1296	-4.01159	-6.78729	-19.6052	12.1459	-0.322104
0.0940	71.6479	-500.074	-83.5049	5.72302	-24.5254	-36.6682	-10.4581	-44.9226	9.41927	0
0.0947	53.3078	-639.247	-111.564	6.62665	-20.5422	-61.3983	-9.22952	-77.5919	7.57397	-0.644208
0.0953	31.0456	-566.929	-138.134	11.8075	-11.39	-76.6552	-4.65971	-57.1398	6.96806	-1.61052
0.0960	4.80599	-562.65	-198.24	17.5907	2.32722	-87.9489	2.36731	-26.9211	10.3281	-0.322104
0.0967	-18.1191	-494.281	-266.899	13.0123	5.99708	-95.2632	2.05267	-5.56802	6.05918	-0.322104
0.0973	-18.3953	-396.32	-308.411	9.69901	2.64051	-74.2064	-1.30352	-2.81104	-0.0550834	-1.61052
0.0980	-25.1348	-376.504	-248.281	13.675	1.72304	-38.8109	3.28127	26.1823	2.69909	-0.322104
0.0987	-33.6419	-273.046	-159.491	14.2774	-0.402789	-20.4929	8.46538	82.0247	5.12276	0
0.0993	-17.7877	-151.583	-107.288	13.9762	0.201394	-11.6481	9.07969	49.3734	4.51684	-0.322104
0.1000	-2.8173	-68.566	-16.0476	12.1087	0.201394	-11.9542	4.80954	-64.1494	1.15675	-0.322104
0.1007	-4.97171	-8.75591	135.924	9.09658	-3.46846	-21.1052	1.13871	-172.807	-2.20334	-0.322104
0.1013	-3.7564	-26.4652	282.706	8.43392	-4.38592	-22.3296	3.28127	-118.784	-0.661001	-0.322104
0.1020	1.10482	-60.0076	350.764	8.79537	-3.46846	-16.5297	2.96663	35.3362	0.853794	0
0.1027	-9.55673	-106.717	272.04	8.13271	-1.94681	-11.9542	0.224745	116.514	2.09317	-0.322104
0.1033	-29.7198	-147.303	174.073	5.72302	-2.23772	-8.29707	2.96663	198.899	5.42572	-0.322104
0.1040	-35.4649	96.8417	218.324	2.34945	-6.19847	-11.342	3.58093	165.329	5.75622	-0.322104
0.1047	-24.1957	442.601	234.804	-0.0602423	-7.7425	-17.7541	2.96663	-8.61332	4.8198	-0.322104
0.1053	-11.9873	413.009	92.898	0.240969	-3.46846	-14.9992	10.6079	-41.2646	6.96806	-0.322104
0.1060	-4.97171	174.065	-90.2074	0.843392	2.03632	-2.19107	18.2343	34.1109	8.17989	-0.322104
0.1067	-0.386689	5.89214	-214.408	-0.662665	5.07962	20.0902	15.1778	60.9599	9.41927	-0.322104
0.1073	6.90515	-60.9293	-262.334	-2.83139	5.07962	39.9226	5.40886	100.639	10.3281	-0.322104
0.1080	15.4675	-42.3312	-291.931	1.1446	3.24469	37.4898	-3.74574	131.758	8.17989	-0.322104
0.1087	14.5837	-26.4652	-345.935	8.13271	3.55797	18.2535	-10.7578	40.5258	3.60797	0
0.1093	12.4293	-117.711	-404.24	7.22907	2.64051	1.48219	-17.4702	-88.2595	-0.96396	0
0.1100	9.66721	-206.817	-434.437	4.51817	2.64051	-0.0483324	-18.0845	-113.289	-2.20334	0
0.1107	2.65158	106.914	-352.974	6.32544	8.43619	9.40871	-9.22952	-19.2989	3.00205	0
0.1113	-8.00998	619.596	-97.2222	5.12059	9.35365	16.433	-2.83178	111.937	7.57397	0
0.1120	-39.166	724.272	165.232	1.74703	12.7102	19.1719	-0.988877	217.207	6.6651	0
0.1127	-60.8206	550.339	256.473	-0.0602423	35.9153	17.9474	2.96663	261.769	3.30501	-0.322104
0.1133	-47.397	266.199	258.923	-1.32533	56.659	17.6413	5.7235	107.054	1.15675	-0.322104
0.1140	-26.9577	-138.152	260.749	1.44581	55.1373	20.7024	5.7235	-147.778	3.30501	-0.322104
0.1147	-12.9264	-449.415	220.149	3.85551	47.5067	20.7024	7.23678	-260.075	6.96806	0
0.1153	-2.8173	-580.359	141.113	3.25308	37.7279	20.3963	9.37934	-279.915	6.96806	-0.322104
0.1160	2.65158	-500.404	116.993	2.04824	23.3841	23.4412	9.99365	-239.948	5.42572	0
0.1167	-6.51847	-271.203	110.891	-0.662665	6.31036	23.7473	5.7235	-116.334	3.30501	-0.322104
0.1173	-28.7807	-139.37	31.8549	-0.662665	-8.65996	21.6207	2.05267	-18.3799	1.76267	-1.28842
0.1180	-49.5514	-65.5047	21.4768	5.12059	-13.8291	22.2329	6.93712	69.8075	3.91092	-0.644208
0.1187	-63.5827	85.5512	122.807	6.62665	-18.1031	19.478	9.679	210.504	4.21388	0.322104
0.1193	-60.4891	242.4	127.996	3.25308	-25.4428	10.9392	6.63746	286.798	1.45971	-0.322104
0.1200	-38.2269	392.864	9.58529	0.240969	-26.6512	7.57208	4.49489	201.656	-0.96396	-0.322104
0.1207	-9.55673	463.668	-97.5345	-2.53018	-23.6079	12.4537	4.19523	50.5807	-0.661001	0
0.1213	-2.20965	471.897	-103.036	-5.24108	-15.3731	17.6413	6.93712	-24.4885	4.8198	-0.322104
0.1220	-30.6036	519.495	-0.192186	-5.60253	-2.8419	17.6413	10.2933	-57.7525	8.48285	-0.322104
0.1227	-54.0812	459.093	69.6915	-4.33744	0.805578	13.372	10.2933	-80.0245	4.51684	0
0.1233	-43.4196	98.9813	31.5666	-4.63866	-3.15518	10.327	6.32282	-2.50471	0.550834	-0.322104
0.1240	-23.588	-275.778	3.17107	-4.33744	-3.75936	10.327	2.96663	106.441	-0.0550834	-0.322104
0.1247	-11.3797	-190.951	49.2477	-1.62654	-3.15518	11.2453	4.49489	112.225	1.15675	-0.322104
0.1253	-4.6955	113.629	54.7491	0.843392	-3.46846	9.10261	7.85108	62.1853	3.00205	-0.322104
0.1260	7.84425	107.836	-4.15603	-0.361454	-5.59429	6.36377	7.23678	10.9198	2.69909	0
0.1267	16.4066	5.89214	-13.9095	-2.53018	-7.42922	6.05766	4.19523	-56.2208	0.853794	0
0.1273	3.59068	17.1827	-43.5062	-2.22896	-6.19847	6.95987	3.28127	-77.2856	-0.358042	-0.322104
0.1280	-20.5497	-67.3481	-107.6	1.1446	-2.551	10.0209	4.80954	14.2714	0.247876	-0.322104
0.1287	-45.574	10.7638	-66.4003	4.21696	0.805578	12.7598	6.63746	53.644	0.550834	0
0.1293	-49.5514	185.948	-2.01796	2.65066	0.805578	12.7598	5.7235	-82.1689	-0.358042	-0.322104
0.1300	-20.2183	91.97	-33.1521	-0.361454	-1.02935	11.8576	3.28127	-125.794	-2.80926	-0.322104
0.1307	17.2905	-30.7115	-26.4256	-1.62654	-1.02935	11.2453	2.05267	-50.7249	-3.41517	-0.322104
0.1313	31.6532	-98.4875	133.473	-1.02412	-0.402789	10.6331	2.36731	-81.8625	-0.96396	-0.322104
0.1320	18.8373	-102.141	267.163	1.1446	0.805578	12.7598	4.19523	-93.1427	2.69909	-0.322104
0.1327	4.19833	-49.3425	212.534	1.1446	0.201394	12.4537	5.1092	-26.6148	4.51684	0
0.1333	2.37537	-100.594	66.6406	-3.1326	-3.15518	7.26597	2.96663	-1.60373	2.09317	-0.322104
0.1340	2.37537	-135.717	-113.414	-4.63866	-2.8419	5.44545	3.28127	43.8775	0.247876	-0.322104
0.1347	-2.5411	-140.885	-222.96	-1.62654	-1.02935	9.40871	5.7235	72.8708	0.550834	-0.322104
0.1353	-9.83294	-242.203	-155.214	1.1446	-0.716069	12.1637	6.63746	15.8031	1.45971	-0.322104
0.1360	-11.1035	-389.901	-103.949	2.34945	-1.32025	12.7598	6.63746	-4.95536	3.00205	-0.322104
0.1367	19.1135	-358.795	-131.095	-0.0602423	-4.38592	8.7965	2.36731	-34.8677	0.550834	-0.322104
0.1373	63.9693	-147.896	-97.2222	-2.53018	-3.75936	4.83324	-0.988877	-151.129	-2.20334	-0.322104
0.1380	56.9537	-122.286	-5.38121	-0.662665	2.95379	4.83324	2.05267	-178.591	-0.661001	-0.322104
0.1387	14.5837	-313.633	101.45	-0.361454	5.99708	5.44545	3.58093	-103.216	-0.661001	0
0.1393	14.8599	-399.974	190.865	0.542181	6.60126	6.66987	2.96663	-66.2937	-2.5063	0
0.1400	40.8233	-289.208	251.596	0.240969	7.22782	5.44545	2.66697	-24.7948	-3.41517	0
0.1407	35.2991	-129.594	332.77	-1.92775	5.99708	3.30272	1.13871	25.876	-4.02109	0
0.1413	31.6532	-54.2142	390.138	-1.02412	5.07962	2.99661	1.75301	25.2633	-3.71813	0
0.1420	61.8702	-35.9124	316.579	0.240969	2.95379	0.869984	3.28127	20.38	-1.87284	0
0.1427	90.8718	-27.0577	138.975	-0.361454	-1.32025	-0.660543	8.16572	59.4463	0.550834	0.322104
0.1433	102.141	57.1768	-101.186	-0.662665	-3.75936	1.77219	14.2638	130.858	2.09317	0
0.1440	91.4795	275.383	-323.978	-1.32533	-4.38592	3.91493	12.1212	157.094	0.550834	0
0.1447	73.1394	353.791	-408.804	-2.53018	-2.8419	5.75156	9.07969	159.238	-0.661001	0
0.1453	77.7244	134.367	-449.716	-4.03623	-1.32025	5.75156	9.37934	142.444	-0.0550834	0
0.1460	71.9241	-149.443	-437.8	-5.60253	-1.94681	1.77219	5.7235	11.5325	-0.358042	0
0.1467	35.9068	-290.723	-233.939	-3.43381	-1.32025	-1.57886	2.05267	-120.929	-1.56988	-0.322104
0.1473	2.98303	-188.812	-45.6442	0.542181	-0.111886	-4.01159	-0.389557	-152.967	-2.80926	-0.966311
0.1480	-9.22528	73.0427	-66.7126	2.04824	-1.63353	-7.37875	-3.13144	-121.523	-2.80926	-0.966311
0.1487	10.6063	151.451	-140.248	-1.02412	-5.30339	-10.4237	-1.91782	-86.1332	0.853794	-0.322104
0.1493	21.2679	-22.4823	-124.705	-6.20496	-7.11594	-11.9542	-2.21748	-94.0617	2.39613	0
0.1500	-33.0343	-114.946	-38.9417	-7.4098	-2.23772	-10.1176	-3.13144	21.8937	4.8198	-0.322104
0.1507	-109.322	-15.1747	8.96068	-5.60253	5.99708	-9.19927	6.63746	195.547	10.3281	-0.322104
0.1513	-138.655	82.4899	-70.0759	-4.63866	11.7928	-8.60317	14.8781	160.139	10.0252	0
0.1520	-122.746	126.138	-245.854	-3.43381	20.945	-4.92991	10.2933	11.2261	6.05918	0
0.1527	-86.784	75.4786	-420.095	-4.33744	29.8064	-4.6238	2.36731	-142.588	2.39613	0
0.1533	-47.397	-51.4821	-504.032	-5.24108	30.4106	-8.90928	2.96663	-246.038	1.45971	0
0.1540	-23.9195	-172.024	-385.021	-2.83139	27.9715	-9.19927	9.99365	-127.019	4.51684	0
0.1547	-10.772	-245.264	-106.375	-2.22896	23.6974	-5.23601	10.6079	167.473	5.42572	0
0.1553	6.90515	-145.789	143.563	-2.83139	19.7367	-7.07264	6.32282	309.377	1.15675	-0.322104
0.1560	24.6376	13.8251	342.524	-4.03623	14.8584	-13.1786	0.839047	181.204	-2.80926	-0.322104
0.1567	22.8146	105.4	492.982	-4.63866	-1.02935	-12.5664	-10.1585	14.2714	-5.53589	0
0.1573	-1.93344	134.367	511.912	-0.0602423	-0.111886	-8.29707	-12.9003	-54.6891	-7.68414	0
0.1580	-32.4266	94.7021	450.869	5.72302	28.2847	-7.37875	-2.21748	-132.822	-8.29006	0
0.1587	-54.7441	21.4619	424.323	5.12059	41.3977	-8.29707	0.224745	-203.314	-9.8324	-0.322104
0.1593	-54.7441	-32.8511	365.73	2.65066	35.6021	-4.6238	-11.6717	-200.269	-11.0442	0
0.1600	-32.4266	-45.3596	250.371	0.542181	25.2191	-0.966648	-23.5832	-220.414	-11.3472	0
0.1607	-7.40232	-104.577	213.135	0.542181	5.3929	-1.88496	-23.2686	-185.312	-9.8324	0
0.1613	3.59068	-126.862	194.204	4.21696	5.6838	-4.3177	-12.9003	-55.9145	-6.16935	-0.322104
0.1620	8.45191	-107.013	86.4838	2.34945	43.2327	-7.99096	-7.10193	7.55017	-4.92997	0
0.1627	16.4066	-148.225	21.4768	-2.53018	67.6462	-12.8725	-8.01589	39.3005	-5.23293	-0.322104
0.1633	14.8599	-114.65	63.9019	-4.63866	52.6982	-16.2236	-6.48763	42.6521	-3.71813	-0.322104
0.1640	24.3061	-30.4153	109.378	-4.93987	26.7407	-14.6931	-1.60318	-40.3456	-2.80926	-0.322104
0.1647	64.3008	12.6072	117.306	-0.662665	8.14529	-11.6481	-0.0749149	-93.4491	-2.5063	0
0.1653	85.3477	43.4175	105.702	1.1446	-9.26414	-16.5297	-7.40159	-40.3456	-3.41517	0
0.1660	75.9014	83.4116	95.6367	-2.22896	-23.2946	-20.7991	-17.7848	35.0299	-4.92997	0
0.1667	55.7384	131.635	87.3967	-3.43381	-34.2818	-16.5297	-19.3131	10.0008	-5.23293	0
0.1673	29.2226	161.853	6.84663	-3.1326	-49.543	-14.6931	-12.5857	-28.4528	-5.53589	-0.322104
0.1680	25.2452	203.657	-93.2584	-0.662665	-54.4213	-16.2236	-5.87333	23.4253	-3.71813	0
0.1687	38.9451	222.584	-87.757	1.44581	-47.7081	-16.8358	-6.18797	39.3005	-0.96396	0
0.1693	53.0316	165.803	-103.949	-2.83139	-45.269	-14.387	-12.286	-15.0283	-0.661001	0
0.1700	45.6845	97.7634	-183.586	-6.50617	-41.9124	-7.99096	-13.2	-31.8044	-0.358042	0
0.1707	10.8825	29.6911	-158.866	-6.80738	-36.1167	-3.70549	-9.22952	-22.6505	-2.5063	-0.322104
0.1713	-1.602	-43.8454	-81.9674	-4.93987	-23.8988	-3.41549	-0.988877	-47.6796	-2.5063	-0.322104
0.1720	8.12046	-110.074	-22.7741	-1.92775	-2.8419	-10.7298	16.0917	-96.206	3.00205	0
0.1727	24.6376	-110.667	58.4006	-7.10859	8.43619	-22.3296	36.5435	-111.469	6.05918	0
0.1733	43.8615	-65.8339	109.69	-12.2894	5.3929	-22.9418	42.6416	-48.5986	6.6651	-0.322104
0.1740	33.4762	-94.8008	138.374	-11.3858	-3.46846	-17.1419	29.5165	33.1919	5.42572	-0.322104
0.1747	10.8825	-112.51	202.156	-8.01222	-8.95086	-10.7298	19.7625	26.4886	6.6651	0
0.1753	15.1913	-84.7282	259.523	-5.24108	-9.55505	-0.0483324	23.4184	-61.7167	10.6311	-0.322104
0.1760	28.8912	-123.801	224.425	-8.01222	-12.9116	7.26597	29.5165	-88.5658	10.6311	0
0.1767	39.8842	-142.728	82.8323	-9.81949	-12.9116	6.36377	31.9587	-52.2565	7.87693	0
0.1773	55.7384	-86.8678	-42.9056	-6.80738	-8.0334	2.6905	24.9467	-43.7153	4.51684	-0.966311
0.1780	59.7158	-26.1361	-106.687	-4.03623	-5.90757	-2.49718	24.0327	30.1466	3.60797	-0.644208
0.1787	45.0768	83.1153	-156.44	-3.73502	-5.30339	-9.19927	41.4279	100.333	9.41927	0
0.1793	12.4293	166.724	-91.1203	-7.71101	-2.551	-9.81148	47.2263	79.8804	13.6882	0
0.1800	-36.7354	101.713	9.58529	-8.91586	2.03632	-7.37875	32.8727	163.509	9.72223	0
0.1807	-81.8675	-16.3926	-64.5746	-7.10859	5.6838	-0.354438	15.4774	238.884	3.00205	-0.322104
0.1813	-96.8379	-34.3982	-185.123	-4.93987	8.43619	8.7965	4.80954	173.275	-0.358042	-0.322104
0.1820	-86.4525	60.8305	-173.52	3.55429	12.3969	7.26597	3.28127	164.428	-0.96396	0
0.1827	-76.6748	102.043	-102.123	9.09658	14.5452	1.17609	1.43837	203.476	-6.16935	-0.322104
0.1833	-50.159	77.6182	-73.4151	6.32544	17.9017	-1.57886	1.43837	201.043	-10.7413	-0.322104
0.1840	-5.91081	125.842	-68.8507	4.81938	20.6541	-5.54212	1.43837	122.605	-12.2561	0
0.1847	10.6063	119.423	-62.7488	6.02423	20.945	-0.966648	-4.95937	17.0104	-13.1649	-0.322104
0.1853	0.497171	-51.7784	-62.4365	8.79537	20.6541	14.9025	-8.31555	-83.3762	-11.0442	-0.322104
0.1860	-22.0413	-216.264	-34.065	7.53028	12.3969	14.2903	-11.6717	-228.343	-12.862	-0.322104
0.1867	-38.5584	-234.895	-2.61854	6.62665	1.40976	1.48219	-16.8708	-283.879	-16.525	-0.322104
0.1873	-28.173	-84.432	-31.6146	8.13271	-4.67683	-4.3177	-17.7848	-203.314	-15.9191	0
0.1880	-10.1644	125.216	-54.8211	6.02423	-8.0334	-4.92991	-20.5267	-162.734	-16.2221	-0.322104
0.1887	8.45191	209.747	-28.2514	7.22907	-8.65996	-1.27275	-18.9984	-156.625	-13.1649	-0.322104
0.1893	26.7368	148.719	-41.0798	8.79537	-9.55505	1.77219	-14.114	-61.1041	-10.1354	-0.322104
0.1900	35.9068	61.1268	-110.051	3.85551	-12.9116	0.563878	-15.9569	-18.3799	-11.6501	-0.322104
0.1907	35.9068	44.0429	-107.6	-0.662665	-13.2249	0.563878	-18.6988	-106.874	-10.4383	0
0.1913	21.5993	69.3889	-3.84372	-2.83139	-11.0991	2.6905	-19.3131	-20.2179	-8.59302	-0.322104
0.1920	-0.110482	59.6126	64.5265	-1.02412	-9.55505	6.36377	-16.8708	189.439	-8.29006	-0.322104
0.1927	-12.9264	6.81381	34.9058	1.74703	-10.4725	7.87818	-15.3426	140.912	-7.68414	-0.322104
0.1933	-24.1957	-38.6445	9.89759	-0.361454	-14.7465	5.75156	-18.3841	-8.00065	-10.4383	-0.322104
0.1940	-44.6349	-32.5549	56.5748	-0.361454	-15.664	3.91493	-19.6127	-22.6505	-13.1649	0
0.1947	-70.8745	-5.99089	102.363	2.34945	-13.8291	2.07829	-19.6127	-29.3718	-15.6162	0
0.1953	-68.1677	-8.13049	115.792	6.62665	-9.55505	2.6905	-19.6127	-62.9421	-15.6162	-0.322104
0.1960	-33.6419	-15.471	87.3967	9.09658	-5.90757	2.3844	-19.9124	-80.3309	-15.0102	-0.322104
0.1967	-11.7111	-6.32006	28.5156	6.62665	-8.0334	-1.57886	-23.5832	-100.783	-18.3703	-0.322104
0.1973	1.10482	-19.421	39.182	6.32544	-8.34668	-2.49718	-21.7553	-120.316	-18.3703	0
0.1980	14.8599	-16.3926	63.9019	4.51817	-7.11594	-2.49718	-16.2565	-95.2871	-17.1585	-0.322104
0.1987	17.2905	62.3447	2.57049	2.04824	-5.30339	-0.0483324	-6.18797	-30.8854	-13.1649	0
0.1993	5.08219	112.411	-68.2261	2.04824	-0.402789	4.83324	6.63746	30.4529	-4.92997	0
0.2000	-18.7268	75.7748	-76.1778	-1.62654	1.11886	4.83324	6.93712	123.217	-4.02109	0
0.2007	-28.4492	47.4004	-61.2113	-3.43381	0.514675	3.30272	-1.30352	172.969	-7.07822	-0.322104
0.2013	-21.1574	43.4175	-62.1242	-3.1326	1.11886	2.99661	-7.10193	116.208	-8.89598	-0.322104
0.2020	-16.2409	20.5402	-58.4727	-2.53018	2.64051	4.83324	-7.10193	54.563	-7.9871	-0.322104
0.2027	-15.0256	-7.53798	-81.6551	0.843392	5.6838	8.4904	-0.0749149	-2.81104	-4.02109	-0.322104
0.2033	-8.61763	-13.0351	-147.575	1.1446	5.99708	7.26597	3.28127	-47.9859	-4.92997	-0.322104
0.2040	13.0369	-1.7446	-165.905	-0.662665	5.3929	6.36377	6.02316	-72.4023	-5.53589	0
0.2047	31.9294	8.03174	-108.225	-2.53018	5.3929	7.26597	9.07969	-128.245	-3.71813	0
0.2053	34.6915	20.8364	-13.3089	-2.53018	6.31036	8.18429	8.16572	-138.011	-3.11221	-0.322104
0.2060	19.4449	28.1769	102.363	-0.0602423	9.66693	11.5514	9.07969	-43.4089	-0.358042	-0.322104
0.2067	-12.3188	18.4006	160.043	-2.53018	8.74947	11.2453	6.63746	41.7331	-0.661001	-0.322104
0.2073	-23.3118	15.9647	135.924	-5.60253	7.83201	10.6331	5.40886	46.6164	-0.661001	-0.322104
0.2080	-10.1644	19.026	101.138	-5.60253	9.04037	10.0209	5.7235	15.4968	0.550834	-0.322104
0.2087	-3.14875	5.29963	64.2142	-5.24108	9.35365	7.26597	0.839047	-2.19838	-1.87284	0
0.2093	-1.602	-2.63336	19.9633	0.843392	11.7928	6.95987	-0.0749149	-12.8839	-2.80926	-0.322104
0.2100	-3.42496	6.18839	2.85877	5.12059	12.7102	6.05766	0.224745	-39.4447	-4.92997	-1.28842
0.2107	1.71248	9.87509	4.39626	3.55429	12.3969	3.60882	4.19523	-50.1122	-6.47231	-0.322104
0.2113	18.8373	5.29963	-24.9121	0.542181	12.106	2.3844	11.8216	-25.7138	-5.86639	0
0.2120	24.6376	9.24966	-53.5959	-2.22896	11.5019	1.77219	14.5635	-20.5242	-5.86639	-0.322104
0.2127	19.4449	17.4789	-34.9779	0.240969	14.8584	5.44545	19.7625	-27.5338	-0.96396	-0.322104
0.2133	13.9208	14.4505	-12.0837	1.44581	16.0668	7.26597	23.7181	-11.3703	3.00205	0
0.2140	10.2749	12.9034	-12.9966	-0.0602423	14.8584	5.44545	22.1898	-1.91007	0.550834	0
0.2147	9.99866	12.9034	-11.4831	0.843392	15.4626	5.44545	20.3619	-3.11737	-1.87284	0
0.2153	7.2366	5.89214	-7.20698	1.1446	15.7535	5.75156	17.62	-10.4513	-2.5063	-0.322104
0.2160	5.41364	8.32799	-20.0114	3.55429	18.5059	8.7965	21.5905	-7.08166	2.09317	-0.322104
0.2167	7.51281	14.1214	-40.4552	3.25308	19.1101	9.40871	27.0742	7.55017	5.12276	-0.322104
0.2173	9.66721	11.093	-47.1817	-0.662665	17.5884	7.87818	29.8311	7.55017	5.42572	-0.322104
0.2180	6.62895	3.75253	-36.2031	-2.83139	17.2975	8.18429	34.7156	12.1451	8.48285	0
0.2187	-3.42496	-1.11918	-16.6722	-5.24108	16.671	8.18429	34.7156	22.5063	10.6311	-0.322104
0.2193	-7.73377	3.75253	-12.6843	-4.03623	19.4234	12.4537	33.487	37.1562	14.2942	-0.322104
0.2200	-0.110482	6.51756	-26.1133	-4.03623	20.3408	13.6781	30.1308	49.9861	15.506	0
0.2207	14.2522	1.61293	-10.5702	-7.10859	18.5059	10.6331	22.1898	31.6602	11.237	0.322104
0.2213	22.4832	-3.25878	14.7743	-7.71101	18.215	10.0209	18.5339	4.8112	9.41927	0
0.2220	9.99866	-3.8842	11.4111	-7.71101	16.9843	9.40871	17.3203	6.64919	7.27102	-0.322104
0.2227	-9.55673	0.0987509	13.8614	-5.24108	18.5059	11.8576	19.7625	25.2633	8.48285	-0.322104
0.2233	-18.7268	-0.197502	14.1497	-3.73502	20.3408	13.0659	20.3619	27.3896	9.72223	-0.322104
0.2240	-14.1418	-0.526671	1.3453	-5.90374	17.9017	9.40871	12.1212	5.11753	4.51684	-0.322104
0.2247	-5.30316	5.59588	-2.93084	-4.63866	16.3801	6.66987	3.58093	-1.91007	-0.0550834	0
0.2253	-0.110482	7.73548	-4.15603	-2.22896	16.9843	4.83324	-4.0454	11.8388	-2.80926	0
0.2260	6.02129	8.03174	4.08396	2.65066	19.4234	5.44545	-6.78729	18.5421	-3.11221	-0.322104
0.2267	7.51281	6.51756	12.3239	4.51817	19.1101	4.52714	-9.84382	17.6231	-4.92997	-0.322104
0.2273	5.41364	3.16003	6.22203	1.74703	15.7535	0.563878	-16.8708	11.5325	-9.50189	-0.322104
0.2280	9.99866	5.29963	0.744722	2.04824	14.8584	-0.660543	-17.7848	6.34286	-10.7413	-0.322104
0.2287	14.2522	9.24966	-6.2941	2.34945	14.2319	-1.27275	-17.1705	4.8112	-12.2561	-0.322104
0.2293	14.2522	14.1214	-10.8585	5.42181	15.4626	0.563878	-15.9569	1.76591	-12.2561	-0.322104
0.2300	9.99866	15.9647	-9.03275	8.43392	15.7535	0.257773	-16.5562	-9.22598	-13.1649	-0.322104
0.2307	4.80599	9.54592	-13.3089	7.22907	13.0235	-3.41549	-21.7553	-18.6862	-18.0674	-0.322104
0.2313	1.43627	4.67421	-20.3237	6.32544	11.7928	-4.92991	-23.2686	-17.7672	-20.1881	-0.322104
0.2320	-4.97171	1.31668	-22.1495	5.72302	10.8753	-5.23601	-21.4406	-8.61332	-20.491	-0.322104
0.2327	-2.8173	-1.7446	-20.3237	8.43392	13.6277	-2.19107	-11.9864	7.26185	-17.1585	-0.322104
0.2333	5.41364	-5.69463	-19.7231	10.3014	16.9843	-0.354438	4.19523	17.9294	-10.7413	-0.322104
0.2340	2.98303	-8.45966	-23.9752	5.72302	15.4626	-1.57886	17.3203	15.1904	-8.29006	0
0.2347	-1.602	-4.18045	-25.825	2.04824	15.1493	0.257773	29.2168	7.55017	-5.23293	-0.322104
0.2353	-5.91081	-3.25878	-18.8102	0.542181	14.8584	2.99661	34.1013	12.1451	-2.5063	-0.322104
0.2360	-7.12612	-2.63336	-8.72045	3.25308	17.2975	9.40871	36.8431	24.3443	1.45971	0
0.2367	-6.79467	-2.63336	-7.49526	3.25308	18.8192	12.4537	32.8727	20.6864	5.75622	-0.322104
0.2373	-8.94908	-10.5663	-3.84372	-3.1326	15.7535	8.18429	14.8781	7.8565	3.60797	-0.644208
0.2380	-3.7564	-13.0351	8.0478	-2.83139	16.671	7.26597	4.19523	1.76591	3.60797	-0.966311
0.2387	-1.93344	-9.67758	8.96068	-1.62654	16.0668	3.91493	-1.60318	-0.378409	2.09317	-0.322104
0.2393	-5.91081	-6.61631	8.3601	0.843392	14.8584	-0.966648	-6.18797	2.97322	-1.56988	0.322104
0.2400	-4.03261	-2.3371	12.0357	6.92786	16.9843	-1.57886	-4.95937	10.9198	-0.96396	0
0.2407	-4.97171	-4.47671	3.79568	7.22907	13.941	-6.76654	-9.84382	11.2261	-5.53589	-0.322104
0.2413	-3.42496	-5.69463	-3.24314	7.8315	12.106	-8.90928	-10.4581	9.38815	-9.8324	-0.322104
0.2420	1.43627	-3.25878	-3.24314	8.79537	13.0235	-7.37875	-3.4311	8.77549	-8.29006	-0.322104
0.2427	1.43627	-3.55503	-5.06891	6.92786	13.0235	-7.07264	1.43837	5.11753	-6.47231	-0.322104
0.2433	3.25923	-0.197502	-3.24314	7.53028	15.4626	-3.41549	9.679	4.19854	-0.96396	-0.322104
0.2440	2.37537	0.395003	-5.06891	4.21696	14.5452	-1.88496	14.5635	1.45958	2.09317	-0.322104
0.2447	-0.386689	-1.11918	-8.43217	1.44581	13.3144	-2.19107	14.8781	-2.19838	1.76267	-0.322104
0.2453	0.497171	1.02043	-6.89468	3.55429	15.7535	-2.49718	18.2343	-1.60373	2.69909	-0.322104
0.2460	0.220965	2.23835	-5.9818	4.51817	16.3801	-1.88496	30.1308	1.15325	4.21388	-0.322104
0.2467	1.43627	3.75253	-4.15603	4.51817	16.3801	2.3844	45.3834	5.11753	8.17989	-0.322104
0.2473	1.10482	1.61293	-6.89468	1.44581	14.5452	2.99661	45.9977	3.58588	8.78581	-0.322104
0.2480	-1.32579	-3.8842	-11.1708	-0.662665	12.3969	0.257773	42.9562	1.45958	6.36214	-0.322104
0.2487	-0.994342	-4.77296	-9.34506	1.74703	13.6277	1.77219	46.3124	8.16283	7.87693	-0.322104
0.2493	-0.110482	-3.25878	-5.38121	2.34945	15.4626	6.66987	46.3124	13.3524	12.7518	-0.322104
0.2500	0.828618	-2.04085	-3.84372	-1.92775	15.4626	11.5514	42.6416	11.2261	18.8661	-0.322104
0.2507	-0.110482	-2.04085	-6.2941	-8.61465	13.3144	13.9842	32.573	8.16283	22.5291	-0.322104
0.2513	-3.14875	-2.63336	-9.34506	-12.5906	10.5844	14.9025	16.4064	6.64919	23.135	0
0.2520	-3.42496	-2.63336	-9.03275	-13.4943	9.95784	15.5147	2.96663	2.07224	22.8321	0
0.2527	0.497171	-1.41543	-5.9818	-11.687	11.1886	14.9025	-3.13144	1.15325	22.2262	-0.322104
0.2533	2.04393	-0.822924	-4.75661	-9.51828	11.7928	13.0659	-4.0454	5.11753	19.472	-0.322104
0.2540	-1.32579	-1.7446	-5.9818	-10.1809	9.95784	8.7965	-8.31555	3.89221	15.506	-0.322104
0.2547	-1.602	-1.11918	-6.2941	-10.1809	9.04037	5.13935	-16.5562	-0.378409	12.7518	0
0.2553	-0.386689	-0.822924	-6.89468	-7.71101	9.04037	1.77219	-28.7673	-0.378409	9.41927	-0.322104
0.2560	-0.718136	-1.41543	-7.20698	-4.93987	8.43619	-0.660543	-40.3641	1.45958	5.75622	-0.322104
0.2567	-0.386689	-0.822924	-5.66949	-2.83139	8.74947	-2.80328	-36.7083	2.6849	2.69909	-0.322104
0.2573	-0.994342	-0.526671	-5.9818	-2.22896	9.35365	-6.15433	-14.4286	3.58588	-0.0550834	-0.322104
0.2580	-1.602	-0.526671	-7.49526	-1.62654	9.66693	-8.60317	-46.1626	2.97322	-1.56988	-0.322104
0.2587	-0.386689	0.0987509	-6.89468	-0.662665	9.95784	-7.99096	-145.65	3.27955	-0.96396	-0.322104
0.2593	1.71248	3.16003	-3.53142	1.44581	12.106	-5.23601	-189.595	6.03653	2.39613	-0.322104
0.2600	2.37537	4.37795	-3.24314	2.04824	13.0235	-5.23601	-172.499	7.26185	3.60797	0
0.2607	0.828618	3.45628	-6.2941	1.74703	11.7928	-7.99096	-160.603	4.50487	0.550834	-0.322104
0.2613	0.220965	4.67421	-8.43217	2.95187	11.5019	-9.81148	-144.736	3.89221	-0.96396	-0.322104
0.2620	1.10482	3.45628	-11.4831	2.34945	9.95784	-11.9542	-121.842	4.8112	-2.20334	0
0.2627	7.51281	5.29963	-9.03275	6.02423	11.5019	-9.19927	-93.7635	10.6135	-2.5063	-0.322104
0.2633	11.8216	8.32799	-5.9818	10.0002	13.3144	-6.46043	-60.8159	14.8841	-2.20334	-0.322104
0.2640	7.2366	4.37795	-11.4831	6.02423	11.5019	-9.81148	-36.7083	8.77549	-4.62701	0.322104
0.2647	6.90515	2.83086	-12.9966	3.85551	11.7928	-10.7298	-33.6518	8.77549	-2.80926	0
0.2653	5.08219	-0.197502	-11.1708	2.04824	11.7928	-10.7298	-56.5308	12.1451	-2.5063	-0.322104
0.2660	-0.994342	0.724173	-6.58238	1.74703	13.6277	-7.07264	-87.0511	10.3071	-1.26692	0.322104
0.2667	-4.97171	4.97046	-3.24314	2.65066	14.8584	-4.6238	-82.4813	13.0461	2.09317	0.322104
0.2673	-11.1035	-0.526671	-5.9818	-2.22896	10.5844	-9.81148	-22.9689	13.3524	-1.87284	-0.322104
0.2680	-10.4406	-2.96253	1.033	0.542181	9.04037	-9.81148	49.6686	11.8388	-4.62701	-0.966311
0.2687	-3.7564	-0.197502	12.6362	7.22907	10.2711	-7.68486	64.0073	16.4158	-3.71813	-0.322104
0.2693	-8.61763	-0.822924	15.6872	7.8315	7.83201	-10.4237	31.659	15.4968	-7.07822	0
0.2700	-21.4336	-2.04085	17.8253	7.53028	5.6838	-13.4847	15.4774	8.16283	-8.59302	0
0.2707	-26.0186	-2.96253	17.2007	6.92786	4.16215	-14.387	27.9882	2.37857	-9.19894	0
0.2713	-23.3118	-3.25878	11.4111	5.72302	2.64051	-13.1786	64.3069	0.846916	-11.3472	-0.322104
0.2720	-23.588	-2.3371	7.44722	6.62665	1.11886	-12.2603	128.704	4.19854	-11.9531	-0.322104
0.2727	-25.1348	0.395003	6.84663	7.53028	0.805578	-11.9542	192.486	5.7302	-9.50189	0
0.2733	-20.8259	1.61293	5.62145	5.72302	0.201394	-10.7298	218.122	3.89221	-6.77526	-0.322104
0.2740	-9.22528	-1.41543	1.65761	1.74703	-2.23772	-9.50538	215.68	4.8112	-8.29006	-0.322104
0.2747	12.4293	-2.96253	0.744722	0.542181	-3.46846	-7.99096	215.38	13.3524	-9.19894	-0.322104
0.2753	39.608	-2.96253	1.94589	2.65066	-3.75936	-4.6238	212.623	24.038	-9.50189	-0.322104
0.2760	57.8928	-2.3371	3.79568	6.32544	-3.15518	-0.660543	184.246	29.2276	-9.50189	-0.322104
0.2767	63.0855	-1.7446	4.39626	6.92786	-2.551	-2.19107	143.657	28.3086	-7.9871	-0.322104
0.2773	61.2625	-2.96253	3.17107	3.25308	-2.8419	-10.4237	112.223	25.5697	-6.16935	-0.322104
0.2780	58.5005	-4.47671	3.48338	0.843392	-2.23772	-18.6724	78.346	26.777	-3.41517	0
0.2787	65.2399	-6.61631	3.48338	0.240969	-2.23772	-22.9418	32.2733	29.5339	-3.41517	0
0.2793	71.0402	-5.69463	3.79568	1.74703	-2.551	-20.4929	-7.40159	31.6602	-3.11221	0
0.2800	50.5457	-0.822924	4.39626	3.55429	-3.15518	-14.387	-35.4797	29.5339	-0.96396	0
0.2807	21.8755	1.9421	3.48338	3.25308	-3.46846	-11.6481	-60.8159	24.038	-0.0550834	-0.322104
0.2813	-0.994342	4.37795	8.3601	4.81938	-1.32025	-8.60317	-66.2997	27.696	1.45971	-0.322104
0.2820	-12.3188	1.02043	10.1859	3.25308	-1.63353	-4.92991	-46.4622	35.3362	-0.0550834	0
0.2827	41.4309	-2.04085	6.53433	1.44581	-3.15518	-1.27275	-40.9784	40.8141	-4.62701	-0.322104
0.2833	142.136	2.83086	5.30914	4.81938	-3.15518	0.257773	-69.3562	47.2291	-4.62701	-0.322104
0.2840	208.978	3.75253	0.432419	3.25308	-5.90757	-4.01159	-86.4518	44.1838	-6.77526	-0.322104
0.2847	259.634	1.9421	0.744722	2.65066	-4.99011	-3.70549	-67.8279	38.0752	-8.59302	-0.322104
0.2853	327.967	0.0987509	14.462	7.8315	0.201394	2.07829	-50.133	40.5258	-5.53589	-0.322104
0.2860	279.742	-8.45966	22.3897	6.62665	1.11886	3.60882	-52.5753	40.5258	-6.16935	-0.322104
0.2867	-45.8502	-13.3314	24.5278	4.81938	2.03632	4.83324	-43.7203	41.1205	-7.38118	0
0.2873	-390.114	-15.1747	24.8401	6.02423	1.72304	4.22103	-24.1825	47.2291	-8.29006	0
0.2880	-401.99	-17.2814	17.8253	6.02423	-2.23772	0.563878	-20.227	50.5807	-11.9531	0
0.2887	-286.647	-8.75591	5.90973	6.92786	-4.99011	-1.27275	-29.9809	45.1028	-13.1649	0
0.2893	-246.376	5.89214	-6.89468	8.43392	-4.99011	-0.966648	-32.4232	33.4982	-11.6501	-0.322104
0.2900	-141.362	18.4006	-19.7231	8.13271	-3.15518	0.869984	-24.4972	16.7221	-8.29006	-0.322104
0.2907	67.3391	24.8194	-30.1012	3.85551	-3.15518	2.6905	-7.10193	-0.072078	-5.53589	-0.322104
0.2913	297.143	22.6798	-29.7889	0.542181	-3.75936	3.91493	31.0447	-4.95536	-4.02109	0
0.2920	471.705	13.5289	-18.1856	-1.32533	-2.551	7.26597	71.334	3.27955	-1.56988	-0.322104
0.2927	452.812	0.724173	-5.06891	-3.73502	-1.63353	11.5514	94.213	18.2357	1.15675	-0.322104
0.2933	281.288	-9.05216	3.79568	-6.20496	-1.94681	13.372	103.068	31.0656	3.91092	0
0.2940	207.099	-13.9239	8.3601	-7.4098	-2.8419	10.6331	92.385	36.8499	6.36214	-0.322104
0.2947	177.822	-18.2031	13.2368	-6.20496	-4.07264	4.22103	61.8647	40.2195	4.51684	-0.322104
0.2953	10.6063	-16.6889	19.651	-2.83139	-4.38592	-0.966648	7.85108	39.9132	0.247876	0
0.2960	-266.207	-13.0351	25.753	0.542181	-4.38592	-6.76654	-123.67	30.1466	-4.32405	0
0.2967	-495.68	-13.0351	30.6297	3.55429	-4.67683	-8.90928	-273.215	20.38	-9.19894	-0.322104
0.2973	-486.565	-12.4097	34.6175	6.32544	-4.67683	-4.6238	-313.803	17.9294	-11.9531	0
0.2980	-361.72	-11.8172	38.5814	5.42181	-3.75936	-0.966648	-279.627	17.0104	-8.29006	0
0.2987	-302.501	-13.3314	42.5452	2.65066	-2.551	-0.354438	-241.78	14.5778	-3.41517	0.322104
0.2993	-177.711	-14.5493	37.3562	-0.662665	-3.75936	0.257773	-205.162	6.95552	-2.20334	-0.644208
0.3000	6.2975	-8.75591	22.702	-2.22896	-5.30339	0.257773	-159.689	-12.8839	-4.32405	-1.28842
0.3007	104.572	6.81381	12.9485	2.04824	-3.15518	1.77219	-112.387	-29.9844	-3.71813	-0.322104
0.3013	115.288	15.6685	4.39626	3.25308	-3.15518	0.563878	-69.9705	-34.255	-4.92997	0
0.3020	117.388	16.5901	-5.9818	0.843392	-4.99011	-1.27275	-4.95937	-32.7234	-6.47231	0
0.3027	128.104	23.6015	-6.58238	3.55429	-2.8419	1.48219	60.9508	-27.8401	-3.11221	0
0.3033	85.3477	23.6015	-7.20698	2.65066	-4.38592	-1.57886	72.8622	-22.3442	-4.92997	-0.322104
0.3040	36.5145	19.026	-8.43217	0.240969	-6.82503	-8.29707	74.0758	-14.7219	-8.89598	0
0.3047	-45.8502	20.2439	-3.24314	2.65066	-6.19847	-8.90928	91.4711	-4.95536	-8.29006	0
0.3053	-281.454	15.9647	-2.33026	1.74703	-8.65996	-9.50538	84.7587	-1.60373	-9.8324	0
0.3060	-430.716	12.6072	-2.01796	1.1446	-10.1816	-8.60317	71.0193	-3.4237	-11.3472	0.322104
0.3067	-263.445	14.4505	6.22203	4.21696	-7.42922	-2.19107	53.0248	0.540585	-8.29006	0
0.3073	-72.4212	6.18839	11.4111	1.1446	-7.42922	0.563878	21.8901	9.08182	-8.29006	-0.322104
0.3080	-177.711	-3.8842	19.651	-0.361454	-5.90757	4.52714	20.0622	18.8484	-7.07822	-0.322104
0.3087	-325.426	-7.83424	33.0801	2.95187	-1.02935	9.10261	49.0543	26.1823	-1.56988	0
0.3093	-206.381	-15.7672	33.9929	0.240969	-1.32025	6.36377	78.346	26.4886	-1.26692	0
0.3100	-33.9734	-19.7502	28.8039	-4.33744	-2.551	3.30272	84.4591	28.3086	-0.358042	0
0.3107	26.1291	-12.7059	25.4407	-3.73502	-0.716069	4.22103	38.3714	31.3539	3.30501	-0.322104
0.3113	76.7853	-5.39838	18.1376	-2.53018	-0.402789	4.83324	0.839047	23.4253	3.91092	0
0.3120	11.214	-1.41543	9.89759	-3.1326	-2.8419	2.6905	17.62	1.76591	1.76267	0
0.3127	-182.904	4.67421	1.3453	-3.43381	-5.59429	0.563878	42.3419	-19.9115	-1.26692	-0.322104
0.3133	-182.572	10.4676	-7.80757	-3.43381	-7.42922	0.563878	50.5825	-25.4075	-4.02109	-0.322104
0.3140	-20.5497	12.3109	-11.4831	-3.1326	-7.42922	1.17609	43.5555	-22.6505	-4.92997	0
0.3147	91.7557	13.8251	-11.1708	-2.53018	-6.82503	0.563878	31.659	-30.5971	-3.41517	0
0.3153	169.259	19.026	-10.5702	-1.32533	-5.30339	0.563878	33.7866	-44.3279	-1.26692	-0.322104
0.3160	237.648	20.2439	-11.7714	-1.92775	-5.30339	0.563878	56.0663	-46.7606	-0.96396	0
0.3167	250.74	13.5289	-9.63334	-3.43381	-7.42922	-1.27275	73.7762	-40.9583	-3.71813	0.322104
0.3173	82.9171	3.75253	2.85877	-1.32533	-7.42922	-2.19107	77.7467	-30.8854	-5.86639	-0.322104
0.3180	-126.116	-8.13049	14.7743	-1.02412	-7.11594	-2.19107	75.6041	-16.2536	-7.38118	-0.322104
0.3187	-245.768	-15.1747	19.9633	-2.53018	-5.90757	-1.27275	78.6606	-4.95536	-5.86639	0
0.3193	-400.775	-13.6276	21.7891	-1.62654	-3.75936	1.17609	82.6161	0.846916	-3.11221	0
0.3200	-431.931	-9.97384	15.0866	-1.62654	-4.67683	1.77219	59.7371	4.50487	-4.32405	-0.322104
0.3207	-226.544	-5.10213	5.90973	-1.62654	-7.11594	2.99661	31.3594	12.1451	-5.86639	0
0.3213	-28.4492	-0.197502	2.57049	-0.0602423	-7.7425	6.05766	14.8781	20.0737	-6.47231	0
0.3220	45.6845	-1.7446	1.3453	-1.32533	-8.65996	4.22103	-11.9864	13.6588	-7.68414	-0.322104
0.3227	62.1464	-2.04085	5.62145	-1.02412	-7.7425	3.60882	-32.4232	-0.684741	-5.86639	0
0.3233	14.5837	1.02043	9.89759	0.240969	-7.11594	6.36377	-18.9984	-11.9649	-3.41517	0
0.3240	-92.8605	0.0987509	9.58529	-1.92775	-8.65996	6.36377	14.2638	-19.2989	-5.23293	0
0.3247	-142.025	-3.55503	15.0866	-3.1326	-10.1816	4.52714	46.612	-19.6052	-7.07822	0
0.3253	-99.5999	-8.13049	24.8401	-2.83139	-12.9116	0.869984	72.2479	-16.5419	-7.9871	-0.322104
0.3260	-49.2199	-13.3314	32.1672	-2.22896	-15.0598	-0.660543	89.0289	-12.8839	-8.59302	-0.322104
0.3267	2.37537	-13.3314	37.3562	1.74703	-14.7465	0.869984	96.9698	-5.87435	-8.29006	-0.322104
0.3273	51.761	-11.488	31.5666	2.65066	-18.1031	-1.57886	91.4711	-7.38799	-12.862	-0.322104
0.3280	62.754	-3.8842	19.0505	1.44581	-19.3339	-4.3177	81.7022	-19.9115	-16.2221	0
0.3287	49.6619	12.0147	6.53433	2.95187	-16.8948	-4.01159	78.346	-36.3813	-13.4954	0
0.3293	6.90515	20.5402	-9.03275	0.843392	-18.1031	-8.90928	67.9778	-51.9502	-13.1649	-0.322104
0.3300	-78.2216	19.026	-13.6212	-0.361454	-17.1857	-11.6481	52.4105	-53.4818	-11.0442	0
0.3307	-158.156	15.3722	-5.66949	2.34945	-12.9116	-9.19927	40.1993	-42.7963	-5.86639	0.322104
0.3313	-113.3	6.18839	-8.43217	-1.02412	-15.0598	-12.2603	23.1187	-39.751	-8.59302	-0.644208
0.3320	90.2642	1.61293	-14.8224	-2.53018	-14.4556	-13.1786	10.6079	-36.994	-12.2561	-0.966311
0.3327	222.401	8.95341	-11.1708	2.65066	-9.86833	-9.81148	8.16572	-22.0378	-8.29006	-0.322104
0.3333	215.054	6.51756	-13.6212	-0.0602423	-12.9116	-12.5664	-3.13144	-13.4966	-11.0442	-0.644208
0.3340	255.049	-0.526671	-11.4831	-0.361454	-13.5382	-11.9542	-16.2565	-4.64903	-13.7984	-0.966311
0.3347	310.29	1.31668	1.65761	4.51817	-9.26414	-7.99096	-24.1825	12.4334	-11.3472	-0.322104
0.3353	308.743	-1.11918	3.17107	1.74703	-11.7033	-10.1176	-30.9099	16.7221	-15.3132	-0.322104
0.3360	328.299	-4.77296	1.033	-2.22896	-14.4556	-10.1176	-24.7968	16.4158	-18.0674	-0.322104
0.3367	297.75	-4.77296	7.13491	-1.32533	-12.9116	-6.15433	-11.6717	24.3443	-14.4043	0
0.3373	121.089	-8.45966	12.0357	-2.83139	-13.2249	-5.54212	-4.36005	29.2276	-11.3472	-0.322104
0.3380	-1.93344	-10.2701	18.4259	-3.73502	-12.9116	-4.01159	-9.22952	22.8127	-7.07822	0
0.3387	6.2975	-8.75591	26.6658	-2.83139	-9.86833	-0.354438	-33.3521	11.5325	-0.661001	0
0.3393	-91.0375	-9.97384	26.6658	-5.90374	-10.4725	0.563878	-37.6223	1.76591	3.30501	-0.322104
0.3400	-245.437	-9.67758	23.0143	-8.01222	-14.1424	-1.27275	-13.8143	-5.56802	6.05918	-0.322104
0.3407	-283.885	-9.67758	19.9633	-9.51828	-16.2682	-4.01159	-6.48763	-9.83864	8.78581	-0.322104
0.3413	-293.386	-9.34842	18.1376	-8.91586	-14.4556	-5.54212	-0.689217	-8.61332	13.3853	-0.322104
0.3420	-283.001	-3.25878	15.3749	-5.60253	-10.7858	-3.10939	27.6885	-8.61332	18.5631	-0.322104
0.3427	-199.089	1.02043	6.22203	-7.4098	-10.1816	-1.57886	55.1523	-16.2536	18.5631	-0.322104
0.3433	-76.3986	1.9421	-2.93084	-12.5906	-11.7033	-3.41549	64.9212	-24.1822	17.9572	-0.322104
0.3440	47.5075	3.45628	-6.2941	-14.0967	-12.3074	-4.6238	73.4615	-29.0654	19.472	0
0.3447	103.964	1.61293	-6.58238	-14.3979	-11.0991	-6.15433	84.7587	-26.9211	19.472	0
0.3453	88.7174	0.395003	-3.53142	-12.5906	-8.0334	-7.68486	93.6137	-16.8482	21.9232	0
0.3460	38.9451	2.53461	-1.70565	-9.81949	-5.90757	-9.19927	97.2695	-13.8029	24.3469	-0.322104
0.3467	-48.0046	1.61293	-6.58238	-9.51828	-6.82503	-11.6481	82.9308	-20.5242	21.6203	-0.322104
0.3473	-52.5896	0.395003	-7.80757	-8.01222	-6.51175	-11.9542	52.1108	-24.1822	17.0483	-0.322104
0.3480	47.2313	2.23835	-9.34506	-5.24108	-6.51175	-10.1176	5.7235	-26.6148	11.8429	-0.322104
0.3487	107.334	5.29963	-14.2218	-3.1326	-8.65996	-6.76654	-46.7769	-29.6781	7.27102	-0.322104
0.3493	107.002	7.73548	-12.0837	0.542181	-10.1816	-0.660543	-89.1937	-28.4528	4.8198	-0.322104
0.3500	78.6635	6.18839	-8.43217	2.34945	-12.3074	1.48219	-123.37	-28.4528	1.76267	-0.322104
0.3507	31.6532	4.0817	-8.72045	1.1446	-13.5382	-0.660543	-141.994	-28.7591	-1.26692	0
0.3513	5.68985	5.59588	-7.49526	0.542181	-12.0165	-0.354438	-144.436	-26.9211	-1.26692	0
0.3520	-48.6123	8.03174	-7.49526	1.1446	-9.86833	1.17609	-138.637	-28.1464	-0.661001	0
0.3527	-193.289	8.32799	-7.20698	2.04824	-8.0334	2.3844	-117.571	-25.7138	-0.358042	0
0.3533	-261.015	7.11006	-4.15603	3.25308	-7.42922	3.30272	-89.4933	-14.4156	0.247876	0
0.3540	-164.564	2.83086	-5.38121	1.1446	-9.26414	3.30272	-76.0686	-4.3427	-2.5063	0
0.3547	-35.4649	-0.822924	-10.2579	-0.361454	-10.7858	2.99661	-71.4988	-0.684741	-6.77526	0
0.3553	88.1098	1.61293	-13.6212	2.34945	-10.4725	2.99661	-50.133	-0.684741	-8.59302	-0.322104
0.3560	209.861	4.67421	-18.8102	3.25308	-11.0991	1.17609	-13.8143	-4.03637	-10.4383	-0.322104
0.3567	299.297	9.54592	-23.3747	2.65066	-12.9116	0.257773	9.37934	-8.00065	-9.50189	0
0.3573	353.323	14.4505	-26.7379	2.65066	-13.8291	2.3844	16.4064	-11.064	-6.47231	-0.966311
0.3580	359.123	12.9034	-32.8398	0.542181	-13.8291	2.6905	20.9762	-12.2713	-7.07822	-1.93262
0.3587	344.429	10.1713	-31.3023	-1.62654	-12.0165	-1.27275	26.7746	-2.19838	-6.47231	-0.322104
0.3593	366.139	6.18839	-22.1495	-3.73502	-8.34668	-5.84822	33.1873	12.1451	-3.71813	0
0.3600	399.063	-1.7446	-14.8224	-4.33744	-5.30339	-7.68486	32.2733	16.4158	-3.11221	-0.322104
0.3607	359.123	-7.83424	-2.33026	-0.662665	-0.716069	-5.23601	25.561	17.9294	-0.96396	-0.322104
0.3613	259.634	-14.8455	12.3239	1.74703	1.11886	-2.19107	16.0917	18.5421	0.853794	-0.322104
0.3620	138.766	-23.1077	15.9995	0.240969	-2.23772	-3.10939	5.7235	17.3167	-3.11221	-0.322104
0.3627	-62.0359	-27.9794	19.3387	-0.0602423	-2.8419	-3.70549	-0.0749149	20.6864	-5.53589	-0.322104
0.3633	-203.951	-28.5719	21.4768	-0.361454	-2.551	-3.10939	-14.114	19.1547	-5.86639	-0.322104
0.3640	-129.485	-23.7002	16.6001	-0.662665	-4.38592	-2.80328	-32.4232	8.46916	-6.16935	0
0.3647	-47.397	-12.7059	16.2878	2.95187	-3.75936	0.563878	-30.2956	-3.4237	-3.41517	0
0.3653	-124.017	-5.69463	15.6872	4.51817	-3.46846	4.22103	-23.5832	-12.5776	-1.26692	-0.322104
0.3660	-195.72	-7.83424	12.0357	2.04824	-5.30339	4.22103	-23.8829	-11.064	-2.20334	-0.322104
0.3667	-188.98	-12.4097	10.8105	0.542181	-7.7425	3.30272	-19.3131	-2.19838	-3.11221	0
0.3673	-199.973	-9.34842	3.17107	0.240969	-10.7858	2.07829	-12.286	-4.03637	-3.71813	-0.322104
0.3680	-180.473	2.23835	-5.38121	1.74703	-9.55505	3.30272	-5.27401	-11.3703	-0.358042	0
0.3687	-27.2339	9.54592	-6.58238	4.21696	-7.7425	5.44545	-0.0749149	-11.6586	2.39613	0
0.3693	186.052	5.89214	-8.72045	2.65066	-11.7033	3.30272	2.66697	-9.83864	-1.87284	-0.322104
0.3700	280.957	-1.11918	-11.7714	1.44581	-18.1031	0.869984	-13.5146	-4.64903	-6.77526	-0.322104
0.3707	99.379	-3.8842	-14.8224	1.1446	-21.1688	-0.0483324	-71.4988	-2.50471	-7.68414	-0.322104
0.3713	-224.721	-2.3371	-18.1856	-0.662665	-21.4597	-0.966648	-118.485	-5.56802	-7.07822	-0.322104
0.3720	-290.624	-0.197502	-9.94564	2.34945	-20.2513	1.17609	-107.203	0.846916	-3.71813	0
0.3727	-118.492	0.0987509	-0.792768	5.12059	-19.6471	2.3844	-73.6264	7.8565	-0.0550834	0
0.3733	46.6236	-0.197502	-5.06891	1.74703	-23.2946	-0.0483324	-45.8629	1.15325	-0.661001	0
0.3740	164.398	1.9421	-8.72045	-0.361454	-28.4861	-1.88496	-22.0549	-3.73003	-1.87284	0
0.3747	172.96	1.02043	-6.2941	-2.53018	-31.5294	-2.49718	-6.78729	-7.08166	-1.26692	-0.322104
0.3753	40.8233	-5.69463	3.79568	-4.33744	-30.0078	-1.88496	0.224745	-17.7672	1.15675	-0.322104
0.3760	-80.9836	-10.8955	21.7891	-1.02412	-25.7337	2.6905	15.4774	-27.5338	7.57397	0
0.3767	-122.746	-16.3926	31.2543	-1.32533	-24.2121	4.52714	36.2288	-32.1107	10.6311	-0.322104
0.3773	-248.199	-28.9011	33.6806	-5.24108	-24.2121	1.48219	55.7666	-29.3718	7.27102	-0.322104
0.3780	-419.999	-36.5378	37.6685	-3.73502	-21.773	1.17609	85.0584	-16.8482	5.75622	-0.322104
0.3787	-453.254	-37.1303	32.1672	-2.22896	-19.6471	0.257773	92.6997	-5.26169	4.21388	-0.322104
0.3793	-370.558	-33.1803	21.7891	-1.92775	-14.7465	-0.966648	67.6631	1.45958	4.21388	-0.322104
0.3800	-194.781	-21.5606	13.8614	0.542181	-8.65996	1.48219	50.2679	4.8112	8.17989	-0.322104
0.3807	62.4778	-9.34842	-2.01796	-1.02412	-9.86833	2.07829	30.1308	1.15325	8.48285	-0.322104
0.3813	237.316	2.23835	-19.0985	-4.33744	-13.5382	-0.966648	-4.0454	-13.4966	6.05918	-0.322104
0.3820	281.288	12.0147	-26.1133	-3.73502	-13.2249	-3.10939	-32.1235	-30.5971	5.12276	-0.322104
0.3827	314.212	13.2326	-29.4766	-4.33744	-12.0165	-3.70549	-44.02	-38.2193	3.00205	-0.322104
0.3833	363.653	10.1713	-24.5998	-2.83139	-8.95086	-0.660543	-36.3937	-32.7234	2.69909	-0.322104
0.3840	350.229	6.51756	-12.0837	0.843392	-3.75936	3.60882	-16.2565	-19.2989	5.12276	-0.322104
0.3847	234.002	1.02043	-7.49526	-0.361454	-2.23772	2.99661	1.13871	-12.5776	2.39613	0
0.3853	61.5387	-2.63336	-4.75661	-0.662665	-1.32025	-0.0483324	14.2638	-13.8029	-2.20334	-0.322104
0.3860	-75.4595	-3.8842	5.62145	1.74703	0.514675	-1.88496	41.7276	-18.9925	-2.5063	0
0.3867	-147.77	-3.55503	9.89759	0.542181	2.32722	-2.80328	78.0463	-32.1107	-3.71813	-0.322104
0.3873	-163.348	0.395003	11.0988	1.1446	5.6838	0.563878	89.9428	-44.3279	-2.20334	-1.61052
0.3880	-148.102	3.16003	12.9485	3.55429	11.5019	5.75156	74.3755	-45.5352	0.853794	-0.966311
0.3887	-146.279	-0.822924	8.0478	0.240969	21.5716	5.44545	55.1523	-35.4624	-1.87284	0
0.3893	-45.2426	-5.10213	3.79568	-2.22896	27.6582	2.3844	42.6416	-20.2179	-5.23293	0
0.3900	166.221	-5.10213	0.432419	-2.22896	27.6582	0.869984	31.0447	-15.9472	-6.16935	-0.322104
0.3907	166.552	-2.96253	-2.01796	-1.62654	31.328	0.563878	24.9467	-18.3799	-4.92997	0
0.3913	-9.83294	1.02043	1.033	1.74703	37.7279	2.6905	27.0742	-12.8839	-0.0550834	0
0.3920	-52.5896	1.9421	0.432419	0.542181	37.1237	3.30272	23.1187	-9.22598	3.00205	0
0.3927	-91.6452	-2.63336	-4.15603	-4.03623	31.0147	1.77219	14.2638	-7.69432	1.45971	0
0.3933	-156.664	-4.77296	-4.15603	-5.90374	26.4498	2.6905	11.2073	0.540585	2.39613	0
0.3940	-92.2528	-5.10213	-6.2941	-7.71101	21.2583	2.3844	9.37934	3.27955	3.30501	-0.322104
0.3947	-16.2409	-1.41543	-8.43217	-7.10859	17.2975	2.07829	7.85108	-3.4237	3.00205	0
0.3953	-18.7268	6.51756	-4.75661	-1.62654	14.2319	4.22103	12.1212	-8.61332	5.75622	-0.322104
0.3960	-43.7511	5.29963	-4.15603	-1.92775	6.31036	3.30272	13.9641	-16.8482	5.75622	-0.966311
0.3967	-45.574	0.395003	-6.58238	-6.20496	0.514675	1.17609	10.9076	-25.7138	3.00205	-0.966311
0.3973	-27.5654	2.23835	-7.49526	-6.50617	-1.02935	0.257773	8.76504	-25.1011	1.45971	-0.322104
0.3980	-14.7494	2.83086	-9.94564	-4.63866	-3.75936	-2.19107	4.49489	-19.9115	-0.96396	-0.322104
0.3987	-2.5411	4.37795	-7.49526	-0.0602423	-3.75936	-0.966648	5.1092	-9.53231	-0.358042	-0.322104
0.3993	20.6602	4.67421	-2.93084	2.65066	-3.46846	0.257773	6.32282	1.15325	1.45971	-0.322104
0.4000	38.3374	-0.526671	-2.93084	0.240969	-5.30339	-2.49718	0.839047	1.45958	-1.26692	0
0.4007	51.1534	-1.11918	-5.9818	-2.22896	-5.90757	-3.70549	-3.4311	-5.26169	-3.11221	0
0.4013	69.4935	2.23835	-10.5702	-3.73502	-7.42922	-3.41549	-4.36005	-9.83864	-3.11221	-0.322104
0.4020	74.3547	4.97046	-12.396	-3.43381	-5.59429	-2.80328	-5.27401	-7.38799	-2.80926	-0.322104
0.4027	106.118	10.4676	-9.94564	0.240969	0.514675	-0.0483324	-3.13144	0.846916	0.853794	-0.322104
0.4033	232.124	12.6072	-12.396	-0.361454	2.03632	-0.0483324	-4.36005	6.03653	1.45971	0
0.4040	384.424	8.32799	-19.0985	-4.33744	0.514675	-2.49718	-10.7578	9.69448	-2.20334	0
0.4047	454.304	4.67421	-17.8733	-4.63866	0.201394	-1.88496	-13.2	17.3167	-2.80926	0
0.4053	434.196	0.0987509	-12.0837	-4.93987	-1.32025	-1.88496	-13.5146	20.9927	-2.80926	0
0.4060	345.7	-4.47671	-2.01796	-4.33744	-1.02935	-0.660543	-12.9003	19.461	-2.20334	0
0.4067	272.726	-6.61631	10.8105	-1.32533	1.40976	2.3844	-8.6302	22.2	1.15675	0
0.4073	333.16	-9.67758	12.0357	-1.92775	2.03632	1.48219	-7.40159	25.2633	0.853794	-0.322104
0.4080	388.677	-12.1134	8.3601	-3.73502	4.16215	0.257773	-9.22952	22.2	-0.96396	-0.322104
0.4087	108.88	-12.4097	6.53433	-4.93987	7.51873	-0.354438	-10.4581	13.3524	-0.96396	-0.322104
0.4093	-364.15	-12.4097	3.48338	-6.20496	11.1886	-0.966648	-10.7578	6.95552	-0.661001	0
0.4100	-477.671	-9.67758	5.30914	-3.1326	16.671	1.77219	-6.48763	5.11753	2.69909	-0.322104
0.4107	-279.355	-7.53798	6.84663	-1.62654	19.7367	2.6905	-2.83178	3.27955	4.51684	-0.322104
0.4113	-177.38	-10.8955	2.57049	-4.33744	17.9017	0.563878	-4.95937	2.97322	2.39613	-0.322104
0.4120	-164.287	-10.8955	-2.01796	-5.24108	15.1493	-0.0483324	-6.78729	1.76591	0.550834	-0.322104
0.4127	-94.0758	-4.77296	-8.43217	-5.60253	14.2319	-0.354438	-7.40159	-4.95536	-0.0550834	0
0.4133	-10.4406	0.395003	-11.7714	-5.24108	14.5452	-0.0483324	-8.92986	-9.53231	0.550834	0.322104
0.4140	11.4902	3.75253	-6.2941	-2.53018	17.5884	2.3844	-7.10193	-7.08166	3.30501	0
0.4147	17.8982	1.61293	-0.792768	-1.92775	20.3408	2.6905	-5.27401	-0.378409	3.91092	-0.322104
0.4153	-38.8346	-7.24173	2.85877	-4.63866	21.5716	0.257773	-7.40159	9.38815	1.45971	-0.322104
0.4160	-228.975	-14.5493	8.96068	-5.90374	23.3841	-1.27275	-6.78729	17.0104	0.550834	-0.322104
0.4167	-387.351	-17.2814	9.89759	-6.50617	24.0107	-3.10939	-5.27401	15.1904	-0.0550834	0
0.4173	-396.522	-16.3926	7.75952	-6.20496	23.6974	-2.80328	-5.27401	11.2261	-0.358042	-0.322104
0.4180	-337.027	-14.5493	9.27299	-3.43381	26.4498	-0.0483324	-4.95937	12.4334	2.69909	-1.61052
0.4187	-260.739	-12.1134	6.22203	-3.73502	27.3673	0.257773	-6.48763	9.69448	3.00205	-0.644208
0.4193	-116.062	-5.69463	-0.192186	-5.60253	24.6149	-0.660543	-8.6302	-1.2974	0.550834	0
0.4200	103.08	-0.526671	-5.9818	-6.80738	20.945	-1.57886	-9.54416	-14.4156	-0.96396	-0.322104
0.4207	261.457	2.53461	-11.1708	-6.50617	18.8192	-1.57886	-10.7578	-24.1822	-0.661001	-0.322104
0.4213	268.472	7.43923	-9.34506	-2.83139	20.945	1.48219	-8.6302	-26.6148	2.39613	-0.322104
0.4220	197.653	9.87509	-7.80757	-1.32533	22.1758	1.77219	-6.78729	-23.8758	3.91092	-0.322104
0.4227	132.966	7.43923	-12.0837	-4.03623	20.3408	-0.354438	-7.71623	-20.5242	1.15675	-0.322104
0.4233	102.749	4.37795	-15.1347	-5.60253	18.215	-1.57886	-8.31555	-15.6409	-0.96396	0
0.4240	106.118	1.61293	-16.9604	-6.20496	16.9843	-1.88496	-8.92986	-8.91965	-0.96396	-0.322104
0.4247	60.0472	1.9421	-15.1347	-4.63866	18.5059	-0.354438	-7.10193	-6.18068	1.45971	0
0.4253	-62.6436	2.83086	-8.72045	-1.32533	20.6541	2.3844	-3.13144	-8.00065	4.51684	-0.322104
0.4260	-128.878	-0.197502	-6.58238	-2.22896	18.8192	1.77219	-3.13144	-12.2713	4.21388	0
0.4267	-104.13	-5.39838	-6.89468	-5.24108	16.0668	-0.660543	-6.48763	-15.6409	2.09317	0
0.4273	-70.5983	-8.13049	-2.33026	-5.90374	15.4626	-0.354438	-6.78729	-13.1903	2.39613	-0.322104
0.4280	-47.0655	-7.24173	1.94589	-5.60253	15.1493	0.257773	-6.18797	-7.08166	3.30501	0
0.4287	-24.5271	-5.39838	7.13491	-3.43381	16.671	1.77219	-4.65971	1.15325	5.42572	0
0.4293	3.86689	-5.10213	11.4111	-1.62654	16.9843	3.30272	-2.83178	8.77549	6.96806	-0.322104
0.4300	63.3617	-6.32006	5.30914	-3.73502	14.5452	1.48219	-5.87333	9.08182	3.91092	0
0.4307	152.797	-6.32006	-2.93084	-5.90374	13.3144	-0.660543	-8.92986	6.64919	1.45971	0
0.4313	174.783	-6.32006	-6.2941	-5.90374	13.0235	-0.354438	-10.1585	5.11753	1.45971	0
0.4320	39.2765	-2.3371	-9.34506	-4.03623	12.3969	0.869984	-7.71623	2.37857	2.69909	-0.322104
0.4327	-105.4	7.43923	-15.1347	-2.22896	12.3969	2.6905	-4.0454	0.234253	5.75622	-0.322104
0.4333	-97.7217	13.8251	-23.9752	-3.73502	10.2711	1.48219	-5.27401	-4.03637	6.05918	-0.322104
0.4340	-25.1348	14.7468	-32.2152	-6.50617	6.60126	-0.966648	-8.92986	-9.53231	3.60797	0
0.4347	46.2921	17.1827	-35.8908	-7.10859	4.78871	-1.27275	-9.54416	-11.064	3.30501	-0.322104
0.4353	105.179	17.4789	-33.4404	-6.20496	4.47543	-0.354438	-8.31555	-7.69432	4.8198	-0.322104
0.4360	111.311	13.8251	-21.5489	-3.43381	5.6838	1.48219	-5.57367	1.15325	6.6651	-0.322104
0.4367	90.5404	4.0817	-4.75661	-2.83139	6.31036	1.77219	-4.36005	13.0461	7.27102	0
0.4373	18.8373	-13.3314	15.0866	-4.93987	5.99708	-0.0483324	-7.40159	26.4886	4.8198	-0.322104
0.4380	-57.7823	-30.119	34.9058	-5.60253	6.60126	-0.354438	-8.92986	40.5258	2.39613	-0.322104
0.4387	-40.0499	-38.3483	43.1458	-5.24108	6.91454	-0.0483324	-8.6302	46.9227	2.09317	-0.322104
0.4393	-46.4579	-35.6161	43.4581	-3.73502	8.14529	0.869984	-7.40159	44.1838	4.21388	-0.322104
0.4400	-45.8502	-25.8398	39.8066	-1.92775	9.66693	2.3844	-4.95937	34.7236	6.36214	-0.322104
0.4407	46.0159	-15.1747	28.5156	-2.53018	8.43619	1.77219	-4.95937	22.2	6.05918	-0.322104
0.4413	-25.1348	-6.91256	14.462	-4.03623	5.3929	0.257773	-7.40159	11.8388	3.91092	-0.322104
0.4420	-181.965	0.724173	1.94589	-4.63866	2.64051	-0.966648	-8.01589	1.45958	3.00205	-0.322104
0.4427	-69.383	10.4676	-9.34506	-4.33744	0.514675	-0.660543	-6.18797	-8.30698	4.21388	0
0.4433	107.941	17.4789	-15.1347	-3.43381	1.11886	0.869984	-4.36005	-11.9649	6.05918	0
0.4440	81.0941	17.8081	-14.5341	-2.83139	1.11886	1.77219	-3.74574	-16.2536	6.96806	-0.322104
0.4447	-13.8103	18.1043	-15.1347	-4.03623	-0.402789	1.17609	-4.95937	-31.8044	6.36214	-0.322104
0.4453	-110.261	18.7297	-17.8733	-5.90374	-1.63353	-0.0483324	-7.71623	-44.0216	4.51684	-0.322104
0.4460	-197.543	14.1214	-16.3599	-6.50617	-2.8419	-0.660543	-8.31555	-30.8854	3.91092	0
0.4467	-213.397	4.67421	-8.43217	-5.90374	-2.23772	0.563878	-5.87333	-5.26169	4.8198	-0.322104
0.4473	-157.548	-5.69463	1.65761	-5.24108	-1.02935	2.3844	-5.27401	7.8565	6.36214	-1.61052
0.4480	-49.8276	-9.97384	8.6724	-4.33744	-0.111886	4.22103	-6.18797	8.16283	8.17989	-1.28842
0.4487	5.08219	-10.2701	11.4111	-5.90374	-1.02935	3.91493	-5.27401	9.38815	8.17989	0
0.4493	-28.7807	-12.4097	13.2368	-8.91586	-3.46846	1.77219	-5.57367	11.5325	6.6651	-0.322104
0.4500	-27.8416	-11.8172	14.462	-8.91586	-3.75936	1.77219	-4.95937	14.2714	7.57397	-0.322104
0.4507	58.8319	-6.32006	12.3239	-7.10859	-1.94681	4.22103	-3.13144	15.4968	10.6311	-0.322104
0.4513	209.254	0.395003	6.84663	-7.10859	-1.63353	5.13935	-2.83178	7.8565	11.54	-0.322104
0.4520	333.491	2.83086	1.3453	-8.91586	-3.46846	3.60882	-3.13144	1.15325	10.6311	-0.322104
0.4527	313.936	2.23835	-2.93084	-10.1809	-4.67683	2.3844	-4.95937	2.07224	9.08877	-0.322104
0.4533	234.002	4.0817	-5.9818	-9.21707	-5.30339	2.6905	-6.78729	3.27955	8.17989	-0.322104
0.4540	228.478	6.81381	-6.89468	-6.80738	-4.99011	3.30272	-5.87333	2.07224	8.78581	-0.322104
0.4547	252.894	8.32799	-5.38121	-4.03623	-4.38592	4.52714	-4.36005	-3.11737	10.0252	-0.322104
0.4553	194.615	7.73548	-5.66949	-3.73502	-5.59429	3.91493	-5.57367	-14.4156	9.41927	-0.322104
0.4560	4.47454	5.89214	-8.72045	-5.90374	-8.95086	1.17609	-8.6302	-22.0378	6.05918	-0.322104
0.4567	-189.919	4.37795	-10.2579	-6.50617	-10.7858	0.257773	-9.84382	-18.6862	3.91092	-0.322104
0.4573	-245.768	2.83086	-8.72045	-5.60253	-11.0991	0.563878	-8.92986	-10.7576	3.91092	-0.322104
0.4580	-219.805	1.9421	-4.15603	-3.1326	-9.86833	1.77219	-4.0454	-0.684741	7.27102	-0.322104
0.4587	-176.496	-0.526671	-0.192186	-0.361454	-8.65996	1.77219	0.839047	9.38815	9.08877	-0.322104
0.4593	-123.685	-6.32006	-2.01796	-1.62654	-11.39	-0.354438	-2.83178	13.9651	3.91092	-0.322104
0.4600	-87.0602	-8.13049	-5.66949	-2.53018	-12.9116	-1.27275	-6.48763	15.1904	3.60797	-0.322104
0.4607	-81.5913	-4.77296	-5.38121	-1.02412	-11.7033	-0.660543	-4.65971	15.1904	13.6882	-0.322104
0.4613	-89.8222	-1.41543	-2.61854	1.44581	-11.7033	-0.660543	-2.83178	11.2261	16.7178	-0.322104
0.4620	-77.2825	4.0817	0.744722	3.85551	-11.7033	-0.354438	-2.21748	6.34286	13.9912	-0.322104
0.4627	-35.4649	4.37795	6.22203	2.65066	-12.6207	-1.27275	-3.4311	8.46916	15.809	-0.322104
0.4633	18.2296	-3.25878	14.1497	0.240969	-13.2249	-2.19107	-4.95937	17.0104	15.809	-0.322104
0.4640	50.5457	-8.45966	21.7891	-0.0602423	-11.7033	-1.27275	-3.4311	25.5697	10.3281	-0.322104
0.4647	115.896	-11.488	27.891	-0.0602423	-9.86833	-0.0483324	-1.91782	30.7593	-0.96396	0
0.4653	292.281	-12.7059	30.942	0.240969	-7.42922	1.77219	-0.389557	31.0656	-6.47231	-0.322104
0.4660	459.828	-9.67758	26.9781	-0.0602423	-5.90757	3.30272	1.43837	23.7317	0.550834	-0.322104
0.4667	507.722	-7.24173	15.3749	-2.53018	-7.11594	1.77219	-0.988877	13.0461	5.42572	-0.322104
0.4673	480.543	-2.96253	3.79568	-4.33744	-8.65996	0.869984	-4.0454	3.27955	4.8198	0
0.4680	381.662	5.29963	-4.75661	-3.73502	-7.7425	1.48219	-2.83178	-6.48702	5.75622	-0.322104
0.4687	239.802	12.0147	-12.396	-3.73502	-7.11594	1.48219	-1.30352	-12.2713	7.57397	-0.322104
0.4693	41.7071	13.8251	-14.8224	-3.43381	-6.19847	2.6905	0.224745	-8.91965	9.72223	-0.322104
0.4700	-311.063	9.24966	-9.34506	-2.83139	-4.99011	3.30272	1.13871	2.37857	10.0252	-0.322104
0.4707	-633.617	0.724173	-2.01796	-3.43381	-4.67683	2.99661	0.524404	11.8388	9.41927	-0.322104
0.4713	-629.363	-4.77296	3.17107	-2.83139	-4.38592	3.60882	1.13871	15.8031	10.9341	-0.322104
0.4720	-335.811	-8.45966	3.48338	-3.43381	-5.30339	1.48219	-0.0749149	13.6588	10.3281	-0.322104
0.4727	-39.7737	-9.97384	1.3453	-3.73502	-6.51175	-0.660543	-3.4311	7.55017	7.27102	-0.322104
0.4733	72.2555	-5.99089	1.94589	-1.32533	-5.59429	1.17609	-2.21748	5.11753	8.48285	-0.322104
0.4740	23.4223	-2.04085	-1.10507	-0.662665	-5.30339	1.77219	-0.988877	-0.684741	9.72223	-0.322104
0.4747	-73.0289	1.31668	-7.80757	-2.22896	-5.90757	1.48219	-0.988877	-11.9649	9.72223	0
0.4753	-109.654	5.59588	-10.8585	-2.22896	-5.30339	2.3844	0.524404	-16.2536	10.6311	-0.322104
0.4760	-75.4595	5.29963	-16.0476	-2.53018	-6.19847	0.869984	-1.30352	-14.7219	7.27102	-0.322104
0.4767	-26.0186	4.97046	-20.0114	-1.92775	-6.51175	-0.0483324	-3.4311	-12.5776	3.60797	-0.322104
0.4773	17.2905	8.03174	-18.4979	0.542181	-5.30339	1.17609	-0.689217	-8.30698	4.51684	0
0.4780	36.8459	6.51756	-18.4979	-0.361454	-5.90757	-0.354438	-0.988877	-7.08166	3.00205	-1.28842
0.4787	23.0908	0.724173	-15.447	-1.02412	-6.19847	-1.57886	-3.74574	-4.03637	0.247876	-1.93262
0.4793	-18.7268	-4.47671	-8.43217	-1.92775	-6.82503	-0.660543	-4.0454	6.34286	5.42572	-0.322104
0.4800	-131.916	-8.45966	-1.70565	-4.93987	-8.0334	0.257773	-3.13144	15.1904	17.6542	-0.322104
0.4807	-219.197	-8.45966	6.84663	-4.03623	-5.90757	2.6905	0.224745	19.1547	20.3809	-0.322104
0.4813	-136.501	-8.13049	12.0357	-2.22896	-2.8419	5.13935	3.58093	21.299	11.8429	0
0.4820	-1.602	-7.83424	11.0988	-4.03623	-1.63353	6.05766	4.19523	20.38	6.36214	0
0.4827	34.4153	-7.24173	5.62145	-6.20496	-2.551	5.44545	2.66697	17.3167	6.36214	-0.322104
0.4833	-28.4492	-8.75591	0.120116	-7.71101	-4.38592	3.60882	0.524404	14.8841	7.57397	-0.322104
0.4840	-138.655	-6.61631	-0.480466	-6.20496	-2.8419	4.52714	1.75301	12.7398	9.72223	-0.322104
0.4847	-212.513	-1.11918	-1.10507	-3.43381	0.805578	6.66987	4.49489	10.9198	12.7518	-0.322104
0.4853	-161.249	1.9421	-4.15603	-3.43381	1.40976	7.57208	5.1092	7.8565	13.6882	-0.322104
0.4860	-38.5584	1.9421	-8.11987	-6.50617	-0.111886	5.75156	2.36731	1.15325	11.237	-0.322104
0.4867	34.6915	0.395003	-11.4831	-8.61465	-1.32025	3.60882	-1.91782	-4.64903	7.87693	-0.322104
0.4873	59.7158	1.61293	-11.4831	-7.71101	-0.402789	5.44545	-0.988877	-5.87435	4.8198	-0.322104
0.4880	84.1324	5.29963	-9.63334	-6.20496	1.40976	8.18429	2.96663	-7.69432	18.5631	-0.322104
0.4887	118.603	6.81381	-9.63334	-4.33744	1.72304	8.18429	3.88059	-9.83864	36.5754	-0.322104
0.4893	143.351	4.97046	-14.2218	-2.22896	0.201394	6.66987	0.224745	-7.08166	13.9912	-0.322104
0.4900	141.804	3.75253	-21.2366	-3.43381	-1.94681	4.52714	-2.83178	-1.60373	-13.1649	-0.322104
0.4907	114.018	5.59588	-24.2875	-5.60253	-1.63353	4.22103	-0.988877	1.76591	6.36214	-0.322104
0.4913	59.4396	6.51756	-20.3237	-4.63866	-0.402789	5.13935	1.75301	1.45958	25.5863	0
0.4920	-35.7963	6.18839	-16.9604	-1.62654	-0.716069	5.13935	1.43837	-2.19838	17.9572	-0.322104
0.4927	-105.676	7.11006	-16.0476	-0.0602423	-1.02935	4.22103	-0.0749149	-4.3427	11.54	-0.322104
0.4933	-13.8103	3.45628	-14.8224	-1.92775	-2.551	2.6905	-3.74574	-2.19838	8.78581	-0.322104
0.4940	159.813	-2.04085	-12.396	-2.22896	-4.07264	1.48219	-7.10193	4.50487	6.05918	-0.322104
0.4947	255.933	-0.526671	-10.2579	0.843392	-3.15518	2.3844	-5.57367	12.1451	7.57397	-0.322104
0.4953	330.729	3.45628	-10.2579	3.25308	-1.94681	2.99661	-1.91782	15.1904	10.6311	-0.322104
0.4960	430.826	2.53461	-11.4831	3.55429	-2.551	1.77219	-0.689217	14.2714	9.72223	-0.322104
0.4967	522.085	-1.41543	-12.6843	2.65066	-4.99011	-0.0483324	-2.21748	10.6135	-5.23293	-0.322104
0.4973	512.307	-3.8842	-10.2579	4.21696	-5.59429	-0.0483324	-3.4311	7.8565	-29.6624	-0.322104
0.4980	191.853	-5.69463	-4.44431	7.22907	-4.99011	1.17609	-2.51714	9.38815	-46.1324	-0.322104
0.4987	-219.197	-6.61631	-1.39335	8.79537	-4.99011	1.17609	-1.91782	11.5325	-48.5836	-0.322104
0.4993	-237.813	-5.69463	-2.01796	8.13271	-4.38592	0.257773	-2.21748	11.2261	-48.5836	-0.322104
0.5000	-80.376	-6.91256	-5.66949	4.51817	-5.59429	-1.27275	-4.65971	10.6135	-33.6284	-0.322104
0.5007	-161.525	-7.83424	-9.03275	6.02423	-8.34668	-2.19107	-8.01589	9.38815	18.8661	-0.322104
0.5013	-263.777	-6.32006	-8.11987	17.5907	-8.95086	-2.19107	-8.92986	7.8565	51.5306	-0.322104
0.5020	-137.109	-5.39838	-5.06891	28.3139	-6.82503	-1.57886	-8.6302	7.55017	51.5306	-0.322104
0.5027	-129.154	-4.77296	-1.10507	34.3983	-4.67683	-0.660543	-6.48763	8.16283	62.5197	-0.322104
0.5033	-357.135	-5.99089	-2.01796	35.302	-5.30339	-2.49718	-6.78729	5.7302	51.8335	-0.322104
0.5040	-456.624	-7.53798	-8.11987	36.8683	-6.82503	-4.6238	-9.84382	2.6849	20.0779	-0.322104
0.5047	-424.584	-5.10213	-8.72045	41.4467	-5.59429	-3.10939	-6.48763	5.42387	-3.11221	-0.322104
0.5053	-350.119	-4.18045	-2.93084	39.278	-3.15518	-0.0483324	-0.988877	6.03653	-61.9964	-0.322104
0.5060	-220.136	-4.18045	2.25819	54.5193	-1.63353	3.91493	2.96663	1.76591	-95.5698	-0.322104
0.5067	-185.003	-4.77296	-0.480466	86.2669	-4.07264	3.91493	1.13871	0.234253	-31.7831	-0.322104
0.5073	-221.02	-6.32006	-6.89468	74.098	-8.0334	0.563878	-5.57367	1.15325	26.1922	-1.61052
0.5080	-118.824	-3.8842	-6.58238	36.8683	-7.42922	2.3844	-5.27401	4.50487	67.6976	-1.28842
0.5087	104.295	-2.63336	-5.06891	49.6396	-5.59429	3.91493	-2.83178	10.6135	78.0808	0
0.5093	226.323	-2.63336	-9.34506	89.0381	-6.19847	2.99661	-4.95937	14.5778	27.1011	-0.322104
0.5100	190.969	1.61293	-15.7352	90.5441	-6.19847	3.60882	-5.57367	11.8388	21.9232	-0.322104
0.5107	78.3321	6.51756	-20.9243	45.3624	-6.51175	3.30272	-4.65971	3.58588	11.54	-0.322104
0.5113	-27.8416	6.18839	-23.687	-2.83139	-7.7425	1.77219	-4.65971	-1.2974	22.2262	-0.322104
0.5120	-38.8346	0.724173	-19.0985	-22.0487	-7.7425	0.563878	-6.18797	-1.60373	125.067	-0.322104
0.5127	-12.9264	-7.24173	-8.43217	-59.8808	-4.38592	0.869984	-5.87333	-2.50471	156.492	0
0.5133	-41.9281	-14.8455	3.17107	-103.255	-1.32025	3.30272	-1.30352	0.234253	103.695	-0.322104
0.5140	-132.524	-23.7002	12.3239	-90.1225	-1.02935	3.91493	0.839047	10.6135	75.6296	-0.322104
0.5147	-196.604	-32.8511	21.1885	-51.3264	-1.32025	1.48219	1.75301	24.6507	57.6173	-0.322104
0.5153	-98.3846	-36.5378	33.3924	-40.9648	0.201394	0.563878	5.1092	36.8499	-73.2885	-0.322104
0.5160	74.6861	-35.287	39.8066	-61.4471	2.03632	0.869984	6.32282	39.6068	-256.716	-0.322104
0.5167	39.8842	-28.2757	28.5156	-58.0736	1.72304	1.17609	5.1092	33.1919	-199.65	0
0.5173	-237.813	-15.471	10.8105	-15.3618	0.514675	1.77219	5.1092	20.9927	-44.3146	-0.322104
0.5180	-374.867	-3.8842	-1.39335	16.3859	-1.94681	1.48219	3.88059	4.19854	-48.8866	-0.322104
0.5187	-194.781	5.59588	-10.8585	23.7355	-4.99011	-0.0483324	3.58093	-14.1093	-13.7984	-0.322104
0.5193	36.2382	12.3109	-17.585	20.3619	-6.51175	-1.27275	5.1092	-27.2274	71.6636	-0.322104
0.5200	129.596	11.6855	-21.2366	24.9403	-7.42922	-3.70549	2.66697	-31.8044	48.4734	-0.322104
0.5207	88.1098	10.4676	-18.4979	52.1096	-6.19847	-2.80328	2.05267	-26.0021	43.9015	-0.322104
0.5213	2.37537	9.54592	-11.4831	24.9403	-3.46846	1.17609	6.02316	-11.9649	71.6636	-0.322104
0.5220	-26.3501	3.75253	-7.80757	-56.8687	-2.551	1.77219	5.7235	-0.991072	0.853794	-0.322104
0.5227	7.2366	-2.3371	-8.11987	-41.8684	-3.46846	-0.354438	3.28127	0.540585	-94.6609	-0.322104
0.5233	49.6619	-7.24173	-11.1708	48.1336	-6.51175	-2.80328	-0.0749149	-2.81104	-133.715	-0.322104
0.5240	71.9241	-7.53798	-10.5702	84.1585	-6.19847	-2.19107	-0.689217	-3.11737	-186.816	-0.322104
0.5247	80.4865	-3.25878	-5.06891	86.2669	-2.8419	0.869984	4.19523	1.45958	-233.526	-0.322104
0.5253	85.6791	-4.18045	-4.44431	102.171	-2.8419	-0.0483324	4.80954	3.58588	-163.019	-0.322104
0.5260	113.134	-6.32006	-6.89468	128.075	-3.75936	-1.57886	0.839047	2.07224	-121.514	0
0.5267	168.983	-5.99089	-9.63334	151.268	-3.46846	-4.01159	-3.13144	-1.60373	-154.482	0
0.5273	223.616	-5.99089	-10.5702	162.594	-4.38592	-6.15433	-6.48763	-3.73003	-25.0905	-0.322104
0.5280	204.061	-2.63336	-5.38121	168.377	-3.15518	-3.41549	-3.74574	-0.072078	141.84	-0.322104
0.5287	71.3164	-1.41543	-2.61854	124.762	-2.8419	-2.49718	-0.988877	1.45958	67.6976	-0.322104
0.5293	-47.397	-3.8842	-5.9818	40.784	-5.90757	-5.84822	-1.60318	-1.2974	-37.8974	-0.322104
0.5300	-66.6209	-3.8842	-8.11987	41.4467	-8.65996	-7.99096	-1.30352	-1.2974	146.439	-0.322104
0.5307	-65.6818	-4.18045	-8.72045	131.147	-12.0165	-9.81148	-2.83178	0.846916	284.974	-0.322104
0.5313	-68.1677	-3.8842	-7.20698	195.546	-15.3731	-8.90928	-0.689217	4.8112	60.9774	-0.322104
0.5320	-34.8572	-2.3371	-3.24314	188.197	-14.4556	-4.92991	6.32282	9.08182	-109.616	-0.322104
0.5327	15.799	-4.47671	-2.33026	159.522	-10.4725	-1.27275	10.9076	8.46916	-47.0413	-0.322104
0.5333	42.0386	-6.61631	-4.15603	124.099	-7.11594	0.869984	10.2933	2.6849	-4.62701	-0.322104
0.5340	41.7071	-7.24173	-7.20698	-19.639	-4.38592	1.48219	5.1092	-3.11737	-63.8417	-0.322104
0.5347	31.6532	-8.13049	-7.49526	-202.414	-0.402789	3.30272	0.524404	-1.91007	-132.503	0
0.5353	22.207	-6.32006	-2.33026	-219.523	4.16215	6.66987	2.36731	4.8112	-80.3117	0
0.5360	19.7211	-4.18045	2.25819	-143.196	4.47543	8.4904	6.63746	8.77549	49.6853	-0.322104
0.5367	24.0299	-5.10213	0.744722	-69.0377	0.805578	7.57208	6.02316	6.34286	123.249	0
0.5373	24.9138	-8.75591	-3.53142	35.302	-4.07264	2.99661	-0.389557	-0.684741	114.987	-1.28842
0.5380	23.0908	-10.8955	-5.66949	66.4472	-7.11594	-0.354438	-5.27401	-2.19838	104.328	-1.61052
0.5387	24.6376	-5.69463	-2.93084	6.62665	-5.30339	2.99661	-2.83178	3.58588	118.953	0
0.5393	28.8912	-0.526671	-1.10507	35.0008	-1.94681	6.66987	-0.0749149	7.26185	47.5646	0
0.5400	31.6532	-3.25878	-4.44431	84.7609	-2.23772	2.99661	-3.74574	4.8112	-97.4151	-0.322104
0.5407	32.5371	-6.91256	-8.11987	-98.9781	-2.8419	0.257773	-6.48763	3.58588	-188.055	-0.322104
0.5413	32.2609	-7.53798	-7.80757	-335.188	-1.02935	2.3844	-4.65971	6.64919	-189.267	0
0.5420	28.8912	-6.61631	-4.75661	-381.273	0.514675	3.91493	-2.83178	6.95552	-57.7275	-0.322104
0.5427	23.4223	-3.55503	-1.39335	-400.792	0.201394	5.44545	-0.689217	3.89221	150.102	-0.322104
0.5433	12.0978	-4.47671	-2.61854	-391.635	-1.63353	4.52714	-1.30352	7.26185	254.458	-0.322104
0.5440	0.828618	-8.45966	-6.58238	-268.922	-3.46846	0.869984	-4.65971	14.2714	212.044	0
0.5447	-0.110482	-9.67758	-6.89468	-160.606	-3.46846	-0.354438	-4.65971	9.38815	125.37	-0.322104
0.5453	9.39101	-7.83424	-4.75661	-110.545	-2.23772	0.257773	-1.30352	0.846916	107.964	-0.322104
0.5460	20.6602	-4.77296	-2.33026	-85.2428	-1.02935	0.257773	1.13871	3.27955	152.223	-0.322104
0.5467	15.799	-5.10213	-2.01796	-77.8933	-2.23772	-1.57886	0.524404	7.26185	174.807	0
0.5473	-3.42496	-7.83424	-5.06891	-75.4836	-5.30339	-2.19107	-2.21748	7.8565	174.201	0
0.5480	-15.0256	-10.5663	-7.49526	-82.7729	-8.34668	0.257773	-3.4311	7.26185	129.033	-0.322104
0.5487	-17.5115	-10.8955	-8.72045	-109.039	-10.1816	1.77219	-4.36005	6.95552	2.69909	-0.322104
0.5493	-4.6955	-7.83424	-6.89468	-113.015	-8.95086	1.77219	-3.13144	7.55017	-41.5605	-0.322104
0.5500	26.1291	-4.47671	-5.66949	-74.2185	-6.51175	0.869984	-0.988877	7.26185	51.2276	-0.322104
0.5507	35.2991	-4.77296	-7.49526	-37.29	-5.90757	-0.0483324	-1.91782	1.76591	113.169	-0.322104
0.5513	20.3288	-5.99089	-8.72045	0.240969	-6.51175	-0.354438	-3.74574	-4.3427	117.135	-0.322104
0.5520	27.3996	-5.10213	-8.11987	51.2059	-5.30339	-0.354438	-5.87333	-3.73003	132.999	-0.322104
0.5527	56.0698	-3.8842	-5.38121	85.3633	-3.75936	0.869984	-5.27401	1.76591	142.17	-0.322104
0.5533	82.3094	-3.8842	-1.70565	85.3633	-3.15518	1.77219	-1.91782	6.03653	103.089	-0.322104
0.5540	99.7104	-6.91256	-1.10507	56.3868	-3.15518	1.17609	-1.60318	6.03653	73.4813	-0.322104
0.5547	85.6791	-10.5663	-2.93084	29.8199	-5.30339	-1.27275	-4.0454	4.50487	53.9542	-0.322104
0.5553	1.10482	-11.8172	-4.75661	25.5427	-8.0334	-3.70549	-7.10193	6.64919	-41.8634	-0.322104
0.5560	-121.862	-10.2701	-4.15603	15.4823	-8.65996	8.18429	-7.71623	13.0461	-130.355	0
0.5567	-147.163	-9.05216	1.033	4.21696	-6.19847	30.1594	-4.95937	19.461	-132.2	0
0.5573	-55.6279	-9.97384	3.17107	15.1811	-3.46846	39.0043	-4.36005	19.461	-109.313	-0.322104
0.5580	30.4379	-12.1134	0.744722	43.8564	-2.23772	36.8776	-7.10193	10.9198	-107.771	-0.322104
0.5587	53.9154	-13.0351	2.25819	87.8332	1.11886	37.1837	-8.01589	5.11753	-94.3579	-0.322104
0.5593	27.3996	-12.7059	6.22203	130.846	8.43619	36.5715	-6.48763	6.95552	-25.3935	-0.322104
0.5600	-8.61763	-12.1134	10.1859	182.715	14.2319	35.3471	-3.74574	10.0008	-21.1245	-0.322104
0.5607	-13.2027	-9.67758	12.6362	241.632	14.8584	34.1227	0.839047	10.6135	-114.491	-0.322104
0.5613	-7.40232	-8.45966	5.30914	263.259	9.35365	25.8901	-0.389557	4.8112	-69.9284	-0.322104
0.5620	-11.9873	-5.99089	-5.06891	259.945	3.55797	13.9842	-3.4311	-3.4237	62.1892	0
0.5627	33.8076	-1.41543	-8.11987	257.475	2.32722	4.52714	-0.689217	-5.26169	7.27102	-0.322104
0.5633	141.197	0.724173	-7.20698	255.668	0.201394	-1.88496	2.96663	-1.91007	-102.593	-0.322104
0.5640	210.801	0.724173	-7.49526	237.957	-2.551	-7.99096	4.80954	2.97322	-87.9407	-0.322104
0.5647	247.094	-2.63336	-9.94564	202.233	-5.30339	-16.8358	2.36731	3.89221	-86.7289	-0.322104
0.5653	296.866	-9.67758	-7.49526	114.039	-6.51175	-24.7784	-0.988877	2.6849	-198.411	-0.322104
0.5660	298.966	-14.253	1.94589	-125.485	-4.38592	-28.1295	0.224745	9.08182	-271.672	-0.322104
0.5667	353.323	-16.6889	9.27299	-315.911	-2.23772	-30.2561	2.36731	20.38	-188.661	0
0.5673	385.031	-17.6106	15.0866	-170.365	-3.75936	-32.0927	2.96663	30.1466	-99.8388	-0.322104
0.5680	94.1863	-18.5322	19.0505	74.098	-6.82503	-35.1538	3.28127	36.8499	-151.727	0
0.5687	-135.893	-20.6389	13.2368	133.557	2.64051	-37.8926	1.75301	34.4172	-283.267	-0.644208
0.5693	34.4153	-20.0464	3.79568	91.4478	20.3408	-37.5865	1.75301	21.299	-287.233	-1.93262
0.5700	188.815	-13.6276	-2.33026	84.4597	26.1365	-36.056	3.88059	5.7302	-119.063	-0.644208
0.5707	178.761	-4.77296	-5.06891	152.172	21.2583	-35.4438	3.88059	-1.91007	92.7054	0.322104
0.5713	79.2712	-1.41543	-4.15603	244.041	17.5884	-34.2355	1.43837	-6.18068	236.143	-0.322104
0.5720	-239.36	-6.32006	0.744722	297.476	16.0668	-30.2561	-2.21748	-10.145	213.861	-0.322104
0.5727	-554.622	-13.6276	9.89759	314.525	15.4626	-20.7991	-1.30352	-2.50471	160.761	0
0.5733	-600.362	-19.7502	16.6001	288.922	9.66693	-12.8725	0.224745	15.8031	183.979	-0.322104
0.5740	-489.879	-23.404	16.9124	205.004	-1.94681	-8.60317	-3.13144	29.2276	130.878	-0.322104
0.5747	-270.792	-19.421	14.1497	69.8208	-11.0991	-4.3177	-4.95937	30.4529	-22.0334	-0.322104
0.5753	-41.5966	-10.8955	6.84663	-138.617	-18.4164	-1.57886	-3.74574	20.38	-179.792	0
0.5760	2.04393	-6.61631	-1.39335	-355.911	-24.8163	2.07829	-1.91782	7.26185	-293.016	0
0.5767	-91.0375	-6.91256	-1.39335	-461.817	-28.1728	4.22103	-2.51714	-0.684741	-295.165	0
0.5773	-169.149	-6.91256	-1.10507	-439.829	-29.4036	-0.0483324	-8.31555	-11.064	-224.355	0
0.5780	-172.795	-3.55503	-3.24314	-303.139	-28.1728	-4.01159	-11.3721	-25.4075	-183.455	-0.322104
0.5787	-118.492	0.724173	-1.70565	-181.329	-23.8988	-3.41549	-5.87333	-28.1464	-119.999	-0.322104
0.5793	-82.1989	0.395003	-0.792768	-195.366	-18.1031	-5.54212	0.224745	-19.6052	17.0483	0
0.5800	-89.2146	-2.3371	-4.15603	-188.076	-13.5382	-9.19927	0.224745	-10.4513	76.8414	-0.322104
0.5807	-89.2146	-4.18045	-7.49526	-61.1459	-11.7033	-12.2603	-5.87333	-5.26169	9.41927	-0.322104
0.5813	-70.5983	-6.61631	-5.9818	42.0491	-11.39	-14.387	-11.9864	0.234253	-27.5142	-0.322104
0.5820	-49.2199	-7.24173	-0.192186	56.688	1.72304	-11.9542	-8.31555	10.0008	-50.7043	-0.322104
0.5827	-11.7111	-7.83424	1.033	31.9887	32.2455	-10.7298	-0.988877	12.7398	-169.74	-0.322104
0.5833	13.0369	-9.34842	-1.10507	6.32544	52.9891	-11.342	2.66697	4.8112	-242.973	-0.322104
0.5840	-53.1973	-9.67758	-0.792768	-13.1931	49.3416	-11.6481	3.58093	-0.991072	-99.2328	-0.322104
0.5847	-112.416	-8.13049	-2.33026	-56.5675	42.9194	-12.8725	1.75301	-9.83864	91.7966	-0.322104
0.5853	-61.4282	-3.25878	-1.39335	-104.46	49.0284	-9.50538	2.96663	-18.3799	42.0562	0
0.5860	-15.6333	-0.822924	3.79568	-86.1465	49.6325	-0.966648	5.7235	-4.95536	-175.22	0
0.5867	-16.9038	-4.47671	4.70856	21.8679	34.0804	2.3844	4.19523	15.4968	-306.76	-0.322104
0.5873	-14.418	-3.8842	1.033	128.678	12.7102	-1.57886	-1.60318	6.95552	-311.938	-0.322104
0.5880	-22.9804	1.61293	-3.53142	206.511	-6.82503	-6.46043	-5.27401	-17.7672	-237.189	0
0.5887	-40.6575	2.23835	-4.44431	348.14	-17.4989	-9.81148	-4.0454	-20.5242	-147.458	-0.322104
0.5893	-41.2652	-3.8842	1.65761	486.396	-23.2946	-14.097	-0.689217	-8.30698	10.0252	-0.322104
0.5900	-34.8572	-13.3314	7.75952	510.493	-30.9252	-22.9418	0.839047	5.11753	357.905	-0.322104
0.5907	-40.0499	-20.3427	5.62145	479.649	-34.5951	-27.8234	2.66697	24.038	595.948	0
0.5913	-44.6349	-21.2644	0.432419	409.467	-35.8035	-6.15433	4.49489	26.777	479.997	-0.322104
0.5920	-30.6036	-19.421	0.432419	277.657	-38.2426	32.6083	5.7235	13.9651	231.874	-0.322104
0.5927	-10.4406	-16.6889	3.48338	186.691	-30.612	53.0529	6.32282	6.03653	66.4857	-0.322104
0.5933	3.59068	-14.253	2.85877	220.246	-15.664	53.9712	7.23678	-3.73003	71.3606	-0.322104
0.5940	10.6063	-12.4097	-0.192186	240.728	0.201394	47.8652	7.23678	-11.064	173.898	0
0.5947	8.78335	-11.8172	-2.61854	48.1336	28.2847	36.8776	5.40886	-3.73003	201.963	-0.322104
0.5953	8.45191	-10.8955	-4.44431	-179.522	51.7808	27.7267	4.19523	7.55017	120.798	-0.322104
0.5960	14.8599	-6.61631	-3.53142	-278.38	52.0717	23.1351	6.02316	7.26185	30.1582	0
0.5967	18.5058	-2.3371	-3.84372	-366.574	63.0588	16.7391	7.85108	-4.03637	-23.8511	-0.322104
0.5973	10.2749	-5.10213	-5.9818	-354.707	86.264	8.18429	13.0352	-10.145	-94.3579	-1.61052
0.5980	2.04393	-9.67758	-6.58238	-269.223	84.429	-0.660543	22.5044	-2.19838	-119.999	-1.61052
0.5987	9.05956	-6.61631	-5.9818	-212.173	62.1414	-9.50538	27.9882	2.6849	-17.4615	-0.322104
0.5993	18.8373	-0.526671	-5.9818	-106.569	41.3977	-14.387	21.8901	-7.08166	33.8212	0.322104
0.6000	19.1135	-2.96253	-2.61854	-77.8933	17.5884	-13.7909	14.5635	-7.38799	-46.1324	-0.322104
0.6007	17.8982	-13.0351	2.57049	-213.981	-11.7033	-15.3053	13.3498	6.34286	-141.041	-0.966311
0.6013	16.0752	-15.7672	1.033	-348.923	-26.3603	-22.3296	8.46538	8.46916	-249.693	-0.644208
0.6020	15.799	-5.69463	-2.61854	-290.006	-26.9645	-29.0478	2.05267	2.37857	-301.885	0
0.6027	27.0682	5.29963	-3.53142	-86.4477	-36.7209	-33.011	1.13871	-1.60373	-253.659	-0.322104
0.6033	28.8912	7.43923	-7.49526	41.1455	-53.8171	-36.9743	1.43837	-9.53231	-122.423	-0.322104
0.6040	10.2749	6.81381	-11.4831	57.5916	-60.5302	-39.4231	0.839047	-10.4513	85.0764	-0.322104
0.6047	-9.22528	7.11006	-12.396	33.4947	-57.1736	-36.6682	-2.83178	-5.87435	169.024	-0.322104
0.6053	8.12046	4.97046	-16.3599	9.69901	-50.1472	-30.5622	-8.92986	-9.83864	144.897	-0.322104
0.6060	78.3321	3.16003	-16.3599	0.843392	-26.9645	-22.9418	-11.6717	-12.5776	159.549	-0.322104
0.6067	152.797	-0.822924	-11.7714	-12.5906	6.31036	-16.5297	-13.5146	-4.3427	105.843	-0.322104
0.6073	212.016	-5.69463	-6.58238	-15.9642	25.8456	-11.6481	-12.5857	7.55017	21.3173	-0.322104
0.6080	234.002	-7.24173	1.033	-56.8687	27.054	-5.84822	-7.10193	16.1094	5.12276	-0.322104
0.6087	197.045	-8.45966	8.0478	-203.016	21.8625	-3.41549	-1.30352	20.38	-7.38118	-0.322104
0.6093	164.729	-10.2701	12.6362	-381.273	20.0276	-4.6238	4.49489	24.957	-111.737	-0.322104
0.6100	92.3633	-14.253	17.513	-470.673	16.0668	-2.19107	8.76504	32.2729	-266.466	0
0.6107	-80.0445	-17.9068	18.7382	-387.96	1.11886	3.91493	3.58093	36.2372	-306.76	-0.322104
0.6113	-232.621	-9.67758	15.0866	-225.005	-10.1816	9.40871	-4.95937	35.6425	-214.605	0
0.6120	-279.631	3.45628	8.0478	-127.352	-1.94681	13.372	-15.0279	28.6149	-122.12	0
0.6127	-188.096	10.1713	2.57049	-82.4717	28.2847	10.9392	-27.2391	13.3524	-26.3023	0
0.6133	10.2749	15.043	0.120116	-46.4468	85.3465	2.07829	-31.8238	-3.73003	163.515	0
0.6140	128.988	19.3223	-7.49526	-4.63866	126.856	-2.49718	-33.3521	-16.2536	268.201	0
0.6147	108.549	22.3835	-14.2218	34.6996	120.747	6.95987	-36.3937	-20.2179	190.368	0
0.6153	117.995	11.3893	-11.1708	38.3743	100.294	20.7024	-36.094	-14.1093	115.29	-0.322104
0.6160	233.063	-6.32006	-10.5702	18.8558	81.6766	22.539	-34.8654	-6.18068	114.987	-0.322104
0.6167	367.63	1.02043	-17.2727	34.3983	48.4242	16.7391	-31.8238	-3.73003	143.079	-0.322104
0.6173	426.241	19.026	-20.636	-3.73502	14.2319	16.433	-26.6248	-5.26169	175.716	-0.322104
0.6180	351.168	19.3223	-16.9604	-240.547	11.7928	20.0902	-20.8263	-6.79335	190.974	-0.322104
0.6187	209.861	6.18839	-9.63334	-419.407	20.6541	23.4412	-10.4581	-7.08166	161.395	-0.322104
0.6193	105.179	-3.8842	-2.01796	-258.259	-2.551	27.1145	-1.91782	-1.60373	85.7098	-0.322104
0.6200	78.3321	-4.47671	4.08396	-1.02412	-40.7041	27.1145	-5.27401	7.26185	39.605	-0.322104
0.6207	43.8615	-3.55503	8.96068	88.4357	-56.5695	30.1594	-10.7578	11.2261	93.9448	-0.322104
0.6213	-249.414	-5.39838	12.9485	9.69901	-69.9958	41.4531	-8.92986	16.7221	170.841	-0.322104
0.6220	-628.148	-11.8172	13.5491	-112.412	-89.2177	43.902	-5.87333	25.5697	185.191	0
0.6227	-542.414	-6.91256	9.58529	-102.593	-14.1424	36.5715	-2.21748	19.461	105.54	-0.322104
0.6233	-163.956	10.1713	2.57049	13.0123	146.369	34.4288	3.88059	0.540585	-32.7196	-0.322104
0.6240	6.02129	17.8081	-2.93084	111.328	237.019	29.8533	1.43837	-16.2536	-128.537	0
0.6247	-81.8675	22.6798	-3.84372	172.654	233.058	13.372	-11.6717	-22.0378	-209.703	0
0.6253	-331.226	13.8251	-0.192186	171.148	181.479	-1.88496	-18.0845	-11.3703	-265.86	-0.322104
0.6260	-474.356	-20.9681	6.22203	121.388	100.004	-9.19927	-13.2	4.8112	-174.312	0
0.6267	-325.702	-37.4266	10.4982	73.1341	14.2319	-18.9785	-9.54416	14.8841	-39.1092	0
0.6273	-67.2286	-20.9681	8.3601	37.7719	-64.2001	-29.66	-8.92986	15.8031	-10.1354	-1.61052
0.6280	116.172	-7.24173	7.75952	58.194	-125.536	-35.1538	-4.95937	10.6135	18.5631	-1.61052
0.6287	167.16	-1.41543	9.27299	136.027	-165.211	-40.3415	6.32282	6.95552	131.484	0
0.6293	118.603	1.31668	9.27299	225.728	-187.185	-57.725	20.6765	6.03653	196.483	0
0.6300	88.7174	-2.3371	5.90973	271.813	-162.145	-79.7002	27.9882	8.16283	103.998	0
0.6307	150.643	-2.96253	-7.49526	282.536	-96.5351	-80.6185	23.4184	9.08182	-38.5033	0
0.6313	266.042	9.87509	-24.5998	343.863	-50.1472	-65.6676	14.5635	1.15325	-138.287	-0.322104
0.6320	353.931	21.7581	-31.6146	456.155	-30.3211	-47.0436	10.2933	-10.145	-199.347	-0.322104
0.6327	351.445	19.3223	-27.6508	653.629	-11.7033	-24.1662	9.37934	-11.064	-234.435	-0.322104
0.6333	298.689	13.5289	-17.2727	890.14	-8.34668	-3.41549	4.49489	-1.91007	-206.646	-0.322104
0.6340	323.382	11.093	-8.43217	924.297	16.9843	11.2453	-3.4311	-5.87435	-37.8974	-0.322104
0.6347	321.283	4.37795	-7.20698	708.871	111.886	24.6656	-7.40159	-22.0378	122.616	-0.322104
0.6353	111.587	-9.34842	-6.58238	510.794	162.548	42.9836	-8.01589	-19.6052	133.302	-0.322104
0.6360	-37.0116	-15.471	-2.01796	454.95	107.321	61.8977	-9.84382	0.540585	86.6187	-0.322104
0.6367	170.474	-3.8842	1.65761	408.864	32.5588	72.5792	-9.84382	20.6864	59.1596	-0.322104
0.6373	349.014	2.83086	3.17107	285.548	-23.8988	73.8036	-6.48763	31.6602	4.8198	0
0.6380	82.5856	-5.39838	5.62145	115.605	-65.1175	69.5342	-2.51714	30.4529	-82.157	0
0.6387	-157.879	-9.67758	8.3601	-73.0136	-89.531	71.967	-1.30352	26.4886	-120.302	0
0.6393	-145.947	-5.69463	12.0357	-457.239	-101.413	90.5911	-5.27401	24.3443	-140.132	0
0.6400	-376.358	-5.99089	15.6872	-1060.57	-105.396	115.917	-6.78729	29.5339	-126.086	0
0.6407	-475.24	-8.75591	21.4768	-1452.44	-101.727	116.836	2.05267	45.4091	-13.4954	0
0.6413	-54.0812	-11.8172	27.2904	-1409.67	-100.518	86.9178	9.37934	46.9227	88.4365	-0.322104
0.6420	271.234	-8.13049	24.5278	-1120.39	-100.518	59.465	5.1092	35.0299	130.548	-0.322104
0.6427	219.308	7.43923	19.651	-780.74	-84.6304	37.1837	-2.51714	31.3539	156.795	-0.322104
0.6433	95.4016	10.7638	15.6872	-515.192	-66.3259	6.95987	-10.1585	18.5421	150.708	-0.322104
0.6440	104.295	5.29963	14.462	-304.043	-51.0647	-10.4237	-14.114	-1.60373	121.404	-0.322104
0.6447	22.207	11.093	16.2878	-92.5321	-28.1728	-9.19927	-16.2565	-7.69432	75.3266	0
0.6453	-291.839	12.9034	8.6724	49.9408	-14.4556	-5.84822	-21.7553	-10.145	41.4503	-0.322104
0.6460	-466.402	8.65716	-6.58238	94.8214	-8.0334	-8.60317	-23.2686	-15.3346	41.4503	-0.322104
0.6467	-380.336	14.7468	-20.3237	70.122	10.5844	-18.0602	-20.227	-11.6586	33.8212	-0.322104
0.6473	-258.86	25.4119	-29.7889	18.8558	21.8625	-28.4356	-15.9569	-2.50471	16.1119	-0.322104
0.6480	-72.6975	35.1882	-30.7018	-1.32533	5.99708	-35.1538	-9.84382	-0.072078	-7.9871	-0.322104
0.6487	178.761	42.1995	-21.8612	14.8798	-16.2682	-44.3047	-9.84382	-2.50471	-25.3935	-0.322104
0.6493	345.368	38.842	-9.03275	91.749	-23.6079	-51.619	-15.3426	0.540585	-58.0304	-0.322104
0.6500	351.776	26.0373	3.79568	150.666	-35.8035	-52.5373	-13.8143	7.55017	-149.579	-0.322104
0.6507	318.521	18.4006	10.8105	40.1816	-32.156	-49.4924	-6.18797	9.69448	-234.435	-0.322104
0.6513	283.443	18.4006	18.1376	-86.7489	53.6157	-42.162	2.96663	14.2714	-207.885	0
0.6520	-12.595	-4.47671	34.9058	-50.1216	147.286	-27.5173	20.0622	26.1823	-116.336	-0.322104
0.6527	-355.643	-39.2699	45.5962	53.9168	159.191	-12.2603	35.6295	22.8127	-132.2	-0.322104
0.6533	-604.339	-42.9237	39.8066	105.484	137.843	-10.4237	37.7571	10.0008	-212.154	-0.322104
0.6540	-1021.8	-27.9794	26.0653	98.1949	116.16	-17.1419	41.7276	7.26185	-203.01	0
0.6547	-1099.96	-2.3371	8.3601	82.9536	76.7984	-14.6931	53.6241	3.58588	-163.928	0
0.6553	-492.973	41.607	-5.38121	45.3624	23.6974	-3.41549	64.6216	-2.50471	-181.032	-0.322104
0.6560	95.733	77.9144	-12.0837	-11.0846	-24.8163	0.563878	68.8917	-11.064	-204.828	-0.322104
0.6567	170.198	98.3559	-15.1347	-38.2538	-63.5735	3.30272	60.9508	-31.8044	-141.95	-0.322104
0.6573	-2.20965	103.853	-14.8224	-148.678	-94.7001	14.5964	44.4695	-49.2112	17.6542	-0.966311
0.6580	-132.524	109.054	-13.6212	-270.187	-105.687	29.5472	36.8431	-51.0312	119.586	-1.93262
0.6587	-226.544	158.166	-12.6843	-194.462	-94.096	11.5514	50.5825	-51.0312	153.132	-0.322104
0.6593	-304.048	116.065	-12.396	-176.45	-55.0254	-67.4882	68.5771	-54.9955	242.257	-0.322104
0.6600	-302.832	-79.5603	-16.0476	-333.321	5.99708	-141.05	70.42	-50.1122	248.371	-1.93262
0.6607	-145.34	-143.024	-19.4108	-281.151	40.1894	-144.707	55.467	-27.8401	155.28	-0.966311
0.6613	103.688	-53.918	-21.5489	7.22907	38.9586	-100.451	34.7156	-14.1093	134.211	0
0.6620	280.957	-15.7672	-21.8612	195.245	23.3841	-54.374	17.62	-12.8839	167.784	-0.322104
0.6627	484.852	-15.471	-14.8224	206.209	7.83201	-27.2112	2.36731	0.540585	202.266	-0.322104
0.6633	682.284	-14.8455	-9.03275	167.775	13.6277	-5.84822	-9.84382	13.6588	217.222	0
0.6640	457.674	-14.8455	-6.89468	160.425	26.7407	37.1837	-9.22952	14.2714	184.585	-0.322104
0.6647	179.976	-9.05216	-8.43217	175.365	-0.111886	93.636	-6.48763	11.8388	136.662	-0.322104
0.6653	404.863	-6.91256	-6.89468	192.173	3.87125	125.987	-7.40159	17.9294	147.954	0
0.6660	707.916	-10.5663	8.3601	219.945	123.79	135.444	-5.27401	35.0299	220.885	0
0.6667	731.118	-18.5322	24.2395	230.005	216.275	128.435	-6.48763	47.2291	283.459	-0.322104
0.6673	540.37	-22.4823	30.6297	190.968	206.496	102.175	-6.78729	42.9585	304.198	-0.322104
0.6680	257.148	-21.5606	33.0801	129.641	163.778	72.8853	-0.0749149	33.4982	289.243	0
0.6687	41.4309	-22.4823	30.6297	73.1341	91.7464	54.8734	2.66697	36.5435	226.999	0
0.6693	-140.478	-16.0635	22.3897	43.8564	34.6846	54.8734	-1.91782	44.4901	144.897	0
0.6700	-364.15	-0.526671	5.90973	71.3269	8.74947	52.7468	-13.5146	26.1823	72.8754	0
0.6707	-383.982	12.6072	-14.5341	117.111	-40.995	24.3595	-26.9394	-15.0283	18.8661	0
0.6713	-61.152	21.7581	-25.825	78.3752	-118.509	-11.6481	-32.7378	-51.0312	18.8661	-0.322104
0.6720	68.5544	23.8977	-25.2004	-81.2668	-180.472	-30.2561	-42.5067	-69.339	40.5414	-0.322104
0.6727	-381.883	18.4006	-12.9966	-253.981	-201.215	-39.4231	-51.6613	-63.5547	15.203	0
0.6733	-737.415	10.4676	-3.24314	-307.115	-210.681	-49.7985	-51.3467	-41.571	-35.1432	-0.322104
0.6740	-514.627	5.29963	-3.53142	-251.271	-194.189	-59.5617	-54.4032	-18.3799	-69.6255	0
0.6747	-134.954	6.81381	-2.93084	-198.137	-113.318	-64.1371	-51.961	-4.03637	-95.8727	-0.322104
0.6753	150.974	14.1214	-7.20698	-152.654	-44.3515	-55.5984	-37.9219	-8.30698	-109.01	-0.322104
0.6760	201.63	26.6627	-16.3599	-72.7124	-16.5815	-30.8683	-21.141	-21.1188	-101.987	0
0.6767	-172.187	34.892	-17.585	-4.63866	49.0284	-4.01159	-8.31555	-17.1546	-100.445	-0.322104
0.6773	-485.018	32.1269	-21.2366	27.0488	141.2	13.0659	-2.21748	1.76591	-104.438	-0.322104
0.6780	-195.388	36.4062	-38.0289	47.5312	173.244	19.1719	2.05267	7.55017	-105.65	-0.322104
0.6787	301.396	48.3221	-56.0223	56.3868	135.695	7.87818	8.46538	-8.61332	-116.033	-0.322104
0.6793	526.007	50.1325	-55.4217	50.9047	71.0027	-9.50538	16.0917	-18.3799	-108.707	0
0.6800	656.321	37.0316	-31.3023	49.6396	6.91454	-14.097	28.6025	-0.378409	-76.3457	0
0.6807	805.583	14.1214	1.65761	57.2904	-34.5951	-12.5664	39.8997	32.8856	-39.1092	-0.322104
0.6813	717.086	-9.97384	29.7168	65.5436	-55.9429	-7.37875	42.6416	61.5726	9.08877	-0.322104
0.6820	220.523	-30.4153	55.6619	74.098	-87.987	9.71482	39.8997	89.0343	38.6961	0
0.6827	-423.7	-45.3596	75.1929	74.7004	-125.536	52.7468	37.4574	122.298	42.9651	0
0.6833	-866.182	-47.4992	78.2438	57.5916	-167.65	121.105	32.8727	143.057	39.302	0
0.6840	-871.983	-38.6445	62.3885	54.5193	-179.845	150.088	10.6079	135.434	10.3281	-0.322104
0.6847	-429.777	-26.7615	34.3052	90.8454	-32.156	112.566	-17.4702	108.261	-37.2915	-0.322104
0.6853	88.1098	-14.5493	12.0357	112.231	165.613	67.0854	-27.5537	66.7622	-76.6486	0
0.6860	545.562	-5.69463	3.48338	98.1949	215.045	40.5348	-26.3251	12.1451	-95.5698	-0.322104
0.6867	841.876	1.61293	4.08396	122.292	169.887	27.7267	-17.1705	-35.174	-103.805	-0.322104
0.6873	646.599	10.1713	7.13491	186.992	132.652	7.26597	-4.65971	-67.8254	-85.82	-0.322104
0.6880	161.36	9.24966	7.75952	233.077	133.86	-15.9175	-5.87333	-78.4929	-54.6703	0
0.6887	-205.497	0.724173	8.96068	254.463	110.364	23.1351	-11.9864	-63.8611	-81.854	-1.28842
0.6893	-216.767	1.31668	4.99684	260.548	21.2583	75.6402	-14.114	-60.4914	-145.916	-1.93262
0.6900	61.5387	14.7468	-2.01796	267.837	-82.1913	52.7468	-13.5146	-77.2856	-161.505	-0.322104
0.6907	233.394	24.194	1.65761	298.982	-109.67	7.26597	-11.6717	-76.9793	-126.692	0.322104
0.6913	-28.173	16.8864	10.4982	303.26	-43.7473	-25.0684	-20.5267	-62.3294	-77.888	-0.322104
0.6920	-734.653	5.29963	14.462	248.921	-2.551	-70.2431	-28.7673	-49.2112	-28.7536	-0.322104
0.6927	-1084.66	4.0817	12.9485	219.041	-15.9773	-116.626	-16.5562	-34.255	-9.8324	0
0.6933	-656.542	10.7638	6.22203	183.016	-43.7473	-145.319	6.63746	-32.7234	-1.56988	0
0.6940	-135.617	18.1043	3.48338	-0.361454	-85.5479	-155.083	24.632	-41.2646	59.1596	0
0.6947	62.1464	17.4789	2.25819	-214.342	-105.687	-134.638	29.8311	-39.751	117.438	-0.322104
0.6953	74.6861	15.3722	-3.84372	-246.993	-109.67	-98.6304	27.9882	-33.6424	118.65	-0.322104
0.6960	194.283	19.026	-11.1708	-174.04	-144.758	-78.4757	31.3594	-33.9487	107.055	0
0.6967	376.193	24.194	-16.0476	-189.884	-180.159	-81.8429	41.7276	-35.4624	110.718	0
0.6973	169.259	28.1769	-12.9966	-237.174	-152.993	-100.145	47.526	-31.4981	120.798	-0.322104
0.6980	-307.086	24.194	-10.8585	-202.113	-84.3395	-131.271	26.1603	-28.4528	116.832	-0.322104
0.6987	-578.376	16.8864	-13.6212	-163.678	-35.8035	-194.747	-8.01589	-26.0021	110.415	-0.322104
0.6993	-554.622	15.9647	-13.6212	-132.834	-13.2249	-243.273	-18.9984	-21.7315	108.597	-0.322104
0.7000	-340.949	15.3722	-12.396	-103.556	-10.1816	-212.453	-12.9003	-20.2179	100.335	0
0.7007	-159.702	18.4006	-9.03275	-83.0741	-11.7033	-152.328	-3.74574	-13.4966	94.5507	0
0.7013	-140.755	21.7581	-5.9818	-11.3858	1.72304	-123.957	4.49489	-0.072078	82.0468	-0.322104
0.7020	-180.749	19.3223	-9.63334	76.2065	-1.32025	-111.745	5.40886	5.7302	57.6173	-0.322104
0.7027	-188.704	23.6015	-18.1856	135.123	-35.8035	-83.6634	13.6495	5.11753	41.7533	0
0.7033	-73.6366	33.674	-28.876	185.787	-64.8043	-43.0803	38.9857	0.234253	37.7872	0
0.7040	115.565	37.6241	-29.1643	216.27	-67.8475	-1.88496	67.6631	-2.50471	38.0902	-0.322104
0.7047	176.938	31.2382	-19.7231	223.318	-64.8043	24.6656	82.9308	2.6849	42.9651	-0.322104
0.7053	239.802	23.3052	-19.4108	231.27	-62.9693	38.6982	58.8232	2.6849	42.0562	-0.322104
0.7060	384.147	19.9477	-20.636	226.692	-48.6256	54.2773	8.16572	-2.19838	28.9464	-0.322104
0.7067	450.326	12.3109	-10.5702	199.824	-23.8988	59.465	-30.9099	6.34286	15.203	-0.322104
0.7073	359.731	0.395003	13.5491	151.57	4.47543	65.861	-51.961	38.6878	10.9341	0
0.7080	27.3996	-13.9239	40.0949	-10.1809	16.3801	67.3915	-51.047	78.3668	18.5631	0
0.7087	-298.579	-27.0577	50.1606	-243.017	8.74947	50.604	-33.0375	99.4135	28.0099	-0.322104
0.7093	-333.933	-26.7615	45.2839	-300.368	15.7535	25.8901	-22.9689	93.9176	25.2833	-0.322104
0.7100	-269.577	-17.2814	36.131	-203.318	20.6541	-15.6114	-30.5952	74.0781	11.237	-0.322104
0.7107	-195.72	-7.24173	30.0291	-172.534	13.3144	-39.4231	-40.3641	66.1495	5.42572	-0.322104
0.7113	-2.8173	5.29963	19.651	-158.799	36.2062	-30.8683	-40.0645	60.0409	8.78581	-0.322104
0.7120	82.5856	21.4619	-2.93084	-107.834	59.4114	-27.8234	-36.3937	23.4253	6.36214	0
0.7127	-40.0499	32.7524	-25.825	-138.919	43.2327	-28.4356	-33.0375	-19.2989	3.30501	0
0.7133	-68.1677	34.5957	-38.9417	-186.269	18.8192	-25.6806	-30.5952	-33.0297	6.05918	-0.322104
0.7140	40.8233	38.5458	-39.254	-151.449	7.22782	-20.4929	-17.4702	-27.5338	15.809	-0.322104
0.7147	119.211	40.6854	-36.8037	-108.737	-15.9773	-13.7909	9.99365	-26.0021	22.8321	0
0.7153	139.042	33.9703	-29.7889	-87.9537	2.32722	-25.0684	32.2733	-21.7315	22.2262	0
0.7160	111.587	25.7411	-17.8733	-66.628	102.443	-32.3988	39.2854	-5.87435	18.5631	-0.322104
0.7167	117.111	17.4789	-19.0985	-51.6276	137.53	-14.387	35.6295	10.3071	9.08877	0.322104
0.7173	179.644	16.5901	-27.9631	-36.3863	108.238	-2.49718	24.0327	25.876	1.45971	-0.322104
0.7180	210.469	18.7297	-37.116	-24.5186	141.491	0.563878	-7.40159	37.1562	-0.96396	-1.61052
0.7187	341.722	16.261	-35.8908	-22.9523	149.726	12.1637	-41.8924	31.6602	-7.07822	-0.966311
0.7193	422.264	15.043	-17.2727	-4.63866	97.542	26.1962	-39.1505	20.9927	-14.4043	0
0.7200	-121.531	8.65716	-6.2941	21.5667	90.538	37.4898	-0.689217	12.1451	-23.8511	0
0.7207	-740.453	1.02043	3.17107	34.3983	77.4026	53.359	44.4695	8.16283	-33.3255	0
0.7213	-481.98	-5.39838	24.5278	45.7239	31.328	58.2406	56.0663	20.0737	-40.0457	-0.322104
0.7220	59.4396	-18.5322	38.2691	52.712	43.2327	15.8208	28.3028	31.0656	-44.6176	-0.322104
0.7227	89.3251	-17.9068	38.2691	53.9168	64.8938	-30.2561	2.36731	24.3443	-41.5605	0
0.7233	-165.779	-0.197502	17.2007	50.3023	45.9851	-10.1176	-30.5952	4.19854	-36.6856	0
0.7240	-243.338	18.4006	-7.49526	48.4348	17.2975	42.6775	-69.0565	-15.6409	-36.0521	-0.322104
0.7247	-37.6193	31.2382	-10.2579	53.9168	3.87125	64.9588	-71.1841	-25.7138	-31.4802	-0.322104
0.7253	174.783	30.3165	-13.9095	44.1576	9.95784	45.1103	-48.9044	-32.1107	-29.6624	-0.322104
0.7260	268.749	31.5344	-27.6508	8.13271	-0.402789	12.1637	-15.3426	-37.913	-25.6964	0
0.7267	333.767	36.1099	-29.1643	-36.3863	-38.5558	8.4904	13.6495	-35.7687	-18.9762	-0.322104
0.7273	376.469	26.959	-9.94564	-55.6036	-66.0126	54.8734	20.0622	-22.9568	-18.9762	-0.322104
0.7280	327.359	16.261	16.2878	-54.3988	-91.0527	111.954	15.4774	-4.3427	-17.1585	0
0.7287	149.151	9.24966	30.942	-69.9413	-107.522	143.386	-0.988877	11.5325	-20.794	0
0.7293	30.4379	1.9421	33.6806	-90.1225	-61.4477	189.463	-11.6717	24.957	-18.6733	0
0.7300	71.9241	3.16003	28.2033	-78.7969	-11.39	251.103	-1.30352	31.9666	1.45971	0
0.7307	101.202	13.2326	19.0505	-41.266	-8.65996	238.907	14.2638	27.696	4.21388	0
0.7313	13.6446	21.1656	10.1859	-16.5666	-18.4164	176.639	29.5165	13.3524	-26.6053	-0.322104
0.7320	-31.2113	28.1769	-3.84372	-18.6751	-19.6471	145.819	49.3539	-12.2713	-51.0073	0
0.7327	119.542	37.6241	-21.5489	-17.4703	9.66693	110.73	76.8177	-38.832	-48.5836	-0.322104
0.7333	231.516	41.607	-34.6656	8.43392	41.711	74.4158	81.7022	-46.1479	-53.4585	-0.322104
0.7340	72.8632	40.6854	-37.4042	18.8558	35.9153	72.2731	42.0273	-32.4171	-65.3565	-0.322104
0.7347	-40.989	32.7524	-30.7018	-2.83139	9.04037	69.5342	-3.13144	-7.69432	-69.9284	-0.322104
0.7353	46.6236	16.5901	-13.6212	-3.1326	30.4106	42.3714	-35.4797	17.0104	-86.4259	-0.322104
0.7360	29.4988	4.97046	5.90973	24.3379	139.969	1.48219	-59.902	30.7593	-112.673	0
0.7367	-73.6366	1.31668	13.8614	61.2664	230.91	-55.5984	-67.5283	35.6425	-128.84	-0.322104
0.7373	-99.2685	4.97046	21.1885	116.207	266.915	-102.288	-61.4152	42.0395	-96.4787	0
0.7380	-87.0602	11.093	26.6658	168.678	316.055	-123.344	-45.8629	36.5435	-23.2452	0
0.7387	-128.546	12.9034	20.2756	184.221	316.055	-130.063	-27.8534	21.299	13.3853	-0.322104
0.7393	-294.601	8.95341	17.513	134.22	214.127	-103.818	-19.6127	18.2357	18.5631	-0.322104
0.7400	-449.94	-0.822924	19.3387	62.17	79.8417	-57.1128	-26.3251	19.1547	31.9759	-0.322104
0.7407	-310.787	-1.41543	17.2007	43.5552	-45.8732	-22.0235	-36.7083	12.7398	40.5414	-0.322104
0.7413	-17.18	11.3893	2.57049	44.76	-144.445	-14.9992	-47.9905	-6.18068	35.0331	0
0.7420	-20.8259	27.2552	-14.8224	40.784	-170.693	-26.2928	-55.9315	-28.4528	27.1011	0
0.7427	-165.779	39.7637	-22.1495	35.6032	-137.127	-23.2479	-45.2486	-39.751	19.169	0
0.7433	-47.0655	40.3891	-32.2152	2.95187	-87.0695	-8.60317	-26.9394	-44.6343	12.7518	0
0.7440	188.815	42.1995	-33.1521	0.240969	-51.0647	0.563878	-10.4581	-34.8677	15.203	0
0.7447	328.575	44.9646	-23.687	39.8804	9.35365	2.3844	-15.9569	-18.6862	19.472	-0.322104
0.7453	397.24	38.842	-22.4618	25.2415	130.504	-9.19927	-38.5362	-18.0735	19.472	-0.322104
0.7460	331.337	38.5458	-15.7352	-44.6395	195.509	-31.7866	-32.7378	-22.6505	23.438	0.322104
0.7467	161.967	34.892	-7.49526	-90.4237	163.465	-65.6676	-17.7848	-22.9568	33.5183	-0.322104
0.7473	26.4605	20.5402	-6.58238	-62.652	110.968	-107.475	-11.0724	-15.3346	50.2912	-1.93262
0.7480	-167.326	14.1214	2.57049	12.4099	52.3849	-135.862	28.6025	0.540585	57.9202	-1.28842
0.7487	-398.676	10.4676	10.1859	43.5552	-35.1993	-138.907	85.0584	6.03653	43.2681	0.322104
0.7493	-401.99	10.7638	1.033	-7.10859	-124.305	-124.263	103.068	-4.03637	23.438	0
0.7500	-221.02	20.2439	-15.447	-56.5675	-183.515	-95.2632	85.0584	-15.9472	11.237	-0.322104
0.7507	-102.307	25.7411	-19.4108	-44.6395	-219.833	-17.448	65.5356	-17.4609	3.60797	0
0.7513	-57.1747	21.4619	-3.84372	-26.6271	-237.847	58.2406	53.6241	-8.00065	-12.2561	0
0.7520	-40.3813	16.261	12.3239	-32.1091	-253.399	46.6408	53.3244	-1.2974	-33.0225	-0.322104
0.7527	-63.5827	16.261	9.58529	-2.53018	-266.825	21.0085	60.9508	-5.26169	-41.5605	-0.322104
0.7533	-71.4821	15.6685	1.033	90.5441	-257.673	39.6165	59.4225	-10.7576	-40.6516	-0.322104
0.7540	-25.411	15.3722	2.85877	176.028	-235.094	66.7793	37.7571	-12.5776	-37.8974	0
0.7547	23.0908	18.4006	6.53433	199.522	-214.328	142.468	9.07969	-14.1093	-35.7492	-0.322104
0.7553	42.0386	18.7297	4.99684	189.101	-158.788	254.776	2.36731	-13.4966	-36.3826	-0.322104
0.7560	43.5301	18.1043	0.744722	171.148	-49.543	282.229	6.32282	-9.22598	-39.1092	0
0.7567	32.8685	17.1827	-5.38121	146.991	37.1237	223.94	-0.389557	-11.064	-41.5605	0
0.7573	21.8755	18.4006	-5.06891	125.364	125.939	143.08	6.32282	-16.8482	-35.4462	-0.322104
0.7580	17.622	22.0873	-0.192186	102.773	277.298	46.0286	35.6295	-16.2536	-20.794	-0.322104
0.7587	17.622	21.7581	3.17107	53.0132	367.321	-54.374	55.467	-8.30698	-7.07822	-0.322104
0.7593	22.8146	19.9477	4.39626	-3.73502	347.786	-145.319	60.9508	-1.2974	-0.358042	0
0.7600	27.0682	15.9647	-1.39335	-88.2549	280.654	-198.421	74.3755	-3.73003	5.75622	-0.322104
0.7607	32.2609	15.9647	-6.58238	-239.644	169.261	-140.132	93.9133	-4.95536	19.472	-0.322104
0.7613	35.9068	18.7297	-8.11987	-312.296	13.0235	-31.4805	96.0559	-2.81104	26.4951	0
0.7620	41.0995	15.9647	-15.1347	-224.101	-81.2738	10.0209	48.44	-4.95536	17.6542	-0.322104
0.7627	67.9467	18.4006	-19.7231	-126.75	-68.1608	-1.88496	-40.9784	-2.19838	12.7518	-0.322104
0.7633	96.3407	19.026	-21.2366	-108.135	-96.5351	-44.9169	-106.589	1.15325	16.1119	-0.322104
0.7640	101.202	11.3893	-14.5341	-109.942	-164.293	-96.4876	-123.67	2.97322	12.4489	0
0.7647	97.556	9.54592	-1.70565	-82.7729	-174.676	-112.969	-107.203	6.64919	4.21388	0
0.7653	95.1254	8.03174	-4.75661	-36.3863	-162.145	-93.7327	-74.855	5.42387	-2.20334	0
0.7660	90.5404	4.0817	-9.94564	-8.91586	-178.324	-58.9494	-56.8454	8.16283	-5.23293	0
0.7667	82.9171	4.97046	0.432419	-2.53018	-189.915	-57.1128	-57.7594	17.9294	-8.29006	-0.322104
0.7673	55.7384	4.67421	13.8614	-2.53018	-133.771	-51.3129	-59.5873	23.4253	-10.7413	-0.322104
0.7680	16.4066	4.0817	19.3387	-6.50617	-108.753	93.0238	-55.6168	22.2	-2.5063	-0.322104
0.7687	11.8216	6.51756	12.6362	-10.1809	-123.388	262.397	-51.961	10.0008	5.12276	-0.322104
0.7693	24.6376	4.67421	11.0988	-13.4943	9.04037	279.184	-35.7794	-3.73003	6.6651	-0.322104
0.7700	3.25923	1.9421	16.6001	-15.663	220.84	228.226	-9.22952	-2.50471	11.8429	0
0.7707	-30.3274	1.31668	10.8105	-12.8918	358.773	178.169	11.2073	-0.072078	15.203	0
0.7713	-29.7198	3.75253	0.744722	-7.4098	410.666	111.648	42.3419	-7.69432	16.7178	-0.322104
0.7720	-6.18702	5.89214	-7.49526	-6.80738	349.017	64.3466	79.26	-16.8482	17.6542	-0.322104
0.7727	7.2366	4.97046	-12.396	-9.51828	236.101	71.6609	100.326	-21.7315	13.3853	0
0.7733	9.66721	4.0817	-7.20698	-6.20496	121.06	78.6852	88.7292	-21.4252	6.05918	0
0.7740	12.0978	1.61293	-2.93084	0.843392	-27.5687	43.2897	36.8431	-19.2989	-4.02109	-0.322104
0.7747	23.4223	0.395003	-2.93084	11.8075	-155.141	70.4365	-3.13144	-14.4156	-13.1649	-0.322104
0.7753	33.4762	-1.11918	2.57049	25.8439	-207.929	142.468	-11.3721	-8.30698	-21.4275	-0.322104
0.7760	24.9138	-5.99089	14.7743	33.7959	-177.406	114.693	-18.3841	-2.19838	-27.2112	-0.322104
0.7767	14.5837	-8.45966	12.0357	31.326	-112.4	-11.342	-27.2391	1.45958	-26.9083	0
0.7773	17.2905	-10.2701	-8.11987	24.6391	-105.687	-127.614	-21.7553	-2.81104	-26.3023	-0.966311
0.7780	26.1291	-9.67758	-15.7352	20.9643	-128.892	-151.425	-3.13144	-6.18068	-22.3363	-1.93262
0.7787	31.9294	-2.3371	-12.6843	17.9522	-127.975	-142.565	-9.54416	-3.11737	-11.6501	-0.322104
0.7793	33.4762	2.53461	-19.0985	8.79537	-131.936	-162.107	-33.0375	-5.56802	-5.86639	0.322104
0.7800	37.1221	3.16003	-24.5998	0.843392	-135.606	-181.939	-30.5952	-12.5776	-4.32405	-0.322104
0.7807	43.2539	3.75253	-18.4979	-2.53018	-112.714	-191.396	-17.7848	-17.1546	0.247876	-0.322104
0.7813	44.1377	3.75253	-10.5702	-2.53018	-82.5046	-194.135	-8.6302	-18.9925	1.76267	-0.322104
0.7820	34.4153	3.16003	-9.94564	5.42181	-49.8563	-198.727	-4.95937	-13.1903	-4.32405	-0.322104
0.7827	22.8146	0.395003	-20.9243	12.4099	37.1237	-185.29	-21.4406	-6.18068	-14.1014	-0.322104
0.7833	24.6376	-0.822924	-31.9269	10.3014	143.93	-123.344	-40.9784	-7.08166	-16.828	-0.322104
0.7840	26.4605	0.724173	-31.9269	8.13271	156.752	-61.3983	-42.8064	-5.56802	-11.0442	-0.322104
0.7847	12.4293	-5.69463	-28.5637	5.42181	103.964	-49.4924	-40.0645	2.07224	-9.8324	-0.322104
0.7853	1.10482	-10.8955	-16.3599	2.95187	90.8289	-51.619	-23.2686	11.5325	-7.38118	-0.322104
0.7860	-4.97171	-8.45966	1.65761	0.843392	92.3729	-48.5741	27.9882	18.8484	0.853794	-0.322104
0.7867	-19.6106	-12.4097	10.8105	-1.62654	54.2199	-54.374	79.26	16.4158	-1.26692	-0.322104
0.7873	-22.3727	-12.1134	21.1885	6.92786	-2.551	-48.268	94.213	11.8388	-8.29006	-0.322104
0.7880	-9.22528	-2.63336	23.3266	16.3859	-50.1472	-25.6806	84.1444	7.26185	-8.29006	0
0.7887	-7.40232	-3.25878	9.58529	12.1087	-71.5174	-9.19927	56.0663	-5.56802	-8.59302	-0.322104
0.7893	-12.595	-6.61631	10.8105	11.8075	-67.5566	-4.3177	28.6025	-9.83864	-11.3472	-0.322104
0.7900	-7.73377	-4.77296	13.5491	16.0847	-55.9429	-12.5664	22.5044	-8.00065	-16.828	-0.322104
0.7907	-3.42496	-5.99089	0.432419	14.8798	-50.4605	-11.6481	12.1212	-10.7576	-25.6964	-0.322104
0.7913	-8.00998	-8.45966	4.70856	21.2655	-41.3082	31.3839	-15.6422	-8.61332	-30.8743	-0.322104
0.7920	-12.595	-9.67758	21.1885	33.7959	-10.1816	92.1055	-42.5067	-5.26169	-31.7831	0
0.7927	-13.8103	-9.97384	22.3897	33.1935	21.2583	131.174	-57.7594	-3.11737	-27.8171	0
0.7933	-15.3571	-11.8172	15.3749	22.5306	20.945	138.811	-64.7714	1.45958	-22.9423	0
0.7940	-11.1035	-12.7059	12.6362	14.8798	-5.30339	111.954	-59.2876	1.45958	-22.0334	0
0.7947	0.220965	-9.97384	11.7234	11.2051	-37.0342	57.0161	-35.7794	-2.81104	-18.6733	0
0.7953	9.39101	-8.13049	9.89759	6.32544	-55.3387	0.563878	-14.4286	-5.56802	-15.0102	0.322104
0.7960	17.622	-7.53798	6.53433	1.44581	-33.6776	-31.7866	-4.95937	-7.69432	-14.1014	-0.322104
0.7967	23.0908	-7.83424	2.57049	-0.0602423	12.3969	-40.6476	5.1092	-9.53231	-12.559	-0.322104
0.7973	21.8755	-9.67758	-2.93084	-8.61465	16.671	-44.6108	10.9076	-10.4513	-13.4954	-0.322104
0.7980	18.8373	-11.488	-11.4831	-20.5426	-4.67683	-61.0922	6.93712	-11.3703	-17.7644	0
0.7987	17.0143	-12.1134	-12.9966	-8.31343	-5.90757	-87.3367	1.75301	-9.22598	-24.4571	-0.322104
0.7993	15.1913	-13.6276	-2.61854	21.5667	-9.86833	-104.124	-1.60318	-6.79335	-29.6624	-0.322104
0.8000	9.39101	-17.9068	-1.70565	44.76	-28.7994	-104.124	-3.74574	-4.64903	-28.7536	-0.322104
0.8007	6.2975	-14.8455	-16.9604	71.3269	-44.0606	-79.3941	-4.36005	-3.4237	-26.6053	0
0.8013	8.45191	-4.77296	-26.7379	104.882	-44.0606	-29.9661	-7.71623	-4.3427	-27.5142	0
0.8020	10.2749	-0.197502	-25.5127	155.847	-31.2385	16.433	-13.2	-4.64903	-26.9083	-0.322104
0.8027	12.4293	-0.822924	-23.0623	244.343	-18.7297	44.1919	-14.4286	-1.91007	-24.1541	-0.322104
0.8033	5.68985	-7.24173	-19.7231	326.453	-15.9773	57.9345	-24.1825	3.27955	-22.0334	0
0.8040	-3.42496	-13.9239	-14.2218	367.659	-18.4164	75.6402	-40.6638	6.03653	-14.1014	0
0.8047	-9.22528	-12.1134	-10.8585	375.912	-13.5382	92.7177	-46.7769	3.89221	-2.80926	0.322104
0.8053	-25.7424	-13.9239	-3.24314	353.923	-9.55505	87.8361	-39.7498	-0.072078	4.21388	-0.644208
0.8060	-38.2269	-17.9068	13.8614	286.151	15.1493	95.1665	-25.1115	2.07224	9.72223	-0.966311
0.8067	-33.0343	-18.2031	30.0291	160.124	99.6903	117.142	-15.0279	6.95552	13.3853	0.322104
0.8073	-16.2409	-14.253	40.0949	42.9527	163.174	118.962	-4.36005	7.26185	15.809	0.322104
0.8080	8.12046	-7.24173	38.2691	-30.6031	138.447	111.036	6.02316	-0.378409	19.472	-0.322104
0.8087	29.2226	-2.04085	23.0143	-105.063	91.7464	96.391	8.76504	-14.4156	18.2602	0
0.8093	43.2539	4.67421	7.13491	-214.944	61.8505	74.7219	15.1778	-20.8305	15.506	-0.322104
0.8100	46.8998	5.29963	-7.49526	-427.298	18.5059	54.2773	22.1898	-17.1546	14.2942	-0.322104
0.8107	38.9451	-4.47671	-22.7741	-589.35	-33.6776	33.8166	20.9762	-11.3703	7.87693	0
0.8113	35.9068	-9.67758	-36.2031	-485.312	-64.8043	13.0659	21.2758	-4.03637	4.51684	-0.966311
0.8120	46.0159	-13.0351	-49.9204	-296.693	-84.6304	-11.9542	22.8041	3.27955	6.6651	-1.93262
0.8127	57.5614	-19.1248	-57.8721	-186.269	-92.5743	-42.4681	15.7921	10.6135	2.09317	-0.322104
0.8133	70.3773	-15.1747	-57.8721	-108.436	-72.4349	-61.9944	5.1092	13.9651	-5.86639	0.322104
0.8140	84.4638	-8.75591	-69.4513	-55.3024	-59.0086	-71.1614	-7.40159	0.540585	-11.0442	-0.966311
0.8147	88.7174	-2.96253	-73.1269	-18.3739	-40.7041	-72.0798	-19.3131	-15.9472	-13.7984	-1.61052
0.8153	75.2938	5.89214	-33.7527	18.5546	38.0412	-51.619	-20.5267	-9.83864	-10.1354	-0.322104
0.8160	32.8685	-6.61631	9.58529	36.5671	105.486	-14.097	-21.4406	4.8112	-9.8324	0
0.8167	-20.5497	-23.1077	9.89759	6.62665	96.0204	32.9144	-23.2686	20.0737	-9.19894	-0.322104
0.8173	-63.8589	-22.7785	22.1014	-55.9048	63.6854	70.7426	-16.2565	42.0395	3.00205	-0.322104
0.8180	-91.9766	-26.7615	67.5775	-128.256	51.7808	78.073	-10.7578	48.1481	11.8429	-0.322104
0.8187	-84.2981	-26.1361	73.6794	-196.33	45.3585	72.2731	-8.31555	33.8046	10.3281	-0.322104
0.8193	-64.798	-18.8285	49.56	-202.414	21.2583	64.9588	-3.13144	23.119	12.7518	-0.322104
0.8200	-51.3743	-21.2644	43.1458	-159.1	-1.94681	54.2773	1.13871	18.5421	15.809	-0.322104
0.8207	-24.8033	-23.7002	41.6323	-107.532	-3.15518	34.1227	5.7235	8.46916	7.27102	-0.322104
0.8213	-0.110482	-18.8285	30.6297	-50.4228	2.03632	-16.2236	2.66697	-14.1093	-10.7413	-0.322104
0.8220	10.8825	-15.7672	20.2756	-17.7715	1.11886	-65.0554	-11.3721	-31.4981	-15.9191	-0.322104
0.8227	7.84425	-15.1747	19.651	-11.687	-10.7858	-84.2756	-17.4702	-25.7138	-3.41517	0
0.8233	-10.4406	-13.3314	20.8762	-4.03623	-28.7994	-101.981	-13.2	-13.4966	3.91092	0
0.8240	-24.1957	-14.5493	13.5491	-3.73502	-30.612	-120.896	-8.92986	-10.145	6.6651	-0.322104
0.8247	-24.1957	-20.6389	10.1859	-10.7834	-31.5294	-124.263	3.88059	-7.69432	18.5631	-0.322104
0.8253	-22.9804	-22.7785	16.9124	-12.5906	-57.7778	-109.602	32.8727	-5.26169	24.9803	0
0.8260	-27.2339	-20.0464	23.0143	-50.724	-80.6697	-92.2183	62.1794	-4.64903	23.135	0
0.8267	-22.3727	-18.8285	22.3897	-109.641	-85.8612	-83.9695	71.334	-2.81104	21.3173	-0.322104
0.8273	-4.6955	-18.5322	12.6362	-100.785	-89.531	-73.2881	55.7666	-2.81104	14.2942	-0.322104
0.8280	4.19833	-16.0635	2.85877	-52.5915	-83.713	-29.9661	32.2733	-3.73003	6.05918	-0.322104
0.8287	-2.8173	-12.4097	-1.70565	-25.121	-63.5735	44.1919	15.4774	-7.69432	-0.661001	-0.322104
0.8293	-15.6333	-9.34842	-5.38121	-9.21707	-43.1432	109.199	-0.689217	-15.0283	-8.29006	0
0.8300	-22.3727	-7.53798	-3.84372	0.542181	-25.1296	154.986	-12.9003	-15.3346	-10.1354	-0.322104
0.8307	-17.18	-5.39838	1.3453	3.55429	-21.773	191.606	-19.6127	-12.5776	-6.77526	0
0.8313	-16.5724	-5.69463	2.57049	3.85551	-33.6776	198.308	-29.3816	-15.3346	-6.77526	0
0.8320	-33.0343	-8.13049	4.39626	5.72302	-34.2818	154.374	-36.3937	-15.0283	-7.68414	-0.322104
0.8327	-39.7737	-10.8955	-1.70565	7.8315	-26.3603	83.2607	-36.7083	-11.6586	-6.16935	-0.322104
0.8333	-24.1957	-11.8172	-17.8733	8.79537	-30.3211	24.6656	-22.6692	-11.9649	-3.41517	-0.322104
0.8340	-10.772	-10.5663	-21.2366	16.0847	-14.1424	-7.68486	-0.0749149	-10.4513	0.247876	0
0.8347	-11.7111	-10.8955	-20.3237	21.5667	68.5636	-28.1295	-0.689217	-4.3427	2.09317	-0.322104
0.8353	-15.0256	-16.6889	-26.1133	31.9887	144.847	-47.9619	-21.141	0.846916	-3.11221	-0.322104
0.8360	-7.73377	-18.2031	-21.8612	64.3388	139.656	-54.9862	-36.7083	1.76591	-9.8324	0
0.8367	-6.51847	-7.83424	-6.2941	101.568	105.173	-56.8067	-43.106	6.03653	-11.9531	-0.322104
0.8373	-17.18	3.75253	7.44722	139.702	93.268	-69.3248	-39.1505	2.37857	-9.19894	-1.61052
0.8380	-16.9038	10.4676	1.94589	174.763	80.4683	-70.2431	-33.0375	-29.0654	-4.92997	-1.61052
0.8387	-11.1035	21.1656	-23.3747	180.606	39.8761	-47.6558	-34.5657	-68.438	-6.16935	-0.322104
0.8393	-10.4406	26.3336	-39.5423	177.534	-5.30339	-18.0602	-33.0375	-83.0698	-8.59302	0.322104
0.8400	-6.18702	9.24966	-38.9417	174.462	-38.8691	-0.966648	-23.8829	-43.7153	-4.92997	0
0.8407	-6.18702	-15.471	-26.4256	140.003	-68.4741	0.869984	-7.40159	1.45958	1.45971	-0.322104
0.8413	-14.7494	-21.8898	-14.8224	92.4117	-83.1088	1.17609	11.2073	14.2714	7.57397	0
0.8420	-16.2409	-24.3256	-36.2031	58.194	-80.0655	3.91493	14.2638	49.6797	10.6311	-0.322104
0.8427	-11.3797	-36.5378	-63.974	14.8798	-74.5607	1.77219	7.23678	85.6827	10.3281	-0.322104
0.8433	-11.9873	-38.3483	-46.5811	-54.0976	-40.3908	-7.37875	4.19523	93.9176	10.0252	-0.322104
0.8440	-14.418	-24.9181	-15.1347	-122.774	20.6541	-20.1868	-1.60318	71.6455	7.87693	0
0.8447	-8.00998	-11.488	3.79568	-137.111	48.1109	-24.7784	-6.78729	10.9198	3.00205	0
0.8453	2.37537	-2.3371	25.753	-96.5081	43.2327	-14.097	-5.57367	-19.2989	3.00205	0
0.8460	1.10482	2.83086	33.9929	-76.9896	29.4931	-7.07264	-3.4311	-11.9649	4.8198	0
0.8467	-0.386689	-0.526671	23.6149	-80.6644	6.91454	-14.097	-1.30352	-22.6505	1.15675	0
0.8473	9.05956	-7.53798	17.8253	-57.1699	-12.9116	-22.6357	5.1092	-48.9049	-1.87284	-0.322104
0.8480	17.2905	-8.45966	15.3749	-26.6271	-25.7337	-24.4723	16.4064	-57.4461	0.550834	-0.322104
0.8487	20.3288	6.51756	0.744722	-0.662665	-37.9517	-17.7541	23.7181	2.37857	-1.26692	0
0.8493	25.5214	32.7524	-19.7231	19.4583	-37.6384	-6.46043	16.4064	77.4478	-7.38118	0
0.8500	26.7368	35.4845	-29.4766	23.4342	-5.59429	-2.80328	3.58093	43.2648	-9.19894	-0.322104
0.8507	20.3288	14.4505	-21.8612	8.43392	31.6413	-5.23601	3.58093	-40.3456	-2.80926	-0.322104
0.8513	13.6446	1.9421	-4.75661	-53.1939	43.8369	1.17609	10.9076	-55.9145	6.96806	-0.322104
0.8520	0.497171	3.45628	6.22203	-121.207	41.3977	9.71482	14.5635	-32.1107	10.0252	-0.322104
0.8527	-11.7111	9.54592	10.1859	-105.063	38.0412	7.87818	16.4064	-14.4156	-0.661001	-0.322104
0.8533	-1.32579	8.32799	8.96068	-36.6875	34.9979	1.48219	13.9641	-9.53231	-16.2221	-0.322104
0.8540	13.9208	1.02043	4.08396	-6.50617	18.5059	-8.90928	11.5219	-6.18068	-21.4275	-0.322104
0.8547	14.5837	-0.822924	3.48338	-15.9642	-6.82503	-22.6357	16.0917	6.34286	-14.1014	-0.322104
0.8553	15.4675	6.81381	0.432419	-22.6511	-24.5254	-29.3539	15.1778	3.58588	-7.9871	-0.322104
0.8560	24.3061	10.7638	-7.80757	-16.2654	-32.156	-26.5989	6.32282	-18.3799	-8.59302	0
0.8567	26.1291	1.31668	-11.7714	-6.80738	-33.3643	-17.448	-1.30352	-26.6148	-9.8324	0
0.8573	6.90515	-10.2701	-9.63334	-0.361454	-30.9252	-10.7298	-9.84382	-18.6862	-11.9531	-0.322104
0.8580	-8.00998	-13.6276	-16.3599	6.02423	-30.0078	-10.4237	-18.9984	-12.2713	-15.6162	-0.322104
0.8587	-3.42496	-7.83424	-39.254	13.9762	-29.4036	-7.99096	-22.6692	-5.56802	-15.6162	-0.322104
0.8593	-1.93344	-3.55503	-42.9056	13.3738	-23.0037	-2.49718	-21.7553	3.89221	-11.9531	0
0.8600	-5.57936	-16.6889	-5.38121	5.42181	-14.1424	0.257773	-17.1705	20.38	-5.23293	0
0.8607	-1.32579	-38.9737	21.4768	2.34945	-11.0991	2.3844	-11.3721	24.038	-0.96396	-0.322104
0.8613	8.45191	-49.3425	20.2756	6.92786	-15.0598	6.36377	-11.3721	7.8565	-2.5063	-0.322104
0.8620	9.05956	-40.1916	37.3562	13.0123	-18.1031	13.6781	-11.0724	12.1451	-2.20334	0
0.8627	2.37537	-21.5606	61.4515	11.8075	-18.4164	19.1719	-3.74574	23.7317	0.853794	-0.322104
0.8633	4.47454	-13.0351	55.0614	0.542181	-19.9381	23.4412	6.63746	20.38	2.69909	-0.322104
0.8640	9.99866	-20.3427	32.7678	-9.51828	-21.4597	32.9144	8.16572	27.3896	4.51684	0
0.8647	8.78335	0.724173	23.3266	-17.4703	-19.0206	26.8084	0.224745	44.7964	2.39613	0
0.8653	8.12046	48.6183	25.753	-27.2295	-11.0991	-1.57886	2.36731	77.1414	-0.661001	-0.322104
0.8660	6.62895	27.8807	23.6149	-9.51828	-3.15518	-20.4929	12.7355	125.055	-0.96396	-0.322104
0.8667	-1.93344	-33.7728	18.1376	41.4467	-0.716069	-26.2928	14.5635	116.514	-4.32405	0
0.8673	-2.5411	-27.0577	13.2368	80.4837	2.03632	-29.3539	9.99365	25.5697	-10.7413	-0.966311
0.8680	10.2749	0.395003	4.08396	85.6645	5.07962	-21.1052	5.1092	-16.2536	-10.4383	-1.61052
0.8687	17.0143	-2.96253	-12.0837	78.6764	4.78871	-11.0359	-0.0749149	-28.7591	-5.86639	-0.322104
0.8693	13.9208	11.093	-33.7527	78.9776	4.47543	-12.2603	-2.83178	-105.36	-5.23293	0.322104
