MR32 ASCII
Name	TYR15_slow
Frequency	1500
Date	26-08-2015 11:16:27
"Time,s"	"RT TIB.ANT.,uV"	"RT MED. GASTRO,uV"	"RT LAT. GASTRO,uV"	"RT BICEPS FEM.,uV"	"RT VMO,uV"	"RT VLO,uV"	"RT RECTUS FEM.,uV"	"RT SOLEUS,uV"	"RT SEMITEND.,uV"	"Channel 12,uV"
0.0000	-3.02035	-5.37158	1.35152	-3.8446	1.48008	-1.39692	-5.64217	-1.23204	152.696	-9788.27
0.0007	-20.7485	-5.66281	-1.07664	16.9353	-0.653542	-2.92083	-6.24193	-3.06726	100.218	-10176.7
0.0013	-22.8934	-4.14194	-0.16035	25.1646	-0.653542	-2.31762	-2.58785	-3.67044	83.7258	-9536.3
0.0020	-32.9612	-7.7985	-3.82549	7.14904	-3.40226	-5.06383	-1.666	-5.19765	46.7996	-9891.98
0.0027	-44.2547	-6.27763	-3.5277	-12.3599	-3.09471	-2.01601	1.98809	-1.54005	-37.7218	-9821.67
0.0033	-40.8841	0.420666	0.435235	-38.3189	-0.653542	3.17482	6.57513	4.5688	-24.304	-9791.77
0.0040	-36.9008	-1.39143	-2.61141	-60.5921	-4.61324	-0.476223	1.68821	3.04159	6.52808	-9813.4
0.0047	-30.5099	-6.27763	-5.65806	-42.5765	-7.36196	-5.36544	-4.42044	-0.320843	-97.8489	-9812.76
0.0053	-12.8255	-6.89245	-3.82549	-15.1242	-5.84343	-5.06383	-4.10945	0.295175	-147.904	-9802.58
0.0060	-0.306412	-8.12209	-5.36027	-7.78451	-6.74686	-5.66705	-5.0313	0.295175	-50.2355	-9792.4
0.0067	-4.85882	-5.37158	-4.14619	15.0924	-5.53589	-4.14314	-4.72032	3.3496	-30.7055	-9911.71
0.0073	-12.8255	1.6503	3.80258	52.0132	0.269106	1.65091	1.37722	9.75362	-47.7942	-9629.51
0.0080	-23.8126	-0.776614	2.8863	62.0855	-1.57619	0.4286	1.98809	7.62323	93.2014	-9849.03
0.0087	-38.4328	-6.60122	-4.14619	61.7677	-7.36196	-5.66705	-2.88772	-1.23204	172.533	-10424.5
0.0093	-22.2805	-5.04799	-2.90921	64.8498	-6.45853	-4.76223	-1.666	-2.45124	29.7109	-5912.03
0.0100	18.0345	-4.75676	-1.39733	54.1421	-7.05441	-4.44475	-1.97698	0.295175	-79.223	-20.0429
0.0107	46.0931	-7.21604	-2.61141	43.1802	-9.18803	-5.36544	-4.72032	0.911194	-38.0292	113.895
0.0113	57.9994	-3.85071	1.97001	48.0416	-2.78716	-2.31762	-0.144386	5.788	15.0634	-274.238
0.0120	52.7904	-3.85071	5.01666	51.4096	3.01783	-6.58775	0.466479	11.5888	84.9555	81.7624
0.0127	52.7904	-9.64296	3.48188	52.0132	1.48008	-7.81005	-4.10945	13.1161	167.958	11.135
0.0133	83.3441	-10.2578	5.31445	64.8498	1.17253	15.0804	-2.58785	14.0272	113.943	-18.4522
0.0140	123.922	-9.93419	5.63515	77.0508	2.71028	36.4469	-0.144386	13.1161	-9.34908	3.18142
0.0147	116.874	-13.6231	-0.48105	88.9341	1.48008	40.717	-2.27686	9.75362	-63.0565	0.954425
0.0153	43.3354	-10.8726	-0.778842	80.387	1.17253	44.6856	1.37722	9.75362	-129.278	0.954425
0.0160	-18.2972	-3.85071	2.26781	16.2998	-0.961091	45.5904	6.87501	10.6648	-209.839	0.954425
0.0167	-16.1523	-3.85071	-2.90921	-33.7435	-8.8997	36.7485	3.82068	6.40402	-195.806	0.954425
0.0173	-3.02035	-5.04799	-5.65806	-5.65569	-14.0704	28.2083	0.766358	3.3496	-69.458	1.27257
0.0180	-5.16523	-3.85071	-5.36027	43.7839	-15.3006	19.6521	1.98809	0.911194	79.7655	1.59071
0.0187	3.37053	-7.21604	-7.19284	62.0855	-21.4131	5.61943	0.466479	-5.50566	111.809	-0.318142
0.0193	-4.55241	-7.7985	-0.778842	66.9786	-15.9157	-4.14314	3.5208	-3.67044	95.0279	-0.636283
0.0200	-53.0968	-4.46553	8.06331	73.0791	8.49605	-10.5563	8.09674	7.62323	113.328	1.27257
0.0207	-72.0068	-9.64296	6.23074	62.0855	18.5683	-21.5411	3.20982	16.1705	109.061	1.59071
0.0213	-6.69729	-14.2056	2.8863	30.9474	10.6489	-31.0021	-1.05513	18.9169	122.804	0.954425
0.0220	108.645	-12.3935	2.26781	-3.52686	24.0657	-34.3515	-0.144386	19.2121	113.039	1.27257
0.0227	216.371	-12.3935	-1.99292	-84.7082	52.4564	-38.0184	-1.666	18.9169	104.485	1.27257
0.0233	276.515	-7.7985	-3.82549	-209.515	60.6833	-40.1614	-0.144386	15.2465	185.354	1.59071
0.0240	285.357	-0.194153	-1.99292	-244.91	53.6673	-38.0184	5.04241	8.22641	178.338	1.59071
0.0247	227.971	-1.39143	-6.27655	-158.264	39.3279	-38.6375	2.59895	3.04159	13.8518	1.27257
0.0253	18.0345	-5.66281	-9.3232	-44.7371	17.3573	-39.844	-3.19871	3.3496	-150.941	1.27257
0.0260	-199.255	-6.27763	-3.5277	44.9913	-6.45853	-35.2722	-3.49859	7.62323	-286.132	1.27257
0.0267	-177.281	-10.2578	3.18409	84.3587	-31.7737	-29.7798	-2.88772	10.6648	-298.646	1.27257
0.0273	-57.6492	-13.0083	8.06331	68.5037	-47.0358	-27.3352	-3.19871	10.9728	-111.574	1.27257
0.0280	-6.69729	-9.93419	12.0262	54.7775	-43.3837	-23.0651	-1.97698	7.62323	-22.7669	1.59071
0.0287	41.4969	-9.35173	12.0262	82.8336	-37.5787	-19.0965	-2.27686	1.51438	-157.361	1.27257
0.0293	78.7479	-11.4874	9.89588	115.179	-43.672	-19.3981	-4.10945	-4.58164	-250.436	1.27257
0.0300	34.7996	-8.73691	7.76552	101.771	-54.0518	-19.0965	-0.144386	-13.1289	-114.015	1.59071
0.0307	-33.574	-5.37158	1.97001	52.0132	-55.5895	-23.6841	5.65328	-20.4569	76.402	1.27257
0.0313	-38.1264	-5.04799	-4.44398	20.2715	-45.2097	-28.2559	6.87501	-12.5257	82.8216	1.27257
0.0320	-11.2935	-3.85071	-5.65806	24.2432	-36.3485	-23.0651	9.00748	-1.23204	-9.96391	1.59071
0.0327	3.67694	-3.23589	-3.5277	11.1207	-31.7737	-16.6519	14.1943	-4.88964	-22.4595	1.27257
0.0333	16.8089	-5.04799	-2.90921	-61.5135	-32.6963	-16.9694	12.9837	-10.3825	69.0783	0.954425
0.0340	-16.4587	-7.21604	-4.44398	-76.4471	-42.461	-19.3981	5.96426	-9.16327	86.167	1.27257
0.0347	-74.4581	-9.64296	-4.44398	67.9	-51.0147	-18.7949	-0.144386	-5.81367	-58.174	1.27257
0.0353	-53.4032	-10.2578	-5.06248	265.627	-50.7072	-14.8264	-2.58785	-1.83522	-292.859	0.954425
0.0360	-10.3742	-6.89245	-5.65806	410.895	-43.672	-8.41327	1.68821	2.1304	-514.416	0.954425
0.0367	-57.0364	-2.00625	-3.5277	471.011	-42.7686	-2.01601	8.7076	6.6992	-566.605	1.27257
0.0373	-137.01	-2.32984	-2.90921	443.876	-52.8408	-5.98453	9.92933	10.0616	-414.307	1.59071
0.0380	-172.729	-7.21604	-8.10912	367.556	-37.5787	-16.6519	3.82068	5.788	-140.272	1.27257
0.0387	-157.452	-7.7985	-9.94169	289.139	7.90017	-16.0487	0.166599	3.3496	84.9555	1.59071
0.0393	-101.291	-5.04799	-5.36027	213.454	32.927	-5.06383	3.20982	8.84243	213.745	1.59071
0.0400	-102.823	-4.46553	-2.61141	126.776	33.8304	6.22264	5.3534	9.44561	298.266	1.27257
0.0407	-143.094	-3.52712	0.755935	27.6112	38.7128	16.6043	6.57513	6.40402	278.736	1.27257
0.0413	-91.8361	-3.52712	2.26781	-65.4852	35.964	20.8744	4.13167	7.00721	189.929	1.59071
0.0420	9.14859	-8.73691	-3.5277	-108.507	24.6808	16.6043	-4.10945	6.09601	77.9391	1.27257
0.0427	64.6967	-10.549	-5.36027	-190.609	33.2153	12.6358	-8.99637	6.09601	-31.9351	1.59071
0.0433	28.4088	-7.21604	0.435235	-395.993	43.9026	14.7788	-6.85279	8.22641	-103.346	1.59071
0.0440	-3.93958	-6.27763	3.18409	-510.41	30.1783	19.6521	-1.36612	7.31522	-126.836	1.27257
0.0447	65.0031	-6.27763	2.5656	-434.122	10.9372	25.462	4.13167	2.73358	-121.647	1.27257
0.0453	128.781	-5.04799	2.26781	-339.532	-8.59216	26.0653	7.78575	-3.36243	-129.893	1.59071
0.0460	93.1055	-8.73691	0.755935	-282.149	-34.5224	12.9374	9.31847	-7.63606	-61.5375	1.27257
0.0467	-7.0037	-12.3935	1.05373	-209.832	-53.1483	0.126993	13.2835	-7.94407	39.7833	0.954425
0.0473	-53.0968	-9.02814	4.10038	-113.686	-56.1854	-1.69853	19.0812	-6.41686	-2.9295	1.59071
0.0480	-13.701	-8.73691	2.26781	-34.9509	-50.3996	-0.174615	16.3379	-6.41686	-78.0115	1.27257
0.0487	6.12824	-12.0699	-1.07664	-41.9728	-38.5013	8.36565	7.18599	-6.10885	69.6931	-0.636283
0.0493	-38.4328	-8.12209	1.64931	-131.701	-26.8913	21.176	3.82068	-1.83522	316.585	0
0.0500	-107.419	-5.04799	2.5656	-200.046	-25.9879	22.7158	-1.97698	-0.320843	340.997	1.59071
0.0507	-158.371	-8.73691	0.435235	-219.905	-25.3728	17.8266	-11.4398	1.51438	203.058	1.59071
0.0513	-162.661	-8.73691	1.05373	-302.897	-7.66951	18.4298	-18.4592	6.09601	98.0839	1.59071
0.0520	-123.572	-7.21604	-0.48105	-419.188	10.9372	21.4935	-24.2569	6.09601	28.1919	1.59071
0.0527	-84.8324	-5.66281	-0.778842	-386.811	10.3413	22.3983	-27.911	3.3496	-19.7289	1.27257
0.0533	-66.8416	-2.00625	1.05373	-226.005	4.2288	21.7951	-29.7436	0.603185	-32.5319	1.27257
0.0540	-60.4069	-1.1002	-0.778842	-90.8087	-1.26864	21.4935	-34.0196	-4.28646	-59.0963	1.27257
0.0547	-55.8545	-5.04799	-5.97876	-20.3033	-8.59216	18.1282	-37.6848	-8.25208	-114.323	1.27257
0.0553	-46.6622	-5.9864	-6.89505	19.3501	-9.49558	12.6358	-34.6305	-6.41686	-118.59	1.27257
0.0560	-35.9815	-2.32984	-1.99292	27.2935	-10.1107	11.4135	-27.0002	-1.83522	-65.8052	1.59071
0.0567	-28.6714	-0.485384	0.755935	6.86308	-18.3568	11.4135	-17.5374	-1.54005	-52.9841	1.27257
0.0573	-23.1998	-0.776614	0.755935	8.67417	-28.7366	8.98473	-11.1288	-5.19765	-47.1794	1.27257
0.0580	-16.7651	-0.776614	0.755935	37.6834	-38.7896	2.5716	-11.4398	-8.25208	13.5444	1.59071
0.0587	-14.3138	-2.00625	-2.31362	56.9064	-48.8619	-1.39692	-9.90712	-10.3825	62.9842	1.59071
0.0593	-10.6806	-2.32984	-3.5277	59.0352	-49.1694	9.28634	-4.10945	-6.10885	51.0854	1.59071
0.0600	-2.14488	-2.00625	-0.48105	46.2305	-38.5013	24.2397	1.98809	3.95278	-28.2642	1.59071
0.0607	0.919236	-4.14194	-1.99292	56.9064	-29.025	27.8908	6.26414	9.15044	-61.2301	1.59071
0.0613	2.4513	-5.37158	-4.74178	97.7989	-28.7366	26.6843	8.09674	7.00721	7.73966	1.27257
0.0620	7.96671	-1.71502	-2.90921	128.937	-33.619	26.6843	8.39662	3.95278	6.22066	1.59071
0.0627	12.8255	-0.485384	-3.82549	178.345	-35.7526	20.8744	4.13167	2.73358	-74.648	1.59071
0.0633	17.1153	-1.1002	-4.74178	224.448	-27.1989	15.6836	0.466479	6.40402	-93.5812	1.27257
0.0640	23.5062	1.35907	1.64931	235.728	-11.3409	16.3027	5.04241	13.1161	-83.8162	1.59071
0.0647	26.8767	1.03549	3.48188	268.995	5.459	8.98473	8.7076	10.0616	-82.894	1.90885
0.0653	29.0216	-0.485384	-1.39733	277.542	37.8093	-3.22244	9.00748	-2.14323	-55.7328	1.90885
0.0660	34.7996	2.87994	-4.14619	237.571	82.6538	-5.66705	13.2835	-9.47128	12.3147	1.59071
0.0667	36.9445	4.07722	-6.27655	254.029	118.06	-0.793705	15.416	-10.0745	45.5881	1.59071
0.0673	27.7959	-0.776614	-7.49063	309.569	151.929	23.6206	15.1161	-4.88964	-7.52266	1.59071
0.0680	11.9063	-2.9123	-1.99292	309.887	183.972	64.5123	17.8595	4.26079	-45.353	1.59071
0.0687	2.4513	-0.485384	0.435235	263.212	190.085	80.3864	18.1705	7.31522	24.2317	1.27257
0.0693	3.67694	1.6503	-2.61141	214.662	168.729	71.227	13.2835	3.04159	171.629	1.27257
0.0700	1.53206	4.69204	-2.61141	148.16	131.496	64.2107	7.18599	-1.83522	262.262	1.59071
0.0707	-8.22935	7.44255	1.97001	73.0791	84.8067	61.4645	3.5208	-2.45124	206.421	1.59071
0.0713	-13.3946	5.63045	3.80258	64.2143	42.3841	54.7497	1.98809	0.603185	92.5866	1.27257
0.0720	-5.77806	4.40081	2.5656	113.972	8.8036	40.4154	-2.27686	0.603185	48.9516	1.59071
0.0727	7.6603	4.69204	1.35152	-0.476603	-19.8754	22.0967	-7.77464	-4.88964	38.5717	1.59071
0.0733	13.4384	2.26512	-1.07664	-235.76	-40.6349	6.84173	-9.90712	-6.10885	10.1809	1.27257
0.0740	21.9741	1.94153	-2.61141	-183.873	-48.5735	-0.476223	-6.24193	1.51438	-0.48825	1.27257
0.0747	41.8034	5.92168	-2.61141	66.3749	-51.303	1.04769	0.166599	9.75362	9.27674	1.59071
0.0753	54.3225	6.82773	-2.61141	188.417	-62.6055	-1.09531	0.166599	9.44561	40.3981	1.59071
0.0760	54.6289	4.69204	1.05373	196.074	-73.8887	-10.2547	-2.58785	10.6648	81.5919	1.27257
0.0767	50.9957	3.17117	5.31445	189.656	-72.9853	-9.93718	0.766358	16.4657	122.804	1.59071
0.0773	-1.53206	-0.776614	5.01666	165.54	-62.6055	-5.06383	1.37722	15.2465	167.054	1.59071
0.0780	-92.4489	-5.66281	1.35152	35.2368	-45.5173	-13.3025	-7.46366	4.87681	176.819	1.27257
0.0787	-107.419	-4.75676	-3.22991	-124.679	-28.7366	-20.9379	-12.0507	-7.63606	166.131	-0.318142
0.0793	-41.1905	1.6503	-2.61141	-146.349	-8.59216	-16.0487	-3.49859	-7.32805	130.417	-0.318142
0.0800	-0.612824	5.92168	-2.31362	-32.2183	9.72624	-14.5248	3.20982	3.95278	30.6331	1.59071
0.0807	-7.31012	6.82773	-7.19284	132.591	10.3413	-18.4933	1.68821	3.3496	-49.6206	1.59071
0.0813	17.7281	5.92168	-7.81133	118.865	9.41869	-14.5248	-0.755251	-3.06726	-61.2301	1.27257
0.0820	91.5734	2.26512	-2.90921	-281.831	21.317	-3.53992	-3.49859	1.82239	-78.6263	1.59071
0.0827	140.687	-0.194153	1.64931	-694.124	33.8304	9.88956	-5.64217	10.9728	-96.0224	1.90885
0.0833	136.441	0.420666	6.55144	-646.528	38.7128	20.5728	-7.16378	17.0817	-77.3966	1.59071
0.0840	132.458	0.420666	11.7285	-357.833	35.964	17.2234	-10.518	21.9585	-25.2082	1.59071
0.0847	151.061	-3.23589	12.0262	-198.235	28.6405	7.76243	-14.4831	26.8481	73.364	1.59071
0.0853	131.538	-5.66281	9.89588	-161.6	23.4506	4.39712	-15.0939	26.8481	87.7041	1.59071
0.0860	141.606	-2.00625	7.46772	-156.103	14.6086	-0.476223	-6.85279	19.8281	-47.7942	1.27257
0.0867	213.613	2.55635	1.05373	-148.795	3.6137	-5.36544	6.87501	8.84243	-136.294	1.59071
0.0873	219.435	8.96342	-1.39733	-175.644	9.41869	0.730208	12.6727	-2.45124	-137.216	1.59071
0.0880	166.951	13.2348	-0.16035	-333.114	20.4136	8.66725	6.57513	-7.03287	-143.31	1.27257
0.0887	118.713	10.1931	-1.99292	-428.021	19.7985	8.98473	-2.27686	1.51438	-116.149	1.27257
0.0893	103.48	6.21291	0.137443	-298.925	41.4615	15.0804	-4.72032	7.9184	-32.5319	1.59071
0.0900	72.6634	1.35907	4.71887	-166.176	72.5816	22.0967	-2.58785	0.911194	38.2643	1.59071
0.0907	-13.701	-4.75676	8.6818	-70.982	88.7664	17.8266	-1.666	-0.924027	66.637	1.59071
0.0913	-36.2879	-6.89245	12.6447	5.94165	163.539	10.8103	-6.24193	10.3696	87.7041	1.59071
0.0920	-41.8034	-6.89245	13.2632	-10.8348	255.996	-0.793705	-10.829	21.0473	83.7258	1.59071
0.0927	-116.261	-4.75676	9.30029	-7.78451	260.879	-18.1917	-9.29625	19.8281	37.9569	1.90885
0.0933	-108.032	-0.194153	1.64931	16.0139	220.897	-30.7005	-1.97698	13.7192	-8.73425	1.59071
0.0940	63.7775	5.01563	-4.44398	-13.9168	173.612	-37.7168	5.65328	6.6992	-55.7328	1.59071
0.0947	242.328	7.15132	-7.49063	-29.4541	120.809	-41.987	7.18599	-8.56009	-89.6029	1.59071
0.0953	268.548	7.44255	-6.57435	-32.5043	76.5605	-45.3523	5.3534	-18.9297	-74.9554	1.27257
0.0960	221.273	10.4843	-3.82549	-47.1519	23.1431	-45.6539	5.65328	-19.5457	-64.883	1.59071
0.0967	196.848	12.3287	-3.22991	-42.5765	-33.3114	-41.987	5.96426	-20.4569	-85.95	1.59071
0.0973	236.2	5.63045	-4.44398	-38.0011	-68.6988	-40.1614	7.18599	-16.4913	-83.5088	1.27257
0.0980	224.906	-4.14194	-3.5277	-34.6649	-94.0332	-34.3515	10.2292	1.20637	-57.2518	1.27257
0.0987	-114.423	-7.21604	2.26781	4.70248	-118.752	-21.8427	12.9837	13.1161	-23.0743	1.27257
0.0993	-460.8	-4.46553	6.84923	55.0635	-126.383	-21.2395	20.003	0.911194	15.0634	1.59071
0.1000	-469.642	-1.1002	5.01666	93.5095	-114.485	-36.4945	36.1743	-13.4369	36.4379	1.90885
0.1007	-454.715	3.17117	-0.48105	96.2738	-80.0012	-50.2256	56.6216	-14.6561	56.5646	1.59071
0.1013	-392.733	7.44255	-5.36027	36.1583	-32.6963	-51.4479	64.5518	-12.8337	70.9228	1.59071
0.1020	-133.946	8.96342	-9.3232	-10.8348	-4.92079	-41.987	55.3999	-15.8753	64.5032	1.90885
0.1027	58.3058	13.2348	-9.62099	-4.44829	10.6489	-28.5575	46.248	-20.1489	58.7165	1.59071
0.1033	116.305	16.6001	-8.10912	14.4887	23.7582	-20.0172	40.4393	-16.1833	34.286	1.59071
0.1040	173.035	12.62	-9.02541	33.108	29.8707	-21.2395	27.9332	-9.16327	-20.9405	1.90885
0.1047	184.942	8.96342	-7.81133	22.4003	35.6565	-25.2081	16.6377	-7.94407	-85.6426	1.59071
0.1053	134.296	7.76614	-3.22991	-5.05199	32.0043	-26.1129	16.3379	-7.03287	-172.913	1.27257
0.1060	76.9094	4.40081	-1.07664	5.94165	25.2959	-25.2081	19.0812	-3.06726	-225.101	1.59071
0.1067	-214.532	0.744255	2.5656	32.1866	20.106	-25.2081	20.3029	4.26079	-157.361	1.27257
0.1073	-678.09	-1.39143	10.2166	32.4725	-1.26864	-29.1766	21.5247	12.808	-75.8776	1.90885
0.1080	-743.399	-8.41332	12.0262	21.1929	-33.9073	-35.8913	20.6028	16.7737	-108.825	1.27257
0.1087	-406.784	-13.0083	8.06331	35.8405	-56.1854	-35.8913	27.6222	14.3353	-168.645	-0.636283
0.1093	-100.678	-3.52712	6.23074	105.107	-72.0626	-27.9543	42.2718	14.3353	-152.479	0.636283
0.1100	17.4217	6.5365	1.35152	192.389	-87.3247	-28.5575	41.972	10.6648	-99.3679	1.90885
0.1107	31.1227	8.96342	-5.06248	236.045	-80.3088	-32.8276	29.7658	1.51438	-41.0853	1.59071
0.1113	99.4964	11.4227	-7.19284	258.636	-62.2979	-31.0021	19.3922	0.911194	14.1592	1.27257
0.1120	173.648	12.3287	-9.94169	315.702	-67.4878	-36.4945	5.04241	5.17199	13.5444	1.59071
0.1127	103.173	9.90183	-13.9046	356.276	-59.8568	-51.4479	-9.29625	8.22641	-15.7506	1.59071
0.1133	1.83847	9.28701	-12.9883	291.268	-13.4745	-65.179	-18.4592	11.5888	1.33817	1.59071
0.1140	-5.16523	9.57824	-5.97876	197.885	15.5312	-74.3384	-25.7785	17.3897	57.1795	1.59071
0.1147	-59.7941	6.21291	0.137443	182.316	18.2607	-80.434	-30.9653	19.8281	154.233	1.59071
0.1153	-6.08447	-0.194153	1.35152	187.21	32.3119	-79.8308	-33.0978	16.1705	263.474	1.27257
0.1160	409.542	-4.75676	4.39817	178.662	47.574	-75.8623	-31.5762	14.3353	275.391	1.27257
0.1167	585.028	-3.85071	8.06331	205.511	39.0203	-79.2117	-22.4243	14.0272	200.309	1.59071
0.1173	296.957	-2.9123	6.55144	211.929	11.8599	-79.2117	-12.3506	11.2808	127.686	1.59071
0.1180	222.805	0.129436	3.48188	113.654	-10.7258	-65.4806	-7.46366	3.95278	72.4418	1.90885
0.1187	244.779	6.5365	3.80258	15.0924	-32.3888	-52.6702	-3.19871	-6.41686	33.3818	1.90885
0.1193	77.5222	5.63045	3.48188	-28.5644	-63.2206	-41.0663	-4.42044	-9.77929	23.3094	1.59071
0.1200	-5.47164	1.6503	6.23074	-56.9381	-88.8433	-11.7786	-5.64217	-6.41686	20.2533	1.90885
0.1207	-33.8804	1.03549	14.1795	45.595	-98.3004	12.0326	-3.80958	-5.50566	-7.21525	1.90885
0.1213	-124.184	-3.23589	15.3936	261.369	-98.9155	7.76243	-8.07452	-7.32805	-46.8901	1.59071
0.1220	-187.655	-4.46553	13.8588	353.226	-93.7256	32.1768	-8.07452	-1.23204	-42.0076	1.59071
0.1227	-231.604	0.129436	16.0121	276.62	-90.381	91.6729	-1.05513	15.5545	20.8682	1.27257
0.1233	-236.2	1.35907	10.8122	186.606	-88.5357	117.627	-5.0313	25.6289	72.7492	1.27257
0.1240	-181.265	2.26512	4.10038	174.087	-82.1348	106.626	-9.90712	16.1705	105.1	1.59071
0.1247	-169.665	5.63045	-0.16035	91.3806	-67.1803	91.3713	-6.85279	-9.77929	145.372	1.59071
0.1253	-105.274	10.1931	-7.19284	-211.357	-5.84343	78.8625	-5.64217	-34.805	154.233	1.27257
0.1260	-11.2935	14.788	-9.94169	-498.209	71.6782	72.1477	-2.27686	-39.0787	112.731	1.27257
0.1267	22.2805	20.2567	-6.89505	-555.274	151.622	67.2585	8.7076	-26.861	59.3133	1.59071
0.1273	241.715	20.5803	-9.3232	-544.312	307.568	56.8927	15.727	-17.4025	33.6892	1.59071
0.1280	598.773	18.4446	-16.9513	-580.312	422.938	59.639	14.1943	-14.0529	38.2643	1.59071
0.1287	831.602	19.0594	-18.1654	-495.159	390.587	72.4493	4.74253	-10.6905	34.286	1.59071
0.1293	896.299	15.3705	-9.94169	-278.177	292.921	67.2585	-12.6505	-9.47128	13.237	1.59071
0.1300	680.541	5.01563	5.31445	-163.125	194.352	60.5438	-25.7785	-7.32805	29.1141	1.59071
0.1307	477.302	-1.1002	18.4402	-114.003	111.352	52.9242	-27.6111	-0.0128337	55.6605	1.27257
0.1313	422.673	-3.85071	23.6402	-24.5927	21.6246	30.637	-29.4437	7.00721	23.6168	1.27257
0.1320	-385.116	-12.0699	26.0683	-51.1236	-81.5198	10.8103	-34.0196	12.192	-16.058	1.59071
0.1327	-1416.94	-18.1857	27.9009	-213.804	-169.421	2.26999	-31.5762	22.2665	-46.8901	1.59071
0.1333	-1138.89	-16.05	22.4032	-327.331	-231.373	0.126993	-24.8678	29.2865	-69.458	1.27257
0.1340	-431.209	-8.41332	12.3469	-337.403	-260.975	1.65091	-19.37	24.1017	-38.3366	1.27257
0.1347	-381.439	-1.1002	7.14702	-287.328	-257.303	6.22264	-9.60724	9.75362	-12.0977	1.27257
0.1353	-394.571	2.87994	6.55144	-204.939	-229.835	12.3342	5.3534	-6.72487	-34.069	1.27257
0.1360	-271.919	1.94153	7.14702	-129.572	-202.675	5.31782	8.39662	-18.3265	-67.3242	1.59071
0.1367	-287.152	-3.23589	7.46772	-78.2899	-185.894	-16.9694	-6.55291	-19.5457	-92.3515	1.27257
0.1373	-327.73	-4.14194	5.31445	-61.5135	-152.929	-35.2722	-16.6266	-16.7993	-90.8325	1.59071
0.1380	-203.239	-1.1002	-1.99292	-89.8873	-108.373	-48.4001	-15.7048	-23.2034	-59.3856	1.90885
0.1387	61.9828	0.420666	-7.19284	-111.557	-67.4878	-54.1941	-13.8722	-31.1346	-18.1918	-0.318142
0.1393	245.392	5.92168	-4.74178	-93.5412	-19.5678	-41.987	-9.29625	-27.477	23.3094	-0.318142
0.1400	91.267	10.8079	-3.82549	-63.0387	21.9321	-29.1766	-8.99637	-20.7649	52.6044	1.59071
0.1407	-278.31	4.69204	-5.65806	-21.8284	35.3682	-29.1766	-13.2613	-18.3265	57.4869	1.59071
0.1413	-474.545	0.420666	-1.39733	36.762	30.7741	-26.732	-7.46366	-14.9641	54.1234	1.27257
0.1420	-288.99	5.01563	1.64931	85.8838	7.59262	-17.271	5.96426	-15.5801	47.4145	1.27257
0.1427	108.951	10.4843	-1.39733	85.8838	-14.6855	-11.477	16.3379	-18.6217	29.4035	1.27257
0.1433	245.086	12.9436	-1.07664	45.309	25.5842	-9.93718	23.9681	-12.5257	16.6005	1.27257
0.1440	-15.2331	9.28701	5.93295	27.0075	72.5816	-7.81005	30.0657	4.5688	21.483	1.59071
0.1447	-180.345	-1.1002	11.4307	42.8625	83.5765	-5.66705	26.4116	27.1561	28.1919	1.59071
0.1453	32.3484	-5.9864	11.11	68.186	196.793	-1.39692	5.3534	29.9025	25.7507	1.27257
0.1460	293.28	1.6503	7.76552	91.0947	356.411	8.06404	-20.5917	7.31522	21.7904	1.27257
0.1467	338.454	8.96342	1.35152	79.1796	371.962	14.4772	-25.4786	-16.4913	20.2533	1.27257
0.1473	246.881	12.62	-6.89505	41.3373	286.213	-1.39692	-12.9614	-35.1002	13.8518	1.59071
0.1480	154.125	14.1732	-10.2395	36.4442	180.012	-45.9555	-11.1288	-43.6475	7.43225	1.59071
0.1487	138.542	6.5365	-5.65806	107.553	71.0631	-93.2603	-18.7591	-34.805	12.3147	1.59071
0.1493	129.087	-2.62107	2.8863	247.325	9.72624	-120.421	-20.5917	-15.5801	20.5607	1.59071
0.1500	13.7448	-0.776614	5.01666	345.283	-6.74686	-124.072	-24.5568	-2.75925	21.483	1.59071
0.1507	-118.1	1.94153	1.97001	344.075	-47.3434	-109.738	-31.2763	0.603185	8.04708	1.27257
0.1513	-202.013	-1.39143	2.26781	299.529	-118.752	-98.1336	-27.3001	3.04159	-9.65649	0.954425
0.1520	-197.723	-1.1002	2.5656	211.612	-178.263	-92.9587	-9.90712	4.5688	-13.3093	1.59071
0.1527	-105.581	2.87994	0.137443	112.446	-207.25	-84.1009	12.0618	2.73358	-40.4705	1.59071
0.1533	0.612824	6.5365	-2.90921	92.3021	-212.44	-61.2105	26.7115	-4.28646	-76.4925	1.27257
0.1540	107.419	14.1732	-6.27655	117.943	-210.614	-29.7798	33.7308	-16.7993	-35.8954	1.27257
0.1547	148.654	16.6001	-8.40692	114.575	-203.598	-12.0802	38.0069	-25.3337	22.6946	1.27257
0.1553	165.725	11.4227	-5.65806	77.0508	-171.862	-4.44475	39.8395	-20.1489	32.767	1.59071
0.1560	24.4254	10.1931	-0.48105	16.0139	-131.266	11.1119	38.9176	-11.3065	31.8447	1.59071
0.1567	-359.159	12.3287	-4.44398	-49.3125	-122.731	35.2246	28.544	-14.6561	28.4993	1.27257
0.1573	-482.161	14.788	-17.8676	-131.098	-116.311	54.7497	6.87501	-23.8194	20.8682	1.27257
0.1580	-296.607	20.8715	-26.1141	-239.413	-92.8222	69.7031	-14.4831	-24.1145	22.3872	1.59071
0.1587	-197.723	21.1951	-25.4956	-265.372	-79.3861	94.1175	-25.7785	-20.4569	26.9622	1.59071
0.1593	-138.236	13.5584	-17.5698	-179.902	-63.2206	112.738	-23.335	-14.9641	31.5554	1.27257
0.1600	-72.0068	11.4227	-5.97876	-110.032	-31.1778	96.5621	-8.68539	-4.58164	41.013	1.59071
0.1607	-107.419	12.9436	-3.82549	-85.3119	-15.9157	51.0987	12.9837	1.51438	43.1468	1.27257
0.1613	-137.01	7.44255	-9.3232	-66.4067	-29.9476	22.0967	25.8007	3.04159	32.767	1.27257
0.1620	54.0161	2.87994	-5.06248	-48.677	-41.5384	23.9381	28.544	5.17199	20.8682	1.59071
0.1627	365.9	4.40081	-1.99292	-27.643	-42.461	18.7473	39.2286	0.603185	10.4883	1.59071
0.1633	367.432	5.92168	-7.49063	-0.476603	-14.3779	-4.44475	51.7347	-2.14323	1.64558	1.27257
0.1640	10.3742	6.5365	-8.10912	23.0358	45.1328	-29.4782	50.824	5.17199	-2.64017	1.27257
0.1647	-219.697	7.44255	-5.65806	30.6614	71.0631	-42.9077	40.4393	10.3696	-7.52266	1.27257
0.1653	-103.436	4.69204	-5.97876	28.2149	61.2984	-30.0814	20.9138	12.192	-14.8464	1.59071
0.1660	190.457	6.21291	-3.5277	38.6048	59.1648	-5.98453	-5.94205	13.4241	-18.4992	1.59071
0.1667	423.899	10.1931	-0.778842	58.4315	49.4001	-14.2232	-27.0002	11.8969	-19.7289	0.954425
0.1673	375.968	5.92168	-2.61141	65.1357	27.4295	-40.1614	-27.6111	11.5888	-17.8844	1.27257
0.1680	205.384	1.35907	-1.07664	68.7897	12.7825	-41.6854	-10.2181	17.0817	-11.1755	1.59071
0.1687	242.022	-0.485384	1.05373	76.733	-0.0384436	-34.0499	6.57513	24.4097	-4.15916	0.636283
0.1693	505.361	-2.00625	-3.82549	66.6608	-8.59216	-42.5902	27.3223	24.1017	3.77941	-0.636283
0.1700	595.402	4.07722	-6.57435	37.9694	-10.1107	-25.5097	50.2131	23.4857	15.3708	0.636283
0.1707	127.861	11.0991	-7.19284	-2.31947	-6.15098	67.576	39.5285	18.9169	20.2533	1.90885
0.1713	-356.445	11.7139	-12.3699	-39.2403	21.9321	143.248	4.74253	0.603185	14.756	1.59071
0.1720	-328.649	13.5584	-14.2024	-50.5199	54.59	131.041	-18.1482	-9.77929	7.73966	1.59071
0.1727	41.8034	14.1732	-11.7743	-43.8157	53.3598	109.992	-36.1521	-3.97845	0.723333	1.59071
0.1733	501.115	10.8079	-13.2861	-17.253	32.3119	108.769	-52.9342	-3.06726	-9.96391	1.59071
0.1740	624.993	10.1931	-11.7743	16.0139	9.72624	98.086	-55.9885	-3.67044	-16.6728	1.59071
0.1747	445.26	10.1931	-8.10912	28.2149	-17.7417	75.1956	-53.2452	5.48	-14.539	1.59071
0.1753	281.067	7.44255	-9.94169	27.2935	-37.5787	33.7007	-42.2607	16.7737	-9.65649	1.59071
0.1760	127.861	9.57824	-11.4536	32.1866	-44.9022	-13.9057	-22.7242	23.4857	-8.73425	1.59071
0.1767	-54.9353	13.5584	-11.1558	43.4662	-26.2955	-32.8276	-11.1288	27.1561	-14.539	1.59071
0.1773	-387.567	12.3287	-11.7743	46.2305	22.5472	-17.271	-8.99637	25.0129	-22.7669	1.59071
0.1780	-668.635	5.30686	-3.5277	38.8908	49.0925	-2.31762	-16.0158	18.6089	-28.5716	1.59071
0.1787	-538.629	-5.66281	13.561	24.2432	48.4774	-25.8113	-19.37	18.6089	-34.069	1.27257
0.1793	-278.616	-11.4874	20.8913	9.5956	62.221	-59.9882	-15.4049	19.5201	-41.7001	1.27257
0.1800	-314.335	-8.41332	12.0262	48.6453	75.3303	-63.0519	-15.4049	16.1705	-47.1794	1.59071
0.1807	-439.439	0.420666	-1.07664	158.232	62.5286	-51.1463	-8.99637	14.6433	-43.5266	1.59071
0.1813	-265.484	7.44255	-6.57435	243.067	33.8304	-39.844	-1.36612	16.4657	-37.4144	1.59071
0.1820	169.096	4.40081	-1.39733	252.822	-10.4182	-22.4618	-6.24193	21.9585	-36.8176	1.59071
0.1827	419.303	-4.14194	7.14702	226.259	-54.0518	-10.8579	-12.0507	34.1633	-39.2589	1.27257
0.1833	144.057	-11.7786	12.6447	182.03	-36.0601	-0.476223	-19.37	52.169	-42.0076	1.27257
0.1840	-258.48	-9.93419	14.1795	128.619	41.1539	37.9708	-28.8328	57.3667	-39.8556	1.59071
0.1847	-221.536	3.17117	6.55144	78.5759	124.173	62.9884	-29.4437	35.0874	-33.1467	1.59071
0.1853	17.7281	13.8496	-8.40692	45.9127	144.298	34.3039	-25.1676	3.3496	-33.4541	1.59071
0.1860	-6.39088	19.6419	-16.3557	35.8405	120.502	-7.50844	-19.37	-17.7105	-37.4144	1.59071
0.1867	-203.239	23.622	-19.9979	27.2935	200.772	-35.2722	-26.0784	-30.5314	-36.8176	1.27257
0.1873	-305.449	25.1429	-23.6631	13.5673	296.285	-14.8264	-49.58	-34.805	-29.4939	1.27257
0.1880	-161.742	27.2786	-22.1512	-59.3847	225.184	42.8442	-58.1321	-23.8194	-16.058	1.59071
0.1887	85.1388	24.5281	-19.4023	-180.219	75.6379	61.1629	-48.9691	-3.06726	-1.71792	1.27257
0.1893	177.019	16.9237	-15.4394	-201.889	-29.025	52.9242	-34.6305	17.9929	8.66191	1.27257
0.1900	302.735	15.3705	-4.74178	-130.78	-107.777	60.5438	-15.4049	38.745	13.8518	1.59071
0.1907	481.899	10.4843	0.137443	-76.4471	-191.084	79.1641	-15.7048	52.7851	9.27674	1.59071
0.1913	444.648	-0.485384	-1.39733	-52.3628	-249.057	100.229	-30.9653	55.8395	0.415916	1.59071
0.1920	319.544	-3.23589	4.10038	-47.4696	-257.303	99.9115	-27.911	54.6203	-2.33275	1.59071
0.1927	233.486	-4.75676	8.9796	-68.2177	-242.041	42.5426	-8.99637	41.1834	-3.54433	1.59071
0.1933	-41.8034	-6.27763	5.93295	-80.4188	-219.148	-41.3838	21.8245	10.0616	-7.812	1.27257
0.1940	-436.374	3.49476	12.6447	-50.8376	-174.303	-85.0216	54.789	-8.25208	-6.60041	1.59071
0.1947	-486.757	3.78599	19.3565	-19.0959	-144.99	-98.1336	63.641	1.51438	-7.21525	1.59071
0.1953	-278.31	-8.73691	12.3469	-9.62738	-144.087	-111.881	62.7192	8.22641	-16.3654	1.27257
0.1960	-231.91	-2.9123	7.14702	-1.684	-126.383	-123.469	71.5711	-6.72487	-16.9802	1.59071
0.1967	-297.832	10.8079	2.8863	-3.20913	-97.397	-130.485	73.7036	-26.5658	-12.6945	1.59071
0.1973	-279.842	9.90183	-6.89505	-11.7562	-81.8273	-111.881	48.9914	-30.2234	-21.5553	1.59071
0.1980	-249.332	7.44255	-11.7743	-6.89485	-65.3542	-65.179	8.09674	-27.785	-34.6838	1.27257
0.1987	-214.839	9.90183	-9.3232	3.49509	-41.2308	-26.1129	-19.059	-37.2434	-38.3366	-0.318142
0.1993	-58.8749	8.3486	-7.19284	3.81282	-17.4342	-1.09531	-25.1676	-46.0859	-32.5319	0
0.2000	69.2929	5.30686	-4.44398	-5.65569	14.9161	11.1119	-21.2026	-40.901	-18.8067	1.90885
0.2007	60.7571	4.40081	-3.5277	-16.3316	68.9295	10.1912	-4.10945	-32.6618	-4.15916	1.59071
0.2013	27.7959	3.78599	-10.2395	-24.275	133.938	35.2246	25.8007	-33.573	3.77941	0.954425
0.2020	23.8126	5.30686	-16.3557	-28.5644	160.791	83.7517	48.6804	-35.1002	4.08683	1.59071
0.2027	35.4125	11.0991	-18.7838	-27.9289	131.804	121.58	41.972	-25.9498	-2.9295	1.59071
0.2033	25.3447	19.0594	-18.7838	-23.6713	83.5765	132.882	18.1705	-11.3065	-3.85175	1.59071
0.2040	28.7152	25.1429	-16.6535	-19.6996	38.7128	102.055	-5.33118	-2.45124	4.991	1.59071
0.2047	66.5352	29.123	-10.858	-15.4419	6.05487	64.5123	-31.2763	-4.58164	9.27674	1.59071
0.2053	92.7991	34.9153	-1.99292	-10.2311	-12.5519	42.8442	-39.2064	-10.0745	11.1032	1.27257
0.2060	90.6542	44.9789	1.64931	-5.05199	-24.7577	19.3505	-20.5917	-24.7306	12.3147	1.27257
0.2067	52.1776	42.552	1.35152	-2.00173	-47.9585	-5.06383	-3.80958	-46.7019	7.73966	1.59071
0.2073	32.3484	18.121	5.31445	-3.20913	-92.5146	-40.4631	12.9837	-26.861	4.39425	1.59071
0.2080	61.6764	-9.93419	8.6818	-8.41998	-25.0653	-87.7678	48.6804	15.5545	10.1809	1.59071
0.2087	68.6801	-20.6126	4.10038	-11.4702	190.085	-128.04	79.2014	1.51438	16.6005	1.27257
0.2093	34.1868	-11.7786	-0.16035	-5.36972	306.357	-164.979	80.1121	-21.9841	26.3655	1.27257
0.2100	7.6603	0.420666	2.5656	1.04853	261.801	-165.583	71.5711	-2.45124	36.1305	1.59071
0.2107	11.9063	4.07722	4.10038	1.65222	189.47	-76.1639	56.0108	7.00721	21.7904	1.59071
0.2113	29.8971	5.01563	1.05373	6.86308	119.887	27.8908	13.2835	-6.41686	-6.60041	1.59071
0.2120	45.1739	6.21291	-0.48105	16.0139	26.8144	83.4342	-27.3001	-10.6905	-23.6892	1.90885
0.2127	55.5481	8.05737	-0.16035	16.6175	-76.945	115.484	-27.911	-5.81367	-22.7669	1.59071
0.2133	58.6122	10.1931	-0.16035	8.07047	-155.062	117.627	4.74253	-3.67044	-6.90783	1.90885
0.2140	57.9994	12.9436	0.137443	1.96996	-208.787	103.578	40.1394	-7.94407	7.73966	1.59071
0.2147	58.9187	10.1931	-3.22991	-2.60543	-230.758	87.4027	43.8046	-16.4913	10.1809	0.318142
0.2153	60.4507	8.67219	-3.82549	-0.476603	-205.424	79.4657	27.0224	-16.4913	6.8355	0.954425
0.2160	63.7775	13.2348	0.755935	11.1207	-174.899	94.4191	15.416	-10.3825	3.77941	1.90885
0.2167	63.7775	12.62	-0.778842	17.539	-172.17	109.992	-13.5723	-10.9985	1.953	1.27257
0.2173	64.6967	12.0375	-1.07664	20.5892	-141.953	99.6099	-50.8017	-10.0745	1.953	1.27257
0.2180	66.2288	14.788	2.26781	27.0075	-53.7442	57.496	-72.1598	-4.28646	-1.10308	1.59071
0.2187	61.6764	10.8079	-0.778842	27.6112	13.3784	-7.50844	-87.1204	-1.54005	-10.2532	1.27257
0.2193	59.5315	8.67219	-3.22991	24.8469	15.5312	-53.5909	-86.8094	0.603185	-12.4052	1.59071
0.2200	62.5518	14.1732	1.05373	23.6395	-5.53589	-59.9882	-60.8755	3.95278	-0.795666	1.59071
0.2207	58.9187	12.9436	-1.69513	12.3281	-31.4661	-69.7507	-34.0196	-0.924027	8.3545	1.59071
0.2213	53.0968	9.28701	-7.19284	0.127094	-54.9744	-77.6878	-9.90712	-7.94407	11.4106	1.27257
0.2220	57.0802	16.3089	-0.48105	5.33795	-36.3485	-54.4958	17.5596	-4.88964	18.7343	1.27257
0.2227	55.2417	17.5062	1.35152	8.38821	35.6565	-39.5424	16.6377	-5.81367	16.6005	1.27257
0.2233	46.0931	7.44255	-5.65806	0.444829	92.7261	-60.3057	2.29907	-13.4369	8.96933	1.27257
0.2240	47.9316	9.28701	-1.69513	-1.39803	105.855	-92.9587	10.2292	-7.03287	15.0634	1.27257
0.2247	50.0765	12.3287	1.64931	-1.39803	97.0125	-111.261	9.00748	9.75362	18.4269	1.59071
0.2253	43.6418	-4.46553	-4.74178	-5.65569	67.1034	-115.532	-13.5723	16.1705	10.7957	1.59071
0.2260	39.3958	-15.4352	-5.36027	-12.6776	39.6354	-117.373	-14.794	7.62323	13.237	1.59071
0.2267	41.8034	-3.23589	4.39817	-18.7781	27.122	-117.373	14.8051	-0.0128337	25.1358	1.27257
0.2273	43.6418	4.07722	16.9284	-17.253	-0.345993	-123.167	42.5828	-1.23204	30.0183	1.90885
0.2280	40.6215	-6.27763	17.2262	-9.62738	-40.9425	-136.279	60.8866	-4.88964	24.521	0.954425
0.2287	36.3317	-6.27763	0.435235	1.65222	-68.6988	-122.246	81.6449	-0.320843	15.9857	-0.636283
0.2293	33.8804	8.67219	-9.3232	15.0924	-86.0946	-60.6073	97.2053	12.808	13.8518	0.636283
0.2300	31.1227	9.28701	-4.14619	28.5326	-95.8592	-5.06383	102.392	31.4169	13.8518	1.90885
0.2307	25.9575	4.69204	-1.99292	43.1802	-94.6483	29.1131	78.9015	50.6547	4.39425	1.27257
0.2313	22.2805	8.67219	5.31445	54.1421	-69.6214	78.2593	27.6222	31.7249	-10.5607	1.27257
0.2320	21.3613	-0.485384	14.4773	57.5101	-0.653542	116.087	-13.5723	8.22641	-21.8627	1.27257
0.2327	18.9538	-6.60122	6.84923	58.1138	57.9346	109.071	-37.0739	11.5888	-29.1865	1.27257
0.2333	16.5025	4.07722	-4.74178	54.1421	57.3387	95.3398	-42.8716	-14.3481	-25.2082	1.27257
0.2340	16.1961	15.3705	-13.2861	44.3876	44.2102	126.77	-25.1676	-29.9154	-14.539	1.27257
0.2347	14.3576	21.7775	-25.1978	39.2085	38.7128	172.853	1.37722	-3.36243	-13.6167	1.59071
0.2353	11.5999	16.6001	-24.9001	11.7244	35.3682	177.441	19.3922	-11.3065	-17.2877	1.27257
0.2360	12.2127	4.69204	-11.1558	-53.8879	25.5842	163.694	15.416	-39.3738	-19.1141	1.27257
0.2367	12.2127	-4.75676	-2.90921	-67.9318	-3.09471	149.359	-12.9614	-40.593	-31.0129	1.27257
0.2373	9.455	1.6503	-3.22991	-12.9954	-20.4905	114.262	-42.2607	-42.1202	-45.353	1.59071
0.2380	9.76141	16.3089	-5.36027	16.9353	-7.66951	90.4664	-59.6537	-39.0787	-42.2969	1.59071
0.2387	11.2935	12.9436	-1.69513	17.539	22.5472	87.7043	-75.825	-21.073	-32.2245	1.27257
0.2393	11.2935	4.40081	6.55144	35.5228	57.3387	67.2585	-92.6071	-18.0185	-34.069	1.27257
0.2400	12.2127	3.49476	8.9796	60.8781	72.5816	26.0653	-96.2723	-14.3481	-35.8954	1.59071
0.2407	15.5832	-2.00625	5.63515	68.5037	69.5446	-28.8591	-82.5445	-4.88964	-28.8791	1.27257
0.2413	17.1153	-8.12209	2.5656	65.4534	65.5656	-96.3081	-64.8405	-8.85526	-24.6114	1.27257
0.2420	15.8897	-2.9123	1.05373	66.6608	59.7799	-150.629	-43.4825	1.51438	-21.5553	1.27257
0.2427	17.4217	4.40081	4.39817	76.1293	51.8413	-161.916	-11.7397	22.5745	-14.8464	1.27257
0.2433	18.0345	3.78599	8.38401	91.6984	42.6917	-139.644	11.1511	17.6849	-13.3093	1.59071
0.2440	16.5025	3.17117	5.93295	108.157	36.8867	-109.118	10.5402	5.48	-12.6945	1.27257
0.2447	16.1961	0.129436	2.26781	114.575	30.4858	-74.3384	-0.444265	12.808	-1.4105	1.27257
0.2453	9.14859	-12.0699	-2.90921	118.229	14.6086	-43.8125	-14.4831	17.0817	8.96933	1.59071
0.2460	5.82183	-8.73691	-6.27655	85.5979	9.72624	-20.6204	-25.7785	8.84243	15.3708	1.27257
0.2467	15.2768	7.76614	-4.14619	-58.1455	18.5683	-4.44475	-31.5762	6.09601	18.7343	1.27257
0.2473	14.3576	3.17117	-1.39733	-172.594	16.4347	-1.39692	-37.6848	14.6433	16.9079	1.59071
0.2480	-5.47164	-6.89245	5.01666	-131.701	8.49605	-3.84153	-40.728	27.4513	0.1085	1.27257
0.2487	-26.2201	-3.23589	15.0958	-68.5355	12.1674	-2.31762	-31.5762	34.7794	-36.5102	1.59071
0.2493	-27.1393	-2.00625	13.561	-61.5135	14.6086	-2.31762	-17.8484	23.7937	-43.2191	1.59071
0.2500	-17.0715	-6.89245	5.93295	-103.931	3.6137	-2.92083	-14.4831	2.42557	-12.0977	1.59071
0.2507	-8.22935	-5.37158	18.1424	-126.808	1.78763	14.1597	-12.6505	3.65761	1.03075	1.59071
0.2513	-5.77806	-3.52712	25.4727	-55.699	6.36242	36.4469	-11.7397	3.04159	-6.60041	1.27257
0.2520	-14.9266	-2.9123	8.9796	25.7683	-1.26864	42.5426	-21.2026	-3.97845	-10.8681	0.954425
0.2527	-19.2164	-0.776614	5.01666	63.0069	-4.61324	42.5426	-23.646	23.4857	-7.21525	1.27257
0.2533	-13.1319	-7.21604	16.0121	99.324	3.6137	33.3832	-12.0507	36.9226	-0.795666	1.59071
0.2540	-6.08447	-16.3413	6.23074	124.33	3.30615	6.84173	-6.24193	16.1705	1.33817	1.59071
0.2547	0	-24.3015	-9.02541	135.323	-3.09471	-18.4933	-9.60724	17.9929	-3.23691	1.59071
0.2553	0.306412	-45.0436	-11.7743	158.836	24.3733	-33.1451	-7.16378	16.1705	-10.5607	1.27257
0.2560	-3.32676	-59.3786	-17.272	174.691	71.0631	-38.6375	-2.27686	-36.9354	-10.5607	1.27257
0.2567	-7.61653	-34.0416	-13.2861	160.647	73.5043	-32.526	-5.33118	-83.6245	-7.812	1.27257
0.2573	-9.14859	0.420666	-5.97876	133.512	60.6833	-29.4782	-6.85279	-53.1059	-3.54433	1.59071
0.2580	-10.3742	16.9237	-12.6905	110.921	64.6622	-44.7332	-6.24193	39.053	-2.9295	1.59071
0.2587	-18.91	35.5301	-12.0721	24.5609	45.1328	-59.9882	-6.24193	75.6676	-9.96391	0
0.2593	-24.9945	42.2284	-3.22991	-128.937	21.317	-54.7974	1.98809	25.0129	-5.08141	0
0.2600	-21.0549	32.4883	-4.44398	-181.745	20.4136	-57.8611	13.8944	14.6433	7.14291	1.59071
0.2607	-14.9266	21.7775	-7.19284	-113.686	20.106	-70.0682	25.1898	36.3066	13.8518	1.27257
0.2613	-11.5999	-5.66281	3.48188	-55.413	9.11114	-62.1312	32.8201	15.5545	22.0797	0.954425
0.2620	-11.9063	-48.4089	17.2262	-48.9948	-14.6855	-41.6854	29.1549	2.1304	25.1358	1.59071
0.2627	-11.9063	-82.5799	2.8863	-72.5072	-37.5787	-24.2874	20.003	22.5745	17.5047	1.27257
0.2633	-12.2127	-87.7574	-23.6631	-65.7712	-49.477	-2.61922	25.4897	7.62323	10.4883	1.27257
0.2640	-13.1319	-44.4288	-25.4956	-25.1964	-54.9744	35.5262	41.0501	-7.63606	8.3545	1.59071
0.2647	-14.9266	20.8715	-14.2024	-37.7152	-41.8459	69.4015	50.2131	28.3753	12.0254	1.27257
0.2653	-17.0715	55.3661	-1.69513	-111.875	-16.5115	76.4179	53.2674	6.6992	19.0417	1.27257
0.2660	-19.2164	50.4799	16.3099	-151.242	-10.7258	60.8613	51.1238	-71.1116	21.1756	1.27257
0.2667	-23.1998	27.8934	24.2357	-142.059	-20.798	35.8278	54.478	-133.073	19.0417	1.27257
0.2673	-24.9945	6.5365	15.3936	-159.789	-27.5064	22.3983	62.7192	-155.955	9.27674	0.954425
0.2680	-21.9741	-8.73691	13.561	-172.911	-29.3325	30.3354	55.6998	-102.246	-16.3654	1.27257
0.2687	-17.6844	-16.05	24.2357	-129.858	-22.6241	41.3203	39.8395	-47.0099	-45.0456	1.59071
0.2693	-15.8459	-13.9143	24.8542	-66.4067	-5.84343	52.3051	30.6765	-51.8867	-58.7889	1.27257
0.2700	-19.2164	-14.5292	12.3469	-10.8348	-0.961091	67.2585	20.6028	-47.0099	-58.7889	1.27257
0.2707	-23.1998	-20.0302	-0.778842	38.6048	-0.653542	72.751	8.09674	-28.3882	-52.3693	1.27257
0.2713	-21.0549	-30.0938	-12.9883	81.3084	11.2448	73.37	-9.29625	-39.3738	-49.3313	1.27257
0.2720	-12.8255	-32.2295	-29.1608	87.123	15.8196	72.751	-34.0196	-26.861	-48.7165	1.27257
0.2727	-2.14488	-17.8945	-36.1704	56.9064	13.9935	59.3373	-38.5956	29.5945	-31.9351	1.27257
0.2733	1.22565	16.9237	-21.2349	40.7337	14.6086	38.8915	-22.1133	78.414	-3.85175	1.27257
0.2740	-7.31012	55.6573	-2.31362	46.5164	11.8599	26.3669	-15.0939	103.44	-2.33275	1.27257
0.2747	-14.9266	51.0947	12.9425	27.2935	6.05487	27.2876	-9.29625	79.338	-12.4052	0.954425
0.2753	-20.1356	17.5062	16.9284	-41.3691	-5.53589	32.4784	0.466479	20.7393	-1.4105	1.27257
0.2760	-28.6714	-5.66281	12.0262	-80.7365	-19.5678	31.2561	-1.97698	-15.8753	5.60583	1.59071
0.2767	-28.9778	-20.3214	18.7609	-40.7654	-27.1989	28.2083	-10.2181	-36.0242	-7.21525	1.27257
0.2773	-21.6677	-38.313	26.6868	-5.36972	-28.4291	25.462	-16.3156	-73.5628	-23.6892	1.27257
0.2780	-19.5228	-49.315	23.938	-30.6932	-27.5064	21.176	-20.8916	-90.6445	-35.2806	1.59071
0.2787	-15.8459	-42.2931	23.0217	-68.8214	-26.8913	16.9059	-19.37	-23.2034	-21.8627	1.59071
0.2793	-5.77806	-37.4069	25.152	-84.9942	-20.1829	11.731	-13.8722	57.0587	8.3545	1.59071
0.2800	0.306412	-26.7285	24.2357	-89.5695	-3.40226	8.98473	-10.2181	73.2292	12.0254	1.59071
0.2807	0.612824	9.28701	20.5706	-83.1831	8.8036	14.4772	-8.07452	72.01	0.1085	1.59071
0.2813	-1.22565	42.8432	5.31445	-67.2963	7.59262	19.6521	-9.60724	72.9212	-4.15916	1.27257
0.2820	-0.919236	41.3223	-15.7372	-45.6268	4.53635	21.4935	-11.1288	50.9498	-5.98558	1.27257
0.2827	3.06412	21.1951	-20.9142	-27.643	3.30615	20.5728	-9.90712	27.4513	-2.64017	1.59071
0.2833	3.37053	23.0072	-13.9046	-21.2247	1.78763	18.1282	-6.24193	19.5201	2.26042	1.27257
0.2840	-0.612824	34.3004	-4.74178	-18.1745	2.40273	16.0011	-2.88772	-39.3738	7.14291	1.27257
0.2847	-4.85882	29.123	1.05373	-19.0959	-1.26864	6.54012	-5.64217	-131.546	8.3545	1.27257
0.2853	-7.0037	24.2368	1.97001	-22.1461	-4.01736	-1.39692	-3.80958	-130.93	7.14291	1.27257
0.2860	-6.69729	34.3004	8.06331	-17.5708	4.8439	2.26999	5.96426	-75.3852	12.0254	1.27257
0.2867	-8.53576	27.6022	15.3936	-3.8446	14.9161	1.65091	10.5402	-60.434	21.483	1.59071
0.2873	-10.0678	-6.60122	11.11	8.67417	16.7422	-2.31762	3.5208	-64.7076	31.8447	1.90885
0.2880	-6.69729	0.744255	3.18409	10.1993	15.2237	-2.01601	-6.85279	-54.9411	31.5554	0.954425
0.2887	-5.77806	51.386	-9.94169	5.02022	13.0901	-3.84153	-7.16378	-25.9498	23.3094	-0.318142
0.2893	-10.0678	52.9068	-26.7097	-1.39803	9.72624	-4.76223	-7.16378	2.42557	30.3257	0.636283
0.2900	-12.2127	-5.66281	-18.4861	-1.684	4.8439	-1.09531	-11.1288	28.9785	39.4759	1.59071
0.2907	-10.6806	-38.313	-4.74178	3.49509	-0.345993	-0.174615	-5.0313	54.9155	26.9622	1.59071
0.2913	-10.9871	-23.978	-11.4536	3.49509	-5.53589	-6.28614	4.74253	46.381	11.718	1.59071
0.2920	-11.9063	17.2149	-13.6068	1.36626	-5.84343	-10.5563	4.43155	25.0129	10.7957	1.27257
0.2927	-6.69729	56.887	-2.61141	3.81282	-1.57619	-8.11166	7.48587	33.8682	17.1972	1.27257
0.2933	-4.246	12.9436	4.10038	4.41652	-4.01736	-9.93718	17.8595	39.669	20.5607	1.59071
0.2940	-9.14859	-53.2951	-0.48105	7.14904	-7.66951	-12.6834	16.6377	23.7937	17.8121	0.954425
0.2947	-8.84218	-47.1793	-1.99292	17.2212	-3.70981	-7.50844	5.96426	22.8825	9.58416	1.27257
0.2953	-5.77806	-29.7702	4.10038	21.5107	-1.86452	-2.92083	1.37722	19.2121	1.33817	1.59071
0.2960	-9.76141	-25.2076	3.80258	14.7747	-4.92079	-3.84153	-3.49859	-12.2177	1.33817	1.59071
0.2967	-11.2935	-6.89245	1.05373	13.5673	-3.09471	-4.76223	-8.99637	-29.9154	-8.11941	1.27257
0.2973	-5.16523	15.0793	5.31445	25.4824	2.09518	-3.53992	-6.24193	-12.8337	-33.1467	1.27257
0.2980	-4.55241	6.5365	0.435235	38.2871	1.17253	-6.28614	-5.94205	2.1304	-45.353	1.59071
0.2987	-5.47164	-16.9561	-18.1654	42.2588	3.92125	-12.0802	-11.7397	-5.81367	-34.6838	1.59071
0.2993	0.306412	-11.7786	-32.8259	39.2085	18.5683	-13.3025	-15.4049	-11.6017	-20.3257	1.27257
0.3000	1.22565	-9.02814	-40.454	33.9977	32.0043	-9.93718	-16.3156	-3.67044	-17.577	1.27257
0.3007	-5.16523	-19.7066	-44.1191	24.8469	32.6194	-9.03236	-16.6266	-10.3825	-5.67816	1.27257
0.3013	-4.85882	-11.1638	-29.7793	17.539	22.2397	-9.93718	-11.1288	-26.861	35.5156	1.27257
0.3020	-0.612824	9.57824	-8.40692	15.4102	9.11114	-12.3818	3.82068	-26.861	58.4091	1.27257
0.3027	-3.32676	49.2503	5.01666	11.1207	9.72624	-15.4296	14.1943	-8.25208	36.7272	1.59071
0.3033	-6.69729	73.0664	14.1795	8.07047	17.0498	-17.5726	12.0618	34.7794	18.4269	1.59071
0.3040	-4.55241	38.8954	12.3469	9.27787	13.3784	-21.5411	10.5402	76.2836	18.1195	1.27257
0.3047	-0.612824	3.17117	9.30029	9.5956	4.53635	-26.732	15.1161	51.8739	11.4106	0.954425
0.3053	-0.612824	-26.1136	13.2632	8.99191	-2.78716	-27.9543	13.8944	-17.0945	2.85717	0.954425
0.3060	2.75771	-49.315	11.11	11.1207	-5.22834	-20.9379	6.26414	-50.0643	5.29841	1.27257
0.3067	10.9871	-14.2056	-5.36027	11.1207	-10.7258	-12.3818	-0.444265	-21.073	7.73966	1.59071
0.3073	11.5999	81.9004	-0.48105	8.67417	-17.4342	-11.7786	-3.49859	30.8137	4.991	1.27257
0.3080	-1.22565	140.502	30.6497	9.91334	-14.0704	-16.0487	-4.10945	67.7363	3.472	1.27257
0.3087	-14.9266	40.4163	25.7705	12.6459	-9.80313	-13.3025	-6.85279	113.206	1.03075	1.27257
0.3093	-7.61653	-81.6739	-16.3557	16.6175	-7.97706	-5.66705	-10.829	146.779	-2.9295	1.59071
0.3100	13.4384	-79.5382	-35.8726	22.4003	-4.92079	-2.61922	-10.2181	96.1245	-3.54433	1.59071
0.3107	19.8292	-92.0288	-10.2395	24.5609	-8.8997	-1.39692	-6.85279	40.8882	-1.10308	1.59071
0.3113	6.74106	-143.932	22.1054	20.2715	-14.0704	-1.09531	-12.0507	54.3123	-2.33275	1.27257
0.3120	-3.63317	-59.0874	21.1891	17.8249	-8.8997	1.3493	-19.37	43.0186	-4.15916	1.59071
0.3127	1.22565	73.3577	-14.2024	18.1427	-4.01736	5.61943	-19.059	10.0616	-3.85175	1.59071
0.3133	6.43465	45.3025	-56.3286	8.67417	-5.53589	5.31782	-16.9265	10.0616	-4.46658	1.27257
0.3140	3.37053	-21.8423	-64.5523	-3.20913	-7.36196	5.92104	-15.0939	37.2178	-3.85175	1.27257
0.3147	0.612824	30.3203	-29.1608	-4.73425	-9.18803	7.14334	-11.1288	78.1188	-1.10308	1.59071
0.3153	-5.16523	123.126	8.38401	-0.794338	-11.6292	4.69873	-9.29625	91.8509	-0.198917	1.27257
0.3160	-11.5999	125.844	20.5706	6.54534	-12.2443	-0.174615	-8.38551	81.7764	-0.795666	1.59071
0.3167	-11.2935	71.222	30.9475	19.3501	-9.49558	-1.09531	-1.36612	32.0329	0.1085	1.59071
0.3173	-15.2331	26.3725	37.98	26.0861	-9.80313	19.0489	1.68821	-69.2892	0.1085	0.318142
0.3180	-20.1356	-44.1376	28.8172	27.8972	-12.5519	51.4003	-4.72032	-137.038	-1.4105	0.636283
0.3187	-14.6202	-72.8076	13.561	31.5829	-11.9368	70.0047	-4.72032	-139.785	-0.48825	1.90885
0.3193	-7.0037	-37.4069	1.97001	37.3657	-10.4182	72.751	3.82068	-119.033	1.64558	1.59071
0.3200	-6.08447	-9.02814	-3.22991	40.13	-10.4182	65.433	6.26414	-106.52	1.64558	0.954425
0.3207	-6.39088	23.0072	-8.40692	37.3657	-9.49558	55.0513	5.65328	-89.4253	3.16458	1.27257
0.3213	-3.93958	50.4799	-16.035	49.2807	-5.53589	44.9872	15.1161	-13.7449	9.87349	1.59071
0.3220	-6.08447	64.2001	-7.81133	53.2524	-3.40226	28.5099	22.7464	58.8939	14.1592	1.27257
0.3227	-12.8255	114.259	26.0683	-11.7562	-4.61324	8.06404	13.5945	54.6203	15.3708	-0.318142
0.3233	-15.2331	170.726	61.4827	-84.3905	-3.70981	20.2712	2.90994	31.4169	17.1972	0
0.3240	-16.4587	82.8388	63.3153	-60.9098	-1.26864	68.1792	-1.36612	30.5057	8.66191	1.90885
0.3247	-19.5228	-33.1355	24.2357	-6.89485	-6.74686	93.8159	-6.24193	53.4011	-2.33275	1.90885
0.3253	-16.7651	-17.8945	-25.8163	9.5956	-6.45853	90.768	-8.07452	82.0844	-3.23691	1.59071
0.3260	-8.53576	-69.4422	-43.2028	21.7966	23.1431	68.4808	-6.55291	90.3237	-3.23691	1.59071
0.3267	-4.85882	-198.231	-31.6118	41.6551	55.4934	17.525	-8.68539	68.9555	-13.3093	0.954425
0.3273	-1.83847	-229.975	-21.8305	58.4315	61.9135	-32.526	-12.9614	17.0817	-25.823	0.954425
0.3280	4.59618	-184.802	-9.62099	62.6892	57.9346	-59.9882	-10.518	-25.0386	-28.8791	1.27257
0.3287	-0.919236	-142.994	5.31445	52.331	46.9589	-72.8145	-3.19871	-58.3036	-23.9966	1.27257
0.3293	-8.22935	-108.532	7.14702	38.8908	28.0254	-74.9416	5.65328	-128.183	-15.7506	1.27257
0.3300	0.919236	-52.6803	-2.61141	28.8186	9.41869	-72.1954	15.1161	-176.707	-9.34908	1.27257
0.3307	10.6806	-12.6847	-5.36027	27.6112	-10.1107	-75.2591	17.8595	-166.325	-11.1755	1.27257
0.3313	10.3742	-31.9059	6.23074	1.36626	-26.2955	-89.2918	10.8401	-158.394	-16.058	1.27257
0.3320	12.2127	-69.4422	19.975	-73.1109	-30.8702	-106.991	1.98809	-134.895	-16.3654	1.59071
0.3327	16.5025	-71.2867	28.2216	-105.456	-29.9476	-117.056	-3.19871	-81.8021	-14.539	1.59071
0.3333	13.1319	-34.98	27.3053	-60.5921	-30.5627	-114.309	-7.46366	-28.3882	-18.8067	1.59071
0.3340	11.5999	45.5937	22.7239	-8.41998	-30.5627	-89.895	-9.90712	57.6619	-16.9802	1.59071
0.3347	15.8897	161.244	18.1424	22.7181	-30.2551	-55.7181	-7.77464	125.719	2.26042	1.27257
0.3353	11.5999	251.591	8.9796	37.3657	-22.6241	-34.669	-5.0313	94.9053	22.6946	1.59071
0.3360	0.919236	291.554	-0.16035	51.0918	-8.59216	-26.4304	-5.33118	17.3897	33.3818	1.90885
0.3367	-0.612824	274.468	-11.4536	63.2929	-2.47962	-21.8427	-4.42044	-6.41686	41.6278	1.59071
0.3373	0.306412	151.504	-19.9979	50.8059	-7.36196	-19.0965	-2.88772	7.31522	51.9896	1.59071
0.3380	-10.0678	-9.64296	-21.8305	35.5228	-15.6081	-18.7949	-5.64217	-5.81367	46.5103	1.27257
0.3387	-14.0074	-91.7375	-25.8163	50.4881	-18.9527	-16.3503	-6.85279	-19.8409	-8.73425	1.27257
0.3393	-8.22935	-144.224	-22.7468	63.6106	-16.5115	-12.3818	-4.10945	-25.6418	-48.7165	1.59071
0.3400	-5.47164	-255.312	-12.6905	53.8561	-14.993	-12.6834	-4.72032	-72.3308	-7.21525	1.59071
0.3407	-0.612824	-295.275	-2.90921	46.8342	-14.3779	-13.9057	-5.94205	-126.964	31.248	1.59071
0.3413	6.12824	-158.267	7.14702	50.4881	-7.36196	-13.0009	-2.58785	-142.826	22.3872	1.27257
0.3420	8.27312	-38.313	4.39817	12.3281	2.40273	-14.5248	0.166599	-123.601	-9.96391	1.59071
0.3427	8.53576	-25.4988	-13.9046	-72.5072	5.459	-16.9694	-1.36612	-73.858	-42.6043	1.59071
0.3433	9.455	-38.0217	-20.6164	-90.205	4.53635	-15.128	-0.755251	-14.3481	-43.2191	1.59071
0.3440	13.4384	-34.3652	-8.10912	-18.7781	4.2288	-14.8264	7.18599	26.2321	-27.9568	1.59071
0.3447	13.1319	-4.14194	-3.22991	0.127094	1.48008	-20.0172	13.8944	34.4714	-9.65649	1.27257
0.3453	2.14488	-17.8945	-9.02541	-135.355	-0.345993	-16.3503	15.727	46.073	10.7957	0.954425
0.3460	-1.83847	-86.5601	-14.5231	-248.596	0.864982	2.5716	15.727	81.1604	35.8231	1.59071
0.3467	1.22565	-91.4139	-23.6631	-185.113	-1.57619	14.1597	8.39662	93.0701	84.3406	1.59071
0.3473	1.53206	-25.4988	-31.2911	-101.802	-7.97706	9.88956	-0.755251	61.0243	81.8994	1.59071
0.3480	4.28977	-14.8204	-26.4119	-85.3119	-12.2443	5.61943	-2.88772	37.8338	18.4269	1.59071
0.3487	-1.83847	-99.3742	-5.06248	-74.3183	-13.782	4.69873	-6.55291	33.8682	11.4106	0
0.3493	-12.8255	-150.016	21.4869	-51.1236	-13.782	6.22264	-11.1288	3.95278	20.8682	0.318142
0.3500	-6.08447	-78.9234	30.0312	-27.9289	-11.9368	10.8103	-8.07452	-14.3481	-10.5607	1.59071
0.3507	10.0678	29.123	23.6402	-14.8065	-8.59216	12.3342	-5.0313	-1.23204	-24.9007	1.27257
0.3513	15.2768	87.4014	29.115	-7.78451	-4.92079	8.66725	-7.46366	12.808	-17.577	1.27257
0.3520	4.59618	82.224	37.3615	0.444829	-3.09471	6.22264	-4.72032	15.5545	-15.4432	1.59071
0.3527	-14.9266	34.0092	6.23074	4.41652	-2.47962	5.61943	1.68821	-21.3681	-15.1357	1.59071
0.3533	-28.0586	-53.2951	-41.9888	-1.39803	-4.30569	4.39712	0.766358	-41.8251	-14.539	1.27257
0.3540	-27.1393	-147.265	-51.4494	15.6961	-4.30569	6.22264	-1.36612	19.2121	-13.0019	1.59071
0.3547	-14.0074	-142.994	-28.863	70.6325	2.40273	10.5086	1.98809	91.8509	-9.04166	1.59071
0.3553	-5.47164	-31.9059	-6.57435	107.553	4.8439	9.28634	1.98809	97.6517	-6.90783	1.27257
0.3560	2.14488	13.5584	5.93295	114.258	1.78763	7.44495	0.766358	65.2979	-5.37075	0.954425
0.3567	12.5191	-38.313	11.4307	117.022	2.71028	9.88956	2.90994	32.341	-3.23691	1.27257
0.3573	4.28977	-40.4486	17.524	106.028	4.53635	8.98473	1.98809	-27.477	-3.54433	1.27257
0.3580	-13.3946	40.7075	2.26781	92.6198	3.30615	3.79391	-2.88772	-40.2979	-6.293	1.59071
0.3587	-10.9871	115.165	-37.0866	86.8053	4.2288	4.09552	-3.49859	46.9842	-6.60041	1.59071
0.3593	-5.77806	65.1385	-48.0821	68.186	6.97752	8.06404	-2.27686	129.081	-3.54433	1.59071
0.3600	-21.0549	-16.05	-15.1187	48.0416	6.05487	7.76243	-5.0313	137.013	-2.33275	1.27257
0.3607	-35.3687	68.1802	30.0312	-13.9168	3.92125	7.76243	-5.64217	56.1475	1.953	1.27257
0.3613	-32.9612	218.034	63.6131	-178.694	3.6137	8.06404	-2.27686	-26.2578	12.3147	1.27257
0.3620	-21.3613	172.247	64.5294	-282.149	4.2288	6.54012	-1.05513	-27.169	18.1195	1.59071
0.3627	-13.1319	4.07722	34.9334	-205.543	3.6137	6.22264	-1.36612	-21.3681	16.2931	1.59071
0.3633	-10.6806	10.1931	12.3469	-102.406	3.30615	6.84173	-1.05513	-4.88964	12.9296	1.27257
0.3640	-13.701	91.058	10.8122	-59.9884	2.40273	5.01621	-2.88772	40.2722	7.14291	1.27257
0.3647	-17.0715	-18.4769	20.2728	-37.0797	1.17253	1.95251	-6.24193	39.669	-1.10308	1.59071
0.3653	-4.55241	-169.237	29.115	-21.8284	2.71028	3.17482	-5.94205	6.09601	-5.67816	1.27257
0.3660	11.9063	-185.417	23.0217	-13.9168	4.2288	4.69873	-3.19871	-39.9898	-6.90783	1.27257
0.3667	12.8255	-129.565	8.6818	-7.49855	3.30615	4.09552	-1.666	-91.2605	-8.11941	1.27257
0.3673	8.27312	-12.6847	3.48188	-0.476603	3.6137	5.01621	-0.444265	-94.6101	-8.11941	1.27257
0.3680	5.51542	67.889	-3.82549	0.444829	4.53635	5.31782	0.166599	-68.3652	-5.98558	1.27257
0.3687	-1.83847	41.6136	-13.6068	-4.13056	3.6137	3.17482	-0.444265	-60.1259	-3.85175	1.27257
0.3693	-6.08447	12.62	-0.16035	-4.44829	4.53635	4.09552	0.166599	-51.2835	-0.795666	1.59071
0.3700	2.4513	19.0594	14.4773	-0.794338	6.66997	6.54012	1.98809	-25.6418	1.64558	1.27257
0.3707	10.3742	44.9789	2.26781	0.762564	4.2288	4.69873	0.466479	1.82239	1.03075	1.59071
0.3713	6.12824	57.793	-12.6905	0.127094	0.864982	1.95251	-3.19871	31.4169	-1.10308	1.59071
0.3720	1.83847	98.9859	-17.5698	2.57366	1.78763	2.26999	-2.27686	69.5716	-0.198917	1.27257
0.3727	0.306412	196.063	-9.02541	5.94165	2.09518	1.95251	0.466479	77.8108	0.723333	1.27257
0.3733	-7.61653	236.317	12.9425	10.517	1.78763	0.126993	0.166599	32.341	-0.795666	1.59071
0.3740	-12.5191	254.956	19.0587	17.2212	3.01783	1.04769	0.766358	-27.477	-0.198917	1.27257
0.3747	-15.8459	328.508	17.524	18.1427	2.09518	0.730208	1.37722	-58.3036	1.64558	1.27257
0.3753	-21.3613	314.14	28.2216	16.0139	-0.653542	-1.69853	-2.27686	-48.8323	-1.71792	1.27257
0.3760	-17.3779	95.653	34.6127	23.0358	-0.345993	-0.793705	-5.0313	-22.2922	-3.85175	1.27257
0.3767	-8.53576	-165.904	31.566	34.6331	2.71028	2.5716	-1.97698	-3.97845	1.03075	1.27257
0.3773	-6.39088	-295.89	19.3565	35.8405	3.01783	4.39712	-0.755251	11.5888	2.54975	1.59071
0.3780	-2.14488	-340.157	10.5144	23.0358	1.48008	5.31782	-4.42044	44.5458	-2.9295	1.59071
0.3787	7.35389	-311.455	4.39817	22.1144	3.01783	7.44495	-6.85279	77.1948	-3.54433	0.318142
0.3793	10.9871	-176.874	-7.19284	56.3027	5.76655	8.06404	-7.77464	60.4211	0.415916	-0.318142
0.3800	9.76141	5.30686	-16.9513	99.61	4.8439	6.84173	-8.99637	47.6002	-0.198917	1.27257
0.3807	12.5191	136.522	-34.04	123.122	4.2288	8.36565	-7.46366	80.5572	-0.795666	1.90885
0.3813	13.4384	153.931	-45.3332	138.088	5.459	8.66725	-4.10945	91.2349	3.16458	1.59071
0.3820	11.5999	125.553	-19.9979	120.39	5.459	4.39712	-3.19871	59.4971	8.04708	1.59071
0.3827	10.3742	167.652	29.7335	63.6106	5.459	1.3493	-1.36612	30.8137	13.8518	1.59071
0.3833	-0.306412	168.266	60.2458	28.8186	4.53635	-1.39692	1.98809	22.2665	14.756	1.59071
0.3840	-10.9871	-47.4705	47.7385	26.6898	0.864982	-5.66705	0.766358	17.9929	9.87349	1.59071
0.3847	-10.0678	-232.725	23.3195	15.6961	-1.86452	-5.98453	-5.64217	-7.32805	6.52808	1.59071
0.3853	-3.93958	-205.253	28.8172	-46.5482	-0.0384436	-3.22244	-6.24193	-67.454	8.66191	1.59071
0.3860	5.51542	-171.696	34.6127	-124.362	3.6137	-2.61922	2.90994	-116.889	12.0254	1.59071
0.3867	17.7281	-179.624	12.9425	-150.606	3.92125	-5.66705	9.92933	-110.485	10.1809	1.59071
0.3873	27.4895	-155.808	-0.48105	-148.192	2.71028	-8.73075	12.3728	-77.5285	5.60583	1.59071
0.3880	30.5099	-146.651	-5.06248	-118.579	1.17253	-8.41327	12.0618	-61.6532	0.1085	1.27257
0.3887	24.7318	-135.681	-14.2024	-65.4852	0.269106	-4.14314	7.78575	-51.5787	-4.15916	1.27257
0.3893	10.0678	-42.6167	-28.5423	-37.7152	1.78763	1.95251	4.13167	-35.4082	-1.4105	1.27257
0.3900	-6.08447	60.5435	-43.5006	-31.2969	4.53635	6.54012	2.59895	-22.2922	4.70166	1.27257
0.3907	-8.22935	113.353	-39.2399	-25.8001	3.30615	6.22264	-1.97698	-7.03287	4.39425	1.27257
0.3913	-4.55241	139.888	-32.2074	-21.5424	0.269106	4.39712	-9.29625	-10.6905	1.33817	1.59071
0.3920	-16.1523	156.358	-32.8259	-17.253	-1.86452	4.09552	-13.8722	-27.169	0.723333	1.59071
0.3927	-24.3816	178.039	-20.9142	-12.9954	-2.47962	3.79391	-14.794	-10.0745	1.64558	1.59071
0.3933	-12.8255	78.8587	-5.97876	-16.9671	-1.86452	3.47643	-14.4831	24.4097	2.54975	1.59071
0.3940	0.919236	-75.5581	6.55144	-20.3033	0.576655	4.09552	-11.7397	38.1418	3.77941	1.59071
0.3947	6.12824	53.8452	15.6914	-13.2813	2.40273	3.79391	-8.07452	56.4427	4.39425	1.59071
0.3953	7.6603	369.086	7.46772	-2.31947	1.17253	3.17482	-8.99637	106.494	4.08683	1.27257
0.3960	10.0678	438.981	-14.5231	16.6175	-0.0384436	3.79391	-9.60724	148.91	3.472	1.27257
0.3967	12.2127	304.983	-35.5748	55.3812	0.576655	4.69873	-8.38551	124.808	2.54975	1.59071
0.3973	11.2935	290.971	-32.5281	92.3021	-0.345993	3.17482	-8.99637	54.9155	3.77941	1.59071
0.3980	10.3742	157.588	-4.14619	101.771	-1.86452	1.04769	-10.829	-7.94407	7.43225	1.59071
0.3987	14.3576	-223.859	7.76552	117.022	0.269106	3.79391	-8.99637	-28.6962	11.1032	1.27257
0.3993	18.9538	-359.055	-16.035	137.452	1.78763	8.98473	-6.24193	38.437	12.9296	1.27257
0.4000	15.2768	-250.426	-47.4636	121.915	-0.961091	8.66725	-8.68539	125.116	12.6222	1.27257
0.4007	5.51542	-188.491	-60.5894	84.3587	-1.86452	7.76243	-9.90712	119.918	12.0254	1.59071
0.4013	0.919236	-189.688	-48.7006	57.8278	-0.961091	8.66725	-7.77464	77.8108	9.27674	1.59071
0.4020	5.51542	-239.424	-27.9467	12.9636	-2.17207	8.06404	-8.68539	56.1475	1.953	1.27257
0.4027	12.2127	-146.974	-15.4394	-41.9728	-0.345993	9.58795	-7.46366	-6.72487	-2.9295	1.27257
0.4033	11.9063	40.7075	-21.2349	-42.5765	4.2288	12.9374	-1.97698	-68.6732	-6.293	1.59071
0.4040	1.22565	139.273	-43.2028	-38.9226	3.92125	11.731	-2.27686	-72.0356	-13.6167	1.59071
0.4047	-11.2935	266.249	-49.6168	-98.1166	0.576655	7.76243	-7.16378	-89.4253	-22.4595	1.59071
0.4053	-13.1319	344.978	-33.1237	-151.528	-0.345993	5.01621	-8.38551	-59.5228	-18.4992	1.59071
0.4060	-8.84218	200.917	-17.272	-123.472	-0.0384436	2.26999	-8.68539	53.6963	-2.64017	1.59071
0.4067	-9.76141	-99.0506	0.137443	-79.5291	0.576655	0.4286	-10.2181	80.8652	-0.198917	1.27257
0.4073	-3.63317	-277.284	13.8588	-75.2397	4.2288	2.87321	-6.24193	28.3753	-4.774	1.27257
0.4080	4.90259	-220.526	6.84923	-63.6424	4.53635	2.5716	-4.42044	-14.3481	-4.774	1.27257
0.4087	1.83847	-108.532	23.6402	-32.822	0.864982	-1.69853	-8.38551	-70.5084	-9.65649	0.318142
0.4093	0	-11.7786	55.6872	-12.9954	1.48008	-1.69853	-7.46366	-99.8078	-13.3093	0.636283
0.4100	-1.22565	50.1887	46.8222	-12.3599	1.78763	0.4286	-5.0313	-71.7276	-16.9802	1.90885
0.4107	-12.5191	76.4318	19.0587	-1.684	0.576655	-0.793705	-6.24193	-50.6675	-26.4378	1.90885
0.4113	-10.6806	165.839	-14.5231	17.539	2.09518	-0.476223	-3.19871	-55.8523	-28.2642	1.90885
0.4120	7.04748	142.023	-71.8826	10.803	2.71028	1.95251	1.07734	-68.3652	-17.577	1.59071
0.4127	10.9871	-149.11	-135.06	-3.20913	-0.345993	0.730208	0.166599	-80.2749	-5.67816	1.27257
0.4133	14.9704	-267.835	-166.787	6.22761	-0.653542	-0.476223	0.466479	-47.3179	-1.71792	1.27257
0.4140	19.8292	-102.125	-143.307	25.4824	0.864982	-2.01601	2.59895	16.7737	-2.33275	1.59071
0.4147	-1.22565	-9.93419	-40.7518	45.309	-0.961091	-4.44475	-0.755251	53.0931	-5.98558	1.59071
0.4153	-16.1523	7.15132	75.8226	55.3812	-1.57619	-2.01601	-2.88772	54.0043	-5.98558	1.27257
0.4160	2.14488	-2.00625	88.3299	49.2807	1.48008	2.87321	0.166599	27.4513	1.64558	1.27257
0.4167	11.5999	-4.14194	35.2312	42.5447	1.78763	2.26999	0.466479	-26.2578	3.472	1.59071
0.4173	-10.6806	77.3378	10.8122	9.27787	2.40273	-2.01601	1.07734	-74.782	3.16458	1.59071
0.4180	-32.9612	91.058	4.39817	-29.7718	3.6137	-4.76223	1.98809	-71.7276	6.22066	1.90885
0.4187	-32.9612	-21.551	-29.4586	-26.7215	3.92125	-3.53992	-1.666	-37.2434	3.472	1.59071
0.4193	-22.2805	-62.1291	-83.4736	-36.7937	4.53635	0.730208	-4.42044	-17.0945	1.03075	1.27257
0.4200	-20.1356	52.0008	-98.7526	-52.6487	7.28507	6.84173	-1.36612	1.20637	4.991	1.27257
0.4207	-23.1998	134.095	-84.7106	-33.4257	8.20772	10.1912	0.166599	34.1633	12.0254	1.59071
0.4213	-17.6844	111.832	-81.3432	-13.2813	5.459	8.06404	-3.80958	62.2435	13.5444	1.90885
0.4220	-5.77806	124.032	-15.7372	4.70248	3.01783	6.22264	-5.64217	45.457	10.1809	1.59071
0.4227	7.04748	131.668	88.0321	24.8469	1.48008	6.54012	-4.10945	-11.9097	13.237	1.59071
0.4233	22.5869	17.8298	87.7114	30.0577	0.576655	4.69873	-4.72032	-9.16327	14.756	1.27257
0.4240	36.0253	-134.451	42.8592	27.0075	-0.0384436	2.5716	-3.49859	35.9986	5.29841	1.27257
0.4247	36.6381	-255.312	64.8272	28.8186	-0.345993	3.79391	-0.755251	18.9169	-16.9802	1.59071
0.4253	32.6548	-280.034	89.8647	30.0577	-1.57619	5.01621	-1.97698	-36.6274	-42.0076	1.59071
0.4260	28.1024	-192.762	87.4136	19.0641	-2.47962	5.01621	-3.80958	-78.4397	-40.4705	1.59071
0.4267	8.84218	-152.475	103.884	2.89139	-1.86452	6.54012	-2.88772	-85.7677	-29.1865	1.59071
0.4273	-12.2127	-162.215	123.721	-3.8446	-1.86452	6.54012	-3.49859	-65.6188	-21.5553	1.27257
0.4280	-12.5191	-131.701	125.256	4.70248	-0.961091	6.84173	-3.19871	-34.189	16.6005	1.27257
0.4287	-1.83847	-79.8294	109.382	-6.25938	2.09518	10.1912	0.166599	-27.477	58.7165	1.59071
0.4293	4.28977	-27.0521	92.2928	-65.7712	3.92125	12.3342	1.37722	-35.1002	59.3133	1.59071
0.4300	7.96671	16.3089	99.3253	-90.205	3.6137	12.0326	0.466479	11.8969	32.767	1.59071
0.4307	11.9063	60.5435	119.163	-44.7371	3.6137	11.731	-0.444265	79.03	13.237	1.59071
0.4313	11.2935	99.9243	116.712	-7.18082	3.6137	12.0326	-1.36612	141.286	12.0254	1.59071
0.4320	7.6603	97.1738	87.7114	10.517	3.92125	12.0326	-0.144386	234.369	14.1592	1.59071
0.4327	4.90259	142.638	32.7801	20.2715	3.92125	12.0326	3.20982	284.408	13.8518	1.59071
0.4333	-0.612824	282.396	-48.0821	20.5892	4.53635	8.66725	5.04241	209.344	14.1592	1.59071
0.4340	-8.22935	206.418	-103.632	22.4003	3.30615	5.31782	1.37722	52.169	8.3545	1.59071
0.4347	-4.55241	-126.815	-88.3757	24.2432	0.269106	22.0967	-5.0313	-107.123	-2.64017	1.27257
0.4353	2.75771	-310.84	-50.8309	30.0577	-0.653542	50.7812	-6.24193	-201.425	-7.21525	1.27257
0.4360	0.919236	-265.99	-47.7843	15.0924	1.48008	65.433	-4.10945	-202.644	-4.774	1.27257
0.4367	5.209	-100.28	-71.8826	-28.5644	2.09518	67.8776	-3.49859	-153.517	3.77941	0.954425
0.4373	16.5025	7.76614	-88.3757	-34.3472	3.01783	67.8776	-3.49859	-97.0614	10.1809	1.59071
0.4380	25.0382	18.121	-78.5944	-15.1242	4.53635	67.576	-3.80958	-71.4196	8.66191	1.59071
0.4387	23.8126	145.389	-72.2033	-21.5424	3.30615	61.7661	-7.77464	-54.6331	6.22066	0.318142
0.4393	11.9063	296.149	-56.3286	-21.5424	2.71028	52.0035	-10.2181	22.8825	4.08683	0
0.4400	11.5999	394.423	8.6818	-8.10225	5.459	43.1617	-4.72032	120.534	3.472	1.59071
0.4407	21.6677	398.371	66.9575	-2.60543	5.76655	28.5099	-0.444265	165.401	2.26042	1.90885
0.4413	25.3447	326.954	90.1625	-2.31947	5.76655	9.58795	-1.666	158.073	0.723333	1.59071
0.4420	19.2164	441.408	108.167	-2.31947	8.20772	-5.36544	-0.144386	104.056	2.85717	1.59071
0.4427	4.59618	391.349	106.037	-1.39803	8.20772	-23.0651	1.37722	16.4657	3.16458	1.27257
0.4433	-9.455	-48.7002	67.8738	-1.0803	5.15145	-52.0511	-1.97698	-50.3595	-0.198917	1.27257
0.4440	-12.8255	-320.612	25.4727	0.127094	6.66997	-79.8308	-1.05513	-65.3236	-0.198917	1.59071
0.4447	-12.2127	-316.956	8.06331	-1.39803	10.0338	-86.8471	1.07734	-81.8021	2.54975	1.59071
0.4453	-17.6844	-270.553	-12.3699	-2.00173	9.72624	-79.2117	-2.58785	-116.889	3.472	1.27257
0.4460	-27.7522	-254.697	-26.4119	15.4102	7.28507	-70.6714	-5.64217	-81.4941	2.26042	1.59071
0.4467	-33.2676	-289.192	-27.9467	32.4725	5.459	-57.242	-7.46366	31.4169	-0.198917	1.90885
0.4473	-32.6548	-236.997	-60.5894	22.4003	3.30615	-41.0663	-11.4398	78.1188	-2.02533	1.59071
0.4480	-23.5062	-102.125	-78.9151	6.54534	3.6137	-29.1766	-14.794	15.2465	-2.02533	1.27257
0.4487	-2.71393	-68.5362	-60.5894	5.62391	5.15145	-20.3188	-12.6505	-16.1833	1.03075	1.59071
0.4493	11.2935	-79.5382	-36.1704	6.22761	4.2288	-17.5726	-6.85279	3.04159	2.26042	1.59071
0.4500	8.84218	-39.2514	-17.8676	2.57366	3.6137	-20.0172	-5.0313	15.5545	-0.198917	1.27257
0.4507	9.455	4.40081	-26.4119	3.17735	5.76655	-19.7156	-7.46366	17.3897	-1.4105	1.59071
0.4513	14.664	44.9789	-61.2079	4.41652	6.05487	-18.7949	-8.07452	-18.6217	-0.795666	1.59071
0.4520	3.98336	21.4863	-96.0038	-3.52686	5.15145	-19.3981	-2.27686	-18.3265	0.1085	1.27257
0.4527	-17.0715	-53.2951	-88.6735	-14.2028	6.97752	-15.4296	9.61834	37.5258	2.54975	1.27257
0.4533	-25.6073	-122.252	-64.2545	-20.0173	6.66997	-9.03236	16.3379	38.437	2.54975	1.27257
0.4540	-28.6714	-245.248	-71.8826	-20.907	3.92125	-4.76223	11.4509	-6.72487	-1.71792	1.27257
0.4547	-34.4932	-224.474	-88.6735	-15.1242	4.8439	-0.476223	8.7076	-55.8523	-3.23691	1.27257
0.4553	-30.2035	9.90183	-103.311	-9.62738	5.76655	7.44495	11.4509	-95.8293	-0.48825	1.27257
0.4560	-15.5395	83.1301	-130.479	-6.89485	2.71028	16.3027	5.04241	-86.0757	0.1085	1.59071
0.4567	-2.71393	-52.9715	-155.196	2.28769	1.78763	21.7951	-7.46366	-19.2377	-1.71792	1.27257
0.4573	9.76141	-140.567	-130.777	16.0139	3.92125	17.525	-8.99637	68.0443	-4.774	1.27257
0.4580	26.8767	-103.031	-63.0404	23.6395	6.36242	1.3493	-1.666	84.2148	-6.293	1.59071
0.4587	35.1061	-46.5645	-14.5231	30.6614	8.49605	-9.03236	1.98809	-3.67044	-5.67816	1.59071
0.4593	24.119	-26.1136	-1.99292	36.762	9.41869	-7.50844	4.74253	-73.858	-6.60041	1.59071
0.4600	5.209	9.90183	-7.81133	38.2871	7.28507	-9.33396	10.8401	-77.8236	-4.774	1.27257
0.4607	-8.84218	22.3924	11.7285	51.0918	5.459	-13.3025	14.8051	-60.1259	6.52808	1.27257
0.4613	-11.2935	16.9237	60.8642	41.6551	4.53635	-11.1595	13.5945	27.7593	15.3708	1.59071
0.4620	-0.919236	68.1802	52.6177	-14.2028	1.48008	-7.19096	6.57513	126.643	12.9296	1.59071
0.4627	7.35389	117.301	-27.0304	-43.212	-1.57619	-3.53992	-0.755251	127.246	6.52808	1.27257
0.4633	8.53576	112.415	-67.0034	-24.275	-1.57619	-1.39692	0.166599	94.2893	2.54975	1.27257
0.4640	10.3742	71.8368	-14.5231	-6.25938	0.864982	-3.53992	8.39662	57.3667	2.26042	1.27257
0.4647	15.5832	38.5718	21.8076	-2.31947	2.09518	-6.58775	12.6727	11.2808	2.54975	1.27257
0.4653	19.8292	33.0708	-14.5231	-1.39803	1.78763	-5.36544	10.5402	7.62323	4.08683	1.59071
0.4660	8.53576	69.4099	-34.04	0.444829	0.269106	-1.69853	5.3534	21.3553	4.39425	1.59071
0.4667	-22.5869	88.6311	-12.0721	2.57366	-1.57619	4.39712	-3.80958	36.3066	1.64558	1.59071
0.4673	-51.5648	-25.4988	-10.858	6.22761	-1.86452	12.0326	-13.8722	72.01	0.415916	1.59071
0.4680	-55.8545	-9.35173	-30.3749	12.6459	-0.345993	16.0011	-17.2375	66.5171	0.415916	1.27257
0.4687	-35.6751	160.047	-54.1754	19.0641	2.09518	10.8103	-17.8484	32.0329	-3.54433	1.27257
0.4693	3.67694	66.0445	-21.2349	23.0358	3.92125	5.31782	-15.4049	37.8338	-4.15916	0.318142
0.4700	48.5444	-70.9955	162.801	21.5107	4.2288	5.92104	-8.07452	7.9184	1.953	0.636283
0.4707	68.3736	43.458	314.469	9.91334	1.78763	5.92104	-3.19871	-88.8221	3.77941	1.59071
0.4713	50.3829	147.816	272.045	-2.92316	-2.17207	3.79391	-3.19871	-121.779	-3.85175	1.90885
0.4720	30.5099	121.281	199.727	-0.794338	-2.78716	3.79391	-3.49859	-31.7506	-6.60041	1.27257
0.4727	33.8804	28.1846	154.852	1.65222	1.17253	4.09552	0.166599	-4.58164	1.64558	0
0.4733	39.7022	-84.4244	101.753	-11.7562	2.71028	3.47643	4.74253	-115.067	7.73966	0.954425
0.4740	38.783	-131.701	48.9525	-23.6713	-0.345993	6.22264	1.98809	-175.18	5.91325	1.90885
0.4747	22.8934	-155.808	-4.74178	-16.6493	-2.78716	10.1912	-6.55291	-145.278	-0.795666	1.27257
0.4753	-11.2935	-162.83	-45.0354	-2.31947	-1.57619	10.8103	-9.60724	-134.587	-4.46658	1.27257
0.4760	-22.8934	-58.149	-57.5427	-0.794338	-0.653542	10.5086	-5.0313	-143.75	-2.9295	1.59071
0.4767	-10.3742	16.9237	-10.5373	-1.684	-0.653542	12.3342	2.90994	-89.4253	1.33817	1.27257
0.4773	-7.61653	-31.6147	35.8497	0.444829	0.269106	8.36565	10.5402	-6.10885	3.16458	1.59071
0.4780	-12.2127	-52.9715	27.6031	-2.31947	3.30615	1.65091	11.7619	14.0272	0.415916	1.59071
0.4787	-14.9266	-18.8005	30.0312	-5.36972	7.28507	3.79391	13.5945	2.42557	-0.48825	1.27257
0.4793	-11.2935	17.2149	47.1429	-4.73425	10.0338	6.84173	22.1355	-1.23204	2.54975	1.59071
0.4800	-15.2331	8.96342	54.1525	-2.60543	13.3784	5.61943	21.5247	-18.3265	1.33817	1.59071
0.4807	-31.1227	-49.6062	76.7389	3.49509	21.317	13.5565	10.5402	-42.4283	-0.48825	1.59071
0.4813	-32.0419	-46.2732	66.362	8.38821	27.4295	23.6206	2.29907	-23.8194	0.415916	1.59071
0.4820	-13.701	-53.2951	-1.39733	4.70248	25.2959	21.4935	-2.27686	44.5458	-1.4105	1.27257
0.4827	7.96671	-142.994	-40.454	2.57366	20.106	19.6521	-4.42044	109.549	-3.23691	1.59071
0.4833	15.2768	-140.567	-68.2174	4.41652	16.1271	25.7636	-6.85279	158.984	-3.23691	1.27257
0.4840	-2.14488	-18.8005	-100.883	1.36626	9.11114	26.986	-12.9614	177.914	-3.85175	1.27257
0.4847	-14.6202	51.386	-85.9246	-2.60543	1.78763	24.2397	-10.518	127.554	-1.10308	1.59071
0.4853	-11.2935	59.0227	-54.4961	-0.476603	9.72624	25.462	-0.755251	60.7163	4.991	1.59071
0.4860	-18.2972	54.4601	25.152	0.127094	33.2153	24.5413	-2.58785	45.765	4.08683	1.27257
0.4867	-12.8255	17.8298	142.963	-1.0803	48.1699	21.7951	-8.07452	34.7794	0.415916	1.59071
0.4873	12.5191	71.8368	141.726	0.127094	43.9026	21.176	-4.42044	7.00721	0.415916	1.90885
0.4880	28.4088	242.433	-1.39733	-0.158868	31.0817	20.5728	-3.80958	8.22641	-2.33275	1.59071
0.4887	35.1061	328.799	-162.824	0.762564	21.317	22.0967	-5.64217	22.5745	-3.54433	1.27257
0.4893	28.1024	267.77	-258.049	5.62391	12.1674	22.0967	-0.444265	1.51438	1.33817	1.27257
0.4900	-1.83847	167.069	-236.676	6.86308	0.864982	14.7788	2.29907	-65.3236	1.953	1.59071
0.4907	-34.7996	126.782	-131.098	3.17735	-4.30569	7.14334	0.166599	-99.4998	-2.64017	1.27257
0.4913	-42.4162	19.0594	-38.3236	2.89139	-4.30569	2.87321	2.29907	-84.2405	-2.02533	1.27257
0.4920	-42.4162	-234.861	59.948	2.28769	-8.59216	-0.174615	3.20982	-45.4827	-0.795666	1.27257
0.4927	-60.4069	-283.691	196.062	1.04853	-17.1266	2.87321	1.68821	28.3753	0.1085	1.59071
0.4933	-59.4877	-23.3631	279.971	4.09878	-25.0653	9.88956	2.90994	33.2521	3.77941	1.90885
0.4940	-24.6881	211.012	240.617	5.33795	-27.814	10.1912	-0.444265	-54.0299	4.70166	1.27257
0.4947	-5.77806	292.169	169.192	1.96996	-29.025	8.36565	-8.99637	-76.0012	1.33817	1.27257
0.4953	3.98336	259.518	121.591	2.89139	-30.5627	12.6358	-11.7397	-19.8409	-1.10308	1.59071
0.4960	22.2805	204.897	76.1204	4.41652	-28.4291	19.6521	-8.99637	-16.7993	-1.71792	1.27257
0.4967	14.9704	99.6007	65.7435	2.89139	-22.009	24.843	-7.16378	-10.0745	-3.23691	1.59071
0.4973	3.98336	-58.7638	42.8592	4.41652	-15.3006	27.8908	-2.88772	96.7277	-2.33275	1.90885
0.4980	9.14859	-21.2274	-31.2911	6.86308	-11.9368	26.6843	3.5208	183.407	-0.795666	1.59071
0.4987	0	143.544	-79.5107	4.41652	-11.3409	23.9381	7.18599	199.269	-2.64017	0.318142
0.4993	-11.9063	188.102	-67.3011	2.89139	-7.97706	24.843	11.7619	217.891	-2.33275	0.318142
0.5000	-15.5395	127.688	-85.6269	3.49509	-4.30569	24.5413	13.5945	108.933	-0.48825	1.27257
0.5007	-22.5869	-2.00625	-177.164	0.762564	-6.45853	25.462	8.39662	-116.286	-2.02533	1.59071
0.5013	-21.3613	-110.959	-210.448	-1.0803	-11.3409	32.1768	5.3534	-169.995	-1.71792	1.59071
0.5020	-24.119	-7.7985	-151.531	0.444829	-11.3409	35.2246	4.13167	-105.596	1.03075	1.59071
0.5027	-37.5136	72.1604	-96.9201	1.36626	-8.59216	29.1131	1.98809	-43.0443	2.85717	1.59071
0.5033	-40.5777	-99.3742	-56.9242	0.127094	-12.8594	21.176	-1.666	83.6116	1.953	1.59071
0.5040	-27.1393	-205.867	-47.1658	-2.31947	-19.2603	14.4772	-6.55291	128.465	0.723333	1.59071
0.5047	3.67694	-24.9164	-53.5798	-5.36972	-18.3568	0.730208	-5.94205	11.2808	1.33817	1.27257
0.5053	41.4969	112.738	-29.1608	-5.65569	-15.3006	-20.6204	0.166599	-65.3236	2.85717	1.59071
0.5060	67.148	-70.3806	29.4357	-4.44829	-15.9157	-47.1778	7.48587	-39.3738	6.22066	1.90885
0.5067	71.7442	-294.66	64.5294	-2.92316	-16.5115	-61.8296	11.1511	2.42557	10.1809	1.59071
0.5073	62.2892	-294.984	1.35152	-2.00173	-14.993	-47.1778	6.26414	81.7764	7.73966	1.59071
0.5080	62.5518	-231.496	-52.3657	-2.31947	-11.9368	-24.8906	2.29907	159.292	1.64558	1.59071
0.5087	53.0968	-266.281	-16.9513	-1.684	-8.59216	-16.9694	7.78575	128.465	1.03075	1.59071
0.5093	7.96671	-237.903	-40.454	-1.0803	-1.57619	-13.9057	11.7619	39.9642	2.26042	1.27257
0.5100	-28.365	-105.781	-121.018	0.444829	9.11114	-9.93718	8.7076	21.6633	2.54975	1.27257
0.5107	-36.2879	4.40081	-44.7376	2.89139	14.301	-9.33396	5.65328	32.649	2.26042	1.59071
0.5113	-51.5648	91.058	150.889	3.17735	12.1674	-12.6834	1.37722	-13.7449	-1.4105	1.59071
0.5120	-66.2288	54.1365	256.491	-0.158868	8.8036	-15.4296	-5.94205	-48.5371	-7.21525	1.59071
0.5127	-51.8712	-88.6958	250.375	-0.794338	10.9372	-12.3818	-7.16378	-21.9841	-7.52266	1.59071
0.5133	-22.5869	-134.775	207.653	3.17735	16.1271	-4.14314	-1.97698	126.643	-3.54433	1.90885
0.5140	-7.92294	-83.486	122.507	6.86308	20.4136	1.65091	-0.444265	287.154	-1.10308	1.59071
0.5147	-3.02035	14.4644	-33.7422	7.75274	21.6246	3.47643	-2.58785	220.329	-0.795666	1.27257
0.5153	10.0678	118.239	-167.108	7.75274	22.2397	2.5716	-3.49859	39.669	-2.33275	1.59071
0.5160	15.5832	142.638	-181.447	5.62391	21.6246	-0.476223	-4.10945	-69.5844	-5.08141	1.59071
0.5167	11.2935	108.758	-146.949	4.09878	21.317	-2.31762	-3.80958	-108.65	-5.67816	1.59071
0.5173	15.5832	91.9964	-125.302	4.09878	22.5472	-0.476223	-0.444265	-115.67	-3.23691	1.59071
0.5180	18.6474	182.31	-120.721	1.65222	20.106	-1.39692	1.07734	-130.93	-2.9295	1.59071
0.5187	2.4513	358.084	-180.233	-0.476603	17.0498	-3.53992	0.466479	-152.593	-2.9295	1.59071
0.5193	-15.8459	379.149	-294.357	0.127094	16.7422	-2.31762	2.29907	-111.089	1.64558	1.59071
0.5200	-8.22935	300.711	-375.539	-0.476603	14.6086	-1.69853	2.90994	-8.85526	6.22066	1.59071
0.5207	11.9063	266.249	-337.697	-2.31947	10.6489	-3.84153	0.766358	68.0443	7.73966	1.27257
0.5213	9.76141	12.3287	-216.839	-2.60543	9.11114	-4.14314	-1.666	68.3524	7.73966	1.59071
0.5220	0.612824	-261.104	-126.814	-2.92316	8.20772	-3.84153	-3.19871	10.9728	6.52808	1.59071
0.5227	5.209	-264.146	14.4773	-2.92316	6.97752	-2.31762	-4.42044	-22.8953	2.85717	0.636283
0.5233	12.5191	-230.881	279.055	-1.0803	9.11114	0.4286	-2.88772	-45.7907	1.03075	1.27257
0.5240	15.2768	-174.738	474.682	-1.0803	10.9372	2.26999	0.166599	-122.998	0.415916	1.90885
0.5247	23.8126	-157.038	471.016	-3.52686	9.11114	2.5716	-0.144386	-204.48	-3.23691	1.59071
0.5253	44.8675	-268.741	360.558	-2.60543	10.3413	6.84173	1.98809	-234.69	-3.54433	1.59071
0.5260	50.0765	-269.97	269.915	1.04853	14.6086	13.2549	8.39662	-192.275	0.723333	1.59071
0.5267	31.7355	-49.0238	231.774	0.127094	14.6086	13.2549	9.61834	-108.958	2.85717	1.59071
0.5273	14.9704	174.997	209.486	-2.92316	12.1674	9.88956	6.57513	-52.1947	2.85717	1.59071
0.5280	-0.306412	281.199	164.634	-3.8446	10.0338	6.84173	4.43155	-27.785	3.77941	1.90885
0.5287	-4.85882	403.257	105.121	-5.36972	6.66997	4.09552	1.98809	-30.2234	2.85717	0.954425
0.5293	5.82183	377.629	77.3345	-4.73425	5.459	5.01621	0.766358	-36.3322	1.33817	0
0.5300	19.5228	101.122	41.943	-0.794338	9.11114	8.36565	4.43155	-32.6618	3.472	1.27257
0.5307	34.1868	-146.651	-61.5056	-1.0803	10.0338	6.54012	5.96426	-36.0242	4.70166	1.90885
0.5313	37.8638	-241.559	-164.954	-4.73425	7.59262	2.87321	2.29907	-27.477	2.26042	1.59071
0.5320	31.7355	-30.0938	-205.248	-3.20913	7.90017	3.79391	2.29907	23.4857	3.16458	1.27257
0.5327	27.4895	159.724	-216.839	-0.476603	8.8036	5.31782	4.74253	73.8452	6.22066	1.59071
0.5333	24.4254	-61.8379	-226.62	-0.158868	9.41869	6.22264	5.3534	38.745	6.52808	1.59071
0.5340	26.5703	-237.612	-220.802	0.762564	10.6489	7.44495	6.57513	-46.3939	6.22066	1.59071
0.5347	31.1227	-184.187	-188.159	-1.39803	8.49605	4.09552	4.13167	-46.7019	3.77941	1.59071
0.5353	20.7485	2.87994	-177.164	-5.05199	2.71028	-2.31762	0.766358	27.1561	1.03075	1.27257
0.5360	-0.612824	213.148	-165.275	-2.31947	2.40273	-2.31762	4.13167	40.8882	1.64558	1.27257
0.5367	-9.14859	135.001	-92.9342	1.96996	5.76655	1.95251	8.09674	1.82239	3.16458	1.27257
0.5373	-6.39088	15.9853	-19.9979	1.36626	5.459	2.5716	5.96426	-22.5873	2.26042	1.59071
0.5380	-2.71393	203.052	62.9946	-0.158868	3.92125	1.3493	2.90994	-35.1002	3.472	1.59071
0.5387	-4.246	201.24	153.02	0.444829	2.71028	1.65091	3.82068	-35.4082	6.22066	1.27257
0.5393	-7.0037	-281.555	176.225	-1.684	-0.653542	-0.174615	2.29907	-56.1603	2.85717	1.59071
0.5400	13.7448	-580.94	166.764	-2.60543	-3.40226	-1.69853	1.07734	-115.067	-1.10308	1.59071
0.5407	40.3151	-442.994	152.103	1.65222	-2.47962	-0.174615	6.26414	-140.388	2.26042	1.27257
0.5413	33.8804	-227.548	124.638	1.96996	-3.40226	-2.92083	7.48587	-100.411	4.08683	1.59071
0.5420	12.5191	-39.2514	120.675	-2.00173	-7.05441	-9.03236	2.90994	-47.9211	1.33817	1.27257
0.5427	12.2127	78.5674	84.0692	-3.52686	-8.8997	-12.3818	0.466479	-7.03287	1.03075	1.27257
0.5433	31.1227	87.4014	-43.2028	-4.73425	-10.4182	-14.2232	-1.05513	14.0272	1.33817	1.27257
0.5440	40.8841	16.3089	-172.605	-5.65569	-11.9368	-15.128	-0.444265	17.3897	1.33817	1.27257
0.5447	38.4766	-57.2429	-229.965	-2.60543	-11.0333	-13.6041	3.82068	45.765	4.39425	1.59071
0.5453	27.1831	-2.32984	-264.142	-0.476603	-11.6292	-13.6041	6.57513	88.1804	5.91325	1.27257
0.5460	9.14859	187.811	-329.153	-1.39803	-14.993	-15.128	6.87501	119.007	3.77941	0.954425
0.5467	-1.83847	359.313	-297.403	-2.92316	-18.0493	-16.9694	5.96426	173.64	1.33817	1.27257
0.5473	-13.1319	247.319	-81.3432	-4.73425	-20.798	-18.7949	2.90994	236.192	-1.10308	1.59071
0.5480	-32.9612	-65.1709	106.335	-3.20913	-21.4131	-19.0965	2.59895	196.215	-1.71792	1.59071
0.5487	-51.8712	-211.66	209.486	-0.158868	-18.9527	-18.1917	5.04241	92.7621	-0.198917	1.59071
0.5493	-55.8545	-238.841	334.307	1.65222	-16.5115	-16.9694	5.65328	73.5372	1.03075	1.59071
0.5500	-44.5611	-207.097	297.678	1.96996	-15.6081	-16.9694	5.3534	126.643	1.953	1.27257
0.5507	-20.4421	-3.23589	39.8126	0.444829	-17.4342	-18.4933	5.3534	160.203	1.64558	1.59071
0.5513	2.4513	155.452	-182.661	-2.92316	-21.1056	-21.8427	3.20982	127.246	-0.198917	1.59071
0.5520	9.455	96.2678	-234.844	-5.97342	-24.7577	-24.589	-0.444265	84.2148	-2.02533	1.27257
0.5527	19.5228	10.1931	-182.066	-4.44829	-24.4502	-23.6841	0.766358	16.4657	-0.198917	1.59071
0.5533	24.4254	-23.6867	-100.562	-1.0803	-22.009	-20.9379	5.04241	-133.368	2.85717	1.27257
0.5540	0.612824	-123.158	41.6452	-2.31947	-21.4131	-20.6204	4.74253	-247.819	2.85717	1.59071
0.5547	-22.2805	-234.861	201.56	-5.65569	-23.8543	-22.7634	1.07734	-251.785	0.723333	1.90885
0.5553	-18.2972	-165.289	190.267	-6.89485	-26.2955	-23.0651	-1.36612	-182.508	0.723333	1.59071
0.5560	0.612824	71.222	16.0121	-5.97342	-27.1989	-22.1444	-1.05513	-88.5141	1.33817	1.59071
0.5567	14.0512	163.089	-143.605	-3.20913	-26.5838	-20.3188	1.07734	12.192	1.33817	1.27257
0.5573	4.28977	41.9372	-218.374	1.04853	-23.5467	-17.271	3.5208	98.2549	1.33817	1.27257
0.5580	-22.5869	-91.4139	-217.755	2.57366	-21.7014	-16.3503	4.43155	93.0701	0.415916	1.59071
0.5587	-42.1098	-220.817	-129.861	1.04853	-22.9316	-17.271	1.37722	46.073	-2.33275	0.636283
0.5593	-40.8841	-232.725	17.8447	0.127094	-23.8543	-16.6519	-1.97698	42.7106	-3.85175	0.318142
0.5600	-20.4421	-66.4005	163.397	1.65222	-23.8543	-15.4296	-1.05513	30.5057	-2.9295	1.27257
0.5607	3.37053	44.9789	293.715	1.96996	-25.6804	-17.271	-0.755251	-43.9555	-3.23691	1.59071
0.5613	21.3613	70.9307	330.344	1.65222	-27.1989	-18.1917	-2.27686	-115.67	-3.23691	0.954425
0.5620	29.328	75.2021	214.067	4.09878	-24.4502	-14.8264	0.166599	-83.0213	-1.10308	0.318142
0.5627	24.4254	-15.4352	106.633	5.33795	-22.6241	-15.128	3.20982	-15.5801	-0.48825	1.27257
0.5633	23.1998	-96.0089	122.21	2.57366	-23.2392	-18.7949	3.20982	-32.3538	-1.4105	1.90885
0.5640	35.7189	-76.4641	142.345	0.762564	-23.8543	-18.1917	1.37722	-83.6245	-2.02533	1.59071
0.5647	41.1905	-104.843	136.847	-0.158868	-25.3728	-16.9694	-1.97698	-73.2548	-3.85175	1.59071
0.5653	32.0419	-170.467	152.424	0.444829	-25.6804	-14.5248	-1.97698	-15.8753	-4.15916	1.59071
0.5660	27.1831	-129.565	105.716	4.70248	-22.009	-9.03236	3.82068	17.9929	-0.198917	1.59071
0.5667	26.5703	-40.4486	37.6822	4.41652	-21.1056	-7.50844	4.74253	47.2922	0.1085	1.27257
0.5673	12.5191	-12.3935	46.8222	1.36626	-22.6241	-8.73075	1.07734	155.93	-2.9295	1.27257
0.5680	-8.53576	-19.7066	65.1479	0.762564	-22.009	-7.50844	1.07734	250.54	-2.9295	1.59071
0.5687	-4.55241	20.8715	26.6868	-0.794338	-22.3165	-6.88935	0.466479	223.679	-3.23691	1.59071
0.5693	14.0512	58.4078	-42.5844	-1.0803	-21.1056	-5.36544	-0.755251	158.984	-4.15916	0.636283
0.5700	-3.93958	13.5584	-53.282	3.17735	-16.8191	0.126993	4.13167	87.5773	0.415916	0.318142
0.5707	-44.2547	39.1866	-10.858	3.17735	-17.4342	1.04769	6.57513	-14.9641	2.26042	0.636283
0.5713	-45.7429	203.052	-34.04	-1.39803	-22.009	-2.31762	2.90994	-51.8867	-1.10308	1.59071
0.5720	-12.2127	264.696	-89.5898	-2.31947	-22.6241	-2.92083	2.29907	-12.2177	-2.02533	1.59071
0.5727	7.6603	189.332	-71.287	-2.31947	-22.009	-2.92083	2.29907	-17.7105	-1.71792	1.27257
0.5733	-3.32676	172.861	34.9334	-2.92316	-23.2392	-2.92083	0.166599	-19.5457	-2.9295	1.59071
0.5740	-35.3687	132.866	159.434	1.96996	-20.798	1.04769	4.13167	10.3696	-0.198917	1.59071
0.5747	-59.4877	15.3705	126.791	3.81282	-19.2603	2.87321	7.78575	17.9929	1.953	1.27257
0.5753	-53.0968	-19.4153	-70.9663	0.444829	-20.798	1.04769	5.04241	8.53442	-1.4105	1.59071
0.5760	-40.8841	8.3486	-201.583	-0.476603	-20.4905	1.04769	4.43155	-21.6761	-2.9295	1.90885
0.5767	-40.5777	-33.7503	-213.494	-1.0803	-21.1056	-1.09531	4.13167	-40.901	-2.64017	1.59071
0.5773	-34.1868	-115.845	-191.206	-3.20913	-22.9316	-4.14314	1.07734	-79.9669	-2.9295	1.27257
0.5780	-22.8934	-52.0655	-131.693	-0.794338	-20.1829	-2.92083	3.5208	-99.8078	1.03075	1.27257
0.5787	-17.3779	33.6856	-103.013	-0.158868	-17.4342	-3.22244	5.65328	-0.616018	4.08683	1.27257
0.5793	-10.3742	-52.3567	-55.7101	-4.13056	-18.3568	-5.98453	0.466479	126.335	2.54975	1.27257
0.5800	-1.83847	-104.843	82.5344	-5.05199	-18.0493	-5.06383	-2.58785	152.58	3.16458	1.59071
0.5807	-1.53206	-55.722	149.675	-5.36972	-18.3568	-4.14314	-3.80958	68.9555	3.77941	1.59071
0.5813	-18.2972	-62.1291	147.843	-6.57712	-19.2603	-7.19096	-4.42044	-9.47128	2.85717	1.59071
0.5820	-40.8841	-106.396	163.717	-3.8446	-14.0704	-9.63557	1.98809	1.82239	4.991	1.27257
0.5827	-42.7226	-94.488	138.68	-1.684	-5.22834	-10.8579	7.18599	-25.6418	5.91325	1.27257
0.5833	-22.8934	-29.479	47.1429	-3.8446	-4.61324	-12.6834	7.18599	-137.95	3.16458	1.59071
0.5840	-7.31012	42.2284	-22.7468	-3.20913	-4.61324	-10.2547	8.7076	-195.624	1.33817	1.59071
0.5847	-17.9908	42.8432	-5.06248	-2.60543	16.1271	-7.50844	7.18599	-161.14	-0.795666	1.59071
0.5853	-16.4587	-1.39143	34.3149	-3.52686	39.0203	-7.81005	5.3534	-137.95	-2.02533	1.59071
0.5860	20.4421	68.1802	62.0783	-0.794338	40.5388	-7.50844	12.0618	-156.263	0.1085	1.27257
0.5867	32.6548	227.16	82.5344	1.96996	35.3682	-5.36544	14.5053	-119.033	0.723333	1.27257
0.5873	5.51542	226.868	70.3249	1.65222	29.8707	-3.53992	4.43155	-58.3036	-2.64017	1.59071
0.5880	-3.32676	12.62	22.1054	-1.0803	18.5683	-4.44475	-2.58785	19.8281	-4.46658	1.59071
0.5887	18.9538	-142.994	-59.9938	-3.20913	8.20772	-3.84153	-1.97698	126.938	-3.54433	0.954425
0.5893	40.0087	-169.852	-101.181	-0.158868	3.6137	2.26999	-1.666	62.5515	-1.71792	0.318142
0.5900	44.8675	-186.323	-55.0916	3.81282	-0.345993	6.84173	2.90994	-109.266	-0.48825	1.59071
0.5907	17.1153	-167.716	-51.1287	4.70248	-9.80313	5.61943	10.5402	-94.0069	0.1085	0.636283
0.5913	-40.8841	-70.9955	-80.4269	2.89139	-22.3165	0.730208	14.8051	50.9498	-1.10308	0.318142
0.5920	-74.4581	30.9351	-36.1704	-0.794338	-30.8702	-9.03236	15.727	126.643	-2.64017	1.59071
0.5927	-65.9224	39.1866	32.1845	-1.0803	-33.619	-10.5563	12.9837	134.266	-2.64017	1.59071
0.5933	-44.8675	18.4446	58.4132	1.96996	-33.3114	-3.53992	15.1161	109.241	-0.795666	1.27257
0.5940	-31.1227	0.420666	55.6872	1.36626	-31.7737	-2.01601	26.1006	82.6876	2.26042	1.59071
0.5947	-30.2035	-59.0874	69.4086	-1.39803	-30.5627	-2.01601	36.1743	91.8509	5.29841	1.59071
0.5953	-28.6714	-98.4358	91.995	-3.52686	-28.1215	-2.31762	38.3068	99.7821	5.60583	1.59071
0.5960	-17.0715	-68.5362	100.837	-5.97342	-18.9527	-6.28614	32.5091	46.9842	2.26042	1.59071
0.5967	-8.22935	-20.0302	81.9159	-5.05199	-9.18803	-7.81005	24.8789	-22.8953	1.03075	1.27257
0.5973	-5.77806	-32.2295	17.2262	-2.92316	-7.97706	-9.63557	22.1355	-39.9898	1.953	1.27257
0.5980	5.82183	-52.0655	-52.6635	-3.20913	-9.49558	-15.7471	21.8245	-52.5027	0.415916	1.59071
0.5987	21.0549	-45.9497	-83.4736	-2.31947	-6.45853	-17.5726	20.3029	-70.5084	1.64558	1.59071
0.5993	17.1153	-85.6217	-101.799	-0.476603	-5.53589	-11.477	9.31847	-40.593	3.16458	1.59071
0.6000	8.53576	-77.0789	-148.782	-1.0803	-8.8997	-4.76223	-11.4398	4.87681	-1.71792	1.59071
0.6007	9.14859	7.15132	-169.238	-0.158868	-6.74686	-2.01601	-19.37	42.4154	-4.774	1.59071
0.6013	-5.47164	59.3139	-115.223	1.04853	-1.86452	-2.92083	-16.6266	98.5629	-3.85175	1.59071
0.6020	-21.6677	113.03	-51.7472	-0.476603	-0.961091	-3.53992	-22.4243	132.739	-5.37075	1.27257
0.6027	-12.5191	144.774	13.8588	0.444829	3.92125	2.5716	-27.3001	133.355	-6.293	1.27257
0.6033	12.5191	109.373	56.2828	3.17735	10.9372	12.9374	-25.4786	88.1804	-4.774	1.27257
0.6040	28.4088	73.3577	29.4357	1.36626	10.3413	17.2234	-30.0546	-28.6962	-6.293	1.27257
0.6047	2.75771	51.7095	21.4869	-2.00173	9.41869	16.3027	-33.7086	-86.0757	-8.11941	1.59071
0.6053	-41.8034	61.4496	53.2362	-1.0803	13.3784	17.2234	-23.646	-54.9411	-3.23691	1.59071
0.6060	-53.4032	82.224	22.4032	-1.39803	13.3784	15.6836	-14.4831	-66.838	-0.48825	1.59071
0.6067	-39.0456	36.7597	-71.5848	-3.52686	9.72624	12.3342	-11.7397	-56.1603	-1.71792	1.27257
0.6073	-23.1998	-16.05	-133.228	-2.31947	10.9372	12.6358	-6.55291	32.9441	0.415916	1.27257
0.6080	1.53206	-33.1355	-129.861	-2.60543	11.5523	9.28634	-5.0313	74.4484	1.03075	1.27257
0.6087	28.7152	-38.0217	-131.693	-5.05199	9.11114	3.47643	-7.16378	33.5602	-1.71792	1.27257
0.6093	18.0345	-24.9164	-152.447	-0.794338	9.41869	2.5716	-5.0313	-27.477	-2.33275	1.59071
0.6100	-29.2842	-16.6648	-97.5157	3.81282	10.6489	1.95251	-4.42044	-74.782	-3.85175	1.59071
0.6107	-55.2417	-32.8443	7.76552	2.57366	10.0338	-0.476223	-5.94205	-126.053	-6.293	1.27257
0.6113	-45.7429	-100.28	84.6648	1.96996	12.1674	-0.793705	-3.49859	-133.676	-4.774	1.27257
0.6120	-44.5611	-121.346	136.549	2.89139	15.2237	-1.39692	-1.05513	22.8825	-2.9295	1.59071
0.6127	-54.6289	12.0375	135.015	3.49509	16.7422	-2.01601	-1.05513	232.842	-2.9295	1.59071
0.6133	-39.0456	128.594	71.539	5.02022	20.4136	-0.793705	0.166599	264.58	-1.71792	1.27257
0.6140	-14.9266	119.76	-1.39733	2.57366	23.7582	-1.09531	-1.36612	152.888	-1.71792	1.27257
0.6147	-10.6806	71.5456	-48.0821	-2.60543	24.3733	-4.14314	-6.24193	37.5258	-3.54433	1.59071
0.6153	-12.5191	29.4143	-65.7893	-2.92316	28.9481	-3.53992	-4.10945	-13.1289	-2.64017	1.59071
0.6160	-19.5228	-8.73691	-27.9467	0.444829	36.8867	-0.476223	3.20982	-5.19765	0.1085	1.59071
0.6167	-34.4932	-54.4924	51.7014	1.04853	42.3841	-0.476223	4.43155	-40.2979	-0.48825	1.59071
0.6173	-35.3687	-69.4422	39.1941	1.36626	45.1328	-0.476223	1.98809	-118.417	-2.33275	1.59071
0.6180	-28.365	-41.3871	-38.0029	1.96996	46.9589	-0.476223	-0.444265	-128.799	-4.15916	1.27257
0.6187	-23.1998	4.40081	-16.035	-0.794338	47.2665	-1.09531	-4.42044	-66.2348	-6.60041	0.954425
0.6193	-0.919236	90.7668	47.4407	-1.39803	46.6514	0.4286	-2.58785	6.6992	-5.98558	1.59071
0.6200	21.9741	116.686	49.2732	1.36626	48.785	5.92104	1.68821	40.5802	-2.02533	0.954425
0.6207	20.1356	13.5584	31.8638	0.762564	52.4564	12.6358	-0.144386	8.53442	-0.48825	0.318142
0.6213	8.53576	-63.3588	36.1475	-0.794338	54.59	15.382	-1.97698	-41.5171	-1.4105	1.27257
0.6220	14.3576	-65.4944	44.9896	-1.684	54.8975	10.5086	-0.444265	-48.5371	-2.02533	1.90885
0.6227	31.1227	-40.1574	-8.10912	-4.13056	53.6673	5.61943	-1.05513	-74.166	-2.64017	1.59071
0.6233	25.6511	29.4143	-81.3432	-3.8446	53.0522	4.69873	-1.05513	-134.587	-2.9295	1.27257
0.6240	10.0678	98.4035	-58.459	3.17735	54.2824	5.92104	4.13167	-77.2205	-1.4105	1.59071
0.6247	10.0678	105.102	30.0312	8.38821	53.3598	6.22264	3.20982	67.1331	-1.4105	1.59071
0.6253	7.04748	66.9506	101.753	6.54534	50.6111	5.01621	-5.64217	71.0988	-4.46658	0.954425
0.6260	-15.2331	29.7378	96.8743	4.70248	48.4774	5.31782	-7.77464	-68.9812	-5.67816	0.954425
0.6267	-21.3613	33.0708	21.1891	3.17735	46.3438	6.22264	-2.27686	-102.849	-4.46658	1.59071
0.6273	2.75771	71.5456	-27.3282	1.04853	42.98	5.92104	0.466479	25.3209	-3.54433	1.27257
0.6280	12.2127	84.3597	-10.858	0.762564	42.3841	6.84173	2.29907	89.1045	-1.4105	1.27257
0.6287	3.06412	63.9089	13.561	1.65222	43.2875	8.66725	5.04241	46.9842	0.723333	1.59071
0.6293	3.98336	42.552	-9.94169	-0.158868	40.5388	7.44495	2.90994	14.3353	-1.10308	1.59071
0.6300	11.9063	38.5718	-37.0866	-2.31947	36.8867	5.92104	-1.05513	14.0272	-3.23691	1.59071
0.6307	8.53576	37.6658	-1.07664	-0.794338	36.2716	6.54012	-1.666	-5.50566	-2.64017	1.59071
0.6313	-12.5191	15.0793	47.7385	-0.794338	34.7531	5.01621	-3.49859	-86.3709	-3.85175	1.59071
0.6320	-20.1356	-3.85071	53.534	-1.684	32.3119	3.79391	-6.85279	-136.114	-5.37075	0.954425
0.6327	-10.3742	1.35907	41.3245	2.89139	34.138	6.54012	-5.94205	-115.67	-2.64017	0.318142
0.6333	-12.8255	20.5803	21.1891	5.62391	34.4455	6.54012	-3.80958	-62.2692	-2.02533	1.59071
0.6340	-12.5191	31.8735	-2.31362	2.28769	30.4858	2.5716	-3.80958	20.1361	-5.08141	1.90885
0.6347	4.59618	17.8298	-10.858	-0.476603	27.7371	1.3493	-1.666	46.6762	-6.293	1.27257
0.6353	16.8089	-13.6231	-12.9883	-2.31947	26.5069	1.95251	1.98809	9.15044	-5.67816	1.27257
0.6360	12.5191	-36.1773	-14.8209	-2.60543	26.5069	3.79391	5.65328	13.1161	-3.54433	1.27257
0.6367	5.209	-32.5207	-15.1187	0.127094	29.5632	8.66725	13.8944	61.3323	2.26042	1.59071
0.6373	2.75771	-15.7588	-6.57435	-1.684	28.0254	8.06404	16.0269	114.733	3.472	1.59071
0.6380	8.27312	9.57824	3.18409	-4.73425	24.3733	4.39712	10.2292	130.917	0.1085	1.27257
0.6387	15.5832	53.5216	4.39817	-2.31947	24.0657	4.39712	7.78575	64.0787	0.1085	1.59071
0.6393	12.5191	77.9526	-15.1187	-1.39803	22.2397	3.47643	6.57513	-37.5514	-1.10308	1.59071
0.6400	8.53576	30.9351	-44.4169	-1.39803	21.0095	2.87321	5.96426	-104.377	-2.33275	1.59071
0.6407	13.7448	-43.5227	-40.1562	3.49509	24.3733	6.84173	12.0618	-91.5685	2.26042	1.27257
0.6413	16.5025	-78.9234	-35.277	1.96996	22.5472	6.54012	13.8944	-33.573	3.472	1.27257
0.6420	18.9538	-78.3086	-52.6635	-2.92316	18.2607	4.39712	11.1511	-5.81367	-0.48825	1.59071
0.6427	42.4162	-27.3433	-72.5011	0.127094	20.4136	8.98473	15.727	13.1161	0.723333	1.59071
0.6433	58.3058	50.1887	-75.2499	-0.476603	19.4909	9.58795	17.2486	11.2808	1.03075	1.59071
0.6440	36.9445	64.8149	-25.8163	-2.60543	16.1271	6.84173	11.7619	-25.0386	-2.9295	1.59071
0.6447	11.9063	28.7994	41.3245	3.17735	19.1834	9.88956	11.4509	-30.5314	-0.48825	1.59071
0.6453	-2.14488	14.1732	57.4969	4.70248	19.1834	9.58795	10.5402	14.3353	0.415916	1.27257
0.6460	-18.2972	22.3924	30.6497	1.65222	15.2237	5.31782	5.04241	63.7707	-3.23691	1.59071
0.6467	-26.2201	22.3924	8.38401	2.28769	15.2237	5.61943	5.65328	48.2034	-3.54433	1.59071
0.6473	-25.9137	7.76614	6.84923	1.04853	13.3784	5.01621	5.3534	-26.5658	-4.15916	1.59071
0.6480	-22.8934	-5.04799	33.3986	-1.684	10.9372	2.5716	0.466479	-86.3709	-5.67816	1.59071
0.6487	-7.31012	-5.9864	68.4923	2.57366	13.3784	5.31782	1.07734	-83.0213	-2.02533	0.954425
0.6493	3.37053	-8.41332	53.2362	5.02022	13.6859	6.54012	1.68821	-30.2234	-1.4105	0.318142
0.6500	0.612824	-24.3015	7.46772	1.04853	10.6489	4.39712	0.166599	21.9585	-4.15916	1.59071
0.6507	1.22565	-17.8945	-16.3557	-0.794338	10.3413	4.69873	3.82068	56.4427	-2.9295	1.90885
0.6513	7.04748	10.1931	-52.6635	-1.684	8.8036	4.09552	4.74253	71.702	-3.23691	1.59071
0.6520	19.2164	11.7139	-89.5898	-0.794338	8.8036	4.39712	3.82068	54.6203	-3.54433	1.59071
0.6527	32.6548	4.07722	-70.3707	5.62391	12.475	7.14334	8.39662	18.9169	0.723333	1.59071
0.6533	37.5574	3.17117	-39.5377	5.33795	10.0338	4.69873	6.26414	4.26079	-1.4105	1.59071
0.6540	34.4932	-14.2056	-11.4536	2.28769	6.05487	0.4286	-1.05513	-4.88964	-6.90783	1.90885
0.6547	28.7152	-41.3871	28.8172	5.62391	7.90017	2.26999	-1.05513	-37.5514	-5.67816	1.59071
0.6553	15.2768	-49.315	23.6402	5.02022	6.97752	0.4286	-2.58785	-20.4569	-6.60041	1.27257
0.6560	-6.69729	-34.6564	-0.778842	4.41652	6.05487	-1.39692	-1.666	52.169	-7.812	1.59071
0.6567	-15.5395	-23.3631	2.26781	8.38821	9.11114	2.87321	9.00748	57.9699	-2.02533	1.59071
0.6573	-14.6202	-6.89245	-7.81133	6.54534	8.8036	3.79391	14.1943	-12.5257	0.415916	1.90885
0.6580	-13.1319	7.15132	-22.1512	2.28769	6.36242	1.04769	12.6727	-82.7133	-1.4105	1.90885
0.6587	4.28977	-35.886	-10.2395	2.28769	6.36242	2.87321	16.0269	-121.779	0.1085	1.59071
0.6593	27.4895	-84.7156	2.5656	1.36626	5.76655	3.79391	19.6921	-103.157	1.64558	1.59071
0.6600	29.8971	-85.0069	22.4032	-0.476603	4.8439	2.5716	18.1705	-44.8667	1.33817	1.59071
0.6607	19.8292	-85.0069	20.2728	3.17735	8.20772	5.61943	20.6028	0.295175	3.77941	1.59071
0.6613	16.5025	-50.221	-46.868	4.41652	7.90017	5.61943	21.2137	118.699	2.85717	1.59071
0.6620	15.5832	34.624	-112.474	0.762564	4.53635	3.17482	15.416	233.15	-1.71792	1.27257
0.6627	9.76141	72.4516	-110.344	0.762564	4.8439	6.84173	14.8051	118.404	-0.795666	1.59071
0.6633	3.98336	73.0664	-55.7101	-0.794338	4.8439	9.28634	14.1943	-34.497	0.723333	1.59071
0.6640	-1.53206	69.0863	-0.48105	-2.31947	4.2288	9.88956	10.8401	-35.7162	-0.795666	1.59071
0.6647	-7.61653	35.8213	34.9334	1.65222	6.05487	12.6358	9.92933	-33.2778	1.64558	1.27257
0.6653	-3.32676	10.8079	37.98	1.04853	4.2288	9.58795	2.59895	-90.0413	1.03075	1.59071
0.6660	1.83847	12.0375	-9.3232	-2.92316	1.48008	4.39712	-5.64217	-137.038	-2.9295	1.59071
0.6667	-10.9871	8.3486	-29.1608	-0.158868	4.2288	7.14334	-1.666	-117.813	0.415916	1.90885
0.6673	-21.6677	5.92168	-9.94169	0.127094	3.6137	7.44495	-1.05513	-68.3652	1.33817	1.59071
0.6680	-11.2935	15.3705	-16.035	-2.00173	0.576655	4.39712	-7.16378	-64.3996	-2.9295	1.59071
0.6687	-3.63317	11.0991	-3.5277	2.57366	3.92125	7.44495	-6.85279	-75.0772	-0.198917	1.59071
0.6693	-16.4587	-11.4874	34.9334	2.57366	4.2288	7.76243	-9.29625	-56.4683	1.03075	1.59071
0.6700	-18.6036	-22.7483	34.6127	-1.684	0.269106	3.79391	-17.2375	-46.3939	-3.54433	1.59071
0.6707	-2.14488	-11.4874	25.7705	0.762564	1.17253	4.39712	-16.0158	-35.4082	-2.64017	1.59071
0.6713	-1.22565	-3.52712	34.9334	1.36626	1.48008	3.79391	-13.8722	4.87681	-3.85175	1.59071
0.6720	-9.14859	-9.35173	26.389	-2.00173	-1.26864	1.04769	-15.7048	28.6705	-7.21525	1.27257
0.6727	-3.93958	-9.02814	17.524	0.762564	1.17253	4.69873	-8.07452	14.0272	-1.71792	1.59071
0.6733	-0.919236	1.35907	17.524	2.57366	1.78763	5.61943	-0.755251	-8.56009	0.415916	1.59071
0.6740	-7.61653	13.5584	9.59809	0.127094	-1.86452	0.730208	-4.10945	-11.3065	-5.37075	1.59071
0.6747	-3.93958	29.4143	7.46772	3.17735	-0.345993	2.26999	-3.49859	-5.81367	-5.08141	1.27257
0.6753	5.51542	35.2065	9.89588	4.70248	0.269106	3.17482	-0.755251	-25.9498	-4.15916	1.27257
0.6760	7.04748	32.4883	4.39817	1.04853	-3.40226	-1.09531	0.766358	-60.434	-7.812	1.59071
0.6767	10.3742	44.6877	0.137443	4.70248	-0.961091	2.87321	14.1943	-74.166	-3.85175	1.59071
0.6773	12.2127	47.4382	-2.31362	7.46678	1.78763	7.76243	19.3922	-58.5987	0.415916	1.59071
0.6780	3.37053	24.8516	-5.97876	-0.476603	-3.09471	3.17482	-7.77464	-36.0242	-4.774	1.59071
0.6787	-0.919236	8.3486	-0.48105	-1.39803	-3.09471	2.5716	-29.1327	-17.4025	-3.85175	0.954425
0.6793	1.53206	-5.04799	2.26781	2.28769	0.864982	7.14334	-30.0546	14.6433	3.472	0.318142
0.6800	-0.306412	-29.7702	-7.49063	-3.20913	-1.86452	4.39712	-36.763	38.437	2.85717	1.27257
0.6807	4.59618	-36.7921	-9.02541	-3.20913	-1.57619	5.31782	-37.3738	41.4914	4.39425	1.59071
0.6813	17.1153	-25.2076	-7.19284	1.36626	1.48008	9.88956	-31.5762	37.5258	8.66191	1.27257
0.6820	14.664	-21.2274	-13.2861	-2.00173	-2.17207	5.31782	-35.2413	27.7593	4.08683	1.27257
0.6827	4.28977	-20.0302	-6.57435	-2.31947	-4.61324	1.04769	-38.2957	30.1977	-0.198917	1.27257
0.6833	1.53206	-18.4769	1.05373	1.65222	-3.09471	0.730208	-42.5606	19.2121	1.33817	1.59071
0.6840	-4.85882	-29.7702	-4.44398	0.127094	-5.22834	-2.61922	-53.5451	-18.3265	-0.795666	1.59071
0.6847	-8.84218	-26.7285	-0.16035	1.36626	-4.92079	-2.92083	-49.891	-30.8266	-1.4105	1.59071
0.6853	-0.919236	-0.485384	5.01666	5.33795	-1.86452	-1.09531	-34.6305	-29.3122	2.54975	1.59071
0.6860	4.28977	10.8079	-0.48105	4.09878	-3.40226	-4.44475	-29.7436	-38.1546	0.415916	1.59071
0.6867	4.90259	5.30686	-2.31362	2.57366	-5.22834	-6.58775	-19.059	-32.9698	-3.23691	1.59071
0.6873	3.37053	-3.52712	3.80258	3.81282	-4.30569	-4.76223	10.8401	-26.5658	-1.71792	1.59071
0.6880	-5.47164	-8.41332	12.3469	3.81282	-4.30569	-2.61922	44.1044	-18.6217	-1.10308	1.27257
0.6887	-8.53576	-2.62107	12.6447	5.02022	-3.70981	0.126993	69.4387	3.65761	0.415916	1.27257
0.6893	0.306412	4.69204	2.8863	6.86308	-3.09471	1.65091	76.1471	12.808	1.64558	1.27257
0.6900	3.37053	3.78599	-4.44398	4.70248	-4.92079	0.4286	64.2519	11.5888	-0.795666	1.27257
0.6907	-0.919236	-2.62107	-3.82549	2.57366	-5.22834	-1.69853	54.789	25.6289	-0.795666	1.27257
0.6913	-3.32676	-10.549	-2.61141	1.36626	-5.22834	-3.53992	55.6998	37.8338	1.03075	1.27257
0.6920	-1.83847	-13.6231	1.05373	1.36626	-4.61324	-1.69853	57.2325	38.437	2.54975	1.27257
0.6927	2.14488	-12.0699	9.59809	3.81282	-1.86452	3.79391	13.8944	37.8338	4.70166	1.59071
0.6933	5.51542	-10.8726	4.39817	3.17735	-1.57619	7.76243	-69.4165	35.0874	4.08683	1.27257
0.6940	9.76141	-9.02814	-11.4536	0.762564	-2.17207	8.66725	-117.641	26.2321	3.16458	1.27257
0.6947	10.3742	-7.50727	-13.6068	-0.794338	-2.17207	8.06404	-128.315	13.4241	4.08683	1.59071
0.6953	5.82183	-7.50727	-9.3232	-2.92316	-3.70981	6.54012	-118.552	12.192	2.54975	1.59071
0.6960	2.75771	-7.21604	-6.27655	-3.8446	-4.92079	7.14334	-87.7313	20.7393	1.64558	1.27257
0.6967	1.53206	-5.66281	-1.39733	-2.92316	-4.30569	7.44495	-58.432	18.3009	1.953	1.27257
0.6973	-2.71393	-5.04799	-0.16035	-2.92316	-5.22834	4.09552	-35.5412	7.31522	0.415916	1.27257
0.6980	-3.93958	-4.46553	-0.778842	-3.20913	-6.45853	1.04769	-17.2375	1.20637	-0.795666	1.27257
0.6987	2.75771	-2.32984	1.97001	-1.39803	-6.45853	0.730208	-7.16378	0.603185	-1.10308	1.59071
0.6993	4.90259	-2.9123	2.8863	-0.158868	-6.45853	-0.793705	5.3534	4.5688	-2.33275	1.59071
0.7000	-1.53206	-5.04799	2.5656	-0.158868	-7.97706	-3.22244	32.2092	8.53442	-3.23691	1.27257
0.7007	0	-2.9123	1.64931	1.96996	-10.4182	-3.22244	62.4193	7.62323	-1.4105	1.27257
0.7013	3.06412	-2.00625	-5.65806	1.04853	-12.8594	-3.84153	81.034	8.53442	-1.10308	1.59071
0.7020	1.22565	-2.9123	-9.02541	-0.794338	-14.0704	-5.06383	112.777	12.5	-2.64017	1.59071
0.7027	3.37053	-0.194153	-4.74178	1.36626	-12.5519	-4.44475	158.547	11.2808	-0.795666	1.59071
0.7033	3.98336	1.6503	-2.31362	1.36626	-11.6292	-4.14314	163.734	5.48	-0.198917	1.59071
0.7040	1.22565	1.03549	-0.48105	1.36626	-11.6292	-4.44475	133.524	2.73358	-0.198917	1.27257
0.7047	2.4513	1.35907	2.26781	2.57366	-11.3409	-4.14314	102.703	4.5688	1.03075	1.27257
0.7053	3.37053	0.420666	1.35152	1.36626	-12.5519	-5.98453	67.906	6.09601	-0.48825	1.59071
0.7060	3.06412	-1.1002	-0.48105	0.444829	-13.782	-6.88935	39.5285	7.00721	-2.33275	1.59071
0.7067	3.37053	-0.776614	-0.16035	1.36626	-13.782	-6.58775	30.0657	7.62323	-2.9295	1.59071
0.7073	3.06412	-0.776614	-1.07664	1.04853	-14.3779	-5.98453	28.8439	6.6992	-4.46658	1.90885
0.7080	3.37053	0.744255	-0.48105	1.36626	-12.5519	-3.53992	33.12	8.22641	-2.64017	1.59071
0.7087	4.59618	1.6503	1.97001	3.17735	-11.0333	-1.69853	37.396	9.15044	-0.198917	0.636283
0.7093	2.75771	-0.776614	-0.778842	1.36626	-12.5519	-4.14314	11.1511	6.09601	-1.4105	0.954425
0.7100	3.67694	0.744255	-0.16035	2.57366	-11.6292	-2.61922	-58.432	6.09601	-0.198917	1.90885
0.7107	5.209	2.55635	1.64931	5.33795	-10.7258	-0.174615	-135.645	7.31522	-0.48825	1.59071
0.7113	0	-1.1002	-2.61141	1.96996	-14.6855	-3.22244	-188.135	3.65761	-5.37075	1.59071
0.7120	0.306412	0.420666	-1.07664	2.57366	-13.4745	-2.01601	-218.645	5.17199	-3.85175	1.59071
0.7127	4.28977	5.01563	4.39817	6.22761	-10.1107	0.730208	-245.501	11.2808	1.64558	1.59071
0.7133	0.919236	1.35907	0.755935	1.65222	-13.1669	-2.92083	-262.294	9.75362	-1.4105	1.59071
0.7140	-1.22565	-1.39143	-1.99292	-1.39803	-15.3006	-5.36544	-242.147	6.6992	-4.46658	1.59071
0.7147	1.83847	2.55635	1.97001	2.57366	-13.1669	-4.76223	-196.376	9.75362	-2.02533	1.59071
0.7153	-0.306412	1.03549	-0.48105	0.444829	-14.993	-9.33396	-148.762	8.22641	-4.46658	1.59071
0.7160	-2.4513	-1.39143	-1.99292	-1.39803	-17.1266	-13.3025	-94.1398	7.31522	-5.98558	1.59071
0.7167	0.919236	2.26512	3.80258	2.28769	-14.993	-13.0009	-33.7086	14.0272	-1.71792	1.27257
0.7173	0.306412	1.6503	2.8863	1.65222	-15.6081	-17.5726	24.268	14.6433	-2.02533	1.59071
0.7180	-3.63317	-2.62107	-1.99292	-1.684	-18.9527	-20.9379	57.8433	9.75362	-5.08141	1.59071
0.7187	-4.246	-2.62107	-0.778842	-0.476603	-19.2603	-16.0487	69.4387	9.44561	-4.46658	1.59071
0.7193	-0.919236	1.35907	4.71887	4.41652	-16.5115	-8.41327	97.5162	14.0272	-1.71792	1.59071
0.7200	0.306412	2.26512	5.93295	5.94165	-16.5115	-6.58775	136.878	15.2465	-1.10308	1.59071
0.7207	-1.83847	-0.194153	2.8863	2.89139	-18.3568	-8.73075	181.127	12.808	-2.33275	1.59071
0.7213	-2.71393	-1.39143	1.35152	1.36626	-18.0493	-8.73075	194.866	11.2808	-2.33275	1.59071
0.7220	-1.53206	-0.194153	1.05373	1.96996	-17.1266	-6.58775	150.306	8.84243	-1.4105	1.59071
0.7227	-1.53206	0.420666	1.64931	1.96996	-15.9157	-4.44475	118.263	9.44561	-1.10308	1.90885
0.7233	-4.55241	-2.00625	1.05373	-0.794338	-16.8191	-4.14314	118.874	10.6648	-1.71792	1.90885
0.7240	-3.93958	-2.00625	1.35152	-1.684	-17.7417	-3.22244	107.579	10.0616	-0.48825	1.27257
0.7247	-3.32676	-1.39143	0.435235	-2.92316	-18.3568	-4.76223	82.8666	11.5888	0.723333	1.27257
0.7253	-8.53576	-5.37158	-1.99292	-5.65569	-20.798	-6.58775	62.7192	14.9384	0.1085	1.27257
0.7260	-8.22935	-4.14194	1.05373	-4.73425	-20.4905	-3.84153	67.6061	18.6089	1.953	1.90885
0.7267	-2.14488	-0.485384	5.93295	-1.684	-19.2603	-1.39692	95.6836	19.8281	3.16458	1.27257
0.7273	-2.14488	-2.32984	5.01666	-1.0803	-19.8754	-1.09531	106.057	16.4657	1.33817	0.636283
0.7280	-3.63317	-1.39143	5.31445	-0.794338	-18.0493	3.47643	78.5905	14.6433	3.16458	1.27257
0.7287	-1.83847	1.94153	7.46772	-0.476603	-15.6081	8.06404	48.6804	14.3353	6.52808	1.90885
0.7293	-4.85882	-1.1002	5.01666	-2.31947	-16.5115	4.09552	32.8201	12.808	4.991	1.59071
0.7300	-10.0678	-1.71502	4.71887	-1.0803	-17.4342	-1.39692	3.82068	14.3353	4.39425	1.59071
0.7307	-12.8255	1.94153	8.06331	2.28769	-17.4342	-1.09531	-37.9847	16.4657	5.60583	1.27257
0.7313	-15.8459	0.129436	3.48188	-0.158868	-19.2603	-2.61922	-59.9536	13.4241	1.64558	1.27257
0.7320	-15.8459	-1.71502	-0.778842	-1.0803	-21.1056	-3.84153	-52.0235	10.6648	-2.64017	1.59071
0.7327	-11.5999	1.03549	0.755935	1.96996	-21.1056	-1.39692	-11.1288	11.8969	-2.02533	1.27257
0.7333	-10.9871	1.35907	-1.39733	1.04853	-21.7014	-3.53992	42.2718	12.192	-2.33275	1.27257
0.7340	-12.5191	1.6503	-2.61141	-0.158868	-21.1056	-6.28614	60.5867	13.4241	-2.33275	1.27257
0.7347	-13.1319	2.87994	-0.778842	0.444829	-20.4905	-3.84153	17.2486	15.2465	-1.10308	1.27257
0.7353	-16.4587	-0.194153	-1.39733	-0.476603	-21.4131	0.4286	-67.8949	14.3353	-2.33275	1.27257
0.7360	-18.2972	-0.776614	0.435235	1.96996	-20.1829	0.4286	-120.385	15.5545	-2.9295	1.59071
0.7367	-14.0074	2.87994	6.55144	7.14904	-17.7417	-3.84153	-115.809	19.5201	-1.4105	1.27257
0.7373	-14.3138	-0.194153	5.31445	5.33795	-21.1056	-11.477	-107.568	18.6089	-4.774	1.27257
0.7380	-17.6844	-5.37158	0.755935	1.04853	-24.1426	-13.9057	-99.6265	15.5545	-9.96391	1.59071
0.7387	-4.55241	-0.776614	5.31445	5.62391	-18.9527	-2.31762	-69.4165	17.9929	-6.293	0.636283
0.7393	10.9871	1.35907	6.84923	8.38821	-17.4342	8.66725	-31.5762	19.5201	-3.85175	0.636283
0.7400	10.3742	-4.14194	1.35152	2.28769	-21.4131	7.14334	-4.72032	15.2465	-7.52266	1.59071
0.7407	9.76141	-2.32984	5.31445	2.28769	-18.9527	6.84173	16.6377	15.8625	-4.15916	1.59071
0.7413	11.5999	1.6503	11.11	4.41652	-16.2232	8.98473	43.8046	17.3897	-0.198917	1.27257
0.7420	11.9063	-1.39143	8.38401	-0.158868	-18.9527	5.01621	70.0495	9.44561	-4.15916	1.59071
0.7427	11.5999	-2.62107	6.55144	-1.0803	-18.6644	4.09552	85.9209	1.51438	-6.293	1.59071
0.7433	-5.77806	0.420666	9.59809	2.89139	-15.3006	5.92104	97.8161	1.51438	-4.774	1.27257
0.7440	-26.2201	2.87994	7.46772	3.81282	-14.3779	5.92104	123.45	4.87681	-4.15916	1.27257
0.7447	-31.7355	2.26512	-1.07664	0.444829	-15.9157	6.22264	152.139	7.62323	-4.774	1.59071
0.7453	-30.8163	4.07722	-8.10912	-0.476603	-15.9157	7.44495	144.819	11.8969	-4.774	1.59071
0.7460	-28.6714	9.90183	-12.9883	0.444829	-16.5115	5.92104	95.3727	12.808	-4.46658	1.59071
0.7467	-18.91	15.3705	-18.7838	-0.476603	-18.6644	2.5716	36.7852	10.0616	-3.85175	1.59071
0.7473	20.7485	16.3089	-23.0675	-1.0803	-19.5678	-0.793705	-11.4398	9.75362	-4.46658	1.27257
0.7480	101.335	11.7139	-21.8305	-0.794338	-19.5678	-1.69853	-39.5063	17.9929	-4.46658	1.27257
0.7487	187.393	7.15132	-14.8209	0.127094	-18.6644	2.87321	-45.6149	28.9785	-1.71792	1.27257
0.7493	248.413	4.69204	-9.62099	-0.158868	-17.7417	6.84173	-41.039	32.649	0.723333	1.27257
0.7500	349.747	0.744255	-4.74178	-2.00173	-16.8191	7.14334	-36.1521	33.5602	0.723333	1.59071
0.7507	421.141	-6.27763	5.01666	-2.31947	-15.6081	7.14334	-35.8522	39.053	-0.48825	1.59071
0.7513	307.944	-15.7588	18.1424	-0.794338	-14.3779	8.66725	-34.3195	47.9082	-2.33275	1.59071
0.7520	94.0247	-26.4372	29.4357	-0.476603	-13.4745	9.28634	-28.5218	57.0587	-4.15916	1.27257
0.7527	-128.474	-33.1355	33.6964	-1.39803	-14.0704	7.76243	-19.9808	65.2979	-4.15916	1.27257
0.7533	-224.294	-31.6147	31.2682	-0.476603	-14.0704	7.14334	-10.829	68.3524	-3.23691	1.27257
0.7540	-101.904	-23.6867	23.6402	1.04853	-14.3779	6.22264	-6.24193	55.2235	-2.33275	1.27257
0.7547	-29.5906	-13.2995	9.89588	-0.476603	-15.9157	3.17482	-8.07452	22.8825	-3.23691	1.27257
0.7553	-140.687	-0.776614	0.137443	-0.794338	-14.6855	3.47643	-7.46366	-8.85526	-2.64017	1.27257
0.7560	-193.477	11.0991	-1.99292	1.36626	-10.7258	6.54012	-1.666	-26.2578	1.33817	1.27257
0.7567	-114.423	13.8496	-4.44398	-0.158868	-10.4182	4.69873	-1.666	-35.7162	1.953	1.27257
0.7573	-116.568	11.4227	-5.97876	-2.92316	-11.3409	1.65091	-6.85279	-41.2091	-0.48825	1.27257
0.7580	-189.8	11.0991	-2.90921	-2.92316	-9.18803	2.5716	-7.46366	-37.5514	-0.198917	1.59071
0.7587	-196.235	10.4843	-0.778842	-2.31947	-7.66951	4.09552	-6.24193	-27.169	1.03075	1.90885
0.7593	-100.372	7.44255	0.435235	-4.13056	-7.66951	4.09552	-9.29625	-20.1489	0.1085	1.59071
0.7600	61.0635	1.35907	7.46772	-4.13056	-5.84343	5.31782	-11.7397	-8.25208	-0.198917	1.27257
0.7607	121.164	-4.46553	15.6914	-2.60543	-4.01736	6.54012	-10.829	10.0616	0.723333	1.59071
0.7613	88.5093	-7.50727	16.0121	-3.52686	-4.01736	4.69873	-11.7397	17.6849	-0.198917	1.59071
0.7620	94.0247	-3.85071	14.1795	-2.31947	-3.40226	4.09552	-10.829	12.192	-0.198917	1.27257
0.7627	127.249	3.49476	10.2166	-0.476603	-2.78716	3.79391	-8.99637	-2.45124	0.1085	1.27257
0.7633	199.606	9.57824	3.48188	-1.0803	-3.40226	1.65091	-8.99637	-18.3265	-0.48825	1.59071
0.7640	277.434	12.0375	3.18409	-0.476603	-2.47962	1.04769	-7.77464	-24.4226	0.415916	1.59071
0.7647	282.906	9.28701	3.80258	-1.684	-2.78716	0.126993	-8.68539	-23.5114	-0.795666	1.27257
0.7653	208.754	5.63045	0.755935	-2.92316	-4.61324	-2.31762	-11.1288	-20.1489	-3.54433	1.27257
0.7660	44.2547	6.82773	-1.39733	-1.0803	-3.09471	-1.69853	-10.2181	-17.4025	-3.54433	1.59071
0.7667	-149.529	12.0375	2.5656	2.57366	0.864982	1.65091	-5.0313	-17.0945	0.415916	1.27257
0.7673	-231.297	9.90183	3.48188	1.04853	-0.653542	-0.793705	-5.64217	-21.3681	-0.198917	1.59071
0.7680	-153.819	1.35907	-0.48105	-3.8446	-5.22834	-5.98453	-12.6505	-25.6418	-5.37075	0.954425
0.7687	-36.2879	1.03549	3.18409	-0.158868	-2.78716	-3.84153	-11.4398	-20.1489	-3.54433	0
0.7693	-95.513	2.26512	8.38401	3.81282	1.48008	-1.39692	-7.46366	-12.5257	0.1085	0.318142
0.7700	-289.297	-5.04799	10.8122	0.444829	1.48008	-4.14314	-8.68539	-9.16327	-2.33275	1.59071
0.7707	-322.258	-12.0699	18.4402	-0.158868	2.71028	-3.22244	-7.77464	-1.54005	-3.54433	1.59071
0.7713	-182.797	-13.0083	26.389	2.89139	6.36242	0.126993	-3.49859	7.31522	-1.71792	1.59071
0.7720	-145.239	-12.6847	22.1054	0.762564	5.76655	-2.01601	-5.0313	3.3496	-2.64017	1.59071
0.7727	-212.694	-11.4874	13.8588	-2.00173	3.6137	-4.14314	-7.46366	-5.81367	-4.46658	1.59071
0.7733	-170.89	-6.27763	12.6447	-0.158868	5.459	-2.31762	-5.33118	-7.94407	-2.33275	1.59071
0.7740	-46.6622	-2.62107	12.0262	0.127094	5.459	-2.61922	-4.10945	-10.0745	-2.02533	1.59071
0.7747	22.5869	-4.75676	8.9796	-3.8446	2.09518	-6.28614	-8.38551	-14.6561	-5.08141	1.27257
0.7753	13.7448	-3.23589	12.0262	-2.31947	3.92125	-5.06383	-6.85279	-13.1289	-3.23691	1.27257
0.7760	-17.0715	2.87994	14.7751	2.28769	8.8036	-1.69853	-0.144386	-10.6905	0.723333	1.27257
0.7767	-26.2201	3.49476	5.01666	0.127094	8.20772	-4.44475	-2.58785	-15.2721	-1.71792	1.27257
0.7773	-25.9137	2.87994	-5.06248	-3.52686	5.459	-8.11166	-6.55291	-20.4569	-4.15916	1.27257
0.7780	-28.0586	6.5365	-8.70471	-2.60543	3.6137	-7.50844	-4.72032	-23.5114	-2.9295	1.27257
0.7787	-6.69729	8.67219	-11.1558	-1.39803	2.40273	-6.88935	-3.19871	-21.9841	-2.9295	1.27257
0.7793	52.1776	6.21291	-11.7743	-2.31947	0.864982	-7.81005	-2.88772	-18.0185	-3.85175	1.27257
0.7800	70.2121	4.07722	-5.97876	-1.684	1.17253	-5.98453	-0.144386	-14.0529	-1.71792	1.59071
0.7807	-39.0456	0.129436	1.35152	-0.794338	1.17253	-5.36544	0.466479	-9.77929	-1.4105	1.27257
0.7813	-200.481	-8.73691	9.59809	-1.684	-0.345993	-7.19096	-1.666	-6.72487	-3.85175	1.27257
0.7820	-263.952	-17.5709	20.8913	-2.00173	-1.26864	-7.50844	-1.36612	-5.81367	-4.46658	1.27257
0.7827	-240.446	-20.3214	25.152	-2.31947	-1.26864	-7.50844	-0.755251	-11.6017	-5.08141	1.59071
0.7833	-229.459	-15.144	25.152	-0.476603	0.864982	-6.28614	1.37722	-18.3265	-3.85175	1.90885
0.7840	-227.051	-10.2578	25.4727	1.96996	2.09518	-4.76223	4.43155	-16.1833	-1.71792	1.90885
0.7847	-182.184	-11.4874	21.4869	0.127094	-0.345993	-6.28614	0.766358	-10.3825	-3.23691	1.27257
0.7853	-109.871	-10.8726	18.4402	-0.794338	-4.01736	-5.66705	-5.33118	-6.72487	-4.46658	0.954425
0.7860	-58.2621	-4.14194	16.9284	1.96996	-3.70981	-2.61922	-4.10945	-5.19765	-1.4105	1.27257
0.7867	-9.14859	-0.194153	13.561	3.17735	-4.30569	-2.01601	-1.36612	-7.03287	-0.198917	1.27257
0.7873	75.0709	-4.75676	9.89588	0.762564	-7.66951	-4.76223	-3.80958	-13.4369	-2.64017	1.27257
0.7880	145.896	-8.73691	8.38401	-2.00173	-10.1107	-6.58775	-5.0313	-22.2922	-4.774	1.27257
0.7887	159.597	-5.66281	9.30029	-0.794338	-10.1107	-5.36544	-0.144386	-25.6418	-3.54433	1.59071
0.7893	144.057	-1.1002	6.23074	0.444829	-9.18803	-4.76223	1.37722	-24.1145	-1.71792	1.59071
0.7900	122.083	2.26512	-3.22991	-2.00173	-10.1107	-6.28614	-1.36612	-24.1145	-2.64017	1.27257
0.7907	86.3644	8.05737	-8.70471	-2.31947	-11.9368	-5.66705	-0.444265	-23.5114	-2.9295	1.27257
0.7913	63.4711	12.62	-11.1558	-1.684	-14.0704	-4.76223	-3.19871	-28.6962	-2.33275	1.59071
0.7920	74.7645	13.8496	-14.5231	-2.92316	-14.3779	-6.28614	-15.4049	-37.8466	-3.23691	1.59071
0.7927	18.3409	11.0991	-13.6068	-4.13056	-11.6292	-6.88935	-25.1676	-38.4626	-3.85175	1.59071
0.7933	-143.401	6.82773	-2.61141	-1.39803	-7.05441	-4.14314	-22.4243	-28.6962	-0.795666	1.59071
0.7940	-244.736	-0.776614	5.63515	-0.794338	-4.92079	-3.84153	-18.4592	-15.8753	-0.198917	1.27257
0.7947	-213.919	-10.549	5.31445	-4.13056	-5.53589	-6.58775	-20.2807	-6.72487	-3.54433	1.27257
0.7953	-143.401	-13.9143	8.6818	-2.92316	-4.01736	-4.44475	-19.059	5.788	-2.33275	1.27257
0.7960	-84.2195	-11.4874	10.8122	-0.476603	-1.57619	-2.01601	-14.794	17.0817	0.415916	1.27257
0.7967	-31.1227	-7.50727	4.71887	-1.39803	-1.57619	-2.61922	-12.6505	15.8625	-0.198917	1.27257
0.7973	32.3484	-3.23589	-0.48105	-2.00173	-2.47962	-3.22244	-11.4398	8.22641	0.1085	1.27257
0.7980	54.0161	-0.776614	-0.48105	-1.0803	-0.653542	-2.61922	-10.518	1.82239	1.33817	1.59071
0.7987	-3.93958	-1.71502	-0.778842	-0.794338	5.15145	-3.22244	-11.7397	-6.72487	0.1085	1.59071
0.7993	-5.77806	-3.23589	-0.778842	-0.794338	10.3413	-3.84153	-9.29625	-12.5257	-0.198917	0.954425
0.8000	113.548	-2.32984	4.10038	1.04853	13.9935	-1.39692	4.43155	-9.16327	3.16458	1.59071
0.8007	221.886	-3.52712	7.46772	1.65222	14.6086	-1.39692	21.8245	-3.97845	3.16458	1.27257
0.8013	259.706	-10.2578	4.10038	-0.794338	11.8599	-5.36544	28.2331	-1.23204	-0.48825	-0.318142
0.8020	320.463	-10.8726	3.48188	1.04853	12.475	-4.76223	28.8439	0.603185	-0.48825	0.318142
0.8027	349.747	-4.46553	4.71887	4.09878	13.3784	-2.01601	25.8007	-2.75925	1.953	1.59071
0.8033	238.958	-2.62107	0.435235	2.28769	10.6489	-2.92083	12.3728	-9.77929	-0.795666	1.27257
0.8040	92.7991	-1.71502	-3.5277	0.762564	9.41869	-3.22244	-0.444265	-11.6017	-2.33275	1.59071
0.8047	-12.2127	-0.194153	-3.82549	0.762564	9.41869	-2.61922	-2.88772	-6.72487	-1.10308	1.90885
0.8053	-46.0493	-0.776614	-1.07664	1.36626	9.72624	-2.31762	0.466479	-0.0128337	-0.48825	1.27257
0.8060	-10.0678	-4.14194	1.64931	1.04853	9.11114	-2.61922	-0.755251	0.911194	-0.795666	1.27257
0.8067	1.83847	-4.75676	3.48188	0.762564	7.59262	-1.69853	-2.88772	-3.06726	0.723333	1.27257
0.8073	-23.8126	0.129436	5.01666	1.96996	6.66997	-0.174615	-0.444265	-8.25208	2.85717	1.27257
0.8080	-57.9556	1.6503	0.435235	-0.158868	3.92125	-2.61922	-8.68539	-18.0185	-0.198917	1.59071
0.8087	-76.603	0.420666	-5.36027	-2.31947	2.40273	-4.14314	-27.6111	-23.8194	-2.9295	1.59071
0.8093	-69.8619	1.35907	-4.74178	-0.158868	4.53635	-2.31762	-37.9847	-18.0185	-1.10308	1.59071
0.8100	-72.3132	1.6503	-2.90921	1.65222	6.05487	-0.793705	-35.2413	-10.3825	0.415916	1.59071
0.8107	-81.7682	-1.1002	-3.22991	0.762564	5.459	-1.39692	-29.7436	-6.41686	-0.48825	1.27257
0.8113	-66.8416	-1.39143	-0.778842	0.762564	6.05487	-0.174615	-21.5024	-6.10885	0.415916	1.27257
0.8120	7.96671	2.55635	-1.69513	0.762564	5.76655	-0.174615	-13.2613	-13.1289	1.953	1.59071
0.8127	73.8453	3.49476	-8.10912	-1.39803	3.92125	-2.31762	-11.1288	-20.1489	-0.795666	1.59071
0.8133	2.14488	0.420666	-7.81133	-1.0803	3.30615	-2.31762	-7.77464	-14.6561	-1.4105	1.27257
0.8140	-102.823	-3.85071	-3.82549	-0.794338	1.78763	-2.31762	-0.755251	-5.19765	-1.10308	1.59071
0.8147	-72.9261	-7.21604	-3.22991	-1.0803	-0.653542	-2.92083	5.3534	0.911194	-1.4105	1.27257
0.8153	55.8545	-8.41332	-2.61141	0.127094	0.864982	-2.01601	9.31847	10.6648	0.1085	1.59071
0.8160	175.487	-6.89245	-0.778842	1.36626	3.30615	-0.174615	10.8401	19.8281	2.85717	1.59071
0.8167	184.022	-7.50727	-1.39733	-0.158868	2.71028	-0.476223	7.48587	18.6089	2.85717	1.59071
0.8173	124.228	-11.1638	-0.778842	-1.39803	3.01783	-0.476223	5.96426	16.1705	0.415916	1.27257
0.8180	108.339	-13.6231	4.10038	-1.0803	4.53635	0.126993	8.7076	17.6849	0.415916	1.59071
0.8187	113.241	-13.2995	5.63515	-2.31947	4.2288	-1.09531	5.3534	14.6433	0.1085	1.59071
0.8193	81.5056	-9.64296	3.18409	-2.92316	3.6137	-1.39692	-1.36612	6.6992	-0.48825	1.27257
0.8200	47.3188	-2.62107	2.8863	-0.476603	4.53635	0.730208	-1.666	0.603185	1.953	1.27257
0.8207	73.5389	3.78599	4.39817	1.96996	5.459	2.87321	2.90994	-3.06726	4.70166	1.27257
0.8213	126.679	2.55635	0.137443	-1.0803	3.01783	0.4286	3.5208	-8.56009	2.26042	1.59071
0.8220	157.802	0.744255	-2.61141	-2.92316	4.2288	-1.09531	5.96426	-10.3825	0.415916	1.59071
0.8227	173.648	2.55635	0.755935	-0.794338	8.49605	1.65091	12.3728	-7.63606	2.26042	1.59071
0.8233	168.176	1.94153	0.435235	-1.0803	7.90017	2.5716	16.3379	-11.6017	2.54975	1.59071
0.8240	115.692	1.03549	-3.22991	-2.00173	6.97752	1.65091	27.3223	-21.9841	1.33817	1.27257
0.8247	32.0419	2.87994	-3.22991	-0.476603	7.90017	2.26999	46.248	-26.861	3.16458	1.27257
0.8253	-6.69729	1.94153	0.137443	0.127094	7.28507	2.5716	52.0457	-25.6418	5.29841	1.27257
0.8260	-30.8163	-3.23589	0.435235	-2.92316	4.53635	1.04769	40.4393	-25.0386	4.39425	1.27257
0.8267	-97.3515	-4.75676	2.8863	-2.92316	3.6137	2.5716	31.2874	-21.6761	5.29841	1.27257
0.8273	-111.665	-4.46553	5.63515	-1.0803	3.01783	3.79391	30.3766	-13.7449	7.14291	1.27257
0.8280	-52.1776	-7.7985	1.05373	-2.00173	-0.345993	0.730208	27.0224	-9.47128	4.991	1.59071
0.8287	-3.93958	-7.50727	-2.61141	-1.0803	-0.0384436	0.126993	15.1161	-6.41686	2.85717	1.27257
0.8293	20.1356	-2.32984	-0.48105	3.81282	3.92125	2.26999	-1.666	-1.23204	5.29841	0.954425
0.8300	32.6548	1.03549	-0.778842	5.62391	4.53635	2.26999	-11.7397	-0.616018	5.29841	1.27257
0.8307	27.1831	-1.1002	-5.36027	2.57366	-0.345993	-1.69853	-17.8484	-4.58164	0.1085	1.59071
0.8313	-3.63317	-2.62107	-6.27655	3.49509	-3.70981	-4.76223	-22.1133	-4.88964	-3.54433	0.318142
0.8320	-38.4328	-2.32984	-2.31362	7.75274	-3.70981	-4.44475	-22.7242	0.603185	-3.85175	0.318142
0.8327	-49.7263	-2.62107	-1.69513	7.14904	-5.22834	-4.76223	-20.8916	4.87681	-4.774	1.59071
0.8333	-23.1998	1.35907	-1.99292	5.94165	-6.45853	-2.92083	-16.3156	4.87681	-3.54433	1.59071
0.8340	64.3903	6.5365	0.137443	7.46678	-5.53589	-0.174615	-8.99637	6.09601	0.723333	1.27257
0.8347	178.857	4.40081	-2.31362	4.09878	-7.36196	-2.01601	-5.0313	2.42557	-0.48825	1.27257
0.8353	297.876	-0.776614	-3.5277	0.127094	-10.7258	-3.84153	-2.88772	-1.54005	-3.23691	1.27257
0.8360	385.773	-4.14194	5.01666	2.57366	-10.7258	-0.174615	4.13167	4.87681	-0.795666	1.27257
0.8367	345.151	-9.93419	12.6447	3.17735	-10.7258	0.730208	10.5402	8.53442	0.1085	1.59071
0.8373	235.893	-18.8005	13.561	-1.0803	-12.5519	-2.61922	14.8051	4.26079	-2.9295	0.636283
0.8380	146.815	-24.3015	18.1424	-0.158868	-9.49558	-2.61922	25.4897	6.09601	-2.9295	-0.954425
0.8387	109.564	-20.0302	20.2728	4.09878	-4.30569	1.04769	36.1743	4.87681	1.33817	0.318142
0.8393	173.648	-12.6847	8.38401	0.762564	-6.15098	0.730208	33.12	-11.3065	0.415916	1.59071
0.8400	98.8835	-8.73691	-0.48105	-1.684	-8.28461	-0.476223	25.4897	-22.2922	-1.71792	0.954425
0.8407	-321.032	-6.27763	1.05373	-0.794338	-4.61324	1.3493	23.0463	-22.2922	0.1085	1.27257
0.8413	-651.213	-7.50727	1.05373	-3.8446	-2.17207	0.730208	18.7813	-21.073	0.415916	1.27257
0.8420	-517.574	-9.35173	0.755935	-5.65569	-1.86452	-0.174615	15.727	-21.3681	-0.48825	1.59071
0.8427	-230.072	-5.04799	6.23074	-2.31947	-0.0384436	2.5716	15.1161	-25.6418	1.03075	1.59071
0.8433	-111.359	-1.71502	8.6818	-1.0803	1.17253	4.09552	8.39662	-31.1346	1.33817	1.27257
0.8440	-96.1258	-5.04799	5.01666	-5.05199	-0.653542	0.4286	-0.144386	-32.0586	-2.9295	1.27257
0.8447	-77.5222	-5.9864	3.80258	-6.25938	0.269106	-0.174615	-1.666	-25.6418	-4.46658	1.27257
0.8453	-51.5648	-0.194153	2.26781	-4.44829	4.2288	2.26999	0.766358	-20.4569	-2.02533	1.27257
0.8460	-5.16523	3.78599	-6.89505	-5.97342	3.92125	1.3493	0.166599	-22.5873	-2.02533	1.27257
0.8467	64.6967	5.30686	-13.2861	-6.25938	3.6137	0.730208	-0.144386	-18.3265	-2.64017	1.59071
0.8473	125.454	10.4843	-10.5373	-2.60543	6.66997	4.09552	2.90994	-7.63606	-0.198917	1.59071
0.8480	148.916	12.3287	-13.6068	-2.92316	4.8439	3.17482	1.07734	-8.56009	-0.795666	1.59071
0.8487	146.509	9.28701	-19.4023	-5.97342	0.269106	-0.174615	-3.49859	-14.6561	-4.15916	1.59071
0.8493	148.916	9.28701	-14.2024	-4.73425	0.576655	1.3493	-1.666	-10.9985	-3.85175	1.27257
0.8500	166.644	8.96342	-6.89505	-3.52686	3.6137	2.5716	0.766358	-6.10885	-2.02533	1.59071
0.8507	173.954	2.26512	-3.5277	-6.57712	4.2288	1.04769	-1.05513	-3.67044	-2.64017	1.59071
0.8513	129.7	-5.66281	5.01666	-7.78451	6.05487	1.3493	-1.05513	3.95278	-2.02533	1.27257
0.8520	34.4932	-10.8726	19.0587	-5.05199	10.0338	3.79391	3.20982	14.3353	1.33817	1.27257
0.8527	-63.1646	-18.4769	28.5194	-4.73425	9.41869	3.79391	3.5208	17.3897	1.33817	1.27257
0.8533	-105.887	-22.4571	29.7335	-5.97342	6.36242	3.17482	0.766358	15.2465	-1.10308	1.27257
0.8540	-98.5771	-17.2797	23.938	-5.65569	4.8439	3.79391	-0.144386	11.2808	-1.4105	1.59071
0.8547	-72.9261	-12.3935	14.7751	-7.49855	2.40273	2.5716	-2.58785	2.73358	-1.4105	1.27257
0.8553	-14.9266	-8.12209	5.63515	-9.62738	-0.345993	1.04769	-5.0313	-7.63606	-1.10308	1.27257
0.8560	26.5703	1.35907	1.05373	-6.25938	-0.961091	2.26999	-2.27686	-10.3825	1.953	1.27257
0.8567	-17.3779	8.05737	-1.39733	-3.52686	-4.01736	2.5716	0.466479	-9.77929	4.08683	1.27257
0.8573	-56.73	4.40081	-6.57435	-8.41998	-10.1107	-1.39692	-4.72032	-15.8753	1.33817	1.59071
0.8580	-0.919236	-0.485384	-7.19284	-11.1525	-11.9368	-3.22244	-9.29625	-20.1489	-0.48825	1.59071
0.8587	63.4711	-1.39143	-3.5277	-9.02368	-9.80313	-2.31762	-9.60724	-19.8409	-0.198917	-0.318142
0.8593	87.8965	-0.194153	-3.22991	-8.70594	-7.97706	-2.01601	-9.60724	-22.8953	1.64558	-0.318142
0.8600	70.2121	2.26512	-1.69513	-9.02368	-4.92079	0.730208	-6.85279	-25.9498	6.8355	1.59071
0.8607	-73.8453	3.49476	1.97001	-7.78451	-2.47962	3.17482	-2.88772	-23.2034	10.7957	1.59071
0.8613	-242.591	-0.194153	1.05373	-7.78451	-3.70981	1.65091	-4.42044	-17.0945	8.96933	1.27257
0.8620	-214.839	-5.04799	-2.31362	-9.02368	-5.53589	-1.39692	-7.77464	-13.7449	6.22066	1.27257
0.8627	-75.0709	-4.14194	-0.16035	-8.41998	-2.47962	0.4286	-4.10945	-10.6905	8.96933	1.27257
0.8633	-42.1098	-0.776614	1.35152	-8.41998	0.864982	2.87321	0.766358	-5.81367	12.0254	1.27257
0.8640	-90.304	-2.62107	-4.74178	-8.41998	0.576655	1.3493	-1.05513	-0.320843	9.58416	1.27257
0.8647	-90.6104	-1.1002	-9.02541	-4.13056	1.78763	1.04769	-1.666	6.09601	7.73966	1.59071
0.8653	-68.9427	2.87994	-8.40692	1.36626	3.6137	1.95251	0.166599	7.62323	6.8355	1.59071
