MR32 ASCII
Name	CORE15_slow
Frequency	1500
Date	16-09-2015 11:33:47
"Time,s"	"RT TIB.ANT.,uV"	"RT MED. GASTRO,uV"	"RT LAT. GASTRO,uV"	"RT BICEPS FEM.,uV"	"RT VMO,uV"	"RT VLO,uV"	"RT RECTUS FEM.,uV"	"RT SOLEUS,uV"	"RT SEMITEND.,uV"	"Channel 12,uV"
0.0000	5.91373	-3.11346	6.49062	5.73226	116.792	84.1794	39.0777	-4.27488	14.7202	-6301.04
0.0007	-1.40572	-6.793	8.59407	5.43483	69.195	91.1999	29.6181	-11.8992	18.0829	-10476.8
0.0013	4.99274	-1.9041	12.861	5.43483	17.9304	95.7693	15.8843	16.174	20.5191	-9791.6
0.0020	10.5187	10.6012	15.9261	-1.5953	-12.2864	75.3289	13.4464	20.7574	15.9212	-9658.27
0.0027	10.1794	14.5895	11.9596	-11.9512	-23.2688	61.8979	10.3935	-0.572923	7.37727	-9911.5
0.0033	11.1004	13.6632	6.49062	-14.4118	-30.2983	59.1585	11.6147	9.78376	4.63224	-9792.56
0.0040	15.9961	20.6878	4.02659	-6.78678	-30.6039	46.9475	14.3623	40.2809	8.61253	-9807.9
0.0047	17.4988	27.4036	-0.240393	-1.5953	-18.7047	20.6955	10.0882	48.8306	10.1223	-9816.54
0.0053	15.9961	32.5755	0.36059	-3.10948	-0.692765	-9.51593	5.81407	47.6407	8.30371	-9817.18
0.0060	19.05	38.6738	5.82954	-4.94813	16.0966	-35.4463	5.20348	46.4067	5.24987	-9793.52
0.0067	18.7591	25.8597	13.462	-0.973403	22.1889	-56.2083	7.34054	29.6157	2.50484	-9834.12
0.0073	11.7305	1.1579	27.525	12.1405	7.53892	-77.2587	6.42466	10.4008	2.81366	-9886.24
0.0080	10.8095	-13.7918	34.2561	28.3098	-10.4526	-94.6602	-11.884	4.27488	6.17632	-9532.61
0.0087	16.9171	-22.0515	25.061	31.9871	-8.31318	-107.47	-34.7722	6.74286	10.4311	-10255.2
0.0093	16.287	-21.1252	11.6591	26.1737	-10.7582	-118.761	-39.0463	22.6084	11.9752	-9604.55
0.0100	11.3912	-9.82927	5.52905	19.1706	-49.5123	-102.901	-32.6351	52.797	9.81348	-3509.74
0.0107	11.7305	-0.97778	8.59407	10.6263	-92.2397	-45.8273	-28.6708	76.0224	5.8675	109.03
0.0113	12.3122	3.60235	9.19505	3.59618	-96.8241	4.8356	-25.6178	67.7812	1.26958	-23.6605
0.0120	12.0213	1.46667	-0.540885	1.75753	-75.4707	5.74505	-19.2111	32.9651	-2.05877	-156.671
0.0127	10.1794	-4.34855	-24.9408	2.67686	-52.263	-23.8564	-4.56146	-10.0482	-1.16664	96.88
0.0133	5.62289	-3.42223	-46.0353	3.29875	-30.9096	-52.2378	11.0041	-49.0951	-1.16664	-22.3815
0.0140	2.85992	-8.31113	-22.2364	2.37943	-15.3427	-72.0682	16.4949	-65.5776	-4.22048	-7.03419
0.0147	4.7019	-14.4094	40.927	4.21808	-17.4821	-87.6398	22.2955	-51.2545	-4.8038	0.959208
0.0153	8.04655	-7.10177	79.0894	7.27348	-35.168	-98.0097	29.9234	-21.9473	-1.16664	0
0.0160	9.88853	1.1579	83.9574	5.1374	-42.5032	-96.7897	23.822	-10.3567	1.88721	0
0.0167	11.7305	3.29358	81.854	-0.378546	-22.0462	-81.2293	16.1896	-31.7311	5.24987	-0.319736
0.0173	14.445	5.73803	61.4205	-1.5953	9.37271	-47.0473	15.8843	-52.797	11.3576	-0.319736
0.0180	18.7591	9.70061	30.8906	0.865247	37.1444	-2.18489	5.20348	-42.7048	16.23	0
0.0187	25.4484	14.2807	-5.76944	1.16268	64.3049	29.2465	-13.4105	-21.3304	15.3379	-0.319736
0.0193	31.556	8.46552	-64.9663	0.865247	68.8894	44.807	-20.1225	-6.39029	11.0487	-0.319736
0.0200	31.8469	-16.5451	-76.8658	1.4601	47.2099	56.0974	-16.1582	-7.31578	6.17632	0
0.0207	30.9259	-44.3089	-25.3014	-0.675974	46.9247	57.9274	1.23914	-14.9401	1.26958	-0.319736
0.0213	29.1324	-55.6048	0.661082	-8.30096	54.8507	80.2089	36.0293	11.6347	-5.42143	-0.639472
0.0220	27.5812	-58.9756	24.46	-18.062	20.6607	133.611	65.3241	71.4391	-13.6565	-0.319736
0.0227	33.398	-57.4317	75.7239	-15.3311	-55.3194	149.793	68.0717	136.444	-14.583	0
0.0233	41.0083	-32.7299	111.122	-3.40691	-142.913	127.822	43.6571	194.397	-5.11262	0.319736
0.0240	38.8755	12.4538	119.355	2.67686	-183.501	109.81	14.057	255.127	3.12247	0
0.0247	27.2904	50.5873	92.852	7.57091	-153.896	92.4199	1.23914	288.4	5.8675	0.319736
0.0253	19.9709	73.771	32.393	13.3573	-102.02	76.2384	3.06642	257.286	7.37727	0
0.0260	18.4198	85.9932	-32.8738	12.7624	-52.8743	70.449	-5.78264	244.462	7.37727	-0.319736
0.0267	10.1794	85.0669	-53.9683	7.57091	-2.52656	67.6984	-23.1755	247.194	3.7401	0
0.0273	2.27824	82.0306	-43.5713	3.89361	35.9219	59.458	-22.2596	178.532	0.96076	0.319736
0.0280	7.75571	73.1791	-83.8372	-0.0540779	63.388	56.7074	-4.56146	70.5136	-1.16664	0.319736
0.0287	13.8633	31.6749	-147.662	-5.86746	86.9013	51.2175	22.6008	-48.5221	-4.5293	0
0.0293	11.7305	-31.8036	-141.832	-9.81515	104.282	40.2375	44.8783	-137.017	-4.5293	0
0.0300	11.3912	-63.5557	-85.3998	-5.86746	121.988	50.918	41.5201	-139.132	-0.24019	0
0.0307	13.524	-43.0995	-22.5369	8.49024	145.481	74.4084	19.8531	-89.9929	9.23016	0
0.0313	8.96754	-14.4094	3.12511	21.9016	162.27	70.449	-5.78264	-52.4885	19.2838	0.319736
0.0320	-2.61755	-8.00236	-28.9073	26.1737	160.742	37.487	-24.7019	-54.9124	25.3915	0.319736
0.0327	-12.7	-9.82927	-64.9663	25.5789	144.869	8.18503	-24.7019	-56.4549	26.6268	0
0.0333	-18.8076	-19.6071	-100.064	19.7655	118.626	-3.71543	-13.7158	-46.6712	20.8279	0
0.0340	-23.7034	-36.0749	-122.3	12.1405	84.4562	-11.3459	-4.86676	-126.307	12.8673	0
0.0347	-24.2851	-45.8527	-75.6037	9.70699	47.2099	-32.3963	3.37171	-249.001	8.92135	0
0.0353	-21.2313	-50.7417	10.1566	9.40956	17.6248	-48.5778	16.4949	-273.725	9.23016	0.319736
0.0360	-20.0194	-40.6551	40.326	7.86834	1.44666	-37.8974	30.8392	-231.284	8.92135	0.319736
0.0367	-14.542	-18.6807	26.6236	6.02969	-15.3427	-16.2259	35.4187	-182.762	8.92135	0
0.0373	-7.80418	-6.793	37.9221	4.81294	-25.7138	-3.40489	23.822	-155.923	10.1223	0
0.0380	-5.08968	2.36726	57.1535	3.89361	-14.7315	0.554542	6.72995	-145.258	9.23016	0.319736
0.0387	0.727098	11.5275	51.925	6.35416	-3.13782	-0.354907	-0.897925	-117.802	9.23016	0.319736
0.0393	4.7019	8.77429	38.8235	9.70699	-3.44345	-7.3754	-7.9197	-100.702	10.7399	0
0.0400	-0.775571	-4.03978	49.521	10.0044	-5.88851	-16.2259	-17.9899	-101.319	10.4311	0.319736
0.0407	-8.43433	-9.82927	87.3229	9.70699	-7.39629	-20.8064	-21.0384	-68.9711	10.1223	0.319736
0.0413	-10.5672	-4.96609	124.884	10.6263	-11.0639	-20.8064	-20.4278	-21.0219	10.7399	0.319736
0.0420	-12.9908	-3.42223	145.919	9.40956	-16.5652	-18.9764	-22.5649	-9.12269	9.23016	0.639472
0.0427	-11.779	-4.34855	152.349	8.78767	-19.0103	-15.0059	-20.7331	-3.34939	7.9949	0.319736
0.0433	-7.2225	-7.69359	163.347	7.86834	-20.5385	-13.1759	-15.8529	2.46797	7.06845	0.319736
0.0440	-5.38052	-13.5088	147.782	5.1374	-22.3519	-16.8359	-14.0211	-11.2822	4.32342	0.319736
0.0447	-0.775571	-2.52164	5.52905	3.89361	-23.5744	-22.9358	-11.884	-22.8728	2.81366	0
0.0453	7.12556	28.6129	-146.76	4.51551	-23.2688	-26.5958	-7.30911	-25.9137	3.12247	0
0.0460	14.1542	60.0563	-136.664	4.51551	-23.2688	-25.9858	-4.25617	-16.174	2.50484	0.319736
0.0467	12.0213	71.944	-97.2992	2.67686	-25.7138	-25.6864	-7.00382	6.12587	0.0686257	0.319736
0.0473	-0.775571	50.2785	-128.731	2.082	-26.9363	-21.7158	-7.30911	36.0501	-0.857822	0
0.0480	-12.9908	20.0702	-163.528	3.29875	-26.3251	-16.8359	-4.56146	71.4391	0.0686257	0
0.0487	-19.3893	22.2059	-165.331	1.75753	-27.5476	-15.9153	-4.86676	92.8135	-0.549006	0.319736
0.0493	-19.7286	29.848	-126.868	0.540779	-28.7701	-15.3053	-5.78264	104.713	-1.16664	0.319736
0.0500	-9.937	18.2433	-91.4697	2.082	-27.5476	-11.6454	-3.64558	114.144	-0.549006	0.639472
0.0507	-0.484732	1.74971	-119.295	2.082	-27.5476	-11.3459	-3.64558	83.3382	-0.857822	0
0.0513	1.93893	-19.9158	-134.861	0.865247	-29.0758	-12.5659	-7.00382	30.5412	-2.05877	-0.319736
0.0520	6.20457	-23.5697	-52.7664	1.75753	-28.1589	-9.20539	-6.08793	5.50887	-1.47545	0.319736
0.0527	3.49007	6.02107	57.454	1.75753	-27.5476	-8.29594	-3.95087	-6.69879	-1.16664	0.319736
0.0533	-13.9118	28.6129	133.418	-1.5953	-29.3814	-11.9559	-6.69852	-15.2486	-4.22048	-0.639472
0.0540	-21.2313	15.7989	177.05	-2.81205	-28.1589	-11.9559	-7.00382	-7.62428	-6.03907	-0.639472
0.0547	-10.2763	-13.2	220.982	-1.89273	-24.7969	-9.20539	-3.64558	12.2077	-4.8038	0
0.0553	-1.69656	-28.7673	301.273	-4.02881	-25.4082	-12.8654	-3.64558	12.8247	-5.42143	0.319736
0.0560	1.01794	-18.372	363.535	-7.08421	-27.8532	-21.1059	-5.78264	-39.0469	-7.85765	0
0.0567	3.49007	8.15675	315.637	-6.46231	-27.242	-25.6864	-5.17205	-27.7647	-8.47528	0
0.0573	12.9423	15.4901	135.582	-5.24556	-26.0195	-25.6864	-5.17205	96.4714	-6.96551	0.319736
0.0580	25.1576	-15.3357	-53.9683	-5.86746	-26.9363	-26.9064	-11.2735	167.249	-7.85765	0.319736
0.0587	30.9259	-45.544	-86.6017	-6.46231	-25.1026	-18.9764	-10.9682	148.034	-8.78409	0.319736
0.0593	33.0587	-35.4831	0.0600984	-5.24556	-22.6575	5.74505	-2.72969	85.7621	-6.34788	0.319736
0.0600	27.5812	-3.731	37.9221	-4.02881	-26.6307	20.6955	-2.1191	-18.9065	-5.42143	-0.319736
0.0607	17.4988	10.91	-44.8334	-3.73138	-32.1321	13.3755	-3.95087	-85.718	-6.96551	-0.319736
0.0613	18.129	0.540352	-132.397	-2.51462	-30.9096	4.8356	-0.287336	-68.0456	-5.73025	0
0.0620	25.7393	-9.82927	-94.2342	-2.51462	-26.9363	3.30507	0.933842	-36.8874	-4.22048	0.319736
0.0627	27.2904	-0.385966	-30.4699	-3.73138	-27.242	-4.32542	-4.56146	-34.772	-5.11262	0.319736
0.0633	28.7931	18.2433	-84.4983	-0.378546	-29.3814	-15.0059	-4.56146	-16.747	-3.29404	0.319736
0.0640	24.8183	20.379	-188.529	3.59618	-29.9927	-22.9358	0.0179585	18.9505	0.0686257	0
0.0647	4.99274	4.81171	-245.322	1.75753	-30.9096	-33.9269	-1.81381	40.2809	-0.24019	0
0.0653	-13.3301	-2.83042	-245.021	-1.5953	-29.3814	-43.0768	0.0179585	54.648	-2.6764	0
0.0660	-22.4431	3.88539	-195.26	-2.51462	-26.6307	-42.1673	15.2737	73.863	-3.60285	0
0.0667	-24.9152	5.42925	-147.662	-2.51462	-23.2688	-38.1968	28.0916	62.8893	-3.60285	0
0.0673	-19.3893	3.29358	-106.735	-4.6507	-17.7878	-37.2874	26.5651	-54.2954	-3.91167	0
0.0680	-9.01601	-2.83042	-38.4029	-5.86746	-12.2864	-27.8269	19.2425	-182.189	-3.91167	0
0.0687	-3.82938	-23.5697	21.395	-6.46231	-9.23008	-4.93542	9.4776	-162.049	-3.29404	0.319736
0.0693	-2.61755	-29.9767	62.322	-8.92286	-8.00755	7.57504	1.54443	-44.5558	-5.42143	0.639472
0.0700	0.727098	-2.21287	131.615	-8.59839	-8.61882	7.57504	-0.897925	45.7897	-6.03907	0.319736
0.0707	-4.16869	28.9217	199.346	-8.30096	-8.92445	14.2961	-1.81381	71.7476	-3.29404	0
0.0713	-10.5672	25.2679	199.947	-11.0589	-7.39629	21.9266	-2.72969	86.3791	-1.16664	0.319736
0.0720	2.85992	9.08306	168.215	-9.81515	-5.27724	19.4755	-2.4244	131.552	0.0686257	0.319736
0.0727	15.7053	12.7369	145.919	-4.6507	-5.27724	11.8561	-2.72969	146.8	0.96076	0.319736
0.0733	18.4198	16.7252	73.921	-3.40691	-7.70192	6.05559	-2.4244	122.385	0.0686257	0.319736
0.0740	26.0786	14.8726	-78.3683	-1.89273	-8.92445	6.66559	1.54443	178.223	0.0686257	0.319736
0.0747	29.4232	6.94739	-212.328	-1.27083	-9.23008	7.57504	4.28759	241.729	-0.549006	0.319736
0.0753	29.7141	-9.52049	-264.853	-1.89273	-9.84134	5.4456	4.89818	131.86	-1.16664	0
0.0760	30.9259	-20.8164	-280.419	6.65159	-8.92445	3.00562	5.81407	-1.49841	4.32342	0.319736
0.0767	15.366	-30.903	-223.025	10.6263	-8.92445	0.554542	3.9823	6.74286	11.6664	0.319736
0.0773	-3.2477	-39.4457	-82.9357	3.59618	-9.84134	-1.5749	1.23914	47.3322	15.3379	0.319736
0.0780	-0.484732	-24.1872	16.2266	0.243351	-8.61882	-0.354907	2.46032	83.0297	18.6662	0.319736
0.0787	1.93893	-2.52164	77.587	0.540779	-7.11103	0.865085	4.59289	100.746	20.2103	0.319736
0.0793	-3.82938	-15.0269	135.221	-0.378546	-8.00755	-2.18489	2.46032	56.7634	17.7741	0.319736
0.0800	-5.67136	-30.5942	107.756	-0.973403	-9.53571	-4.62488	-2.1191	26.5748	16.5388	0.639472
0.0807	-10.2763	-14.7182	26.0226	-2.81205	-9.53571	-1.5749	-2.4244	55.882	2.50484	0
0.0813	-15.7538	-11.3731	4.32708	-3.73138	-8.31318	2.69507	1.54443	95.5459	-29.5434	-0.639472
0.0820	-15.1236	-37.9019	10.4571	-3.73138	-8.00755	3.00562	1.23914	43.0573	-41.7588	0
0.0827	-12.7	-61.1113	-49.7013	-2.81205	-8.61882	-0.0554542	-0.897925	-147.065	-27.416	0.319736
0.0833	-19.3893	-76.3698	-139.428	-0.973403	-9.53571	-3.10543	-0.592631	-333.838	-14.583	0.319736
0.0840	-31.6045	-99.2447	-147.061	-0.973403	-9.84134	-4.01488	-1.20322	-397.3	-10.0194	0.319736
0.0847	-31.6045	-98.3441	-78.9692	-2.19016	-9.84134	-3.71543	-2.1191	-355.829	-9.09291	0.319736
0.0853	-19.3893	-20.5077	-21.9359	-2.19016	-9.23008	-3.71543	0.0179585	-241.994	-8.78409	0
0.0860	-9.35532	65.2282	-2.40393	-1.27083	-8.31318	-4.01488	3.37171	-133.05	-8.16646	0.319736
0.0867	-2.03587	92.709	-17.0078	-1.89273	-8.61882	-5.54542	4.89818	-85.718	-8.16646	0.319736
0.0873	9.88853	132.078	-24.0393	0.540779	-8.31318	-6.15541	5.81407	-70.778	-7.85765	0
0.0880	21.1828	200.728	-30.1694	6.65159	-7.11103	-5.54542	7.03525	-59.8043	-6.6567	0.319736
0.0887	24.2366	192.185	-75.0028	13.6817	-7.39629	-6.45486	5.20348	-59.4958	-6.03907	0.639472
0.0893	15.7053	69.2166	-61.6008	18.8732	-6.49977	-6.45486	3.9823	-122.033	-5.42143	0.319736
0.0900	-4.75037	-52.2598	37.9221	20.09	-5.27724	-4.93542	4.59289	-188.271	-2.6764	0.319736
0.0907	-32.8163	-102.615	97.7199	19.4681	-6.49977	-5.84487	3.06642	-156.849	-0.24019	0.639472
0.0913	-46.2434	-100.48	122.721	20.3874	-6.19414	-5.54542	2.46032	-113.218	1.26958	0.319736
0.0920	-35.2885	-71.1721	174.285	23.1454	-4.36035	-1.88544	5.50877	-124.501	2.19602	0
0.0927	-20.9404	-45.544	207.279	23.1454	-5.58287	-1.88544	5.20348	-146.139	1.57839	0
0.0933	-14.542	-37.31	188.048	20.09	-7.39629	-4.01488	1.54443	-145.566	-0.24019	0.319736
0.0940	-5.9622	-10.7556	142.854	21.9016	-5.58287	-4.01488	2.46032	-106.784	-0.857822	0
0.0947	1.64809	2.36726	67.791	17.0345	-4.66598	-4.01488	4.28759	-62.5367	-1.78427	0.319736
0.0953	-0.484732	-54.3955	-51.5043	-4.6507	-5.88851	-5.84487	1.54443	-51.8715	-4.22048	0.319736
0.0960	-0.484732	-59.8762	-102.768	-38.5035	-5.88851	-6.45486	-0.897925	-44.2473	-4.5293	0.319736
0.0967	4.41106	-13.7918	-36.2393	-84.2805	-4.66598	-5.54542	0.628548	8.85827	-3.91167	0
0.0973	5.62289	-2.83042	35.1575	-94.6634	-5.27724	-5.84487	1.54443	95.2374	-5.42143	0
0.0980	8.33739	35.3287	65.6875	-41.5589	-5.88851	-6.45486	0.933842	181.308	-6.34788	0.319736
0.0987	17.8381	-2.21287	76.6855	12.7624	-4.05471	-4.01488	3.37171	254.554	-5.73025	0.319736
0.0993	16.9171	-91.3195	73.6205	15.8178	-4.36035	-4.62488	4.28759	292.367	-6.03907	0
0.1000	9.88853	-43.7171	56.4925	-5.24556	-5.58287	-7.68595	1.23914	254.245	-5.11262	0
0.1007	12.3122	18.5521	36.66	-9.22029	-3.74908	-5.54542	2.15502	147.109	-2.05877	0
0.1013	9.59769	14.2807	0.0600984	-4.6507	-2.83219	-3.71543	5.50877	29.6157	-0.549006	0.319736
0.1020	-3.82938	20.9965	-79.5702	-5.24556	-4.66598	-4.32542	4.89818	-100.702	-1.16664	0.319736
0.1027	-9.64616	-4.34855	-81.1328	-5.54299	-4.05471	-3.40489	5.50877	-217.27	-0.549006	0.319736
0.1033	-10.858	-35.4831	80.9525	-4.94813	-2.83219	-2.49544	6.42466	-248.384	0.0686257	0.639472
0.1040	-11.779	23.4153	227.112	-5.86746	-4.05471	-4.62488	3.677	-223.352	-2.05877	0
0.1047	0.727098	59.7475	242.076	-5.24556	-3.74908	-4.01488	3.9823	-162.93	-2.36759	-0.319736
0.1053	18.4198	-3.42223	226.21	-3.73138	-1.60966	-1.88544	6.42466	-49.7121	-1.16664	0.319736
0.1060	28.2114	-40.3463	219.179	-4.6507	-1.91529	-3.10543	4.59289	73.863	-1.47545	0.319736
0.1067	32.477	-7.38481	165.451	-4.94813	-2.83219	-4.32542	0.933842	165.442	-2.05877	0.319736
0.1073	31.8469	-4.96609	51.0235	-2.81205	-0.998397	-2.18489	2.46032	217.005	-0.24019	0.319736
0.1080	27.5812	-72.0984	-132.697	-7.67907	-0.692765	-2.18489	3.9823	217.622	0.686257	0.639472
0.1087	22.3946	-82.468	-282.522	-18.9814	-2.83219	-4.32542	0.0179585	187.39	-0.857822	0.319736
0.1093	16.9171	15.4901	-288.953	-21.4149	-1.91529	-1.27545	0.323253	159.317	0.377442	0.319736
0.1100	7.46487	108.276	-283.424	-17.7646	-0.998397	-0.0554542	2.76561	88.2301	2.81366	0.319736
0.1107	-3.53854	104.005	-316.117	-17.4672	-2.22092	-1.5749	1.54443	-81.7517	3.12247	-0.319736
0.1113	-10.858	24.3416	-271.224	-20.82	-1.30403	0.255089	2.15502	-227.054	3.12247	-0.319736
0.1120	-14.2026	-40.6551	-148.864	-18.3595	0.22413	0.865085	2.46032	-204.754	3.7401	0.319736
0.1127	-16.6748	-52.2598	-17.3684	-2.81205	-0.998397	-1.88544	0.933842	-92.1524	4.94105	0.319736
0.1133	-12.4091	-30.5942	79.9909	9.70699	-1.60966	-1.5749	1.54443	5.20038	5.55868	0.319736
0.1140	1.35725	-5.24914	137.385	13.0598	-0.387134	0.255089	4.59289	72.056	5.55868	0.319736
0.1147	10.8095	34.7112	166.052	14.8985	-0.387134	-0.964902	6.42466	107.445	4.94105	0.319736
0.1153	9.59769	59.4388	184.081	17.332	-1.60966	-2.49544	5.81407	125.734	4.32342	0.639472
0.1160	7.12556	24.3416	206.077	21.9016	-1.60966	-2.18489	5.20348	129.701	2.81366	0.319736
0.1167	4.07175	26.1685	189.55	21.0093	-2.22092	-3.71543	4.59289	98.5868	1.88721	0
0.1173	0.436259	60.9569	103.189	17.6294	-3.13782	-4.62488	1.84973	59.8484	6.17632	0
0.1180	6.83472	3.60235	10.1566	29.851	-1.30403	-1.27545	2.76561	19.876	14.4114	0
0.1187	19.9709	-86.1219	-31.6718	53.6453	0.22413	1.47508	4.89818	-55.5294	18.6662	0.319736
0.1193	22.3946	-94.9733	-13.7024	46.0203	-0.692765	-0.0554542	2.76561	-86.335	18.6662	0.319736
0.1200	20.8919	-54.7042	20.4935	-14.0873	-0.692765	0.255089	0.933842	-31.1141	16.8476	0.319736
0.1207	27.8721	-74.8517	-9.07485	-32.7172	0.835393	3.00562	3.677	6.74286	13.7938	0.319736
0.1213	30.635	-138.021	-143.996	6.02969	0.835393	3.00562	4.28759	-14.3231	7.9949	0.319736
0.1220	27.8721	-120.91	-302.956	-13.195	0.835393	2.08508	3.677	-37.1959	1.26958	0.319736
0.1227	25.7393	-53.1604	-300.552	-55.5921	1.44666	2.08508	4.89818	-35.0805	-1.47545	0.319736
0.1233	12.6515	4.50294	-179.995	-40.964	0.835393	-0.0554542	3.9823	-32.6566	-5.11262	0.319736
0.1240	-7.51334	64.6364	-120.497	-7.67907	-0.0815018	-1.5749	2.15502	-10.3567	-13.0732	0.319736
0.1247	-16.6748	93.0178	-90.5682	21.6041	1.44666	0.255089	3.9823	39.3995	-18.5633	0.319736
0.1253	-16.0446	70.7347	-0.540885	44.8036	1.44666	0.865085	3.37171	80.6058	-22.5092	0
0.1260	-14.542	-20.2246	107.155	17.9539	-0.692765	-0.964902	-0.592631	182.189	-29.8522	0.319736
0.1267	-3.53854	-172.192	156.616	-14.7092	-0.387134	0.865085	-0.287336	375.705	-34.107	0.319736
0.1273	14.445	-259.781	173.083	28.3098	1.14103	1.77453	0.628548	524.004	-29.5434	0.639472
0.1280	26.9511	-266.497	160.883	55.7814	0.22413	-0.0554542	-1.50851	551.769	-19.1809	0.639472
0.1287	42.2201	-241.769	32.994	14.2766	0.22413	1.16454	-2.72969	555.118	-8.78409	0.319736
0.1293	58.701	-166.995	-138.166	-9.51772	2.66918	4.52506	-0.287336	573.76	-2.98522	0.319736
0.1300	47.4068	-123.663	-206.859	-8.92286	3.28045	4.8356	-1.50851	467.858	-3.60285	0.319736
0.1307	12.3122	-73.6166	-225.189	-24.1728	2.66918	3.91506	-2.72969	265.219	-3.60285	0.319736
0.1313	-23.0732	161.359	-228.193	-26.9038	2.66918	5.13506	2.46032	130.318	-0.24019	0.319736
0.1320	-52.6903	399.089	-170.559	-3.40691	1.14103	2.69507	3.9823	-9.73969	0.377442	0.319736
0.1327	-66.1174	301.748	-126.868	13.3573	-2.22092	-2.18489	0.628548	-248.384	-1.16664	0.319736
0.1333	-54.8232	17.0082	-105.533	5.73226	-2.83219	-2.18489	-0.287336	-408.318	-0.857822	0.319736
0.1340	-36.5003	-53.4691	-37.5014	-43.695	-1.30403	0.554542	1.54443	-386.635	-0.549006	0.319736
0.1347	-24.5759	76.2154	37.261	-79.4135	-1.30403	0.554542	0.628548	-351.554	-0.549006	0.319736
0.1353	-8.14349	112.548	78.4885	-49.8058	-0.387134	1.77453	0.628548	-348.513	-1.47545	0
0.1360	11.1004	129.633	90.0874	-14.0873	1.14103	4.22561	2.46032	-289.899	-4.22048	0.319736
0.1367	23.9457	224.22	83.6569	-5.86746	1.14103	4.8356	1.54443	-171.789	-6.03907	0.319736
0.1373	33.9797	255.355	74.8225	-5.86746	0.529762	3.91506	0.323253	-19.2149	-5.73025	0.319736
0.1380	40.0873	248.047	55.591	-6.78678	1.14103	3.30507	1.84973	78.1378	-4.22048	0.639472
0.1387	30.9259	187.914	-10.0364	-8.30096	0.529762	3.30507	1.54443	53.7225	-1.16664	0.639472
0.1393	4.41106	61.2657	-109.499	-6.16489	-0.0815018	3.91506	0.323253	15.2926	2.19602	0.319736
0.1400	-23.7034	23.724	-164.73	-3.73138	-0.0815018	4.52506	0.933842	31.1582	4.01461	0.319736
0.1407	-39.845	73.771	-156.496	-4.6507	-0.692765	3.30507	2.15502	43.3658	2.81366	0
0.1413	-43.8198	61.8832	-125.666	-2.81205	-0.692765	3.00562	3.06642	61.0383	3.43129	-0.319736
0.1420	-37.7121	3.60235	-79.5702	1.75753	1.14103	5.74505	5.20348	61.0383	8.61253	0
0.1427	-31.3137	23.1322	-29.2679	3.89361	1.44666	6.05559	4.89818	-46.3627	13.485	0.319736
0.1433	-27.3389	40.8352	5.52905	2.37943	0.529762	4.52506	2.76561	-215.727	15.6124	0.319736
0.1440	-18.5168	-67.2095	21.0945	-0.973403	1.75229	5.4456	4.28759	-357.019	18.6662	0.319736
0.1447	-10.2763	-166.995	13.1615	-6.16489	2.36355	6.35505	5.50877	-403.734	17.7741	0.319736
0.1453	-9.64616	-114.194	5.52905	-8.30096	1.44666	6.05559	2.46032	-350.629	13.1761	0
0.1460	-6.30151	-76.6786	17.128	-6.78678	1.44666	6.35505	0.628548	-319.206	10.1223	0.319736
0.1467	1.01794	-163.958	33.9556	-6.16489	2.05792	6.66559	0.933842	-307.924	7.68608	0.639472
0.1473	4.07175	-195.376	41.2275	-7.38164	1.44666	6.05559	0.0179585	-244.418	5.24987	0.319736
0.1480	7.46487	-145.947	42.4895	-7.08421	1.14103	6.05559	-0.897925	-168.131	2.81366	0.319736
0.1487	11.3912	-109.331	47.658	-4.32623	2.05792	7.57504	0.628548	-119.609	-0.24019	0.319736
0.1493	6.20457	-85.53	53.788	-1.5953	1.75229	6.35505	0.0179585	-96.4273	-2.05877	0
0.1500	-2.32671	-127.034	54.389	0.865247	0.22413	3.00562	-2.72969	-76.9039	-2.05877	0
0.1507	-2.61755	-238.115	51.925	5.73226	1.14103	3.30507	-0.592631	-57.9533	0.0686257	0
0.1513	-2.90839	-295.779	48.86	9.08509	1.14103	3.61561	0.933842	-55.8379	2.81366	0
0.1520	-9.64616	-179.809	47.3575	8.16577	-1.60966	-0.0554542	-2.1191	-71.0865	-0.24019	0.319736
0.1527	-10.5672	-41.5814	43.992	6.65159	-2.22092	-1.5749	-2.1191	-85.4096	-3.91167	0
0.1533	-4.75037	-111.158	39.4245	5.1374	-2.22092	-0.354907	-0.287336	-84.5281	-2.36759	0.319736
0.1540	0.727098	-227.437	48.259	3.29875	-2.52656	0.554542	-0.592631	-79.0193	0.0686257	0.319736
0.1547	7.12556	-208.499	80.652	2.082	-1.60966	2.39562	1.84973	-76.5954	0.377442	0.319736
0.1553	13.524	-118.183	138.887	3.29875	0.22413	4.22561	6.42466	-67.7371	0.0686257	0
0.1560	12.9423	-38.5194	199.346	2.67686	-1.30403	2.08508	5.20348	-51.2545	-2.98522	0
0.1567	8.96754	-69.9628	225.249	-9.51772	-2.52656	-0.0554542	1.54443	-26.8392	-12.1468	0.319736
0.1573	10.5187	-226.202	220.681	-18.3595	-0.387134	2.08508	2.46032	0.616994	-19.7642	0.319736
0.1580	8.33739	-341.554	203.613	-17.7646	1.14103	3.30507	1.84973	20.4489	-19.7642	0.319736
0.1587	0.436259	-207.598	157.518	-16.5478	0.835393	2.69507	-1.50851	38.474	-16.127	0.319736
0.1593	-0.193893	159.533	81.854	-8.30096	1.44666	3.91506	-0.897925	63.1978	-12.4556	0.319736
0.1600	1.64809	316.389	30.8906	-1.5953	1.14103	4.52506	0.628548	75.0969	-10.3282	0.319736
0.1607	1.64809	159.533	13.462	-3.40691	0.529762	3.30507	-0.897925	68.0897	-9.09291	0.319736
0.1613	5.62289	61.8832	-46.9368	-5.24556	1.75229	3.30507	-1.20322	62.8893	-6.6567	0.319736
0.1620	5.28358	99.116	-128.43	-5.86746	1.75229	2.39562	-0.592631	66.2387	-4.8038	0.319736
0.1627	2.27824	226.665	-132.096	-9.81515	0.22413	0.255089	-2.4244	95.8544	-4.5293	0.319736
0.1633	7.46487	363.4	-106.434	-12.5731	-0.387134	0.554542	-0.592631	138.251	-3.29404	0.319736
0.1640	8.96754	340.808	-114.367	-9.22029	-0.692765	0.255089	3.06642	112.954	0.0686257	0.319736
0.1647	-3.82938	213.851	-119.295	-7.38164	-1.91529	-1.88544	3.06642	45.7897	2.19602	0
0.1653	-12.4091	131.769	-122.601	-7.67907	-2.22092	-1.5749	3.677	64.4318	2.50484	0.319736
0.1660	-6.30151	145.509	-129.031	-7.08421	-0.692765	1.47508	7.95113	163.591	3.7401	0.319736
0.1667	-1.69656	212.95	-108.898	-7.38164	-0.0815018	2.08508	9.17231	217.931	4.94105	0.319736
0.1673	-2.32671	237.343	-68.3318	-6.78678	-0.387134	2.08508	7.95113	182.189	8.61253	0.639472
0.1680	-2.03587	194.63	-42.9703	0.540779	1.14103	3.00562	7.95113	133.094	16.5388	0.639472
0.1687	-5.08968	211.406	-38.1024	21.9016	1.14103	2.08508	6.42466	109.252	21.4112	0.319736
0.1693	-10.858	335.018	-19.7724	30.4459	0.22413	0.865085	3.9823	77.8293	18.6662	0.319736
0.1700	-10.5672	315.489	8.29357	11.5456	0.529762	1.77453	4.28759	20.7574	12.8673	0.319736
0.1707	-7.80418	85.3757	22.6571	-2.19016	0.835393	2.08508	4.89818	-4.53931	4.63224	-0.639472
0.1713	-13.621	-71.4809	26.3231	-0.675974	0.22413	1.16454	2.46032	14.0586	-12.7644	-0.639472
0.1720	-19.7286	-58.6668	33.9556	4.21808	-0.0815018	1.16454	1.23914	-22.8728	-24.671	0
0.1727	-15.7538	-20.5077	56.192	6.35416	0.22413	0.865085	0.0179585	-82.0602	-15.8182	0.319736
0.1733	-11.1488	-20.5077	78.7889	3.89361	0.22413	-0.354907	-3.03499	-89.42	-3.60285	0.319736
0.1740	-7.80418	-22.3603	85.52	0.865247	0.529762	1.16454	-3.03499	-83.2942	1.26958	0.319736
0.1747	-1.11488	-20.8164	88.8855	0.865247	1.44666	2.39562	-1.81381	-72.629	5.24987	0.319736
0.1753	5.28358	39.9089	93.7534	-0.0540779	0.835393	0.865085	-3.64558	-73.5104	5.8675	0.319736
0.1760	11.1004	149.472	79.0894	-0.973403	-0.0815018	-0.66545	-4.56146	-69.544	3.7401	0.319736
0.1767	15.0752	144.583	46.1555	0.243351	0.22413	0.554542	-0.592631	-27.4562	6.17632	0.319736
0.1773	15.9961	20.0702	11.3586	0.243351	0.529762	2.39562	3.37171	-0.572923	6.75964	0.319736
0.1780	21.4736	-98.9359	10.7576	-5.24556	0.835393	3.30507	6.11936	-8.24127	-0.549006	0.319736
0.1787	31.556	-139.231	51.0235	-9.51772	1.14103	3.30507	8.86701	-14.9401	-6.34788	0.319736
0.1793	32.7679	-134.959	68.3919	-11.6538	-1.30403	0.865085	6.72995	-18.2895	-6.34788	0.319736
0.1800	27.8721	-138.613	55.591	-32.4197	-2.83219	-1.88544	3.06642	-49.4036	-6.6567	0.319736
0.1807	26.6602	-73.3078	63.524	-45.2362	-0.692765	0.255089	5.20348	-80.8702	-7.58314	0.319736
0.1813	25.7393	50.5873	66.8895	3.29875	0.529762	3.30507	7.95113	-68.0456	-8.16646	0.319736
0.1820	22.1038	101.869	4.02659	69.2198	0.22413	2.39562	5.50877	-36.3145	-6.96551	0.319736
0.1827	14.7843	99.4248	-61.6008	89.3638	0.835393	1.77453	2.46032	-13.7061	-5.11262	0.319736
0.1833	5.62289	126.571	-49.7013	64.3257	1.44666	2.08508	0.628548	-5.1563	-5.73025	0.319736
0.1840	1.35725	118.646	-3.30541	35.6374	0.22413	0.255089	-1.50851	-8.24127	-7.27433	0.319736
0.1847	4.99274	6.63861	51.0235	32.582	-0.387134	-0.66545	-0.897925	3.39347	-6.34788	0.319736
0.1853	12.6515	-164.267	117.853	37.7734	1.14103	1.77453	2.46032	20.7574	-5.11262	0.319736
0.1860	14.445	-285.1	160.282	39.6121	1.44666	2.69507	3.677	13.7501	-4.22048	0.639472
0.1867	10.5187	-301.903	164.549	-0.0540779	-0.0815018	1.16454	2.15502	21.0659	-2.6764	0.639472
0.1873	6.83472	-254.583	110.521	-76.9529	-0.998397	0.554542	2.15502	36.623	1.57839	0.319736
0.1880	8.33739	-203.327	-16.1064	-82.7663	-0.692765	0.865085	2.46032	15.2926	4.01461	0.319736
0.1887	12.0213	-257.336	-82.3348	-20.82	0.22413	1.16454	2.46032	13.7501	1.88721	0.639472
0.1893	10.1794	-360.801	-27.7053	5.43483	0.835393	2.69507	3.06642	53.7225	-0.24019	0.319736
0.1900	2.85992	-250.003	16.8275	-8.59839	0.835393	2.69507	2.76561	94.0034	-1.47545	0.319736
0.1907	-6.88319	144.583	22.3566	-10.1396	-0.387134	1.16454	0.933842	129.392	-1.78427	0.319736
0.1913	-5.67136	423.816	62.923	-5.54299	-1.30403	0.255089	-1.50851	147.109	-2.05877	0.319736
0.1920	6.83472	310.6	117.853	-31.7978	-0.998397	0.865085	-2.72969	156.276	-5.11262	0.319736
0.1927	18.7591	144.274	152.349	-51.9419	-0.998397	0.554542	-2.72969	162.666	-5.73025	0.319736
0.1933	26.3694	196.148	196.281	-31.1759	-0.692765	-0.66545	-3.95087	141.909	-3.29404	0.319736
0.1940	31.2652	314.253	182.579	-10.7345	0.835393	0.554542	-2.72969	128.511	-1.47545	0.319736
0.1947	29.4232	283.736	30.8906	-8.00354	1.75229	2.39562	0.323253	152.001	-1.47545	0.319736
0.1953	12.3122	122.3	-125.666	-7.38164	0.22413	0.554542	0.0179585	162.974	-1.78427	0.319736
0.1960	-10.2763	-5.55791	-140.63	-6.78678	-0.692765	-1.5749	-0.287336	107.137	-0.857822	0.319736
0.1967	-21.5706	-36.0749	-81.4333	-6.16489	-0.692765	-1.5749	2.15502	1.54248	0.686257	0.319736
0.1973	-23.3641	15.1813	-94.5347	-5.86746	-1.91529	-2.79489	3.677	-107.092	-0.24019	0.639472
0.1980	-18.8076	79.8949	-185.464	-5.54299	-2.22092	-3.10543	3.9823	-172.714	-0.549006	0.319736
0.1987	-7.51334	53.0317	-269.12	-3.40691	0.22413	-0.354907	7.64583	-182.498	2.19602	0.319736
0.1993	1.35725	-0.0771932	-273.688	-3.10948	0.22413	-0.66545	7.03525	-181.264	2.81366	0.319736
0.2000	2.27824	11.2187	-216.294	-4.6507	-1.60966	-3.71543	-0.287336	-158.347	0.0686257	0.319736
0.2007	-1.69656	13.972	-165.631	-4.32623	-0.692765	-3.40489	-1.50851	-105.286	0.686257	-0.319736
0.2013	-16.0446	7.25616	-132.998	-4.02881	-0.692765	-3.71543	0.323253	-79.9448	3.7401	-0.319736
0.2020	-35.5793	12.4538	-104.331	-4.32623	-1.30403	-4.62488	-3.34028	-67.1201	2.50484	0.319736
0.2027	-40.4751	18.2433	-58.2353	-2.51462	1.14103	-1.5749	-3.64558	-27.1477	1.26958	0.319736
0.2033	-37.7121	38.9826	-4.20689	-2.19016	2.05792	-0.354907	-1.81381	-2.11541	1.88721	0.319736
0.2040	-36.2095	-23.2609	40.927	-3.40691	0.529762	-1.88544	-4.56146	-15.2486	0.96076	0
0.2047	-27.048	-110.849	73.0195	-3.10948	0.835393	-1.5749	-3.64558	-21.6388	0.96076	0
0.2053	-15.1236	-83.0856	81.854	-3.10948	0.835393	-1.5749	-1.50851	9.16676	0.96076	0.319736
0.2060	-8.72517	-52.2598	101.085	-4.6507	-0.692765	-4.62488	-4.86676	89.1115	-0.24019	0
0.2067	4.07175	-53.7779	143.515	-3.73138	0.529762	-3.40489	-4.56146	204.181	0.377442	0.319736
0.2073	23.0248	3.29358	146.219	-1.89273	2.05792	-0.964902	-2.1191	304.266	1.57839	0
0.2080	31.556	47.5253	64.4254	-2.19016	-0.0815018	-3.71543	-4.86676	364.379	0.0686257	0
0.2087	27.2904	-24.1872	-43.5713	-1.89273	-0.998397	-4.93542	-6.39323	391.571	-0.24019	0.319736
0.2093	15.366	-127.935	-105.533	-0.675974	-1.30403	-4.62488	-4.86676	361.955	0.0686257	0.319736
0.2100	-5.38052	-104.442	-99.7633	-0.675974	-2.83219	-5.54542	-3.95087	282.627	-0.24019	0.319736
0.2107	-24.5759	64.9195	-15.8059	-0.378546	-1.60966	-4.01488	0.0179585	187.081	0.96076	0.319736
0.2113	-38.0514	208.679	36.059	0.865247	0.529762	-0.964902	4.59289	35.7416	2.81366	0.319736
0.2120	-56.035	176.618	9.19505	0.865247	-0.387134	-1.5749	4.89818	-104.977	2.19602	0.319736
0.2127	-70.9647	77.4505	14.7241	0.865247	-1.91529	-4.32542	4.28759	-158.347	1.88721	0.319736
0.2133	-70.6739	43.8715	45.855	1.4601	-1.60966	-4.93542	3.9823	-226.128	1.57839	0.319736
0.2140	-60.9308	23.4153	48.259	1.4601	-1.91529	-5.23487	1.84973	-305.764	1.26958	0.319736
0.2147	-46.8736	-14.1006	39.124	0.540779	-1.91529	-4.62488	0.933842	-299.683	1.26958	0.319736
0.2153	-32.8163	-40.3463	-2.40393	0.540779	-0.998397	-2.18489	1.84973	-233.135	1.88721	-0.319736
0.2160	-24.2851	-53.1604	-89.6668	0.243351	-1.30403	-2.18489	1.23914	-167.822	1.57839	0
0.2167	-17.2565	-51.951	-121.098	-0.675974	-1.91529	-3.40489	0.628548	-127.541	0.96076	0
0.2173	-8.14349	-49.8153	-39.0038	-0.973403	-1.30403	-3.71543	0.933842	-106.475	0.686257	0
0.2180	-8.14349	-72.4072	69.654	-0.675974	-1.60966	-4.62488	0.323253	-90.6099	0.377442	0.319736
0.2187	-13.3301	-95.5909	124.884	-0.378546	-2.52656	-4.62488	0.628548	-79.9448	0.0686257	0.319736
0.2193	-8.72517	-57.7405	139.849	1.16268	-0.692765	-1.88544	3.9823	-58.8788	1.57839	0.319736
0.2200	-1.40572	42.9709	185.584	2.37943	0.529762	-0.354907	6.42466	1.54248	3.12247	0.319736
0.2207	1.64809	106.732	268.279	1.4601	-0.387134	-2.18489	2.76561	75.4054	1.57839	0.319736
0.2213	10.8095	93.3008	322.308	0.243351	-0.692765	-4.32542	-1.20322	100.746	0.686257	0.319736
0.2220	26.3694	79.5862	300.672	1.16268	-0.998397	-6.15541	-2.4244	70.8221	0.686257	0.319736
0.2227	33.398	95.7453	228.314	1.4601	-2.52656	-7.68595	-3.03499	28.3817	-1.16664	0.319736
0.2233	28.7931	104.597	167.013	0.540779	-1.91529	-7.06486	-0.897925	18.9505	-1.78427	0.319736
0.2240	17.208	57.6118	132.216	-0.675974	-0.998397	-5.54542	1.54443	37.857	1.57839	0.319736
0.2247	4.7019	-39.4457	101.686	-1.89273	-1.91529	-5.84487	1.54443	43.3658	2.50484	0
0.2253	3.78091	-84.9125	25.061	-2.51462	-3.13782	-6.45486	1.84973	52.2241	1.26958	0
0.2260	9.59769	-68.4189	-96.3978	-3.10948	-3.74908	-6.45486	3.37171	105.286	0.96076	0.319736
0.2267	5.28358	-85.8131	-240.754	-2.81205	-3.44345	-6.45486	3.677	120.27	1.26958	0.319736
0.2273	-5.9622	-122.454	-389.377	-1.5953	-2.83219	-5.23487	3.9823	-4.84781	0.96076	0.319736
0.2280	-10.5672	-77.8879	-422.612	-0.675974	-1.60966	-3.71543	3.9823	-172.097	0.0686257	0.319736
0.2287	-6.88319	18.5521	-287.39	-1.27083	-0.998397	-3.40489	2.76561	-241.068	-0.549006	0
0.2293	0.0969464	36.2551	-146.76	-2.19016	-2.52656	-5.84487	0.323253	-237.102	-0.24019	0.319736
0.2300	9.59769	-24.779	-102.468	-3.10948	-4.05471	-8.5954	-1.81381	-234.369	-1.47545	0.319736
0.2307	18.129	-54.7042	-90.2677	-2.81205	-3.74908	-7.9854	0.323253	-212.687	-0.549006	-0.319736
0.2313	19.3408	-29.3591	-75.3032	-0.675974	-2.83219	-6.45486	2.76561	-133.05	0.96076	0
0.2320	18.7591	-35.4831	-41.7684	1.16268	-2.52656	-6.76541	-1.50851	-48.5221	-0.857822	0.639472
0.2327	25.7393	-77.8879	-14.0029	0.865247	-1.91529	-6.15541	-5.47734	-19.5234	-2.05877	0.319736
0.2333	30.0049	-83.6774	-43.8718	-1.5953	-2.52656	-6.15541	-7.30911	-22.2558	-2.98522	0.319736
0.2340	33.398	-63.8645	-71.3368	-3.40691	-3.74908	-7.9854	-10.3576	0.925491	-3.91167	0.639472
0.2347	48.6186	-66.0002	-45.7349	-3.10948	-2.22092	-6.15541	-8.5258	56.1905	-2.6764	0.319736
0.2353	63.8876	-122.454	-1.80295	-2.51462	-2.22092	-4.62488	-5.78264	88.5386	-2.05877	0
0.2360	63.8876	-189.586	33.9556	-3.73138	-4.36035	-6.76541	-9.74698	98.8953	-3.60285	0
0.2367	59.622	-221.622	36.9605	-3.73138	-4.05471	-7.9854	-11.884	147.109	-3.91167	0.319736
0.2373	60.8338	-249.102	26.0226	-2.19016	-3.13782	-6.76541	-8.5258	199.906	-2.98522	0.319736
0.2380	59.0403	-275.94	18.9911	-3.10948	-4.66598	-7.3754	-7.30911	174.257	-3.60285	0.319736
0.2387	51.3816	-317.753	-16.7073	-4.02881	-4.97161	-7.9854	-5.17205	93.3864	-2.6764	0.319736
0.2393	43.1411	-343.381	5.82954	-2.81205	-3.13782	-6.45486	0.0179585	78.7548	0.377442	0.319736
0.2400	35.1915	-282.347	122.721	-2.19016	-2.83219	-5.54542	1.84973	126.66	1.88721	0.319736
0.2407	33.6889	-176.155	194.178	-2.81205	-2.83219	-4.62488	2.76561	145.875	1.26958	0.319736
0.2413	43.432	0.540352	250.31	-3.40691	-2.52656	-3.40489	3.9823	202.638	-0.857822	0
0.2420	48.3278	237.652	366.239	-3.40691	-2.83219	-5.23487	2.76561	315.284	-3.60285	0
0.2427	45.2739	377.732	443.766	-3.40691	-4.36035	-8.5954	0.323253	373.854	-5.42143	0.319736
0.2433	47.4068	363.091	446.531	-3.40691	-4.97161	-8.90594	-0.592631	370.813	-5.73025	0
0.2440	52.5934	262.38	404.402	-4.02881	-5.88851	-9.20539	-3.03499	314.05	-5.73025	0.319736
0.2447	52.3026	175.717	295.143	-4.32623	-6.49977	-9.51593	-6.39323	177.65	-7.85765	0.319736
0.2453	43.432	143.657	157.818	-2.81205	-4.97161	-7.06486	-6.08793	-3.65789	-7.58314	0
0.2460	16.287	169.002	11.6591	-1.27083	-4.05471	-5.84487	-5.17205	-169.982	-3.91167	0
0.2467	-14.2026	172.038	-146.4	-1.5953	-5.88851	-7.68595	-5.78264	-281.966	-1.78427	0.319736
0.2473	-13.3301	95.7453	-194.659	-0.378546	-5.27724	-5.54542	-1.20322	-360.412	0.377442	0.319736
0.2480	6.20457	9.70061	-162.326	0.243351	-3.13782	-3.10543	1.84973	-425.99	1.26958	0.319736
0.2487	23.6064	-42.7908	-182.759	-1.5953	-3.44345	-4.32542	0.0179585	-427.224	-0.549006	0.319736
0.2493	51.0907	-54.0867	-203.794	-2.51462	-3.74908	-4.32542	1.23914	-333.221	-0.857822	0.319736
0.2500	84.6342	-34.5568	-183.06	-2.19016	-3.13782	-3.10543	2.15502	-207.486	-0.549006	0.319736
0.2507	101.745	3.29358	-177.23	-3.10948	-3.13782	-4.01488	-0.287336	-103.126	-0.857822	0.319736
0.2513	97.7704	39.6001	-191.894	-3.10948	-2.52656	-4.32542	-0.287336	15.6011	-0.857822	0
0.2520	69.0743	-4.34855	-167.795	-2.19016	-1.91529	-4.32542	0.0179585	91.5795	-0.549006	0
0.2527	24.5274	-144.428	-79.5702	-2.19016	-2.52656	-7.06486	-1.81381	67.7812	-1.47545	0.319736
0.2533	-2.61755	-225.584	157.818	-1.5953	-1.91529	-7.9854	-3.03499	33.2736	-2.05877	0.319736
0.2540	-10.858	-177.982	584.457	-0.378546	0.22413	-4.93542	0.0179585	23.2254	-1.47545	0
0.2547	-13.3301	-172.81	838.673	-0.378546	1.14103	-4.32542	2.76561	87.9216	-1.78427	0
0.2553	2.85992	-255.201	726.048	-0.675974	0.529762	-4.62488	2.46032	251.777	-2.36759	0.319736
0.2560	33.398	-238.115	475.198	-1.5953	-0.692765	-4.62488	1.84973	318.016	-1.78427	0.319736
0.2567	50.1697	-46.7533	236.247	-2.19016	-2.83219	-8.29594	-1.20322	238.953	-2.98522	0.319736
0.2573	36.4518	233.072	40.0255	-2.51462	-4.36035	-10.4254	-3.64558	244.77	-4.8038	0.319736
0.2580	4.41106	443.964	-190.692	-1.5953	-3.13782	-8.29594	-3.03499	382.095	-3.91167	0.319736
0.2587	-28.89	394.817	-486.376	-1.27083	-2.22092	-7.06486	-2.1191	512.722	-2.36759	0.319736
0.2593	-58.1678	214.16	-762.288	-1.5953	-2.22092	-7.06486	-1.81381	558.776	-2.36759	0.319736
0.2600	-89.2876	115.893	-838.552	-0.675974	-1.91529	-5.23487	0.628548	414.752	-1.47545	0.319736
0.2607	-124.721	19.7615	-663.065	-0.973403	-1.60966	-4.32542	1.23914	40.8979	0.0686257	0.319736
0.2613	-137.228	-79.4061	-437.576	-2.81205	-1.30403	-4.93542	0.0179585	-417.484	0.377442	-0.319736
0.2620	-112.797	-132.515	-209.623	-2.19016	-0.0815018	-3.71543	-0.592631	-725.364	-0.549006	0
0.2627	-69.4621	-161.514	20.794	-0.675974	0.22413	-2.18489	-1.20322	-768.113	-1.16664	0.319736
0.2633	-21.8614	-120.318	194.178	-0.973403	0.529762	-1.88544	-3.34028	-647.27	-1.16664	0
0.2640	10.5187	21.5884	354.34	-2.19016	0.529762	-2.49544	-5.17205	-432.116	-1.78427	0.319736
0.2647	18.129	132.669	466.664	-2.19016	-0.692765	-3.40489	-5.17205	-154.689	-2.36759	0.319736
0.2653	19.6316	91.7827	433.129	-1.27083	-2.22092	-5.54542	-5.47734	62.8893	-2.6764	0.319736
0.2660	34.6098	-64.1475	296.405	-0.0540779	-2.22092	-6.15541	-5.17205	181.308	-2.6764	0.319736
0.2667	52.9327	-139.54	113.285	1.16268	-0.998397	-4.62488	-3.03499	254.554	-1.16664	0.319736
0.2673	50.4606	-5.86668	-88.7653	0.865247	-1.30403	-4.32542	-1.81381	283.2	-0.549006	0.319736
0.2680	49.2487	69.4996	-183.36	0.540779	-0.387134	-4.01488	-0.897925	256.978	-1.78427	0.639472
0.2687	50.1697	-112.368	-86.6017	0.865247	-0.0815018	-4.93542	0.0179585	164.517	-2.98522	0.319736
0.2693	9.59769	-312.272	126.687	-0.0540779	-1.30403	-7.3754	-1.50851	-37.8129	-4.22048	0.319736
0.2700	-50.8484	-255.201	365.939	-0.675974	-1.60966	-7.3754	-3.64558	-223.087	-5.11262	0.319736
0.2707	-68.5411	23.1322	556.09	-0.675974	-0.998397	-5.54542	-3.95087	-219.077	-4.22048	0.319736
0.2713	-54.4838	206.543	598.219	-1.27083	-1.60966	-4.62488	-4.86676	-74.1274	-3.60285	0.319736
0.2720	-48.0854	194.63	491.665	-1.89273	-1.30403	-3.71543	-6.39323	97.3528	-3.91167	0.319736
0.2727	-43.5289	230.344	319.242	-1.89273	-0.0815018	-2.79489	-6.39323	239.878	-3.29404	0.319736
0.2733	-23.0732	320.352	87.9239	-1.89273	0.22413	-3.40489	-7.00382	293.909	-3.29404	0.319736
0.2740	-3.53854	345.697	-247.725	-1.89273	0.22413	-3.10543	-7.9197	166.632	-2.36759	0.319736
0.2747	-25.8362	370.707	-674.364	-0.378546	2.36355	-0.0554542	-6.08793	-47.9052	-0.857822	0.639472
0.2753	-70.383	273.984	-926.176	0.540779	2.66918	1.47508	-3.64558	-147.373	0.0686257	0.639472
0.2760	-95.6861	-28.4586	-728.392	-0.378546	0.22413	-0.66545	-3.03499	-252.042	-1.16664	0.639472
0.2767	-110.034	-218.894	-386.913	-1.89273	-1.60966	-2.49544	-2.4244	-463.539	-2.98522	0
0.2773	-108.241	-190.204	-219.66	-2.81205	-1.91529	-2.49544	-0.897925	-538.327	-3.60285	0.319736
0.2780	-74.6487	-154.798	-78.9692	-2.51462	-1.91529	-1.88544	-2.4244	-390.293	-2.98522	0.639472
0.2787	-32.2347	-123.355	97.4194	-1.5953	-0.998397	0.554542	-3.03499	-200.787	-2.36759	0.319736
0.2793	-3.82938	-51.951	278.075	-1.5953	-0.387134	3.00562	0.933842	-44.2473	-1.16664	0
0.2800	12.6515	10.0094	476.76	-2.81205	-0.998397	2.39562	2.46032	151.692	-1.16664	0.319736
0.2807	25.4484	45.3896	510.295	-4.02881	-1.60966	-0.0554542	-1.50851	351.907	-2.6764	0.639472
0.2813	60.2522	7.25616	272.907	-3.40691	-0.692765	0.554542	-2.4244	457.457	-2.36759	0.639472
0.2820	106.641	-66.9008	-0.841377	-2.51462	1.75229	3.91506	0.323253	433.35	-0.549006	0.319736
0.2827	104.169	-79.123	-120.197	-3.10948	2.36355	4.52506	0.0179585	296.025	-0.549006	0.319736
0.2833	59.0403	-102.924	-123.863	-3.73138	3.28045	5.4456	-0.897925	189.241	0.686257	0.639472
0.2840	13.2332	-148.7	-207.159	-3.10948	4.80861	7.27559	-1.20322	159.008	2.19602	0.639472
0.2847	-12.4091	-94.0728	-440.341	-3.40691	3.89171	6.96504	-3.34028	107.445	1.57839	0.639472
0.2853	-4.16869	-34.8656	-593.832	-2.51462	2.66918	6.05559	-4.86676	61.0383	0.96076	0.639472
0.2860	1.64809	-130.997	-684.16	-1.5953	2.66918	5.74505	-6.08793	32.6566	1.26958	0.319736
0.2867	-24.2851	-239.942	-841.918	-2.19016	1.75229	4.22561	-8.5258	-82.0602	0.686257	0.319736
0.2873	-41.0568	-171.266	-856.582	-0.973403	2.66918	5.13506	-6.39323	-267.643	1.57839	0
0.2880	-24.5759	2.36726	-739.991	1.16268	3.89171	6.05559	-3.34028	-308.497	2.81366	0.319736
0.2887	-1.40572	124.435	-595.034	0.540779	1.14103	2.39562	-6.08793	-139.132	0.686257	0.319736
0.2893	-9.937	160.768	-366.78	-1.5953	-1.91529	-0.66545	-9.74698	-1.49841	-1.78427	0.319736
0.2900	-43.2381	131.46	-114.668	-2.51462	-3.44345	-0.66545	-11.884	-7.93278	-2.36759	0.319736
0.2907	-53.9022	67.6727	200.548	-3.40691	-3.74908	-0.964902	-10.9682	-63.7707	-2.36759	0
0.2913	-41.6869	25.8597	498.396	-2.81205	-1.91529	0.554542	-4.25617	-207.486	0.0686257	-0.319736
0.2920	-43.2381	25.8597	618.653	-0.675974	0.529762	3.30507	-1.50851	-431.807	1.57839	0
0.2927	-59.3796	58.5124	637.583	-1.5953	-0.692765	2.08508	-7.30911	-520.61	-0.549006	0.319736
0.2933	-50.8484	102.461	583.856	-2.81205	-0.998397	0.865085	-10.0523	-335.689	-1.47545	0.319736
0.2940	-20.3103	130.534	470.931	-2.19016	0.22413	2.08508	-7.30911	-4.84781	-0.24019	0.319736
0.2947	-20.0194	152.199	292.739	-1.27083	1.44666	3.91506	-3.95087	251.469	0.96076	0.319736
0.2953	-44.4499	158.014	-20.6738	-0.0540779	3.58608	6.96504	1.84973	400.429	2.50484	0.319736
0.2960	-56.6651	97.881	-288.652	0.243351	5.11424	8.79503	6.11936	452.3	3.7401	0.319736
0.2967	-44.1106	-5.86668	-277.053	-0.973403	3.89171	6.35505	3.06642	400.429	1.88721	0.639472
0.2973	-6.30151	-95.5909	-19.1714	-1.27083	2.97482	4.52506	-0.897925	254.554	0.0686257	0.639472
0.2980	30.9259	-142.885	360.169	-2.51462	2.97482	4.22561	-2.1191	-26.8392	-1.16664	0.319736
0.2987	48.9579	-127.034	686.984	-5.24556	0.22413	1.77453	-5.17205	-193.163	-3.29404	0.319736
0.2993	64.8086	-110.232	845.704	-5.86746	-0.998397	0.255089	-7.30911	83.9552	-3.91167	0.319736
0.3000	87.1063	-83.6774	889.937	-4.02881	-0.387134	1.77453	-5.17205	549.036	-3.29404	0.319736
0.3007	95.9284	85.0669	622.919	-3.73138	-1.91529	1.77453	-3.64558	680.236	-3.29404	0.319736
0.3013	96.5586	310.6	-40.2058	-2.81205	-2.52656	0.255089	-4.25617	462.04	-0.24019	0.319736
0.3020	105.72	248.948	-634.699	-1.27083	-0.998397	0.255089	-4.86676	327.491	3.43129	0.319736
0.3027	84.6342	-47.6797	-948.412	-0.973403	-0.692765	0.554542	-5.17205	341.198	4.01461	0.319736
0.3033	0.0969464	-187.451	-966.141	-1.5953	-0.998397	0.554542	-5.47734	126.351	4.94105	0.319736
0.3040	-104.847	-206.981	-645.396	-1.5953	0.529762	2.69507	-6.08793	-285.316	6.48513	0.319736
0.3047	-146.389	-245.14	-217.857	-1.5953	2.36355	4.22561	-4.25617	-482.181	7.68608	0.319736
0.3053	-115.56	-257.954	109.619	-3.40691	1.44666	3.30507	-3.34028	-487.645	6.48513	0.319736
0.3060	-103.636	-268.941	190.812	-4.6507	1.44666	2.08508	-3.95087	-590.507	6.17632	0.319736
0.3067	-128.066	-274.422	15.6256	-3.40691	3.28045	4.8356	-1.81381	-702.491	9.81348	0.319736
0.3073	-126.515	-168.23	-18.8709	-4.32623	4.50297	7.27559	-1.20322	-652.162	9.81348	0.319736
0.3080	-111.585	-51.6422	358.006	-7.08421	3.58608	6.05559	-3.95087	-478.214	3.7401	0.319736
0.3087	-105.768	-129.762	655.553	-7.67907	2.66918	5.13506	-5.17205	-242.919	-1.78427	0.639472
0.3093	-81.6773	-102.307	548.758	-7.38164	1.44666	4.52506	-3.95087	4.89188	-8.16646	0
0.3100	-33.4465	215.987	434.03	-7.38164	-2.22092	1.16454	-6.08793	266.145	-15.5094	0
0.3107	19.05	335.61	436.434	-5.24556	-3.13782	1.47508	-6.08793	512.413	-16.7104	0.319736
0.3113	55.0655	105.214	264.313	-1.27083	-0.387134	4.22561	-2.72969	582.001	-10.3282	0.319736
0.3120	63.8876	-35.1744	-93.0323	-0.378546	-0.692765	2.39562	-4.56146	455.65	-5.11262	0.319736
0.3127	67.2808	63.7101	-305.72	-0.0540779	-3.13782	-0.354907	-7.61441	307.351	-4.22048	0.319736
0.3133	80.0777	83.24	-258.122	3.29875	-3.44345	-0.66545	-5.78264	162.049	-1.47545	0.319736
0.3140	71.2071	-29.6679	-155.595	4.81294	-4.97161	-2.18489	-7.30911	-91.5354	0.686257	0.319736
0.3147	18.4198	32.2668	-94.8352	5.1374	-5.88851	-1.88544	-9.74698	-353.053	1.26958	0
0.3153	-43.8198	222.702	-35.3378	5.1374	-3.44345	2.39562	-6.08793	-393.642	3.43129	0.319736
0.3160	-42.3171	299.921	-32.2728	2.37943	-3.13782	3.00562	-6.08793	-274.65	3.12247	0.319736
0.3167	2.85992	290.452	-75.0028	0.243351	-4.36035	2.69507	-8.8311	-153.499	1.88721	0.319736
0.3173	-31.0228	278.564	-60.9998	1.16268	-2.22092	5.74505	-5.47734	-59.8043	3.7401	0.319736
0.3180	-128.066	282.218	-2.40393	1.4601	-0.0815018	8.49558	-3.03499	-60.7298	4.94105	0.319736
0.3187	-140.281	261.762	43.0905	-2.19016	0.22413	8.79503	-3.03499	-110.133	2.50484	0.319736
0.3193	-60.5915	156.496	95.5564	-5.54299	-0.692765	7.57504	-1.50851	-118.375	-0.549006	0.319736
0.3200	4.41106	20.0702	26.3231	-5.24556	-2.83219	5.13506	-2.72969	-121.151	-0.857822	0.319736
0.3207	43.7713	-48.889	-290.756	-4.94813	-4.36035	2.69507	-4.25617	-193.472	-0.857822	0
0.3213	91.3719	-41.5814	-450.978	-5.24556	-2.22092	4.22561	-1.50851	-299.991	-0.549006	-0.319736
0.3220	119.438	-55.6048	-268.82	-3.10948	-0.0815018	7.57504	0.323253	-283.509	0.96076	0
0.3227	98.4005	-149.909	-133.899	-2.81205	-1.30403	6.66559	-1.81381	-154.116	0.686257	0.319736
0.3233	62.0941	-207.289	-84.1978	-3.40691	-1.91529	5.74505	-2.4244	71.7476	0.0686257	0.639472
0.3240	53.8537	-186.833	51.6245	-3.10948	-1.60966	5.4456	-2.1191	426.651	0.686257	0.639472
0.3247	63.306	-121.528	261.909	-3.40691	-3.44345	3.61561	-2.72969	623.472	0.0686257	0.319736
0.3253	59.9128	-34.248	408.969	-3.40691	-4.36035	3.00562	-3.34028	463.583	-0.857822	0
0.3260	47.1159	-10.4468	224.347	-1.89273	-3.13782	5.4456	-1.20322	257.286	0.96076	0
0.3267	41.6385	-27.2235	-308.184	-0.0540779	-0.998397	7.57504	1.23914	322.291	3.12247	0.639472
0.3273	26.6602	1.1579	-796.784	-0.0540779	-0.0815018	6.96504	0.628548	486.764	3.12247	0.639472
0.3280	-23.9942	52.7229	-896.848	-1.5953	-0.998397	5.74505	-0.897925	341.506	2.50484	0.319736
0.3287	-94.1834	49.0691	-679.893	-2.51462	-0.998397	6.35505	0.323253	9.78376	2.81366	0.319736
0.3293	-144.838	105.523	-610.599	-2.81205	-1.60966	6.05559	-0.287336	-78.4023	2.50484	0.319736
0.3300	-166.505	191.877	-769.62	-5.24556	-2.22092	4.8356	-2.4244	-25.2967	0.377442	0.319736
0.3307	-168.057	48.4516	-584.937	-7.08421	-0.692765	6.05559	-0.592631	-91.5354	-1.16664	0
0.3313	-157.053	-153.28	-112.865	-5.86746	0.22413	6.96504	3.06642	-154.689	-1.16664	0.319736
0.3320	-140.572	-133.441	95.5564	-4.94813	-1.30403	5.13506	3.37171	-212.995	-1.47545	0.639472
0.3327	-125.303	0.540352	171.581	-5.86746	-2.52656	3.30507	2.15502	-370.769	-2.98522	0.639472
0.3333	-104.266	37.4644	403.2	-8.00354	-4.66598	-0.0554542	-1.50851	-363.762	-5.73025	0
0.3340	-49.6365	-4.96609	534.695	-8.92286	-7.11103	-4.01488	-5.47734	-117.185	-7.27433	0.319736
0.3347	21.1828	85.3757	356.203	-5.86746	-5.88851	-2.18489	-2.1191	24.7238	-4.5293	0.639472
0.3353	45.6133	284.354	135.221	-3.40691	-4.05471	1.16454	2.46032	-88.803	-1.16664	0.319736
0.3360	23.9457	282.218	82.4549	-3.10948	-4.66598	1.16454	2.76561	-259.975	-0.549006	0.319736
0.3367	4.41106	60.9569	-4.20689	-3.10948	-3.74908	1.77453	2.46032	-252.659	-0.857822	0.319736
0.3373	3.15076	-37.9019	-141.832	-2.51462	-2.83219	2.69507	3.677	-172.097	0.686257	0.319736
0.3380	-11.4881	61.8832	-215.092	-0.675974	-2.22092	4.52506	5.81407	-292.323	4.63224	0.319736
0.3387	-53.9022	85.3757	-376.817	0.865247	-0.0815018	7.27559	10.0882	-391.835	9.81348	0.319736
0.3393	-80.4655	-13.7918	-459.212	-0.0540779	0.529762	7.27559	10.3935	-203.828	12.8673	0.319736
0.3400	-75.2788	-19.2983	-268.219	-2.81205	-0.692765	5.13506	4.89818	-65.8861	11.3576	0
0.3407	-62.1426	29.2305	-23.7389	-2.81205	0.22413	5.74505	4.28759	-164.164	8.92135	0.319736
0.3413	-23.3641	-4.03978	164.549	-4.32623	-0.387134	4.52506	4.28759	-207.795	6.48513	0.319736
0.3420	45.6133	-9.82927	310.709	-5.86746	-2.22092	1.47508	3.37171	-154.116	4.32342	0.319736
0.3427	96.2677	32.5755	400.435	-3.10948	-0.998397	2.08508	8.25642	-115.951	5.8675	0.319736
0.3433	127.969	18.5521	394.966	-1.89273	-1.60966	-0.354907	8.86701	-55.2209	5.24987	0.319736
0.3440	161.27	16.7252	427.299	-3.40691	-4.66598	-5.54542	3.06642	21.9914	-0.24019	0.319736
0.3447	144.159	62.5007	711.144	-3.73138	-4.66598	-5.23487	4.28759	121.768	-3.91167	0.319736
0.3453	56.5682	29.5393	1037.96	-4.32623	-3.44345	-2.49544	9.7829	227.362	-6.03907	0.319736
0.3460	7.12556	-69.654	1112.12	-5.54299	-3.44345	-1.5749	10.3935	242.655	-10.3282	0.639472
0.3467	23.3156	-117.874	916.8	-4.02881	-2.83219	0.554542	12.2253	190.122	-9.71054	0.319736
0.3473	-16.9656	-131.897	675.385	0.243351	-1.60966	5.13506	15.8843	113.835	0.686257	0
0.3480	-112.506	-148.391	548.458	3.59618	-0.998397	6.05559	14.6631	2.77647	9.81348	0.319736
0.3487	-137.228	-131.897	346.106	3.89361	0.529762	5.13506	9.4776	-75.3614	11.0487	0.319736
0.3493	-97.8189	-76.061	47.057	2.37943	2.05792	6.35505	5.20348	-97.9257	8.30371	0.319736
0.3500	-75.8605	-89.4926	-165.331	1.75753	3.89171	7.88558	2.46032	-113.218	4.94105	0
0.3507	-67.3292	-163.958	-447.012	2.37943	4.80861	9.40503	5.20348	-61.0383	3.43129	-0.319736
0.3513	-39.2633	-116.33	-872.448	3.00133	5.41987	11.8561	9.7829	104.404	4.01461	-0.319736
0.3520	-14.8328	30.4398	-1102.56	2.37943	5.11424	11.235	8.56172	225.247	4.01461	0.319736
0.3527	-10.858	83.24	-1011.94	-0.0540779	3.58608	6.05559	4.28759	182.806	2.50484	0.319736
0.3533	26.3694	21.2796	-836.75	-0.675974	2.66918	3.61561	3.37171	88.5386	1.57839	0.319736
0.3540	91.9536	-55.9136	-643.894	-0.378546	2.66918	2.69507	5.81407	61.0383	0.377442	0.319736
0.3547	131.023	-114.503	-409.51	-2.19016	0.529762	-2.49544	3.677	68.9711	-3.91167	0
0.3553	140.184	-116.33	-209.323	-3.73138	-2.22092	-7.68595	0.323253	20.7574	-6.6567	0.319736
0.3560	125.836	-54.0867	44.593	-3.10948	-2.52656	-8.90594	1.84973	-105.286	-6.03907	0.319736
0.3567	113.621	12.1451	466.664	-3.73138	-3.44345	-10.4254	2.15502	-172.097	-7.58314	0.319736
0.3573	117.305	64.9195	896.367	-4.6507	-4.36035	-10.4254	3.06642	-72.629	-7.85765	0.319736
0.3580	114.881	149.781	1112.12	-3.40691	-3.13782	-6.76541	6.72995	130.318	-5.11262	0.639472
0.3587	117.596	280.083	1112.72	-3.10948	-1.60966	-4.62488	7.64583	342.431	-3.60285	0.639472
0.3593	111.197	360.955	1013.56	-3.10948	-0.387134	-2.49544	7.95113	522.153	-2.36759	0.639472
0.3600	63.8876	295.959	734.282	-1.5953	2.66918	2.08508	11.0041	669.57	0.686257	0.319736
0.3607	15.7053	173.891	44.8935	-1.5953	4.80861	4.52506	11.0041	623.472	2.50484	0.319736
0.3613	-12.4091	147.928	-716.793	-2.19016	5.7255	5.4456	8.25642	342.431	1.88721	0.319736
0.3620	-39.2633	125.979	-950.876	-1.27083	8.15018	8.49558	8.56172	27.8088	1.26958	0.639472
0.3627	-66.1174	-14.1006	-931.344	-1.27083	8.45581	10.625	9.4776	-322.864	0.96076	0.639472
0.3633	-84.3918	-166.403	-959.11	-1.89273	7.53892	12.1556	9.17231	-601.789	2.19602	0.319736
0.3640	-70.6739	-267.088	-825.151	-0.378546	9.37271	15.5161	9.4776	-604.522	3.7401	0
0.3647	-34.6583	-302.494	-658.798	-0.0540779	9.98397	14.9061	6.72995	-462.305	2.81366	0
0.3653	8.96754	-242.695	-647.5	-3.10948	5.7255	9.71557	2.15502	-324.362	-0.24019	0.319736
0.3660	67.5716	-165.168	-637.163	-3.73138	3.28045	6.35505	1.54443	-166.015	-1.78427	0.319736
0.3667	104.169	-102.615	-443.045	-2.19016	2.66918	2.39562	1.23914	-1.49841	-1.47545	0.319736
0.3673	117.014	-44.6177	-161.965	-2.51462	1.14103	-2.18489	-1.20322	78.4463	-2.05877	0.319736
0.3680	134.077	-24.779	-16.1064	-1.89273	1.44666	-2.49544	-0.897925	134.284	-2.05877	0.319736
0.3687	123.413	-43.7171	69.053	-1.27083	2.66918	-1.27545	2.15502	261.87	-2.05877	0.639472
0.3693	49.8789	-67.8271	238.711	-2.81205	1.75229	-2.49544	2.46032	298.493	-3.60285	0.639472
0.3700	-17.5958	-86.4306	316.238	-3.73138	1.75229	-3.40489	2.46032	124.853	-5.11262	0.319736
0.3707	-9.35532	-118.183	206.979	-4.94813	3.89171	-2.79489	3.677	-120.843	-6.34788	0.319736
0.3713	-22.1522	-124.899	34.5566	-6.16489	4.19734	-2.79489	0.628548	-281.349	-6.96551	0.319736
0.3720	-87.7849	-83.0856	-98.5012	-5.54299	4.80861	-1.27545	-1.20322	-294.791	-6.03907	0.319736
0.3727	-97.8189	-7.38481	-9.73593	-3.10948	6.62202	1.16454	1.23914	-203.828	-4.5293	0.319736
0.3733	-70.9647	52.7229	101.386	-1.89273	7.23328	0.865085	0.323253	-116.876	-4.8038	0.639472
0.3740	-73.4369	-21.7427	90.6884	-0.973403	9.06708	2.39562	-0.287336	-93.9593	-4.5293	0.319736
0.3747	-79.5445	-138.304	307.043	-0.675974	9.98397	4.52506	2.15502	-26.2222	-3.91167	0.319736
0.3753	-60.3006	-134.342	530.729	-3.40691	7.84455	1.77453	0.323253	177.033	-6.34788	0.319736
0.3760	-34.6583	-59.5931	409.63	-5.86746	7.23328	1.16454	-0.287336	380.861	-9.09291	0.319736
0.3767	-11.779	5.42925	300.071	-6.16489	8.76144	4.8356	4.89818	485.266	-10.0194	0.639472
0.3773	25.4484	39.9089	331.503	-7.08421	9.37271	6.96504	7.34054	515.763	-10.6027	0.639472
0.3780	61.7548	46.0071	66.589	-6.78678	10.9009	9.10557	8.56172	427.577	-10.9115	0.319736
0.3787	51.3816	31.0574	-428.742	-6.78678	12.1234	11.235	11.0041	353.405	-11.5291	0.319736
0.3793	-2.61755	-1.59533	-632.295	-9.51772	9.98397	9.10557	7.34054	357.063	-14.2742	0.319736
0.3800	-48.0854	-62.3206	-461.676	-10.437	9.06708	6.35505	3.06642	54.3395	-15.2006	0
0.3807	-70.0922	-87.6657	-210.525	-7.08421	10.2896	8.18503	7.03525	-395.184	-12.4556	-0.319736
0.3813	-60.9308	-22.6433	-98.8017	-4.32623	9.67834	8.79503	8.25642	-461.732	-10.3282	0
0.3820	-13.621	62.7838	-55.7713	-1.5953	7.84455	6.35505	3.9823	-382.668	-7.58314	0.319736
0.3827	22.1038	89.3382	81.5535	2.082	6.62202	4.22561	2.15502	-418.983	-4.22048	0.319736
0.3833	23.6064	53.3405	235.946	3.00133	4.80861	1.77453	1.23914	-358.87	-4.22048	0.319736
0.3840	35.1915	1.74971	291.177	1.16268	3.89171	0.554542	0.628548	-138.515	-5.73025	0.639472
0.3847	53.5144	-49.8153	270.443	-0.0540779	5.11424	1.47508	0.933842	21.0659	-7.27433	0.319736
0.3853	50.7999	-56.8399	223.746	-0.378546	5.7255	0.865085	0.0179585	0.925491	-8.47528	0
0.3860	46.4858	12.7369	182.879	-0.378546	5.41987	0.865085	-0.287336	1.23399	-7.85765	0.319736
0.3867	61.7548	115.893	57.7545	0.865247	6.92765	2.69507	1.23914	199.597	-6.03907	0.639472
0.3873	80.7078	209.888	-180.295	1.16268	7.84455	3.61561	1.54443	396.154	-5.73025	0.319736
0.3880	86.4761	250.775	-374.713	0.865247	8.15018	4.22561	0.628548	306.426	-5.42143	0.319736
0.3887	81.2895	209.579	-459.873	2.082	9.67834	6.35505	0.628548	209.998	-2.98522	0.319736
0.3893	65.4388	109.486	-499.237	3.29875	10.5952	6.96504	-0.287336	306.426	-1.16664	0.319736
0.3900	37.3728	-6.793	-626.766	3.59618	10.2896	7.27559	-1.50851	283.509	-1.47545	0.319736
0.3907	3.78091	-100.171	-738.188	3.00133	9.37271	7.88558	-0.592631	238.38	-1.47545	0.319736
0.3913	-24.2851	-155.699	-577.966	1.75753	8.45581	6.96504	-0.592631	223.704	-2.05877	0.639472
0.3920	-34.3675	-199.055	-287.09	1.16268	7.53892	5.74505	-1.50851	-57.3363	-3.91167	0.319736
0.3927	-22.7824	-214.597	-11.2384	0.865247	7.53892	6.35505	-1.20322	-465.39	-4.22048	0
0.3933	-3.2477	-185.624	325.974	0.865247	8.15018	7.88558	0.0179585	-700.949	-3.60285	0.319736
0.3940	15.366	-148.391	543.89	0.243351	7.53892	7.88558	0.0179585	-724.483	-4.22048	0.319736
0.3947	31.556	-103.233	527.724	-0.675974	6.03113	6.05559	-0.897925	-602.406	-6.03907	0.319736
0.3953	44.0621	-49.5066	445.93	-1.5953	5.11424	3.91506	-2.1191	-388.177	-6.96551	0.319736
0.3960	66.9415	-11.0644	362.273	-2.19016	4.80861	3.00562	-2.4244	-171.172	-7.27433	0
0.3967	95.6376	43.5627	298.509	-2.81205	4.80861	3.91506	-1.50851	14.6756	-7.27433	0.319736
0.3973	107.562	101.252	168.516	-2.81205	5.41987	5.74505	-0.592631	162.974	-7.27433	0.639472
0.3980	109.986	102.77	72.3584	-2.51462	6.62202	8.79503	1.23914	160.242	-6.96551	0.639472
0.3987	106.011	98.8073	37.6216	-2.81205	7.23328	10.015	1.23914	36.9315	-6.96551	0.319736
0.3993	71.8372	119.547	-183.36	-2.81205	6.31639	8.49558	-1.50851	110.486	-7.27433	0
0.4000	19.05	86.8938	-458.01	-2.81205	6.31639	7.57504	-2.72969	447.717	-6.34788	0.319736
0.4007	-18.1774	-33.0387	-753.754	-2.81205	6.92765	8.18503	-0.897925	655.247	-5.11262	0.319736
0.4013	-34.9976	-165.168	-907.846	-2.19016	7.23328	9.71557	2.76561	516.688	-4.5293	0.639472
0.4020	-62.1426	-224.684	-565.105	-2.81205	6.62202	9.71557	4.59289	51.2986	-4.8038	0.639472
0.4027	-101.503	-192.031	-17.9694	-4.02881	5.7255	7.88558	2.46032	-537.71	-6.34788	0
0.4033	-95.3952	-103.825	285.407	-4.32623	5.11424	7.57504	0.628548	-800.153	-6.6567	0.319736
0.4040	-47.7946	-15.6445	328.738	-4.02881	5.11424	7.57504	-0.287336	-645.728	-6.6567	0.639472
0.4047	-13.3301	45.6984	252.113	-3.73138	5.7255	7.57504	0.0179585	-354.287	-6.96551	0.319736
0.4053	8.96754	109.794	137.385	-3.73138	7.53892	9.40503	1.54443	-47.2882	-7.85765	0.319736
0.4060	27.5812	167.458	-48.1388	-4.94813	7.84455	9.71557	2.46032	307.615	-9.09291	0.319736
0.4067	31.556	141.238	-211.426	-5.54299	5.7255	6.96504	0.933842	582.883	-9.71054	0.319736
0.4073	19.05	29.5393	-2.70443	-5.24556	4.19734	4.52506	0.0179585	609.458	-9.71054	0.319736
0.4080	5.28358	-69.9628	427.9	-4.02881	4.50297	5.13506	0.323253	422.685	-8.78409	0.319736
0.4087	10.5187	-76.061	658.918	-3.10948	3.58608	5.13506	0.323253	149.841	-7.85765	0.319736
0.4093	30.3442	-25.7053	668.113	-3.40691	2.05792	4.52506	-0.897925	-27.7647	-7.58314	0
0.4100	58.4102	6.02107	442.564	-2.81205	2.05792	5.13506	-0.897925	10.0923	-6.03907	0.319736
0.4107	73.3399	28.9217	-14.3034	-1.89273	2.36355	6.35505	-0.592631	141.336	-3.91167	0.639472
0.4113	31.2652	38.3907	-440.341	-1.89273	2.97482	6.66559	-2.1191	131.552	-3.60285	0.319736
0.4120	-18.8076	-15.0269	-568.17	-1.89273	3.28045	6.66559	-1.50851	59.8484	-4.22048	0
0.4127	-11.4881	-81.8505	-435.713	-1.5953	2.66918	6.96504	0.933842	150.15	-4.22048	0
0.4133	-7.2225	-105.961	-262.389	-1.27083	2.05792	8.18503	1.84973	101.628	-2.36759	0
0.4140	-41.3961	-108.714	-139.729	-1.27083	2.05792	8.79503	2.15502	-279.807	-1.78427	0.319736
0.4147	-81.0471	-79.4061	-13.3418	-1.89273	1.14103	6.66559	0.0179585	-535.551	-3.29404	0.639472
0.4153	-97.528	-29.3591	155.715	-2.51462	0.529762	5.74505	-1.20322	-487.337	-3.91167	0.639472
0.4160	-72.225	15.7989	282.643	-2.51462	0.835393	6.35505	0.323253	-357.019	-3.29404	0.319736
0.4167	-26.4179	65.8458	280.84	-2.19016	0.529762	6.05559	-0.287336	-251.425	-3.29404	0.319736
0.4173	7.12556	125.362	284.506	-1.89273	0.22413	6.05559	-0.287336	-194.397	-2.36759	0.319736
0.4180	27.2904	189.432	349.472	-0.973403	0.529762	6.35505	2.76561	-128.775	-1.16664	0.319736
0.4187	39.5056	196.457	131.255	-0.675974	0.22413	6.66559	4.28759	-62.2282	-1.16664	0
0.4193	37.0335	111.313	-284.686	-2.51462	-0.387134	7.27559	2.76561	-91.2269	-1.78427	0.319736
0.4200	10.8095	8.77429	-360.35	-4.02881	-0.692765	7.88558	2.15502	-90.6099	-2.36759	0.319736
0.4207	-21.5706	-27.841	-194.659	-3.40691	-0.387134	8.79503	4.59289	-53.6785	-2.36759	0
0.4213	-31.6045	-20.5077	-83.8372	-2.51462	0.22413	9.71557	6.11936	-165.09	-1.47545	0.319736
0.4220	-23.0732	-47.3709	-10.6374	-2.19016	0.22413	9.71557	5.20348	-262.443	-1.47545	0.319736
0.4227	-15.1236	-85.53	13.7625	-2.19016	-0.0815018	8.49558	3.37171	-178.532	-1.78427	0
0.4233	-15.1236	-77.5791	-16.4069	-3.40691	-0.387134	7.27559	2.76561	-77.2124	-1.78427	0.639472
0.4240	-17.5958	-52.2598	-36.2393	-4.02881	-1.30403	6.35505	2.15502	-60.1128	-2.05877	0.639472
0.4247	-18.1774	-35.7662	-29.5684	-2.81205	-1.30403	6.96504	1.23914	-76.2869	-1.16664	0.319736
0.4253	-9.64616	-22.6433	-25.3014	-1.5953	0.835393	8.49558	2.15502	-86.335	0.686257	0.319736
0.4260	8.6767	-13.2	-22.2364	-2.19016	0.529762	6.96504	1.54443	-63.1537	0.0686257	0.319736
0.4267	2.56908	-0.0771932	8.89456	-3.73138	-1.91529	3.00562	-0.897925	-15.2486	-1.78427	0.319736
0.4273	-32.5255	18.2433	70.5555	-3.73138	-2.83219	2.69507	-0.592631	20.7574	-2.36759	0
0.4280	-42.3171	30.1311	110.521	-3.10948	-1.91529	3.30507	0.628548	32.3481	-1.78427	0.319736
0.4287	-21.5706	28.9217	98.0204	-2.51462	-1.91529	3.00562	0.323253	43.9828	-0.549006	0.319736
0.4293	-5.38052	20.379	60.459	-1.27083	-1.91529	3.61561	1.54443	53.7225	0.686257	0.319736
0.4300	-2.03587	10.0094	65.988	-0.0540779	-2.22092	3.30507	2.46032	33.5821	1.26958	0
0.4307	-2.03587	-6.48423	188.048	0.865247	-2.22092	2.08508	0.933842	13.1332	1.57839	0.319736
0.4313	6.54388	-21.1252	341.539	2.082	-2.83219	1.16454	-1.81381	11.6347	2.50484	0.319736
0.4320	17.8381	-15.9275	381.504	2.37943	-3.44345	1.16454	-3.03499	7.05136	2.81366	0.319736
0.4327	22.6854	-1.9041	360.77	1.75753	-3.13782	1.16454	-1.81381	41.5149	3.12247	0.639472
0.4333	25.4484	5.73803	317.139	1.75753	-2.83219	1.77453	-1.20322	126.351	3.12247	0.319736
0.4340	31.2652	11.2187	95.8569	3.00133	-2.52656	2.08508	-0.897925	171.833	3.43129	0.319736
0.4347	34.9007	16.7252	-181.197	3.59618	-1.91529	2.08508	0.323253	194.089	3.43129	0.639472
0.4353	31.2652	28.6129	-202.291	3.00133	-1.91529	1.77453	1.54443	249.662	2.50484	0.639472
0.4360	25.1576	34.1194	-95.4362	0.243351	-3.44345	0.255089	0.323253	217.622	0.96076	0.319736
0.4367	25.4484	13.6632	-72.8993	-1.27083	-4.36035	1.16454	0.933842	51.2986	0.96076	0.319736
0.4373	25.1576	-6.48423	-76.5653	-0.675974	-3.44345	4.8356	5.50877	-76.9039	3.43129	0.319736
0.4380	16.5778	-13.7918	-64.3653	-0.973403	-2.83219	5.74505	7.64583	-93.9593	3.7401	0.639472
0.4387	5.91373	-17.4714	-43.2708	-0.378546	-1.91529	6.35505	6.72995	-58.5703	3.7401	0.319736
0.4393	-4.45953	-16.5451	-13.7024	0.243351	-0.998397	7.27559	5.20348	-11.8992	4.63224	0.319736
0.4400	-6.88319	-21.7427	6.13003	-0.973403	-1.91529	6.35505	3.37171	2.77647	4.01461	0.319736
0.4407	3.49007	-27.2235	18.6906	-0.973403	-0.998397	6.66559	4.59289	-4.84781	3.43129	-0.319736
0.4413	9.59769	-22.3603	34.857	-0.0540779	0.835393	8.79503	6.42466	-3.34939	4.01461	-0.319736
0.4420	8.6767	-17.7802	44.8935	-1.5953	0.529762	8.79503	5.20348	0	3.12247	0.319736
0.4427	9.25838	-15.6445	42.79	-3.10948	-0.692765	7.88558	3.06642	-6.69879	2.19602	0.319736
0.4433	9.59769	-11.3731	34.857	-2.81205	-1.30403	6.35505	0.933842	-19.8319	2.19602	0.319736
0.4440	7.75571	-4.65732	27.8255	-2.19016	-2.83219	2.69507	-1.20322	-21.0219	2.19602	0.639472
0.4447	10.8095	2.36726	23.5586	-0.378546	-2.83219	-0.0554542	0.323253	-5.4648	2.19602	0.639472
0.4453	16.5778	9.08306	19.8926	1.16268	-2.22092	0.865085	3.06642	16.174	3.43129	0.319736
0.4460	15.0752	16.7252	15.3251	0.243351	-3.13782	0.255089	2.15502	36.623	3.7401	0.319736
0.4467	13.8633	23.1322	13.7625	-0.0540779	-4.05471	-0.964902	0.628548	52.2241	2.81366	0.319736
0.4473	16.5778	25.2679	17.729	1.16268	-3.13782	-0.964902	1.23914	64.6962	3.7401	0
0.4480	11.7305	22.5147	24.1595	0.865247	-3.74908	-2.18489	0.0179585	66.2387	4.01461	0.319736
0.4487	5.62289	15.4901	28.126	1.4601	-3.44345	-2.49544	-2.1191	52.4885	3.7401	0.319736
0.4493	4.41106	9.70061	28.126	4.21808	-0.998397	-0.354907	-1.50851	37.857	5.8675	0.639472
0.4500	1.01794	9.39184	27.2246	4.21808	-0.998397	-0.354907	-2.1191	33.5821	6.48513	0.319736
0.4507	1.93893	10.6012	27.2246	3.29875	-1.91529	-0.66545	-2.72969	39.091	5.8675	0.319736
0.4513	7.46487	9.70061	26.9241	3.00133	-0.998397	0.865085	-1.50851	46.0982	6.17632	0.319736
0.4520	7.12556	6.32984	26.3231	0.540779	-1.30403	1.16454	-2.4244	48.8306	4.32342	0.319736
0.4527	6.20457	2.67603	26.9241	-1.5953	-0.692765	2.39562	-0.287336	46.0982	1.88721	0.319736
0.4533	8.33739	0.23158	29.0275	-2.51462	0.835393	5.4456	5.50877	42.4404	0.96076	0.639472
0.4540	6.83472	-1.9041	29.9891	-4.32623	2.36355	7.27559	7.64583	39.091	-0.549006	0.319736
0.4547	5.62289	-4.03978	30.8906	-5.24556	4.19734	9.40503	7.34054	33.5821	-1.78427	0.319736
0.4553	8.96754	-4.96609	32.6935	-4.32623	5.7255	11.235	7.34054	26.8833	-0.549006	0.319736
0.4560	8.04655	-5.24914	33.9556	-4.02881	4.80861	10.015	4.89818	18.642	-0.24019	0.319736
0.4567	5.62289	-6.793	35.1575	-3.10948	4.80861	9.10557	2.46032	12.8247	-0.24019	0
0.4573	7.12556	-6.793	37.261	-0.973403	5.11424	7.88558	2.76561	11.6347	1.26958	0.319736
0.4580	5.91373	-0.97778	37.261	-0.378546	3.58608	4.52506	1.23914	9.47526	1.26958	0.319736
0.4587	5.28358	8.15675	33.9556	-0.0540779	2.97482	3.61561	0.323253	11.3262	0.96076	0
0.4593	6.83472	16.1076	26.3231	1.16268	4.19734	3.91506	0.933842	22.9169	1.26958	0.319736
0.4600	4.7019	19.4527	19.8926	0.540779	3.89171	2.08508	-1.50851	35.7416	0.686257	0.319736
0.4607	2.56908	18.8609	17.729	0.243351	3.58608	1.77453	-0.287336	43.9828	0.686257	0.319736
0.4613	3.15076	16.4164	15.9261	0.540779	5.11424	4.52506	3.677	47.6407	2.81366	0.319736
0.4620	0.436259	12.4538	15.9261	0.243351	5.11424	6.05559	3.37171	43.9828	4.63224	0.319736
0.4627	-4.75037	9.39184	18.6906	-0.973403	3.58608	5.4456	0.323253	40.0164	5.24987	0.639472
0.4633	-5.67136	10.6012	18.6906	-1.27083	3.58608	6.05559	-0.592631	45.1728	5.55868	0.639472
0.4640	-2.90839	13.6632	14.4236	-0.973403	3.89171	7.27559	0.0179585	54.648	5.24987	0.319736
0.4647	1.01794	16.1076	13.1615	-0.973403	3.89171	8.18503	1.23914	56.1905	5.8675	0.319736
0.4653	3.15076	16.7252	16.8275	-0.378546	5.11424	9.40503	2.46032	47.3322	7.68608	0.319736
0.4660	0.727098	13.972	17.4285	-0.0540779	5.7255	9.71557	2.46032	39.708	6.75964	0.319736
0.4667	-1.40572	11.2187	16.2266	0.243351	6.31639	9.71557	3.677	40.0164	5.8675	0.319736
0.4673	-0.775571	10.6012	16.8275	0.243351	6.92765	9.10557	6.42466	40.5894	5.55868	0
0.4680	-0.775571	9.39184	16.5271	-0.0540779	6.31639	6.66559	6.42466	35.7416	3.7401	0
0.4687	0.727098	9.70061	17.729	0.865247	6.62202	7.27559	8.25642	28.9987	4.01461	0.319736
0.4693	2.27824	9.70061	18.9911	0.243351	7.53892	7.57504	10.6988	21.6829	4.63224	0
0.4700	-2.03587	6.94739	16.5271	-2.51462	5.41987	3.30507	8.56172	14.0586	1.26958	0
0.4707	-2.61755	6.63861	16.5271	-3.40691	5.11424	2.08508	7.95113	16.4825	0.96076	0.639472
0.4713	-2.32671	8.15675	17.729	-3.40691	5.7255	2.08508	8.56172	21.6829	1.57839	0.639472
0.4720	-6.30151	6.63861	15.6256	-3.40691	4.19734	-0.964902	8.25642	14.0586	0.377442	0
0.4727	-5.9622	6.02107	15.0246	-1.5953	6.03113	0.865085	11.6147	5.50887	0.96076	0
0.4733	-4.16869	6.02107	13.7625	-0.0540779	8.76144	4.8356	11.92	8.24127	2.50484	0.639472
0.4740	-8.14349	3.88539	9.19505	-0.973403	7.84455	3.91506	3.9823	11.3262	1.57839	0.639472
0.4747	-6.88319	3.60235	9.79603	0.243351	9.06708	4.22561	-0.287336	13.7501	3.12247	0.319736
0.4753	-2.03587	4.19416	11.9596	3.29875	10.2896	4.52506	-1.20322	16.174	6.48513	0.319736
0.4760	-7.2225	2.05848	8.59407	3.00133	6.62202	-1.27545	-9.44169	12.5162	4.63224	0.319736
0.4767	-7.2225	1.74971	11.3586	3.89361	6.31639	-2.18489	-11.884	10.4008	5.55868	0.319736
0.4773	0.0969464	4.81171	21.395	7.57091	9.06708	1.16454	-6.39323	14.3671	9.53898	0.319736
0.4780	-4.75037	3.29358	21.6955	5.73226	6.03113	-2.18489	-8.5258	15.6011	7.9949	0.319736
0.4787	-10.858	2.9848	16.2266	3.59618	3.89171	-4.01488	-9.44169	18.025	6.17632	0.319736
0.4793	-6.88319	9.39184	15.3251	5.43483	6.62202	1.47508	-0.592631	26.5748	8.61253	0
0.4800	-9.01601	12.7369	12.2601	3.59618	5.11424	1.16454	0.628548	28.0732	7.37727	0.319736
0.4807	-12.7	11.5275	9.79603	0.243351	2.66918	-1.88544	-4.25617	21.3744	4.32342	0.319736
0.4813	-6.30151	11.8363	12.861	1.75753	4.80861	2.08508	-0.897925	17.7165	6.48513	0.319736
0.4820	-5.08968	10.6012	14.7241	1.75753	4.80861	3.00562	1.54443	16.4825	7.68608	0.319736
0.4827	-10.858	9.08306	17.128	-1.27083	1.75229	-0.964902	-3.64558	18.025	4.32342	0.319736
0.4833	-11.1488	10.0094	23.2581	-1.27083	1.75229	-0.66545	-5.78264	23.2254	4.32342	0.319736
0.4840	-9.35532	10.6012	24.46	-0.0540779	2.36355	0.255089	-4.86676	20.1404	6.17632	0.319736
0.4847	-13.3301	9.08306	21.0945	-0.973403	0.835393	-2.79489	-7.9197	11.0177	4.32342	0.319736
0.4853	-12.9908	9.08306	22.0561	0.243351	1.44666	-1.88544	-7.9197	13.1332	4.32342	0.319736
0.4860	-11.779	9.70061	21.0945	1.75753	1.75229	-2.18489	-7.30911	20.1404	5.24987	0.319736
0.4867	-17.2565	7.56493	16.5271	1.75753	0.529762	-7.68595	-12.4946	18.642	3.12247	0
0.4873	-21.5706	6.02107	15.6256	2.37943	0.529762	-10.4254	-15.8529	14.9841	2.19602	0.319736
0.4880	-21.8614	6.32984	17.4285	4.51551	1.44666	-10.4254	-15.5476	15.8656	2.81366	0.319736
0.4887	-22.7824	7.25616	18.0896	6.02969	1.44666	-9.20539	-15.2423	18.9505	3.7401	0
0.4893	-25.2061	6.94739	16.8275	4.81294	0.22413	-8.90594	-16.1582	18.642	4.01461	0.319736
0.4900	-26.7572	6.32984	15.6256	3.29875	-1.30403	-9.51593	-15.2423	13.7501	3.7401	0.319736
0.4907	-26.7572	7.25616	15.3251	2.67686	-1.91529	-9.20539	-13.1052	12.8247	3.43129	0.319736
0.4913	-29.4717	8.77429	14.4236	1.4601	-2.22092	-8.90594	-12.1893	21.0659	1.88721	0.319736
0.4920	-33.4465	9.08306	15.0246	-0.0540779	-1.60966	-7.3754	-9.44169	28.3817	0.377442	0.639472
0.4927	-33.7373	9.70061	17.4285	-1.5953	-0.998397	-4.01488	-1.81381	29.9242	-0.549006	0.639472
0.4933	-33.4465	10.2924	19.2916	-2.51462	-0.387134	-1.88544	2.76561	28.0732	-2.05877	0.639472
0.4940	-34.0766	10.0094	19.2916	-3.40691	0.529762	-1.88544	1.54443	25.9578	-3.60285	0.319736
0.4947	-32.5255	9.39184	19.5921	-3.40691	1.75229	0.255089	1.54443	25.3408	-3.60285	0.639472
0.4953	-28.2599	8.77429	20.193	-2.81205	2.66918	3.00562	1.54443	25.0323	-3.60285	0.639472
0.4960	-27.048	7.8737	19.2916	-3.73138	1.44666	0.554542	-4.56146	24.1068	-3.91167	0.319736
0.4967	-29.811	6.02107	16.5271	-5.24556	-0.387134	-4.62488	-12.4946	21.3744	-4.8038	0.319736
0.4973	-27.6297	5.12048	15.9261	-4.02881	-0.0815018	-6.15541	-14.6317	20.4489	-5.42143	0
0.4980	-26.127	5.73803	17.128	-3.10948	0.529762	-6.76541	-14.6317	21.6829	-5.42143	0.319736
0.4987	-29.4717	5.42925	16.8275	-4.32623	0.529762	-7.9854	-16.7688	21.6829	-6.34788	0.319736
0.4993	-27.3389	4.19416	15.3251	-3.10948	1.75229	-9.20539	-17.6846	20.4489	-6.96551	0.319736
0.5000	-21.8614	2.67603	14.4236	-1.89273	2.05792	-10.4254	-16.4635	18.642	-6.96551	0.319736
0.5007	-19.3893	0.540352	12.5606	-4.32623	-0.0815018	-11.9559	-14.937	14.0586	-6.6567	0
0.5013	-15.7538	-0.385966	11.3586	-5.24556	-1.30403	-10.4254	-9.74698	10.0923	-5.11262	0
0.5020	-9.64616	-0.0771932	12.5606	-3.73138	0.529762	-6.15541	0.0179585	11.3262	-2.6764	0.639472
0.5027	-8.14349	-1.28655	11.0581	-3.40691	-0.387134	-7.3754	3.06642	10.4008	-2.6764	0.639472
0.5033	-9.64616	-3.11346	8.29357	-4.32623	-2.52656	-10.4254	0.0179585	6.74286	-3.60285	0.319736
0.5040	-5.67136	-2.83042	9.19505	-2.51462	-1.30403	-8.29594	0.0179585	6.74286	-1.47545	0.639472
0.5047	-1.69656	-3.11346	9.79603	-0.0540779	-0.387134	-7.9854	-0.897925	7.66835	0.0686257	0.639472
0.5053	-2.61755	-3.731	8.59407	-0.0540779	-1.91529	-10.4254	-6.69852	6.12587	-0.549006	0.639472
0.5060	-2.61755	-3.731	7.99308	-0.378546	-2.83219	-11.6454	-11.2735	5.20038	-0.857822	0.639472
0.5067	-2.03587	-4.34855	7.99308	0.243351	-3.13782	-12.5659	-13.4105	4.89188	-0.24019	0.639472
0.5073	-3.53854	-4.96609	7.99308	0.865247	-3.74908	-15.0059	-15.8529	4.89188	-0.549006	0.639472
0.5080	-4.75037	-4.65732	7.3921	1.4601	-3.44345	-15.9153	-17.6846	5.20038	-1.16664	0.639472
0.5087	-3.2477	-4.34855	7.69259	2.082	-2.22092	-14.6954	-17.9899	6.74286	-0.857822	0.639472
0.5093	-15.4629	-4.65732	7.99308	-0.378546	-2.52656	-13.7859	-17.0741	6.43436	-3.29404	0.319736
0.5100	-37.1305	-5.86668	7.09161	-4.6507	-3.44345	-12.5659	-14.3264	4.58338	-6.34788	0.319736
0.5107	-24.5759	-5.24914	8.89456	-4.94813	-1.60966	-9.81539	-9.74698	6.12587	-6.6567	0.639472
0.5113	1.35725	-4.96609	9.79603	-4.94813	-0.692765	-9.20539	-9.74698	7.66835	-7.27433	0.639472
0.5120	1.35725	-6.48423	8.59407	-5.54299	-0.998397	-9.81539	-11.884	9.16676	-8.47528	0.639472
0.5127	10.8095	-6.793	7.99308	-5.54299	-0.0815018	-8.5954	-10.6629	12.5162	-9.09291	0.639472
0.5133	23.9457	-7.69359	6.49062	-5.86746	0.529762	-7.3754	-10.6629	16.174	-10.3282	0.319736
0.5140	30.9259	-8.61991	4.92807	-6.46231	-0.0815018	-6.76541	-7.61441	21.6829	-10.6027	0.319736
0.5147	69.7044	-7.69359	4.92807	-6.46231	0.22413	-5.84487	-0.287336	28.9987	-9.71054	0.319736
0.5153	111.488	-8.00236	2.82462	-7.67907	-0.692765	-7.68595	-1.81381	32.6566	-10.9115	0
0.5160	128.309	-9.23745	0.0600984	-9.22029	-2.22092	-9.51593	-6.69852	35.4331	-13.0732	0.319736
0.5167	145.08	-8.92868	-0.841377	-7.38164	-1.30403	-7.68595	-1.50851	39.091	-11.2203	0.319736
0.5173	156.374	-8.92868	-2.70443	-5.54299	-0.998397	-7.3754	0.628548	39.091	-10.0194	0
0.5180	123.122	-9.23745	-3.6059	-5.54299	-1.30403	-10.1259	-5.78264	35.4331	-11.5291	0.319736
0.5187	63.306	-6.17545	0.661082	-2.81205	0.835393	-8.90594	-7.9197	34.1991	-10.3282	0.639472
0.5193	41.2991	-1.59533	5.82954	-0.973403	2.36355	-7.68595	-7.30911	34.8161	-7.85765	0.319736
0.5200	13.524	1.1579	7.3921	-4.32623	-0.387134	-12.5659	-15.2423	32.6566	-10.6027	0.319736
0.5207	-41.9778	6.32984	12.861	-6.46231	-0.387134	-14.0854	-20.4278	32.9651	-12.7644	0.639472
0.5213	-114.639	16.7252	24.7605	-5.24556	3.58608	-9.51593	-21.9543	38.474	-10.0194	0.639472
0.5220	-232.72	24.9591	34.857	-6.78678	3.89171	-10.4254	-35.9933	40.5894	-9.71054	0.319736
0.5227	-267.814	28.3042	40.927	-8.30096	2.05792	-14.0854	-46.6742	39.3995	-11.8379	0.319736
0.5233	-150.315	31.3662	44.2925	-5.86746	3.58608	-11.3459	-46.0636	39.091	-10.0194	0.319736
0.5240	-35.2885	30.1311	42.189	-4.6507	4.80861	-9.20539	-50.0324	31.4667	-7.85765	0.319736
0.5247	-7.80418	22.5147	33.2945	-6.46231	2.05792	-13.1759	-72.3099	15.8656	-10.3282	0.319736
0.5253	-9.01601	14.2807	23.5586	-7.08421	0.835393	-13.7859	-113.507	3.08497	-10.9115	0.639472
0.5260	2.56908	6.32984	13.1615	-5.54299	1.44666	-10.1259	-132.431	-10.6652	-9.40173	0.319736
0.5267	8.33739	-3.731	0.36059	-6.78678	-0.998397	-11.9559	-111.679	-30.4971	-11.5291	0.319736
0.5273	26.6602	-11.3731	-8.77436	-8.30096	-2.52656	-13.7859	-85.1278	-44.8643	-13.382	0.639472
0.5280	62.0941	-15.0269	-13.0413	-5.86746	0.22413	-9.81539	-64.9874	-50.0206	-10.0194	0.639472
0.5287	35.5308	-19.9158	-18.5704	-5.54299	0.22413	-9.51593	-48.2006	-59.4958	-9.40173	0.319736
0.5293	-50.2182	-25.3966	-21.9359	-8.00354	-2.83219	-13.1759	-30.1972	-68.3541	-12.7644	0.319736
0.5300	-86.2338	-24.779	-18.2699	-8.30096	-3.74908	-14.0854	-3.03499	-65.2691	-13.382	0.319736
0.5307	-60.5915	-22.9521	-14.0029	-7.08421	-2.22092	-12.8654	25.6537	-59.1873	-11.2203	0
0.5313	-50.2182	-22.6433	-13.7024	-7.08421	-2.52656	-12.2554	41.8254	-57.9533	-10.3282	0.319736
0.5320	-52.9812	-22.0515	-14.9044	-7.38164	-4.05471	-12.2554	51.8956	-56.7634	-11.2203	0.319736
0.5327	-43.8198	-19.9158	-12.1399	-5.86746	-3.74908	-11.6454	60.7447	-52.4885	-10.9115	0.319736
0.5333	-34.3675	-17.4714	-8.77436	-5.24556	-3.74908	-11.9559	50.3691	-45.4372	-10.6027	0.319736
0.5340	-18.8076	-14.4094	-5.40885	-6.16489	-4.66598	-12.5659	33.5869	-37.5044	-11.2203	0.319736
0.5347	-16.0446	-11.6562	-2.70443	-5.86746	-4.97161	-12.5659	31.7551	-30.8056	-10.9115	0.319736
0.5353	-25.4969	-9.82927	-1.80295	-5.54299	-5.27724	-11.6454	42.436	-25.9137	-10.3282	0.639472
0.5360	-15.4629	-6.793	0.0600984	-5.54299	-4.97161	-10.1259	63.187	-20.7134	-9.71054	0.639472
0.5367	-9.937	-4.03978	4.62757	-4.02881	-4.36035	-9.81539	63.7976	-17.981	-9.40173	0.319736
0.5373	-58.798	-1.28655	9.49554	-2.81205	-4.05471	-10.1259	34.5028	-17.364	-9.09291	0.319736
0.5380	-105.768	2.05848	14.4236	-2.51462	-3.44345	-10.4254	21.3796	-17.0555	-8.78409	0.319736
0.5387	-99.0792	5.73803	19.8926	-2.19016	-2.83219	-9.51593	29.3128	-16.174	-7.85765	0.319736
0.5393	-85.6521	7.56493	21.0945	-3.10948	-4.36035	-9.81539	21.0743	-14.9401	-8.78409	0.639472
0.5400	-85.6521	8.15675	18.9911	-4.32623	-5.27724	-10.1259	5.81407	-14.3231	-9.09291	0.319736
0.5407	-93.2624	10.0094	20.4935	-4.02881	-4.05471	-8.29594	4.59289	-15.2486	-7.85765	0.319736
0.5413	-93.5532	9.70061	20.794	-4.6507	-3.44345	-6.76541	5.50877	-15.8656	-8.16646	0.639472
0.5420	-82.5983	6.02107	15.0246	-5.54299	-3.74908	-5.54542	0.933842	-14.3231	-8.78409	0.639472
0.5427	-99.0792	2.36726	9.19505	-5.86746	-3.74908	-4.01488	-2.1191	-11.8992	-9.40173	0.639472
0.5433	-136.888	-0.385966	4.32708	-5.54299	-3.13782	-3.71543	0.323253	-6.39029	-9.71054	0.639472
0.5440	-120.407	-4.03978	-2.40393	-6.16489	-2.52656	-3.71543	2.15502	-1.49841	-10.0194	0.639472
0.5447	-41.0568	-6.17545	-7.57239	-6.46231	-2.22092	-4.62488	0.933842	0.308497	-10.6027	0.639472
0.5453	5.91373	-5.24914	-7.2719	-5.24556	-1.60966	-4.62488	3.677	3.08497	-10.0194	0.319736
0.5460	-14.8328	-4.65732	-6.37043	-4.94813	-1.60966	-4.93542	19.5478	6.12587	-9.40173	0.319736
0.5467	-35.5793	-4.65732	-6.37043	-5.86746	-2.52656	-6.15541	49.4532	8.24127	-10.3282	0.319736
0.5473	-21.5706	-3.42223	-4.80787	-4.6507	-1.30403	-4.62488	70.2088	11.8992	-9.40173	0.639472
0.5480	-2.90839	-1.59533	-1.14187	-2.81205	-0.0815018	-1.88544	55.8644	11.6347	-7.85765	0.639472
0.5487	10.1794	1.74971	4.02659	-3.40691	-0.998397	-2.18489	24.7378	9.78376	-8.78409	0.639472
0.5493	50.4606	5.42925	7.09161	-4.6507	-1.60966	-3.71543	4.28759	11.3262	-10.3282	0.319736
0.5500	97.1887	8.77429	11.3586	-4.32623	0.22413	-3.10543	-2.4244	16.4825	-9.40173	0.319736
0.5507	98.9822	14.2807	18.0896	-4.32623	1.75229	-2.49544	-1.20322	23.2254	-8.16646	0.639472
0.5513	101.454	19.7615	26.0226	-4.6507	1.75229	-2.49544	0.628548	27.8088	-8.47528	0.319736
0.5520	132.283	24.0328	34.2561	-4.02881	3.58608	-0.354907	3.677	29.9242	-7.58314	0.319736
0.5527	119.438	23.724	34.2561	-3.40691	4.19734	0.255089	7.03525	27.8088	-6.34788	0.639472
0.5533	70.2861	19.7615	26.9241	-4.02881	2.05792	-0.964902	7.34054	22.6084	-7.27433	0.639472
0.5540	54.7262	20.0702	25.061	-3.40691	1.75229	1.16454	8.25642	21.0659	-7.85765	0.319736
0.5547	73.6792	20.0702	23.859	-2.51462	3.28045	4.22561	11.3094	16.174	-6.34788	0.319736
0.5553	105.72	11.8363	15.3251	-3.10948	2.97482	3.91506	6.42466	-3.34939	-5.73025	0.319736
0.5560	134.998	1.1579	4.32708	-3.10948	0.835393	2.39562	-9.44169	-27.4562	-6.34788	0.319736
0.5567	152.4	-4.34855	-2.10344	-2.51462	0.22413	2.39562	-23.4808	-37.1959	-6.03907	0.319736
0.5573	177.751	-6.17545	-6.67092	-2.19016	1.44666	2.69507	-28.9761	-34.772	-3.91167	0.639472
0.5580	198.788	-8.61991	-13.0413	-1.89273	1.14103	2.39562	-33.551	-33.8465	-3.29404	0.639472
0.5587	200.921	-10.138	-17.9694	-0.378546	1.44666	4.22561	-35.0775	-32.6566	-2.6764	0.639472
0.5593	212.216	-11.0644	-21.3349	0.243351	2.05792	5.13506	-30.8078	-25.2967	-2.05877	0.319736
0.5600	232.671	-13.5088	-26.2029	-1.5953	0.529762	3.00562	-29.8919	-19.2149	-3.29404	0.639472
0.5607	197.286	-15.9275	-28.6068	-2.51462	-0.0815018	2.08508	-31.7192	-20.1404	-3.60285	0.319736
0.5613	114.542	-15.6445	-26.2029	-2.19016	-0.0815018	2.69507	-29.5866	-22.5643	-2.98522	0
0.5620	68.1533	-12.5825	-22.8374	-2.19016	-0.0815018	3.30507	-24.0913	-20.7134	-2.98522	0.319736
0.5627	40.4266	-9.23745	-21.6354	-1.89273	0.22413	3.30507	-17.3793	-18.598	-2.6764	0.639472
0.5633	-9.937	-5.24914	-18.8709	-0.675974	0.835393	5.13506	-9.74698	-15.8656	-1.47545	0.639472
0.5640	-26.127	-2.52164	-15.8059	-1.5953	0.529762	4.8356	-5.17205	-11.2822	-1.78427	0.319736
0.5647	55.0655	-1.9041	-14.6039	-2.51462	-0.0815018	3.61561	0.628548	-5.7733	-2.6764	0.319736
0.5653	183.229	1.46667	-11.2384	-0.675974	1.14103	6.35505	13.4464	3.39347	-1.16664	0.319736
0.5660	265.003	3.60235	-9.07485	-1.27083	1.44666	6.05559	20.4637	8.54977	-1.47545	0.319736
0.5667	296.462	3.29358	-9.37534	-2.81205	0.529762	3.30507	27.481	7.35985	-2.6764	0.319736
0.5673	311.392	6.02107	-5.10836	-1.89273	2.05792	6.05559	52.5062	6.74286	-1.16664	0.639472
0.5680	259.816	10.0094	2.82462	-0.675974	4.80861	9.71557	69.9035	5.81737	0.96076	0.319736
0.5687	100.824	11.5275	7.09161	-2.81205	3.89171	5.74505	53.7274	1.23399	-0.549006	0.319736
0.5693	-74.3578	13.972	11.9596	-4.32623	2.66918	3.61561	31.7551	-1.49841	-1.78427	0.639472
0.5700	-171.401	18.8609	20.193	-1.89273	4.50297	7.57504	19.5478	0.925491	1.26958	0.639472
0.5707	-235.192	18.8609	21.395	-1.5953	4.50297	6.05559	6.42466	-2.11541	2.19602	0.639472
0.5713	-321.232	13.6632	14.7241	-2.19016	2.66918	2.39562	-3.95087	-12.7806	0.96076	0.639472
0.5720	-361.513	9.39184	9.79603	0.243351	4.19734	5.74505	-3.64558	-18.598	3.12247	0.319736
0.5727	-331.314	6.32984	6.79111	1.16268	5.41987	8.49558	-1.81381	-20.1404	4.63224	0.319736
0.5733	-270.577	0.540352	0.961574	-0.973403	2.66918	5.4456	-7.30911	-24.9882	2.50484	0.319736
0.5740	-166.215	-4.96609	-3.6059	-1.27083	1.75229	4.52506	-10.0523	-32.0396	2.19602	0.319736
0.5747	-55.7442	-8.31113	-5.10836	0.540779	3.58608	7.57504	-4.56146	-37.5044	4.01461	0.319736
0.5753	-0.484732	-12.2737	-10.0364	0.540779	2.66918	6.66559	-1.81381	-43.9388	3.12247	0.319736
0.5760	35.5308	-15.3357	-19.1714	-1.5953	0.835393	4.22561	-1.81381	-46.6712	1.26958	0.319736
0.5767	73.3399	-14.1006	-21.3349	-1.27083	2.36355	6.35505	5.50877	-40.2809	2.50484	0.319736
0.5773	77.654	-11.9649	-17.9694	-0.0540779	3.58608	7.88558	12.2253	-33.2295	2.81366	0.639472
0.5780	67.8624	-11.9649	-18.2699	-0.378546	2.66918	6.35505	11.6147	-31.4226	1.26958	0.639472
0.5787	79.7868	-11.9649	-18.8709	-0.973403	2.05792	5.74505	13.7517	-28.9546	0.96076	0.319736
0.5793	97.4796	-9.52049	-15.5054	-0.675974	3.28045	6.66559	19.2425	-22.5643	1.57839	0.319736
0.5800	124.043	-6.48423	-12.7409	-0.675974	2.97482	5.13506	23.5167	-15.8656	0.686257	0.319736
0.5807	150.897	-2.52164	-8.77436	-0.675974	3.28045	4.52506	35.4187	-8.24127	0.686257	0.319736
0.5813	101.745	1.46667	-3.30541	1.16268	5.11424	5.74505	45.1836	-2.4239	2.81366	0.639472
0.5820	-56.035	2.05848	-1.44236	2.082	4.50297	4.8356	33.8922	-1.80691	2.81366	0.639472
0.5827	-234.562	2.05848	0.0600984	4.51551	2.97482	4.52506	18.9372	-2.11541	1.88721	0.319736
0.5833	-309.938	1.74971	1.56256	6.35416	2.05792	4.22561	11.92	-1.49841	1.88721	0.319736
0.5840	-260.204	0.540352	1.26207	5.73226	1.44666	4.52506	10.3935	-0.308497	1.57839	0.319736
0.5847	-158.895	0.540352	2.52413	5.1374	2.05792	7.27559	12.8358	1.85098	1.26958	0.319736
0.5853	-82.5983	0.540352	2.82462	3.59618	2.05792	8.79503	11.92	-1.49841	0.686257	0.639472
0.5860	-56.6651	-0.97778	1.56256	0.865247	0.835393	8.49558	8.56172	-11.8992	-0.24019	0.639472
0.5867	-56.3258	-1.9041	1.86305	-2.51462	0.22413	8.79503	6.11936	-18.9065	-0.857822	0.319736
0.5873	-66.4082	-1.59533	2.82462	-4.32623	0.529762	8.79503	5.20348	-14.6316	-1.16664	0.319736
0.5880	-77.4117	-1.28655	2.52413	-5.54299	-0.0815018	8.18503	4.28759	-9.43119	-1.78427	0.639472
0.5887	-97.8189	-0.385966	4.02659	-6.16489	-0.692765	7.57504	2.46032	-7.62428	-2.98522	0.319736
0.5893	-134.174	2.67603	6.79111	-5.24556	-0.998397	7.27559	0.933842	-5.1563	-1.78427	0.319736
0.5900	-131.12	4.19416	7.09161	-4.32623	-1.30403	7.57504	0.933842	-3.96639	-0.549006	0.319736
0.5907	-85.3128	2.36726	4.62757	-5.54299	-1.91529	6.96504	0.0179585	-6.08179	-1.16664	-0.319736
0.5913	-31.0228	2.36726	5.52905	-6.78678	-1.30403	7.57504	0.933842	-5.4648	-2.05877	0
0.5920	45.6133	5.42925	7.99308	-9.22029	1.14103	9.10557	5.20348	-1.18992	-2.05877	0.319736
0.5927	108.144	6.02107	6.79111	-12.5731	1.14103	7.27559	4.59289	0.308497	-3.91167	0.319736
0.5933	94.7166	3.60235	1.26207	-14.0873	-0.387134	4.22561	1.23914	-1.49841	-4.8038	0.319736
0.5940	19.3408	2.05848	-3.00492	-12.5731	-0.387134	3.91506	3.06642	-1.49841	-2.98522	0.319736
0.5947	-57.5377	-0.385966	-4.50738	-8.30096	-0.387134	2.39562	5.81407	-2.7324	-0.857822	0.319736
0.5953	-83.18	-3.731	-7.87289	-3.40691	-1.60966	-1.27545	4.59289	-7.62428	0.377442	0.319736
0.5960	-52.6903	-6.17545	-12.7409	2.37943	-1.60966	-3.10543	2.76561	-10.9737	2.50484	0.639472
0.5967	-1.11488	-6.48423	-16.1064	9.08509	-0.692765	-3.10543	3.06642	-9.12269	4.94105	0.639472
0.5973	33.0587	-4.96609	-17.0078	12.465	-0.998397	-3.40489	2.76561	-3.96639	6.17632	0.639472
0.5980	28.5022	-3.731	-17.0078	10.6263	-0.998397	-4.32542	0.933842	-1.49841	4.63224	0.639472
0.5987	1.35725	-2.21287	-13.3418	8.49024	0.835393	-2.18489	1.84973	-1.18992	2.50484	0.319736
0.5993	-1.40572	-2.21287	-10.0364	6.94902	1.75229	-0.964902	3.06642	-0.308497	1.57839	0.319736
0.6000	45.9041	-3.11346	-10.0364	4.51551	0.529762	-2.18489	1.54443	1.54248	0.0686257	0.639472
0.6007	98.6914	-0.385966	-6.97141	7.27348	2.05792	-0.66545	3.37171	4.89188	1.57839	0.319736
0.6013	48.0369	1.1579	-5.40885	14.601	4.19734	0.865085	6.11936	6.12587	3.12247	0.319736
0.6020	-119.486	-0.0771932	-8.17338	16.1152	2.97482	-1.27545	4.59289	5.50887	1.88721	0.639472
0.6027	-233.35	1.74971	-7.57239	15.4933	2.97482	-1.5749	3.37171	7.35985	1.57839	0.319736
0.6033	-227.824	5.42925	-3.6059	17.332	4.50297	1.16454	5.20348	12.2077	3.12247	0.319736
0.6040	-212.603	7.56493	-0.540885	13.9791	4.50297	3.91506	6.72995	18.642	2.19602	0.639472
0.6047	-185.41	8.77429	-0.841377	4.51551	4.19734	7.27559	7.03525	22.6084	-0.24019	0.639472
0.6053	-96.607	10.0094	-2.40393	0.540779	5.7255	6.96504	7.95113	22.6084	-1.16664	0.639472
0.6060	-10.5672	10.91	-2.70443	0.243351	6.31639	6.35505	7.03525	18.3335	-1.78427	0.639472
0.6067	37.3728	12.4538	-0.240393	-3.10948	4.80861	10.015	4.28759	12.8247	-3.29404	0.319736
0.6073	100.533	16.7252	5.22856	-5.54299	4.19734	12.7655	4.59289	14.0586	-1.78427	0.319736
0.6080	203.054	18.8609	7.3921	-6.46231	3.89171	13.3755	5.81407	19.5675	-0.24019	0.319736
0.6087	272.322	16.4164	3.12511	-5.54299	2.36355	10.625	3.9823	20.7574	-0.857822	0.319736
0.6093	239.991	15.1813	0.661082	-4.02881	1.14103	8.18503	2.76561	19.876	-0.24019	0.319736
0.6100	137.761	14.5895	0.961574	-6.78678	0.835393	7.57504	3.06642	15.2926	0.686257	0.319736
0.6107	48.6186	10.91	-2.70443	-11.6538	0.22413	6.05559	3.06642	5.20038	0.377442	0.319736
0.6113	12.6515	7.25616	-7.57239	-18.6839	0.22413	5.4456	3.06642	-3.0409	-2.6764	0.319736
0.6120	11.1004	5.42925	-9.37534	-31.7978	2.97482	7.57504	4.89818	-6.08179	-7.58314	0.319736
0.6127	12.6515	3.60235	-10.6374	-40.6396	5.41987	6.35505	6.42466	-9.73969	-10.0194	0
0.6133	23.6064	1.1579	-10.6374	-35.4481	3.89171	-0.354907	4.89818	-14.6316	-7.27433	0.319736
0.6140	48.9579	1.74971	-5.10836	-26.3089	2.97482	-4.32542	5.81407	-16.4825	-0.549006	0.319736
0.6147	47.4068	5.42925	3.12511	-18.9814	2.36355	-7.06486	9.7829	-14.6316	7.37727	0.319736
0.6153	24.5274	6.63861	7.3921	-6.46231	-0.998397	-14.3959	7.95113	-12.7806	14.7202	0.319736
0.6160	28.7931	4.19416	6.49062	8.49024	-2.52656	-19.2759	3.677	-13.7061	21.72	0
0.6167	65.4388	0.849125	0.661082	21.0093	-1.60966	-19.5864	3.9823	-14.9401	27.5189	0
0.6173	105.429	-4.34855	-8.17338	29.5536	-3.74908	-24.1558	0.0179585	-19.2149	30.264	0.319736
0.6180	127.678	-8.61991	-13.3418	30.7703	-6.19414	-26.9064	-7.30911	-22.2558	29.063	0.319736
0.6187	144.45	-7.69359	-12.1399	28.3098	-5.88851	-23.8564	-9.74698	-19.5234	26.6268	0.319736
0.6193	179.884	-5.86668	-10.3369	25.8763	-5.58287	-21.4164	-10.0523	-16.174	24.1563	0.639472
0.6200	218.953	-7.10177	-11.2384	22.226	-5.88851	-19.8859	-11.2735	-14.3231	20.5191	0.639472
0.6207	247.94	-6.48423	-12.7409	18.5487	-5.58287	-16.8359	-10.9682	-10.6652	17.7741	0.639472
0.6213	260.446	-4.34855	-13.0413	17.332	-4.36035	-14.6954	-12.1893	-6.39029	15.9212	0.319736
0.6220	188.415	-3.731	-11.5389	15.1959	-2.83219	-14.3959	-14.0211	-3.65789	13.485	0.319736
0.6227	37.6637	-3.42223	-8.77436	10.3018	-3.13782	-14.0854	-11.5787	-5.4648	9.81348	0
0.6233	-57.5377	-0.97778	-6.97141	5.43483	-4.36035	-14.0854	-9.44169	-6.08179	6.75964	0
0.6240	-52.9812	2.36726	-5.40885	3.00133	-4.97161	-12.2554	-9.74698	1.23399	6.17632	0.639472
0.6247	-22.1522	2.67603	-6.67092	6.65159	-4.66598	-10.1259	-7.61441	7.35985	6.48513	0.639472
0.6253	0.436259	1.74971	-8.17338	14.2766	-4.66598	-7.9854	-3.64558	6.43436	7.06845	0.639472
0.6260	15.366	-1.28655	-10.9379	16.7371	-6.8054	-6.45486	-3.64558	-0.308497	4.63224	0.639472
0.6267	-16.3839	-4.65732	-14.3034	15.4933	-8.92445	-5.54542	-3.64558	-8.8142	-0.24019	0.319736
0.6273	-85.9429	-4.03978	-12.4404	15.8178	-8.31318	-4.32542	-0.287336	-12.7806	-2.05877	0.319736
0.6280	-113.088	-3.11346	-10.6374	15.1959	-8.31318	-3.71543	2.15502	-12.4721	-2.6764	0.319736
0.6287	-91.7597	-2.52164	-11.2384	13.0598	-8.61882	-2.18489	3.06642	-9.12269	-4.5293	0.319736
0.6293	-61.5125	-0.385966	-10.9379	12.7624	-8.00755	0.255089	4.89818	-4.53931	-4.22048	0.639472
0.6300	-34.3675	1.74971	-9.37534	12.1405	-6.8054	2.39562	5.81407	-0.572923	-2.6764	0.639472
0.6307	-17.5958	2.67603	-8.77436	10.3018	-7.11103	1.16454	2.46032	1.54248	-2.98522	0.319736
0.6313	5.91373	3.60235	-6.97141	10.9237	-5.88851	2.08508	3.06642	3.08497	-1.78427	0.319736
0.6320	34.319	3.29358	-7.2719	7.86834	-2.83219	6.05559	6.72995	2.15948	-1.47545	0.639472
0.6327	41.9293	1.46667	-10.9379	-4.02881	-2.22092	8.18503	6.11936	-1.18992	-6.96551	0.639472
0.6333	23.3156	0.849125	-11.5389	-11.9512	-1.30403	10.3256	7.95113	-1.49841	-10.0194	0.639472
0.6340	-14.8328	2.67603	-9.07485	-10.7345	1.14103	11.8561	13.7517	0.616994	-7.58314	0.319736
0.6347	-80.4655	2.05848	-9.73593	-16.5478	1.14103	9.71557	15.579	-2.4239	-5.73025	0.319736
0.6353	-166.796	0.540352	-10.0364	-29.0399	-1.30403	7.27559	14.9684	-6.69879	-5.11262	0.319736
0.6360	-214.736	1.1579	-7.57239	-29.6617	-3.13782	5.13506	15.2737	-6.08179	-3.29404	0.319736
0.6367	-174.455	2.36726	-6.37043	-22.9561	-4.36035	1.47508	12.2253	-5.1563	-2.05877	0.639472
0.6373	-85.9429	2.9848	-5.76944	-16.2234	-4.97161	-0.964902	8.86701	-5.1563	-0.549006	0.639472
0.6380	-23.3641	4.19416	-2.70443	-7.38164	-4.05471	-0.354907	10.6988	-1.80691	2.81366	0.319736
0.6387	22.6854	5.12048	-3.00492	-4.94813	-3.44345	0.255089	11.6147	-0.308497	4.32342	0.319736
0.6393	68.7834	1.74971	-10.6374	-15.0066	-4.97161	-3.10543	7.64583	-4.53931	-0.549006	0.319736
0.6400	109.986	-2.52164	-15.5054	-22.6316	-4.97161	-4.32542	7.34054	-6.39029	-5.73025	0.319736
0.6407	135.628	-2.52164	-14.6039	-18.6839	-2.52656	-1.88544	11.3094	-3.34939	-5.11262	0.319736
0.6413	141.396	-1.9041	-15.2049	-15.3311	-0.998397	-1.88544	10.3935	-2.11541	-3.29404	0.319736
0.6420	169.171	-1.9041	-15.8059	-16.8453	-0.692765	-3.40489	9.7829	-2.4239	-3.29404	0.639472
0.6427	217.402	0.23158	-12.4404	-15.6285	0.835393	-1.27545	13.7517	-0.308497	-1.16664	0.639472
0.6433	262.87	0.849125	-12.4404	-11.9512	1.14103	-0.66545	14.3623	2.46797	1.57839	0.319736
0.6440	266.215	-0.97778	-16.4069	-11.0589	-1.60966	-4.62488	10.6988	2.77647	1.57839	0
0.6447	181.387	-0.669008	-14.6039	-8.00354	-0.998397	-3.10543	12.5305	4.27488	3.43129	0.319736
0.6453	63.5968	1.46667	-9.37534	-0.973403	-0.0815018	-0.66545	15.8843	7.05136	6.17632	0.319736
0.6460	6.54388	1.1579	-9.07485	5.1374	-1.91529	-3.40489	13.1411	6.12587	6.48513	0.319736
0.6467	-3.53854	2.9848	-5.76944	9.08509	-1.91529	-3.10543	13.4464	6.43436	7.37727	0.319736
0.6473	-71.8857	7.25616	1.56256	13.6817	-0.0815018	-0.66545	17.1055	8.54977	9.81348	0.639472
0.6480	-174.746	8.15675	3.42561	13.9791	-0.692765	-2.18489	15.579	6.43436	8.92135	0.319736
0.6487	-211.052	6.63861	3.42561	11.5456	-1.30403	-2.79489	12.2253	2.15948	4.63224	0.319736
0.6493	-208.629	6.63861	7.99308	12.1405	0.529762	0.255089	13.1411	1.85098	3.12247	0.319736
0.6500	-208.629	7.56493	13.1615	12.7624	0.529762	0.865085	12.8358	0	1.57839	0.319736
0.6507	-193.069	7.56493	16.2266	10.6263	0.22413	0.554542	10.0882	-7.00729	-1.78427	-0.319736
0.6513	-141.154	8.15675	18.9911	12.7624	3.58608	4.22561	12.2253	-11.8992	0.0686257	0
0.6520	-61.8518	6.32984	16.2266	15.8178	5.7255	6.96504	13.4464	-16.4825	3.12247	0.319736
0.6527	-0.484732	1.46667	8.59407	14.8985	4.19734	4.52506	8.86701	-23.7983	1.57839	0
0.6533	26.0786	-0.0771932	5.82954	15.8178	4.19734	3.61561	7.34054	-23.7983	1.57839	0
0.6540	39.7965	-0.0771932	5.52905	15.4933	6.62202	4.22561	9.17231	-16.174	3.7401	0.319736
0.6547	49.2487	-1.59533	2.52413	10.3018	6.62202	2.08508	7.64583	-10.3567	3.43129	0.319736
0.6553	58.1193	-1.28655	0.36059	6.65159	6.31639	3.00562	7.95113	-4.27488	2.81366	0.319736
0.6560	68.7834	1.74971	2.16354	1.4601	8.76144	7.88558	12.5305	2.77647	1.57839	0.319736
0.6567	79.1567	0.540352	-0.540885	-8.59839	9.06708	7.88558	12.2253	-1.80691	-2.05877	0.319736
0.6573	50.7999	-4.96609	-6.37043	-15.0066	6.03113	4.52506	7.64583	-12.7806	-5.11262	0.319736
0.6580	-49.0064	-4.65732	-4.20689	-19.6033	6.03113	4.22561	8.86701	-11.2822	-3.29404	0.639472
0.6587	-123.461	-2.21287	0.36059	-27.2282	5.41987	2.08508	10.0882	-5.1563	-2.36759	0.639472
0.6593	-117.693	-2.83042	-0.240393	-31.7978	2.66918	-3.10543	6.11936	-4.27488	-3.91167	0.319736
0.6600	-101.794	-2.52164	0.36059	-25.3896	2.36355	-3.40489	7.03525	-2.7324	-1.78427	0.319736
0.6607	-104.557	-1.9041	1.26207	-11.9512	2.36355	-2.79489	9.17231	0.925491	2.50484	0.319736
0.6613	-122.88	-3.731	-2.10344	0.540779	-0.692765	-7.06486	5.50877	2.15948	4.63224	0.319736
0.6620	-126.515	-5.55791	-4.20689	8.49024	-2.52656	-9.20539	3.37171	3.08497	6.17632	0.319736
0.6627	-86.8639	-6.17545	-3.00492	13.6817	-2.22092	-7.3754	5.20348	6.12587	7.68608	0.319736
0.6633	-43.2381	-7.38481	-4.50738	17.332	-3.44345	-8.5954	2.76561	5.50887	6.75964	0.319736
0.6640	-37.1305	-8.92868	-6.37043	19.1706	-4.97161	-9.20539	0.323253	3.39347	4.63224	0.319736
0.6647	-68.5411	-6.48423	-2.40393	21.3067	-3.13782	-4.32542	4.28759	6.74286	4.63224	0.319736
0.6653	-81.0471	-2.83042	1.86305	21.0093	-2.52656	-1.27545	6.11936	9.47526	3.12247	0.319736
0.6660	-41.3961	-1.28655	3.12511	18.2513	-3.13782	-1.88544	3.9823	9.78376	0.686257	0
0.6667	2.27824	1.74971	7.99308	13.9791	-1.30403	0.255089	4.59289	12.5162	-0.549006	0.319736
0.6673	36.1125	5.12048	13.462	7.57091	0.22413	3.30507	5.81407	15.8656	-1.78427	0.639472
0.6680	76.3937	7.25616	13.462	0.865247	0.529762	3.61561	4.59289	14.6756	-4.5293	0.639472
0.6687	91.0811	9.39184	15.6256	-3.73138	2.66918	5.13506	5.81407	12.5162	-5.73025	0.319736
0.6693	75.5212	11.8363	19.2916	-8.59839	4.50297	7.57504	9.4776	13.4416	-4.8038	0
0.6700	85.2643	11.8363	16.8275	-17.1427	2.66918	5.74505	7.34054	13.7501	-6.34788	0.319736
0.6707	139.263	10.91	13.1615	-25.687	0.835393	3.91506	4.28759	13.4416	-7.58314	0.319736
0.6713	197.577	9.70061	11.3586	-27.2282	1.75229	4.8356	5.81407	11.3262	-5.11262	0.319736
0.6720	220.747	6.02107	6.49062	-30.8785	0.529762	3.00562	5.20348	3.39347	-3.60285	0
0.6727	204.266	4.19416	3.12511	-32.0953	-0.998397	-0.66545	2.15502	-2.4239	-1.78427	0
0.6733	125.546	6.32984	3.42561	-19.9007	-0.0815018	-1.5749	3.9823	-1.18992	4.01461	0.319736
0.6740	-32.2347	5.42925	-0.240393	-10.437	-0.387134	-2.79489	6.42466	-0.572923	7.9949	0.639472
0.6747	-197.334	1.74971	-5.10836	-9.22029	-2.22092	-5.23487	3.677	-3.0409	6.48513	0.319736
0.6753	-257.441	0.849125	-3.90639	-5.86746	-1.60966	-4.01488	3.37171	-3.0409	5.55868	0
0.6760	-209.21	0.23158	-2.10344	-2.19016	-0.998397	-2.18489	5.20348	-3.65789	4.32342	0.319736
0.6767	-141.154	-2.52164	-4.20689	-1.89273	-1.60966	-2.79489	2.76561	-9.43119	0.96076	0.319736
0.6773	-97.528	-4.65732	-3.90639	0.243351	-0.998397	-1.5749	2.46032	-12.7806	-0.24019	0
0.6780	-94.1834	-4.34855	-0.240393	5.73226	-0.387134	-0.0554542	5.20348	-9.12269	0.96076	0.319736
0.6787	-104.847	-4.34855	0.661082	9.70699	-2.22092	-1.27545	3.9823	-7.93278	0.0686257	0.319736
0.6793	-79.5445	-5.24914	0.0600984	9.70699	-3.13782	-1.88544	1.84973	-8.8142	-1.16664	0.319736
0.6800	-29.811	-6.17545	0.0600984	6.02969	-3.13782	-0.66545	2.46032	-6.69879	-1.16664	0.319736
0.6807	-12.7	-6.48423	-0.240393	-0.973403	-3.44345	-0.0554542	2.15502	-7.62428	-3.91167	0
0.6813	-52.0602	-6.48423	0.961574	-5.86746	-2.83219	1.77453	1.54443	-9.43119	-6.96551	0
0.6820	-101.212	-5.86668	3.12511	-5.86746	-0.998397	5.74505	3.37171	-5.1563	-5.11262	0.319736
0.6827	-128.648	-5.24914	2.52413	-5.86746	-1.30403	6.35505	3.677	-2.4239	-3.60285	0.319736
0.6833	-127.727	-4.65732	1.86305	-7.38164	-2.22092	3.61561	0.323253	-3.34939	-4.8038	0.319736
0.6840	-70.383	-1.9041	5.22856	-5.24556	-1.30403	4.22561	0.0179585	0.308497	-3.91167	0.639472
0.6847	-14.8328	2.05848	7.69259	-4.94813	-0.998397	4.8356	0.628548	6.43436	-1.78427	0.319736
0.6853	-14.2026	5.73803	6.49062	-8.30096	-1.91529	3.61561	-1.20322	7.93278	-1.47545	0.319736
0.6860	35.1915	8.15675	4.62757	-8.92286	-0.998397	3.61561	-0.592631	7.66835	-1.16664	0.319736
0.6867	162.773	7.25616	3.12511	-7.67907	0.529762	3.91506	0.933842	6.43436	-0.549006	0.319736
0.6873	249.734	1.74971	-3.00492	-5.86746	-0.692765	1.16454	-1.20322	4.27488	-0.549006	0
0.6880	281.193	-3.11346	-9.37534	-3.10948	-2.52656	-1.88544	-3.95087	7.05136	0.686257	0.319736
0.6887	336.404	-1.28655	-7.2719	-0.0540779	-1.91529	-1.27545	-2.1191	15.2926	3.43129	0.319736
0.6893	407.223	1.46667	-4.20689	3.00133	-1.60966	-2.49544	-3.03499	20.4489	4.63224	0.319736
0.6900	458.168	2.67603	-3.30541	4.81294	-2.22092	-4.01488	-4.56146	21.0659	6.17632	0.319736
0.6907	410.907	5.42925	0.36059	6.35416	-1.60966	-2.79489	-1.81381	19.259	8.92135	0
0.6913	212.506	7.56493	3.42561	7.27348	-0.998397	-1.27545	-0.592631	15.6011	8.61253	0
0.6920	58.4102	7.8737	4.92807	6.65159	-1.30403	-1.5749	-2.72969	13.7501	7.06845	0.319736
0.6927	78.5265	7.25616	5.22856	6.35416	-1.30403	-0.66545	-2.4244	14.3671	6.75964	0.639472
0.6933	59.9128	5.42925	4.32708	7.57091	-0.387134	0.865085	-1.20322	12.5162	5.24987	0.319736
0.6940	-102.424	3.29358	4.62757	7.57091	0.22413	1.47508	-1.20322	6.74286	3.12247	0.319736
0.6947	-197.916	-0.385966	1.26207	6.02969	1.14103	4.22561	0.628548	-3.96639	1.26958	0.319736
0.6953	-159.816	-5.55791	-5.76944	7.86834	2.66918	7.27559	3.9823	-17.0555	-0.549006	0.319736
0.6960	-123.461	-9.52049	-11.5389	12.1405	2.66918	7.57504	4.59289	-23.7983	-2.05877	0.319736
0.6967	-121.959	-11.3731	-14.0029	14.2766	1.44666	7.27559	3.37171	-23.1813	-3.91167	0.319736
0.6973	-120.117	-10.4468	-13.0413	14.8985	1.75229	8.49558	4.28759	-23.4898	-5.11262	0.319736
0.6980	-113.427	-10.138	-10.3369	13.9791	2.05792	8.18503	5.20348	-28.9546	-5.73025	0.639472
0.6987	-100.291	-10.138	-6.97141	11.5456	2.05792	7.88558	5.50877	-34.4635	-7.27433	0.639472
0.6993	-91.4204	-9.52049	-5.76944	10.6263	2.97482	9.71557	6.11936	-32.921	-8.78409	0.319736
0.7000	-89.9177	-9.52049	-7.57239	7.86834	3.89171	11.235	6.72995	-24.4153	-10.0194	0.639472
0.7007	-81.6773	-10.138	-10.9379	-0.675974	2.66918	10.3256	5.50877	-15.5571	-13.382	0.319736
0.7013	-74.0185	-9.52049	-12.1399	-8.92286	1.14103	9.10557	3.677	-9.12269	-17.0192	0.319736
0.7020	-59.3796	-8.92868	-11.8394	-13.4924	1.44666	8.79503	3.37171	-4.53931	-18.5633	0.319736
0.7027	-36.7911	-8.31113	-12.1399	-19.9007	1.14103	8.49558	2.76561	-3.0409	-20.073	0.319736
0.7033	-28.89	-7.38481	-12.1399	-29.9592	0.529762	9.10557	3.06642	-3.34939	-20.9995	0.319736
0.7040	-20.3103	-4.34855	-9.07485	-36.6919	0.835393	9.71557	4.89818	-0.572923	-19.1809	0.319736
0.7047	4.07175	-0.669008	-6.67092	-36.6919	0.835393	6.96504	5.81407	4.27488	-15.2006	0.319736
0.7053	27.8721	-0.0771932	-6.37043	-30.8785	-0.692765	2.69507	4.28759	6.74286	-11.8379	0.319736
0.7060	16.287	-1.9041	-4.50738	-22.9561	-1.30403	0.255089	1.54443	6.74286	-9.09291	0.319736
0.7067	-34.0766	-2.83042	-2.10344	-13.195	-0.387134	-0.0554542	1.84973	9.78376	-3.60285	0
0.7073	-77.7025	-0.0771932	-0.240393	-4.02881	0.529762	-0.66545	3.9823	15.6011	3.12247	0.319736
0.7080	-67.9109	4.81171	5.22856	1.4601	0.529762	-1.27545	4.28759	21.0659	6.17632	0.639472
0.7087	-21.5706	8.46552	11.9596	4.21808	0.22413	-0.964902	4.28759	25.9578	7.06845	0.319736
0.7093	-25.8362	8.15675	14.4236	6.35416	-0.692765	-2.18489	3.06642	26.8833	7.37727	0.319736
0.7100	-63.9846	6.32984	14.7241	9.08509	-1.60966	-4.62488	-0.592631	22.2999	8.30371	0.319736
0.7107	-59.719	4.81171	15.9261	13.0598	0.22413	-4.93542	0.628548	17.408	9.81348	-0.319736
0.7113	-28.5507	2.05848	15.0246	13.9791	2.66918	-1.88544	4.28759	12.8247	10.1223	-0.319736
0.7120	0.436259	-0.0771932	11.0581	11.5456	2.66918	0.554542	4.59289	7.35985	8.92135	0
0.7127	28.2114	-0.669008	7.69259	10.3018	1.75229	0.865085	3.677	3.96639	7.37727	0.319736
0.7133	43.7713	-1.28655	6.13003	9.40956	0.835393	-0.0554542	3.37171	4.58338	5.8675	0.639472
0.7140	38.5846	-1.28655	4.92807	8.16577	-0.692765	-1.5749	1.54443	4.27488	4.63224	0.319736
0.7147	28.7931	0.540352	4.62757	8.49024	-1.30403	-1.88544	0.933842	2.77647	5.24987	0
0.7153	2.85992	1.46667	4.62757	10.0044	-0.998397	-0.964902	3.677	0.308497	6.17632	0.319736
0.7160	-57.2468	0.23158	3.42561	9.08509	-1.91529	-1.5749	2.76561	-4.84781	5.24987	0.639472
0.7167	-119.486	-0.385966	3.42561	7.57091	-2.52656	-1.88544	0.933842	-6.08179	3.7401	0.319736
0.7173	-132.623	1.1579	4.02659	7.27348	-1.91529	-0.964902	3.06642	-3.65789	4.01461	0.319736
0.7180	-90.8387	1.74971	2.82462	6.02969	-3.44345	-1.88544	2.46032	-6.08179	3.12247	0.639472
0.7187	-22.7824	2.9848	2.16354	3.59618	-4.97161	-3.10543	0.933842	-10.9737	0.96076	0.319736
0.7193	39.5056	4.50294	1.56256	2.67686	-3.74908	-1.5749	3.06642	-10.9737	0.686257	0
0.7200	69.4136	2.36726	-1.80295	3.59618	-2.83219	-1.27545	2.15502	-7.31578	1.57839	0.319736
0.7207	88.609	-2.21287	-6.06993	4.81294	-1.91529	-0.354907	-0.287336	-2.11541	1.57839	0.319736
0.7213	109.986	-6.793	-8.17338	5.1374	-0.0815018	2.39562	0.323253	2.15948	1.88721	0
0.7220	121.571	-11.0644	-10.0364	6.35416	1.44666	3.61561	2.15502	5.50887	3.12247	0.319736
0.7227	126.757	-11.9649	-12.4404	6.94902	-0.0815018	2.08508	0.323253	7.66835	2.19602	0.319736
0.7233	134.998	-8.92868	-9.37534	6.65159	-0.998397	1.47508	-0.592631	8.24127	1.26958	0.319736
0.7240	138.973	-3.11346	-1.14187	7.27348	-0.0815018	2.69507	2.46032	8.85827	2.19602	0.319736
0.7247	90.4509	2.36726	3.42561	7.86834	0.22413	2.39562	2.46032	8.54977	2.19602	0.319736
0.7253	-16.6748	6.32984	4.62757	8.49024	1.14103	1.16454	0.933842	7.66835	2.19602	0
0.7260	-121.328	7.56493	5.22856	9.70699	1.44666	0.865085	1.23914	6.12587	3.43129	0
0.7267	-171.401	5.12048	2.16354	9.70699	-0.387134	-1.88544	-0.287336	2.15948	3.43129	0.319736
0.7273	-154.92	2.36726	-1.44236	6.65159	-1.91529	-4.01488	-1.81381	-0.572923	2.19602	0.319736
0.7280	-103.926	2.36726	-0.540885	4.81294	-0.998397	-2.18489	0.323253	-0.88142	2.81366	0.319736
0.7287	-49.2972	1.74971	0.0600984	8.16577	-0.998397	-1.5749	0.628548	-3.0409	2.81366	0.319736
0.7293	-9.937	0.23158	-3.00492	15.4933	-1.91529	-1.5749	-1.81381	-5.4648	1.26958	0.319736
0.7300	21.1828	-0.0771932	-2.40393	23.1454	-0.692765	2.39562	-0.287336	-7.62428	0.686257	0
0.7307	46.4858	-1.28655	-1.44236	27.4175	0.22413	5.13506	1.84973	-14.0146	-0.24019	0.319736
0.7313	73.0491	-4.96609	-3.00492	28.3098	-0.998397	3.61561	0.628548	-19.5234	-2.98522	0.319736
0.7320	111.828	-4.96609	-0.841377	27.7149	-0.998397	5.13506	2.15502	-14.9401	-4.8038	0.319736
0.7327	123.122	-3.11346	-0.540885	25.2814	-0.692765	6.05559	3.9823	-8.8142	-7.58314	0.319736
0.7333	130.441	-3.11346	-3.30541	21.3067	-2.22092	4.52506	2.15502	-8.24127	-10.6027	0.319736
0.7340	174.358	-1.59533	-3.00492	17.0345	-2.22092	5.13506	1.84973	-6.08179	-11.5291	0.319736
0.7347	218.614	0.23158	-2.10344	9.08509	-1.60966	6.35505	3.9823	-2.11541	-11.2203	0.319736
0.7353	230.199	-0.385966	-4.50738	-2.51462	-2.22092	6.35505	3.677	0.308497	-13.382	0.319736
0.7360	173.146	-2.52164	-7.2719	-22.3342	-1.30403	7.88558	2.76561	4.27488	-18.5633	0
0.7367	30.0049	-2.52164	-6.06993	-48.589	2.05792	10.625	4.28759	9.47526	-24.0533	0
0.7373	-125.303	-0.385966	-2.70443	-65.6777	3.28045	9.71557	3.677	10.7092	-25.5631	0
0.7380	-180.223	1.1579	-0.540885	-66.2725	2.97482	4.52506	1.23914	8.54977	-21.6171	0
0.7387	-124.721	3.29358	1.86305	-48.2916	2.36355	-0.964902	2.15502	7.66835	-8.78409	0.319736
0.7393	-88.3666	5.73803	4.32708	-18.9814	-0.692765	-8.29594	2.46032	7.05136	9.23016	0.319736
0.7400	-142.075	6.02107	4.02659	0.865247	-3.74908	-15.6159	-0.897925	5.50887	22.0289	0.319736
0.7407	-171.062	6.63861	4.62757	11.8431	-4.97161	-18.3664	-1.81381	4.58338	28.4454	0
0.7413	-126.224	7.8737	6.49062	20.3874	-5.27724	-18.3664	-2.1191	2.77647	31.1904	0
0.7420	-114.009	7.25616	4.62757	21.3067	-5.58287	-19.2759	-5.47734	2.46797	28.4454	0.319736
0.7427	-128.066	7.8737	5.82954	17.9539	-5.27724	-17.7564	-6.69852	3.08497	24.7739	0.639472
0.7433	-110.373	9.39184	11.0581	16.7371	-3.44345	-13.4754	-3.03499	1.54248	23.2641	0.319736
0.7440	-90.2086	6.32984	10.4571	15.8178	-2.83219	-11.3459	-0.897925	-1.49841	21.1024	0.319736
0.7447	-77.0723	1.46667	7.69259	13.9791	-3.13782	-9.81539	-1.20322	-4.27488	17.4653	0.639472
0.7453	-48.0854	-1.59533	4.62757	10.6263	-3.13782	-7.9854	-1.20322	-7.93278	13.485	0.319736
0.7460	-38.924	-5.55791	-1.14187	6.94902	-3.44345	-7.68595	-1.50851	-12.7806	7.9949	0.319736
0.7467	-55.114	-8.00236	-4.80787	6.94902	-2.83219	-6.45486	-0.287336	-15.8656	3.43129	0.319736
0.7473	-61.5125	-7.69359	-4.80787	6.35416	-0.387134	-1.88544	3.06642	-14.6316	0.377442	0.319736
0.7480	-68.8319	-7.10177	-6.06993	2.37943	1.75229	3.30507	5.20348	-11.8992	-3.60285	0.319736
0.7487	-63.9846	-5.86668	-8.47387	0.243351	1.75229	5.4456	5.81407	-10.0482	-7.27433	0.319736
0.7493	-43.8198	-5.55791	-10.6374	0.865247	0.529762	3.61561	4.59289	-7.31578	-8.78409	0.319736
0.7500	-28.5507	-7.38481	-11.5389	1.16268	-0.387134	1.77453	2.46032	-2.11541	-8.47528	0.639472
0.7507	-11.4881	-7.69359	-11.2384	1.4601	0.22413	2.08508	1.23914	0.925491	-7.27433	0.319736
0.7513	-22.1522	-6.17545	-10.6374	1.16268	1.44666	2.08508	0.628548	-0.88142	-6.96551	0
0.7520	-53.272	-3.731	-7.57239	-0.378546	3.28045	4.22561	3.06642	0.616994	-7.27433	0.319736
0.7527	-22.4431	-0.669008	-1.80295	-3.40691	4.19734	6.05559	4.89818	4.89188	-8.16646	0.319736
0.7533	58.701	1.74971	1.86305	-10.7345	3.28045	5.13506	3.06642	5.50887	-9.40173	0.319736
0.7540	113.33	2.67603	2.52413	-22.0368	3.89171	6.35505	3.37171	4.89188	-11.5291	0.319736
0.7547	146.292	2.36726	1.56256	-29.0399	5.41987	8.49558	4.28759	6.12587	-13.0732	0.639472
0.7553	182.938	0.540352	-1.44236	-26.9038	3.28045	5.74505	2.15502	4.89188	-11.8379	0.319736
0.7560	212.846	-1.28655	-3.6059	-18.9814	1.75229	2.69507	1.54443	1.54248	-7.58314	0.319736
0.7567	223.801	-2.52164	-4.50738	-8.30096	2.36355	1.77453	4.59289	0	-2.6764	0.319736
0.7573	226.564	-4.96609	-7.87289	1.4601	0.835393	-0.964902	3.06642	0.308497	0.96076	0.319736
0.7580	233.592	-6.793	-10.3369	10.6263	-0.387134	-3.40489	0.628548	2.46797	4.32342	0.639472
0.7587	237.567	-6.793	-8.77436	17.6294	-0.0815018	-4.32542	0.933842	2.46797	7.37727	0.319736
0.7593	226.564	-6.793	-9.07485	17.6294	-1.60966	-6.76541	-1.50851	-0.308497	7.37727	0
0.7600	153.951	-6.793	-9.73593	13.9791	-3.44345	-7.9854	-4.25617	-0.308497	4.32342	0.319736
0.7607	1.01794	-5.24914	-5.10836	12.7624	-1.60966	-5.23487	-1.20322	0.308497	2.81366	0.319736
0.7613	-139.942	-3.11346	0.0600984	13.0598	-1.91529	-5.84487	-0.287336	-1.80691	2.81366	0.319736
0.7620	-183.907	-1.59533	2.52413	10.9237	-4.05471	-9.81539	-4.25617	-3.34939	2.50484	0.319736
0.7627	-146.05	2.67603	5.52905	8.78767	-4.36035	-11.9559	-5.17205	0	2.19602	0.319736
0.7633	-92.3414	6.32984	6.49062	6.65159	-4.36035	-11.6454	-5.17205	3.08497	0.377442	0.319736
0.7640	-69.4621	5.73803	4.62757	4.51551	-5.27724	-11.0354	-5.47734	3.08497	-0.857822	0.319736
0.7647	-86.5731	5.42925	5.52905	3.00133	-3.74908	-9.51593	-3.03499	4.89188	-1.16664	0.319736
0.7653	-101.212	5.42925	5.82954	-0.0540779	-2.83219	-8.90594	-3.34028	5.20038	-2.36759	0.319736
0.7660	-70.383	2.9848	2.82462	-2.51462	-3.44345	-9.20539	-6.39323	0.616994	-2.36759	0.319736
0.7667	-36.5003	1.1579	1.56256	1.4601	-4.05471	-10.1259	-6.69852	-2.4239	-0.857822	0.639472
0.7673	-20.3103	1.46667	2.16354	8.78767	-4.66598	-12.2554	-6.69852	-0.88142	-5.73025	0.639472
0.7680	8.96754	2.67603	2.16354	10.3018	-4.36035	-11.9559	-7.00382	0	-18.8721	0.319736
0.7687	31.2652	4.50294	4.02659	10.0044	-3.13782	-9.20539	-4.86676	-1.18992	-23.1269	0.319736
0.7693	20.5526	6.63861	6.79111	7.57091	-3.44345	-6.76541	-3.34028	0.616994	-13.0732	0.319736
0.7700	-11.779	5.73803	5.52905	-3.10948	-4.66598	-5.84487	-4.86676	2.77647	-11.5291	0.319736
0.7707	1.64809	0.849125	1.56256	-20.4955	-4.66598	-4.93542	-4.86676	0	-24.671	0
0.7713	95.6376	-2.83042	-1.80295	-37.5842	-3.74908	-3.71543	-5.17205	-3.65789	-27.9993	0
0.7720	199.419	-2.52164	-3.30541	-44.3169	-3.44345	-3.40489	-6.69852	-2.4239	11.6664	0.319736
0.7727	251.576	-1.9041	-3.00492	-34.5558	-4.05471	-4.01488	-6.69852	0	56.8221	0
0.7733	246.389	-1.59533	-2.70443	-18.062	-4.97161	-5.23487	-5.78264	1.54248	46.7684	0.319736
0.7740	214.058	-0.97778	-2.70443	-7.08421	-6.19414	-7.06486	-6.39323	2.15948	24.1563	0.639472
0.7747	167.96	-0.669008	-1.80295	-0.675974	-6.19414	-7.68595	-7.00382	4.58338	30.5728	0.639472
0.7753	119.147	0.540352	0.0600984	4.81294	-5.27724	-6.45486	-5.78264	8.54977	32.7002	0.639472
0.7760	88.9483	1.74971	1.86305	5.1374	-4.97161	-4.93542	-4.86676	7.93278	20.5191	0.319736
0.7767	65.0995	4.81171	7.09161	1.75753	-2.83219	-0.66545	-3.64558	8.24127	23.8818	0
0.7773	48.3278	11.8363	15.0246	-4.32623	1.14103	6.05559	1.54443	13.4416	27.2101	0.319736
0.7780	14.7843	17.317	20.794	-13.7899	2.97482	9.10557	5.20348	17.408	24.4651	0.319736
0.7787	-16.0446	17.317	20.193	-22.3342	2.66918	6.96504	2.46032	20.1404	20.5191	0.319736
0.7793	-60.3006	16.4164	15.0246	-29.3643	2.05792	4.52506	0.323253	26.2663	-15.2006	0.319736
0.7800	-156.762	14.5895	9.49554	-37.9086	4.19734	6.66559	1.84973	27.1918	-28.6169	0.319736
0.7807	-189.094	7.25616	1.26207	-50.4277	7.23328	10.015	1.84973	14.3671	4.01461	0.319736
0.7813	-169.85	-1.59533	-7.2719	-60.7836	8.15018	10.015	0.0179585	-1.49841	-6.6567	0
0.7820	-170.189	-4.65732	-8.47387	-59.2694	8.45581	9.71557	0.933842	-7.62428	-74.6991	0.319736
0.7827	-102.715	-4.65732	-6.37043	-46.7504	8.76144	6.35505	0.323253	-8.24127	-114.674	0.319736
0.7833	1.93893	-6.17545	-7.57239	-30.8785	7.23328	-0.66545	-2.72969	-11.5907	-96.076	0.319736
0.7840	37.3728	-6.793	-8.17338	-18.062	6.92765	-3.10543	-1.20322	-16.174	-68.2826	0.319736
0.7847	10.8095	-5.55791	-5.40885	-8.30096	7.23328	-3.71543	1.23914	-16.4825	-62.4837	0
0.7853	-70.0922	-2.52164	-2.10344	-2.19016	5.7255	-6.45486	0.0179585	-12.4721	-50.886	0.319736
0.7860	-185.749	0.23158	0.961574	-2.19016	5.11424	-6.45486	-0.592631	-8.5057	-2.98522	0.319736
0.7867	-257.15	-0.0771932	1.56256	-4.02881	4.50297	-4.93542	-0.287336	-7.00729	51.6409	0.319736
0.7873	-250.412	-2.52164	-0.540885	-5.24556	2.36355	-5.23487	-3.03499	-9.12269	80.6352	0.319736
0.7880	-191.227	-3.731	-2.10344	-5.54299	2.36355	-4.32542	-4.86676	-10.6652	89.1792	0.319736
0.7887	-111.585	-2.83042	-1.80295	-3.10948	5.11424	-0.964902	-2.1191	-9.12269	84.89	0.319736
0.7893	-46.8736	-1.9041	-2.70443	-2.19016	5.41987	-0.66545	-1.20322	-8.5057	65.6748	0.319736
0.7900	-16.3839	-0.669008	-1.44236	-3.40691	5.11424	-0.354907	-1.50851	-8.5057	1.88721	0.319736
0.7907	-17.5958	0.540352	1.26207	-3.73138	5.7255	1.47508	0.628548	-6.08179	-79.5715	0.319736
0.7913	-26.4179	-1.59533	0.0600984	-0.675974	3.89171	-0.0554542	-1.81381	-7.62428	-94.8408	0.319736
0.7920	-20.6496	-3.731	-2.40393	3.29875	2.36355	-2.79489	-5.47734	-10.6652	-48.4498	0.319736
0.7927	-4.75037	-3.11346	-2.40393	2.67686	2.97482	-2.18489	-3.95087	-10.9737	-2.05877	0.639472
0.7933	7.46487	-3.11346	-3.30541	-2.81205	2.05792	-2.18489	-3.64558	-10.0482	21.4112	0.319736
0.7940	8.33739	-3.42223	-3.6059	-7.38164	1.44666	-2.79489	-3.95087	-8.8142	52.2585	0.319736
0.7947	7.75571	-1.9041	-1.44236	-9.51772	4.19734	0.255089	-0.287336	-6.08179	83.0715	0.639472
0.7953	7.46487	-1.59533	-0.841377	-10.437	4.19734	0.255089	0.0179585	-4.84781	72.4002	0.639472
0.7960	2.56908	-2.21287	-1.44236	-5.24556	2.66918	-1.88544	-3.64558	-5.7733	79.7088	0.319736
0.7967	3.78091	-1.59533	0.0600984	6.35416	5.41987	1.47508	-2.1191	-3.34939	134.026	0.319736
0.7973	6.20457	-0.97778	0.36059	3.59618	6.92765	4.22561	0.323253	-1.49841	157.839	0.639472
0.7980	-4.45953	-0.97778	-1.44236	-24.1728	4.80861	4.22561	-1.81381	-2.7324	117.865	0.639472
0.7987	-21.8614	-0.385966	-0.540885	-44.6143	5.11424	7.57504	-1.50851	-1.80691	17.1564	0.639472
0.7993	-48.7155	0.849125	0.36059	-42.1808	5.7255	9.71557	-1.20322	-0.572923	-122.909	0.639472
0.8000	-74.0185	0.540352	-1.14187	-35.7726	4.80861	8.79503	-3.34028	-0.88142	-219.362	0.639472
0.8007	-64.2754	0.540352	-0.540885	-24.7677	5.11424	9.10557	-2.4244	0.925491	-206.529	0.639472
0.8013	-38.6331	1.1579	0.961574	-10.7345	4.50297	8.18503	-1.81381	1.85098	-143.359	0.319736
0.8020	-27.048	1.46667	0.661082	-2.51462	2.36355	5.74505	-4.86676	0.925491	-95.4584	0
0.8027	-20.0194	1.1579	0.36059	1.4601	1.44666	4.52506	-6.08793	1.85098	-70.1355	0
0.8033	-10.5672	0.849125	-0.540885	-0.675974	0.835393	4.22561	-5.47734	1.54248	-62.4837	0.319736
0.8040	-5.67136	1.1579	-1.44236	-12.5731	-1.30403	3.61561	-7.9197	0.925491	-39.0137	0.639472
0.8047	-8.72517	1.74971	0.36059	-16.5478	-2.22092	4.52506	-7.9197	1.23399	32.7002	0.319736
0.8053	-10.2763	2.36726	1.86305	-9.22029	-1.30403	7.27559	-6.08793	0.925491	78.7823	0
0.8060	-2.61755	2.36726	0.961574	-18.3595	-0.998397	7.27559	-7.61441	-0.572923	-27.7248	0
0.8067	12.6515	2.05848	0.961574	-27.8231	0.835393	7.27559	-7.61441	0.616994	-119.855	0.319736
0.8073	24.8183	2.9848	2.52413	-19.9007	3.28045	9.10557	-5.47734	5.50887	-17.0192	0.639472
0.8080	24.2366	3.60235	1.56256	-14.0873	4.19734	8.49558	-5.17205	8.24127	47.3518	0.639472
0.8087	18.4198	2.67603	0.961574	-4.32623	5.11424	5.13506	-3.64558	8.54977	-14.2742	0.319736
0.8093	11.1004	1.46667	0.661082	9.40956	3.89171	-0.354907	-3.95087	8.24127	-34.107	0.319736
0.8100	3.78091	0.540352	-0.240393	10.9237	2.36355	-4.62488	-6.69852	6.74286	-46.0136	0.319736
0.8107	4.7019	1.46667	0.36059	13.0598	2.97482	-4.93542	-6.08793	6.12587	-35.9599	0.319736
0.8113	5.91373	3.29358	2.52413	24.3621	3.58608	-4.93542	-3.34028	8.24127	32.4257	0.319736
0.8120	6.20457	4.81171	4.62757	29.5536	1.75229	-7.9854	-2.4244	9.16676	36.6805	0.639472
0.8127	10.1794	5.42925	4.62757	35.0425	-0.998397	-11.9559	-3.64558	9.16676	7.68608	0.639472
0.8133	15.0752	4.81171	4.02659	61.8922	-2.83219	-14.0854	-4.25617	9.16676	48.587	0.639472
0.8140	26.0786	2.67603	3.12511	82.3337	-4.05471	-15.3053	-6.39323	8.24127	111.757	0.319736
0.8147	35.8217	0.849125	1.86305	62.1896	-6.8054	-18.0559	-10.6629	5.20038	159.967	0.319736
0.8153	40.4266	0.540352	1.86305	37.476	-9.53571	-19.8859	-13.4105	4.27488	243.587	0.639472
0.8160	46.1949	1.46667	2.82462	36.8541	-10.147	-17.7564	-13.7158	6.43436	333.006	0.639472
0.8167	41.0083	2.05848	3.42561	41.7482	-9.84134	-14.0854	-15.5476	5.81737	338.188	0.639472
0.8173	22.6854	1.74971	3.7261	38.3953	-9.23008	-11.6454	-17.3793	2.77647	252.44	0.639472
0.8180	5.91373	1.46667	3.7261	7.86834	-8.92445	-7.9854	-16.7688	1.85098	29.6806	0.319736
0.8187	0.436259	0.849125	2.52413	-31.1759	-7.70192	-3.10543	-16.1582	0	-287.713	0.319736
0.8193	6.83472	2.67603	1.56256	-35.7726	-0.998397	1.47508	-14.6317	-2.4239	-413.745	0.319736
0.8200	24.2366	5.73803	3.12511	-10.7345	8.45581	5.74505	-11.884	-1.49841	-278.861	0.639472
0.8207	37.3728	6.32984	4.32708	6.65159	11.5121	6.66559	-8.5258	-0.572923	-132.379	0.319736
0.8213	36.1125	4.50294	1.56256	-7.08421	9.67834	3.61561	-6.08793	-2.7324	-60.6652	0
0.8220	32.1862	2.36726	-2.40393	-16.8453	6.92765	1.47508	-4.86676	-2.7324	14.1026	0.319736
0.8227	25.7393	-0.385966	-5.40885	7.27348	2.36355	-0.66545	-5.47734	-0.308497	88.2527	0.639472
0.8233	12.6515	-2.21287	-7.57239	26.4982	-0.998397	-2.49544	-6.69852	1.85098	109.63	0.319736
0.8240	5.62289	-2.52164	-7.57239	25.2814	-0.0815018	4.52506	-5.17205	3.96639	101.669	0.319736
0.8247	7.12556	-1.59533	-4.80787	25.8763	1.44666	17.6455	-2.4244	6.74286	174.001	0.319736
0.8253	4.99274	-1.28655	-2.70443	16.1152	1.44666	20.6955	-2.1191	6.74286	302.811	0
0.8260	6.83472	-0.669008	-1.14187	-22.6316	1.75229	17.6455	-2.1191	4.58338	236.862	0.319736
0.8267	18.7591	2.05848	2.16354	-49.1839	2.97482	20.0855	0.933842	4.89188	-17.0192	0.639472
0.8273	30.635	2.36726	5.22856	-28.445	3.89171	21.3166	2.76561	6.12587	-226.98	0.639472
0.8280	32.1862	0.849125	6.13003	-6.16489	5.41987	16.7361	5.20348	7.66835	-358.535	0.319736
0.8287	22.6854	0.540352	6.13003	-9.22029	8.15018	11.5456	10.0882	10.7092	-383.24	0.639472
0.8293	9.25838	-2.83042	1.56256	2.67686	7.84455	3.61561	8.86701	11.6347	-273.371	0.639472
0.8300	3.15076	-3.731	-2.40393	40.8288	4.80861	-1.27545	5.20348	11.6347	-128.708	0.319736
0.8307	11.3912	1.1579	-0.240393	45.101	2.66918	1.16454	5.50877	10.0923	-8.47528	0
0.8313	19.6316	-2.52164	1.26207	-2.51462	0.529762	5.4456	4.28759	5.50887	108.086	0
0.8320	16.5778	-17.4714	0.0600984	-22.6316	-1.60966	7.88558	3.37171	1.85098	214.902	0.319736
0.8327	5.62289	-19.2983	1.86305	-0.378546	-2.83219	7.57504	3.9823	1.85098	280.817	0.639472
0.8333	-5.08968	-9.23745	4.62757	24.957	-4.66598	2.39562	3.06642	2.15948	247.876	0.319736
0.8340	-7.80418	-4.34855	4.32708	57.9175	-4.66598	-4.62488	2.15502	-0.88142	65.6748	0
0.8347	-8.72517	3.29358	4.32708	102.775	0.22413	-9.20539	1.84973	-5.4648	-192.186	0.319736
0.8353	-9.937	9.39184	4.62757	150.688	6.03113	-13.7859	1.54443	-8.8142	-338.394	0.639472
0.8360	-8.14349	8.15675	3.42561	191.598	9.67834	-17.1464	0.933842	-10.3567	-306.036	0.639472
0.8367	-9.937	7.56493	2.52413	225.153	8.76144	-19.2759	0.323253	-8.8142	-202.583	0.639472
0.8373	-5.67136	8.77429	2.82462	270.93	6.03113	-18.6659	0.933842	-4.84781	-32.906	0.639472
0.8380	9.88853	9.08306	2.52413	280.097	2.66918	-15.6159	1.84973	-1.80691	143.805	0.639472
0.8387	15.9961	6.32984	0.961574	205.334	-3.13782	-15.3053	-0.592631	-2.11541	264.038	0.639472
0.8393	12.9423	4.19416	1.26207	118.944	-6.8054	-12.5659	-2.4244	-3.34939	397.72	0.319736
0.8400	14.1542	2.9848	3.42561	55.7814	-7.11103	-7.68595	-2.1191	-1.49841	487.414	0.319736
0.8407	14.1542	-5.55791	3.12511	-34.8532	-7.11103	-7.06486	-4.86676	0.925491	491.086	0.639472
0.8413	11.7305	-13.2	1.86305	-91.608	-21.435	-9.51593	-7.9197	1.54248	307.375	0.959208
0.8420	15.366	-12.5825	1.86305	-27.8231	-46.1708	-10.4254	-6.69852	1.85098	-88.1498	0.639472
0.8427	15.7053	-10.4468	1.86305	24.3621	-55.0137	-11.0354	-5.47734	2.46797	-409.49	0.319736
0.8433	-14.542	-6.17545	2.52413	20.09	-47.6989	-16.2259	-2.72969	2.77647	-537.648	0.319736
0.8440	-54.193	-2.83042	6.79111	58.5394	-38.2243	-18.9764	3.37171	5.20038	-486.385	0.319736
0.8447	-60.9308	-1.28655	10.1566	106.75	-29.687	-17.7564	4.28759	7.66835	-255.356	0.639472
0.8453	-49.9274	18.8609	10.1566	119.269	-25.7138	-22.0264	-0.897925	7.35985	-17.9456	0.639472
0.8460	-38.6331	42.0446	10.1566	108.589	-26.0195	-22.3258	-4.56146	4.58338	85.8165	0.319736
0.8467	-23.9942	29.2305	8.29357	84.4697	-23.88	-12.8654	-6.08793	1.23399	114.193	0.319736
0.8473	-10.858	5.12048	5.52905	45.3984	-12.8977	-5.23487	-5.78264	-1.80691	130.663	0.639472
0.8480	2.27824	6.63861	5.52905	-14.4118	-0.387134	1.16454	-3.03499	-3.0409	100.159	0.319736
0.8487	9.25838	16.1076	5.82954	-123.974	7.23328	8.49558	0.0179585	-4.84781	45.5332	0.319736
0.8493	1.93893	9.39184	1.26207	-238.105	20.3551	6.35505	0.323253	-10.3567	-54.8663	0.319736
0.8500	-8.14349	-2.21287	-3.00492	-236.888	32.5803	3.91506	-0.287336	-10.6652	-217.235	0.319736
0.8507	-13.621	-0.385966	-3.00492	-149.282	26.4677	7.57504	1.84973	-2.4239	-252.92	0.639472
0.8513	-18.8076	3.29358	-1.80295	-90.0938	10.2896	7.27559	2.76561	4.27488	-154.374	0.639472
0.8520	-22.1522	0.849125	-0.841377	-80.0083	-0.998397	3.00562	2.46032	5.20038	-35.3423	0.639472
0.8527	-20.0194	4.19416	-1.80295	-109.616	-6.49977	-1.88544	4.89818	3.39347	140.751	0.639472
0.8533	-16.9656	-4.03978	-2.70443	-149.607	-9.53571	-2.49544	3.9823	0	362.001	0.639472
0.8540	-15.1236	-49.1978	0.661082	-180.728	-7.39629	8.49558	-0.592631	-2.7324	524.953	0.639472
0.8547	-16.0446	-64.7651	4.32708	-203.306	0.22413	22.226	-3.64558	-4.27488	582.324	0.639472
0.8553	-16.3839	-4.96609	4.62757	-194.464	3.58608	27.716	-7.30911	-4.53931	511.536	0.319736
0.8560	-13.3301	35.9463	1.86305	-170.048	-2.22092	28.326	-9.74698	-2.7324	255.494	0.319736
0.8567	-11.4881	20.379	-1.14187	-136.79	-4.97161	28.326	-8.225	-1.49841	-82.6254	0.639472
0.8573	-8.14349	6.63861	-1.80295	-76.358	-0.387134	28.0265	-4.25617	-1.80691	-332.869	0.639472
0.8580	-4.75037	7.56493	-0.240393	-2.51462	-1.60966	30.156	0.0179585	-2.11541	-437.558	0.319736
0.8587	-8.14349	7.8737	0.36059	48.1564	-5.58287	31.0765	-0.592631	-3.65789	-373.77	0.319736
0.8593	-8.14349	9.39184	3.42561	38.0979	-1.60966	31.6865	-0.592631	-3.34939	-157.702	0.319736
0.8600	-2.90839	12.4538	7.3921	-29.0399	5.7255	32.607	1.23914	-2.11541	127.61	0.319736
0.8607	1.64809	11.2187	6.13003	-109.319	11.8178	29.8565	0.628548	-3.96639	387.941	0
0.8613	12.0213	8.77429	4.62757	-169.751	15.791	29.546	2.46032	-7.31578	513.972	0
0.8620	23.3156	6.02107	3.7261	-212.472	12.7347	28.936	4.89818	-9.43119	421.19	0.639472
0.8627	25.7393	1.1579	0.36059	-214.608	11.5121	20.6955	2.15502	-10.3567	37.2981	0.639472
