MR32 ASCII
Name	KneeFJC1
Frequency	1500
Date	16-09-2015 09:46:20
"Time,s"	"RT TIB.ANT.,uV"	"RT MED. GASTRO,uV"	"RT LAT. GASTRO,uV"	"RT BICEPS FEM.,uV"	"RT VMO,uV"	"RT VLO,uV"	"RT RECTUS FEM.,uV"	"RT SOLEUS,uV"	"RT SEMITEND.,uV"	"Channel 12,uV"
0.0000	0	-1.31389	2.84824	-1.36946	-0.949766	-0.752215	-2.09838	-2.11012	-1.74962	-9126.08
0.0007	2.14983	0.819248	4.38941	0.154306	0.271362	1.10325	0.645656	0.0430636	-0.23057	-10377
0.0013	3.64537	2.04039	5.91107	1.07049	1.22113	2.60768	2.47501	1.24885	0.69171	-9531.44
0.0020	2.71066	2.34954	6.2037	0.761884	1.22113	2.00591	1.82936	1.24885	0.379762	-9857.21
0.0027	0	2.95239	5.30631	-0.154306	0	-0.100295	-1.1837	0.0430636	-0.528955	-9851.73
0.0033	-0.654296	3.86438	2.55561	-0.761884	-0.339202	-0.752215	-1.82936	0.0430636	-1.13929	-9790.19
0.0040	0.934709	5.39467	-0.50722	-0.154306	0.610564	1.40413	0.914679	3.70347	0.0813776	-9817.58
0.0047	1.21512	5.08552	-2.34102	0.154306	1.22113	2.60768	2.15219	6.73946	0.69171	-9817.25
0.0053	-0.280413	2.34954	-2.63364	-0.154306	0.610564	1.40413	1.23751	6.13657	0.379762	-9812.42
0.0060	-0.654296	1.1284	-4.15531	-1.07049	-1.22113	-0.752215	-0.914679	1.87327	-0.840902	-9789.22
0.0067	0.560826	3.26154	-7.51076	-1.36946	-1.83169	-1.35399	-2.09838	2.7776	-1.13929	-9904.9
0.0073	2.14983	3.26154	-9.96883	-0.154306	0	1.10325	0.914679	17.1178	0.0813776	-9712.85
0.0080	2.99107	-4.37448	-8.13503	0.462917	0.881926	2.00591	2.15219	34.8169	0.379762	-9691.91
0.0087	3.92578	-8.9499	-3.86268	-0.761884	0	1.10325	0.914679	48.2528	0.0813776	-10558.4
0.0093	3.36495	-5.59562	-3.86268	-1.67807	-0.949766	-0.451329	-0.914679	62.2915	-0.528955	-7092.19
0.0100	2.43024	0.510098	-7.51076	-1.36946	-0.949766	0.200591	-1.50653	77.5576	-0.840902	-687.308
0.0107	2.71066	4.48268	-5.0722	0.154306	0.881926	1.70502	0.322828	90.6705	0.0813776	108.59
0.0113	2.43024	6.92497	0.117051	1.07049	1.83169	2.90857	1.82936	86.0842	0.69171	-284.848
0.0120	0	8.45526	2.24347	1.07049	0.881926	2.90857	1.56033	69.3109	0.379762	40.6004
0.0127	-1.86942	6.30667	3.76514	-0.453272	-0.949766	0.200591	-0.914679	46.1212	-0.840902	35.1226
0.0133	-0.934709	4.17353	8.34963	-1.07049	-1.22113	-0.752215	-1.1837	-17.0532	-1.13929	-26.1003
0.0140	2.43024	4.48268	10.1834	0.154306	0.610564	1.40413	1.56033	-67.7176	0.69171	1.2889
0.0147	3.92578	0.510098	5.30631	1.37911	1.22113	2.60768	2.47501	-45.1307	0.990094	-0.644452
0.0153	0.934709	-6.19846	0.721814	1.07049	0.881926	1.40413	1.23751	-26.2042	0.379762	-0.644452
0.0160	-2.43024	-8.3316	-0.799847	-0.154306	0	-0.100295	-0.269023	-49.0925	-0.840902	-0.644452
0.0167	-1.58901	-6.19846	-2.02888	-0.761884	-0.610564	-0.100295	-1.1837	-75.0384	-1.13929	-0.644452
0.0173	0.560826	-3.15333	-1.11198	-0.154306	-0.339202	1.40413	0.322828	-82.9836	0.379762	-0.644452
0.0180	2.14983	-1.00474	4.07727	0.462917	0.610564	2.30679	1.82936	-66.7917	0.69171	-0.644452
0.0187	2.71066	1.1284	11.7051	0.154306	0	1.40413	1.56033	-50.6213	0.0813776	-0.644452
0.0193	1.77595	1.1284	19.3329	-1.07049	-1.56033	-0.451329	-0.914679	-45.4321	-0.840902	-0.644452
0.0200	2.43024	-3.44703	27.2728	-0.761884	-1.22113	-0.451329	-1.50653	-32.3193	-0.840902	-0.322226
0.0207	5.51478	-4.66817	24.8343	0.154306	0.610564	1.70502	0.914679	0.344509	0.69171	-0.322226
0.0213	6.72991	-0.0927451	10.7882	0.462917	1.49249	2.60768	2.15219	41.2334	0.990094	-0.322226
0.0220	5.1409	0.510098	-2.94578	0.761884	0.881926	1.70502	1.56033	72.3684	0.379762	-0.322226
0.0227	0.934709	-3.15333	-13.0122	-0.154306	-0.610564	-0.752215	-0.914679	95.8596	-0.840902	-0.322226
0.0233	-1.58901	-3.44703	-16.9724	-0.761884	-0.610564	-1.65487	-1.50653	111.729	-0.840902	-0.644452
0.0240	-1.21512	-1.00474	-17.5966	-0.154306	1.22113	0.802363	0.914679	104.408	0.379762	-0.644452
0.0247	-1.21512	-2.53503	-14.2412	1.07049	2.10305	2.30679	2.15219	51.9132	0.990094	-0.322226
0.0253	-2.14983	-8.02245	-4.77958	0.761884	0.881926	1.10325	1.56033	-60.3967	0.379762	-0.322226
0.0260	-4.29966	-9.86189	4.68203	-0.453272	-0.949766	-0.752215	-0.914679	-155.61	-0.528955	-0.644452
0.0267	-4.29966	-4.66817	9.87129	-0.453272	-0.339202	-0.752215	-1.50653	-146.761	-0.840902	-0.322226
0.0273	-0.654296	0.819248	11.393	0.462917	1.22113	1.10325	0.645656	-85.4167	0.0813776	-0.322226
0.0280	1.77595	1.73124	10.1834	1.07049	1.22113	2.00591	2.15219	-45.4321	0.990094	-0.322226
0.0287	1.49553	2.04039	6.82797	0.761884	0.271362	1.10325	1.56033	-29.8646	0.990094	0
0.0293	-0.934709	2.04039	3.76514	-0.761884	-0.949766	-1.0531	-0.914679	-25.6013	-0.23057	0
0.0300	-1.86942	2.04039	2.55561	-1.07049	-1.56033	-1.35399	-0.914679	-25.6013	-1.45123	-0.644452
0.0307	0.934709	3.57069	1.63871	1.07049	0.271362	0.501477	3.06686	-21.338	0.0813776	-0.644452
0.0313	2.99107	5.39467	0.721814	1.37911	0.881926	2.00591	3.65872	-12.4885	0.990094	-0.322226
0.0320	2.43024	4.48268	-2.63364	0.462917	0	1.40413	0.645656	-3.01445	0.0813776	-0.322226
0.0327	-0.280413	2.04039	-6.906	-0.453272	-1.22113	-0.752215	-2.09838	7.36388	-1.13929	-0.322226
0.0333	-0.934709	2.95239	-4.77958	-0.453272	-1.22113	-0.752215	-1.82936	18.0437	-1.13929	-0.322226
0.0340	2.43024	5.39467	2.55561	0.462917	0.881926	1.40413	1.23751	23.2328	0.69171	-0.322226
0.0347	4.86049	2.04039	6.82797	0.462917	0.881926	1.10325	2.15219	25.3645	0.990094	-0.322226
0.0353	4.86049	-1.00474	5.59893	0.154306	0	0.802363	0.914679	45.4967	0.379762	-0.322226
0.0360	4.29966	-0.0927451	2.24347	-0.154306	-0.949766	-0.100295	-0.591851	84.254	-1.13929	-0.322226
0.0367	5.1409	1.73124	-1.11198	-0.761884	-1.22113	-1.0531	-1.50653	101.35	-1.45123	-0.322226
0.0373	7.57114	8.45526	-0.799847	0.154306	0.271362	1.10325	0.645656	79.3878	0.0813776	-0.644452
0.0380	9.44056	13.6335	3.76514	1.07049	0.881926	2.30679	2.15219	54.9707	0.69171	-0.322226
0.0387	9.16015	10.5884	5.91107	0.462917	0.610564	1.40413	1.23751	50.3844	0.0813776	0
0.0393	5.51478	1.73124	3.76514	-0.761884	-0.610564	-0.100295	-1.1837	12.553	-1.13929	-0.322226
0.0400	1.49553	-7.72876	6.2037	-0.453272	-1.22113	-0.100295	-2.09838	-88.7757	-1.45123	-0.322226
0.0407	1.21512	-14.1282	14.1436	0.462917	0	1.10325	0.322828	-161.402	0.379762	-0.322226
0.0413	0.560826	-12.907	24.5222	1.07049	1.22113	2.00591	2.74404	-141.873	1.60043	0
0.0420	-1.58901	-7.41961	31.2331	0.462917	1.22113	1.40413	1.56033	-88.7757	0.69171	0
0.0427	-3.36495	-10.4647	19.645	-0.761884	-0.949766	-0.451329	-1.50653	-52.4515	-1.13929	0
0.0433	-3.08454	-15.9676	-2.94578	-1.07049	-0.949766	0.200591	-1.1837	-28.0344	-0.528955	-0.322226
0.0440	-3.36495	-10.4647	-35.603	0.154306	0.881926	2.30679	0.914679	-6.07197	0.379762	-0.322226
0.0447	-3.64537	-3.44703	-69.1575	1.07049	1.22113	2.90857	2.15219	14.9861	0.990094	-0.322226
0.0453	-3.08454	-3.15333	-69.1575	0.462917	0.610564	1.70502	1.56033	43.6665	0.990094	-0.322226
0.0460	-2.80413	-4.66817	-61.5297	-0.761884	-0.339202	-0.100295	-1.1837	55.2722	-0.528955	-0.322226
0.0467	-1.58901	-3.75618	-63.6757	-1.36946	-1.22113	-0.451329	-2.09838	20.1753	-0.840902	0
0.0473	-0.280413	2.65869	-52.3803	-0.154306	0	1.40413	0.914679	-12.7899	0.990094	0
0.0480	-1.21512	6.01297	-32.5401	1.07049	0.881926	2.60768	2.74404	-0.581359	1.60043	-0.322226
0.0487	-1.86942	2.65869	-4.77958	0.154306	0.271362	1.40413	1.82936	21.4026	0.990094	-0.322226
0.0493	-1.21512	0.510098	22.6884	-1.07049	-1.22113	-0.752215	-0.914679	15.589	0.0813776	0
0.0500	-0.654296	-1.31389	32.7547	-0.761884	-1.22113	-0.752215	-0.914679	-9.12949	-0.23057	-0.322226
0.0507	0.934709	-3.75618	37.3392	1.07049	0.881926	1.40413	2.15219	-38.4128	0.990094	-0.322226
0.0513	1.21512	-1.93219	36.1102	0.761884	0.881926	2.60768	2.74404	-71.0765	1.30204	0
0.0520	-0.654296	1.73124	28.1897	-0.761884	0	2.30679	1.23751	-77.4715	0.379762	-0.322226
0.0527	-3.64537	2.65869	24.21	-1.36946	-0.949766	0.501477	-1.1837	-48.4897	-0.840902	-0.322226
0.0533	-5.23437	2.95239	16.2896	-0.761884	-1.22113	0.200591	-1.82936	-19.5078	-1.13929	0
0.0540	-3.64537	6.30667	7.74486	0.462917	0.881926	1.70502	1.82936	-5.1461	0.0813776	0
0.0547	-2.80413	8.14611	6.51583	1.07049	1.49249	2.00591	3.06686	1.55029	0.379762	-0.322226
0.0553	-2.80413	6.92497	8.34963	0.462917	0.610564	0.802363	1.56033	2.7776	0.0813776	-0.322226
0.0560	-3.36495	4.48268	7.43273	-0.154306	-1.56033	-1.0531	0.322828	-0.882804	-1.45123	-0.644452
0.0567	-2.80413	5.08552	6.2037	0.761884	-1.22113	-0.752215	0.645656	-1.4857	-1.45123	-0.644452
0.0573	-0.934709	8.14611	7.12059	0.761884	0.610564	0.802363	1.56033	1.55029	0.69171	-0.322226
0.0580	0.560826	8.14611	7.12059	0.462917	1.22113	1.70502	1.56033	1.87327	0.990094	-0.322226
0.0587	1.49553	5.70382	6.82797	0.761884	0.881926	1.70502	0.914679	1.24885	0.379762	-0.322226
0.0593	-0.654296	3.26154	4.68203	-0.761884	-0.610564	-0.451329	-1.1837	0.344509	-0.528955	-0.322226
0.0600	-2.43024	0.819248	2.24347	-1.36946	-0.949766	-1.0531	-1.82936	0.645954	-1.13929	-0.644452
0.0607	0.934709	1.1284	9.57866	0.462917	0.881926	1.40413	0.645656	4.00492	0.0813776	-0.644452
0.0613	4.29966	2.34954	21.1667	1.07049	1.83169	2.60768	1.82936	5.2107	0.990094	-0.322226
0.0620	3.64537	-2.53503	25.4391	0.154306	0.610564	1.40413	0.322828	4.60781	0.379762	-0.322226
0.0627	1.49553	-10.171	30.6283	-0.453272	-0.949766	-0.752215	-2.09838	6.13657	-0.840902	-0.322226
0.0633	2.43024	-8.9499	37.6514	-0.154306	-0.949766	0.200591	-1.82936	8.56966	-0.840902	-0.644452
0.0640	5.7952	-1.00474	42.2163	0.154306	0.610564	2.00591	1.56033	10.0984	0.69171	-0.322226
0.0647	6.72991	3.57069	44.967	0.761884	1.49249	2.00591	2.74404	11.0243	0.69171	-0.322226
0.0653	4.58008	6.01297	37.3392	0.462917	0.271362	1.10325	0.645656	11.3257	-0.23057	0
0.0660	1.21512	8.14611	12.622	-0.761884	-1.22113	-0.752215	-1.50653	11.9286	-0.840902	-0.322226
0.0667	2.14983	9.9701	-16.9724	-1.36946	-0.610564	-0.752215	-1.82936	15.589	-0.840902	-0.322226
0.0673	4.86049	13.3398	-37.4368	-0.453272	0.271362	1.10325	0	24.1372	0.0813776	-0.644452
0.0680	4.86049	13.3398	-42.6065	0.761884	0.610564	1.70502	1.56033	30.2522	0.69171	-0.322226
0.0687	3.36495	2.65869	-47.5031	0.462917	0.881926	0.501477	0.914679	29.3263	0.69171	-0.322226
0.0693	0	-7.41961	-58.1743	-1.36946	-0.610564	-1.35399	-1.50653	23.8357	-0.840902	-0.322226
0.0700	-3.64537	-8.64075	-49.3369	-1.36946	-1.22113	-1.35399	-2.42121	19.8739	-1.13929	-0.322226
0.0707	-4.58008	-8.02245	-27.0583	0.462917	0.610564	1.10325	0.322828	12.8545	0.0813776	-0.322226
0.0713	-4.01925	-3.44703	-14.5338	1.07049	1.83169	2.60768	3.06686	-4.24177	1.30204	0
0.0720	-4.29966	-1.31389	-8.42766	0.154306	0.610564	1.10325	1.82936	-15.8259	0.69171	-0.322226
0.0727	-5.51478	-6.50761	-5.69648	-0.761884	-1.22113	-1.65487	-1.82936	-8.50507	-1.13929	-0.322226
0.0733	-4.29966	-6.50761	-4.77958	-0.761884	-0.949766	-1.35399	-1.82936	0.645954	-1.13929	0
0.0740	-0.654296	-5.28647	-2.34102	0.154306	0.610564	0.501477	0.645656	-7.90218	0.0813776	-0.322226
0.0747	1.21512	-6.50761	0.409678	0.761884	0.881926	0.802363	1.82936	-14.3187	0.69171	-0.644452
0.0753	0.560826	-4.06533	1.03395	0.761884	0.271362	1.10325	1.82936	-3.63888	0.69171	-0.322226
0.0760	-1.21512	-2.84418	-0.799847	-0.453272	-0.949766	-0.451329	-0.591851	2.47616	-0.840902	-0.322226
0.0767	-0.654296	-2.22588	-1.11198	-1.07049	-0.949766	-1.0531	-1.82936	-0.279914	-1.13929	-0.322226
0.0773	2.71066	0.819248	0.721814	0.154306	0.610564	0.802363	0.322828	-0.882804	0.0813776	-0.322226
0.0780	3.64537	1.43755	1.03395	0.462917	1.22113	2.30679	1.82936	0.0430636	0.69171	0
0.0787	1.77595	-1.62304	-1.42412	0.154306	0.610564	1.40413	1.23751	-1.18425	0.379762	-0.322226
0.0793	1.21512	-4.06533	-3.86268	-1.07049	-0.949766	-1.0531	-0.914679	-3.94032	-0.840902	-0.322226
0.0800	2.43024	-3.15333	-4.46744	-1.36946	-1.22113	-1.35399	-1.50653	-6.37342	-0.23057	-0.322226
0.0807	4.29966	-0.711046	-1.42412	0.462917	0.610564	0.802363	1.23751	-5.1461	2.21076	-0.322226
0.0813	4.86049	0.216405	1.63871	1.98668	1.49249	1.70502	3.06686	-0.581359	5.87275	-0.322226
0.0820	4.58008	-0.401895	0.721814	1.37911	0.610564	0.200591	1.82936	4.30636	12.5864	0
0.0827	2.99107	-0.711046	-1.42412	0.462917	-0.610564	-1.35399	-0.914679	14.3833	17.1707	0
0.0833	3.36495	-0.401895	-0.50722	0.462917	-0.339202	-1.0531	-0.914679	26.5918	19.0017	0
0.0840	4.86049	0.510098	1.93134	1.37911	0.610564	1.10325	1.82936	24.7616	20.2223	-0.322226
0.0847	2.99107	2.34954	2.55561	1.67807	0.881926	2.30679	2.74404	11.9286	19.924	-0.322226
0.0853	0.934709	2.95239	3.16037	0.761884	0.610564	1.40413	0.914679	5.2107	15.95	-0.322226
0.0860	-1.58901	2.04039	3.16037	-0.453272	-0.949766	-1.0531	-0.269023	1.24885	9.84669	-0.644452
0.0867	-4.29966	2.34954	2.84824	0.154306	-1.56033	-1.65487	0.322828	-4.24177	4.3537	-0.644452
0.0873	-3.64537	4.79183	3.76514	0.761884	0.610564	1.10325	2.15219	-4.24177	-10.6062	0
0.0880	-2.43024	4.79183	3.16037	-0.761884	1.22113	2.30679	2.15219	0.344509	-33.1885	0
0.0887	-1.86942	1.43755	0.409678	-1.67807	0.271362	0.802363	0.322828	3.07905	-37.4608	-0.322226
0.0893	-1.58901	-1.62304	-1.11198	-1.67807	-0.949766	-1.0531	-2.09838	2.47616	-22.5009	-0.322226
0.0900	-1.58901	-1.62304	-0.799847	-1.07049	-1.22113	-1.35399	-2.09838	3.07905	-4.50289	-0.322226
0.0907	-0.280413	0.216405	0.409678	0.761884	0.271362	0.501477	0.645656	6.73946	8.31408	0
0.0913	1.21512	1.43755	1.32658	1.67807	1.22113	1.70502	2.15219	8.26822	14.4174	0
0.0920	0.934709	0.819248	1.03395	1.37911	0.881926	1.10325	1.56033	6.73946	15.3397	0
0.0927	-1.58901	-0.711046	-0.799847	-0.154306	-0.949766	-1.0531	-0.914679	4.60781	13.1967	0
0.0933	-0.934709	0.510098	-0.799847	-0.453272	-0.949766	-0.752215	-1.1837	4.90925	9.84669	0
0.0940	2.43024	3.26154	3.47251	1.67807	0.881926	1.70502	1.56033	7.06244	11.6777	-0.322226
0.0947	2.43024	2.65869	6.2037	1.98668	1.22113	2.30679	2.74404	7.66533	10.7554	-0.322226
0.0953	0.934709	0.510098	6.51583	-0.154306	0.271362	1.40413	1.56033	6.13657	-14.8785	-0.322226
0.0960	-0.654296	-0.711046	6.2037	-3.51045	-1.56033	-0.752215	-0.914679	3.07905	-44.4729	0
0.0967	-0.280413	-0.0927451	6.51583	-3.51045	-1.56033	-1.35399	-1.82936	0.344509	-42.3435	-0.322226
0.0973	2.43024	2.04039	7.43273	-1.36946	0.881926	1.10325	0.645656	0.344509	-23.7216	-0.322226
0.0980	3.64537	2.65869	6.51583	-0.154306	1.22113	1.70502	2.15219	1.24885	-13.3459	0
0.0987	2.43024	1.43755	3.47251	-0.453272	-0.339202	0.501477	0.914679	0.0430636	-10.2943	0
0.0993	0	0.510098	-1.11198	-1.36946	-1.56033	-1.35399	-1.82936	-2.41156	-8.77522	0
0.1000	-0.654296	0.216405	-9.6567	-1.07049	-0.949766	-1.0531	-1.50653	-1.4857	-6.63228	0
0.1007	2.14983	0.510098	-14.5338	0.462917	0.881926	1.70502	1.23751	1.55029	-3.89256	-0.322226
0.1013	2.71066	1.1284	-8.7398	0.761884	1.22113	2.60768	2.15219	3.07905	-2.06157	-0.322226
0.1020	1.21512	0.510098	-2.63364	-0.154306	0.271362	0.802363	1.56033	2.47616	-2.06157	-0.322226
0.1027	-0.934709	-0.401895	-2.02888	-0.761884	-0.949766	-0.752215	0.322828	0.645954	-2.97028	-0.322226
0.1033	-1.21512	-0.0927451	-2.02888	-0.761884	-0.610564	-0.100295	-0.269023	0.645954	-2.06157	-0.322226
0.1040	1.21512	1.43755	-1.42412	-0.154306	0.881926	2.00591	1.23751	3.70347	0.0813776	0
0.1047	3.36495	3.26154	-1.42412	0.462917	1.22113	2.60768	1.82936	5.53368	0.69171	-0.322226
0.1053	2.99107	3.57069	-2.34102	0.462917	0.610564	2.00591	1.23751	4.60781	0.379762	-0.322226
0.1060	0	0.819248	-2.94578	-0.761884	-0.339202	0.200591	-1.1837	1.24885	-0.23057	-0.322226
0.1067	-0.934709	-1.31389	-2.34102	-1.36946	-1.22113	-0.451329	-2.74404	0.0430636	-0.528955	0
0.1073	1.49553	-0.401895	1.03395	-0.154306	0.271362	1.10325	-0.269023	2.17471	0.69171	0
0.1080	2.99107	-0.401895	12.0172	0.154306	1.49249	2.60768	1.56033	3.07905	1.91237	-0.322226
0.1087	2.14983	-1.62304	28.4824	-0.154306	0.610564	2.00591	0.914679	2.17471	1.60043	-0.644452
0.1093	0.560826	-2.53503	38.2561	-1.07049	-1.22113	0.200591	-1.82936	0.344509	0.0813776	-0.322226
0.1100	1.21512	-2.84418	38.2561	-1.36946	-1.22113	-0.451329	-2.74404	0.344509	0.0813776	-0.322226
0.1107	3.92578	-1.00474	35.8176	0.154306	0.881926	1.40413	0.322828	2.17471	2.21076	-0.322226
0.1113	5.1409	0.510098	31.2331	1.07049	1.49249	2.30679	2.47501	2.7776	3.13304	0
0.1120	2.99107	-0.711046	20.5619	0.154306	0.271362	1.10325	1.23751	-1.4857	1.91237	-0.322226
0.1127	0	-1.93219	8.03749	-1.07049	-1.22113	-1.0531	-2.09838	-10.6582	0.990094	-0.322226
0.1133	-1.21512	-0.0927451	-15.1581	-0.453272	-1.22113	-0.752215	-2.09838	-16.7518	1.30204	0
0.1140	0.280413	2.65869	-44.1477	0.462917	0.610564	1.70502	1.23751	-17.9791	2.21076	-0.322226
0.1147	2.71066	2.95239	-37.1246	0.761884	1.83169	2.60768	2.15219	-19.8093	3.43142	-0.322226
0.1153	2.71066	3.26154	-9.34456	0.761884	0.881926	1.40413	0.914679	-20.1107	3.43142	-0.322226
0.1160	-0.280413	4.17353	0.721814	0.154306	-0.949766	-0.752215	0	-13.0913	1.30204	-0.966677
0.1167	-1.58901	5.08552	5.30631	0.462917	-0.610564	-0.752215	0	0.0430636	0.990094	-0.644452
0.1173	0.280413	6.01297	13.2267	1.37911	0.881926	1.10325	1.56033	9.79698	3.43142	0
0.1180	0.934709	6.01297	17.2065	1.37911	1.22113	1.40413	2.15219	13.4574	3.74337	0
0.1187	0.280413	1.43755	12.622	0.761884	0.610564	0.501477	1.56033	19.5724	2.21076	-0.322226
0.1193	-0.934709	-5.88931	-7.51076	-0.453272	-0.339202	-0.752215	-0.914679	26.2688	2.52271	0.322226
0.1200	-1.21512	-7.72876	-38.9584	-1.07049	-0.949766	-0.752215	-1.50653	29.3263	5.26242	0.322226
0.1207	1.21512	-3.15333	-48.7127	0.462917	0.881926	1.10325	0.645656	26.5918	8.31408	-0.322226
0.1213	2.99107	-1.00474	-28.5799	1.37911	2.10305	2.60768	2.47501	17.1178	9.84669	-0.322226
0.1220	1.77595	-1.93219	-12.0953	1.07049	1.22113	1.40413	2.15219	12.2301	8.62603	0
0.1227	0	-1.31389	-6.61337	-0.154306	-0.949766	-0.752215	-1.1837	17.4192	4.96403	-0.322226
0.1233	0.560826	-0.711046	0.721814	-0.453272	-0.949766	-0.752215	-2.42121	17.4192	2.52271	0
0.1240	2.43024	-1.31389	9.87129	0.462917	0.610564	1.10325	0.914679	-1.4857	2.82109	0
0.1247	3.92578	0.510098	5.91107	1.07049	1.22113	2.30679	2.74404	-17.3546	1.60043	-0.322226
0.1253	3.92578	2.34954	-13.0122	0.462917	0	1.10325	0.914679	-12.7899	-3.89256	-0.322226
0.1260	-0.280413	0.510098	-22.4738	-0.761884	-1.22113	-1.65487	-1.82936	-5.77053	-8.77522	-0.322226
0.1267	-3.64537	0.510098	-16.3676	-0.761884	-0.949766	-1.0531	-1.1837	-2.71301	-6.02194	0
0.1273	-0.934709	2.95239	-8.7398	0.154306	0.610564	1.40413	0.914679	0.0430636	-0.23057	0
0.1280	0.934709	3.86438	-4.77958	0.761884	0.881926	2.00591	1.56033	-0.882804	3.74337	-0.322226
0.1287	0.280413	3.86438	-4.46744	0.154306	0	1.10325	0.914679	-4.24177	5.87275	-0.322226
0.1293	-1.58901	3.86438	-6.30124	-1.07049	-1.22113	-1.0531	-1.1837	-6.97631	5.26242	0
0.1300	-1.21512	5.39467	-6.61337	-1.07049	-1.56033	-1.0531	-1.82936	-7.60073	4.04175	0
0.1307	2.14983	7.23412	-4.15531	0.462917	0.271362	1.10325	1.23751	-4.84466	4.65209	0
0.1313	3.36495	7.52781	-1.42412	1.07049	1.22113	2.30679	2.47501	-3.63888	4.3537	-0.322226
0.1320	2.99107	5.08552	-0.50722	0.462917	0	1.70502	1.56033	0.645954	2.52271	0
0.1327	1.77595	-1.62304	-2.02888	-1.07049	-1.83169	-0.451329	-0.914679	18.6466	-3.28223	0
0.1333	0.560826	-6.50761	-2.94578	-1.07049	-1.83169	-1.0531	-1.82936	32.6853	-7.24261	0
0.1340	1.49553	-8.9499	1.63871	-0.154306	0	0.802363	0.914679	25.9674	-4.80128	-0.322226
0.1347	3.36495	-10.4647	10.4761	0.154306	1.22113	1.40413	2.74404	17.4192	-1.45123	0
0.1353	2.99107	-8.9499	12.3098	0.154306	0.610564	0.802363	1.82936	16.5149	-0.23057	0
0.1360	0.560826	-5.88931	3.47251	-0.761884	-1.22113	-1.0531	-1.50653	14.0818	-0.840902	-0.322226
0.1367	-0.934709	-2.84418	-0.799847	-0.761884	-1.22113	-1.35399	-2.09838	10.7228	-1.45123	-0.322226
0.1373	0.280413	0.819248	5.59893	0.154306	0.610564	1.10325	0.914679	13.7588	-0.23057	-0.322226
0.1380	2.71066	2.65869	10.7882	1.07049	1.22113	2.60768	2.74404	7.66533	1.30204	0
0.1387	3.64537	2.04039	19.0208	0.761884	0.271362	1.40413	1.56033	-18.8834	0.990094	0
0.1393	1.77595	2.95239	25.1269	-0.453272	-1.22113	-1.35399	-1.50653	-32.6207	-0.23057	-0.322226
0.1400	1.21512	6.61582	1.03395	-0.453272	-1.56033	-1.0531	-2.42121	-19.1848	-0.23057	-0.322226
0.1407	1.49553	4.17353	-31.0185	0.761884	0.271362	1.10325	0.322828	-3.01445	1.30204	0
0.1413	-0.654296	-2.53503	-30.1016	0.761884	1.49249	2.30679	2.15219	2.17471	1.91237	0
0.1420	-2.14983	-3.75618	-17.5966	0.154306	0.881926	2.00591	1.56033	-0.279914	1.60043	0
0.1427	-1.21512	1.1284	-12.0953	-1.07049	-0.339202	-0.451329	-0.591851	-0.581359	0.990094	-0.322226
0.1433	1.77595	9.36725	5.30631	-0.761884	-1.22113	-1.35399	-1.1837	2.47616	0.379762	-0.322226
0.1440	6.35602	9.6764	30.6283	0.761884	0	0.802363	0.322828	2.17471	1.30204	-0.644452
0.1447	7.29073	2.65869	45.8839	1.07049	1.22113	2.30679	2.15219	-4.24177	2.52271	0
0.1453	5.51478	1.1284	50.4684	-0.154306	0.610564	0.802363	1.23751	-16.7518	1.60043	0.322226
0.1460	4.29966	4.48268	45.5718	-0.761884	-1.56033	-1.35399	-0.591851	-25.2999	-0.528955	-0.322226
0.1467	4.29966	9.0581	36.1102	0.154306	-1.56033	-0.451329	0.914679	-11.864	0.0813776	-0.644452
0.1473	5.1409	10.8975	28.4824	0.154306	0.271362	1.70502	2.47501	20.7782	1.60043	-0.322226
0.1480	5.51478	8.14611	3.76514	0.154306	0.881926	2.00591	2.15219	53.1405	1.91237	0
0.1487	3.36495	1.1284	-49.3369	0.154306	0	1.10325	0.914679	85.1799	1.60043	-0.322226
0.1493	-2.43024	-4.66817	-88.3929	-1.07049	-1.56033	-0.451329	-1.82936	124.841	0.0813776	-0.322226
0.1500	-5.7952	0.216405	-79.5361	-1.36946	-1.22113	-0.451329	-2.09838	154.146	-0.528955	0
0.1507	-2.80413	-0.0927451	-51.4634	0.154306	0.271362	1.40413	0.322828	173.073	1.30204	-0.322226
0.1513	-0.280413	-14.1282	-32.8523	0.462917	0.881926	2.30679	2.15219	151.39	2.21076	-0.322226
0.1520	-2.14983	-18.1007	-17.8893	-0.154306	0	1.70502	1.56033	54.9707	1.91237	0
0.1527	-6.44949	-7.72876	-4.77958	-0.761884	-1.56033	-0.100295	-1.1837	-37.207	0.379762	-0.322226
0.1533	-9.16015	-1.62304	6.2037	-1.07049	-1.56033	-0.752215	-1.82936	-59.1694	-0.23057	-0.322226
0.1540	-6.72991	-2.84418	13.2267	-0.154306	0.610564	1.70502	1.23751	-54.5832	1.30204	-0.322226
0.1547	-3.36495	-4.66817	10.7882	0.761884	1.22113	2.90857	2.74404	-97.3238	2.21076	0
0.1553	-1.21512	-8.02245	4.99417	0.154306	0.271362	1.70502	2.15219	-168.723	1.60043	0
0.1560	-0.934709	-11.6859	4.07727	-0.761884	-0.949766	-0.752215	-0.591851	-182.159	0.0813776	-0.322226
0.1567	-1.21512	-9.24359	5.30631	-1.36946	-1.22113	-1.35399	-1.82936	-135.78	0.0813776	0
0.1573	1.49553	0.510098	6.82797	-0.154306	0.271362	0.802363	0.914679	-84.4908	1.30204	0
0.1580	3.92578	5.08552	7.12059	0.761884	1.49249	2.30679	2.74404	-54.5832	1.60043	0
0.1587	1.49553	-2.84418	5.91107	-0.154306	0.271362	1.10325	0.914679	-40.8674	1.30204	0
0.1593	-2.80413	-8.3316	4.38941	-1.07049	-1.56033	-0.752215	-1.50653	-32.6207	0.0813776	0.322226
0.1600	-1.86942	-4.66817	5.30631	-0.453272	-0.610564	-0.451329	-1.1837	-26.2042	0.0813776	0
0.1607	1.21512	-0.0927451	6.51583	1.07049	1.22113	1.70502	0.914679	-21.9409	0.990094	-0.322226
0.1613	1.49553	1.43755	4.38941	1.37911	1.49249	2.30679	2.15219	-20.7136	1.60043	-0.322226
0.1620	0.934709	-0.401895	1.63871	1.07049	0.610564	1.40413	1.23751	-19.5078	1.30204	-0.322226
0.1627	-0.934709	-4.37448	0.721814	-0.154306	-0.949766	-0.752215	-1.1837	-17.3546	0.0813776	-0.322226
0.1633	-1.58901	-5.59562	2.24347	-0.761884	-0.949766	-1.0531	-1.50653	-14.9215	-0.528955	-0.322226
0.1640	0.934709	-3.44703	3.47251	0.462917	0.271362	1.10325	0.914679	-11.5626	0.69171	-0.322226
0.1647	2.43024	-2.22588	3.16037	0.761884	1.22113	2.30679	2.47501	-11.5626	1.91237	-0.322226
0.1653	2.14983	-1.62304	2.84824	-0.154306	0	0.802363	1.23751	-16.7518	1.30204	-0.322226
0.1660	2.43024	-1.00474	2.55561	-1.07049	-1.22113	-1.65487	-1.50653	-26.2042	-0.23057	-0.322226
0.1667	3.36495	1.43755	2.55561	-0.761884	-0.610564	-1.0531	-1.82936	-33.2236	-0.23057	0
0.1673	4.86049	6.30667	4.38941	0.462917	0.271362	1.40413	0.322828	-26.5272	0.69171	0
0.1680	6.35602	8.45526	3.47251	1.37911	1.22113	2.30679	1.82936	-5.46908	1.30204	0
0.1687	5.1409	5.08552	-3.55054	0.154306	0.881926	1.10325	1.23751	32.3839	0.990094	0
0.1693	2.71066	2.34954	-12.4074	-1.36946	-0.949766	-1.35399	-1.1837	87.0101	-0.528955	-0.322226
0.1700	3.36495	0.510098	-16.6797	-0.453272	-1.22113	-0.752215	-1.82936	135.22	-0.528955	-0.322226
0.1707	4.58008	-3.44703	-17.8893	1.07049	0.610564	1.40413	0.914679	160.563	0.990094	-0.322226
0.1713	2.99107	-6.19846	-18.5135	0.761884	1.22113	2.00591	2.74404	163.599	1.60043	-0.322226
0.1720	0.934709	-5.88931	-13.6169	0.154306	0.610564	1.70502	2.47501	141.033	0.990094	0
0.1727	-1.86942	-6.50761	-4.15531	-0.453272	-0.610564	0.200591	-0.591851	47.6499	-0.528955	0
0.1733	-3.08454	-5.88931	4.38941	-0.154306	-0.610564	0.200591	-1.50653	-79.3017	-0.528955	-0.322226
0.1740	-2.80413	-1.31389	11.1003	0.761884	0.610564	1.70502	0.914679	-94.8692	0.990094	-0.322226
0.1747	-3.36495	5.08552	12.3098	0.761884	0.881926	1.70502	1.82936	-28.9603	1.30204	0
0.1753	-2.43024	6.61582	11.393	0.154306	0.610564	1.10325	0.914679	-13.3928	1.30204	0
0.1760	-1.86942	2.65869	14.1436	-0.453272	-0.949766	-0.752215	0.322828	-27.733	0.0813776	-0.322226
0.1767	-2.43024	2.04039	12.622	0.462917	-1.22113	-0.752215	1.23751	-21.6395	-0.840902	-0.644452
0.1773	-0.654296	4.48268	2.84824	1.37911	0.881926	1.40413	2.47501	-18.2805	0.69171	0
0.1780	0.934709	1.73124	-2.94578	0.462917	1.49249	1.70502	1.82936	-22.5438	0.990094	0
0.1787	1.21512	-4.97732	1.03395	-0.154306	0.271362	1.10325	1.23751	-42.999	0.379762	-0.322226
0.1793	0.934709	-7.11046	5.30631	-1.07049	-1.22113	-0.752215	-1.1837	-84.8138	-1.13929	-0.322226
0.1800	0.560826	-4.06533	6.82797	-1.07049	-0.949766	-1.0531	-1.82936	-94.5677	-1.74962	-0.322226
0.1807	1.21512	-1.93219	7.12059	0.462917	0.610564	0.802363	0.914679	-64.0572	-0.23057	-0.322226
0.1813	1.77595	-1.93219	7.74486	0.462917	0.881926	2.00591	2.47501	-39.3386	0.69171	0
0.1820	0.934709	-1.31389	8.95439	0.154306	0.610564	1.40413	1.56033	-28.6588	0.379762	0
0.1827	-0.654296	-1.00474	7.74486	-0.154306	0	-0.100295	-0.914679	-21.9409	-0.840902	-0.322226
0.1833	-0.934709	0.216405	4.68203	-0.453272	-0.339202	-0.100295	-1.50653	-17.0532	-0.840902	-0.322226
0.1840	0.280413	2.95239	2.55561	0.462917	0.610564	1.40413	0.645656	-12.1655	0.379762	0
0.1847	1.77595	5.39467	1.32658	0.761884	1.83169	2.30679	2.15219	-8.80651	0.0813776	-0.322226
0.1853	1.49553	4.79183	0.409678	0.462917	1.22113	1.40413	1.23751	-7.29929	-1.13929	-0.322226
0.1860	-1.21512	2.34954	-0.50722	-0.761884	-0.949766	-0.752215	-0.914679	-6.97631	-2.97028	-0.322226
0.1867	-1.86942	1.43755	0.117051	-0.761884	-1.22113	-0.752215	-1.1837	-4.84466	-2.35995	0
0.1873	0.560826	2.65869	2.24347	0.462917	0.271362	1.10325	0.914679	-1.4857	0.990094	0
0.1880	1.49553	4.17353	2.55561	0.761884	0.610564	1.70502	2.15219	-1.18425	2.82109	-0.322226
0.1887	1.21512	4.79183	3.76514	-0.154306	0	0.802363	0.914679	-0.581359	2.21076	0
0.1893	-0.654296	2.04039	5.91107	-1.36946	-1.83169	-1.0531	-1.50653	0.645954	0.69171	0
0.1900	-0.934709	-1.00474	7.43273	-1.07049	-1.22113	-1.35399	-1.50653	0.0430636	0.0813776	0
0.1907	1.77595	-1.62304	7.74486	0.761884	1.22113	1.10325	0.645656	-3.63888	0.990094	0
0.1913	2.99107	-1.62304	4.99417	0.761884	1.22113	1.70502	0.914679	-12.1655	0.69171	-0.322226
0.1920	2.14983	-2.53503	2.84824	0.154306	0.271362	0.802363	0.645656	-17.6561	0.379762	0
0.1927	1.21512	-3.75618	0.721814	-0.154306	-0.949766	-0.752215	-0.914679	-16.4503	-0.528955	0
0.1933	2.14983	-3.44703	-1.11198	-0.154306	-0.949766	-0.752215	-1.50653	-11.2611	-0.840902	0
0.1940	4.29966	-1.00474	1.03395	0.462917	0.610564	0.802363	0.914679	-2.11012	0.379762	-0.322226
0.1947	5.1409	2.34954	8.34963	0.462917	0.881926	1.40413	2.15219	11.9286	1.30204	0
0.1953	5.1409	7.23412	15.0605	0.462917	0.271362	1.10325	1.56033	29.3263	0.69171	0.322226
0.1960	4.86049	12.4124	13.851	-0.453272	-0.949766	-0.451329	-0.914679	38.8003	-1.13929	0
0.1967	5.51478	13.3398	4.38941	-1.07049	-1.56033	-0.451329	-1.82936	36.0443	-1.45123	0
0.1973	8.50585	7.52781	-9.34456	0.154306	0.610564	2.00591	0.914679	39.1018	0.69171	-0.322226
0.1980	10.0949	-3.44703	-22.1616	0.761884	1.49249	2.90857	2.47501	45.8197	0.990094	-0.322226
0.1987	5.7952	-7.41961	-28.2678	0.154306	0	1.10325	0.914679	32.3839	-0.23057	0
0.1993	0	-4.06533	-40.1679	-1.07049	-1.83169	-0.752215	-1.50653	6.13657	-1.13929	-0.322226
0.2000	-1.21512	-3.44703	-64.8852	-1.07049	-1.56033	-0.752215	-1.82936	-6.07197	-0.840902	-0.322226
0.2007	0	-4.66817	-71.9082	0.462917	0.881926	1.40413	0.914679	-4.84466	0.379762	0
0.2013	-1.86942	-3.75618	-47.7958	1.07049	1.49249	2.60768	2.47501	-4.24177	1.30204	0
0.2020	-4.01925	-3.15333	-13.0122	0.462917	0.271362	1.40413	1.23751	-2.11012	0.990094	-0.322226
0.2027	-5.23437	-1.93219	16.5822	-0.453272	-1.22113	-1.35399	-0.914679	1.87327	-0.528955	-0.322226
0.2033	-4.58008	-0.711046	33.0669	-0.154306	-0.949766	-1.0531	-0.914679	3.07905	-0.840902	-0.322226
0.2040	-0.934709	-0.711046	47.4056	0.462917	0.610564	1.70502	1.56033	5.53368	0.69171	-0.322226
0.2047	0.934709	-0.711046	72.1228	0.462917	0.881926	1.70502	3.06686	10.3999	0.69171	-0.322226
0.2053	1.49553	-1.31389	88.6075	1.07049	0.610564	0.501477	3.06686	19.5724	0.0813776	-0.322226
0.2060	-0.280413	-1.00474	84.023	-1.07049	-0.949766	-1.35399	-0.269023	32.3839	-0.528955	0
0.2067	-2.14983	2.95239	69.3916	-1.98668	-0.949766	-1.0531	-2.09838	40.932	-1.13929	-0.322226
0.2073	-0.654296	7.23412	56.2624	0.154306	0.610564	1.10325	1.23751	45.1953	0.379762	-0.322226
0.2080	0.934709	4.17353	39.173	0.761884	1.22113	0.802363	2.47501	49.4801	0.990094	0
0.2087	1.21512	-1.31389	14.4558	-0.154306	0.271362	-0.100295	0.322828	52.5161	-0.528955	-0.322226
0.2093	0.280413	-0.401895	-17.5966	-1.36946	-0.949766	-1.35399	-2.09838	31.1565	-1.45123	-0.322226
0.2100	-0.280413	3.26154	-57.5695	-1.36946	-0.949766	-1.65487	-1.82936	-25.2999	-0.23057	0
0.2107	0.560826	3.86438	-68.8649	0.761884	0.610564	-0.100295	2.15219	-64.66	0.379762	-0.644452
0.2113	1.21512	3.26154	-42.6065	1.98668	1.22113	1.40413	3.98154	-60.9996	0.0813776	-0.644452
0.2120	1.21512	1.73124	-21.5569	0.761884	0.610564	0.802363	1.82936	-45.7336	0.379762	0
0.2127	-0.934709	-1.93219	-16.6797	-1.36946	-1.83169	-1.65487	-1.82936	-26.8286	-1.13929	-0.322226
0.2133	-1.86942	-2.84418	-13.6169	-1.07049	-1.56033	-1.35399	-1.82936	-7.60073	-2.06157	-0.322226
0.2140	0.560826	-0.711046	-9.34456	0.462917	0.610564	1.10325	1.23751	0.9474	0.0813776	0
0.2147	1.21512	1.1284	-4.15531	0.462917	1.22113	1.70502	2.47501	4.00492	1.60043	0
0.2153	-0.934709	1.1284	3.16037	-0.154306	0.271362	1.10325	1.23751	4.30636	1.91237	0
0.2160	-3.36495	0.510098	5.30631	-1.07049	-0.949766	-1.0531	-1.1837	2.47616	1.60043	-0.322226
0.2167	-3.36495	-0.0927451	1.93134	-0.761884	-0.949766	-1.35399	-1.50653	3.70347	1.30204	-0.322226
0.2173	-0.654296	0.510098	0.117051	0.462917	0.610564	1.10325	0.914679	8.56966	1.60043	-0.322226
0.2180	0.934709	0.510098	0.117051	0.462917	0.881926	2.00591	2.47501	12.2301	1.60043	0
0.2187	-0.280413	-0.711046	-1.11198	-0.154306	0	0.802363	1.23751	13.7588	0.379762	0
0.2193	-1.86942	-1.93219	-3.86268	-1.07049	-1.22113	-1.35399	-0.914679	12.8545	-0.528955	0
0.2200	0	-1.31389	-5.0722	-1.36946	-1.22113	-1.35399	-1.50653	11.6272	0.69171	-0.322226
0.2207	3.36495	1.73124	-3.23841	0.154306	0.610564	1.10325	0.914679	11.6272	0.69171	0
0.2213	3.64537	3.86438	-0.50722	0.462917	1.49249	2.60768	2.47501	6.73946	-2.35995	-0.322226
0.2220	0.934709	2.04039	0.721814	-0.154306	0.610564	1.10325	1.23751	-1.78714	-3.58062	-0.322226
0.2227	-1.86942	-1.93219	0.721814	-0.761884	-1.22113	-1.0531	-1.50653	-7.60073	-3.28223	-0.322226
0.2233	-1.21512	-1.00474	1.63871	-0.761884	-0.610564	-0.451329	-0.914679	-10.0338	-2.35995	0
0.2240	2.14983	3.26154	1.63871	0.761884	1.22113	2.00591	1.82936	-9.43094	-0.23057	0
0.2247	2.71066	3.86438	0.721814	1.07049	1.49249	2.30679	2.47501	-6.07197	0.69171	0
0.2253	1.49553	2.04039	2.55561	0.462917	0.610564	1.10325	1.23751	-5.1461	0.0813776	-0.322226
0.2260	-0.280413	-0.401895	4.68203	-1.07049	-1.22113	-1.0531	-1.1837	-7.90218	-1.45123	0
0.2267	0	-1.00474	3.47251	-1.36946	-1.22113	-1.0531	-1.1837	-7.29929	-1.45123	0
0.2273	1.21512	0.819248	-0.799847	-0.154306	0.271362	1.40413	0.645656	-1.78714	-0.23057	0
0.2280	0.934709	1.43755	-3.86268	0.761884	1.22113	2.30679	1.56033	1.55029	0.0813776	-0.322226
0.2287	0	0.216405	-4.15531	0.154306	0.881926	0.802363	1.23751	1.55029	-0.23057	-0.322226
0.2293	-1.86942	-1.31389	-4.15531	-1.36946	-1.22113	-1.35399	-1.1837	-0.279914	-1.13929	0
0.2300	-1.58901	-0.711046	-2.63364	-1.07049	-1.56033	-0.752215	-2.09838	-0.882804	-1.45123	0
0.2307	1.77595	1.43755	-0.50722	0.154306	0.271362	2.00591	1.23751	1.24885	-0.23057	0
0.2313	2.99107	2.04039	-0.195085	0.761884	0.881926	2.60768	2.74404	2.7776	0.990094	-0.322226
0.2320	1.21512	1.1284	-0.50722	0.154306	0	0.802363	0.914679	2.17471	0.0813776	-0.322226
0.2327	-0.934709	-0.401895	-1.71675	-1.07049	-1.22113	-0.752215	-1.50653	0.645954	-1.74962	-0.322226
0.2333	-0.654296	-1.00474	-2.02888	-1.07049	-1.22113	-0.100295	-1.1837	0.9474	-1.74962	-0.322226
0.2340	1.49553	0.216405	-0.195085	0.462917	0.881926	2.00591	1.56033	3.07905	0.379762	0
0.2347	2.14983	1.1284	1.03395	1.07049	1.49249	2.30679	2.47501	3.3805	1.30204	-0.322226
0.2353	1.49553	1.1284	0.721814	0.761884	0.881926	1.10325	1.23751	2.47616	0.69171	-0.322226
0.2360	-0.654296	-0.711046	-1.42412	-0.154306	-0.610564	-0.451329	0	0.645954	-1.13929	-0.322226
0.2367	-1.21512	-1.31389	-1.11198	-0.154306	-0.610564	-0.752215	0.645656	-0.581359	-0.840902	-0.644452
0.2373	0.934709	0.510098	0.721814	0.761884	1.22113	1.10325	2.15219	1.24885	0.69171	-0.322226
0.2380	1.77595	0.819248	1.03395	0.761884	1.49249	1.70502	1.56033	4.00492	1.30204	0
0.2387	1.21512	0.216405	0.117051	0.154306	0.610564	0.501477	0.914679	4.30636	0.379762	0
0.2393	-0.654296	-0.401895	-0.799847	-0.761884	-0.610564	-1.65487	-0.914679	2.47616	-0.840902	0
0.2400	-1.58901	-0.711046	-0.50722	-0.761884	-1.22113	-1.65487	-1.82936	1.55029	-0.840902	0
0.2407	0.560826	-0.711046	0.409678	0.154306	0	1.10325	0.645656	3.70347	0.379762	0
0.2413	2.43024	0.510098	0.721814	0.462917	1.22113	2.30679	2.15219	5.2107	0.990094	0
0.2420	1.49553	0.819248	-0.50722	0.462917	0.610564	1.40413	1.23751	3.3805	0.69171	0
0.2427	0	-0.401895	-2.63364	-0.453272	-0.610564	-0.451329	-1.1837	1.55029	-0.528955	-0.322226
0.2433	1.49553	0.216405	-4.46744	-1.07049	-0.610564	-0.100295	-1.1837	3.07905	-0.528955	0
0.2440	3.92578	1.73124	-5.9891	0.154306	0.881926	1.70502	1.23751	7.06244	0.69171	0
0.2447	4.29966	2.04039	-7.51076	1.37911	1.49249	2.00591	2.15219	9.49553	0.990094	-0.322226
0.2453	3.36495	0.819248	-9.34456	0.462917	0.881926	1.40413	0.645656	8.89264	0.379762	-0.322226
0.2460	2.14983	-0.0927451	-10.8857	-1.07049	-0.339202	-0.100295	-1.82936	5.53368	-0.840902	0
0.2467	1.77595	-0.401895	-8.42766	-1.07049	-0.949766	-0.100295	-1.50653	2.7776	-1.13929	-0.322226
0.2473	4.58008	0.216405	0.721814	0.154306	0	1.40413	0.645656	1.55029	0.69171	-0.322226
0.2480	7.29073	0.216405	12.9341	1.07049	0.881926	2.30679	1.82936	0.645954	1.30204	0
0.2487	6.72991	-0.0927451	20.5619	0.462917	0.610564	1.10325	0.645656	-4.24177	0.379762	0
0.2493	3.64537	0.510098	23.0005	-0.761884	-0.949766	-1.35399	-1.82936	-14.3187	-0.840902	0
0.2500	2.99107	0.819248	23.6053	-0.761884	-1.22113	-0.752215	-2.09838	-22.5438	-1.13929	0
0.2507	3.64537	-0.711046	21.7715	0.462917	0.271362	2.00591	0.914679	-26.5272	0.379762	0
0.2513	2.71066	-3.15333	24.8343	0.761884	0.881926	2.90857	2.74404	-17.0532	0.990094	0
0.2520	0.934709	-4.37448	28.4824	0.462917	0.610564	1.70502	1.56033	11.6272	0.379762	0
0.2527	-0.654296	-1.93219	14.4558	-0.453272	-0.949766	0.200591	-1.1837	31.458	-0.528955	0
0.2533	0	2.34954	3.76514	-0.453272	-0.949766	-0.100295	-1.50653	29.3263	-0.840902	0
0.2540	1.77595	2.04039	23.0005	0.462917	0.610564	1.40413	0.914679	24.1372	0.0813776	-0.322226
0.2547	2.14983	-0.0927451	43.7575	0.761884	1.22113	1.70502	1.82936	23.2328	0.990094	0
0.2553	1.21512	-0.0927451	51.3853	1.07049	0.881926	0.802363	1.56033	21.4026	0.379762	0
0.2560	-1.21512	1.73124	50.7611	-0.154306	-0.949766	-0.752215	-1.1837	16.8163	-0.840902	-0.322226
0.2567	-1.21512	6.92497	13.2267	-0.761884	-1.56033	-1.0531	-1.50653	20.7782	-0.840902	-0.322226
0.2573	2.71066	9.6764	-35.8956	0.154306	0.881926	1.10325	1.56033	24.1372	0.0813776	-0.322226
0.2580	3.64537	6.30667	-38.9584	0.761884	1.49249	2.30679	2.74404	-3.63888	0.379762	-0.322226
0.2587	1.21512	3.26154	-34.3739	0.462917	0.271362	1.40413	1.23751	-31.3934	0.379762	-0.322226
0.2593	-1.58901	0.819248	-53.6093	-0.761884	-1.22113	-0.451329	-0.914679	-19.5078	-1.13929	0
0.2600	-2.43024	-1.62304	-60.0081	-0.761884	-0.610564	-0.752215	-1.1837	4.30636	-0.840902	0
0.2607	0.280413	-3.44703	-42.9186	0.462917	0.881926	0.802363	0.645656	13.4574	0.0813776	-0.322226
0.2613	2.71066	-1.93219	-25.5171	1.07049	1.22113	1.40413	1.56033	12.2301	0.0813776	-0.644452
0.2620	0.560826	3.86438	-19.1183	0.462917	0.610564	0.802363	1.23751	14.0818	0.0813776	0
0.2627	-5.7952	6.01297	-20.9521	-0.453272	-0.949766	-0.451329	-0.914679	35.1184	-0.840902	0
0.2633	-9.16015	0.819248	-19.1183	-0.453272	-0.949766	-0.752215	-2.09838	63.5189	-1.13929	-0.322226
0.2640	-6.07561	-4.97732	-12.0953	0.462917	0.881926	1.40413	0.645656	59.234	0.379762	-0.322226
0.2647	-0.934709	-4.06533	-7.8229	0.462917	1.83169	2.60768	2.47501	28.422	1.60043	0.322226
0.2653	0.560826	-3.44703	-10.8857	0.154306	0.610564	1.70502	0.914679	12.8545	0.379762	0.322226
0.2660	-2.43024	-9.24359	-18.5135	-0.154306	-0.949766	-0.451329	-0.914679	5.2107	-1.13929	-0.644452
0.2667	-3.36495	-12.3042	-17.5966	-0.453272	-1.56033	-0.752215	0	-13.0913	-0.840902	-0.644452
0.2673	-0.934709	-7.11046	-8.13503	0.154306	0.271362	1.10325	1.56033	-36.2811	0.69171	-0.322226
0.2680	2.43024	-1.93219	-4.15531	1.07049	1.22113	2.00591	1.82936	-59.4709	1.30204	0
0.2687	4.29966	0.216405	-4.46744	0.462917	0.610564	1.40413	0.914679	-65.8874	0.69171	0
0.2693	1.49553	1.1284	-4.46744	-1.07049	-1.22113	-0.752215	-1.50653	-51.5472	-0.840902	-0.322226
0.2700	-0.280413	3.57069	-2.02888	-1.07049	-1.22113	-1.35399	-2.09838	-34.7524	-0.528955	0
0.2707	2.99107	7.52781	5.59893	0.462917	0.271362	0.802363	0.322828	-20.7136	0.379762	-0.322226
0.2713	5.51478	13.9427	15.6653	1.37911	1.22113	2.60768	2.47501	-4.84466	0.69171	-0.322226
0.2720	3.64537	16.9878	27.5655	0.462917	0.610564	1.40413	1.82936	7.66533	0.379762	0
0.2727	0.934709	8.14611	42.5285	-1.36946	-1.22113	-1.0531	-1.82936	9.49553	-0.840902	-0.322226
0.2733	0.934709	2.04039	52.3022	-1.36946	-1.56033	-1.0531	-2.42121	4.00492	-1.13929	-0.322226
0.2740	2.99107	9.6764	48.6346	0.462917	0.271362	0.802363	0.645656	0.645954	0.0813776	-0.322226
0.2747	4.58008	12.1187	41.9237	0.761884	1.22113	1.70502	2.47501	2.47616	0.69171	-0.322226
0.2753	4.58008	-5.28647	35.5054	0.154306	0.271362	1.10325	2.15219	-2.11012	0.379762	-0.322226
0.2760	2.14983	-22.367	11.1003	-1.07049	-1.22113	-0.752215	-0.591851	-19.1848	-0.528955	0
0.2767	1.21512	-17.7916	-22.4738	-1.07049	-1.22113	-1.0531	-1.82936	-30.1876	-1.13929	-0.322226
0.2773	4.58008	-4.66817	-28.2678	-0.453272	0.271362	0.200591	0.645656	-24.374	0.0813776	-0.322226
0.2780	8.78627	-3.75618	-35.2908	0.154306	1.22113	0.802363	2.15219	-11.864	0.69171	0
0.2787	8.50585	-10.7739	-61.2371	0.154306	0.610564	0.501477	1.56033	-1.18425	0.0813776	0
0.2793	2.14983	-8.64075	-47.7958	-1.07049	-0.610564	-1.35399	-0.914679	2.7776	-0.840902	-0.322226
0.2800	-3.08454	0.216405	-16.3676	-1.07049	-0.339202	-1.0531	-1.50653	5.2107	-0.528955	0
0.2807	-3.36495	-1.62304	-16.6797	-0.453272	0.610564	0.802363	0.914679	21.7041	0.69171	0
0.2813	-2.80413	-10.4647	-23.9954	0.462917	0.881926	1.70502	2.47501	47.0255	1.30204	0
0.2820	-2.43024	-13.5253	-21.2447	0.761884	0.271362	1.10325	1.82936	65.952	0.990094	0
0.2827	-3.64537	-12.3042	-16.3676	-0.761884	-0.949766	-0.752215	-0.914679	75.103	-0.528955	0
0.2833	-2.80413	-8.9499	-10.5736	-1.07049	-0.949766	-0.752215	-1.50653	72.3684	-1.13929	0
0.2840	2.43024	-4.97732	-4.46744	-0.154306	0.881926	1.70502	1.23751	65.952	0.379762	0
0.2847	6.35602	-4.37448	0.117051	0.761884	1.83169	3.20945	3.06686	45.1953	1.30204	0
0.2853	3.92578	-5.59562	4.07727	0.462917	0.881926	2.00591	1.82936	-23.1682	0.990094	0
0.2860	-2.14983	-6.50761	4.38941	-1.07049	-1.22113	-0.752215	-1.1837	-91.2088	-0.840902	-0.322226
0.2867	-3.08454	-4.06533	4.07727	-1.36946	-1.56033	-1.65487	-1.82936	-93.3404	-1.13929	-0.322226
0.2873	1.77595	1.1284	10.4761	0.154306	0.271362	0.802363	1.23751	-49.4155	0.379762	0
0.2880	4.86049	1.73124	12.9341	0.761884	0.610564	2.30679	2.74404	-0.882804	1.30204	0
0.2887	4.58008	-0.711046	1.63871	-0.154306	-0.339202	1.10325	0.645656	28.099	0.379762	-0.322226
0.2893	1.49553	-0.401895	-10.2615	-0.761884	-0.949766	-1.0531	-1.82936	41.5349	-0.840902	0
0.2900	-1.86942	2.65869	-10.5736	-0.761884	-0.610564	-0.752215	-1.1837	62.2915	-0.23057	0
0.2907	-3.08454	5.39467	-5.69648	0.154306	0.271362	1.40413	1.56033	80.5936	0.990094	0
0.2913	-4.86049	8.74895	-3.23841	0.462917	0.881926	2.60768	2.47501	69.6124	0.69171	-0.322226
0.2920	-6.72991	9.9701	-1.11198	0.154306	0.271362	1.70502	1.56033	9.19409	0.0813776	0
0.2927	-6.72991	3.57069	-1.11198	-0.761884	-0.610564	-0.451329	-1.1837	-81.1534	-0.528955	0
0.2933	-4.86049	-3.15333	-0.799847	-0.453272	-0.610564	-0.451329	-1.82936	-123.873	-0.528955	0
0.2940	-2.14983	-3.15333	12.9341	0.462917	0.610564	1.70502	0.914679	-100.984	0.990094	0
0.2947	-0.934709	0.819248	34.9007	0.761884	1.22113	2.90857	2.74404	-62.227	1.30204	0
0.2953	0	4.17353	45.8839	0.154306	0.610564	1.40413	1.82936	-34.7524	0.0813776	-0.322226
0.2960	0.280413	6.30667	45.8839	-1.36946	-1.22113	-1.0531	-0.914679	-17.6561	-0.840902	-0.322226
0.2967	0.560826	9.36725	42.2163	-1.67807	-1.56033	-1.0531	-1.50653	-5.1461	-0.840902	0.322226
0.2973	1.77595	13.9427	33.379	0.462917	0	1.10325	1.56033	-1.78714	0.0813776	-0.322226
0.2980	2.43024	14.2518	16.5822	2.28565	0.881926	2.60768	4.89622	3.70347	0.990094	-0.644452
0.2987	2.71066	10.8975	-13.9291	0.761884	0.881926	2.00591	2.74404	29.3263	0.379762	0
0.2993	0.280413	11.1912	-52.0681	-1.07049	0	-0.451329	-1.50653	35.1184	-1.45123	0
0.3000	-3.64537	13.0307	-60.6128	-0.761884	-0.949766	-0.752215	-1.82936	4.90925	-1.13929	0
0.3007	-3.64537	8.14611	-29.1847	0.462917	0.271362	1.10325	0.914679	-1.78714	0.990094	0
0.3013	-1.58901	-1.93219	2.55561	0.761884	1.49249	1.10325	2.47501	-0.279914	0.990094	0.322226
0.3020	-1.21512	-11.083	4.99417	0.462917	0.610564	1.10325	1.56033	-35.6782	0.0813776	0
0.3027	-2.80413	-16.8796	-5.9891	-0.761884	-0.949766	-0.451329	-1.1837	-60.0953	-0.528955	-0.322226
0.3033	-3.08454	-11.995	-8.7398	-0.761884	-0.949766	-1.0531	-1.82936	-45.4321	-0.528955	-0.322226
0.3040	-1.58901	-0.711046	-10.5736	-0.154306	0.610564	1.10325	0.914679	-22.5438	0.69171	0
0.3047	-0.934709	4.48268	-14.846	0.154306	1.22113	2.00591	2.47501	-7.60073	0.990094	-0.322226
0.3053	-0.934709	3.26154	-12.7	0.761884	1.22113	1.10325	1.56033	-1.18425	0.379762	-0.322226
0.3060	-0.934709	-3.44703	-8.42766	-0.453272	-0.949766	-1.35399	-1.1837	-3.3159	-0.840902	0
0.3067	0.560826	-10.4647	-4.77958	-1.36946	-1.83169	-1.65487	-1.82936	-4.54321	-1.13929	0
0.3073	3.64537	-10.171	1.03395	0.154306	0	0.501477	0.322828	-3.01445	0.379762	0
0.3080	5.1409	-6.50761	3.76514	1.07049	0.610564	1.40413	1.56033	-3.01445	1.30204	0
0.3087	3.64537	-3.15333	3.16037	0.462917	-0.339202	0.501477	1.82936	-6.97631	0.379762	-0.322226
0.3093	0	-2.22588	1.32658	-0.453272	-1.22113	-1.35399	0.322828	-16.4503	-0.840902	-0.322226
0.3100	-0.280413	-2.53503	0.721814	-0.761884	-1.22113	-1.35399	-1.50653	-22.2424	-0.840902	0
0.3107	2.43024	-1.93219	2.55561	0.154306	0.881926	0.501477	0.322828	-16.1489	0.379762	0
0.3113	4.29966	-0.0927451	2.84824	0.761884	1.22113	1.40413	2.74404	-2.41156	0.990094	0
0.3120	3.36495	2.04039	1.93134	0.462917	0.610564	0.802363	1.56033	8.26822	0.69171	0
0.3127	0.560826	2.95239	1.32658	-0.761884	-0.610564	-0.752215	-0.914679	6.43801	-0.840902	0
0.3133	-0.280413	4.17353	2.24347	-0.761884	-0.339202	-0.451329	-0.914679	-0.882804	-0.840902	0
0.3140	0.280413	6.01297	2.55561	0.462917	0.881926	2.00591	1.82936	-2.41156	0.69171	0
0.3147	1.21512	6.61582	1.63871	0.761884	1.22113	2.60768	2.74404	-1.4857	0.990094	-0.322226
0.3153	1.49553	7.83696	4.07727	0.462917	0.881926	2.00591	1.56033	-0.882804	0.379762	-0.322226
0.3160	0.280413	8.74895	4.07727	-0.761884	-0.610564	-0.451329	-1.1837	-1.4857	-0.840902	0
0.3167	0	4.17353	-4.77958	-0.453272	-0.610564	-0.752215	-1.50653	5.53368	-0.840902	0
0.3173	2.43024	-5.88931	-15.4507	0.462917	0.610564	2.00591	1.23751	25.063	0.69171	0
0.3180	4.29966	-10.7739	-20.0352	0.761884	1.22113	2.60768	2.15219	43.6665	1.30204	0
0.3187	4.58008	-7.72876	-20.9521	0.462917	0.610564	1.10325	1.23751	48.8557	0.379762	-0.322226
0.3193	2.71066	-4.06533	-22.4738	-0.453272	-1.22113	-0.451329	-0.591851	46.724	-1.13929	-0.322226
0.3200	2.14983	-2.53503	-20.9521	-0.761884	-1.22113	-1.0531	-1.50653	51.3103	-0.23057	0.322226
0.3207	3.36495	-2.84418	-10.2615	0.761884	0.271362	0.501477	0.322828	68.708	2.52271	-0.322226
0.3213	4.58008	-4.97732	1.63871	1.07049	0.881926	2.00591	2.47501	69.6124	4.3537	-0.644452
0.3220	5.1409	-7.11046	13.2267	0.462917	0.271362	1.10325	1.82936	7.36388	4.65209	0
0.3227	2.43024	-6.50761	26.3559	-0.154306	-0.949766	-1.35399	-0.591851	-71.6794	3.13304	0.322226
0.3233	0.560826	-4.37448	27.8776	0.462917	-0.339202	-1.0531	-0.914679	-76.5671	1.91237	0
0.3240	0.934709	-1.31389	21.4788	1.37911	1.22113	1.70502	1.82936	-33.2236	3.13304	0
0.3247	-0.934709	0.510098	16.5822	1.37911	1.49249	3.20945	2.47501	-9.43094	4.3537	0
0.3253	-2.80413	2.65869	12.3098	0.761884	0	2.00591	0.645656	-5.1461	4.3537	-0.322226
0.3260	-4.01925	4.79183	8.03749	-0.453272	-1.56033	-0.451329	-0.269023	-0.882804	0.0813776	-0.644452
0.3267	-3.36495	4.79183	8.03749	-0.761884	-0.610564	-0.451329	0.645656	4.90925	-6.94422	-0.644452
0.3273	-0.280413	2.95239	9.26653	-0.453272	0.610564	1.70502	1.23751	9.19409	-8.46327	-0.322226
0.3280	1.21512	2.65869	8.66176	-0.453272	0.610564	2.30679	1.23751	8.26822	-4.80128	0
0.3287	0.934709	4.79183	10.7882	-0.154306	0.610564	1.40413	0.914679	9.49553	-2.6719	0.322226
0.3293	-1.21512	4.79183	11.393	-1.36946	-0.610564	-0.752215	-1.82936	8.26822	-2.97028	0
0.3300	-2.14983	1.43755	7.43273	-1.36946	-0.949766	-0.752215	-1.82936	-13.6942	-2.35995	-0.322226
0.3307	-0.280413	1.1284	2.55561	0.154306	0.271362	1.10325	1.56033	-37.207	-0.23057	0
0.3313	2.14983	2.95239	-1.71675	0.761884	0.610564	2.00591	2.47501	-33.848	0.379762	0
0.3320	2.71066	-0.0927451	-4.77958	0.462917	0.610564	1.70502	1.23751	-17.6561	-0.840902	0
0.3327	0.934709	-4.06533	-5.9891	-0.761884	-0.610564	-0.100295	-0.914679	-12.1655	-1.45123	0
0.3333	0.560826	-3.44703	-5.69648	-0.761884	-0.949766	0.200591	-1.1837	-11.864	-1.45123	0
0.3340	2.43024	-0.401895	-2.94578	1.07049	0.610564	2.30679	1.23751	-6.37342	-0.528955	-0.322226
0.3347	3.36495	1.1284	2.55561	1.07049	0.881926	2.90857	2.15219	-1.4857	0.69171	-0.322226
0.3353	1.49553	1.1284	7.74486	-0.761884	-0.339202	1.10325	0.914679	-1.4857	0.990094	0
0.3360	-0.934709	0.216405	8.34963	-1.67807	-1.22113	-1.0531	-1.50653	-2.11012	0.379762	0
0.3367	0	0.510098	7.12059	-0.761884	-0.949766	-0.451329	-1.50653	-1.18425	-0.840902	0
0.3373	1.21512	1.43755	8.03749	-0.154306	0.271362	1.40413	0.914679	0.9474	-0.840902	0
0.3380	1.21512	1.73124	10.1834	0.154306	1.22113	2.00591	2.15219	1.55029	-0.528955	0
0.3387	1.77595	1.1284	10.4761	0.462917	0.271362	1.40413	1.23751	1.55029	-0.528955	0
0.3393	0.560826	-0.0927451	7.43273	-0.761884	-1.22113	-0.752215	-1.50653	0.645954	-1.45123	0
0.3400	-0.934709	0.216405	4.99417	-1.67807	-1.22113	-0.100295	-2.09838	0.645954	-1.13929	0
0.3407	0.560826	2.04039	4.07727	-0.761884	0.610564	2.00591	1.23751	2.7776	0.990094	0
0.3413	1.21512	2.65869	3.47251	0.462917	1.49249	2.30679	3.06686	4.00492	1.60043	0
0.3420	0.280413	1.1284	2.24347	0.154306	0.881926	1.10325	1.23751	3.70347	0.379762	0
0.3427	-0.654296	-1.00474	1.03395	-0.761884	-0.610564	-0.451329	-1.50653	2.7776	-0.840902	0
0.3433	0	-2.53503	1.93134	-0.761884	-0.949766	-0.100295	-1.1837	3.07905	-0.528955	0
0.3440	2.71066	-2.22588	6.82797	0.154306	0.271362	1.70502	1.82936	4.90925	0.990094	0
0.3447	3.92578	-1.00474	9.26653	0.462917	0.881926	2.00591	2.15219	5.53368	0.990094	0
0.3453	2.99107	-0.401895	7.43273	0.462917	0.271362	1.10325	0.322828	4.00492	0.0813776	0
0.3460	0.934709	0.510098	5.59893	-1.07049	-0.610564	-0.752215	-1.82936	3.3805	-0.840902	-0.322226
0.3467	1.21512	2.04039	2.24347	-1.36946	-0.610564	-0.752215	-1.82936	5.2107	-0.840902	-0.322226
0.3473	3.92578	2.65869	-1.71675	-0.154306	1.22113	1.40413	1.23751	8.56966	0.379762	0
0.3480	4.29966	2.34954	-5.0722	0.761884	1.83169	2.60768	2.47501	10.3999	0.990094	0
0.3487	2.14983	1.73124	-11.4905	0.154306	0.610564	1.70502	1.23751	7.66533	0.379762	-0.322226
0.3493	-0.654296	0.510098	-17.8893	-1.36946	-0.949766	-0.451329	-1.50653	-0.279914	-0.840902	-0.322226
0.3500	-0.934709	0.819248	-11.7831	-1.07049	-0.610564	-1.0531	-1.50653	-6.37342	-0.840902	-0.322226
0.3507	0	4.48268	2.24347	0.462917	0.881926	0.501477	0.914679	-5.1461	0.379762	-0.322226
0.3513	0.560826	6.30667	8.66176	1.07049	1.22113	2.00591	2.47501	-2.11012	1.91237	0
0.3520	0.560826	4.48268	5.91107	0.462917	0.271362	1.40413	1.82936	0.0430636	2.21076	0
0.3527	-0.934709	-0.401895	1.03395	-0.761884	-0.949766	-1.0531	-1.1837	-3.63888	1.30204	-0.322226
0.3533	-0.654296	-3.15333	-2.02888	-0.761884	-0.610564	-1.0531	-1.82936	-8.50507	1.30204	-0.322226
0.3540	1.77595	-0.401895	-2.02888	1.07049	0.881926	1.10325	1.82936	-1.18425	2.52271	-0.322226
0.3547	2.99107	2.65869	-1.11198	1.37911	1.22113	1.70502	3.06686	9.79698	2.82109	0
0.3553	2.43024	4.48268	-2.34102	0.462917	0.610564	0.501477	1.56033	11.3257	1.30204	0
0.3560	1.21512	2.34954	-4.15531	0.154306	-0.949766	-1.35399	0.322828	9.19409	-0.23057	-0.322226
0.3567	0.280413	-5.28647	-1.71675	1.07049	-0.949766	-1.35399	0.645656	11.3257	0.69171	-0.644452
0.3573	1.77595	-8.9499	3.76514	1.37911	0.881926	1.40413	2.15219	14.9861	0.379762	-0.322226
0.3580	2.99107	-6.50761	5.91107	0.761884	1.83169	2.00591	3.06686	12.8545	-3.28223	-0.322226
0.3587	2.14983	-3.44703	5.91107	-0.154306	0.610564	0.501477	1.82936	11.0243	-3.89256	-0.322226
0.3593	-0.280413	-1.62304	5.30631	-0.761884	-1.22113	-1.0531	-1.1837	14.9861	-2.35995	-0.322226
0.3600	-0.654296	-1.31389	3.16037	-0.761884	-0.949766	-0.752215	-1.82936	22.9314	-1.45123	-0.322226
0.3607	2.71066	-0.0927451	2.84824	0.462917	1.22113	2.00591	1.23751	32.0824	-0.23057	-0.322226
0.3613	6.07561	4.17353	15.3727	1.07049	1.49249	2.60768	2.74404	37.573	0.69171	-0.322226
0.3620	6.72991	5.39467	36.1102	0.761884	0	0.802363	1.56033	43.3651	0.69171	-0.322226
0.3627	6.07561	-1.62304	49.8442	-0.453272	-0.610564	-1.35399	-0.591851	49.1571	-0.23057	0
0.3633	7.94503	-9.86189	63.2855	-0.453272	0	-0.752215	-0.914679	47.6499	-0.528955	0
0.3640	11.5904	-10.4647	90.1292	0.761884	1.49249	1.70502	1.82936	32.3839	0.379762	-0.322226
0.3647	11.5904	-4.97732	107.219	1.37911	1.49249	2.00591	3.38969	-8.20362	0.379762	0
0.3653	8.50585	-0.711046	79.7506	1.07049	0.610564	1.40413	2.15219	-45.7336	-0.23057	0
0.3660	3.92578	0.819248	35.2128	-0.154306	-0.949766	0.200591	-0.591851	-45.4321	-0.840902	0
0.3667	0	5.08552	-1.42412	-0.761884	-0.610564	0.200591	-1.1837	-24.374	-1.13929	0
0.3673	-1.21512	10.8975	-57.5695	-0.154306	0.881926	1.70502	1.23751	2.47616	0.0813776	-0.322226
0.3680	-2.80413	13.0307	-99.9809	0.154306	1.22113	2.30679	2.74404	31.1565	0.990094	-0.322226
0.3687	-5.51478	10.5884	-102.439	0.154306	0.610564	1.70502	1.82936	69.3109	0.69171	0
0.3693	-8.87974	6.30667	-101.21	-0.453272	-0.949766	-0.752215	-1.1837	91.5963	-0.528955	-0.322226
0.3700	-10.0949	4.48268	-80.4529	-0.154306	-0.610564	-1.0531	-1.50653	48.2528	-0.840902	-0.322226
0.3707	-7.01032	2.04039	-38.0415	1.37911	1.22113	1.40413	1.82936	-12.4885	0.990094	-0.322226
0.3713	-3.64537	-4.97732	-19.4304	1.67807	1.49249	2.60768	3.38969	-50.9227	1.30204	-0.322226
0.3720	-2.43024	-8.64075	-23.3907	0.761884	0.881926	1.70502	2.15219	-86.9455	0.0813776	-0.322226
0.3727	-2.43024	-6.50761	-24.6197	-0.453272	-0.610564	-0.752215	-0.914679	-98.5296	-1.74962	-0.322226
0.3733	-2.80413	-1.62304	-17.8893	-0.453272	-0.610564	-0.752215	-1.82936	-73.5096	-1.45123	-0.322226
0.3740	-0.654296	3.26154	-12.0953	1.07049	0.881926	2.00591	1.56033	-36.2811	2.21076	-0.322226
0.3747	2.43024	6.01297	-16.9724	1.37911	1.49249	2.60768	2.74404	-8.20362	3.74337	-0.322226
0.3753	1.49553	3.57069	-29.4968	-0.154306	0.881926	1.70502	1.23751	0.9474	1.30204	-0.322226
0.3760	-1.58901	-0.401895	-39.5632	-1.36946	-0.949766	-0.100295	-1.1837	3.07905	-0.840902	-0.322226
0.3767	-0.654296	2.04039	-41.397	-0.761884	-1.22113	-0.100295	-1.1837	16.8163	-0.528955	0
0.3773	2.14983	9.36725	-37.7294	0.761884	0.881926	2.00591	1.23751	34.5155	0.990094	0
0.3780	2.43024	11.1912	-33.457	1.37911	1.83169	2.60768	2.74404	43.6665	1.60043	0
0.3787	0.560826	-2.22588	-28.2678	0.462917	0.881926	1.40413	2.15219	50.3844	0.990094	0
0.3793	-2.43024	-21.7642	-9.34456	-1.36946	-0.949766	-1.0531	-1.1837	54.0449	-0.528955	-0.322226
0.3800	-2.43024	-31.2242	22.3957	-1.36946	-0.949766	-1.0531	-1.82936	38.1759	-0.23057	0
0.3807	2.71066	-27.2516	44.3623	0.462917	0.610564	1.40413	1.56033	8.89264	0.990094	0
0.3813	6.35602	-22.367	46.8008	1.07049	1.49249	2.00591	2.74404	-18.8834	0.990094	-0.644452
0.3820	4.58008	-19.9247	39.7778	0.462917	0.881926	1.10325	1.82936	-49.4155	0.990094	-0.322226
0.3827	-0.280413	-1.62304	32.4621	-0.761884	-0.610564	-0.451329	-1.1837	-67.1147	0.0813776	0
0.3833	-2.14983	27.0661	25.1269	-0.761884	-0.610564	-0.451329	-1.50653	-51.2457	-0.23057	0
0.3840	-0.934709	30.1112	24.8343	0.761884	0.881926	1.70502	1.56033	-26.2042	1.60043	0
0.3847	0.280413	12.4124	22.3957	1.37911	1.49249	3.20945	3.06686	-15.5244	1.60043	0
0.3853	1.49553	1.73124	-9.96883	0.462917	1.22113	2.00591	1.56033	-14.9215	0.69171	0
0.3860	0	-1.31389	-47.5031	-1.07049	-0.949766	-0.451329	-1.1837	-18.582	3.13304	-0.322226
0.3867	-1.21512	0.216405	-46.5862	-0.154306	-1.56033	-0.752215	-0.269023	-14.9215	10.1451	-0.644452
0.3873	1.49553	6.61582	-26.7461	2.28565	0.610564	1.70502	2.47501	-1.78714	17.4691	-0.322226
0.3880	3.92578	9.9701	-13.9291	2.28565	1.22113	2.90857	2.47501	10.0984	19.924	0
0.3887	3.36495	5.70382	-6.61337	1.07049	0.271362	1.70502	1.23751	11.3257	19.0017	0
0.3893	0.934709	1.43755	-3.55054	-0.154306	-1.22113	-1.0531	-0.914679	-1.4857	15.6381	0.322226
0.3900	0.280413	1.73124	-2.34102	-0.453272	-0.949766	-1.0531	-1.82936	-15.223	11.9761	0
0.3907	1.77595	4.48268	-1.11198	1.07049	0.881926	1.40413	0.645656	-18.582	12.288	0
0.3913	2.43024	2.65869	-0.799847	1.37911	1.22113	2.30679	2.15219	-16.1489	9.53474	-0.322226
0.3920	1.21512	-1.93219	-0.195085	-0.154306	0.271362	1.70502	1.23751	-12.1655	-8.46327	0
0.3927	-1.58901	-2.22588	-0.799847	-1.98668	-0.949766	-0.451329	-1.50653	-9.73238	-24.9422	0
0.3933	-1.86942	1.1284	0.409678	-1.07049	-1.22113	-1.0531	-1.82936	-6.07197	-19.1509	-0.322226
0.3940	1.77595	3.57069	8.66176	1.07049	0.881926	1.70502	1.23751	2.17471	-3.58062	-0.322226
0.3947	4.58008	2.34954	15.3727	1.37911	2.10305	2.60768	3.06686	14.9861	4.96403	0
0.3953	5.1409	-0.711046	16.8943	0.154306	0.610564	1.70502	1.82936	25.3645	5.87275	0
0.3960	3.36495	-2.22588	14.7484	-1.07049	-1.56033	-0.451329	-1.82936	28.099	3.43142	-0.322226
0.3967	1.21512	0.216405	8.03749	-0.761884	-1.56033	-1.0531	-2.09838	37.8745	5.26242	0
0.3973	0.934709	7.23412	4.07727	0.462917	0.610564	0.802363	0.914679	59.8585	0.0813776	0
0.3980	2.71066	14.8547	7.74486	0.154306	1.49249	2.60768	3.06686	85.1799	-22.2025	0
0.3987	3.36495	10.8975	17.2065	-1.98668	0.610564	1.70502	1.23751	102.879	-35.9282	0
0.3993	0.934709	-3.44703	26.9607	-3.20184	-1.22113	-1.35399	-2.74404	96.764	-31.0456	-0.322226
0.4000	1.49553	-7.11046	31.2331	-2.28565	-1.22113	-1.35399	-2.74404	67.4807	-20.6699	-0.322226
0.4007	5.1409	0.216405	41.9237	0.154306	0.610564	1.40413	0.322828	6.13657	-11.8269	0
0.4013	5.1409	0.216405	56.5746	1.37911	1.49249	2.00591	2.47501	-63.4327	-6.63228	-0.322226
0.4020	1.21512	0.510098	41.9237	0.761884	0.881926	1.10325	2.15219	-87.2469	-4.80128	0
0.4027	-3.36495	4.79183	-0.799847	-1.07049	-0.949766	-1.0531	-0.914679	-75.3398	-5.11323	0.322226
0.4033	-4.01925	2.95239	-37.1246	-1.07049	-0.610564	-0.752215	-1.50653	-55.8105	-4.50289	-0.322226
0.4040	-0.654296	-5.28647	-50.2538	0.761884	1.49249	1.40413	1.23751	-35.0538	-2.35995	-0.322226
0.4047	0.280413	-11.083	-40.1679	1.37911	1.83169	2.00591	2.15219	-18.8834	-0.840902	0
0.4053	-2.14983	-6.81676	-26.7461	0.761884	0.271362	1.40413	0.914679	-2.41156	-1.45123	-0.322226
0.4060	-5.7952	-0.0927451	-21.5569	-0.761884	-1.22113	-1.35399	-2.09838	13.7588	-2.35995	-0.322226
0.4067	-5.23437	0.216405	-16.075	-1.07049	-1.22113	-1.65487	-2.42121	2.7776	-1.74962	0
0.4073	-1.21512	-1.93219	-11.1784	0.154306	0.610564	1.10325	0.914679	-31.3934	0.69171	0
0.4080	0.560826	-2.22588	-6.61337	0.761884	0.881926	1.70502	1.82936	-44.2264	1.60043	-0.322226
0.4087	-0.654296	-1.00474	2.55561	0.462917	0.271362	1.40413	0.322828	-25.2999	0.69171	-0.322226
0.4093	-3.64537	-0.401895	10.1834	-0.761884	-1.22113	-1.65487	-2.42121	6.43801	-0.840902	0
0.4100	-4.01925	-0.401895	12.622	-1.07049	-1.56033	-2.25665	-3.01306	14.9861	-0.528955	0
0.4107	-1.86942	-0.401895	12.3098	0.761884	0.271362	1.10325	0.322828	-17.0532	1.60043	0
0.4113	-0.934709	-0.711046	12.3098	1.37911	1.22113	2.60768	1.82936	-39.6401	2.21076	0
0.4120	-0.934709	-1.00474	11.7051	0.761884	1.22113	2.00591	0.914679	-27.1301	2.21076	-0.322226
0.4127	-2.43024	-2.22588	8.95439	-0.453272	-1.22113	-1.0531	-1.1837	-12.4885	1.30204	-0.322226
0.4133	-2.80413	-1.62304	6.2037	-0.154306	-1.56033	-1.65487	-1.1837	-1.78714	0.990094	0
0.4140	0	1.1284	6.2037	1.07049	0.881926	1.40413	1.82936	8.56966	2.21076	0
0.4147	1.77595	1.73124	6.2037	1.07049	1.22113	2.30679	2.47501	-9.43094	3.13304	0
0.4153	1.21512	-0.401895	4.99417	0.462917	0	0.501477	0.914679	-42.999	2.52271	-0.322226
0.4160	-0.934709	-2.84418	3.76514	-0.154306	-1.83169	-1.95576	-0.914679	-46.0566	0.379762	-0.644452
0.4167	-2.14983	-2.22588	3.76514	0.154306	-1.22113	-1.0531	-0.591851	-27.733	0.379762	-0.644452
0.4173	-0.934709	-0.0927451	4.68203	0.761884	0.881926	1.70502	1.56033	-14.9215	2.52271	-0.322226
0.4180	1.21512	0.819248	6.82797	0.761884	1.49249	2.30679	2.15219	-8.20362	3.43142	-0.322226
0.4187	2.14983	0.819248	12.9341	0.462917	0.610564	1.40413	0.322828	-0.882804	2.52271	-0.644452
0.4193	-0.654296	-1.00474	15.9774	-0.761884	-1.56033	-1.0531	-2.42121	6.13657	0.990094	-0.644452
0.4200	-3.36495	-1.62304	14.7484	-1.36946	-1.56033	-1.65487	-2.42121	6.13657	0.990094	-0.322226
0.4207	-2.43024	1.43755	15.3727	0.154306	0.610564	0.802363	-0.269023	3.07905	2.21076	-0.322226
0.4213	0	4.48268	16.8943	1.07049	1.83169	2.30679	1.56033	4.30636	3.13304	-0.322226
0.4220	1.21512	5.39467	14.1436	0.761884	0.881926	1.10325	1.23751	5.53368	3.13304	0
0.4227	-0.280413	4.48268	9.26653	-0.453272	-0.949766	-1.95576	-1.82936	1.24885	1.30204	0
0.4233	-0.280413	3.86438	11.7051	-0.453272	-0.610564	-1.65487	-2.09838	-3.01445	0.69171	-0.322226
0.4240	1.49553	3.86438	5.30631	0.761884	0.881926	1.40413	0.645656	-1.78714	2.21076	0
0.4247	1.77595	3.86438	-24.3076	1.07049	1.49249	2.00591	1.82936	5.2107	3.13304	-0.322226
0.4253	1.49553	2.95239	-38.0415	0.761884	1.22113	0.501477	0.914679	18.3451	2.21076	-0.644452
0.4260	0	-1.31389	-23.9954	-0.761884	-0.949766	-2.25665	-1.82936	31.458	0.69171	-0.322226
0.4267	0.280413	-4.06533	-15.4507	-1.67807	-1.56033	-2.25665	-2.74404	47.6499	0.69171	-0.322226
0.4273	2.71066	-5.59562	-14.2412	-0.154306	0.271362	0.802363	0.322828	70.8397	2.21076	-0.322226
0.4280	2.71066	-8.02245	-9.96883	1.07049	0.881926	2.90857	2.47501	70.5382	3.43142	0
0.4287	1.49553	-8.02245	-8.42766	0.462917	0.271362	1.70502	1.23751	28.422	2.82109	0
0.4293	0.934709	-6.19846	-8.7398	-1.36946	-1.56033	-1.65487	-2.42121	-26.8286	0.69171	-0.322226
0.4300	0.934709	-3.44703	-3.86268	-1.07049	-0.949766	-1.65487	-3.01306	-51.8486	0.69171	0
0.4307	1.77595	1.43755	4.38941	1.07049	0.881926	1.10325	0.645656	-38.4128	2.52271	0
0.4313	1.21512	4.79183	9.26653	1.37911	1.22113	2.00591	2.15219	-19.5078	2.52271	0
0.4320	-1.58901	3.57069	10.1834	0.154306	0	0.802363	0	-14.6201	1.60043	0
0.4327	-4.29966	0.819248	8.95439	-1.67807	-1.56033	-1.95576	-2.74404	-17.3546	0.0813776	0
0.4333	-4.01925	-0.0927451	7.74486	-1.67807	-1.83169	-1.95576	-2.74404	-17.0532	-0.23057	-0.322226
0.4340	-1.58901	0.819248	8.34963	0.154306	0.271362	1.10325	0.645656	-12.1655	2.21076	0
0.4347	-0.280413	0.819248	7.12059	1.07049	1.49249	1.70502	2.15219	-7.90218	2.82109	-0.322226
0.4353	-0.280413	0.819248	3.76514	0.761884	0.610564	0.200591	0.645656	-3.01445	2.21076	-0.322226
0.4360	-1.86942	1.1284	-2.34102	-1.36946	-1.22113	-2.25665	-2.09838	1.24885	0.69171	0
0.4367	-2.14983	2.04039	-9.96883	-1.67807	-1.56033	-2.25665	-2.74404	4.00492	0.379762	0
0.4373	-0.654296	3.57069	-10.8857	-0.154306	0.271362	0.501477	0	5.2107	1.91237	-0.322226
0.4380	0.934709	3.26154	-5.9891	0.154306	0.881926	1.40413	1.23751	4.00492	2.52271	-0.322226
0.4387	0.934709	2.65869	-2.63364	-0.453272	0.610564	0.200591	0.322828	2.47616	1.60043	-0.322226
0.4393	-1.58901	2.34954	-1.71675	-1.67807	-1.56033	-2.25665	-2.42121	2.7776	-0.23057	0
0.4400	-2.43024	2.34954	0.409678	-1.36946	-1.56033	-1.65487	-3.01306	6.13657	0.0813776	0
0.4407	-0.280413	1.43755	2.24347	0.761884	0.610564	0.200591	-0.269023	9.79698	1.30204	0
0.4413	0	-0.711046	2.84824	1.07049	1.22113	1.10325	1.56033	9.49553	2.21076	0
0.4420	-0.934709	-2.84418	2.55561	0.462917	0.610564	1.10325	1.23751	9.49553	2.21076	0
0.4427	-2.43024	-5.28647	-0.195085	-1.07049	-1.56033	-1.35399	-2.09838	7.96677	0.379762	-0.322226
0.4433	-2.43024	-5.28647	-2.34102	-1.36946	-2.44226	-1.95576	-3.33589	5.83512	0.0813776	0
0.4440	1.21512	-1.31389	-1.11198	0.761884	0.271362	1.10325	0	7.06244	1.91237	0
0.4447	2.14983	2.95239	0.117051	0.761884	1.83169	2.00591	1.56033	5.2107	2.52271	-0.322226
0.4453	1.21512	3.86438	-0.195085	-0.761884	0.610564	-0.100295	-0.914679	1.24885	0.990094	-0.322226
0.4460	0	2.95239	-1.42412	-1.07049	-1.56033	-2.55753	-3.65872	-0.581359	-1.13929	-0.322226
0.4467	-0.934709	2.65869	-1.42412	-0.154306	-1.83169	-2.25665	-1.82936	1.55029	-1.45123	-0.644452
0.4473	0	3.86438	0.409678	1.67807	0.610564	0.802363	1.23751	6.73946	0.379762	-0.644452
0.4480	0.934709	3.86438	1.32658	1.37911	1.49249	2.00591	0.914679	7.66533	1.30204	-0.322226
0.4487	0.280413	3.57069	0.721814	-0.453272	0	0.501477	-0.914679	1.55029	0.990094	-0.322226
0.4493	-1.58901	-2.22588	-1.11198	-1.67807	-2.17089	-2.25665	-4.25057	-5.1461	0.0813776	-0.644452
0.4500	-1.86942	-9.86189	-1.42412	-1.36946	-1.83169	-1.95576	-4.25057	-6.37342	1.30204	-0.322226
0.4507	0	-9.24359	0.721814	-0.154306	0.610564	1.10325	-0.591851	-1.78714	1.60043	0
0.4513	1.49553	-4.66817	3.47251	0.462917	1.49249	2.00591	0.645656	1.87327	0.379762	-0.322226
0.4520	1.77595	-3.44703	5.91107	0.154306	0.271362	0.200591	-0.269023	1.87327	-0.840902	0
0.4527	-0.280413	-4.06533	5.91107	-1.36946	-2.17089	-2.55753	-3.33589	0.0430636	-2.06157	0
0.4533	-0.934709	-2.53503	6.51583	-1.36946	-1.83169	-2.25665	-3.92774	0.9474	-1.74962	-0.322226
0.4540	0.560826	1.1284	11.393	0.462917	0.881926	0.802363	0	3.3805	0.379762	-0.322226
0.4547	1.49553	1.73124	15.0605	0.761884	1.49249	1.40413	1.56033	3.3805	0.990094	-0.322226
0.4553	1.77595	0.510098	9.26653	-0.453272	0.610564	0.200591	-0.269023	2.17471	0.0813776	-0.322226
0.4560	1.21512	0.216405	-3.55054	-1.67807	-1.22113	-2.55753	-4.25057	1.55029	-1.45123	-0.322226
0.4567	1.49553	1.43755	-11.7831	-1.67807	-1.83169	-3.1593	-5.16525	3.3805	-1.13929	-0.322226
0.4573	1.21512	3.57069	-13.0122	-0.761884	0.610564	-0.100295	-1.50653	6.73946	0.69171	0
0.4580	-0.280413	5.70382	-12.7	0.154306	1.83169	1.70502	0.322828	7.96677	0.990094	0
0.4587	-1.86942	3.57069	-13.0122	0.462917	0.610564	0.200591	-1.1837	6.13657	-0.23057	-0.322226
0.4593	-5.23437	-7.11046	-10.2615	-1.07049	-1.83169	-3.46019	-5.16525	1.55029	-2.06157	-0.322226
0.4600	-4.86049	-11.6859	-2.34102	-1.07049	-1.83169	-3.1593	-5.48807	2.47616	-2.06157	0
0.4607	-2.80413	-3.75618	3.16037	0.462917	0.610564	-0.451329	-1.50653	7.66533	0.0813776	0
0.4613	-5.23437	2.04039	1.63871	0.462917	1.22113	0.200591	0	7.66533	0.990094	-0.322226
0.4620	-3.64537	-1.31389	-0.50722	-0.154306	0	-0.451329	-1.50653	6.13657	0.379762	-0.322226
0.4627	-0.280413	-7.11046	-2.63364	-1.67807	-1.83169	-2.25665	-4.57339	0.0430636	-1.13929	-0.322226
0.4633	0.560826	-8.3316	-2.94578	-1.98668	-2.17089	-2.55753	-4.57339	-11.5626	-1.13929	-0.322226
0.4640	2.43024	-4.97732	0.117051	0.154306	0	-0.100295	-1.1837	-13.9957	0.69171	0
0.4647	1.77595	-2.84418	1.32658	0.462917	1.49249	1.10325	0.322828	-9.43094	0.990094	0
0.4653	-0.934709	-2.22588	-0.50722	-0.761884	0	-0.100295	-1.1837	-6.97631	-0.528955	-0.322226
0.4660	-2.80413	-0.711046	-2.02888	-1.67807	-2.44226	-2.55753	-4.84242	-5.77053	-1.74962	-0.322226
0.4667	-2.14983	1.1284	-1.42412	-1.36946	-2.17089	-2.55753	-5.48807	-2.41156	-1.45123	0
0.4673	0.280413	0.819248	-0.195085	0.154306	-0.339202	-0.100295	-1.82936	10.3999	-0.23057	-0.322226
0.4680	0.934709	-1.62304	-0.50722	0.462917	0.610564	0.802363	0	18.3451	0.379762	-0.322226
0.4687	-0.280413	-2.22588	0.117051	-0.154306	0	0.200591	-0.591851	5.53368	0.0813776	0
0.4693	-2.14983	-0.0927451	-0.50722	-1.36946	-2.17089	-1.65487	-3.01306	-8.50507	-1.13929	0
0.4700	-2.43024	3.26154	-2.34102	-1.98668	-2.17089	-1.65487	-3.65872	-9.12949	-1.45123	-0.322226
0.4707	-0.654296	4.48268	0.721814	-0.453272	0.271362	0.501477	-0.269023	-3.63888	0.379762	-0.322226
0.4713	0.280413	1.73124	4.07727	0.462917	0.881926	1.70502	2.15219	9.19409	1.30204	0
0.4720	0.560826	-1.62304	6.51583	0.154306	-0.339202	0.200591	0.914679	24.7616	0.69171	0
0.4727	-0.280413	-4.06533	11.7051	-1.67807	-2.17089	-2.85842	-3.01306	24.4386	-1.74962	0
0.4733	1.49553	-2.84418	19.0208	-1.98668	-2.17089	-2.55753	-3.92774	9.79698	-1.74962	-0.322226
0.4740	5.51478	-3.15333	26.3559	-0.453272	0.271362	0.200591	-0.269023	-1.4857	0.379762	-0.644452
0.4747	7.57114	-2.84418	34.5885	0.761884	1.22113	1.40413	1.56033	6.43801	0.990094	-0.322226
0.4753	6.35602	5.70382	44.0501	0.462917	0.271362	0.501477	0.645656	30.5536	0.69171	-0.322226
0.4760	1.21512	12.4124	37.0271	-1.67807	-1.83169	-2.55753	-2.74404	53.7434	-0.840902	-0.322226
0.4767	-1.21512	8.45526	16.2896	-1.67807	-2.17089	-2.55753	-3.33589	67.1793	-1.74962	-0.322226
0.4773	0.934709	5.08552	-0.799847	0.154306	0	0.200591	-0.269023	76.0288	0.0813776	-0.322226
0.4780	2.14983	6.61582	-38.0415	0.462917	0.881926	0.802363	2.47501	97.3884	1.30204	-0.322226
0.4787	2.43024	1.1284	-81.682	0.154306	0	-0.100295	2.74404	123.011	0.0813776	-0.644452
0.4793	0.934709	-8.9499	-87.7881	-1.36946	-2.17089	-1.95576	-0.591851	82.7252	-1.74962	-0.322226
0.4800	-1.21512	-7.72876	-67.0311	-1.98668	-1.83169	-2.25665	-2.42121	-24.374	-1.45123	0
0.4807	-0.934709	0.510098	-45.3572	-0.154306	0.271362	0.200591	0.645656	-72.9067	0.69171	0
0.4813	-1.86942	5.08552	-29.1847	0.761884	1.22113	1.40413	2.15219	-50.0184	1.91237	0
0.4820	-4.58008	4.48268	-14.846	0.154306	0.271362	0.200591	1.23751	-68.019	0.69171	0
0.4827	-6.07561	-0.0927451	-3.23841	-1.07049	-1.56033	-1.95576	0	-110.135	-1.74962	-0.644452
0.4833	-2.80413	-1.31389	10.1834	-0.761884	-1.56033	-1.35399	0	-92.7375	-1.45123	-0.322226
0.4840	1.21512	1.43755	29.1066	-0.154306	0.271362	0.802363	1.23751	-50.9227	0.69171	0
0.4847	1.49553	0.510098	33.6716	0.462917	1.22113	1.70502	1.56033	-34.1495	0.990094	-0.322226
0.4853	2.43024	-3.44703	20.8546	0.154306	-0.339202	0.802363	0.322828	-13.0913	0.0813776	-0.322226
0.4860	0.934709	-3.15333	6.2037	-1.67807	-2.44226	-1.95576	-2.42121	11.3257	-1.45123	-0.322226
0.4867	-2.80413	1.43755	-1.11198	-1.98668	-1.83169	-2.25665	-2.42121	-3.01445	-1.45123	0
0.4873	-3.64537	2.04039	-4.46744	-0.154306	0	0.501477	0.322828	-35.3768	0.69171	0
0.4880	-4.58008	1.43755	-9.96883	0.154306	0	0.802363	1.56033	-35.9797	1.30204	0
0.4887	-5.7952	4.79183	-7.8229	-0.154306	-0.610564	-0.100295	0.914679	-18.2805	0.379762	0
0.4893	-7.01032	5.08552	5.30631	-1.07049	-2.44226	-1.65487	-2.09838	-13.0913	-1.45123	0
0.4900	-7.01032	2.34954	14.4558	-1.67807	-2.78146	-1.65487	-3.33589	-0.581359	-1.74962	-0.322226
0.4907	-3.36495	2.65869	23.2931	-0.453272	-0.339202	0.802363	0	30.8551	0.379762	0
0.4913	0.560826	3.57069	40.0899	0.462917	0.881926	2.60768	2.15219	45.1953	0.990094	-0.322226
0.4920	1.77595	2.34954	47.4056	-0.453272	-0.610564	0.802363	0.914679	36.6472	0.379762	-0.322226
0.4927	0.934709	1.1284	39.4852	-1.36946	-1.83169	-2.25665	-2.09838	32.9867	-1.13929	-0.322226
0.4933	0.934709	-2.84418	29.3993	-1.36946	-1.83169	-1.95576	-3.01306	27.7976	-2.06157	0
0.4940	2.71066	-10.7739	20.2498	-0.154306	0	0.501477	0	8.56966	0.0813776	0
0.4947	2.43024	-12.3042	10.1834	0.761884	1.22113	2.00591	1.82936	-10.9597	1.30204	0
0.4953	-0.654296	-8.02245	-12.4074	0.154306	0	0.802363	0.645656	-31.3934	0.69171	0
0.4960	-3.36495	-8.3316	-53.2972	-1.67807	-2.17089	-2.25665	-2.09838	-44.8292	-0.840902	0
0.4967	-3.08454	-8.02245	-72.8251	-0.761884	-1.83169	-1.65487	-2.42121	-28.3574	-1.45123	0
0.4973	-1.58901	-3.15333	-46.2741	1.37911	0.271362	0.501477	0.914679	-1.18425	0.379762	0
0.4980	-3.36495	0.819248	-12.7	1.07049	1.22113	1.10325	2.47501	16.5149	1.60043	0
0.4987	-5.51478	0.819248	-2.02888	0.154306	0.271362	0.200591	0.645656	33.9126	0.0813776	0
0.4993	-5.23437	-1.31389	-3.86268	-1.36946	-1.83169	-2.55753	-3.01306	43.6665	-1.74962	0
0.5000	-3.64537	-0.0927451	-2.02888	-1.67807	-2.17089	-2.55753	-3.33589	12.553	-1.45123	0
0.5007	-1.58901	4.79183	5.30631	0.154306	-0.339202	-0.100295	-0.269023	-50.9227	-0.23057	-0.322226
0.5013	-0.934709	5.70382	12.622	1.07049	0.610564	0.501477	1.23751	-83.2851	0.69171	0
0.5020	-1.58901	4.17353	16.5822	0.462917	0.271362	-0.451329	0	-73.2082	0.379762	0
0.5027	-3.64537	4.48268	16.2896	-0.154306	-1.22113	-1.65487	-2.74404	-56.7363	-1.13929	-0.322226
0.5033	-4.29966	4.79183	16.5822	-0.154306	-1.22113	-1.65487	-3.01306	-40.243	-1.45123	-0.322226
0.5040	-1.58901	2.34954	17.4991	0.462917	0.271362	0.200591	-0.269023	-24.9984	1.60043	0
0.5047	1.21512	0.216405	16.2896	0.462917	1.22113	1.10325	1.56033	-13.3928	4.04175	0
0.5053	3.64537	3.86438	2.84824	0.462917	0.610564	0.200591	0.645656	-7.90218	3.74337	0
0.5060	3.36495	7.23412	-23.7028	-0.154306	-1.22113	-1.65487	-2.74404	-12.1655	1.60043	0
0.5067	2.14983	4.79183	-32.8523	-0.154306	-1.22113	-1.65487	-3.01306	-13.0913	0.69171	-0.322226
0.5073	3.92578	-3.75618	-18.2014	1.07049	0.271362	0.200591	-0.269023	1.87327	2.21076	-0.322226
0.5080	6.07561	-8.64075	-8.7398	1.37911	0.610564	1.40413	1.23751	27.7976	3.13304	-0.322226
0.5087	4.86049	-4.06533	-13.6169	0.154306	-0.339202	0.200591	0.322828	47.9514	4.04175	-0.322226
0.5093	1.21512	0.819248	-23.0785	-1.67807	-1.83169	-1.95576	-2.74404	52.2147	2.21076	-0.322226
0.5100	-0.934709	4.79183	-37.1246	-1.67807	-1.56033	-1.35399	-3.33589	49.4801	-3.58062	-0.322226
0.5107	-1.58901	8.14611	-68.8649	-0.761884	0.610564	0.501477	-0.269023	57.7053	-7.55455	-0.322226
0.5113	-2.43024	6.30667	-78.6192	-0.453272	0.881926	1.70502	0.645656	80.895	-6.63228	-0.322226
0.5120	-3.64537	1.73124	-38.9584	0.154306	-0.339202	1.10325	0.322828	96.764	-4.50289	-0.322226
0.5127	-8.59933	1.1284	3.76514	-0.761884	-1.83169	-1.65487	-1.50653	98.6157	-4.50289	-0.322226
0.5133	-10.3753	1.1284	26.3559	-1.36946	-1.83169	-1.95576	-2.42121	97.087	-3.28223	0
0.5140	-4.86049	-5.28647	36.7345	0.154306	0.271362	0.200591	-0.591851	86.0842	-0.23057	0
0.5147	0	-13.5253	35.5054	0.761884	1.22113	1.10325	0.914679	37.573	1.60043	-0.322226
0.5153	0.560826	-11.995	31.5452	0.462917	0	0.200591	0	-46.358	0.990094	-0.322226
0.5160	-1.86942	-4.37448	39.4852	-0.761884	-1.83169	-2.25665	-3.01306	-91.8332	-0.528955	0
0.5167	-2.43024	-1.93219	59.6179	-0.761884	-1.56033	-2.85842	-3.33589	-90.6059	-0.528955	0
0.5173	0.280413	-7.11046	77.6242	0.761884	0.881926	-0.100295	0	-97.3238	0.69171	0
0.5180	1.49553	-11.083	76.3952	1.37911	0.881926	1.40413	2.15219	-94.5677	0.69171	0
0.5187	0	-5.59562	58.3889	-0.154306	-0.339202	0.200591	0.322828	-61.6025	0.69171	0
0.5193	-2.14983	1.1284	42.2163	-1.67807	-1.56033	-2.85842	-2.42121	-31.0919	-0.23057	-0.644452
0.5200	-1.58901	4.48268	25.7512	-0.453272	-1.22113	-2.85842	-1.50653	-13.0913	-3.58062	-0.644452
0.5207	1.49553	5.08552	11.7051	0.761884	0.610564	0.200591	0.914679	9.49553	-5.11323	-0.322226
0.5213	4.58008	-2.22588	-0.195085	0.462917	1.22113	1.70502	0.914679	37.8745	-2.35995	0
0.5220	5.7952	-11.6859	-44.7524	0.154306	0.610564	0.501477	-0.269023	54.3463	-0.528955	0
0.5227	2.71066	-15.9676	-79.5361	-1.07049	-1.56033	-2.55753	-2.74404	40.0061	-1.74962	0
0.5233	-0.934709	-11.3922	-42.0017	-1.36946	-1.83169	-2.25665	-2.74404	11.9286	-1.74962	0
0.5240	-1.58901	-2.84418	4.38941	0.462917	0.881926	1.10325	0.322828	-12.1655	0.379762	0
0.5247	-1.86942	-1.62304	9.87129	0.761884	1.83169	1.70502	1.56033	-41.7717	0.990094	-0.322226
0.5253	-3.08454	-2.84418	1.03395	0.154306	0.271362	0.802363	0	-67.7176	-0.23057	0
0.5260	-5.51478	-2.84418	-3.86268	-1.07049	-1.83169	-1.95576	-3.33589	-69.8492	-2.06157	0
0.5267	-5.7952	-7.11046	-18.5135	-1.36946	-2.17089	-3.46019	-3.92774	-49.4155	-2.06157	-0.322226
0.5273	-3.64537	-10.4647	-43.5234	0.154306	-0.339202	-0.752215	-0.591851	-24.0726	-0.23057	-0.322226
0.5280	-1.86942	-5.28647	-45.3572	1.07049	0.610564	1.40413	1.23751	-13.6942	0.379762	0
0.5287	-2.14983	2.04039	-26.7461	0.154306	-0.339202	0.200591	-0.591851	-19.8093	-0.528955	0
0.5293	-3.36495	4.79183	-14.846	-1.98668	-1.83169	-2.85842	-3.33589	-29.2617	-2.06157	-0.322226
0.5300	0.280413	4.17353	-10.5736	-1.98668	-1.83169	-2.85842	-3.33589	-32.3193	-2.06157	-0.322226
0.5307	5.1409	2.65869	-7.51076	0.462917	0.271362	-0.451329	0	-29.2617	0.379762	0
0.5313	4.86049	2.95239	-5.38434	0.761884	1.22113	0.501477	0.914679	-14.6201	1.60043	-0.322226
0.5320	3.64537	4.17353	-5.69648	-0.154306	0.271362	-1.0531	-0.591851	11.3257	0.379762	-0.322226
0.5327	0.934709	1.73124	-5.0722	-1.07049	-1.83169	-2.85842	-3.01306	17.4192	-1.45123	0
0.5333	-3.08454	0.819248	-3.55054	-1.07049	-2.17089	-2.55753	-3.01306	8.56966	-1.13929	0
0.5340	-4.58008	4.17353	-4.77958	0.154306	0	-1.0531	0	22.0055	0.379762	-0.322226
0.5347	-4.86049	3.86438	-5.9891	0.761884	0.881926	-0.451329	1.23751	48.8557	1.30204	-0.322226
0.5353	-2.80413	0.819248	-3.86268	0.761884	-0.339202	-1.0531	0	62.2915	0.379762	-0.322226
0.5360	-3.36495	0.216405	-0.195085	0.154306	-2.17089	-2.25665	-1.1837	48.8557	-1.45123	-0.322226
0.5367	-5.23437	3.86438	8.95439	-0.154306	-1.56033	-1.95576	-1.1837	24.1372	-1.13929	-0.322226
0.5373	-4.58008	11.5004	19.0208	0.761884	0.881926	0.802363	1.23751	14.3833	0.69171	-0.322226
0.5380	-2.43024	13.6335	21.1667	0.462917	0.881926	1.70502	1.56033	-8.20362	0.990094	-0.322226
0.5387	-1.21512	4.17353	19.3329	-0.154306	-0.339202	0.200591	-0.914679	-55.2076	-0.23057	0
0.5393	-3.08454	-3.75618	15.0605	-1.98668	-2.44226	-2.55753	-3.92774	-75.0384	-1.74962	0
0.5400	-2.80413	-3.44703	2.84824	-1.36946	-2.17089	-2.55753	-3.65872	-54.5832	-1.13929	-0.322226
0.5407	1.77595	-5.59562	-19.1183	0.761884	0.610564	0.501477	0.322828	-30.4891	0.69171	-0.322226
0.5413	3.92578	-10.7739	-45.3572	1.37911	1.49249	1.70502	1.56033	-17.9791	1.60043	-0.322226
0.5420	3.64537	-11.3922	-52.6924	0.761884	0.271362	0.501477	-0.591851	-13.0913	0.990094	-0.322226
0.5427	2.14983	-10.4647	-29.1847	-0.761884	-1.56033	-1.95576	-3.33589	-10.0338	-1.13929	0
0.5433	2.14983	-6.19846	0.409678	-1.36946	-1.22113	-1.35399	-3.33589	-3.63888	-1.13929	-0.322226
0.5440	1.77595	0.819248	18.416	0.462917	0.610564	1.10325	-0.269023	4.60781	0.69171	-0.322226
0.5447	-1.58901	4.17353	23.6053	1.37911	1.49249	2.00591	1.82936	9.19409	1.60043	0
0.5453	-4.01925	4.17353	20.2498	0.462917	0.610564	0.802363	0.645656	9.49553	0.69171	0.322226
0.5460	-5.23437	1.1284	16.2896	-1.36946	-1.56033	-1.95576	-3.92774	7.06244	-1.74962	0
0.5467	-4.58008	-1.62304	13.5389	-1.98668	-1.56033	-1.65487	-4.25057	1.87327	-1.74962	-0.322226
0.5473	-1.58901	1.1284	11.7051	-0.453272	0.271362	1.10325	-0.269023	-3.3159	0.0813776	-0.322226
0.5480	0.280413	4.17353	13.2267	0.462917	0.610564	2.00591	1.23751	-4.24177	0.990094	-0.322226
0.5487	0.280413	1.43755	6.2037	0.154306	-0.610564	0.501477	-0.269023	-6.37342	0.990094	0.322226
0.5493	-1.58901	-2.84418	-22.7859	-1.07049	-1.83169	-1.95576	-3.33589	-14.9215	-0.840902	0
0.5500	-1.86942	0.216405	-37.7294	-1.07049	-1.56033	-1.65487	-3.65872	-17.9791	-1.45123	0
0.5507	0.934709	6.01297	-19.4304	0.462917	0	0.802363	0	-10.9597	0.379762	0
0.5513	1.49553	6.92497	-2.94578	0.462917	0.610564	1.40413	1.82936	-4.24177	1.30204	0
0.5520	-0.280413	5.39467	0.721814	-0.453272	0.271362	0.802363	0.645656	0.0430636	0.379762	0
0.5527	-2.43024	4.17353	1.03395	-1.36946	-1.56033	-1.0531	-3.01306	5.2107	-1.13929	-0.322226
0.5533	-3.08454	4.17353	0.721814	-1.36946	-1.56033	-1.35399	-3.92774	13.4574	-1.13929	-0.322226
0.5540	-1.58901	6.01297	1.93134	0.462917	0.881926	0.501477	-0.591851	14.9861	0.69171	-0.322226
0.5547	-0.654296	5.08552	2.55561	1.07049	1.49249	1.10325	1.23751	6.13657	1.30204	-0.322226
0.5553	0	-1.93219	1.63871	0.154306	0	0.802363	0	1.55029	0.69171	-0.322226
0.5560	-0.654296	-7.72876	0.409678	-0.761884	-1.56033	-1.65487	-3.33589	3.07905	-1.45123	-0.322226
0.5567	-0.654296	-6.19846	0.117051	-1.07049	-1.56033	-2.55753	-3.92774	10.3999	-1.74962	-0.322226
0.5573	1.77595	-4.06533	-0.50722	0.462917	0	0.501477	0.322828	27.1947	0.69171	0
0.5580	3.36495	-3.75618	-2.34102	1.07049	0.271362	1.70502	1.82936	32.6853	1.30204	0
0.5587	1.49553	-2.22588	-1.71675	0.154306	0	0.200591	0	18.948	0.0813776	0
0.5593	-1.58901	-2.22588	0.721814	-1.36946	-1.56033	-1.95576	-3.01306	8.26822	-1.13929	-0.322226
0.5600	-2.43024	-2.84418	1.63871	-1.36946	-1.83169	-1.65487	-3.65872	8.26822	-1.45123	0
0.5607	-1.21512	-0.711046	1.03395	0.154306	0.271362	0.802363	-0.269023	13.4574	-0.23057	0
0.5613	0.280413	3.26154	3.47251	0.462917	1.83169	2.00591	1.56033	18.0437	0.69171	-0.322226
0.5620	0.560826	5.08552	10.4761	0.154306	0.881926	0.802363	0.322828	15.2876	0.69171	0
0.5627	-0.934709	1.43755	14.1436	-1.07049	-1.56033	-1.95576	-2.42121	7.96677	-0.528955	0.322226
0.5633	-0.934709	-0.0927451	12.0172	-1.36946	-1.56033	-1.65487	-3.01306	4.00492	-0.840902	0
0.5640	0.934709	1.73124	5.30631	0.462917	1.22113	1.10325	-0.591851	6.13657	0.379762	-0.322226
0.5647	1.21512	1.73124	-4.46744	0.462917	1.22113	1.40413	0.914679	8.89264	1.91237	-0.322226
0.5653	0.934709	0.819248	-12.4074	-0.453272	-0.339202	0.501477	0.322828	8.56966	1.30204	0
0.5660	-0.934709	-0.401895	-12.7	-1.98668	-2.44226	-2.25665	-3.01306	6.13657	-1.45123	0
0.5667	-2.14983	-0.401895	-8.42766	-1.36946	-2.78146	-2.85842	-3.33589	7.36388	-2.06157	-0.644452
0.5673	0.280413	2.34954	-5.0722	1.07049	-0.339202	0.501477	1.56033	11.3257	0.379762	-0.966677
0.5680	1.21512	5.08552	-3.55054	1.37911	1.22113	2.00591	3.38969	9.19409	1.91237	-0.644452
0.5687	0.560826	5.70382	-2.94578	-0.453272	0.271362	0.501477	0.645656	3.70347	0.990094	0
0.5693	-0.280413	4.79183	-2.34102	-1.98668	-1.56033	-1.65487	-3.33589	-3.3159	-1.13929	0
0.5700	-0.654296	3.26154	2.84824	-1.07049	-1.22113	-1.65487	-3.33589	-8.50507	-1.13929	0
0.5707	0.280413	1.43755	16.2896	0.761884	0.271362	0.802363	0.322828	-3.63888	0.990094	-0.322226
0.5713	2.43024	0.819248	28.1897	1.37911	1.22113	1.70502	2.15219	2.17471	1.60043	-0.322226
0.5720	3.92578	-1.31389	36.4223	0.462917	0.271362	0.501477	0.322828	4.30636	0.379762	-0.322226
0.5727	0.934709	-5.28647	44.967	-1.07049	-2.17089	-1.95576	-3.01306	12.553	-1.45123	-0.322226
0.5733	-2.14983	-5.59562	48.0299	-1.67807	-2.17089	-2.25665	-3.33589	24.7616	-0.840902	0
0.5740	-1.58901	-3.15333	46.4887	-0.761884	0.271362	0.200591	-0.269023	28.7234	0.69171	0
0.5747	0.280413	-2.84418	50.1563	0.761884	0.881926	1.10325	0.914679	24.4386	1.30204	-0.322226
0.5753	0.560826	-4.97732	43.1332	1.07049	0	-0.100295	0	17.7422	0.69171	-0.322226
0.5760	-0.934709	-7.11046	10.7882	-1.07049	-1.56033	-2.85842	-3.33589	13.1559	-1.45123	-0.322226
0.5767	-0.934709	-6.50761	-27.0583	-1.36946	-1.83169	-3.1593	-3.92774	20.7782	-1.74962	0
0.5773	3.64537	-1.62304	-45.6693	-0.154306	0.271362	0.200591	-0.591851	18.0437	0.0813776	0
0.5780	6.35602	4.17353	-30.4137	0.154306	1.83169	1.10325	1.23751	-16.4503	0.990094	-0.322226
0.5787	6.07561	5.08552	-5.69648	-0.154306	0.610564	-0.752215	-0.269023	-38.7142	0.379762	0
0.5793	4.58008	2.04039	-4.46744	-1.67807	-2.17089	-3.1593	-3.33589	-28.9603	-1.74962	-0.322226
0.5800	3.92578	-0.401895	-14.2412	-1.36946	-2.17089	-1.95576	-3.33589	-17.3546	-1.74962	0
0.5807	4.58008	-1.00474	-16.3676	0.154306	0	0.802363	0	-12.1655	0.379762	0.322226
0.5813	1.77595	2.04039	-20.0352	0.462917	0.881926	1.70502	1.56033	-6.07197	0.69171	0
0.5820	-1.86942	9.6764	-37.1246	0.462917	0	0.501477	0.645656	-0.581359	0.0813776	-0.322226
0.5827	-4.01925	7.52781	-54.5262	-0.761884	-1.56033	-2.25665	-2.42121	3.07905	-0.840902	0
0.5833	-2.43024	-1.00474	-57.8816	-1.07049	-1.56033	-2.25665	-3.01306	16.2135	-1.13929	0
0.5840	-1.21512	0.510098	-45.9815	0.154306	0.610564	-0.100295	-0.269023	31.458	0.0813776	-0.322226
0.5847	-4.58008	6.61582	-25.8292	0.761884	1.83169	0.802363	1.82936	27.4961	1.30204	-0.322226
0.5853	-6.07561	8.14611	-2.34102	0.154306	0.610564	0.200591	0.322828	10.0984	0.990094	-0.322226
0.5860	-6.44949	6.61582	17.2065	-1.36946	-1.83169	-1.95576	-3.33589	-6.07197	-1.13929	0
0.5867	-6.44949	6.01297	20.8546	-1.07049	-1.56033	-1.95576	-3.33589	-17.9791	-1.45123	0
0.5873	-4.86049	2.65869	14.7484	0.462917	0.271362	0.200591	0.322828	-19.8093	0.0813776	-0.322226
0.5880	-2.80413	-3.15333	9.87129	0.761884	0.881926	1.40413	1.56033	-2.11012	0.69171	-0.322226
0.5887	-1.86942	-6.81676	6.82797	0.462917	0	0.200591	0	25.3645	-0.23057	-0.322226
0.5893	-2.43024	-7.11046	3.76514	-0.761884	-1.83169	-2.85842	-3.33589	40.932	-2.06157	-0.322226
0.5900	-2.14983	-3.44703	2.24347	-1.36946	-2.17089	-2.85842	-3.01306	45.4967	-1.74962	-0.322226
0.5907	-0.280413	2.95239	3.76514	0.154306	0.271362	0.501477	0.322828	51.6118	0.379762	0
0.5913	-0.280413	6.92497	5.59893	0.462917	1.22113	1.40413	1.56033	62.593	1.30204	0
0.5920	-0.654296	6.01297	5.30631	-0.154306	0.610564	-0.100295	0.322828	65.0261	0.0813776	-0.322226
0.5927	-0.280413	2.34954	3.47251	-0.154306	-1.56033	-1.95576	-2.74404	11.9286	-1.45123	-0.322226
0.5933	-1.58901	1.43755	1.93134	-0.761884	-1.56033	-1.0531	-2.74404	-79.6247	-0.840902	0
0.5940	-1.58901	0.819248	1.63871	-0.154306	0.881926	0.802363	0.914679	-106.173	0.990094	-0.322226
0.5947	-0.280413	-4.37448	0.409678	0.761884	1.22113	1.70502	2.15219	-61.3011	1.30204	-0.322226
0.5953	-1.21512	-9.24359	-0.195085	0.761884	-0.339202	0.501477	0.322828	-23.7711	0.69171	0
0.5960	-3.36495	-9.24359	-1.11198	-0.154306	-2.17089	-2.55753	-1.50653	-18.2805	-1.13929	-0.644452
0.5967	-2.80413	-5.59562	-1.71675	0.154306	-1.83169	-1.95576	-1.1837	-24.374	-1.74962	-0.322226
0.5973	0.280413	-1.31389	1.03395	1.07049	0.610564	1.40413	0.914679	-22.5438	0.69171	0
0.5980	0.280413	0.510098	4.07727	0.761884	1.22113	1.40413	1.82936	-14.3187	1.60043	0
0.5987	-1.58901	-0.0927451	3.76514	0.154306	-0.339202	-1.0531	0.322828	-9.43094	0.0813776	0
0.5993	-2.80413	-1.93219	2.84824	-1.36946	-2.44226	-3.46019	-3.01306	-10.6582	-1.45123	0
0.6000	-1.58901	-2.22588	4.38941	-1.36946	-1.56033	-1.95576	-3.33589	-11.864	-1.13929	-0.322226
0.6007	0.280413	-1.00474	6.2037	0.462917	0.610564	1.10325	0	-10.0338	0.379762	-0.322226
0.6013	0.560826	0.216405	5.91107	1.07049	1.83169	1.70502	1.82936	-6.67486	1.60043	0
0.6020	0	-0.401895	4.38941	0.462917	1.22113	0.802363	0.645656	-5.46908	1.30204	0
0.6027	-0.934709	-2.84418	2.55561	-0.761884	-0.949766	-1.65487	-2.74404	-6.07197	-0.840902	-0.322226
0.6033	-0.934709	-3.15333	1.93134	-0.761884	-0.949766	-1.95576	-3.01306	-2.71301	-1.13929	-0.322226
0.6040	0	-2.22588	2.55561	0.462917	0.881926	0.200591	0.322828	2.47616	0.990094	0
0.6047	0.280413	-2.22588	3.47251	1.37911	1.83169	2.30679	1.56033	9.79698	1.30204	0
0.6053	0.280413	-3.44703	3.16037	0.154306	0.271362	0.501477	-0.269023	25.9674	0.379762	0
0.6060	-1.21512	-4.66817	1.03395	-1.67807	-2.17089	-2.55753	-3.33589	37.573	-1.45123	0
0.6067	-1.58901	-1.62304	0.409678	-1.07049	-1.56033	-1.65487	-3.92774	41.5349	-1.45123	-0.322226
0.6073	0.934709	3.26154	1.93134	1.07049	0.610564	0.802363	-0.591851	50.3844	0.379762	0
0.6080	0.934709	3.26154	3.47251	1.67807	0.881926	0.802363	0.914679	49.1571	1.30204	0
0.6087	-1.21512	0.216405	3.76514	0.462917	0	-0.451329	-0.269023	25.3645	0.0813776	0
0.6093	-2.14983	1.1284	2.24347	-1.07049	-1.83169	-2.25665	-2.74404	-3.3159	-1.45123	0
0.6100	-0.934709	6.01297	1.03395	-1.07049	-1.56033	-1.95576	-3.33589	-30.4891	-1.13929	-0.322226
0.6107	0.934709	8.74895	2.24347	0.154306	0.610564	0.802363	0	-57.6407	0.69171	-0.322226
0.6113	1.21512	7.52781	2.84824	0.761884	1.22113	1.70502	2.15219	-61.9255	0.990094	0
0.6120	0.934709	6.61582	1.63871	0.154306	0.271362	0.200591	0.645656	-41.7717	0.379762	0
0.6127	0.560826	5.39467	0.117051	-1.67807	-2.17089	-1.65487	-3.01306	-22.5438	-1.13929	0
0.6133	0.280413	4.48268	0.117051	-1.67807	-1.56033	-1.35399	-3.01306	-10.9597	-1.45123	-0.322226
0.6140	0.280413	6.01297	1.93134	0.154306	0.271362	0.802363	0	-3.94032	0.0813776	-0.322226
0.6147	-0.280413	1.43755	2.84824	1.37911	0.881926	2.00591	2.74404	-1.18425	0.990094	-0.322226
0.6153	0	-11.6859	1.63871	1.07049	0.610564	0.802363	2.15219	-1.18425	0.0813776	-0.322226
0.6160	-0.654296	-16.5705	-0.50722	-0.761884	-1.22113	-1.95576	-2.74404	-2.41156	-1.45123	-0.322226
0.6167	-0.654296	-5.88931	-1.42412	-1.67807	-1.56033	-1.95576	-3.65872	-1.18425	-1.45123	0
0.6173	-1.21512	4.48268	-0.195085	0.154306	0.610564	-0.100295	-0.591851	-0.279914	0.379762	0
0.6180	-2.80413	3.26154	1.03395	0.761884	1.83169	1.10325	0.322828	-0.581359	0.990094	0
0.6187	-1.21512	-1.93219	1.63871	-0.154306	0	0.501477	-0.591851	-3.63888	0.0813776	0.322226
0.6193	-1.58901	-4.06533	1.03395	-1.36946	-2.17089	-1.65487	-3.33589	-10.9597	-1.13929	0.322226
0.6200	-2.43024	-2.84418	0.117051	-1.36946	-1.22113	-1.35399	-3.33589	-11.2611	-1.13929	0
0.6207	-0.654296	-0.401895	0.721814	-0.154306	0.610564	1.40413	0	-3.94032	0.0813776	-0.322226
0.6213	0.280413	1.1284	2.24347	1.67807	2.10305	2.60768	2.15219	0.0430636	1.30204	0
0.6220	0.560826	0.216405	1.63871	1.37911	0.881926	1.10325	0.914679	0.344509	1.30204	0
0.6227	-0.654296	-1.62304	-0.799847	-1.07049	-2.44226	-2.25665	-3.33589	-1.78714	-1.13929	0
0.6233	-1.58901	-1.31389	-0.50722	-1.07049	-1.83169	-2.25665	-3.65872	-1.4857	-1.45123	0
0.6240	0.280413	0.510098	1.03395	0.154306	0.881926	0.802363	0.645656	1.55029	0.69171	0
0.6247	1.21512	0.510098	1.03395	0.761884	1.22113	2.30679	1.56033	3.07905	1.30204	0
0.6253	0.280413	-0.401895	0.721814	0.154306	0.610564	0.802363	-0.591851	2.47616	0.379762	0
0.6260	-1.58901	-1.93219	-0.50722	-1.67807	-1.56033	-2.55753	-3.92774	0.9474	-0.23057	0
0.6267	-1.58901	-1.93219	-0.195085	-1.36946	-2.17089	-2.25665	-4.25057	1.24885	0.69171	0
0.6273	0.280413	-0.0927451	1.63871	0.462917	-0.610564	0.802363	-0.591851	4.00492	1.60043	0
0.6280	0.934709	-0.0927451	0.117051	0.761884	0.610564	1.70502	0.914679	4.60781	0.69171	0
0.6287	0.280413	-2.22588	-5.69648	-0.154306	0	-0.100295	-0.914679	2.7776	-1.13929	0
0.6293	-0.280413	-3.75618	-12.4074	-1.07049	-1.56033	-2.25665	-3.65872	1.55029	-2.35995	0
0.6300	1.21512	-2.22588	-14.846	-1.07049	-1.56033	-1.65487	-3.92774	1.87327	-1.74962	-0.322226
0.6307	2.14983	0.216405	-13.9291	0.154306	0	0.802363	0.645656	0.645954	0.0813776	-0.644452
0.6313	2.99107	0.216405	-9.96883	1.37911	0.881926	2.30679	3.98154	-1.4857	0.990094	-0.644452
0.6320	5.7952	0.216405	4.99417	0.462917	0.610564	1.10325	1.56033	1.87327	0.69171	-0.322226
0.6327	5.7952	1.43755	29.1066	-1.67807	-1.83169	-1.95576	-3.01306	17.4192	-0.840902	0
0.6333	3.36495	3.86438	52.3022	-1.98668	-2.17089	-1.95576	-3.01306	47.6499	-0.528955	0
0.6340	1.77595	6.61582	64.495	-0.453272	0.271362	-0.100295	-0.269023	87.9144	0.990094	0
0.6347	2.14983	8.14611	61.7638	0.761884	0.610564	0.802363	1.56033	121.805	1.30204	-0.322226
0.6353	1.21512	9.36725	54.7408	0.761884	-0.339202	0.802363	0.914679	125.164	0.69171	-0.322226
0.6360	-3.08454	7.23412	50.1563	-1.36946	-2.17089	-1.95576	-2.74404	101.652	-1.45123	0
0.6367	-4.01925	1.43755	42.2163	-1.67807	-2.17089	-2.25665	-3.92774	44.5924	-1.74962	0
0.6373	-1.86942	-5.28647	9.57866	0.154306	0.271362	0.802363	0	-18.2805	0.379762	0
0.6380	-1.58901	-12.3042	-56.6526	0.462917	1.22113	1.70502	1.56033	-34.1495	1.30204	-0.322226
0.6387	-2.43024	-11.083	-103.336	-0.154306	0	0.501477	-0.591851	-36.2811	0.379762	0
0.6393	-2.43024	-3.44703	-98.7714	-1.36946	-1.56033	-1.95576	-3.33589	-68.9449	-1.13929	0
0.6400	-0.654296	-0.0927451	-77.4096	-1.36946	-1.22113	-2.25665	-3.01306	-108.305	-1.45123	0
0.6407	1.49553	-3.15333	-42.6065	0.154306	0.271362	-0.100295	-0.269023	-105.248	0.0813776	0
0.6413	0.560826	-5.88931	3.47251	1.07049	1.22113	1.10325	1.56033	-70.1507	1.30204	0
0.6420	0.280413	-4.97732	28.1897	0.462917	0.881926	0.802363	0.322828	-42.6976	0.69171	0
0.6427	-0.654296	-4.37448	42.8406	-1.07049	-1.22113	-1.0531	-3.01306	-29.5632	-0.840902	0
0.6433	-2.14983	-4.06533	59.3058	-1.36946	-1.56033	-1.65487	-2.74404	-20.1107	-1.13929	0
0.6440	-1.86942	0.216405	55.3455	0.154306	0.610564	-0.100295	0	-4.84466	0.379762	0
0.6447	-1.21512	3.57069	32.4621	0.761884	1.22113	1.10325	1.23751	16.2135	0.990094	-0.322226
0.6453	-0.934709	2.34954	-2.63364	0.154306	-0.339202	0.802363	0.322828	35.4414	0.69171	0
0.6460	-1.58901	3.26154	-52.3803	-1.36946	-2.17089	-1.0531	-2.74404	45.8197	-0.840902	0
0.6467	-3.64537	7.83696	-85.0374	-1.98668	-1.83169	-2.55753	-4.25057	49.1571	-1.45123	0
0.6473	-4.01925	5.08552	-65.8021	-0.761884	0	-1.35399	-1.82936	55.5736	-0.23057	0
0.6480	-1.58901	-3.44703	-24.3076	-0.154306	0.610564	1.10325	0.645656	69.6124	0.69171	-0.322226
0.6487	-0.934709	-4.06533	-4.15531	-0.154306	-0.339202	1.10325	0.322828	52.2147	0.0813776	-0.322226
0.6493	-2.43024	-1.93219	1.63871	-1.07049	-1.83169	-1.65487	-2.42121	-25.6013	-1.13929	0
0.6500	-1.21512	-2.53503	2.84824	-1.36946	-1.56033	-1.65487	-2.42121	-96.3979	-0.840902	0
0.6507	0	-0.0927451	-6.61337	0.462917	0.610564	1.10325	0.645656	-102.19	0.379762	0
0.6513	-2.14983	3.86438	-15.4507	1.07049	0.881926	1.70502	1.23751	-73.5096	0.379762	-0.322226
0.6520	-5.23437	2.95239	-12.7	0.154306	0	0.200591	-0.269023	-52.7529	0.379762	-0.322226
0.6527	-5.23437	-0.0927451	-7.51076	-1.36946	-1.83169	-2.25665	-2.42121	-47.2623	-0.840902	0
0.6533	-2.14983	0.510098	-4.15531	-1.36946	-1.83169	-2.25665	-2.74404	-43.9034	-0.840902	0.322226
0.6540	-1.58901	2.95239	-0.799847	-0.453272	0.271362	-0.752215	-0.269023	-37.5084	0.69171	0
0.6547	-2.43024	4.48268	1.03395	-1.07049	1.22113	-0.451329	0	-27.1301	0.990094	0
0.6553	-0.280413	5.08552	0.117051	-1.07049	-0.339202	-1.0531	-0.914679	-4.54321	0.0813776	0
0.6560	0.560826	4.17353	-7.21814	-1.07049	-2.17089	-2.85842	-1.50653	35.1184	-1.13929	-0.644452
0.6567	0	2.34954	-22.1616	-0.761884	-1.83169	-3.1593	-1.50653	74.5001	-1.45123	-0.644452
0.6573	2.71066	0.819248	-33.7692	0.154306	0.881926	-0.100295	0.645656	71.744	0.69171	0
0.6580	4.86049	-0.401895	-33.7692	0.154306	1.22113	1.10325	1.56033	23.5343	1.60043	0
0.6587	4.29966	-0.401895	-25.8292	-0.761884	-0.339202	-0.752215	0.322828	-27.733	0.69171	-0.322226
0.6593	2.14983	1.73124	-13.6169	-1.67807	-1.83169	-2.85842	-3.01306	-48.4897	-1.13929	-0.322226
0.6600	-0.280413	1.43755	0.409678	-1.36946	-1.83169	-2.25665	-3.92774	-40.5444	-1.45123	-0.322226
0.6607	-0.280413	-6.19846	15.0605	0.154306	0	0.200591	-0.591851	-24.9984	-0.23057	0
0.6613	0.934709	-11.995	30.0235	0.761884	1.22113	1.10325	1.56033	-6.37342	0.69171	0
0.6620	1.77595	-13.2162	34.9007	0.462917	0.271362	0.200591	0.645656	11.0243	0.69171	-0.322226
0.6627	0.934709	-13.5253	25.1269	-0.761884	-1.83169	-2.25665	-2.42121	8.26822	-0.528955	-0.322226
0.6633	0.560826	-10.7739	10.4761	-0.453272	-1.22113	-1.65487	-3.01306	-4.84466	-0.840902	-0.322226
0.6640	2.14983	-4.66817	-0.50722	0.761884	0.881926	0.802363	-0.591851	-9.73238	0.379762	-0.322226
0.6647	1.77595	1.73124	-5.38434	1.37911	1.22113	1.70502	0.914679	-5.77053	1.30204	0
0.6653	0	5.08552	-6.30124	0.462917	-0.339202	0.501477	0.322828	-0.882804	0.69171	0
0.6660	-4.01925	5.08552	-5.38434	-1.07049	-2.44226	-1.95576	-3.01306	-2.41156	-1.13929	0
0.6667	-5.51478	5.70382	-2.63364	-0.761884	-2.17089	-1.65487	-3.01306	-2.11012	-1.13929	0.322226
0.6673	-2.80413	7.83696	3.16037	0.462917	0.271362	0.802363	0	6.73946	0.379762	0
0.6680	-1.86942	7.52781	10.4761	0.761884	0.881926	0.802363	0.645656	16.2135	0.69171	0
0.6687	-2.80413	2.65869	14.4558	0.154306	0.271362	-0.100295	-0.591851	19.2494	0.0813776	0
0.6693	-4.01925	-3.75618	13.2267	-1.36946	-1.56033	-2.25665	-3.01306	14.0818	-1.13929	0
0.6700	-4.01925	-4.66817	12.0172	-1.07049	-1.56033	-2.55753	-3.01306	8.26822	-0.528955	0
0.6707	-4.58008	-1.62304	11.393	-0.154306	0.610564	-0.752215	-0.269023	2.17471	0.69171	0
0.6713	-5.23437	0.510098	9.87129	0.462917	1.22113	1.10325	0.914679	-0.279914	0.69171	-0.322226
0.6720	-3.36495	0.510098	8.66176	0.154306	-0.339202	0.802363	0	3.3805	0.0813776	-0.322226
0.6727	-2.43024	-1.00474	7.12059	-1.07049	-2.17089	-1.95576	-2.74404	6.43801	-1.45123	-0.322226
0.6733	-4.01925	-0.711046	6.2037	-1.07049	-1.56033	-1.95576	-3.33589	9.19409	-1.13929	-0.322226
0.6740	-3.08454	2.65869	6.51583	0.761884	0.271362	0.802363	-0.269023	11.9286	0.69171	0
0.6747	0.280413	3.57069	5.91107	1.37911	0.881926	1.70502	1.23751	9.49553	0.990094	0
0.6753	1.49553	0.216405	5.30631	0.462917	0.271362	0.501477	0	-3.3159	0.0813776	-0.322226
0.6760	0	-4.06533	3.76514	-1.07049	-1.83169	-1.95576	-3.01306	-19.1848	-0.840902	0
0.6767	-0.280413	-3.15333	2.84824	-1.07049	-2.17089	-2.25665	-3.33589	-22.5438	-1.13929	0
0.6773	0.934709	-0.0927451	4.07727	0.154306	0	0.200591	0	-13.9957	0.379762	0
0.6780	0.560826	0.510098	4.07727	0.761884	0.881926	1.10325	1.23751	-8.50507	0.990094	0
0.6787	0.560826	-0.711046	3.16037	0.462917	-0.339202	0.200591	-0.269023	1.55029	0.379762	0
0.6793	0.934709	-3.15333	1.63871	-1.07049	-2.17089	-1.95576	-2.42121	18.3451	-1.74962	0
0.6800	0	-2.84418	1.03395	-1.36946	-1.83169	-1.95576	-2.74404	18.3451	-1.74962	0
0.6807	0	0.216405	3.47251	0.761884	0.881926	0.802363	0	7.96677	-0.23057	-0.322226
0.6813	1.21512	1.73124	4.38941	1.98668	1.83169	2.30679	2.15219	5.53368	1.30204	-0.322226
0.6820	-0.280413	0.819248	2.55561	0.462917	0.610564	0.501477	0.914679	4.60781	0.69171	0
0.6827	-2.14983	-1.00474	0.721814	-1.07049	-2.17089	-2.85842	-2.74404	1.87327	-1.13929	0
0.6833	-0.654296	-1.31389	0.721814	-0.453272	-1.83169	-2.25665	-2.74404	2.17471	-1.13929	0
0.6840	0.560826	0.216405	1.63871	1.07049	0.610564	0.501477	0.914679	4.90925	0.379762	0
0.6847	0.560826	1.73124	1.63871	1.67807	1.49249	1.40413	2.47501	5.53368	0.990094	0
0.6853	0.560826	2.65869	1.32658	0.761884	0.271362	0.501477	0.645656	4.00492	0.69171	0
0.6860	-0.934709	1.73124	0.117051	-0.761884	-2.17089	-2.25665	-2.42121	0.9474	-1.13929	-0.322226
0.6867	-1.86942	2.34954	-0.799847	0.154306	-1.83169	-2.85842	-0.914679	0.645954	-1.45123	-0.322226
0.6873	-0.934709	5.08552	-0.50722	1.07049	0.610564	-0.100295	1.56033	1.55029	0.69171	0
0.6880	-0.654296	6.01297	-0.50722	0.154306	1.22113	1.40413	0.914679	1.55029	1.60043	0
0.6887	0	5.70382	-2.02888	-0.761884	0.271362	0.200591	0	2.7776	0.990094	-0.322226
0.6893	-0.280413	4.79183	-4.46744	-1.67807	-1.83169	-2.85842	-2.74404	5.2107	-1.13929	-0.322226
0.6900	-0.280413	3.57069	-4.15531	-1.36946	-2.17089	-2.85842	-3.33589	14.9861	-1.45123	-0.322226
0.6907	-0.934709	0.510098	-1.42412	0.462917	0.271362	-0.100295	0	20.1753	0.379762	0
0.6913	-5.51478	-2.22588	1.03395	0.462917	1.22113	0.501477	0.914679	6.43801	1.30204	0.322226
0.6920	-4.58008	-1.31389	1.03395	-0.453272	0	-0.752215	-0.914679	-2.71301	0.379762	0
0.6927	-0.280413	-1.31389	0.409678	-1.67807	-1.83169	-2.55753	-4.25057	0.344509	-1.45123	-0.322226
0.6933	1.21512	-1.62304	3.47251	-1.67807	-1.83169	-1.95576	-3.92774	1.87327	-1.45123	-0.322226
0.6940	3.36495	0.510098	6.2037	0.154306	0.610564	1.10325	0.322828	3.07905	0.69171	0
0.6947	3.92578	4.17353	3.76514	0.761884	1.49249	1.70502	2.15219	4.30636	1.30204	-0.322226
0.6953	2.14983	4.48268	-0.195085	0.154306	0	-0.100295	0.645656	4.00492	0.379762	0
0.6960	0	-4.06533	-2.94578	-0.761884	-2.17089	-1.95576	-3.01306	3.3805	-1.13929	0
0.6967	0	-12.3042	-3.55054	-0.761884	-1.83169	-1.95576	-4.25057	2.7776	-1.45123	0
0.6973	0.934709	-10.7739	-2.63364	0.154306	0.881926	0.501477	-0.269023	3.07905	0.379762	-0.322226
0.6980	1.49553	-5.88931	-2.34102	0.462917	1.22113	1.70502	1.56033	4.30636	0.990094	-0.322226
0.6987	2.14983	-4.37448	-1.42412	-0.453272	-0.339202	0.501477	-0.269023	4.90925	0.0813776	0
0.6993	0.934709	-5.59562	2.84824	-1.98668	-2.17089	-2.25665	-3.01306	1.87327	-1.74962	0
0.7000	-0.280413	-4.66817	11.1003	-1.67807	-1.83169	-1.95576	-3.33589	-1.78714	-1.74962	-0.322226
0.7007	0	-0.711046	22.3957	0.154306	0.271362	0.200591	-0.591851	-2.71301	0.69171	0
0.7013	0	1.1284	33.379	0.154306	1.22113	-0.100295	0.914679	-2.71301	1.60043	0
0.7020	1.21512	-1.31389	37.0271	-0.154306	0.610564	-0.752215	-0.269023	-0.882804	0.379762	0
0.7027	2.14983	-4.66817	31.5452	-1.07049	-1.56033	-1.65487	-3.33589	-0.279914	-1.74962	0
0.7033	0.280413	-4.66817	22.0836	-1.07049	-1.56033	-1.35399	-3.33589	-1.4857	-1.45123	0
0.7040	-1.21512	-0.711046	6.82797	0.761884	0.610564	0.802363	0	0.9474	0.379762	0
0.7047	-0.934709	3.26154	-16.075	1.07049	1.49249	1.40413	1.56033	5.53368	0.990094	-0.322226
0.7053	0	4.17353	-42.0017	0.462917	0.271362	-0.100295	-0.269023	6.43801	0.379762	0
0.7060	0.560826	0.819248	-51.1512	-1.07049	-1.83169	-2.25665	-3.92774	3.07905	-1.45123	0
0.7067	1.77595	-1.62304	-32.8523	-1.07049	-2.17089	-2.25665	-3.65872	3.3805	-1.13929	-0.322226
0.7073	2.71066	-0.711046	-10.5736	0.462917	0	-0.100295	-0.591851	11.3257	0.69171	0
0.7080	1.21512	1.73124	-1.71675	1.07049	1.22113	1.70502	1.56033	17.4192	1.60043	0
0.7087	-0.654296	3.57069	6.51583	0.462917	0.610564	0.802363	0.322828	18.3451	0.69171	0
0.7093	-2.14983	1.43755	18.7281	-0.761884	-1.83169	-2.55753	-3.92774	16.2135	-1.45123	0
0.7100	-1.21512	-1.62304	15.3727	-1.36946	-2.17089	-2.55753	-4.25057	16.2135	-1.45123	0
0.7107	1.21512	-1.00474	-0.50722	0.154306	0.271362	0.200591	0.322828	15.912	0.69171	-0.322226
0.7113	-0.280413	1.73124	-12.4074	0.761884	1.49249	1.70502	2.47501	17.1178	1.30204	-0.322226
0.7120	-2.43024	2.95239	-21.5569	0.761884	0.610564	0.802363	0.322828	15.2876	0.69171	0
0.7127	-3.08454	2.65869	-25.2245	-0.761884	-1.56033	-1.65487	-3.01306	-14.3187	-0.840902	0
0.7133	-2.43024	4.48268	-20.0352	-1.36946	-1.56033	-1.65487	-2.74404	-39.9415	-1.45123	0
0.7140	-3.08454	8.45526	-12.0953	0.154306	0.271362	0.200591	-0.269023	-30.1876	0.379762	0
0.7147	-4.29966	9.36725	-5.0722	0.761884	1.22113	0.200591	0.914679	-11.5626	1.91237	0
0.7153	-1.21512	6.30667	-0.799847	0.154306	0	0.200591	0.645656	-1.78714	0.990094	0
0.7160	-0.280413	0.819248	0.409678	-1.07049	-1.83169	-1.35399	-2.42121	-1.18425	-1.13929	0
0.7167	-1.58901	-6.50761	4.07727	-1.67807	-2.17089	-1.95576	-2.42121	-2.41156	-1.74962	-0.322226
0.7173	1.21512	-9.24359	10.1834	0.462917	0	0.802363	1.82936	0.0430636	-0.23057	-0.322226
0.7180	4.58008	-6.81676	11.1003	1.07049	0.881926	2.00591	2.15219	-1.78714	0.990094	0
0.7187	5.1409	-4.37448	8.66176	0.462917	0	0.501477	-0.269023	-10.0338	0.379762	0
0.7193	2.99107	-5.88931	5.91107	-1.07049	-1.83169	-2.25665	-3.33589	-13.9957	-1.13929	0
0.7200	2.71066	-6.81676	1.32658	-1.36946	-2.78146	-2.25665	-3.65872	-9.43094	-1.45123	0
0.7207	3.36495	-0.401895	-5.0722	0.761884	-0.610564	0.802363	0.322828	-1.4857	0.379762	0
0.7213	3.36495	8.45526	-2.02888	1.07049	1.22113	2.30679	1.82936	1.87327	1.30204	-0.322226
0.7220	2.43024	7.52781	12.622	0.462917	0	0.802363	0.322828	0.0430636	0.69171	0
0.7227	-1.21512	-2.22588	25.1269	-0.154306	-2.17089	-2.25665	-1.50653	-2.71301	-1.13929	-0.322226
0.7233	-2.80413	-6.19846	37.3392	0.462917	-1.22113	-1.95576	0	0.645954	-1.13929	-0.322226
0.7240	-1.58901	-1.31389	46.1961	1.07049	1.22113	0.802363	1.82936	4.90925	0.990094	0
0.7247	-1.21512	1.43755	47.113	1.07049	1.49249	1.10325	0.914679	4.30636	1.60043	0
0.7253	-0.280413	-2.53503	43.4454	0.154306	0	0.501477	-0.914679	-0.882804	0.379762	-0.322226
0.7260	-1.58901	-7.11046	24.8343	-1.07049	-1.56033	-1.0531	-3.33589	-7.60073	-1.13929	-0.322226
0.7267	-3.64537	-5.88931	-3.55054	-1.36946	-1.56033	-2.25665	-3.65872	-9.12949	-1.45123	-0.322226
0.7273	-3.08454	-1.93219	-39.2511	-0.761884	0.271362	-1.0531	-1.1837	-6.07197	0.0813776	0
0.7280	-0.654296	0.510098	-66.1142	0.154306	1.22113	0.802363	0	0.645954	1.30204	0
0.7287	0.560826	2.95239	-52.3803	0.154306	0	0.200591	-0.269023	4.90925	0.69171	0
0.7293	-2.80413	5.39467	-21.869	-1.07049	-2.17089	-2.25665	-3.01306	4.00492	-1.45123	0
0.7300	-4.29966	8.14611	-5.0722	-0.761884	-1.83169	-1.65487	-3.92774	8.89264	-1.13929	0
0.7307	-1.86942	9.6764	-13.3243	0.761884	0	1.70502	0	20.4768	0.990094	-0.322226
0.7313	-0.280413	5.39467	-49.0248	0.761884	0.881926	2.30679	2.15219	35.4414	1.30204	0
0.7320	-0.934709	0.216405	-72.2204	-0.154306	0	0.200591	0.322828	48.2528	0.379762	-0.322226
0.7327	-1.86942	1.1284	-61.5297	-0.761884	-1.83169	-2.25665	-3.01306	48.2528	-1.13929	-0.322226
0.7333	-1.58901	5.70382	-47.7958	-1.07049	-2.17089	-2.25665	-3.33589	46.724	-1.13929	0
0.7340	0	1.43755	-38.9584	0.154306	0	0.501477	-0.269023	59.5355	0.379762	0
0.7347	0	-10.4647	-23.0785	0.462917	1.22113	2.30679	0.914679	65.6505	0.990094	0
0.7353	-0.280413	-14.4373	-8.13503	-0.154306	0	0.802363	0.322828	9.19409	0.990094	0.322226
0.7360	-0.934709	-11.3922	3.16037	-1.67807	-2.17089	-1.95576	-2.74404	-88.4742	-0.840902	0
0.7367	-0.934709	-8.02245	17.4991	-2.28565	-1.83169	-2.25665	-3.01306	-116.853	-1.45123	0
0.7373	0.560826	-3.44703	22.3957	-0.761884	0.271362	0.200591	0	-74.7369	0.69171	0
0.7380	0.934709	2.34954	16.2896	-0.154306	1.49249	1.40413	1.56033	-41.1688	1.30204	0
0.7387	0.934709	3.57069	12.3098	-0.453272	0	0.501477	0	-26.5272	-0.23057	0
0.7393	0.280413	-2.53503	11.393	-1.36946	-1.83169	-1.95576	-3.33589	-3.94032	-1.74962	-0.322226
0.7400	1.49553	-6.19846	9.26653	-1.67807	-1.56033	-1.35399	-3.33589	34.2141	-1.13929	0
0.7407	4.29966	-3.44703	6.2037	0.154306	0.610564	1.10325	0.322828	58.9326	0.379762	0
0.7413	2.14983	-0.401895	5.59893	0.761884	1.49249	1.70502	1.82936	53.7434	0.990094	0
0.7420	-0.934709	-0.0927451	6.51583	0.154306	0.610564	0.501477	0.322828	44.5924	0.69171	0
0.7427	-3.08454	-1.00474	5.59893	-1.36946	-1.83169	-1.65487	-2.74404	36.6472	-1.45123	0
0.7433	-7.3842	1.1284	4.99417	-1.36946	-1.22113	-2.25665	-3.33589	14.6847	-1.74962	-0.322226
0.7440	-9.44056	4.79183	5.91107	0.154306	1.49249	-0.752215	-0.269023	-8.20362	0.379762	0
0.7447	-6.44949	3.86438	6.2037	1.07049	1.83169	0.501477	1.23751	-29.5632	0.69171	0
0.7453	-3.64537	2.34954	5.30631	0.462917	0.271362	0.200591	0	-59.7723	0.0813776	0
0.7460	-3.64537	4.48268	2.55561	-1.07049	-1.56033	-2.55753	-2.42121	-71.6794	-1.45123	-0.322226
0.7467	-1.86942	10.2792	2.84824	-0.453272	-1.56033	-1.95576	-0.914679	-47.2623	-2.06157	-0.322226
0.7473	0.280413	15.1638	4.99417	0.462917	0.271362	1.40413	1.82936	-16.1489	0.0813776	0
0.7480	0.280413	10.8975	1.63871	0.462917	0.881926	1.70502	1.23751	-0.581359	0.990094	0
0.7487	0.280413	0.216405	-5.0722	-0.453272	-0.339202	-0.451329	-0.591851	2.47616	0.379762	-0.322226
0.7493	-0.280413	-2.22588	-9.6567	-1.07049	-2.17089	-2.25665	-3.33589	0.645954	-0.840902	-0.322226
0.7500	-0.280413	7.52781	-10.5736	-0.761884	-1.56033	-1.65487	-3.01306	0.344509	-1.13929	0
0.7507	0.934709	9.9701	-10.2615	-0.154306	0.881926	0.200591	-0.269023	4.90925	0.379762	0
0.7513	2.14983	-0.711046	-12.0953	0.462917	1.22113	1.10325	0.645656	7.96677	1.30204	0
0.7520	4.86049	-4.97732	-16.075	0.154306	0.271362	0.501477	-0.591851	2.7776	0.379762	-0.322226
0.7527	4.29966	1.43755	-13.3243	-1.07049	-1.56033	-1.35399	-3.01306	-16.4503	-1.45123	-0.322226
0.7533	0.934709	0.216405	-0.50722	-1.36946	-1.56033	-1.0531	-3.01306	-43.9034	-1.13929	-0.322226
0.7540	-1.21512	-11.3922	11.7051	-0.154306	0.610564	1.10325	0	-55.509	0.69171	-0.322226
0.7547	-2.43024	-15.6585	15.3727	0.761884	1.22113	2.30679	1.56033	-43.3005	1.30204	0
0.7553	-2.14983	-11.995	12.3098	0.761884	0.271362	1.40413	0.322828	-25.9028	0.379762	-0.322226
0.7560	-0.280413	-9.55274	1.63871	-1.07049	-1.56033	-1.65487	-3.01306	-11.2611	-1.13929	-0.322226
0.7567	2.43024	-4.06533	-9.05193	-1.07049	-1.83169	-2.25665	-3.33589	-0.581359	-1.13929	0
0.7573	3.64537	1.73124	-13.9291	0.462917	0.271362	0.501477	0.322828	-3.63888	0.379762	0
0.7580	1.77595	-1.00474	-19.1183	0.761884	1.22113	1.10325	1.56033	-15.223	0.69171	0
0.7587	0.280413	-6.50761	-20.64	0.154306	0.271362	0.200591	-0.269023	-18.8834	0.379762	0
0.7593	-2.14983	-5.88931	-8.13503	-1.07049	-1.56033	-2.25665	-3.01306	-14.9215	-1.45123	-0.322226
0.7600	-3.36495	-3.15333	14.4558	-1.67807	-1.83169	-2.25665	-3.33589	-9.73238	-1.74962	-0.322226
0.7607	-3.08454	-1.00474	29.1066	-0.154306	0.271362	0.200591	-0.269023	-4.24177	0.379762	-0.322226
0.7613	-3.08454	0.216405	27.8776	1.07049	1.49249	1.70502	1.56033	3.70347	0.990094	0
0.7620	-2.43024	0.510098	22.6884	0.761884	0.881926	0.802363	0	11.3257	0.379762	0
0.7627	-2.14983	-0.0927451	20.8546	-0.154306	-1.22113	-1.35399	-2.74404	11.0243	-1.13929	-0.322226
0.7633	-1.58901	-0.401895	20.5619	-0.154306	-1.56033	-0.752215	-2.42121	7.66533	-0.840902	-0.322226
0.7640	-4.86049	-0.401895	19.3329	-0.154306	0.610564	-0.451329	-0.591851	2.17471	0.990094	0
0.7647	-8.22544	0.819248	17.2065	-0.453272	1.49249	-0.100295	-0.591851	-1.18425	1.60043	0
0.7653	-3.08454	2.95239	14.4558	0.154306	0.271362	1.40413	-0.591851	-2.11012	0.69171	0
0.7660	0	2.34954	10.1834	-0.761884	-2.17089	-0.451329	-2.42121	-9.43094	-1.13929	-0.322226
0.7667	-1.58901	-1.00474	7.12059	-1.07049	-1.56033	-1.95576	-3.33589	-12.7899	-1.13929	-0.322226
0.7673	-1.21512	-1.00474	5.91107	0.462917	0.881926	0.200591	0	-3.3159	0.69171	0
0.7680	0.280413	1.1284	4.38941	0.761884	1.22113	1.70502	1.56033	21.4026	1.30204	0
0.7687	0.280413	0.510098	4.07727	0.761884	0	0.501477	0	54.3463	0.379762	-0.322226
0.7693	-0.654296	-1.31389	9.87129	-0.453272	-1.83169	-2.25665	-3.33589	74.8015	-1.13929	0
0.7700	0.280413	-1.31389	16.8943	-1.07049	-1.83169	-1.95576	-3.33589	85.7828	-1.13929	0
0.7707	0.934709	1.1284	18.7281	0.462917	0.271362	0.802363	0	97.9913	0.379762	0
0.7713	1.49553	2.04039	18.416	1.07049	0.610564	1.40413	1.82936	104.709	1.30204	0
0.7720	2.71066	-1.00474	19.9377	0.462917	-0.339202	0.200591	0.322828	97.9913	0.69171	-0.322226
0.7727	1.77595	-4.97732	16.2896	-1.07049	-1.22113	-1.95576	-3.01306	38.4774	-1.45123	0
0.7733	0.934709	-3.15333	1.03395	-0.761884	-0.949766	-1.35399	-2.42121	-54.2817	-1.13929	0.322226
0.7740	0.280413	1.43755	-20.0352	0.462917	0.610564	1.40413	1.23751	-96.3979	1.30204	0
0.7747	-1.86942	3.57069	-29.1847	0.462917	1.49249	1.70502	2.15219	-84.4908	1.60043	0
0.7753	-1.86942	3.57069	-22.7859	0.154306	0.271362	-0.100295	0	-58.5665	0.69171	0
0.7760	-2.14983	1.43755	-16.3676	-0.761884	-2.17089	-1.95576	-1.82936	-37.207	-1.13929	-0.322226
0.7767	-1.86942	0.510098	-11.1784	-0.453272	-1.83169	-1.35399	-0.591851	-23.4697	-1.13929	0
0.7773	0.280413	1.1284	-5.38434	0.761884	0	0.802363	1.56033	-13.6942	0.69171	0
0.7780	0.934709	1.43755	-3.23841	0.761884	0.881926	1.40413	1.82936	-7.60073	0.990094	0
0.7787	0.560826	0.819248	-3.55054	-0.154306	0	0.200591	0.914679	-5.1461	0.379762	0
0.7793	-0.654296	-1.31389	-4.15531	-1.67807	-2.78146	-2.85842	-2.74404	-5.46908	-1.13929	0
0.7800	-0.934709	-1.62304	-4.15531	-1.98668	-2.44226	-3.1593	-3.92774	-5.77053	-1.74962	0
0.7807	0.280413	1.1284	-2.02888	-0.154306	0.610564	0.501477	-0.269023	-4.54321	0.379762	-0.322226
0.7813	1.21512	1.73124	-1.11198	1.07049	1.83169	2.00591	1.56033	-2.41156	1.60043	0
0.7820	1.21512	0.510098	-2.02888	0.462917	0.271362	0.802363	0.645656	-0.882804	0.69171	0
0.7827	-0.280413	-0.711046	-2.63364	-0.761884	-1.83169	-1.65487	-2.74404	-2.41156	-1.13929	0
0.7833	-0.654296	-1.00474	-2.02888	-0.761884	-1.22113	-2.25665	-3.65872	-2.41156	-1.13929	-0.322226
0.7840	0.934709	0.510098	-0.799847	0.761884	0.881926	0.501477	0.322828	0.344509	0.69171	0
0.7847	0.560826	1.43755	0.117051	1.67807	1.22113	2.60768	2.15219	1.55029	1.60043	0
0.7853	0	0.819248	-0.799847	0.154306	0	1.40413	0.645656	0.9474	0.379762	0
0.7860	-0.654296	-1.62304	-2.63364	-1.98668	-2.17089	-1.95576	-3.33589	-1.4857	-1.45123	-0.322226
0.7867	0.560826	-1.93219	-2.34102	-1.67807	-2.17089	-1.65487	-4.25057	-1.78714	-1.74962	-0.322226
0.7873	1.77595	0.216405	-0.50722	0.154306	-0.339202	0.501477	-0.914679	0.0430636	0.0813776	0
0.7880	1.21512	1.43755	-0.195085	0.761884	0.881926	1.40413	0.645656	-0.279914	1.30204	0
0.7887	1.21512	0.819248	-0.799847	0.154306	0.271362	0.501477	-0.269023	-0.279914	0.69171	-0.322226
0.7893	-0.280413	-1.31389	-2.02888	-1.36946	-2.44226	-1.95576	-2.74404	-1.18425	-1.13929	0
0.7900	-0.934709	-1.00474	-1.71675	-1.67807	-2.17089	-2.55753	-3.33589	-1.78714	-1.45123	0
0.7907	0.934709	1.73124	0.117051	0.462917	0.271362	-0.100295	-0.269023	-0.279914	0.379762	0
0.7913	0.280413	2.95239	0.409678	0.761884	0.881926	0.501477	0.914679	0.9474	0.990094	0
0.7920	-0.280413	1.73124	-0.50722	-0.154306	-0.339202	-0.752215	-0.591851	1.87327	0.379762	0
0.7927	-0.654296	-1.00474	-1.11198	-1.67807	-2.17089	-2.55753	-3.01306	1.87327	-1.13929	0
0.7933	-1.21512	-1.62304	-1.11198	-1.67807	-1.83169	-2.55753	-3.33589	1.24885	-1.45123	0
0.7940	0	1.43755	0.409678	0.154306	0.610564	-0.100295	0.645656	3.70347	0.379762	-0.322226
0.7947	0.560826	3.86438	1.03395	1.07049	0.881926	0.802363	2.15219	5.83512	0.990094	0
0.7953	-1.21512	3.86438	0.117051	0.462917	-0.339202	-0.451329	0.322828	5.53368	0.69171	0
0.7960	-2.43024	2.95239	-1.42412	-1.07049	-1.83169	-2.85842	-2.42121	4.00492	-0.840902	0
0.7967	-2.14983	3.26154	-1.71675	-1.07049	-1.83169	-2.55753	-3.01306	2.7776	-1.45123	0
0.7973	-0.280413	4.48268	-0.195085	0.462917	0.271362	0.802363	-0.269023	3.3805	0.69171	0
0.7980	1.21512	5.39467	0.409678	1.07049	1.22113	1.70502	1.56033	3.3805	1.60043	0
0.7987	0.934709	5.08552	-0.799847	0.462917	0	-0.451329	-0.269023	0.344509	0.379762	-0.322226
0.7993	0	-2.22588	-2.94578	-1.07049	-1.83169	-2.85842	-3.65872	-2.41156	-0.840902	-0.322226
0.8000	0.560826	-9.55274	-3.23841	-1.07049	-1.22113	-1.95576	-3.33589	-1.4857	-0.840902	0
0.8007	1.49553	-8.64075	-1.71675	0.462917	0.271362	0.200591	-0.269023	-0.581359	0.379762	0
0.8013	1.77595	-4.37448	-0.195085	1.07049	0.881926	1.10325	1.23751	-0.279914	1.30204	-0.322226
0.8020	2.14983	-2.84418	-2.34102	0.462917	0	-0.100295	0.322828	0.9474	0.69171	0
0.8027	1.21512	-3.44703	-5.69648	-0.761884	-1.83169	-2.25665	-2.74404	1.24885	-0.840902	-0.322226
0.8033	1.21512	-2.84418	-4.15531	-0.761884	-1.22113	-2.25665	-3.01306	1.24885	-1.13929	0
0.8040	-1.86942	-0.0927451	-0.799847	-0.453272	0.881926	-1.0531	-0.591851	-3.63888	0.379762	0
0.8047	-4.01925	1.1284	1.93134	0.154306	1.49249	-0.451329	0.645656	-7.60073	2.52271	0
0.8053	-0.654296	0.510098	4.68203	0.154306	-0.339202	0.200591	0	-5.1461	3.13304	-0.322226
0.8060	-0.654296	-1.31389	4.68203	-0.761884	-2.44226	-1.95576	-2.42121	-7.60073	0.0813776	-0.322226
0.8067	-1.86942	-2.22588	2.84824	-0.453272	-2.44226	-2.25665	-1.50653	-9.12949	-2.06157	-0.644452
0.8073	0.280413	-1.62304	1.63871	0.761884	0.271362	0.501477	0.645656	-6.97631	-0.840902	-0.322226
0.8080	2.71066	-1.62304	0.721814	0.761884	0.881926	1.70502	0.322828	-2.71301	0.69171	0
0.8087	3.36495	-2.53503	0.721814	-0.154306	0	1.10325	0.322828	15.912	0.69171	0
0.8093	0.560826	-4.06533	0.721814	-1.36946	-2.17089	-1.35399	-2.42121	29.3263	-1.45123	0
0.8100	-0.934709	-3.75618	0.721814	-1.36946	-1.83169	-1.95576	-3.65872	24.4386	-1.45123	-0.322226
0.8107	0.280413	-1.93219	1.03395	0.154306	0.271362	0.200591	-0.591851	17.7422	0.379762	-0.322226
0.8113	0	2.95239	3.47251	1.07049	0.881926	1.10325	1.23751	10.7228	1.30204	-0.322226
0.8120	-0.934709	6.01297	14.7484	0.462917	0.271362	0.501477	0	3.07905	0.379762	-0.322226
0.8127	-1.21512	-0.0927451	28.4824	-1.36946	-1.22113	-2.25665	-3.01306	-3.3159	-1.13929	-0.322226
0.8133	-1.58901	-4.97732	34.2959	-1.67807	-1.83169	-2.55753	-3.65872	-6.07197	-0.528955	0
0.8140	-1.58901	-1.62304	33.6716	-0.453272	-0.339202	-0.752215	-0.914679	-1.78714	1.91237	0
0.8147	-1.58901	1.73124	30.6283	-0.154306	1.22113	0.501477	0.322828	2.17471	2.82109	0
0.8153	-0.280413	2.04039	23.6053	-0.453272	0.610564	0.501477	0.322828	4.90925	2.21076	0
0.8160	-0.280413	1.73124	14.4558	-1.07049	-2.17089	-1.95576	-2.42121	12.8545	0.379762	0
0.8167	-1.21512	3.26154	2.55561	-0.761884	-2.44226	-2.25665	-3.33589	22.9314	-0.528955	-0.322226
0.8173	-0.654296	4.17353	-29.1847	0.761884	0.271362	1.10325	-0.269023	33.6112	0.69171	-0.322226
0.8180	0	3.57069	-58.4864	1.07049	1.49249	2.60768	1.56033	45.8197	2.21076	-0.322226
0.8187	0.560826	1.43755	-47.191	0.761884	-0.339202	1.10325	-0.269023	61.9901	1.60043	0
0.8193	0.560826	-3.44703	-25.5171	-0.761884	-2.44226	-1.65487	-3.33589	80.2921	-3.89256	0
0.8200	0	-7.11046	-16.9724	-0.761884	-1.83169	-1.95576	-2.09838	87.0101	-6.94422	-0.322226
0.8207	0	-4.66817	-9.6567	0.761884	0.610564	0.802363	1.56033	58.3297	-2.6719	-0.322226
0.8213	0.560826	0.216405	-5.9891	0.761884	1.49249	1.70502	1.23751	-23.1682	0.0813776	0
0.8220	0	1.43755	-6.30124	-0.154306	0.271362	0.200591	-0.269023	-103.417	-0.528955	-0.322226
0.8227	-2.80413	0.510098	-8.13503	-1.07049	-2.17089	-1.95576	-2.42121	-111.965	-1.45123	-0.322226
0.8233	-3.64537	0.819248	-9.6567	-1.07049	-0.949766	-1.65487	-2.42121	-76.8686	-1.13929	-0.322226
0.8240	-2.80413	1.43755	-9.34456	0.154306	1.22113	0.802363	0	-48.1882	0.379762	-0.322226
0.8247	-1.58901	1.43755	-8.7398	0.462917	0.881926	1.70502	1.56033	-29.8646	0.990094	-0.322226
0.8253	-0.934709	2.65869	-8.42766	-0.453272	-0.339202	0.501477	0.645656	-16.1489	0.0813776	0
0.8260	-1.86942	3.57069	-5.38434	-1.36946	-2.17089	-1.65487	-2.74404	-4.84466	-1.74962	-0.322226
0.8267	-1.86942	2.65869	1.93134	-1.07049	-1.83169	-1.95576	-3.01306	0.0430636	-1.45123	0
0.8273	-3.36495	0.510098	7.12059	-0.761884	0.881926	-1.65487	-1.1837	-0.581359	0.379762	0.322226
0.8280	-4.58008	1.43755	10.1834	-0.761884	1.22113	-0.451329	-0.269023	4.30636	0.990094	-0.322226
0.8287	-1.21512	4.17353	13.851	-0.154306	-0.339202	0.802363	0	9.79698	0.0813776	-0.322226
0.8293	-0.934709	1.43755	13.5389	-1.07049	-2.17089	-1.0531	-3.01306	6.13657	-1.45123	-0.322226
0.8300	-1.21512	-3.44703	7.74486	-0.761884	-1.83169	-1.65487	-3.01306	4.00492	-1.13929	-0.322226
0.8307	0.280413	-4.37448	4.99417	0.462917	0.271362	0.501477	0.645656	9.49553	0.69171	0
0.8313	0	-1.31389	10.7882	0.154306	0.610564	1.40413	1.56033	18.0437	1.30204	0
0.8320	0.934709	0.819248	6.2037	-0.453272	-0.339202	0.802363	-0.269023	17.7422	0.0813776	0
0.8327	1.49553	0.216405	-8.42766	-1.36946	-1.56033	-1.65487	-3.33589	1.24885	-1.45123	-0.322226
0.8333	0.934709	0.510098	-12.7	-1.36946	-1.56033	-1.35399	-3.01306	-11.5626	-1.45123	0
0.8340	-0.654296	0.510098	-11.1784	0.462917	0.271362	1.70502	0.914679	-9.43094	0.379762	0
0.8347	-2.80413	-1.31389	-11.1784	1.07049	1.22113	2.30679	1.82936	-0.581359	1.60043	0
0.8353	-1.21512	2.04039	-9.6567	0.154306	0	0.802363	-0.591851	14.9861	0.69171	-0.322226
0.8360	-0.654296	6.92497	-8.13503	-0.761884	-2.17089	-1.95576	-2.42121	11.9286	-1.45123	-0.644452
0.8367	0.280413	10.2792	-6.61337	0.154306	-1.56033	-1.95576	-0.914679	-17.9791	-1.13929	-0.322226
0.8373	3.36495	16.6941	-4.46744	1.37911	0.610564	0.802363	0.914679	-32.0178	0.990094	0
0.8380	3.36495	22.1815	-2.63364	1.07049	1.22113	1.70502	1.23751	-18.8834	0.990094	-0.322226
0.8387	0.934709	17.297	-8.7398	-0.154306	0.271362	0.200591	-0.269023	-0.279914	-0.23057	-0.322226
0.8393	-0.934709	5.08552	-20.9521	-1.36946	-1.56033	-2.25665	-3.92774	9.49553	-2.06157	0
0.8400	-0.654296	-3.75618	-20.0352	-1.36946	-2.17089	-2.25665	-4.25057	9.49553	-1.45123	0
0.8407	1.21512	-3.75618	-11.4905	0.154306	0	0.200591	-0.914679	10.0984	0.0813776	-0.322226
0.8413	2.99107	0.216405	-13.9291	1.07049	0.881926	1.40413	0.914679	9.49553	0.69171	-0.322226
0.8420	2.99107	-0.0927451	-16.075	0.462917	0.271362	0.501477	0	-12.1655	0.69171	0
0.8427	1.21512	-6.19846	-9.05193	-0.761884	-1.22113	-1.95576	-3.01306	-45.1307	-0.528955	0
0.8433	-0.280413	-13.2162	1.93134	-0.154306	-1.56033	-1.95576	-3.01306	-47.5638	-0.840902	0
0.8440	-1.21512	-19.631	15.6653	0.761884	0.881926	0.501477	0.322828	-27.733	0.990094	0
0.8447	-1.86942	-23.2945	26.0438	1.07049	1.22113	1.10325	0.914679	-9.12949	1.91237	0
0.8453	-0.654296	-22.367	25.1269	0.462917	0	-0.100295	-0.914679	9.19409	0.379762	0
0.8460	-0.280413	-18.4099	14.4558	-0.761884	-2.17089	-2.25665	-3.01306	16.8163	-1.13929	0
0.8467	-1.21512	-11.3922	5.30631	-0.453272	-2.17089	-2.25665	-3.33589	8.56966	-0.840902	0
0.8473	-3.36495	-1.93219	9.26653	0.154306	0.271362	-0.752215	-0.914679	-1.78714	0.69171	-0.322226
0.8480	-5.7952	2.65869	20.8546	-0.154306	1.22113	-0.752215	-0.269023	-6.67486	1.60043	-0.322226
0.8487	-5.23437	2.95239	24.21	-0.154306	0.271362	-0.752215	-1.50653	-5.1461	0.990094	0
0.8493	-5.51478	2.34954	21.7715	-0.761884	-2.17089	-1.95576	-3.33589	-1.18425	-0.840902	0
0.8500	-5.51478	2.34954	24.21	-1.07049	-2.17089	-2.25665	-3.33589	5.2107	-0.840902	0
0.8507	-2.80413	3.26154	27.5655	0.154306	0.610564	-0.100295	-0.269023	11.3257	0.379762	0
0.8513	-0.654296	4.79183	25.4391	0.462917	1.22113	0.802363	0.914679	13.4574	0.379762	-0.322226
0.8520	1.77595	9.36725	17.4991	-0.154306	0	-0.451329	-0.269023	12.2301	-0.528955	-0.322226
0.8527	4.58008	14.8547	4.38941	-1.07049	-2.44226	-2.85842	-3.01306	11.0243	-1.74962	0
0.8533	5.1409	8.14611	-14.5338	-1.67807	-2.78146	-2.55753	-3.01306	15.912	-1.13929	-0.322226
0.8540	4.29966	-4.37448	-25.5171	-0.453272	0	0.501477	0	30.8551	0.69171	0
0.8547	4.58008	0.216405	-20.9521	0.761884	0.881926	1.70502	1.82936	53.7434	0.990094	0
0.8553	7.94503	7.52781	-14.2412	0.154306	-0.339202	0.200591	0.322828	55.8751	0.0813776	0
0.8560	8.50585	0.819248	-11.1784	-1.07049	-1.83169	-1.65487	-3.01306	19.5724	-1.13929	0
0.8567	4.86049	-6.50761	-16.3676	-1.36946	-1.83169	-1.65487	-3.33589	-3.94032	-1.13929	0
0.8573	0.280413	-14.1282	-31.3306	-0.453272	0.271362	-0.100295	-0.269023	38.1759	0.69171	0
0.8580	-2.14983	-17.7916	-36.2077	-0.154306	1.22113	1.10325	0.645656	89.1417	1.60043	0
0.8587	-3.64537	-8.02245	-32.8523	-0.154306	0.271362	1.10325	-0.269023	53.442	0.69171	-0.322226
0.8593	-6.44949	0.819248	-29.1847	-1.36946	-1.83169	-1.65487	-3.01306	-27.4315	-1.13929	-0.322226
0.8600	-6.07561	2.04039	-9.96883	-1.36946	-2.17089	-1.35399	-3.01306	-42.3961	-1.45123	-0.322226
0.8607	-1.86942	3.57069	22.0836	0.154306	0.271362	1.40413	0.322828	-16.7518	0.379762	-0.322226
0.8613	-1.86942	6.01297	44.6744	0.462917	1.22113	1.40413	1.82936	-27.1301	1.30204	0
0.8620	-4.01925	4.17353	61.1396	0.154306	0	-0.100295	0.645656	-46.6594	0.69171	-0.322226
0.8627	-3.36495	-1.00474	73.9566	-0.761884	-1.83169	-1.35399	-1.82936	-52.7529	-0.840902	-0.322226
0.8633	-0.934709	-6.81676	71.8302	-1.07049	-1.56033	-1.0531	-2.09838	-78.0959	-0.840902	0
0.8640	1.77595	-13.5253	55.3455	0.154306	0.271362	1.40413	0.914679	-100.683	0.69171	-0.322226
0.8647	4.86049	-17.1888	17.2065	0.462917	1.49249	2.00591	2.15219	-77.4715	0.990094	0
0.8653	5.7952	-15.3493	-31.6232	-0.154306	0.271362	0.200591	0.645656	-27.1301	0.379762	0
0.8660	2.71066	-10.171	-46.8789	-0.453272	-2.44226	-1.95576	-2.42121	15.589	-1.13929	-0.644452
0.8667	0.280413	-3.15333	-24.9123	-0.154306	-2.17089	-1.65487	-1.1837	43.6665	-1.45123	-0.644452
0.8673	-0.934709	2.04039	-2.63364	0.154306	0.271362	0.200591	1.23751	51.6118	0.0813776	-0.322226
0.8680	-3.64537	3.57069	-11.1784	0.462917	1.22113	0.501477	0	39.1018	0.69171	0
0.8687	-3.36495	3.57069	-46.2741	0.154306	0.271362	-0.100295	-0.914679	31.781	0.69171	0
0.8693	-1.21512	1.43755	-62.154	-1.36946	-1.83169	-1.95576	-3.01306	51.6118	-1.13929	0
