MR32 ASCII
Name	SORD30_slow
Frequency	1500
Date	16-09-2015 10:26:42
"Time,s"	"RT TIB.ANT.,uV"	"RT MED. GASTRO,uV"	"RT LAT. GASTRO,uV"	"RT BICEPS FEM.,uV"	"RT VMO,uV"	"RT VLO,uV"	"RT RECTUS FEM.,uV"	"RT SOLEUS,uV"	"RT SEMITEND.,uV"	"Channel 12,uV"
0.0000	-22.382	-3.87171	-4.30767	3.93939	-3.11778	-4.95536	-4.96025	-7.76673	-37.834	-9877.6
0.0007	-99.2996	-4.79629	-4.62675	3.93939	-3.74798	-6.78437	-5.56763	-7.46215	2.13579	-10141.9
0.0013	-84.6694	-3.87171	-3.98858	0.278074	-2.52076	-5.56148	-3.73706	-4.72095	52.2179	-9542.62
0.0020	-68.1832	-2.65819	-4.30767	-4.31015	-2.22225	-5.26374	-4.04075	-1.97976	77.5423	-9896.61
0.0027	-178.947	-1.12684	-1.27635	-6.14081	-2.22225	-6.17824	-4.96025	-1.06602	55.8793	-9818.02
0.0033	-299.209	1.01127	3.58972	-2.15508	-2.52076	-6.48662	-4.34444	-1.06602	34.4778	-9793.3
0.0040	-273.879	1.3002	4.54698	4.24063	-3.11778	-7.69888	-5.56763	-2.89349	43.9363	-9814.21
0.0047	-208.535	0.404507	3.90881	4.8663	-1.92374	-6.48662	-6.47869	-4.41638	23.1886	-9813.58
0.0053	-148.158	0.69344	3.90881	3.93939	-0.0663358	-2.21183	-4.34444	-4.72095	-49.7334	-9802.17
0.0060	-67.5827	0.08668	2.07406	13.0927	-0.0663358	-1.29733	-3.73706	-5.93927	-122.961	-9795.51
0.0067	-15.0669	-1.44467	1.19657	27.1354	-0.696526	-2.81796	-4.96025	-7.76673	-119.909	-9912.77
0.0073	13.9205	-2.05143	0.877488	32.6274	-0.995038	-2.21183	-5.87132	-7.46215	-7.62783	-9617.73
0.0080	36.1933	-2.65819	-1.27635	26.2085	-0.995038	0.840071	-6.79082	-7.15758	87.611	-9881.4
0.0087	41.0518	-3.58277	-3.98858	10.6595	-0.696526	4.50874	-8.00557	-7.46215	72.9656	-10384.3
0.0093	33.1363	-2.05143	-3.43018	-3.38324	-0.0663358	8.16677	-8.00557	-5.93927	13.7301	-5705.41
0.0100	19.1066	1.01127	-0.638173	-9.17645	0.829198	10.9103	-6.47869	-3.19807	-54.6152	69.7212
0.0107	-10.8089	2.83155	0.877488	-11.0071	0.530687	11.2187	-5.56763	-1.06602	-98.2464	113.139
0.0113	-49.8409	6.18317	4.86607	-8.57396	0.232175	9.69804	-5.56763	1.67518	-97.6362	-268.427
0.0120	-44.9823	8.95693	8.77488	-4.6114	0.530687	8.77289	-7.3982	3.80722	-91.839	85.8839
0.0127	-7.42427	7.10776	6.94013	-9.80212	0.530687	7.56064	-8.00557	2.89349	-82.0754	6.97212
0.0133	18.5061	3.43831	1.51566	-25.9768	0.530687	5.42324	-8.30926	-0.152289	-68.6504	-17.4303
0.0140	35.5928	2.22479	-1.59543	-39.3939	1.12771	5.42324	-7.09451	-1.06602	-56.1408	3.16915
0.0147	42.9079	2.22479	-0.319087	-46.114	1.7579	5.72099	-5.26394	1.06602	-13.7301	0.633829
0.0153	50.5505	1.93585	-0.0797716	-51.3047	1.45939	4.80648	-5.87132	1.3706	50.6924	0.633829
0.0160	44.764	0.69344	-1.27635	-47.0177	1.12771	3.28585	-6.175	-1.06602	87.3059	0.633829
0.0167	33.4638	-0.809013	-2.79201	-26.278	-0.398015	-0.382817	-5.26394	-5.02553	113.851	0.316915
0.0173	59.3942	-2.05143	-3.43018	-0.0231729	-2.81927	-4.64698	-5.56763	-7.15758	146.193	0.633829
0.0180	92.9672	-2.34036	-4.30767	14.6221	-3.44946	-5.26374	-5.56763	-4.72095	145.583	0.633829
0.0187	114.639	-2.94712	-4.62675	17.3565	-3.44946	-3.73247	-5.26394	-1.67518	112.63	0.633829
0.0193	131.726	-4.18953	-5.50424	19.1871	-4.64351	-4.64698	-8.00557	-1.67518	49.777	0
0.0200	149.086	-3.58277	-4.62675	21.3422	-4.04649	-5.56148	-9.53245	0.152289	-25.9346	-0.633829
0.0207	189.101	-1.44467	-3.43018	16.4527	-2.52076	-4.04085	-8.30926	3.80722	-52.4794	0.633829
0.0213	213.502	-1.12684	-5.82333	6.69696	-2.81927	-4.34923	-10.1483	5.33011	-51.5641	0.950744
0.0220	124.684	-0.202253	-6.4615	-3.08199	-2.81927	-4.64698	-11.0593	5.02553	-79.9396	0.633829
0.0227	-65.7266	2.22479	-1.59543	-11.3084	-2.22225	-2.50958	-9.53245	4.72095	-80.855	0.633829
0.0233	-235.721	4.68072	4.2279	-16.4991	-2.22225	-2.50958	-10.7556	5.02553	-35.088	0.633829
0.0240	-293.695	8.63911	10.0512	-20.1604	-1.92374	-4.04085	-11.6667	8.12207	-1.83068	0.633829
0.0247	-241.507	11.384	12.7635	-24.4474	-1.59206	-5.86986	-11.363	11.777	78.1525	0.633829
0.0253	-159.131	10.1705	9.41305	-22.3155	-3.74798	-10.1447	-12.8899	10.8633	216.064	0.633829
0.0260	-98.6991	6.501	3.90881	-13.4634	-6.2024	-14.1111	-13.1936	5.63469	207.215	0.633829
0.0267	-71.5132	3.75613	-0.0797716	-4.6114	-5.87072	-13.8027	-10.7556	0.761444	24.1039	0.633829
0.0273	-62.9971	1.3002	-2.47292	8.52761	-4.345	-12.8882	-9.53245	-3.19807	-71.0913	0.950744
0.0280	-59.3396	-2.65819	-4.94584	22.8716	-4.64351	-15.334	-11.6667	-6.54842	-59.1919	0.633829
0.0287	-64.1981	-4.79629	-5.82333	29.8698	-5.57221	-16.2485	-15.0242	-9.5942	-86.9572	0.633829
0.0293	-58.4115	-3.26495	-2.15383	35.0605	-5.57221	-14.4194	-14.1131	-9.89878	-106.484	0.950744
0.0300	-29.4241	0.404507	1.75498	41.4794	-4.345	-11.6653	-10.452	-6.24384	-110.451	0.950744
0.0307	5.07689	3.43831	2.07406	43.9126	-3.11778	-8.00726	-9.22876	-2.89349	-91.839	0.633829
0.0313	52.352	5.28748	2.39315	48.802	-2.52076	-1.90345	-9.22876	-1.97976	43.9363	0.950744
0.0320	114.312	4.96965	2.39315	42.7076	-3.11778	2.97747	-9.22876	-3.50264	178.84	0.633829
0.0327	128.342	1.01127	-1.59543	13.0927	-4.64351	5.11486	-11.0593	-5.93927	151.685	0.633829
0.0333	98.7537	-1.44467	-5.50424	-0.64884	-4.64351	7.85839	-10.7556	-5.02553	55.2691	0.950744
0.0340	65.1807	0.69344	-5.26493	11.5633	-2.52076	10.9103	-7.3982	-0.152289	-33.2573	0.950744
0.0347	6.00492	3.43831	-3.43018	16.1515	-0.696526	12.4416	-6.47869	1.97976	-91.839	0.633829
0.0353	-27.5681	4.68072	-1.59543	2.71123	1.12771	14.579	-5.56763	4.1118	-88.7879	0.950744
0.0360	-12.6103	6.18317	1.19657	-15.2941	2.05641	14.579	-4.64813	7.15758	-91.2288	0.950744
0.0367	-18.7244	8.03235	3.27064	-26.5793	1.12771	12.1332	-6.47869	7.51292	-133.64	0.633829
0.0373	-47.4389	8.32128	4.2279	-38.1657	0.829198	10.9103	-7.3982	7.51292	-110.451	0.633829
0.0380	-46.1833	9.85263	8.21648	-45.8127	2.05641	10.9103	-5.87132	12.0816	93.7133	0.950744
0.0387	-18.7244	11.7018	11.5669	-37.5632	2.05641	7.85839	-4.96025	13.6045	316.184	1.26766
0.0393	1.6923	9.24587	8.21648	-42.4527	-0.0663358	0.233944	-7.09451	6.24384	217.589	0.950744
0.0400	11.7915	4.96965	3.03132	-51.9072	-0.696526	-5.26374	-8.30926	-1.67518	-72.0067	0.633829
0.0407	24.2927	1.61803	-0.319087	-23.2192	-0.995038	-9.52789	-7.70188	-5.63469	-113.502	0.633829
0.0413	45.3645	-0.809013	-4.30767	21.6435	-3.74798	-15.6317	-9.83614	-8.68046	21.3579	0.633829
0.0420	66.3817	-2.05143	-6.14242	40.8769	-4.64351	-18.0775	-9.83614	-11.4217	65.3378	0.950744
0.0427	91.1111	-2.05143	-4.94584	35.6862	-4.97519	-12.8882	-7.3982	-12.0308	88.2213	0.950744
0.0433	114.039	-2.94712	-5.82333	33.5311	-7.09794	-11.3675	-9.22876	-12.0308	190.434	0.633829
0.0440	132.654	-2.05143	-5.82333	22.8716	-8.62366	-16.5568	-10.1483	-10.5079	278.35	0.950744
0.0447	150.341	1.93585	-1.91452	-4.31015	-8.92217	-14.7172	-6.79082	-3.50264	305.505	0.950744
0.0453	126.54	1.93585	-0.0797716	-14.9928	-8.62366	-6.48662	-5.56763	3.80722	222.776	0.950744
0.0460	84.3965	-1.44467	-0.319087	-14.9928	-6.50091	-2.50958	-4.64813	5.93927	-115.943	0.633829
0.0467	85.3245	1.3002	0.558401	-7.97146	-3.44946	-1.59507	-1.6028	8.42665	-440.365	0.633829
0.0473	60.9227	6.81883	1.51566	5.4688	-0.398015	-2.21183	-2.81756	12.3862	-415.041	0.950744
0.0480	-32.4812	8.95693	-0.0797716	15.5258	3.28362	-1.29733	-4.96025	14.8228	-225.522	1.26766
0.0487	-101.429	9.85263	-1.59543	35.0605	6.63358	2.66909	-4.64813	15.7365	-39.6647	0.950744
0.0493	-82.2129	4.07396	-0.319087	50.0302	7.23061	5.72099	-5.26394	16.3457	185.857	0.316915
0.0500	6.60542	-8.46575	-0.0797716	45.442	5.10786	5.72099	-5.87132	16.6502	419.313	0.316915
0.0507	102.739	-13.6377	-2.47292	-0.32442	3.28362	5.42324	-3.73706	16.0411	489.227	0.950744
0.0513	116.441	-10.575	-3.11109	-79.0658	0.829198	3.89197	-3.12125	10.8633	314.049	0.950744
0.0520	59.9947	-4.18953	1.19657	-106.526	-2.81927	4.20036	-4.34444	4.72095	83.0343	0.633829
0.0527	23.9651	2.22479	9.41305	-74.1763	-2.22225	11.8248	-1.90649	4.1118	-116.858	0.633829
0.0533	-33.6822	8.03235	15.7948	-30.5418	2.35492	16.408	1.14727	7.81749	-253.593	0.633829
0.0540	-148.758	14.4467	17.0711	18.2834	2.65343	11.8248	-0.986988	10.2541	-274.95	0.950744
0.0547	-179.547	16.5848	15.5555	40.5525	1.45939	12.1332	-3.12125	10.2541	-335.668	0.950744
0.0553	-89.8555	15.6602	10.9287	32.3261	0.829198	16.7164	-3.73706	9.94954	-383.309	0.950744
0.0560	-2.89328	11.384	4.86607	46.0445	-3.11778	14.8767	-6.47869	9.34038	-232.845	0.950744
0.0567	37.3943	4.07396	1.75498	17.6809	-8.92217	8.77289	-9.22876	5.93927	-33.2573	0.633829
0.0573	46.893	3.43831	0.558401	-93.7111	-11.6751	5.42324	-8.62139	-0.761444	51.3026	0.633829
0.0580	25.4936	1.61803	-1.91452	-143.463	-10.7796	5.72099	-7.09451	-7.76673	71.44	0.950744
0.0587	-4.69476	-14.5622	-3.98858	-107.754	-11.0781	5.11486	-9.22876	-12.9446	68.0838	0.950744
0.0593	-22.382	-25.2239	-3.6695	-94.9392	-8.92217	5.42324	-10.452	-13.5537	42.1056	0.950744
0.0600	-25.1661	-18.8385	-1.59543	-109.886	-1.59206	7.85839	-7.3982	-10.2034	25.3244	0.950744
0.0607	-15.0669	-12.4241	0.558401	-111.415	0.530687	0.542324	-3.43337	-6.54842	-35.6982	1.26766
0.0613	-5.62279	-9.07251	3.27064	-76.3314	-2.52076	-24.1813	-0.986988	-5.02553	-199.893	1.26766
0.0620	-3.76673	-5.40305	6.94013	8.20319	-4.97519	-54.3919	0.539891	-3.80722	-307.292	0.950744
0.0627	-3.76673	-8.14792	8.21648	99.1567	-9.55236	-76.3614	-0.986988	-2.28433	-263.661	0.950744
0.0633	15.1215	2.22479	7.25922	157.738	-14.428	-88.2713	-4.34444	-1.97976	-186.773	1.26766
0.0640	50.5505	31.8405	6.06264	183.691	-15.3567	-89.4942	-5.26394	-5.93927	-98.5515	0.950744
0.0647	71.8953	36.4056	3.03132	164.759	-16.5508	-84.3049	-4.64813	-11.4217	32.6471	0.633829
0.0653	68.8383	16.8737	-0.319087	133.035	-19.9339	-76.6698	-4.64813	-14.4674	198.062	0.950744
0.0660	56.0096	12.5975	1.51566	130.278	-21.128	-62.9415	-3.43337	-13.5537	289.639	0.950744
0.0667	39.8509	15.9491	4.2279	128.748	-24.8096	-48.9049	-3.12125	-11.4217	243.219	0.950744
0.0673	20.9081	14.1288	2.71224	124.183	-26.6338	-38.5263	-4.34444	-10.5079	254.813	0.950744
0.0680	10.5359	13.8399	1.51566	156.231	-23.8809	-26.6271	-4.64813	-11.7262	390.327	0.950744
0.0687	11.4639	13.5221	2.07406	216.643	-32.4382	-15.6317	-5.87132	-15.3812	460.808	1.26766
0.0693	16.3771	11.7018	2.71224	264.565	-43.1183	-8.00726	-3.43337	-17.2086	422.669	1.26766
0.0700	11.4639	12.5975	2.71224	283.172	-41.2941	-0.680564	2.97784	-12.64	352.798	0.633829
0.0707	12.9925	15.0534	1.19657	267.925	-37.9109	4.20036	6.63897	-5.02553	82.7292	0.633829
0.0713	46.2379	15.3424	-1.27635	226.723	-34.8595	-0.382817	5.11209	-2.28433	-213.928	0.633829
0.0720	78.2824	12.5975	-0.95726	190.087	-30.2823	-13.8027	1.14727	-4.72095	-3.66136	0.950744
0.0727	96.2972	12.3086	0.239315	183.993	-26.3353	-21.1294	-3.43337	-5.93927	462.333	0.950744
0.0733	114.912	11.7018	-1.91452	169.347	-17.181	-15.334	-2.81756	-2.89349	530.722	0.633829
0.0740	119.225	6.18317	-3.11109	139.431	-4.64351	-3.73247	3.58521	3.50264	178.535	0.950744
0.0747	108.198	4.96965	-1.91452	170.251	2.98511	2.97747	7.55848	10.2541	-172.127	0.950744
0.0753	107.597	9.56369	-1.27635	216.041	5.10786	-3.43472	4.50472	14.5182	-347.262	0.950744
0.0760	80.466	12.5975	-1.91452	191.014	9.38652	-19.9065	0.539891	15.1274	-357.026	0.950744
0.0767	-43.7814	18.7229	-1.91452	83.8858	14.5607	-30.5935	-1.6028	14.2136	-285.935	0.950744
0.0773	-172.833	18.4051	-0.319087	-64.7218	18.8394	-27.2332	-3.12125	13.6045	-286.545	0.950744
0.0780	-212.52	8.95693	4.54698	-134.912	23.4166	-17.7691	-3.12125	12.0816	-246.575	1.26766
0.0787	-212.52	-2.05143	7.25922	-146.823	24.9423	-8.00726	-5.87132	9.03581	-94.8902	0.950744
0.0793	-185.989	-30.1069	4.86607	-231.057	21.8908	1.14845	-7.3982	5.33011	-123.571	0.316915
0.0800	-153.944	-49.6388	2.07406	-332.971	18.2424	9.08127	-5.26394	1.06602	-401.616	0.316915
0.0807	-122.5	-44.4668	2.07406	-294.226	16.385	7.56064	-4.64813	0.761444	-520	0.950744
0.0813	-55.3545	-54.2328	1.51566	-195.95	14.2622	-5.56148	-5.26394	5.02553	-272.51	1.26766
0.0820	2.29279	-71.9155	0.558401	-181.907	-0.696526	-15.334	-4.64813	7.51292	64.4224	0.950744
0.0827	25.4936	-40.5085	1.75498	-167.262	-27.8611	-15.334	-0.986988	8.73123	251.457	0.950744
0.0833	23.3646	25.4261	3.90881	-114.775	-47.6955	-15.0256	3.28153	9.64496	364.087	0.950744
0.0840	-20.8535	32.1294	1.75498	-76.6327	-55.3241	-17.4714	3.28153	5.02553	475.497	0.950744
0.0847	-52.625	-9.07251	-3.11109	-39.3939	-58.077	-14.7172	3.58521	0.761444	573.133	0.633829
0.0853	-20.8535	-17.9139	-3.98858	-13.7647	-57.7454	-1.29733	9.69273	2.89349	603.644	0.633829
0.0860	19.7071	28.4599	-2.47292	-20.1604	-46.4683	17.0141	11.2196	6.54842	435.789	0.950744
0.0867	27.9502	67.5237	-0.0797716	-45.8127	-25.4066	28.6156	8.77323	8.73123	131.547	0.950744
0.0873	23.6922	8.63911	2.07406	-74.1763	-15.9538	30.4446	7.55848	6.24384	-23.4937	0.950744
0.0880	16.3771	-78.0409	-0.319087	-102.864	-18.7067	31.6675	-0.6833	-0.152289	19.2221	0.633829
0.0887	2.62033	-87.489	-4.62675	-129.42	-13.831	37.7713	-9.83614	-4.1118	84.5599	0.633829
0.0893	1.6923	-60.9361	-4.94584	-126.362	2.05641	42.9606	-8.62139	-3.19807	65.948	0.950744
0.0900	12.9925	-46.2871	-3.6695	-148.028	16.385	51.8079	-3.43337	-3.80722	-177.619	0.950744
0.0907	22.1636	-41.722	-4.30767	-194.119	26.7665	60.9636	-1.29068	-9.28962	-394.903	1.26766
0.0913	29.4787	-11.2106	-4.94584	-147.125	38.9723	56.0827	-0.0759222	-16.9041	-215.453	1.26766
0.0920	29.1512	72.7245	-4.94584	-29.0124	47.5296	43.2583	3.58521	-23.0464	94.9337	0.950744
0.0927	21.5631	123.086	-4.30767	35.6862	46.8994	35.6339	10.6038	-23.351	242.914	0.950744
0.0933	22.7641	91.3318	-1.91452	-13.7647	46.8994	30.753	17.9345	-18.7823	241.388	0.950744
0.0940	27.0222	52.2681	2.39315	-85.4847	53.931	24.9469	19.7651	-15.0766	14.3403	0.633829
0.0947	-3.16623	40.0751	4.2279	-79.6683	65.8383	24.3408	14.2734	-12.9446	-413.82	0.633829
0.0953	-77.9548	35.7988	6.94013	-39.9964	76.5184	29.2217	9.38904	-10.2034	-683.889	0.950744
0.0960	-122.5	28.7778	10.6096	19.8128	76.2199	29.2217	10.6038	-8.37589	-667.413	0.950744
0.0967	-90.456	15.6602	9.73214	94.5685	60.9626	21.895	11.827	-9.28962	-567.903	0.633829
0.0973	-25.7666	0.404507	5.74356	117.463	42.3223	13.9622	12.7465	-10.5079	-368.01	0.633829
0.0980	33.4638	-8.46575	2.71224	89.3777	29.818	8.16677	17.3187	-12.0308	39.3596	0.950744
0.0987	49.9501	-8.14792	0.877488	43.6113	17.6122	6.94388	15.7918	-12.3354	583.812	0.950744
0.0993	41.7069	-4.18953	1.75498	6.9982	7.23061	13.3561	11.827	-8.68046	1161.52	0.950744
0.1000	73.4239	2.83155	5.10538	18.2834	4.80935	20.3744	13.6576	-3.19807	1428.23	0.633829
0.1007	119.225	-7.54116	5.42447	78.3938	2.65343	20.9805	9.69273	-1.3706	996.412	0.633829
0.1013	101.21	-27.6798	3.03132	143.718	-2.81927	22.2034	2.67415	-0.152289	221.861	0.633829
0.1020	38.9228	0.08668	1.51566	188.256	-6.79942	33.8049	5.72791	4.72095	-311.259	0.950744
0.1027	27.3497	36.1167	-2.15383	223.363	-15.6553	44.7896	8.16585	6.24384	-548.68	0.950744
0.1033	81.3394	21.1499	-5.26493	263.336	-43.1183	40.5148	4.50472	2.58891	-520.61	0.950744
0.1040	113.384	4.36289	-3.11109	277.68	-77.9115	25.8721	7.25479	5.33011	-271.289	0.950744
0.1047	43.836	9.56369	-0.95726	239.538	-100.167	15.4935	11.827	15.1274	-31.7318	0.950744
0.1053	-128.014	23.577	0.239315	151.643	-108.127	16.7164	17.3187	23.9601	77.2372	0.950744
0.1060	-276.008	48.6275	7.25922	22.8716	-96.8172	18.237	32.5791	31.8791	144.057	0.950744
0.1067	-322.082	66.0213	12.1253	-70.8394	-74.5615	16.408	44.1783	34.0619	277.435	0.950744
0.1073	-339.169	59.8959	10.6096	-45.1871	-57.7454	17.9286	43.5709	27.3105	442.501	1.26766
0.1080	-326.067	34.8743	7.57831	31.7005	-32.7367	28.924	37.4634	16.9548	534.079	1.26766
0.1087	-272.023	-52.0947	0.877488	25.3048	0.829198	50.585	26.48	7.51292	379.648	0.633829
0.1093	-214.649	-179.948	-5.82333	-66.5525	17.6122	60.9636	18.8456	5.33011	-40.58	0
0.1100	-154.545	-177.839	-7.65808	-191.06	27.9937	67.6736	20.0688	9.34038	-404.972	0.633829
0.1107	-106.014	-45.3914	-11.9657	-312.834	55.7553	94.8323	20.3725	7.15758	-500.473	0.633829
0.1113	-56.5555	27.8532	-18.3475	-369.908	77.7456	111.623	14.8807	-2.28433	-426.635	0.633829
0.1120	24.2927	32.4472	-16.5127	-352.204	74.6942	104.903	11.2196	-10.5079	-384.225	0.633829
0.1127	94.7686	37.937	-7.65808	-329.611	59.4369	94.8323	12.7465	-13.2491	-376.902	0.950744
0.1133	123.756	29.9913	2.39315	-317.723	45.7054	74.6919	15.1844	-10.2034	-351.534	0.633829
0.1140	174.143	21.1499	14.9173	-260.046	47.2311	51.2018	15.1844	-2.58891	-394.293	0.633829
0.1147	236.703	21.7567	23.7719	-209.691	48.7569	31.3591	11.827	2.28433	-488.878	1.26766
0.1153	228.46	18.7229	20.9799	-223.711	41.1282	7.25226	9.38904	1.97976	-527.628	0.950744
0.1160	184.515	12.9153	14.9173	-210.294	46.6009	-13.5049	10.3001	4.41638	-395.819	0.633829
0.1167	135.657	14.4467	8.77488	-137.346	27.3967	-28.1477	8.16585	9.03581	-197.452	1.26766
0.1173	86.5255	16.5848	0.877488	-69.31	-36.7169	-28.7645	6.94266	7.81749	-176.094	0.950744
0.1180	83.1955	-2.05143	-5.82333	-34.8288	-70.5813	-8.00726	11.5233	-0.456867	-241.693	0.950744
0.1187	123.756	-22.479	-11.0085	-48.5471	-62.3225	19.1515	11.5233	-12.9446	-215.759	0.950744
0.1193	172.614	-23.7214	-17.1509	-72.3457	-64.1799	27.3927	7.86216	-20.9143	-152.862	0.633829
0.1200	166.173	-17.596	-20.1822	-56.7967	-56.5513	22.8202	16.7113	-15.0766	-82.0754	0.633829
0.1207	120.098	-2.94712	-20.8204	-74.1763	-29.0883	26.7866	34.1059	-4.1118	-44.8516	0.950744
0.1213	102.138	6.18317	-20.8204	-131.251	-12.9023	16.7164	40.2135	-0.152289	-116.858	0.633829
0.1220	135.984	0.08668	-17.7093	-127.59	-11.0781	-14.7172	30.4448	1.06602	-184.332	0.950744
0.1227	173.215	-2.34036	-14.678	-83.0284	-3.44946	-25.4042	17.3187	3.19807	-151.641	0.950744
0.1233	123.156	-0.202253	-15.9543	-58.6273	24.0136	-10.1447	9.38904	2.58891	-12.2045	0.950744
0.1240	80.1385	1.3002	-12.5241	-26.278	60.3325	7.56064	10.3001	1.97976	170.602	0.950744
0.1247	103.012	4.96965	-3.98858	11.8645	78.3426	17.9286	14.5771	1.67518	236.506	0.950744
0.1253	78.2824	5.89424	-0.95726	25.0035	78.9728	18.8431	9.08536	-5.33011	189.824	0.950744
0.1260	-42.8533	4.07396	-1.91452	6.9982	80.4986	14.8767	-1.29068	-9.5942	184.637	0.950744
0.1267	-193.577	2.54261	-0.319087	-35.7326	83.2183	17.0141	-2.51387	-5.33011	207.215	0.950744
0.1273	-214.649	2.54261	0.239315	-28.7112	83.2183	24.9469	4.50472	0.152289	168.771	0.633829
0.1280	-105.414	4.07396	-1.91452	52.1621	81.6926	27.0843	13.0502	2.58891	105.002	0.633829
0.1287	-51.0965	2.83155	-6.14242	109.538	81.0956	18.5454	17.3187	-3.19807	136.429	0.633829
0.1293	-65.4537	-2.05143	-9.81191	63.4473	83.8485	-3.43472	19.4614	-14.772	251.152	0.950744
0.1300	-33.4092	-4.18953	-7.65808	-41.827	88.7242	-26.0103	22.5067	-19.3914	210.266	0.950744
0.1307	-30.0246	-2.34036	-0.95726	-70.515	86.9	-30.8912	23.1225	-16.2949	-16.171	0.950744
0.1313	-244.564	0.69344	6.06264	-18.6542	72.2397	-22.9584	20.6761	-8.68046	-177.924	0.950744
0.1320	-490.821	1.3002	11.2478	17.9821	46.8994	-20.5233	15.4881	-0.761444	-302.411	0.633829
0.1327	-450.26	0.08668	12.7635	29.8698	22.4879	-25.4042	18.5419	-1.3706	-544.104	0.633829
0.1333	-243.363	-1.44467	10.2905	50.6327	13.6652	-26.0103	27.6947	-3.80722	-657.649	0.633829
0.1340	-73.6968	-5.08523	1.75498	76.5631	18.5409	-18.6836	24.3373	-4.1118	-490.404	0.633829
0.1347	23.9651	-9.07251	-5.50424	79.3207	16.7166	-9.23015	13.9612	-13.8583	-278.917	0.633829
0.1353	68.8383	-9.07251	-4.94584	58.8822	5.70488	-10.453	9.99642	-23.9601	-134.555	0.950744
0.1360	87.4535	-6.61657	-0.319087	40.2513	-3.11778	-22.6607	12.7465	-15.0766	-19.5272	0.950744
0.1367	6.27788	-4.18953	3.27064	18.2834	-7.39645	-32.7309	18.8456	1.3706	19.8323	0.633829
0.1373	-115.185	-2.34036	3.58972	-42.7539	-9.85087	-30.8912	22.8188	6.853	-58.5817	0.633829
0.1380	-89.255	-5.40305	-3.43018	-127.289	-14.428	-16.2485	18.8456	1.97976	-169.686	0.950744
0.1387	-44.3819	-11.4995	-11.3276	-154.146	-14.1295	-32.1141	16.1039	-2.58891	-211.487	0.633829
0.1393	-107.543	-10.575	-12.5241	-99.203	-5.2737	-119.088	19.1493	2.28433	-142.488	0.316915
0.1400	-121.572	-6.61657	-10.6894	-38.1657	0.530687	-203.627	16.1039	10.5587	-8.23805	0.316915
0.1407	-72.1683	-5.08523	-6.14242	-16.8235	4.17916	-218.886	10.9159	9.34038	102.867	0.950744
0.1413	-43.1263	-1.7336	2.39315	-6.44206	-4.04649	-203.01	7.25479	2.58891	202.334	0.950744
0.1420	-24.511	0.08668	6.94013	-4.6114	-27.2309	-178.297	-3.12125	0.152289	250.541	0.633829
0.1427	-16.3225	-5.08523	3.03132	-26.5793	-42.4881	-142.589	-8.92508	-6.853	145.277	0.950744
0.1433	-11.7369	-12.7131	-3.6695	-46.114	-49.2212	-103.829	-6.175	-20.3052	-27.1551	0.633829
0.1440	31.3348	-14.2444	-8.29625	-38.4901	-48.591	-62.027	-9.22876	-27.3105	-152.862	0
0.1447	100.883	-9.67927	-7.33899	-21.991	-38.2426	-17.4714	-8.00557	-24.5693	-243.829	0.316915
0.1453	117.969	-9.07251	-5.50424	-9.80212	-31.5095	22.8202	3.89734	-19.696	-272.815	0.633829
0.1460	38.9228	-15.169	-9.17374	2.71123	-46.1698	46.927	6.0316	-18.1224	-240.168	0.950744
0.1467	-70.3122	-16.3825	-8.29625	17.6809	-69.3541	59.7408	1.75465	-15.3812	-152.557	0.950744
0.1473	-82.5404	-12.4241	-1.91452	29.2673	-76.6842	63.7072	6.0316	-10.8125	-7.62783	0.950744
0.1480	7.53345	-10.8928	-0.95726	29.8698	-66.6012	62.4843	11.2196	-11.4217	76.627	0.633829
0.1487	111.855	-10.575	-2.79201	25.606	-49.2212	77.1377	16.7113	-12.3354	71.7452	0.950744
0.1493	223.274	-11.2106	-3.98858	30.7967	-25.7051	64.6217	27.391	-6.24384	86.0855	0.633829
0.1500	303.522	-10.286	-4.94584	35.9875	3.88065	2.97747	30.7485	1.97976	143.142	0.950744
0.1507	238.832	-7.54116	-3.6695	17.9821	25.5393	-17.163	26.48	9.03581	180.06	0.950744
0.1513	61.8507	-5.08523	-2.79201	-3.38324	32.8694	27.9988	29.8374	12.6907	161.143	0.950744
0.1520	-47.4389	-4.18953	-0.95726	-0.950087	36.5511	73.4796	35.6328	10.5587	89.1366	0.950744
0.1527	-89.528	0.404507	8.21648	6.69696	49.3539	100.022	31.668	10.5587	0	0.633829
0.1533	-122.828	8.03235	19.4643	4.54188	52.1068	116.812	19.7651	20.0006	-29.9011	0.633829
0.1540	-80.6844	10.1705	20.9799	11.262	19.4364	126.883	10.9159	25.483	21.663	0.633829
0.1547	-48.9674	5.28748	15.2364	20.7165	-20.8295	140.919	9.08536	16.3457	86.0855	0.950744
0.1553	-62.3966	0.69344	12.4444	-10.7059	-37.9109	156.785	9.69273	13.909	142.837	0.950744
0.1560	4.74935	-2.34036	11.886	-42.1514	-40.3654	157.093	7.25479	19.696	176.704	0.633829
0.1567	103.612	-7.22333	7.25922	-12.5365	-35.4897	148.852	3.89734	13.909	138.26	0.633829
0.1573	135.056	-11.2106	0.877488	33.2299	-53.7984	136.038	0.539891	3.50264	69.9145	0.633829
0.1580	135.384	-15.169	-6.78059	53.6915	-113.899	105.828	-2.81756	-7.46215	18.6119	0.633829
0.1587	109.453	-19.4452	-14.3589	62.5436	-165.806	70.4277	3.28153	-18.1224	-7.62783	0.950744
0.1593	28.5507	-16.9893	-14.3589	60.0872	-178.609	63.7072	19.1493	-15.6858	-7.0176	0.950744
0.1600	-89.255	-10.286	-7.09968	32.3261	-167.001	66.7591	26.7837	-9.28962	-4.5767	0.950744
0.1607	-157.602	-5.40305	-0.638173	8.20319	-151.743	52.7224	24.3373	-8.98504	-4.5767	0.950744
0.1613	-118.515	-3.26495	1.51566	17.3565	-131.909	29.2217	26.48	-5.93927	-7.32271	0.633829
0.1620	-67.8557	-4.18953	0.558401	35.6862	-95.2915	1.14845	24.3373	0.456867	-9.15339	0.950744
0.1627	-182.932	-5.69199	0.558401	38.1194	-48.2925	-15.9401	8.16585	8.42665	11.8994	1.26766
0.1633	-533.292	-2.65819	8.21648	38.7219	-4.97519	-25.0958	-1.6028	23.9601	54.6588	0.950744
0.1640	-742.591	3.14937	17.3104	46.6701	35.9209	-35.166	-2.51387	37.7169	103.172	0.633829
0.1647	-498.791	4.68072	17.6295	33.2299	70.117	-24.4897	-6.47869	33.7574	123.919	0.950744
0.1653	-9.60788	3.14937	13.96	-10.1034	93.0029	-5.56148	-7.70188	23.351	97.3747	0.950744
0.1660	464.672	-0.52008	6.70082	-40.9233	116.187	-9.83628	-7.3982	18.4777	69.6094	0.633829
0.1667	683.142	-11.2106	-10.6894	-33.9019	125.972	-28.1477	-13.8094	15.4319	91.5775	0.633829
0.1673	559.277	-19.4452	-22.9742	-2.4795	110.084	-39.1324	-20.2122	13.2999	150.769	0.633829
0.1680	380.439	-21.8723	-25.0483	17.6809	101.859	-45.5446	-24.1854	9.34038	198.672	0.633829
0.1687	316.951	-26.4663	-27.2021	17.3565	107.033	-53.7858	-35.4725	0.761444	211.487	0.633829
0.1693	361.496	-25.8595	-23.5326	45.7432	105.209	-46.1507	-51.3403	2.58891	173.958	-0.316915
0.1700	400.256	-19.1274	-16.1936	80.5489	112.837	-21.7355	-61.7163	15.4319	96.1542	0
0.1707	207.716	-16.7003	-18.9856	49.1033	97.8785	-17.7691	-67.5201	20.0006	39.9698	0.950744
0.1713	-76.0988	-13.6377	-23.8517	-2.4795	20.3651	-30.5935	-68.7349	19.696	34.1727	0.633829
0.1720	-189.919	-3.58277	-16.5127	-10.7059	-58.6741	-32.4225	-64.4664	28.5288	22.8835	0.633829
0.1727	-102.684	10.7772	0.558401	-1.55258	-105.972	-28.7645	-58.0552	43.8084	-23.7988	0.633829
0.1733	-167.374	21.1499	13.4016	2.71123	-114.23	-21.4378	-46.1523	47.4634	-43.0209	0.633829
0.1740	-559.495	25.1083	17.3104	5.16755	-96.5187	-6.78437	-31.8114	43.5038	-25.6295	0.633829
0.1747	-610.482	29.9913	23.1338	3.93939	-90.4158	1.45683	-26.3197	41.6764	-18.6119	0.950744
0.1753	-200.019	39.1505	37.4927	5.16755	-70.8799	4.20036	-25.7123	34.3665	0.305113	0.950744
0.1760	-102.684	45.247	46.6664	16.4527	-42.1896	5.11486	-19.9085	24.5693	18.917	0.950744
0.1767	-233.592	35.481	31.9884	32.9286	-68.7571	-0.988944	-20.5243	15.4319	-5.18692	0.950744
0.1773	-16.5954	16.5848	6.38173	45.1407	-139.239	-6.78437	-23.5696	5.63469	-21.9681	0.633829
0.1780	452.171	1.93585	-9.49282	45.7432	-181.064	-19.6087	-11.6667	-5.93927	0.915339	0.633829
0.1787	749.415	-12.4241	-23.8517	34.1568	-166.702	-40.6637	8.46954	-30.3562	19.2221	0.950744
0.1793	560.478	-24.935	-37.5724	23.7754	-117.879	-49.8194	28.6142	-65.738	19.2221	0.633829
0.1800	10.263	-27.0731	-34.222	22.5472	-54.6939	-48.5965	38.6866	-82.8451	17.6966	0.633829
0.1807	-472.861	-24.935	-24.7292	29.2673	13.9637	-59.8896	28.3105	-77.6673	19.2221	0.633829
0.1813	-626.969	-24.0104	-19.5441	35.0605	75.9214	-86.74	12.7465	-68.4792	25.0193	0.633829
0.1820	-469.803	-14.2444	-2.47292	29.8698	119.836	-124.894	4.20103	-51.7274	36.3085	0.633829
0.1827	-197.289	1.01127	23.1338	23.7754	147.63	-159.071	-4.96025	-29.1379	48.2079	0.950744
0.1833	72.8234	7.71452	34.4613	27.7379	175.69	-146.864	-10.7556	-21.2189	51.6077	0.950744
0.1840	-19.052	3.75613	28.3189	36.59	196.454	-106.88	-1.29068	-27.0059	40.8852	0.633829
0.1847	-541.48	-2.34036	15.7948	47.5739	183.618	-82.7736	11.5233	-30.0517	28.6806	0.950744
0.1853	-812.521	-7.22333	10.0512	44.5382	143.352	-57.7522	10.6038	-24.8738	28.0704	0.950744
0.1860	-664.472	-11.8174	10.0512	22.5472	106.436	-30.8912	-1.29068	-18.7823	39.9698	0.950744
0.1867	-282.122	-20.6587	-1.27635	6.9982	68.2928	-23.5752	-19.3011	-22.4372	44.8516	0.950744
0.1873	194.887	-30.7425	-15.6352	6.69696	19.1379	-26.6271	-34.8652	-33.0974	25.0193	0.633829
0.1880	504.632	-30.4247	-13.8005	13.3939	-39.1382	-22.9584	-40.9642	-35.8386	7.93294	0.633829
0.1887	733.201	-23.7214	-7.33899	10.3583	-139.869	-10.1447	-41.5801	-29.7471	3.96647	0.633829
0.1893	952.927	-17.3071	-5.82333	-14.6684	-220.733	-4.95536	-33.3383	-17.2086	2.13579	0.633829
0.1900	921.21	-5.08523	1.75498	-33.6007	-222.557	-11.3675	-18.0779	1.67518	-3.05113	0.633829
0.1907	605.951	9.24587	13.96	-20.1604	-210.351	-25.7126	-12.8899	16.0411	-21.9681	0.633829
0.1913	305.05	22.6813	24.091	3.33689	-168.526	-47.0653	-18.9974	27.9196	-33.5624	0.950744
0.1920	-72.7688	37.0124	38.1308	21.0178	-76.6842	-62.9415	-21.4354	46.5496	-14.9505	0.633829
0.1927	-644.328	41.8953	47.863	34.7593	7.23061	-72.0972	-24.4891	47.4634	13.1199	0.633829
0.1933	-953.473	28.171	37.1736	35.3618	69.4868	-75.7553	-27.2308	21.8281	16.7812	0.633829
0.1940	-741.99	7.10776	10.9287	21.6435	118.642	-70.2682	-12.2825	-9.89878	1.83068	0.633829
0.1947	-202.475	-7.83009	-10.131	8.82886	155.558	-61.1125	12.7465	-42.5394	-0.305113	0.633829
0.1953	327.05	-15.4579	-17.47	6.07129	161.959	-48.5965	30.7485	-69.0884	-0.915339	0.633829
0.1960	550.106	-20.052	-19.3047	14.6221	141.528	-33.6454	37.7671	-73.0986	-3.35624	0.633829
0.1967	505.56	-22.1901	-22.017	15.2246	138.178	-33.9431	20.3725	-58.7327	-0.915339	0.633829
0.1973	520.791	-23.1147	-25.0483	8.82886	160.135	-47.3736	-20.2122	-46.8542	-25.3244	0.950744
0.1980	621.837	-20.052	-24.4899	16.754	167.465	-43.7156	-47.0718	-38.2753	-51.8692	0.950744
0.1987	570.577	-10.8928	-14.9971	23.7754	141.528	-34.8576	-46.7681	-23.6555	-15.8659	0.950744
0.1993	269.348	1.61803	-1.27635	21.3422	101.527	-36.0805	-44.9375	-5.63469	43.0209	0.316915
0.2000	-332.127	11.9907	10.0512	26.8342	57.5795	-32.1141	-45.5449	13.6045	65.3378	-0.316915
0.2007	-730.417	14.7356	13.4016	37.5169	3.58214	-33.6454	-39.1337	24.2647	69.9145	0.633829
0.2013	-456.647	10.1705	4.2279	36.8912	-50.4484	-44.0133	-33.3383	27.9196	69.9145	0.950744
0.2020	-43.7814	4.07396	-10.131	23.4741	-76.6842	-46.7675	-34.8652	36.194	61.6764	0.950744
0.2027	103.012	-2.65819	-22.9742	4.8663	-72.1071	-35.4744	-43.4106	36.194	68.3889	0.950744
0.2033	100.61	-7.83009	-26.3246	-6.14081	-47.0653	-18.6836	-51.3403	22.1326	55.5742	0.633829
0.2040	19.7071	-4.79629	-15.3162	0.880569	-9.85087	0.840071	-51.9561	19.3914	-47.2925	0.950744
0.2047	-38.8682	1.93585	-0.0797716	17.3565	-27.2309	42.3438	-41.5801	29.7471	-131.809	1.26766
0.2053	85.6521	7.71452	10.0512	35.6862	-100.167	105.519	-22.0427	22.4372	-81.1601	0.950744
0.2060	292.822	7.10776	8.21648	49.1033	-189.886	154.041	-10.7556	-6.853	11.2892	0.950744
0.2067	273.606	-1.44467	-6.4615	40.2513	-318.976	161.666	-15.0242	-23.0464	52.2179	0.950744
0.2073	62.7242	-5.40305	-13.1623	21.0178	-402.294	156.487	-34.5615	-14.772	48.513	0.950744
0.2080	-204.604	0.08668	0.239315	16.1515	-372.409	165.026	-75.1461	-7.76673	20.7477	0.950744
0.2087	-365.099	8.32128	16.433	-1.85383	-306.77	162.283	-108.105	-3.19807	-12.2045	0.950744
0.2093	-275.08	10.7772	19.7834	-38.7914	-228.958	137.261	-96.2019	0.152289	-9.4585	1.26766
0.2100	-167.974	6.18317	14.9173	-43.0552	-129.156	117.727	-53.7867	-10.8125	68.0838	0.950744
0.2107	-148.758	0.69344	8.53557	-25.0499	-54.0969	99.7239	-11.0593	-24.8738	164.5	0.633829
0.2113	-207.006	-5.40305	1.19657	-21.6898	-11.9736	71.3422	22.203	-24.5693	186.773	0.950744
0.2120	-304.395	-13.3487	-8.29625	-26.8805	-47.994	39.9087	46.6162	-21.8281	120.258	0.950744
0.2127	-244.237	-18.8385	-17.1509	-36.0338	-160.599	-0.0744367	60.046	-27.9196	28.9857	0.950744
0.2133	-77.0268	-17.3071	-15.6352	-41.827	-203.319	-31.8057	58.2154	-28.5288	-31.4266	0.950744
0.2140	21.5631	-11.8174	-9.49282	-37.262	-139.239	-50.7339	43.8746	-16.5995	-127.537	1.26766
0.2147	-11.0818	-9.67927	-15.9543	-25.6524	-42.8198	-54.0836	27.6947	-7.15758	-267.933	0.950744
0.2153	-107.543	-8.75468	-24.4899	-4.6114	53.6325	-40.0469	16.1039	-4.1118	-281.663	0.950744
0.2160	-142.644	-5.08523	-21.6979	21.0178	175.989	-39.7492	12.1307	-2.89349	-155.303	0.316915
0.2167	-173.761	1.93585	-10.131	27.1354	274.564	-48.5965	11.827	3.50264	-72.922	0.316915
0.2173	-146.302	13.5221	8.21648	9.7326	243.154	-53.7858	11.2196	16.6502	-84.5163	0.950744
0.2180	-54.754	23.288	26.1651	-8.27271	106.436	-42.8011	24.0336	21.2189	-142.183	0.950744
0.2187	-60.2676	18.4051	24.6494	-19.5579	16.385	2.97747	41.4282	12.3862	-186.468	0.950744
0.2193	-102.957	6.501	8.21648	-22.3155	12.7365	38.3774	33.4986	7.15758	-154.387	0.950744
0.2200	-112.729	-2.34036	-3.98858	-13.7647	25.871	31.3591	1.45096	8.12207	-92.1441	0.950744
0.2207	-68.4561	-10.8928	-15.3162	-1.85383	62.4884	30.753	-37.3031	4.72095	-58.2766	0.950744
0.2213	99.9547	-16.0936	-23.8517	4.8663	107.63	50.585	-55.3135	2.28433	-47.9028	0.950744
0.2220	300.465	-15.4579	-21.1395	6.9982	22.8195	54.5515	-48.9023	4.41638	-48.2079	0.950744
0.2227	199.473	-15.169	-18.9856	6.69696	-214.331	46.0125	-60.8052	1.97976	-40.8852	0.633829
0.2233	-113.056	-17.9139	-25.3674	-0.950087	-380.934	64.6217	-77.584	-3.19807	-25.9346	0.950744
0.2240	-192.703	-19.7341	-30.5525	-11.0071	-404.151	96.3636	-61.7163	3.50264	-9.15339	0.950744
0.2247	-74.2973	-16.0936	-27.8403	-17.1247	-368.429	89.3453	-43.7143	18.7823	14.9505	0.950744
0.2253	25.2207	-7.83009	-17.7093	-21.0873	-279.307	35.3255	-49.5097	32.1837	36.6136	0.633829
0.2260	83.796	-1.44467	-2.79201	-14.9928	-138.343	-34.5599	-57.7515	46.5496	46.0721	0.950744
0.2267	205.587	-0.52008	4.86607	-4.31015	47.8281	-58.3584	-54.0903	56.2961	47.9028	0.950744
0.2273	424.057	-1.7336	4.2279	7.90195	272.143	-42.8011	-50.1255	46.8542	46.0721	0.633829
0.2280	572.106	2.22479	6.38173	28.6648	480.272	-50.7339	-49.206	42.2855	37.834	1.26766
0.2287	747.231	11.7018	4.2279	40.5525	638.648	-60.4958	-42.4911	60.9155	18.917	0.950744
0.2293	938.897	22.3634	2.39315	45.442	730.822	-44.9385	-21.7391	70.0529	-21.0528	-0.316915
0.2300	611.465	38.2259	25.6067	52.7646	712.513	-15.334	3.89734	69.7483	-63.7686	-0.316915
0.2307	-210.063	44.958	53.6863	51.5364	641.998	13.6644	9.38904	69.7483	-63.7686	0.633829
0.2313	-719.117	31.2337	56.0795	47.5739	524.816	23.4263	-0.6833	55.687	-11.2892	1.26766
0.2320	-593.396	17.1915	44.5126	56.1247	336.82	20.6828	-9.53245	36.194	72.9656	0.633829
0.2327	-231.463	6.18317	26.1651	67.7111	196.752	9.69804	-17.7742	11.777	138.565	0.633829
0.2333	32.8633	-5.08523	4.54698	61.3154	161.66	-1.90345	-12.5862	-16.5995	112.63	0.950744
0.2340	84.3965	-10.286	-8.93442	46.9714	144.878	-14.1111	10.3001	-35.5341	42.7158	0.950744
0.2347	-41.9253	-13.0309	-14.9971	35.3618	67.6626	-31.508	37.1597	-48.6817	68.0838	0.950744
0.2353	-132.545	-14.8512	-17.7093	13.3939	-2.22225	-25.7126	60.9655	-59.951	145.277	0.633829
0.2360	-60.5406	-15.169	-17.1509	-14.0659	-5.57221	2.66909	55.4654	-64.2151	129.717	0.633829
0.2367	71.8953	-16.3825	-14.3589	-15.5953	6.63358	5.72099	16.4076	-58.4282	83.9497	0.633829
0.2373	187.572	-17.596	-12.5241	13.0927	-48.591	-26.0103	-5.26394	-45.3313	134.904	0.633829
0.2380	197.344	-13.9555	-10.4501	35.9875	-152.075	-49.8194	3.89734	-27.9196	181.281	0.633829
0.2387	29.8063	-7.54116	-8.93442	34.1568	-186.835	-23.5752	-12.5862	-14.1629	118.427	0.950744
0.2393	-111.528	-2.65819	-7.33899	29.5686	-174.032	38.3774	-63.5469	-5.02553	53.4384	1.26766
0.2400	-156.073	-2.65819	-2.47292	30.7967	-161.229	72.8629	-88.2722	2.89349	53.7435	1.26766
0.2407	-197.562	-12.1063	-3.6695	22.2459	-93.7657	66.4507	-81.5573	-0.152289	69.3043	0.633829
0.2413	-150.287	-24.3282	-9.81191	10.3583	15.1909	60.0491	-68.1275	-6.24384	33.8675	0.633829
0.2420	-7.42427	-25.8595	-10.4501	4.8663	109.786	45.7041	-46.7681	6.24384	-61.3277	0.950744
0.2427	129.597	-19.1274	-10.4501	0.278074	142.125	13.6644	-25.7123	24.5693	-127.537	0.633829
0.2433	218.088	-9.07251	-8.29625	-3.68449	96.6513	-0.988944	0.84358	38.0215	-108.62	0.950744
0.2440	290.092	7.42559	5.74356	3.63814	59.7354	-11.3675	40.5171	66.0934	-61.0226	0.950744
0.2447	323.065	19.0118	16.752	10.0338	59.1052	-36.995	75.3064	71.8803	-36.9187	0.950744
0.2453	301.065	12.9153	11.5669	-5.81639	86.2698	-42.4927	90.2546	31.27	-13.1199	0.950744
0.2460	305.378	4.96965	2.71224	-28.4099	131.444	-10.1447	90.8704	2.89349	-4.27158	0.950744
0.2467	387.154	1.93585	-7.65808	-38.4901	150.98	19.7683	77.7443	-3.19807	-42.1056	0.950744
0.2473	547.049	-2.94712	-14.9971	-38.1657	156.486	28.6156	60.9655	-5.02553	-66.2095	0.633829
0.2480	558.021	-3.58277	-9.81191	-37.5632	156.486	49.0644	57.6081	14.8228	-61.6328	0.633829
0.2487	353.581	1.01127	-3.6695	-38.1657	152.506	67.982	44.7857	43.1993	-66.5146	0.633829
0.2493	155.528	4.36289	2.39315	-35.1301	151.577	68.2903	20.0688	49.2908	-73.5322	0.633829
0.2500	22.7641	7.10776	13.7207	-29.9393	113.733	71.9484	9.69273	44.4176	-74.7527	0.633829
0.2507	16.0495	9.24587	21.6181	-31.4687	48.7569	83.5499	8.16585	41.0672	-77.1936	0.950744
0.2513	9.33493	13.2043	24.3303	-34.2031	13.6652	75.9148	2.37046	36.8031	-76.8885	0.633829
0.2520	-250.951	17.4805	23.4529	-32.0712	-35.1912	29.5301	5.72791	33.0974	-67.7351	0.633829
0.2527	-601.639	12.5975	15.5555	-32.9982	-155.126	-28.7645	33.4986	27.0059	-58.5817	0.950744
0.2533	-681.559	1.93585	4.86607	-36.335	-248.196	-50.1172	71.6452	23.0464	-45.4618	0.950744
0.2540	-493.004	-5.69199	-2.47292	-37.8645	-265.277	-14.4194	96.3621	16.9548	-10.0687	1.26766
0.2547	-361.442	-14.2444	-9.49282	-34.2031	-299.473	17.6309	107.346	-8.07131	20.1375	0.950744
0.2553	-359.913	-21.8723	-12.8432	-18.0285	-351.049	-21.7355	105.515	-30.0517	5.18692	0.633829
0.2560	-344.956	-16.9893	-7.33899	0.880569	-337.616	-81.5507	77.7443	-23.9601	-29.2909	0.950744
0.2567	-358.712	-4.18953	-2.79201	9.13011	-232.938	-105.36	37.1597	-5.93927	-39.9698	1.26766
0.2573	-379.129	-1.12684	-7.33899	1.18182	-121.527	-108.72	20.6761	-8.07131	-37.2238	0.950744
0.2580	-294.896	-6.9344	-9.49282	-10.1034	-77.9115	-93.7583	32.8827	-33.402	-19.2221	0.950744
0.2587	-185.661	-8.75468	-2.15383	-14.3672	-58.077	-68.4286	49.9737	-50.5091	26.8499	0.950744
0.2593	-139.915	-8.75468	2.71224	-18.9554	-26.9324	-41.5782	60.9655	-41.9302	44.2414	0.316915
0.2600	-140.188	-14.2444	0.558401	-19.5579	-52.8697	-24.4897	70.4221	-30.3562	20.4426	-0.316915
0.2607	-142.044	-18.5206	-1.59543	-14.3672	-178.908	-57.4438	63.7072	-27.0059	3.05113	0.633829
0.2613	-115.786	-17.9139	-4.30767	-11.6328	-274.133	-64.7705	20.6761	-25.1784	-14.6454	0.950744
0.2620	-77.3543	-19.4452	-7.09968	-7.3458	-255.194	-5.86986	-40.9642	-32.1837	-30.5113	0.950744
0.2627	-48.6399	-19.7341	-8.61534	-3.68449	-203.95	15.7912	-83.6916	-35.5341	-14.6454	0.950744
0.2633	-27.8956	-15.4579	-9.49282	-9.4777	-118.476	-7.40113	-92.8444	-26.0922	8.84828	0.950744
0.2640	-13.5384	-12.1063	-8.29625	-16.1978	-64.4784	-22.3523	-67.208	-20.6098	12.5096	0.950744
0.2647	-3.76673	-11.2106	-4.94584	-16.4991	-197.216	-39.4408	-30.2845	-17.8178	9.15339	1.26766
0.2653	7.8064	-9.67927	-3.6695	-22.6167	-362.326	-70.2682	-14.4168	-12.64	2.13579	1.26766
0.2660	21.5631	-9.36144	-4.30767	-37.8645	-416.655	-72.7034	-8.92508	-10.2034	-12.5096	0.633829
0.2667	37.7218	-5.69199	-0.0797716	-35.7326	-463.024	-77.8927	1.14727	-7.76673	-23.4937	0.633829
0.2673	46.893	-2.65819	3.27064	-14.9928	-546.044	-134.964	9.08536	-5.33011	-30.8164	0.950744
0.2680	43.2355	-6.9344	-3.11109	4.54188	-569.858	-149.915	13.0502	-5.33011	-34.7829	0.950744
0.2687	41.7069	-7.54116	-3.11109	25.0035	-442.593	-95.2896	3.89734	-1.97976	-24.1039	0.950744
0.2693	38.9228	-3.58277	2.71224	31.3992	-242.69	-54.3919	-30.9003	3.80722	7.0176	0.950744
0.2700	30.6797	-5.08523	-1.27635	19.5116	-39.7683	-35.4744	-58.9747	3.80722	46.9874	0.950744
0.2707	36.7938	-6.61657	-5.26493	7.29945	108.26	-0.0744367	-37.6068	3.80722	57.0997	0.950744
0.2713	51.4786	-4.47847	-3.11109	-6.14081	142.755	18.5454	3.28153	3.80722	0.305113	0.950744
0.2720	53.6076	-6.00981	-3.98858	-18.9554	166.835	-50.1172	8.46954	-5.63469	-42.1056	0.633829
0.2727	47.7664	-9.36144	-5.26493	-17.1247	201.959	-113.293	-19.9085	-10.8125	11.5943	0.633829
0.2733	51.4786	-6.61657	-3.11109	2.40998	211.412	-94.9812	-38.83	-6.54842	65.948	0.633829
0.2740	64.2527	-1.12684	0.239315	27.7379	291.049	-69.3431	-53.483	-5.33011	71.7452	0.633829
0.2747	67.3097	-0.52008	-0.638173	45.1407	434.5	-42.8011	-87.049	-5.02553	80.5934	0.633829
0.2753	62.1237	-2.65819	-4.30767	49.4045	554.435	13.6644	-103.836	-0.761444	77.8474	0.950744
0.2760	57.8656	-4.79629	-4.62675	46.3689	647.803	87.5163	-106.882	1.97976	49.777	0.950744
0.2767	49.9501	-8.14792	-4.62675	43.6113	672.845	133.901	-110.855	1.97976	23.7988	0.950744
0.2773	43.5084	-9.9682	-5.26493	35.6862	579.742	124.745	-90.4065	1.67518	14.9505	1.26766
0.2780	46.5655	-9.07251	-3.6695	20.7165	441.797	103.69	-55.0014	-0.152289	19.8323	0.950744
0.2787	55.4091	-6.32764	-3.11109	10.6595	348.429	133.593	-33.9457	-0.152289	26.2397	0.633829
0.2793	63.9797	-3.87171	-7.09968	7.6007	303.885	185.783	-38.83	5.63469	39.0545	0.950744
0.2800	63.9797	-0.809013	-8.29625	7.6007	285.874	184.56	-56.5283	11.1678	54.9639	0.950744
0.2807	52.6796	0.69344	-3.43018	16.4527	277.018	157.093	-63.5469	12.0816	64.1173	0.950744
0.2813	50.5505	-4.47847	6.38173	29.2673	280.07	150.681	-64.1627	10.5587	69.3043	0.950744
0.2820	60.9227	-10.8928	19.7834	29.2673	267.566	148.544	-68.4312	10.5587	65.948	0.950744
0.2827	62.1237	-12.7131	26.1651	19.5116	124.745	146.715	-70.8776	9.03581	55.2691	0.633829
0.2833	59.0666	-11.2106	27.1224	13.0927	-70.8799	187.921	-57.4478	3.19807	45.1567	0.950744
0.2840	52.352	-6.00981	32.3075	4.8663	-149.621	279.159	-33.9457	2.28433	16.7812	0.950744
0.2847	35.2653	-1.44467	38.6892	-9.17645	-171.578	348.438	-28.1503	1.67518	-21.3579	0.950744
0.2853	24.6202	1.61803	34.4613	-23.8217	-172.805	327.383	-35.4725	-4.72095	-28.6806	0.950744
0.2860	27.6227	6.81883	17.9486	-35.1301	-143.518	217.217	-29.0613	3.50264	-15.8659	0.633829
0.2867	33.7368	10.1705	-5.26493	-33.2994	-96.2201	103.382	-21.7391	12.9953	-8.23805	0.950744
0.2873	31.9353	6.18317	-43.7149	-20.1604	-19.9339	56.0827	-35.7762	-0.152289	4.88181	0.950744
0.2880	29.1512	2.83155	-65.0139	-11.3084	59.4369	32.582	-49.206	-7.46215	19.5272	0.950744
0.2887	34.0643	2.83155	-42.4385	-13.139	131.146	-17.7691	-44.6254	6.24384	28.0704	0.950744
0.2893	34.9923	0.08668	-16.5127	-28.1087	125.64	-93.1522	-40.9642	13.909	45.4618	0.633829
0.2900	34.9923	-4.79629	-8.93442	-40.9233	23.4166	-169.141	-35.7762	4.41638	72.6605	0.633829
0.2907	41.7069	-6.00981	-3.11109	-28.1087	-24.8096	-244.216	-21.4354	-1.06602	68.3889	0.950744
0.2913	45.965	-3.26495	1.75498	2.10873	-69.9512	-323.555	-12.8899	-0.152289	-1.22045	0.950744
0.2920	49.022	-5.08523	1.51566	15.5258	-311.049	-330.573	4.80841	-5.63469	-93.0595	0.633829
0.2927	49.9501	-5.69199	6.70082	4.54188	-591.517	-245.131	42.3477	-12.3354	-130.588	0
0.2933	48.094	2.22479	15.2364	-2.15508	-637.587	-182.87	62.1803	-7.76673	-87.5675	0.316915
0.2940	48.094	6.81883	16.1139	-3.98573	-525.911	-162.729	36.2402	12.0816	-46.3772	0.950744
0.2947	33.1363	9.24587	13.7207	-5.81639	-389.491	-141.674	-14.4168	29.1379	-57.9715	0.950744
0.2953	2.94787	13.5221	6.06264	14.0196	-209.124	-124.894	-55.3135	28.8334	-60.7175	0.950744
0.2960	-14.4664	10.7772	-8.29625	32.6274	-23.2839	-86.4423	-62.02	29.4425	-46.9874	0.950744
0.2967	-18.4515	3.14937	-13.8005	13.6952	128.095	-40.0469	-28.4539	33.7574	-38.1391	0.633829
0.2973	-16.3225	1.93585	-2.47292	-15.8966	284.05	-27.5416	22.8188	20.0006	-24.409	0.950744
0.2980	-10.2084	-2.94712	6.38173	-26.278	418.314	-25.4042	57.9118	-9.5942	-21.3579	1.26766
0.2987	-3.76673	-17.9139	7.89739	-24.7486	477.22	-23.5752	76.2174	-36.1432	-27.7653	1.26766
0.2993	4.4764	-20.6587	22.8147	-20.4848	480.869	-58.9751	90.2546	-33.0974	-18.917	0.950744
0.3000	10.5359	-12.1063	39.9656	-14.6684	457.087	-102.914	77.7443	-11.7262	4.27158	0.633829
0.3007	12.7195	-11.2106	24.091	-7.3458	416.191	-106.274	44.1783	-9.5942	17.6966	0.950744
0.3013	15.722	-11.2106	-7.33899	3.33689	382.592	-100.777	35.9365	-11.7262	18.917	0.950744
0.3020	19.4341	-6.61657	-21.6979	9.43136	349.656	-71.1827	51.5006	-5.02553	23.7988	0.950744
0.3027	21.8361	-2.94712	-13.1623	17.0552	281.297	-19.9065	61.5729	-7.76673	43.3261	0.950744
0.3033	27.9502	-0.202253	15.7948	34.458	205.906	-11.0592	65.8414	-8.37589	76.627	0.633829
0.3040	34.9923	3.14937	47.2248	38.4206	153.435	-3.43472	61.8766	7.51292	61.6764	0.950744
0.3047	21.8361	7.42559	69.8002	29.8698	37.1481	31.9759	39.5976	13.2999	23.4937	1.26766
0.3053	-4.09427	10.1705	82.085	24.3779	-145.342	59.1346	15.1844	-0.761444	65.3378	0.950744
0.3060	-5.0223	13.8399	78.9739	15.8502	-236.587	91.4827	2.67415	0.761444	99.2053	0.950744
0.3067	8.40689	15.9491	52.1707	8.20319	-251.546	120.47	-21.4354	16.0411	36.6136	0.633829
0.3073	9.66247	10.7772	19.4643	19.5116	-309.225	115.59	-51.0366	21.8281	-43.6312	0.633829
0.3080	10.263	4.36289	-4.30767	44.5382	-361.099	95.4491	-57.4478	40.1535	-74.1425	0.633829
0.3087	17.2505	7.10776	-33.5839	55.1978	-366.307	83.5499	-56.5283	71.5758	-45.4618	0.633829
0.3093	22.1636	14.7356	-60.1478	43.6113	-379.706	71.9484	-61.7163	75.2307	7.0176	0.633829
0.3100	26.1487	17.7983	-78.8144	29.5686	-344.946	50.8934	-59.2784	62.1339	37.2238	0.633829
0.3107	23.9651	26.6397	-81.8457	21.9447	-216.752	26.1698	-41.5801	80.1039	33.8675	0.950744
0.3113	4.4764	32.7362	-68.6834	16.754	-76.3857	2.06296	-22.0427	110.917	16.4761	0.950744
0.3120	-12.6103	7.71452	-58.3131	15.5258	34.0966	1.14845	-9.22876	111.577	3.96647	0.950744
0.3127	-16.5954	-26.1485	-30.8716	20.114	159.538	39.6003	5.72791	104.216	8.84828	1.26766
0.3133	-22.109	-31.6382	10.2905	24.3779	286.77	59.1346	25.2568	108.785	50.6924	0.950744
0.3140	-23.9105	-20.3409	20.7406	19.8128	349.026	42.6522	44.482	103.607	152.295	0.633829
0.3147	-15.3944	-10.575	12.4444	4.8663	371.016	55.7743	60.046	88.6829	277.74	0.950744
0.3153	-9.60788	5.28748	25.9258	-9.17645	392.675	85.3789	59.7423	69.7483	344.865	0.950744
0.3160	-17.1959	24.5016	43.8744	-13.4634	385.643	77.7438	41.4282	16.6502	335.101	0.950744
0.3167	-22.382	27.5642	47.2248	-14.6684	327.069	49.6705	36.2402	-52.9458	308.862	0.633829
0.3173	-20.253	19.0118	44.1935	-20.7861	245.874	27.0843	44.482	-60.2556	258.474	0.633829
0.3180	-20.253	27.5642	3.58972	-28.4099	182.722	16.0996	32.2754	-5.93927	65.6429	0.633829
0.3187	-13.8659	46.1716	-82.7232	-27.1818	118.31	13.6644	7.25479	36.8031	-228.268	0.633829
0.3193	2.01984	41.6064	-135.851	-15.5953	31.0452	21.5973	-5.26394	48.6817	-403.752	0.633829
0.3200	16.65	12.5975	-116.307	-1.25133	-62.6542	37.7713	-10.7556	39.5443	-387.581	0.950744
0.3207	18.779	-15.7758	-66.2902	11.5633	-139.239	40.8232	-18.9974	-8.37589	-263.661	0.950744
0.3213	17.2505	-23.4036	-28.3987	15.2246	-172.805	31.9759	-26.016	-64.5197	-141.572	0.950744
0.3220	17.9056	-13.6377	0.239315	10.3583	-181.959	23.7347	-33.3383	-76.1444	-84.8214	0.633829
0.3227	3.22082	-0.52008	51.5325	6.07129	-186.536	13.6644	-34.5615	-59.3419	-66.2095	0.950744
0.3233	-19.6525	9.24587	131.145	3.93939	-188.361	-5.86986	-21.4354	-23.6555	-45.1567	1.26766
0.3240	-29.0966	10.4594	190.973	-0.64884	-200.268	-18.6836	-4.04075	-0.456867	-20.4426	0.950744
0.3247	-30.0246	9.24587	176.056	-11.3084	-203.95	-0.0744367	6.63897	-28.5288	-12.8147	0.316915
0.3253	-30.0246	17.4805	118.381	-19.5579	-185.939	10.9103	20.6761	-30.6608	-16.4761	0.316915
0.3260	-28.8236	22.3634	84.1591	-14.6684	-157.249	-7.09275	37.4634	-1.97976	-11.8994	1.26766
0.3267	-22.382	1.93585	80.4896	-8.57396	-113.899	-11.6653	52.4201	-21.2189	1.22045	0.950744
0.3273	-15.6674	-25.8595	83.2816	-11.3084	-72.4056	-10.1447	60.9655	-10.8125	2.13579	0.950744
0.3280	-7.75181	-14.8512	51.2134	-7.3458	-33.3338	-35.7828	64.9303	85.9417	-56.1408	0.950744
0.3287	2.29279	26.3507	24.9685	7.6007	-11.0781	-67.8224	75.0027	159.446	-133.334	0.950744
0.3293	3.54836	39.1505	64.9341	18.8859	-50.4484	-60.8041	67.0646	186.605	-118.384	0.950744
0.3300	-0.10918	26.0329	102.187	18.5846	-111.179	-26.3187	40.5171	189.701	-52.1743	0.950744
0.3307	-0.10918	23.577	100.672	15.8502	-128.559	-17.163	21.292	140.258	-7.32271	0.950744
0.3313	-4.69476	7.71452	75.3044	11.5633	-124.579	-21.7355	8.16585	90.8149	56.7946	0.950744
0.3320	-15.6674	-32.245	35.977	1.80748	-129.156	-11.9737	-3.43337	54.7732	126.36	0.633829
0.3327	-19.6525	-51.7769	4.54698	0.579322	-106.9	-5.86986	-4.64813	-55.9915	133.683	0.633829
0.3333	-18.4515	-36.839	-45.2305	4.8663	-45.2411	-4.95536	0.84358	-191.782	83.6446	1.26766
0.3340	-14.794	-12.7131	-115.43	5.4688	12.1395	-3.43472	6.63897	-198.483	39.6647	1.26766
0.3347	-1.03721	-2.05143	-109.287	8.52761	35.3238	-6.48662	15.4881	-153.659	21.0528	0.950744
0.3353	7.53345	-9.07251	-3.11109	10.3583	35.0253	-0.988944	14.5771	-187.823	15.5608	0.633829
0.3360	6.27788	-13.3487	84.4782	8.52761	49.0554	26.1698	1.75465	-239.703	33.5624	0.950744
0.3367	2.94787	-4.18953	112.877	3.33689	76.2199	64.6217	-6.79082	-261.683	17.0863	0.950744
0.3373	-0.709673	7.42559	153.481	-3.98573	87.7955	88.7285	-11.363	-253.459	-31.7318	0.950744
0.3380	-3.16623	24.5016	225.195	-3.68449	89.6529	81.4125	-26.6234	-239.398	-31.7318	0.633829
0.3387	-2.56574	44.958	260.295	0.579322	87.7955	55.1682	-43.1069	-225.997	-26.8499	0.633829
0.3393	4.74935	58.3934	226.392	0.880569	80.4986	37.1545	-40.0532	-160.056	-39.3596	0.950744
0.3400	15.1215	74.2559	139.122	-0.950087	72.8699	30.4446	-27.5429	-90.4596	-24.409	0.950744
0.3407	16.3771	84.6286	-21.1395	-2.78074	51.4766	21.2889	-22.0427	-99.9522	-2.74602	0.950744
0.3413	2.94787	74.5448	-169.993	-2.4795	16.385	8.77289	-15.9437	-121.577	8.54317	0.950744
0.3420	-11.4094	63.2764	-212.432	-2.15508	-6.79942	-3.43472	-1.90649	-81.6268	10.9841	0.950744
0.3427	-19.98	46.4894	-260.694	-6.44206	-18.0765	-16.8546	2.37046	-38.5798	2.13579	0.950744
0.3433	-27.8956	11.0661	-353.468	-10.1034	-24.8096	-24.1813	-5.26394	-1.06602	3.05113	0.950744
0.3440	-33.6822	-16.7003	-362.562	-6.14081	-22.3552	-22.6607	-7.70188	102.693	19.8323	0.950744
0.3447	-35.5382	-20.9766	-278.642	-1.25133	-19.9339	-21.1294	-11.363	174.117	32.9522	0.950744
0.3453	-37.9402	-29.8179	-209.401	1.50624	-23.2839	-26.6271	-23.8733	98.1248	40.58	0.633829
0.3460	-31.8807	-60.6471	-179.805	7.90195	-22.3552	-26.9248	-29.9808	-22.1326	55.8793	0.633829
0.3467	-16.3225	-84.4552	-149.891	10.9608	-19.0052	-18.6836	-21.4354	-103.912	69.3043	0.950744
0.3473	-8.07935	-78.6477	-104.74	4.24063	-19.9339	-12.8882	-13.4973	-139.903	72.0503	0.950744
0.3480	-10.2084	-54.5217	-64.7746	-3.08199	-20.8295	-6.17824	-16.2473	-104.216	60.456	0.950744
0.3487	-12.9379	-31.0314	-33.0255	-3.98573	-20.8295	-0.382817	-18.9974	-32.7929	37.5289	1.26766
0.3493	-9.60788	-14.5622	7.25922	-2.4795	-21.7582	-0.988944	-17.1669	28.8334	24.1039	0.633829
0.3500	-2.89328	1.93585	64.3757	-3.98573	-22.0567	-0.382817	-14.4168	116.146	-6.71249	0
0.3507	10.5359	29.7024	134.575	-7.3458	-21.4596	8.16677	-8.92508	268.434	-62.5482	0.633829
0.3513	29.4787	60.2137	163.851	-7.64704	-24.1794	12.7499	-5.26394	418.541	-79.9396	1.26766
0.3520	42.9079	74.8626	120.535	-4.6114	-30.2823	-1.59507	-9.53245	494.837	-50.3437	0.633829
0.3527	45.3645	67.2348	43.316	-1.55258	-34.8595	-16.8546	-7.70188	510.726	-24.1039	0.950744
0.3533	37.7218	45.5648	-19.5441	-2.4795	-35.7882	-17.7691	1.75465	461.892	-27.4602	1.26766
0.3540	20.0346	20.8321	-54.0852	-4.91265	-34.8595	-16.2485	5.72791	297.725	-49.4283	0.950744
0.3547	-6.22329	14.7356	-125.162	-5.21389	-33.6654	-18.0775	6.33528	61.8293	-51.5641	0.633829
0.3553	-21.7815	15.9491	-204.215	-3.08199	-29.6853	-17.163	9.38904	-89.5458	-24.409	0.633829
0.3560	-19.052	-27.6798	-176.136	-2.15508	-24.5111	-16.8546	9.38904	-145.69	-4.5767	0.950744
0.3567	-12.0098	-79.8612	-71.1563	-3.38324	-23.8809	-19.3004	6.33528	-216.809	-1.52557	0.633829
0.3573	-6.82378	-69.1707	49.6977	-3.08199	-25.4066	-19.6087	4.20103	-290.973	-3.35624	0.633829
0.3580	-2.2382	-29.5001	140.318	-1.85383	-27.5625	-18.992	2.37046	-314.172	-2.4409	0.633829
0.3587	5.67738	-33.1696	160.501	-1.55258	-29.9838	-24.4897	0.227767	-303.512	0.610226	0.950744
0.3593	22.4366	-80.7858	168.398	-1.55258	-30.614	-28.4561	-0.6833	-312.954	-4.88181	0.950744
0.3600	34.9923	-103.958	176.933	0.579322	-29.0883	-26.3187	1.45096	-317.827	-3.05113	0.950744
0.3607	26.7492	-81.0747	178.449	2.10873	-28.1596	-27.5416	1.45096	-239.703	18.917	0.950744
0.3613	12.392	-45.3914	205.013	2.40998	-29.0883	-33.0286	-4.34444	-98.4294	43.0209	0.950744
0.3620	9.00739	-20.9766	206.848	2.71123	-37.9109	-38.5263	-9.83614	26.3967	58.3202	0.950744
0.3627	13.9205	0.08668	133.298	-0.32442	-49.2212	-42.8011	-11.9788	145.74	40.2749	0.633829
0.3633	19.1066	26.0329	64.0566	-6.7433	-53.1682	-44.6301	-11.6667	327.015	-13.1199	0.633829
0.3640	18.1785	30.598	42.3587	-7.3458	-54.6939	-40.9614	-6.175	538.493	-39.9698	0.633829
0.3647	13.593	36.7234	-29.356	-4.6114	-57.4468	-39.4408	1.14727	637.075	-35.6982	0.950744
0.3653	6.60542	69.0551	-106.894	-6.7433	-56.8498	-43.7156	2.67415	546.412	-53.6999	0.950744
0.3660	-5.89574	80.3524	-101.948	-7.97146	-52.8697	-43.4072	4.20103	385.595	-70.4811	0.633829
0.3667	-20.5805	53.7994	-112.318	-6.14081	-47.6955	-38.2179	8.46954	253.764	-53.3948	0.633829
0.3673	-33.6822	20.8321	-163.293	-5.51514	-40.9624	-34.5599	11.2196	162.492	-31.7318	0.950744
0.3680	-38.8682	-20.3409	-127.635	-3.38324	-30.9125	-29.9767	13.6576	104.521	-22.8835	0.950744
0.3687	-33.4092	-79.8612	-43.9542	-1.25133	-20.5309	-21.4378	14.8807	-0.456867	-20.4426	0.950744
0.3693	-28.4961	-101.849	-72.0338	-0.950087	-12.9023	-15.0256	12.4428	-140.207	-18.3068	0.950744
0.3700	-29.7517	-60.0404	-156.273	-0.950087	-3.74798	-21.7355	13.6576	-207.367	-21.3579	0.950744
0.3707	-31.2256	-15.7758	-181.321	-1.55258	5.40637	-36.0805	20.6761	-181.427	-39.9698	0.950744
0.3713	-30.0246	-21.5833	-168.238	-5.21389	10.2821	-37.3034	25.5605	-157.619	-57.6664	0.950744
0.3720	-32.4812	-51.1701	-167.919	-9.4777	13.6652	-23.2668	21.292	-235.439	-50.3437	0.950744
0.3727	-36.1387	-41.1152	-145.344	-9.17645	17.0151	-12.8882	13.0502	-291.278	-21.3579	0.950744
0.3733	-30.0246	8.32128	-32.3873	-4.6114	18.5409	-17.4714	9.38904	-270.211	10.0687	0.950744
0.3740	-18.7244	28.4599	120.774	-2.4795	16.7166	-23.2668	6.33528	-310.517	53.1333	0.950744
0.3747	-4.69476	-27.6798	256.944	-6.14081	12.1395	-17.7691	2.67415	-344.68	114.156	0.950744
0.3753	14.1935	-85.9577	367.348	-10.4046	5.40637	-8.61339	2.67415	-288.537	126.971	0.633829
0.3760	27.0222	-63.0742	407.075	-11.934	-2.22225	1.14845	5.11209	-216.504	76.627	0.633829
0.3767	26.7492	-9.9682	374.129	-11.934	-7.72813	10.3042	7.86216	-182.036	47.5976	0.950744
0.3773	23.3646	27.2464	327.383	-9.4777	-7.09794	22.2034	10.3001	-155.792	40.8852	0.633829
0.3780	21.5631	51.6613	219.691	-9.4777	-6.2024	30.753	9.38904	-73.7078	-0.305113	0.950744
0.3787	12.9925	45.8826	-33.0255	-11.6328	-10.1494	24.9469	3.89734	45.3313	-33.5624	0.950744
0.3793	6.00492	9.85263	-298.505	-6.14081	-11.3766	17.9286	1.45096	74.9261	-16.171	0.316915
0.3800	3.82132	4.96965	-433.08	4.24063	-7.72813	17.9286	3.89734	-39.4936	7.62783	0.316915
0.3807	-6.82378	47.3851	-459.325	10.6595	-6.2024	15.1851	2.67415	-174.421	23.7988	0.950744
0.3813	-19.052	43.1089	-369.582	12.7914	-6.79942	16.7164	0.84358	-204.321	40.8852	0.950744
0.3820	-19.052	-36.839	-198.073	14.6221	-5.87072	25.2553	3.89734	-162.188	35.6982	0.633829
0.3827	-17.1959	-180.583	-44.5923	17.3565	-6.2024	27.7011	5.41578	-127.11	21.663	0.950744
0.3833	-16.923	-332.245	99.1561	19.5116	-6.79942	25.5637	2.97784	-105.13	15.5608	0.950744
0.3840	-12.3374	-298.988	225.195	17.3565	-4.97519	28.3072	3.28153	-62.0831	4.5767	0.633829
0.3847	-7.15132	-126.553	289.571	13.3939	-4.345	30.753	5.11209	28.5288	0.915339	0.633829
0.3853	-3.76673	-82.9239	314.859	10.3583	-6.2024	25.2553	4.80841	141.476	22.2733	0.950744
0.3860	1.0918	-151.574	281.594	8.20319	-5.87072	17.0141	3.58521	236.961	46.0721	0.950744
0.3867	4.14886	-149.436	137.287	7.29945	-3.74798	12.1332	3.58521	311.735	41.4954	0.633829
0.3873	-7.15132	59.2891	-68.125	5.16755	-5.57221	7.56064	3.28153	349.604	28.9857	0.950744
0.3880	-22.7095	367.205	-204.215	-0.64884	-8.32515	4.20036	3.28153	348.082	19.2221	0.950744
0.3887	-23.6376	381.565	-249.047	-6.14081	-7.39645	3.59423	4.80841	267.825	8.84828	0.633829
0.3893	-17.1959	118.203	-289.332	-5.51514	-5.57221	3.89197	5.11209	76.1444	14.9505	0.633829
0.3900	-15.0669	-60.6471	-306.722	-2.78074	-4.04649	6.02937	6.0316	-116.399	12.2045	0.950744
0.3907	-11.4094	-96.6482	-257.343	-0.32442	-2.22225	8.77289	8.46954	-199.092	-3.66136	0.950744
0.3913	-3.16623	-127.16	-191.372	2.71123	-2.22225	9.38966	8.46954	-207.367	-10.679	0.950744
0.3920	1.6923	-176.307	-154.438	4.8663	-4.97519	7.25226	3.89734	-255.287	-22.5784	0.950744
0.3927	1.41935	-154.637	-129.469	11.5633	-6.79942	4.80648	-0.0759222	-325.137	-29.2909	0.950744
0.3933	1.6923	-18.5206	-89.7431	22.2459	-5.57221	3.28585	-0.6833	-313.563	-23.1886	0.633829
0.3940	-0.10918	158.162	-49.7775	26.8342	-4.97519	-0.382817	-1.29068	-229.652	-25.3244	0.950744
0.3947	-1.36476	225.917	-18.9856	26.8342	-4.97519	-2.50958	-3.12125	-130.765	-30.5113	1.26766
0.3953	9.00739	183.502	10.6096	26.8342	-3.11778	-0.680564	-0.986988	-49.2908	-28.6806	0.950744
0.3960	18.5061	180.439	55.8401	26.2085	-2.81927	-3.12634	2.06677	-20.0006	-25.9346	0.633829
0.3967	18.1785	221.959	118.94	25.606	-4.64351	-7.69888	2.67415	-50.2046	-24.409	0.950744
0.3973	20.9081	215.544	156.193	18.5846	-4.345	-7.69888	4.20103	-96.6019	-22.8835	0.950744
0.3980	28.8782	162.438	167.201	4.54188	-2.52076	-3.73247	6.33528	-97.5156	-18.3068	0.950744
0.3987	34.3372	104.767	189.458	-22.3155	-1.29355	-1.29733	7.25479	-28.5288	-11.5943	0.633829
0.3993	38.6499	75.7872	230.939	-53.1354	-0.995038	-4.04085	9.38904	95.6882	-7.93294	0.950744
0.4000	44.4364	79.4278	254.791	-58.3261	-0.995038	-8.61339	10.6038	273.003	-7.32271	0.950744
0.4007	48.094	42.8199	173.264	-41.2245	-1.59206	-12.8882	4.50472	423.769	-7.93294	0.950744
0.4013	47.4935	-25.2239	9.41305	-23.5205	-1.29355	-12.8882	-0.0759222	470.725	-7.0176	0.950744
0.4020	41.3794	-36.5212	-94.3699	-14.0659	0.530687	-9.52789	3.28153	476.563	-3.05113	0.950744
0.4027	34.6648	-14.5622	-100.432	-11.3084	0.829198	-7.69888	5.11209	435.343	1.22045	0.950744
0.4033	31.0072	12.9153	-104.421	-9.80212	2.05641	-5.26374	6.0316	320.619	1.83068	0.950744
0.4040	22.1636	32.4472	-143.19	-9.17645	1.12771	-4.04085	11.5233	200.666	-0.610226	0.950744
0.4047	5.67738	-13.3487	-128.831	-9.4777	-9.25385	-8.00726	12.1307	59.0373	-2.4409	0.950744
0.4053	-6.55083	-78.0409	-42.7576	-9.80212	-20.5309	-11.6653	3.28153	-89.5458	-3.66136	0.950744
0.4060	-8.3523	-74.9782	28.3189	-7.64704	-21.7582	-7.69888	-0.986988	-126.197	-1.83068	0.950744
0.4067	-5.0223	-90.2339	39.9656	-4.6114	-16.8825	-2.81796	1.14727	-81.3223	2.13579	0.950744
0.4073	-4.42181	-194.914	18.5868	-3.38324	-10.7796	-1.29733	0.539891	-61.7785	3.96647	0.950744
0.4080	-5.0223	-207.425	27.9998	-3.68449	-2.81927	0.542324	-1.90649	-39.7982	4.88181	0.950744
0.4087	-3.49377	-46.8939	34.1423	-3.98573	1.12771	2.66909	-1.6028	-38.5798	4.27158	0.950744
0.4093	-0.709673	70.9043	3.03132	-5.81639	-0.696526	1.45683	-4.64813	-149.7	2.13579	0.316915
0.4100	2.62033	75.4694	34.7804	-7.3458	1.7579	-0.0744367	-7.70188	-280.313	2.74602	0
0.4107	3.54836	85.2354	115.27	-6.14081	12.1395	-0.680564	-4.04075	-306.557	2.74602	0.633829
0.4113	1.41935	120.63	111.042	-3.98573	18.8394	-0.680564	-0.986988	-247.622	2.13579	0.950744
0.4120	2.94787	156.024	6.94013	-2.78074	19.7681	0.840071	-0.986988	-147.822	2.74602	0.950744
0.4127	10.8635	140.479	-74.8258	-1.55258	21.5923	3.28585	2.06677	-58.7327	3.96647	0.950744
0.4133	12.0644	62.9586	-94.6889	0.278074	21.5923	3.59423	5.72791	25.1784	3.96647	0.950744
0.4140	0.491312	26.9575	-140.717	-0.32442	19.7681	-1.90345	5.41578	114.318	1.83068	0.950744
0.4147	-8.07935	37.6191	-159.942	-1.55258	19.1379	-6.78437	4.50472	75.8399	0.305113	0.950744
0.4153	-5.0223	5.57641	-98.5977	-0.950087	14.2622	-6.78437	2.37046	-106.044	1.22045	0.950744
0.4160	-1.36476	-46.8939	-42.7576	-0.32442	6.03656	-4.34923	-2.81756	-249.449	2.13579	0.633829
0.4167	-3.49377	-41.4042	24.091	0.278074	2.35492	-0.382817	-5.26394	-275.694	2.74602	0.633829
0.4173	-4.69476	-11.2106	113.515	1.50624	1.12771	5.42324	-2.81756	-232.393	4.27158	0.950744
0.4180	-3.76673	-9.67927	130.905	1.18182	-1.59206	7.25226	-0.986988	-165.843	4.27158	0.950744
0.4187	-5.89574	33.3429	98.8371	-0.32442	-3.44946	5.11486	-2.81756	-87.1092	2.4409	0.950744
0.4193	-5.89574	101.098	108.011	-0.950087	-2.22225	4.80648	-4.64813	-34.3158	2.4409	0.950744
0.4200	0.163771	103.236	131.464	-0.950087	0.232175	6.94388	-4.96025	-64.5197	2.74602	0.950744
0.4207	9.33493	65.0967	105.538	-0.32442	1.7579	9.38966	-7.09451	-81.9314	2.13579	0.950744
0.4213	18.1785	22.3634	45.1507	0.579322	2.65343	11.2187	-9.22876	-4.72095	2.13579	0.633829
0.4220	23.0917	7.71452	-43.9542	0.278074	3.28362	10.9103	-7.70188	89.292	2.13579	0.316915
0.4227	17.9056	24.2126	-155.395	-0.64884	2.65343	7.25226	-8.62139	165.284	2.74602	0.633829
0.4233	9.66247	7.10776	-190.495	-0.32442	2.98511	4.80648	-10.1483	164.066	7.62783	1.26766
0.4240	9.66247	-71.0198	-166.962	1.18182	3.88065	4.80648	-8.30926	41.6764	12.2045	0.950744
0.4247	8.13394	-189.714	-163.612	0.880569	4.17916	3.59423	-7.09451	-64.5197	11.5943	0.633829
0.4253	-0.436722	-281.883	-120.615	-0.0231729	3.58214	0.542324	-7.3982	-68.1746	9.76362	0.633829
0.4260	-2.2382	-272.435	-39.7263	1.50624	2.98511	3.28585	-6.47869	-16.2949	13.425	0.633829
0.4267	4.14886	-234.585	16.433	2.10873	3.28362	9.08127	-5.56763	85.9417	14.3403	0.950744
0.4273	9.93542	-244.958	46.0282	-0.950087	1.45939	7.56064	-7.3982	236.048	-1.22045	0.950744
0.4280	16.3771	-226.35	54.0054	-4.31015	-5.87072	6.94388	-6.47869	362.397	-18.3068	0.950744
0.4287	20.0346	-132.649	56.3985	-4.91265	-16.5508	9.69804	-2.81756	435.038	-19.2221	0.950744
0.4293	17.2505	-31.0314	68.6036	-2.78074	-22.9854	6.94388	-2.81756	487.223	-9.4585	0.950744
0.4300	14.1935	-76.7985	60.7062	-0.64884	-23.2839	4.50874	-4.04075	466.765	1.83068	0.950744
0.4307	9.33493	-215.978	0.239315	-0.64884	-20.5309	5.11486	-4.96025	290.364	5.49203	0.950744
0.4313	-2.89328	-147.616	-67.8059	-3.38324	-18.7067	3.89197	-4.64813	-3.80722	1.83068	0.950744
0.4320	-10.8089	115.747	-86.0736	-6.44206	-15.9538	2.66909	-3.73706	-224.118	-0.915339	0.950744
0.4327	-0.10918	227.131	-107.133	-6.14081	-10.1494	7.56064	-4.64813	-234.829	-6.10226	0.950744
0.4333	12.7195	131.32	-173.424	-1.85383	-4.04649	11.8248	-7.70188	-164.015	-9.4585	0.950744
0.4340	12.0644	68.1594	-213.389	3.93939	0.829198	3.28585	-9.83614	-162.797	-1.52557	0.950744
0.4347	5.67738	66.0213	-182.837	7.6007	5.40637	-8.00726	-8.00557	-237.875	12.8147	0.950744
0.4353	-5.0223	52.2681	-114.153	6.07129	9.68503	-9.52789	-4.04075	-312.649	20.1375	0.950744
0.4360	-18.7244	4.36289	-58.9512	2.10873	10.9122	-7.69888	-4.64813	-305.035	16.171	0.950744
0.4367	-19.98	-78.9366	-2.47292	3.93939	14.2622	-6.17824	-3.43337	-205.235	13.1199	0.950744
0.4373	-13.2654	-88.0958	75.3044	8.20319	22.1893	-4.64698	5.11209	-97.8202	16.7812	0.950744
0.4380	-13.2654	32.4472	135.771	6.37254	25.871	-2.50958	7.25479	-94.1145	15.5608	0.633829
0.4387	-15.0669	140.768	169.036	2.40998	24.6438	0.542324	2.37046	-140.207	-2.13579	1.26766
0.4393	-9.28034	109.65	185.469	1.18182	25.5393	1.14845	1.45096	-129.852	-23.1886	0.633829
0.4400	-5.89574	34.2675	204.136	0.579322	26.1695	-4.04085	1.75465	-109.699	-23.4937	-0.316915
0.4407	-7.75181	40.6818	228.865	0.579322	21.2938	-11.3675	-0.379611	-104.216	-11.5943	0.633829
0.4413	-0.709673	100.809	191.611	1.80748	14.8592	-12.5798	-0.379611	-72.1849	-4.5767	0.950744
0.4420	7.8064	166.426	68.6036	1.50624	9.98355	-8.92177	-0.379611	-29.4425	-3.66136	0.950744
0.4427	6.87837	192.343	-30.2334	0.278074	6.63358	-4.64698	-3.43337	-3.19807	-3.96647	0.950744
0.4433	6.00492	157.555	-38.5297	1.18182	6.63358	0.233944	-0.0759222	32.4883	-2.4409	0.950744
0.4440	9.66247	122.479	-6.4615	2.40998	7.8608	3.59423	8.16585	108.48	0	0.950744
0.4447	12.392	106.905	6.70082	2.10873	6.03656	1.45683	8.46954	171.68	0.305113	0.950744
0.4453	15.1215	90.1183	-12.8432	2.71123	4.17916	-0.680564	4.80841	167.112	0	0.950744
0.4460	15.449	77.6075	-9.49282	6.69696	3.58214	-2.81796	4.50472	119.801	2.13579	0.950744
0.4467	8.40689	76.6829	37.4927	8.52761	2.35492	-9.52789	3.58521	44.7222	2.4409	0.950744
0.4473	0.163771	95.0013	98.1989	5.77004	1.12771	-15.6317	2.37046	-39.189	0.305113	0.950744
0.4480	-4.42181	124.906	156.193	3.63814	1.7579	-15.9401	3.89734	-114.267	0.305113	0.950744
0.4487	-5.62279	116.065	185.469	3.01247	2.05641	-17.4714	4.80841	-171.02	0.610226	1.26766
0.4493	-3.76673	41.8953	211.714	2.10873	2.35492	-22.0439	3.28153	-139.294	0	0.950744
0.4500	4.74935	-49.9566	248.648	1.80748	6.33507	-24.1813	8.16585	-21.8281	1.22045	0.633829
0.4507	19.7071	-74.6893	214.506	0.880569	9.38652	-22.3523	13.9612	81.9314	0.610226	0.950744
0.4513	28.8782	-47.2117	125.72	-1.85383	7.8608	-14.1111	12.1307	127.415	-1.83068	0.950744
0.4520	25.4936	-39.266	69.8002	-2.78074	5.40637	5.11486	9.08536	142.085	-2.4409	0.633829
0.4527	22.4366	-66.4258	-14.3589	-0.64884	3.88065	26.4782	7.55848	138.126	-7.32271	0.950744
0.4533	26.4217	-147.905	-87.669	0.880569	1.12771	32.2736	4.80841	90.5103	-19.5272	0.950744
0.4540	24.2927	-140.277	-8.93442	1.18182	0.232175	22.5118	3.28153	30.0517	-25.0193	0.950744
0.4547	12.0644	-0.809013	87.5095	1.80748	0.829198	13.0477	4.20103	-21.5235	-21.0528	0.950744
0.4553	8.40689	33.6607	99.1561	1.80748	0.232175	10.6125	2.67415	-78.2765	-10.0687	0.950744
0.4560	15.449	11.7018	76.8201	0.278074	-0.696526	11.8248	-0.0759222	-117.009	20.1375	0.950744
0.4567	19.1066	69.0551	-52.8088	-1.55258	0.232175	14.2706	1.45096	-141.73	58.0151	0.950744
0.4573	16.3771	112.395	-261.89	-2.15508	1.45939	15.7912	2.37046	-146.603	61.9815	0.950744
0.4580	4.74935	67.2348	-365.673	-1.55258	0.829198	13.0477	-0.379611	-83.7589	36.9187	0.950744
0.4587	-20.8535	-80.179	-323.873	-0.950087	0.232175	9.99578	-1.6028	6.24384	23.7988	0.950744
0.4593	-41.9253	-198.873	-219.771	-3.98573	-0.696526	7.25226	-0.379611	19.0869	20.4426	0.950744
0.4600	-40.7243	-209.881	-97.7203	-6.7433	-0.995038	5.42324	-1.6028	-23.6555	16.4761	0.633829
0.4607	-29.0966	-218.723	-19.3047	-3.38324	-0.0663358	5.11486	-1.90649	-40.1027	26.2397	0.633829
0.4613	-14.1389	-186.969	-2.47292	4.24063	1.12771	6.02937	2.97784	-27.3105	48.8181	0.633829
0.4620	3.82132	-78.6477	12.7635	6.37254	0.530687	2.66909	5.11209	3.80722	57.71	0.633829
0.4627	14.1935	-24.0104	56.0795	3.63814	-0.398015	-0.988944	3.58521	59.6972	32.342	0.950744
0.4633	16.0495	-40.7974	97.3214	2.40998	-0.696526	-2.50958	3.28153	103.303	1.52557	1.26766
0.4640	18.779	-28.2866	116.865	3.93939	-1.29355	-4.95536	2.06677	114.927	6.71249	0.950744
0.4647	17.5781	-3.87171	110.404	3.93939	-2.22225	-5.56148	0.539891	106.653	16.4761	0.950744
0.4653	11.7915	1.3002	58.8715	-0.950087	-1.29355	-2.21183	2.37046	71.2712	-28.3755	1.26766
0.4660	12.392	11.9907	41.4813	-5.51514	-0.0663358	0.233944	4.80841	27.3105	-70.176	1.26766
0.4667	15.1215	-17.596	91.179	-5.21389	-1.59206	-1.29733	3.58521	-6.853	-46.3772	0.950744
0.4673	5.07689	-26.7552	84.7972	-5.51514	-4.04649	-3.73247	1.75465	-6.54842	-12.8147	0.950744
0.4680	-19.3249	113.609	-25.6865	-5.51514	-3.44946	-4.64698	0.84358	33.7574	-7.93294	0.633829
0.4687	-37.9402	220.427	-154.438	-4.6114	-0.0663358	-2.81796	0.227767	60.611	-15.8659	0.633829
0.4693	-38.8682	107.83	-167.281	-7.04455	1.12771	0.840071	0.539891	76.7536	-32.9522	0.633829
0.4700	-27.8956	-40.7974	-57.1165	-7.64704	0.530687	8.47515	1.45096	130.461	-61.3277	0
0.4707	-12.3374	-100.318	35.3388	-4.6114	-0.0663358	19.1515	-0.6833	178.99	-69.5658	0.633829
0.4713	-0.709673	-101.531	51.2134	-1.55258	-0.995038	23.4263	-5.26394	159.142	-44.2414	1.26766
0.4720	3.22082	-52.7015	5.42447	-0.0231729	-1.59206	21.895	-8.62139	104.825	-22.2733	0.950744
0.4727	2.01984	-39.266	-69.6406	-0.32442	-0.696526	21.5973	-7.3982	51.4229	-19.2221	0.950744
0.4733	-3.76673	-94.1923	-139.84	-1.55258	-0.0663358	19.7683	-4.64813	-6.24384	-19.8323	0.633829
0.4740	-10.2084	-127.477	-178.29	-0.32442	0.829198	17.3225	-0.6833	-48.9862	-14.9505	0.633829
0.4747	-12.9379	-79.5723	-166.085	1.18182	2.05641	16.0996	3.89734	-48.0725	-10.0687	0.950744
0.4753	-13.2654	73.9381	-139.202	1.18182	0.829198	13.3561	4.20103	22.4372	-7.62783	0.633829
0.4760	-13.5384	195.088	-108.968	-0.0231729	-0.995038	9.69804	2.67415	127.11	-4.5767	0.633829
0.4767	-10.4813	129.789	-78.4953	-0.64884	-1.59206	7.25226	1.75465	148.786	-5.79715	0.950744
0.4773	-3.49377	8.03235	-50.4157	0.880569	-1.92374	4.80648	0.539891	70.9666	-7.32271	1.26766
0.4780	-3.49377	-13.0309	-0.638173	3.33689	-1.59206	4.80648	0.84358	0.761444	0.305113	0.950744
0.4787	-10.8089	31.8405	35.3388	4.54188	0.232175	6.02937	1.75465	-32.7929	5.49203	0.633829
0.4793	-14.4664	31.2337	20.7406	1.50624	-0.0663358	4.50874	0.84358	-42.2348	0.915339	0.950744
0.4800	-11.7369	-43.5423	-1.59543	-0.950087	-2.22225	0.840071	-0.0759222	-15.0766	-2.4409	1.26766
0.4807	-1.96525	-83.8196	39.3274	-0.950087	-2.81927	-2.50958	1.75465	14.8228	-2.13579	0.950744
0.4813	14.521	-56.0531	137.606	-1.55258	-2.81927	-4.34923	4.80841	61.2201	-1.83068	0.950744
0.4820	30.4068	-18.2317	237.081	-1.25133	-2.81927	-2.81796	4.20103	177.772	0.305113	0.950744
0.4827	34.3372	44.6402	384.18	-0.32442	-2.52076	0.542324	-2.21018	262.901	6.40737	0.950744
0.4833	25.2207	65.0967	584.965	-0.0231729	-2.22225	4.20036	-7.70188	192.442	12.5096	0.950744
0.4840	20.0346	22.0745	704.304	-0.64884	-2.52076	7.25226	-8.62139	81.3223	14.3403	0.950744
0.4847	29.1512	43.7445	660.988	-2.4795	-4.04649	7.56064	-8.92508	35.5848	14.0352	1.26766
0.4853	46.5655	118.809	443.69	-3.38324	-4.97519	6.33775	-9.83614	-18.427	11.8994	0.950744
0.4860	58.1932	133.747	96.3641	-1.25133	-3.44946	9.08127	-8.92508	-59.3419	14.3403	0.633829
0.4867	49.9501	119.098	-260.056	4.54188	-2.22225	13.6644	-5.26394	-33.402	25.0193	0.633829
0.4873	17.5781	115.14	-476.715	10.3583	-0.995038	15.7912	-0.6833	-23.6555	18.3068	0.950744
0.4880	-28.4961	57.7578	-525.216	6.9982	0.530687	17.6309	2.06677	-57.819	-14.0352	0.950744
0.4887	-60.8681	-15.7758	-508.784	0.579322	-1.29355	17.9286	1.14727	-75.2307	-24.1039	0.950744
0.4893	-59.9401	-56.6598	-452.624	0.579322	-1.59206	18.5454	2.06677	-72.7941	-5.49203	0.950744
0.4900	-40.7243	-105.201	-325.947	2.71123	1.12771	20.066	6.94266	-81.6268	7.62783	1.26766
0.4907	-24.2381	-160.416	-168.478	3.93939	2.98511	19.7683	9.38904	-108.48	9.76362	0.950744
0.4913	-11.0818	-229.702	-36.695	4.54188	2.35492	17.0141	6.94266	-142.035	7.32271	0.633829
0.4920	3.22082	-310.257	49.3786	4.54188	-0.0663358	11.8248	7.86216	-150.918	11.8994	0.950744
0.4927	19.1066	-368.563	97.3214	3.01247	-2.81927	3.28585	9.38904	-136.857	17.6966	0.950744
0.4933	31.0072	-410.979	144.945	0.278074	-4.04649	-4.34923	6.0316	-143.558	-0.305113	0.633829
0.4940	32.8633	-441.201	192.25	-4.31015	-3.11778	-9.52789	3.58521	-167.67	-18.917	0.633829
0.4947	26.1487	-349.032	187.942	-7.3458	-2.81927	-10.7508	5.41578	-150.309	-15.8659	0.950744
0.4953	13.32	-47.2117	128.751	-7.3458	-3.44946	-7.40113	5.72791	-71.5758	-8.23805	0.950744
0.4960	1.6923	199.971	46.0282	-5.81639	-2.81927	-3.73247	1.45096	15.4319	-5.18692	0.633829
0.4967	-3.76673	188.991	-19.5441	-4.6114	-1.59206	-3.43472	-1.6028	95.079	-4.27158	0.633829
0.4973	-11.0818	98.064	-29.675	-3.98573	-1.59206	-8.61339	-2.81756	131.984	-3.96647	0.950744
0.4980	-8.9528	28.171	-18.0284	-2.78074	-1.92374	-12.2821	-2.81756	73.4032	-0.915339	1.26766
0.4987	1.6923	-17.596	-15.6352	-0.64884	-1.59206	-12.8882	-2.51387	15.1274	6.10226	0.633829
0.4993	1.41935	-18.8385	-19.5441	-0.0231729	-2.52076	-15.6317	-4.64813	-25.1784	16.7812	0
0.5000	-3.49377	20.5432	-75.464	-2.15508	-2.22225	-15.334	-3.43337	-57.819	19.5272	0.316915
0.5007	-12.6103	131.32	-229.503	-3.98573	-0.0663358	-8.92177	2.06677	-18.427	17.3914	0.950744
0.5013	-23.0371	268.332	-314.061	-1.85383	-0.398015	-5.86986	4.20103	9.34038	30.2062	0.950744
0.5020	-15.3944	284.831	-197.195	2.10873	-0.995038	-4.95536	3.28153	-54.7732	41.8005	0.950744
0.5027	8.40689	134.383	-62.6207	4.8663	-0.0663358	-3.12634	2.97784	-147.822	29.596	0.950744
0.5033	27.0222	-19.7341	1.19657	4.8663	-0.995038	-3.73247	0.84358	-157.01	8.54317	0.633829
0.5040	24.6202	-28.2866	49.3786	3.01247	-1.59206	-4.95536	-1.90649	-87.7184	-2.13579	0.633829
0.5047	12.7195	87.9802	72.9113	1.50624	-0.995038	-3.73247	-2.51387	-26.3967	-14.6454	0.950744
0.5053	11.7915	210.372	95.4866	1.18182	-1.29355	-4.04085	-4.34444	40.1535	-30.8164	0.950744
0.5060	17.5781	243.918	96.3641	2.10873	-1.59206	-4.95536	-6.79082	105.435	-34.7829	0.950744
0.5067	19.1066	191.447	31.6693	3.63814	-0.696526	-3.12634	-4.96025	118.582	-38.4442	0.950744
0.5073	20.9081	100.809	-44.9114	3.63814	-0.995038	-2.50958	-2.21018	98.4294	-37.2238	0.950744
0.5080	24.2927	30.598	-88.5465	3.01247	-3.11778	-4.64698	-2.51387	92.0332	-18.917	0.950744
0.5087	9.33493	31.8405	-74.8258	4.24063	-3.74798	-5.26374	-1.90649	110.612	-5.49203	0.950744
0.5093	-22.382	75.7872	-14.1196	7.90195	-1.92374	-2.81796	0.227767	69.1391	-7.32271	0.950744
0.5100	-33.4092	97.4572	52.1707	7.90195	-0.995038	-0.988944	-0.0759222	-88.9367	-10.9841	0.950744
0.5107	-3.76673	120.63	101.549	3.93939	-0.995038	-0.680564	0.84358	-212.849	-8.84828	0.950744
0.5113	37.7218	151.459	90.6206	2.40998	-0.995038	-1.59507	2.67415	-145.385	-2.13579	0.950744
0.5120	46.5655	135.279	21.9372	2.71123	-2.52076	-4.04085	1.45096	44.4176	2.4409	0.950744
0.5127	18.1785	109.332	-38.5297	3.33689	-2.52076	-5.26374	0.84358	215.032	2.13579	0.950744
0.5133	-13.2654	133.747	-59.2703	3.63814	0.530687	-2.50958	2.37046	347.168	0.305113	1.26766
0.5140	-24.8386	138.341	-45.2305	3.63814	2.05641	-1.29733	0.84358	434.125	-0.915339	0.950744
0.5147	-23.0371	51.0545	-46.108	2.71123	1.45939	-3.12634	-3.73706	433.516	1.52557	0.950744
0.5153	-24.2381	-33.1696	-91.2588	2.10873	0.829198	-4.64698	-6.47869	298.943	9.4585	1.26766
0.5160	-38.5953	-33.7763	-103.464	2.10873	0.829198	-4.64698	-6.79082	10.2541	17.0863	0.950744
0.5167	-54.754	5.28748	-57.7547	1.80748	1.45939	-4.64698	-5.87132	-276.912	11.2892	0.950744
0.5173	-51.0965	18.7229	-40.3644	0.880569	2.05641	-3.73247	-1.90649	-349.249	0.915339	0.950744
0.5180	-24.2381	-33.4874	-70.5181	-0.0231729	3.28362	0.233944	5.11209	-257.724	0	0.950744
0.5187	-5.0223	-109.477	-42.7576	-2.78074	3.58214	2.37134	8.16585	-181.122	-3.35624	0.950744
0.5193	-14.1389	-168.968	97.0023	-4.6114	2.35492	0.840071	5.72791	-118.531	-8.23805	0.950744
0.5200	-16.5954	-242.531	236.762	-3.38324	1.45939	-0.0744367	3.89734	-54.7732	-3.35624	0.950744
0.5207	3.22082	-258.682	303.611	-2.78074	0.829198	-0.382817	1.14727	-49.9	3.05113	0.633829
0.5213	-2.2382	-160.734	375.326	-4.31015	-0.995038	-2.21183	-5.87132	-30.3562	3.66136	0.950744
0.5220	-26.3671	-22.479	452.864	-3.68449	-0.696526	-0.988944	-9.53245	54.4686	2.4409	0.950744
0.5227	-22.7095	93.7878	443.371	-2.4795	1.45939	0.542324	-7.70188	70.662	0.915339	0.950744
0.5233	-10.8089	96.2148	391.838	-2.4795	0.829198	-1.29733	-5.87132	46.245	1.22045	0.633829
0.5240	-11.0818	14.4467	299.622	-1.55258	-0.398015	-2.81796	-3.12125	133.507	3.96647	0.316915
0.5247	2.62033	-13.0309	112.239	-0.32442	-0.995038	-4.04085	0.227767	311.126	2.74602	0.633829
0.5253	17.5781	-24.0104	15.2364	-0.0231729	-2.22225	-6.17824	2.97784	489.05	0.305113	0.633829
0.5260	22.7641	-86.8823	41.4813	1.80748	-1.29355	-5.26374	5.72791	550.067	1.83068	0.633829
0.5267	41.3794	-126.871	-17.1509	2.71123	1.12771	-2.21183	8.77323	414.581	3.05113	0.950744
0.5273	54.2081	-122.883	-47.6237	0.579322	-0.0663358	-2.81796	6.63897	248.282	0.305113	0.950744
0.5280	45.3645	-125.628	78.9739	-0.64884	-2.52076	-4.95536	0.84358	171.071	-2.13579	0.950744
0.5287	25.8212	-88.0958	194.084	0.278074	-3.44946	-6.48662	-4.34444	38.9352	0.915339	0.950744
0.5293	4.4764	-38.3704	210.198	1.50624	-2.81927	-6.78437	-7.09451	-133.507	5.49203	1.26766
0.5300	-2.89328	25.7151	151.008	2.10873	-0.696526	-4.04085	-5.56763	-183.559	7.93294	0.950744
0.5307	2.94787	202.427	57.0367	1.50624	0.232175	-2.21183	-4.04075	-159.751	10.9841	0
0.5313	12.9925	321.438	-78.8144	0.579322	-0.995038	-4.04085	-7.09451	-153.659	10.9841	0.316915
0.5320	6.60542	252.47	-215.782	-0.64884	-2.22225	-7.09275	-10.1483	-143.862	6.71249	0.950744
0.5327	-13.2654	161.832	-280.238	-0.950087	-2.22225	-7.40113	-10.7556	-119.445	6.40737	0.950744
0.5333	-5.0223	116.353	-345.81	-1.55258	-1.92374	-6.48662	-9.83614	-78.2765	6.71249	1.26766
0.5340	16.0495	42.8199	-407.474	-0.64884	-0.696526	-4.95536	-6.175	-46.5496	5.49203	0.950744
0.5347	-4.42181	-61.2539	-419.998	1.50624	0.829198	-3.12634	0.227767	-80.1039	4.88181	0.633829
0.5353	-54.4265	-141.809	-369.582	2.10873	0.232175	-3.73247	3.89734	-162.492	3.66136	0.950744
0.5360	-77.0268	-146.085	-267.953	0.880569	-1.59206	-6.17824	4.20103	-245.185	0.305113	0.633829
0.5367	-59.6125	-114.042	-258.221	-0.0231729	-2.52076	-7.09275	2.67415	-246.099	-1.83068	0.633829
0.5373	-48.3669	-97.5728	-278.403	-0.32442	-2.22225	-6.48662	1.45096	-120.968	-1.83068	0.950744
0.5380	-63.2701	-56.0531	-161.218	-0.950087	-1.29355	-6.17824	-0.0759222	4.72095	-1.52557	0.950744
0.5387	-62.3966	-29.2112	-43.3958	-1.25133	-0.398015	-5.86986	-2.51387	27.0059	-0.915339	0.633829
0.5393	-25.439	-67.3504	-64.4555	-0.0231729	1.12771	-4.34923	-1.6028	-7.46215	1.22045	0.950744
0.5400	0.818853	-112.828	-147.179	-0.32442	-0.398015	-4.64698	-0.986988	-93.5054	1.22045	0.950744
0.5407	-8.07935	-163.796	-90.3813	-2.78074	-3.74798	-8.00726	-5.56763	-219.854	-1.83068	0.950744
0.5413	-17.7964	-120.456	147.976	-2.78074	-4.04649	-8.00726	-8.92508	-262.901	-2.74602	1.26766
0.5420	-16.3225	128.575	392.397	-1.25133	-4.345	-7.40113	-10.7556	-179.295	-2.4409	1.26766
0.5427	-7.15132	260.416	544.362	-1.55258	-6.2024	-9.23015	-14.7205	-8.98504	-3.66136	0.950744
0.5433	21.8361	95.3191	567.256	-2.78074	-5.87072	-8.61339	-15.0242	197.62	-3.66136	0.950744
0.5440	58.1932	-50.8812	480.305	-1.85383	-3.74798	-6.17824	-10.1483	291.887	-2.13579	0.950744
0.5447	69.7663	-85.6687	338.391	-1.85383	-4.345	-8.61339	-10.1483	235.439	-3.66136	0.950744
0.5453	55.7366	-186.969	116.227	-3.08199	-5.87072	-11.9737	-12.2825	238.18	-6.10226	0.950744
0.5460	33.1363	-345.073	-142.871	-1.85383	-3.74798	-9.83628	-7.70188	337.675	-4.27158	0.633829
0.5467	6.87837	-377.116	-318.05	-0.64884	-2.22225	-8.00726	-2.51387	350.214	-1.83068	0.950744
0.5473	-10.4813	-263.883	-320.443	-1.85383	-2.81927	-9.83628	-4.04075	269.957	-2.4409	0.950744
0.5480	-11.4094	-77.7231	-151.407	-0.950087	-2.22225	-9.83628	-5.26394	164.675	-0.915339	0.950744
0.5487	-5.62279	135.596	36.8545	-0.0231729	-2.22225	-10.453	-6.47869	16.0411	0.915339	0.950744
0.5493	8.73444	170.066	155.555	-2.15508	-3.74798	-12.8882	-11.0593	-156.705	1.22045	0.950744
0.5500	27.0222	53.5105	243.463	-2.78074	-1.92374	-11.9737	-11.0593	-264.12	2.4409	0.950744
0.5507	34.9923	20.5432	346.608	-2.4795	-1.29355	-11.9737	-8.62139	-210.108	2.4409	0.950744
0.5513	35.8658	-61.8606	451.906	-3.38324	-4.04649	-16.2485	-11.0593	-110.003	-1.83068	0.950744
0.5520	34.6648	-194.914	355.462	-3.08199	-4.97519	-18.0775	-12.2825	-122.542	-3.96647	0.950744
0.5527	42.5804	-200.404	-84.877	-1.55258	-3.74798	-16.8546	-7.09451	-110.003	-2.13579	0.950744
0.5533	56.3371	-140.277	-471.211	-1.25133	-4.345	-17.4714	-3.73706	55.3824	-1.52557	0.950744
0.5540	33.4638	-33.7763	-392.476	-0.0231729	-4.345	-16.2485	-0.0759222	180.513	-0.610226	1.26766
0.5547	-24.8386	16.8737	-170.632	2.71123	-2.22225	-13.1966	8.46954	101.171	2.13579	1.58457
0.5553	-60.8681	74.5448	-191.372	3.33689	-3.11778	-15.334	12.1307	-22.7418	2.4409	0.950744
0.5560	-59.012	260.098	-301.218	2.71123	-4.97519	-18.992	9.69273	-65.4334	0.915339	0.633829
0.5567	-27.8956	266.194	-293.958	2.71123	-4.04649	-18.992	9.99642	-86.5001	1.22045	0.950744
0.5573	2.29279	115.14	-265.56	2.10873	-3.11778	-18.3859	9.38904	-136.857	1.52557	1.26766
0.5580	-8.3523	69.6618	-297.867	1.18182	-4.04649	-20.2149	2.67415	-229.042	0.610226	0.950744
0.5587	-25.7666	142.906	-276.249	0.278074	-4.345	-20.821	-1.6028	-277.216	0.610226	0.633829
0.5593	1.6923	297.948	-133.139	-0.0231729	-3.11778	-19.9065	2.06677	-272.343	1.22045	0.950744
0.5600	33.1363	350.447	169.914	-0.950087	-3.11778	-20.2149	3.58521	-233.611	-0.305113	0.950744
0.5607	12.392	277.809	513.251	-1.25133	-3.11778	-19.6087	3.28153	-93.8099	-0.915339	0.950744
0.5613	-32.1536	249.407	746.742	-0.0231729	-1.59206	-16.5568	8.77323	21.2189	1.22045	0.950744
0.5620	-41.6523	225.021	942.981	-0.0231729	-0.696526	-15.0256	10.3001	119.191	1.83068	0.950744
0.5627	-14.794	184.426	1073.89	-0.32442	-0.696526	-13.8027	6.63897	327.624	1.52557	1.26766
0.5633	23.0917	158.798	905.408	-0.950087	-0.995038	-13.5049	2.67415	485.091	2.13579	1.26766
0.5640	68.5653	116.989	363.998	-1.55258	-1.29355	-14.7172	-1.6028	560.778	1.52557	1.26766
0.5647	92.9672	79.4278	-143.19	-1.25133	-0.0663358	-14.1111	-3.43337	673.675	1.22045	0.950744
0.5653	69.7663	47.3851	-330.574	-0.32442	1.7579	-13.1966	-2.51387	753.018	2.4409	0.950744
0.5660	20.0346	-6.9344	-415.69	0.579322	2.35492	-13.5049	-0.6833	735.657	3.66136	1.26766
0.5667	-31.2256	-112.222	-406.516	0.880569	1.45939	-15.0256	-2.81756	626.669	3.66136	0.633829
0.5673	-58.084	-129.616	-289.013	-0.32442	0.829198	-14.1111	-10.1483	277.267	5.79715	-0.316915
0.5680	-47.1114	38.5437	-242.027	-2.15508	2.05641	-12.2821	-18.3816	-368.184	5.79715	0.316915
0.5687	-28.4961	161.832	-270.426	-5.21389	1.7579	-14.4194	-26.016	-967.542	0.610226	0.950744
0.5693	-39.7963	91.0429	-331.132	-6.7433	1.7579	-17.4714	-27.8466	-1137.55	-1.52557	0.950744
0.5700	-82.2129	-63.392	-334.243	-5.21389	3.88065	-16.5568	-22.6586	-789.313	0.610226	0.950744
0.5707	-114.585	-165.617	-94.3699	-4.6114	4.51084	-16.2485	-19.3011	-256.505	1.52557	1.26766
0.5713	-109.672	-257.18	318.289	-6.14081	2.98511	-15.6317	-24.4891	-0.761444	0.915339	0.950744
0.5720	-76.4263	-327.968	550.185	-7.3458	2.05641	-12.5798	-34.5615	-115.181	-0.305113	0.950744
0.5727	-12.0098	-208.639	523.063	-7.64704	1.45939	-14.7172	-39.7495	-372.143	-1.52557	0.950744
0.5733	54.481	24.8194	449.194	-6.44206	2.05641	-18.3859	-35.1688	-407.271	-0.915339	1.26766
0.5740	81.9945	156.342	336.237	-3.68449	4.80935	-16.2485	-29.3735	-60.5602	2.13579	0.950744
0.5747	116.768	131.002	-94.6889	-1.85383	5.70488	-15.0256	-28.7576	404.53	3.35624	0.950744
0.5753	169.885	99.5664	-679.973	-1.85383	3.58214	-17.163	-25.0965	761.292	2.4409	0.950744
0.5760	144.227	233.863	-831.061	-0.0231729	3.88065	-16.2485	-14.1131	975.207	3.35624	1.26766
0.5767	32.8633	266.83	-509.422	1.80748	4.17916	-13.8027	-9.83614	737.484	3.66136	0.950744
0.5773	-58.7391	-18.5206	21.6181	0.579322	3.28362	-10.7508	-16.551	-121.273	2.4409	0.950744
0.5780	-80.6844	-263.276	542.288	-0.0231729	5.10786	-2.21183	-18.6853	-814.339	3.66136	1.26766
0.5787	-46.1833	-250.159	783.038	-0.32442	6.03656	3.28585	-16.551	-718.55	4.27158	1.26766
0.5793	-1.36476	-154.03	794.286	-1.85383	4.51084	-0.680564	-22.6586	-373.666	2.13579	1.26766
0.5800	21.2356	-90.5517	678.697	-1.25133	4.80935	-4.04085	-35.4725	-281.836	1.22045	0.950744
0.5807	61.5232	-19.1274	-0.0797716	-0.950087	6.03656	-4.95536	-48.5986	-236.048	0	0.950744
0.5813	105.141	64.1721	-1062.08	-2.15508	5.70488	-7.09275	-53.7867	-9.89878	-0.610226	0.950744
0.5820	104.868	37.0124	-1561.61	-2.15508	6.9321	-6.78437	-45.2412	132.288	0.610226	0.950744
0.5827	70.0938	-151.286	-1485.35	-2.15508	9.68503	-6.78437	-26.016	52.6412	0.915339	0.950744
0.5833	-19.3249	-322.161	-1162.19	-3.38324	11.5093	-13.5049	-4.34444	174.117	0.305113	0.950744
0.5840	-119.116	-322.479	-621.102	-3.98573	10.9122	-18.0775	17.015	382.245	0	0.950744
0.5847	-115.786	-228.777	-87.0309	-3.08199	9.08801	-17.4714	35.9365	88.3783	-0.610226	0.950744
0.5853	-46.1833	-95.4347	272.819	-2.15508	6.9321	-22.6607	42.9551	-504.279	-1.22045	0.950744
0.5860	2.94787	86.4489	451.348	-2.15508	6.9321	-26.3187	42.3477	-778.348	-0.610226	0.950744
0.5867	36.5209	206.385	475.997	0.278074	8.75633	-18.3859	41.1245	-633.674	2.13579	0.950744
0.5873	58.7937	162.756	451.348	4.54188	9.68503	-6.17824	32.5791	-350.163	7.32271	0.950744
0.5880	43.5084	31.2337	360.089	6.07129	7.23061	0.542324	18.8456	-213.763	8.23805	0.950744
0.5887	-28.8236	-86.8823	274.016	5.4688	4.51084	0.840071	10.3001	-309.908	7.32271	0.633829
0.5893	-97.4981	-135.105	377.798	5.4688	3.58214	-0.988944	11.2196	-415.19	9.15339	-0.316915
0.5900	-72.1683	-153.424	436.032	5.4688	4.80935	-4.34923	15.7918	-300.72	9.76362	0.316915
0.5907	9.66247	-252.297	397.263	3.01247	5.40637	-15.0256	16.4076	23.9601	5.49203	0.950744
0.5913	50.223	-279.456	474.163	-0.0231729	5.40637	-27.5416	14.2734	295.897	1.83068	1.26766
0.5920	67.9102	-150.968	292.283	-3.08199	4.80935	-29.9767	7.55848	297.725	-0.610226	1.26766
0.5927	107.597	38.2259	-228.306	-4.91265	4.80935	-27.5416	2.97784	301.684	-2.4409	0.633829
0.5933	125.012	286.651	-515.165	-5.21389	9.08801	-24.1813	11.827	480.522	0	-0.316915
0.5940	83.1955	400.491	-496.259	-4.6114	13.3335	-10.7508	19.7651	530.879	2.13579	0
0.5947	31.6077	261.022	-410.186	-3.38324	13.035	3.28585	14.2734	353.869	0.915339	0.950744
0.5953	17.9056	53.1926	-357.696	-1.25133	8.75633	7.85839	2.97784	363.615	1.22045	0.950744
0.5960	28.2777	-118.318	-392.796	-0.950087	3.58214	6.33775	-7.09451	845.812	2.13579	0.950744
0.5967	35.5928	-178.127	-388.807	-1.85383	0.829198	2.97747	-13.1936	1165.92	2.4409	1.26766
0.5973	36.1933	-125.946	-242.665	-0.64884	-0.0663358	4.20036	-18.3816	672.457	5.49203	0.950744
0.5980	38.9228	-116.498	-179.167	0.880569	0.530687	6.94388	-28.1503	-27.615	9.15339	0.950744
0.5987	41.3794	-71.6266	-102.267	0.278074	1.45939	3.89197	-33.3383	-255.287	8.84828	1.26766
0.5993	48.4215	48.3097	229.742	-0.0231729	-0.0663358	-2.81796	-24.1854	-388.946	7.32271	0.950744
0.6000	67.3097	92.5743	303.93	1.18182	-3.11778	-3.12634	-15.3363	-513.467	7.32271	1.26766
0.6007	71.8953	163.363	139.76	2.10873	-5.2737	0.233944	-18.3816	-284.882	7.32271	1.26766
0.6013	60.9227	254.001	228.865	3.93939	-5.2737	4.20036	-23.5696	-65.738	7.93294	0.950744
0.6020	64.8532	137.128	207.805	5.77004	-5.2737	11.5271	-27.2308	-210.108	9.4585	0.950744
0.6027	80.1385	-89.945	59.1906	4.54188	-7.39645	17.0141	-35.1688	-476.207	8.84828	0.950744
0.6033	102.739	-172.638	220.01	3.33689	-6.79942	20.6828	-38.83	-477.73	7.93294	0.950744
0.6040	99.0813	-217.191	553.854	3.63814	-2.22225	24.3408	-34.8652	-168.279	8.54317	0.950744
0.6047	23.3646	-385.35	656.361	2.71123	-0.696526	21.5973	-34.5615	16.9548	7.93294	0.633829
0.6053	-38.2677	-418.289	351.554	2.10873	-0.696526	15.7912	-42.1874	-130.156	7.0176	0.633829
0.6060	-13.8659	-251.054	-50.9741	2.10873	1.45939	10.3042	-50.4292	-383.463	8.23805	0.950744
0.6067	-9.28034	-209.246	-217.059	1.18182	1.7579	-1.29733	-63.2432	-504.279	7.0176	0.633829
0.6073	-48.9674	-313.319	-422.391	-0.32442	2.98511	-15.334	-73.6192	-404.784	3.35624	0.950744
0.6080	-54.754	-406.096	-806.013	-2.4795	9.08801	-17.7691	-65.6896	-209.194	1.83068	0.950744
0.6087	-72.7688	-437.214	-878.685	-4.31015	6.9321	-18.0775	-47.0718	-166.147	0	0.633829
0.6093	-129.816	-195.521	-419.998	-5.21389	-1.59206	-27.5416	-26.6234	-347.726	-3.35624	0.950744
0.6100	-163.389	225.628	188.58	-4.91265	-6.2024	-37.3034	-2.21018	-428.592	-4.5767	0.950744
0.6107	-160.932	398.352	550.823	-3.38324	-10.7796	-33.9431	14.5771	-233.611	-4.27158	0.633829
0.6113	-125.558	384.917	584.088	-1.85383	-13.2008	-12.8882	16.7113	-69.0884	-3.35624	0.633829
0.6120	-48.6399	401.386	230.061	0.579322	-11.0781	8.47515	18.2382	13.909	0.305113	0.950744
0.6127	27.6227	414.215	-340.625	2.71123	-9.25385	13.9622	19.7651	331.584	4.5767	0.950744
0.6133	57.2651	349.523	-735.495	4.24063	-8.02664	8.47515	18.8456	693.219	7.32271	0.950744
0.6140	34.0643	149.321	-860.975	5.4688	-5.57221	2.37134	21.292	609.003	8.84828	0.633829
0.6147	-23.0371	17.1915	-722.093	4.24063	-2.22225	2.06296	24.0336	324.578	7.32271	0.950744
0.6153	-67.5827	98.064	-323.554	1.80748	1.7579	3.28585	22.8188	267.521	3.35624	0.950744
0.6160	-75.1707	132.534	122.609	0.579322	9.08801	-0.680564	21.8993	196.706	2.13579	0.950744
0.6167	-54.1535	110.864	173.902	1.80748	18.2424	-4.34923	20.3725	-102.998	4.5767	0.950744
0.6173	-13.8659	236.001	-238.996	3.01247	25.871	-4.95536	12.1307	-266.252	7.32271	0.950744
0.6180	1.41935	363.247	-605.786	2.10873	28.9224	-5.26374	-0.0759222	-82.236	7.62783	0.950744
0.6187	-34.0097	355.937	-572.84	1.50624	25.5393	-4.04085	-7.70188	85.3325	6.40737	0.950744
0.6193	-70.6398	249.725	-267.714	0.278074	18.8394	-0.988944	-13.1936	133.202	4.27158	0.633829
0.6200	-59.9401	45.5648	46.9855	-0.64884	14.2622	4.20036	-15.64	220.819	7.93294	-0.316915
0.6207	-22.382	-89.3093	404.283	3.01247	11.5093	11.5271	-10.1483	17.8686	14.0352	0
0.6213	1.6923	19.6186	569.091	5.16755	6.03656	12.7499	-6.47869	-487.832	11.8994	0.950744
0.6220	7.20591	138.341	194.962	3.63814	2.35492	10.3042	-7.70188	-643.776	7.32271	1.26766
0.6227	20.0346	59.607	-236.523	1.50624	1.7579	9.08127	-9.53245	-385.291	6.40737	1.26766
0.6233	60.9227	13.2043	-364.397	-0.32442	-0.696526	7.25226	-11.9788	-76.1444	4.88181	0.950744
0.6240	83.4685	57.4688	-420.875	-0.32442	-3.44946	6.64613	-10.7556	140.563	4.88181	0.633829
0.6247	45.0369	19.0118	-311.907	0.579322	-4.04649	6.64613	-4.64813	123.455	6.40737	0.950744
0.6253	-20.5805	-23.7214	16.752	-0.32442	-5.2737	9.69804	-1.6028	-138.38	6.71249	0.950744
0.6260	-36.1387	-51.4879	298.426	-2.78074	-6.2024	18.5454	-3.12125	-375.798	6.71249	-0.316915
0.6267	20.6351	-92.372	352.112	-3.98573	-7.09794	20.066	-3.73706	-430.115	5.49203	0.316915
0.6273	77.6819	19.0118	303.93	-3.08199	-8.62366	12.1332	-3.43337	-381.636	1.52557	1.26766
0.6280	101.811	205.489	540.134	-2.78074	-7.39645	7.85839	-6.47869	-157.01	0.610226	1.26766
0.6287	103.339	251.863	819.334	-3.38324	-4.97519	7.56064	-17.4705	204.016	0.610226	0.950744
0.6293	84.997	217.365	669.204	-3.38324	-4.97519	7.85839	-37.6068	341.33	0	0.950744
0.6300	67.6373	218.607	346.608	-2.4795	-4.97519	8.77289	-56.2246	173.508	0.610226	0.950744
0.6307	45.3645	228.662	22.2563	-1.55258	-2.81927	7.25226	-59.582	80.1039	2.13579	0.950744
0.6313	-3.49377	115.747	-503.279	-1.25133	-1.29355	4.50874	-53.1708	167.416	2.4409	0.950744
0.6320	-62.6696	-134.498	-722.412	-0.64884	-0.696526	6.64613	-52.2598	253.155	2.13579	0.633829
0.6327	-99.0267	-339.872	-200.865	1.50624	1.45939	13.9622	-52.8671	435.952	4.27158	0.950744
0.6333	-116.714	-409.159	454.06	3.33689	3.28362	15.4935	-49.206	563.52	7.32271	0.950744
0.6340	-109.399	-367.957	820.85	2.71123	2.05641	9.08127	-49.206	327.015	6.10226	0.950744
0.6347	-34.0097	-300.809	990.844	0.579322	1.7579	4.20036	-47.6791	-26.3967	3.66136	0.633829
0.6353	66.3817	-154.926	873.34	-0.32442	2.65343	-1.29733	-36.0883	-115.486	3.05113	0.950744
0.6360	79.8109	88.9048	287.098	0.880569	4.17916	-10.7508	-20.2122	-1.67518	2.4409	0.950744
0.6367	-26.0395	152.066	-373.89	1.50624	6.63358	-13.5049	-4.04075	99.6477	3.05113	0.950744
0.6373	-115.185	96.8216	-614.082	1.18182	7.56229	-9.83628	12.1307	199.143	4.27158	0.950744
0.6380	-103.285	159.693	-583.21	0.579322	4.17916	-9.83628	24.3373	383.768	1.52557	0.950744
0.6387	-105.687	159.087	-485.57	-0.64884	-1.29355	-8.92177	27.6947	386.205	-2.13579	0.950744
0.6393	-151.16	-57.9023	-311.668	0.278074	-1.92374	5.42324	26.1678	81.9314	-1.52557	0.950744
0.6400	-160.059	-241.606	-220.728	0.880569	1.12771	23.7347	25.5605	-184.168	-0.305113	0.950744
0.6407	-129.543	-193.701	-244.5	0.579322	2.35492	27.0843	26.48	-275.694	0	0.950744
0.6413	-109.071	-86.8823	-161.458	2.10873	0.829198	21.2889	25.8642	-197.874	3.66136	0.950744
0.6420	-112.128	-41.722	-11.0085	2.71123	-2.81927	15.4935	18.8456	-252.241	5.49203	0.950744
0.6427	-106.615	-17.9139	-18.6666	1.18182	-4.64351	12.1332	8.46954	-569.307	3.66136	0.950744
0.6433	-82.5404	4.36289	-153.241	-0.32442	-3.44946	10.6125	0.84358	-579.358	1.22045	1.26766
0.6440	-63.9252	5.89424	-277.127	-2.4795	-3.74798	8.47515	-5.56763	-360.569	-3.05113	0.950744
0.6447	-55.0815	-44.7558	-283.588	-3.08199	-3.11778	8.77289	-9.83614	-378.539	-5.79715	0.950744
0.6453	-48.3669	-70.702	-213.07	-1.25133	1.45939	9.99578	-7.3982	-433.211	-3.66136	0.950744
0.6460	-48.9674	-29.8179	-249.047	-1.25133	2.05641	6.64613	-4.04075	-426.764	-2.13579	1.26766
0.6467	-40.7243	-15.4579	-304.887	-2.15508	-0.398015	3.89197	-3.12125	-439.912	-0.305113	0.950744
0.6473	-21.181	-36.2322	-302.813	-0.32442	0.232175	3.89197	2.06677	-376.103	2.74602	0.950744
0.6480	-3.76673	-45.6804	-372.055	0.278074	0.232175	-1.59507	12.1307	-340.416	1.52557	1.26766
0.6487	-0.436722	-32.8806	-341.502	-1.25133	-0.696526	-6.48662	21.292	-406.002	0.305113	0.633829
0.6493	-11.7369	20.8321	-93.0935	-1.25133	1.7579	-2.50958	28.3105	-320.568	6.71249	-0.633829
0.6500	-13.2654	50.1299	107.054	-1.55258	-0.0663358	0.542324	25.2568	-19.3914	7.62783	0
0.6507	-1.03721	-1.44467	147.976	-1.25133	-4.64351	3.59423	13.9612	200.666	0	1.26766
0.6513	25.2207	-95.1169	31.1109	0.579322	-4.97519	13.9622	6.33528	165.284	0.305113	0.950744
0.6520	23.3646	-172.956	-84.2388	0.880569	-6.2024	17.9286	-0.0759222	76.1444	3.35624	0.950744
0.6527	-30.6251	-164.692	32.9457	0.880569	-6.50091	14.2706	-0.6833	197.011	3.05113	0.633829
0.6533	-41.6523	-26.7552	123.885	3.63814	-2.22225	17.0141	13.6576	389.859	6.71249	0.633829
0.6540	9.33493	158.162	-118.142	3.33689	-1.59206	18.5454	26.1678	447.526	8.54317	0.950744
0.6547	44.1089	243.311	-437.946	1.18182	-3.44946	14.579	27.391	492.096	6.40737	0.950744
0.6553	54.8086	197.226	-437.388	0.880569	-2.81927	11.5271	24.0336	507.071	5.18692	0.950744
0.6560	36.5209	151.777	-316.215	-0.32442	-3.44946	8.47515	18.8456	441.13	3.66136	1.26766
0.6567	-14.4664	165.79	-370.539	-0.950087	-4.345	6.02937	17.015	417.018	2.13579	0.950744
0.6573	-49.2404	66.0213	-321.719	1.80748	-3.44946	8.16677	22.203	397.22	3.05113	0.633829
0.6580	-70.6398	-120.456	-115.669	3.01247	-4.64351	6.02937	21.292	265.033	3.35624	0.950744
0.6587	-88.327	-162.554	24.091	1.50624	-7.72813	1.14845	13.9612	-31.8791	0.610226	0.950744
0.6593	-69.3842	-92.372	228.546	0.880569	-7.09794	1.75458	12.7465	-337.98	0	0.950744
0.6600	-47.4389	-52.3836	461.718	-0.0231729	-5.2737	3.59423	15.1844	-428.287	0.610226	0.950744
0.6607	-63.5976	-49.6388	533.114	0.278074	-2.81927	6.94388	17.9345	-224.118	1.83068	1.58457
0.6613	-66.6547	-52.3836	531.598	2.71123	1.7579	13.0477	24.0336	162.492	4.88181	1.26766
0.6620	-10.8089	-83.5306	434.835	2.71123	2.35492	13.0477	24.9531	323.665	4.5767	0.950744
0.6627	76.4809	-158.913	70.4384	-0.32442	0.530687	10.6125	21.8993	183.559	0.915339	0.633829
0.6633	132.327	-118.607	-236.284	-1.25133	1.12771	11.5271	22.8188	238.484	-0.610226	1.26766
0.6640	132.927	54.724	30.1537	-2.4795	0.829198	10.9103	20.3725	370.671	-2.4409	1.26766
0.6647	121.955	49.5232	606.344	-2.78074	1.7579	10.6125	18.2382	53.8595	-3.96647	0.950744
0.6653	99.9547	-62.4674	923.756	-0.950087	4.51084	13.6644	22.203	-312.649	-2.74602	0.950744
0.6660	45.6374	-14.5622	961.567	-0.64884	4.80935	13.9622	22.5067	-290.06	-3.35624	0.633829
0.6667	18.1785	85.2354	860.576	-0.32442	2.98511	12.1332	18.5419	-165.233	-5.49203	0.950744
0.6673	22.4366	105.374	360.089	-0.0231729	1.12771	10.9103	17.6308	-77.0582	-5.79715	1.26766
0.6680	-19.6525	50.7656	-597.569	-0.950087	1.12771	9.99578	15.7918	115.841	-5.79715	0.950744
0.6687	-95.6421	-102.138	-1224.73	-0.950087	2.65343	10.9103	13.3539	412.449	-5.79715	0.950744
0.6693	-127.086	-314.244	-1000.42	0.278074	5.10786	15.1851	16.7113	531.488	-3.35624	0.950744
0.6700	-127.086	-370.384	-439.223	0.579322	6.03656	17.0141	17.9345	359.351	-1.83068	0.950744
0.6707	-150.56	-220.861	-27.8403	-0.64884	4.80935	14.579	11.827	111.272	-3.05113	0.950744
0.6713	-167.974	-24.935	230.061	-1.25133	3.28362	13.3561	7.86216	-47.1588	-4.27158	0.950744
0.6720	-138.386	111.182	319.485	-2.15508	1.7579	10.9103	5.41578	-61.4739	-5.18692	1.26766
0.6727	-86.7985	204.565	201.663	-1.55258	1.7579	9.99578	3.89734	-23.6555	-4.5767	0.950744
0.6733	-54.1535	331.811	-60.786	1.50624	4.80935	13.9622	8.16585	20.0006	-1.83068	0.950744
0.6740	-64.5257	347.385	-187.703	1.50624	6.03656	14.579	10.6038	112.491	-0.915339	0.950744
0.6747	-89.8555	162.149	-89.1847	-0.64884	3.88065	9.99578	4.50472	182.95	-3.66136	0.950744
0.6753	-88.327	4.68072	-44.2733	-1.25133	2.65343	7.85839	-3.73706	122.542	-5.18692	1.26766
0.6760	-74.8978	-35.3077	-7.97716	-0.64884	2.35492	6.64613	-9.22876	-72.7941	-5.49203	1.26766
0.6767	-64.1981	-32.8806	125.72	0.880569	2.65343	6.02937	-10.1483	-228.129	-6.10226	1.26766
0.6773	-34.2827	-0.52008	178.449	2.40998	4.17916	9.69804	-5.87132	-218.331	-3.96647	0.950744
0.6780	5.34984	21.7567	189.458	3.01247	4.51084	12.7499	-0.6833	-115.181	-1.83068	1.26766
0.6787	16.0495	9.24587	278.004	0.880569	1.45939	9.38966	-0.986988	26.0922	-5.18692	1.26766
0.6793	5.07689	-1.44467	248.09	-2.4795	-0.0663358	8.16677	-0.986988	163.457	-4.27158	-0.633829
0.6800	10.5359	11.7018	118.94	-2.15508	2.35492	11.8248	4.20103	225.997	0.610226	-0.950744
0.6807	23.6922	54.1172	148.295	-0.0231729	4.51084	13.6644	5.41578	287.623	-2.4409	0.633829
0.6813	20.6351	108.119	156.193	0.579322	6.33507	15.7912	2.37046	401.484	-5.79715	0.950744
0.6820	20.3076	133.141	-91.0194	-0.32442	9.08801	17.6309	-0.379611	369.707	-5.79715	0.950744
0.6827	35.2653	95.6081	-283.269	-1.55258	9.68503	15.1851	-2.21018	162.492	-8.54317	0.950744
0.6833	47.166	-3.26495	-168.797	-1.85383	9.68503	13.6644	-1.6028	57.5144	-9.15339	0.950744
0.6840	31.9353	-90.2339	59.749	-1.85383	10.2821	11.5271	-0.986988	150.614	-7.93294	0.950744
0.6847	13.593	-100.318	234.608	-0.32442	10.2821	8.47515	-1.90649	134.116	-7.93294	0.950744
0.6853	26.4217	-54.8396	144.307	2.10873	11.2108	8.47515	-2.81756	-189.041	-6.71249	0.633829
0.6860	38.3223	18.0872	-192.888	2.71123	12.1395	6.64613	-7.70188	-502.756	-5.49203	0.950744
0.6867	26.1487	75.1516	-383.063	0.880569	10.6137	1.14845	-18.3816	-538.798	-8.23805	0.950744
0.6873	11.4639	61.4272	-221.925	-1.25133	8.75633	-0.988944	-22.6586	-338.589	-11.2892	0.950744
0.6880	-5.0223	15.6602	179.406	-2.4795	8.45782	-0.382817	-16.8547	-30.9654	-11.5943	0.950744
0.6887	-38.2677	11.384	476.955	-2.4795	7.56229	-0.988944	-11.0593	229.042	-11.2892	0.950744
0.6893	-60.2676	37.0124	519.074	-0.950087	7.23061	0.840071	-1.6028	337.066	-10.3738	0.950744
0.6900	-16.923	25.4261	369.183	-0.950087	8.15931	3.59423	12.7465	366.661	-8.84828	0.633829
0.6907	52.352	-26.1485	25.9258	-2.4795	8.45782	3.89197	24.0336	416.713	-10.0687	0.633829
0.6913	56.6647	-56.3709	-291.166	-2.78074	7.8608	4.50874	30.7485	295.288	-10.3738	0.950744
0.6920	9.93542	-69.1707	-270.426	-2.15508	7.23061	5.11486	32.8827	-15.9903	-9.76362	0.950744
0.6927	-28.2231	-78.3298	-29.0369	-1.85383	7.23061	4.50874	30.4448	-250.972	-9.76362	0.950744
0.6933	-33.6822	-50.8812	107.692	-0.64884	9.08801	6.02937	29.2216	-370.316	-8.23805	0.950744
0.6940	-8.67985	-14.8512	-0.638173	0.579322	12.1395	9.69804	29.5253	-378.539	-6.40737	0.950744
0.6947	1.41935	-16.9893	-190.814	-0.950087	12.7365	11.8248	28.6142	-265.947	-7.62783	1.26766
0.6953	-16.3225	-39.5839	-175.498	-2.15508	11.2108	11.8248	25.5605	-140.512	-8.54317	1.26766
0.6960	-26.6946	-54.2328	-43.0767	-0.950087	10.2821	11.5271	25.5605	-123.151	-7.32271	1.26766
0.6967	-22.382	-43.8601	-14.9971	-0.64884	9.08801	11.5271	26.48	-128.024	-6.40737	1.26766
0.6973	-15.9949	8.32128	-57.4356	-0.32442	8.45782	11.8248	26.1678	4.41638	-5.49203	0.950744
0.6980	-14.4664	55.9375	-24.1708	0.278074	8.15931	12.1332	25.8642	43.8084	-4.27158	0.950744
0.6987	-13.8659	30.598	64.615	-0.64884	6.63358	9.99578	20.9798	-103.303	-5.18692	0.950744
0.6993	-8.67985	-15.7758	98.518	-1.25133	5.10786	8.16677	14.2734	-175.031	-6.40737	0.950744
0.7000	5.07689	-21.5833	97.6405	-0.950087	5.40637	9.69804	15.1844	-163.101	-5.79715	0.950744
0.7007	16.0495	-37.7347	108.569	-0.0231729	6.33507	11.5271	18.2382	-176.249	-5.49203	0.950744
0.7013	10.263	-68.8817	142.472	0.278074	6.63358	11.8248	18.5419	-193.001	-5.18692	1.26766
0.7020	11.7915	-59.4047	157.709	0.579322	6.9321	12.1332	19.4614	-189.041	-4.5767	1.26766
0.7027	31.9353	-9.07251	116.227	-0.950087	5.10786	10.3042	19.7651	-126.806	-6.10226	0.950744
0.7033	44.4364	58.0756	73.2304	-1.85383	2.98511	7.56064	19.1493	28.8334	-7.93294	0.950744
0.7040	50.8235	133.458	49.0596	-0.950087	4.17916	8.77289	20.3725	210.108	-7.0176	1.26766
0.7047	65.7812	181.97	-99.555	-0.64884	4.80935	10.6125	19.1493	330.67	-5.79715	1.26766
0.7053	69.4388	135.885	-328.739	-0.950087	3.28362	9.38966	17.015	442.044	-6.10226	0.633829
0.7060	48.6945	15.6602	-312.545	-0.950087	2.05641	9.08127	18.2382	447.526	-5.49203	0.633829
0.7067	29.4787	-81.9993	-67.4868	-1.55258	0.829198	8.47515	18.8456	209.499	-5.49203	0.950744
0.7073	24.8931	-115.862	109.846	-1.25133	0.829198	9.08127	17.3187	4.1118	-4.88181	0.950744
0.7080	16.3771	-94.1923	91.8172	0.278074	3.28362	12.1332	17.6308	-91.3733	-3.35624	1.26766
0.7087	-0.709673	-63.0742	-8.29625	-1.55258	3.28362	12.4416	13.9612	-247.317	-3.05113	0.633829
0.7093	-9.88083	-49.6388	24.3303	-4.31015	1.7579	11.8248	9.69273	-308.994	0.915339	-0.950744
0.7100	-8.67985	-31.6382	110.404	-3.38324	3.28362	14.2706	12.1307	-239.094	3.05113	0
0.7107	-4.69476	-22.7968	25.6067	-2.4795	2.05641	12.4416	11.827	-165.538	-3.35624	1.26766
0.7113	1.6923	-29.2112	-146.54	-3.38324	-1.29355	8.47515	7.25479	-70.662	-6.71249	0.950744
0.7120	7.20591	-28.6044	-202.062	-3.08199	-2.52076	8.47515	6.63897	41.3718	-5.49203	0.633829
0.7127	6.00492	-33.4874	-143.509	-1.85383	-2.22225	9.08127	7.25479	133.507	-4.27158	0.950744
0.7133	-0.10918	-40.1906	-45.2305	-0.64884	-1.59206	10.3042	6.94266	112.795	-2.4409	0.950744
0.7140	-2.89328	-30.7425	68.6036	-0.0231729	-1.29355	10.9103	6.94266	-88.6321	-0.610226	0.950744
0.7147	1.0918	-17.596	154.996	-0.0231729	-2.22225	8.77289	3.89734	-268.993	-0.915339	0.950744
0.7153	6.00492	-5.40305	198.631	-0.32442	-3.74798	6.64613	-0.0759222	-235.743	-2.13579	0.950744
0.7160	10.263	11.9907	212.99	-0.32442	-3.44946	6.33775	0.84358	-126.806	-2.4409	1.26766
0.7167	15.722	22.3634	162.575	0.278074	-3.44946	6.64613	2.37046	-141.121	-2.4409	0.950744
0.7173	13.9205	12.9153	46.9855	-0.0231729	-3.74798	7.25226	3.28153	-166.147	-2.4409	0.633829
0.7180	9.00739	-2.65819	-17.1509	-0.32442	-3.11778	8.77289	5.72791	-76.7536	-1.83068	0.950744
0.7187	14.8485	-7.54116	-11.9657	-0.950087	-3.74798	7.85839	5.72791	4.72095	-1.83068	0.950744
0.7193	28.8782	-5.40305	-12.5241	-1.55258	-5.2737	6.33775	3.28153	16.9548	-2.74602	0.950744
0.7200	49.022	-9.36144	-15.3162	-0.950087	-3.74798	7.85839	3.89734	30.9654	-1.83068	0.950744
0.7207	59.6671	-20.3409	-2.79201	-0.950087	-3.11778	8.77289	4.80841	82.8451	-1.22045	0.633829
0.7213	43.2355	-22.479	26.4842	-2.15508	-4.04649	8.16677	3.28153	114.623	-2.13579	0.633829
0.7220	23.6922	-15.169	61.9028	-1.85383	-3.44946	9.08127	4.20103	59.3927	-1.52557	0.950744
0.7227	21.5631	-7.54116	50.5752	-2.4795	-3.11778	9.38966	4.80841	-18.1224	-1.52557	1.26766
0.7233	21.2356	-6.32764	-42.1992	-3.68449	-4.04649	9.38966	4.50472	-27.9196	-3.05113	0.950744
0.7240	16.3771	-13.6377	-116.626	-3.38324	-4.04649	10.9103	8.16585	-10.5079	-1.83068	0.950744
0.7247	9.66247	-20.052	-94.3699	-2.78074	-4.345	9.99578	8.16585	-10.8125	-1.22045	0.950744
0.7253	-0.709673	-21.2655	-61.1051	-2.4795	-5.2737	8.16677	4.80841	-13.5537	-0.610226	1.26766
0.7260	-2.56574	-25.2239	-80.011	-1.55258	-4.345	9.38966	6.33528	-39.4936	1.83068	0.950744
0.7267	7.8064	-32.245	-104.421	0.278074	-4.04649	8.77289	6.63897	-92.287	2.74602	0.950744
0.7273	16.3771	-33.4874	-94.3699	1.18182	-4.64351	8.16677	4.20103	-91.6779	3.05113	0.950744
0.7280	18.5061	-24.3282	-58.3131	2.10873	-4.04649	10.3042	5.72791	-43.1485	4.5767	0.950744
0.7287	17.5781	-13.9555	-8.93442	1.50624	-4.04649	10.9103	7.25479	3.80722	4.88181	0.950744
0.7293	21.5631	-9.36144	34.7804	0.579322	-4.97519	10.6125	6.94266	62.743	3.96647	0.950744
0.7300	35.2653	-2.94712	61.0253	1.18182	-4.64351	12.1332	9.08536	87.16	5.49203	1.26766
0.7307	43.836	-2.65819	81.7659	1.80748	-6.50091	9.99578	8.16585	110.003	5.79715	0.950744
0.7313	36.7938	-12.1063	107.692	0.579322	-8.02664	6.64613	5.72791	186.605	3.96647	0.950744
0.7320	34.0643	-10.286	121.093	-0.64884	-7.39645	6.33775	8.16585	225.692	2.74602	0.950744
0.7327	36.7938	3.43831	102.187	-1.25133	-7.72813	5.72099	9.99642	178.076	1.52557	0.950744
0.7333	24.8931	4.96965	63.0994	-1.25133	-7.09794	5.42324	9.08536	116.45	0.915339	0.950744
0.7340	15.722	-9.36144	11.5669	-0.64884	-4.97519	7.25226	9.69273	102.084	2.4409	0.950744
0.7347	16.9776	-20.9766	-37.8915	-2.15508	-4.04649	9.08127	8.46954	70.3575	1.83068	1.26766
0.7353	13.9205	-10.575	-61.1051	-3.38324	-2.81927	10.6125	7.55848	-17.8178	0.305113	0.950744
0.7360	4.4764	6.501	-40.9229	-2.4795	-1.59206	12.7499	8.46954	-90.155	1.22045	0.950744
0.7367	0.491312	6.501	-5.50424	-1.55258	-1.92374	13.6644	8.46954	-98.1248	2.4409	0.633829
0.7373	7.20591	6.81883	-3.6695	-0.950087	-2.52076	13.0477	6.94266	-68.4792	3.05113	0.633829
0.7380	9.00739	16.8737	-28.1594	-1.25133	-3.44946	10.9103	5.41578	-55.0778	2.74602	0.950744
0.7387	4.14886	15.3424	-54.0852	-3.08199	-5.87072	6.94388	2.67415	-52.3366	0.305113	1.26766
0.7393	6.60542	8.03235	-76.9796	-5.21389	-5.57221	6.33775	1.45096	-35.5341	2.13579	-0.316915
0.7400	12.9925	10.1705	-84.5579	-4.6114	-2.52076	9.99578	5.11209	-20.3052	6.40737	-1.26766
0.7407	10.8635	8.95693	-70.5181	-1.85383	-0.398015	9.69804	7.86216	-10.5079	3.35624	0.633829
0.7413	2.94787	6.501	-42.4385	-0.32442	0.530687	8.16677	6.63897	9.94954	-0.305113	1.58457
0.7420	-1.36476	7.71452	-14.3589	-0.0231729	0.530687	7.85839	6.63897	28.2242	0.610226	1.26766
0.7427	-2.89328	5.89424	1.51566	0.278074	-1.29355	6.33775	6.33528	27.0059	-0.305113	0.633829
0.7433	2.29279	4.68072	3.58972	1.50624	-1.59206	5.72099	5.41578	23.9601	0	0.633829
0.7440	11.4639	5.57641	-0.638173	2.71123	-1.29355	7.25226	5.11209	34.9757	2.4409	0.633829
0.7447	14.521	6.81883	0.239315	2.40998	-3.44946	6.94388	2.67415	41.3718	3.66136	0.633829
0.7453	15.1215	6.501	10.0512	2.71123	-4.97519	6.33775	1.45096	30.9654	4.5767	0.950744
0.7460	12.0644	1.3002	17.9486	2.71123	-4.64351	6.94388	2.06677	15.4319	5.49203	0.950744
0.7467	3.82132	-6.00981	18.5868	-0.950087	-5.57221	6.33775	2.06677	-2.89349	3.96647	0.950744
0.7473	2.62033	-7.22333	19.4643	-3.08199	-5.2737	7.56064	4.20103	-21.5235	1.83068	0.950744
0.7480	9.66247	-3.87171	21.299	-2.4795	-3.44946	9.38966	8.16585	-31.8791	2.4409	0.950744
0.7487	12.392	-0.52008	18.9059	-1.85383	-4.345	7.25226	6.63897	-45.0267	3.05113	1.26766
0.7493	12.0644	3.14937	18.9059	-0.0231729	-4.64351	6.02937	3.58521	-59.0373	3.96647	1.26766
0.7500	11.191	6.18317	23.1338	3.63814	-3.74798	6.33775	1.45096	-62.9968	5.49203	0.950744
0.7507	8.13394	5.57641	23.4529	5.16755	-4.64351	3.89197	-1.29068	-55.3824	5.49203	0.950744
0.7513	5.67738	2.83155	21.9372	5.16755	-4.64351	2.97747	1.14727	-41.9302	4.5767	0.950744
0.7520	5.34984	-0.52008	21.6181	5.16755	-4.345	3.28585	4.50472	-28.8334	5.18692	0.950744
0.7527	6.00492	-2.65819	23.1338	4.54188	-5.57221	2.97747	4.80841	-15.0766	5.79715	0.950744
0.7533	10.8635	-0.809013	27.1224	4.8663	-4.64351	5.72099	10.3001	-2.89349	7.0176	0.950744
0.7540	16.65	1.01127	27.4414	3.63814	-4.345	7.85839	17.015	1.3706	6.71249	0.950744
0.7547	18.779	1.3002	23.4529	1.18182	-6.2024	5.72099	17.9345	0.456867	3.96647	0.633829
0.7553	20.9081	2.54261	20.9799	0.880569	-6.50091	5.42324	17.3187	-0.152289	3.35624	0.633829
0.7560	22.7641	3.43831	17.3104	0.880569	-5.87072	5.11486	15.7918	0.761444	3.05113	1.26766
0.7567	20.9081	4.07396	18.2677	0.278074	-5.87072	5.42324	13.3539	-1.06602	3.35624	0.950744
0.7573	17.9056	4.07396	25.9258	2.71123	-3.11778	9.99578	15.1844	-1.67518	7.32271	0.950744
0.7580	12.7195	-1.44467	24.3303	4.8663	-1.29355	12.4416	13.9612	4.1118	10.0687	0.950744
0.7587	5.07689	-8.46575	13.96	3.63814	-4.64351	8.16677	5.72791	9.94954	8.54317	0.950744
0.7593	3.82132	-7.83009	13.0825	3.63814	-6.50091	5.72099	2.97784	11.4724	9.15339	1.26766
0.7600	8.13394	-4.47847	16.433	4.8663	-6.50091	6.33775	3.28153	9.64496	10.0687	0.950744
0.7607	10.5359	-4.18953	15.7948	3.01247	-7.09794	6.02937	0.84358	7.51292	8.23805	1.26766
0.7613	15.722	-2.34036	17.9486	3.01247	-5.87072	8.47515	2.97784	8.73123	9.4585	1.26766
0.7620	18.5061	-0.52008	19.1452	3.33689	-6.2024	9.08127	5.41578	8.73123	11.8994	0.950744
0.7627	13.9205	-1.44467	15.7948	1.18182	-9.25385	5.72099	1.75465	5.63469	10.0687	0.950744
0.7633	14.1935	-0.809013	17.0711	0.880569	-9.85087	5.72099	3.28153	5.93927	9.4585	0.950744
0.7640	15.449	-0.809013	22.2563	1.18182	-9.85087	5.72099	6.33528	5.93927	9.76362	0.950744
0.7647	12.392	-2.65819	22.8147	0.579322	-10.7796	3.59423	3.89734	3.50264	7.32271	1.26766
0.7653	13.9205	-1.44467	21.299	2.40998	-8.02664	6.94388	5.41578	3.19807	8.23805	0.950744
0.7660	15.1215	-0.202253	22.8147	4.24063	-6.2024	9.08127	6.33528	2.89349	10.0687	0.950744
0.7667	8.73444	-2.34036	17.6295	2.40998	-8.62366	2.97747	-0.6833	-1.67518	7.0176	0.633829
0.7673	6.87837	1.61803	17.3104	3.01247	-8.02664	2.66909	-1.6028	-1.06602	7.0176	0.633829
0.7680	8.40689	9.24587	42.3587	4.8663	-5.87072	4.80648	1.75465	4.72095	9.4585	0.950744
0.7687	4.74935	5.57641	44.5126	1.18182	-8.92217	0.233944	-4.04075	1.3706	6.40737	0.633829
0.7693	13.593	1.93585	8.53557	-0.32442	-7.39645	4.50874	-3.12125	-2.89349	9.4585	-0.950744
0.7700	24.8931	4.96965	-8.29625	2.40998	-2.52076	11.2187	2.97784	-0.152289	13.7301	0
0.7707	15.722	3.75613	-4.62675	1.18182	-5.2737	4.20036	-2.51387	0.152289	6.71249	0.950744
0.7713	6.87837	3.75613	1.51566	-0.32442	-6.50091	-0.0744367	-2.51387	2.28433	2.74602	0.950744
0.7720	12.7195	6.18317	6.38173	1.18182	-2.52076	3.89197	7.55848	7.15758	5.49203	0.950744
0.7727	13.32	3.14937	3.90881	0.880569	-2.52076	1.75458	9.38904	6.24384	3.66136	0.633829
0.7733	7.20591	-0.202253	1.51566	-0.0231729	-2.22225	0.542324	8.16585	6.24384	2.13579	0.633829
0.7740	5.34984	-0.202253	0.877488	1.50624	0.829198	3.89197	9.69273	9.64496	3.66136	0.950744
0.7747	5.34984	-0.52008	-1.91452	1.80748	0.829198	2.97747	6.0316	8.12207	3.05113	0.950744
0.7753	3.82132	0.08668	-3.98858	0.880569	-0.995038	0.233944	0.84358	6.853	2.74602	0.950744
0.7760	1.0918	3.14937	-1.91452	1.80748	-0.995038	0.542324	-2.81756	9.34038	3.96647	0.950744
0.7767	1.0918	7.71452	6.70082	3.63814	0.530687	2.06296	-4.96025	14.2136	5.79715	0.950744
0.7773	3.22082	9.56369	14.5982	4.24063	1.12771	1.45683	-5.87132	16.9548	6.71249	1.26766
0.7780	2.01984	7.10776	15.2364	1.80748	0.232175	-1.29733	-6.47869	13.2999	5.18692	0.950744
0.7787	-1.36476	4.07396	13.4016	0.880569	-0.0663358	-2.21183	-5.87132	11.4724	4.27158	0.950744
0.7793	-5.29525	2.22479	13.0825	1.50624	1.45939	-0.382817	-4.04075	14.2136	4.5767	0.950744
0.7800	-8.07935	1.61803	12.4444	1.18182	2.98511	0.840071	-3.12125	16.0411	3.96647	0.950744
0.7807	-7.15132	1.3002	11.5669	1.80748	3.28362	-0.0744367	-2.81756	13.6045	2.74602	0.633829
0.7813	-4.09427	1.01127	12.4444	3.01247	4.80935	-1.29733	-1.6028	11.4724	1.83068	0.633829
0.7820	-3.76673	1.3002	12.4444	3.01247	5.10786	-2.50958	-3.43337	11.777	1.52557	0.950744
0.7827	-6.22329	0.69344	10.9287	1.80748	2.98511	-4.95536	-8.30926	10.8633	1.22045	1.26766
0.7833	-5.0223	1.3002	11.5669	1.50624	2.98511	-4.95536	-7.3982	10.8633	1.52557	0.950744
0.7840	-3.49377	2.83155	13.0825	1.80748	4.17916	-3.73247	-2.51387	14.2136	2.4409	0.950744
0.7847	-5.89574	3.14937	12.4444	1.18182	2.98511	-4.34923	-3.12125	17.2594	2.74602	0.950744
0.7853	-7.42427	3.43831	11.2478	1.80748	1.45939	-5.56148	-6.47869	17.8686	3.35624	0.950744
0.7860	-6.82378	4.36289	11.5669	3.01247	2.05641	-4.95536	-10.1483	17.8686	4.5767	0.950744
0.7867	-7.75181	5.28748	12.4444	4.8663	2.05641	-4.64698	-13.8094	17.8686	5.49203	0.950744
0.7873	-8.67985	7.10776	13.7207	6.9982	2.65343	-3.73247	-14.4168	18.7823	6.40737	1.26766
0.7880	-7.15132	9.24587	14.2791	7.29945	3.58214	-2.21183	-19.3011	19.0869	7.0176	0.950744
0.7887	-7.42427	8.32128	13.0825	5.77004	2.05641	-3.43472	-33.3383	18.4777	5.49203	0.950744
0.7893	-8.67985	7.10776	12.7635	4.24063	0.232175	-4.64698	-42.1874	19.0869	4.27158	0.950744
0.7900	-7.42427	7.42559	13.96	3.01247	0.829198	-2.81796	-41.5801	20.9143	5.18692	0.950744
0.7907	-5.29525	8.03235	14.2791	1.50624	1.12771	-2.50958	-42.7948	21.8281	4.27158	0.950744
0.7913	-6.22329	8.03235	13.7207	-0.64884	0.530687	-4.04085	-40.9642	21.5235	1.22045	0.950744
0.7920	-8.3523	7.10776	13.4016	-1.55258	0.530687	-5.26374	-33.9457	20.9143	0	0.950744
0.7927	-9.88083	5.89424	13.4016	-1.85383	-0.398015	-6.48662	-35.4725	19.0869	-0.610226	0.950744
0.7933	-9.60788	4.96965	12.7635	-1.55258	-0.0663358	-6.17824	-38.83	17.564	-0.610226	0.950744
0.7940	-6.82378	5.89424	13.4016	0.880569	2.35492	-2.50958	-28.1503	18.7823	2.13579	0.950744
0.7947	-7.42427	4.68072	12.1253	0.880569	3.28362	-3.12634	-18.9974	18.4777	0.915339	0.950744
0.7953	-7.42427	3.14937	10.0512	-0.32442	3.58214	-4.95536	-20.828	17.2594	-1.52557	0.950744
0.7960	-2.89328	4.36289	11.2478	0.880569	5.70488	-2.21183	-15.64	19.696	0.915339	0.950744
0.7967	-3.76673	3.14937	10.2905	-0.32442	5.40637	-2.50958	-7.70188	19.3914	0.305113	0.950744
0.7973	-7.75181	1.3002	8.77488	-3.38324	3.88065	-4.34923	-3.43337	16.3457	-2.13579	0.633829
0.7980	-4.42181	2.83155	11.886	-2.4795	5.10786	-2.81796	7.55848	18.1731	0.915339	0.950744
0.7987	-1.63771	3.14937	12.1253	-1.55258	4.51084	-3.43472	17.015	20.0006	2.4409	1.26766
0.7993	-8.07935	-0.202253	8.53557	-4.31015	1.45939	-7.40113	15.7918	14.8228	0.610226	0
0.8000	-9.60788	0.69344	10.6096	-2.4795	3.58214	-5.56148	20.9798	13.2999	3.66136	-0.316915
0.8007	-0.10918	3.43831	13.7207	1.80748	7.56229	-2.50958	28.3105	17.2594	4.88181	0.950744
0.8013	2.29279	0.08668	10.0512	-0.32442	4.80935	-7.40113	21.5956	15.1274	-0.305113	1.26766
0.8020	0.163771	-2.05143	9.41305	-2.15508	3.28362	-10.453	-1.6028	12.6907	-2.4409	0.633829
0.8027	2.94787	1.01127	14.5982	1.18182	6.9321	-7.69888	-33.9457	15.4319	-0.305113	0.950744
0.8033	6.27788	1.3002	15.5555	2.71123	8.45782	-7.69888	-56.832	14.8228	-0.305113	0.950744
0.8040	8.73444	-1.12684	13.4016	1.80748	7.8608	-10.7508	-71.1813	11.1678	-2.13579	0.950744
0.8047	14.8485	-1.44467	13.7207	2.10873	7.56229	-11.0592	-79.423	10.2541	-1.83068	0.950744
0.8053	20.3076	-0.52008	14.9173	1.80748	6.9321	-9.23015	-59.2784	10.5587	-2.4409	0.950744
0.8060	18.5061	-1.12684	13.4016	-1.55258	5.40637	-10.453	-29.3735	10.2541	-5.79715	0.950744
0.8067	19.4341	-1.12684	12.4444	-3.38324	5.40637	-11.0592	-19.6048	10.5587	-7.32271	0.950744
0.8073	27.9502	-0.52008	11.2478	-4.31015	6.63358	-9.52789	-16.2473	10.2541	-8.23805	0.950744
0.8080	31.3348	-2.05143	8.53557	-6.7433	6.9321	-8.31564	-2.21018	7.81749	-11.8994	1.26766
0.8087	25.8212	-3.26495	6.94013	-7.64704	8.45782	-7.69888	14.5771	7.51292	-15.2557	1.26766
0.8093	12.0644	-3.58277	6.06264	-6.7433	9.98355	-8.31564	27.0874	8.73123	-15.8659	0.950744
0.8100	-14.1389	-3.26495	4.86607	-4.31015	10.6137	-9.52789	44.482	9.64496	-14.0352	0.950744
0.8107	-21.181	-3.26495	3.58972	-2.15508	10.6137	-10.7508	60.3497	10.8633	-11.8994	0.950744
0.8113	5.34984	-3.58277	2.71224	-2.78074	9.38652	-13.1966	69.1989	12.3862	-11.8994	0.950744
0.8120	4.74935	-2.65819	3.58972	-3.68449	7.8608	-15.0256	90.5667	15.7365	-12.2045	1.26766
0.8127	-60.2676	0.404507	8.21648	-3.38324	6.9321	-14.1111	109.488	21.2189	-10.9841	1.26766
0.8133	-157.875	3.43831	13.4016	-2.4795	6.9321	-12.2821	99.1122	25.7876	-8.84828	1.26766
0.8140	-214.976	3.75613	13.7207	-3.08199	5.70488	-12.8882	77.4406	27.9196	-8.54317	0.950744
0.8147	-182.604	4.36289	13.0825	-3.98573	4.80935	-13.1966	65.5377	32.1837	-8.84828	0.950744
0.8153	-95.9696	5.28748	13.7207	-3.68449	6.33507	-11.9737	63.0998	38.9352	-7.62783	0.950744
0.8160	-15.0669	4.07396	11.2478	-4.91265	6.33507	-12.8882	68.8952	44.4176	-7.93294	0.950744
0.8167	37.1214	1.01127	8.53557	-6.44206	5.70488	-14.4194	62.1803	46.245	-9.4585	0.950744
0.8173	82.868	-0.809013	7.57831	-6.14081	6.63358	-13.8027	30.4448	44.7222	-10.0687	0.950744
0.8180	103.612	-2.65819	5.74356	-6.7433	7.8608	-12.8882	-11.6667	40.4581	-10.3738	0.950744
0.8187	92.0391	-6.32764	-0.0797716	-7.64704	6.9321	-15.0256	-54.394	32.4883	-12.8147	0.950744
0.8193	122.883	-9.36144	-5.26493	-6.14081	7.56229	-15.9401	-81.861	26.0922	-13.7301	0.950744
0.8200	164.044	-8.75468	-4.30767	-4.6114	9.68503	-14.1111	-100.175	26.0922	-12.5096	0.950744
0.8207	164.371	-8.46575	-4.30767	-6.44206	7.23061	-14.4194	-128.249	25.483	-14.0352	1.26766
0.8213	152.743	-7.22333	-3.6695	-8.57396	5.70488	-13.8027	-135.572	24.8738	-15.8659	1.26766
0.8220	132.654	0.08668	5.74356	-8.57396	8.15931	-10.1447	-114.516	29.4425	-15.2557	0.950744
0.8227	102.411	10.7772	19.7834	-8.57396	9.38652	-8.31564	-93.4602	34.3665	-15.5608	0.950744
0.8233	47.4935	19.6186	31.9884	-9.80212	9.38652	-8.31564	-82.1647	35.8894	-16.4761	0.950744
0.8240	-45.5828	26.6397	40.2049	-7.3458	10.6137	-6.48662	-74.5387	35.8894	-13.1199	0.950744
0.8247	-202.148	28.4599	42.3587	-5.21389	10.9122	-5.86986	-53.483	30.6608	-9.76362	0.950744
0.8253	-314.767	22.9702	33.8232	-7.97146	7.8608	-10.1447	-20.5243	17.8686	-12.5096	0.950744
0.8260	-241.835	16.5848	24.091	-9.17645	6.03656	-11.9737	14.8807	7.15758	-14.9505	0.950744
0.8267	-97.4981	12.3086	19.4643	-7.64704	6.33507	-9.52789	54.5543	-1.97976	-13.1199	0.950744
0.8273	-2.2382	3.14937	9.73214	-7.64704	4.80935	-8.00726	95.4426	-22.7418	-11.8994	0.950744
0.8280	38.9228	-10.286	-6.14242	-8.27271	2.35492	-7.69888	128.41	-52.9458	-12.8147	0.950744
0.8287	8.73444	-19.7341	-18.6666	-7.64704	1.45939	-6.17824	142.447	-74.6215	-11.2892	0.633829
0.8293	-76.6993	-24.6171	-26.3246	-7.3458	0.530687	-5.86986	135.428	-80.7131	-5.79715	-0.316915
0.8300	-150.287	-24.3282	-28.1594	-8.27271	-0.398015	-5.56148	118.945	-71.8803	-4.5767	0.316915
0.8307	-166.773	-18.5206	-22.017	-8.87521	-0.398015	-4.04085	108.265	-56.2961	-9.76362	0.950744
0.8313	-132.873	-13.3487	-13.1623	-9.4777	-0.696526	-4.64698	102.773	-48.0725	-12.2045	0.950744
0.8320	-95.3145	-13.0309	-8.61534	-9.80212	-0.696526	-7.40113	75.9137	-48.9862	-12.5096	0.950744
0.8327	-65.4537	-13.0309	-9.49282	-8.87521	0.232175	-6.78437	30.1411	-49.9	-11.8994	1.26766
0.8333	-38.5953	-10.8928	-8.93442	-7.3458	1.7579	-4.04085	3.89734	-44.0622	-9.76362	1.26766
0.8340	-31.5532	-11.2106	-9.49282	-9.4777	0.530687	-6.17824	-7.70188	-38.5798	-11.5943	0.950744
0.8347	-17.1959	-10.286	-9.81191	-10.4046	-0.0663358	-7.40113	-23.5696	-33.7066	-14.0352	0.950744
0.8353	-1.03721	-4.18953	-3.98858	-9.17645	1.7579	-3.43472	-40.6605	-26.7013	-11.5943	0.950744
0.8360	18.779	0.69344	1.51566	-10.7059	0.829198	-3.73247	-59.2784	-22.4372	-11.5943	0.633829
0.8367	63.3792	4.68072	6.70082	-12.2353	-0.995038	-5.86986	-71.485	-19.696	-13.1199	0.633829
0.8373	21.8361	12.5975	16.433	-10.4046	1.7579	-1.59507	-69.047	-12.0308	-10.9841	0.950744
0.8380	-123.428	20.2253	24.3303	-7.97146	3.88065	2.06296	-60.5015	-1.06602	-7.93294	1.26766
0.8387	-181.403	20.2253	24.9685	-8.27271	1.12771	-2.21183	-56.5283	2.28433	-9.4585	0.950744
0.8393	-132.272	16.8737	24.091	-9.4777	-1.29355	-3.73247	-59.2784	0.761444	-10.9841	0.950744
0.8400	-88.327	14.4467	22.2563	-8.57396	-0.398015	0.840071	-54.394	0.152289	-8.23805	0.950744
0.8407	-42.8533	7.71452	12.4444	-8.87521	-1.92374	1.75458	-32.1151	-7.76673	-7.0176	0.950744
0.8413	11.7915	-1.44467	-0.319087	-10.7059	-4.64351	-0.0744367	-0.6833	-24.5693	-7.93294	0.950744
0.8420	42.3074	-4.79629	-4.94584	-8.87521	-3.11778	4.20036	34.7133	-37.9707	-5.18692	0.950744
0.8427	56.9376	-6.32764	-6.14242	-7.04455	-1.59206	7.25226	42.9551	-46.5496	-2.4409	0.950744
0.8433	60.5951	-9.9682	-10.131	-9.17645	-4.345	3.28585	23.1225	-52.6412	-5.18692	0.950744
0.8440	50.5505	-9.36144	-10.6894	-10.7059	-4.97519	1.45683	17.9345	-50.8137	-7.32271	0.950744
0.8447	50.8235	-6.00981	-7.97716	-9.4777	-3.11778	3.89197	28.3105	-41.6256	-6.10226	0.950744
0.8453	49.6225	-4.79629	-6.4615	-8.57396	-4.04649	3.89197	35.6328	-30.0517	-6.10226	0.950744
0.8460	13.32	-3.26495	-4.62675	-9.4777	-6.2024	2.06296	38.3829	-13.8583	-8.23805	0.950744
0.8467	-37.6673	1.61803	0.558401	-8.57396	-4.97519	3.59423	44.482	5.93927	-7.93294	0.950744
0.8473	-60.5406	6.18317	6.06264	-8.27271	-4.345	5.42324	38.3829	20.0006	-7.0176	0.950744
0.8480	-42.8533	8.95693	8.77488	-9.17645	-5.87072	5.11486	-4.04075	27.0059	-8.23805	0.950744
0.8487	13.593	9.56369	8.77488	-9.4777	-5.87072	4.20036	-43.1069	30.0517	-9.76362	0.950744
0.8493	71.8953	10.4594	7.25922	-9.80212	-4.97519	3.28585	-46.4644	31.8791	-10.3738	0.950744
0.8500	101.811	13.5221	11.2478	-8.27271	-3.74798	4.20036	-54.6977	34.6711	-9.15339	0.950744
0.8507	114.639	15.3424	15.7948	-6.44206	-2.22225	4.50874	-76.9767	34.3665	-8.23805	0.950744
0.8513	125.012	15.0534	14.9173	-6.14081	-0.398015	5.72099	-82.4684	28.5288	-6.71249	0.950744
0.8520	179.929	12.5975	9.09397	-6.7433	-0.995038	5.72099	-75.1461	20.3052	-5.79715	0.950744
0.8527	271.204	11.0661	5.10538	-6.14081	-1.29355	5.11486	-59.8857	14.5182	-6.10226	0.950744
0.8533	307.78	14.4467	6.70082	-4.31015	0.232175	6.94388	-33.3383	12.3862	-4.27158	0.950744
0.8540	265.09	17.4805	9.41305	-3.38324	-0.0663358	7.56064	-8.92508	11.1678	-3.05113	1.26766
0.8547	145.756	20.2253	13.7207	-3.68449	0.232175	7.25226	2.97784	9.34038	-4.5767	0.950744
0.8553	-110.927	26.9575	23.1338	-2.4795	2.35492	9.38966	6.94266	12.0816	-3.96647	0.633829
0.8560	-407.516	32.4472	27.9998	-0.950087	2.98511	9.69804	15.1844	15.7365	-2.13579	0.950744
0.8567	-457.302	27.5642	18.2677	-0.950087	1.7579	8.16677	35.0254	9.64496	-1.83068	0.950744
0.8573	-262.852	14.4467	0.558401	-0.64884	0.829198	9.69804	65.234	-7.76673	-0.610226	0.950744
0.8580	-89.255	3.75613	-11.9657	-0.950087	-0.0663358	10.9103	91.1741	-22.1326	0.915339	0.633829
0.8587	-7.42427	-0.52008	-16.1936	-2.78074	-1.92374	7.25226	87.513	-24.2647	0.915339	0.950744
