MR32 ASCII
Name	TYR30_fast
Frequency	1500
Date	07-09-2015 14:10:49
"Time,s"	"RT TIB.ANT.,uV"	"RT MED. GASTRO,uV"	"RT LAT. GASTRO,uV"	"RT BICEPS FEM.,uV"	"RT VMO,uV"	"RT VLO,uV"	"RT RECTUS FEM.,uV"	"RT SOLEUS,uV"	"RT SEMITEND.,uV"	"Channel 12,uV"
0.0000	-60.1406	-9.50619	-6.38146	-1.84037	5.16464	-2.14284	0.99327	-9.25882	7.89619	-5229.48
0.0007	-26.8243	-7.08423	-1.51754	5.18134	11.2857	0.898612	24.7844	-5.01229	10.0192	-10263.2
0.0013	-3.92377	-6.78149	-1.20625	9.7681	10.3566	-2.76496	27.8352	-3.75922	12.7754	-9954.68
0.0020	22.6152	-6.78149	-3.96896	11.297	8.52576	-6.72807	17.1694	-3.75922	13.0734	-9593.54
0.0027	47.2992	-4.05678	-3.34638	9.7681	11.8869	-3.66357	10.7604	-1.04423	10.9504	-9912.39
0.0033	33.8871	-4.96502	-4.86392	3.65242	10.9851	-3.36403	-0.851374	-0.696152	6.07113	-9802.77
0.0040	-3.92377	-8.29521	-3.96896	0	9.75544	-4.58523	-9.6962	-0.696152	1.19188	-9801.51
0.0047	7.63351	-8.29521	-0.58367	-0.311447	12.816	-3.36403	-28.9231	1.74038	-4.61853	-9816.23
0.0053	83.0412	-5.57051	1.55645	-1.52892	17.3794	-2.14284	-68.8903	5.36037	-12.552	-9816.55
0.0060	159.59	-4.66227	1.82883	-5.49279	18.9097	-1.22119	-93.6038	8.77151	-21.1186	-9798.07
0.0067	171.504	-5.57051	-2.10121	-10.391	15.8492	-1.22119	-86.6036	9.67651	-27.5249	-9813.1
0.0073	132.766	-3.69349	-6.38146	-11.6085	16.1771	-1.54377	-96.962	9.95497	-29.9459	-9908.32
0.0080	107.44	-0.666039	-9.45546	-11.9199	16.7783	-1.22119	-152.514	9.67651	-31.771	-9562.21
0.0087	83.6119	0.847686	-11.868	-13.732	14.6468	1.52073	-199.505	8.77151	-32.7021	-10069.3
0.0093	30.534	2.9669	-12.1793	-13.4488	15.248	4.56218	-229.114	5.98691	-29.648	-10071.5
0.0100	-3.6384	5.14666	-14.942	-13.732	17.0788	3.04146	-271.541	2.36692	-27.5249	-4580.49
0.0107	21.6877	6.96313	-19.2222	-16.1952	17.0788	0	-295.025	0.208846	-29.052	110.253
0.0113	35.0999	9.08235	-17.3934	-17.1013	18.9097	0.599075	-268.183	2.36692	-28.7168	110.253
0.0120	-30.534	10.2933	-16.1482	-18.3187	19.8388	2.44238	-206.837	5.70845	-26.8917	-220.505
0.0127	-159.305	12.7758	-21.051	-19.8476	18.3085	2.74192	-128.416	5.98691	-25.9978	98.6635
0.0133	-277.731	18.528	-24.0861	-16.7898	20.1394	1.82027	-38.0753	7.7969	-22.3105	-11.2758
0.0140	-314.044	21.3132	-24.3974	-11.6085	21.0411	-2.76496	34.859	9.04997	-17.7292	-12.8419
0.0147	-268.885	22.827	-25.915	-7.33315	20.1394	-6.10595	91.6173	9.04997	-14.0791	1.25287
0.0153	-198.329	26.1572	-25.6037	-2.46326	21.3417	-3.98615	175.549	8.77151	-7.97068	-0.313217
0.0160	-141.898	22.5242	-21.946	0.906027	20.7406	-3.36403	254.584	2.92384	-2.79346	0
0.0167	-79.6168	16.106	-14.3194	4.27531	21.0411	-4.88476	290.295	-2.57576	-0.0372462	-0.313217
0.0173	-5.49327	12.7758	-10.3504	5.49279	21.3417	-7.64972	308.292	-3.48076	1.48985	-0.313217
0.0180	36.598	6.96313	-8.83288	6.08737	21.3417	-10.9907	315.623	-8.98036	0.856662	-0.313217
0.0187	30.534	-3.69349	0.622582	10.3627	24.4023	-13.7326	295.19	-23.3211	0.856662	-0.313217
0.0193	-13.6975	-18.3463	7.04295	9.14521	22.5714	-17.3962	247.561	-41.6299	-0.335216	-0.313217
0.0200	-88.4631	-25.37	3.69658	5.77592	18.0079	-15.8755	196.005	-48.661	-0.670431	0
0.0207	-138.545	-13.1997	-6.07017	9.7681	21.3417	-5.50688	160.602	-37.9403	1.48985	-0.313217
0.0213	-129.698	5.75215	-25.6037	9.14521	22.2708	6.40549	127.635	-24.2261	3.31491	-0.939652
0.0220	-85.4668	20.7077	-39.3394	7.61629	21.6696	13.1105	90.1037	-14.7584	6.3691	-0.313217
0.0227	-15.5524	29.2452	-35.3704	12.5145	25.9325	16.175	69.6471	-9.88536	11.8443	-0.313217
0.0233	64.0644	23.4325	-32.6466	10.9856	21.3417	13.1105	55.0082	-16.5684	14.0046	-0.313217
0.0240	111.364	9.99058	-28.0551	7.61629	16.1771	10.0691	40.9605	-27.5676	13.6693	-0.313217
0.0247	81.4717	3.57239	-13.4244	10.3627	20.44	10.9677	40.3693	-28.8207	14.8985	-0.313217
0.0253	-3.92377	-1.27153	-9.45546	7.92773	17.0788	6.08291	39.1395	-25.7576	14.6005	-0.313217
0.0260	-66.8467	-6.78149	-13.1131	3.02953	10.6572	1.52073	31.8083	-26.9411	12.7754	-0.313217
0.0267	-52.7925	-8.9007	-9.14417	3.65242	12.5154	3.96311	26.9365	-32.4407	12.7754	0
0.0273	25.0408	-8.59795	-5.17521	5.49279	13.7177	4.88476	21.7337	-37.0353	13.6693	-0.313217
0.0280	78.7607	-8.29521	-9.76675	4.27531	9.45485	2.44238	13.8112	-38.5668	13.6693	0
0.0287	68.987	-7.99246	-14.942	1.81205	6.39432	1.52073	7.09478	-38.5668	13.0734	0
0.0293	-17.6926	-6.78149	-16.4595	-0.311447	6.9955	2.44238	3.1217	-37.9403	12.1423	0
0.0300	-87.607	-4.05678	-15.5645	-0.93434	7.624	3.96311	0.685829	-31.8141	12.7754	0
0.0307	-20.4036	-0.363294	-15.8369	-2.46326	7.624	3.66357	-3.59469	-21.7896	13.0734	0
0.0313	53.0779	2.66415	-16.4595	-4.89821	9.15426	3.96311	-8.159	-12.6003	11.2483	-0.313217
0.0320	43.3755	2.05867	-12.8018	-6.11568	12.1875	5.48384	-8.159	-8.07536	10.6152	0
0.0327	6.70607	-3.39074	-10.0391	-10.391	11.5863	5.1843	-7.54412	-9.25882	9.12531	0.313217
0.0333	-11.914	-8.9007	-8.52159	-14.6663	10.6572	5.1843	-10.3111	-9.88536	6.66706	0
0.0340	18.9054	-11.3227	-6.07017	-14.9494	10.056	3.04146	-13.6693	-7.10075	6.96503	0
0.0347	32.6743	-12.5942	-5.79779	-14.9494	6.9955	-0.921653	-15.4903	-3.75922	8.49213	0
0.0353	10.9865	-12.2914	-4.24134	-11.6085	6.09373	0	-13.0544	-2.57576	10.9504	0.313217
0.0360	21.6877	-11.0199	-2.10121	-3.96387	6.39432	1.52073	-12.1321	-8.07536	14.3025	0.313217
0.0367	-40.3078	-13.8052	-4.24134	-0.622893	3.0332	-1.22119	-17.9261	-18.7265	16.4256	0
0.0373	-206.604	-15.9244	-4.55263	0.59458	0.901763	-3.66357	-23.7202	-19.6315	18.2506	0
0.0380	-276.447	-15.3189	-2.10121	4.55845	0.300588	-4.58523	-25.5649	-9.53728	20.0757	0
0.0387	-223.655	-14.7134	-0.894961	6.71026	-1.83085	-6.10595	-25.2574	1.74038	20.7089	0
0.0393	-146.178	-14.1079	0.311291	5.77592	-3.36112	-7.02761	-25.2574	11.765	21.0068	0
0.0400	-50.3669	-13.8052	3.69658	7.92773	-3.06053	-7.32714	-26.771	19.1442	22.8319	0
0.0407	28.1084	-14.1079	7.62663	12.5145	-2.75994	-7.32714	-18.2336	23.1122	25.2901	0
0.0413	61.9242	-14.1079	8.87179	11.8916	-3.6617	-7.32714	-4.8008	25.8272	25.2901	0
0.0420	80.9009	-16.5299	8.24921	8.23918	-6.12106	-7.32714	-1.13517	27.0803	22.8319	0
0.0427	108.938	-18.0436	11.9069	9.7681	-5.19197	-3.66357	4.04403	26.1057	22.5339	0
0.0433	138.259	-16.8326	14.6696	13.1091	-2.75994	0.599075	12.274	22.7642	23.1299	0
0.0440	152.599	-15.3189	5.79779	10.6741	-7.02282	-1.84331	11.0679	17.6126	22.236	0
0.0447	160.232	-9.20344	-1.51754	9.7681	-6.72223	-2.14284	6.78734	16.9861	22.236	0
0.0453	124.205	1.15043	-4.55263	11.5802	-0.929089	2.1198	2.19938	19.1442	22.5339	0
0.0460	36.598	9.08235	-18.2883	6.71026	-2.75994	2.1198	-7.54412	16.0811	20.0757	-0.313217
0.0467	-2.71097	22.2215	-32.3353	6.71026	-0.628502	6.08291	-9.38876	15.4546	19.7777	-0.313217
0.0473	25.9682	38.3881	-38.4444	12.203	5.49256	10.0691	-8.77388	18.1696	22.8319	0
0.0480	35.0999	43.5953	-46.3823	12.203	3.6617	6.08291	-17.3113	13.018	24.061	0
0.0487	5.49327	40.5073	-49.1061	11.297	2.43203	3.96311	-22.8215	2.64538	24.061	0
0.0493	-20.7603	35.0579	-41.4795	13.1091	4.86406	6.40549	-25.8723	-4.66422	23.4651	0
0.0500	-28.0371	22.5242	-33.8529	11.297	2.73262	4.26265	-38.6902	-11.4169	20.7089	0
0.0507	-14.0542	10.2933	-25.3313	10.6741	1.83085	1.82027	-51.5081	-18.0999	19.4797	0.313217
0.0513	16.1945	-0.060549	-14.0081	11.8916	3.6617	3.66357	-54.2514	-27.5676	19.4797	0.313217
0.0520	33.6017	-13.8052	-6.07017	10.3627	0.601175	4.56218	-52.0993	-40.7249	18.5858	0
0.0527	35.742	-24.7645	0	9.14521	-3.36112	4.56218	-49.6635	-46.2245	18.2506	0.313217
0.0533	54.0053	-28.1553	4.59154	9.7681	-5.49256	6.08291	-45.4066	-42.5349	18.2506	0
0.0540	87.3216	-26.9443	7.62663	11.8916	-5.49256	6.70503	-41.741	-36.1303	17.6547	0
0.0547	134.906	-22.9481	7.04295	12.7976	-6.12106	3.96311	-49.6635	-29.0991	16.1276	0.313217
0.0553	189.839	-19.3151	4.90283	11.297	-9.15426	0	-66.4545	-19.0049	14.3025	0.313217
0.0560	226.152	-15.3189	4.28025	10.0512	-10.9851	-1.22119	-78.35	-7.44882	13.3714	0.313217
0.0567	261.252	-10.4144	2.76271	9.14521	-12.2148	-2.14284	-82.0157	1.74038	11.5463	0.313217
0.0573	296.637	-5.57051	-1.51754	7.02171	-14.0456	-4.88476	-76.2216	7.7969	9.72125	0
0.0580	274.022	-0.363294	-2.10121	8.83376	-11.9142	-3.36403	-62.1739	13.2965	10.3172	0
0.0587	187.699	2.05867	0.933872	10.9856	-10.0834	-1.22119	-53.0217	19.1442	11.8443	0.313217
0.0593	105.87	0.544941	-0.58367	8.23918	-12.5154	-4.58523	-46.9202	21.2326	10.0192	0.313217
0.0600	-4.56584	-1.27153	-2.72379	6.08737	-13.7451	-5.80642	-38.6902	16.7076	7.59822	0
0.0607	-156.237	-0.666039	-3.03509	7.61629	-12.5154	-5.50688	-37.4604	9.67651	6.66706	0
0.0613	-245.628	0.242196	-4.86392	8.83376	-12.2148	-6.10595	-34.7171	4.17691	6.96503	0.313217
0.0620	-250.55	5.44941	-6.38146	10.6741	-9.48218	-3.36403	-15.7977	5.08191	8.49213	0.313217
0.0627	-197.116	11.2016	-10.3504	10.9856	-7.65132	-1.22119	16.5545	8.14498	9.12531	0
0.0633	-102.232	12.4731	-15.2533	8.83376	-8.85367	-2.44238	54.7008	8.77151	8.19416	0
0.0640	-19.5475	12.7758	-13.7357	8.23918	-6.72223	1.22119	85.8232	8.77151	7.89619	0
0.0647	1.85487	11.5649	-10.973	8.83376	-3.98962	4.88476	88.2591	5.98691	6.96503	0
0.0653	-20.1182	8.47686	-7.31533	9.45665	-3.06053	5.78337	72.6979	1.11384	7.263	0
0.0660	-8.56095	7.56862	-3.03509	9.7681	-1.22968	10.0691	63.5456	-2.85422	7.263	0
0.0667	51.2943	6.66039	-4.55263	7.61629	-3.36112	10.6681	51.65	-8.07536	5.43794	0
0.0673	94.3131	6.66039	-7.00404	6.39881	-6.42165	7.3041	42.4977	-11.6954	3.91085	0
0.0680	81.4717	6.0549	-3.65767	7.61629	-6.12106	7.62668	49.2141	-12.0434	3.61288	0
0.0687	16.1945	2.66415	0.622582	8.52231	-5.19197	8.52529	55.9305	-13.8534	3.01694	0.313217
0.0693	-49.4395	1.45318	6.10908	10.9856	-3.36112	10.6681	46.1634	-16.9165	3.01694	0.313217
0.0700	-50.0102	0.847686	9.76675	12.5145	-3.06053	12.811	30.886	-19.353	3.01694	0.313217
0.0707	-38.1675	-3.088	8.5605	10.3627	-5.82047	11.2903	22.0411	-22.973	3.01694	0.313217
0.0713	-108.011	-5.87325	9.18308	10.3627	-7.02282	9.44695	13.1963	-25.7576	2.68172	0
0.0720	-221.229	-4.35953	7.62663	9.45665	-7.95191	7.3041	-1.44261	-21.4415	1.48985	0
0.0727	-277.089	4.84392	0.622582	9.14521	-8.2525	7.62668	-11.5172	-9.53728	0.558693	0.313217
0.0733	-212.668	19.4968	-6.69275	12.203	-3.98962	10.6681	-9.6962	0.835382	1.48985	0.313217
0.0740	-81.757	26.8232	-14.942	11.297	-4.29021	7.62668	-8.77388	0.487306	1.78782	0
0.0747	-21.0457	25.5517	-17.6658	9.7681	-6.42165	4.88476	-9.08132	-5.91729	0.558693	0.313217
0.0753	-9.41704	21.616	-12.8018	10.6741	-5.19197	6.08291	-4.8008	-9.25882	-0.670431	0.313217
0.0760	38.7383	14.5923	-10.973	7.92773	-8.85367	3.04146	-6.33801	-8.98036	-2.49549	-0.313217
0.0767	100.734	11.8676	-5.17521	9.45665	-7.95191	3.66357	-7.54412	-4.1073	-2.79346	-0.626435
0.0773	149.246	13.0786	4.28025	12.7976	-2.75994	6.40549	-4.20957	1.74038	-1.26637	0
0.0780	173.645	10.5961	2.76271	8.52231	-6.12106	2.44238	-7.26033	1.11384	-3.09143	0
0.0787	175.499	9.99058	0.622582	6.39881	-7.95191	0.299537	-12.1321	0.487306	-4.61853	0
0.0793	163.871	13.0786	1.55645	7.30484	-5.82047	0.898612	-14.568	0.487306	-4.02259	0
0.0800	158.092	10.2933	-0.894961	4.55845	-8.85367	-1.54377	-20.0782	-5.56921	-4.91649	0
0.0807	173.074	11.8676	-1.20625	7.02171	-6.42165	0.898612	-19.1559	-8.98036	-4.32056	0.313217
0.0813	142.254	23.1297	-5.4865	11.5802	-1.53026	5.1843	-12.747	-4.66422	-2.79346	0
0.0820	12.1993	33.1808	-17.977	10.0512	-4.59079	4.26265	-10.9023	-1.04423	-2.19752	0
0.0827	-121.137	43.2925	-27.7438	8.83376	-7.02282	3.96311	-10.3111	3.55037	-1.26637	0
0.0833	-144.038	53.9491	-32.9579	9.14521	-6.42165	3.96311	-9.08132	11.4865	-1.26637	0
0.0840	-118.997	57.6426	-34.4755	9.45665	-6.72223	2.74192	-6.95289	15.1761	-1.86231	0.313217
0.0847	-108.653	56.6738	-27.1601	13.4205	-3.06053	6.70503	-0.236493	13.2965	-0.670431	0
0.0853	-67.1321	55.1601	-22.5686	15.544	-1.83085	7.92622	4.65891	10.5815	-0.335216	0
0.0860	2.4256	51.5272	-25.6037	13.4205	-5.49256	4.88476	2.50682	9.95497	-0.9684	0
0.0867	58.0004	46.32	-24.7087	13.4205	-6.42165	4.88476	-0.543933	11.4865	-0.670431	0
0.0873	87.607	40.5073	-21.6347	12.7976	-6.42165	3.66357	-4.8008	9.04997	-0.670431	0
0.0880	105.014	30.4561	-14.942	13.1091	-6.12106	1.82027	-6.64545	-2.22769	-0.670431	0
0.0887	105.014	17.6198	-3.03509	15.8555	-3.36112	3.34099	-3.59469	-18.0999	0.260723	0
0.0893	82.3991	7.56862	1.82883	14.638	-5.19197	2.74192	-5.10824	-28.4726	-0.670431	0
0.0900	65.9193	2.66415	0.311291	10.9856	-9.78276	0	-9.08132	-30.6307	-2.19752	0.313217
0.0907	64.7065	3.57239	-0.58367	10.6741	-10.9851	-0.921653	-9.38876	-28.8207	-2.19752	0
0.0913	60.1406	6.96313	-1.51754	10.9856	-10.9851	-0.322579	-6.95289	-22.4161	-1.86231	0
0.0920	53.7199	9.99058	-0.58367	12.5145	-9.48218	1.22119	-4.20957	-11.0688	-1.86231	0.626435
0.0927	50.0815	10.8988	0.311291	13.4205	-7.95191	1.82027	-3.59469	-2.85422	-2.49549	0.313217
0.0933	40.5932	9.38509	-1.20625	11.5802	-9.78276	0.898612	-5.10824	0.208846	-3.09143	0
0.0940	25.9682	8.47686	-3.03509	11.297	-11.313	0.599075	-4.49336	3.27191	-3.3894	0
0.0947	17.1219	10.8988	-8.2103	10.6741	-12.816	-0.622116	-3.59469	6.61344	-4.61853	0
0.0953	20.4749	14.5923	-10.3504	11.5802	-11.313	0.599075	-2.05749	9.32843	-4.91649	-0.313217
0.0960	24.1133	17.317	-5.4865	14.638	-6.42165	4.56218	1.60815	12.3915	-4.32056	0
0.0967	20.1182	16.7115	-4.55263	13.4205	-6.72223	3.96311	1.30071	13.2965	-5.25171	0
0.0973	8.27558	13.0786	-5.4865	11.297	-8.55309	1.22119	-0.851374	12.3915	-6.14562	0
0.0980	-13.1268	8.47686	-3.96896	11.297	-7.95191	1.52073	0.99327	13.018	-5.54968	0
0.0987	-8.84631	5.44941	-3.34638	10.9856	-7.65132	1.82027	1.91559	13.923	-5.84765	0
0.0993	26.2536	5.44941	-1.51754	12.203	-5.82047	3.34099	0.99327	14.828	-6.14562	-0.313217
0.1000	61.0681	6.35764	0	13.1091	-4.29021	5.48384	2.19938	14.828	-6.14562	0
0.1007	97.9515	6.66039	-0.272379	13.4205	-3.36112	6.08291	3.1217	13.018	-5.84765	0.313217
0.1013	129.698	6.35764	-2.10121	13.732	-3.06053	5.48384	3.1217	10.86	-5.25171	0.313217
0.1020	158.734	6.66039	-8.2103	12.203	-5.49256	3.66357	1.30071	7.7969	-5.25171	0
0.1027	198.685	10.2933	-16.1482	10.9856	-7.95191	3.34099	-0.236493	4.45537	-4.61853	0
0.1033	219.446	14.895	-19.5335	10.9856	-7.32341	5.1843	0.685829	2.92384	-4.91649	0
0.1040	208.744	16.106	-19.5335	10.0512	-7.65132	6.40549	2.50682	2.36692	-6.14562	-0.313217
0.1047	196.83	17.317	-19.5335	8.83376	-8.55309	6.70503	2.50682	2.64538	-6.44359	0
0.1053	170.006	18.8307	-20.7398	9.14521	-8.85367	6.40549	1.30071	3.55037	-5.84765	0
0.1060	84.8247	18.2252	-23.7748	7.92773	-10.9851	4.26265	-1.75005	2.92384	-6.7788	-0.626435
0.1067	-46.3718	19.194	-25.02	7.30484	-12.2148	3.96311	-3.59469	3.55037	-7.07677	-0.626435
0.1073	-133.337	23.1297	-23.4635	9.14521	-10.9851	6.08291	-1.75005	7.7969	-5.25171	0
0.1080	-122.707	24.3407	-25.3313	9.14521	-11.9142	4.56218	-2.67237	10.5815	-5.84765	0.313217
0.1087	-74.7656	20.7077	-24.3974	9.45665	-12.5154	3.04146	-4.20957	10.5815	-7.07677	-0.313217
0.1093	-22.5438	15.8033	-19.2222	10.6741	-12.816	3.66357	-4.20957	10.2334	-6.44359	0
0.1100	38.1675	10.5961	-16.1482	10.3627	-14.6468	3.04146	-6.03056	9.32843	-7.07677	0
0.1107	79.9735	6.66039	-10.3504	12.203	-10.9851	3.34099	-5.10824	6.33498	-6.44359	0
0.1113	82.1137	2.36141	-7.62663	13.1091	-7.32341	3.04146	-3.28725	-0.696152	-5.25171	0
0.1120	64.4211	1.75592	-14.0081	10.6741	-8.55309	1.52073	-3.59469	-5.01229	-4.91649	0
0.1127	58.5711	4.23843	-17.6658	10.3627	-7.32341	2.1198	-0.543933	-1.04423	-3.09143	0.313217
0.1133	35.0999	4.84392	-16.7708	11.297	-7.02282	3.34099	2.19938	5.36037	0.260723	0
0.1140	-20.4036	6.0549	-15.8369	14.0434	-8.85367	6.40549	4.35147	9.67651	1.19188	0
0.1147	-35.6706	7.87137	-12.4905	18.0073	-8.2525	10.0691	7.40222	13.923	-1.26637	0
0.1153	-18.3347	6.66039	-10.973	18.6019	-10.3839	9.44695	7.09478	16.0811	-5.54968	0
0.1160	-18.3347	4.54117	-12.8018	16.1669	-15.8765	7.3041	4.96635	14.2015	-9.49777	0
0.1167	-0.57073	4.84392	-13.4244	14.3265	-18.0079	8.52529	5.27379	12.7396	-13.1851	0.313217
0.1173	43.9462	4.84392	-12.1793	13.1091	-17.4068	9.14741	6.17246	12.3915	-14.377	0.313217
0.1180	98.3082	3.93568	-9.14417	15.2609	-15.2753	10.3686	8.60834	13.6446	-14.0791	0
0.1187	150.459	2.66415	-4.55263	18.9133	-14.3462	11.8893	11.3753	16.0811	-13.1851	-0.313217
0.1193	188.626	-1.57427	-3.96896	18.6019	-16.4777	10.6681	11.0679	16.7076	-13.1851	0
0.1200	210.599	-5.26776	-5.4865	18.6019	-15.5759	10.6681	10.7604	15.1761	-14.0791	0
0.1207	165.44	-4.66227	-4.24134	21.6597	-12.2148	12.5114	11.9665	14.5496	-13.7811	0
0.1213	61.6388	-4.96502	-3.34638	22.8772	-11.313	13.1105	12.274	13.2965	-13.1851	0
0.1220	-6.064	-6.176	-1.82883	21.9711	-8.55309	14.3317	12.8889	12.7396	-13.4831	0
0.1227	-31.3901	-7.08423	-0.894961	16.4784	-7.02282	14.9538	12.274	12.113	-15.0102	0
0.1233	-28.3938	-9.80893	-1.82883	8.52231	-7.65132	13.7326	8.91578	10.86	-18.6603	-0.313217
0.1240	-16.4798	-10.4144	-0.272379	3.65242	-5.49256	15.2534	8.32454	10.86	-21.1186	0
0.1247	-33.245	-8.29521	0	-3.68073	-4.29021	16.175	8.32454	12.3915	-21.7145	0
0.1253	-30.8194	-6.47874	0	-11.9199	-3.98962	14.3317	6.78734	14.828	-22.3105	0
0.1260	17.1219	-5.26776	4.28025	-17.4127	0.601175	14.0322	6.78734	17.2646	-23.8375	-0.313217
0.1267	67.7742	-6.78149	7.04295	-23.5001	3.33379	13.4101	6.17246	17.6126	-24.7687	-0.313217
0.1273	124.49	-10.1117	4.90283	-25.029	3.96229	11.2903	3.73659	17.8911	-23.5396	0
0.1280	156.594	-10.1117	0.933872	-23.5001	3.0332	9.74648	0.99327	17.2646	-22.9436	0
0.1287	47.2992	-4.96502	-0.58367	-18.6302	1.50294	9.14741	-0.236493	17.8911	-21.7145	0
0.1293	-126.06	4.84392	-0.58367	-6.42713	2.73262	10.0691	0.685829	20.0492	-16.8353	-0.313217
0.1300	-147.676	13.0786	-3.96896	7.02171	4.86406	10.0691	0.378388	19.7011	-10.7269	-0.313217
0.1307	-59.2132	17.0143	-10.3504	15.544	4.56347	8.52529	-3.28725	17.2646	-4.61853	0
0.1313	-22.9005	22.5242	-17.6658	20.4422	3.6617	7.92622	-6.95289	19.1442	-1.86231	0
0.1320	-32.3176	28.9424	-22.5686	23.1886	1.50294	8.22576	-8.159	22.4857	-3.3894	0
0.1327	-28.3938	29.8506	-23.7748	22.8772	-0.929089	8.84787	-8.159	18.1696	-5.25171	0
0.1333	-26.5389	29.2452	-21.946	24.7175	0.601175	11.2903	-6.95289	12.3915	-3.72462	0
0.1340	-5.49327	27.7314	-18.2883	26.5296	2.43203	13.1105	-5.41568	10.2334	-2.49549	0
0.1347	45.8011	19.7995	-15.2533	21.9711	0.601175	11.2903	-7.26033	3.55037	-5.25171	0
0.1353	34.8145	10.5961	-9.45546	16.4784	0.601175	11.8893	-7.54412	-5.91729	-7.37474	0
0.1360	-55.5035	6.66039	-7.00404	11.8916	1.50294	14.9538	-5.10824	-9.88536	-7.97068	0.313217
0.1367	-114.146	9.08235	-9.76675	5.18134	3.96229	17.3962	-3.59469	-7.10075	-10.131	-0.626435
0.1373	-87.607	11.8676	-9.14417	-8.55063	7.32341	20.7372	-1.75005	-4.66422	-12.254	-0.939652
0.1380	-48.512	6.0549	-6.69275	-28.0868	6.09373	20.7372	-2.05749	-9.88536	-15.9041	0
0.1387	-45.159	-2.48251	-3.03509	-37.8549	3.96229	19.8155	-2.97981	-17.195	-19.2563	0.313217
0.1393	-54.9327	-7.68972	1.82883	-39.0724	3.33379	19.516	-2.67237	-21.163	-19.8895	0
0.1400	-57.3583	-11.3227	3.074	-34.7971	3.0332	17.0736	-2.97981	-23.5995	-17.4312	0
0.1407	-50.0102	-12.5942	5.52541	-17.4127	4.26288	13.4101	-1.75005	-24.8526	-9.1998	-0.313217
0.1413	-28.0371	-12.2914	7.93792	-1.52892	2.73262	8.52529	-1.13517	-25.1311	1.78782	0
0.1420	14.0542	-13.5024	7.93792	6.08737	-0.929089	2.1198	-2.97981	-22.973	11.8443	0.313217
0.1427	51.5797	-12.8969	9.76675	16.7898	-2.75994	-1.54377	-3.59469	-16.5684	21.6028	0.313217
0.1433	54.9327	-11.9887	12.2182	28.6814	-6.42165	-3.66357	-3.90213	-6.54383	28.0464	0.313217
0.1440	54.6474	-12.2914	14.9809	36.0146	-10.9851	-4.28569	-3.90213	2.36692	28.3443	0
0.1447	63.779	-11.9887	17.7047	38.761	-12.816	-2.44238	-2.36493	5.08191	26.1841	-0.313217
0.1453	57.3583	-11.9887	16.8097	34.7688	-15.8765	-2.76496	-2.97981	3.55037	23.4651	0
0.1460	51.2943	-12.8969	15.8758	28.0585	-18.6364	-2.44238	-4.49336	2.92384	18.8838	0
0.1467	75.051	-11.686	17.3934	24.4061	-18.3085	0	-4.20957	5.36037	15.1964	0.313217
0.1473	98.5936	-7.68972	14.9809	20.1308	-18.6364	0.299537	-4.20957	9.32843	13.6693	0.313217
0.1480	68.7016	-1.87702	11.3232	18.2904	-17.7073	1.22119	-2.67237	13.6446	12.7754	0.313217
0.1487	0.642071	5.14666	8.87179	21.3483	-15.2753	3.04146	-0.543933	16.3596	13.3714	0
0.1493	-60.9967	8.7796	4.59154	22.5657	-15.2753	3.34099	-1.13517	16.9861	14.0046	0
0.1500	-120.21	9.68784	3.38529	23.5001	-13.1439	5.1843	-1.13517	17.8911	13.6693	0
0.1507	-173.359	11.5649	2.14012	24.4061	-10.9851	6.08291	0.0709478	18.1696	13.6693	0
0.1513	-160.518	15.8033	-5.17521	23.5001	-10.3839	5.48384	-0.543933	16.7076	13.3714	0
0.1520	-88.4631	24.6434	-12.4905	25.3121	-5.49256	8.52529	2.19938	15.733	13.6693	0
0.1527	-24.3987	32.8781	-19.5335	25.3121	-2.45935	11.2903	3.42914	14.2015	12.7754	0
0.1533	21.0457	34.7551	-26.5375	21.0368	-3.98962	11.2903	1.60815	9.32843	10.3172	0
0.1540	39.6657	31.0616	-25.6037	19.2248	-2.75994	11.8893	1.30071	4.45537	8.49213	0.313217
0.1547	37.2401	21.3132	-20.1172	18.0073	-2.75994	11.5898	0.378388	-1.60115	6.3691	0.313217
0.1553	58.9278	11.5649	-13.1131	15.544	-1.83085	12.811	0.378388	-6.82229	3.31491	0.313217
0.1560	87.3216	6.35764	-4.24134	13.732	0.300588	15.5529	3.1217	-5.91729	1.19188	0.313217
0.1567	98.3082	2.36141	0.933872	10.6741	-1.22968	15.2534	2.19938	-3.48076	-0.0372462	0.313217
0.1573	121.137	-2.78525	4.59154	8.52231	-3.36112	13.1105	-0.236493	-5.56921	-0.335216	0
0.1580	128.486	-10.7172	6.73166	6.08737	-6.72223	10.6681	-2.67237	-16.0115	-1.26637	0
0.1587	121.779	-19.9206	11.3232	5.18134	-8.55309	8.84787	-4.49336	-30.0041	-1.26637	0
0.1593	152.884	-25.9755	20.7787	6.71026	-6.72223	10.0691	-3.28725	-39.1933	0.260723	0.313217
0.1600	183.704	-28.1553	25.3313	6.08737	-7.95191	9.44695	-3.59469	-38.2884	-0.335216	0
0.1607	182.205	-27.5498	25.3313	6.39881	-10.0834	7.3041	-6.03056	-30.0041	-0.335216	0
0.1613	174.287	-23.5536	24.4363	8.52231	-10.6845	5.48384	-7.26033	-19.0049	2.38375	0
0.1620	151.671	-16.5299	19.5335	10.3627	-11.9142	3.04146	-9.08132	-5.29075	5.13997	0
0.1627	61.6388	-6.176	12.2182	12.7976	-13.1439	1.52073	-10.3111	6.61344	6.96503	-0.313217
0.1633	-53.0779	3.26964	6.73166	14.9494	-11.9142	2.44238	-10.0036	11.4865	8.7901	0
0.1640	-74.4802	6.96313	4.28025	13.4205	-11.313	2.44238	-9.38876	11.208	10.0192	0.313217
0.1647	-21.9731	8.47686	2.45142	9.7681	-11.6136	1.82027	-10.0036	9.67651	10.9504	0.313217
0.1653	-7.34815	14.2896	-3.96896	9.14521	-12.2148	0.898612	-11.5172	10.5815	12.1423	0
0.1660	-70.1998	20.405	-12.8018	11.297	-13.4445	-1.22119	-13.6693	13.018	12.4775	-0.626435
0.1667	-128.486	21.3132	-13.7357	17.0729	-12.5154	-0.921653	-13.3618	14.5496	14.3025	-0.626435
0.1673	-117.784	19.4968	-8.2103	23.1886	-9.48218	0.299537	-11.2098	14.828	17.0587	0.313217
0.1680	-82.3991	16.7115	-5.4865	23.7832	-10.3839	-1.22119	-11.5172	13.923	16.7235	0.313217
0.1687	-51.2943	15.1978	-7.31533	21.3483	-12.816	-3.36403	-13.3618	10.2334	14.8985	0
0.1693	-24.3987	10.5961	-7.00404	18.9133	-14.3462	-4.28569	-15.4903	2.92384	13.0734	0
0.1700	-15.267	-2.48251	0.933872	17.0729	-14.3462	-3.98615	-15.1828	-10.7904	11.2483	0
0.1707	-19.5475	-14.7134	10.078	17.0729	-12.5154	-2.44238	-12.747	-22.6945	10.6152	0.313217
0.1713	-17.0506	-18.3463	14.047	16.4784	-11.6136	-2.14284	-11.8246	-21.7896	10.0192	0
0.1720	9.48838	-19.6179	14.9809	14.0434	-13.7451	-3.66357	-13.3618	-17.195	7.89619	-0.313217
0.1727	34.5291	-21.7371	14.6696	10.6741	-15.5759	-4.88476	-14.8754	-18.0999	5.73591	0
0.1733	35.0999	-21.1316	14.6696	9.14521	-14.9747	-4.58523	-14.568	-19.6315	4.842	0
0.1740	31.7468	-17.7408	15.2922	9.45665	-13.4445	-3.66357	-13.0544	-17.195	4.20882	0
0.1747	35.0999	-15.0161	15.5645	8.83376	-12.5154	-3.36403	-12.1321	-12.3219	3.01694	0.313217
0.1753	35.0999	-15.6216	14.9809	5.77592	-12.5154	-3.66357	-12.747	-5.91729	2.08579	0.313217
0.1760	30.2487	-15.9244	14.047	3.34097	-12.816	-4.28569	-14.2605	-1.04423	0.856662	0.313217
0.1767	23.5426	-12.5942	12.5295	2.43495	-12.816	-4.28569	-14.568	2.36692	-0.335216	0
0.1773	-13.4121	-7.38697	10.078	1.81205	-10.9851	-3.0645	-12.747	5.70845	-0.670431	0.313217
0.1780	-77.8333	-2.78525	6.42037	2.43495	-7.95191	-0.921653	-10.5949	7.51844	0.260723	0.313217
0.1787	-110.151	3.93568	1.55645	2.74639	-6.42165	-0.322579	-10.0036	7.7969	1.19188	0
0.1793	-116.572	7.56862	-3.34638	1.52892	-7.32341	-0.921653	-11.5172	7.23998	0.856662	0
0.1800	-118.07	6.66039	-5.4865	0.59458	-8.55309	-2.44238	-13.0544	5.08191	0.856662	0
0.1807	-86.3229	9.99058	-5.17521	3.96387	-7.32341	-2.44238	-12.4395	4.80345	2.38375	0.313217
0.1813	-35.0999	14.895	-5.17521	7.02171	-5.49256	-1.22119	-11.5172	4.80345	3.31491	0.313217
0.1820	22.6152	12.4731	-3.34638	7.30484	-5.82047	-0.921653	-11.8246	2.36692	2.68172	0.313217
0.1827	59.8553	7.56862	-3.03509	6.08737	-7.02282	-3.0645	-12.4395	-0.13923	2.38375	0.313217
0.1833	37.5255	6.96313	-4.24134	3.96387	-8.85367	-5.50688	-12.4395	-0.13923	3.01694	0.313217
0.1840	14.9817	6.35764	-1.82883	3.34097	-10.3839	-6.42853	-12.4395	-0.417691	3.91085	0.313217
0.1847	30.534	2.9669	4.28025	4.27531	-10.9851	-6.72807	-11.8246	-2.22769	4.20882	0
0.1853	54.6474	0.242196	8.5605	5.49279	-10.0834	-7.32714	-9.38876	-2.57576	5.13997	0
0.1860	69.5577	-1.57427	8.87179	5.18134	-10.3839	-7.64972	-9.08132	-0.696152	6.07113	0.313217
0.1867	54.6474	-4.96502	8.24921	2.1235	-12.5154	-8.87091	-11.2098	-0.13923	6.07113	0.313217
0.1873	31.7468	-8.29521	9.76675	-0.311447	-13.1439	-9.46999	-11.8246	-2.22769	4.842	0
0.1880	54.9327	-8.9007	11.9069	-2.46326	-11.9142	-9.17045	-10.5949	-5.01229	3.91085	0
0.1887	99.8064	-9.20344	12.2182	-5.49279	-9.78276	-8.54833	-10.0036	-5.56921	4.20882	0
0.1893	105.87	-9.20344	11.3232	-7.33315	-8.55309	-7.64972	-10.3111	-3.75922	4.20882	0.313217
0.1900	79.6881	-8.59795	9.18308	-10.391	-8.85367	-8.87091	-11.2098	-2.22769	2.68172	0.313217
0.1907	75.9784	-6.176	5.21412	-15.2609	-8.85367	-9.17045	-11.5172	-0.417691	0.856662	0
0.1913	103.801	0.847686	0.933872	-16.1952	-6.72223	-7.32714	-10.3111	2.92384	-0.335216	0
0.1920	111.078	9.38509	-2.72379	-10.391	-3.98962	-5.50688	-7.85156	5.98691	-0.335216	0
0.1927	97.9515	15.5005	-6.07017	-3.05784	-3.36112	-4.28569	-7.26033	6.33498	0.260723	0
0.1933	67.1321	18.528	-10.3504	1.21747	-3.98962	-3.36403	-7.54412	5.70845	0.558693	0
0.1940	-19.8329	17.9225	-11.868	1.81205	-3.36112	-1.84331	-6.33801	4.80345	-0.670431	0.313217
0.1947	-120.567	13.9868	-11.2843	-0.311447	-2.15877	-0.921653	-4.8008	2.92384	-3.09143	0.313217
0.1953	-169.364	8.47686	-10.0391	-2.46326	-1.83085	-0.921653	-5.41568	1.11384	-5.84765	-0.313217
0.1960	-133.693	2.9669	-5.17521	-2.74639	-1.53026	0	-4.49336	0.487306	-7.67271	-0.626435
0.1967	-18.9054	-1.87702	1.24516	-3.05784	-0.929089	1.22119	-2.67237	-0.696152	-8.90183	0
0.1973	94.5984	-6.176	4.28025	-4.27531	-0.327914	0.599075	-3.59469	-3.13268	-10.7269	0.313217
0.1980	161.445	-9.80893	7.35425	-5.80423	1.83085	0.898612	-4.8008	-5.56921	-12.552	0
0.1987	205.677	-14.1079	12.8407	-9.17352	3.33379	1.82027	-4.20957	-5.01229	-14.7122	0
0.1993	261.252	-19.9206	18.016	-14.9494	3.0332	1.82027	-3.90213	-4.38576	-17.1332	0
0.2000	318.324	-24.159	21.6736	-19.2248	3.96229	2.74192	-3.28725	-5.56921	-19.8895	0
0.2007	337.872	-25.9755	21.3623	-19.8476	4.56347	2.1198	-2.97981	-6.19575	-22.9436	0
0.2013	312.475	-20.8288	16.4984	-20.7537	5.16464	1.22119	-3.90213	-2.57576	-24.4707	0
0.2020	137.046	-4.35953	8.24921	-19.8476	8.82635	2.74192	-2.67237	5.70845	-22.9436	0.313217
0.2027	-193.192	17.317	-3.96896	-16.1952	10.6572	3.96311	-2.05749	12.7396	-21.7145	0
0.2033	-417.774	33.4836	-13.7357	-14.0434	10.9851	4.56218	-2.36493	14.5496	-20.4854	0
0.2040	-461.435	40.5073	-16.7708	-12.203	11.5863	4.26265	-2.67237	15.733	-18.0644	0.313217
0.2047	-410.426	38.3881	-16.1482	-9.7681	9.75544	1.22119	-4.20957	17.2646	-16.2393	0.313217
0.2053	-285.936	31.3644	-12.1793	-8.86207	7.92458	-0.622116	-5.41568	16.7076	-15.0102	0
0.2060	-157.735	24.6434	-7.00404	-13.1374	7.32341	-0.622116	-5.41568	16.9861	-16.8353	0
0.2067	-79.0461	21.0105	-5.4865	-27.1808	7.624	1.52073	-5.41568	16.7076	-23.2416	0.313217
0.2073	-36.0273	17.6198	-4.24134	-47.9345	10.056	4.26265	-4.20957	5.98691	-29.648	0
0.2080	-36.598	9.68784	-0.894961	-68.0652	10.9851	3.04146	-3.90213	-13.2269	-33.2981	0
0.2087	-73.2674	-0.363294	3.96896	-82.4201	10.056	1.82027	-3.90213	-24.5045	-35.4584	0
0.2093	-110.793	-7.08423	9.49437	-84.8551	10.056	3.04146	-2.36493	-25.4095	-33.9313	0
0.2100	-125.132	-8.29521	7.93792	-74.4641	8.22517	0.898612	-3.59469	-28.1942	-26.8917	0
0.2107	-111.364	-4.96502	3.96896	-51.2754	7.32341	-2.44238	-4.20957	-30.9091	-14.377	0
0.2113	-93.1003	-0.060549	1.55645	-21.9711	6.69491	-6.42853	-2.36493	-30.0041	2.38375	0
0.2120	-99.1643	7.26588	-5.4865	1.52892	3.33379	-12.5114	-3.59469	-24.8526	16.7235	0.313217
0.2127	-89.1052	16.106	-13.7357	16.1669	1.83085	-14.9538	-7.85156	-16.9165	24.657	0
0.2133	-23.828	20.7077	-20.1172	22.8772	0.901763	-16.175	-10.9023	-10.7904	29.5362	0
0.2140	19.5475	20.7077	-23.1912	25.935	0.601175	-18.0183	-8.77388	-9.53728	33.2236	0.313217
0.2147	11.2719	18.8307	-17.977	30.5218	3.0332	-17.3962	-5.41568	-10.7904	35.0486	0.313217
0.2153	14.6249	14.895	-10.6617	31.7392	3.0332	-18.0183	-5.10824	-12.9484	33.8195	0.313217
0.2160	40.8785	9.08235	-5.17521	28.0585	1.50294	-18.3179	-6.03056	-13.2269	30.1694	0
0.2167	67.1321	1.15043	-0.58367	21.9711	1.50294	-17.0967	-6.64545	-13.5053	29.5362	0
0.2173	79.0461	-7.99246	2.76271	14.9494	1.83085	-16.175	-6.95289	-19.353	30.4674	0.313217
0.2180	84.254	-12.2914	5.52541	8.52231	2.73262	-14.6543	-6.03056	-23.878	21.6028	0
0.2187	75.4077	-12.2914	9.49437	0	4.26288	-12.834	-4.49336	-18.7265	9.72125	0
0.2193	37.5255	-11.0199	11.9069	-7.6446	3.96229	-11.9124	-3.59469	-12.6003	6.3691	0
0.2200	14.6249	-6.47874	9.76675	-12.203	4.56347	-10.0691	-2.36493	-9.25882	5.43794	0
0.2207	12.5561	-0.060549	5.21412	-14.0434	5.79315	-8.87091	-2.05749	-5.91729	-1.26637	0
0.2213	-22.9005	2.9669	2.76271	-10.9856	6.69491	-8.87091	-2.05749	-3.13268	-11.3228	-0.313217
0.2220	-67.1321	4.23843	4.28025	-4.89821	8.52576	-7.94926	0.0709478	-1.60115	-12.552	-0.313217
0.2227	-81.1863	5.14666	5.52541	-0.311447	9.45485	-6.42853	0.99327	-0.417691	-4.61853	0.313217
0.2233	-71.1272	5.14666	4.59154	0	9.15426	-7.02761	0.378388	0.208846	-2.49549	0
0.2240	-34.1724	3.57239	4.59154	-3.36929	9.75544	-6.42853	0.378388	0.208846	-7.07677	0
0.2247	0	2.66415	5.79779	-6.11568	11.2857	-4.58523	0.99327	-0.417691	-6.44359	0.313217
0.2253	-15.5524	2.66415	6.42037	-7.33315	13.1166	-3.0645	2.19938	-2.85422	18.2506	0
0.2260	-55.2181	3.93568	5.52541	-9.7681	13.7177	-1.54377	2.81426	-4.66422	64.3614	0
0.2267	-47.87	4.84392	3.69658	-13.732	14.0183	-0.622116	2.50682	-5.29075	63.4302	0
0.2273	-6.99144	3.57239	2.14012	-18.0073	13.7177	-0.622116	2.19938	-7.10075	-12.8499	0
0.2280	9.77375	1.45318	2.76271	-18.3187	13.1166	-1.22119	1.91559	-5.29075	-90.0612	0
0.2287	21.4024	1.75592	5.52541	-11.9199	14.6468	-0.622116	2.50682	1.3923	-107.157	0
0.2293	38.7383	1.45318	6.73166	-5.20965	15.5486	0	2.50682	2.92384	-85.8152	-0.626435
0.2300	40.5932	-1.87702	6.42037	-1.21747	14.0183	-0.322579	1.91559	-2.22769	-78.1797	-0.626435
0.2307	28.6792	-4.66227	7.62663	0	13.1166	0	2.50682	-5.56921	-76.6526	0.313217
0.2313	21.9731	-5.26776	9.18308	-1.84037	13.1166	-1.84331	3.1217	-5.01229	-29.9459	0.313217
0.2320	37.5255	-4.35953	10.7006	-6.11568	13.7177	-2.76496	3.73659	-2.57576	41.157	0
0.2327	62.2809	-3.69349	12.2182	-13.4488	14.3462	-0.921653	4.04403	-0.696152	46.0363	0.313217
0.2333	82.3991	-1.57427	11.3232	-21.0651	13.1166	0.299537	3.1217	-0.13923	-2.79346	0.313217
0.2340	94.8838	1.15043	9.49437	-24.7175	12.5154	0.299537	2.50682	-0.417691	-7.97068	0
0.2347	94.5984	3.57239	6.42037	-28.6814	12.5154	1.22119	2.50682	-0.417691	26.8172	0
0.2353	93.1003	4.23843	4.59154	-36.9489	12.5154	2.1198	2.19938	1.74038	26.8172	0
0.2360	96.7387	2.9669	6.73166	-38.4495	14.3462	3.34099	3.1217	5.98691	-4.91649	0.313217
0.2367	97.3808	2.66415	7.35425	-29.3043	16.1771	6.08291	4.04403	8.42344	-28.4188	0.313217
0.2373	74.7656	6.0549	1.82883	-27.4639	15.248	7.62668	3.42914	9.32843	-41.5667	0.313217
0.2380	18.3347	11.2016	-4.86392	-33.5796	14.0183	6.70503	2.81426	9.67651	-40.9335	0.313217
0.2387	-24.3987	14.5923	-7.93792	-34.4856	13.7177	5.1843	3.1217	8.77151	-46.446	0.313217
0.2393	-49.1541	16.106	-7.62663	-30.2103	13.7177	6.08291	4.04403	6.8919	-59.2587	0.313217
0.2400	-86.9649	17.0143	-4.55263	-23.1886	14.6468	7.92622	6.4799	4.45537	-52.8523	0.626435
0.2407	-94.5984	14.895	-2.72379	-15.8838	12.5154	6.08291	5.86502	0.487306	-32.7021	0.313217
0.2413	-57.6437	10.8988	-2.4125	-10.7024	8.52576	1.82027	1.91559	-3.48076	-15.0102	0
0.2420	-14.3396	7.56862	2.14012	-6.42713	9.75544	1.82027	1.91559	-4.66422	4.20882	0
0.2427	12.5561	2.9669	7.62663	-2.74639	11.8869	3.34099	4.65891	-3.48076	38.4008	0
0.2433	12.1993	-1.27153	10.7006	0.283133	12.1875	2.74192	5.27379	-1.60115	58.551	0
0.2440	0.285365	-3.39074	10.078	2.1235	10.9851	0.898612	4.65891	-1.04423	57.9178	0
0.2447	-2.4256	-4.66227	8.5605	4.86989	10.056	-1.22119	2.81426	-1.04423	73.1887	0
0.2453	6.13534	-3.088	9.18308	7.92773	10.6572	-2.14284	1.30071	-0.13923	89.9867	0
0.2460	26.8956	-1.27153	7.04295	7.30484	8.82635	-3.0645	-0.236493	0.487306	92.1098	0
0.2467	50.6523	-0.363294	5.79779	7.61629	7.624	-3.36403	-1.13517	-0.13923	91.8118	0
0.2473	66.8467	0.847686	7.62663	10.9856	7.92458	-4.28569	-1.13517	-0.696152	98.8141	0.313217
0.2480	94.5984	0.847686	8.5605	10.9856	5.79315	-8.2488	-1.75005	-1.04423	126.6	0.313217
0.2487	129.128	-0.363294	10.078	1.52892	4.56347	-10.9907	-1.44261	-0.417691	126.004	0
0.2493	157.165	-0.060549	10.078	-15.5723	4.86406	-9.76952	-0.851374	0.208846	46.6322	0
0.2500	191.337	3.26964	7.62663	-27.7754	5.16464	-7.32714	-0.236493	2.01884	-71.7734	0.313217
0.2507	208.744	7.56862	7.62663	-24.4344	6.9955	-4.28569	1.60815	5.08191	-188.652	0
0.2513	180.065	7.87137	7.62663	-12.5145	7.32341	-3.66357	2.50682	6.33498	-230.144	0
0.2520	101.305	5.44941	5.21412	-1.21747	6.39432	-5.80642	1.60815	5.70845	-165.447	0.313217
0.2527	-26.8243	5.75215	3.96896	7.30484	6.9955	-6.42853	1.91559	5.08191	-88.5341	0
0.2533	-183.989	9.68784	0.933872	8.83376	6.9955	-6.42853	2.50682	6.61344	-37.2834	0.313217
0.2540	-288.718	13.0786	-2.72379	6.08737	6.9955	-5.50688	3.73659	9.04997	11.2483	0.626435
0.2547	-260.324	13.3813	-2.10121	1.21747	8.52576	-2.44238	6.4799	10.2334	57.9178	0.313217
0.2553	-162.658	14.2896	-3.96896	-9.7681	7.92458	-0.921653	7.40222	10.2334	93.0409	0
0.2560	-66.2047	17.6198	-6.69275	-21.0651	6.39432	-1.22119	5.27379	11.208	102.501	-0.313217
0.2567	-2.14024	19.4968	-7.31533	-25.935	4.26288	-1.84331	3.42914	12.113	82.0533	-0.313217
0.2573	-1.85487	16.7115	-5.4865	-20.4422	3.0332	-1.84331	3.1217	12.113	53.9697	0
0.2580	-14.3396	10.5961	0	-6.11568	5.79315	0.898612	4.96635	6.61344	27.7112	0.313217
0.2587	-40.8785	3.26964	3.96896	5.49279	7.32341	2.44238	5.55758	-2.85422	-26.8917	0.313217
0.2593	-92.7436	-0.363294	6.10908	6.39881	6.9955	3.34099	4.35147	-8.98036	-84.884	0.313217
0.2600	-111.078	-1.87702	9.18308	2.1235	7.624	5.48384	3.1217	-8.98036	-93.4134	0.313217
0.2607	-86.0375	-4.35953	9.18308	0.59458	6.39432	4.88476	0.378388	-6.82229	-81.8298	0.313217
0.2613	-40.5932	-4.66227	9.76675	5.77592	6.69491	3.66357	-0.851374	-3.48076	-69.0172	0
0.2620	-4.56584	-2.17976	11.5956	12.7976	8.22517	4.88476	-0.236493	1.11384	-38.1773	0
0.2627	18.6201	-0.060549	11.0119	16.7898	6.69491	4.88476	-0.851374	4.17691	-15.9041	0.313217
0.2633	40.0224	1.45318	9.49437	16.1669	5.16464	3.96311	-0.851374	3.55037	-6.14562	0.313217
0.2640	77.8333	5.44941	4.28025	9.14521	4.26288	13.1105	-0.543933	1.74038	3.61288	0
0.2647	125.775	15.8033	-5.17521	-5.20965	3.96229	32.0275	-0.543933	2.92384	-29.9459	0
0.2653	90.9601	26.4599	-10.3504	-13.1374	4.26288	42.4191	-0.236493	6.61344	-28.1209	0
0.2660	-32.3176	32.8781	-11.2843	-10.0795	4.26288	43.0182	-0.851374	9.04997	129.356	0
0.2667	-141.256	35.0579	-12.4905	-18.6302	4.56347	41.797	-1.13517	9.04997	261.505	0.313217
0.2673	-191.623	31.0616	-11.868	-40.2899	4.86406	37.8339	0.0709478	6.8919	108.61	0.313217
0.2680	-183.062	24.9462	-8.2103	-47.623	4.56347	33.8708	1.30071	4.45537	-192.935	0.313217
0.2687	-95.8113	21.3132	-2.4125	-36.6375	4.56347	29.5851	1.30071	2.36692	-256.701	0
0.2693	34.8145	18.2252	1.55645	-26.2465	3.33379	17.3962	-1.13517	-0.13923	-102.874	0
0.2700	120.281	14.5923	3.69658	-18.6302	2.73262	3.66357	-2.97981	-0.13923	-25.3646	0.313217
0.2707	153.526	9.68784	6.10908	-4.58676	1.50294	-4.58523	-4.49336	0.835382	-28.4188	0.313217
0.2713	170.006	2.05867	10.078	14.9494	-0.929089	-13.1336	-6.95289	-4.38576	-15.0102	0
0.2720	161.16	-4.66227	14.047	32.0224	-1.22968	-19.8386	-7.85156	-12.3219	-1.56434	0
0.2727	140.4	-6.47874	14.9809	36.2977	-0.628502	-19.8386	-8.159	-14.1319	-4.32056	0.313217
0.2733	145.893	-3.39074	14.9809	29.5874	-1.53026	-20.1612	-8.77388	-8.63228	37.1717	0.313217
0.2740	84.254	2.36141	13.7357	21.6597	-3.6617	-24.7233	-9.6962	-1.32269	126.004	0
0.2747	-85.7521	9.68784	10.078	28.37	-5.19197	-29.9076	-9.6962	2.01884	126.6	0
0.2753	-157.165	13.9868	7.93792	43.0079	-6.42165	-31.1288	-6.95289	2.36692	66.4844	0.313217
0.2760	-97.9515	13.6841	8.5605	37.5152	-8.55309	-28.3869	-1.44261	1.74038	132.708	0.313217
0.2767	-83.6119	13.0786	10.7006	14.0434	-9.78276	-25.645	3.1217	2.01884	299.645	0
0.2773	-104.372	13.3813	12.8407	-12.8259	-7.65132	-25.3455	4.65891	3.27191	279.197	0.313217
0.2780	-89.7473	12.1703	13.4244	-25.029	-4.59079	-24.4238	5.55758	2.36692	-11.0249	0.313217
0.2787	-60.7114	9.99058	13.4244	-10.7024	-1.53026	-22.6035	5.27379	-1.60115	-178.893	0
0.2793	-20.1182	10.5961	10.3893	6.71026	4.56347	-20.1612	4.65891	-2.22769	-94.3446	0
0.2800	23.1859	15.1978	5.79779	12.203	13.4171	-16.4976	6.17246	2.36692	-3.72462	0
0.2807	29.6066	20.1023	1.82883	18.9133	17.3794	-15.8755	6.78734	5.08191	90.2847	0
0.2813	9.48838	22.5242	-1.51754	32.6453	15.5486	-17.7188	4.65891	2.64538	266.683	0
0.2820	-0.285365	23.1297	-0.272379	38.1381	13.4171	-16.175	4.04403	-1.60115	489.154	0.313217
0.2827	-9.41704	24.0379	1.55645	22.2826	10.056	-15.8755	2.81426	-4.66422	574.001	0
0.2833	-28.9645	26.4599	0.622582	-10.7024	4.86406	-13.1336	0.0709478	-4.1073	306.052	-0.313217
0.2840	-37.2401	25.8544	3.69658	-47.623	3.0332	-7.32714	0.685829	-2.85422	-102.874	0
0.2847	-30.8194	20.405	7.93792	-58.2971	0.901763	-27.7878	1.91559	-5.91729	-339.089	0.313217
0.2853	-18.6201	14.2896	10.078	-25.029	-5.49256	-62.2577	0.685829	-9.53728	-440.399	0
0.2860	4.92254	12.1703	11.5956	24.0946	-13.4445	-72.0272	-0.851374	-11.4169	-436.153	-0.313217
0.2867	26.2536	12.1703	11.9069	47.0001	-17.7073	-68.9857	1.60815	-11.4169	-316.518	0
0.2873	31.1048	11.8676	12.2182	38.1381	-16.1771	-69.8844	7.09478	-11.4169	-200.869	0
0.2880	24.1133	12.4731	14.3583	27.4639	-13.4445	-70.806	10.453	-11.6954	-124.551	-0.313217
0.2887	11.2719	13.6841	16.8097	35.7031	-9.48218	-65.6217	8.60834	-11.0688	-53.7462	0
0.2893	11.2719	14.2896	17.121	43.6308	-6.12106	-56.4743	6.17246	-10.5119	-78.7757	0.313217
0.2900	26.2536	14.5923	16.4984	28.6814	-7.02282	-50.0688	3.73659	-9.88536	-187.423	0
0.2907	25.3261	14.2896	17.121	15.8555	-9.15426	-45.4836	0.378388	-7.10075	-206.344	0
0.2913	1.2128	14.2896	17.3934	37.232	-13.7451	-43.9629	-3.90213	-4.1073	-129.132	0.313217
0.2920	-29.892	13.9868	16.4984	79.6454	-19.5382	-42.7417	-9.6962	-2.57576	5.73591	0.313217
0.2927	-50.3669	15.8033	15.5645	117.783	-16.4777	-32.0505	-12.747	0.487306	168.427	0
0.2933	-39.9511	21.0105	11.3232	150.457	-6.42165	-17.7188	-11.8246	4.45537	305.419	0
0.2940	2.78231	26.4599	2.14012	183.102	0.601175	-10.3916	-9.08132	6.8919	430.864	0
0.2947	46.7285	29.8506	-3.03509	190.407	3.96229	8.84787	-4.20957	8.77151	495.56	0
0.2953	48.8687	31.6671	-2.10121	145.559	1.20235	46.0827	0.685829	11.4865	399.13	0
0.2960	8.84631	32.8781	-2.72379	84.8267	-5.49256	85.4373	5.27379	13.018	22.5339	0
0.2967	-20.1182	33.7863	-3.65767	109.856	-6.72223	120.529	12.274	11.765	-468.184	0
0.2973	-30.8194	36.2688	-0.894961	204.451	1.83085	133.363	17.1694	9.04997	-603.388	0.313217
0.2980	-44.8736	35.9661	3.69658	223.987	22.872	132.142	18.9904	6.33498	-382.146	0
0.2987	-49.4395	25.2489	6.42037	198.052	40.8799	127.856	17.1694	0.835382	-134.012	0
0.2993	-36.8834	13.3813	8.5605	218.494	42.4102	109.538	9.22322	-5.91729	71.0657	0.313217
0.3000	-16.7652	12.1703	10.078	261.53	34.4856	80.852	1.30071	-11.6954	248.059	0
0.3007	7.63351	16.7115	9.76675	314.618	20.1394	49.4237	-1.75005	-14.48	315.512	0
0.3013	28.1084	21.0105	11.5956	375.038	3.96229	14.6312	-4.49336	-12.9484	245.005	0
0.3020	33.8871	21.616	14.9809	394.575	-11.6136	-19.539	-9.08132	-9.88536	193.419	0
0.3027	25.6115	14.895	14.9809	360.089	-25.6319	-43.3407	-13.0544	-7.72729	306.35	0
0.3033	17.1219	4.54117	14.3583	285.342	-31.753	-56.1517	-14.568	-6.19575	497.087	0
0.3040	15.9091	7.56862	14.9809	191.341	-34.4856	-57.6955	-15.4903	-3.48076	578.88	0
0.3047	16.4798	20.7077	14.3583	119.001	-39.0764	-53.7093	-17.6187	-2.22769	453.733	0
0.3053	14.3396	21.9187	13.4244	42.1019	-40.9073	-53.4098	-16.72	-4.1073	165.373	0.313217
0.3060	11.6286	17.9225	13.4244	-39.6953	-40.3061	-54.9305	-11.5172	-6.54383	-70.8422	0
0.3067	10.4158	22.2215	14.6696	-121.776	-33.2833	-53.4098	-8.46644	-5.56921	-143.472	0
0.3073	9.77375	27.1259	14.3583	-183.414	-24.4296	-43.0412	-10.5949	-4.38576	-210.925	0
0.3080	9.77375	27.4287	14.6696	-169.993	-18.0079	-30.5298	-15.4903	-4.1073	-254.578	0
0.3087	11.2719	27.1259	15.5645	-165.406	-3.36112	-22.281	-14.568	-2.85422	-128.537	0
0.3093	10.4158	27.7314	12.8407	-219.117	10.9851	-15.2764	-11.2098	-2.57576	44.5092	0
0.3100	10.9865	24.9462	11.9069	-221.58	13.7177	-12.834	-10.3111	-2.57576	134.831	0.313217
0.3107	13.7689	13.6841	13.4244	-155.95	10.056	-18.0183	-8.77388	-1.60115	135.762	0
0.3113	11.914	1.75592	12.2182	-108.044	0.601175	-25.3455	-4.49336	-1.04423	88.7576	0
0.3120	12.1993	-0.968784	11.9069	-70.5002	-12.2148	-28.0874	3.1217	0.835382	114.085	0.313217
0.3127	14.3396	-0.968784	11.3232	-43.9423	-24.129	-33.2717	7.09478	2.01884	131.777	0
0.3133	13.7689	0.242196	8.24921	-96.4352	-30.5233	-42.7417	6.78734	1.3923	-44.6209	0
0.3140	15.5524	5.75215	7.62663	-206.914	-28.6925	-45.4836	12.5814	1.74038	-202.992	0
0.3147	15.267	-0.060549	7.62663	-269.486	-20.4673	-42.7417	19.2978	2.01884	-124.849	0.313217
0.3153	12.1993	-19.3151	6.10908	-223.392	-7.95191	-44.5619	22.3486	2.36692	9.42328	0
0.3160	14.0542	-7.38697	4.90283	-107.732	0.601175	-50.0688	26.3216	3.27191	136.656	0
0.3167	15.267	25.5517	3.96896	-10.0795	3.0332	-53.7093	32.1157	3.82884	400.955	-0.313217
0.3173	13.1268	20.7077	5.52541	58.2688	4.26288	-52.1886	38.8321	4.80345	748.238	-0.313217
0.3180	14.3396	-4.66227	9.18308	103.74	7.624	-42.1196	45.2411	4.80345	907.54	0.313217
0.3187	14.0542	-13.8052	9.76675	119.001	8.52576	-28.6865	44.9336	2.01884	721.086	0.313217
0.3193	7.91888	-9.80893	9.49437	158.385	6.39432	-17.3962	39.447	-1.04423	368.588	0
0.3200	3.6384	-11.686	9.76675	176.987	13.1166	-10.3916	33.038	-3.13268	124.477	0
0.3207	0	-10.4144	7.04295	124.494	23.5005	-10.0691	23.2709	-5.56921	118.964	0.313217
0.3213	-8.84631	34.0891	3.074	96.1238	27.7634	-3.98615	11.3753	-5.01229	208.69	0.313217
0.3220	-20.7603	82.0439	3.69658	112.602	27.4628	6.70503	2.19938	1.3923	357.005	0
0.3227	-25.0408	61.2756	7.04295	75.6815	22.2708	9.74648	-2.67237	5.98691	678.662	-0.313217
0.3233	-25.6115	18.2252	9.49437	-62.8839	13.1166	15.2534	-4.20957	4.80345	813.866	0.313217
0.3240	-30.1773	5.75215	8.87179	-186.16	6.09373	-3.0645	-3.90213	4.17691	421.999	0.313217
0.3247	-20.4036	7.26588	7.62663	-162.066	30.8239	-68.3636	-2.05749	6.33498	-199.342	0
0.3253	-2.14024	9.08235	6.10908	-66.8478	78.1255	-118.732	-2.97981	7.23998	-546.625	0.313217
0.3260	-1.85487	8.7796	1.24516	-27.4639	93.0729	-132.142	-11.2098	6.33498	-498.689	0.313217
0.3267	-7.34815	-0.363294	-3.03509	-14.6663	79.3278	-134.584	-21.8992	6.33498	-337.86	0
0.3273	-6.064	-15.0161	-2.72379	33.2682	59.817	-126.658	-26.1797	6.61344	-220.386	0.313217
0.3280	-14.3396	-23.5536	-0.58367	51.87	31.7257	-110.783	-22.5141	6.8919	-70.5443	0.313217
0.3287	-18.3347	-26.9443	1.82883	-6.42713	-5.19197	-87.6031	-12.4395	11.765	82.9472	0.313217
0.3293	-0.57073	-31.1827	2.76271	-36.0146	-28.6925	-59.5158	-6.03056	18.1696	161.686	0
0.3300	-8.20424	-34.5735	1.82883	53.7104	-28.9931	-30.8293	-6.03056	20.9542	151.629	0.313217
0.3307	-64.0644	-34.2102	1.82883	167.841	-31.4524	-3.36403	-4.49336	20.9542	71.9596	0.313217
0.3313	-97.9515	-34.2102	0.622582	173.646	-36.6444	23.1796	-3.28725	20.0492	-185.598	0.313217
0.3320	-81.1863	-16.2271	-0.272379	100.088	-34.185	39.9767	-5.10824	17.6126	-693.71	0
0.3327	-54.9327	38.9935	-3.65767	88.196	-35.4147	17.0736	-8.77388	13.923	-1007.43	0.313217
0.3333	-35.0999	84.7686	-15.2533	164.189	-43.3393	-25.645	-16.72	9.67651	-827.089	0.313217
0.3340	-19.1908	76.8366	-27.1601	241.088	-45.7986	-41.82	-23.129	7.23998	-528.002	0.313217
0.3347	-11.5573	53.9491	-31.1291	267.929	-44.8695	-39.3776	-24.0277	7.7969	-321.993	0.313217
0.3353	-18.3347	46.0172	-28.989	210.255	-46.7004	-34.4929	-20.0782	9.04997	-109.913	0.313217
0.3360	-34.1724	38.3881	-21.6347	132.45	-37.5461	-19.8386	-10.5949	9.95497	42.0509	0.313217
0.3367	-35.6706	28.6397	-12.4905	98.8702	-26.2604	14.3317	-7.54412	7.7969	-57.4336	0
0.3373	-16.7652	22.2215	-5.4865	63.167	-22.2981	60.1148	-13.6693	6.8919	-323.855	0
0.3380	-11.914	4.54117	1.55645	30.2103	-13.4445	97.3496	-15.1828	10.2334	-360.766	0.313217
0.3387	-44.8736	-29.9717	8.24921	-20.4422	-13.1439	119.631	-10.0036	6.8919	-164.852	0.313217
0.3393	-61.6388	-53.7675	10.078	-131.855	-36.0159	130.598	-1.44261	-5.29075	6.66706	0
0.3400	-39.0236	-52.2538	9.18308	-273.45	-58.6146	133.663	8.32454	-13.8534	182.134	0.313217
0.3407	-44.5169	-44.0191	8.5605	-497.748	-63.4787	127.257	14.7335	-15.0369	415.891	0.313217
0.3413	-90.0326	-36.9954	9.49437	-732.126	-57.6855	119.93	24.1932	-11.6954	557.501	0
0.3420	-126.345	-30.2745	8.5605	-736.713	-54.0238	118.709	37.6023	-5.01229	426.58	0
0.3427	-152.884	-25.6728	5.52541	-614.937	-48.8318	121.151	46.7546	3.82884	-59.8546	0
0.3433	-150.102	-20.5261	3.69658	-510.263	-28.0913	129.078	49.829	13.2965	-699.818	0
0.3440	-96.7387	-14.1079	0.622582	-328.067	6.09373	132.142	45.2411	21.5807	-900.016	0.313217
0.3447	-33.245	-7.99246	-5.4865	-93.6888	36.3165	124.193	41.268	25.2007	-497.795	0.313217
0.3453	25.0408	-1.87702	-13.7357	83.9207	51.2639	117.787	41.8829	24.9222	-34.5272	0
0.3460	53.4346	5.75215	-23.7748	151.958	54.3244	111.681	37.0111	26.4538	182.432	-0.313217
0.3467	92.4582	13.0786	-26.2263	164.784	50.6354	110.76	28.7575	30.0738	310.633	0
0.3473	222.513	10.2933	-17.3934	178.516	43.9405	127.856	21.4262	29.7953	429.933	0.313217
0.3480	339.941	-0.060549	-8.52159	175.769	37.2182	141.289	14.1186	25.5488	545.284	0.313217
0.3487	319.537	-7.68972	-2.4125	198.958	29.2936	134.584	8.0171	23.1122	640.224	0.313217
0.3493	206.033	-13.5024	1.82883	222.769	24.1017	127.856	3.73659	23.3907	527.294	0.313217
0.3500	149.246	-17.4381	5.79779	111.073	23.8011	129.999	3.73659	23.6692	183.363	0
0.3507	153.526	-17.7408	9.49437	-43.9423	22.2708	129.078	6.17246	19.7011	-89.4653	0
0.3513	81.8284	-12.5942	6.10908	-22.2826	21.0411	122.05	3.42914	12.113	-85.48	0
0.3520	36.3127	-4.66227	-3.96896	104.986	24.1017	110.46	-2.36493	6.8919	75.349	0.313217
0.3527	104.372	-3.088	-16.7708	164.472	25.0034	91.8428	-9.38876	9.32843	200.459	0.313217
0.3533	75.4077	-6.78149	-25.915	175.769	15.8492	74.147	-15.7977	14.2015	170.848	0
0.3540	-99.4497	-2.78525	-26.5375	169.682	9.15426	73.5479	-12.747	13.2965	85.1075	0.313217
0.3547	-238.351	6.66039	-24.7087	112.914	10.6572	82.9949	-2.97981	5.08191	59.4449	0.313217
0.3553	-308.194	7.56862	-19.8059	43.0079	7.32341	80.5525	4.65891	-7.44882	-73.0025	0.313217
0.3560	-322.248	1.15043	-9.45546	30.8049	-0.327914	66.8199	9.22322	-17.4734	-290.259	0
0.3567	-230.075	-2.48251	3.074	33.2682	-4.59079	48.2025	5.55758	-23.5995	-412.948	0
0.3573	-95.8113	0.847686	19.8448	5.18134	-5.82047	28.986	-1.13517	-27.2892	-404.717	0.313217
0.3580	6.70607	1.15043	33.2692	-2.15181	1.20235	16.175	-0.236493	-25.7576	-392.202	0.313217
0.3587	58.2858	4.23843	33.5805	6.39881	6.9955	7.3041	1.60815	-15.385	-517.945	0
0.3593	75.4077	-0.666039	27.7827	-45.4712	-3.36112	-0.622116	-0.236493	-5.91729	-631.136	0
0.3600	146.464	-41.2338	21.3623	-145.276	-20.1394	-32.0505	-2.67237	-3.13268	-636.649	0
0.3607	273.451	-63.5159	6.73166	-188.312	-33.5838	-100.714	-3.28725	3.82884	-687.9	0.313217
0.3613	325.316	-40.0229	-14.6307	-201.11	-43.6399	-142.833	-1.75005	19.1442	-741.311	0
0.3620	217.02	-22.0398	-34.7868	-238.342	-45.1701	-139.769	-1.75005	28.2638	-668.978	0
0.3627	106.798	-17.4381	-49.1061	-233.783	-36.3165	-132.142	-3.59469	25.8272	-516.083	0
0.3633	136.404	-8.29521	-55.5265	-177.326	-29.6216	-122.396	-5.72312	22.1376	-313.762	0
0.3640	159.59	-0.363294	-54.009	-89.4135	-30.8239	-105.898	-6.95289	19.4226	-116.32	0.313217
0.3647	8.84631	0.544941	-42.997	38.1381	-30.8239	-96.7506	-1.75005	17.6126	-26.5938	0.313217
0.3653	-303.057	-0.666039	-30.5065	160.197	-28.0913	-95.5294	4.96635	21.5807	-42.4606	0
0.3660	-518.508	-4.35953	-25.02	178.516	-23.1999	-90.3451	6.17246	24.2957	-106.561	0
0.3667	-455.585	-11.686	-19.8059	104.986	-18.937	-81.7967	2.81426	17.6126	-114.793	0
0.3673	-283.51	-24.159	-9.76675	123.588	-19.5382	-61.9581	-2.97981	5.36037	-29.9459	0
0.3680	-122.065	-41.2338	7.04295	236.19	-19.2376	-36.3362	-9.6962	-3.48076	14.0046	0
0.3687	23.1859	-59.8829	22.2962	209.66	-18.937	-27.7878	-17.0038	-8.35382	-10.131	0
0.3693	63.779	-72.4166	28.094	54.305	-21.0685	-23.5022	-21.8992	-10.7904	9.12531	0
0.3700	69.2723	-72.4166	32.063	-0.622893	-13.1439	-9.76952	-19.7708	-13.5053	71.3637	0
0.3707	87.607	-65.0901	33.2692	17.6958	-8.2525	0	-16.4126	-16.29	112.558	0
0.3713	-33.245	-55.584	28.094	14.3265	-23.8011	6.08291	-13.3618	-13.2269	164.74	0.313217
0.3720	-243.202	-46.1383	23.8137	111.385	-31.4524	19.2165	-7.54412	-9.25882	258.116	0
0.3727	-329.311	-42.8081	20.7787	239.559	-27.4628	33.8708	-4.49336	-12.6003	232.193	0.313217
0.3733	-316.47	-39.7201	18.9498	260.907	-27.4628	50.0458	-0.543933	-16.29	51.2135	0
0.3740	-331.38	-34.2102	21.3623	267.929	-25.0308	64.0779	4.65891	-12.3219	-47.9731	-0.313217
0.3747	-369.548	-29.9717	25.3313	237.719	-18.3085	65.5987	2.81426	-1.32269	-1.26637	0
0.3753	-350	-25.9755	26.5765	1.52892	-9.78276	58.5941	0.0709478	5.70845	104.922	0.313217
0.3760	-273.451	-22.6453	19.8448	-294.515	-0.628502	54.0089	-3.59469	5.98691	183.959	0
0.3767	-163.871	-12.2914	6.73166	-354.936	9.45485	54.608	-14.2605	13.6446	147.644	-0.313217
0.3773	-4.28047	4.23843	-8.52159	-346.385	15.8492	50.0458	-28.0007	27.0803	1.48985	0
0.3780	97.6661	16.106	-21.051	-397.349	15.5486	57.6725	-34.1023	35.9214	-139.524	0.313217
0.3787	87.8924	30.1534	-30.1952	-312.523	11.2857	76.8889	-31.0515	40.7945	-156.918	0
0.3793	38.7383	42.9898	-41.4795	-142.529	3.33379	79.9534	-30.4366	37.453	-107.455	0
0.3800	-19.8329	47.2282	-52.4914	-32.6736	-6.72223	34.1703	-33.4874	33.4849	-121.497	0
0.3807	-85.4668	42.687	-53.6977	18.6019	-16.8056	-78.4327	-35.0246	35.9214	-163.92	0
0.3813	-106.798	25.5517	-39.3394	40.573	-24.4296	-157.165	-33.4874	31.0484	-90.9924	0
0.3820	31.4615	3.93568	-16.1482	-26.2465	-24.7302	-150.46	-23.4128	16.3596	54.2677	0
0.3827	307.623	-15.6216	3.96896	-201.421	-21.6696	-124.216	-13.0544	-1.94923	124.477	0
0.3833	442.53	-35.4817	14.9809	-347.914	-20.7679	-101.013	-12.4395	-25.7576	170.55	0
0.3840	350.642	-49.8318	17.3934	-455.93	-21.0685	-80.8751	-7.26033	-51.6545	270.631	0.313217
0.3847	292.071	-57.461	14.6696	-540.162	-20.1394	-64.101	5.86502	-70.5898	338.083	0
0.3853	361.058	-58.9747	14.047	-479.741	-20.7679	-36.3362	10.7604	-75.4629	296.591	0
0.3860	420.271	-52.5565	9.49437	-372.32	-25.6319	1.82027	4.35147	-65.4383	179.713	0.313217
0.3867	284.152	-44.9273	0.933872	-361.646	-19.2376	25.0229	-4.8008	-48.3129	10.6152	0
0.3873	-7.63351	-39.4174	-3.34638	-321.979	-33.5838	40.2762	-2.05749	-29.0991	-172.487	0
0.3880	-18.6201	-32.9992	-3.96896	-181.29	-93.4008	73.5479	3.1217	-10.7904	-297.299	0
0.3887	283.795	-30.88	2.45142	-121.153	-134.281	97.6492	0.99327	-0.696152	-368.998	0
0.3893	486.119	-34.5735	13.4244	-173.363	-131.849	109.239	0.0709478	4.17691	-403.19	-0.313217
0.3900	568.233	-35.7844	17.121	-148.334	-108.649	132.741	-4.20957	9.67651	-370.227	0
0.3907	606.971	-32.9992	16.8097	-56.7682	-83.618	150.736	-18.2336	8.77151	-329.331	0.313217
0.3913	321.392	-31.7882	16.1871	-3.05784	-53.122	155.944	-28.9231	-1.60115	-352.535	0
0.3920	-403.435	-29.669	13.4244	23.1886	-7.32341	148.317	-30.1292	-8.07536	-397.677	0
0.3927	-1127.33	-13.5024	6.73166	50.0297	36.6171	115.967	-24.95	1.74038	-383.04	0.313217
0.3933	-1380.31	20.1023	-13.7357	82.3918	61.0193	53.0872	-17.6187	22.7642	-296.07	0
0.3940	-1121.84	46.32	-31.4015	128.458	71.1027	-33.8938	-8.77388	35.5734	-193.531	0
0.3947	-711.343	43.898	-27.4325	172.428	108.02	-95.8289	-0.543933	31.9534	-61.0837	0
0.3953	-567.02	25.2489	-14.3194	165.095	154.42	-115.068	-2.36493	27.6372	152.225	0.313217
0.3960	-521.861	11.2016	-4.24134	137.631	165.077	-123.617	-7.85156	29.1688	322.813	0.313217
0.3967	-244.772	-1.27153	0.933872	146.182	157.453	-126.658	-11.8246	18.5176	288.36	0.313217
0.3973	47.2992	-16.8326	0	169.059	146.168	-119.631	-19.7708	-3.13268	183.661	0.313217
0.3980	96.4533	-26.581	-7.00404	184.631	101.626	-93.7091	-25.2574	-19.9099	143.063	0.313217
0.3987	71.6979	-22.9481	-21.6347	158.385	16.7783	-55.5527	-22.8215	-22.6945	22.8319	0
0.3993	110.793	-13.5024	-34.4755	133.667	-52.4935	-49.1472	-20.362	-10.5119	-108.386	0
0.4000	176.07	-15.9244	-34.1642	179.733	-85.4489	-72.9489	-19.4634	-1.04423	-72.3693	0
0.4007	218.804	-27.247	-22.2573	178.516	-107.119	-79.0548	-7.54412	-1.94923	-49.5002	0
0.4013	238.636	-34.8762	-8.2103	106.486	-123.296	-75.0917	11.9665	-1.32269	-149.283	0
0.4020	431.828	-45.2301	5.52541	44.8483	-125.126	-69.8844	21.4262	-4.1073	-181.612	0
0.4027	592.631	-63.2131	23.5025	-23.5001	-104.687	-46.0827	20.835	-16.0115	-82.1278	0
0.4033	587.138	-72.0533	36.0319	-84.5436	-78.4534	-25.645	17.4768	-24.2261	-0.670431	0.313217
0.4040	477.629	-60.7912	29.3002	-136.13	-74.1632	-25.0229	24.1932	-17.8215	0.260723	0
0.4047	3.6384	-40.6284	16.8097	-161.754	-92.7723	-22.281	37.0111	-3.75922	6.3691	-0.313217
0.4053	-437.607	-23.2508	11.0119	-116.283	-84.8477	-6.10595	40.3693	9.95497	42.6841	0
0.4060	-383.602	-3.69349	5.52541	-30.5218	-32.3542	25.0229	44.9336	24.9222	79.893	-0.313217
0.4067	-278.017	16.7115	-3.96896	23.7832	-0.929089	51.866	55.3157	35.2949	101.272	-0.313217
0.4073	-485.192	24.3407	-12.1793	-22.9055	3.6617	52.7877	60.1874	40.7945	73.8219	0
0.4080	-696.076	18.528	-15.2533	-106.203	17.3794	38.4329	56.238	44.7626	26.5193	0
0.4087	-719.262	16.7115	-17.0821	-125.117	29.8948	14.0322	46.7546	38.9845	28.9403	0
0.4093	-677.813	19.7995	-16.1482	-106.515	39.3497	-6.72807	36.0888	24.2957	70.4325	0
0.4100	-534.631	18.528	-14.6307	-64.4128	41.809	-13.1336	19.6052	14.2015	82.0533	0
0.4107	-298.42	21.616	-19.5335	-47.0001	34.1577	-0.622116	4.35147	19.1442	46.6322	0
0.4113	17.4073	26.1572	-23.7748	-90.9424	27.7634	21.0367	5.86502	35.9214	14.0046	0
0.4120	454.729	18.528	-18.5996	-103.457	18.3085	28.3639	20.5276	42.9526	9.12531	-0.313217
0.4127	740.664	-5.57051	-3.03509	-72.0291	-2.15877	26.2441	30.886	28.6118	31.0633	-0.313217
0.4133	729.678	-41.5366	17.121	-60.7321	-19.5382	34.7694	18.6829	5.36037	72.2948	0
0.4140	797.737	-66.9066	27.7827	-41.1959	-25.6319	72.3267	-7.54412	-10.7904	104.327	0.313217
0.4147	1045.86	-63.2131	18.016	0.283133	-15.5759	125.714	-22.2067	-11.0688	133.304	0
0.4153	853.312	-40.6284	-4.55263	41.7905	25.6319	155.022	-29.5379	1.3923	163.511	0.313217
0.4160	127.273	-10.4144	-24.7087	91.537	64.0798	156.543	-34.1023	14.828	176.025	0.313217
0.4167	-429.046	20.405	-50.04	125.428	61.0193	136.704	-31.6664	14.5496	188.838	0
0.4173	-636.863	38.3881	-74.1261	130.298	31.1245	76.8889	-27.0784	7.23998	225.19	0
0.4180	-625.02	38.6908	-75.3713	132.45	-8.2525	-15.8755	-16.72	11.208	239.53	0
0.4187	-406.788	31.3644	-64.982	96.7183	-38.4752	-94.0086	0.378388	15.1761	208.988	0
0.4193	-209.315	25.2489	-51.8688	6.08737	-39.9782	-106.52	12.5814	9.95497	217.555	0.313217
0.4200	-340.868	21.3132	-42.4134	-56.7682	-47.3016	-68.0641	10.1455	6.33498	216.624	0
0.4207	-686.017	14.895	-39.6507	-47.0001	-62.8775	-57.0734	1.91559	-2.85422	122.95	0
0.4213	-764.136	-4.35953	-28.6777	1.81205	-17.4068	-67.442	-6.95289	-31.8141	36.8737	0
0.4220	-434.254	-33.6047	-10.6617	56.1453	52.4662	-34.1933	-12.747	-62.3752	22.236	0
0.4227	-88.1777	-55.584	12.8407	102.834	71.4032	12.1889	-8.77388	-66.9698	49.3884	0
0.4233	9.48838	-70.2368	36.3432	121.153	46.9737	22.5805	-5.72312	-59.3121	76.2429	0
0.4240	98.8789	-82.165	48.5225	92.7545	14.9474	30.8063	-6.33801	-59.5906	72.5928	0
0.4247	260.609	-83.3759	53.114	7.30484	5.49256	45.161	-5.41568	-53.5341	41.455	0
0.4253	317.397	-73.3248	50.3513	-85.1665	-19.8388	7.92622	-12.747	-38.5668	-0.0372462	-0.313217
0.4260	236.496	-54.9785	43.3472	-98.587	-62.8775	-73.8705	-13.6693	-24.5045	-36.6502	0
0.4267	140.685	-27.5498	26.8877	-77.5219	-73.562	-125.437	1.30071	-12.3219	-57.0984	0.313217
0.4273	70.4851	4.23843	-1.51754	-80.5797	-61.0466	-109.884	14.7335	-1.32269	-82.463	0.313217
0.4280	-76.9058	32.5753	-21.051	-67.1592	-21.0685	-70.5065	23.8858	16.3596	-114.793	0.313217
0.4287	-170.006	43.898	-26.8488	-52.1815	38.1473	-40.2993	24.477	36.1999	-109.615	0
0.4293	-71.4126	33.4836	-20.4285	-49.7465	97.6364	-29.009	26.9365	43.8576	-76.9506	0
0.4300	252.405	17.317	-6.38146	-30.5218	139.773	-94.0086	35.1665	41.073	-56.8004	0.313217
0.4307	664.044	6.66039	-4.86392	-9.45665	131.22	-179.446	26.9365	37.7314	-43.9877	0.313217
0.4313	837.118	-2.78525	-6.07017	-1.21747	122.968	-169.377	18.3755	22.4857	-2.79346	0
0.4320	740.094	-13.1997	-2.4125	2.1235	119.607	-126.036	19.2978	-8.07536	25.5881	0
0.4327	490.756	-11.9887	-2.4125	-4.27531	62.8502	-132.142	10.7604	-12.0434	-46.446	0.313217
0.4333	181.563	-3.088	-2.10121	-24.7175	3.96229	-145.575	2.50682	13.2965	-122.726	0.313217
0.4340	-156.237	2.05867	-3.03509	-41.5073	-12.2148	-111.704	3.73659	13.923	-101.682	0
0.4347	-372.615	1.75592	-0.894961	-40.6013	-29.9221	-36.6357	-8.46644	-8.07536	-65.0318	0
0.4353	-158.663	-7.38697	10.078	-27.7754	-68.9712	18.9169	-53.3291	-18.7265	-54.3794	0
0.4360	248.125	-26.581	26.8877	1.21747	-60.4455	14.6312	-93.0126	-28.8207	-42.7586	-0.313217
0.4367	409.855	-46.4411	43.6585	39.3555	6.39432	-14.9538	-89.9618	-47.1295	-27.8229	-0.313217
0.4373	421.484	-58.0665	47.0049	64.0731	-64.1072	-19.2395	-71.9411	-59.9387	-15.9041	0.313217
0.4380	342.081	-54.9785	40.8958	73.8412	-297.855	28.6865	-62.7888	-59.0337	-10.7269	0.313217
0.4387	80.2589	-45.8356	36.3432	69.8773	-409.865	103.456	-54.2514	-49.8445	-0.9684	0
0.4393	-65.2772	-40.3256	32.6855	53.7104	-339.063	158.686	-38.6902	-40.3768	16.7235	0
0.4400	-70.7705	-29.0635	25.0589	40.8844	-212.707	198.04	-26.1797	-26.0361	23.4651	0
0.4407	-229.79	-8.9007	7.35425	34.7688	-52.193	229.169	-20.0782	-5.01229	23.1299	0
0.4413	-476.987	6.96313	-11.5956	38.1381	119.934	194.377	-16.1052	8.14498	29.2382	0
0.4420	-532.848	10.8988	-20.4285	50.3411	275.858	70.1839	-6.64545	8.14498	39.332	0.313217
0.4427	-354.28	1.15043	-17.6658	51.2471	406.777	-47.0043	47.9844	3.55037	51.2135	0.313217
0.4433	-432.756	-17.1354	-3.34638	31.7392	488.264	-77.8336	143.504	3.82884	59.1469	0.313217
0.4440	-659.193	-34.8762	14.6696	20.1308	495.888	-31.1288	205.465	9.67651	38.4008	0.313217
0.4447	-316.184	-50.1345	25.3313	34.7688	458.369	56.4513	203.928	9.95497	18.5858	0.313217
0.4453	253.618	-53.4647	24.125	58.8917	410.767	109.861	159.065	13.018	81.4201	0
0.4460	515.726	-40.3256	20.1561	80.5514	346.66	117.488	119.713	32.5799	177.553	0.313217
0.4467	735.171	-20.5261	14.047	93.9719	242.902	124.193	109.023	46.5726	204.407	0
0.4473	721.759	9.08235	-5.17521	99.7762	138.844	106.497	89.1814	35.0164	234.018	0
0.4480	441.317	43.898	-31.1291	95.5009	107.419	30.8063	58.059	15.1761	291.414	0.313217
0.4487	636.578	65.8773	-55.8378	64.696	108.321	-94.3082	33.9604	16.9861	227.313	0
0.4493	662.546	79.2586	-75.6826	28.9929	71.7038	-188.294	21.4262	35.0164	21.938	-0.313217
0.4500	-155.31	85.3741	-77.5114	23.1886	9.45485	-164.492	14.4261	45.3891	-183.475	0
0.4507	-825.775	72.2955	-62.8418	44.8483	-19.5382	-101.336	-3.59469	41.073	-232.9	0.313217
0.4513	-943.274	46.9255	-45.1372	81.7689	-1.83085	-97.3496	-12.1321	31.3268	-103.805	0.313217
0.4520	-688.443	18.8307	-29.3002	109.544	30.1954	-112.926	-2.05749	15.733	38.4008	0
0.4527	-219.731	-11.686	-15.8369	117.189	45.7713	-117.81	0.685829	-30.0041	96.989	0
0.4533	4.28047	-46.1383	0	121.464	28.9931	-156.865	-8.159	-82.494	152.858	0
0.4540	54.6474	-72.0533	16.4984	115.971	-8.2525	-204.169	-15.4903	-91.9617	235.247	0
0.4547	143.467	-73.3248	25.0589	88.196	-60.746	-199.907	-15.1828	-78.874	216.028	0
0.4553	118.997	-72.7193	25.9539	57.3628	-112.611	-181.589	-12.1321	-81.8675	120.789	0
0.4560	13.7689	-83.9814	25.6426	37.8266	-125.427	-187.994	-0.851374	-91.6832	167.198	0.313217
0.4567	-61.9242	-87.9777	22.9188	18.6019	-160.842	-196.243	17.7843	-82.494	363.709	0.313217
0.4573	-89.7473	-86.7061	25.0589	1.21747	-237.738	-173.34	22.656	-69.0583	463.827	0
0.4580	-90.9601	-84.8897	31.7517	-14.3549	-249.351	-115.967	13.8112	-64.8117	199.528	0
0.4587	-62.5662	-76.0495	27.1601	-33.5796	-221.26	-59.8153	8.91578	-47.1295	-276.851	0.313217
0.4593	69.5577	-68.7231	24.7476	-32.9567	-187.075	-17.7188	19.9127	-19.6315	-491.389	0.313217
0.4600	266.745	-74.233	33.2692	-11.297	-100.096	39.6541	35.4739	-15.6634	-420.286	0.313217
0.4607	374.185	-77.5632	37.8607	7.02171	-17.1062	79.3313	23.2709	-25.1311	-300.651	0
0.4613	397.014	-69.3286	43.6585	30.2103	23.5005	70.4834	-11.2098	-21.4415	-178.26	0
0.4620	472.136	-62.9104	50.9739	45.4712	61.9484	61.0365	-31.0515	-16.5684	-89.4653	0
0.4627	570.373	-53.4647	48.8337	28.37	32.0263	57.972	-28.0007	-23.5995	-78.4777	0.313217
0.4633	442.244	-32.3937	40.8958	10.0512	-65.6101	31.4284	-28.9231	-26.3842	-99.2238	0
0.4640	-12.4847	-10.4144	19.5335	-1.52892	-92.7723	7.92622	-49.0486	-13.8534	-93.4134	0.313217
0.4647	-328.669	10.8988	-1.82883	-19.5362	-81.186	43.0182	-60.6604	3.55037	-63.8399	0.626435
0.4653	-243.488	24.6434	-5.17521	-26.2465	-90.3403	100.391	-53.944	15.4546	-67.788	0.313217
0.4660	-240.491	23.1297	-9.76675	-17.4127	-94.3026	113.824	-48.1499	18.5176	-126.711	-0.313217
0.4667	-396.443	25.2489	-16.7708	-6.11568	-90.6409	70.1839	-38.6902	35.5734	-148.054	0
0.4673	-399.154	25.2489	-11.2843	10.9856	-80.8854	-21.3824	-31.6664	58.8248	-77.2486	0.313217
0.4680	-147.676	4.23843	1.55645	32.6453	-68.6706	-112.303	-30.1292	52.0722	15.8296	0
0.4687	315.899	-16.2271	10.3893	40.573	-46.0992	-150.16	-23.4128	31.9534	52.4426	-0.313217
0.4693	565.165	-15.9244	12.5295	37.5152	-23.1999	-130.621	-7.26033	24.0172	44.5092	0.313217
0.4700	408.357	-1.57427	12.8407	35.3917	-11.9142	-113.847	14.7335	24.6438	43.9132	0.313217
0.4707	188.269	6.0549	6.73166	24.0946	7.92458	-140.99	28.1426	19.7011	29.5362	0.313217
0.4713	34.8145	-0.060549	1.24516	8.23918	39.0491	-187.994	34.859	14.5496	-19.8895	0.626435
0.4720	-157.45	-6.176	7.04295	-0.311447	40.2788	-218.524	35.7813	17.2646	-56.8004	0
0.4727	-310.049	-11.3227	12.2182	-4.58676	21.0411	-193.179	39.7544	14.5496	-48.867	0
0.4733	-231.003	-19.3151	14.047	-1.52892	36.3165	-128.478	81.5663	6.8919	-24.7687	0.313217
0.4740	-32.6743	-32.9992	17.121	3.65242	45.4707	-64.7001	126.429	-1.94923	-24.7687	0.626435
0.4747	7.91888	-51.951	14.3583	5.49279	24.7028	-17.0967	129.764	-4.1073	-28.1209	0.313217
0.4753	-57.6437	-54.373	0.622582	14.9494	23.8011	-7.32714	114.51	9.04997	-23.2416	0
0.4760	-89.1052	-44.3218	-15.5645	32.3338	50.0342	-8.87091	79.7217	26.7322	-21.4165	0
0.4767	-101.019	-42.2026	-22.8799	55.8339	86.0501	21.6589	10.7604	46.5726	10.6152	0
0.4773	-105.585	-40.0229	-20.1172	80.24	106.49	46.0827	-51.8156	61.2614	70.1345	0.313217
0.4780	-90.9601	-32.091	-9.76675	78.7394	81.7872	24.1012	-75.2993	39.8895	90.8807	0.313217
0.4787	-58.2858	-23.5536	5.21412	52.4929	18.9097	-5.50688	-71.0424	-14.48	67.0804	0.313217
0.4793	-18.3347	-12.2914	13.7357	28.9929	-65.0089	-11.6128	-53.6366	-67.5267	35.9798	0.313217
0.4800	16.1945	-7.08423	13.7357	16.1669	-137.341	2.1198	-33.7948	-94.7463	0.558693	0.313217
0.4807	53.0779	-13.5024	13.4244	11.8916	-166.935	28.986	-23.129	-81.8675	-16.5373	0
0.4813	93.3857	-18.3463	14.047	10.6741	-143.435	60.4144	-43.562	-44.6929	-6.44359	0
0.4820	133.051	-18.9518	12.2182	10.9856	-85.7768	99.792	-95.4485	-16.29	0.260723	0
0.4827	139.472	-20.8288	9.76675	17.3844	-39.6776	114.746	-133.595	-12.3219	3.01694	0.313217
0.4833	99.1643	-24.4618	7.93792	18.0073	-31.4524	65.2991	-129.929	-21.7896	3.91085	0.313217
0.4840	99.8064	-24.7645	11.3232	10.3627	-39.6776	-3.36403	-105.523	-29.7257	-0.0372462	0
0.4847	111.078	-24.159	19.5335	5.18134	-36.0159	-50.0688	-77.4514	-28.1942	-2.79346	0
0.4853	15.9091	-31.7882	22.2962	0.283133	-24.4296	-57.6955	-43.2545	-16.5684	-9.1998	0.313217
0.4860	-158.663	-38.2064	21.9849	0.59458	-7.65132	-33.5712	-10.0036	-6.54383	-18.3624	0.313217
0.4867	-235.925	-44.0191	27.4714	10.0512	-22.5987	0	-2.97981	-2.57576	-18.6603	0.313217
0.4873	13.4121	-57.7637	33.5805	18.0073	-45.1701	80.253	-20.362	0.208846	-10.7269	0.313217
0.4880	440.389	-59.5802	35.7206	21.9711	-11.9142	155.944	-28.9231	9.67651	-0.9684	0.313217
0.4887	614.034	-45.8356	28.7166	23.1886	25.0034	147.395	-40.8186	22.1376	17.0587	0
0.4893	446.453	-31.4855	14.047	16.4784	1.50294	108.317	-53.3291	24.6438	41.157	0
0.4900	285.365	-11.686	3.96896	7.02171	-76.9231	65.2991	-20.362	19.4226	59.1469	0
0.4907	426.977	14.895	-3.03509	-7.6446	-132.45	0.599075	29.6798	30.7003	66.1864	0.313217
0.4913	377.181	46.9255	-21.6347	-29.6157	-103.757	-12.834	57.1366	64.8814	69.8366	0.313217
0.4920	-211.812	79.2586	-47.2773	-40.9128	-27.7907	78.7322	87.3604	97.2524	69.2406	0.313217
0.4927	-653.057	91.1868	-69.8848	-33.8911	26.2331	154.723	106.28	116.466	67.3783	0.313217
0.4933	-684.519	81.4384	-79.6515	-11.297	41.4811	177.004	94.0768	125.655	61.6052	0
0.4940	-728.108	72.2955	-71.4023	13.1091	50.0342	302.717	72.3904	122.244	14.6005	0.313217
0.4947	-712.556	62.7893	-54.9039	21.6597	119.934	467.831	46.4708	102.125	-47.6379	0.313217
0.4953	-332.307	36.5716	-35.6817	16.1669	227.053	466.61	32.1157	60.9133	-41.8647	0
0.4960	224.939	3.93568	-16.4595	4.27531	254.188	330.505	40.9605	28.8903	17.9527	-0.313217
0.4967	509.02	-17.7408	-1.82883	-6.11568	245.963	203.847	47.3695	20.6757	71.3637	0
0.4973	398.298	-35.179	6.73166	-5.49279	244.432	119.308	46.4708	-10.1638	109.504	0.626435
0.4980	196.83	-54.0702	9.76675	2.43495	222.162	78.7322	37.0111	-63.2802	104.029	-0.313217
0.4987	76.3351	-57.461	8.5605	13.1091	212.707	99.792	27.244	-81.3105	34.1175	-0.626435
0.4993	-12.8414	-40.6284	4.28025	19.8193	204.454	136.704	27.5514	-68.7798	-18.6603	0.313217
0.5000	-57.3583	-24.159	-0.272379	19.8193	180.653	109.538	16.5545	-58.6856	-15.3082	0.626435
0.5007	-53.0779	-11.686	-0.894961	31.1164	137.942	19.2165	-9.6962	-48.3129	-5.25171	0
0.5013	-31.3901	-6.78149	1.24516	45.1598	69.873	-58.9167	-30.1292	-51.376	2.68172	0
0.5020	-4.28047	-8.59795	0.933872	36.9206	11.5863	-117.188	-36.5381	-70.5898	2.38375	0
0.5027	25.0408	-7.68972	2.14012	29.5874	-21.9702	-160.229	-28.9231	-70.9379	3.31491	0
0.5033	45.8011	-6.78149	5.52541	34.4856	-53.4226	-197.764	-11.8246	-51.376	19.4797	0
0.5040	57.3583	-6.78149	6.10908	32.9567	-63.4787	-236.22	-0.543933	-33.9722	28.0464	0
0.5047	79.3314	-5.26776	10.078	25.935	-39.6776	-224.63	7.70966	-26.6626	28.3443	0.313217
0.5053	105.585	-8.29521	13.4244	16.4784	-14.9747	-184.031	12.8889	-29.3776	21.6028	0.313217
0.5060	116.001	-12.2914	12.5295	15.8555	0.300588	-174.884	10.453	-27.8461	14.8985	0
0.5067	105.3	-10.4144	11.0119	24.7175	-1.83085	-173.04	6.17246	-16.9165	19.4797	0
0.5073	83.8973	-7.08423	6.10908	28.0585	-19.5382	-147.718	-15.4903	-4.1073	14.0046	0
0.5080	72.9107	-6.47874	3.96896	41.5073	-23.1999	-112.004	-48.1499	5.36037	-7.67271	0
0.5087	72.6254	-6.176	2.14012	59.2032	-20.1394	-72.3267	-65.8396	7.7969	-21.4165	0
0.5093	75.693	0.544941	-1.51754	56.4568	-26.2604	-61.9581	-66.7619	2.64538	-9.49777	0
0.5100	86.0375	12.4731	3.69658	41.5073	-23.5005	-122.396	-50.5858	-6.82229	-2.49549	0.313217
0.5107	89.7473	13.6841	10.3893	25.029	-23.8011	-184.331	-31.6664	-8.35382	0.558693	0.313217
0.5113	83.8973	6.0549	9.76675	19.5362	-54.625	-173.663	-31.0515	2.36692	101.272	0.313217
0.5120	82.1137	6.0549	10.7006	22.2826	-73.2614	-115.068	-37.7679	5.98691	229.138	0.313217
0.5127	70.8418	10.8988	6.73166	7.02171	-56.4558	-56.4743	-45.6904	-3.13268	194.351	0.313217
0.5133	56.7876	15.5005	1.24516	-7.95605	-33.2833	-16.7971	-57.3022	-2.22769	71.0657	0.313217
0.5140	55.8602	15.8033	9.18308	-9.7681	-10.6845	17.9953	-52.7142	7.7969	-8.90183	0.313217
0.5147	54.6474	5.44941	15.5645	-24.123	3.0332	41.1979	-37.4604	11.208	-74.1944	0
0.5153	51.8651	-2.78525	13.152	-39.6953	1.83085	45.161	-29.2305	9.32843	-114.197	0.313217
0.5160	52.2218	-1.27153	13.7357	-30.2103	5.16464	58.8936	-22.2067	-1.04423	-65.367	0.313217
0.5167	42.0913	4.54117	11.5956	-13.732	21.3417	83.617	-21.8992	-7.72729	15.8296	0
0.5173	28.3938	8.7796	5.52541	-8.23918	30.8239	105.575	-27.6933	-2.57576	42.3861	0.313217
0.5180	31.7468	4.23843	8.24921	-11.9199	28.064	137.326	-23.129	-0.696152	33.2236	0.313217
0.5187	46.7285	-4.66227	11.0119	-15.8838	18.9097	146.773	-9.08132	-1.60115	31.0633	0
0.5193	58.0004	-5.57051	8.87179	-4.58676	-2.75994	81.7737	-1.13517	2.64538	44.2112	0
0.5200	60.7114	-2.17976	7.93792	8.23918	-21.0685	42.0965	-3.59469	6.61344	64.3614	0
0.5207	58.2858	-2.78525	8.87179	9.7681	-26.2604	105.875	0.0709478	5.98691	45.1051	0
0.5213	49.7248	-3.088	11.0119	-0.311447	-37.2455	158.386	22.9634	6.33498	-54.3794	0.313217
0.5220	32.6743	-1.27153	8.5605	-22.9055	-40.3061	182.188	51.0351	7.23998	-154.162	0.313217
0.5227	23.5426	1.45318	6.10908	-34.7971	-35.7153	261.22	67.2112	5.70845	-166.081	0
0.5233	28.3938	5.75215	7.93792	-23.5001	-48.2307	339.952	69.3397	5.70845	-121.199	0
0.5240	32.6743	8.7796	7.35425	-3.05784	-54.3244	336.288	50.7277	7.23998	-70.8422	-0.313217
0.5247	34.1724	9.99058	7.62663	22.8772	-80.2842	265.805	22.0411	5.98691	-32.4042	0
0.5253	35.742	10.8988	9.49437	38.4495	-219.429	170.275	-10.3111	5.36037	3.91085	0
0.5260	34.1724	8.17411	5.79779	25.029	-364.394	73.5479	-45.0992	5.98691	54.2677	0
0.5267	34.8145	4.84392	4.59154	9.14521	-375.68	15.8524	-50.5858	3.82884	99.1493	0.313217
0.5273	36.598	5.14666	6.10908	3.02953	-331.74	17.6957	-10.3111	2.36692	91.5138	-0.313217
0.5280	34.5291	6.96313	4.28025	4.27531	-320.454	23.1796	53.471	3.55037	59.1469	-0.313217
0.5287	32.0322	9.38509	3.074	23.1886	-321.055	47.3039	94.0768	4.45537	59.1469	0
0.5293	31.1048	9.99058	3.69658	44.8483	-271.622	106.797	97.1276	4.80345	69.2406	0
0.5300	29.3212	8.47686	2.76271	51.2471	-145.566	88.5018	91.9247	4.45537	60.376	0
0.5307	29.3212	6.96313	3.074	49.4351	25.9325	2.44238	84.3097	1.11384	-1.56434	0.313217
0.5313	31.4615	6.35764	3.38529	49.4351	141.905	-49.4467	49.829	-1.60115	-90.0612	0
0.5320	31.4615	6.96313	2.76271	50.0297	191.638	-88.5018	8.32454	-1.04423	-94.6425	0
0.5327	32.3889	7.87137	3.38529	40.573	252.357	-165.713	10.7604	1.11384	-42.7586	-0.313217
0.5333	33.6017	7.87137	3.38529	26.841	275.557	-259.1	36.0888	1.3923	-27.5249	-0.939652
0.5340	32.0322	8.17411	2.45142	25.029	261.839	-336.012	38.8321	1.3923	-29.35	-0.626435
0.5347	29.6066	8.47686	2.76271	28.9929	272.824	-376.588	38.8321	1.74038	-15.3082	0
0.5353	28.3938	6.96313	1.55645	30.5218	269.764	-349.744	38.8321	0.835382	3.91085	0
0.5360	29.0359	7.26588	2.76271	34.4856	238.339	-277.418	12.5814	0.835382	12.4775	0
0.5367	28.6792	8.47686	3.074	39.667	189.507	-217.303	-18.541	1.74038	28.0464	0
0.5373	25.0408	7.56862	-2.72379	39.0441	149.529	-161.451	-30.1292	0.208846	75.0138	0.313217
0.5380	25.9682	7.56862	-3.65767	34.4856	143.435	-113.847	-24.3351	1.3923	114.085	0.313217
0.5387	27.181	6.96313	-5.17521	25.6236	123.596	-103.778	-16.1052	3.27191	85.1075	0
0.5393	24.3987	4.84392	-10.0391	18.2904	80.5575	-77.2115	-16.1052	1.3923	2.68172	0
0.5400	25.0408	8.47686	-9.14417	22.8772	23.5005	-13.1336	-18.541	-0.417691	-52.2191	0
0.5407	26.5389	11.2016	-7.00404	30.5218	-41.2078	39.0551	-22.5141	1.11384	18.5858	0
0.5413	23.1859	7.56862	-7.93792	29.5874	-57.9861	65.2991	-23.129	2.36692	189.769	0
0.5420	20.4749	5.75215	-8.2103	17.3844	-32.9827	63.4558	-13.3618	0.208846	260.276	0
0.5427	21.6877	5.75215	-10.6617	2.43495	-10.0834	48.2025	-0.851374	-1.60115	185.486	0
0.5433	28.1084	6.66039	-11.5956	-3.36929	15.8492	53.0872	6.17246	3.82884	137.289	0
0.5440	33.245	8.47686	-9.45546	-3.05784	49.7336	67.7415	-3.28725	4.80345	149.804	0.313217
0.5447	27.4664	7.26588	-11.2843	-1.21747	66.2113	50.0458	-33.1799	-3.13268	144.59	0
0.5453	21.9731	6.0549	-15.8369	-3.68073	72.9335	21.0367	-60.3529	-2.85422	74.4178	-0.313217
0.5460	19.5475	10.8988	-17.0821	-9.45665	82.0878	8.22576	-82.0157	8.14498	-83.6549	-0.313217
0.5467	13.1268	15.5005	-8.83288	-0.311447	75.6661	-22.281	-103.678	13.018	-218.263	0
0.5473	11.914	15.1978	4.90283	15.2609	66.8124	-41.82	-109.472	6.33498	-221.317	0
0.5480	18.3347	17.0143	14.047	21.6597	65.9107	-31.1288	-96.6546	-1.04423	-154.758	0
0.5487	20.4749	21.9187	18.9498	21.6597	39.3497	-26.2441	-82.3231	-0.417691	-80.0048	0.313217
0.5493	19.2621	18.8307	14.3583	21.9711	-4.89138	28.6865	-75.9142	2.36692	-2.49549	0.313217
0.5500	20.1182	9.99058	-0.58367	21.6597	-18.6364	103.755	-71.9411	9.04997	64.6594	0.313217
0.5507	21.9731	8.17411	-7.62663	18.0073	-23.5005	96.1284	-62.4814	32.5799	107.977	0.313217
0.5513	23.828	12.4731	-2.72379	8.52231	-53.7232	76.2898	-44.7917	67.3179	117.735	0
0.5520	22.2585	19.7995	-6.69275	-5.20965	-77.2237	86.3589	-26.4872	90.8478	130.585	0
0.5527	20.7603	28.6397	-14.942	-12.203	-73.2614	54.3084	-9.6962	104.84	174.834	0
0.5533	22.2585	33.1808	-14.0081	-10.0795	-70.2009	-47.3039	7.70966	137.212	115.314	0
0.5540	22.2585	33.1808	-8.83288	1.52892	-111.081	-160.229	27.244	184.828	-41.5667	0
0.5547	19.8329	23.1297	-1.51754	13.1091	-162.673	-225.851	50.4202	199.169	-119.97	0.313217
0.5553	18.3347	13.0786	6.10908	8.23918	-163.274	-240.782	76.6709	182.113	-161.164	-0.313217
0.5560	19.2621	20.7077	14.047	-3.05784	-130.018	-221.565	86.7455	169.583	-196.585	-1.25287
0.5567	22.2585	19.4968	19.2611	-1.21747	-95.8328	-189.838	72.3904	101.499	-168.502	-0.939652
0.5573	19.5475	-0.363294	17.3934	14.9494	-63.4787	-147.418	65.6977	-37.3137	-62.6108	0
0.5580	6.42071	-1.87702	22.2962	28.37	-14.6468	-91.8658	60.8023	-143.268	84.8095	0
0.5587	-6.064	12.7758	27.7827	18.2904	34.4856	-52.1886	40.3693	-168.26	164.144	0.313217
0.5593	-8.84631	10.8988	17.121	-13.1374	54.9256	-42.4191	24.1932	-125.864	190.998	0
0.5600	-4.28047	-5.26776	5.79779	-42.7248	64.3804	-40.5988	17.4768	-78.874	224.259	0
0.5607	1.56951	-11.686	7.93792	-65.0074	73.5347	-36.6357	23.8858	-96.2082	152.858	0.313217
0.5613	7.91888	0.544941	18.3272	-79.0508	82.3884	-32.9721	44.9336	-126.143	-79.0736	0.313217
0.5620	17.4073	14.5923	28.094	-64.696	107.419	-2.14284	52.5723	-111.802	-259.755	0.313217
0.5627	26.2536	14.895	32.9579	-17.6958	119.607	51.5665	33.6529	-83.1205	-232.9	0.313217
0.5633	28.1084	11.5649	30.5454	30.5218	93.6741	77.1885	12.274	-62.6537	-119.076	0
0.5640	21.9731	12.1703	20.7787	58.2688	68.6433	64.677	15.6322	-46.7814	-34.5272	0
0.5647	14.6249	9.68784	10.3893	68.6598	53.3953	35.0919	35.1665	-32.7888	18.8838	0.313217
0.5653	11.914	9.68784	6.42037	69.5659	21.9702	-12.2119	31.8083	-33.6937	55.7948	0
0.5660	16.4798	20.7077	7.93792	68.3484	-3.98962	-70.806	6.78734	-37.3137	110.435	0
0.5667	29.892	33.7863	11.5956	56.4568	-3.98962	-101.935	-12.747	-11.4169	165.969	0
0.5673	39.3804	35.9661	12.8407	28.6814	-0.327914	-104.677	-22.2067	28.8903	160.159	0.313217
0.5680	27.7517	25.5517	8.87179	-0.622893	3.33379	-114.147	-21.5918	45.6676	77.1741	0.313217
0.5687	4.28047	11.5649	-3.65767	-21.688	13.7177	-116.29	-14.568	26.4538	-85.48	0
0.5693	-1.49817	9.99058	-26.5375	-25.6519	17.0788	-92.7874	-3.28725	-2.22769	-186.194	0
0.5700	9.13168	15.5005	-49.7287	-12.8259	20.1394	-61.9581	11.9665	-31.2572	-121.497	0.313217
0.5707	14.6249	10.8988	-62.8418	-1.84037	29.2936	-33.5712	15.6322	-65.4383	-10.7269	0.313217
0.5713	13.7689	9.68784	-70.1572	3.34097	32.3268	-0.322579	1.60815	-60.5652	73.8219	0
0.5720	14.3396	15.1978	-69.8848	7.02171	26.5337	33.2486	-15.7977	14.5496	104.922	0
0.5727	14.3396	14.2896	-54.009	9.14521	20.44	53.3868	-22.8215	116.466	82.0533	0
0.5733	16.1945	11.5649	-32.3353	9.7681	20.44	60.1148	-18.2336	186.986	73.8219	0
0.5740	25.0408	14.2896	-25.3313	9.45665	20.1394	54.9305	-12.747	217.199	48.1593	0
0.5747	34.5291	29.8506	-22.5686	9.7681	14.9474	49.7232	-11.5172	217.756	-4.61853	0.313217
0.5753	35.0999	50.9217	11.0119	11.297	10.9851	72.9258	-13.3618	176.266	-13.1851	0.313217
0.5760	25.0408	47.2282	64.7096	8.23918	4.86406	113.824	-22.2067	100.594	-40.9335	0
0.5767	10.9865	28.0342	82.103	5.18134	0.300588	131.22	-30.1292	43.8576	-122.428	0.313217
0.5773	-3.06767	12.7758	55.5654	11.5802	0.901763	126.635	-27.0784	-30.9091	-160.568	0.313217
0.5780	-20.1182	5.14666	31.1291	24.0946	-10.3839	111.082	-23.129	-142.015	-104.736	0
0.5787	-33.5304	35.0579	30.5454	29.5874	-25.3313	94.2851	-22.5141	-167.981	18.8838	0
0.5793	-29.6066	90.5813	52.8027	24.7175	-21.0685	96.1284	-18.2336	-123.985	143.994	0
0.5800	-14.3396	107.656	76.3052	17.6958	-13.1439	97.3496	-9.38876	-69.0583	227.909	0
0.5807	2.78231	66.7855	72.3362	12.203	-11.9142	79.6308	-3.90213	2.01884	255.062	0.313217
0.5813	13.4121	8.17411	50.9739	0	-10.3839	60.1148	-6.03056	57.5718	168.427	0.313217
0.5820	10.7012	-44.0191	37.5495	-22.594	-11.6136	52.7877	-11.2098	56.6668	-45.2169	0
0.5827	1.2128	-83.9814	29.9228	-41.8188	-14.6468	51.267	-13.6693	-74.9059	-250.592	-0.313217
0.5833	-19.8329	-96.2123	1.55645	-37.232	-14.6468	44.2394	-10.5949	-243.305	-300.949	0
0.5840	-47.87	-84.5869	-25.6037	-8.55063	-12.2148	34.1703	-4.8008	-272.335	-213.383	0
0.5847	-56.4309	-53.7675	-12.1793	23.7832	-8.2525	31.1288	1.60815	-205.504	-89.1673	0
0.5853	-48.2267	-18.6491	15.2922	32.6453	-9.48218	31.1288	4.65891	-126.143	-16.8353	0.313217
0.5860	-37.5255	-17.4381	38.4833	21.0368	-16.4777	30.5067	-1.13517	-30.6307	-29.35	0
0.5867	-24.1133	-31.7882	66.8497	13.4205	-18.937	31.4284	-7.26033	67.0394	-77.8817	-0.313217
0.5873	-17.4073	-6.78149	80.5854	12.7976	-21.6696	24.4008	-11.5172	108.809	-107.79	0
0.5880	-21.6877	44.2007	62.8807	12.7976	-24.7302	15.2534	-16.72	75.254	-108.684	0
0.5887	-23.4713	69.813	31.1291	11.8916	-25.0308	12.5114	-19.7708	11.208	-95.2757	0
0.5893	-20.4036	63.092	13.4244	8.83376	-26.561	9.44695	-19.4634	-43.7183	-45.8128	0.313217
0.5900	-17.4073	26.8232	6.42037	1.21747	-25.0308	9.44695	-13.3618	-84.6521	61.6052	0.313217
0.5907	-16.1945	-25.37	-9.14417	-11.6085	-21.9702	14.0322	-4.20957	-130.737	129.058	0
0.5913	-15.5524	-52.2538	-27.1601	-18.9416	-22.5987	15.5529	-0.543933	-177.449	76.2429	0
0.5920	-9.13168	-86.4034	-37.8218	-13.4488	-21.9702	15.5529	0.99327	-194.226	-0.335216	0
0.5927	-1.49817	-165.48	-45.1372	-5.80423	-21.0685	14.6312	1.30071	-160.324	-12.254	0.313217
0.5933	3.06767	-223.123	-55.8378	-5.80423	-22.8993	11.5898	-5.72312	-93.7717	8.7901	0
0.5940	10.0591	-198.722	-75.6826	-3.68073	-22.2981	10.0691	-11.8246	-20.8846	27.7112	0
0.5947	11.6286	-118.494	-87.8618	-0.311447	-22.8993	7.92622	-13.0544	73.7225	37.5069	0
0.5953	5.20791	-72.7193	-58.2892	-3.05784	-25.3313	4.88476	-13.3618	177.797	38.6988	0
0.5960	1.85487	-61.0939	-10.6617	-4.27531	-23.5005	3.66357	-12.1321	243.723	34.7507	0.313217
0.5967	-2.4256	-19.3151	0	-5.80423	-23.1999	1.82027	-10.3111	277.904	34.1175	0.313217
0.5973	-9.41704	143.38	-8.83288	-10.391	-22.8993	5.48384	-7.54412	290.435	35.9798	0
0.5980	-9.13168	362.204	12.5295	-14.6663	-18.0079	17.6957	-3.59469	271.499	5.73591	0
0.5987	-2.14024	330.113	64.087	-18.9416	-16.4777	22.88	-4.8008	221.167	-48.271	0
0.5993	7.91888	129.03	117.512	-15.2609	-16.4777	11.2903	-10.0036	125.655	-58.9607	0.313217
0.6000	16.7652	61.2756	138.252	0.906027	-13.4445	-10.9907	-13.0544	23.6692	-6.44359	0.313217
0.6007	20.1182	62.7893	115.061	21.3483	-11.313	-21.0598	-13.6693	-0.417691	81.4201	0.313217
0.6013	25.9682	55.4629	94.9437	33.2682	-7.95191	-10.9907	-10.3111	89.9428	134.235	0
0.6020	32.6743	95.7885	92.181	29.276	-8.85367	-6.10595	-2.67237	231.819	115.016	0
0.6027	31.1048	95.183	80.5854	20.4422	-13.4445	-7.32714	8.91578	289.181	104.327	0
0.6033	23.828	29.5479	66.5384	20.4422	-13.7451	-1.22119	20.835	252.564	145.819	0.313217
0.6040	7.63351	23.7352	50.9739	21.9711	-14.3462	4.88476	19.9127	187.265	191.892	0.313217
0.6047	-14.0542	-10.1117	16.1871	14.9494	-17.4068	7.00456	9.53066	59.7298	137.289	0
0.6053	-30.8194	-190.487	-28.3664	7.30484	-17.1062	9.14741	6.4799	-129.484	-53.7462	0.313217
0.6060	-39.3804	-345.492	-51.2463	9.7681	-17.1062	9.74648	6.78734	-304.984	-177.366	0.313217
0.6067	-39.6657	-366.261	-45.1372	19.2248	-18.0079	8.84787	4.35147	-425.558	-115.091	0
0.6073	-36.0273	-297.901	-25.915	28.37	-16.1771	8.22576	3.1217	-452.708	-10.131	0
0.6080	-35.0999	-107.474	-9.45546	32.6453	-15.5759	6.40549	3.1217	-364.157	45.4403	0
0.6087	-33.245	58.2481	-7.00404	31.4278	-16.4777	3.66357	1.91559	-242.748	63.4302	0
0.6093	-30.1773	30.1534	-12.8018	29.8989	-16.1771	1.52073	-0.236493	-181.069	75.0138	0.313217
0.6100	-27.7517	10.2933	-12.4905	30.5218	-14.6468	0.299537	-1.13517	-160.324	93.6369	0
0.6107	-24.1133	128.122	-3.96896	25.029	-13.4445	0	1.30071	-114.239	69.2406	0
0.6113	-23.1859	208.046	3.074	6.71026	-14.0456	-2.14284	1.60815	-58.4071	-9.1998	0
0.6120	-24.6841	131.452	-5.79779	-23.8115	-15.2753	-4.28569	-1.44261	-87.3671	-101.384	0
0.6127	-20.7603	-24.159	-24.3974	-56.1736	-14.0456	-3.98615	-2.67237	-164.013	-152.635	0
0.6133	-12.8414	-129.454	-40.2733	-64.4128	-11.313	-3.66357	-1.44261	-150.578	-122.428	0
0.6140	-5.49327	-113.893	-52.1801	-43.6592	-7.65132	-2.76496	0.0709478	-80.0575	-70.8422	0
0.6147	0	-64.7874	-52.1801	-20.4422	-4.59079	-0.921653	1.30071	-31.2572	-49.1649	0
0.6153	0.927436	-188.368	-46.3823	-7.95605	-6.12106	-4.58523	1.60815	-11.4169	-31.473	0.313217
0.6160	-3.92377	-406.223	-61.3243	-1.84037	-9.15426	0.599075	0.685829	-12.3219	-25.0667	0
0.6167	-10.3445	-451.393	-88.4844	0.906027	-10.0834	35.3915	0.685829	13.923	-47.0419	-0.313217
0.6173	-11.5573	-326.904	-103.115	1.81205	-10.0834	74.4465	1.60815	71.9125	-61.0837	0
0.6180	-5.20791	-173.11	-104.983	4.27531	-8.55309	88.1792	2.50682	118.903	-50.0961	0.313217
0.6187	1.2128	-31.1827	-107.395	3.02953	-8.2525	85.7368	2.50682	146.958	-28.4188	0.313217
0.6193	5.77864	65.5745	-117.473	-3.96387	-10.0834	79.9534	0.378388	168.678	16.4256	0.313217
0.6200	13.1268	114.377	-122.065	-11.6085	-9.48218	69.2622	-0.543933	192.138	75.349	0.313217
0.6207	21.0457	164.451	-98.5625	-17.1013	-7.95191	53.7093	-0.543933	225.692	83.2824	0
0.6213	26.8956	230.934	-46.3823	-17.1013	-5.49256	37.5343	-0.236493	269.063	26.8172	-0.313217
0.6220	30.534	276.103	-2.10121	-12.203	-2.75994	23.8017	-0.236493	279.714	-11.956	0
0.6227	29.6066	237.352	21.3623	-6.71026	-2.45935	7.62668	-1.13517	205.295	4.20882	0
0.6233	20.7603	151.917	66.5384	-2.74639	-2.75994	-13.4331	-1.75005	102.752	23.1299	0
0.6240	2.4256	104.931	132.766	-1.84037	-2.15877	-32.0505	-2.36493	66.1344	21.3048	0
0.6247	-15.5524	80.8329	161.132	-2.46326	-1.83085	-44.5619	-3.28725	45.3891	15.5317	0.313217
0.6253	-31.1048	75.3229	136.112	-1.84037	-2.45935	-54.631	-3.90213	-12.3219	8.19416	0
0.6260	-49.4395	116.799	95.5274	0.283133	-3.36112	-65.0226	-4.20957	-47.4079	6.07113	0
0.6267	-62.2809	150.404	58.9118	3.65242	-2.75994	-81.1977	-5.10824	-88.6201	14.0046	0.313217
0.6273	-64.7065	117.404	4.59154	5.77592	-0.628502	-98.8934	-6.03056	-208.219	22.5339	0.313217
0.6280	-60.7114	63.6975	-49.4174	4.86989	0.901763	-98.8934	-6.03056	-311.667	26.1841	0
0.6287	-52.1504	24.3407	-57.044	2.1235	1.20235	-80.5755	-4.49336	-295.238	15.8296	-0.313217
0.6293	-38.7383	-29.3663	-36.3043	1.52892	1.50294	-59.8153	-1.75005	-226.249	-0.9684	-0.313217
0.6300	-22.5438	-46.4411	-23.7748	1.81205	1.50294	-44.8615	0.0709478	-184.132	-1.56434	0
0.6307	-8.20424	27.1259	-34.7868	3.65242	0.601175	-37.5574	1.30071	-169.165	6.3691	-0.313217
0.6313	2.14024	97.3022	-58.5616	8.23918	0.901763	-35.115	2.81426	-160.045	14.6005	-0.313217
0.6320	10.0591	78.0476	-58.5616	10.0512	1.20235	-32.35	3.1217	-112.429	24.9922	0.313217
0.6327	16.4798	-0.060549	-35.098	8.83376	1.20235	-31.1288	1.30071	-24.8526	35.6446	0
0.6333	18.6201	-94.638	-24.0861	10.0512	1.50294	-30.8293	0.0709478	17.6126	46.0363	0
0.6340	14.3396	-196.905	-25.915	10.9856	0.300588	-30.2302	-1.44261	1.11384	54.2677	0
0.6347	7.91888	-277.133	-25.3313	7.92773	-1.22968	-30.8293	-4.8008	27.3588	59.1469	0.313217
0.6353	6.42071	-280.523	-31.4015	4.55845	-1.53026	-30.8293	-8.159	112.777	43.2801	0.313217
0.6360	7.91888	-240.258	-25.6037	4.55845	-0.327914	-28.6865	-7.26033	162.273	-11.6581	0.313217
0.6367	8.27558	-220.096	1.24516	10.6741	0.901763	-25.0229	-3.90213	184.202	-51.3252	0.313217
0.6373	9.77375	-180.739	13.4244	20.7537	1.50294	-21.6819	-3.28725	217.756	-17.1332	0
0.6380	11.914	-126.729	5.52541	19.8193	0.601175	-19.539	-5.41568	240.381	37.8049	0
0.6387	18.9054	-179.528	7.35425	8.23918	-0.929089	-15.8755	-6.95289	309.022	52.7406	0.313217
0.6393	26.8956	-306.438	33.5805	6.08737	-1.53026	-10.9907	-7.26033	445.468	56.7259	0.313217
0.6400	25.9682	-312.251	48.8337	12.203	0.300588	-7.32714	-5.10824	525.107	112.26	0
0.6407	25.6115	-189.579	33.8918	11.297	2.73262	-5.50688	-0.543933	441.5	192.227	0
0.6413	25.9682	-92.2161	22.6075	-0.311447	1.20235	-6.72807	-0.543933	257.159	135.464	0
0.6420	14.6249	-11.9887	25.9539	-12.8259	0.601175	-5.50688	-3.59469	83.8167	-68.7192	0
0.6427	-6.70607	54.8574	33.2692	-14.6663	2.43203	-1.54377	-5.41568	-29.0991	-182.246	0
0.6433	-33.245	-39.1146	33.5805	-4.89821	3.6617	1.52073	-6.64545	-71.8429	-116.022	0.313217
0.6440	-58.5711	-183.463	16.8097	10.0512	5.79315	5.48384	-5.72312	-101.708	-21.7145	0.313217
0.6447	-79.3314	-271.078	-12.4905	22.5657	4.56347	5.78337	-5.72312	-171.601	24.359	0
0.6453	-91.2454	-426.386	-40.8958	32.3338	0.601175	2.44238	-8.46644	-282.707	54.5656	0
0.6460	-93.3857	-460.293	-54.009	45.1598	-0.628502	-0.322579	-7.85156	-350.164	79.5951	-0.626435
0.6467	-91.2454	-116.315	-47.5886	55.2393	-0.327914	-0.622116	-6.03056	-297.048	87.5285	-0.313217
0.6473	-80.8296	327.994	-38.4444	57.0514	1.20235	-6.72807	-4.49336	-214.972	75.9449	0.626435
0.6480	-64.0644	555.052	-35.3704	57.3628	2.43203	-11.2903	-2.67237	-196.315	69.2406	0.313217
0.6487	-58.2858	586.477	-24.3974	59.5146	0.601175	26.2441	-2.67237	-209.124	37.8049	0
0.6493	-65.2772	426.87	0	63.167	-0.929089	78.1101	-4.20957	-240.312	-60.4878	0.313217
0.6500	-67.7742	247.464	19.5335	69.2544	-0.929089	88.5018	-2.97981	-292.175	-140.716	0.313217
0.6507	-57.073	254.79	25.6426	58.2688	-0.929089	81.1746	1.30071	-324.476	-154.46	0.313217
0.6513	-41.1639	248.372	24.7476	29.8989	1.20235	79.3313	5.55758	-314.452	-142.578	0.313217
0.6520	-33.5304	116.496	6.42037	-4.89821	2.73262	69.8844	6.4799	-262.867	-94.3446	0
0.6527	-29.6066	-13.8052	-9.76675	-49.7465	2.13144	47.9029	5.86502	-182.879	-40.6356	0
0.6533	-20.1182	-83.0732	21.3623	-71.1231	3.0332	22.5805	5.27379	-92.8667	-32.1062	0.313217
0.6540	-13.4121	-76.0495	58.2892	-85.1665	1.83085	-5.20734	0.0709478	-2.85422	-36.6502	0.313217
0.6547	-9.13168	-51.951	65.0209	-108.044	1.50294	-30.8293	-4.20957	88.4113	-30.8771	0
0.6553	-8.20424	-58.9747	74.165	-92.7828	2.73262	-50.6679	-6.03056	170.488	-25.0667	0
0.6560	-18.3347	-51.951	77.8227	-58.2971	0.300588	-71.7277	-9.6962	198.891	-28.4188	0
0.6567	-32.6743	-5.87325	68.9898	-35.1085	-0.628502	-84.8382	-11.5172	175.987	-25.9978	0
0.6573	-40.5932	185.462	67.7836	-28.0868	0.300588	-83.3175	-10.5949	153.362	0.856662	0
0.6580	-40.3078	427.476	68.056	-26.5579	-0.628502	-74.7691	-8.77388	126.839	11.2483	0.313217
0.6587	-32.6743	364.323	51.9077	-15.5723	-1.22968	-60.7369	-3.90213	69.7544	-24.1728	0.313217
0.6593	-21.331	95.4857	13.7357	-5.20965	0	-47.3039	3.42914	-17.8215	-52.2191	0.313217
0.6600	-14.6249	-42.8081	-31.4015	-6.71026	0.300588	-41.5205	12.5814	-125.516	-43.3918	0
0.6607	-13.1268	-32.091	-71.986	-27.1808	-0.327914	-42.4191	20.5276	-205.504	-27.8229	-0.313217
0.6613	-8.20424	-42.5054	-90.6245	-36.9489	-0.327914	-41.82	24.1932	-203.972	-15.3082	0
0.6620	0.927436	-106.263	-87.8618	-23.5001	0	-29.3086	19.2978	-139.857	-3.09143	0.313217
0.6627	3.06767	-27.8525	-90.3133	-17.4127	-0.628502	-15.2764	8.60834	-68.1533	4.54403	0.313217
0.6633	0.285365	90.2785	-90.3133	-19.2248	-2.75994	13.1105	2.19938	-2.57576	4.842	0.313217
0.6640	9.48838	21.0105	-68.6396	-16.7898	-3.98962	69.8844	0.99327	63.6979	0.558693	0.313217
0.6647	31.7468	34.7551	-33.5416	-14.9494	-5.19197	98.8704	-1.44261	106.72	-2.19752	0.313217
0.6653	51.8651	163.179	-9.14417	-13.4488	-6.72223	89.7229	-2.36493	114.656	-2.79346	0
0.6660	62.2809	169.9	-9.45546	-10.0795	-5.82047	85.7368	1.60815	118.276	-1.56434	0
0.6667	62.5662	195.573	-18.9109	-6.42713	-3.06053	81.1746	-2.36493	103.935	-0.670431	0
0.6673	55.8602	276.103	-27.7438	-3.96387	-2.45935	62.2577	-20.6695	20.9542	-0.670431	0.313217
0.6680	53.4346	250.491	-24.0861	0	-1.83085	37.2118	-31.9738	-52.9075	1.19188	0.313217
0.6687	64.9919	118.676	20.7787	4.55845	-4.29021	10.6681	-27.6933	-16.29	2.68172	0
0.6693	78.404	102.449	85.177	10.3627	-16.4777	-15.2764	-17.0038	49.3572	3.31491	0.313217
0.6700	71.6979	192.485	106.812	15.2609	-28.0913	-40.8984	-8.46644	71.2859	3.31491	0.313217
0.6707	45.159	108.564	90.9747	12.7976	-29.2936	-59.8153	-6.33801	94.4678	2.08579	0.313217
0.6713	7.91888	-32.9992	70.8187	6.08737	-25.9598	-58.2946	-6.64545	142.433	1.78782	0.313217
0.6720	-19.5475	-66.9066	45.7987	4.27531	-21.0685	-44.2624	-6.95289	158.862	2.08579	0
0.6727	-21.9731	-38.8119	21.3623	5.49279	-13.1439	-36.6357	-6.95289	127.744	2.38375	0
0.6733	-38.4529	75.9284	11.0119	6.39881	-5.82047	-38.1564	-4.8008	131.433	3.01694	0
0.6740	-86.3229	161.969	11.0119	7.02171	-0.628502	-37.2348	0.99327	87.7848	3.31491	-0.313217
0.6747	-131.553	91.7922	4.90283	6.71026	8.22517	-30.8293	4.35147	-70.5898	3.31491	0
0.6753	-148.604	-28.458	-26.8488	5.18134	14.9474	-33.5712	3.42914	-165.545	2.68172	0.313217
0.6760	-129.056	-76.9577	-65.9158	3.96387	14.3462	-41.5205	4.96635	-141.388	1.19188	0
0.6767	-94.5984	-80.6512	-84.5155	6.08737	12.5154	-34.1933	8.60834	-94.1197	1.19188	-0.313217
0.6773	-65.2772	-96.2123	-85.138	11.8916	12.1875	-15.2764	8.32454	-62.0271	3.01694	-0.313217
0.6780	-41.1639	-111.773	-77.5114	15.8555	12.5154	-10.6912	4.96635	-47.6864	4.20882	0
0.6787	-33.5304	-95.9096	-75.3713	14.9494	11.8869	-23.5022	1.91559	-55.0656	3.61288	0
0.6793	-26.8243	-21.1316	-70.1572	14.3265	10.9851	-28.0874	0.378388	-59.5906	4.20882	0
0.6800	-6.064	56.3711	-41.1682	15.2609	10.056	-21.3824	1.60815	-51.0975	5.43794	0
0.6807	0.285365	56.3711	-1.20625	13.732	8.22517	-14.0552	1.91559	-60.8437	5.43794	0.313217
0.6813	-2.71097	49.0447	28.4053	10.9856	4.86406	-6.10595	-3.59469	-65.7167	4.20882	0.313217
0.6820	10.4158	75.6257	41.8297	8.83376	1.50294	-2.76496	-10.3111	-15.6634	3.31491	0
0.6827	29.0359	56.0683	44.2811	8.52231	0.601175	-5.80642	-11.8246	69.476	3.31491	0
0.6833	40.3078	-47.9548	38.4833	7.92773	0.901763	-9.17045	-13.3618	143.964	3.01694	0.313217
0.6840	58.0004	-190.79	17.3934	6.08737	1.50294	-7.32714	-6.95289	191.233	2.08579	0.313217
0.6847	68.3449	-305.833	-12.8018	5.18134	1.83085	-3.36403	11.6827	217.478	1.78782	0.313217
0.6853	38.4529	-382.125	-47.2773	4.27531	0.901763	-1.84331	23.2709	209.263	1.48985	0.313217
0.6860	0	-422.45	-80.2352	4.86989	0.601175	7.3041	23.2709	179.955	1.78782	0
0.6867	-17.6926	-421.481	-111.053	6.08737	0.300588	21.9584	19.6052	216.573	2.08579	0.313217
0.6873	-31.1048	-434.015	-139.458	7.02171	-0.327914	25.9215	15.3247	276.72	0.856662	0
0.6880	-40.8785	-344.281	-102.22	9.14521	-0.327914	19.2165	14.1186	216.851	-1.56434	0
0.6887	-45.159	-78.7742	14.047	9.7681	-3.06053	14.9538	16.5545	97.2524	-2.79346	0.313217
0.6893	-33.5304	83.8603	98.2901	10.0512	-5.49256	16.175	18.068	43.8576	-2.49549	0.313217
0.6900	-21.331	-105.355	111.092	10.6741	-3.6617	12.5114	15.9396	48.7306	-2.19752	0
0.6907	-29.3212	-471.253	101.948	11.297	-3.06053	6.08291	2.81426	15.4546	-2.19752	0
0.6913	-38.1675	-311.948	74.7876	12.7976	-3.06053	5.78337	-23.7202	-71.8429	-1.26637	0.313217
0.6920	-46.3718	371.044	31.1291	12.203	-3.6617	6.08291	-53.6366	-73.9313	-0.335216	0.313217
0.6927	-42.3767	593.804	8.87179	9.7681	-11.6136	5.48384	-63.4037	-22.4161	-0.335216	0
0.6933	-13.4121	280.402	5.79779	9.14521	-23.5005	8.52529	-51.8156	-43.4399	-0.670431	0
0.6940	13.7689	117.404	5.79779	9.45665	-29.6216	9.74648	-35.9469	-65.7167	-1.26637	0.313217
0.6947	20.1182	123.217	-3.65767	10.9856	-26.8616	8.52529	-42.0484	-30.6307	-1.86231	0
0.6953	3.35304	87.5538	-38.1331	11.8916	-21.3691	5.78337	-73.4783	20.9542	-2.19752	0
0.6960	-35.0999	141.563	-73.2312	10.0512	-19.2376	3.04146	-81.7082	28.8903	-2.79346	0
0.6967	-59.4986	202.9	-94.2822	8.23918	-12.816	7.3041	-62.7888	-61.1221	-3.72462	0
0.6973	-54.6474	198.298	-91.5195	7.61629	-5.82047	10.6681	-49.9709	-188.727	-3.3894	0
0.6980	-52.1504	325.875	-43.3083	7.61629	-2.75994	7.62668	-42.6396	-236.622	-2.19752	0
0.6987	-38.7383	365.231	11.5956	8.23918	4.56347	2.1198	-27.3859	-203.694	-1.86231	0.313217
0.6993	2.4256	154.037	36.6545	7.30484	10.6572	-0.921653	-1.13517	-158.792	-4.02259	0.313217
0.7000	34.8145	32.2726	50.3513	6.08737	12.816	4.88476	12.5814	-143.825	-6.14562	0
0.7007	11.914	121.703	46.6936	6.71026	16.1771	18.6174	5.86502	-135.61	-5.54968	0
0.7013	-56.7876	223.91	18.9498	7.02171	18.0079	28.6865	9.8381	-33.0672	-5.54968	0.313217
0.7020	-89.7473	209.923	4.59154	5.77592	17.0788	21.6589	24.1932	138.117	-6.14562	0.313217
0.7027	-70.7705	185.462	39.067	4.55845	14.0183	8.22576	19.6052	221.446	-6.14562	0.313217
0.7033	-68.987	283.127	103.154	3.65242	9.45485	8.52529	4.35147	187.265	-5.54968	0.313217
0.7040	-90.318	358.51	145.295	2.74639	7.624	14.3317	0.378388	125.307	-4.61853	0
0.7047	-89.1052	227.604	150.47	1.21747	7.92458	10.0691	0.99327	109.157	-4.32056	0.313217
0.7053	-70.7705	6.35764	128.174	-0.311447	2.73262	2.1198	6.17246	79.5702	-4.32056	0
0.7060	-63.4937	-101.964	86.3832	-1.21747	-5.82047	3.04146	11.3753	-67.5267	-3.3894	-0.626435
0.7067	-58.5711	-123.641	24.4363	-0.311447	-10.3839	11.2903	-2.36493	-248.526	-0.9684	-0.313217
0.7073	-38.1675	-145.318	-34.1642	1.81205	-5.19197	21.9584	-19.4634	-319.603	0.558693	0.313217
0.7080	-21.331	-140.776	-60.3904	3.02953	0	31.4284	-13.3618	-262.588	-0.0372462	0
0.7087	-22.5438	-177.953	-77.2001	2.74639	-14.0456	30.8063	18.6829	-143.268	-1.26637	0
0.7093	-11.5573	-274.711	-94.2822	5.18134	-30.8239	27.7648	47.6769	-59.3121	0.856662	0.313217
0.7100	17.1219	-275.619	-106.5	9.45665	-33.2833	31.1288	50.4202	40.168	3.61288	0
0.7107	53.4346	-279.918	-109.224	10.0512	-34.4856	32.9491	47.6769	256.254	3.01694	0
0.7113	104.087	-378.189	-86.033	10.9856	-32.3542	30.8063	52.8798	496.078	1.19188	0.313217
0.7120	134.906	-318.972	-35.6817	14.3265	-22.5987	28.6865	60.1874	663.363	0.856662	0.313217
0.7127	121.779	-158.759	33.8918	14.0434	-9.78276	18.2948	77.9007	765.558	0.856662	0
0.7133	114.431	-117.223	104.983	11.5802	1.83085	3.04146	83.3873	775.652	0.558693	0.313217
0.7140	130.626	2.36141	165.723	10.0512	8.82635	1.52073	55.0082	649.301	0.260723	0.626435
0.7147	77.8333	177.53	175.801	9.45665	11.2857	9.44695	22.3486	444.841	-0.335216	0.313217
0.7153	-41.1639	190.366	95.5274	7.61629	10.6572	10.3686	-2.67237	160.741	-1.56434	0
0.7160	-82.6845	158.941	28.094	5.77592	9.15426	5.48384	-20.0782	-271.708	-2.49549	0.313217
0.7167	-54.0053	77.1394	31.7517	5.77592	13.1166	2.44238	-9.38876	-666.008	-2.79346	0.313217
0.7173	-68.987	-32.091	16.4984	6.39881	22.2708	0.299537	18.6829	-826.82	-3.09143	0
0.7180	-113.789	70.1157	-44.2422	7.02171	26.5337	0.299537	39.7544	-793.892	-2.19752	0.313217
0.7187	-120.852	237.655	-82.064	8.23918	21.9702	3.66357	60.8023	-587.9	-0.670431	0.313217
0.7193	-84.254	192.182	-67.1221	10.0512	15.5486	7.3041	67.2112	-308.952	0.558693	0.313217
0.7200	-61.3534	46.0172	-53.6977	11.8916	10.6572	10.0691	36.3962	-151.483	2.68172	0.313217
0.7207	-74.7656	-38.5091	-52.7638	11.5802	6.69491	14.6312	2.19938	-120.991	4.20882	0
0.7213	-77.8333	-68.1176	-43.9309	7.92773	1.83085	16.7741	-9.08132	-145.357	2.08579	0
0.7220	-64.0644	-70.2368	-66.4995	3.02953	-2.75994	12.811	-17.9261	-270.177	-0.0372462	0
0.7227	-49.7248	-87.6749	-117.785	0.906027	-4.29021	12.5114	-35.0246	-457.859	-0.335216	0.313217
0.7233	-23.828	-81.8622	-171.794	0.906027	-1.83085	20.1381	-43.2545	-530.189	-0.670431	0.313217
0.7240	14.3396	-48.5603	-235.569	0.59458	0.601175	22.5805	-41.1261	-416.647	-0.670431	0.313217
0.7247	55.5748	-38.8119	-279.812	0.283133	0.601175	16.175	-58.5083	-200.004	-0.9684	0.313217
0.7253	92.1729	0.544941	-268.839	-0.311447	-1.53026	10.3686	-107.344	38.9845	-1.26637	0.313217
0.7260	116.572	-29.0635	-218.799	-0.622893	-3.06053	6.70503	-156.795	277.277	-1.56434	0
0.7267	121.494	-69.6313	-147.396	0	-4.59079	3.04146	-181.201	471.991	-0.670431	0.626435
0.7273	111.078	119.887	-29.8839	2.1235	-4.29021	0.599075	-176.022	606.905	0.856662	0.626435
0.7280	92.4582	267.566	126.073	3.96387	-3.98962	-0.322579	-153.129	748.781	1.78782	0
0.7287	55.5748	88.1593	246.893	6.08737	-6.12106	-2.14284	-123.828	753.376	2.38375	0
0.7293	9.13168	-131.27	290.551	7.30484	-7.65132	-5.50688	-68.5829	441.778	3.31491	0.313217
0.7300	-11.914	-130.665	270.395	8.52231	-7.95191	-8.87091	8.91578	12.113	2.08579	0.626435
0.7307	-11.5573	-26.9443	195.646	9.7681	-7.02282	-9.17045	73.9276	-294.263	-0.0372462	0.626435
0.7313	-22.9005	42.0815	107.123	9.45665	-5.49256	-8.2488	130.686	-452.986	0.260723	0.313217
0.7320	-35.0999	84.4658	59.2231	6.71026	-5.49256	-8.54833	179.829	-500.324	0.856662	0
0.7327	-25.6115	96.0912	37.2382	4.27531	-4.89138	-6.42853	184.086	-422.495	1.78782	0
0.7333	-3.06767	30.4561	61.6745	3.96387	-3.06053	-1.22119	156.937	-327.888	2.38375	0.313217
0.7340	17.6926	-43.4136	157.786	4.55845	-1.83085	4.26265	117.253	-301.643	3.31491	0
0.7347	23.1859	-123.944	213.623	4.27531	-1.83085	12.1889	70.8769	-203.067	3.01694	0
0.7353	28.1084	-238.381	155.062	3.02953	-3.6617	19.8155	43.4201	-46.7814	2.08579	0
0.7360	58.2858	-184.977	61.9858	1.21747	-4.89138	19.516	13.1963	77.6905	2.08579	0
0.7367	86.3942	0.242196	-18.5996	-0.93434	-4.59079	13.1105	-36.8456	200.979	0.558693	0.313217
0.7373	56.4309	29.8506	-104.672	-2.15181	-3.36112	10.3686	-71.9411	260.848	-1.26637	0
0.7380	-13.6975	-17.4381	-193.779	-2.15181	-0.327914	15.2534	-82.0157	253.469	-0.0372462	-0.313217
0.7387	-34.4578	33.1808	-232.846	-1.52892	1.20235	15.2534	-86.9111	275.189	1.78782	-0.313217
0.7393	10.9865	77.4421	-134.555	-0.311447	-1.22968	4.56218	-96.6546	280.967	1.48985	0.313217
0.7400	12.1993	29.5479	48.8337	2.43495	-3.06053	-3.36403	-105.216	230.009	1.19188	0.313217
0.7407	-80.8296	-94.638	115.995	3.65242	-2.15877	-4.58523	-78.9649	194.574	1.19188	0.313217
0.7413	-153.17	-129.756	42.141	3.96387	-0.929089	-4.58523	12.274	221.724	1.78782	0.313217
0.7420	-152.599	82.6493	-19.8059	4.55845	-1.53026	-9.17045	106.28	257.159	2.38375	0.313217
0.7427	-139.472	232.811	-30.5065	4.86989	-4.59079	-14.0552	121.226	186.081	1.48985	0.313217
0.7433	-104.943	69.2075	-58.2892	6.71026	-7.02282	-13.1336	98.0262	-51.376	0.558693	0
0.7440	-34.4578	-129.756	-118.096	8.52231	-6.72223	-13.4331	82.7725	-329.976	0.558693	0
0.7447	29.6066	-199.933	-141.287	9.7681	-5.49256	-13.1336	51.0351	-412.4	0.856662	0.313217
0.7453	59.8553	-242.378	-104.049	9.45665	-5.49256	-3.98615	13.1963	-279.644	0.260723	0.313217
0.7460	66.5614	-127.032	-47.2773	6.08737	-7.65132	2.74192	9.22322	-98.7143	-3.09143	0.313217
0.7467	87.8924	202.9	-12.8018	1.81205	-8.55309	7.3041	41.8829	112.777	-7.07677	0
0.7473	150.459	302.684	11.9069	0.906027	-6.72223	15.2534	31.5008	396.946	-6.7788	0.313217
0.7480	218.233	58.2481	83.6205	3.65242	-4.89138	19.516	-60.0455	721.353	-3.72462	0.313217
0.7487	226.152	-149.919	133.388	5.18134	-4.59079	17.6957	-125.649	1107.09	-2.19752	0.313217
0.7493	174.287	-191.698	118.135	4.27531	-6.12106	15.5529	-91.1679	1478.14	-2.79346	0
0.7500	122.35	-201.446	131.871	2.43495	-7.65132	17.0736	-20.6695	1589.52	-3.09143	0
0.7507	95.8113	-356.815	141.598	0.59458	-7.65132	17.9953	19.6052	1388.13	-1.56434	0
0.7513	45.8011	-572.551	144.05	-1.52892	-4.89138	13.1105	29.3724	890.726	0.558693	0
0.7520	-42.3767	-629.346	226.153	-1.84037	-1.53026	4.56218	18.3755	73.444	3.01694	-0.313217
0.7527	-118.07	-564.922	285.648	-1.21747	0.300588	-0.622116	-29.2305	-640.669	5.43794	0
0.7533	-158.663	-440.13	227.048	-3.05784	0.300588	-3.0645	-103.064	-929.989	6.07113	0
0.7540	-154.382	-445.338	139.77	-3.68073	1.20235	-3.36403	-137.26	-1137.16	5.73591	0
0.7547	-105.585	-724.226	105.917	-2.46326	4.26288	3.04146	-114.983	-1435.67	6.07113	0
0.7553	-81.757	-796.582	42.7247	-2.46326	5.79315	12.1889	-76.2216	-1523.53	6.66706	0.313217
0.7560	-105.87	-433.712	-81.1691	-1.84037	3.96229	13.7326	-29.8217	-1269.36	7.89619	0.313217
0.7567	-113.789	-56.4922	-123.271	0.283133	-0.327914	5.48384	28.1426	-886.967	6.96503	0.313217
0.7573	-76.6205	329.205	-98.2512	4.27531	-1.83085	-6.42853	73.3127	-561.029	4.54403	0.313217
0.7580	-23.828	738.153	-148.291	8.52231	-1.22968	-14.3547	93.7694	-272.961	3.61288	0
0.7587	-29.6066	836.726	-270.356	9.45665	-3.36112	-19.2395	98.6411	-35.7822	2.08579	0
0.7593	-60.426	661.558	-387.557	10.0512	-4.29021	-21.6819	73.6202	67.666	-0.0372462	0.313217
0.7600	-21.0457	431.169	-475.458	10.0512	-4.29021	-23.8247	17.7843	145.774	-1.56434	0.626435
0.7607	25.6115	472.343	-553.592	7.61629	-5.82047	-26.8662	-49.356	315.774	-2.79346	0.313217
0.7613	29.0359	692.983	-628.652	4.86989	-4.59079	-19.539	-100.32	536.385	-4.02259	0
0.7620	32.9596	635.34	-623.749	1.81205	-2.45935	-8.2488	-116.496	713.973	-5.25171	0.313217
0.7627	29.3212	449.758	-525.809	-1.21747	-0.929089	-7.32714	-94.8336	776.279	-5.25171	0.313217
0.7633	11.914	319.154	-395.184	0.59458	1.83085	-5.20734	-28.3082	827.237	-2.79346	0
0.7640	3.6384	156.216	-187.358	2.74639	0.901763	2.1198	33.038	867.823	0.260723	0
0.7647	-4.28047	31.0616	58.2892	2.74639	-2.45935	6.70503	71.4918	598.064	1.78782	0
0.7653	-27.7517	-194.786	188.915	2.1235	-4.29021	11.5898	123.662	0.208846	2.08579	0
0.7660	-59.7839	-553.66	250.278	0	-4.59079	19.2165	139.223	-391.377	2.38375	-0.313217
0.7667	-82.3991	-480.093	315.882	-1.84037	-0.327914	22.2579	90.7186	-343.76	2.68172	-0.626435
0.7673	-100.734	-18.3463	275.298	-3.05784	2.43203	11.8893	11.0679	-331.856	1.78782	0
0.7680	-84.5393	172.686	213.623	-4.27531	1.20235	-2.14284	-96.3708	-601.614	1.48985	0.313217
0.7687	-0.57073	-5.26776	295.415	-2.74639	-0.929089	-9.76952	-165.025	-810.321	1.19188	-0.313217
0.7693	69.5577	-424.569	365.922	-1.52892	-3.36112	-14.0552	-168.075	-805.796	0.558693	-0.626435
0.7700	32.9596	-734.338	235.297	-0.311447	-4.29021	-15.8755	-177.535	-763.957	3.31491	-0.313217
0.7707	-60.426	-587.809	-10.3504	2.74639	-3.6617	-22.281	-187.917	-684.944	7.59822	0.313217
0.7713	-28.0371	-460.899	-82.6866	6.08737	-4.29021	-26.8662	-146.105	-494.825	10.9504	0
0.7720	104.087	-429.111	46.11	8.83376	-7.65132	-24.4238	-27.3859	-287.302	12.1423	0
0.7727	92.8149	125.7	50.6626	11.5802	-11.313	-28.3869	122.456	-151.483	12.1423	0
0.7733	-39.0236	643.575	-131.52	15.8555	-10.3839	-34.7924	195.083	-10.7904	13.0734	0
0.7740	-94.5984	374.98	-245.025	20.1308	-5.49256	-31.751	212.465	238.223	14.6005	0
0.7747	-54.9327	-63.8186	-227.943	20.7537	-3.36112	-18.6174	198.441	510.419	14.8985	0
0.7753	-31.7468	-145.318	-160.509	18.6019	-4.59079	-2.76496	130.071	583.375	14.6005	0.313217
0.7760	-54.0053	61.5783	-52.1801	13.1091	-6.12106	7.00456	87.053	497.052	9.42328	0.313217
0.7767	-36.8834	379.884	68.9898	5.18134	-8.55309	18.6174	77.5933	638.65	0.856662	0
0.7773	30.8194	533.679	193.817	1.81205	-9.78276	30.8063	64.4679	1033.23	-2.79346	0.313217
0.7780	70.8418	544.396	372.926	2.1235	-7.65132	34.4698	38.8321	1271.87	-0.335216	0.313217
0.7787	64.9919	439.707	544.136	0.906027	-6.42165	32.9491	-18.2336	1398.22	1.48985	0
0.7793	51.009	173.291	546.899	0.283133	-7.02282	23.8017	-55.4575	1658.86	3.01694	0.313217
0.7800	39.095	52.4354	420.554	0.283133	-4.59079	16.175	-55.765	1668.61	4.54403	0.313217
0.7807	4.28047	124.731	345.766	-0.311447	0	16.7741	-59.7381	1047.22	4.20882	0
0.7813	-17.0506	52.1327	331.136	0.906027	2.13144	4.26265	-59.4306	-8.63228	5.13997	0
0.7820	27.7517	-125.821	290.862	2.74639	0.300588	-15.5759	-46.9202	-976.353	7.89619	0.313217
0.7827	56.4309	-5.57051	194.401	2.74639	-2.45935	-23.2026	-13.3618	-1508.91	8.19416	0
0.7833	36.3127	579.756	53.7366	3.65242	-4.89138	-26.8662	48.2918	-1719.15	7.59822	0
0.7840	5.20791	1005.48	-70.4685	5.49279	-6.12106	-31.4514	62.032	-1612.08	7.89619	0.313217
0.7847	-57.6437	770.788	-139.77	6.08737	-5.19197	-29.3086	33.3455	-1258.02	6.96503	0
0.7853	-103.445	333.806	-135.489	4.86989	-4.29021	-21.9814	42.8052	-994.383	5.13997	0
0.7860	-67.4174	76.5339	-28.989	3.34097	-8.2525	-21.0598	55.9305	-765.21	2.68172	0.313217
0.7867	-44.2316	-50.4373	50.6626	1.81205	-16.4777	-22.6035	48.2918	-420.963	2.68172	0.313217
0.7873	-96.4533	-225.605	-45.4485	1.52892	-24.4296	-13.7326	3.1217	-214.067	5.73591	0
0.7880	-79.0461	-502.678	-176.385	1.52892	-34.185	-5.20734	-67.6842	-276.929	8.49213	0
0.7887	1.56951	-588.415	-280.123	0.906027	-37.8467	-4.88476	-76.2216	-362.974	8.49213	0
0.7893	1.85487	-478.276	-453.784	0.59458	-32.6548	7.00456	-11.5172	-286.954	6.96503	0.313217
0.7900	-28.3938	-604.279	-561.802	-0.93434	-27.7907	32.6496	62.6469	-73.9313	5.13997	0.313217
0.7907	-28.3938	-901.271	-558.144	-2.74639	-23.8011	52.1656	101.692	208.915	3.01694	0
0.7913	-30.1773	-933.302	-558.144	-1.52892	-18.6364	42.0965	97.435	400.009	3.01694	0
0.7920	-39.9511	-530.772	-495.886	1.21747	-17.1062	16.175	83.0799	433.215	4.20882	0.313217
0.7927	-33.8871	113.469	-380.242	5.77592	-13.7451	13.1105	150.22	400.914	4.842	0.313217
0.7933	-0.285365	420.452	-249.928	10.6741	-0.628502	20.4377	233.537	342.924	4.54403	0
0.7940	28.3938	332.898	-42.997	13.1091	11.8869	24.7003	112.689	395.693	3.91085	0
0.7947	10.4158	185.462	161.132	12.203	21.6696	34.7694	-92.3977	526.639	3.91085	0
0.7953	-18.9054	-93.7298	317.711	6.08737	21.9702	41.1979	-196.455	436.278	1.48985	0
0.7960	5.77864	-431.593	453.823	-0.311447	13.7177	46.0827	-296.869	19.7011	-2.19752	-0.313217
0.7967	67.1321	-584.479	567.328	-1.84037	23.8011	52.4882	-327.377	-449.923	-1.86231	0
0.7973	134.906	-632.373	605.188	-3.05784	45.4707	41.797	-244.368	-631.827	-0.0372462	0.313217
0.7980	190.124	-687.897	482.501	-2.74639	55.2262	29.5851	-187.61	-537.499	1.19188	0.313217
0.7987	195.332	-762.069	276.815	0.59458	48.2033	36.6127	-138.466	-254.931	4.20882	0.313217
0.7993	166.296	-791.981	104.088	4.86989	31.7257	45.7601	-51.8156	174.734	7.59822	0
0.8000	148.96	-516.422	36.3432	9.14521	19.8388	48.502	77.5933	603.842	8.7901	0
0.8007	136.404	-4.96502	57.3942	11.5802	9.75544	40.5758	287.859	959.645	6.3691	0
0.8013	111.72	310.919	18.016	13.1091	-0.327914	12.5114	484.692	1220.56	0.856662	0
0.8020	100.734	350.881	-114.127	14.638	-4.29021	-16.7971	439.522	1203.51	-4.61853	0
0.8027	57.715	394.234	-319.812	14.3265	-11.6136	-21.6819	144.734	745.718	-6.44359	0
0.8033	-35.6706	276.103	-537.093	9.14521	-21.6696	-13.1336	-84.4516	161.925	-6.7788	0
0.8040	-38.7383	14.895	-488.26	-1.52892	-11.9142	6.70503	-191.583	12.7396	-11.3228	0
0.8047	56.1455	194.968	-128.174	-10.0795	6.39432	36.6127	-338.681	276.372	-15.9041	0.313217
0.8053	46.7285	393.932	149.536	-8.55063	5.16464	25.3224	-452.198	493.989	-9.1998	0
0.8060	-130.626	184.251	122.104	-0.311447	-3.06053	-6.72807	-470.502	530.259	3.31491	0
0.8067	-278.587	207.138	23.1912	8.23918	-4.59079	1.22119	-415.872	346.892	11.8443	0.313217
0.8073	-273.094	567.586	129.108	15.2609	-10.3839	10.0691	-273.977	-138.952	17.0587	0.313217
0.8080	-232.216	700.915	299.073	19.5362	-25.3313	-13.1336	-22.2067	-817.352	18.2506	0
0.8087	-214.808	543.79	254.83	18.6019	-47.3016	-38.456	262.838	-1366.41	15.5317	0
0.8093	-181.278	586.477	30.2341	14.9494	-63.1781	-50.3684	427.319	-1436.23	11.2483	0.313217
0.8100	-140.685	694.194	-268.527	13.1091	-60.4455	-52.5112	519.48	-1178.72	6.07113	0
0.8107	-89.1052	418.03	-480.322	13.1091	-51.8924	-48.2255	620.486	-1045.97	1.78782	0
0.8113	-34.4578	452.846	-471.8	12.7976	-52.4935	-41.1979	584.492	-1017.84	-0.9684	0.313217
0.8120	12.8414	845.264	-447.053	11.297	-57.3849	-31.751	409.936	-890.587	-1.86231	0.313217
0.8127	76.6205	607.548	-520.906	4.86989	-50.9633	-18.0183	255.814	-721.213	-4.61853	0.313217
0.8133	126.987	101.541	-528.533	-3.68073	-40.6067	8.22576	142.889	-486.262	-11.3228	0.313217
0.8140	161.16	-58.0665	-389.697	-9.45665	-37.8467	35.9906	32.4232	-216.155	-15.3082	0.626435
0.8147	218.233	-127.94	-209.343	-13.732	-34.8135	35.9906	-139.081	-60.8437	-13.1851	0.313217
0.8153	230.717	-241.772	-117.473	-14.6663	-28.3919	15.2534	-316.404	24.6438	-9.49777	0
0.8160	170.006	-49.1658	-71.7136	-9.45665	-18.6364	10.3686	-363.702	139.996	-5.54968	0
0.8167	105.585	227.604	30.5454	-4.58676	-6.72223	27.1427	-252.007	281.245	0.260723	0.313217
0.8173	27.181	-134.358	136.734	1.52892	1.50294	46.3822	-30.7441	433.842	9.12531	0.313217
0.8180	-83.3265	-574.125	216.075	7.02171	3.6617	51.866	181.035	535.202	17.3567	0.313217
0.8187	-148.318	-464.229	448.92	7.02171	6.9955	36.3131	291.217	378.637	17.6547	0
0.8193	-131.197	-513.395	879.513	6.71026	12.816	8.22576	286.322	78.0386	13.3714	0
0.8200	-77.4766	-857.01	1145.36	7.92773	8.22517	-14.6543	178.292	-22.068	12.7754	0
0.8207	-17.4073	-682.75	964.068	8.52231	-2.15877	-13.1336	-40.8186	-34.3203	13.3714	0.313217
0.8213	56.1455	-14.7134	481.878	6.71026	-3.98962	11.8893	-291.667	-236.622	10.9504	0
0.8220	171.79	288.94	19.2611	1.52892	-3.98962	23.4791	-390.852	-488.699	6.66706	0
0.8227	291.143	77.7449	-183.389	-3.68073	-7.02282	6.40549	-339.887	-370.005	3.61288	0.313217
0.8233	367.122	-236.262	-132.415	-7.33315	-2.45935	1.52073	-316.687	44.7626	1.78782	0.313217
0.8240	398.869	-488.327	32.6855	-9.45665	1.50294	16.7741	-411.001	441.151	0.856662	0.313217
0.8247	326.243	-481.909	94.3211	-8.23918	14.9474	37.5343	-500.111	1018.89	1.48985	0.313217
0.8253	148.318	-145.62	15.8758	-5.80423	62.8502	60.1148	-501.932	1702.44	2.68172	0.313217
0.8260	27.181	145.499	92.8036	-1.84037	97.3358	57.972	-492.472	1855.66	5.13997	0
0.8267	-24.3987	-31.4855	256.348	5.49279	79.0272	37.2118	-485.756	1646.96	8.19416	0.313217
0.8273	-153.526	-274.408	340.902	13.1091	46.9737	23.1796	-492.78	1605.74	10.3172	0.626435
0.8280	-313.117	-11.0199	379.658	16.7898	11.2857	7.62668	-475.705	1204.76	10.0192	0
0.8287	-381.747	293.239	239.577	17.3844	-40.3061	-0.322579	-342.631	236.692	6.66706	0
0.8293	-354.28	310.313	74.4763	16.4784	-73.8626	9.74648	-143.669	-551.84	1.19188	0
0.8300	-286.578	225.787	39.3783	14.9494	-72.0317	2.44238	27.244	-1205.87	-2.49549	0.313217
0.8307	-198.685	115.588	-31.1291	12.203	-55.8547	-34.7924	209.722	-1948.32	-3.72462	0
0.8313	-85.7521	194.362	-93.076	5.49279	-46.0992	-38.1564	420.91	-2097.3	-5.84765	0
0.8320	5.49327	293.239	-93.6596	1.21747	-32.0536	0.898612	509.405	-1520.81	-5.25171	0.313217
0.8327	89.7473	143.985	-144.011	0.906027	-7.65132	16.7741	473.104	-823.756	-2.19752	0.313217
0.8333	194.119	9.38509	-246.27	-3.05784	1.20235	4.56218	386.737	-285.422	-4.02259	0.313217
0.8340	248.41	38.0853	-361.603	-5.20965	1.83085	-8.87091	244.51	13.6446	-5.84765	-0.313217
0.8347	217.305	174.199	-458.959	-0.93434	11.8869	-3.0645	175.241	60.6348	-2.49549	0
0.8353	157.45	288.031	-429.076	3.02953	16.7783	10.0691	155.092	81.3801	0.856662	0.313217
0.8360	109.58	287.123	-369.541	4.86989	17.68	3.34099	96.8201	210.447	2.38375	0.313217
0.8367	32.0322	357.905	-426.313	3.65242	25.9325	13.1105	88.5665	303.244	4.54403	0.313217
0.8373	-105.3	407.373	-385.417	1.81205	24.7028	43.0182	90.1037	252.912	8.19416	0
0.8380	-209.315	160.455	-81.1691	4.27531	5.79315	39.9767	81.2589	66.4129	14.0046	0
0.8387	-216.021	-202.718	298.489	7.61629	-8.85367	26.2441	133.429	-101.708	18.8838	0.313217
0.8393	-182.776	-156.337	445.263	7.30484	-4.89138	49.7232	208.516	-175.57	19.4797	0.313217
0.8400	-128.771	172.08	382.693	5.77592	4.56347	68.9627	262.838	-471.921	17.0587	0.313217
0.8407	-38.7383	38.6908	350.98	4.27531	8.22517	44.2394	279.605	-887.594	13.3714	0.313217
0.8413	61.6388	-374.798	339.074	5.18134	12.5154	-0.921653	240.253	-834.129	9.72125	0.313217
0.8420	101.947	-293.057	280.784	2.1235	14.9474	-35.7141	188.366	-349.538	3.31491	0.313217
0.8427	61.9242	50.0135	168.175	-4.89821	15.8492	-29.6081	147.169	143.616	-4.02259	0.313217
0.8433	24.1133	70.1157	43.9698	-7.33315	28.9931	4.56218	86.1307	451.524	-7.67271	0
0.8440	16.1945	71.6294	4.90283	-8.55063	41.1805	17.0736	2.19938	376.479	-9.79574	-0.313217
0.8447	7.63351	145.196	-160.821	-7.33315	36.9176	17.0736	-131.159	-99.8978	-8.90183	0
0.8453	25.0408	-15.9244	-571.258	-0.93434	24.4023	20.1381	-237.959	-538.752	-4.32056	0.313217
0.8460	78.1186	-235.354	-885.622	3.02953	13.4171	13.4101	-226.063	-634.542	-1.26637	0
0.8467	110.508	-455.086	-899.319	3.65242	5.16464	12.1889	-177.535	-512.785	-0.0372462	0.313217
0.8473	102.232	-629.346	-744.919	4.27531	-0.628502	15.2534	-137.26	-221.655	3.61288	0.313217
0.8480	98.5936	-500.861	-546.238	1.52892	-2.15877	24.1012	-88.4246	375.574	5.73591	0.313217
0.8487	128.2	-300.686	-349.424	-1.21747	-1.83085	45.161	-48.7648	1121.08	5.73591	0.313217
0.8493	157.45	-389.451	-79.9239	-3.36929	-1.22968	48.502	-17.9261	1544.06	6.96503	0.313217
0.8500	120.281	-163.301	311.602	-4.89821	3.33379	35.3915	9.22322	1469.65	6.66706	0
0.8507	71.4126	359.419	577.406	-5.20965	10.9851	24.7003	12.5814	1394.25	4.54403	0
0.8513	78.7607	126.608	635.383	-7.6446	16.7783	12.1889	8.60834	1641.46	3.01694	0.313217
0.8520	33.245	-449.273	594.799	-9.45665	19.2103	10.9677	38.2172	1409.5	1.78782	0.313217
0.8527	-43.6608	-810.327	538.339	-10.9856	21.3417	24.4008	37.6023	119.181	1.19188	0
0.8533	-26.5389	-1002.27	613.438	-13.1374	26.2331	28.0643	-28.9231	-1188.19	1.48985	0
0.8540	-26.8243	-574.125	722.662	-9.17352	30.496	13.7326	-50.2784	-1478.07	6.66706	0.313217
0.8547	-115.359	-85.4951	686.357	-2.15181	27.4628	-10.6912	-27.0784	-1124.98	12.4775	0.313217
0.8553	-189.839	-11.9887	563.047	1.52892	19.8388	-24.1243	-28.3082	-778.019	14.0046	0.313217
0.8560	-203.822	424.448	453.823	6.08737	15.5486	-23.8247	-53.944	-495.103	16.1276	0
0.8567	-168.722	752.503	340.902	10.9856	13.7177	-32.9721	-98.8067	-244.837	18.5858	-0.626435
0.8573	-121.423	591.685	231.328	13.4205	14.0183	-51.8891	-112.831	-222.003	20.0757	-0.313217
0.8580	-83.3265	698.796	212.728	12.7976	15.5486	-78.7553	-97.5769	-410.869	19.7777	0.313217
0.8587	-27.4664	652.112	225.53	11.297	15.248	-100.115	-85.9888	-564.997	18.2506	0.313217
0.8593	47.2992	261.45	174.284	11.297	14.3462	-95.8289	-73.4783	-607.741	18.2506	0.313217
0.8600	97.3808	223.607	103.777	11.297	9.45485	-78.7553	-93.0126	-626.954	17.6547	0
0.8607	118.712	343.555	60.7406	14.9494	4.26288	-63.1793	-134.21	-650.136	17.0587	0
0.8613	152.313	245.284	-39.6507	22.2826	-1.22968	-64.4005	-119.855	-594.583	22.236	0
0.8620	184.631	143.38	-263.352	27.7754	-8.2525	-73.2484	-43.8694	-442.892	27.4132	0.313217
0.8627	160.803	239.168	-514.214	29.5874	-12.2148	-67.1424	4.35147	-283.612	25.5881	0.626435
0.8633	114.431	346.946	-656.707	25.935	-14.0456	-59.5158	13.8112	-105.119	16.7235	0.313217
0.8640	128.486	142.774	-554.487	18.2904	-13.4445	-40.8984	16.8619	116.466	6.07113	0
0.8647	152.599	-130.059	-291.446	11.297	-12.2148	-0.322579	22.656	303.244	-1.86231	0
0.8653	62.5662	-20.2234	-58.8729	4.86989	-12.816	31.4284	56.238	486.332	-7.97068	0.313217
0.8660	-90.6033	112.863	121.17	2.1235	-5.82047	46.6817	105.358	673.109	-13.1851	0.313217
0.8667	-147.106	46.0172	150.47	0.906027	4.56347	47.9029	134.044	797.024	-16.5373	0
0.8673	-102.232	315.521	60.7406	-2.74639	6.69491	30.5067	9.8381	729.567	-19.2563	0.313217
0.8680	-54.6474	597.497	3.38529	-5.49279	14.3462	21.0367	-289.845	223.604	-21.4165	0.313217
0.8687	-37.2401	367.351	-47.8999	-8.55063	35.9885	34.1703	-467.452	-514.317	-22.9436	0.313217
0.8693	-35.3852	179.104	-130.898	-12.5145	54.9256	57.3729	-377.111	-809.416	-24.4707	0.313217
0.8700	-42.7334	226.695	-304.248	-10.0795	48.8045	65.2991	-223.32	-427.368	-19.8895	0.626435
0.8707	-36.3127	266.052	-521.529	-1.21747	38.7485	47.6034	-173.255	87.7848	-7.97068	0.313217
0.8713	-5.20791	395.143	-581.336	6.39881	40.5793	20.7372	-124.135	237.318	2.38375	0.313217
0.8720	-7.34815	499.529	-449.193	6.71026	25.6319	-3.0645	101.384	216.573	5.13997	0.313217
0.8727	-59.4986	385.394	-351.836	6.08737	8.22517	-14.9538	379.098	236.065	3.61288	0.313217
0.8733	-74.7656	171.475	-447.675	7.61629	13.1166	-14.9538	484.077	164.083	1.19188	0
0.8740	-25.0408	21.616	-545.031	6.39881	20.1394	-22.6035	433.113	24.0172	-1.86231	0
0.8747	30.8194	-17.4381	-438.22	5.49279	22.5714	-41.5205	312.572	-59.5906	-5.25171	0
0.8753	49.4395	5.44941	-141.287	1.52892	20.44	-36.3362	216.746	-6.82229	-9.79574	0
0.8760	19.5475	6.66039	103.777	0	16.1771	3.34099	209.722	268.158	-10.4289	0.313217
0.8767	-12.8414	-1.57427	126.968	3.34097	23.5005	50.6448	238.408	561.725	-9.79574	0.313217
0.8773	-7.91888	-46.7438	115.995	5.49279	35.3874	87.2806	208.208	562.63	-10.4289	0
0.8780	-4.28047	-205.443	147.435	7.30484	35.0868	82.0732	87.6679	207.105	-8.26865	0
0.8787	-28.6792	-382.427	259.111	4.55845	26.5337	55.5296	25.0919	-223.465	-8.60387	0
0.8793	-45.4444	-463.321	593.281	-1.52892	19.8388	47.6034	102.307	-316.61	-9.1998	0
0.8800	-39.3804	-513.698	882.587	-4.89821	17.68	43.0182	188.981	-187.822	-7.67271	0
0.8807	-42.3767	-567.404	871.614	-7.6446	18.6091	53.7093	206.978	-241.217	-8.60387	0
0.8813	-54.2907	-536.585	747.682	-5.49279	20.44	66.8199	184.393	-353.784	-7.97068	0.313217
0.8820	-47.87	-441.644	574.37	-1.84037	41.809	58.2715	105.05	-228.686	-4.61853	0
0.8827	-11.2719	-279.615	279.85	-0.93434	80.2569	45.161	-0.236493	-102.613	-3.09143	0
0.8833	41.806	-55.8867	-9.76675	1.21747	79.3278	25.0229	-58.2245	-154.546	-2.79346	0
0.8840	62.2809	29.8506	-177.591	2.43495	39.6503	4.56218	-82.6306	-241.774	-3.3894	0
0.8847	39.095	26.1572	-206.58	3.65242	10.9851	-0.322579	-60.0455	-362.069	-3.72462	0.313217
0.8853	7.34815	111.652	-194.674	3.34097	-3.6617	3.96311	-11.2098	-469.485	-4.61853	0
0.8860	-3.6384	107.656	-192.845	0	-5.49256	9.44695	11.0679	-399.313	-6.7788	-0.626435
0.8867	1.85487	-32.3937	-96.111	-0.93434	3.33379	15.8524	54.3933	-153.641	-8.90183	0
0.8873	-2.14024	-68.1176	-14.3194	-3.05784	-1.22968	21.9584	140.453	116.188	-11.6581	0.313217
0.8880	-7.91888	-4.96502	-10.973	-2.74639	-12.5154	33.5712	183.779	296.491	-14.377	0
0.8887	6.13534	2.36141	70.1961	0.59458	-26.561	41.4974	135.581	323.711	-16.2393	0
0.8893	43.3755	12.4731	202.339	0.283133	-46.7004	30.8063	44.6262	342.298	-19.2563	0.313217
0.8900	80.2589	86.2823	270.084	-1.21747	-42.1369	22.2579	-22.5141	466.213	-22.0125	0
0.8907	75.693	81.1356	214.557	-7.33315	-15.5759	33.2486	-19.7708	603.842	-26.8917	0.313217
0.8913	52.5071	-50.1345	64.087	-10.9856	-3.36112	26.2441	14.1186	819.301	-28.1209	0.313217
0.8920	51.8651	-108.383	-65.6045	-8.23918	-5.82047	7.3041	24.1932	930.059	-21.4165	0
0.8927	67.7742	-47.652	-75.6826	-9.7681	-4.59079	10.3686	37.9098	558.662	-18.6603	0
0.8933	96.4533	-17.1354	104.399	-11.297	-7.02282	26.5436	67.2112	52.0722	-17.7292	0.313217
0.8940	116.857	-16.2271	309.773	-11.9199	-17.1062	80.852	81.2589	-114.239	-11.6581	0.313217
0.8947	84.8247	16.4088	313.12	-12.203	-10.0834	143.432	77.5933	-268.993	-5.84765	0.313217
0.8953	28.3938	87.1905	253.002	-9.45665	7.92458	152.28	70.262	-535.689	-3.09143	0.313217
0.8960	18.0493	164.754	251.795	-6.42713	9.15426	162.349	15.6322	-571.68	0.856662	0.313217
0.8967	20.7603	166.267	202.028	-6.11568	2.73262	184.93	-94.8336	-523.158	5.13997	0.313217
0.8973	-44.8736	84.7686	38.7557	-9.45665	9.15426	165.69	-163.511	-517.659	5.43794	0.313217
0.8980	-132.409	6.0549	-198.954	-5.49279	27.4628	113.202	-159.231	-352.601	8.49213	0.313217
