MR32 ASCII
Name	TYR15_fast
Frequency	1500
Date	10-09-2015 11:51:44
"Time,s"	"RT TIB.ANT.,uV"	"RT MED. GASTRO,uV"	"RT LAT. GASTRO,uV"	"RT BICEPS FEM.,uV"	"RT VMO,uV"	"RT VLO,uV"	"RT RECTUS FEM.,uV"	"RT SOLEUS,uV"	"RT SEMITEND.,uV"	"Channel 12,uV"
0.0000	-56.5634	11.6493	24.6314	74.5931	5.05842	40.4738	-9.49008	-24.4602	-56.0685	-7873.44
0.0007	2.64923	8.84225	16.0846	89.8444	16.0477	45.6461	-7.9612	-25.6987	-1.12643	-10544.4
0.0013	87.4711	3.36847	8.48745	104.799	11.7736	34.9761	-3.08531	-14.11	-29.8159	-9604.72
0.0020	34.6724	-3.01759	5.40111	101.752	0.480354	26.1145	3.01644	2.38852	43.1261	-9768.19
0.0027	-9.24907	-9.40366	1.1277	65.7322	-8.97967	34.9761	4.2423	12.7388	205.47	-9886.94
0.0033	56.0521	-15.2283	-6.46946	10.195	-12.0284	55.4119	-0.950385	14.2869	290.297	-9785.89
0.0040	86.8669	-15.509	-8.90292	-41.6858	-11.7245	79.8264	-8.27799	10.306	201.815	-9814.53
0.0047	95.6976	-13.6844	-5.87593	-67.3133	-12.646	98.7431	-12.5478	8.49252	87.9763	-9816.14
0.0053	178.707	-13.4037	-4.33276	-53.2808	-9.90117	98.7431	-11.322	10.9253	120.62	-9816.46
0.0060	210.777	-14.316	-8.01263	-24.2934	-6.53869	87.1327	-7.35516	11.5445	119.723	-9788.14
0.0067	136.923	-15.2283	-13.8292	-6.29158	-8.97967	65.1777	-5.52325	9.37716	-45.379	-9872.78
0.0073	60.9323	-13.6844	-15.9659	15.3831	-14.1655	38.3037	-4.31117	9.37716	-180.275	-9814.85
0.0080	22.1699	-11.2984	-29.6764	47.121	-16.3026	16.0593	-3.08531	12.7388	-230.021	-9556.77
0.0087	-31.5584	-7.29836	-67.8403	77.9365	-10.8129	-6.22118	-2.47927	14.9061	-291.975	-10495.8
0.0093	-119.122	-7.92995	-104.164	93.8137	0.480354	-31.2506	-2.16247	14.5965	-308.457	-8518.65
0.0100	-106.295	-29.2636	-116.628	93.8137	11.7736	-59.0289	-4.91721	12.1195	-224.826	-1938.51
0.0107	-1.02251	-54.3167	-99.5347	89.235	19.0965	-76.1371	-8.88404	11.8541	-121.976	108.124
0.0113	56.0521	-61.615	-62.0237	85.5786	21.8414	-79.1754	-7.9612	13.9773	32.4365	-211.422
0.0120	80.4529	-57.6851	-15.0163	83.1246	22.1453	-84.0583	-7.05213	12.7388	253.377	-47.3044
0.0127	93.5597	-45.1235	58.2251	56.8877	21.2336	-93.8241	-5.82628	10.6156	313.492	71.7611
0.0133	93.885	-28.9829	112.533	11.1173	14.2145	-99.3219	-5.22023	9.9964	220.412	-29.2837
0.0140	72.5053	-6.10536	92.4124	-37.7165	2.92133	-93.2092	-9.49008	6.9444	215.837	-1.28719
0.0147	-55.0296	40.2813	45.4049	-110.646	-6.23479	-81.9243	-10.0961	4.20203	248.504	0
0.0153	-228.67	90.6681	15.4911	-179.936	-17.8319	-66.6607	-5.22023	3.8924	123.677	-0.643597
0.0160	-247.912	67.4397	4.51081	-217.158	-28.2036	-40.4015	-0.950385	7.87327	-66.7581	-0.643597
0.0167	-94.1174	-47.299	15.1943	-232.113	-29.429	-18.7359	5.77118	15.4812	-183.332	-0.643597
0.0173	79.2445	-119.019	33.475	-223.269	-29.1251	-33.3846	12.176	19.462	-260.849	-0.321798
0.0180	157.048	-76.2819	63.3888	-186.952	-24.2432	-36.459	12.176	17.6485	-268.159	-0.321798
0.0187	137.202	-8.84225	101.256	-127.133	-11.1168	61.199	9.73801	13.0484	-205.608	-0.643597
0.0193	92.9555	14.6669	82.9159	-65.798	1.08815	176.58	5.45439	7.56365	-128.689	-0.321798
0.0200	67.6251	12.2107	7.53781	-31.3097	1.69594	198.246	-0.0275474	5.44052	-102.758	0
0.0207	71.6222	12.2107	-49.797	-34.0602	-1.96063	169.563	-2.47927	4.20203	-110.689	-0.321798
0.0213	55.7268	12.8423	-74.2504	-69.4544	1.69594	137.806	2.10738	-0.0442319	-56.6892	-0.321798
0.0220	-37.9723	5.82466	-76.6839	-115.538	3.52913	97.5134	9.73801	-1.59235	-71.6316	-0.321798
0.0227	-130.742	-5.19307	-51.9337	-129.57	-1.04894	46.8759	11.5699	-0.0442319	-210.481	-0.321798
0.0233	-117.31	-10.6668	-1.60253	-107.599	5.66621	9.00624	11.5699	3.58278	-303.86	0
0.0240	11.2011	-18.8775	48.1351	-88.3785	23.9785	-7.45095	13.7048	3.27316	-284.642	0
0.0247	133.577	-38.7375	63.3888	-80.1435	35.2717	-29.7315	8.20913	-10.1291	-189.125	0
0.0253	89.6091	-40.2813	53.3582	-69.4544	40.4575	-61.7778	-3.08531	-25.6987	-102.16	0
0.0260	-60.8394	-1.193	37.1549	-42.2952	40.1536	-87.422	-11.019	-29.9892	-68.5742	-0.321798
0.0267	-138.364	38.1761	13.6511	-14.5266	38.3204	-97.4772	-17.7268	-25.0795	-55.7697	-0.321798
0.0273	-185.957	11.93	-4.92628	3.47519	43.8102	-94.4389	-23.2225	-17.7812	-50.5743	0
0.0280	-221.048	-48.7727	-10.7429	38.8859	40.1536	-99.6112	-25.0544	-11.6772	-30.1377	0.321798
0.0287	-86.4951	-52.4921	-13.4731	81.6093	27.0272	-106.628	-25.3574	-4.33472	40.9882	0
0.0293	102.437	-18.8775	-16.8562	101.752	15.4301	-93.2092	-25.3574	5.1309	98.6659	-0.321798
0.0300	108.247	-16.1406	-17.7465	109.691	8.10719	-72.1584	-23.5255	12.1195	89.8154	-0.321798
0.0307	-43.1313	-22.8776	-13.4731	108.456	6.8916	-52.012	-14.0767	13.6676	106.275	-0.321798
0.0313	-153.33	17.7547	-9.85257	103.58	0.176456	-31.8655	-2.47927	11.8541	177.7	0
0.0320	-147.195	53.4044	-11.9893	102.971	-12.3421	-19.3508	1.48756	8.18289	233.24	0
0.0327	-127.07	19.5793	-12.8796	87.7033	-20.5768	15.7338	1.80435	1.15003	270.78	0
0.0333	-131.346	-13.6844	-13.8292	60.2476	-25.7626	107.605	0.578495	-4.0251	245.148	0
0.0340	-200.923	-12.4914	-35.7898	45.2928	-28.5075	197.92	-3.99437	-5.57322	169.769	0
0.0347	-315.956	-21.053	-70.5705	54.4501	-23.9393	221.72	-3.38833	-4.33472	202.113	0.321798
0.0353	-246.983	-39.3691	-87.0706	71.8426	-16.6065	195.497	-0.330569	-9.81947	286.044	0
0.0360	-35.1836	-49.4043	-78.1677	76.1083	-2.88212	158.242	-1.25341	-31.1835	257.354	-1.60899
0.0367	54.5184	-44.2112	-45.8204	82.5152	19.7043	126.196	3.31946	-50.734	210.964	-1.28719
0.0373	30.1176	-37.5445	-17.4497	88.0162	19.4004	74.6542	6.37722	-59.8899	222.251	0.321798
0.0380	12.4096	-20.7021	-5.87593	46.1986	0.480354	7.48712	2.71342	-60.1996	233.24	0.321798
0.0387	52.7057	46.3867	34.1279	-29.7779	-8.06798	-43.1504	1.48756	-52.2378	256.734	0
0.0393	86.2627	123.02	88.4357	-66.0945	-16.6065	-84.0583	-0.0275474	-48.8762	218.274	0
0.0400	-28.8162	147.09	95.1426	-41.0764	-26.3802	-114.585	-0.647364	-47.9916	87.6775	0
0.0407	-275.055	133.967	64.932	27.291	-17.528	-127.39	0.578495	-49.8051	-31.6549	0
0.0413	-420.623	96.4928	40.538	111.206	2.61744	-135.926	-0.647364	-50.1147	-103.057	0
0.0420	-216.168	47.0183	25.8778	155.148	14.5184	-138.674	-3.99437	-40.6491	-112.528	0
0.0427	202.225	9.19313	12.4641	133.177	14.2145	-159.436	-11.625	-35.1643	-75.2868	0
0.0433	432.615	-25.6144	3.62052	89.235	4.45062	-191.771	-20.7845	-23.8852	-47.5169	0
0.0440	449.719	-35.6497	2.07735	88.6256	-12.646	-165.838	-25.3574	5.1309	-34.7124	0
0.0447	405.472	1.26318	2.37411	103.877	-37.3597	-101.745	-28.4151	32.2893	-26.4596	-0.321798
0.0453	327.017	43.6498	-0.356117	92.8914	-55.3681	-63.2969	-28.1121	48.1685	-57.9076	-0.321798
0.0460	302.617	57.1237	-6.46946	102.971	-54.7603	-39.7866	-24.4483	54.2725	-187.608	0
0.0467	282.492	45.4744	-10.7429	146.617	-46.5159	-16.9274	-22.0104	55.7764	-271.216	0.321798
0.0473	162.254	30.5268	-11.9893	171.026	-31.2622	-4.4127	-16.2116	50.2916	-124.436	0.321798
0.0480	45.3623	20.1407	-13.8292	146.304	-8.67577	-0.434036	-11.625	35.3413	80.3442	-0.321798
0.0487	-30.3035	16.2108	-8.01263	70.3109	1.69594	2.92974	-3.38833	24.6371	184.711	-0.321798
0.0493	-16.5926	17.7547	2.07735	-62.1252	-6.84259	2.60421	15.5367	14.2869	284.802	0
0.0500	165.926	15.5792	6.35075	-189.077	-17.2241	1.69997	27.1342	-0.663478	335.469	0
0.0507	330.085	13.123	9.08098	-236.082	-22.7139	14.8296	29.2691	-9.81947	138.321	0
0.0513	307.218	12.8423	15.4911	-226.629	-26.988	34.6505	32.3131	-14.11	-162.275	-0.321798
0.0520	102.437	14.6669	25.2843	-186.952	-27.5958	44.127	36.5829	-12.8715	-211.401	-0.965395
0.0527	-77.6178	23.2284	35.3149	-125.914	-17.528	58.1608	38.4148	-3.71548	-135.424	-0.643597
0.0533	-12.6419	24.4214	34.1279	-93.5666	2.92133	115.851	32.6161	6.32516	-217.516	0.321798
0.0540	27.6542	12.8423	18.8742	-114.928	23.6746	199.15	23.1674	16.1004	-325.239	-0.321798
0.0547	-104.761	-6.38607	-4.33276	-164.059	29.1643	229.677	14.6139	27.3795	-339.584	-0.321798
0.0553	-55.9592	-33.2637	-24.8095	-215.33	23.0668	193.978	13.085	40.5164	-328.595	0
0.0560	165.275	-49.4043	-29.6764	-219.299	20.6258	132.309	19.5036	53.3436	-277.009	0.321798
0.0567	258.695	-49.4043	-32.4066	-150.323	14.5184	85.6136	20.1096	60.6861	-174.16	0
0.0573	205.571	-49.1236	-39.1135	-100.896	11.7736	83.4795	18.8837	69.2229	-100.321	0
0.0580	110.989	-47.8604	-43.0902	-139.946	20.0082	92.3411	19.2005	73.4691	-94.2062	0
0.0587	22.1699	-42.1059	-45.5236	-201.298	18.175	73.7137	7.9061	59.4476	-89.6315	0
0.0593	-120.935	-33.2637	-44.3366	-211.674	4.13692	45.6461	2.10738	37.4644	-46.2985	-0.321798
0.0600	-318.698	-30.8075	-39.4103	-176.576	-10.8129	10.8509	8.51215	17.0293	12.5976	0
0.0607	-530.497	-56.422	-35.1369	-118.898	-25.1548	-33.9995	8.20913	-4.95397	15.3332	0
0.0613	-670.255	-90.9488	-30.2699	-59.6876	-34.9188	-67.5649	8.51215	-24.1948	-81.9994	0
0.0620	-549.413	-78.3872	-21.7231	-23.9805	-45.9081	-97.8027	10.344	-39.7202	-150.666	0
0.0627	-235.41	-12.4914	-5.2824	-18.7924	-49.8783	-132.272	17.0518	-51.9282	-100.321	0
0.0633	64.2787	49.7552	13.3544	-58.7818	-14.1655	-156.976	33.2359	-67.8074	-54.8502	0
0.0640	200.087	70.5275	32.2879	-112.178	45.3395	-178.967	37.2028	-87.6676	-70.1144	-0.321798
0.0647	35.8808	66.2467	53.0021	-105.162	72.8079	-197.884	23.4704	-93.4619	-32.5745	0
0.0653	-299.503	62.5975	64.0417	-64.5793	73.1118	-207.939	3.63626	-91.0292	43.1261	0.321798
0.0660	-485.042	57.4044	60.3618	-40.7635	71.8864	-207.65	-13.1539	-84.3059	73.9305	-1.28719
0.0667	-416.673	46.7376	53.0021	-33.4508	62.7401	-195.135	-14.6828	-65.0651	78.2063	-1.60899
0.0673	-82.498	30.5268	42.3186	-42.9046	41.3692	-185.369	-7.35516	-42.7722	45.8617	0
0.0680	332.827	7.01766	22.4947	-43.8269	30.3897	-168.876	-0.330569	-11.058	-10.5976	0.321798
0.0687	479.929	-19.5091	-4.33276	-0.477633	26.4194	-117.624	5.77118	29.5469	-31.0342	-0.321798
0.0693	451.252	-40.8428	-30.2699	55.9654	12.6853	-56.6055	17.9747	58.5188	-39.5859	0
0.0700	468.356	-52.7728	-42.7934	91.0632	14.2145	-14.7934	46.0455	69.7979	-94.8269	0
0.0707	478.395	-56.7728	-40.9534	127.083	20.9297	27.9591	69.8464	67.0555	-179.654	0
0.0713	424.388	-51.2289	-33.6531	150.57	6.27401	72.484	61.9128	42.6395	-204.688	0
0.0720	236.99	-34.7374	-23.5631	138.678	-7.14648	97.224	35.0678	7.87327	-134.804	0
0.0727	-82.2191	-17.6845	-14.7195	124.629	-8.67577	102.722	10.041	-12.8715	-39.5859	0
0.0733	-369.684	-4.28077	-7.06299	123.114	-20.5768	101.203	-8.88404	-21.7178	43.7238	0
0.0740	-436.798	7.01766	3.62052	109.065	-40.7222	95.09	-20.1785	-28.4411	150.849	0
0.0747	-204.27	9.19313	7.24104	84.6563	-44.3788	45.3567	-25.3574	-31.4931	277.193	0
0.0753	75.8981	4.63165	2.07735	52.622	-31.87	23.9805	-24.4483	-26.318	305.561	0.321798
0.0760	172.944	0.350883	-1.009	-5.36925	-18.4397	191.229	-18.6496	-12.2522	197.539	0
0.0767	138.132	-5.47377	-2.49282	-53.8902	-5.9309	386.22	-7.05213	2.0789	75.4707	-0.321798
0.0773	9.94623	-12.4914	-5.57917	-60.61	-4.7055	401.772	4.84834	14.9061	-6.94248	0
0.0780	-186.887	-22.5267	-10.1493	-19.7147	-17.8319	352.039	4.54532	29.5469	-22.1837	0
0.0787	-351.976	-28.632	-9.85257	54.4501	-20.2729	312.687	-1.25341	42.0645	76.0684	0.321798
0.0793	-326.646	-26.5267	-4.62952	64.2169	-9.58747	242.481	-2.78229	49.3628	170.987	0
0.0800	-91.0499	-21.9653	-2.78958	-10.8538	0.176456	152.166	-3.38833	42.0645	163.355	0
0.0807	76.7812	-15.2283	3.26441	-91.1291	8.41109	75.5584	0.275474	18.5332	90.1143	0
0.0813	98.161	-10.0352	12.4641	-138.118	0.784251	11.4658	6.68024	-0.663478	-25.8619	0
0.0820	187.259	-14.5967	6.94428	-160.699	-28.2036	-55.3757	8.51215	0.840405	-110.091	0
0.0827	242.521	-25.6144	-12.286	-171.684	-51.7017	-142.038	14.0079	15.1715	-178.757	-0.321798
0.0833	66.742	-31.4391	-24.8095	-131.711	-55.672	-227.471	26.2114	20.0813	-327.676	-0.321798
0.0840	-198.785	-25.6144	-23.5631	-34.0602	-41.33	-241.541	32.0101	12.1195	-375.583	0
0.0847	-316.281	-16.7722	-20.2393	38.8859	-3.79381	-187.214	24.0764	-0.0442319	-197.355	0
0.0853	-299.503	-15.2283	-19.2897	69.7015	34.3502	-140.194	7.28629	-12.2522	-14.8735	0
0.0860	-307.125	-16.1406	-16.2627	86.4845	45.9473	-125.545	-13.4569	-15.9235	69.3558	0
0.0867	-331.247	-14.9476	-12.286	70.3109	43.8102	-106.628	-31.4591	-14.11	125.516	0
0.0873	-226.532	-16.7722	-11.9893	23.0087	37.4088	-22.4252	-36.9548	-16.5427	159.999	0
0.0880	88.4006	-19.7898	-11.0396	-24.9028	17.2633	82.8647	-36.6518	-15.3042	214.619	0
0.0887	500.379	-13.6844	-1.009	-46.561	-5.3231	104.53	-36.6518	-9.81947	221.033	0
0.0893	758.238	1.54388	12.7609	-42.2952	-14.4694	82.2498	-30.5501	-15.9235	50.1376	0
0.0900	793.979	14.9476	18.2213	-20.0112	-19.6651	62.1395	-23.8423	-37.9067	-111.907	0
0.0907	696.608	20.4916	18.8742	9.5856	-21.8022	36.1696	-18.9526	-59.2707	-120.459	-0.321798
0.0913	461.338	19.5793	19.4677	14.7737	-9.28357	-0.759563	-9.49008	-67.4978	-116.804	-0.321798
0.0920	65.2083	10.3861	9.97127	-14.2137	6.58771	-33.7101	-0.950385	-76.0346	-124.114	-0.321798
0.0927	-322.37	0.631589	-4.33276	-56.9371	13.293	-46.2248	0.881517	-82.1386	-77.4247	0
0.0933	-373.96	-5.75448	-9.19969	-86.2374	16.3516	-72.1584	-0.950385	-59.8899	-29.517	0.321798
0.0940	-180.473	-8.84225	-5.87593	-79.5341	13.9106	-117.624	-0.647364	-23.8852	-4.18388	-0.321798
0.0947	-137.156	-5.19307	0.237411	-52.6714	0.176456	-156.687	4.2423	-9.50985	32.4365	-0.321798
0.0953	-225.324	-4.84218	2.07735	-47.4833	-4.09771	-214.378	11.2531	-15.3042	16.8734	-0.321798
0.0960	-106.62	-6.10536	4.21405	-50.8432	15.1262	-278.759	16.7488	-22.9563	-90.2522	-1.60899
0.0967	198.878	2.73689	18.2213	-28.2627	28.5565	-265.341	15.2199	-22.9563	-130.528	-1.28719
0.0973	236.99	12.5616	31.0415	2.2564	23.9785	-223.528	14.0079	-27.8218	-7.54017	0.321798
0.0980	-122.19	12.8423	30.448	19.6488	17.5672	-210.109	14.6139	-39.7202	170.688	0
0.0987	-501.82	2.45618	20.358	24.8369	34.9678	-124.351	11.2531	-31.1835	320.526	-0.321798
0.0993	-674.252	-11.5791	5.69787	24.2275	92.3357	6.87223	7.60308	1.45965	379.721	0
0.1000	-597.657	-24.9829	-7.71587	3.17873	133.234	96.8985	-0.950385	42.9491	274.136	0
0.1007	-175.268	-32.6321	-12.5828	-34.3566	123.774	143.594	-17.1207	73.4691	78.5052	0
0.1013	237.315	-28.3513	-7.06299	-32.2155	97.2177	149.091	-28.7182	71.6556	-53.3099	0
0.1020	219.328	-23.7899	-6.17269	6.2257	49.3098	132.019	-30.8531	52.1051	-79.5626	0
0.1027	45.9665	-24.9829	-10.7429	41.0105	-17.528	103.626	-31.1561	43.5684	-84.758	-0.321798
0.1033	28.2585	-23.7899	-10.1493	70.6238	-68.4945	62.7182	-33.6078	54.5821	-109.769	-0.321798
0.1040	106.109	-18.5968	-3.1457	85.5786	-82.8365	-1.04892	-28.7182	75.0172	-153.424	0
0.1047	122.283	-11.2984	8.78422	84.6563	-62.9949	13.5998	-16.2116	74.398	-238.573	0
0.1053	-7.7153	-7.29836	17.0343	73.6708	-34.6149	186.925	-10.7159	46.0011	-273.653	0
0.1060	-185.679	-9.40366	15.4911	34.6037	-11.4207	345.312	-10.4129	27.1141	-212.918	0
0.1067	-248.842	-13.123	8.78422	-37.4036	6.27401	406.981	-14.0767	21.2755	-155.861	0
0.1073	-100.206	-9.75454	10.3274	-89.2844	-1.35283	399.638	-24.1453	3.00777	-127.792	0
0.1080	175.082	0	21.6044	-77.0801	-37.3597	319.378	-34.2139	-22.6467	-87.8154	0
0.1087	275.148	1.82459	25.5811	-53.8902	-74.8959	207.686	-41.2247	-36.9778	-9.08039	0
0.1093	191.535	-2.1053	20.0613	-57.2501	-92.6004	56.6417	-39.0898	-29.37	79.1258	0
0.1100	182.379	-6.66677	12.7609	-54.2031	-87.7184	-83.7327	-36.3488	-1.90197	87.6775	0
0.1107	143.942	-11.5791	8.19069	-53.5937	-78.5623	-132.562	-32.988	26.1853	26.0228	0.321798
0.1113	-20.2643	-10.6668	5.10434	-68.2356	-76.7291	-145.076	-16.8177	33.2181	-17.6091	0.321798
0.1120	-64.1857	-12.7721	-5.2824	-53.2808	-60.2501	-190.578	-7.35516	27.6891	-54.2295	0
0.1127	-53.8212	-20.7021	-15.9659	1.35055	-10.8129	-254.96	-11.019	37.4644	-87.1947	0
0.1133	-155.143	-22.8776	-16.2627	54.4501	46.5649	-294.312	-12.8509	52.4148	-23.1033	0
0.1140	-121.26	-19.7898	-11.9893	94.736	73.1118	-308.961	-15.2888	49.0531	75.7695	0
0.1147	77.3854	-13.6844	-6.76622	135.615	65.7888	-343.141	-17.7268	36.2701	43.425	0
0.1153	109.455	-9.75454	-2.19605	173.463	54.4956	-380.975	-17.4237	24.0621	-33.7929	0
0.1160	-74.8756	-7.01766	2.37411	212.217	46.8688	-352.907	-14.3797	7.87327	-9.08039	0
0.1167	-241.824	-3.2983	3.91729	239.689	26.7233	-281.508	-3.38833	-4.0251	33.6549	-0.321798
0.1173	-232.946	0.350883	2.07735	227.781	5.66621	-231.775	11.2531	-9.50985	14.7355	-0.321798
0.1180	-87.3781	8.84225	6.35075	197.872	-5.0094	-182.946	18.5807	-17.7812	-9.08039	-0.321798
0.1187	21.2403	11.6493	9.67451	176.214	-15.9987	-139.289	8.81517	-22.0275	-19.4481	0
0.1193	13.3391	7.92995	9.37775	156.68	-9.28357	-115.779	1.48756	-14.11	-34.0917	0
0.1200	-40.9934	5.82466	9.37775	133.787	10.8521	-83.154	12.479	-2.52122	-44.1606	0
0.1207	-77.6178	1.54388	4.80758	93.8137	21.8414	-59.0289	17.0518	6.05977	-31.0342	0
0.1213	-70.925	1.54388	2.67088	17.8206	24.2824	-59.0289	12.176	6.05977	61.126	0
0.1220	-31.233	4.63165	-0.0593528	-81.9717	5.36231	-81.3094	1.18454	-8.00597	163.056	0
0.1227	-3.16049	5.19307	-2.19605	-173.512	-6.23479	-106.013	-15.8948	-20.8332	171.286	0
0.1233	-25.7487	9.47384	3.62052	-231.191	21.2336	-81.9243	-23.5255	-19.9043	150.229	0
0.1240	-77.9432	14.6669	9.08098	-205.25	52.9663	-28.5017	-23.5255	-14.4196	64.1604	0
0.1247	-92.5836	17.7547	10.9209	-120.413	55.721	-7.45095	-23.2225	-10.1291	-121.976	0
0.1253	-75.201	16.8424	9.67451	-78.9082	37.1049	46.261	-22.3134	-12.5618	-195.838	0
0.1260	-78.5474	10.737	5.40111	-74.346	23.6746	282.159	-14.9858	-21.1428	-121.08	-0.321798
0.1267	-80.9642	3.71936	-0.356117	-52.3584	20.3121	564.753	-1.55643	-19.9043	-24.0228	-1.60899
0.1273	-28.8162	-2.386	-10.7429	-21.8558	7.4994	642.264	0.275474	-7.0771	91.9533	-1.28719
0.1280	56.9817	-5.75448	-19.2897	4.08458	-15.6948	627.001	-8.27799	5.75014	140.781	0
0.1287	87.1922	-8.49136	-22.9695	26.3686	-21.8022	662.085	-11.322	11.8541	83.7005	-0.321798
0.1293	48.4298	-10.9475	-23.5631	35.8225	-9.58747	636.767	-2.78229	10.6156	29.9998	-0.321798
0.1300	17.2897	-3.64918	-17.153	32.1661	-7.76408	475.631	10.344	3.27316	6.18386	0
0.1307	30.7218	7.36854	-6.76622	19.0394	-12.3421	247.979	33.2359	-9.20023	-2.3678	-0.321798
0.1313	89.6091	13.7546	-0.356117	2.8658	4.75452	40.4738	68.3313	-18.6658	-3.26434	0
0.1320	145.754	14.3862	-2.19605	-4.44693	20.9297	-117.624	81.4439	-21.1428	-32.2526	0
0.1327	143.012	8.84225	-6.46946	-2.00935	5.97011	-241.83	70.7693	-19.9043	-64.9191	0
0.1333	88.4006	1.82459	-8.3094	-8.41622	-3.48992	-305.308	58.8688	-15.9235	-69.1949	0
0.1340	-2.55628	0.350883	-12.8796	-28.8721	15.1262	-303.463	40.8666	-13.4907	-71.011	-0.321798
0.1347	-39.7849	3.71936	-14.4227	-32.2155	16.9594	-309.576	21.9415	-13.4907	-45.0801	0
0.1353	-2.83514	3.36847	-12.286	-20.0112	-3.79381	-317.497	11.8729	-8.62521	38.2296	0
0.1360	-10.504	-2.386	-14.126	-33.1378	-8.06798	-305.308	1.48756	2.69814	86.1373	0
0.1367	-24.5402	-7.92995	-18.1026	-62.1252	-19.3612	-302.559	-14.0767	10.306	32.4365	0
0.1373	41.4117	-10.0352	-19.8832	-73.7202	-46.212	-285.487	-27.4923	7.25403	-26.4596	0
0.1380	118.611	-7.57907	-16.2627	-69.7673	-45.6042	-257.383	-33.6078	-0.0442319	-13.3332	0
0.1387	148.496	-2.386	-9.85257	-58.4688	-28.2036	-215.571	-40.3156	-8.93484	-36.5285	-0.321798
0.1393	131.114	4.00006	-5.87593	-41.0764	-18.7436	-49.8779	-47.9463	-18.0908	-121.976	-0.321798
0.1400	19.1023	9.82472	-3.73923	-20.3241	-4.09771	189.095	-51.6101	-25.6987	-111.907	0
0.1407	-198.785	10.737	-3.44246	-2.32228	10.8521	325.201	-52.8221	-31.1835	-12.4367	0
0.1413	-354.114	6.73695	-8.60616	5.31984	8.10719	368.207	-41.2247	-28.1315	15.0344	0
0.1420	-352.301	2.45618	-15.0163	-3.22814	-2.88212	324.261	-18.0435	-22.6467	6.80455	0
0.1427	-278.123	0.912295	-14.7195	-30.0909	-6.23479	204.033	11.8729	-20.5236	87.9763	0
0.1433	-191.442	1.54388	-8.90292	-48.7021	-8.97967	96.6091	53.0701	-18.3562	155.723	0
0.1440	-127.349	2.17547	-6.17269	-31.3097	-23.9393	-36.7484	88.4685	-18.0908	105.976	0.321798
0.1447	-71.2039	3.08777	-5.2824	-9.63501	-45.6042	-148.766	102.201	-19.2851	5.88501	0
0.1453	45.3623	5.19307	1.48382	-5.97865	-67.2691	-97.8027	92.7383	-16.2331	-45.9997	0
0.1460	177.824	5.54395	8.48745	-13.6043	-83.1404	-34.6144	73.2072	-8.62521	1.01149	0
0.1467	173.548	2.17547	6.05399	-23.0746	-88.3262	-93.4985	51.8442	-6.14823	22.3676	0.321798
0.1473	127.163	0.350883	0.534175	-2.00935	-91.9926	-133.792	31.7071	-8.00597	-82.3212	0
0.1480	278.216	-0.912295	-1.30576	42.8552	-87.1106	-131.983	28.3463	-5.88284	-139.079	0
0.1487	446.372	-7.01766	-7.06299	60.2476	-51.7017	-135.311	36.8997	-4.0251	-77.7235	0
0.1493	373.123	-10.3861	-12.5828	53.2314	-4.09771	-90.4603	50.0123	-5.26359	-41.7238	0
0.1500	221.141	-9.75454	-12.8796	54.7466	56.9366	-20.5805	65.8796	-1.90197	-56.9881	0
0.1507	131.439	-13.4037	-12.5828	54.1372	139.332	30.0931	73.2072	7.56365	-39.2871	0
0.1513	62.7449	-14.0353	-11.3364	43.7611	177.172	121.313	61.6098	12.7388	22.3676	0
0.1520	21.8445	-12.2107	-13.8292	48.3397	154.595	263.243	16.1428	9.68678	50.1376	0
0.1527	-36.7174	-14.5967	-19.2897	79.4682	121.02	393.236	-46.4174	8.80214	6.18386	0
0.1533	-168.249	-13.123	-17.4497	112.128	75.5528	420.4	-81.5128	11.5445	-59.4248	-0.321798
0.1540	-285.466	-11.8598	-11.9893	117.613	24.2824	290.081	-92.2011	10.6156	-53.9306	-1.28719
0.1547	-291.555	-15.509	-8.3094	100.83	4.75452	131.694	-105.314	7.56365	45.241	-0.643597
0.1553	-165.833	-18.8775	-8.90292	93.2043	-1.65673	68.8308	-119.349	3.00777	138.643	0.321798
0.1560	17.5686	-15.509	-6.76622	101.143	0.784251	6.87223	-118.743	-4.33472	160.596	-0.321798
0.1567	84.4036	-6.10536	3.91729	100.533	12.9892	-20.8699	-96.774	-10.1291	146.872	0
0.1573	46.896	3.36847	17.0343	80.687	-25.4587	171.082	-73.2761	-9.50985	137.723	0
0.1580	100.299	9.19313	26.7681	55.356	-89.8555	332.508	-65.0394	-12.2522	133.746	0
0.1587	119.82	12.5616	29.5577	42.8552	-131.352	235.175	-55.5769	-17.7812	134.666	0
0.1593	-87.7035	15.2985	26.4714	36.7448	-154.546	80.4413	-36.0458	-20.5236	123.677	-0.321798
0.1600	-299.177	10.737	15.7879	46.8245	-140.204	-31.2506	-21.6936	-21.4082	70.896	-1.60899
0.1607	-275.985	-4.84218	-1.009	73.3743	-113.354	-170.431	-12.5478	-11.9868	-18.5286	-1.60899
0.1613	-17.1968	-16.7722	-14.126	66.6545	-103.894	-301.329	7.9061	-0.663478	-75.9075	0.321798
0.1620	374.657	-21.3337	-20.8328	20.5712	-87.7184	-365.133	39.0347	0.530782	-77.4247	0
0.1627	618.479	-22.246	-17.7465	-29.7779	-66.0535	-381.3	63.4417	-6.76748	-105.815	-0.321798
0.1633	589.198	-14.5967	-3.73923	-59.3912	-48.0452	-359.02	85.1077	-21.7178	-145.792	0
0.1640	478.395	-3.2983	11.5144	-79.2212	-10.2051	-351.099	111.36	-36.0932	-165.93	0.321798
0.1647	267.526	4.63165	21.0109	-103.63	22.1453	-363.613	119.597	-38.8356	-179.056	-0.321798
0.1653	-85.5655	9.19313	21.6044	-119.507	34.6639	-297.966	99.4599	-39.4548	-154.022	-0.321798
0.1660	-348.629	9.82472	15.1943	-125.601	65.4849	-148.766	75.0391	-43.7011	-101.539	0
0.1667	-339.148	9.19313	6.35075	-98.1453	75.8567	-55.6651	35.0678	-41.2683	-49.6548	0
0.1673	-138.364	1.82459	-7.06299	-50.2338	41.3692	-111.837	-36.9548	-44.3203	-20.6665	0
0.1680	60.0028	-9.12295	-10.4461	-30.7003	12.3814	-238.177	-83.9507	-52.5475	-27.678	0
0.1687	149.101	-10.0352	5.40111	-39.8576	-5.627	-309.287	-78.7718	-44.63	-41.425	0
0.1693	69.7631	-4.84218	20.0613	-61.2194	-30.9583	-300.714	-55.2739	-31.1835	-45.379	-0.321798
0.1700	-143.849	0	28.6081	-74.0331	-35.8403	-257.709	-14.0767	-20.5236	-48.1376	0
0.1707	-360.202	-1.193	33.475	-80.7529	26.7233	-216.186	40.5498	5.75014	-56.3674	0
0.1713	-464.87	-13.4037	26.4714	-90.5197	126.519	-171.336	66.4994	45.4261	-68.896	-0.321798
0.1720	-399.569	-23.5091	16.0846	-91.7384	193.347	-114.26	67.7115	61.2611	-77.1259	0
0.1727	-233.272	-18.8775	12.108	-88.9879	201.592	-67.8904	77.174	63.7381	-84.758	0
0.1733	-148.403	-9.75454	12.108	-88.9879	149.096	19.3869	84.8047	76.5211	-87.1947	0
0.1740	-109.037	-11.8598	12.108	-85.0187	44.4278	138.421	58.8688	88.7291	-75.2868	0
0.1747	-7.11109	-21.6144	9.67451	-77.0801	-59.6423	216.222	9.73801	109.474	-59.7237	-0.321798
0.1753	-1.02251	-29.5443	3.26441	-71.2826	-67.573	290.695	-35.426	115.887	-35.0112	-0.321798
0.1760	-91.6541	-31.7198	-3.1457	-63.0475	-15.9987	311.131	-72.67	87.5349	-3.88503	-0.321798
0.1767	-125.211	-28.9829	-1.009	-47.7798	-30.6446	220.816	-90.9753	66.7459	-3.58618	-0.321798
0.1773	-113.917	-27.1583	2.67088	-34.0602	-70.3179	154.915	-92.5042	61.5708	-20.9654	0
0.1780	-86.1697	-27.7197	1.1277	-25.1993	-27.2919	305.055	-86.7054	57.6341	-23.1033	0
0.1787	-50.4748	-26.8074	0.83094	-15.136	54.4956	685.596	-53.442	53.6533	-17.3102	0
0.1793	-31.5584	-23.5091	3.62052	-5.36925	76.1605	1047.83	10.9501	45.1165	-15.1723	0
0.1800	-19.0094	-21.3337	4.80758	-4.44693	59.3776	1150.38	53.0701	37.774	-20.6665	-0.321798
0.1807	-9.85328	-21.3337	3.26441	-8.72915	56.0249	1006.96	51.2382	35.3413	-24.9423	-0.321798
0.1813	-10.1786	-23.5091	0.534175	-2.00935	41.3692	761.877	39.3377	33.2181	-16.6895	-0.321798
0.1820	-9.24907	-23.1583	-0.0593528	13.242	5.36231	511.945	21.3355	30.7411	1.31033	0
0.1827	-8.9702	-19.5091	1.48382	24.5404	-20.5768	312.072	-1.55643	23.7525	29.9998	-0.321798
0.1833	-11.1082	-16.4213	2.37411	34.3072	-42.5456	123.158	-16.2116	14.2869	65.7007	-0.321798
0.1840	-7.43644	-13.6844	5.10434	43.1517	-72.7589	-148.766	-15.8948	8.49252	93.7694	0
0.1847	2.32389	-11.5791	6.05399	47.121	-89.2379	-394.719	7.60308	2.69814	113.309	0
0.1853	11.48	-13.123	3.26441	45.9022	-85.8853	-471.616	32.9329	3.27316	123.08	0
0.1860	19.1023	-14.316	1.78058	36.1354	-65.4359	-487.82	42.6985	7.25403	107.815	-0.965395
0.1867	24.9121	-14.5967	1.78058	25.1498	-38.889	-507.93	34.751	7.87327	88.597	-2.25259
0.1873	27.3754	-17.9652	1.78058	29.1191	-22.1061	-468.867	19.8066	13.6676	82.1833	-1.28719
0.1880	34.0682	-22.8776	0.83094	41.6364	-10.509	-428.9	-0.330569	14.5965	45.5629	0.321798
0.1887	44.1538	-26.246	-2.49282	52.309	-1.65673	-481.382	-39.7096	1.45965	-17.9309	-0.321798
0.1893	45.6876	-23.7899	-0.652881	62.3887	3.22523	-515.888	-67.7804	-8.31559	-32.5745	0
0.1900	39.8779	-16.7722	4.21405	64.2169	9.02869	-377.032	-67.4774	-2.52122	-0.229883	0.321798
0.1907	27.05	-13.123	2.96764	53.8408	17.2633	-191.771	-64.7226	3.00777	13.5171	0
0.1913	16.0813	-13.6844	0.83094	46.1986	20.0082	-109.377	-66.5545	3.8924	11.0804	0
0.1920	15.4771	-14.316	1.1277	41.6364	16.6555	-88.6156	-74.805	7.87327	28.4596	0
0.1927	17.8939	-12.7721	0.534175	32.1661	20.0082	-115.49	-82.4356	-1.28272	54.0915	0
0.1933	20.3572	-10.0352	-0.356117	26.6816	31.3014	-200.922	-67.7804	-21.7178	51.3559	-0.321798
0.1940	21.5657	-7.57907	-0.0593528	34.3072	27.9487	-290.949	-42.7536	-27.5122	27.8619	0
0.1947	20.3572	-8.84225	-0.0593528	49.2621	6.27401	-339.778	-36.6518	-16.8523	25.1033	0
0.1953	18.4981	-10.6668	-0.356117	52.622	-3.48992	-372.764	-36.0458	-6.45785	37.0112	0
0.1960	18.8235	-9.75454	-0.356117	42.5423	46.2512	-392.296	-24.4483	3.00777	33.3561	-0.321798
0.1967	20.9615	-4.56148	1.1277	33.6978	117.971	-360.25	-13.7599	12.4292	19.3102	-0.321798
0.1973	22.1699	0.912295	1.1277	37.3542	141.773	-283.353	-9.7931	13.0484	6.48271	0
0.1980	20.6361	2.73689	-1.009	48.0433	150.017	-185.08	-10.0961	5.44052	-0.82758	0
0.1987	19.1023	2.45618	-2.19605	50.7773	150.321	-107.243	-11.019	0.530782	-7.24132	0
0.1993	18.4981	1.26318	-2.49282	44.9798	110.648	-89.8454	-13.1539	-6.45785	-13.9539	0
0.2000	17.5686	-1.193	-2.49282	39.7918	62.7401	-95.9581	-15.8948	-28.4411	-5.72409	0
0.2007	19.7066	-4.56148	0.534175	37.6671	31.9092	-96.2474	-13.1539	-50.734	19.0114	-0.321798
0.2013	24.3079	-4.28077	6.35075	36.4483	15.1262	-49.8779	-8.27799	-61.3938	36.0917	0
0.2020	24.6332	-1.47371	11.2177	33.9943	10.2443	99.358	-11.019	-72.4076	38.2296	0
0.2027	20.9615	-4.84218	14.6008	32.479	2.92133	242.192	-20.7845	-80.3251	40.9882	-0.321798
0.2033	19.4277	-7.92995	14.6008	31.5567	-13.5577	319.993	-28.4151	-69.3556	46.1606	-0.321798
0.2040	20.0319	-1.82459	15.1943	29.4156	-28.5075	337.68	-32.685	-31.4931	46.1606	0
0.2047	20.0319	13.7546	21.6044	26.0722	-42.8593	266.896	-33.9109	23.1333	45.8617	0
0.2053	21.2403	32.3514	17.6278	21.4935	-70.9355	189.999	-32.685	21.0101	56.5513	0
0.2060	22.7741	42.1059	-9.85257	17.8206	-94.7375	132.634	-28.7182	-48.3012	69.6546	0.321798
0.2067	17.8939	43.3691	-29.0829	17.8206	-81.3072	81.9604	-21.3906	-84.9252	78.5052	-0.321798
0.2073	9.66737	48.5622	-25.9965	16.9148	-48.9569	70.6755	-12.8509	-105.051	75.1489	0
0.2080	8.73781	46.3867	-21.7231	11.1173	-30.3407	67.6011	-6.1293	-133.138	40.3675	0
0.2087	13.0138	17.4038	-16.8562	6.2257	-23.6256	45.0312	-5.22023	-138.313	-0.528732	0
0.2093	13.3391	-9.75454	-11.6925	6.2257	-17.2241	27.0187	-4.31117	-147.469	-17.6091	0
0.2100	10.5504	-10.6668	-9.55581	9.89853	-10.2051	2.31486	2.10738	-118.763	-10.5976	-0.321798
0.2107	9.66737	-12.7721	-10.4461	18.43	-15.3909	-24.8485	0.881517	-29.0603	-4.18388	0
0.2113	13.618	-21.053	-13.1763	29.1191	-25.7626	24.5954	-3.08531	61.5708	-18.5286	0
0.2120	23.0994	-21.053	-11.3364	43.4646	-26.988	112.162	1.48756	132.386	-28.2986	0
0.2127	29.5134	-24.7022	-11.3364	61.4664	-25.4587	130.789	7.60308	159.854	-20.6665	0
0.2133	28.5838	-34.4567	-12.286	72.452	-23.9393	111.873	10.6471	130.838	-12.4367	-0.321798
0.2140	26.1205	-31.4391	-5.2824	68.4827	-17.2241	87.1327	10.6471	66.1709	-6.02294	-0.321798
0.2147	22.1699	-18.8775	3.62052	54.4501	-12.0284	40.7632	5.77118	-0.973101	-7.24132	-0.321798
0.2153	15.4771	-14.316	6.35075	38.8859	-10.509	-11.4296	1.80435	-31.8027	-14.2528	0
0.2160	11.2011	-10.3861	3.62052	26.6816	-10.2051	-52.3013	3.63626	-12.8715	5.58616	-0.965395
0.2167	9.06316	-3.92989	-3.1457	18.743	-6.84259	-66.0458	2.4104	50.2916	44.9422	-2.25259
0.2173	6.32097	4.91236	-4.62952	14.4607	4.75452	-67.8904	2.10738	104.299	51.0571	-0.965395
0.2180	3.25344	18.667	-2.19605	9.5856	12.9892	-92.5943	11.5699	103.104	16.5746	0.321798
0.2187	2.9281	19.2284	-5.57917	0.741154	12.6853	-120.662	18.2777	71.6556	-15.793	-0.321798
0.2193	4.46186	8.56154	-4.92628	-11.4797	12.6853	-122.507	16.7488	37.1548	-19.1493	-0.321798
0.2200	2.64923	6.73695	-7.06299	-29.7779	12.3814	-117.624	15.5367	5.75014	-0.82758	0
0.2207	1.11547	6.10536	-14.4227	-41.0764	12.3814	-105.435	22.2445	-0.663478	29.0802	0
0.2213	5.99563	4.91236	-4.33276	-36.7942	12.9892	-73.9669	31.7071	51.2205	46.1606	0
0.2220	12.6884	17.4038	9.08098	-31.3097	10.8521	-43.4759	32.0101	117.745	25.4251	0
0.2227	12.6884	26.8776	9.67451	-30.7003	8.10719	-19.9656	27.1342	134.509	11.0804	0
0.2233	11.48	30.5268	12.4641	-31.9191	3.83303	-1.33828	24.0764	120.488	43.7238	0
0.2240	12.4096	41.5445	17.9246	-30.9967	-1.65673	12.0807	21.3355	106.731	60.8041	0
0.2247	11.48	40.0006	2.07735	-23.684	-1.96063	23.9805	17.3686	103.989	26.9423	0
0.2253	10.2716	28.9829	-28.43	-15.136	-3.48992	32.5165	11.8729	105.847	4.04595	0.321798
0.2260	9.06316	23.2284	-37.9265	-11.7761	-9.28357	33.4208	8.81517	63.7381	-5.10341	0
0.2267	7.80826	-3.92989	-22.9695	-14.5266	-10.8129	30.708	9.73801	-5.57322	-44.4594	0
0.2273	6.92518	-50.0359	-7.4191	-15.136	-9.58747	31.2867	7.60308	-55.5995	-61.8616	0
0.2280	1.11547	-72.0012	2.37411	-9.94794	-8.97967	36.4952	-1.25341	-93.7716	-35.9308	-0.321798
0.2287	-4.69425	-66.5274	6.94428	-5.97865	-1.96063	38.0143	-7.65818	-97.3986	-22.8044	-0.321798
0.2293	-6.22802	-69.2643	4.80758	-3.54107	6.27401	33.1314	-11.625	-61.7035	-20.9654	0
0.2300	-6.22802	-74.4573	6.94428	-0.790565	8.41109	31.2867	-16.2116	-27.8218	-11.1953	0.321798
0.2307	-4.69425	-62.2466	13.3544	0.428223	8.41109	33.7463	-17.4237	-4.95397	0.390802	0
0.2313	-1.34785	-41.7551	12.4641	-0.790565	5.66621	34.0356	-17.7268	24.0621	15.9539	0
0.2320	0.790121	-8.84225	6.64752	-0.477633	3.22523	34.6505	-14.9858	47.2396	42.5054	0
0.2327	1.11547	35.4392	3.26441	3.17873	7.4994	39.2441	-6.74911	60.0669	62.9421	0.321798
0.2333	1.39433	68.9836	3.62052	6.53863	13.293	45.6461	-0.0275474	73.7788	41.287	0
0.2340	3.53231	90.9488	-1.009	8.36681	13.9106	49.0099	3.31946	84.4829	0.0919533	0
0.2347	3.85765	107.16	-8.01263	10.5079	14.5184	45.9355	6.37722	91.1619	-16.0918	-0.321798
0.2353	2.32389	77.8258	-13.1763	10.8044	16.3516	47.1652	7.28629	98.1947	-19.4481	0
0.2360	8.1336	-4.84218	-21.4264	11.1173	16.6555	65.7926	7.9061	89.3484	-8.16086	0.321798
0.2367	14.8264	-61.8957	-21.1296	10.8044	13.9106	78.3073	5.45439	35.3413	11.9769	0
0.2373	14.2222	-72.2819	-9.19969	7.44448	9.94038	76.4626	-1.85945	-31.1835	15.9539	-0.321798
0.2380	15.1517	-72.6327	-2.49282	3.78812	7.4994	75.8478	-1.25341	-75.1499	24.5056	-0.321798
0.2387	14.5475	-62.808	-6.46946	1.03762	6.58771	71.5797	5.77118	-100.451	29.3791	0
0.2393	5.39142	-35.0883	-12.286	1.64701	7.1955	66.0819	4.2423	-93.1523	5.88501	0
0.2400	-0.0929555	-6.66677	-11.9893	3.47519	5.66621	63.9479	-1.85945	-75.4596	-5.10341	0
0.2407	-1.62672	14.9476	-10.7429	2.56934	2.31354	58.7757	-4.31117	-63.2516	2.52872	0.321798
0.2413	-2.55628	44.5621	-11.3364	0.741154	0.480354	50.2396	-6.44609	-45.8242	2.22987	0
0.2420	3.85765	16.4915	-6.46946	0.741154	3.52913	47.1652	-5.82628	-38.2163	26.9423	0
0.2427	4.183	-138.809	-0.356117	-0.181171	5.36231	46.261	-3.99437	-33.3508	81.2638	0
0.2433	-9.85328	-313.058	3.62052	-1.39996	2.00964	39.5334	-5.52325	-23.8852	102.321	0
0.2440	-19.9389	-335.093	5.40111	-7.19743	-0.127441	32.2272	-7.35516	4.82127	85.5396	0
0.2447	-13.8504	-171.161	2.07735	-18.4959	1.08815	30.0931	-7.05213	69.7979	63.5627	0
0.2453	-2.83514	33.6146	0.534175	-22.4652	0.784251	30.9974	-6.74911	127.476	19.3102	0
0.2460	5.99563	87.9312	4.80758	-15.4325	-0.431338	30.3825	-7.35516	129.644	-30.1377	-1.60899
0.2467	14.2222	19.5793	10.3274	2.56934	0.480354	27.6336	-7.35516	91.7811	-43.2411	-1.93079
0.2473	12.0842	-5.47377	12.7609	26.6816	3.22523	27.3443	-6.74911	62.4996	-42.9422	-0.321798
0.2480	2.9281	12.2107	10.9209	39.1824	3.83303	28.5379	-5.82628	38.0836	-40.5054	0
0.2487	1.71968	-35.369	5.69787	38.8859	2.00964	27.9591	-3.99437	-12.8715	-14.8735	-0.321798
0.2493	4.46186	-121.405	2.07735	37.3542	-0.127441	27.9591	-2.47927	-65.3747	24.1837	-0.321798
0.2500	-1.95206	-123.862	9.08098	34.6037	-4.40161	26.7294	-2.47927	-95.2754	50.7352	0
0.2507	-17.5221	-123.3	19.4677	30.3379	-8.37188	23.6549	-4.31117	-116.639	42.8043	0
0.2513	-24.5402	-220.635	19.171	27.9003	-11.1168	21.8465	-5.82628	-109.916	20.5286	0
0.2520	-19.9389	-158.95	9.08098	29.1191	-11.4207	20.0018	-6.74911	-73.6018	15.9539	0
0.2527	-11.9913	164.845	-1.89929	33.6978	-7.76408	18.772	-6.1293	-46.7531	10.4597	0
0.2533	-0.0929555	396.147	-9.19969	36.1354	-5.0094	19.3869	-3.69135	-22.6467	-2.3678	0
0.2540	10.8758	346.392	-15.313	30.9473	-7.76408	17.8678	-3.69135	8.49252	-9.97694	0
0.2547	11.2011	168.494	-13.1763	18.43	-8.97967	16.638	-4.61419	27.1141	-6.32179	0
0.2553	1.39433	25.053	-3.73923	2.56934	-9.28357	15.7338	-5.22023	58.8284	-1.12643	0
0.2560	-2.83514	-32.9128	0.83094	-7.80683	-11.4207	13.8891	-6.1293	120.178	-16.3907	0
0.2567	4.46186	-58.5974	2.96764	-9.63501	-10.509	13.5998	-4.91721	147.646	-41.425	0
0.2573	9.34202	-58.5974	5.69787	-13.9172	-8.37188	13.3104	-4.61419	132.386	-45.7008	0
0.2580	5.99563	40.6322	6.05399	-25.5122	-8.97967	10.5615	-6.44609	110.093	-35.6319	0
0.2587	1.39433	199.021	6.64752	-25.8086	-9.28357	9.00624	-7.9612	81.4309	-31.9538	-0.321798
0.2593	2.9281	275.303	7.53781	-6.58804	-8.06798	9.00624	-8.58102	57.8995	-31.9538	0
0.2600	9.94623	202.038	6.94428	5.92924	-7.45038	8.71689	-7.35516	47.5493	-35.6319	0
0.2607	12.0842	85.1944	9.67451	3.78812	-7.45038	8.102	-5.22023	41.7549	-44.7813	0
0.2613	7.80826	64.1414	17.0343	-2.00935	-7.14648	6.58288	-5.52325	40.826	-44.7813	0
0.2620	0.790121	118.458	24.3347	-7.51037	-8.67577	4.12334	-7.65818	40.2068	-29.2182	0
0.2627	-2.83514	176.705	26.7681	-12.9949	-9.58747	2.92974	-7.9612	33.2181	-4.18388	-0.321798
0.2633	-2.23093	224.004	24.9282	-29.7779	-7.14648	3.54463	-7.05213	28.3084	29.6779	-0.321798
0.2640	-6.22802	229.548	22.7915	-48.7021	-3.18602	5.96799	-4.61419	22.514	50.1376	0
0.2647	-10.1786	133.967	16.0846	-50.5303	-1.96063	6.29352	-3.99437	-1.90197	29.3791	0
0.2653	-9.85328	-62.808	3.62052	-38.6389	-4.09771	2.60421	-7.35516	-20.214	0.0919533	0
0.2660	-19.0094	-360.988	-4.62952	-32.2155	-4.7055	2.31486	-7.9612	-10.4387	-6.32179	0
0.2667	-33.9752	-590.466	-2.49282	-39.8576	-4.40161	3.2191	-6.1293	-8.31559	-5.72409	0
0.2673	-32.4415	-446.744	4.21405	-49.9209	-5.627	2.31486	-5.82628	-25.0795	-15.1723	0
0.2680	-17.801	-97.9665	-1.60253	-60.297	-6.23479	3.54463	-3.99437	-56.5283	-20.3677	0
0.2687	-9.85328	137.686	-29.0829	-68.2356	-6.84259	1.98933	-4.91721	-123.982	2.52872	0
0.2693	-5.62381	238.39	-57.4535	-63.344	-8.37188	-1.95316	-8.58102	-198.115	21.4481	0
0.2700	5.67028	243.864	-81.5508	-48.4056	-7.76408	-2.27869	-7.9612	-210.942	2.82756	0.321798
0.2707	13.618	188.635	-115.441	-34.0602	-6.23479	-2.56805	-7.05213	-190.507	-18.5286	0
0.2713	6.92518	26.246	-136.512	-25.1993	-5.627	-2.89357	-6.44609	-197.805	-19.747	0
0.2720	-2.83514	-216.635	-147.492	-21.23	-4.7055	-1.95316	-4.61419	-194.443	-14.2528	0
0.2727	1.11547	-336.005	-152.062	-18.4959	-4.7055	-3.79781	-5.82628	-148.398	-12.7355	-0.321798
0.2733	7.52939	-267.934	-99.8908	-16.3548	-5.9309	-5.31694	-7.65818	-110.845	-13.3332	-0.321798
0.2740	4.183	-185.196	-9.85257	-14.5266	-7.45038	-5.31694	-6.1293	-119.691	-9.97694	-0.321798
0.2747	2.32389	-230.67	61.905	-12.6984	-7.45038	-6.22118	-5.22023	-117.568	-3.88503	0
0.2753	1.71968	-343.304	94.8458	-12.3855	-6.53869	-5.31694	-3.99437	-72.0979	4.36778	-0.321798
0.2760	-1.34785	-418.042	111.643	-15.136	-6.23479	-5.64247	-3.99437	-31.8027	10.4597	-1.60899
0.2767	-4.36891	-403.094	122.92	-16.9642	-6.84259	-7.45095	-6.1293	6.05977	13.2183	-1.28719
0.2773	-12.3166	-323.444	93.5994	-17.2771	-7.14648	-7.45095	-5.52325	49.6724	13.5171	0.321798
0.2780	-18.4052	-225.197	36.5613	-17.8865	-6.23479	-6.54671	-4.61419	62.8092	4.96548	0
0.2787	-11.9913	36.983	1.48382	-15.136	-5.0094	-5.93182	-3.69135	57.0149	-13.0344	0
0.2793	-5.62381	425.13	-8.01263	-9.02561	-4.09771	-4.08717	-0.950385	54.2725	-28.5975	0
0.2800	-8.36599	614.957	-10.7429	-4.44693	-5.3231	-4.4127	-0.647364	51.5301	-33.7929	0
0.2807	-8.04065	539.868	-0.0593528	-2.61875	-5.9309	-5.93182	-2.78229	67.0555	-26.7814	0
0.2813	2.64923	366.532	24.9282	0.428223	-5.0094	-7.16159	-4.31117	93.6389	-12.7355	-0.321798
0.2820	13.0138	237.477	62.2018	4.39752	-3.79381	-7.77647	-4.61419	103.37	-2.04596	0
0.2827	19.7066	214.881	84.1623	8.66327	-2.56842	-5.31694	-2.16247	105.537	3.44825	0
0.2833	25.5163	246.881	67.0687	11.7267	-1.35283	-3.79781	0.275474	93.3292	7.40224	0
0.2840	22.4952	264.917	43.8617	10.8044	-2.26452	-5.64247	-1.25341	46.93	9.83901	-0.321798
0.2847	13.3391	231.021	31.3383	8.36681	-3.79381	-8.06583	-3.08531	7.25403	9.54016	0
0.2853	6.32097	92.4927	21.6044	6.53863	-4.09771	-8.35519	-3.38833	19.462	11.3792	0
0.2860	-1.34785	-115.019	19.171	4.39752	-4.09771	-8.06583	-3.38833	46.93	16.2528	0
0.2867	-5.90267	-289.619	19.171	2.2564	-3.48992	-5.93182	-0.950385	58.2091	17.793	0.321798
0.2873	-5.90267	-282.601	9.37775	-0.181171	-2.26452	-5.31694	0.881517	63.1189	16.2528	0.321798
0.2880	-4.97312	-52.7728	-0.0593528	-3.54107	-2.56842	-7.16159	-0.330569	65.5516	16.5746	0
0.2887	2.32389	133.055	-8.90292	-4.75986	-2.88212	-8.06583	-1.55643	66.1709	18.3907	0
0.2893	14.8264	143.792	-36.0865	-3.83753	-2.56842	-8.06583	-1.25341	72.5845	15.3332	-0.321798
0.2900	20.9615	98.8788	-75.7342	-2.00935	-3.18602	-6.54671	-0.0275474	71.9652	0.68965	-0.321798
0.2907	20.0319	38.8076	-109.921	4.08458	-3.18602	-4.4127	2.4104	40.5164	-22.8044	0
0.2913	16.6855	-32.6321	-127.312	10.195	-3.48992	-5.93182	2.4104	-4.0251	-30.1377	0
0.2920	9.06316	-45.1235	-115.144	9.27267	-4.09771	-8.35519	0.275474	-32.422	-19.1493	0
0.2927	3.53231	10.737	-71.8169	6.83509	-3.18602	-8.06583	-0.647364	-57.1476	-8.45971	0.321798
0.2933	5.99563	-2.73689	-21.1296	8.66327	-1.35283	-6.83606	-0.0275474	-79.0866	5.88501	0
0.2940	9.06316	-70.4573	44.1585	7.75742	-0.127441	-5.31694	3.31946	-70.8595	19.9309	0
0.2947	7.20405	-36.9129	114.966	3.78812	-0.745038	-4.70205	3.93928	-49.8051	18.0918	0
0.2953	-0.697166	4.63165	116.213	1.64701	-1.65673	-7.45095	0.275474	-20.5236	8.94246	0.321798
0.2960	-8.36599	-19.2284	44.4553	1.35055	-0.745038	-8.97007	-1.85945	26.1853	7.40224	0
0.2967	-8.04065	17.7547	-24.5127	2.56934	-0.127441	-8.06583	-1.55643	46.6204	10.7585	-0.321798
0.2973	-3.48583	86.6681	-56.5039	5.31984	0.480354	-6.83606	-0.647364	34.4124	17.4711	-0.321798
0.2980	7.20405	83.6505	-83.094	6.53863	2.00964	-4.70205	1.48756	8.49252	23.8849	-0.321798
0.2987	20.6361	52.843	-104.758	2.2564	2.00964	-5.31694	1.18454	-28.4411	12.2988	-0.321798
0.2993	24.6332	34.5269	-79.7108	-2.61875	1.08815	-5.64247	-1.25341	-60.7746	-8.45971	0
0.3000	16.0813	-54.8781	-14.7195	-2.00935	1.08815	-5.02758	-2.16247	-76.0346	-8.45971	0
0.3007	6.92518	-191.652	21.0109	1.64701	0.176456	-5.02758	-2.16247	-83.9963	-1.44826	-0.321798
0.3013	9.66737	-209.968	4.51081	7.75742	-0.127441	-3.18293	0.275474	-46.1338	-22.5056	0
0.3020	14.5475	-150.739	-18.9929	16.3054	0.176456	-2.27869	2.4104	73.4691	-27.0803	0
0.3027	10.5504	-95.5103	-38.52	23.6181	-1.35283	-4.70205	0.275474	167.462	14.4367	0
0.3033	3.85765	-50.3166	-63.2701	31.8696	-2.88212	-5.31694	-0.950385	173.875	51.0571	0
0.3040	0.185911	-94.598	-82.1443	35.2131	-2.26452	-3.47229	1.18454	125.043	70.896	-0.321798
0.3047	-3.16049	-152.283	-71.4608	30.025	-1.04894	-3.47229	2.71342	48.1685	88.2752	0
0.3053	-6.22802	-151.371	-57.1568	28.5097	0.176456	-4.08717	3.01644	-24.1948	98.9648	0.321798
0.3060	-8.64486	-101.896	-53.7737	28.8062	0.176456	-4.70205	2.4104	-97.3986	79.1258	-0.321798
0.3067	-15.663	-18.3161	-23.8598	26.3686	-1.04894	-6.54671	0.881517	-152.644	30.5975	-1.60899
0.3073	-20.8685	40.0006	1.1277	35.2131	-1.04894	-6.22118	1.80435	-170.647	-6.62064	-1.28719
0.3080	-20.2643	126.949	7.53781	50.4809	-1.04894	-4.4127	3.31946	-163.923	-29.2182	0
0.3087	-18.1263	212.424	31.3383	57.4971	-1.35283	-2.56805	4.54532	-89.4811	-46.2985	0
0.3093	-17.1968	213.617	56.3852	59.3253	0.176456	-1.6638	6.37722	74.7076	-52.4134	0
0.3100	-18.1263	160.564	70.0957	55.0595	0.480354	-1.04892	6.37722	192.497	-54.2295	0
0.3107	-14.1292	113.826	118.943	38.2765	0.176456	-0.759563	5.15136	142.471	-52.4134	-0.321798
0.3113	-6.22802	133.406	188.861	23.9311	-1.04894	-1.04892	3.31946	-1.90197	-35.6319	-0.321798
0.3120	-1.62672	171.231	186.724	26.3686	-2.26452	-3.18293	0.881517	-110.535	-12.7355	0
0.3127	3.53231	98.3174	133.306	35.2131	-1.35283	-4.08717	-0.330569	-145.036	-0.528732	0
0.3133	6.92518	-207.512	97.2793	35.2131	-0.127441	-3.79781	-0.647364	-130.086	-3.58618	-0.321798
0.3140	-1.02251	-679.59	69.5022	24.5404	-0.745038	-4.70205	-2.78229	-108.103	-15.4711	-0.321798
0.3147	-12.3166	-957.91	46.2952	13.5549	-0.745038	-3.79781	-3.69135	-101.379	-24.9423	-0.321798
0.3153	-22.4023	-895.664	32.5847	4.39752	-0.431338	-3.18293	-3.08531	-108.412	-27.3791	0
0.3160	-23.8896	-663.73	25.2843	-11.1667	-0.127441	-2.89357	-1.55643	-123.053	-19.747	0
0.3167	-13.525	-345.128	21.9012	-27.9498	0.784251	-1.04892	0.881517	-105.36	-11.5172	-0.321798
0.3173	-3.16049	33.6146	21.6044	-41.0764	0.480354	-1.6638	0.881517	-36.9778	-18.5286	0
0.3180	5.99563	388.497	14.2447	-43.514	-1.04894	-4.4127	-1.25341	36.5355	-18.8274	0.321798
0.3187	13.0138	578.325	-10.4461	-38.0295	-0.431338	-5.02758	-1.85945	104.918	-9.37924	0
0.3193	12.4096	536.219	-55.3168	-46.8739	0.480354	-3.18293	-1.25341	162.596	-24.0228	-0.321798
0.3200	12.4096	404.077	-123.335	-69.7673	0.480354	-0.759563	-0.647364	172.372	-45.9997	0
0.3207	13.3391	244.776	-188.979	-78.6118	0.480354	1.08509	0.881517	154.06	-46.2985	0
0.3213	5.67028	4.00006	-214.026	-64.5793	0.176456	1.41062	1.48756	124.159	-37.448	0
0.3220	-6.83223	-165.055	-197.823	-47.1704	-0.127441	-0.434036	-0.647364	63.7381	-31.9538	0
0.3227	-17.801	-148.002	-154.495	-45.3422	-1.35283	-3.18293	-3.08531	11.8541	-30.4366	0
0.3233	-25.4233	4.28077	-91.9375	-51.1397	-2.88212	-5.02758	-4.91721	-6.45785	-27.3791	0
0.3240	-29.4204	159.932	-16.5594	-45.6551	-2.88212	-2.89357	-1.85945	-8.00597	-21.2872	-0.321798
0.3247	-32.1626	126.037	90.8692	-36.1848	-2.56842	-1.04892	1.48756	-4.64435	-16.0918	-0.321798
0.3253	-36.7174	-43.9305	185.774	-34.6696	-2.88212	-2.89357	-0.330569	1.45965	-13.0344	0
0.3260	-41.3187	-150.459	169.927	-44.4363	-2.88212	-3.47229	-1.55643	17.0293	-10.8965	0
0.3267	-37.0428	-120.212	53.3582	-50.2338	-3.18602	-3.47229	-3.08531	48.7435	-8.75855	0
0.3273	-20.2643	61.6852	-55.9104	-34.3566	-3.48992	-3.18293	-3.38833	93.0196	-6.02294	0
0.3280	-0.4183	273.127	-117.875	-15.136	-2.56842	-1.04892	0.275474	99.7429	-4.18388	0
0.3287	13.3391	292.706	-175.862	-5.36925	-2.26452	-1.04892	0.578495	62.8092	-3.88503	0
0.3293	21.8445	213.968	-222.217	0.131761	-1.96063	-0.759563	0.275474	35.3413	-1.74711	-0.321798
0.3300	27.3754	249.337	-202.096	2.56934	-1.65673	-0.434036	1.48756	28.3084	1.01149	-0.321798
0.3307	28.2585	298.461	-94.6678	1.64701	-2.88212	-2.56805	-0.330569	46.3108	3.44825	0.321798
0.3313	26.7247	326.532	28.9048	0.131761	-3.18602	-1.6638	-0.950385	93.6389	4.96548	0.321798
0.3320	24.6332	358.322	85.7055	-2.00935	-2.56842	0.180848	0.578495	128.405	5.26433	0
0.3327	20.0319	320.426	86.8925	-5.36925	-2.26452	-0.144679	1.18454	118.63	4.66663	0
0.3333	16.0813	288.145	44.1585	-8.72915	-2.88212	-1.04892	-0.0275474	64.3131	4.96548	0
0.3340	16.0813	204.495	-45.8204	-13.9172	-4.40161	-2.27869	-1.55643	-10.1291	5.26433	0
0.3347	17.2897	3.08777	-119.715	-23.684	-5.9309	-2.89357	-2.16247	-41.578	5.26433	0
0.3353	14.5475	-132.704	-131.882	-35.279	-5.9309	-1.6638	-1.55643	-27.5122	8.32178	0
0.3360	5.67028	-227.302	-88.8512	-39.8576	-5.9309	-1.95316	-1.85945	-43.3915	11.9769	-0.965395
0.3367	-0.4183	-331.093	-2.49282	-29.7779	-5.0094	-3.79781	-2.78229	-75.4596	13.2183	-1.28719
0.3373	2.04502	-327.444	75.022	-17.5736	-3.79381	-3.18293	-3.38833	-67.4978	13.816	0
0.3380	9.94623	-251.443	152.24	-13.3078	-4.40161	-1.95316	-3.38833	-36.0932	14.7355	0.321798
0.3387	17.5686	-99.1595	271.242	-11.4797	-4.09771	-0.759563	-2.16247	-10.4387	11.6781	-0.321798
0.3393	18.4981	131.581	321.277	-9.33855	-3.18602	0.470205	-0.950385	10.9253	4.04595	0
0.3400	17.5686	209.056	240.735	-6.29158	-3.18602	0.470205	-0.950385	42.0645	1.01149	0
0.3407	22.4952	80.5627	143.99	-0.790565	-3.79381	-0.434036	-1.25341	59.4476	4.04595	0
0.3413	28.5838	-15.509	113.779	8.36681	-3.48992	-0.759563	-0.330569	13.9773	5.26433	0
0.3420	33.7428	-44.2112	97.576	15.696	-2.56842	0.795732	0.881517	-26.9372	0.0919533	0
0.3427	40.4821	-141.546	43.2682	16.9148	-3.18602	1.41062	1.18454	-3.71548	-6.32179	0
0.3433	41.0863	-239.513	-5.57917	14.7737	-4.40161	0.795732	-1.25341	-1.90197	-6.32179	0
0.3440	31.326	-232.214	-19.5864	12.3361	-4.40161	-0.144679	-4.31117	-12.8715	-3.88503	-0.321798
0.3447	19.7066	-262.46	-9.55581	13.8514	-4.09771	-0.144679	-4.91721	31.3604	-0.528732	0
0.3453	7.52939	-428.779	18.2213	16.6019	-4.40161	1.08509	-3.69135	99.1236	3.7471	0
0.3460	-6.50688	-523.938	39.5883	14.1643	-4.09771	1.98933	-3.38833	162.596	3.12641	0
0.3467	-20.5432	-326.532	34.4246	9.5856	-3.79381	0.795732	-4.31117	191.259	-0.528732	-0.321798
0.3473	-32.1626	122.107	17.331	5.6163	-4.40161	-1.04892	-4.91721	148.575	-1.12643	-0.321798
0.3480	-34.9048	501.131	-15.6098	0.741154	-4.09771	-1.04892	-3.69135	77.7596	-0.82758	0
0.3487	-26.6782	544.43	-66.2971	0.131761	-2.56842	0.795732	-1.55643	21.2755	1.01149	0
0.3493	-16.8714	405.621	-102.324	7.75742	-0.745038	3.2191	1.80435	-33.3508	8.02293	0
0.3500	-11.387	309.479	-122.148	13.242	0.176456	4.73822	4.2423	-97.1332	12.5976	0
0.3507	-7.11109	275.303	-128.558	15.696	-1.04894	3.83398	3.01644	-155.387	11.9769	0
0.3513	-3.48583	279.233	-100.781	23.6181	-3.18602	1.98933	0.578495	-180.112	12.5976	0
0.3520	-6.22802	247.232	-55.9104	31.5567	-3.18602	1.41062	-0.647364	-170.956	14.4367	0
0.3527	-13.8504	168.143	-11.3364	35.8225	-1.96063	1.41062	-1.55643	-160.606	14.7355	0
0.3533	-20.5432	177.617	44.8114	37.6671	-1.04894	2.60421	-0.330569	-169.143	15.0344	0.321798
0.3540	-29.4204	228.004	82.6191	36.4483	-1.65673	3.2191	-0.0275474	-178.608	13.816	0
0.3547	-40.3891	77.8258	49.6783	38.573	-2.26452	1.41062	-2.78229	-172.504	12.2988	0
0.3553	-46.8031	-191.652	5.10434	41.9329	-1.65673	0.470205	-3.99437	-157.864	15.9539	0
0.3560	-51.079	-260.004	-12.5828	43.1517	-1.35283	1.41062	-3.08531	-135.571	27.8619	0
0.3567	-58.376	-147.651	-104.461	44.9798	-1.04894	2.31486	-3.08531	-92.8427	38.2296	0
0.3573	-64.79	-36.2813	-255.217	45.5892	-0.745038	4.12334	-3.38833	-26.318	33.0342	0
0.3580	-65.3942	-31.0882	-346.739	37.3542	-1.04894	3.2191	-6.1293	33.7931	19.3102	0.321798
0.3587	-62.9773	-158.95	-326.322	26.6816	-1.35283	0.470205	-10.0961	45.6915	12.8965	0
0.3593	-62.3731	-201.968	-236.284	19.0394	-1.35283	0.795732	-9.49008	16.41	12.5976	0
0.3600	-62.652	-58.8781	-197.526	3.17873	-1.65673	1.41062	-7.35516	-25.3891	4.36778	0
0.3607	-61.7689	122.107	-240.854	-10.5573	-2.56842	1.69997	-5.52325	-101.999	-8.16086	0
0.3613	-61.7689	170.95	-235.69	-14.8231	-2.88212	2.92974	-3.38833	-195.682	-12.4367	0
0.3620	-59.9098	-113.476	-74.5471	-28.2627	-1.96063	2.60421	-4.31117	-232.615	-12.1149	0
0.3627	-53.4959	-501.412	104.936	-52.9678	-1.65673	1.98933	-4.91721	-204.838	-14.8735	0
0.3633	-46.1989	-470.534	173.904	-66.7039	-2.56842	1.69997	-3.99437	-149.902	-19.747	0
0.3640	-39.4596	-158.669	225.125	-59.3912	-3.18602	1.08509	-3.69135	-97.1332	-24.6435	-0.321798
0.3647	-30.0246	61.6852	325.847	-47.7798	-3.48992	1.08509	-2.78229	-65.3747	-26.7814	0
0.3653	-16.2672	161.125	423.542	-37.7165	-4.09771	0.180848	-3.69135	-65.6843	-25.2412	-0.321798
0.3660	-4.36891	119.932	412.502	-25.8086	-4.7055	-1.33828	-6.1293	-72.9826	-23.4251	-1.60899
0.3667	-4.09004	10.737	252.902	-19.4018	-2.56842	0.180848	-4.91721	-29.6796	-23.4251	-1.60899
0.3673	-15.0588	-79.9311	80.7792	-22.4652	-1.65673	2.31486	-3.99437	5.1309	-24.9423	0.321798
0.3680	-19.9389	-231.934	25.8778	-26.1216	-3.18602	3.2191	-4.31117	-17.4716	-27.9998	0
0.3687	-13.8504	-337.83	56.9787	-21.8558	-3.79381	2.60421	-4.91721	46.0011	-29.517	-0.321798
0.3693	-12.6419	-194.038	97.2793	-11.1667	-4.09771	0.180848	-6.74911	154.06	-27.678	0
0.3700	-14.1292	111.44	110.396	-0.790565	-5.0094	-0.759563	-8.27799	134.509	-23.4251	0
0.3707	-3.16049	307.654	100.662	3.78812	-5.3231	-1.04892	-9.49008	62.4996	-20.0458	0
0.3713	11.8053	260.004	55.7917	1.95994	-3.79381	-1.04892	-9.49008	48.7435	-17.9309	0
0.3720	15.756	89.1242	-11.0396	0.131761	-2.56842	0.795732	-7.05213	55.1571	-14.8735	-0.321798
0.3727	7.80826	-217.267	-43.6837	-1.1035	-1.65673	1.08509	-5.22023	37.774	-13.3332	-0.321798
0.3733	-5.29846	-558.746	-56.2071	-3.54107	-1.04894	-0.144679	-5.52325	22.2044	-12.4367	0
0.3740	-7.7153	-542.254	-83.6875	-6.58804	-1.04894	-0.759563	-5.22023	24.0621	-10.2988	0
0.3747	0.185911	-235.232	-116.332	-8.41622	-1.04894	0.795732	-2.47927	28.3084	-8.16086	0
0.3753	6.92518	10.1054	-145.058	-9.02561	0.480354	3.2191	1.18454	24.3275	-6.32179	0
0.3760	11.48	74.8082	-137.105	-7.80683	1.39205	4.73822	2.71342	7.87327	-4.18388	-0.321798
0.3767	2.32389	38.1761	-105.351	-5.97865	2.00964	4.73822	2.4104	-22.6467	-2.66665	0
0.3773	-18.7305	8.56154	-122.445	-6.29158	2.61744	4.44887	1.18454	-65.3747	-1.74711	0
0.3780	-23.2853	144.072	-177.702	-6.90097	2.31354	3.2191	-1.55643	-87.9772	-1.12643	0
0.3787	-14.4546	466.955	-185.596	-4.44693	1.69594	2.92974	-1.55643	-79.7058	-0.229883	0
0.3793	-8.9702	643.309	-87.3674	-1.1035	2.00964	3.54463	1.80435	-85.1906	1.01149	0
0.3800	-2.83514	588.08	30.448	1.03762	1.08815	2.60421	1.80435	-83.6867	2.82756	0
0.3807	10.2716	423.305	75.022	3.17873	-0.127441	0.470205	-0.647364	-43.0818	4.04595	0
0.3813	17.8939	120.844	91.4627	5.6163	-0.745038	-0.759563	-2.78229	3.00777	5.58616	0.321798
0.3820	13.618	-146.178	118.35	7.75742	-0.745038	0.180848	-3.69135	67.3651	6.48271	0
0.3827	12.6884	-198.951	134.79	11.4138	0.176456	1.98933	-3.69135	117.745	7.72408	-0.321798
0.3833	12.6884	-166.318	132.654	15.696	-0.127441	1.41062	-5.22023	96.0716	9.54016	-0.321798
0.3840	6.92518	-140.353	130.873	19.3524	-1.04894	-0.434036	-6.74911	50.9109	10.7585	0
0.3847	6.59984	-28.3513	91.4627	24.2275	-1.35283	-1.33828	-6.1293	20.0813	12.5976	0
0.3853	11.8053	131.581	-4.62952	26.6816	-0.431338	-1.6638	-4.61419	9.06753	14.7355	0
0.3860	11.2011	176.424	-135.562	28.8062	2.00964	1.08509	-0.647364	29.5469	16.2528	-0.321798
0.3867	8.1336	155.02	-263.467	33.3849	2.92133	4.12334	4.84834	83.2444	16.5746	-0.321798
0.3873	7.52939	180.073	-320.802	33.9943	2.00964	3.54463	6.68024	151.317	15.0344	-0.321798
0.3880	7.20405	201.126	-292.135	34.9166	1.39205	1.69997	5.15136	209.88	15.0344	-0.321798
0.3887	7.20405	180.354	-228.924	41.6364	1.69594	-0.144679	2.71342	223.636	15.9539	0
0.3893	4.78721	146.809	-177.999	43.4646	2.61744	0.795732	2.71342	146.407	15.6551	0
0.3900	-3.48583	53.4044	-151.765	41.3235	4.13692	2.92974	4.2423	9.68678	16.5746	-0.321798
0.3907	-2.83514	-102.177	-178.593	43.1517	5.36231	1.98933	2.4104	-96.5139	18.3907	-0.321798
0.3913	15.4771	-253.899	-260.974	44.3704	7.1955	1.08509	-0.647364	-129.776	17.1723	-0.321798
0.3920	27.05	-483.376	-340.032	46.1986	8.10719	1.08509	-2.47927	-131.28	15.9539	0
0.3927	20.9615	-668.923	-394.637	50.1679	8.10719	1.98933	-2.78229	-164.852	15.6551	0
0.3933	12.6884	-535.237	-368.7	47.4339	8.41109	4.12334	-0.330569	-216.117	11.3792	-0.321798
0.3940	2.9281	-295.724	-172.776	33.6978	8.10719	4.44887	0.881517	-217.665	5.58616	-0.321798
0.3947	-1.95206	-277.689	154.673	15.0866	6.58771	2.92974	0.275474	-134.332	2.22987	0
0.3953	-2.55628	-304.847	545.571	2.2564	5.05842	1.98933	-0.0275474	-23.8852	-2.04596	0
0.3960	-9.24907	-144.915	849.814	-9.02561	4.75452	0.180848	-1.25341	56.3956	-8.45971	-1.60899
0.3967	-10.1786	-28.0706	842.513	-22.7617	6.27401	0.180848	-0.950385	120.488	-14.5746	-1.60899
0.3973	-9.24907	22.5969	621.543	-35.8883	8.41109	2.60421	0.275474	121.107	-17.9309	-0.321798
0.3980	-15.9883	241.758	418.615	-43.2175	9.33258	3.2191	-0.330569	63.4285	-18.2297	0.321798
0.3987	-3.16049	422.112	215.985	-40.7635	9.33258	1.98933	-0.950385	75.0172	-16.3907	-0.321798
0.3993	26.7247	471.516	-21.1296	-42.5917	8.41109	1.41062	-1.85945	145.788	-15.1723	0
0.4000	38.6695	595.097	-256.404	-54.8125	7.80329	1.98933	-1.25341	124.734	-15.4711	0
0.4007	27.6542	729.696	-421.821	-59.3912	6.8916	2.31486	0.578495	21.2755	-12.7355	0
0.4013	13.3391	696.432	-435.887	-46.2645	5.36231	-0.144679	-0.950385	-41.8876	-7.83902	-0.321798
0.4020	8.73781	438.533	-321.099	-29.4815	3.52913	-2.27869	-3.08531	-65.3747	-4.18388	-0.321798
0.4027	7.20405	-144.634	-168.503	-28.5592	1.69594	-2.89357	-1.85945	-98.9467	-1.44826	-0.321798
0.4033	-6.50688	-935.945	-42.1999	-32.8414	1.69594	-0.759563	1.48756	-162.11	3.44825	0
0.4040	-27.8866	-1268.86	84.1623	-17.2771	2.00964	1.69997	4.54532	-236.862	8.32178	0
0.4047	-37.0428	-751.31	295.043	6.83509	0.480354	0.795732	3.63626	-282.067	10.4597	-0.321798
0.4053	-32.7668	-60.0711	461.35	16.3054	-0.745038	-1.04892	0.275474	-294.85	9.83901	-0.321798
0.4060	-15.663	151.371	384.428	17.5242	-0.127441	-1.04892	-1.25341	-282.951	8.32178	-0.321798
0.4067	11.8053	106.809	163.22	17.2113	0.480354	-0.434036	-3.38833	-177.06	6.80455	0
0.4073	29.5134	71.4397	-30.5667	9.27267	2.00964	1.08509	-5.52325	51.5301	5.26433	0
0.4080	19.4277	-2.73689	-126.422	-4.75986	3.52913	1.08509	-8.58102	201.653	1.90803	-0.321798
0.4087	3.25344	-79.9311	-154.495	-15.4325	3.22523	-2.27869	-12.8509	156.492	-1.44826	-0.321798
0.4093	9.06316	7.64925	-196.933	-16.3548	2.92133	-1.33828	-11.625	71.9652	-5.10341	0
0.4100	12.6884	94.3173	-258.838	-3.83753	2.31354	1.08509	-6.1293	43.5684	-8.75855	-0.321798
0.4107	-3.7647	12.2107	-291.185	13.5549	2.00964	1.98933	-0.647364	66.4805	-7.54017	0
0.4113	-14.7799	42.1059	-263.467	22.3993	1.39205	1.69997	1.48756	146.717	-1.74711	0.321798
0.4120	-1.95206	205.688	-193.55	17.8206	0.176456	-1.33828	-2.47927	217.842	-0.528732	0.321798
0.4127	27.6542	145.616	-95.6174	8.05388	0.176456	-1.6638	-4.31117	257.518	-4.48272	0
0.4133	49.3129	-211.793	53.3582	10.195	0.176456	-0.144679	-0.647364	321.875	-7.54017	0
0.4140	50.2424	-493.762	233.375	6.83509	-1.65673	-1.33828	2.10738	350.891	-9.08039	0
0.4147	45.3623	-514.815	339.261	-19.4018	-3.18602	-1.33828	3.01644	334.703	-10.5976	0
0.4153	36.8104	-276.776	295.043	-36.4977	-4.09771	-1.6638	0.578495	295.955	-10.2988	-0.321798
0.4160	23.3783	148.985	123.216	-35.5754	-4.09771	-3.47229	-3.38833	184.889	-8.16086	-0.321798
0.4167	14.2222	393.41	-135.859	-41.0764	-3.79381	-3.18293	-5.22023	105.537	-7.54017	-0.321798
0.4173	8.45895	402.884	-376.06	-45.3422	-3.79381	-2.56805	-5.52325	86.9156	-9.08039	0
0.4180	4.46186	408.077	-447.461	-35.8883	-4.09771	-2.89357	-6.1293	14.2869	-9.37924	-0.321798
0.4187	9.34202	460.218	-340.982	-25.1993	-4.40161	-4.08717	-5.52325	-74.2211	-8.75855	0
0.4193	17.5686	561.834	-109.625	-18.4959	-4.40161	-5.93182	-5.22023	-114.516	-7.54017	0.321798
0.4200	18.4981	572.5	134.79	-11.4797	-4.7055	-5.93182	-5.22023	-118.763	-6.62064	0
0.4207	13.618	375.725	288.633	-10.5573	-4.40161	-5.31694	-6.44609	-147.159	-10.5976	-0.321798
0.4213	5.06607	83.0189	373.151	-22.1523	-2.88212	-6.22118	-8.88404	-195.991	-18.2297	-0.321798
0.4220	3.53231	-107.721	279.136	-37.4036	-2.56842	-6.22118	-9.49008	-182.855	-27.0803	0
0.4227	20.6361	-71.3696	-36.9768	-50.8432	-3.79381	-4.08717	-8.58102	-161.491	-32.5745	0
0.4233	42.2947	5.19307	-333.919	-61.2194	-4.7055	-2.56805	-8.88404	-226.511	-31.9538	-0.321798
0.4240	49.034	-227.933	-449.598	-57.8595	-4.40161	-2.27869	-10.4129	-321.433	-27.9998	-0.321798
0.4247	39.5525	-684.151	-406.27	-46.2645	-6.23479	-5.02758	-13.7599	-354.386	-23.724	0
0.4253	23.0994	-920.366	-236.284	-38.9353	-8.67577	-6.83606	-13.4569	-224.963	-18.2297	-0.321798
0.4260	-7.7153	-875.523	8.19069	-29.7779	-8.06798	-6.54671	-8.58102	4.20203	-12.4367	-1.60899
0.4267	-48.9411	-541.693	205.598	-15.136	-5.9309	-6.22118	-4.31117	48.1685	-5.40226	-1.28719
0.4273	-70.5997	-18.3161	285.25	-4.15047	-6.23479	-5.02758	-1.55643	-42.7722	0.68965	0
0.4280	-66.3237	250.25	293.5	1.03762	-8.06798	-4.70205	-1.85945	-89.7907	3.44825	0
0.4287	-49.8706	336.637	298.367	2.8658	-8.67577	-5.64247	-4.91721	-159.677	4.66663	0
0.4293	-26.9571	350.672	265.129	3.78812	-7.45038	-4.70205	-4.61419	-251.237	6.18386	0
0.4300	-5.29846	206.038	170.224	4.39752	-4.7055	-2.89357	-1.85945	-236.596	8.94246	-0.321798
0.4307	7.80826	109.616	82.0256	2.56934	-3.18602	-2.89357	-2.78229	-67.1882	11.9769	0
0.4313	3.53231	193.828	-94.9645	2.8658	-2.26452	-5.02758	-6.44609	96.6909	12.2988	0
0.4320	-23.8896	312.216	-390.067	8.36681	-1.96063	-6.54671	-10.4129	171.133	9.54016	0
0.4327	-49.8706	201.126	-596.971	13.5549	-1.96063	-4.70205	-11.928	223.327	4.96548	0
0.4333	-49.2199	40.9129	-640.002	17.2113	-2.56842	-2.56805	-10.4129	243.452	1.90803	0
0.4340	-43.1313	208.424	-542.069	22.1029	-5.0094	-3.79781	-11.322	192.807	1.01149	-0.321798
0.4347	-49.8706	477.622	-304.302	27.5874	-7.76408	-6.22118	-15.5918	78.6885	0.0919533	-0.321798
0.4353	-55.6338	507.517	31.0415	29.4156	-8.37188	-7.16159	-16.8177	-21.7178	0.68965	-0.321798
0.4360	-58.376	348.567	406.745	28.1968	-7.45038	-6.22118	-9.7931	-26.6276	4.96548	0
0.4367	-63.3027	69.8959	673.773	26.3686	-7.76408	-5.02758	-0.950385	12.1195	7.10339	0
0.4373	-71.8081	-474.534	729.328	25.7592	-8.06798	-4.4127	3.01644	49.0531	7.72408	-0.321798
0.4380	-87.9823	-1245.7	627.656	27.291	-8.67577	-5.64247	1.18454	86.9156	8.62062	-0.321798
0.4387	-102.019	-1525.85	331.07	30.025	-10.509	-7.16159	-0.950385	30.1661	8.94246	0
0.4393	-93.5132	-1024.16	-124.285	32.1661	-10.509	-5.64247	-1.25341	-111.464	8.94246	0
0.4400	-61.1647	-385.129	-486.515	29.4156	-8.06798	-2.89357	-1.25341	-144.417	9.83901	0
0.4407	-29.4204	81.8259	-641.248	19.6488	-5.627	-1.04892	-0.950385	-34.5451	11.3792	-0.321798
0.4413	-6.50688	434.323	-684.576	18.43	-4.7055	-1.6638	-1.85945	100.937	12.2988	-0.321798
0.4420	12.0842	552.36	-652.822	32.479	-5.3231	-2.89357	-3.99437	259.641	12.2988	0
0.4427	20.0319	592.08	-426.984	42.2458	-6.23479	-0.759563	-2.47927	367.346	11.6781	0
0.4433	13.9433	547.237	-87.9609	43.4646	-6.53869	1.69997	-0.330569	302.679	11.3792	-0.321798
0.4440	-2.55628	-62.5273	124.76	48.9491	-5.627	2.92974	-0.647364	172.062	11.3792	-0.321798
0.4447	-25.1445	-762.609	217.825	59.9347	-5.0094	2.31486	-2.16247	64.3131	10.7585	0
0.4453	-33.0457	-839.522	275.813	67.2639	-5.3231	0.180848	-5.52325	-109.032	8.94246	0.321798
0.4460	-17.801	-510.535	285.903	65.4357	-3.79381	1.41062	-4.31117	-291.488	7.72408	0
0.4467	0.185911	17.1231	206.548	54.7466	-0.745038	4.73822	-0.0275474	-358.632	7.10339	0
0.4473	15.756	405.901	63.0921	39.7918	0.480354	5.06375	0.275474	-325.679	6.80455	0
0.4480	22.1699	352.216	-18.3994	27.9003	0.176456	4.73822	-1.55643	-216.736	10.7585	-0.643597
0.4487	10.8758	247.793	-51.9337	18.43	-1.35283	3.83398	-3.69135	-109.916	14.7355	-0.321798
0.4493	3.53231	231.653	-121.851	4.71045	-3.48992	2.31486	-5.82628	-53.7859	12.8965	0.321798
0.4500	14.2222	136.423	-113.008	-18.7924	-5.9309	-0.144679	-7.65818	-11.6772	8.02293	0
0.4507	27.9796	152.002	-44.0398	-43.514	-8.06798	-2.89357	-10.0961	55.4668	4.66663	-0.321798
0.4513	14.5475	230.46	35.3149	-32.8414	-9.28357	-3.47229	-9.18706	188.826	4.36778	-0.321798
0.4520	-11.9913	148.002	176.634	6.2257	-9.90117	-0.759563	-3.99437	287.109	5.88501	-0.321798
0.4527	-11.387	10.3861	272.133	30.9473	-9.90117	0.795732	-0.950385	246.814	9.54016	-0.321798
0.4533	-3.48583	-73.1942	418.319	46.1986	-9.90117	1.08509	-1.25341	157.996	18.0918	0
0.4540	0.511255	-100.352	630.446	55.6689	-9.58747	1.41062	-0.950385	30.1661	25.7239	0
0.4547	13.9433	-57.6851	661.25	54.4501	-8.67577	1.41062	-1.85945	-182.545	26.6435	0
0.4553	23.3783	8.28083	591.035	50.4809	-5.9309	4.12334	-3.08531	-339.435	26.9423	0.321798
0.4560	20.0319	-75.0187	541.891	38.573	-2.26452	5.35311	-2.78229	-364.161	25.7239	-0.965395
0.4567	0.185911	-190.74	453.752	32.7755	1.39205	4.44887	-2.47927	-396.185	21.1493	-1.60899
0.4573	-39.4596	-84.2119	378.374	43.7611	3.83303	3.83398	-3.99437	-363.232	22.6665	-0.321798
0.4580	-73.063	131.581	293.5	44.9798	1.69594	1.08509	-6.1293	-85.1906	29.3791	0.643597
0.4587	-72.7376	241.758	126.243	32.7755	-1.04894	0.470205	-7.05213	251.414	31.8159	0.321798
0.4593	-53.8212	196.284	-110.218	14.1643	-1.65673	2.60421	-7.05213	422.901	30.8963	-0.321798
0.4600	-38.8554	220.986	-462.715	-12.0891	-1.96063	2.60421	-8.88404	438.47	26.9423	-0.321798
0.4607	-25.4233	448.007	-800.254	-6.90097	-3.48992	-0.434036	-12.8509	357.305	21.747	0
0.4613	-7.11109	617.694	-868.925	23.6181	-6.53869	-2.89357	-14.0767	216.294	13.816	0
0.4620	0.185911	533.482	-696.505	19.9618	-9.58747	-3.18293	-11.322	53.3436	-1.12643	0
0.4627	-23.8896	-41.7551	-384.606	-2.93168	-10.509	-2.56805	-6.44609	-103.503	-12.4367	0
0.4633	-64.5111	-982.963	36.2646	-12.9949	-12.646	-3.18293	-3.99437	-219.479	-15.4711	-0.321798
0.4640	-91.0499	-1097.98	443.069	-23.0746	-16.3026	-6.83606	-7.65818	-293.655	-17.6091	0
0.4647	-89.8415	-377.48	683.21	-36.4977	-17.8319	-10.5254	-13.1539	-373.007	-15.4711	0
0.4653	-68.4617	-162.669	610.563	-33.4508	-17.8319	-12.0445	-14.0767	-404.102	-6.62064	-0.321798
0.4660	-46.4777	-204.424	291.363	-17.2771	-16.3026	-11.1041	-10.4129	-285.694	0.390802	-0.321798
0.4667	-17.1968	39.3691	15.4911	-18.4959	-11.7245	-7.77647	-7.9612	-94.3466	1.60918	-0.321798
0.4673	26.1205	-60.9834	-154.792	-24.2934	-5.3231	-4.70205	-10.7159	12.1195	-1.44826	-0.321798
0.4680	61.2112	-351.865	-236.284	-11.1667	0.784251	-1.6638	-15.2888	78.6885	-6.62064	-0.321798
0.4687	75.2474	-163.862	-164.585	-12.6984	3.83303	-1.33828	-15.2888	110.093	-12.7355	-0.321798
0.4693	71.2968	139.511	-69.3241	-40.467	4.45062	-2.27869	-13.1539	-2.83084	-18.5286	0
0.4700	62.1407	98.8788	-4.03599	-56.0313	4.45062	-0.144679	-10.4129	-178.608	-23.1033	-0.321798
0.4707	46.2918	22.8776	99.7127	-53.5937	2.92133	1.69997	-7.35516	-304.625	-26.1607	-0.321798
0.4713	10.5504	57.4044	160.727	-45.0457	-1.35283	-1.04892	-6.74911	-353.766	-23.4251	-0.321798
0.4720	-33.9752	-256.636	152.537	-34.6696	-5.0094	-3.47229	-7.35516	-341.868	-19.4481	0
0.4727	-63.9069	-779.1	82.0256	-28.5592	-7.45038	-2.56805	-6.1293	-286.932	-21.586	0
0.4733	-73.3419	-628.922	-52.8834	-23.0746	-8.37188	-1.04892	-1.55643	-133.713	-23.724	0
0.4740	-69.3913	-60.422	-148.679	-13.3078	-7.76408	0.470205	3.63626	106.422	-28.5975	0.321798
0.4747	-53.8212	183.161	-158.769	-5.05632	-7.45038	-1.95316	1.18454	356.995	-38.9882	0
0.4753	-53.217	347.304	-130.101	-4.15047	-6.53869	-4.70205	-4.91721	537.948	-44.1606	-0.321798
0.4760	-75.201	615.238	-148.085	-13.6043	-5.9309	-2.89357	-6.1293	534.277	-41.7238	0
0.4767	-79.4769	871.944	-296.111	-33.4508	-7.76408	-0.759563	-7.05213	360.976	-39.8848	0
0.4773	-64.1857	1019.95	-493.875	-53.2808	-7.76408	0.795732	-9.49008	190.064	-41.1031	-0.321798
0.4780	-49.8706	924.436	-625.045	-67.6262	-6.84259	0.470205	-10.0961	108.589	-43.2411	0
0.4787	-24.8191	736.714	-712.946	-71.2826	-8.37188	-1.33828	-9.7931	-14.11	-44.4594	0
0.4793	-1.62672	636.922	-746.243	-65.798	-8.06798	0.180848	-5.52325	-203.599	-43.5629	0
0.4800	0.185911	535.938	-657.748	-62.7346	-6.23479	2.31486	-1.25341	-357.438	-42.9422	0
0.4807	9.34202	453.2	-375.763	-69.1579	-5.627	3.2191	-0.647364	-506.676	-44.1606	-0.321798
0.4813	30.7218	431.235	132.06	-77.0801	-6.23479	3.2191	-1.55643	-524.988	-44.1606	0
0.4820	50.5678	67.159	640.773	-79.2212	-6.84259	1.08509	-2.47927	-308.915	-45.9997	0
0.4827	77.3854	-661.274	920.622	-73.7202	-6.23479	0.470205	-1.25341	-104.741	-46.5974	0
0.4833	95.0934	-898.12	888.927	-64.2663	-5.627	2.60421	2.10738	-28.7507	-42.9422	0
0.4840	96.023	-370.743	568.185	-55.4219	-5.627	4.73822	2.4104	52.4148	-40.8043	-0.321798
0.4847	96.023	103.51	172.954	-42.9046	-4.40161	4.44887	-0.647364	139.419	-37.7468	-0.321798
0.4853	93.2808	140.985	-243.287	-28.2627	-0.431338	5.06375	-1.25341	155.873	-30.7354	-0.321798
0.4860	86.2627	-13.6844	-569.846	-12.9949	4.13692	7.81264	-0.0275474	176.927	-24.0228	0
0.4867	77.1066	-483.095	-629.674	3.78812	5.66621	9.62113	-0.330569	313.029	-17.6091	-0.321798
0.4873	67.6251	-885.909	-515.835	17.8206	3.52913	7.81264	-2.16247	437.542	-12.1149	0
0.4880	72.5053	-530.394	-155.682	31.5567	3.22523	5.35311	-3.99437	472.042	-6.32179	-0.643597
0.4887	79.8487	88.2119	340.804	48.0433	5.66621	5.67863	-3.38833	508.976	0.68965	-1.60899
0.4893	48.4298	117.826	625.223	56.8877	5.97011	7.19776	-2.16247	380.173	5.88501	-0.643597
0.4900	-14.7799	-329.9	776.572	56.5748	2.31354	5.96799	-4.91721	45.6915	7.72408	0
0.4907	-67.5321	-480.92	917.595	60.2476	-1.65673	3.83398	-8.58102	-218.55	8.02293	0
0.4913	-91.3752	-264.285	838.833	67.5768	-4.7055	1.41062	-11.625	-309.8	8.32178	0
0.4920	-88.5866	-237.127	433.869	68.7956	-7.14648	1.41062	-13.4569	-279.28	7.72408	0
0.4927	-76.084	-412.849	-15.313	62.3887	-6.23479	2.92974	-14.6828	-223.15	5.58616	-0.321798
0.4933	-56.5634	-439.095	-244.534	40.7141	-7.76408	1.41062	-19.2556	-138.623	3.7471	-0.321798
0.4940	-27.8866	21.9653	-270.768	4.08458	-11.7245	-1.6638	-23.8423	46.0011	4.96548	0.321798
0.4947	7.20405	842.329	-230.17	-8.72915	-13.2538	-2.56805	-24.7513	296.575	8.32178	0.321798
0.4953	48.7087	1262.55	-151.765	21.7899	-14.1655	-1.6638	-21.0875	509.905	8.94246	0
0.4960	82.9163	923.453	-29.9732	58.7159	-13.2538	1.08509	-9.49008	560.55	9.54016	0
0.4967	87.7964	271.934	91.4627	73.3743	-11.1168	2.92974	-0.0275474	459.525	10.7585	0
0.4973	56.0521	-139.441	182.747	70.3109	-11.4207	1.08509	0.881517	382.915	9.83901	0.321798
0.4980	12.0842	-548.079	111.643	77.9365	-12.3421	-1.33828	1.80435	423.21	11.9769	0
0.4987	-19.9389	-1089.77	-114.788	88.9385	-10.509	-1.6638	4.2423	404.898	17.1723	-0.321798
0.4993	-44.0609	-990.893	-333.325	79.1718	-7.14648	1.08509	6.68024	160.164	17.793	0
0.5000	-55.6338	-296.005	-463.308	56.8877	-4.09771	3.54463	6.37722	-167.904	15.9539	0
0.5007	-35.8343	179.441	-491.382	39.7918	-4.09771	2.60421	2.10738	-418.168	13.5171	-0.321798
0.5013	-6.22802	335.725	-433.75	29.1191	-6.84259	-0.144679	3.63626	-551.218	6.18386	-0.321798
0.5020	-5.62381	471.236	-285.428	3.17873	-9.58747	-2.56805	8.20913	-501.457	-4.18388	0
0.5027	-38.5765	581.694	-44.3366	-16.3548	-9.58747	-1.6638	12.479	-335.764	-9.67809	0.321798
0.5033	-74.8756	445.551	211.712	-0.181171	-6.53869	1.69997	16.1428	-216.427	-8.75855	0
0.5040	-83.4275	54.6675	334.394	14.7737	-5.0094	1.41062	13.7048	-135.88	-6.62064	0
0.5047	-69.3913	-472.709	297.18	15.3831	-5.3231	-1.95316	8.81517	-22.0275	-3.58618	0
0.5053	-75.201	-829.417	200.138	8.36681	-5.0094	-4.08717	6.37722	87.5349	-0.82758	0
0.5060	-86.4951	-525.482	56.0884	-17.8865	-4.09771	-3.18293	3.93928	113.764	-0.82758	-0.321798
0.5067	-52.6128	239.302	-177.049	-37.7165	-2.56842	-2.27869	2.10738	91.7811	1.01149	-0.321798
0.5073	13.3391	780.363	-448.351	-41.9823	-1.96063	-5.93182	2.10738	118.939	5.26433	0
0.5080	82.5909	925.348	-595.19	-51.7491	-2.56842	-9.91048	2.71342	138.49	8.94246	-0.321798
0.5087	123.491	779.451	-542.663	-63.6569	-1.65673	-9.2956	4.54532	115.312	8.94246	-0.321798
0.5093	133.252	344.567	-350.716	-65.4851	2.00964	-5.31694	6.68024	84.4829	1.60918	0
0.5100	143.616	-73.1942	51.815	-74.0331	5.05842	-1.6638	7.9061	-54.9802	-7.24132	-0.321798
0.5107	147.009	2.45618	477.553	-86.8468	7.1955	-0.434036	6.0742	-167.904	-12.1149	0
0.5113	127.767	222.179	583.735	-89.2844	8.10719	-1.95316	1.48756	-87.6676	-11.1953	0
0.5120	94.4892	-50.3166	496.783	-99.6606	6.8916	-3.18293	2.4104	-40.3395	-6.94248	-0.321798
0.5127	59.0732	-327.093	316.707	-99.3641	7.1955	-3.47229	7.9061	-58.3418	-4.48272	0
0.5133	36.8104	-255.723	20.0613	-77.6895	8.41109	-2.27869	11.5699	-35.7836	-5.72409	0
0.5140	51.172	-103.721	-218.596	-59.6876	8.71499	-1.04892	9.73801	14.2869	-6.02294	0
0.5147	90.8175	205.126	-290.591	-42.9046	7.4994	-2.89357	1.48756	92.4004	-3.26434	0.321798
0.5153	111.593	381.48	-137.402	-31.3097	5.97011	-3.79781	-4.31117	14.2869	0.68965	0.321798
0.5160	105.504	166.038	205.301	-33.1378	4.75452	-4.70205	-5.22023	-195.991	6.18386	-0.643597
0.5167	74.3644	-50.9482	467.463	-33.7472	4.45062	-6.22118	-4.61419	-318.956	10.7585	-1.28719
0.5173	9.06316	79.089	479.986	-23.684	3.52913	-3.18293	-2.16247	-363.851	13.816	-0.321798
0.5180	-52.6128	160.564	357.007	-13.3078	0.480354	-3.47229	-3.69135	-385.79	15.3332	0
0.5187	-82.8233	-324.707	181.501	-5.97865	-1.35283	-6.54671	-8.88404	-334.835	17.4711	0
0.5193	-98.9976	-622.536	26.1746	6.53863	-1.04894	-6.22118	-9.18706	-149.283	20.5286	0
0.5200	-80.36	-266.11	67.959	16.3054	-1.35283	-3.79781	-5.82628	-61.3938	21.1493	0
0.5207	-21.4727	-38.7375	267.563	17.5242	-1.65673	-0.434036	-1.25341	-199.972	20.8274	0
0.5213	27.3754	58.5974	382.944	18.743	-1.65673	-0.144679	-1.25341	-239.648	21.1493	-0.321798
0.5220	44.1538	398.884	334.987	25.1498	-0.745038	-2.89357	-8.88404	-13.4907	20.8274	-0.321798
0.5227	49.9171	728.784	196.458	28.8062	1.39205	-3.18293	-14.6828	252.299	22.9653	-0.321798
0.5233	58.469	942.12	29.5577	26.0722	2.00964	-3.18293	-15.5918	319.443	26.9423	0
0.5240	56.9817	877.418	-115.144	25.4463	2.31354	-2.89357	-13.7599	276.715	29.0802	0
0.5247	45.3623	143.441	-206.963	27.9003	3.52913	-1.95316	-10.0961	270.036	32.7354	0
0.5253	21.5657	-649.695	-246.967	27.5874	3.83303	-3.47229	-10.0961	272.159	36.0917	0.321798
0.5260	-11.387	-601.203	-287.268	25.7592	5.36231	-2.89357	-12.5478	327.714	33.0342	0.321798
0.5267	-12.3166	-257.548	-325.075	24.5404	7.80329	-0.759563	-14.0767	370.398	25.1033	0
0.5273	-2.23093	-161.687	-256.107	25.4463	8.10719	-0.759563	-12.2448	300.511	18.6895	0
0.5280	-25.1445	-91.5102	-117.875	34.6037	9.94038	1.08509	-6.74911	153.75	15.3332	0
0.5287	-42.8525	-1.47371	-151.112	40.4012	13.9106	5.67863	-1.25341	-21.1428	15.9539	0
0.5293	-30.6288	30.2461	-302.818	22.1029	13.9106	8.42753	3.31946	-90.1003	19.609	-0.321798
0.5300	-0.697166	4.63165	-308.575	-5.97865	10.5482	9.62113	6.98327	6.63478	26.3216	-0.321798
0.5307	43.8285	159.652	-226.787	-28.2627	6.27401	9.94665	9.11819	162.596	31.517	0
0.5313	77.7108	410.814	-170.639	-41.3729	3.22523	9.00624	9.43498	183.651	32.1377	0
0.5320	74.9686	415.094	-89.2073	-36.1848	1.69594	8.42753	9.73801	16.7196	30.2986	0
0.5327	58.1901	251.162	104.936	-25.5122	1.08815	8.42753	9.73801	-114.516	21.1493	0
0.5333	56.0521	152.915	299.316	-25.1993	2.61744	10.8509	10.344	-235.667	11.0804	0
0.5340	50.2424	194.389	266.019	-21.8558	6.27401	12.6955	11.8729	-465.142	10.7585	0
0.5347	31.0006	227.653	76.5058	-12.9949	8.41109	11.7551	12.479	-572.581	10.4597	0
0.5353	16.9644	43.3691	-42.1999	-2.32228	9.02869	11.4658	12.782	-531.667	7.40224	0
0.5360	19.1023	-418.393	-99.2379	20.5712	8.71499	11.4658	14.6139	-466.381	2.52872	0
0.5367	16.9644	-686.607	-147.492	45.2928	9.02869	10.8509	17.9747	-149.592	-8.45971	0
0.5373	-12.9208	-349.409	4.51081	61.7629	9.63648	10.5615	20.1096	298.079	-22.1837	0
0.5380	-45.2693	-22.5267	333.207	78.2494	7.4994	8.71689	19.8066	334.703	-33.1722	0
0.5387	-45.2693	-179.091	538.271	90.7667	6.27401	6.87223	19.8066	19.462	-38.9882	0
0.5393	-17.801	-394.884	561.774	88.9385	7.80329	5.67863	17.3686	-174.008	-42.3445	0
0.5400	3.85765	-290.531	432.682	76.7177	9.33258	4.73822	13.4018	-104.431	-45.9997	0
0.5407	1.11547	-39.0182	115.916	57.81	11.156	4.44887	11.2531	61.8804	-45.379	0.321798
0.5413	-2.23093	52.4921	-181.026	31.8696	14.8223	4.44887	7.9061	204.086	-41.425	0.321798
0.5420	16.6855	-57.3343	-300.385	6.83509	18.7926	4.44887	5.77118	305.421	-39.2871	0
0.5427	35.2766	-317.058	-384.606	-16.3548	20.0082	2.92974	5.15136	373.45	-42.0227	0
0.5433	28.2585	-360.076	-476.425	-31.6061	17.5672	-0.144679	4.54532	447.936	-46.5974	0
0.5440	8.73781	-34.7374	-417.547	-30.9967	15.1262	-1.6638	6.37722	449.175	-45.9997	0
0.5447	-21.1474	80.9136	-177.999	-25.1993	13.293	-2.56805	6.98327	276.715	-40.5054	0
0.5453	-62.0478	-104.984	11.8112	-20.6206	11.7736	-1.95316	9.11819	111.022	-33.1722	0
0.5460	-88.9119	-176.073	75.9123	-14.5266	10.2443	-2.89357	15.8398	90.2772	-25.8619	-1.60899
0.5467	-91.9794	-23.1583	70.4518	-10.5573	8.41109	-3.79781	18.2777	34.4124	-19.4481	-1.60899
0.5473	-93.7921	191.371	-32.1099	-11.1667	7.80329	-1.33828	14.9169	-118.188	-15.793	0
0.5480	-107.224	196.284	-140.132	-10.5573	8.10719	-0.759563	10.6471	-171.266	-13.9539	0.321798
0.5487	-97.4638	23.2284	-120.605	-6.90097	10.5482	-0.144679	9.43498	-69.6652	-9.97694	-0.321798
0.5493	-34.9048	-102.177	-106.598	-2.61875	12.9892	1.41062	7.9061	35.0316	-5.10341	0
0.5500	44.7581	-167.231	-216.163	0.131761	11.7736	0.470205	3.63626	0.530782	-3.58618	0
0.5507	84.7289	-84.4926	-261.627	1.03762	10.5482	0.180848	0.881517	-220.407	-4.48272	0
0.5513	75.2474	194.389	-201.8	0.428223	10.5482	0.180848	-2.47927	-436.48	-5.40226	0
0.5520	48.1045	364.076	-253.971	0.428223	11.7736	0.470205	-3.08531	-373.317	-3.88503	0
0.5527	16.6855	264.917	-386.446	1.35055	14.5184	2.92974	-2.78229	-166.4	1.60918	0
0.5533	-14.7799	79.3697	-314.095	2.2564	15.734	3.54463	-10.7159	-27.8218	8.02293	0
0.5540	-36.4385	-76.2819	-118.468	-1.39996	16.0477	3.54463	-17.7268	158.306	10.4597	0.321798
0.5547	-55.0296	-270.039	54.842	-11.4797	16.0477	4.44887	-22.0104	387.825	9.54016	0.321798
0.5553	-64.79	-388.778	488.236	-18.183	15.734	4.73822	-27.1893	490.664	9.83901	0
0.5560	-48.6157	-287.443	1004.84	-17.5736	15.4301	6.58288	-25.6604	444.884	11.0804	0
0.5567	-19.6601	-460.148	1026.86	-16.9642	13.293	8.102	-19.8755	290.78	12.2988	0
0.5573	-7.43644	-970.752	646.886	-17.5736	10.8521	7.48712	-15.5918	116.197	11.6781	0
0.5580	-2.83514	-995.174	243.465	-15.4325	9.02869	5.96799	-14.6828	-0.973101	8.94246	0
0.5587	22.1699	-854.751	-50.7467	-11.1667	9.02869	6.58288	-14.3797	-76.3442	7.40224	-0.321798
0.5593	53.31	-899.032	-206.963	-7.19743	10.8521	9.94665	-10.4129	4.82127	6.80455	-0.321798
0.5600	50.2424	-154.388	-316.825	-5.66571	12.6853	11.1764	-4.61419	134.819	4.04595	0
0.5607	16.6855	984.858	-430.961	-3.83753	14.2145	10.8509	-0.950385	58.5188	3.7471	0.321798
0.5613	-10.7828	1154.47	-378.493	-0.181171	16.3516	11.1764	-1.85945	-35.7836	6.80455	0
0.5620	-13.525	700.081	-140.132	5.31984	18.175	9.00624	-4.91721	24.0621	10.4597	0
0.5627	2.64923	557.272	7.53781	12.3361	19.0965	9.00624	-9.49008	132.076	14.1148	0
0.5633	26.1205	474.604	49.0848	16.9148	19.4004	9.00624	-30.5501	136.942	16.5746	-0.965395
0.5640	49.9171	70.8082	183.044	18.43	18.4887	5.96799	-52.5191	35.6509	15.6551	-0.965395
0.5647	46.2918	-252.636	341.101	19.3524	16.9594	5.06375	-45.5083	22.514	14.1148	0
0.5653	25.5163	-139.441	332.554	20.2747	13.9106	3.83398	-29.944	100.627	14.4367	0.321798
0.5660	28.2585	225.267	177.228	19.3524	9.94038	2.31486	-18.6496	97.0005	17.793	0
0.5667	20.0319	421.2	70.0957	15.696	7.4994	1.41062	-7.05213	-7.0771	19.0114	0
0.5673	-15.9883	338.462	32.5847	11.1173	5.36231	-1.6638	-0.950385	-83.6867	15.9539	0
0.5680	-40.9934	235.653	-95.6174	10.195	3.22523	-4.70205	6.98327	-72.7172	13.5171	0
0.5687	-46.8031	301.198	-210.643	11.7267	2.61744	-5.93182	19.2005	-89.1714	12.8965	0
0.5693	-38.2512	374.813	-134.672	11.4138	2.00964	-5.64247	30.7842	-205.147	11.6781	0
0.5700	-25.4233	281.689	-59.5902	10.195	0.784251	-4.4127	41.1696	-291.223	11.0804	0
0.5707	-10.1786	177.055	-115.441	10.8044	0.480354	-4.70205	52.1472	-263.445	11.6781	0
0.5713	14.2222	155.652	-122.445	11.7267	1.08815	-5.31694	65.2736	-230.183	12.2988	0
0.5720	32.5344	138.248	31.6944	10.5079	1.69594	-4.70205	78.3999	-285.119	12.2988	0
0.5727	38.3441	32.7023	174.794	10.195	4.45062	-2.89357	82.6697	-394.637	12.5976	0.321798
0.5733	56.0521	-156.845	212.661	11.7267	7.80329	0.470205	54.2959	-428.209	13.816	0
0.5740	78.315	-188.564	265.426	12.3361	8.71499	0.180848	0.275474	-358.942	13.2183	-0.321798
0.5747	69.7631	-28.0706	297.18	12.0232	8.41109	-1.6638	-25.0544	-320.194	13.816	0.321798
0.5753	47.1749	50.1061	306.617	12.3361	8.41109	-2.89357	-14.0767	-276.538	16.5746	0.321798
0.5760	32.8598	48.5622	257.176	12.0232	9.33258	-4.70205	-2.16247	-254.289	17.4711	-1.60899
0.5767	23.7036	191.091	67.6622	12.0232	12.3814	-0.759563	0.881517	-351.643	15.9539	-1.60899
0.5773	22.4952	400.427	-5.87593	9.89853	13.6068	4.12334	-5.82628	-260.703	11.3792	0
0.5780	25.8416	276.215	75.6155	5.92924	11.156	2.31486	-12.8509	136.942	5.88501	0.321798
0.5787	23.7036	-230.109	46.2952	3.78812	10.8521	1.08509	-11.322	348.149	2.22987	0
0.5793	7.20405	-415.024	-51.0434	2.56934	13.293	3.2191	-16.2116	190.993	0.0919533	0
0.5800	-12.6419	-153.757	-175.269	1.64701	14.5184	3.83398	-25.6604	32.2893	0.0919533	0.321798
0.5807	-35.509	-147.371	-408.407	1.03762	12.9892	1.98933	-26.5832	59.4476	1.90803	0
0.5813	-68.787	-220.916	-553.94	0.741154	10.2443	-0.434036	-22.6164	217.223	3.7471	0
0.5820	-88.5866	2.73689	-468.531	0.741154	6.58771	-1.6638	-18.0435	399.104	5.88501	0
0.5827	-79.4769	162.038	-249.401	0.131761	4.13692	-0.759563	-13.1539	535.515	8.02293	0
0.5833	-51.6832	105.335	11.2177	-0.477633	2.61744	0.795732	-5.52325	620.971	9.24131	0
0.5840	-40.0638	7.01766	211.415	-0.477633	1.39205	1.08509	5.77118	581.295	9.83901	-0.321798
0.5847	-39.1807	-86.9488	272.429	-0.181171	1.39205	-0.434036	12.479	333.818	11.3792	-0.321798
0.5853	-17.1968	-230.109	152.834	0.131761	2.00964	-1.33828	9.43498	39.8971	12.2988	0
0.5860	6.92518	-308.496	-26.6494	-0.790565	3.22523	0.470205	7.9061	-35.1643	11.0804	0
0.5867	7.20405	-219.091	-151.409	-2.00935	6.27401	5.67863	14.9169	37.774	8.32178	0
0.5873	-2.83514	-120.844	-291.541	-3.54107	9.02869	9.00624	14.3109	115.312	6.48271	0
0.5880	-0.697166	-74.1065	-300.681	-4.44693	9.63648	6.87223	11.5699	197.672	6.48271	0
0.5887	9.06316	-23.5091	-137.995	-3.22814	8.41109	3.2191	22.2445	206.828	6.48271	0
0.5893	11.48	22.8776	-23.8598	-1.39996	7.1955	1.98933	17.3686	128.095	7.40224	0
0.5900	6.59984	58.3167	99.416	-0.477633	6.27401	2.31486	-37.8777	-22.3371	8.94246	0
0.5907	5.39142	-56.1413	276.703	-0.181171	4.45062	1.08509	-122.407	-192.011	10.4597	0
0.5913	8.73781	-346.953	355.167	0.131761	2.00964	-1.95316	-170.009	-167.595	9.83901	0
0.5920	8.73781	-440.358	381.995	-0.477633	1.39205	-2.27869	-171.235	55.4668	9.24131	0
0.5927	3.25344	-263.653	350.241	-0.477633	2.31354	-1.33828	-159.94	226.379	9.54016	0
0.5933	0.185911	-96.7033	120.486	0.131761	4.13692	-0.144679	-133.398	273.663	10.1608	0
0.5940	11.8053	168.494	-141.378	0.428223	5.36231	1.41062	-94.3361	290.471	10.1608	0
0.5947	22.7741	565.834	-256.404	-2.00935	7.1955	1.69997	-54.048	171.133	7.72408	0
0.5953	-2.55628	700.081	-317.775	-4.44693	9.94038	2.92974	-12.5478	-96.8236	4.04595	0
0.5960	-51.3579	416.007	-404.727	-6.29158	9.63648	3.83398	20.4126	-316.833	1.31033	-0.321798
0.5967	-66.9279	43.3691	-437.371	-7.19743	8.10719	4.44887	50.6321	-525.563	-1.12643	0
0.5973	-53.4959	-82.3873	-394.637	-7.80683	7.4994	5.67863	80.8378	-697.713	-2.3678	0
0.5980	-64.1857	-20.1407	-385.2	-8.41622	6.27401	4.73822	99.7629	-541.442	-3.26434	0
0.5987	-85.8444	31.1584	-419.387	-8.11976	5.66621	4.12334	111.663	-88.2426	-3.58618	0
0.5993	-81.5684	28.4215	-386.09	-6.90097	6.27401	4.12334	122.035	322.185	-0.82758	0
0.6000	-61.7689	-17.0529	-159.362	-5.97865	6.27401	3.83398	111.966	481.508	2.52872	0
0.6007	-41.9229	-93.9664	191.591	-4.44693	6.58771	4.12334	100.975	436.038	5.88501	0
0.6013	-27.5613	-60.9834	486.1	-4.15047	9.63648	5.06375	104.639	357.305	6.80455	0
0.6020	-20.8685	121.476	648.726	-4.75986	14.2145	6.87223	59.7779	242.568	4.96548	0
0.6027	-11.387	183.722	582.192	-4.15047	15.4301	8.42753	-25.9772	118.63	4.04595	0
0.6033	7.52939	34.176	326.797	-3.83753	14.2145	9.94665	-69.3093	82.6251	5.88501	-0.321798
0.6040	35.6019	-106.177	144.287	-4.15047	11.4697	9.33177	-75.714	38.0836	8.32178	0
0.6047	53.5888	-176.985	149.747	-2.93168	8.41109	6.29352	-82.4356	-67.1882	10.4597	0
0.6053	51.4508	-225.197	199.841	-2.32228	7.1955	6.29352	-73.8821	-122.434	11.6781	0.321798
0.6060	40.8074	-150.108	169.274	-2.61875	7.4994	8.42753	-48.8553	-75.1499	11.3792	0.321798
0.6067	23.3783	-73.1942	99.7127	-2.93168	6.27401	6.29352	-31.7759	41.4453	9.24131	-0.965395
0.6073	11.2011	-216.074	42.6747	-2.61875	4.75452	2.31486	-26.8863	162.287	7.72408	-1.60899
0.6080	-0.4183	-465.692	-1.30576	-2.93168	3.52913	1.98933	-29.3242	212.048	6.48271	-0.321798
0.6087	-34.9048	-712.573	-10.7429	-3.83753	1.08815	2.92974	-25.9772	182.103	4.66663	0.321798
0.6093	-69.3913	-791.311	2.37411	-2.93168	-0.127441	1.98933	-8.58102	60.6861	5.58616	0
0.6100	-68.4617	-372.287	6.64752	-1.1035	-0.127441	1.41062	25.3023	-59.8899	8.32178	0
0.6107	-43.1313	297.268	23.4444	-0.790565	0.784251	1.41062	60.7007	-45.5588	10.4597	0
0.6113	-22.6811	578.957	65.8223	-2.32228	2.00964	-0.144679	68.6343	13.9773	10.4597	0
0.6120	-7.7153	491.025	94.8458	-3.83753	2.92133	0.180848	66.1964	21.8948	9.24131	0
0.6127	-0.697166	411.375	53.3582	-3.83753	3.52913	1.98933	69.2404	-17.162	9.24131	0
0.6133	2.9281	373.55	-25.403	-2.93168	4.13692	4.12334	60.3977	-66.3036	12.8965	0
0.6140	6.59984	309.198	-89.2073	-2.32228	4.13692	5.35311	37.2028	-74.8403	15.6551	0
0.6147	1.11547	235.302	-124.285	-2.00935	3.52913	3.2191	-10.0961	-73.6018	15.6551	0
0.6153	-0.0929555	166.95	-90.9879	-0.477633	1.69594	0.470205	-92.2011	-90.7196	15.9539	0
0.6160	-9.85328	82.1066	-12.5828	0.428223	-0.127441	-1.04892	-173.37	-67.8074	17.1723	0
0.6167	-25.7487	-13.6844	43.8617	1.03762	0.176456	1.41062	-198.396	-26.9372	16.5746	0
0.6173	-14.7799	-66.5274	47.2449	-0.477633	1.39205	4.12334	-169.706	-62.0131	12.8965	0
0.6180	3.25344	-70.1766	5.69787	-4.15047	0.784251	3.54463	-135.533	-96.2043	8.32178	0
0.6187	11.2011	-45.1235	-68.137	-6.29158	1.08815	4.12334	-105.011	-63.5612	4.36778	0
0.6193	10.8758	-10.6668	-165.476	-6.29158	2.61744	4.44887	-69.9153	-67.1882	0.0919533	0
0.6200	-6.22802	0	-225.6	-4.75986	4.75452	5.06375	-32.382	-95.5851	-0.82758	0
0.6207	-30.0246	-12.4914	-176.159	-2.93168	5.66621	5.96799	2.71342	-84.3059	1.60918	0
0.6213	-35.509	-13.6844	-66.8906	-2.93168	4.75452	2.92974	36.5829	-60.1996	-0.229883	-0.321798
0.6220	-24.5402	-7.29836	3.91729	-3.54107	3.52913	0.795732	78.7029	-40.3395	-5.72409	-0.321798
0.6227	-18.7305	6.45624	50.5686	-2.93168	4.13692	2.31486	125.093	-19.5947	-8.75855	0
0.6233	-19.9389	33.2637	78.049	-1.39996	7.1955	5.35311	175.449	57.0149	-6.94248	0
0.6240	-23.0065	20.4916	58.5219	-1.39996	7.80329	5.06375	200.159	175.424	-5.40226	-0.321798
0.6247	-26.6782	-20.7021	13.3544	-2.32228	5.97011	2.60421	186.73	168.081	-5.72409	0
0.6253	-21.4727	-12.7721	-59.2935	-2.00935	6.27401	3.54463	166.896	18.2235	-4.80456	0
0.6260	-8.9702	25.053	-185.596	-0.181171	9.33258	6.58288	132.104	-96.5139	-4.80456	0
0.6267	0.790121	22.8776	-303.708	2.8658	11.4697	9.33177	92.1323	-92.8427	-4.48272	0
0.6273	5.06607	-16.4213	-305.845	3.78812	9.94038	7.81264	75.0391	-62.9419	-4.18388	0
0.6280	9.34202	-30.8075	-196.28	2.8658	6.58771	3.83398	65.2736	-78.5116	-4.80456	0
0.6287	6.59984	-9.75454	-6.46946	1.64701	4.75452	2.31486	50.3153	-87.9772	-6.94248	0
0.6293	-8.64486	4.00006	205.895	1.35055	3.22523	0.795732	38.1118	-60.7746	-5.10341	0
0.6300	-17.801	4.91236	310.89	2.56934	1.39205	0.795732	36.5829	-33.6162	2.52872	0
0.6307	-21.7981	7.92995	277	2.2564	0.480354	0.470205	36.5829	-16.2331	4.04595	-0.321798
0.6313	-29.6993	4.91236	177.524	-0.477633	0.176456	-2.89357	26.5144	8.18289	-2.66665	0
0.6320	-34.5794	-10.0352	87.8422	-0.477633	-0.745038	-4.4127	17.0518	25.8756	-4.48272	0
0.6327	-36.1132	1.26318	31.6944	1.35055	-2.26452	-5.64247	13.4018	30.7411	-2.04596	0.321798
0.6333	-31.233	39.3691	13.3544	2.56934	-3.18602	-5.64247	12.479	31.67	-1.44826	0
0.6340	-22.4023	43.0884	22.4947	3.17873	-3.79381	-5.31694	9.73801	20.7005	0.0919533	0
0.6347	-17.801	24.1407	23.4444	3.17873	-5.0094	-7.16159	1.80435	2.38852	4.04595	0
0.6353	-13.2462	14.9476	11.5144	3.17873	-5.627	-8.68072	-0.950385	-22.0275	8.62062	-0.321798
0.6360	-8.36599	8.28083	2.07735	4.39752	-7.76408	-12.0445	5.15136	-58.0322	10.4597	-1.60899
0.6367	-3.16049	8.56154	2.67088	6.53863	-9.58747	-12.0445	10.344	-69.9306	11.9769	-1.28719
0.6373	2.64923	6.10536	5.10434	7.14802	-9.90117	-8.06583	12.176	-58.9611	12.8965	0
0.6380	5.39142	-12.7721	-4.33276	5.6163	-11.1168	-8.35519	8.81517	-65.6843	11.3792	0
0.6387	6.59984	-26.5267	-14.7195	5.92924	-10.509	-9.58496	-0.647364	-82.4482	11.6781	-0.321798
0.6393	6.32097	-19.5091	-12.5828	8.9762	-8.37188	-8.97007	-6.74911	-86.7387	13.816	0
0.6400	4.78721	-4.84218	-10.4461	11.4138	-5.627	-8.68072	-6.44609	-62.6323	12.8965	0.321798
0.6407	3.85765	3.08777	-13.4731	12.0232	-2.26452	-7.45095	-4.31117	-24.1948	6.48271	0
0.6413	2.9281	2.73689	-15.313	8.36681	1.08815	-6.54671	0.578495	-7.38672	-4.80456	0
0.6420	3.25344	1.26318	-15.313	2.2564	4.45062	-5.02758	2.10738	-6.14823	-15.793	0
0.6427	5.67028	-2.73689	-13.1763	-0.477633	6.27401	-2.56805	-7.05213	-15.3042	-20.9654	0
0.6433	7.20405	-15.509	-10.1493	-1.71289	6.58771	-0.144679	-13.4569	-52.5475	-21.2872	0
0.6440	5.67028	-25.8952	-8.90292	-3.54107	5.66621	-0.759563	-16.2116	-84.6156	-19.4481	0
0.6447	2.32389	-21.6144	-8.60616	-3.22814	3.52913	-2.89357	-22.9194	-62.9419	-16.6895	0
0.6453	-1.95206	-11.8598	-7.4191	-1.71289	2.31354	-3.79781	-25.9772	-26.0083	-13.6551	0
0.6460	-5.62381	-6.38607	1.48382	-1.39996	1.39205	-2.27869	-23.2225	-12.8715	-10.2988	-0.321798
0.6467	-6.83223	-3.01759	-13.4731	-2.32228	-0.127441	-0.759563	-17.7268	3.00777	-6.62064	0
0.6473	-9.85328	0.912295	-76.9806	-2.00935	-1.35283	-1.04892	-14.6828	47.8589	-4.18388	0
0.6480	-16.2672	7.01766	-121.198	-0.790565	-1.96063	-1.95316	-15.2888	83.2444	-1.12643	0
0.6487	-21.7981	11.0177	-121.851	-0.477633	-1.96063	-3.79781	-18.3466	51.2205	2.52872	0
0.6493	-24.5402	11.93	-112.058	0.131761	-1.96063	-5.64247	-21.3906	2.69814	2.82756	0
0.6500	-20.2643	13.7546	-63.5669	1.95994	-2.88212	-5.31694	-17.4237	4.82127	1.60918	0
0.6507	-13.8504	14.0353	51.2215	2.56934	-4.7055	-5.31694	-12.8509	11.5445	-1.12643	0
0.6513	-12.6419	14.6669	153.13	1.64701	-6.23479	-7.16159	-11.928	-3.09623	-7.83902	0
0.6520	-14.1292	14.3862	146.127	-0.477633	-6.84259	-7.16159	-5.52325	-11.9868	-12.4367	0
0.6527	-11.7124	10.3861	72.2324	-0.181171	-5.0094	-5.02758	8.81517	-15.3042	-11.5172	0
0.6533	-7.7153	8.28083	25.2843	2.8658	-2.56842	-2.89357	22.5475	-16.5427	-8.16086	0
0.6540	-7.43644	7.01766	17.0343	2.8658	-0.745038	-2.27869	25.6053	-17.4716	-6.02294	0
0.6547	-6.50688	5.54395	28.3113	0.741154	1.39205	-0.434036	22.8506	-18.0908	-6.02294	0
0.6553	-3.48583	6.73695	43.565	-1.1035	3.52913	1.98933	23.4704	-15.0388	-7.54017	0.321798
0.6560	-1.02251	5.19307	45.1081	-2.93168	3.52913	1.69997	21.9415	-12.5618	-9.08039	0
0.6567	1.39433	4.91236	37.1549	-3.22814	3.22523	3.54463	16.7488	-10.7483	-7.54017	-0.321798
0.6573	0.790121	6.10536	29.8545	-2.32228	2.92133	5.06375	6.98327	-10.1291	-3.88503	0
0.6580	-2.55628	2.73689	21.0109	-2.00935	0.480354	1.41062	-6.44609	-11.6772	-0.82758	0
0.6587	-3.16049	0.631589	13.9479	-1.71289	-1.65673	-0.434036	-13.1539	-11.6772	2.82756	0.321798
0.6593	-3.48583	2.17547	11.2177	-1.71289	-2.26452	0.180848	-20.7845	-11.6772	4.04595	0
0.6600	-4.09004	4.28077	9.67451	-1.71289	-2.88212	0.795732	-32.0789	-11.058	4.66663	0
0.6607	-2.55628	6.45624	7.53781	-0.790565	-3.48992	-0.144679	-38.7867	-9.20023	4.36778	0
0.6613	-2.55628	5.54395	5.10434	0.428223	-5.3231	-3.47229	-36.9548	-9.50985	0.390802	0
0.6620	-3.48583	4.63165	5.10434	1.03762	-5.9309	-4.4127	-21.3906	-8.62521	1.31033	0
0.6627	-2.55628	5.54395	4.80758	1.35055	-5.9309	-4.4127	-7.05213	-7.38672	5.26433	0
0.6633	-0.0929555	7.92995	3.62052	2.8658	-6.23479	-4.70205	1.18454	-6.14823	7.40224	0
0.6640	-2.23093	8.56154	2.67088	4.71045	-5.9309	-4.70205	11.2531	-2.52122	8.94246	0
0.6647	-10.1786	7.64925	0.237411	5.92924	-5.9309	-6.22118	15.5367	1.76927	8.32178	0
0.6653	-17.5221	7.36854	-1.30576	7.14802	-5.9309	-6.83606	12.782	5.1309	7.72408	0
0.6660	-30.9542	7.01766	-0.652881	7.75742	-5.0094	-5.93182	10.041	7.25403	9.24131	0
0.6667	-32.4415	7.01766	-1.30576	6.2257	-3.48992	-3.47229	7.60308	7.87327	7.40224	-0.321798
0.6673	-0.697166	8.28083	-2.49282	3.17873	-2.88212	0.180848	1.80435	7.87327	1.90803	-0.321798
0.6680	37.4146	8.28083	-4.92628	-1.1035	-3.18602	1.41062	-1.55643	5.44052	-3.26434	-0.321798
0.6687	60.607	6.73695	-7.71587	-3.54107	-3.48992	1.98933	0.275474	2.0789	-5.72409	-0.321798
0.6693	71.6222	5.19307	-8.60616	-2.93168	-3.79381	1.69997	-1.25341	0.221159	-5.40226	0
0.6700	78.6403	5.19307	-7.06299	-1.1035	-5.0094	-0.434036	-5.82628	-0.663478	-2.3678	0
0.6707	90.2133	6.45624	-4.62952	0.741154	-5.3231	-1.04892	-7.9612	-0.0442319	5.26433	-0.321798
0.6713	84.4036	8.28083	-2.49282	2.2564	-4.7055	-2.27869	-12.8509	-0.0442319	11.3792	0
0.6720	65.2083	9.47384	-1.89929	3.47519	-5.3231	-5.31694	-12.8509	-3.09623	11.3792	-0.321798
0.6727	20.6361	12.2107	-2.19605	3.78812	-7.14648	-7.16159	0.275474	-6.14823	8.94246	-1.60899
0.6733	-80.36	16.8424	-1.30576	3.78812	-7.14648	-6.83606	16.4458	-9.20023	6.18386	-0.965395
0.6740	-177.406	21.053	-0.0593528	2.8658	-5.9309	-5.31694	27.4372	-14.4196	5.26433	0
0.6747	-233.551	19.86	-2.49282	2.8658	-6.23479	-5.93182	20.7156	-22.3371	7.10339	0
0.6753	-235.689	15.5792	-8.01263	3.78812	-6.23479	-5.93182	8.51215	-28.1315	8.94246	0
0.6760	-149.054	14.9476	-11.6925	4.39752	-6.53869	-5.93182	16.4458	-31.8027	9.54016	-0.321798
0.6767	-40.9934	12.8423	-15.0163	4.39752	-7.76408	-8.06583	21.6385	-34.2355	10.4597	-0.321798
0.6773	-3.48583	10.3861	-13.4731	6.2257	-6.84259	-7.16159	-4.31117	-30.5642	12.2988	-0.321798
0.6780	-25.7487	12.5616	-5.2824	7.44448	-4.09771	-3.79781	-50.3842	-26.0083	11.3792	0
0.6787	-54.1466	14.9476	0.534175	4.39752	-1.96063	-3.79781	-100.741	-28.4411	3.7471	0
0.6793	-62.9773	22.5969	6.94428	0.741154	0.480354	-1.6638	-142.861	-31.4931	-3.26434	0
0.6800	-51.3579	32.983	16.7375	-0.477633	2.00964	0.470205	-173.067	-32.1123	-6.02294	0
0.6807	-97.4638	36.3515	20.0613	-2.61875	0.784251	-1.33828	-192.598	-33.3508	-12.4367	-0.321798
0.6813	-228.67	37.2638	20.358	-5.66571	0.480354	-0.434036	-172.157	-31.4931	-20.0458	-0.321798
0.6820	-271.709	37.2638	18.5181	-7.80683	0.480354	2.60421	-130.947	-29.0603	-24.0228	0
0.6827	-157.885	31.4391	12.108	-9.94794	-0.431338	3.2191	-109.9	-25.6987	-27.678	-0.321798
0.6833	-28.1655	21.053	5.10434	-11.1667	0.480354	4.44887	-79.9839	-11.6772	-31.3561	0
0.6840	22.7741	10.3861	-0.356117	-10.2444	1.08815	4.12334	-27.8091	6.05977	-33.494	0.321798
0.6847	-9.85328	3.08777	-3.73923	-7.80683	1.69594	1.08509	27.7402	15.7908	-33.494	0
0.6853	-63.3027	2.73689	-3.1457	-4.75986	3.52913	1.08509	65.2736	22.2044	-30.4366	0
0.6860	-79.7558	3.71936	-1.89929	-3.83753	2.92133	1.69997	75.6452	27.3795	-28.2986	0.321798
0.6867	-95.0005	5.54395	-1.60253	-4.44693	1.69594	0.470205	85.4107	25.566	-26.1607	0.321798
0.6873	-40.0638	9.82472	0.83094	-2.61875	1.69594	1.69997	109.831	17.0293	-20.0458	0
0.6880	129.58	12.2107	0.83094	1.03762	2.31354	3.83398	118.371	8.18289	-13.6551	-0.321798
0.6887	288.301	10.737	-3.1457	3.47519	2.31354	2.92974	104.639	2.69814	-9.67809	-0.321798
0.6893	451.531	7.01766	-7.4191	5.31984	2.00964	0.470205	111.057	-1.59235	-7.54017	-0.321798
0.6900	638.929	2.45618	-11.0396	6.2257	2.31354	-0.434036	130.272	-4.33472	-6.32179	0
0.6907	737.183	0.912295	-13.1763	6.2257	3.22523	-1.04892	131.194	-8.31559	-4.80456	0
0.6913	657.567	1.54388	-13.8292	6.53863	2.61744	-4.08717	119.597	-13.8003	-2.04596	0
0.6920	363.642	5.19307	-10.4461	7.14802	0.480354	-4.70205	70.4662	-16.2331	0.390802	0
0.6927	39.8779	11.6493	-4.03599	7.44448	-0.745038	-4.4127	-2.47927	-10.4387	4.04595	0.321798
0.6933	-130.417	15.2985	-1.89929	8.36681	-1.96063	-6.54671	-36.6518	-3.09623	9.24131	0
0.6940	-234.805	17.4038	-1.60253	10.195	-2.88212	-7.45095	-48.8553	-3.71548	16.8734	-0.321798
0.6947	-316.281	22.8776	6.05399	11.7267	-2.88212	-6.83606	-61.0726	-15.0388	24.5056	0
0.6953	-286.954	27.7899	16.0846	12.6326	-3.48992	-8.68072	-48.5523	-25.3891	29.0802	-0.321798
0.6960	-152.679	28.4215	19.4677	13.8514	-4.09771	-11.1041	-24.1453	-30.5642	31.517	-1.60899
0.6967	-65.7195	29.9654	20.358	15.9925	-3.79381	-11.4296	-17.7268	-41.578	32.7354	-1.28719
0.6973	-55.355	32.983	22.4947	16.3054	-2.88212	-10.1998	-12.2448	-51.6186	33.9538	0
0.6980	74.6432	30.5268	22.198	14.1643	-1.65673	-8.97007	10.9501	-51.0436	33.0342	0
0.6987	270.593	25.053	21.6044	11.4138	-0.431338	-7.45095	-9.49008	-48.3012	27.2412	0
0.6993	277.286	21.9653	24.3347	9.27267	2.00964	-3.79781	-85.7826	-41.2683	20.5286	0
0.7000	78.315	19.86	29.5577	7.14802	4.13692	-0.434036	-120.878	-25.3891	18.6895	0.321798
0.7007	-174.989	18.3161	32.2879	4.39752	5.97011	-1.04892	-100.135	-10.4387	17.793	0
0.7013	-301.315	14.3862	25.5811	1.35055	8.41109	-2.27869	-69.3093	1.15003	12.8965	0
0.7020	-245.449	3.71936	15.1943	0.428223	10.5482	-2.27869	-39.7096	13.0484	9.54016	0.321798
0.7027	-98.6722	-9.40366	6.35075	2.8658	9.63648	-2.56805	-16.5147	21.5851	8.94246	0
0.7033	128.697	-15.509	1.78058	5.6163	9.94038	-1.04892	-6.74911	25.566	11.0804	0
0.7040	315.444	-17.4038	0.237411	6.83509	11.7736	-1.6638	-21.6936	35.0316	15.9539	0
0.7047	311.773	-20.7021	-1.009	6.53863	12.0775	-2.89357	-40.3156	55.7764	19.609	0
0.7053	179.962	-23.1583	-1.30576	4.71045	11.156	0.470205	-20.1785	79.8828	21.1493	0
0.7060	28.8627	-24.0706	0.237411	1.03762	9.94038	2.31486	23.4704	90.2772	20.8274	0
0.7067	17.5686	-20.7021	4.21405	-2.32228	10.5482	3.54463	56.7339	82.3155	19.609	0
0.7073	171.085	-14.9476	7.83457	-3.54107	12.3814	9.62113	82.9728	65.242	19.0114	-0.321798
0.7080	247.401	-13.4037	4.21405	-3.54107	11.4697	10.8509	99.4599	41.1356	18.0918	0
0.7087	118.007	-14.316	-1.89929	-3.22814	8.71499	6.29352	112.889	16.7196	15.0344	0
0.7093	-39.1807	-11.2984	-3.1457	-2.32228	7.80329	4.44887	121.732	0.530782	13.2183	0
0.7100	-100.206	-9.12295	-3.73923	-1.71289	6.8916	3.54463	91.5262	-3.71548	11.9769	0
0.7107	-153.005	-10.0352	-5.57917	-3.22814	6.58771	5.35311	50.0123	4.20203	4.36778	-0.321798
0.7113	-230.204	-9.75454	-4.33276	-4.44693	5.66621	8.102	42.0787	10.6156	-2.96549	-0.321798
0.7120	-327.854	-9.40366	-4.33276	-3.22814	3.22523	5.06375	45.4394	4.82127	2.22987	0
0.7127	-370.892	-5.75448	-3.1457	-1.1035	2.31354	1.69997	40.8666	-6.14823	14.1148	0
0.7133	-217.376	1.82459	6.35075	1.64701	4.13692	2.31486	44.5304	-10.1291	25.4251	0
0.7140	99.3694	6.10536	15.7879	4.71045	5.97011	0.795732	37.2028	-5.57322	36.0917	-0.321798
0.7147	367.314	13.123	25.2843	7.14802	6.27401	-0.144679	7.28629	-5.26359	43.7238	-0.321798
0.7153	383.488	29.3338	42.0218	8.36681	6.58771	1.69997	-10.4129	-16.2331	45.5629	0
0.7160	229.368	39.0883	53.9517	8.66327	6.58771	1.98933	-18.3466	-24.1948	42.2066	0
0.7167	104.854	35.4392	53.9517	8.36681	5.97011	1.41062	-36.9548	-20.5236	41.287	0
0.7173	60.3281	22.5969	45.9984	8.36681	4.75452	1.69997	-52.5191	-8.93484	45.241	-0.321798
0.7180	34.9977	2.17547	29.5577	8.36681	2.00964	0.795732	-53.442	14.5965	48.5973	-0.321798
0.7187	4.78721	-19.2284	9.08098	9.27267	-1.35283	-1.04892	-44.2824	35.3413	51.9536	0
0.7193	56.0521	-33.8251	-7.71587	9.27267	-4.7055	-1.33828	-30.247	41.7549	53.195	0
0.7200	179.636	-42.3866	-15.9659	6.83509	-5.9309	-0.434036	-15.8948	49.3628	43.7238	0
0.7207	260.833	-48.2113	-17.4497	3.47519	-5.9309	0.180848	-7.9612	68.9132	30.2986	0
0.7213	211.706	-55.7904	-19.8832	2.2564	-6.23479	-0.434036	-8.27799	99.4332	28.1607	0
0.7220	31.0006	-59.5097	-19.8832	3.17873	-6.53869	0.180848	-5.22023	132.696	36.0917	0
0.7227	-145.382	-56.7728	-18.1026	3.47519	-6.84259	2.60421	10.041	147.027	37.6319	0
0.7233	-177.731	-50.3166	-15.9659	1.35055	-6.23479	2.92974	21.6385	131.457	27.8619	0
0.7240	-110.292	-40.5621	-10.7429	-3.22814	-4.40161	3.2191	22.5475	102.176	15.3332	0
0.7247	-82.8233	-31.4391	-5.57917	-7.19743	-3.48992	3.83398	30.1782	76.5211	2.52872	0
0.7253	-117.31	-26.246	-0.652881	-8.41622	-4.09771	2.60421	28.6493	59.4476	-6.02294	0
0.7260	-153.609	-20.4214	6.35075	-9.02561	-5.0094	0.795732	5.45439	47.2396	-8.45971	-1.28719
0.7267	-139.898	-15.2283	8.48745	-9.33855	-5.0094	0.180848	-8.27799	35.9605	-8.75855	-1.60899
0.7273	-35.1836	-15.2283	3.62052	-8.11976	-4.09771	1.98933	-6.74911	31.0508	-9.67809	-0.321798
0.7280	60.9323	-15.2283	-0.0593528	-8.72915	-2.88212	3.83398	-4.31117	27.1141	-11.5172	0.321798
0.7287	46.2918	-14.9476	-2.19605	-11.1667	-1.65673	4.44887	-3.38833	16.7196	-16.3907	0
0.7293	-40.3891	-12.4914	-2.78958	-12.6984	-1.35283	5.35311	-2.47927	3.00777	-21.586	0
0.7300	-155.747	-3.64918	1.1277	-12.0891	-1.35283	6.58288	-2.16247	-12.8715	-20.6665	0
0.7307	-268.967	3.71936	5.69787	-10.2444	-3.48992	4.73822	-3.69135	-27.8218	-13.0344	0.321798
0.7313	-355.043	7.92995	10.6242	-9.02561	-5.627	1.98933	-5.82628	-41.578	-6.02294	0.321798
0.7320	-331.851	11.93	15.4911	-8.11976	-6.53869	1.98933	-5.52325	-53.7859	-5.72409	0
0.7327	-198.785	9.47384	13.0576	-6.29158	-8.06798	1.08509	-7.35516	-57.1476	-5.72409	0
0.7333	-59.3056	4.63165	8.48745	-4.44693	-8.67577	1.69997	-8.58102	-48.3012	-2.04596	0
0.7340	-17.801	3.71936	8.19069	-3.54107	-8.37188	2.60421	-7.05213	-38.8356	0.0919533	0
0.7347	-127.07	2.45618	7.24104	-2.93168	-8.97967	-0.759563	-11.322	-30.8738	-2.04596	0
0.7353	-187.77	2.17547	7.83457	-1.1035	-8.97967	-2.56805	-14.3797	-21.1428	-3.26434	0
0.7360	-39.7849	1.26318	9.97127	1.95994	-7.45038	-1.95316	-11.625	-11.9868	-0.82758	0
0.7367	164.996	-5.19307	7.24104	2.56934	-4.7055	-1.04892	-7.65818	3.27316	-1.12643	0
0.7373	291.322	-10.6668	4.21405	-1.1035	-1.04894	3.83398	-2.78229	26.8045	-6.62064	0
0.7380	369.777	-12.7721	3.91729	-5.36925	2.00964	7.81264	-2.16247	39.8971	-10.8965	0.321798
0.7387	410.956	-19.7898	0.237411	-6.90097	2.31354	6.87223	-6.1293	43.5684	-11.1953	0.321798
0.7393	382.279	-26.246	-4.03599	-6.58804	1.39205	5.96799	-7.65818	48.1685	-10.2988	-0.321798
0.7400	282.166	-24.7022	-4.62952	-7.51037	0.176456	5.67863	-7.9612	40.5164	-10.5976	0
0.7407	147.613	-18.5968	-4.33276	-7.80683	-0.127441	6.87223	-6.74911	23.1333	-12.7355	0.321798
0.7413	6.32097	-11.2984	-5.2824	-7.80683	0.176456	9.62113	-4.91721	6.63478	-17.3102	0.321798
0.7420	-90.1203	-6.66677	-8.3094	-9.02561	-0.431338	8.102	-5.52325	-17.7812	-20.0458	0
0.7427	-148.403	-7.29836	-13.1763	-9.94794	-1.65673	6.58288	-5.82628	-38.8356	-16.6895	0
0.7433	-166.437	-13.123	-18.9929	-8.41622	-2.88212	5.96799	-5.82628	-39.1452	-9.37924	0
0.7440	-29.0951	-18.3161	-22.6728	-6.90097	-3.79381	4.73822	-5.82628	-33.3508	-2.04596	0
0.7447	197.019	-17.4038	-18.6961	-6.29158	-3.79381	5.67863	-3.69135	-28.7507	1.90803	0
0.7453	353.881	-12.4914	-9.55581	-5.66571	-4.09771	5.67863	-2.78229	-18.0908	-0.82758	0
0.7460	307.822	-7.57907	-2.49282	-4.44693	-5.0094	2.60421	-6.44609	-8.00597	-2.04596	-0.321798
0.7467	34.0682	-3.01759	3.91729	-2.93168	-6.53869	1.69997	-7.65818	-8.31559	2.82756	0
0.7473	-246.1	-0.561413	6.64752	-2.32228	-7.76408	0.795732	-7.05213	-20.8332	6.18386	0
0.7480	-385.254	-1.82459	3.26441	-1.71289	-8.37188	-1.95316	-7.65818	-28.4411	6.80455	0
0.7487	-410.863	-0.912295	5.10434	-0.181171	-7.76408	-0.434036	-3.08531	-8.62521	6.48271	0
0.7493	-389.809	3.71936	11.5144	1.03762	-7.76408	0.470205	-0.647364	18.8428	4.04595	-0.321798
0.7500	-378.84	9.19313	17.331	1.64701	-9.58747	-2.27869	-3.99437	23.4429	3.7471	-0.321798
0.7507	-387.671	12.5616	23.1476	3.17873	-10.2051	-1.95316	-3.69135	20.7005	9.54016	0
0.7513	-350.767	10.3861	24.3347	3.47519	-9.90117	-2.27869	-4.61419	14.9061	15.3332	0
0.7520	-211.613	8.28083	23.1476	3.47519	-10.2051	-3.47229	-8.88404	-2.21159	18.3907	-0.321798
0.7527	-32.4415	10.1054	22.7915	3.78812	-9.58747	-0.434036	-6.1293	-11.3676	18.0918	0
0.7533	86.8669	7.01766	17.9246	2.8658	-9.58747	-0.759563	-4.91721	-7.38672	14.7355	0
0.7540	131.718	0	12.108	2.8658	-10.2051	-4.08717	-8.27799	3.58278	15.0344	-0.321798
0.7547	175.686	-6.38607	11.2177	3.78812	-9.58747	-3.47229	-5.82628	25.8756	12.8965	0
0.7553	224.813	-15.8599	6.35075	1.03762	-10.2051	-4.70205	-3.38833	45.4261	-2.04596	-0.321798
0.7560	187.584	-21.6144	-0.356117	-2.00935	-10.509	-5.64247	-1.85945	48.4781	-12.7355	-1.28719
0.7567	99.6947	-22.246	-3.44246	-1.39996	-9.28357	-1.95316	3.01644	46.6204	-12.7355	-0.965395
0.7573	55.1226	-22.8776	-9.19969	-2.32228	-10.509	-1.04892	2.4104	33.2181	-18.2297	0
0.7580	47.5002	-20.7021	-16.2627	-4.75986	-12.0284	-3.18293	-1.85945	4.20203	-26.7814	0
0.7587	111.872	-20.7021	-22.0199	-5.36925	-12.646	-3.47229	-2.78229	-13.8003	-25.54	-0.321798
0.7593	251.352	-25.6144	-27.2429	-4.75986	-13.8616	-3.47229	-3.99437	-17.7812	-21.2872	0
0.7600	382.605	-24.7022	-25.1062	-3.83753	-13.2538	-1.6638	-2.16247	-20.214	-17.0114	0
0.7607	436.612	-18.5968	-18.9929	-2.93168	-10.509	-0.144679	-0.0275474	-25.6987	-10.8965	0
0.7613	420.438	-14.0353	-15.313	-2.61875	-9.58747	-2.89357	-3.08531	-36.6682	-7.54017	0
0.7620	393.852	-6.38607	-10.1493	-2.32228	-8.67577	-3.79781	-4.61419	-44.9396	-7.24132	-0.321798
0.7627	309.03	3.36847	-2.19605	-2.32228	-7.45038	-2.89357	-5.82628	-49.8051	-8.16086	0
0.7633	161.928	12.8423	5.40111	-1.71289	-6.53869	-2.27869	-8.58102	-57.7226	-10.5976	0
0.7640	-71.5292	24.1407	15.4911	-0.790565	-4.7055	0.795732	-9.49008	-70.5498	-13.0344	0
0.7647	-408.725	32.7023	21.9012	-1.1035	-3.48992	0.795732	-9.49008	-83.0674	-16.0918	0
0.7653	-521.341	34.8076	23.4444	-2.32228	-3.48992	-1.6638	-1.85945	-92.2234	-17.3102	0
0.7660	-393.155	35.0883	22.7915	-2.00935	-3.79381	-1.95316	10.9501	-98.3274	-16.0918	0
0.7667	-291.555	33.8953	19.171	-1.71289	-4.09771	-1.33828	16.7488	-102.928	-16.3907	0
0.7673	-118.518	29.9654	17.0343	-2.00935	-4.09771	-1.04892	22.5475	-94.6562	-17.0114	-0.321798
0.7680	-15.663	19.5793	13.9479	-2.00935	-4.7055	0.795732	28.0433	-72.0979	-15.793	0
0.7687	-113.917	4.91236	7.53781	-2.61875	-6.23479	-0.759563	25.3023	-51.6186	-15.1723	-0.321798
0.7693	-102.344	-3.92989	4.51081	-2.93168	-5.0094	-3.47229	16.7488	-33.3508	-13.9539	-0.965395
0.7700	11.8053	-5.47377	4.21405	-1.71289	-3.79381	-2.56805	6.98327	-18.6658	-11.816	0
0.7707	24.3079	-1.47371	6.05399	-2.00935	-2.88212	-1.04892	4.84834	-13.8003	-11.5172	0
0.7713	-22.0769	7.36854	16.3814	-0.790565	-0.127441	0.180848	10.041	-10.7483	-8.45971	-0.321798
0.7720	-79.1516	11.6493	24.9282	1.95994	1.08815	-0.144679	9.43498	-4.33472	-2.96549	0
0.7727	-103.552	6.45624	22.7915	2.8658	-0.127441	-1.33828	1.48756	5.1309	-0.229883	0
0.7733	-57.493	-1.193	17.9246	2.2564	-0.745038	-2.27869	-6.44609	13.358	-0.229883	0
0.7740	33.7428	-8.49136	10.6242	1.95994	-1.35283	-2.56805	-21.3906	16.1004	-2.04596	0
0.7747	168.063	-16.1406	-1.30576	2.8658	-1.65673	-1.04892	-47.3402	24.0621	-4.18388	-0.321798
0.7753	301.083	-23.1583	-12.5828	4.08458	-1.96063	-0.144679	-60.1497	39.3221	-3.88503	0
0.7760	393.248	-33.5444	-22.0199	4.39752	-3.79381	-1.33828	-56.789	50.9109	-3.26434	0.321798
0.7767	389.902	-44.8428	-28.7861	3.47519	-5.627	-2.89357	-52.5191	63.4285	-0.82758	0.321798
0.7773	262.041	-50.6675	-29.0829	3.78812	-6.53869	-4.08717	-43.6764	74.7076	3.12641	0
0.7780	118.611	-49.4043	-25.6998	3.78812	-6.84259	-5.02758	-32.685	75.6365	5.58616	0
0.7787	-4.36891	-40.8428	-17.4497	3.78812	-6.53869	-2.56805	-23.8423	68.294	8.02293	0
0.7793	-108.758	-28.0706	-7.71587	4.08458	-6.23479	-0.434036	-15.8948	53.9629	10.4597	0
0.7800	-149.937	-17.6845	-1.89929	3.47519	-6.53869	-1.6638	-12.2448	39.8971	10.4597	-0.321798
0.7807	-167.041	-8.84225	3.62052	3.17873	-6.84259	-2.27869	-9.7931	30.1661	9.54016	-0.321798
0.7813	-155.422	-2.386	8.48745	2.2564	-7.45038	-3.79781	-6.74911	20.7005	10.4597	0
0.7820	-125.211	0.350883	10.6242	1.35055	-7.45038	-4.08717	-3.99437	14.2869	12.2988	0.321798
0.7827	-139.898	3.36847	13.3544	3.17873	-6.23479	-1.33828	2.71342	13.0484	14.7355	0
0.7833	-133.159	3.36847	13.9479	4.08458	-5.627	-0.759563	8.81517	12.7388	12.5976	0
0.7840	-137.156	-2.1053	8.78422	1.95994	-6.53869	-1.95316	8.51215	9.68678	6.18386	-0.643597
0.7847	-234.201	-8.84225	1.1277	0.428223	-7.14648	-2.89357	4.54532	3.8924	8.94246	-0.321798
0.7853	-297.365	-11.5791	-4.33276	-0.477633	-8.37188	-5.02758	0.578495	-3.09623	13.5171	0.321798
0.7860	-228.392	-8.21066	-3.73923	-1.71289	-8.37188	-5.31694	0.578495	-4.64435	5.58616	-0.965395
0.7867	-111.5	-5.75448	-1.009	-0.477633	-7.45038	-1.95316	3.01644	2.38852	-2.3678	-1.28719
0.7873	-46.4777	-7.29836	-0.356117	1.03762	-7.14648	-1.33828	0.881517	5.44052	-2.66665	0
0.7880	-23.8896	-7.01766	2.37411	0.131761	-7.14648	-2.56805	-2.78229	4.20203	-1.12643	0.321798
0.7887	-14.7799	-6.38607	5.40111	-0.181171	-7.45038	-3.79781	-3.38833	7.87327	-2.04596	-0.321798
0.7893	-28.1655	-7.57907	4.51081	1.03762	-7.45038	-3.18293	-2.78229	13.358	-5.10341	0
0.7900	-30.3035	-7.29836	3.26441	1.64701	-6.53869	-0.434036	0.275474	15.1715	-2.04596	-0.321798
0.7907	-1.62672	-6.66677	2.37411	2.2564	-6.23479	-0.144679	1.48756	10.6156	4.96548	0
0.7913	16.3602	-7.92995	-1.009	2.8658	-6.84259	-1.95316	-1.25341	-2.52122	7.40224	0
0.7920	25.5163	-7.57907	-4.33276	2.8658	-7.76408	-3.79781	-3.69135	-20.214	5.88501	0
0.7927	54.5184	-5.75448	-5.87593	2.2564	-8.37188	-5.31694	-6.74911	-36.9778	4.66663	0
0.7933	58.469	0.350883	-3.1457	2.56934	-7.14648	-4.08717	-7.05213	-47.9916	6.48271	-0.321798
0.7940	59.3985	6.45624	1.1277	3.47519	-4.7055	-1.33828	-4.61419	-49.8051	6.80455	-0.321798
0.7947	111.593	4.28077	-0.652881	3.17873	-5.0094	-4.08717	-8.27799	-49.4955	2.52872	0
0.7953	110.663	2.73689	-2.19605	3.47519	-5.3231	-7.16159	-11.625	-53.7859	2.22987	0
0.7960	89.3302	4.91236	1.48382	4.71045	-4.09771	-7.16159	-10.4129	-57.1476	5.88501	0
0.7967	123.491	3.36847	2.96764	5.00691	-3.79381	-7.16159	-9.18706	-54.6706	5.26433	-0.321798
0.7973	163.462	4.00006	5.40111	5.92924	-2.26452	-4.70205	-5.82628	-45.5588	4.36778	0
0.7980	244.938	9.19313	10.3274	6.53863	-1.04894	-3.18293	-3.08531	-38.8356	5.88501	0.321798
0.7987	262.646	12.8423	13.3544	6.53863	-1.04894	-4.4127	-4.91721	-41.2683	6.80455	0
0.7993	168.947	14.0353	17.0343	6.53863	-1.04894	-5.02758	-6.1293	-34.8547	9.54016	-0.321798
0.8000	102.716	13.123	19.4677	5.6163	-0.745038	-5.64247	-6.1293	-13.4907	11.0804	0.321798
0.8007	58.1901	8.84225	18.2213	5.31984	0.176456	-4.4127	-3.99437	6.9444	9.24131	0.321798
0.8013	24.3079	3.08777	14.2447	5.92924	0.784251	-1.95316	-0.0275474	21.2755	8.32178	0.321798
0.8020	45.3623	-3.64918	6.94428	5.31984	-0.127441	-2.56805	0.881517	26.4949	6.18386	0.321798
0.8027	123.77	-11.2984	-1.89929	3.78812	-1.35283	-3.79781	-0.330569	20.0813	-2.96549	0
0.8033	174.431	-20.1407	-12.286	1.95994	-3.18602	-4.4127	-0.647364	12.4292	-10.2988	0
0.8040	110.663	-26.246	-19.8832	1.64701	-3.18602	-4.4127	-0.647364	9.9964	-9.08039	0
0.8047	-13.2462	-22.5267	-18.6961	1.64701	-0.431338	-1.95316	0.578495	10.6156	-7.54017	0.321798
0.8053	-102.948	-16.7722	-14.7195	0.131761	3.22523	0.795732	1.80435	9.9964	-9.97694	0.321798
0.8060	-137.76	-12.2107	-11.0396	-2.00935	5.05842	1.41062	0.578495	0.221159	-13.3332	0.321798
0.8067	-190.233	-5.19307	-4.62952	-2.93168	4.75452	1.08509	0.275474	-14.11	-14.8735	0
0.8073	-281.469	-0.912295	-0.356117	-3.83753	4.75452	1.08509	2.4104	-18.6658	-16.3907	0
0.8080	-313.213	0	0.83094	-3.83753	4.75452	1.08509	4.2423	-15.6138	-16.3907	0
0.8087	-250.376	3.08777	5.10434	-2.00935	5.66621	2.31486	5.45439	-14.7292	-12.1149	0.321798
0.8093	-81.5684	7.01766	9.97127	0.428223	6.27401	3.2191	6.0742	-19.5947	-6.32179	0.321798
0.8100	105.179	8.84225	13.3544	1.64701	5.36231	1.08509	4.2423	-26.0083	-3.58618	0
0.8107	128.046	8.28083	17.0343	2.8658	4.75452	-0.759563	0.881517	-23.5756	-2.3678	0
0.8113	43.8285	2.17547	16.3814	2.56934	4.45062	-1.04892	-1.55643	-14.4196	-3.26434	0
0.8120	8.1336	-3.2983	12.4641	1.03762	3.83303	0.180848	-2.47927	-5.57322	-5.10341	-0.321798
0.8127	17.2897	-5.47377	10.6242	0.428223	3.52913	2.60421	-0.330569	0.530782	-4.48272	0
0.8133	13.9433	-7.57907	7.83457	0.741154	3.83303	2.60421	0.275474	3.27316	-2.96549	0.321798
0.8140	-31.8372	-8.84225	5.40111	1.03762	4.45062	1.41062	-1.55643	3.58278	-3.58618	0.321798
0.8147	-96.5342	-11.8598	1.48382	-0.477633	4.45062	1.08509	-2.47927	5.1309	-4.80456	0
0.8153	-88.5866	-18.5968	-6.46946	-2.00935	3.22523	0.795732	-1.55643	5.1309	-5.72409	0.321798
0.8160	-15.9883	-21.9653	-11.6925	-2.32228	3.22523	1.69997	0.881517	1.45965	-5.72409	-0.321798
0.8167	24.9121	-22.8776	-13.1763	-1.1035	3.52913	1.69997	1.48756	2.69814	-4.80456	-1.60899
0.8173	56.9817	-24.9829	-15.6098	1.64701	3.22523	0.180848	-0.647364	8.49252	-2.66665	-0.643597
0.8180	116.148	-26.246	-14.4227	1.95994	2.00964	-0.434036	-2.78229	9.9964	-3.26434	0.321798
0.8187	127.442	-23.1583	-8.90292	-0.790565	1.69594	0.180848	-1.55643	8.49252	-6.94248	0
0.8193	47.8256	-16.1406	-4.62952	-1.39996	3.22523	1.41062	1.48756	3.8924	-8.45971	0
0.8200	-16.8714	-9.12295	-2.78958	-1.1035	4.45062	3.83398	4.84834	-5.57322	-7.83902	0.321798
0.8207	19.1023	-7.92995	-4.62952	-2.93168	4.45062	5.67863	7.28629	-11.3676	-9.08039	0
0.8213	84.4036	-11.5791	-10.4461	-5.05632	3.52913	4.44887	5.15136	-11.058	-11.5172	0
0.8220	104.25	-14.316	-15.0163	-6.29158	3.52913	3.2191	2.71342	-11.3676	-11.816	0
0.8227	71.901	-14.9476	-16.5594	-7.19743	3.22523	3.83398	2.10738	-13.4907	-11.816	0
0.8233	6.32097	-14.316	-15.313	-7.19743	4.13692	5.67863	2.10738	-11.3676	-11.5172	0
0.8240	-42.8525	-11.8598	-12.5828	-5.66571	5.36231	7.19776	4.54532	-5.26359	-10.8965	0
0.8247	-31.233	-12.4914	-11.0396	-5.05632	5.05842	5.96799	4.84834	-3.71548	-10.2988	0
0.8253	-16.2672	-17.0529	-10.7429	-5.66571	4.75452	4.12334	3.31946	-3.09623	-10.5976	0.321798
0.8260	-101.74	-16.1406	-5.87593	-6.29158	5.05842	3.54463	2.4104	0.840405	-11.5172	0
0.8267	-227.137	-4.56148	6.05399	-5.66571	5.66621	4.44887	1.48756	-0.353855	-9.97694	-0.321798
0.8273	-237.548	8.28083	16.0846	-3.22814	5.97011	5.67863	0.578495	-10.4387	-6.94248	0
0.8280	-134.088	10.737	14.2447	-2.32228	5.36231	4.73822	-2.47927	-22.0275	-6.02294	0
0.8287	-34.9048	5.19307	5.69787	-3.22814	3.22523	1.98933	-5.52325	-26.9372	-6.94248	0
0.8293	54.8437	1.26318	0.83094	-3.83753	1.39205	1.08509	-5.52325	-25.3891	-7.54017	0
0.8300	144.871	2.17547	-0.0593528	-3.22814	0.784251	2.60421	-3.69135	-25.3891	-6.62064	0
0.8307	187.259	4.00006	0.534175	-2.61875	1.08815	3.83398	-1.25341	-25.0795	-5.72409	0
0.8313	201.899	2.17547	1.1277	-2.32228	1.39205	3.54463	-1.85945	-20.214	-5.72409	-0.321798
0.8320	123.491	-1.47371	-0.356117	-2.61875	1.39205	1.98933	-4.61419	-16.5427	-6.02294	0
0.8327	-109.966	-4.28077	-2.78958	-2.93168	0.784251	0.470205	-6.1293	-15.3042	-5.72409	0
0.8333	-348.629	-4.56148	-3.1457	-2.61875	-0.431338	-0.434036	-5.22023	-12.2522	-5.40226	0
0.8340	-380.978	-1.193	-0.0593528	-1.71289	-0.127441	1.08509	-3.99437	-9.20023	-4.80456	0
0.8347	-273.568	2.73689	2.67088	-0.790565	0.480354	2.92974	-2.47927	-4.0251	-4.80456	0
0.8353	-256.743	1.54388	0.237411	-1.39996	-0.431338	1.98933	-3.08531	3.27316	-4.48272	0
0.8360	-238.431	-3.01759	-3.73923	-2.61875	-1.04894	0.180848	-5.52325	3.8924	-4.18388	0
0.8367	-111.5	-4.84218	-5.2824	-3.54107	-0.431338	0.180848	-4.61419	-0.663478	-4.80456	0
0.8373	-20.2643	-4.56148	-4.33276	-3.83753	-1.04894	0.795732	-2.47927	-0.973101	-4.80456	-0.321798
0.8380	17.8939	-3.64918	-1.30576	-2.93168	-1.04894	1.98933	-2.47927	6.63478	-3.26434	0
0.8387	79.5234	-2.73689	1.48382	-2.32228	-0.431338	2.92974	-2.47927	10.9253	-2.66665	0
0.8393	141.478	-3.2983	1.78058	-2.32228	-1.04894	0.795732	-3.99437	3.58278	-4.18388	0
0.8400	179.962	-3.01759	2.07735	-2.32228	-1.35283	0.180848	-3.38833	-5.57322	-5.40226	0
0.8407	219.328	-1.82459	1.78058	-1.71289	0.176456	2.31486	-0.647364	-9.20023	-4.48272	0
0.8413	251.956	-4.56148	-1.60253	-2.32228	0.784251	2.60421	-0.330569	-11.3676	-3.26434	0
0.8420	213.193	-7.29836	-4.03599	-3.83753	1.08815	4.12334	0.275474	-12.2522	-3.88503	-0.321798
0.8427	103.971	-5.75448	-3.73923	-5.05632	1.69594	5.06375	1.18454	-12.5618	-6.62064	0
0.8433	19.1023	-2.1053	-3.1457	-5.05632	1.08815	2.92974	-0.647364	-17.4716	-12.7355	0.321798
0.8440	20.6361	3.08777	-1.30576	-4.75986	0.784251	2.60421	-1.25341	-24.7698	-18.5286	0
0.8447	57.5859	5.82466	0.237411	-4.75986	2.00964	4.44887	0.275474	-26.9372	-20.6665	0
0.8453	43.8285	4.91236	0.237411	-5.36925	2.00964	5.35311	0.881517	-20.5236	-19.4481	0
0.8460	1.39433	2.45618	-1.009	-6.29158	1.39205	4.12334	-2.78229	-11.9868	-17.0114	-1.28719
0.8467	-36.1132	-0.280706	-2.19605	-4.75986	1.08815	2.60421	-6.74911	-6.14823	-14.2528	-0.965395
0.8473	-101.136	-2.73689	-4.03599	-2.93168	-0.127441	2.60421	-4.31117	0.221159	-11.5172	0
0.8480	-141.385	-6.66677	-6.76622	-2.61875	-1.96063	1.41062	1.48756	6.9444	-9.37924	0
0.8487	-106.899	-8.49136	-7.71587	-1.71289	-2.56842	-0.144679	5.45439	15.4812	-7.83902	0
0.8493	-79.4769	-6.66677	-6.17269	-0.477633	-2.56842	0.470205	7.28629	21.2755	-6.94248	-0.321798
0.8500	-96.2554	-3.2983	-3.73923	-0.477633	-2.56842	1.41062	8.81517	16.7196	-6.32179	0
0.8507	-117.914	-1.193	-2.19605	-1.1035	-2.26452	0.795732	9.43498	9.68678	-6.32179	0
0.8513	-147.52	1.26318	-0.0593528	-0.790565	-1.96063	0.470205	7.9061	7.25403	-6.62064	-0.321798
0.8520	-160.348	2.45618	1.78058	-0.790565	-1.65673	-0.144679	4.54532	11.2349	-6.32179	-0.321798
0.8527	-119.448	1.54388	1.78058	-1.39996	-0.745038	0.180848	1.80435	17.3389	-7.24132	0
0.8533	-78.5474	1.54388	1.48382	-2.93168	0.784251	2.92974	2.10738	16.41	-9.67809	0
0.8540	-69.3913	-0.280706	-2.19605	-5.97865	1.69594	5.06375	2.4104	9.9964	-13.6551	0
0.8547	-57.493	-2.386	-6.17269	-9.02561	1.39205	5.06375	0.275474	5.1309	-17.0114	0.321798
0.8553	-46.1989	-2.73689	-8.3094	-9.02561	1.69594	4.73822	-3.38833	1.76927	-17.0114	0.321798
0.8560	-57.1676	-4.56148	-12.5828	-8.41622	0.480354	3.54463	-10.4129	-0.353855	-15.793	0
0.8567	-75.201	-3.64918	-13.1763	-7.19743	0.176456	4.44887	-15.5918	-0.0442319	-14.2528	0
0.8573	-94.3963	-0.912295	-11.0396	-5.36925	0.784251	5.35311	-16.2116	0.840405	-11.816	0.321798
0.8580	-85.2402	-0.561413	-10.1493	-4.75986	-0.431338	2.92974	-17.4237	-0.0442319	-10.5976	0
0.8587	6.32097	2.73689	-5.2824	-4.44693	-1.65673	1.41062	-15.8948	-4.0251	-10.5976	0
0.8593	145.475	6.45624	-0.652881	-4.44693	-1.35283	1.08509	-10.7159	-10.4387	-9.97694	0
0.8600	251.073	5.82466	-1.009	-3.22814	-1.04894	1.08509	-6.44609	-11.6772	-7.83902	0
0.8607	260.508	5.19307	0.534175	-0.477633	-1.04894	1.98933	-4.31117	-6.45785	-5.10341	0
0.8613	192.464	4.91236	2.37411	0.741154	-2.26452	0.795732	-4.91721	-4.64435	-4.18388	-0.321798
0.8620	167.413	5.19307	1.48382	0.741154	-3.48992	-0.759563	-5.52325	-10.4387	-3.58618	0
0.8627	160.395	6.73695	2.07735	1.64701	-4.09771	-3.47229	-6.74911	-12.8715	-2.3678	0.321798
0.8633	-1.34785	11.6493	6.94428	2.2564	-5.0094	-4.4127	-8.27799	-8.62521	-1.74711	0.321798
0.8640	-256.139	18.3161	11.2177	2.56934	-4.40161	-1.33828	-6.1293	-8.31559	0.0919533	-0.321798
0.8647	-404.17	17.1231	6.94428	3.17873	-5.0094	-2.27869	-5.22023	-12.5618	0.68965	0
0.8653	-379.444	9.82472	-1.009	3.47519	-7.45038	-5.31694	-7.9612	-12.5618	0.68965	0.321798
0.8660	-196.926	3.71936	-5.2824	3.17873	-8.37188	-5.64247	-8.88404	-6.45785	1.60918	0
0.8667	42.2947	-0.912295	-7.71587	3.78812	-8.37188	-6.54671	-9.49008	-2.21159	2.22987	0
0.8673	167.738	0.631589	-4.92628	4.71045	-7.76408	-5.64247	-7.65818	-3.40585	2.82756	-0.321798
0.8680	126.559	4.91236	-0.0593528	5.00691	-7.76408	-4.08717	-5.82628	-6.76748	3.7471	-0.321798
0.8687	32.5344	3.08777	-0.0593528	4.71045	-8.67577	-5.64247	-7.9612	-4.95397	3.44825	-0.321798
0.8693	-29.4204	0	-1.60253	4.08458	-9.90117	-6.54671	-9.18706	1.76927	3.12641	-0.321798
0.8700	-40.3891	-1.47371	-4.03599	4.08458	-10.509	-7.45095	-9.18706	4.51165	3.12641	0
0.8707	13.618	-2.73689	-6.17269	3.78812	-9.58747	-6.83606	-8.58102	5.75014	2.82756	0
0.8713	82.2656	-2.1053	-5.2824	3.47519	-8.67577	-5.93182	-7.35516	8.49252	2.22987	-0.965395
0.8720	120.424	-0.280706	-2.78958	3.47519	-7.76408	-6.54671	-7.35516	11.8541	2.52872	-0.965395
0.8727	121.679	-0.280706	-0.356117	3.78812	-7.45038	-5.64247	-6.74911	16.41	2.82756	0
0.8733	88.4006	0	0.83094	3.47519	-8.06798	-5.64247	-7.05213	16.1004	3.12641	0
0.8740	49.3129	0.350883	-0.0593528	2.56934	-8.06798	-6.54671	-8.58102	8.49252	2.82756	0
0.8747	12.6884	0	-1.30576	1.95994	-7.76408	-5.31694	-7.9612	6.63478	2.52872	0
0.8753	-26.9571	0	-1.60253	1.95994	-7.76408	-4.08717	-5.22023	8.80214	3.12641	0
0.8760	-45.2693	0.350883	-2.49282	2.56934	-8.06798	-4.70205	-5.22023	4.82127	4.04595	0.321798
0.8767	-53.8212	0.350883	-4.62952	1.35055	-8.67577	-6.22118	-7.35516	-3.40585	2.52872	-0.965395
0.8773	-74.5503	2.17547	-5.87593	-0.181171	-8.37188	-7.77647	-8.27799	-11.3676	0.68965	-1.60899
0.8780	-66.3237	5.54395	-5.2824	0.131761	-7.45038	-5.93182	-6.44609	-17.4716	1.01149	-0.643597
0.8787	-8.36599	9.19313	-3.1457	0.428223	-6.84259	-3.18293	-3.99437	-23.5756	1.60918	0.321798
0.8793	114.01	15.2985	1.78058	0.131761	-6.84259	-3.18293	-4.31117	-33.6162	1.31033	0
0.8800	276.682	18.667	6.35075	-0.181171	-6.53869	-4.4127	-6.1293	-40.6491	0.390802	0
0.8807	313.632	17.4038	7.24104	-1.39996	-6.53869	-5.02758	-6.74911	-35.7836	0.0919533	-0.321798
0.8813	168.668	17.4038	7.24104	-1.71289	-6.23479	-5.02758	-6.44609	-28.4411	0.0919533	0
0.8820	43.8285	18.667	8.19069	-1.1035	-5.0094	-2.89357	-4.91721	-21.7178	1.01149	0
0.8827	36.5315	15.2985	5.69787	-1.39996	-4.09771	-1.04892	-2.78229	-12.5618	1.01149	0
0.8833	51.172	8.28083	-1.009	-2.61875	-5.0094	-1.95316	-3.69135	-1.90197	0.0919533	0
0.8840	42.2947	1.54388	-6.46946	-2.93168	-6.84259	-3.47229	-5.52325	8.80214	0.390802	0
0.8847	-3.7647	-4.56148	-10.7429	-2.00935	-7.76408	-4.70205	-6.74911	18.2235	0.68965	0.321798
0.8853	-96.8596	-7.29836	-11.6925	-1.1035	-7.45038	-4.08717	-5.82628	30.7411	1.31033	0
0.8860	-173.455	-5.19307	-8.90292	-1.1035	-6.84259	-1.6638	-3.08531	39.8971	2.82756	0
0.8867	-174.059	-3.64918	-8.3094	-2.32228	-6.84259	-1.95316	-3.69135	37.1548	2.52872	0
0.8873	-121.26	-1.82459	-7.4191	-4.15047	-6.23479	-3.47229	-5.52325	29.8565	0.68965	0
0.8880	-81.2896	4.00006	-1.30576	-5.05632	-4.7055	-2.89357	-5.52325	21.5851	-0.229883	0
0.8887	-56.5634	13.4739	8.19069	-5.36925	-1.35283	-0.144679	-3.38833	13.0484	1.01149	0
0.8893	-15.9883	21.053	15.4911	-6.29158	2.00964	3.83398	0.881517	6.32516	3.12641	0
0.8900	-28.4908	23.5091	17.331	-8.72915	2.61744	4.12334	1.48756	-3.40585	3.44825	0
0.8907	-57.7718	23.86	15.7879	-11.1667	2.31354	2.60421	-0.647364	-13.8003	2.52872	0.321798
0.8913	1.11547	20.7723	10.9209	-11.7761	2.00964	2.60421	-0.647364	-17.162	1.90803	0
0.8920	41.6905	13.123	3.62052	-12.0891	1.39205	2.92974	-0.330569	-13.1811	-0.229883	-0.321798
0.8927	7.52939	7.36854	-1.30576	-11.7761	1.69594	4.44887	0.881517	-6.45785	2.22987	0
0.8933	10.5504	3.71936	-5.57917	-10.2444	2.31354	5.35311	2.71342	-0.973101	9.54016	0
0.8940	71.018	-1.193	-9.55581	-10.5573	1.39205	3.2191	0.881517	1.45965	5.88501	0
