MR32 ASCII
Name	CRYE15_slow
Frequency	1500
Date	14-09-2015 12:11:15
"Time,s"	"RT TIB.ANT.,uV"	"RT MED. GASTRO,uV"	"RT LAT. GASTRO,uV"	"RT BICEPS FEM.,uV"	"RT VMO,uV"	"RT VLO,uV"	"RT RECTUS FEM.,uV"	"RT SOLEUS,uV"	"RT SEMITEND.,uV"	"Channel 12,uV"
0.0000	-152.16	-140.925	-367.228	-152.939	-303.704	-201.973	-91.8692	-17.9208	-90.909	-5264.34
0.0007	-136.922	-53.3287	-99.907	-145.613	-289.368	-192.207	-88.825	-177.217	-84.1663	-10273.2
0.0013	-145.749	-108.274	-34.8653	-137.367	-276.543	-181.822	-86.6868	-165.925	-73.4988	-9948.66
0.0020	-140.887	-82.0298	139.641	-133.104	-263.749	-171.142	-85.4667	-122.295	-82.0529	-9595.01
0.0027	-110.04	1.89682	494.305	-125.165	-247.871	-160.772	-83.0265	-165.017	-41.7645	-9912.61
0.0033	-85.6346	54.386	697.846	-113.242	-236.279	-141.548	-79.6683	-158.918	69.641	-9802.25
0.0040	-66.4017	-1.46149	622.465	-126.391	-222.837	-127.805	-77.2281	-29.8176	109.896	-9801.62
0.0047	-51.164	-107.652	372.818	-71.4552	-206.066	-136.658	-73.2537	-41.4119	91.6135	-9816.04
0.0053	-33.1389	-111.011	203.12	66.4965	-223.454	-48.7613	-64.097	-154.331	92.8211	-9816.04
0.0060	23.9096	-77.1478	203.782	110.735	-132.815	98.6327	-74.7879	-76.1949	92.5192	-9797.54
0.0067	68.167	-2.67421	208.049	88.4763	99.426	123.955	-65.0151	24.1969	88.5608	-9813.53
0.0073	63.2736	96.8313	193.983	90.5934	184.855	101.682	22.8676	5.89798	87.0177	-9907.59
0.0080	58.9996	104.45	192.781	90.287	149.463	106.572	76.8898	1.61312	85.2062	-9560.83
0.0087	60.8579	89.8037	188.212	86.6376	152.206	103.818	63.7709	8.31767	83.0593	-10074.1
0.0093	58.4112	94.0638	182.983	85.1055	152.206	99.5461	61.9347	5.57032	81.5162	-10060.3
0.0100	56.8626	90.3945	178.414	82.9604	145.516	97.7193	64.0729	5.89798	80.0067	-4550.14
0.0107	55.6547	87.6581	173.845	80.8432	142.742	95.2742	60.0985	4.9654	77.2559	110.36
0.0113	54.4469	86.1344	169.878	79.0046	139.69	92.8292	58.8784	4.66293	75.4109	110.36
0.0120	53.208	83.9888	165.61	77.166	136.637	90.3981	58.2744	5.26786	73.9013	-218.211
0.0127	52.3099	82.1542	161.643	75.3552	133.308	88.5573	56.7523	5.26786	72.0563	99.6998
0.0133	50.7613	80.0397	157.675	73.2102	130.256	86.4213	55.5322	5.57032	70.5467	-10.6597
0.0140	49.2438	77.8941	153.407	71.3716	127.204	83.6811	54.3001	5.26786	68.7017	-11.9138
0.0147	48.3456	76.3704	149.74	69.533	124.151	81.8543	52.778	4.9654	66.8903	1.88113
0.0153	47.1068	74.8468	146.073	68.3351	121.408	80.3227	51.5579	4.9654	65.6491	0
0.0160	45.8989	72.7012	142.407	66.4965	118.633	77.8776	50.6398	4.9654	64.1395	0.627043
0.0167	44.9698	71.1775	139.04	64.6579	115.889	75.7416	49.4197	4.66293	62.2945	0.313521
0.0173	44.0716	69.6538	135.674	63.4321	113.453	74.224	48.5016	4.66293	60.7849	0.627043
0.0180	43.1425	67.8192	132.368	61.9278	110.71	72.3831	47.2815	4.66293	59.5437	0.627043
0.0187	41.9346	66.2955	129.002	60.3956	107.966	70.5563	45.7594	4.36047	58.0342	0.313521
0.0193	41.0055	64.7718	125.936	58.8635	105.53	69.0246	44.8413	4.05801	56.4911	0.313521
0.0200	40.1073	63.2482	123.171	57.6377	103.095	67.1979	43.9353	4.05801	55.2834	0.627043
0.0207	39.1782	61.7245	119.804	56.1055	100.628	65.6662	42.7032	4.05801	54.0758	0.627043
0.0213	37.9703	60.2008	116.799	54.6012	98.1928	63.8394	41.7971	4.05801	52.8346	0.313521
0.0220	37.3509	58.9881	114.033	53.3755	96.0655	62.3217	40.8791	4.05801	51.6269	0.313521
0.0227	36.4218	57.7443	111.268	52.1497	93.9383	60.79	39.961	4.05801	50.4193	0.627043
0.0233	35.5236	56.2206	108.263	50.6176	91.7802	59.2583	39.0429	4.05801	49.1781	0.627043
0.0240	34.2848	55.0079	105.798	49.3918	89.6529	57.7407	38.4389	3.75555	47.9704	0.627043
0.0247	33.3867	53.7951	103.033	48.1939	87.5257	56.5181	37.5208	3.75555	46.7293	0.940564
0.0253	32.4575	52.2715	100.328	46.9682	85.3676	54.6914	36.6027	3.45309	45.8235	0.627043
0.0260	32.1478	51.3386	98.1638	46.0489	83.5486	53.778	35.6846	3.15063	44.314	0.627043
0.0267	31.2497	50.1259	95.6992	44.8231	81.4214	52.5554	35.0806	3.45309	43.3747	0.940564
0.0273	30.3205	48.9132	92.9941	43.5974	79.5716	51.0237	34.4645	3.45309	42.4689	0.940564
0.0280	29.7321	47.6693	90.83	42.3717	77.7526	49.8012	33.2444	3.15063	41.2613	0.940564
0.0287	29.1127	46.4566	88.4255	40.8673	75.0088	48.5786	33.8605	2.52051	40.0201	0.313521
0.0293	28.4932	47.9803	88.0649	42.6781	78.0609	49.8012	29.5842	4.66293	39.1144	0.627043
0.0300	27.5951	39.4601	82.8952	36.8837	66.7772	43.0842	29.8862	1.0082	38.5105	0.940564
0.0307	24.8387	44.0312	79.2283	35.0729	67.0855	43.0842	41.4831	0.705742	37.2693	0.627043
0.0313	30.3205	60.5118	92.9941	55.7991	100.628	62.0126	-18.3255	16.2573	36.3636	0.627043
0.0320	19.3259	-34.1117	40.8164	-28.7214	-62.0295	-27.711	-107.44	-44.4617	35.4579	0.627043
0.0327	-29.1746	-53.0178	-58.0687	-183.75	-325.377	-176.637	-109.881	-145.786	34.5186	0.627043
0.0333	-54.1991	83.9888	-47.7294	-204.197	-351.336	-192.811	-94.9254	-124.74	33.3109	0.627043
0.0340	-34.068	-10.2926	45.385	-168.79	-299.758	-162.599	-98.2837	-61.2483	32.7071	-0.313521
0.0347	-13.0078	-160.453	114.635	-166.673	-298.833	-160.772	-91.2652	-76.5225	33.6129	-0.313521
0.0353	-11.7999	-58.8326	184.846	-160.544	-282.37	-151.005	-83.3285	-73.4475	24.7568	0.627043
0.0360	-8.42409	49.504	230.291	-151.407	-264.643	-140.621	-75.3919	-64.903	40.0201	0.940564
0.0367	15.981	52.2715	0.841576	-143.467	-249.998	-132.386	-67.7694	-104.903	28.1114	0.940564
0.0373	37.9703	22.0467	-340.057	-135.222	-234.738	-124.756	-61.9709	-6.32647	-113.183	0.627043
0.0380	41.6249	-56.687	-427.941	-126.976	-221.327	-117.125	-57.0785	109.944	-212.345	0.940564
0.0387	25.7368	-120.775	-460.943	-118.758	-208.81	-108.891	-52.5001	9.55272	-187.621	0.940564
0.0393	7.12331	-107.652	-496.289	-110.818	-196.601	-101.261	-47.6198	-52.7038	-172.392	0.940564
0.0400	8.9506	-54.8524	-360.495	-103.185	-184.701	-92.4076	-42.4374	111.784	-168.4	1.25409
0.0407	10.4991	6.49895	-175.288	-95.5521	-173.726	-84.4681	-38.161	149.617	-156.826	0.940564
0.0413	2.26088	76.9923	131.105	-89.1448	-164.569	-79.5919	-36.6389	-91.7716	-149.178	0.627043
0.0420	-9.66293	113.001	598.961	-84.2697	-156.307	-73.4933	-36.3369	-155.54	-141.563	0.940564
0.0427	-35.8953	49.2241	823.542	-79.6732	-147.459	-65.8629	-33.8847	147.172	-134.519	0.940564
0.0433	-62.7471	-112.224	760.063	-73.5724	-137.408	-61.591	-31.4445	366.305	-126.904	0.627043
0.0440	-70.9854	-298.392	612.066	-66.8586	-127.327	-59.1459	-29.9224	157.557	-118.651	0.940564
0.0447	-68.5387	-396.343	377.387	-61.6771	-118.787	-56.7008	-30.2244	-202.85	-113.183	0.940564
0.0453	-66.1229	-331.042	209.252	-56.4955	-110.247	-55.1832	-32.3626	-376.185	-102.482	0.627043
0.0460	-53.6107	-183.339	208.049	-53.4312	-102.293	-53.6515	-32.3626	-446.079	-98.8258	0.627043
0.0467	-39.2402	-86.6008	147.937	-48.5561	-98.3469	-48.1571	-29.9224	-498.581	-103.422	0.940564
0.0473	-42.3063	-27.0841	-58.0687	-41.5359	-88.2656	-39.3041	-30.8405	-475.997	-26.8031	0.627043
0.0480	-43.2354	28.4523	-188.393	-51.314	-76.9819	-47.8479	-28.0862	-375.883	77.2559	0.627043
0.0487	-16.0739	103.517	-103.574	-15.2939	-91.9343	-25.5751	-32.3626	-193.398	86.112	0.940564
0.0493	22.7017	167.325	29.5153	78.6982	-18.3745	66.2845	-38.161	5.89798	72.0563	0.940564
0.0500	39.1782	117.883	42.9204	108.617	145.516	112.362	12.1888	76.0688	76.6521	0.940564
0.0507	36.1121	59.5789	27.3512	92.4321	192.193	96.8059	66.815	59.2823	74.2032	0.940564
0.0513	35.2139	68.7521	34.0838	93.9642	165.34	94.9651	64.0729	59.2823	72.0563	0.940564
0.0520	35.2139	69.3429	32.2203	92.7385	167.776	95.2742	57.6583	60.8198	70.5467	0.627043
0.0527	33.9751	63.8701	30.4169	89.3956	165.34	91.3115	59.7965	57.1651	68.7017	0.627043
0.0533	33.3867	64.1499	30.4169	87.557	159.236	89.4707	57.6583	56.2325	67.4941	0.627043
0.0540	32.4575	62.6262	29.8158	85.4119	156.184	87.0396	56.1362	55.0226	65.951	0.627043
0.0547	31.5594	61.1026	29.2147	83.2669	152.823	85.1988	54.9161	54.1152	64.1395	0.940564
0.0553	31.2497	59.5789	28.5535	81.4561	149.463	83.0628	53.696	52.8802	62.5964	0.940564
0.0560	30.6302	58.3662	27.6518	79.6175	145.794	80.9269	52.476	51.3679	61.0868	0.627043
0.0567	29.7321	57.1535	27.3512	77.4724	142.742	78.791	51.2559	50.1329	59.8792	0.940564
0.0573	29.1127	55.9096	26.7501	75.9403	139.412	76.9642	50.3378	49.2255	58.638	1.25409
0.0580	28.4932	54.386	26.149	74.1295	136.052	74.8282	49.1177	47.9904	57.1284	0.627043
0.0587	27.5951	52.8623	25.5478	71.9845	133	73.0014	47.5956	46.7806	55.5853	0.627043
0.0593	26.666	51.6496	24.6461	70.1459	129.639	71.1606	46.6775	45.8732	54.6796	0.627043
0.0600	26.3563	50.4368	23.9849	68.3351	126.895	69.3338	45.7594	44.9406	53.4384	0.940564
0.0607	25.7368	49.2241	23.6843	66.8029	123.843	67.8162	44.5393	43.7308	51.9288	0.940564
0.0613	25.1484	48.2912	23.0832	65.2707	121.099	65.9753	43.6212	42.4957	50.7212	0.940564
0.0620	24.529	46.7676	22.1815	63.4321	118.047	64.1485	43.0172	41.5883	49.48	0.940564
0.0627	23.9096	45.8658	21.5804	61.9278	115.303	62.926	42.0992	40.681	48.2724	0.940564
0.0633	23.3211	44.9329	21.2798	60.3956	112.251	61.3943	40.5771	39.1434	47.0312	0.940564
0.0640	22.7017	44.3421	20.6787	59.4763	111.018	60.4809	39.961	37.9336	45.5216	0
0.0647	22.7017	43.4093	19.7169	58.2506	108.274	59.2583	38.7409	37.6311	44.314	-0.313521
0.0653	19.9453	37.6255	18.2141	51.2304	96.6821	53.4688	35.3826	32.7414	43.3747	0.627043
0.0660	22.392	49.504	22.1815	63.7386	119.866	64.7528	43.6212	39.7736	41.8651	0.940564
0.0667	23.3211	30.9089	14.8478	44.2103	76.8277	43.3933	26.54	33.6487	43.0728	0.940564
0.0673	-13.3175	-59.1125	11.4815	-63.2093	-114.193	-51.2064	-37.859	-52.4013	37.2693	0.940564
0.0680	-45.0627	-73.7895	95.3986	-120.875	-204.833	-96.9886	-65.9332	-148.231	36.3636	0.940564
0.0687	-32.2407	8.30249	210.454	-99.5358	-166.08	-79.2828	-52.1981	-132.957	53.4384	0.940564
0.0693	-29.4843	40.3619	172.643	-92.5156	-156.307	-75.9243	-49.1539	-19.1306	-24.3542	0.627043
0.0700	-54.1991	1.30601	22.4821	-90.0641	-151.744	-75.3201	-47.0158	50.7378	-155.887	0.940564
0.0707	-79.5333	-33.4898	-34.8653	-81.5118	-138.611	-69.2214	-42.1354	8.94779	-163.234	1.25409
0.0713	-79.2236	-47.8248	-2.52473	-77.8624	-132.198	-68.2939	-42.4374	-71.3303	-146.729	0.940564
0.0720	-45.3414	-64.9273	17.0118	-69.6166	-126.71	-62.7995	-45.4816	-162.875	-142.771	1.25409
0.0727	-12.3884	-65.5492	-23.9248	-67.7779	-110.555	-56.7008	-42.7394	-215.05	-31.0634	1.25409
0.0733	-13.3175	-52.116	-95.6391	-73.5724	-117.246	-65.2446	-45.4816	-149.138	62.5964	0.940564
0.0740	-11.4902	-26.7732	-60.2328	-11.9231	-101.091	-21.3032	-60.1347	-26.4653	53.4384	0.940564
0.0747	18.4277	22.3576	16.05	71.3716	40.202	62.0126	-23.2059	47.083	46.7293	0.940564
0.0753	33.0769	50.7478	13.6455	76.5531	146.411	77.2733	43.6212	57.77	51.6269	0.940564
0.0760	27.8738	46.7676	6.01125	65.5772	130.841	64.1485	52.778	52.2753	48.2724	0.627043
0.0767	28.1835	44.3421	11.4815	69.2265	122.61	66.8887	43.0172	52.8802	47.0312	0.627043
0.0773	28.4932	44.9329	9.97868	66.8029	126.587	65.0619	45.7594	51.6704	46.7293	0.627043
0.0780	27.2854	43.0983	9.67812	64.6579	120.791	62.6168	44.5393	50.1329	45.8235	0.627043
0.0787	26.666	42.1965	9.67812	63.4321	118.355	61.3943	43.0172	49.5279	44.6159	0.940564
0.0793	26.0465	41.2637	9.37756	61.9278	115.889	59.5675	42.4012	48.3181	43.6766	0.940564
0.0800	25.4581	40.3619	9.07699	60.3956	113.145	58.0498	41.4831	47.3855	42.7709	1.25409
0.0807	25.1484	39.4601	9.07699	59.1699	110.71	56.8273	40.5771	46.1757	41.5632	0.940564
0.0813	24.529	38.5273	8.77643	57.6377	107.966	55.2956	39.659	44.9406	40.322	0.627043
0.0820	23.9096	37.6255	8.77643	56.412	105.53	54.0731	38.7409	44.0332	39.4163	0.940564
0.0827	23.3211	36.6926	8.41576	55.2141	103.095	52.8505	37.8228	42.8234	38.5105	0.940564
0.0833	22.7017	35.7909	8.11519	53.6819	100.628	51.3329	36.9047	41.8908	37.5713	0.940564
0.0840	22.0823	34.858	7.81463	52.1497	98.1928	50.4195	35.9987	40.681	36.6655	0.940564
0.0847	21.7726	34.2672	7.81463	51.2304	96.3738	49.492	35.0806	39.7736	35.7598	0.940564
0.0853	20.8744	33.3343	7.51407	49.6982	93.9383	47.6652	34.1625	38.5385	34.854	0.627043
0.0860	20.255	32.4326	7.2135	48.5004	91.4719	46.7518	33.5585	37.6311	33.9148	0.627043
0.0867	20.255	31.8107	7.2135	47.2746	89.6529	45.8384	32.9424	36.6986	33.3109	0.940564
0.0873	19.6356	30.9089	6.91294	46.0489	87.5257	44.6159	32.0243	35.7912	32.7071	0.940564
0.0880	19.0471	30.287	6.91294	44.8231	85.3676	43.7025	31.1063	34.8838	31.4659	0.940564
0.0887	18.4277	29.6651	6.61238	43.9038	83.5486	42.4799	30.5023	34.2789	31.164	0.940564
0.0893	18.118	29.0743	6.31182	42.6781	81.4214	41.2574	29.8862	33.3463	30.2583	0.940564
0.0900	17.8083	28.4523	6.31182	41.7866	79.5716	40.6532	28.9802	32.4389	29.3525	0.940564
0.0907	17.2198	27.5506	6.01125	40.8673	77.7526	39.4306	28.3641	31.834	28.7487	0.940564
0.0913	16.6004	26.9287	6.01125	39.6416	75.9337	38.5172	27.7601	30.9014	27.8094	0.940564
0.0920	16.2907	26.3068	5.71069	38.7223	74.0839	37.6038	27.144	30.2965	27.5075	0.940564
0.0927	15.981	25.7159	5.71069	37.803	72.5732	36.6764	26.842	29.6916	26.9037	0.940564
0.0933	15.6713	25.094	5.71069	36.8837	71.0318	35.763	26.2259	28.7842	25.998	1.25409
0.0940	15.0828	24.5032	5.10957	35.6579	68.9045	34.8496	25.0058	27.5491	25.0587	0.627043
0.0947	14.4634	23.8813	4.809	34.4601	67.363	33.9362	24.0877	26.3393	24.4549	-0.313521
0.0953	14.4634	23.5704	5.10957	33.8472	66.1607	33.3179	24.0877	26.0368	24.153	0.313521
0.0960	13.844	22.9795	4.809	32.9279	64.3109	32.4045	23.4837	26.0368	23.5491	0.940564
0.0967	13.5343	22.3576	4.44833	32.0086	62.8002	31.8002	22.8676	25.4067	22.9453	0.940564
0.0973	13.2246	21.7357	4.44833	31.0893	61.2587	30.8868	22.5656	24.8018	22.6434	1.25409
0.0980	12.6361	21.4248	4.44833	30.4764	59.7481	30.2685	22.2636	24.1969	21.7041	0.940564
0.0987	12.3264	20.834	4.14777	29.8635	58.5149	29.3551	21.6475	23.5919	21.1003	0.627043
0.0993	12.0167	20.212	4.14777	28.9442	57.3125	28.7509	21.0435	22.987	20.7984	0.940564
0.1000	12.0167	19.9011	4.14777	28.3592	56.0793	28.1326	20.7415	22.3569	20.1946	0.940564
0.1007	11.707	18.9993	3.8472	27.4399	54.5687	27.2192	20.1254	21.752	19.5907	0.940564
0.1013	11.3973	18.6884	3.8472	26.827	53.3355	26.615	19.8234	21.4495	19.2888	0.940564
0.1020	11.0876	18.3774	3.8472	26.2142	52.1331	25.9967	19.5214	20.8446	18.9534	0.940564
0.1027	10.8089	18.0976	3.8472	25.6013	51.2082	25.3924	18.9054	20.2397	18.3495	0.940564
0.1033	10.4991	17.4756	3.54664	24.9884	49.6667	24.7741	18.6034	19.9372	18.0476	1.25409
0.1040	10.1894	17.1647	3.54664	24.3755	48.7727	23.8607	18.2893	19.6095	17.7457	0.940564
0.1047	10.1894	16.8537	3.54664	24.0691	47.8478	23.2565	17.6853	19.3071	17.4438	0.940564
0.1053	10.1894	16.5428	3.54664	23.4562	46.9229	22.9473	17.3833	18.7022	16.84	0.940564
0.1060	9.57001	15.952	3.54664	22.5369	45.7205	22.0339	17.0692	18.7022	16.84	1.25409
0.1067	9.57001	15.641	3.24608	22.2305	44.4873	21.4156	16.4652	18.0972	16.2362	0.940564
0.1073	9.26031	15.3301	3.24608	21.6455	43.5624	21.1205	15.8491	16.5597	15.2969	0
0.1080	9.26031	15.0191	3.54664	21.339	42.9767	20.8114	15.8491	16.5597	15.5988	0.627043
0.1087	8.9506	15.0191	3.24608	21.0326	42.0518	20.2071	15.5471	16.8622	15.2969	1.25409
0.1093	8.67186	14.4283	3.24608	20.4197	40.5103	19.5888	14.629	15.9548	14.693	0.627043
0.1100	8.67186	14.1173	3.24608	19.8069	39.9245	19.2797	14.327	15.6523	14.0892	0.627043
0.1107	8.67186	13.8064	3.24608	19.5004	38.9996	18.9846	14.025	15.3499	14.0892	0.627043
0.1113	8.36215	13.4954	3.24608	18.8876	38.383	18.3663	14.025	15.3499	13.7873	0.627043
0.1120	8.05244	12.9046	2.94551	18.2747	37.1499	17.762	13.723	15.0474	13.4854	0.940564
0.1127	8.05244	12.9046	2.94551	17.6618	36.2558	17.4529	13.723	14.745	13.4854	0.940564
0.1133	7.74273	12.5937	2.94551	17.3554	35.3309	16.8486	13.4089	14.4425	13.1835	0.940564
0.1140	7.43302	12.2827	2.94551	17.049	34.7143	16.8486	12.8049	14.1148	12.8816	0.627043
0.1147	7.43302	11.9718	2.64495	16.7425	34.0977	16.5395	12.4908	13.8124	12.5461	0.940564
0.1153	7.43302	11.9718	2.94551	16.4361	33.2036	15.9353	12.1888	13.2074	12.2442	0.940564
0.1160	7.12331	11.6608	2.64495	15.8232	32.2788	15.6261	11.8868	12.905	11.6404	0.940564
0.1167	6.8136	11.07	2.34439	15.2103	31.3539	15.0078	11.8868	12.6025	11.6404	0.940564
0.1173	6.8136	10.759	2.34439	14.9318	30.7681	14.7127	11.5848	12.3001	11.3385	0.627043
0.1180	6.53486	10.759	2.34439	14.6253	30.1515	14.4036	11.2707	11.9976	11.0366	0.940564
0.1187	6.22516	10.4481	2.34439	14.3189	29.2266	13.7993	10.9687	11.6951	10.7346	0.627043
0.1193	6.22516	10.1371	2.04383	14.0125	28.61	13.4902	10.9687	11.3675	10.7346	0.940564
0.1200	6.53486	9.85726	2.34439	13.706	28.0242	13.4902	10.6667	11.3675	10.4327	0.940564
0.1207	6.22516	9.85726	2.34439	13.3996	27.4077	13.181	10.3647	11.065	10.1308	0.940564
0.1213	5.91545	9.5463	2.04383	13.0931	27.0994	12.5768	10.0506	10.7626	10.1308	0.940564
0.1220	5.91545	9.5463	2.34439	13.0931	26.4828	12.5768	10.0506	10.4601	9.82891	0.940564
0.1227	5.91545	9.23535	2.04383	12.4803	25.5579	12.2676	9.74864	10.4601	9.82891	1.25409
0.1233	5.60574	8.9244	2.34439	12.1738	25.2496	11.9585	9.44664	10.1576	9.49345	0.940564
0.1240	5.60574	8.61344	2.04383	12.1738	24.6638	11.6634	9.14464	10.1576	9.19154	0.940564
0.1247	5.29603	8.30249	2.04383	11.561	24.0472	11.3542	9.14464	9.85518	8.88963	0.940564
0.1253	5.60574	8.61344	2.04383	11.2545	23.7389	11.0451	9.14464	9.85518	8.88963	0.940564
0.1260	5.29603	8.30249	2.04383	10.9481	23.1223	10.4408	8.52855	9.55272	8.58772	0.627043
0.1267	4.98632	7.71167	2.04383	10.9481	22.5057	10.1317	7.92455	8.64533	7.98389	0
0.1273	4.98632	7.71167	2.04383	10.6417	22.1974	10.1317	7.92455	8.64533	8.2858	0
0.1280	5.29603	7.71167	2.04383	10.6417	21.92	9.82252	7.92455	8.94779	8.2858	0.627043
0.1287	5.29603	7.71167	2.34439	10.6417	21.6117	9.82252	7.61046	8.94779	7.98389	0.627043
0.1293	5.29603	7.71167	2.34439	10.6417	20.9951	9.52742	7.61046	8.64533	7.98389	0.627043
0.1300	5.29603	7.71167	2.34439	10.3352	20.6868	9.21828	7.61046	8.64533	7.98389	0.627043
0.1307	5.29603	7.40072	2.34439	10.0288	20.0702	9.21828	7.30846	8.31767	7.68198	0.627043
0.1313	4.70758	6.77881	2.04383	9.41592	19.4536	8.59998	7.30846	8.31767	7.68198	0.627043
0.1320	4.39787	6.49895	1.74326	9.10949	18.8678	8.30488	7.30846	8.31767	7.38007	0.940564
0.1327	4.70758	6.188	1.74326	8.80305	18.5595	7.99573	7.30846	8.31767	7.38007	0.940564
0.1333	4.39787	6.49895	2.04383	8.80305	18.2512	7.99573	7.00646	8.01521	7.07816	0.940564
0.1340	4.39787	6.49895	2.04383	8.80305	17.6346	7.99573	6.69238	7.71275	7.07816	0.940564
0.1347	4.08816	6.188	1.74326	8.21804	17.018	7.68658	6.39037	7.71275	6.77624	0.940564
0.1353	4.08816	5.87704	1.74326	8.21804	17.018	7.68658	6.39037	7.41029	6.77624	0.940564
0.1360	4.08816	5.87704	2.04383	8.21804	16.7097	7.68658	6.39037	7.10783	6.47433	0.627043
0.1367	4.08816	5.87704	1.74326	7.60517	16.0931	7.08233	6.39037	7.10783	6.13888	0.627043
0.1373	4.08816	5.87704	1.74326	7.60517	16.0931	6.77318	6.08837	7.10783	6.13888	0.627043
0.1380	4.08816	5.87704	2.04383	7.60517	16.0931	7.08233	5.78637	6.5029	6.13888	0.940564
0.1387	3.77845	5.56609	1.74326	7.29873	15.5074	7.08233	5.78637	6.5029	6.13888	0.627043
0.1393	3.77845	5.25513	1.74326	7.29873	15.1991	6.77318	5.47229	6.5029	5.83696	0.627043
0.1400	3.77845	5.25513	1.74326	7.29873	14.8908	6.46403	5.47229	6.5029	5.83696	0.627043
0.1407	3.15903	5.25513	1.4427	6.68586	14.2742	6.16894	5.47229	6.20044	5.53505	0.940564
0.1413	3.15903	4.97527	1.4427	6.68586	13.9659	6.16894	5.47229	5.89798	5.53505	0.940564
0.1420	3.46874	4.97527	1.74326	6.68586	13.6576	6.16894	5.17028	5.89798	5.53505	0.940564
0.1427	3.46874	4.66432	1.74326	6.37943	13.3493	5.85979	5.17028	5.89798	5.53505	0.940564
0.1433	3.15903	4.66432	1.4427	6.07299	13.041	5.85979	5.17028	5.57032	5.23314	0.940564
0.1440	3.15903	4.66432	1.4427	6.07299	12.7635	5.55064	5.17028	5.57032	5.23314	0.940564
0.1447	3.15903	4.35336	1.4427	6.07299	12.7635	5.55064	4.86828	5.57032	5.23314	0.940564
0.1453	3.15903	4.35336	1.4427	5.76656	12.1469	5.24149	4.86828	5.57032	4.93123	0.940564
0.1460	2.84932	4.35336	1.14214	5.46012	11.8386	5.24149	4.56628	5.26786	4.62932	0.627043
0.1467	2.84932	4.35336	1.14214	5.46012	11.5303	4.94639	4.56628	4.9654	4.62932	0.627043
0.1473	2.84932	4.04241	1.4427	5.46012	11.5303	5.24149	4.56628	4.9654	4.62932	0.940564
0.1480	2.84932	4.04241	1.4427	5.46012	11.222	4.94639	4.2522	4.66293	4.02549	0.627043
0.1487	2.57059	4.04241	1.14214	5.15369	10.9137	4.94639	3.95019	4.36047	4.02549	0.627043
0.1493	2.57059	3.73145	1.14214	4.84725	10.6054	4.94639	3.95019	4.36047	4.02549	0.940564
0.1500	2.26088	3.73145	1.14214	4.84725	10.2971	4.63724	3.95019	4.36047	4.02549	0.940564
0.1507	2.26088	3.73145	1.14214	4.54082	9.98884	4.32809	3.95019	4.66293	4.02549	0.940564
0.1513	2.57059	3.4205	0.841576	4.54082	9.71137	4.32809	3.95019	4.36047	4.02549	0.940564
0.1520	2.26088	3.4205	1.14214	4.54082	9.71137	4.32809	3.64819	4.05801	3.72358	0.627043
0.1527	2.26088	3.4205	1.14214	4.54082	9.71137	4.32809	3.64819	4.05801	3.72358	0.627043
0.1533	2.26088	3.4205	1.14214	4.23438	9.40308	4.32809	3.64819	4.05801	3.72358	1.25409
0.1540	1.95117	3.14064	0.841576	3.92794	8.78648	4.033	3.34619	3.45309	3.42167	0.627043
0.1547	1.64146	3.14064	0.4809	3.92794	8.47818	3.72385	2.7301	2.82297	2.7843	-0.313521
0.1553	1.95117	3.4205	1.14214	4.23438	8.78648	4.033	3.34619	3.45309	3.42167	0.627043
0.1560	1.95117	3.4205	1.14214	3.92794	8.47818	3.72385	3.34619	4.05801	3.42167	0.940564
0.1567	1.64146	2.82969	0.4809	3.62151	7.86159	3.4147	3.34619	3.75555	3.42167	0.627043
0.1573	1.64146	2.82969	0.841576	3.62151	7.86159	3.4147	3.03211	3.45309	3.08621	0.627043
0.1580	1.95117	2.82969	0.841576	3.62151	7.86159	3.4147	3.03211	3.45309	3.08621	0.627043
0.1587	1.64146	2.51873	0.841576	3.62151	7.86159	3.4147	3.03211	3.45309	3.42167	0.940564
0.1593	1.64146	2.51873	0.841576	3.31507	7.86159	3.10555	3.34619	3.45309	3.08621	0.940564
0.1600	1.64146	2.51873	0.841576	3.00864	7.55329	3.10555	3.03211	3.45309	2.7843	0.627043
0.1607	1.95117	2.82969	0.841576	3.31507	7.55329	3.4147	3.03211	3.45309	3.08621	0.940564
0.1613	1.95117	2.82969	1.14214	3.62151	7.24499	3.4147	3.03211	3.45309	3.08621	0.940564
0.1620	1.95117	2.51873	0.841576	3.31507	7.24499	3.10555	2.7301	3.15063	3.08621	0.940564
0.1627	1.95117	2.82969	0.841576	3.31507	7.24499	3.10555	2.7301	3.15063	2.7843	0.940564
0.1633	1.64146	2.82969	1.14214	3.31507	6.96752	3.10555	2.7301	3.15063	3.08621	0.627043
0.1640	1.95117	2.51873	1.14214	3.31507	6.96752	2.81045	2.4281	2.82297	2.7843	0.627043
0.1647	1.95117	2.51873	1.14214	3.31507	6.96752	2.81045	2.4281	2.82297	2.7843	0.627043
0.1653	1.64146	2.20778	0.841576	3.00864	6.65923	2.5013	2.7301	2.82297	3.08621	0.627043
0.1660	1.64146	2.20778	0.841576	3.00864	6.35093	2.5013	2.4281	2.82297	2.7843	0.627043
0.1667	2.26088	2.51873	1.4427	3.31507	6.65923	2.81045	2.4281	3.15063	2.7843	0.627043
0.1673	1.95117	2.20778	1.14214	3.00864	6.35093	2.81045	2.4281	3.15063	2.7843	0.627043
0.1680	1.64146	2.20778	0.841576	2.7022	5.73433	2.5013	2.1261	2.82297	2.48239	0.627043
0.1687	1.64146	2.20778	0.841576	2.7022	6.04263	2.5013	2.1261	2.52051	2.48239	0.940564
0.1693	1.33175	2.20778	0.841576	2.39577	6.04263	2.5013	2.4281	2.82297	2.7843	0.940564
0.1700	1.33175	2.20778	0.841576	2.39577	5.73433	2.19215	2.7301	2.82297	2.7843	0.940564
0.1707	1.64146	2.51873	0.841576	2.7022	5.73433	2.5013	2.4281	2.82297	2.48239	0.940564
0.1713	1.64146	2.20778	1.14214	2.7022	5.73433	2.5013	2.1261	2.52051	2.7843	0.940564
0.1720	1.64146	1.89682	1.14214	2.39577	5.42604	2.19215	2.1261	2.82297	2.48239	0.940564
0.1727	1.64146	1.89682	1.14214	2.39577	5.11774	2.19215	2.4281	2.52051	2.18047	0.627043
0.1733	1.64146	2.20778	0.841576	2.7022	5.11774	2.19215	2.1261	2.21804	2.18047	0.627043
0.1740	1.95117	2.20778	1.14214	2.7022	5.11774	2.19215	1.81202	2.21804	2.18047	0.940564
0.1747	1.64146	1.89682	0.841576	2.39577	5.11774	2.19215	2.1261	2.52051	2.18047	0.940564
0.1753	1.33175	1.89682	0.841576	2.08933	4.80944	1.89705	1.81202	2.21804	2.18047	0.940564
0.1760	1.33175	1.89682	0.841576	2.08933	4.80944	1.89705	1.51001	2.21804	1.87856	0.627043
0.1767	1.64146	2.20778	0.841576	2.39577	4.80944	2.19215	1.81202	2.52051	2.18047	0.627043
0.1773	1.64146	2.20778	0.841576	2.39577	4.80944	2.19215	1.81202	2.21804	2.18047	0.940564
0.1780	1.33175	1.89682	1.14214	2.08933	4.50114	1.89705	1.81202	1.91558	1.87856	0.940564
0.1787	1.33175	1.61696	0.841576	1.7829	4.19285	1.89705	1.51001	1.91558	1.87856	0.627043
0.1793	1.33175	1.61696	0.4809	1.7829	4.19285	1.89705	1.51001	1.91558	1.87856	0.627043
0.1800	1.33175	1.61696	0.841576	1.7829	4.19285	1.89705	1.51001	1.91558	1.57665	0.627043
0.1807	1.02204	1.61696	0.4809	1.7829	4.19285	1.89705	1.51001	1.91558	1.57665	0.627043
0.1813	1.02204	1.30601	0.4809	1.7829	3.91538	1.5879	1.51001	1.91558	1.57665	0.627043
0.1820	1.02204	1.30601	0.4809	1.50432	3.91538	1.5879	1.51001	1.61312	1.57665	0.627043
0.1827	1.33175	1.61696	0.841576	1.7829	3.91538	1.89705	1.51001	1.91558	1.57665	0.627043
0.1833	0.712331	1.30601	0.4809	1.50432	3.60708	1.5879	1.51001	1.91558	1.57665	0.627043
0.1840	0.433593	0.995055	0.180338	1.19788	3.29878	1.27875	0.893927	1.0082	1.27474	0
0.1847	1.02204	1.61696	0.4809	1.7829	3.91538	1.89705	0.893927	1.0082	0.972827	-0.313521
0.1853	1.33175	1.89682	1.14214	1.7829	3.91538	1.89705	1.81202	1.61312	1.57665	0.627043
0.1860	1.02204	1.61696	0.841576	1.50432	3.29878	1.5879	1.51001	1.91558	1.57665	0.940564
0.1867	1.02204	1.61696	0.841576	1.50432	3.29878	1.5879	1.51001	1.61312	1.27474	0.940564
0.1873	1.02204	1.30601	0.841576	1.19788	3.29878	1.5879	1.51001	1.61312	1.27474	0.940564
0.1880	1.02204	1.30601	0.4809	1.50432	3.29878	1.5879	1.51001	1.61312	1.27474	0.627043
0.1887	1.02204	1.30601	0.841576	1.7829	3.29878	1.89705	1.51001	1.61312	1.27474	0.627043
0.1893	0.712331	0.995055	0.4809	1.19788	2.99049	1.5879	1.51001	1.61312	1.57665	0.940564
0.1900	0.712331	0.995055	0.4809	1.19788	3.29878	1.27875	1.51001	1.61312	1.57665	0.940564
0.1907	1.02204	1.30601	0.4809	1.50432	2.99049	1.27875	1.51001	1.61312	1.27474	0.940564
0.1913	1.02204	1.30601	0.4809	1.19788	2.99049	1.5879	1.51001	1.61312	1.57665	0.940564
0.1920	1.02204	1.30601	0.841576	1.50432	2.99049	1.5879	1.51001	1.91558	1.57665	0.940564
0.1927	1.02204	1.30601	0.4809	1.50432	2.99049	1.27875	1.20801	1.61312	1.57665	0.940564
0.1933	0.712331	0.995055	0.4809	1.19788	2.99049	1.27875	1.20801	1.61312	1.27474	0.940564
0.1940	1.02204	1.30601	0.841576	1.50432	3.29878	1.5879	1.51001	1.61312	1.27474	0.940564
0.1947	1.33175	1.30601	0.841576	1.19788	2.99049	1.27875	1.20801	1.61312	1.27474	0.940564
0.1953	1.02204	1.30601	0.4809	1.19788	2.99049	1.27875	1.20801	1.61312	1.57665	0.627043
0.1960	1.02204	1.30601	0.841576	1.19788	2.99049	1.27875	1.20801	1.61312	1.27474	0.940564
0.1967	0.712331	0.995055	0.180338	1.19788	2.68219	0.969605	0.893927	1.31066	1.27474	0.627043
0.1973	0.433593	0.6841	0.180338	0.891448	2.37389	0.674508	0.893927	1.31066	1.27474	0.627043
0.1980	1.02204	0.995055	0.841576	1.19788	2.68219	0.969605	1.20801	1.61312	1.27474	0.940564
0.1987	1.33175	1.30601	0.841576	1.19788	2.99049	1.27875	1.20801	1.61312	1.57665	0.940564
0.1993	1.02204	1.30601	0.841576	1.19788	2.99049	0.969605	1.20801	1.31066	1.27474	0.627043
0.2000	1.02204	0.995055	0.841576	1.19788	2.68219	0.969605	0.893927	1.31066	0.972827	0.627043
0.2007	1.02204	0.6841	0.4809	0.891448	2.37389	0.969605	0.893927	1.31066	1.27474	0.940564
0.2013	1.02204	0.995055	0.841576	0.891448	2.37389	0.969605	1.20801	1.31066	1.27474	0.940564
0.2020	1.02204	0.995055	0.841576	1.19788	2.68219	0.969605	1.20801	1.31066	1.27474	0.940564
0.2027	1.02204	0.995055	0.4809	1.19788	2.37389	0.969605	0.893927	1.61312	1.27474	0.627043
0.2033	0.712331	0.995055	0.841576	1.19788	2.37389	0.969605	0.893927	1.31066	1.27474	0.940564
0.2040	1.02204	0.995055	0.841576	1.19788	2.37389	0.969605	0.893927	1.31066	1.27474	0.627043
0.2047	1.02204	0.995055	0.841576	1.19788	2.37389	0.969605	0.893927	1.31066	1.27474	0.627043
0.2053	0.712331	0.995055	0.841576	0.891448	2.37389	0.969605	1.20801	1.31066	1.27474	0.940564
0.2060	1.02204	0.995055	0.4809	0.891448	2.06559	0.969605	1.20801	1.31066	1.27474	0.940564
0.2067	1.02204	0.995055	0.841576	0.891448	2.37389	0.969605	0.893927	1.31066	0.972827	0.940564
0.2073	0.712331	0.995055	0.841576	0.891448	2.37389	0.969605	0.893927	1.31066	1.27474	0.940564
0.2080	0.712331	0.995055	0.4809	0.891448	2.06559	0.969605	1.20801	1.61312	1.27474	1.25409
0.2087	0.712331	0.995055	0.4809	0.891448	2.06559	0.969605	0.893927	1.31066	0.972827	0.940564
0.2093	0.712331	0.6841	0.4809	0.891448	2.06559	0.969605	0.591925	0.705742	0.670915	0
0.2100	0.712331	0.995055	0.841576	1.19788	2.06559	1.27875	0.591925	0.403281	0.670915	0
0.2107	0.712331	0.995055	0.4809	0.891448	1.7573	0.969605	0.893927	1.0082	1.27474	0.940564
0.2113	0.433593	0.373145	0.180338	0.585013	1.449	0.674508	0.893927	1.0082	0.972827	0.940564
0.2120	0.433593	0.6841	0.4809	0.891448	1.7573	0.969605	0.893927	1.0082	0.972827	1.25409
0.2127	0.433593	0.995055	0.4809	0.585013	1.7573	0.969605	0.893927	1.0082	0.972827	0.940564
0.2133	0.433593	0.6841	0.4809	0.278578	1.449	0.674508	0.591925	0.705742	0.670915	0.627043
0.2140	0.433593	0.6841	0.180338	0.585013	1.7573	0.674508	0.893927	1.0082	0.972827	0.940564
0.2147	0.433593	0.6841	0.180338	0.585013	1.449	0.969605	0.591925	0.705742	0.670915	0.627043
0.2153	0.123884	0.6841	0.180338	0.278578	1.449	0.674508	-0.326163	-0.226845	0.0335458	-0.627043
0.2160	0.712331	0.995055	0.4809	0.585013	1.7573	0.969605	0.289922	0.10082	0.369003	0
0.2167	0.712331	0.995055	0.4809	0.891448	1.7573	1.27875	0.893927	0.705742	0.972827	0.940564
0.2173	0.433593	0.6841	0.4809	0.585013	1.7573	0.969605	0.893927	0.705742	0.670915	0.627043
0.2180	0.433593	0.6841	0.180338	0.278578	1.449	0.674508	0.591925	0.705742	0.369003	0.627043
0.2187	0.123884	0.373145	0.180338	0.278578	1.1407	0.969605	0.591925	0.705742	0.670915	0.627043
0.2193	0.123884	0.6841	0.180338	0.278578	1.449	0.969605	0.591925	0.705742	0.670915	0.627043
0.2200	0.123884	0.373145	0.180338	0.278578	1.449	0.969605	0.591925	0.705742	0.670915	0.940564
0.2207	0.433593	0.6841	0.180338	0.585013	1.449	0.969605	0.591925	0.705742	0.670915	0.940564
0.2213	0.433593	0.6841	0.4809	0.585013	1.7573	0.969605	0.591925	0.705742	0.670915	0.627043
0.2220	0.433593	0.6841	0.4809	0.585013	1.449	0.969605	0.591925	1.0082	0.369003	0.940564
0.2227	0.433593	0.6841	0.180338	0.278578	1.1407	0.969605	0.591925	0.705742	0.369003	0.627043
0.2233	0.123884	0.6841	0.180338	-0.0278578	1.1407	0.969605	0.591925	0.705742	0.670915	0.627043
0.2240	0.123884	0.6841	0.180338	0.278578	0.863233	0.969605	0.893927	1.0082	0.670915	1.25409
0.2247	0.123884	0.373145	0.180338	0.278578	0.863233	0.674508	0.591925	0.705742	0.670915	0.940564
0.2253	-0.185826	0.373145	-0.120225	-0.0278578	0.863233	0.674508	0.289922	0.403281	0.369003	0.627043
0.2260	0.123884	0.6841	-0.120225	-0.0278578	1.1407	0.969605	0.591925	0.705742	0.670915	0.627043
0.2267	0.123884	0.6841	0.180338	0.278578	1.1407	0.969605	0.893927	0.705742	0.670915	0.940564
0.2273	0.123884	0.6841	0.180338	0.278578	1.1407	0.674508	0.289922	0.403281	0.369003	0.627043
0.2280	0.123884	0.6841	0.180338	-0.0278578	1.1407	0.674508	0.591925	0.705742	0.670915	0.940564
0.2287	0.123884	0.6841	0.180338	-0.0278578	1.1407	0.674508	0.893927	0.705742	0.670915	0.940564
0.2293	0.433593	0.6841	0.4809	0.278578	1.1407	0.969605	0.893927	0.705742	0.670915	0.940564
0.2300	0.123884	0.6841	0.180338	0.278578	1.1407	0.969605	0.289922	0.403281	0.369003	0.627043
0.2307	-0.185826	0.6841	0.180338	-0.0278578	1.1407	0.674508	0.591925	0.403281	0.369003	0.627043
0.2313	0.123884	0.6841	0.180338	0.278578	1.1407	0.674508	0.591925	0.705742	0.369003	0.627043
0.2320	0.123884	0.373145	-0.120225	-0.0278578	0.863233	0.674508	0.591925	0.705742	0.670915	0.940564
0.2327	0.123884	0.373145	0.180338	-0.0278578	0.863233	0.674508	0.591925	0.705742	0.670915	0.940564
0.2333	0.123884	0.373145	0.180338	0.278578	0.863233	0.969605	0.893927	0.705742	0.670915	0.627043
0.2340	0.123884	0.6841	0.180338	0.278578	0.863233	0.674508	0.591925	0.403281	0.369003	0.627043
0.2347	0.433593	0.995055	0.180338	0.278578	1.1407	0.969605	0.289922	0.403281	0.369003	0.627043
0.2353	0.123884	0.6841	0.180338	-0.0278578	0.863233	0.674508	0.289922	0.403281	0.670915	0.940564
0.2360	0.123884	0.373145	0.180338	-0.0278578	0.863233	0.674508	0.591925	0.403281	0.670915	0.940564
0.2367	0.123884	0.373145	0.180338	-0.0278578	1.1407	0.969605	0.591925	0.403281	0.369003	0.940564
0.2373	0.123884	0.373145	0.180338	-0.0278578	0.863233	0.674508	0.591925	0.403281	0.369003	0.940564
0.2380	0.123884	0.373145	-0.120225	-0.0278578	0.863233	0.674508	0.591925	0.403281	0.369003	0.940564
0.2387	0.123884	0.373145	0.180338	-0.0278578	0.554936	0.674508	0.591925	0.705742	0.369003	0.940564
0.2393	-0.185826	0.373145	-0.120225	-0.0278578	0.863233	0.674508	0.289922	0.403281	0.369003	0.940564
0.2400	-0.185826	0.373145	-0.120225	-0.334293	0.554936	0.674508	0.289922	0.10082	0.369003	0.940564
0.2407	0.123884	0.373145	-0.120225	-0.0278578	0.554936	0.674508	0.289922	0.10082	0.0335458	0.627043
0.2413	0.123884	0.6841	0.180338	0.278578	1.1407	0.674508	-0.0120801	0.403281	0.0335458	0.627043
0.2420	0.123884	0.373145	0.180338	0.278578	-0.369957	0.674508	-0.0120801	0.403281	0.0335458	0.627043
0.2427	0.123884	0.995055	-0.120225	-0.0278578	1.449	0.674508	3.64819	0.403281	0.369003	0.940564
0.2433	1.33175	0.995055	-0.120225	-0.334293	6.04263	0.674508	-6.12461	0.403281	0.670915	0.940564
0.2440	-4.76952	-4.19789	-0.120225	-0.0278578	-18.3745	0.674508	3.95019	-0.226845	-0.268366	0.313521
0.2447	5.29603	9.23535	-1.32248	-0.947164	26.4828	0.056209	15.5471	-0.831767	-0.268366	-0.313521
0.2453	2.84932	-9.70178	0.841576	0.891448	-1.29485	1.5879	-134.898	0.10082	0.369003	0.313521
0.2460	-87.7716	-107.031	5.10957	3.00864	-397.704	2.5013	-295.733	1.31066	0.369003	0.627043
0.2467	-140.577	-154.047	-16.2905	-11.3381	-680.012	-6.04247	-280.162	-3.27666	0.0335458	0.627043
0.2473	-97.8371	-132.964	23.9849	17.9683	-608.888	13.181	-252.088	4.9654	0.369003	0.627043
0.2480	-67.0211	-131.751	-3.78709	-8.58019	-564.339	-8.79671	-251.786	0.705742	0.0335458	0.627043
0.2487	-39.2402	-136.633	-351.959	-252.419	-553.641	-158.018	-231.95	-72.2377	0.0335458	0.940564
0.2493	-9.35322	-129.015	-591.507	-405.609	-518.248	-245.001	-220.957	-128.092	0.369003	0.940564
0.2500	-17.9012	-118.318	-546.964	-355.27	-491.704	-218.147	-216.077	-116.8	0.369003	0.940564
0.2507	-76.1885	-109.176	-363.861	-324.125	-466.362	-208.381	-204.794	-110.07	0.369003	0.940564
0.2513	-128.963	-100.625	-38.5321	-302.758	-443.178	-204.109	-192.883	-112.818	0.369003	0.940564
0.2520	-123.481	-95.7429	83.1958	-282.004	-418.761	-190.366	-183.726	-108.861	0.369003	0.940564
0.2527	-104.868	-92.3846	36.1877	-273.48	-395.268	-179.995	-173.966	-104.273	0.369003	0.940564
0.2533	-106.385	-88.1245	44.4232	-255.762	-373.595	-169.611	-163.287	-101.223	0.369003	0.940564
0.2540	-111.898	-85.0772	46.2867	-245.705	-352.538	-158.636	-153.514	-96.9638	0.0335458	0.940564
0.2547	-122.552	-83.5535	47.1883	-242.948	-331.79	-149.165	-145.589	-91.4691	0.369003	1.25409
0.2553	-129.892	-81.4079	35.8872	-236.234	-311.35	-139.398	-137.037	-86.8818	0.369003	0.940564
0.2560	-116.451	-78.3605	36.1877	-226.177	-292.42	-129.646	-127.88	-82.3197	0.369003	0.940564
0.2567	-116.172	-76.5259	81.3924	-213.056	-275.032	-122.311	-121.175	-78.6398	0.0335458	0.627043
0.2573	-147.298	-76.5259	-124.012	-199.629	-257.028	-114.99	-113.541	-75.8924	0.369003	0.940564
0.2580	-162.845	-75.3132	-468.217	-188.931	-239.64	-106.755	-104.082	-71.3303	0.369003	0.940564
0.2587	-147.576	-73.4786	-504.585	-177.343	-224.071	-100.642	-97.3656	-66.743	0.369003	0.940564
0.2593	-119.207	-71.022	-432.87	-165.754	-209.118	-94.2344	-91.5672	-63.6932	0.369003	0.940564
0.2600	-78.0158	-66.7619	-428.542	-154.443	-193.857	-86.604	-82.7124	-60.0384	0.369003	0.627043
0.2607	-20.9363	-63.7146	-405.098	-144.387	-179.522	-80.5053	-73.8698	-55.4511	-1.47601	0.627043
0.2613	59.3093	-63.0927	-383.398	-135.528	-167.313	-77.1468	-69.2915	-52.4013	3.42167	0.940564
0.2620	140.205	-63.0927	-366.927	-125.778	-155.413	-73.4933	-64.4111	-51.4939	-0.268366	0.940564
0.2627	163.681	-62.4708	-344.024	-114.774	-143.512	-68.2939	-56.7765	-49.654	-13.9886	0.940564
0.2633	132.865	-60.6672	-323.586	-105.637	-132.198	-64.3312	-50.978	-45.0666	38.5105	0.627043
0.2640	97.1558	-58.8326	-307.416	-96.165	-120.606	-60.6636	-46.0977	-39.8996	-74.7064	0.627043
0.2647	42.2443	-56.0651	-290.043	-84.8826	-108.397	-57.01	-39.9972	-34.1024	-432.371	0.627043
0.2653	-63.0568	-50.2814	-276.578	-72.9595	-98.0386	-55.7874	-36.3369	-27.6751	-551.694	0.940564
0.2660	-157.363	-43.2538	-267.741	-61.0642	-88.2656	-55.1832	-35.7209	-21.878	-468.4	0.627043
0.2667	-158.881	-37.7499	-254.637	-51.6204	-79.1091	-51.5155	-32.6646	-16.6857	-451.627	0.627043
0.2673	-116.76	-35.0135	-238.166	-45.2132	-69.9527	-47.2437	-29.0043	-15.4759	-434.82	0.940564
0.2680	-108.212	-34.1117	-225.001	-39.0844	-61.4129	-45.1077	-27.4822	-18.8282	-405.837	0.627043
0.2687	-113.416	-29.5096	-212.197	-33.29	-53.7671	-40.8358	-23.2059	-19.7356	-384.77	0.627043
0.2693	-105.797	-22.8241	-197.53	-29.3342	-45.5355	-34.1189	-17.4074	-14.5685	-365.85	1.25409
0.2700	-85.9443	-22.5131	-184.125	-27.1892	-38.5064	-30.4512	-14.0492	-13.031	-347.534	0.940564
0.2707	-49.027	-27.3951	-167.654	-24.4591	-31.8163	-27.4019	-11.307	-20.3657	-329.554	0.940564
0.2713	-14.5254	-31.0644	-147.817	-20.169	-23.8622	-23.4391	-7.3447	-28.9102	-311.841	0.940564
0.2720	-19.7285	-34.4227	-131.346	-16.5197	-17.1413	-20.9941	-4.59044	-33.4723	-294.767	0.940564
0.2727	-45.6511	-35.6354	-116.678	-13.7617	-11.0679	-18.2539	-2.45226	-33.7748	-278.262	0.627043
0.2733	-45.6511	-34.4227	-100.508	-10.1124	-3.7304	-13.0686	1.81202	-30.4225	-261.489	0.627043
0.2740	-22.7636	-35.0135	-88.0048	-6.43514	2.99049	-10.3144	4.86828	-29.2127	-245.622	0.313521
0.2747	-10.8708	-35.6354	-81.5727	-2.78578	8.47818	-10.0052	4.2522	-29.8176	-231.265	-0.313521
0.2753	-11.1805	-33.8008	-76.1025	0.891448	13.6576	-7.86926	5.47229	-27.0702	-217.846	0.627043
0.2760	-5.69865	-30.4425	-71.8345	2.39577	17.9429	-4.21567	9.14464	-24.9278	-205.636	0.940564
0.2767	1.95117	-25.8714	-71.8345	3.62151	21.6117	-1.46143	12.1888	-24.3229	-193.727	0.627043
0.2773	48.9341	-21.5802	-71.2334	5.15369	24.6638	2.19215	15.5471	-20.9706	-181.852	0.627043
0.2780	106.013	-19.1548	-63.5991	6.07299	28.0242	6.77318	19.2074	-16.0808	-170.849	0.940564
0.2787	51.6905	-18.2219	-55.3636	6.68586	30.4598	9.21828	20.4275	-11.191	-160.785	0.940564
0.2793	-22.7636	-17.9421	-47.4288	9.10949	32.8953	10.1317	21.0435	-2.64653	-150.721	0.940564
0.2800	3.77845	-16.3873	-38.5321	12.4803	35.3309	11.6634	22.8676	4.66293	-139.718	0.940564
0.2807	63.5833	-13.9619	-32.7613	14.9318	37.1499	13.181	23.4837	4.36047	-129.352	0.627043
0.2813	108.77	-13.9619	-27.2911	19.194	39.9245	12.5768	24.4018	1.31066	-118.651	0.627043
0.2820	131.038	-17.0092	-16.8916	25.2948	43.5624	12.5768	25.9239	-2.34407	-106.139	0.940564
0.2827	100.222	-18.5329	-6.19159	29.8635	46.3063	13.181	27.446	-7.53631	-94.5655	0.940564
0.2833	37.6606	-19.1548	-0.120225	32.315	46.9229	14.0944	27.7601	-15.7784	-85.7094	0.627043
0.2840	29.7321	-19.4658	6.61238	33.2343	47.8478	15.0078	28.0621	-19.1306	-78.061	0.940564
0.2847	69.6846	-17.6311	11.4815	33.2343	50.2833	15.317	27.446	-15.1734	-71.0499	0.940564
0.2853	76.4053	-13.9619	12.3832	32.315	52.4106	15.0078	25.6219	-9.9812	-65.2465	0.627043
0.2860	34.5945	-10.6036	15.1484	31.0893	54.2604	16.5395	25.6219	-4.4865	-59.4766	0.940564
0.2867	-26.4492	-7.86715	21.2798	28.6656	56.0793	19.2797	27.446	-4.18404	-53.0359	0.940564
0.2873	-70.0872	-6.62333	23.9849	26.827	57.3125	22.6382	28.0621	-12.1236	-48.4736	0.940564
0.2880	-49.027	-6.34347	23.9849	27.4399	57.6208	23.8607	26.842	-18.8282	-43.9114	0.940564
0.2887	21.7726	-5.41061	25.5478	28.6656	58.8232	24.479	27.144	-19.1306	-38.108	0.940564
0.2893	50.7613	-3.26502	29.5153	30.17	60.9813	25.7016	28.0621	-14.5685	-32.3046	0.627043
0.2900	10.4991	-0.528623	31.9198	30.7828	62.1836	26.615	28.3641	-3.57912	-27.105	0.940564
0.2907	-17.5915	3.4205	33.1821	31.3957	63.7251	27.2192	29.8862	9.85518	-21.6035	0.940564
0.2913	47.7262	5.56609	37.4501	34.1536	64.9275	28.7509	31.4203	16.8622	-15.1962	0.940564
0.2920	170.402	4.66432	42.0187	35.9644	65.2358	29.3551	31.1063	18.3997	-10.3321	0.940564
0.2927	255.851	5.25513	43.822	34.7665	66.1607	28.7509	29.5842	22.3569	-7.27943	0.940564
0.2933	299.179	6.188	44.7838	33.8472	67.363	28.7509	29.5842	24.4993	-4.83059	0.940564
0.2940	300.108	5.25513	47.4889	35.6579	68.2879	29.046	30.5023	20.5421	-1.1741	0.627043
0.2947	260.744	5.25513	49.0518	36.2708	68.9045	28.7509	30.5023	16.5597	3.42167	0.940564
0.2953	251.887	8.30249	49.0518	35.9644	69.5211	29.6643	31.4203	17.1898	7.98389	1.25409
0.2960	270.5	13.1845	48.3906	37.803	70.1377	30.5777	33.5585	18.7022	11.9423	0.940564
0.2967	246.993	16.8537	46.2867	40.2545	70.1377	29.9734	33.5585	19.3071	15.5988	0.627043
0.2973	130.728	19.6212	45.385	42.3717	69.5211	28.7509	33.2444	21.4495	20.1946	0.627043
0.2980	-4.76952	20.212	46.2867	46.3553	69.8294	27.2192	33.8605	25.4067	25.998	0.940564
0.2987	-81.6703	20.834	46.8878	53.6819	71.34	23.8607	32.6404	27.8516	33.9148	0.940564
0.2993	-244.949	22.0467	47.7895	60.0892	73.1898	22.0339	31.7223	26.6417	41.5632	0.940564
0.3000	-436.907	19.9011	53.0193	62.8193	74.0839	22.3431	32.6404	21.147	46.7293	0.940564
0.3007	-430.496	15.641	58.4895	63.4321	73.7756	21.7248	32.9424	13.2074	49.1781	0.940564
0.3013	-328.57	15.0191	57.8884	63.1257	74.3922	21.1205	31.7223	12.6025	50.4193	0.940564
0.3020	-277.902	17.1647	53.9209	61.6214	74.0839	21.1205	30.8043	18.3997	50.7212	0.940564
0.3027	-248.604	14.4283	55.4238	59.4763	73.1898	20.8114	30.2003	13.5099	51.0231	0.940564
0.3033	-222.062	5.87704	61.2547	57.3313	73.1898	20.8114	30.8043	-3.88158	51.325	0.940564
0.3040	-218.995	0.6841	64.2603	55.7991	72.8815	22.0339	32.0243	-16.6857	52.2308	0.940564
0.3047	-222.65	1.30601	65.2221	54.2948	72.8815	23.8607	31.4203	-22.1804	53.7739	0
0.3053	-200.382	1.61696	66.4244	52.7626	72.8815	24.1699	29.5842	-24.6253	53.7739	0
0.3060	-164.672	0.995055	67.0255	52.1497	72.5732	23.5656	29.8862	-22.8106	53.1365	0.627043
0.3067	-135.064	2.51873	66.1238	50.6176	72.5732	24.7741	30.5023	-19.4331	52.8346	0.940564
0.3073	-106.385	3.73145	63.6592	48.5004	72.2649	25.0833	30.5023	-18.5257	53.1365	0.940564
0.3080	-79.2236	4.97527	62.4569	47.5811	71.9566	25.7016	29.8862	-16.0808	54.0758	0.940564
0.3087	-58.4731	8.02263	63.9597	47.5811	72.5732	27.2192	30.5023	-8.4689	54.6796	0.627043
0.3093	-43.2354	12.5937	63.0581	46.0489	71.9566	27.8375	30.8043	1.61312	54.9815	0.940564
0.3100	-30.7232	16.8537	59.6918	44.8231	70.7235	27.5284	29.8862	11.6951	55.2834	0.940564
0.3107	-24.0025	19.6212	57.2873	45.1296	70.1377	26.9101	29.5842	19.0046	55.2834	0.940564
0.3113	-22.1752	20.834	57.8884	45.7424	69.5211	25.9967	27.7601	22.3569	55.8872	0.940564
0.3120	-9.94167	20.212	58.7901	46.6618	68.5962	24.7741	25.9239	21.752	57.1284	0.940564
0.3127	9.57001	19.9011	61.8558	48.5004	69.2128	25.7016	27.446	21.752	59.2418	0.940564
0.3133	27.5951	21.4248	66.4244	49.3918	70.1377	27.2192	28.9802	22.0544	61.0868	1.25409
0.3140	51.3808	19.9011	68.2277	48.8068	70.1377	27.2192	27.7601	17.4923	60.7849	0.940564
0.3147	70.304	16.5428	68.2277	47.2746	69.2128	25.9967	25.3199	8.94779	58.9399	0.627043
0.3153	72.1313	14.4283	67.9272	45.7424	67.9796	25.7016	22.8676	4.36047	58.0342	0.940564
0.3160	62.3754	14.1173	68.2277	44.8231	67.0855	25.9967	21.6475	6.5029	58.3361	0.940564
0.3167	39.4879	15.3301	67.326	43.291	65.2358	25.3924	21.3455	10.7626	58.0342	0.940564
0.3173	0.712331	18.6884	68.2277	41.7866	64.3109	27.5284	22.2636	15.9548	57.7323	0.627043
0.3180	-29.4843	19.9011	70.3918	41.1738	64.3109	29.9734	23.7857	20.2397	57.7323	0.940564
0.3187	-30.4134	16.8537	69.7907	38.7223	62.1836	28.7509	21.9616	19.6095	56.1892	1.25409
0.3193	-20.0382	15.3301	69.4901	35.9644	60.3647	26.9101	20.1254	19.0046	54.3777	0.940564
0.3200	-19.1091	15.641	69.7907	34.1536	60.0564	27.2192	19.5214	19.9372	52.8346	0.940564
0.3207	-17.2818	14.7392	66.4244	31.7021	57.6208	26.3058	18.6034	19.0046	51.325	0.940564
0.3213	-10.5611	14.7392	64.2603	30.7828	55.4627	25.7016	18.9054	17.7948	51.325	0.940564
0.3220	-15.7642	16.5428	64.9215	32.315	56.3876	27.2192	21.0435	19.6095	52.5327	0.940564
0.3227	-29.4843	16.8537	63.3586	32.315	56.0793	26.615	21.3455	20.8446	52.8346	0.940564
0.3233	-30.7232	15.641	59.9923	31.3957	54.877	23.5656	19.8234	19.3071	52.8346	0.940564
0.3240	-1.7034	16.2629	59.0906	31.3957	54.877	23.2565	19.5214	19.6095	52.5327	0.940564
0.3247	36.7315	18.6884	58.4895	32.315	53.6438	23.8607	20.1254	21.752	53.4384	0.940564
0.3253	53.8275	19.9011	55.4238	33.2343	50.8999	22.0339	19.5214	20.8446	54.3777	0.940564
0.3260	73.6488	21.1449	55.1232	33.5407	50.2833	22.9473	20.4275	19.6095	54.9815	0.940564
0.3267	106.633	22.3576	56.3255	33.5407	51.2082	23.2565	22.2636	19.0046	56.4911	0.940564
0.3273	117.906	22.3576	54.8226	33.2343	50.5916	19.2797	21.0435	16.5597	58.0342	0.940564
0.3280	100.222	22.3576	52.0575	33.2343	49.3584	15.9353	19.5214	16.5597	58.9399	0.940564
0.3287	85.8824	22.6686	50.2541	32.9279	48.4644	15.317	19.5214	18.0972	59.5437	0.940564
0.3293	76.0956	21.1449	49.0518	32.0086	47.2312	14.0944	18.9054	16.8622	58.9399	0.940564
0.3300	53.5178	20.523	48.09	33.2343	47.5395	14.4036	19.2074	15.9548	59.2418	0.940564
0.3307	34.2848	21.7357	49.9535	35.0729	48.7727	15.9353	22.2636	18.3997	60.483	0.940564
0.3313	19.6356	19.6212	51.1558	33.2343	47.5395	14.7127	21.9616	17.7948	59.2418	0.940564
0.3320	4.39787	14.7392	50.8552	30.4764	45.7205	11.9585	18.2893	11.9976	56.4911	0.940564
0.3327	-4.45981	12.5937	52.0575	29.8635	46.3063	11.6634	18.6034	7.71275	55.2834	0.940564
0.3333	-10.5611	11.6608	53.6204	29.5571	46.6146	11.9585	19.8234	8.01521	54.9815	0.940564
0.3340	-2.94224	11.07	53.3198	27.4399	45.7205	10.7359	16.1632	9.25025	54.0758	-0.313521
0.3347	62.9949	14.1173	53.9209	26.827	46.3063	12.2676	15.2451	13.2074	54.3777	-0.627043
0.3353	175.605	16.2629	54.5221	28.3592	46.3063	14.4036	19.2074	19.3071	54.0758	0.627043
0.3360	261.333	13.8064	53.6204	27.4399	45.1039	12.8719	20.1254	20.5421	52.2308	1.25409
0.3367	295.215	12.9046	54.2215	26.5206	44.7956	12.8719	19.2074	19.0046	50.7212	0.940564
0.3373	288.215	17.1647	54.2215	26.5206	45.1039	14.0944	19.8234	22.3569	49.7819	0.940564
0.3380	276.292	22.6686	45.6855	24.9884	42.9767	12.5768	18.6034	26.6417	48.8762	0.940564
0.3387	285.459	28.7633	37.1496	24.3755	41.7435	13.181	18.2893	29.3891	48.8762	0.940564
0.3393	294.595	35.169	34.0838	25.2948	41.4352	15.6261	19.8234	32.7414	49.1781	0.940564
0.3400	316.275	38.2163	27.3512	24.0691	38.6913	15.0078	18.2893	34.2789	47.6685	0.627043
0.3407	345.883	38.5273	21.881	21.9519	36.5641	14.7127	17.3833	31.2039	46.4273	0.627043
0.3413	317.204	36.6926	23.0832	21.6455	36.5641	16.2303	18.2893	27.8516	45.5216	0.940564
0.3420	165.23	33.0234	23.3838	21.339	35.6392	15.317	16.7672	24.8018	44.314	0.940564
0.3427	-81.6703	29.6651	25.2473	22.2305	35.6392	14.7127	15.2451	20.5421	43.6766	0.940564
0.3433	-266.009	28.4523	28.5535	24.9884	37.4581	16.2303	16.4652	16.2573	44.314	0.940564
0.3440	-303.546	27.8615	27.0506	24.9884	37.7664	15.317	16.1632	13.5099	44.6159	0.627043
0.3447	-243.71	26.3068	25.5478	25.2948	37.1499	11.6634	13.4089	9.55272	44.9178	0.627043
0.3453	-145.161	24.5032	28.5535	27.4399	37.4581	9.82252	12.8049	5.89798	45.5216	0.940564
0.3460	-70.3659	19.6212	35.2861	27.7463	37.7664	9.82252	13.1069	6.20044	45.2197	0.940564
0.3467	-48.4076	10.759	43.822	26.827	37.1499	8.90913	11.8868	5.26786	44.6159	1.25409
0.3473	-48.7173	5.25513	52.358	27.7463	37.4581	8.59998	11.5848	-0.529306	44.314	0.940564
0.3480	-53.8894	4.35336	56.9867	28.0528	38.383	8.90913	13.1069	-5.72155	44.314	0.940564
0.3487	-60.3004	2.20778	55.7243	25.6013	36.2558	6.77318	11.2707	-8.14123	43.3747	1.25409
0.3493	-59.9907	0.0621909	55.1232	24.0691	34.406	6.46403	9.44664	-9.07382	42.167	0.940564
0.3500	-69.1581	0.6841	56.0249	25.6013	35.0226	7.99573	11.2707	-5.72155	42.167	0.627043
0.3507	-96.3196	3.4205	50.8552	24.682	32.8953	7.68658	11.2707	1.31066	41.2613	0.940564
0.3513	-108.522	9.5463	42.6198	22.5369	29.8432	8.30488	10.3647	7.71275	40.0201	1.25409
0.3520	-101.213	15.952	37.4501	22.5369	29.2266	10.1317	10.9687	12.6025	40.0201	0.940564
0.3527	-104.558	18.9993	30.1164	21.339	27.7159	9.82252	10.9687	16.2573	39.7182	0.940564
0.3533	-95.3904	21.4248	18.5147	19.194	25.2496	8.90913	10.3647	19.0046	38.5105	0.940564
0.3540	-62.4374	23.8813	11.7821	19.5004	25.5579	10.4408	10.3647	22.3569	37.9067	1.25409
0.3547	-46.2706	24.7831	9.67812	18.8876	24.9721	10.4408	10.0506	23.8944	37.2693	0.940564
0.3553	-31.0019	24.7831	9.97868	16.7425	22.5057	9.82252	9.44664	21.4495	36.0617	0.940564
0.3560	4.08816	21.7357	16.05	16.1296	21.92	11.6634	10.6667	14.745	35.7598	0.627043
0.3567	28.4932	15.3301	24.2855	14.9318	21.92	11.6634	12.1888	2.82297	36.0617	0.940564
0.3573	32.4575	10.759	27.6518	14.0125	20.9951	11.0451	12.8049	-10.2837	35.7598	0.940564
0.3580	26.666	8.02263	25.5478	13.706	20.3785	10.4408	12.1888	-20.0632	33.9148	0.940564
0.3587	23.9096	6.49895	22.4821	12.4803	19.7619	9.52742	10.6667	-25.5579	32.4052	1.25409
0.3593	33.3867	5.87704	23.0832	10.9481	19.7619	9.52742	9.74864	-25.2303	31.164	0.940564
0.3600	37.3509	7.71167	27.0506	11.8674	21.3034	10.7359	11.2707	-18.2233	30.5602	0.940564
0.3607	26.666	12.5937	29.8158	13.3996	23.4306	11.3542	13.4089	-5.39388	30.5602	0.940564
0.3613	13.5343	16.5428	27.6518	12.1738	24.0472	10.7359	13.4089	9.25025	30.2583	0.940564
0.3620	-3.84039	16.8537	24.2855	10.9481	23.7389	9.82252	11.2707	17.1898	28.7487	0.627043
0.3627	-23.0733	13.4954	23.3838	11.2545	22.814	8.59998	10.3647	15.6523	27.8094	0.940564
0.3633	-45.3414	10.759	24.9467	10.6417	22.1974	8.90913	9.74864	11.3675	27.5075	0.940564
0.3640	-74.0515	9.85726	27.6518	9.41592	21.92	10.4408	7.00646	8.64533	26.9037	-0.313521
0.3647	-85.9443	9.85726	28.2529	8.49662	21.92	10.4408	5.47229	5.89798	26.9037	0
0.3653	-75.8788	11.07	25.8484	6.68586	20.9951	9.82252	8.52855	6.20044	25.998	0.940564
0.3660	-76.7769	11.6608	24.6461	2.7022	18.8678	9.82252	10.3647	8.31767	23.5491	0.940564
0.3667	-95.7001	9.5463	23.9849	-1.86647	16.7097	8.59998	8.22655	7.71275	21.1003	0.627043
0.3673	-118.897	8.61344	24.9467	-2.17291	15.8157	8.59998	8.22655	7.71275	20.1946	0.940564
0.3680	-128.374	9.5463	26.149	1.7829	15.1991	9.52742	9.74864	9.55272	21.7041	1.25409
0.3687	-121.963	8.9244	23.3838	3.92794	13.041	7.68658	8.52855	10.4601	23.851	0.940564
0.3693	-107.903	7.40072	22.4821	4.84725	11.222	5.85979	8.52855	11.6951	27.2056	0.940564
0.3700	-70.9854	6.188	25.2473	8.21804	11.222	5.24149	10.6667	11.9976	30.2583	1.25409
0.3707	-22.7636	4.97527	24.6461	10.0288	10.2971	2.81045	9.74864	9.85518	32.1033	0.940564
0.3713	29.4224	5.25513	21.5804	9.10949	8.47818	0.969605	9.14464	7.71275	32.4052	0.627043
0.3720	94.3994	8.61344	20.0175	8.21804	8.16988	3.4147	11.2707	6.20044	31.4659	0.940564
0.3727	152.718	13.8064	17.9135	6.68586	6.35093	4.94639	12.4908	4.66293	29.6545	1.25409
0.3733	184.122	19.3103	15.4489	4.84725	4.19285	2.5013	9.44664	4.05801	28.4468	0.940564
0.3740	222.898	24.5032	13.6455	2.7022	3.91538	0.969605	6.08837	4.05801	27.8094	0.627043
0.3747	280.566	29.6651	10.2792	0.585013	4.50114	0.969605	3.95019	3.75555	26.6018	0.940564
0.3753	286.078	35.169	5.71069	-0.334293	5.42604	0.056209	2.1261	3.75555	25.0587	0.940564
0.3760	254.643	41.8856	4.14777	-0.334293	6.96752	0.056209	2.4281	5.89798	25.0587	0.627043
0.3767	239.065	46.7676	-0.420788	0.585013	8.78648	1.27875	4.2522	9.55272	25.6961	0.940564
0.3773	201.218	47.0785	-5.89103	1.7829	10.2971	0.674508	4.56628	12.6025	26.2999	0.940564
0.3780	147.205	42.5075	-3.12585	3.31507	11.222	0.674508	4.86828	9.85518	25.998	0.627043
0.3787	119.734	33.9562	4.14777	4.54082	12.1469	1.27875	6.08837	2.52051	25.6961	0.627043
0.3793	90.1564	26.0269	8.41576	5.46012	13.6576	0.674508	6.08837	-3.57912	25.998	0.627043
0.3800	22.392	19.3103	10.2792	6.9923	14.5825	0.674508	6.08837	-7.23385	26.2999	0.627043
0.3807	-61.2295	14.7392	10.8804	7.60517	15.1991	2.19215	7.61046	-7.83877	25.998	0.627043
0.3813	-98.7663	10.4481	8.77643	6.9923	15.5074	1.89705	7.92455	-8.77136	24.7568	0.627043
0.3820	-71.2951	5.87704	8.11519	7.60517	15.5074	0.969605	7.61046	-10.5861	24.153	0.940564
0.3827	-41.3772	4.04241	10.5798	8.49662	16.7097	2.5013	10.3647	-8.77136	24.4549	0.940564
0.3833	-45.0627	2.51873	10.8804	8.49662	17.3263	2.81045	11.8868	-4.18404	23.851	0.940564
0.3840	-49.3367	0.6841	9.67812	8.49662	17.018	2.19215	11.5848	-1.13423	23.2472	0.940564
0.3847	-42.616	2.20778	10.8804	9.10949	17.9429	4.63724	11.5848	0.403281	22.3415	0.940564
0.3853	-38.9614	3.14064	12.0826	8.80305	17.6346	6.16894	10.9687	1.61312	22.006	0.940564
0.3860	-34.3777	1.30601	11.4815	8.21804	16.7097	5.85979	9.14464	2.82297	23.2472	0.627043
0.3867	-25.52	0.995055	12.3832	8.21804	17.3263	5.85979	7.92455	4.66293	25.998	0.627043
0.3873	-18.4896	3.4205	14.8478	8.80305	19.1453	7.37743	8.52855	7.10783	24.4549	0.940564
0.3880	-15.1448	4.35336	14.5472	8.49662	18.2512	7.68658	7.92455	8.31767	18.9534	0.940564
0.3887	-10.5611	3.73145	13.345	8.21804	16.0931	7.68658	5.47229	9.25025	13.7873	0.940564
0.3893	-5.38894	4.35336	15.1484	6.9923	15.8157	10.1317	4.56628	11.065	9.19154	0.940564
0.3900	4.08816	3.4205	16.7113	3.31507	14.8908	11.9585	3.64819	11.3675	3.72358	0.627043
0.3907	21.1841	1.61696	17.9135	-1.2536	12.7635	12.8719	2.7301	11.6951	-10.0302	0.627043
0.3913	23.3211	2.51873	21.5804	-4.01152	12.7635	15.6261	3.95019	14.745	-20.3958	0.940564
0.3920	8.36215	3.4205	23.3838	-7.04801	11.8386	17.762	5.17028	17.1898	-9.72827	0.940564
0.3927	11.3973	1.89682	24.6461	-10.7252	10.6054	17.4529	5.78637	16.8622	2.18047	0.940564
0.3933	24.2193	0.6841	27.3512	-12.2296	11.222	16.5395	6.08837	16.5597	4.02549	0.940564
0.3940	30.3205	-0.528623	28.2529	-13.1489	10.9137	14.0944	2.1261	15.0474	6.13888	-0.313521
0.3947	70.9234	-0.528623	26.4495	-14.0682	10.2971	11.0451	-3.37035	14.4425	1.57665	-0.627043
0.3953	108.77	1.89682	23.9849	-13.4553	10.9137	8.59998	-2.15026	17.7948	-10.9359	0.313521
0.3960	97.1558	4.66432	22.1815	-14.3746	9.40308	7.99573	0.591925	22.987	-17.0412	0.940564
0.3967	81.6084	7.08976	22.4821	-20.169	8.47818	8.59998	1.51001	25.1042	-17.0412	0.627043
0.3973	52.3099	4.97527	23.3838	-25.3506	8.16988	9.21828	1.20801	23.2895	-21.3016	0.627043
0.3980	6.22516	3.14064	25.2473	-25.3506	2.99049	3.10555	0.591925	21.147	-17.0412	0.627043
0.3987	-7.52593	18.3774	19.1158	-26.2699	25.5579	-3.59738	8.52855	18.3997	5.83696	0.940564
0.3993	-2.32282	35.4799	9.97868	-9.19306	70.1377	14.4036	16.7672	15.3499	15.5988	0.627043
0.4000	-2.63253	35.169	30.1164	28.0528	79.5716	35.4538	16.1632	14.745	9.19154	0.627043
0.4007	-3.25195	32.1216	54.8226	41.1738	71.6483	33.9362	15.2451	15.0474	12.5461	0.940564
0.4013	-2.94224	32.4326	53.0193	35.6579	71.9566	31.1819	15.5471	14.745	24.7568	0.940564
0.4020	-2.63253	31.8107	49.3524	35.6579	70.7235	32.1094	14.9431	14.4425	51.325	0.940564
0.4027	-2.63253	30.9089	49.9535	35.0729	68.2879	30.5777	14.327	14.1148	71.1506	0.940564
0.4033	-2.94224	29.976	48.3906	33.5407	66.7772	29.9734	14.025	13.8124	67.796	0.627043
0.4040	-2.32282	29.6651	47.1883	33.2343	65.8524	29.6643	14.025	13.2074	64.7433	0.940564
0.4047	-2.01311	29.0743	46.2867	32.6214	64.3109	28.7509	13.4089	13.2074	64.4414	0.940564
0.4053	-2.32282	28.1414	44.7838	31.7021	62.8002	27.8375	13.1069	12.905	62.2945	0.940564
0.4060	-2.32282	27.5506	43.822	30.7828	60.9813	27.2192	13.1069	12.6025	61.0868	0.940564
0.4067	-2.32282	26.6177	42.3192	29.8635	59.4398	26.3058	12.8049	12.6025	59.8792	0.940564
0.4073	-2.63253	26.0269	41.117	29.2507	57.9291	25.7016	12.4908	11.9976	58.0342	0.627043
0.4080	-2.32282	25.7159	40.4557	28.3592	57.0042	25.0833	12.1888	11.6951	56.4911	0.940564
0.4087	-2.01311	25.094	39.8546	27.7463	56.0793	24.479	11.8868	11.3675	55.2834	0.940564
0.4093	-2.01311	24.5032	38.6524	27.4399	54.5687	23.8607	11.5848	11.065	54.0758	0.940564
0.4100	-1.7034	23.8813	37.7507	26.5206	53.3355	23.5656	11.2707	11.065	52.8346	0.940564
0.4107	-1.7034	23.2594	36.849	25.9077	52.1331	22.6382	11.2707	10.7626	51.6269	0.940564
0.4113	-1.7034	22.9795	35.8872	25.2948	50.8999	22.3431	10.6667	10.4601	50.4193	0.940564
0.4120	-1.42466	22.3576	34.9855	24.9884	49.6667	22.0339	10.3647	9.85518	49.1781	0.627043
0.4127	-1.7034	21.7357	34.3844	24.0691	48.4644	21.4156	10.3647	10.1576	48.2724	0.940564
0.4133	-1.7034	20.834	32.8816	23.1498	47.2312	20.2071	10.0506	9.85518	46.7293	0.627043
0.4140	-1.7034	20.523	31.9198	22.5369	46.3063	19.898	9.44664	8.64533	45.2197	-0.313521
0.4147	-1.42466	20.523	31.9198	22.5369	45.7205	19.898	9.74864	8.94779	44.314	0
0.4153	-1.42466	19.9011	31.0181	21.9519	44.179	19.2797	9.74864	9.25025	43.6766	0.940564
0.4160	-1.7034	18.9993	29.8158	21.0326	42.9767	18.3663	9.14464	8.94779	42.4689	0.940564
0.4167	-1.42466	18.6884	29.2147	20.7262	42.3601	18.0712	9.14464	8.64533	41.5632	0.940564
0.4173	-1.42466	18.0976	28.5535	20.1133	41.1269	17.762	8.83055	8.64533	40.6239	0.940564
0.4180	-1.42466	18.0976	27.9523	19.8069	40.202	17.4529	8.52855	8.31767	39.4163	0.940564
0.4187	-1.11495	17.7866	27.3512	19.5004	39.6162	17.1437	8.52855	8.31767	38.5105	1.25409
0.4193	-1.42466	17.1647	26.7501	18.8876	38.6913	16.5395	8.22655	8.01521	37.5713	0.940564
0.4200	-1.42466	16.5428	25.8484	18.2747	37.4581	15.9353	7.92455	7.71275	36.6655	0.940564
0.4207	-1.11495	16.2629	25.2473	17.6618	36.8724	15.6261	7.92455	7.71275	35.7598	0.940564
0.4213	-1.11495	16.2629	24.6461	17.3554	35.9475	15.317	7.61046	7.41029	35.156	0.940564
0.4220	-1.11495	15.641	23.9849	17.049	35.0226	15.0078	7.30846	7.10783	33.9148	0.627043
0.4227	-1.11495	15.3301	23.6843	16.7425	34.0977	14.7127	7.30846	7.10783	33.3109	0.940564
0.4233	-1.11495	14.7392	22.7827	16.1296	33.2036	14.0944	7.30846	7.10783	32.7071	0.940564
0.4240	-1.7034	13.8064	21.5804	15.2103	31.9705	13.181	6.39037	5.89798	31.164	0
0.4247	-1.42466	13.8064	21.5804	15.2103	31.6622	13.181	6.39037	5.57032	30.2583	-0.627043
0.4253	-0.805244	14.4283	21.5804	15.2103	31.3539	13.4902	6.69238	6.5029	30.5602	0.313521
0.4260	-0.805244	13.8064	20.9793	14.6253	30.4598	13.181	6.69238	6.5029	29.6545	0.940564
0.4267	-1.11495	13.4954	20.0175	14.3189	29.5349	12.5768	6.39037	6.20044	28.7487	0.940564
0.4273	-1.11495	13.1845	19.7169	14.0125	28.9183	11.9585	6.39037	6.20044	28.4468	1.25409
0.4280	-1.11495	12.5937	19.1158	13.3996	28.3017	11.6634	6.08837	5.89798	27.5075	0.940564
0.4287	-0.805244	12.2827	18.5147	13.3996	27.7159	11.6634	6.08837	5.89798	26.9037	0.940564
0.4293	-0.805244	11.9718	18.5147	13.0931	27.4077	11.6634	5.78637	5.89798	26.2999	0.940564
0.4300	-0.805244	11.9718	17.9135	12.7867	26.4828	11.0451	5.78637	5.57032	25.6961	0.940564
0.4307	-0.805244	11.6608	17.3124	12.1738	25.5579	10.7359	5.78637	5.89798	25.3941	0.940564
0.4313	-0.805244	11.3809	17.0118	11.8674	25.2496	10.7359	5.47229	5.57032	24.4549	0.940564
0.4320	-0.805244	10.759	16.3506	11.561	24.6638	10.4408	5.17028	5.26786	23.851	0.940564
0.4327	-0.805244	10.759	16.3506	11.561	24.0472	10.1317	5.47229	5.26786	23.2472	0.940564
0.4333	-0.495535	10.759	16.05	11.2545	23.7389	10.1317	4.86828	4.9654	22.6434	0.627043
0.4340	-0.495535	10.4481	15.7495	10.9481	23.1223	9.82252	4.86828	4.66293	22.006	0.627043
0.4347	-0.495535	10.1371	15.1484	10.6417	22.5057	9.52742	4.86828	4.9654	21.7041	0.627043
0.4353	-0.805244	9.85726	14.5472	10.0288	21.92	8.90913	4.56628	4.66293	21.1003	0.627043
0.4360	-0.805244	9.23535	13.9461	9.72236	21.3034	8.59998	4.56628	4.66293	20.7984	0.627043
0.4367	-0.495535	9.23535	13.9461	10.0288	21.3034	8.90913	4.56628	4.66293	20.4965	0.627043
0.4373	-0.495535	9.23535	13.9461	9.72236	20.9951	8.59998	4.2522	4.36047	19.5907	0.627043
0.4380	-0.495535	8.9244	13.345	9.41592	20.0702	8.30488	3.95019	4.05801	18.9534	0.627043
0.4387	-0.495535	8.61344	13.0444	9.10949	19.4536	8.30488	3.95019	4.05801	18.6514	0.627043
0.4393	-0.495535	8.61344	12.7439	8.80305	19.1453	7.99573	4.2522	4.05801	18.3495	0.627043
0.4400	-0.495535	8.30249	12.3832	8.49662	18.5595	7.68658	4.2522	4.05801	18.0476	0.627043
0.4407	-0.495535	8.30249	12.3832	8.49662	18.5595	7.68658	4.2522	4.05801	17.7457	0.940564
0.4413	-0.185826	8.30249	11.7821	8.49662	17.9429	7.68658	4.2522	4.05801	17.1419	1.25409
0.4420	-0.495535	7.71167	11.4815	7.9116	17.3263	7.08233	3.95019	4.05801	16.84	1.25409
0.4427	-0.495535	7.71167	11.1809	7.9116	17.018	7.08233	3.64819	3.75555	16.5381	0.940564
0.4433	-0.495535	7.71167	11.1809	7.9116	16.7097	7.08233	3.34619	3.45309	15.9342	0.627043
0.4440	-0.495535	7.40072	10.8804	7.60517	16.4014	6.77318	3.34619	3.45309	15.5988	0.627043
0.4447	-0.495535	7.08976	10.5798	7.29873	16.0931	6.77318	3.34619	3.15063	15.2969	0.627043
0.4453	-0.185826	7.08976	10.5798	7.29873	15.8157	6.46403	3.34619	3.45309	14.693	0.940564
0.4460	-0.495535	6.77881	9.97868	6.9923	15.1991	6.16894	3.64819	3.45309	14.693	0.940564
0.4467	-0.495535	6.49895	9.67812	6.68586	14.8908	6.16894	3.34619	3.45309	14.3911	0.627043
0.4473	-0.495535	6.49895	9.67812	6.68586	14.5825	5.85979	3.34619	3.15063	14.0892	0.940564
0.4480	-0.495535	6.188	9.07699	6.37943	13.9659	5.55064	3.34619	3.15063	13.4854	0.940564
0.4487	-0.185826	6.188	8.77643	6.07299	13.9659	5.55064	3.03211	3.15063	13.1835	0.940564
0.4493	0.123884	6.49895	9.07699	6.37943	13.6576	5.85979	3.03211	3.15063	12.8816	0.940564
0.4500	-0.185826	6.188	8.77643	6.37943	13.3493	5.55064	3.03211	2.82297	12.5461	0.627043
0.4507	-0.495535	5.56609	8.41576	5.76656	13.041	5.24149	2.7301	2.82297	12.5461	0.627043
0.4513	-0.185826	5.87704	8.11519	5.76656	12.7635	5.24149	3.03211	2.82297	12.2442	0.940564
0.4520	-0.185826	5.56609	8.11519	5.46012	12.4552	5.24149	3.03211	2.82297	11.9423	0.940564
0.4527	-0.185826	5.56609	8.11519	5.46012	12.1469	5.24149	2.7301	2.82297	11.6404	0.940564
0.4533	-0.185826	5.25513	7.51407	5.15369	11.8386	4.63724	2.7301	2.82297	11.0366	0.627043
0.4540	-0.805244	4.66432	6.91294	4.54082	10.9137	4.033	1.81202	1.61312	10.4327	-0.313521
0.4547	-0.495535	4.97527	7.2135	4.84725	11.222	4.32809	1.81202	1.61312	10.1308	-0.313521
0.4553	-0.185826	5.25513	7.2135	5.15369	11.222	4.63724	2.4281	2.21804	10.4327	0.313521
0.4560	-0.495535	4.66432	6.61238	4.54082	10.9137	4.32809	1.81202	1.31066	9.49345	-0.627043
0.4567	-0.185826	4.97527	6.91294	4.84725	10.9137	4.32809	1.81202	1.31066	9.49345	-0.313521
0.4573	0.123884	4.66432	6.91294	4.84725	10.6054	4.63724	2.4281	2.52051	10.1308	0.940564
0.4580	-0.185826	4.66432	6.61238	4.54082	10.2971	4.033	2.4281	2.52051	9.82891	0.940564
0.4587	-0.185826	4.66432	6.31182	4.23438	9.98884	4.033	2.4281	2.21804	9.49345	0.940564
0.4593	-0.185826	4.35336	6.31182	4.23438	9.71137	4.033	2.1261	2.21804	9.19154	0.940564
0.4600	-0.185826	4.04241	6.01125	4.23438	9.71137	4.033	1.81202	2.21804	8.88963	0.940564
0.4607	-0.185826	4.04241	5.71069	3.62151	9.40308	3.4147	1.81202	2.21804	8.58772	0.627043
0.4613	-0.185826	4.04241	5.71069	3.62151	9.09478	3.4147	1.81202	1.91558	8.2858	0.627043
0.4620	0.123884	4.04241	5.71069	3.92794	9.40308	3.72385	1.81202	1.91558	8.2858	0.940564
0.4627	0.123884	4.04241	5.71069	3.92794	8.78648	3.72385	2.1261	1.91558	8.2858	0.940564
0.4633	0.123884	4.04241	5.41013	3.31507	8.47818	3.4147	1.81202	1.91558	7.98389	0.627043
0.4640	-0.185826	3.73145	5.10957	3.31507	8.16988	3.10555	1.81202	1.91558	7.68198	0.627043
0.4647	-0.185826	3.4205	5.10957	3.31507	8.16988	3.10555	2.1261	2.21804	7.68198	0.940564
0.4653	-0.185826	3.4205	4.809	3.31507	7.86159	3.10555	2.1261	1.91558	7.38007	0.940564
0.4660	-0.185826	3.4205	4.809	3.00864	7.55329	2.81045	1.81202	1.91558	7.07816	0.627043
0.4667	-0.185826	3.4205	4.809	3.00864	7.55329	2.5013	1.81202	2.21804	7.07816	0.940564
0.4673	-0.185826	3.14064	4.44833	3.00864	7.24499	2.5013	1.81202	1.91558	6.77624	0.627043
0.4680	-0.185826	3.4205	4.44833	3.00864	7.55329	2.81045	1.81202	1.61312	6.77624	0.627043
0.4687	0.123884	3.4205	4.44833	3.00864	7.24499	2.81045	1.51001	1.61312	6.47433	0.627043
0.4693	-0.185826	3.14064	4.14777	3.00864	6.96752	2.81045	1.20801	1.31066	6.47433	0.627043
0.4700	-0.185826	3.14064	4.14777	2.7022	6.65923	2.5013	1.81202	1.61312	6.47433	0.627043
0.4707	-0.185826	2.82969	4.14777	2.39577	6.35093	2.19215	1.51001	1.61312	6.13888	0.940564
0.4713	-0.185826	2.82969	4.14777	2.39577	6.35093	2.5013	1.51001	1.61312	6.13888	0.627043
0.4720	-0.185826	3.14064	4.14777	2.39577	6.35093	2.5013	1.51001	1.31066	5.83696	0.627043
0.4727	-0.185826	2.82969	3.8472	2.39577	6.04263	2.19215	1.20801	1.31066	5.53505	0.627043
0.4733	-0.185826	2.82969	3.8472	2.39577	6.04263	2.19215	1.20801	1.31066	5.53505	0.627043
0.4740	-0.185826	2.51873	3.54664	2.39577	5.73433	2.19215	1.51001	1.61312	5.53505	0.627043
0.4747	-0.185826	2.51873	3.24608	2.08933	5.73433	2.19215	1.51001	1.61312	5.53505	0.940564
0.4753	-0.185826	2.51873	3.24608	2.08933	5.42604	2.19215	1.20801	1.31066	5.23314	0.940564
0.4760	-0.185826	2.51873	3.24608	2.08933	5.73433	2.19215	1.20801	1.61312	5.23314	0.940564
0.4767	-0.185826	2.82969	3.54664	2.08933	5.73433	2.19215	1.20801	1.31066	5.23314	0.940564
0.4773	0.123884	2.82969	3.54664	2.39577	5.42604	2.19215	1.20801	1.31066	4.62932	0.627043
0.4780	0.123884	2.51873	3.24608	2.08933	5.42604	2.19215	1.20801	1.31066	4.62932	0.627043
0.4787	0.123884	2.20778	3.24608	2.08933	5.11774	1.89705	1.20801	1.31066	4.62932	0.627043
0.4793	0.123884	2.20778	3.24608	1.7829	5.11774	1.89705	0.893927	1.31066	4.3274	0.627043
0.4800	-0.185826	2.20778	2.94551	1.7829	4.80944	1.89705	0.893927	1.0082	4.3274	0.627043
0.4807	-0.185826	2.20778	2.94551	1.7829	4.80944	1.5879	0.893927	1.0082	4.3274	0.627043
0.4813	0.123884	2.20778	2.94551	1.7829	4.80944	1.89705	1.20801	1.31066	4.3274	0.627043
0.4820	0.123884	1.89682	2.64495	1.7829	4.50114	1.5879	1.20801	1.31066	4.3274	0.627043
0.4827	-0.185826	1.89682	2.64495	1.7829	4.50114	1.5879	1.51001	1.31066	4.3274	1.25409
0.4833	-0.185826	1.89682	2.64495	1.50432	4.50114	1.5879	1.20801	1.0082	4.02549	0.627043
0.4840	-0.495535	1.61696	2.34439	1.19788	4.19285	1.27875	-0.0120801	0.10082	3.08621	-0.940564
0.4847	-0.185826	1.89682	2.64495	1.50432	4.19285	1.27875	0.289922	0.10082	3.42167	-0.627043
0.4853	0.123884	1.89682	2.64495	1.7829	4.19285	1.89705	0.893927	1.31066	4.02549	0.940564
0.4860	0.123884	1.61696	2.34439	1.50432	4.19285	1.5879	0.893927	1.31066	3.72358	0.940564
0.4867	-0.185826	1.89682	2.34439	1.50432	4.19285	1.5879	0.893927	1.0082	3.72358	0.627043
0.4873	0.123884	1.89682	2.34439	1.50432	4.19285	1.5879	0.893927	1.0082	3.42167	0.940564
0.4880	0.123884	1.89682	2.34439	1.50432	3.91538	1.89705	0.591925	1.0082	3.42167	0.627043
0.4887	-0.185826	1.61696	2.04383	1.19788	3.91538	1.27875	0.893927	1.0082	3.72358	0.627043
0.4893	-0.185826	1.30601	1.74326	0.891448	3.60708	0.969605	1.20801	1.31066	3.42167	0.940564
0.4900	-0.185826	1.61696	1.74326	1.19788	3.29878	1.27875	1.20801	1.31066	1.57665	0.940564
0.4907	0.123884	1.89682	2.04383	1.50432	3.60708	1.5879	0.893927	1.0082	8.88963	0.627043
0.4913	0.123884	1.61696	1.74326	1.50432	3.60708	1.5879	0.893927	1.0082	-2.68366	0.627043
0.4920	0.123884	1.61696	3.24608	0.891448	3.60708	0.969605	0.591925	0.705742	-0.570278	0.627043
0.4927	0.123884	1.61696	1.74326	1.19788	3.60708	1.27875	0.591925	0.705742	103.489	0.627043
0.4933	0.123884	1.61696	-3.12585	3.00864	2.37389	2.19215	0.591925	1.31066	155.384	0.627043
0.4940	-0.185826	1.30601	14.5472	-3.39865	4.50114	-1.46143	0.591925	0.10082	80.0067	0.940564
0.4947	0.123884	1.30601	-24.2254	4.23438	3.29878	2.81045	0.591925	2.21804	74.8071	0.940564
0.4953	0.123884	1.89682	-146.614	2.7022	-3.7304	4.63724	0.289922	1.0082	142.57	0.627043
0.4960	-0.185826	1.89682	-189.294	-143.774	19.4536	-53.0472	0.893927	-22.4829	50.0838	0.627043
0.4967	-0.495535	0.0621909	-165.49	-337.553	-41.5585	-118.039	-0.628165	-42.9494	-208.386	0.627043
0.4973	-0.805244	3.14064	-163.686	-336.94	-245.744	-122.62	-0.0120801	-41.1094	-388.125	0.940564
0.4980	-2.01311	-6.93429	-155.15	-224.645	-347.051	-117.125	1.81202	-38.0596	-423.549	0.627043
0.4987	-3.56166	-54.8524	-145.052	-187.706	-330.587	-125.065	-31.1425	-39.8996	-361.288	0.627043
0.4993	-7.52593	-95.1521	-141.385	-199.322	-329.354	-137.262	-77.2281	-41.7144	-206.541	0.940564
0.5000	-21.5558	-89.0263	-133.45	-190.77	-315.018	-155.882	-76.612	-40.5045	-37.1687	0.940564
0.5007	-41.0984	-77.7386	-127.679	-180.992	-297.6	-175.105	-76.008	-37.4547	32.4052	0.940564
0.5013	-30.4134	-78.9514	-124.613	-157.508	-289.368	-189.143	-85.4667	-35.3123	-39.0137	0.940564
0.5020	-2.63253	-66.7619	-116.678	-97.6972	-276.265	-189.143	-45.4816	-33.1698	-214.19	0.627043
0.5027	-0.495535	-47.8248	-108.744	-32.3707	-258.538	-171.451	2.7301	-31.0274	-310.298	0.627043
0.5033	0.712331	-36.5372	-104.776	22.8434	-228.325	-149.783	11.8868	-29.8176	-201.073	0.627043
0.5040	2.26088	-26.1824	-99.0054	72.9038	-199.037	-134.522	-13.7472	-27.0702	-22.8447	0.627043
0.5047	-41.9966	-24.3477	-94.7374	112.88	-189.572	-125.065	-57.3926	-23.113	57.1284	0.627043
0.5053	-91.4262	-29.2297	-90.7699	129.956	-183.468	-118.348	-70.8135	-19.7356	-8.78899	0.940564
0.5060	-94.4923	-25.2495	-82.8351	120.513	-173.417	-113.472	-52.1981	-13.6359	-84.8037	0.627043
0.5067	-86.254	-19.4658	-76.1025	102.823	-166.696	-108.582	-33.8847	-6.93139	-34.116	0.627043
0.5073	-82.5994	-18.5329	-73.3373	94.2707	-159.051	-100.951	-25.042	-3.88158	3.42167	0.627043
0.5080	-73.1223	-24.9386	-69.971	95.8028	-152.052	-93.9393	-22.9039	-2.9742	-107.38	0.627043
0.5087	-65.1938	-42.352	-66.6047	100.065	-157.848	-88.1357	-22.6019	-3.27666	-304.227	0.627043
0.5093	-59.9907	-54.5414	-62.9979	81.4561	-155.413	-80.1962	-22.6019	-0.831767	-423.549	0.940564
0.5100	-54.5088	-43.8757	-58.0687	9.72236	-127.635	-71.9616	-16.4893	4.36047	-324.052	0.940564
0.5107	-47.7881	-28.9188	-52.5985	-124.246	-110.247	-58.8368	-9.4708	7.71275	-82.0529	0.627043
0.5113	-42.616	-27.7061	-49.2322	-318.024	-113.885	-45.1077	-15.2692	6.80536	58.638	0.627043
0.5120	-41.0984	-26.1824	-49.5327	-471.214	-111.758	-55.7874	-30.5385	1.91558	29.3525	0.940564
0.5127	-37.1032	-12.7491	-48.0299	-464.807	-105.962	-87.2223	-36.0229	-0.529306	36.6655	0.627043
0.5133	-30.1037	-2.98516	-45.8659	-401.04	-107.503	-106.446	-23.822	-2.9742	144.716	0.627043
0.5140	-25.52	-14.5838	-45.8659	-377.528	-109.939	-108.582	-9.4708	-11.191	234.116	-0.313521
0.5147	-27.0376	-33.8008	-43.4614	-324.738	-95.2948	-100.642	-2.45226	-18.2233	239.617	-0.627043
0.5153	-36.8244	-45.9902	-37.931	-207.847	-64.465	-85.6906	0.893927	-23.113	157.229	0.313521
0.5160	-51.164	-66.14	-36.1276	-79.3668	-42.7917	-76.5426	0.591925	-26.4653	97.0814	1.25409
0.5167	-59.0925	-91.4828	-34.5647	7.9116	-30.5831	-69.8256	-3.98643	-27.3727	101.677	0.627043
0.5173	-58.1634	-101.838	-27.5917	44.5167	-18.6828	-54.5649	-10.0869	-28.3053	36.6655	-0.313521
0.5180	-58.7828	-95.1521	-22.3619	34.7665	-10.7596	-34.428	-14.6652	-28.6077	-56.424	0.627043
0.5187	-69.4678	-85.668	-21.1596	20.1133	-8.2932	-15.8088	-17.7215	-30.725	-57.9335	0.940564
0.5193	-74.9496	-79.5733	-15.3888	37.4966	-11.9619	-1.46143	-17.4074	-33.4723	-42.3683	0.627043
0.5200	-71.2951	-72.8567	-11.4214	54.2948	-19.916	12.5768	-18.0235	-33.4723	-46.6286	0.627043
0.5207	-79.843	-71.9549	-12.0225	67.1094	-30.2748	29.046	-22.2878	-28.9102	-82.9587	0.627043
0.5213	-93.5632	-57.5888	-10.7601	70.1459	-37.6123	44.0116	-24.124	-19.7356	-146.729	0.940564
0.5220	-90.2183	15.952	-10.159	68.6415	-47.077	43.3933	-25.3441	-13.6359	-135.458	0.940564
0.5227	-77.0866	80.0397	-11.4214	139.428	-64.1567	33.0228	-25.042	-12.7286	-71.3518	0.627043
0.5233	-61.8489	52.5824	-7.75452	228.239	-76.6736	36.9855	-15.5833	-13.3335	-111.036	0.627043
0.5240	-36.8244	9.85726	-3.78709	255.706	-80.3423	51.0237	-3.06835	-13.6359	-276.753	0.627043
0.5247	-15.7642	6.77881	-3.48653	272.783	-81.853	58.3449	-0.0120801	-13.031	-353.941	0.627043
0.5253	-6.2871	14.7392	-2.82529	301.477	-78.8008	60.4809	-3.67235	-11.191	-263.636	0.940564
0.5260	29.1127	24.5032	-2.22416	360.368	-67.2089	65.3711	-11.005	-9.37628	-156.189	0.940564
0.5267	98.9831	35.7909	-4.38822	428.425	-55.9252	76.9642	-23.2059	-8.14123	-31.0634	0.940564
0.5273	133.794	45.2439	-4.98934	401.57	-51.9481	89.4707	-35.4189	-6.62893	137.068	0.940564
0.5280	125.556	55.0079	-4.38822	323.15	-46.4604	89.7798	-42.4374	-3.27666	174.002	0.940564
0.5287	126.764	62.6262	-7.09328	315.211	-32.7104	76.655	-46.3997	1.31066	91.3116	0.940564
0.5293	136.83	67.5082	-12.6236	322.231	-16.8639	63.8394	-47.9338	4.9654	70.2448	0.627043
0.5300	156.682	71.1775	-16.8916	279.497	-2.49721	59.8766	-46.3997	8.94779	82.4555	0.940564
0.5307	179.569	70.8665	-16.8916	175.755	8.47818	58.9632	-45.1796	9.85518	75.7463	0.940564
0.5313	161.544	66.9174	-11.4214	-66.5522	15.5074	54.6914	-39.6831	7.41029	73.5994	0.627043
0.5320	112.734	65.7047	-4.68878	-357.081	16.0931	42.1708	-26.8661	6.20044	72.9956	0.940564
0.5327	113.323	65.9846	-3.12585	-496.565	10.2971	29.9734	-16.4893	5.57032	71.1506	0.940564
0.5333	147.824	63.8701	-3.78709	-492.887	0.863233	32.7136	-10.3889	2.21804	69.0036	0.627043
0.5340	157.27	58.3662	-0.420788	-404.077	-5.54936	42.1708	-5.50853	-3.57912	67.1922	0.627043
0.5347	179.569	53.1732	6.31182	-315.573	-10.7596	51.0237	-0.628165	-6.32647	65.951	0.627043
0.5353	214.04	50.4368	10.5798	-339.698	-9.52639	54.6914	7.92455	-2.34407	64.1395	0.940564
0.5360	231.136	48.6022	12.3832	-403.464	11.8386	43.7025	8.52855	4.05801	62.5964	0.627043
0.5367	179.26	45.5548	15.7495	-407.141	36.2558	30.8868	-4.28844	5.89798	61.0868	0.940564
0.5373	43.1425	39.4601	20.318	-308.58	50.2833	25.9967	-16.8034	4.05801	59.8792	0.940564
0.5380	-47.4784	33.3343	21.2798	-90.3706	57.0042	18.6754	-23.52	2.52051	58.3361	0.940564
0.5387	-56.9555	31.2198	17.9135	143.997	66.4689	11.3542	-26.8661	1.0082	56.8265	0.940564
0.5393	-129.892	31.4997	11.4815	266.989	85.0901	10.4408	-27.4822	-0.831767	55.2834	0.627043
0.5400	-276.694	30.5979	4.809	293.537	86.2925	9.52742	-26.8661	-4.18404	54.0758	0.627043
0.5407	-344.737	29.976	6.01125	319.473	75.0088	8.30488	-22.9039	-7.83877	52.8346	0.627043
0.5413	-319.713	27.8615	10.8804	362.82	73.7756	6.46403	-16.8034	-8.77136	51.6269	0.627043
0.5420	-271.181	22.0467	12.7439	410.735	69.5211	-1.16634	-11.609	-9.37628	50.4193	0.940564
0.5427	-201.001	17.4756	17.9135	436.977	54.5687	-7.86926	-5.81053	-10.5861	49.48	0.940564
0.5433	-100.594	14.1173	24.2855	393.045	48.1561	-6.95586	-2.45226	-8.77136	48.2724	0.627043
0.5440	17.8083	11.6608	24.9467	382.654	56.6959	-7.57416	-0.628165	-3.27666	47.0312	0.627043
0.5447	104.775	12.2827	24.2855	445.223	60.0564	-11.846	5.47229	2.21804	45.8235	0.940564
0.5453	115.769	12.5937	23.6843	448.566	48.4644	-2.99313	12.8049	2.82297	44.9178	0.627043
0.5460	86.4708	11.9718	15.7495	387.529	29.5349	31.1819	15.8491	2.21804	43.6766	0.627043
0.5467	82.5065	15.952	6.91294	311.255	15.5074	55.2956	18.6034	5.57032	42.167	0
0.5473	96.8461	23.5704	1.14214	299.025	4.19285	58.3449	23.4837	10.1576	40.6239	-0.313521
0.5480	86.4708	26.3068	-6.79272	344.517	-15.3224	74.224	28.3641	11.9976	40.6239	0.627043
0.5487	84.9532	25.7159	-9.25733	350.924	-32.1246	100.164	34.1625	11.3675	39.7182	1.25409
0.5493	139.586	24.5032	-4.98934	345.13	-38.8147	109.917	36.6027	9.55272	38.2086	0.940564
0.5500	159.098	17.7866	-1.32248	236.791	-38.8147	104.731	30.2003	4.36047	37.5713	0.940564
0.5507	80.989	9.85726	6.91294	73.5166	-36.6874	103.509	22.8676	-3.88158	36.6655	0.940564
0.5513	21.4628	3.4205	16.7113	28.9442	-36.3791	91.0024	18.2893	-12.4261	35.7598	0.627043
0.5520	42.8328	-4.19789	24.2855	-77.2496	-33.0187	60.1858	13.723	-18.2233	35.156	0.940564
0.5527	68.4767	-9.70178	33.7832	-304.903	-26.2978	39.4306	14.327	-15.7784	34.2167	0.940564
0.5533	54.4469	-10.6036	40.1552	-434.609	-18.0662	25.9967	15.5471	-9.67874	33.3109	0.627043
0.5540	48.9341	-12.4382	40.4557	-377.222	-8.6015	7.68658	10.3647	-7.83877	32.4052	0.627043
0.5547	44.3504	-15.4855	41.4175	-226.484	-7.70744	-1.77058	3.34619	-8.77136	30.8621	0.627043
0.5553	58.9996	-18.2219	48.09	-190.464	-12.8868	-0.857187	1.81202	-9.07382	33.9148	0.627043
0.5560	156.961	-21.3004	53.9209	-288.439	-6.78255	1.5879	1.51001	-8.77136	26.9037	0.940564
0.5567	220.141	-21.3004	55.7243	-358.613	16.4014	4.63724	-0.930168	-5.72155	25.6961	0.627043
0.5573	184.122	-17.0092	51.7569	-457.48	44.179	0.969605	1.81202	6.5029	54.3777	0.627043
0.5580	188.396	-15.4855	42.6198	-665.021	57.9291	-8.17841	8.83055	20.8446	-64.9446	0.940564
0.5587	209.147	-17.9421	37.1496	-806.928	58.5149	-11.2277	11.8868	26.9442	-259.644	0.627043
0.5593	140.484	-18.5329	36.4883	-720.847	62.1836	-6.95586	10.0506	30.5989	-246.83	0.627043
0.5600	23.5998	-16.3873	33.7832	-487.706	66.7772	3.4147	5.78637	37.9336	-172.694	0.940564
0.5607	-134.166	-9.07987	24.2855	-300.947	53.0272	21.1205	3.03211	43.1258	-144.616	0.940564
0.5613	-312.094	0.373145	9.97868	-207.262	53.6438	28.1326	3.03211	41.5883	-96.9808	0.940564
0.5620	-475.961	5.87704	-5.2899	-135.528	111.635	8.30488	-1.23217	40.9834	-65.2465	0.940564
0.5627	-526.939	12.9046	-23.9248	-74.4917	165.34	-13.0686	-6.72862	47.3855	-54.579	0.940564
0.5633	-417.364	18.3774	-37.931	-30.8664	164.723	-17.0313	-7.03062	47.688	-96.377	0.940564
0.5640	-316.956	13.4954	-32.7613	-3.70508	152.823	-12.1411	-8.25071	39.7736	-142.167	0.627043
0.5647	-138.13	7.08976	-16.8916	14.0125	143.975	-3.30228	-11.307	40.681	-74.7064	0.627043
0.5653	246.683	2.82969	-1.9236	33.2343	116.506	7.37743	-11.9231	37.9336	4.02549	0.627043
0.5660	566.21	-2.98516	12.0826	24.9884	77.4443	9.52742	-11.307	14.4425	29.3525	0.940564
0.5667	607.402	-2.98516	19.1158	6.68586	42.6684	-17.9447	-9.78488	-13.9384	58.0342	0.940564
0.5673	532.049	3.4205	21.2798	32.6214	8.16988	-61.591	-11.9231	-27.9776	64.1395	0.940564
0.5680	434.677	7.40072	24.6461	41.1738	-26.0203	-81.4187	-15.2692	-30.4225	57.1284	0.940564
0.5687	163.681	9.5463	26.7501	-104.717	-58.3607	-82.6413	-13.1431	-26.4653	57.7323	0.627043
0.5693	-81.0509	15.641	27.6518	-329.613	-81.853	-84.173	-12.5271	-19.1306	56.1892	0.627043
0.5700	-53.6107	20.523	23.0832	-394.02	-87.9573	-64.3312	-20.4637	-15.4759	54.6796	0.940564
0.5707	39.7976	24.5032	7.81463	-320.476	-80.034	-17.3405	-27.1802	-6.62893	53.4384	0.627043
0.5713	21.1841	33.3343	-12.3231	-211.524	-65.9757	11.9585	-20.1617	13.5099	52.2308	0.940564
0.5720	-128.374	42.1965	-30.2967	-79.0882	-60.488	23.5656	-6.12461	30.5989	51.0231	0.940564
0.5727	-273.009	44.9329	-41.8984	18.2747	-56.5109	42.7891	5.78637	40.3785	49.48	0.940564
0.5733	-276.694	44.622	-45.2647	59.7828	-44.3024	56.5181	15.5471	47.688	48.2724	0.627043
0.5740	-284.003	39.74	-32.4608	58.2506	-33.9436	58.0498	18.9054	48.6205	46.4273	-0.313521
0.5747	-336.189	26.6177	-13.5253	66.4965	-19.916	51.628	17.9873	28.7842	45.5216	-0.627043
0.5753	-375.244	13.1845	-1.62304	118.981	-4.65529	39.4306	21.0435	-11.5187	45.2197	0.940564
0.5760	-471.997	7.71167	38.6524	164.138	5.73433	26.9101	25.0058	-38.3621	44.314	1.25409
0.5767	-593.465	6.49895	83.4963	150.125	37.7664	5.55064	22.2636	-35.9172	42.7709	0.627043
0.5773	-572.993	4.66432	84.0974	108.005	86.6008	-15.4996	17.6853	-28.3053	42.167	0.627043
0.5780	-333.433	1.61696	77.4249	97.0007	109.785	4.033	16.4652	-33.7748	40.9258	0.940564
0.5787	-82.5994	-4.19789	78.3266	99.7587	105.222	33.9362	22.8676	-48.7466	40.0201	0.940564
0.5793	12.9458	-9.70178	75.862	95.4964	96.0655	33.3179	34.4645	-37.1522	39.1144	1.25409
0.5800	40.3861	-6.93429	73.7581	93.3514	80.8048	29.6643	33.2444	10.1576	38.2086	1.25409
0.5807	58.9996	6.77881	72.1952	91.5128	55.4627	31.1819	20.4275	32.1364	37.2693	0.940564
0.5813	59.619	16.8537	70.6923	89.0891	62.1836	29.6643	6.08837	25.1042	36.3636	0.940564
0.5820	55.9645	6.188	68.5884	86.6376	95.1406	28.4418	-7.03062	25.1042	35.4579	0.940564
0.5827	55.345	-5.41061	66.7249	84.4926	99.7343	27.8375	-13.1431	25.4067	34.854	0.940564
0.5833	54.1372	-4.19789	65.2221	82.6818	92.7051	27.5284	-17.7215	24.1969	33.9148	0.940564
0.5840	52.6196	-3.26502	63.6592	80.5368	92.3968	26.615	-27.1802	23.5919	33.009	0.940564
0.5847	51.6905	-4.19789	62.1564	78.3917	90.2695	25.9967	-28.7023	22.987	32.1033	0.940564
0.5853	50.4826	-3.88693	60.6536	76.8596	88.1423	25.3924	-22.9039	22.987	31.8014	0.627043
0.5860	49.2438	-3.57598	59.0906	74.7424	85.9842	24.7741	-26.2621	22.3569	31.164	1.25409
0.5867	48.0359	-3.88693	57.5878	72.9038	83.8569	24.1699	-35.7209	21.752	30.5602	1.25409
0.5873	46.7971	-3.57598	56.3255	71.0652	82.038	23.5656	-37.243	20.8446	29.3525	0.627043
0.5880	45.8989	-3.26502	55.1232	69.533	80.4965	22.9473	-30.8405	20.5421	28.4468	0.627043
0.5887	44.9698	-2.98516	53.9209	67.7222	78.3692	22.6382	-25.3441	20.5421	28.1114	0.940564
0.5893	43.7619	-2.98516	52.358	66.19	76.5194	22.0339	-21.0677	19.6095	27.5075	0.940564
0.5900	42.5231	-3.26502	50.8552	64.6579	74.3922	21.1205	-12.5271	19.3071	26.6018	0.627043
0.5907	41.3152	-3.26502	49.653	62.8193	72.8815	20.5022	-1.54625	19.0046	26.2999	0.940564
0.5913	40.6958	-2.67421	48.7513	61.6214	71.6483	20.5022	-2.45226	18.3997	25.6961	0.940564
0.5920	39.7976	-2.67421	47.4889	60.0892	69.8294	19.898	7.00646	18.0972	24.7568	0.627043
0.5927	38.5588	-2.98516	45.9861	58.2506	67.9796	18.9846	41.7971	17.7948	24.4549	0.940564
0.5933	37.9703	-2.98516	45.0844	56.7184	66.4689	18.6754	54.9161	17.1898	23.851	0.940564
0.5940	37.0412	-2.67421	44.1226	55.5205	64.9275	18.0712	48.1996	16.5597	23.2472	0.940564
0.5947	36.1121	-2.67421	42.9204	54.6012	63.7251	17.762	48.1996	16.2573	22.6434	0.627043
0.5953	35.2139	-2.67421	42.0187	53.069	62.1836	17.4529	47.5956	15.9548	22.3415	0.940564
0.5960	34.2848	-2.36325	40.8164	51.8433	60.673	17.1437	46.0614	15.6523	21.7041	0.940564
0.5967	33.3867	-2.36325	39.8546	50.6176	59.4398	16.5395	44.8413	15.0474	21.1003	0.627043
0.5973	32.4575	-2.36325	38.6524	49.0854	57.9291	16.2303	43.9353	15.0474	20.7984	0.940564
0.5980	32.1478	-2.36325	37.7507	47.5811	56.0793	15.6261	43.0172	14.4425	20.1946	0.940564
0.5987	31.5594	-2.0523	36.849	46.9682	55.1853	15.317	40.8791	13.8124	19.5907	0.627043
0.5993	25.4581	-1.74135	37.1496	47.5811	55.4627	15.317	43.0172	14.4425	19.2888	0.627043
0.6000	41.3152	-2.98516	33.4827	40.5609	49.081	14.0944	38.1369	12.6025	18.6514	0.627043
0.6007	20.255	-0.528623	34.9855	47.2746	55.4627	14.7127	17.0692	13.5099	18.3495	0.627043
0.6013	6.22516	-1.74135	38.3518	48.5004	54.5687	15.6261	11.5848	15.9548	17.7457	0.627043
0.6020	252.506	-18.8438	-9.85846	-39.3909	-24.1705	-6.64671	22.5656	-8.14123	16.84	0.627043
0.6027	484.137	-24.9386	-78.2064	-104.104	-77.5677	-43.8852	20.7415	-31.6575	16.5381	0.940564
0.6033	430.403	-12.1272	-83.1356	-61.3707	-29.0725	-77.456	14.327	-13.6359	16.2362	0.627043
0.6040	295.834	-1.74135	-16.8916	-10.7252	18.8678	-116.521	20.1254	11.6951	15.2969	-0.627043
0.6047	94.3994	7.71167	39.8546	31.0893	43.2541	-83.8638	27.144	23.8944	15.2969	-0.313521
0.6053	-73.1223	14.1173	39.2535	50.3111	53.0272	8.90913	24.0877	25.4067	15.5988	0.940564
0.6060	-60.9198	18.3774	33.1821	43.9038	24.9721	30.8868	17.9873	17.1898	15.2969	1.25409
0.6067	-3.56166	25.405	35.5866	43.291	9.71137	16.8486	18.2893	11.3675	14.995	0.940564
0.6073	-2.94224	19.9011	33.7832	42.9845	39.6162	20.8114	11.5848	11.6951	14.0892	0.627043
0.6080	-8.11438	2.51873	32.8816	41.4802	52.7189	20.5022	4.86828	11.6951	14.0892	0.627043
0.6087	-4.45981	-4.19789	31.9198	40.5609	45.1039	18.9846	22.8676	11.3675	14.0892	0.627043
0.6093	-5.38894	-2.0523	31.3186	39.3352	45.4122	18.6754	36.6027	11.065	13.7873	0.940564
0.6100	-5.07923	-2.36325	30.7175	38.7223	45.1039	18.6754	32.9424	11.065	13.4854	1.25409
0.6107	-4.76952	-2.36325	29.8158	37.803	43.8707	18.0712	31.7223	10.7626	13.1835	0.940564
0.6113	-4.76952	-2.36325	28.9141	36.8837	42.6684	17.4529	31.7223	10.1576	12.5461	0.627043
0.6120	-4.45981	-2.36325	28.5535	35.9644	41.7435	17.1437	30.5023	9.85518	12.2442	0.627043
0.6127	-4.45981	-2.36325	27.9523	35.0729	40.8186	16.8486	30.2003	9.85518	12.2442	0.940564
0.6133	-4.45981	-2.36325	26.7501	34.1536	39.9245	15.9353	29.5842	9.85518	11.9423	0.940564
0.6140	-4.1501	-2.0523	26.7501	33.5407	39.3079	15.9353	28.6661	9.55272	11.6404	0.940564
0.6147	-3.84039	-1.74135	26.149	32.6214	38.383	15.6261	28.0621	9.55272	11.3385	0.940564
0.6153	-4.1501	-2.0523	25.2473	31.3957	37.1499	15.0078	27.144	9.25025	11.0366	0.940564
0.6160	-3.84039	-1.74135	24.9467	31.0893	36.5641	14.7127	26.842	9.25025	11.0366	0.940564
0.6167	-3.56166	-1.46149	24.2855	30.4764	35.6392	14.4036	26.54	9.25025	11.0366	1.25409
0.6173	-3.25195	-1.46149	23.6843	29.5571	35.0226	14.0944	25.6219	8.94779	10.4327	0.940564
0.6180	-3.25195	-1.46149	23.0832	28.9442	34.406	14.0944	25.3199	8.64533	10.4327	0.940564
0.6187	-3.25195	-1.46149	22.4821	28.3592	33.2036	13.4902	24.7038	8.64533	10.4327	0.940564
0.6193	-3.56166	-1.74135	21.5804	27.4399	31.9705	12.5768	23.4837	8.01521	9.49345	0
0.6200	-2.94224	-1.74135	21.5804	26.827	31.9705	12.5768	23.1817	7.71275	9.19154	0
0.6207	-2.32282	-1.15053	21.5804	26.827	31.6622	12.8719	23.1817	8.31767	9.82891	0.940564
0.6213	-2.63253	-1.15053	20.6787	25.9077	30.4598	12.2676	22.8676	8.01521	9.49345	0.940564
0.6220	-2.63253	-1.46149	20.0175	25.2948	29.5349	11.6634	21.9616	7.71275	9.19154	0.940564
0.6227	-2.63253	-1.46149	19.4163	24.3755	28.9183	11.3542	21.6475	7.71275	9.19154	0.940564
0.6233	-2.63253	-1.15053	19.1158	23.7627	28.61	11.3542	21.0435	7.41029	9.19154	0.940564
0.6240	-2.01311	-1.15053	18.8152	23.4562	28.0242	11.3542	20.4275	7.10783	8.58772	0.940564
0.6247	-2.01311	-1.15053	18.5147	23.1498	27.4077	11.0451	20.1254	7.10783	8.58772	0.940564
0.6253	-2.01311	-1.15053	17.9135	22.2305	26.7911	10.7359	19.8234	7.10783	8.2858	0.940564
0.6260	-1.7034	-1.15053	17.613	21.9519	26.1745	10.4408	19.2074	6.80536	7.98389	0.940564
0.6267	-2.01311	-0.839577	17.0118	21.339	25.2496	10.1317	18.6034	6.80536	7.98389	0.940564
0.6273	-2.01311	-0.839577	16.7113	21.0326	24.9721	9.82252	18.2893	6.5029	7.68198	0.940564
0.6280	-2.01311	-0.839577	16.05	20.4197	24.6638	9.82252	17.9873	6.5029	7.68198	0.940564
0.6287	-2.01311	-0.839577	15.7495	19.8069	23.7389	9.52742	17.6853	6.20044	7.38007	0.940564
0.6293	-2.01311	-1.15053	15.4489	19.194	23.1223	9.21828	17.0692	5.89798	7.07816	0.627043
0.6300	-1.7034	-0.839577	14.8478	18.8876	22.814	8.90913	16.7672	5.89798	7.07816	0.940564
0.6307	-1.7034	-0.839577	14.5472	18.5811	22.5057	8.90913	16.4652	5.89798	7.07816	0.940564
0.6313	-1.7034	-0.839577	14.2467	17.9683	21.92	8.59998	15.8491	5.57032	6.77624	0.940564
0.6320	-1.7034	-0.839577	13.6455	17.3554	21.3034	8.30488	15.5471	5.57032	6.47433	0.627043
0.6327	-1.7034	-0.528623	13.6455	16.7425	20.6868	8.30488	15.2451	5.26786	6.47433	0.940564
0.6333	-2.01311	-0.839577	13.0444	16.1296	20.0702	7.99573	14.9431	4.9654	6.13888	0.627043
0.6340	-2.01311	-0.839577	12.7439	15.8232	19.4536	7.68658	14.629	4.9654	5.83696	0.627043
0.6347	-1.7034	-0.839577	12.3832	15.5168	18.8678	7.68658	14.629	5.26786	6.13888	0.940564
0.6353	-2.01311	-1.15053	11.7821	14.6253	18.2512	7.08233	13.723	4.66293	5.53505	0.627043
0.6360	-2.01311	-1.15053	11.4815	14.3189	17.9429	6.77318	12.8049	3.75555	4.93123	-0.313521
0.6367	-1.7034	-0.528623	11.7821	14.6253	18.2512	7.37743	12.8049	4.05801	5.23314	0.313521
0.6373	-1.42466	-0.528623	11.4815	14.3189	17.6346	7.37743	13.1069	4.36047	5.53505	0.940564
0.6380	-1.7034	-0.528623	10.8804	13.706	16.7097	6.77318	12.8049	4.36047	5.23314	0.940564
0.6387	-1.7034	-0.528623	10.5798	13.3996	16.4014	6.77318	12.4908	4.36047	5.23314	1.25409
0.6393	-1.7034	-0.528623	10.2792	12.7867	16.0931	6.46403	11.8868	4.05801	4.93123	0.627043
0.6400	-1.42466	-0.528623	10.2792	12.7867	15.8157	6.46403	11.5848	4.05801	4.62932	0.627043
0.6407	-1.11495	-0.528623	10.2792	12.4803	15.5074	6.46403	11.8868	4.05801	4.93123	0.940564
0.6413	-1.42466	-0.528623	9.67812	12.1738	15.1991	6.16894	11.5848	3.75555	4.62932	0.940564
0.6420	-1.42466	-0.528623	9.37756	11.8674	14.8908	5.85979	10.9687	3.75555	4.3274	0.627043
0.6427	-1.42466	-0.528623	9.37756	11.561	14.5825	5.55064	10.9687	4.05801	4.62932	0.940564
0.6433	-0.805244	-0.528623	9.37756	11.2545	14.2742	5.85979	10.9687	4.05801	4.62932	0.940564
0.6440	-1.11495	-0.217668	9.07699	10.9481	13.9659	5.85979	10.3647	3.75555	4.62932	0.940564
0.6447	-1.11495	-0.217668	8.77643	10.9481	13.6576	5.55064	10.3647	3.75555	4.3274	0.940564
0.6453	-0.805244	-0.217668	8.77643	10.9481	13.6576	5.55064	10.0506	3.75555	4.3274	0.940564
0.6460	-1.11495	-0.217668	8.41576	10.6417	13.041	5.24149	9.74864	3.75555	4.3274	0.940564
0.6467	-0.805244	-0.217668	8.41576	10.3352	13.041	4.94639	9.44664	3.45309	4.3274	0.940564
0.6473	-0.495535	0.0621909	8.41576	10.3352	12.7635	5.24149	9.14464	3.15063	4.02549	0.627043
0.6480	-0.805244	-0.217668	8.11519	10.0288	12.4552	4.94639	9.14464	3.45309	4.3274	0.940564
0.6487	-0.495535	-0.217668	7.81463	9.72236	12.1469	4.63724	8.83055	3.45309	4.3274	0.940564
0.6493	-0.495535	-0.528623	7.81463	9.41592	11.8386	4.63724	8.52855	3.45309	4.02549	0.627043
0.6500	-0.495535	-0.217668	7.51407	9.10949	11.5303	4.32809	8.52855	3.45309	4.02549	0.940564
0.6507	-0.805244	-0.217668	7.51407	8.80305	11.222	4.033	8.52855	3.45309	4.02549	1.25409
0.6513	-0.805244	-0.217668	7.2135	8.49662	11.222	4.32809	8.22655	3.45309	4.02549	1.25409
0.6520	-0.495535	-0.217668	6.91294	8.49662	10.9137	4.033	8.22655	3.45309	4.02549	0.940564
0.6527	-0.495535	-0.217668	6.91294	8.21804	10.6054	4.033	7.92455	3.45309	3.72358	0.940564
0.6533	-0.495535	-0.217668	6.61238	8.21804	10.2971	4.033	7.61046	3.15063	3.42167	0.940564
0.6540	-0.495535	-0.217668	6.31182	7.60517	9.98884	3.72385	7.30846	2.82297	3.42167	0.940564
0.6547	-0.805244	-0.217668	6.01125	7.60517	9.71137	3.72385	7.30846	2.82297	3.72358	0.940564
0.6553	-0.495535	-0.217668	6.31182	7.60517	9.71137	3.72385	7.30846	2.82297	3.42167	0.940564
0.6560	-0.185826	0.0621909	6.01125	7.29873	9.40308	3.4147	7.00646	2.52051	3.08621	0.940564
0.6567	-0.185826	0.0621909	6.01125	7.29873	9.40308	3.4147	6.69238	2.52051	3.08621	0.627043
0.6573	-0.185826	0.0621909	6.01125	6.9923	9.09478	3.4147	6.69238	2.82297	3.08621	0.940564
0.6580	-0.185826	0.0621909	5.71069	6.9923	8.78648	3.4147	6.39037	2.52051	3.08621	0.940564
0.6587	-0.185826	0.373145	5.71069	6.9923	8.78648	3.4147	6.39037	2.52051	2.7843	0.940564
0.6593	-0.185826	0.373145	5.71069	6.68586	8.78648	3.4147	6.39037	2.52051	2.7843	0.940564
0.6600	-0.495535	0.0621909	5.41013	6.37943	8.16988	3.4147	6.08837	2.52051	2.7843	0.940564
0.6607	-0.495535	0.0621909	5.10957	6.07299	8.16988	3.4147	6.08837	2.52051	2.7843	1.25409
0.6613	-0.495535	0.0621909	5.10957	6.07299	7.86159	3.10555	6.08837	2.52051	2.7843	0.940564
0.6620	-0.495535	0.0621909	4.809	5.76656	7.55329	2.81045	5.78637	2.21804	2.48239	0.627043
0.6627	-0.495535	0.0621909	4.809	5.76656	7.55329	3.10555	5.78637	2.21804	2.48239	0.940564
0.6633	-0.495535	-0.217668	4.14777	5.46012	6.96752	2.81045	5.47229	2.21804	2.48239	0.940564
0.6640	-1.11495	-0.528623	3.8472	4.84725	6.65923	2.5013	4.56628	1.0082	1.57665	-0.313521
0.6647	-0.495535	0.0621909	3.8472	5.15369	6.96752	2.81045	4.56628	1.0082	1.87856	-0.313521
0.6653	-0.185826	0.0621909	4.44833	5.46012	6.96752	3.10555	5.47229	2.21804	2.48239	0.940564
0.6660	-0.495535	-0.217668	4.14777	4.84725	6.65923	2.81045	5.17028	1.91558	2.18047	0.940564
0.6667	-0.495535	-0.217668	3.8472	4.54082	6.35093	2.81045	4.56628	1.61312	1.87856	0.627043
0.6673	-0.185826	0.0621909	3.8472	4.84725	6.35093	2.81045	4.86828	1.91558	2.18047	0.940564
0.6680	-0.495535	0.373145	3.8472	4.84725	6.35093	2.5013	4.86828	1.91558	2.18047	0.940564
0.6687	-0.495535	0.0621909	3.8472	4.54082	6.35093	2.5013	4.56628	1.61312	1.87856	0.940564
0.6693	-0.495535	-0.217668	3.24608	3.92794	5.11774	2.19215	5.78637	1.61312	1.87856	1.25409
0.6700	-0.495535	0.0621909	3.24608	4.23438	5.73433	2.5013	1.81202	1.61312	1.87856	0.940564
0.6707	-0.185826	0.995055	5.71069	5.76656	8.78648	4.94639	6.08837	1.91558	1.57665	0.627043
0.6713	-1.11495	-2.36325	-2.82529	-0.334293	-3.7304	-4.51077	9.44664	-0.529306	1.57665	0.940564
0.6720	-0.805244	2.51873	8.11519	7.9116	15.8157	9.82252	-48.2358	2.82297	1.57665	0.940564
0.6727	2.26088	0.995055	12.7439	8.80305	10.6054	6.16894	-102.246	4.05801	1.57665	0.627043
0.6733	-9.66293	-47.545	-117.58	-86.0805	-187.753	-138.19	-87.2908	-31.0274	1.57665	0.940564
0.6740	-19.4188	-80.475	-243.035	-173.08	-343.073	-261.175	-75.3919	-60.0384	1.27474	0.940564
0.6747	-0.185826	-67.9747	-218.329	-160.266	-261.59	-251.1	-82.7124	-59.736	1.27474	0.940564
0.6753	17.8083	-68.9075	-197.229	-144.387	-151.436	-245.605	-76.914	-64.6006	1.57665	0.940564
0.6760	1.33175	-74.6913	-230.532	-145	-80.9281	-259.643	-48.2358	-69.7928	1.57665	0.940564
0.6767	-34.068	-75.3132	-156.954	-137.367	2.68219	-265.742	-18.9416	-85.672	1.27474	0.627043
0.6773	-55.438	-80.1952	3.8472	-130.653	88.4197	-262.398	-15.5833	-96.0313	1.27474	0.940564
0.6780	-67.9502	-65.8291	47.1883	-128.508	129.639	-234.616	-16.4893	-70.0953	1.27474	0.627043
0.6787	-69.1581	-36.8481	24.6461	-130.959	103.403	-194.033	-19.8476	-35.9172	1.27474	0.627043
0.6793	-46.2706	-22.8241	30.4169	-130.04	50.8999	-161.685	-38.463	-20.0632	1.57665	1.25409
0.6800	-24.9006	-20.9894	30.7175	-123.02	-13.1951	-135.436	-50.676	-18.2233	1.57665	1.25409
0.6807	-18.4896	-20.9894	27.9523	-115.387	-96.8054	-106.137	-44.8776	-17.0134	1.57665	0.940564
0.6813	-17.9012	-20.3675	27.9523	-104.104	-172.492	-77.7651	-37.557	8.01521	1.57665	0.940564
0.6820	-21.5558	-20.0566	27.3512	-88.532	-219.785	-56.0966	-36.6389	40.9834	0.972827	0.940564
0.6827	-28.2765	-15.7965	26.4495	-75.411	-247.871	-42.0584	-35.7209	39.4459	1.27474	0.940564
0.6833	-29.794	-6.62333	25.8484	-65.0479	-279.009	-36.859	-42.1354	32.1364	1.27474	0.940564
0.6840	-25.2103	-9.39083	25.2473	-47.9432	-314.094	-42.9718	-62.5749	29.6916	1.27474	0.627043
0.6847	-20.9363	-28.9188	24.9467	-33.5965	-325.994	-51.5155	-90.0451	-15.1734	0.972827	0.627043
0.6853	-16.6624	-56.687	24.2855	-33.5965	-323.558	-36.859	-113.541	-49.3515	0.972827	0.627043
0.6860	-10.8708	-77.1478	23.6843	-27.4956	-328.121	-2.37483	-131.552	-40.807	1.27474	0.940564
0.6867	-6.59681	-84.4553	22.7827	-11.6445	-339.127	21.4156	-141.917	-14.5685	1.27474	0.940564
0.6873	-2.63253	-85.357	22.4821	3.31507	-359.567	44.6159	-132.458	22.0544	0.972827	0.940564
0.6880	-6.90652	-78.9514	21.5804	18.2747	-347.667	81.5452	-108.66	-17.9208	0.972827	0.940564
0.6887	-20.6266	-67.0729	20.9793	24.9884	-279.903	90.089	-81.1904	-125.042	0.972827	0.627043
0.6893	-35.2759	-55.1633	20.6787	17.6618	-223.762	63.8394	-50.374	-163.782	0.972827	0.627043
0.6900	-38.9614	-36.2262	20.318	14.3189	-211.245	25.7016	-26.8661	-114.96	1.57665	1.25409
0.6907	-30.1037	-3.57598	20.0175	31.0893	-202.089	-1.46143	-23.52	-35.0098	1.57665	1.25409
0.6913	-33.1389	31.2198	19.7169	50.0047	-186.828	30.2685	-24.74	23.5919	1.27474	0.940564
0.6920	-22.7636	44.622	18.8152	53.069	-199.345	69.0246	-11.307	29.994	1.27474	0.940564
0.6927	11.0876	36.1018	18.5147	50.3111	-118.17	64.1485	3.34619	23.2895	1.27474	0.940564
0.6933	19.6356	27.8615	17.9135	49.3918	80.4965	59.5675	14.629	25.1042	1.27474	0.940564
0.6940	13.844	27.5506	17.3124	48.1939	151.004	60.4809	35.0806	23.5919	0.670915	0
0.6947	15.3616	27.5506	17.3124	47.2746	121.099	58.3449	46.9795	22.3569	0.369003	-0.627043
0.6953	15.3616	26.9287	17.3124	46.3553	123.843	57.1224	44.8413	23.2895	1.27474	0.627043
0.6960	14.4634	26.0269	16.7113	45.1296	123.535	55.6047	43.6212	22.987	1.57665	0.940564
0.6967	14.1537	25.7159	16.05	43.9038	118.047	54.3822	43.0172	22.0544	1.27474	0.627043
0.6973	14.1537	25.094	15.7495	42.9845	115.889	52.8505	41.7971	21.752	0.972827	0.940564
0.6980	13.844	24.5032	15.4489	42.0931	113.145	51.628	40.8791	21.147	0.972827	0.940564
0.6987	13.5343	23.8813	15.1484	41.1738	110.401	50.4195	39.961	20.5421	1.27474	0.940564
0.6993	13.2246	23.2594	14.5472	39.6416	107.966	48.8878	39.0429	20.2397	1.27474	0.940564
0.7000	12.9458	22.9795	14.2467	39.0287	105.53	47.6652	38.7409	19.9372	1.27474	1.25409
0.7007	12.6361	22.3576	13.9461	38.1094	102.786	46.4427	37.8228	19.6095	1.57665	0.940564
0.7013	12.3264	21.4248	13.6455	37.1901	100.351	45.2201	36.6027	19.0046	1.57665	0.627043
0.7020	12.3264	21.1449	13.345	36.2708	98.5011	44.6159	35.6846	18.3997	1.27474	0.940564
0.7027	11.707	20.834	13.0444	35.0729	96.0655	43.3933	34.7786	18.0972	1.27474	0.940564
0.7033	11.0876	19.9011	12.3832	34.1536	93.63	42.1708	33.8605	17.4923	0.972827	0.940564
0.7040	11.0876	19.6212	12.0826	33.5407	91.7802	40.9483	33.2444	17.1898	0.972827	0.940564
0.7047	11.0876	19.3103	12.0826	32.6214	89.6529	40.0349	32.9424	16.8622	1.57665	1.25409
0.7053	10.8089	18.6884	12.0826	32.0086	87.5257	39.1215	31.7223	16.5597	1.27474	0.940564
0.7060	10.4991	18.3774	11.4815	31.0893	85.6759	38.2081	30.8043	15.9548	0.972827	0.940564
0.7067	10.1894	17.7866	10.8804	30.17	83.5486	36.9855	30.2003	15.3499	0.972827	0.940564
0.7073	9.87972	17.1647	10.8804	29.5571	81.7297	36.3813	29.2822	15.0474	0.972827	0.940564
0.7080	9.57001	16.8537	10.5798	28.6656	79.8799	35.4538	28.6661	15.0474	0.972827	1.25409
0.7087	9.26031	16.8537	10.2792	28.0528	77.7526	34.5404	28.0621	14.745	0.972827	0.940564
0.7093	9.26031	16.5428	10.2792	27.4399	76.242	33.627	27.446	14.1148	0.972827	0.940564
0.7100	8.9506	15.952	10.2792	26.827	74.3922	32.7136	26.842	14.1148	0.972827	1.25409
0.7107	8.67186	15.641	9.67812	26.2142	72.5732	32.1094	26.2259	13.8124	1.27474	1.25409
0.7113	8.67186	15.3301	9.67812	25.6013	71.0318	31.4911	25.6219	13.5099	0.972827	0.940564
0.7120	8.36215	14.7392	9.37756	24.682	69.2128	30.2685	25.3199	13.2074	1.27474	0.940564
0.7127	8.05244	14.1173	9.07699	24.0691	67.6713	29.6643	24.4018	12.6025	0.972827	0.940564
0.7133	8.05244	14.4283	9.07699	23.7627	66.1607	29.3551	23.7857	12.3001	0.670915	0.627043
0.7140	8.05244	13.8064	8.77643	23.1498	64.6192	28.4418	23.4837	12.3001	0.972827	0.940564
0.7147	7.74273	13.4954	8.41576	22.5369	63.1085	27.5284	22.8676	11.9976	0.972827	0.940564
0.7153	7.74273	13.4954	8.41576	22.2305	61.8753	26.9101	22.2636	11.3675	0.972827	0.940564
0.7160	7.43302	12.9046	7.81463	21.339	60.3647	25.9967	21.9616	11.3675	0.972827	0.940564
0.7167	7.12331	12.2827	7.51407	20.7262	58.8232	25.3924	21.3455	11.065	0.972827	0.940564
0.7173	6.8136	12.2827	7.51407	20.1133	57.6208	24.7741	21.0435	10.7626	0.670915	0.627043
0.7180	6.8136	12.2827	7.51407	20.1133	56.6959	24.479	20.4275	10.4601	0.670915	0.627043
0.7187	6.8136	11.9718	7.51407	19.5004	55.1853	23.8607	20.1254	10.4601	0.972827	0.940564
0.7193	6.22516	11.3809	6.91294	18.5811	53.3355	22.9473	19.8234	10.1576	0.972827	0.940564
0.7200	6.22516	11.07	6.91294	18.2747	52.4106	22.3431	19.2074	9.85518	0.972827	0.627043
0.7207	6.53486	11.07	6.91294	17.9683	51.5165	22.0339	18.6034	9.55272	0.670915	0.313521
0.7213	5.91545	10.4481	6.61238	17.3554	49.975	21.1205	17.6853	8.64533	0.0335458	-0.313521
0.7220	6.22516	10.4481	6.61238	17.3554	49.081	21.1205	17.6853	8.94779	0.670915	0.627043
0.7227	6.22516	10.4481	6.31182	17.049	48.1561	20.5022	17.6853	9.25025	0.972827	1.25409
0.7233	5.60574	9.85726	6.01125	16.1296	46.6146	19.898	17.0692	8.94779	0.670915	0.940564
0.7240	5.60574	10.1371	6.31182	15.8232	45.7205	19.5888	16.7672	8.94779	0.972827	0.940564
0.7247	5.60574	9.5463	6.01125	15.8232	44.7956	18.9846	16.4652	8.94779	1.27474	0.940564
0.7253	5.29603	9.23535	5.71069	15.2103	43.8707	18.3663	15.8491	8.31767	0.972827	0.627043
0.7260	5.29603	9.23535	6.01125	14.9318	42.6684	18.0712	15.5471	8.01521	0.972827	0.940564
0.7267	5.29603	8.61344	5.41013	14.3189	41.4352	17.4529	14.9431	8.01521	0.670915	0.627043
0.7273	4.70758	8.02263	4.809	13.706	40.202	16.5395	14.025	7.10783	0.0335458	-0.313521
0.7280	4.70758	8.61344	5.41013	14.0125	39.9245	16.8486	14.327	7.10783	0.670915	-0.313521
0.7287	5.29603	8.9244	5.71069	14.0125	39.3079	16.8486	14.327	7.71275	0.972827	0.627043
0.7293	4.98632	7.71167	4.44833	13.3996	37.4581	15.9353	13.723	7.10783	0.670915	0.940564
0.7300	4.39787	7.71167	4.44833	12.7867	37.1499	15.6261	14.629	7.10783	0.670915	0.940564
0.7307	5.29603	9.5463	9.97868	10.9481	38.9996	16.5395	12.4908	8.94779	0.670915	0.940564
0.7313	3.46874	4.97527	-6.49215	15.5168	27.4077	11.3542	11.8868	1.61312	0.670915	0.940564
0.7320	3.46874	9.5463	12.7439	9.41592	44.179	19.2797	20.4275	11.6951	0.670915	0.940564
0.7327	9.57001	12.5937	26.149	5.46012	37.1499	16.5395	-12.8291	12.905	0.369003	0.627043
0.7333	-18.2109	-60.6672	-239.368	87.8634	-135.558	-64.022	-70.8135	-81.0847	0.0335458	0.627043
0.7340	-58.4731	-141.515	-536.625	193.751	-270.747	-131.473	-77.2281	-100.619	0.369003	0.940564
0.7347	-54.1991	-104.605	-557.664	189.795	-242.075	-122.929	-68.6754	27.2467	0.0335458	0.627043
0.7353	-44.1336	-10.9145	-497.852	105.247	-221.019	-112.854	-70.2095	67.2219	0.369003	0.940564
0.7360	-49.6154	4.04241	-395.901	21.0326	-219.785	-111.027	-65.6312	28.7842	0.369003	0.940564
0.7367	-50.2348	-60.0453	-281.808	-66.8586	-206.374	-103.706	-64.097	62.0296	0.369003	0.940564
0.7373	-49.6154	-77.1478	-241.472	-229.214	-199.345	-94.2344	-61.9709	82.1685	0.369003	0.940564
0.7380	-53.301	-8.76892	-197.83	-450.766	-194.166	-84.173	-55.8584	1.61312	0.369003	0.940564
0.7387	-56.6458	46.4566	-139.281	-605.516	-185.318	-78.3694	-53.1162	-52.7038	0.670915	0.940564
0.7393	-49.3367	41.2637	-61.435	-585.069	-176.161	-74.0975	-54.6383	-1.13423	0.369003	0.940564
0.7400	-40.1693	22.0467	52.358	-283.843	-169.132	-65.8629	-54.0343	32.4389	0.369003	0.940564
0.7407	-45.0627	-2.98516	92.9941	39.3352	-161.795	-55.4783	-52.8142	-51.4939	0.670915	0.940564
0.7413	-48.0978	-31.0644	75.862	73.8231	-152.052	-62.1953	-53.4182	-154.331	0.670915	0.940564
0.7420	-45.0627	-31.9661	77.1244	39.0287	-141.663	-44.4894	-52.1981	-184.854	0.369003	0.940564
0.7427	-53.8894	-10.9145	76.8238	54.2948	-133.123	21.7248	-49.1539	-143.946	0.369003	0.940564
0.7433	-56.3361	18.9993	73.157	50.3111	-124.275	51.0237	-48.2358	-24.3229	0.369003	0.940564
0.7440	-36.8244	37.3145	70.9929	46.3553	-116.043	40.9483	-47.3178	128.269	0.670915	0.940564
0.7447	-23.0733	16.8537	70.9929	47.8875	-107.781	42.1708	-44.2615	263.443	0.670915	0.940564
0.7453	-20.0382	-31.9661	69.4901	46.3553	-99.241	39.1215	-40.9032	348.283	0.369003	0.627043
0.7460	-15.7642	-72.8567	57.8884	39.6416	-92.8284	40.344	-38.161	254.294	0.369003	0.940564
0.7467	-12.6981	-80.1952	80.7913	53.6819	-87.3407	44.3067	-33.8847	-28.9102	0.670915	1.25409
0.7473	-10.8708	-76.215	47.1883	30.4764	-81.5447	-8.48756	-29.3184	-225.132	0.670915	0.940564
0.7480	-8.42409	-105.507	-125.816	-74.4917	-75.7487	-69.5165	-28.0862	-210.185	0.369003	0.627043
0.7487	-13.9369	-157.996	-211.596	-109.899	-72.08	-69.8256	-27.7842	-136.939	0.369003	0.940564
0.7493	-31.3116	-171.74	-189.896	-56.802	-67.5172	-60.3685	-25.3441	-81.3871	0.369003	0.940564
0.7500	-47.4784	-127.491	-212.197	-21.7012	-61.4129	-61.8861	-23.52	-47.5115	0.369003	0.627043
0.7507	-46.5803	-106.44	-248.505	-0.334293	-54.692	-60.3685	-23.822	-76.825	0.369003	0.940564
0.7513	-40.1693	-131.44	-276.878	16.1296	-48.896	-57.6142	-21.0677	-129.302	0.369003	0.940564
0.7520	-37.1032	-142.759	-318.416	3.92794	-44.6107	-55.7874	-18.3255	-136.939	0.369003	0.627043
0.7527	-23.383	-129.917	-381.294	-20.4755	-40.9727	-53.3423	-17.4074	-117.103	-0.570278	0.627043
0.7533	-0.805244	-107.342	-427.34	-49.7818	-37.304	-48.7613	-14.9672	-59.736	0.0335458	0.940564
0.7540	8.05244	-92.0736	-351.959	-126.084	-35.1768	-45.712	-12.2251	75.1615	5.23314	0.627043
0.7547	7.74273	-43.8757	-143.849	-191.689	-32.4021	-46.3303	-12.8291	257.344	-13.3848	-0.313521
0.7553	4.98632	70.2757	32.2203	-173.972	-28.7642	-49.3796	-11.9231	388.586	12.2442	0
0.7560	-9.66293	169.439	84.0974	-132.798	-25.712	-49.9838	-2.45226	336.084	17.4438	0.940564
0.7567	-31.931	124.289	86.5621	-121.181	-23.8622	-47.5528	7.30846	143.82	-268.802	0.940564
0.7573	-56.3361	-11.2255	77.7255	-122.407	-22.9682	-42.3535	10.9687	-44.4617	-544.683	0.940564
0.7580	-74.9496	-30.7534	34.3844	-114.774	-22.0433	-31.9829	12.1888	-268.761	-537.973	0.940564
0.7587	-67.0211	32.7435	7.51407	-92.2092	-20.5018	-20.0807	13.1069	-508.033	-494.33	0.627043
0.7593	-43.2354	53.4842	26.4495	-54.3505	-18.6828	-12.7594	9.74864	-582.186	-443.978	0.940564
0.7600	-35.2759	12.5937	47.1883	-15.2939	-14.12	-11.846	5.47229	-453.086	-374.404	0.627043
0.7607	-38.6517	-49.3485	54.8226	9.72236	-8.2932	-14.8954	2.7301	-288.598	-342.67	0.940564
0.7613	-31.931	-51.1831	29.2147	20.7262	-5.24106	-17.0313	-0.0120801	-191.861	-306.34	0.940564
0.7620	-18.4896	-43.2538	-19.3562	14.6253	-3.7304	-16.1179	-2.45226	-119.85	-253.237	0.940564
0.7627	-8.11438	-46.6121	-54.1013	-0.0278578	-1.91144	-13.3637	-2.76634	-61.5507	-249.581	0.940564
0.7633	-1.7034	-6.34347	-69.6704	-29.3342	-1.29485	-10.0052	-0.628165	-55.7536	-172.056	0.940564
0.7640	0.712331	36.6926	-68.4682	-74.1852	-1.29485	-5.73332	2.4281	-87.1843	40.9258	0.940564
0.7647	-2.01311	80.9415	-69.0693	-99.5358	0.554936	-3.59738	3.64819	-92.9814	127.306	0.940564
0.7653	-5.07923	119.718	-72.4356	-87.3062	2.68219	-3.59738	3.95019	-68.2805	79.4028	0.940564
0.7660	-4.76952	67.2284	-52.5985	-61.3707	4.50114	-3.59738	3.34619	-78.6398	99.8322	0.940564
0.7667	-5.97739	-43.2538	-18.3944	-67.4715	7.86159	-3.90653	2.7301	-100.921	113.888	0.940564
0.7673	-13.0078	-117.727	5.41013	-72.068	12.4552	-6.95586	2.4281	-56.9886	-110.131	0.627043
0.7680	-21.2461	-159.831	-15.9899	-22.9269	15.5074	-10.3144	2.4281	27.2467	-318.249	0.940564
0.7687	-19.4188	-155.882	-108.744	33.8472	17.018	-10.9326	3.03211	101.097	-254.78	0.940564
0.7693	-3.56166	-92.6956	-209.432	61.9278	17.9429	-13.3637	3.64819	85.8484	-179.101	0.940564
0.7700	14.1537	-40.8283	-236.904	75.0488	20.3785	-16.1179	3.34619	-25.5579	-161.087	0.627043
0.7707	15.981	-31.9661	-221.334	88.7827	24.3555	-14.8954	4.2522	-80.7822	-111.036	0.627043
0.7713	4.70758	-74.0694	-209.733	110.122	26.7911	-12.4503	4.86828	-12.7286	-73.8007	0.940564
0.7720	0.433593	-104.294	-131.045	128.146	26.4828	-10.9326	3.95019	79.4463	-134.854	0.940564
0.7727	1.64146	-31.9661	59.6918	129.678	26.1745	-6.35162	5.78637	115.439	-293.827	0.627043
0.7733	2.57059	-29.8205	257.763	108.617	25.8662	-0.857187	9.14464	120.026	-387.521	0.940564
0.7740	10.8089	-179.67	308.437	85.1055	24.0472	2.81045	10.3647	82.1685	-330.459	0.940564
0.7747	21.4628	-324.326	184.245	85.7183	22.814	3.4147	9.74864	-7.53631	-245.32	0.940564
0.7753	23.5998	-400.914	43.2209	73.5166	22.814	2.19215	8.22655	-58.8034	-209.896	1.25409
0.7760	21.1841	-348.736	19.7169	10.6417	24.3555	3.4147	8.52855	-38.6646	-194.968	0.940564
0.7767	18.118	-286.482	78.0261	-36.6608	26.1745	7.08233	11.8868	34.2789	-178.463	0.940564
0.7773	7.43302	-332.566	115.837	-16.2132	26.1745	13.181	14.629	150.852	-155.283	0.627043
0.7780	-6.90652	-241.021	78.0261	19.8069	30.4598	17.4529	12.8049	272.315	-134.854	0.627043
0.7787	-13.0078	32.1216	-0.120225	55.5205	42.3601	18.0712	8.83055	336.992	-123.247	0.940564
0.7793	-13.3175	251.531	-67.2659	47.5811	52.7189	19.898	8.22655	257.974	-111.942	0.940564
0.7800	-10.2514	284.803	-104.175	-62.9028	55.771	21.4156	11.2707	72.7166	-102.482	0.940564
0.7807	-4.45981	171.585	-91.3711	-139.512	55.1853	20.5022	12.4908	-54.2413	-94.2636	0.627043
0.7813	-0.805244	42.5075	-62.3367	-89.7577	55.4627	19.5888	11.5848	-90.2341	-80.8118	0.940564
0.7820	-4.1501	-45.3994	-51.3962	-41.5359	55.1853	17.1437	11.8868	-99.7112	-68.2992	0.940564
0.7827	-7.80467	-39.3047	-0.72135	-67.4715	51.5165	13.4902	12.4908	-77.4299	-61.8919	0.940564
0.7833	-2.63253	96.8313	100.628	-89.4513	45.7205	11.6634	12.8049	-38.0596	-54.579	0.940564
0.7840	6.22516	202.089	125.936	-55.5762	41.1269	10.1317	13.4089	-23.718	-44.8171	0
0.7847	15.0828	172.486	36.1877	-12.8424	36.8724	7.99573	13.1069	20.8446	-37.5042	-0.940564
0.7853	24.529	168.537	-52.5985	7.29873	32.5871	7.08233	11.5848	106.895	-31.0634	0
0.7860	28.1835	199.042	-78.2064	19.5004	28.61	7.37743	10.9687	170.689	-24.0523	0.940564
0.7867	28.1835	163.966	-40.0951	25.6013	25.8662	6.16894	10.0506	188.08	-18.2489	0.627043
0.7873	31.8381	102.304	3.54664	28.3592	23.7389	6.77318	8.83055	177.393	-13.9886	0.940564
0.7880	34.9042	55.9096	17.3124	41.7866	20.9951	11.0451	8.22655	185.333	-8.78899	0.940564
0.7887	29.4224	41.8856	78.6272	24.3755	17.3263	15.317	8.52855	181.048	-4.22677	0.627043
0.7893	14.4634	53.7951	136.936	-51.314	15.5074	19.898	9.14464	107.5	-3.01912	0.940564
0.7900	-0.805244	52.2715	100.328	-76.6367	15.8157	23.2565	10.0506	12.6025	-0.268366	0.940564
0.7907	-7.21622	12.9046	40.4557	-24.4591	15.1991	20.8114	9.74864	-102.459	8.88963	0.940564
0.7913	-3.56166	-37.7499	9.67812	6.68586	13.3493	13.4902	7.61046	-278.844	16.84	0.627043
0.7920	5.91545	-41.4191	2.04383	8.80305	14.8908	9.52742	7.00646	-371.321	20.4965	0.627043
0.7927	16.6004	-11.2255	17.0118	18.5811	20.6868	14.4036	9.44664	-266.644	24.153	0.940564
0.7933	21.7726	-27.9859	40.8164	33.5407	26.1745	20.5022	7.61046	-139.989	29.6545	0.940564
0.7940	17.8083	-57.3089	51.4563	39.0287	29.2266	20.2071	3.95019	-117.405	34.2167	1.25409
0.7947	8.67186	-32.588	-1.62304	32.0086	31.0764	16.2303	6.39037	-100.921	36.3636	0.940564
0.7953	-0.495535	-13.9619	-69.0693	30.17	31.0764	13.7993	9.14464	-38.3621	38.2086	0.940564
0.7960	-5.69865	44.9329	-52.2979	40.2545	29.5349	13.4902	8.52855	2.21804	40.9258	0.940564
0.7967	-4.45981	133.12	-23.9248	53.9883	28.9183	15.0078	7.61046	10.7626	43.3747	0.627043
0.7973	-4.1501	105.351	-32.4608	65.8836	28.61	15.0078	6.08837	-1.43669	45.8235	0.627043
0.7980	-9.04351	29.0743	-18.9956	74.1295	28.3017	12.2676	3.95019	-45.9992	47.3666	0.627043
0.7987	-12.3884	44.0312	27.3512	81.4561	29.2266	11.6634	2.1261	-71.3303	48.5743	0.627043
0.7993	-6.2871	101.713	112.831	85.7183	31.3539	13.181	2.1261	-66.743	50.4193	0.940564
0.8000	4.08816	83.0871	179.015	88.1698	32.2788	13.181	2.7301	-75.2875	51.6269	0.940564
0.8007	11.707	38.2163	145.773	78.0853	31.9705	12.8719	5.17028	-62.7858	51.6269	0.627043
0.8013	15.0828	44.0312	83.7969	27.7463	31.9705	14.4036	8.83055	-26.4653	50.7212	0.627043
0.8020	12.3264	66.9174	94.7975	-42.1488	31.0764	15.0078	10.0506	-54.5437	49.48	0.627043
0.8027	7.74273	82.4651	138.439	-61.9835	29.8432	14.4036	8.52855	-122.597	50.0838	0.627043
0.8033	4.70758	71.1775	121.067	-26.2699	29.8432	15.317	8.83055	-138.779	52.8346	0.940564
0.8040	1.64146	32.1216	63.9597	6.9923	29.8432	15.6261	8.83055	-105.508	55.2834	1.25409
0.8047	0.123884	9.5463	25.5478	13.0931	28.3017	13.7993	6.08837	-59.736	56.1892	0.940564
0.8053	3.77845	24.1923	8.77643	2.7022	28.61	15.317	5.17028	-12.7286	56.1892	0.940564
0.8060	8.05244	40.3619	19.4163	-8.88663	29.8432	18.6754	6.08837	10.4601	56.4911	0.627043
0.8067	6.22516	32.7435	57.8884	-3.09221	29.2266	17.1437	4.2522	-33.4723	58.0342	0.627043
0.8073	3.77845	14.1173	90.2289	11.2545	28.0242	15.0078	2.4281	-80.4797	58.9399	0.627043
0.8080	9.57001	-28.2969	105.197	13.0931	28.61	17.4529	4.2522	-34.7074	59.8792	0.940564
0.8087	11.0876	-56.0651	104.295	9.10949	27.4077	16.5395	3.64819	40.681	59.8792	0.940564
0.8093	5.29603	-14.2728	79.5289	10.9481	25.5579	14.0944	0.893927	60.8198	59.2418	0.627043
0.8100	4.70758	-33.4898	49.3524	15.8232	26.7911	16.8486	3.03211	27.8516	59.8792	0.940564
0.8107	4.39787	-124.755	35.5866	15.8232	28.0242	17.4529	4.86828	-11.5187	60.7849	0.940564
0.8113	-0.805244	-113.747	29.2147	14.9318	27.0994	14.4036	2.4281	-11.5187	60.1811	0.940564
0.8120	-0.495535	-71.9549	20.9793	21.0326	27.4077	13.181	0.893927	21.147	59.8792	0.940564
0.8127	4.70758	-63.4036	18.8152	28.0528	28.0242	14.4036	1.81202	64.777	60.7849	0.940564
0.8133	4.08816	62.6262	13.0444	25.2948	27.0994	13.4902	0.893927	71.2043	59.8792	0.627043
0.8140	3.46874	220.094	-18.695	19.8069	27.7159	9.82252	-0.0120801	46.4781	57.7323	-0.627043
0.8147	6.53486	199.042	-69.6704	20.4197	30.1515	4.94639	2.7301	31.834	57.1284	-0.313521
0.8153	6.22516	104.139	-109.044	22.8434	29.2266	-1.46143	3.64819	14.745	56.8265	0.940564
0.8160	5.60574	65.9846	-113.312	23.1498	28.3017	-5.43822	0.893927	44.9406	54.9815	0.940564
0.8167	10.1894	18.9993	-70.9328	24.3755	29.2266	-5.73332	1.51001	121.236	54.3777	0.940564
0.8173	13.2246	-31.3442	3.54664	26.2142	29.2266	-9.0918	3.03211	153.6	54.6796	0.627043
0.8180	13.2246	-7.86715	44.4232	27.4399	28.3017	-9.7101	0.893927	155.717	54.9815	0.627043
0.8187	11.707	48.9132	45.0844	33.8472	25.8662	-10.9326	-0.930168	185.03	56.1892	0.940564
0.8193	16.2907	61.1026	57.8884	31.7021	42.9767	-19.4764	6.39037	208.824	57.1284	0.940564
0.8200	24.8387	47.6693	88.4255	8.49662	77.4443	7.37743	15.2451	140.165	56.8265	0.313521
0.8207	25.1484	44.3421	105.197	13.3996	87.2174	50.1103	15.5471	39.1434	58.638	0.627043
0.8213	23.3211	44.9329	86.8626	44.2103	80.4965	53.4688	14.629	22.3569	61.0868	0.940564
0.8220	23.3211	43.0983	69.4901	48.1939	79.8799	47.061	14.629	33.3463	59.5437	0.940564
0.8227	23.3211	42.5075	70.9929	42.9845	78.6775	48.5786	14.327	27.8516	60.1811	0.940564
0.8233	22.392	41.5746	69.4901	43.5974	76.242	47.061	13.723	27.2467	59.5437	0.940564
0.8240	21.4628	40.3619	66.4244	42.3717	74.3922	45.2201	13.1069	26.9442	62.5964	0
0.8247	21.4628	39.74	65.8232	41.4802	73.1898	44.6159	13.1069	26.0368	99.2284	0.313521
0.8253	21.1841	38.8382	63.9597	40.5609	71.34	43.7025	13.4089	26.3393	134.015	1.25409
0.8260	20.255	37.3145	61.8558	39.0287	69.5211	42.4799	13.1069	25.7344	133.11	1.25409
0.8267	19.6356	36.6926	60.6536	38.1094	67.9796	41.5666	12.4908	24.8018	126.099	0.627043
0.8273	19.6356	36.1018	59.6918	37.4966	66.4689	40.344	12.1888	23.8944	123.65	0.627043
0.8280	18.7374	35.169	57.8884	36.5772	64.6192	39.1215	12.1888	23.8944	127.004	0.940564
0.8287	18.4277	33.9562	56.3255	35.3794	63.1085	37.8989	11.5848	23.2895	99.5303	0.940564
0.8293	18.118	33.3343	54.8226	34.4601	62.1836	37.2947	11.2707	22.3569	43.6766	0.940564
0.8300	17.8083	32.7435	54.8226	33.8472	60.673	36.3813	10.9687	21.752	27.8094	0.940564
0.8307	17.4986	31.8107	51.4563	33.2343	59.1315	35.4538	10.9687	21.4495	36.0617	0.940564
0.8313	16.9101	30.9089	49.0518	31.0893	57.3125	35.1587	10.6667	22.0544	35.156	0.940564
0.8320	16.2907	29.976	59.3912	32.0086	57.0042	33.0228	10.3647	19.0046	34.5186	0.940564
0.8327	15.981	31.2198	15.4489	32.0086	55.4627	33.3179	10.0506	19.3071	34.2167	0.940564
0.8333	15.6713	27.8615	-82.4744	11.8674	51.2082	33.9362	10.3647	25.7344	33.6129	0.940564
0.8340	15.0828	24.1923	-136.516	-6.43514	57.6208	12.8719	9.14464	-22.8106	33.9148	0.940564
0.8347	14.1537	41.5746	-175.589	-2.17291	42.3601	-13.982	10.0506	-117.708	34.854	0.940564
0.8353	15.3616	-13.9619	-203.06	0.891448	-21.1184	-18.549	9.14464	-158.288	33.9148	0.940564
0.8360	9.26031	-143.039	-151.784	-0.947164	-55.3086	-17.3405	-7.6467	-156.473	33.3109	0.940564
0.8367	-10.8708	-155.882	-79.1682	-1.86647	-47.077	-19.7715	-24.426	-134.494	33.009	0.627043
0.8373	-24.3122	-91.4828	-33.3625	-3.70508	-45.8438	-20.3898	-23.822	-47.814	32.1033	0.627043
0.8380	-28.2765	-66.7619	29.5153	-3.09221	-43.4083	-18.549	-19.8476	77.3039	32.1033	0.627043
0.8387	-35.5856	-67.3528	141.204	-0.640729	-39.123	-17.0313	-18.0235	170.689	33.009	0.940564
0.8393	-47.4784	-35.0135	243.095	-0.334293	-34.8685	-17.6356	-17.4074	193.877	32.4052	0.940564
0.8400	-38.342	87.0673	223.919	-1.2536	-32.7104	-12.1411	-13.1431	156.044	31.4659	0.940564
0.8407	0.433593	148.388	118.301	-2.47934	-39.4313	-8.17841	-0.0120801	86.4533	30.8621	0.627043
0.8413	20.8744	66.6065	72.8564	-3.70508	-8.6015	-10.6235	10.9687	-5.72155	29.3525	0.940564
0.8420	17.2198	22.0467	81.9935	-8.27376	50.5916	6.77318	11.8868	-67.6504	28.1114	0.940564
0.8427	16.9101	35.7909	58.7901	-3.70508	62.8002	32.7136	10.9687	-27.6751	28.1114	0.940564
0.8433	17.2198	32.7435	37.4501	19.8069	53.9521	36.0721	11.2707	25.1042	28.4468	0.627043
0.8440	16.2907	29.976	43.822	32.315	55.4627	32.4045	10.6667	20.8446	30.2583	0
0.8447	16.2907	30.9089	45.0844	28.6656	54.5687	33.0228	10.0506	16.2573	28.7487	-0.313521
0.8453	16.2907	29.976	42.3192	28.3592	52.7189	32.1094	10.3647	19.9372	24.7568	0.627043
0.8460	15.6713	29.0743	41.7181	28.3592	51.5165	30.8868	10.3647	18.7022	52.8346	0.940564
0.8467	15.3616	28.4523	40.4557	27.1335	50.2833	30.2685	9.74864	18.0972	93.425	0.940564
0.8473	15.0828	27.8615	39.5541	26.5206	49.3584	29.6643	9.74864	17.7948	97.7188	0.627043
0.8480	14.4634	27.2396	38.6524	25.9077	48.1561	29.046	9.44664	17.1898	90.0704	0.627043
0.8487	14.1537	26.3068	37.4501	25.2948	46.9229	28.1326	9.14464	16.8622	88.5608	0.627043
0.8493	13.844	26.0269	36.1877	24.3755	45.7205	27.2192	9.14464	16.8622	92.8211	0.940564
0.8500	13.5343	25.405	36.4883	24.0691	44.179	26.615	9.14464	16.2573	74.5051	0.940564
0.8507	12.9458	24.1923	34.0838	22.8434	44.4873	26.9101	8.83055	15.0474	25.6961	0.940564
0.8513	13.844	23.2594	31.6192	22.2305	42.6684	23.2565	8.83055	17.1898	8.2858	0.940564
0.8520	11.707	27.5506	41.4175	25.6013	38.383	27.2192	7.30846	12.905	17.4438	0.940564
0.8527	12.3264	17.4756	-0.72135	12.1738	49.975	26.9101	8.52855	13.5099	17.4438	0.940564
0.8533	16.6004	23.2594	-128.581	-14.681	23.4306	-24.3525	9.14464	55.6276	14.693	0.627043
0.8540	-13.9369	79.7288	-220.733	-19.8626	-63.2318	-67.0854	-9.1688	88.8982	14.0892	0.940564
0.8547	-56.3361	36.1018	-225.602	-14.9875	-95.8805	-54.2557	-29.6204	46.7806	14.693	0.627043
0.8553	-52.3718	-114.369	-182.622	-17.1325	-79.7257	-41.4401	-30.2244	-27.9776	13.1835	0.627043
0.8560	-28.8649	-156.472	-112.41	-16.5197	-76.6736	-40.8358	-24.74	-68.8854	13.1835	0.940564
0.8567	-18.2109	-62.7817	-94.3767	-14.9875	-73.3132	-45.712	-21.3818	-71.0278	14.3911	0.940564
0.8573	-21.8655	37.6255	-116.979	-15.2939	-70.8776	-51.8247	-19.2436	-61.8532	14.0892	0.940564
0.8580	-28.8649	48.6022	-100.208	-14.9875	-68.1338	-49.0705	-16.1873	-66.1381	13.4854	0.940564
0.8587	-25.8297	-11.2255	-110.246	-14.681	-61.1046	-42.3535	-14.6652	-81.992	13.1835	0.940564
0.8593	-12.0787	-62.1909	-163.686	-14.3746	-67.5172	-40.5267	-13.1431	-70.0953	11.9423	0.940564
0.8600	7.43302	-43.2538	-174.386	-15.2939	-48.2794	-40.2175	-1.23217	-31.0274	12.2442	0.627043
0.8607	17.8083	16.8537	-101.109	-14.681	25.2496	-12.7594	11.5848	-7.53631	14.693	0.627043
0.8613	17.2198	33.3343	18.2141	4.23438	62.4919	29.6643	12.1888	9.25025	14.693	0.940564
0.8620	16.6004	24.5032	78.3266	25.9077	52.4106	39.1215	10.9687	22.987	15.5988	0.940564
0.8627	16.6004	26.3068	73.157	26.5206	51.5165	33.0228	11.2707	21.147	11.9423	0.940564
0.8633	15.981	26.0269	69.1895	23.4562	52.1331	33.627	10.9687	19.6095	14.0892	0.627043
0.8640	15.981	25.094	70.3918	24.682	50.2833	33.3179	10.6667	20.2397	49.48	0.940564
0.8647	15.3616	24.7831	67.6266	23.7627	49.081	31.8002	10.3647	19.0046	78.799	0.627043
0.8653	14.7731	23.8813	65.8232	22.8434	47.8478	31.1819	10.0506	19.0046	74.8071	0.627043
0.8660	15.0828	23.5704	64.621	22.5369	47.2312	30.8868	10.0506	19.0046	71.1506	0.940564
0.8667	14.4634	22.9795	62.7575	21.9519	46.0288	29.9734	9.44664	18.3997	71.1506	0.627043
0.8673	13.844	22.3576	61.2547	21.0326	44.7956	29.046	9.14464	17.7948	68.7017	0.627043
0.8680	13.844	21.7357	59.9923	20.7262	43.5624	28.4418	9.14464	17.1898	67.1922	0.627043
0.8687	13.5343	21.1449	58.1889	20.1133	42.6684	27.5284	8.83055	16.5597	65.3472	0.627043
0.8693	12.9458	20.834	56.6861	19.8069	41.7435	27.2192	8.52855	16.2573	64.1395	0.313521
0.8700	12.6361	20.212	55.4238	19.194	40.8186	26.3058	8.83055	16.2573	63.5357	0.940564
0.8707	12.3264	19.3103	53.9209	18.5811	39.6162	25.7016	8.52855	15.9548	59.2418	0.940564
0.8713	12.0167	18.9993	52.358	17.9683	38.6913	24.7741	8.22655	15.6523	61.3888	0.627043
0.8720	11.707	18.6884	52.358	18.2747	37.4581	24.479	7.92455	14.745	60.483	0.940564
0.8727	11.707	18.0976	48.7513	17.049	37.7664	24.7741	7.92455	13.8124	15.9342	1.25409
0.8733	11.707	17.1647	49.0518	16.1296	35.9475	20.8114	7.92455	18.3997	-24.3542	0.313521
0.8740	9.26031	19.6212	52.7187	20.1133	31.0764	25.0833	5.78637	6.5029	-20.6977	-0.627043
0.8747	10.8089	13.4954	4.44833	2.7022	44.4873	23.5656	7.30846	14.4425	-16.4374	0
0.8753	15.3616	17.4756	-73.3373	-30.8664	15.8157	-28.3153	9.14464	87.0583	-17.0412	0.940564
0.8760	-18.2109	53.7951	-115.476	-37.2737	-82.1613	-70.1348	-11.307	84.0084	-14.5924	0.940564
0.8767	-60.6101	27.2396	-123.411	-30.2535	-120.298	-59.1459	-32.0606	19.6095	-12.1436	0.940564
0.8773	-56.3361	-45.3994	-72.7362	-29.3342	-100.782	-47.8479	-28.0862	27.2467	-9.0909	0.940564
0.8780	-39.8596	-27.3951	-8.05508	-28.1085	-98.3469	-46.0211	-22.6019	6.5029	-6.97752	0.940564
0.8787	-34.068	34.858	-15.0281	-28.7214	-98.0386	-43.576	-25.042	-58.8034	-6.97752	0.627043
