MR32 ASCII
Name	CORE15_fast
Frequency	1500
Date	27-08-2015 12:28:18
"Time,s"	"RT TIB.ANT.,uV"	"RT MED. GASTRO,uV"	"RT LAT. GASTRO,uV"	"RT BICEPS FEM.,uV"	"RT VMO,uV"	"RT VLO,uV"	"RT RECTUS FEM.,uV"	"RT SOLEUS,uV"	"RT SEMITEND.,uV"	"Channel 12,uV"
0.0000	13.5094	354.294	-6.60475	-1.01724	9.74544	4.26714	-2.70193	440.135	-5.10327	-6110.3
0.0007	-59.1429	-11.3198	-173.56	3.57675	12.1914	6.0916	-1.47842	287.542	-2.0732	-10449.2
0.0013	-92.1309	-49.5032	-193.374	2.95328	12.8077	7.31294	-0.866657	210.328	-0.212636	-9818.7
0.0020	-40.5282	418.384	-42.3349	-0.393771	12.8077	7.01137	-2.39605	210.929	-1.11634	-9645.54
0.0027	28.4326	908.178	139.86	-1.01724	12.4996	5.79004	-3.00781	177.075	-0.531591	-9913.41
0.0033	57.7291	1091.89	230.812	0.820356	11.267	3.95049	-3.00781	64.1391	-0.212636	-9794.47
0.0040	89.1463	825.448	159.384	3.87208	10.6699	2.42759	-1.17254	133.415	0.372114	-9806.9
0.0047	119.385	380.2	-11.212	5.08621	5.77793	-1.23641	0.331369	437.067	-0.850545	-9816.47
0.0053	143.498	77.1552	-136.928	1.73915	-1.84894	-5.80511	-1.47842	426.093	-5.10327	-9817.43
0.0060	150.253	-264.017	-146.078	0.2297	-3.98677	-4.58378	-2.39605	39.7242	-6.00698	-9794.15
0.0067	106.897	-426.663	-197.047	0.820356	-3.0623	-2.14111	-1.78429	-214.464	-4.51852	-9829.86
0.0073	48.3039	21.626	-261.452	-0.393771	-1.54078	-0.919771	-2.09017	-234.61	-4.19957	-9892.05
0.0080	9.81787	594.433	-178.135	-1.93604	1.1941	1.20626	-1.47842	-95.4582	-3.29586	-9536.16
0.0087	2.51338	668.603	-121.076	-3.15017	4.25641	3.0458	-1.17254	17.1438	-2.0732	-10221.8
0.0093	14.4519	526.683	-151.587	-4.65962	9.43728	5.79004	-1.17254	-81.4163	0.0531591	-9702.94
0.0100	33.0666	832.488	-163.186	-5.28309	12.4996	7.31294	-2.09017	-99.1271	1.59477	-3703.3
0.0107	46.7331	1392.79	-171.724	-2.82202	14.6374	8.53427	-2.09017	-3.90238	1.91373	109.061
0.0113	-4.24132	1249.97	-57.8963	1.44383	18.6049	11.8967	0.637248	-173.873	4.35905	4.4645
0.0120	-100.064	633.799	307.717	1.73915	17.6805	10.6754	0.943127	-397.576	3.72114	-169.332
0.0127	-133.916	399.743	803.911	0.525028	13.0966	5.79004	-1.17254	-383.834	0.0531591	97.9
0.0133	-82.6272	194.972	1055.7	1.73915	9.12912	1.20626	-1.47842	-220.568	-2.65795	-21.0469
0.0140	-1.49232	-144.398	660.797	2.95328	4.25641	-3.67909	-2.09017	10.7399	-4.51852	-8.29121
0.0147	60.4781	-283.221	-5.70264	4.79088	-0.0192598	-5.50355	-1.17254	196.587	-4.78432	1.27557
0.0153	91.3455	-530.738	-309.972	6.00501	-5.81645	-7.94622	-1.47842	308.288	-6.00698	-0.956678
0.0160	80.6636	-823.702	-259.293	4.79088	-8.87875	-9.46912	-4.5372	380.299	-7.54859	-1.27557
0.0167	36.6796	-992.486	-117.693	3.57675	-6.43276	-6.72489	-4.5372	264.661	-6.64489	-0.956678
0.0173	4.94821	-1191.12	-236.708	2.65795	-7.02981	-5.50355	-3.92545	-60.9705	-6.96384	-0.637785
0.0180	-15.473	-1069.36	-476.283	3.87208	-8.57059	-4.28221	-2.39605	-312.124	-6.96384	-0.318893
0.0187	-28.5896	-686.062	-355.432	4.79088	-6.1246	-1.83954	0.331369	-364.022	-5.42223	-0.318893
0.0193	-27.0973	-466.029	-64.3077	2.36263	-4.91124	-2.14111	0.0254899	-267.563	-6.32593	-0.318893
0.0200	-15.473	-362.291	188.703	-0.0984427	-4.91124	-3.98065	-1.47842	-142.153	-8.1865	-0.637785
0.0207	-2.67046	-378.736	488.687	-1.93604	-4.91124	-5.50355	-2.09017	-52.7322	-8.77125	-0.637785
0.0213	-6.04781	-616.171	738.315	-4.06897	-3.67861	-5.50355	-2.39605	-21.6132	-8.1865	-0.637785
0.0220	-30.7888	-752.911	890.901	-4.98776	-0.943728	-3.98065	-0.560778	-95.158	-5.74118	-0.637785
0.0227	-69.5105	-507.535	773.4	-5.57842	-2.15709	-5.50355	-0.866657	-164.734	-5.42223	-0.318893
0.0233	-96.6864	-199.646	269.248	-4.36429	-2.15709	-6.12176	-1.78429	-170.838	-5.10327	-0.318893
0.0240	-100.928	89.0945	-149.139	-1.93604	1.50226	-3.36244	-1.17254	-128.111	-3.29586	-0.318893
0.0247	-73.5162	603.613	-111.894	-1.6079	2.11857	-1.53798	-1.17254	-25.8825	-3.29586	-0.318893
0.0253	-6.67615	902.659	51.6782	-0.689099	3.64009	1.20626	0.0254899	28.1505	-2.339	-0.318893
0.0260	76.6579	374.738	-45.3634	1.73915	4.56456	2.42759	0.637248	31.1857	-1.4353	-0.318893
0.0267	148.368	-364.432	-266.317	3.87208	-0.0192598	-1.53798	-0.560778	49.1967	-3.56166	-0.318893
0.0273	163.055	-510.294	-410.075	4.49555	-3.67861	-4.28221	-1.17254	77.2805	-5.42223	-0.318893
0.0280	118.443	-536.257	-556.539	2.36263	-4.29493	-4.58378	-2.09017	73.0112	-6.00698	-0.318893
0.0287	63.2271	-658.579	-475.671	1.73915	-3.67861	-3.06088	-1.78429	-85.9858	-5.74118	-0.318893
0.0293	-4.24132	-450.767	-169.597	1.44383	-3.0623	-2.45775	-0.254899	-141.219	-5.74118	-0.318893
0.0300	-49.9533	-117.197	-92.982	-0.689099	-4.29493	-3.36244	-1.78429	94.6577	-7.54859	-0.318893
0.0307	-39.5857	-68.088	-48.1342	-1.01724	-4.29493	-3.98065	-3.31369	228.639	-7.54859	-0.318893
0.0313	-33.7735	-328.107	111.798	0.2297	-0.635572	-3.06088	-3.31369	219.167	-6.00698	-0.318893
0.0320	-24.9767	-562.163	167.954	2.65795	3.33194	-0.316643	-1.47842	267.396	-4.51852	-0.318893
0.0327	34.5589	-533.159	78.8382	4.79088	4.25641	-0.316643	-0.254899	173.406	-2.97691	-0.956678
0.0333	83.0985	-454.146	-107.319	4.79088	1.81042	-3.36244	-2.39605	-61.2707	-2.97691	-1.27557
0.0340	73.2806	-424.241	-113.441	5.08621	2.11857	-2.45775	-3.00781	-147.957	-2.65795	-0.637785
0.0347	34.2447	-408.359	81.8667	5.70968	4.25641	-1.23641	-3.00781	-40.2245	-1.11634	0
0.0353	22.6204	-316.224	141.696	7.54727	6.39424	-1.53798	-3.00781	59.5697	0.0531591	0
0.0360	67.547	-129.418	-29.8019	9.38487	8.22392	-0.0150782	-2.39605	-81.7165	1.91373	-0.318893
0.0367	99.5925	-35.4238	-167.439	8.7614	8.53207	1.20626	-3.92545	-320.362	2.81743	-0.318893
0.0373	68.0968	48.2079	-121.656	8.13793	10.3617	3.0458	-4.23133	-314.559	3.13639	0
0.0380	14.6875	173.008	-69.4949	7.54727	11.5751	1.82446	-4.5372	-190.683	3.72114	0
0.0387	-15.1588	79.2953	-80.7713	6.33315	10.3617	-0.919771	-6.37248	-158.93	3.45534	-0.318893
0.0393	-4.24132	-80.5906	-135.091	6.9238	10.6699	-0.0150782	-6.37248	-93.6238	4.35905	-0.318893
0.0400	7.06887	123.843	-167.149	6.33315	9.12912	-1.53798	-7.59599	17.444	4.9438	0
0.0407	-17.5936	464.452	-183.934	5.08621	5.77793	-6.12176	-10.3489	64.7728	4.35905	-0.318893
0.0413	-23.0916	598.094	-271.826	4.79088	4.56456	-8.24779	-11.5469	40.6581	3.72114	-0.318893
0.0420	12.881	591.11	-354.53	5.41435	4.87272	-7.94622	-12.1587	-25.2487	4.35905	0
0.0427	37.3079	460.453	-453.086	6.9238	6.08608	-6.72489	-11.5469	-70.443	5.90066	0
0.0433	46.4189	121.139	-498.868	8.13793	7.91576	-5.50355	-10.9607	-27.4167	6.80436	-0.318893
0.0440	44.9266	-387.916	-341.095	7.54727	8.84023	-6.42332	-11.5469	68.1082	5.26275	-0.318893
0.0447	19.3216	-612.511	-104.291	6.9238	9.12912	-7.64466	-11.8528	186.514	3.72114	-0.318893
0.0453	-8.48264	-321.067	91.951	6.33315	9.74544	-8.24779	-10.6548	369.025	3.45534	0
0.0460	-27.0973	-74.5083	193.568	6.00501	11.267	-6.42332	-8.81951	291.211	4.04009	0
0.0467	-52.1525	-127.616	130.42	6.9238	13.4048	-3.98065	-6.37248	-70.1094	4.9438	-0.318893
0.0473	-64.955	-151.382	13.2095	6.00501	13.0966	-3.36244	-5.76072	-154.061	4.35905	-0.318893
0.0480	-48.461	-33.2837	-7.53908	3.57675	12.1914	-2.45775	-6.0666	-114.07	2.81743	0
0.0487	-19.4787	98.218	-7.2169	2.95328	12.4996	0.286486	-3.31369	-176.941	1.91373	0
0.0493	17.4365	125.701	-52.387	3.57675	14.3293	3.34736	0.331369	-70.7432	1.59477	-0.318893
0.0500	43.9841	102.498	-17.5912	4.79088	18.6049	8.23271	3.69604	73.3114	2.23268	0
0.0507	37.3079	104.357	113.022	3.57675	21.0317	13.4196	5.22543	103.83	1.27582	0.318893
0.0513	7.06887	86.335	246.051	1.11568	21.3398	14.9425	4.3078	134.349	-1.4353	0
0.0520	3.14172	86.335	304.366	2.03448	23.1695	14.9425	4.61367	133.748	-1.75425	0
0.0527	46.4189	115.339	251.238	2.65795	24.094	14.3243	5.83719	61.1039	-1.4353	0
0.0533	68.7251	104.357	208.839	2.65795	22.8613	12.8014	5.53131	-43.8934	-1.11634	0
0.0540	33.9306	94.5573	185.932	2.03448	21.9561	11.5801	4.3078	-143.354	-1.11634	0
0.0547	11.9385	118.999	34.5702	-0.393771	19.8183	9.1374	0.943127	-165.634	-2.97691	0
0.0553	26.3119	111.34	-102.454	-1.6079	18.2968	7.31294	-1.47842	-119.573	-3.88061	0
0.0560	19.6357	22.865	-66.1442	-1.6079	17.9886	7.31294	-3.00781	-51.4981	-3.29586	0
0.0567	-16.4155	-74.7898	-45.3634	-1.6079	18.2968	7.31294	-4.84308	62.9384	-2.65795	0
0.0573	-46.0262	-54.966	-54.5456	-0.689099	18.6049	5.79004	-1.17254	174.006	-2.0732	-0.318893
0.0580	-51.8384	67.4122	-28.8998	-0.0984427	16.756	4.26714	0.331369	190.816	-2.0732	-0.318893
0.0587	-33.2237	163.828	-107.319	-0.0984427	15.2345	3.34736	-6.98424	98.0265	-1.75425	0
0.0593	-6.04781	144.286	-114.955	-0.0984427	14.6374	2.72916	-13.3822	37.9231	-0.531591	0
0.0600	1.57086	91.7978	30.3174	-0.393771	13.0966	1.82446	-13.3822	51.9317	-0.531591	-0.318893
0.0607	1.02106	85.7155	-18.5255	-0.393771	13.0966	2.72916	-22.839	58.9693	-1.4353	0
0.0613	5.89072	70.1718	-154.004	-0.393771	14.9263	4.5687	-54.9053	127.311	-0.850545	0
0.0620	-6.04781	43.5899	-109.478	-0.689099	15.2345	5.48847	-79.9109	146.856	-0.850545	-0.318893
0.0627	-18.5361	6.08231	-48.7463	-1.01724	14.3293	4.5687	-75.0423	44.327	-2.339	-1.27557
0.0633	2.51338	-27.2014	-82.8977	-1.93604	14.0211	2.42759	-58.5503	-24.3482	-2.97691	-0.956678
0.0640	24.1912	37.1697	-93.3042	-1.6079	14.6374	2.42759	-50.0112	-96.3588	-2.65795	-0.318893
0.0647	-7.22595	133.022	9.56884	-1.01724	14.9263	2.12603	-52.1524	-124.443	-2.0732	0
0.0653	-40.5282	119.619	36.1167	-1.31257	14.0211	-0.919771	-57.6327	-11.2402	-2.97691	-0.318893
0.0660	-31.967	57.9509	-70.397	-1.01724	12.8077	-3.36244	-45.7289	-12.1407	-3.88061	-0.318893
0.0667	-14.8446	39.0281	-109.478	0.2297	11.5751	-5.50355	-16.1351	-114.37	-3.56166	0
0.0673	14.6875	37.5076	-93.8841	2.36263	12.1914	-6.12176	7.67246	-91.7893	-2.65795	0
0.0680	58.0433	28.9473	-105.805	3.57675	13.0966	-5.80511	15.2939	-108.266	-2.65795	0
0.0687	71.7883	30.4678	-97.557	1.44383	12.1914	-7.64466	20.188	-210.795	-5.10327	-0.318893
0.0693	43.1201	52.4317	-38.662	0.820356	11.8833	-8.24779	15.9057	-199.522	-6.32593	0
0.0700	3.45589	68.0317	18.1067	1.73915	12.1914	-7.02645	-6.98424	-102.463	-6.00698	0
0.0707	-21.9135	59.753	22.9717	2.03448	11.8833	-6.72489	-8.81951	-33.8206	-5.42223	0
0.0713	-22.856	43.9278	4.05951	3.87208	12.1914	-5.80511	-2.70193	12.2742	-2.65795	0
0.0720	-10.9175	31.7068	-4.47834	4.16741	11.5751	-4.28221	-36.578	42.4926	-1.11634	0
0.0727	-6.36198	25.005	-0.515493	3.28142	9.43728	-4.28221	-65.8914	27.2166	-0.850545	0
0.0733	-10.9175	27.7083	11.6952	2.95328	7.91576	-2.45775	-65.8914	-28.0171	0.0531591	0
0.0740	-10.9175	29.8484	19.0088	1.44383	7.6076	1.20626	-53.07	-57.902	-0.531591	0
0.0747	-0.235629	28.3278	33.9581	-1.31257	7.29945	6.0916	-71.6776	-39.9244	-2.0732	-0.318893
0.0753	8.63973	27.1451	31.5417	-2.5267	6.99129	9.45404	-167.188	-37.7897	-2.0732	-0.318893
0.0760	4.00569	25.9061	-30.4141	-2.82202	6.39424	8.83584	-250.209	-73.4782	-0.850545	0
0.0767	-12.724	30.4678	-61.247	-3.15017	5.16161	8.53427	-270.346	-74.7122	0.691068	0
0.0773	-35.0302	35.6491	8.02236	-3.74082	4.25641	9.45404	-281.638	-27.0832	0.691068	0
0.0780	-42.963	34.4664	52.5803	-4.06897	4.87272	9.75561	-261.807	7.40452	-0.212636	0
0.0787	-31.3386	35.6491	16.2702	-4.06897	4.25641	9.1374	-208.711	26.0159	-0.850545	-0.318893
0.0793	-22.5418	39.9292	-6.31479	-4.98776	2.73489	7.01137	-179.398	47.062	-1.75425	-0.318893
0.0800	-20.107	38.4086	1.9331	-7.41602	3.02378	8.23271	-189.467	60.8038	-3.88061	0
0.0807	-14.609	33.2274	4.05951	-10.4677	3.64009	10.9769	-214.804	40.6581	-6.00698	0
0.0813	-8.79681	31.3689	7.12025	-11.6819	4.87272	12.1983	-173.306	7.7047	-6.64489	0
0.0820	-10.2891	30.8058	20.2331	-10.7631	6.39424	10.3587	-60.9974	10.4397	-6.64489	-0.318893
0.0827	-10.2891	19.4859	29.0931	-10.1724	5.16161	1.82446	9.81362	-9.40574	-5.74118	-0.318893
0.0833	4.00569	3.32274	23.5838	-7.41602	3.64009	-9.46912	36.9604	-65.54	-2.97691	-0.318893
0.0840	13.8236	-1.23899	14.4338	-1.93604	1.81042	-18.0185	66.2738	-75.6128	0.372114	-0.318893
0.0847	8.63973	5.46281	12.9195	2.03448	0.905208	-23.5069	84.2697	-52.7322	2.49848	-0.318893
0.0853	0.078543	14.5863	20.2331	3.57675	1.50226	-25.0298	110.218	-33.8206	2.23268	0
0.0860	-8.16847	19.4859	30.3174	1.73915	0.905208	-24.7283	150.492	-16.41	-1.75425	0
0.0867	-14.2948	21.3444	33.6681	-0.393771	0.905208	-25.3465	157.808	-12.7411	-5.74118	-0.318893
0.0873	-14.609	20.387	33.6681	-0.393771	2.11857	-27.1709	150.492	-14.5756	-6.32593	-0.318893
0.0880	-14.2948	12.7841	43.1081	1.11568	3.02378	-26.2512	155.361	-10.6065	-5.10327	-0.318893
0.0887	-20.107	7.88447	50.1317	4.16741	3.94825	-21.3809	181.004	-7.87147	-1.4353	0
0.0893	-26.469	6.7018	33.9581	6.00501	3.02378	-19.2398	238.688	-2.06793	1.59477	0.318893
0.0900	-20.6568	3.94224	8.95669	4.49555	1.50226	-18.0185	276.82	3.73561	1.27582	0.318893
0.0907	-0.549801	9.40505	5.2838	5.41435	2.11857	-11.3087	268.587	-6.3372	1.91373	-0.318893
0.0913	1.88503	19.4859	28.1588	6.62848	3.02378	-4.28221	227.701	-16.1098	3.13639	-0.318893
0.0920	-31.0245	21.626	42.5282	5.70968	4.87272	3.64893	145.598	-5.73683	2.23268	0
0.0927	-59.7712	19.2043	34.2803	4.16741	5.77793	10.9769	45.1936	5.87025	-0.212636	-0.956678
0.0933	-59.457	17.3458	33.3459	1.11568	4.87272	15.2441	-28.0389	4.0358	-2.97691	-1.27557
0.0940	-45.712	13.4036	35.5046	-1.6079	4.87272	18.305	-67.7012	-6.93757	-3.29586	0
0.0947	-19.1645	6.36389	17.1724	-1.31257	3.94825	16.4654	-62.2209	-18.2445	-1.75425	0.637785
0.0953	10.4462	3.60433	1.61092	-0.689099	4.25641	14.641	-28.9565	-16.7102	-0.850545	0
0.0960	21.7564	5.12491	1.32095	-1.31257	5.16161	15.5456	-24.9801	-9.10555	-1.4353	-0.318893
0.0967	19.6357	3.60433	-5.70264	-2.5267	3.94825	15.8623	-33.2388	-4.20256	-2.339	-0.318893
0.0973	13.1952	2.42166	-11.7919	-2.5267	3.33194	19.2097	-31.4036	-2.06793	-2.339	0
0.0980	-0.235629	5.46281	-6.60475	-4.65962	3.94825	26.5377	-31.4036	-10.9067	-4.19957	0.318893
0.0987	-9.66079	9.12346	0.0966549	-8.92547	6.39424	35.3886	-2.39605	-21.313	-9.0902	0
0.0993	-9.66079	7.60288	5.57377	-11.0912	7.91576	39.0526	33.9016	-16.7102	-12.4392	0
0.1000	-13.3523	5.12491	7.41021	-10.1724	6.39424	35.087	27.8095	-6.3372	-11.2166	0
0.1007	-19.7928	7.26498	7.73239	-8.33482	4.25641	30.5032	24.139	4.0358	-7.54859	0
0.1013	-17.9078	6.08231	8.34454	-7.12069	3.33194	26.5377	49.4759	15.0092	-5.42223	-0.318893
0.1020	-13.0381	1.80216	8.34454	-5.87375	2.42673	20.431	66.5542	18.6781	-4.19957	-0.318893
0.1027	-10.6033	0.901082	8.95669	-4.06897	1.81042	15.2441	70.8365	18.9782	-1.11634	0
0.1033	-7.22595	-0.0563177	9.56884	-2.5267	-0.0192598	14.3243	79.9874	25.7157	1.01002	0
0.1040	-2.35629	-2.47798	8.34454	-2.5267	-1.84894	14.641	86.4108	23.8812	1.27582	-0.318893
0.1047	1.57086	-3.99855	7.41021	-2.82202	-1.84894	15.8623	85.7991	0.36689	1.59477	0
0.1053	1.57086	-4.61805	8.63451	-2.23137	-1.23262	16.767	95.2558	-14.5756	2.49848	0.318893
0.1060	-3.92715	-6.13862	10.181	-3.15017	-1.84894	15.2441	109.913	-2.06793	2.81743	0.318893
0.1067	-9.66079	-9.17978	10.471	-4.36429	-3.98677	8.53427	112.946	20.2123	2.23268	0
0.1073	-11.2316	-8.56028	11.0831	-2.5267	-4.91124	0.286486	108.077	34.8546	3.72114	0
0.1080	-12.1742	-3.71697	10.7609	-0.0984427	-5.81645	-8.54935	91.2794	40.6581	5.90066	0
0.1087	-13.3523	0.281588	10.471	2.03448	-6.74091	-14.9727	72.3659	43.6933	8.02702	0
0.1093	-13.3523	1.46426	10.181	3.28142	-7.02981	-16.4956	58.9327	48.2961	9.83443	0
0.1100	-11.86	-0.9574	8.02236	2.03448	-8.57059	-17.4003	33.2898	45.5278	9.24968	0
0.1107	-7.54013	-3.37906	7.12025	1.44383	-7.95428	-14.656	-7.29012	19.9121	7.38911	-0.318893
0.1113	-3.2988	-4.61805	6.18591	1.73915	-7.02981	-9.16756	-72.5953	-20.0789	7.12332	0
0.1120	-3.92715	-4.89964	4.05951	-0.0984427	-7.33797	-5.50355	-143.712	-38.6903	5.90066	0.318893
0.1127	-6.36198	-4.61805	4.05951	-4.36429	-6.74091	0.904693	-171.165	-28.6175	1.01002	0
0.1133	-5.73364	-5.51913	4.67165	-7.71135	-6.43276	5.79004	-172.388	-20.0789	-3.56166	0
0.1140	-5.10529	-5.51913	5.89595	-7.12069	-6.43276	3.95049	-172.082	-24.3482	-3.56166	0
0.1147	-5.73364	-3.37906	8.02236	-5.28309	-6.43276	0.286486	-149.804	-24.048	-2.65795	0
0.1153	-5.73364	-1.23899	9.56884	-2.23137	-6.1246	0.904693	-117.152	-14.5756	-0.212636	0
0.1160	-6.04781	-0.337906	9.8588	2.03448	-5.81645	4.5687	-92.7323	-6.03702	4.04009	0
0.1167	-7.22595	-2.47798	6.18591	1.44383	-6.1246	7.31294	-49.0936	-5.73683	3.13639	-0.318893
0.1173	-7.54013	-4.33646	2.83521	-3.4455	-4.60308	10.0572	-5.45484	-6.63738	-2.65795	-0.956678
0.1180	-7.8543	-3.37906	4.67165	-4.65962	-3.0623	7.31294	10.7313	-0.533659	-3.88061	-0.318893
0.1187	-6.36198	0.901082	8.63451	-1.6079	-3.37046	1.82446	53.4524	6.47061	-0.212636	0.318893
0.1193	-4.79112	3.60433	9.8588	1.11568	-3.37046	3.95049	112.64	8.30507	1.91373	0.318893
0.1200	-6.67615	-0.9574	5.57377	0.525028	-4.60308	5.17183	131.579	5.87025	0.372114	0
0.1207	-7.54013	-4.89964	2.54525	-1.93604	-5.81645	3.34736	138.283	5.57006	-1.75425	-0.318893
0.1213	-6.36198	-5.85704	0.998767	-5.57842	-5.81645	4.26714	118.758	7.7047	-6.00698	0
0.1220	-5.73364	-4.89964	1.32095	-6.49722	-4.60308	6.70981	71.4482	8.90543	-9.0902	0
0.1227	-4.47695	-0.0563177	4.38169	-3.74082	-1.54078	8.53427	83.9638	9.53915	-9.0902	-1.27557
0.1233	-4.24132	-0.0563177	4.05951	-5.28309	-0.0192598	12.1983	142.565	8.90543	-11.8013	-0.956678
0.1240	-4.47695	-3.37906	1.9331	-11.0912	0.288896	18.9081	161.784	11.3736	-15.7882	0
0.1247	-5.41947	-4.89964	0.708803	-14.4383	-0.327416	23.4919	135.836	11.974	-17.5957	0
0.1253	-5.10529	-3.99855	1.32095	-12.6007	-0.0192598	24.3966	110.524	12.8745	-16.692	-0.318893
0.1260	-3.61298	-1.57689	3.44736	-10.4677	1.50226	21.9539	107.16	16.8436	-15.2035	0
0.1267	-2.98463	-3.71697	0.998767	-11.6819	-0.635572	13.7212	110.524	16.8436	-15.7882	0
0.1273	-1.72795	-4.61805	-0.805458	-9.84427	-2.15709	7.6145	121.791	18.0777	-13.6619	-0.318893
0.1280	-0.549801	-5.23754	-1.41761	-9.25362	-3.0623	4.87026	134.306	20.5125	-12.7582	-0.318893
0.1287	-0.235629	-7.03971	-2.6419	-9.54894	-4.60308	0.286486	98.3146	20.5125	-12.7582	0
0.1293	1.02106	-3.71697	-1.12764	-6.49722	-3.0623	-4.90042	46.4171	23.8812	-9.356	0
0.1300	1.88503	-4.89964	-2.35194	-7.12069	-4.60308	-8.54935	37.2663	24.4816	-8.77125	0
0.1307	1.88503	-7.37761	-3.8662	-8.63015	-7.33797	-6.42332	25.9742	23.5477	-9.0902	-0.318893
0.1313	1.88503	-4.89964	-2.6419	-8.33482	-7.33797	-1.23641	-0.560778	25.082	-7.22964	-0.318893
0.1320	2.1992	-6.42021	-4.47834	-10.1724	-9.16764	-0.316643	-32.6271	22.9473	-7.86755	0
0.1327	3.77006	-5.51913	-3.57623	-8.92547	-8.87875	0.286486	-88.7559	24.1814	-6.64489	0.318893
0.1333	4.31986	-3.71697	-2.35194	-8.33482	-9.16764	1.20626	-127.832	26.3161	-5.10327	0
0.1340	4.31986	-5.85704	-4.80053	-9.84427	-13.1352	-1.23641	-108.918	24.1814	-5.74118	0
0.1347	6.44052	-4.89964	-4.18838	-8.03949	-13.7515	-3.06088	-64.9738	24.4816	-3.56166	0
0.1353	1.57086	-4.61805	-2.96408	-6.79255	-13.7515	-4.90042	-44.5054	24.7818	-2.339	0
0.1360	-11.2316	-5.51913	-3.57623	-5.57842	-14.9648	-8.86599	-23.1448	24.4816	-0.850545	0
0.1367	-13.0381	-4.61805	-3.57623	-1.93604	-16.1975	-12.8316	-31.4036	25.3821	3.72114	-0.318893
0.1373	-11.2316	-4.61805	-3.57623	-0.0984427	-17.719	-14.3545	-108.307	24.1814	4.9438	-0.637785
0.1380	-16.4155	-3.71697	-3.57623	0.2297	-18.3353	-13.1331	-185.21	23.2475	4.9438	-0.318893
0.1387	-21.5993	-2.19639	-3.8662	1.11568	-17.4108	-11.3087	-232.494	24.1814	5.90066	-0.318893
0.1393	-26.469	-2.47798	-4.80053	1.44383	-18.0271	-12.8316	-222.425	23.5477	6.80436	0
0.1400	-24.0342	-4.61805	-6.92694	1.44383	-20.762	-15.5758	-187.963	21.4131	8.29282	0
0.1407	2.82755	-6.75812	-8.15123	0.525028	-22.3028	-13.4347	-199.229	20.5125	7.12332	-0.318893
0.1413	36.9937	-6.13862	-7.53908	-1.31257	-21.0702	-6.42332	-202.594	21.4131	4.35905	-0.318893
0.1420	40.9994	-3.37906	-5.09049	-0.0984427	-18.0271	-0.919771	-224.872	22.347	4.04009	0
0.1427	25.6836	-1.23899	-3.57623	2.03448	-15.273	0.904693	-294.46	22.347	4.678	-0.318893
0.1433	18.6932	-3.09747	-4.18838	0.820356	-15.5811	-0.0150782	-397.923	20.8127	3.13639	-0.318893
0.1440	18.3791	-4.61805	-5.41268	-1.93604	-15.273	3.34736	-563.939	19.612	0.691068	0
0.1447	13.5094	-3.09747	-5.09049	-4.65962	-12.5381	10.0572	-630.748	18.9782	-2.339	-0.318893
0.1453	12.881	-2.19639	-4.18838	-4.65962	-11.9218	8.23271	-530.369	17.1438	-3.88061	-0.318893
0.1460	19.3216	-0.337906	-2.35194	-0.689099	-13.1352	1.82446	-415.613	16.2432	-0.850545	0
0.1467	6.7547	1.18267	-0.515493	1.44383	-13.4433	-1.83954	-342.075	16.2432	1.91373	0
0.1473	-11.2316	0.901082	-0.225528	1.44383	-12.827	-8.24779	-282.25	15.9431	1.59477	0
0.1480	-13.6665	1.80216	0.0966549	1.73915	-12.2299	-17.0987	-200.147	16.2432	-0.531591	0
0.1487	-6.36198	2.08375	0.708803	0.2297	-12.5381	-23.5069	-65.8914	18.9782	-3.56166	0
0.1493	57.1007	2.70325	2.54525	-1.6079	-11.6136	-25.9496	102.571	21.7466	-5.10327	0
0.1500	135.879	6.7018	5.89595	-2.23137	-8.57059	-24.1252	238.688	23.2475	-5.42223	0
0.1507	77.9146	10.3624	9.56884	-2.23137	-6.43276	-20.4611	340.01	23.2475	-6.64489	0
0.1513	-41.7063	12.7841	13.8217	-1.01724	-5.20013	-17.4003	409.878	26.3161	-6.64489	0.318893
0.1520	-48.1468	14.9242	18.3967	-1.01724	-4.29493	-12.2134	429.429	31.1857	-6.96384	0
0.1527	8.9539	19.4859	25.4202	-1.6079	-2.7734	-4.58378	419.972	33.6205	-8.4523	-0.956678
0.1533	-11.2316	24.0476	31.8317	-0.689099	-1.23262	-0.316643	354.335	38.5235	-7.86755	-0.637785
0.1540	-143.969	24.6671	33.6681	1.11568	-0.327416	-1.53798	272.258	47.3622	-5.42223	0
0.1547	-295.322	23.7661	33.056	2.36263	0.288896	-5.80511	202.059	55.0002	-4.19957	-0.318893
0.1553	-400.648	19.2043	29.0931	1.44383	-0.635572	-14.656	108.383	61.1039	-5.42223	0
0.1560	-309.381	7.88447	17.4945	-2.23137	0.288896	-17.4003	90.6676	67.808	-9.0902	0
0.1567	84.905	-6.42021	0.708803	-5.57842	4.25641	-7.02645	49.7818	77.8808	-11.2166	0
0.1573	398.056	-20.1617	-16.3991	-6.49722	5.77793	6.70981	-167.8	87.6535	-10.8976	0
0.1580	388.238	-31.1437	-29.512	-6.79255	7.6076	14.3243	-285.92	95.2915	-11.2166	0
0.1587	258.563	-37.2823	-38.0498	-7.41602	10.3617	19.8279	-208.1	105.664	-13.024	0
0.1593	146.875	-40.3234	-44.1713	-9.25362	9.12912	22.2705	-128.75	108.7	-13.9808	0.318893
0.1600	178.921	-40.9429	-48.1342	-8.33482	7.29945	17.6868	-37.8015	103.23	-12.7582	-0.318893
0.1607	212.773	-35.7617	-45.6856	-4.36429	6.99129	10.6754	88.5265	92.5231	-9.67495	-0.318893
0.1613	24.1912	-26.3003	-36.8255	-4.36429	3.02378	5.48847	190.461	66.2738	-8.1865	0
0.1620	-219.685	-9.17978	-19.7498	-2.82202	0.288896	0.904693	266.752	33.6205	-5.42223	0
0.1627	-369.231	7.60288	-3.8662	0.820356	-0.635572	-4.58378	313.755	4.63616	-1.75425	0
0.1633	-386.589	11.2635	-3.8662	0.2297	-4.29493	-9.77069	335.116	-28.6175	-2.97691	-0.318893
0.1640	-319.12	10.0245	-8.76338	-0.0984427	-3.67861	-10.6905	373.58	-54.5666	-4.19957	-0.318893
0.1647	-265.161	7.26498	-11.5019	-0.393771	-1.54078	-11.3087	427.899	-60.9705	-4.19957	0
0.1653	-207.432	2.42166	-15.787	-2.82202	-2.46525	-11.6102	476.101	-57.6018	-6.64489	0
0.1660	-62.8344	4.84332	-11.7919	-1.01724	-0.943728	-7.34309	486.501	-53.0323	-6.96384	0
0.1667	148.682	5.7444	-6.92694	1.44383	0.288896	-9.16756	433.991	-49.6636	-6.00698	0
0.1673	261.627	0.901082	-8.4412	2.95328	-0.943728	-18.32	287.526	-44.4938	-5.42223	0
0.1680	219.213	1.46426	-5.09049	7.54727	2.11857	-20.4611	84.8814	-28.9176	-1.75425	-0.318893
0.1687	103.205	2.70325	-2.35194	7.54727	3.94825	-14.9727	-29.2624	-18.8448	-1.75425	0
0.1693	101.085	2.70325	-3.57623	3.57675	3.02378	-6.12176	-70.1482	-27.4167	-5.74118	0
0.1700	235.079	6.36389	-3.25405	1.73915	4.56456	1.20626	-130.891	-42.3592	-7.22964	-0.318893
0.1707	211.595	8.78555	-2.02975	0.525028	6.39424	2.72916	-158.955	-46.9286	-8.1865	0
0.1713	25.9977	8.78555	-0.515493	-0.0984427	6.70239	-1.83954	-141.265	-40.5247	-8.4523	0
0.1720	-93.9374	9.12346	0.38662	1.73915	5.77793	-6.72489	-134.842	-37.4562	-8.4523	-0.318893
0.1727	-119.857	5.46281	-3.25405	1.73915	3.64009	-9.16756	-127.526	-37.156	-9.0902	-0.318893
0.1733	-75.3227	2.70325	-4.47834	1.11568	2.73489	-9.16756	-95.1793	-39.9244	-9.0902	-0.318893
0.1740	-77.1292	4.84332	-0.225528	1.11568	4.56456	-3.67909	-53.3759	-50.2973	-8.77125	-0.318893
0.1747	-101.242	7.60288	4.96162	1.73915	7.29945	4.26714	-16.441	-53.0323	-8.4523	-0.318893
0.1753	134.073	5.46281	5.57377	2.03448	7.91576	7.31294	19.8821	-42.6594	-8.4523	0
0.1760	526.788	-0.0563177	2.54525	1.11568	6.39424	5.79004	49.17	-30.4519	-9.67495	0
0.1767	586.952	-1.85848	2.83521	0.2297	4.87272	5.17183	58.3209	-22.2136	-10.5787	0
0.1773	278.67	-0.0563177	4.96162	-0.689099	3.64009	4.87026	39.4074	-21.9134	-11.5355	-0.318893
0.1780	42.4918	2.08375	5.89595	-1.31257	3.02378	4.26714	8.89598	-24.3482	-11.8013	-0.318893
0.1787	-19.1645	4.22382	5.89595	-0.393771	3.02378	3.95049	-6.98424	-20.9795	-10.8976	-0.318893
0.1793	-9.42516	1.80216	3.76954	0.2297	1.81042	1.50782	-19.8057	-14.5756	-11.5355	-0.318893
0.1800	155.672	-2.47798	0.0966549	-0.0984427	0.288896	-1.83954	-28.0389	-11.2402	-11.5355	-0.318893
0.1807	301.605	-7.6592	-6.02482	1.44383	-0.0192598	-3.36244	-18.2763	-4.20256	-9.99391	0
0.1813	61.7348	-18.3596	-17.9134	3.28142	0.288896	-5.50355	-4.23133	7.7047	-8.4523	0
0.1820	-289.824	-24.7798	-24.3248	4.49555	2.11857	-6.42332	7.06071	16.8436	-6.96384	0
0.1827	-309.067	-22.3018	-20.362	4.49555	3.64009	-5.80511	22.9154	18.0777	-6.96384	-0.318893
0.1833	-254.715	-20.4996	-14.5627	2.95328	2.11857	-7.94622	36.6545	11.6738	-9.67495	-0.637785
0.1840	-342.369	-18.3596	-9.98768	2.65795	0.905208	-9.46912	33.2898	9.53915	-10.5787	-0.637785
0.1847	-384.782	-13.4599	-3.8662	2.65795	0.597052	-8.54935	30.2565	13.1747	-9.67495	0
0.1853	-349.045	-7.03971	3.76954	0.820356	-1.84894	-9.46912	35.7369	10.7399	-10.8976	0
0.1860	-291.394	-1.23899	10.471	-0.0984427	-2.7734	-10.992	49.7818	8.00488	-12.1203	-0.318893
0.1867	-193.687	-0.337906	11.0831	-0.0984427	-2.15709	-12.2134	69.613	4.63616	-12.7582	-0.318893
0.1873	8.32556	-2.47798	7.12025	-0.689099	-1.84894	-11.6102	60.1562	-6.93757	-14.5656	-0.318893
0.1880	242.069	-3.71697	4.67165	-1.31257	-0.635572	-8.86599	23.2213	-18.8448	-16.1072	-0.318893
0.1887	313.779	-7.37761	0.0966549	-3.15017	-0.327416	-6.72489	0.0254899	-23.4476	-18.2336	0
0.1893	232.644	-11.3198	-5.09049	-2.23137	0.597052	-4.90042	0.637248	-21.6132	-18.2336	-0.318893
0.1900	74.8515	-13.7978	-9.66549	0.525028	1.50226	-4.58378	20.188	-19.145	-16.4262	-0.318893
0.1907	-86.3187	-18.979	-14.8526	1.44383	1.81042	-5.80511	43.6897	-20.3791	-16.1072	0
0.1913	-113.416	-21.4007	-16.0769	4.79088	3.94825	-2.45775	61.3797	-15.5095	-13.6619	0.318893
0.1920	-29.218	-21.1191	-15.4648	6.62848	4.56456	1.50782	83.9638	-12.1407	-11.2166	0.318893
0.1927	29.0609	-18.3596	-12.7262	4.16741	1.81042	-0.0150782	95.8676	-25.2487	-13.9808	0
0.1933	25.6836	-10.7004	-5.09049	5.08621	3.02378	0.603129	81.8226	-36.2554	-14.8845	0
0.1940	-23.4058	-8.2787	-1.73979	7.21913	5.46977	2.72916	63.8267	-33.8206	-13.3429	0
0.1947	-77.1292	-14.361	-6.31479	5.70968	3.94825	0.603129	51.6171	-30.4519	-14.8845	-0.318893
0.1953	-67.704	-14.361	-6.31479	6.9238	3.64009	-0.618207	35.431	-24.9486	-14.2466	-0.318893
0.1960	-2.98463	-7.6592	-2.02975	8.13793	3.02378	-2.14111	17.741	-19.4785	-13.3429	0
0.1967	71.1599	-4.33646	0.708803	6.33315	-0.0192598	-6.72489	0.331369	-18.8448	-14.8845	0
0.1973	139.257	1.18267	5.57377	7.21913	0.288896	-6.42332	-12.4646	-14.5756	-13.9808	0
0.1980	172.48	4.22382	7.41021	6.62848	-0.635572	-4.90042	-18.2763	-8.17165	-14.5656	0
0.1987	117.265	3.04115	5.2838	2.95328	-3.0623	-4.28221	-28.0389	-3.6022	-18.5525	-0.318893
0.1993	7.38304	3.94224	4.05951	2.36263	-0.327416	0.286486	-51.8465	0.967257	-20.6789	0
0.2000	-34.716	-0.675812	-2.96408	2.95328	0.905208	3.34736	-74.7364	0.36689	-21.2636	0
0.2007	-13.3523	-6.42021	-11.212	3.28142	0.288896	2.72916	-75.0423	-0.833842	-20.041	-0.318893
0.2013	-6.04781	-3.71697	-9.37553	5.41435	1.81042	2.72916	-60.0797	0.667074	-16.4262	-0.318893
0.2020	0.706887	-2.19639	-7.2169	5.70968	0.597052	1.20626	-39.9427	-1.76775	-14.8845	0
0.2027	0.078543	-6.75812	-9.98768	4.49555	-1.84894	2.12603	-23.4507	-3.30201	-15.4693	-0.318893
0.2033	-38.9573	-9.51768	-12.404	3.28142	-0.943728	4.5687	-47.8701	-1.46756	-15.7882	-0.318893
0.2040	-51.5242	-9.79927	-13.9505	2.65795	-0.635572	3.34736	-92.1206	-3.90238	-15.2035	0
0.2047	5.26238	-7.03971	-10.2776	2.65795	-1.54078	1.20626	-92.7323	-10.0061	-13.9808	0.318893
0.2053	51.9169	0.563177	-1.41761	3.87208	-1.54078	3.0458	-69.2306	-16.7102	-12.4392	0
0.2060	55.6084	4.84332	4.38169	3.57675	-1.23262	5.79004	-51.8465	-23.1141	-11.8013	0
0.2067	21.1281	3.32274	4.96162	2.95328	-2.15709	6.39316	-30.1801	-20.9795	-11.5355	0
0.2073	-32.9095	-0.0563177	3.44736	3.57675	-1.54078	6.70981	-3.00781	-7.87147	-10.5787	0
0.2080	-47.8327	-4.89964	-1.12764	4.16741	0.288896	7.01137	21.7174	8.60525	-8.4523	0
0.2087	-45.3978	-8.89819	-5.41268	4.49555	1.1941	5.48847	33.0094	16.8436	-6.64489	0
0.2093	-53.0165	-10.0809	-7.2169	3.28142	-0.327416	2.42759	34.5133	14.709	-6.64489	0
0.2100	-60.321	-9.79927	-8.76338	2.65795	-1.54078	0.904693	44.5819	14.4088	-7.22964	0
0.2107	-104.619	-7.37761	-8.76338	2.65795	-1.23262	1.50782	57.0974	11.3736	-6.64489	0
0.2113	-132.345	-3.71697	-6.92694	2.03448	-0.943728	1.82446	58.6268	5.26988	-6.64489	0
0.2120	-27.0973	-1.57689	-5.70264	2.95328	0.288896	3.0458	59.2386	10.1395	-6.32593	-0.318893
0.2127	62.5988	-2.19639	-6.31479	3.87208	1.50226	3.64893	58.9327	15.9431	-4.51852	-0.956678
0.2133	27.5686	-2.47798	-6.02482	2.36263	0.905208	1.82446	36.0427	8.30507	-5.10327	-0.318893
0.2140	-3.2988	-1.85848	-3.8662	2.03448	0.288896	0.603129	0.637248	1.30079	-6.00698	0.318893
0.2147	-37.465	-1.57689	-1.41761	3.28142	-0.635572	0.603129	-11.2411	4.33598	-5.42223	-0.318893
0.2153	-35.9727	-0.9574	0.0966549	3.57675	-1.54078	-0.0150782	-2.09017	11.3736	-4.19957	-0.318893
0.2160	45.5549	2.42166	2.54525	4.79088	-0.943728	2.12603	4.91955	16.8436	-3.29586	-0.318893
0.2167	29.3751	3.94224	3.44736	5.70968	-1.23262	3.64893	4.91955	12.5743	-2.339	-0.318893
0.2173	-27.0973	0.901082	0.38662	4.49555	-2.46525	2.12603	4.61367	3.43543	-2.339	0
0.2180	-4.24132	-1.85848	-2.6419	4.49555	-1.54078	1.82446	3.69604	3.73561	-2.339	0
0.2187	-7.8543	-3.37906	-3.57623	3.87208	-1.84894	2.42759	-6.0666	5.57006	-2.97691	-0.318893
0.2193	8.63973	-5.51913	-5.09049	2.65795	-1.54078	3.0458	-8.81951	4.0358	-3.29586	-0.318893
0.2200	47.0472	-9.17978	-8.4412	2.03448	0.597052	5.17183	-3.31369	8.90543	-3.29586	-0.318893
0.2207	39.7427	-13.4599	-12.7262	1.11568	1.81042	6.39316	-35.0486	14.709	-4.78432	-0.318893
0.2213	170.36	-14.6989	-16.3991	-0.0984427	1.81042	6.39316	-83.8873	14.1086	-6.96384	-0.318893
0.2220	329.645	-14.6989	-17.9134	0.2297	0.905208	5.79004	-110.728	11.6738	-6.32593	0
0.2227	233.194	-17.7401	-20.9741	2.03448	0.905208	6.0916	-138.206	10.4397	-4.78432	0
0.2233	148.368	-18.6411	-21.2641	4.16741	3.64009	6.70981	-150.416	11.3736	-2.65795	-0.318893
0.2240	208.532	-13.4599	-14.8526	5.41435	3.94825	5.17183	-134.842	8.90543	-1.4353	-0.318893
0.2247	116.008	-7.03971	-5.70264	4.16741	0.597052	3.0458	-114.399	-2.06793	-1.75425	0.318893
0.2253	-13.9806	-1.57689	0.998767	2.95328	-0.327416	3.95049	-91.2029	-10.9067	-2.339	-0.318893
0.2260	7.38304	0.563177	1.9331	2.03448	-1.23262	3.95049	-67.0895	-11.8406	-2.65795	-0.318893
0.2267	-23.72	2.42166	2.22306	2.03448	-1.54078	3.0458	-32.0153	-12.4409	-2.339	0
0.2273	-160.149	7.60288	5.57377	3.87208	-0.0192598	4.5687	16.2116	-16.1098	-0.531591	0
0.2280	-216.622	9.74295	7.41021	4.79088	-0.635572	3.34736	48.2524	-18.8448	0.0531591	-0.318893
0.2287	-165.961	8.50397	7.41021	4.79088	-1.84894	0.904693	71.1424	-16.41	0.691068	0
0.2293	-120.799	7.60288	6.79806	5.70968	-0.943728	1.82446	94.3382	-14.5756	2.49848	0
0.2300	-105.248	6.36389	5.2838	5.70968	-0.635572	4.5687	100.124	-19.145	2.81743	0
0.2307	-85.062	7.60288	6.18591	6.62848	1.50226	9.75561	87.6343	-19.7787	3.13639	0
0.2313	-47.2043	5.46281	4.38169	7.8426	3.94825	12.4998	64.4385	-13.0413	4.35905	0
0.2320	27.8042	-1.57689	-1.12764	7.21913	2.73489	10.9769	38.7957	-7.57129	4.678	-0.318893
0.2327	89.1463	-4.33646	-3.25405	6.62848	1.50226	10.0572	-3.92545	-4.80293	4.35905	0
0.2333	60.7923	-5.85704	-5.09049	5.08621	0.597052	9.1374	-50.3171	-3.90238	2.49848	0
0.2340	-6.91178	-6.13862	-5.41268	3.57675	1.50226	10.3587	-67.7012	-2.66829	-0.212636	-0.318893
0.2347	-41.7063	-0.337906	-0.225528	2.65795	3.94825	13.1181	-67.0895	-0.533659	-2.65795	-0.318893
0.2353	-53.6449	3.94224	3.15739	0.820356	3.64009	11.5801	-60.6915	-0.833842	-4.19957	0
0.2360	-52.1525	4.56173	4.67165	1.73915	2.42673	8.83584	-45.1171	0.36689	-2.65795	0
0.2367	-36.5225	5.7444	5.89595	2.95328	1.81042	7.6145	-23.1448	1.90116	-1.11634	0
0.2373	-52.3882	6.36389	5.89595	1.11568	-0.327416	4.87026	-2.09017	-2.36811	-2.97691	0
0.2380	-98.1787	10.0245	9.24665	1.11568	0.597052	5.17183	11.9293	-3.00183	-2.339	0
0.2387	-112.866	14.0231	11.9852	2.65795	2.42673	7.31294	33.9016	0.667074	-0.850545	0
0.2393	-126.611	10.9256	7.41021	2.36263	1.50226	5.79004	67.4718	2.50153	-2.339	0
0.2400	-168.396	5.46281	1.9331	2.36263	-0.0192598	3.0458	72.6717	7.7047	-2.97691	-0.318893
0.2407	-137.293	3.04115	0.0966549	2.65795	-0.327416	0.603129	42.7721	15.3093	-1.4353	-0.637785
0.2413	-45.3978	-1.23899	-2.35194	2.36263	-0.0192598	-1.23641	25.0566	19.9121	-0.850545	0
0.2420	-28.5896	-5.85704	-5.41268	4.16741	2.73489	-0.316643	22.3037	26.6162	0.691068	0.318893
0.2427	-47.5185	-8.2787	-6.02482	6.00501	4.25641	-0.0150782	13.1528	32.72	3.45534	-0.318893
0.2433	-51.8384	-11.0383	-6.31479	3.87208	2.73489	-2.14111	5.53131	30.8855	4.04009	-0.318893
0.2440	-29.8463	-12.5588	-8.4412	3.57675	1.1941	-2.45775	8.5901	31.4859	4.35905	-0.318893
0.2447	84.905	-13.7978	-11.212	4.49555	-0.943728	-3.36244	15.2939	38.5235	4.678	-0.318893
0.2453	170.988	-11.9393	-9.37553	5.70968	-1.23262	-4.28221	20.7998	43.6933	5.5817	0
0.2460	117.893	-7.99711	-6.92694	7.54727	1.81042	-2.75931	30.8683	44.9274	7.70807	0
0.2467	86.1616	-13.1783	-13.6283	6.9238	3.02378	-3.36244	39.1015	40.9583	8.61177	0
0.2473	110.274	-20.7812	-21.8762	6.62848	2.42673	-3.98065	37.878	34.2542	8.93073	0
0.2480	52.2311	-19.8801	-22.1984	7.8426	2.11857	-3.06088	40.325	22.6471	9.24968	-0.318893
0.2487	11.0746	-14.6989	-17.0113	7.21913	1.1941	-3.67909	46.4171	4.33598	8.93073	-0.318893
0.2493	54.1161	-5.23754	-7.53908	7.54727	2.42673	-2.45775	43.3838	-11.8406	9.83443	-0.318893
0.2500	42.4918	3.32274	-0.805458	7.54727	2.73489	-1.23641	36.6545	-24.6484	9.51548	-0.318893
0.2507	-19.7928	3.94224	-0.805458	4.79088	0.905208	-2.45775	28.7271	-31.3525	6.48541	-0.318893
0.2513	-68.568	5.12491	-0.225528	3.28142	1.1941	-2.45775	19.2704	-29.8515	4.04009	0
0.2520	-89.3819	4.84332	-1.41761	2.36263	1.1941	-2.14111	11.9293	-27.0832	1.91373	0
0.2527	-60.0854	1.46426	-3.8662	2.03448	2.42673	-0.919771	11.6234	-24.048	-0.212636	-0.318893
0.2533	-25.8406	3.94224	-1.41761	3.28142	5.77793	1.82446	16.5175	-19.145	0.0531591	0
0.2540	-15.1588	6.7018	0.998767	3.57675	5.16161	1.20626	16.8233	-17.9443	1.01002	0.318893
0.2547	-5.41947	6.36389	1.61092	2.95328	2.73489	-1.23641	12.2352	-20.9795	1.59477	0.318893
0.2553	-14.2948	6.98339	2.54525	3.28142	2.11857	-2.45775	7.97834	-20.3791	2.81743	-0.318893
0.2560	-43.2772	6.08231	2.54525	2.95328	1.1941	-3.36244	4.00192	-14.2754	3.72114	-0.637785
0.2567	-63.3842	6.98339	4.96162	3.87208	1.81042	-2.45775	2.16664	-5.73683	5.26275	-0.318893
0.2573	-72.2595	9.12346	6.79806	4.79088	3.33194	-1.23641	2.47252	-0.833842	6.48541	0
0.2580	-88.1252	4.84332	1.32095	3.28142	1.81042	-3.36244	0.637248	-2.06793	5.90066	-0.318893
0.2587	-119.228	2.08375	-1.73979	4.16741	1.1941	-3.67909	-0.866657	-1.16738	6.80436	-0.318893
0.2593	-151.902	1.80216	-1.12764	4.79088	1.1941	-3.67909	-1.78429	4.33598	7.38911	0
0.2600	-144.283	-0.337906	-2.02975	3.87208	0.288896	-5.50355	-4.5372	8.90543	5.90066	0
0.2607	-30.1605	2.08375	0.38662	5.08621	1.81042	-3.98065	-3.92545	13.8084	7.12332	0
0.2613	105.954	5.12491	3.44736	6.33315	3.33194	-3.06088	-1.78429	16.2432	8.93073	0
0.2620	94.4087	4.56173	3.76954	5.08621	1.81042	-4.28221	-1.47842	15.6429	7.70807	0
0.2627	11.0746	3.60433	2.83521	3.87208	0.905208	-3.98065	-0.560778	16.5434	6.16645	0
0.2633	-17.5936	2.70325	1.61092	1.73915	0.597052	-3.36244	0.0254899	16.2432	4.35905	0
0.2640	-19.7928	5.46281	1.9331	0.820356	1.81042	-2.14111	0.943127	12.8745	3.45534	0
0.2647	0.706887	9.74295	3.44736	2.03448	3.94825	-0.316643	1.86076	9.83934	3.45534	-0.318893
0.2653	52.2311	6.08231	-0.805458	2.36263	4.25641	-1.23641	0.0254899	7.7047	3.72114	-0.318893
0.2660	62.049	-1.57689	-8.76338	2.36263	3.33194	-3.06088	-2.39605	12.5743	4.678	0
0.2667	28.4326	-7.37761	-14.2405	2.03448	3.02378	-3.67909	-4.5372	17.7775	4.9438	0
0.2673	22.6204	-10.4188	-16.3991	2.03448	2.42673	-4.58378	-6.98424	12.8745	5.5817	0
0.2680	1.88503	-7.6592	-13.9505	3.57675	3.94825	-3.36244	-7.59599	2.50153	8.61177	0
0.2687	-53.959	-2.19639	-9.66549	3.57675	3.94825	-3.06088	-8.81951	-6.63738	8.93073	0
0.2693	-72.5737	0.563177	-6.60475	1.44383	2.11857	-3.98065	-11.5469	-11.8406	6.48541	-0.318893
0.2700	-51.21	4.56173	-1.41761	0.525028	1.1941	-3.98065	-12.7704	-15.8096	5.5817	0
0.2707	-31.3386	8.50397	4.05951	-0.0984427	-0.0192598	-4.58378	-14.2998	-18.2445	5.5817	0
0.2713	-33.2237	12.1646	7.12025	-0.0984427	0.288896	-4.28221	-14.9116	-14.2754	5.5817	0
0.2720	-46.3404	16.7263	10.7609	1.11568	2.42673	-1.83954	-12.1587	-11.5404	6.16645	-0.318893
0.2727	-44.7695	16.7263	11.9852	1.11568	1.81042	-2.75931	-11.8528	-13.675	6.16645	-0.637785
0.2733	-21.5993	12.5025	8.02236	0.525028	0.288896	-4.58378	-11.2411	-10.6065	6.16645	-0.318893
0.2740	32.4383	6.7018	0.708803	0.2297	-0.0192598	-3.36244	-7.59599	-3.00183	6.48541	0
0.2747	77.9146	0.281588	-6.31479	-0.0984427	1.1941	-0.919771	-3.31369	3.73561	4.678	0
0.2753	38.8002	-0.675812	-7.2169	0.2297	3.94825	2.12603	0.637248	9.20562	3.45534	0
0.2760	-28.5896	1.46426	-5.41268	1.11568	6.39424	3.34736	2.47252	10.1395	4.9438	-0.318893
0.2767	-4.79112	-1.85848	-8.15123	0.820356	5.46977	-0.0150782	0.0254899	5.26988	5.5817	0
0.2773	75.4798	-3.99855	-9.37553	-0.0984427	3.94825	-2.45775	-3.92545	2.50153	5.90066	-0.318893
0.2780	96.5293	-0.0563177	-6.60475	-0.0984427	3.33194	-3.98065	-7.59599	2.20134	7.12332	-0.318893
0.2787	44.2982	6.36389	-1.41761	1.11568	3.02378	-3.98065	-8.20775	-0.833842	8.29282	-0.318893
0.2793	-9.66079	10.3624	2.22306	3.28142	4.56456	-2.45775	-6.98424	-2.66829	10.4723	0
0.2800	-43.5914	7.88447	0.708803	2.36263	3.64009	-3.67909	-7.90187	-3.90238	10.7381	0
0.2807	-108.861	4.84332	-1.41761	0.2297	1.1941	-5.20199	-10.043	-8.17165	9.51548	0
0.2813	-178.135	6.98339	1.61092	-0.689099	0.288896	-5.20199	-9.12539	-13.0413	9.24968	0
0.2820	-180.884	8.78555	4.05951	-0.0984427	1.1941	-4.28221	-7.59599	-11.5404	8.93073	0
0.2827	-166.59	9.74295	5.2838	1.44383	3.02378	-2.75931	-6.0666	-6.03702	9.51548	0
0.2833	-147.975	9.40505	5.89595	1.73915	3.33194	-3.06088	-5.45484	-6.03702	10.4723	0
0.2840	-24.3483	6.36389	3.76954	0.525028	0.905208	-4.28221	-6.37248	-8.17165	9.51548	0
0.2847	124.255	2.42166	-0.515493	-0.689099	-0.327416	-4.28221	-5.76072	-5.73683	8.29282	0
0.2853	143.812	-0.675812	-3.8662	-2.23137	0.288896	-3.36244	-4.5372	-1.76775	6.80436	0
0.2860	119.7	0.281588	-3.57623	-2.5267	1.81042	-1.83954	-3.31369	2.20134	5.26275	0
0.2867	162.427	4.56173	-0.225528	-1.01724	3.02378	-0.618207	-1.47842	5.57006	5.26275	-0.318893
0.2873	206.097	4.56173	-0.515493	-1.01724	2.42673	-1.53798	-0.866657	7.7047	5.26275	-0.318893
0.2880	187.482	2.70325	-1.41761	-2.23137	0.905208	-2.45775	-1.78429	8.30507	4.678	-0.318893
0.2887	141.377	4.56173	0.708803	-2.82202	0.905208	-1.53798	-2.09017	4.93634	4.04009	0
0.2893	103.52	5.12491	2.22306	-3.15017	1.1941	-0.919771	-1.78429	-3.30201	3.72114	0
0.2900	74.8515	3.60433	1.32095	-3.4455	1.50226	-0.0150782	-0.866657	-7.57129	3.45534	0
0.2907	48.9323	1.80216	-0.515493	-2.23137	2.11857	-0.0150782	-1.17254	-3.6022	4.35905	-0.318893
0.2913	19.6357	-1.85848	-2.6419	-2.23137	1.50226	-1.83954	-3.31369	0.0667074	4.678	-0.318893
0.2920	-6.36198	-4.33646	-3.57623	-3.4455	1.81042	-2.14111	-3.31369	3.10189	3.13639	-0.318893
0.2927	-24.3483	-4.89964	-4.18838	-3.4455	2.11857	-1.23641	-1.17254	6.47061	2.49848	0
0.2933	-23.0916	-3.99855	-4.80053	-2.23137	2.73489	-1.23641	-0.560778	7.7047	3.45534	0.318893
0.2940	29.0609	-1.23899	-2.02975	-0.393771	3.33194	-0.919771	-0.254899	9.83934	4.9438	0
0.2947	87.654	-0.9574	-1.12764	-0.393771	2.42673	-2.14111	-1.78429	11.3736	5.26275	-0.318893
0.2953	69.3534	-3.37906	-3.8662	-1.6079	0.597052	-3.98065	-4.5372	7.40452	4.35905	0
0.2960	-0.863973	-2.47798	-3.25405	-2.5267	-0.635572	-3.67909	-4.84308	1.30079	4.04009	0
0.2967	-36.5225	0.281588	-0.805458	-3.15017	-0.943728	-2.75931	-3.92545	-2.66829	3.13639	-0.318893
0.2973	-16.4155	2.42166	1.32095	-2.5267	0.905208	-1.53798	-2.09017	-5.13647	2.81743	-0.318893
0.2980	11.0746	3.60433	4.38169	-2.23137	2.11857	-0.618207	-0.866657	-6.93757	3.13639	0
0.2987	25.6836	1.80216	5.57377	-3.15017	0.597052	-1.83954	-1.78429	-6.93757	3.13639	0
0.2993	33.0666	0.281588	6.18591	-4.06897	-0.635572	-2.45775	-3.00781	-6.03702	2.23268	0
0.3000	24.5054	-0.0563177	5.89595	-4.65962	-0.943728	-1.83954	-2.70193	-7.2711	1.27582	0
0.3007	17.1224	-0.9574	4.96162	-5.28309	-0.327416	-1.23641	-2.39605	-7.87147	1.27582	0
0.3013	4.63404	-0.337906	5.89595	-4.65962	1.81042	0.603129	-0.866657	-6.3372	1.59477	0
0.3020	-28.2755	-1.85848	4.38169	-4.36429	1.1941	0.904693	-0.560778	-3.90238	1.59477	0
0.3027	-47.5185	-5.51913	0.998767	-5.57842	-0.327416	-1.83954	-3.31369	-2.06793	1.59477	-0.318893
0.3033	-56.0797	-5.85704	0.0966549	-4.98776	0.905208	-2.75931	-5.14896	0.967257	1.91373	-0.318893
0.3040	-70.1389	-6.42021	-0.805458	-3.4455	1.1941	-1.53798	-4.5372	4.0358	2.81743	0
0.3047	-4.47695	-7.37761	-2.02975	-2.82202	-0.0192598	-1.53798	-3.92545	4.93634	4.35905	-0.318893
0.3053	128.575	-6.13862	-1.41761	-1.6079	-0.0192598	-1.53798	-3.92545	5.57006	5.90066	0
0.3060	148.682	-6.13862	-1.73979	-1.93604	-1.84894	-3.06088	-5.14896	5.26988	5.5817	0.318893
0.3067	72.7308	-4.61805	-0.515493	-1.6079	-3.0623	-4.58378	-6.98424	4.33598	5.90066	0
0.3073	47.9898	0.281588	4.05951	-1.01724	-2.46525	-4.28221	-6.98424	1.90116	7.12332	0
0.3080	51.9169	3.04115	7.73239	-0.689099	-2.7734	-4.28221	-6.98424	-0.833842	6.48541	0
0.3087	13.8236	4.56173	9.8588	0.525028	-2.46525	-3.67909	-6.37248	-0.233476	6.16645	-0.318893
0.3093	-36.2083	5.46281	10.7609	1.73915	-1.54078	-2.75931	-5.14896	2.80171	7.38911	0
0.3100	-35.0302	1.80216	7.73239	1.73915	-2.46525	-4.28221	-6.0666	5.87025	7.38911	0
0.3107	-15.7871	-5.23754	1.61092	1.11568	-3.0623	-4.90042	-6.37248	11.6738	6.80436	0
0.3113	1.57086	-12.2209	-5.70264	0.525028	-2.15709	-3.98065	-4.84308	17.1438	5.5817	0
0.3120	82.156	-15.6	-11.212	-0.689099	-0.327416	-2.45775	-2.09017	18.9782	3.72114	0
0.3127	166.354	-16.2195	-12.404	-1.01724	2.11857	0.286486	0.331369	19.2784	2.81743	0
0.3133	161.799	-17.4585	-14.8526	-0.689099	3.02378	0.904693	0.637248	17.7775	3.13639	0
0.3140	87.3398	-17.1206	-14.2405	-0.689099	2.42673	-0.618207	0.331369	13.5082	3.45534	0
0.3147	-14.8446	-11.6578	-6.92694	0.2297	1.81042	-1.83954	0.0254899	6.17043	4.35905	0
0.3153	-98.8071	-8.2787	-2.6419	0.525028	0.905208	-2.75931	-1.17254	0.667074	5.5817	0
0.3160	-90.8742	-6.75812	-2.02975	1.73915	1.50226	-1.83954	-1.17254	1.60098	6.80436	0
0.3167	-2.04212	-4.89964	-0.805458	2.36263	2.11857	-1.23641	-0.254899	4.93634	7.70807	0
0.3173	37.6221	-5.85704	-0.225528	1.11568	0.597052	-2.14111	-0.560778	5.26988	6.80436	0
0.3180	6.7547	-6.42021	0.0966549	-0.393771	-0.0192598	-2.14111	-0.866657	-0.833842	5.5817	-0.318893
0.3187	-11.86	-5.23754	0.38662	-1.31257	-0.327416	-2.14111	-1.47842	-10.0061	5.5817	0
0.3193	-12.724	-3.37906	2.54525	-1.6079	-0.635572	-2.75931	-1.47842	-13.675	5.90066	0
0.3200	-17.5936	-0.9574	6.18591	-0.689099	0.597052	-2.14111	-0.560778	-10.3063	6.80436	0
0.3207	-25.2908	-0.675812	6.79806	-0.393771	0.288896	-1.83954	-0.254899	-7.87147	7.70807	-0.318893
0.3213	-46.6545	-0.675812	4.96162	-1.01724	-0.635572	-2.45775	-1.17254	-8.77202	8.02702	-0.318893
0.3220	-70.453	-0.9574	3.44736	-1.31257	-0.327416	-3.06088	-2.09017	-8.47183	8.29282	0.318893
0.3227	-70.7672	-3.09747	1.61092	-1.6079	-0.327416	-3.67909	-3.00781	-5.73683	8.02702	0
0.3233	-69.5105	-3.99855	1.32095	-1.6079	-0.0192598	-3.36244	-2.39605	-2.36811	8.61177	-0.318893
0.3240	-78.7001	-2.75957	1.9331	-1.6079	1.50226	-1.53798	-1.17254	-0.533659	9.51548	-0.318893
0.3247	-83.5697	-1.57689	2.22306	-2.5267	1.1941	-1.83954	-0.560778	-2.66829	9.51548	0
0.3253	-83.8839	-0.337906	3.44736	-3.15017	-0.635572	-3.06088	-1.17254	-6.63738	8.61177	0
0.3260	-36.2083	1.18267	5.89595	-4.06897	-1.54078	-3.67909	-2.09017	-8.77202	8.29282	0
0.3267	86.3973	4.22382	8.95669	-4.65962	-1.54078	-3.67909	-2.09017	-7.87147	8.61177	0
0.3273	173.423	6.7018	10.7609	-4.36429	-0.943728	-2.45775	-0.866657	-3.6022	9.24968	0
0.3280	147.739	5.46281	8.95669	-4.06897	-0.327416	-1.83954	-0.560778	4.0358	9.51548	0
0.3287	89.1463	2.70325	6.5081	-4.06897	-0.635572	-2.45775	-0.560778	8.90543	9.51548	0
0.3293	58.3574	1.80216	6.5081	-4.65962	-0.943728	-3.06088	-0.866657	8.30507	9.24968	-0.318893
0.3300	37.3079	0.563177	6.79806	-5.57842	-1.84894	-3.98065	-1.78429	6.47061	8.93073	0
0.3307	17.1224	1.80216	8.02236	-5.28309	-1.54078	-4.28221	-1.47842	5.57006	9.24968	-0.318893
0.3313	6.2049	5.12491	9.8588	-4.06897	-0.327416	-2.45775	0.0254899	5.26988	10.1534	0
0.3320	-12.1742	5.46281	9.56884	-4.06897	-0.327416	-3.06088	0.637248	4.33598	10.4723	0
0.3327	-28.9038	2.70325	6.18591	-5.87375	-1.54078	-5.20199	-1.78429	3.10189	9.83443	-0.318893
0.3333	-15.7871	-1.23899	1.9331	-7.12069	-1.84894	-5.80511	-3.61957	8.30507	8.93073	-0.637785
0.3340	-19.4787	-3.37906	-0.515493	-7.12069	-1.54078	-4.28221	-2.39605	16.8436	8.93073	-0.318893
0.3347	-86.0046	-2.47798	0.0966549	-5.57842	0.288896	-2.45775	-0.866657	20.2123	10.1534	0
0.3353	-177.271	-0.337906	0.998767	-4.36429	1.50226	-2.14111	0.0254899	18.0777	10.7381	0
0.3360	-211.124	-0.337906	0.0966549	-4.98776	0.597052	-3.06088	-0.254899	11.6738	9.83443	0
0.3367	-179.706	-1.85848	-2.35194	-6.20189	-0.635572	-3.67909	-1.17254	4.63616	8.61177	-0.318893
0.3373	-139.414	-2.47798	-4.18838	-6.79255	-0.635572	-3.67909	-1.47842	-0.233476	8.29282	0
0.3380	-74.3802	-3.09747	-4.80053	-5.87375	0.288896	-2.75931	-0.866657	-1.46756	8.61177	0
0.3387	-13.0381	-3.71697	-5.09049	-5.28309	0.597052	-2.45775	-0.254899	0.967257	9.24968	0
0.3393	-24.9767	-1.85848	-3.25405	-6.49722	-0.0192598	-3.06088	-0.866657	1.30079	8.61177	-0.318893
0.3400	-53.959	0.281588	-0.805458	-7.71135	-1.84894	-3.67909	-1.78429	-0.233476	7.38911	-0.318893
0.3407	-38.4075	0.901082	0.0966549	-8.33482	-2.7734	-3.98065	-2.09017	-1.76775	6.48541	0
0.3413	-10.2891	2.70325	2.22306	-8.03949	-1.54078	-3.06088	-1.47842	-2.06793	7.12332	-0.318893
0.3420	-15.7871	3.32274	3.76954	-6.49722	0.288896	-2.45775	0.0254899	0.667074	8.61177	-0.318893
0.3427	-33.5379	2.08375	2.22306	-5.87375	0.597052	-2.75931	0.331369	0.0667074	8.61177	0
0.3433	-22.2277	1.46426	0.708803	-6.79255	-1.84894	-4.28221	-1.47842	-5.13647	7.70807	-0.318893
0.3440	-4.47695	1.80216	0.38662	-7.12069	-3.37046	-5.20199	-2.09017	-6.63738	7.38911	0
0.3447	3.45589	3.94224	2.83521	-6.49722	-2.46525	-4.90042	-1.47842	-6.63738	8.02702	0
0.3453	18.6932	6.7018	5.89595	-5.87375	-2.15709	-3.98065	-0.866657	-8.17165	8.29282	0
0.3460	33.3022	7.60288	5.89595	-5.57842	-2.15709	-3.36244	-0.866657	-7.87147	8.29282	0
0.3467	36.0512	4.22382	2.22306	-5.57842	-3.0623	-3.98065	-1.47842	-5.73683	7.70807	-0.318893
0.3473	37.3079	0.563177	-0.515493	-6.20189	-4.60308	-5.20199	-2.39605	-2.36811	7.38911	-0.318893
0.3480	53.8019	-0.9574	-1.12764	-6.20189	-5.20013	-5.80511	-2.39605	0.36689	8.02702	0
0.3487	61.4206	-1.23899	-2.6419	-4.65962	-4.60308	-5.80511	-2.09017	0.0667074	9.24968	0
0.3493	22.6204	-0.0563177	-2.6419	-3.15017	-3.0623	-4.90042	-1.47842	-1.46756	9.83443	-0.318893
0.3500	-22.2277	1.46426	-1.41761	-3.15017	-3.0623	-5.20199	-1.47842	-5.13647	10.1534	-0.318893
0.3507	-22.2277	1.46426	-0.805458	-4.36429	-4.60308	-6.42332	-2.09017	-10.3063	9.24968	0
0.3513	-6.04781	1.18267	-0.225528	-4.36429	-4.60308	-5.50355	-2.39605	-9.70592	8.61177	0
0.3520	0.392715	1.46426	0.708803	-4.06897	-3.67861	-4.90042	-1.78429	-3.00183	8.93073	0
0.3527	9.81787	2.70325	2.54525	-3.4455	-2.7734	-3.67909	-0.560778	1.60098	9.24968	0
0.3533	19.3216	3.32274	2.54525	-3.15017	-2.7734	-2.75931	0.0254899	1.30079	8.29282	0
0.3540	15.3159	0.901082	-0.805458	-4.98776	-4.29493	-4.28221	-0.866657	-0.533659	6.16645	0
0.3547	5.26238	1.46426	-0.225528	-4.98776	-3.37046	-3.67909	-0.866657	0.0667074	5.5817	-0.318893
0.3553	0.078543	4.84332	3.15739	-3.74082	-0.943728	-1.53798	0.637248	2.50153	6.16645	0
0.3560	-5.73364	4.84332	2.54525	-4.36429	-0.943728	-1.53798	0.943127	0.967257	4.9438	-0.318893
0.3567	-8.79681	4.84332	1.61092	-5.28309	-0.943728	-1.83954	0.637248	-2.06793	4.04009	-0.318893
0.3573	-6.04781	5.12491	1.32095	-5.28309	-0.943728	-1.83954	0.943127	-1.16738	3.45534	0
0.3580	-4.47695	3.04115	0.0966549	-5.57842	-1.84894	-2.45775	0.0254899	0.967257	3.13639	0
0.3587	-8.79681	3.04115	0.998767	-5.87375	-1.23262	-2.14111	-1.17254	3.10189	2.81743	-0.318893
0.3593	-18.5361	4.84332	3.44736	-5.28309	0.597052	-0.919771	-0.866657	5.26988	2.81743	0
0.3600	-27.4115	6.36389	4.67165	-4.98776	1.1941	-0.0150782	-0.254899	5.57006	3.13639	0
0.3607	-32.9095	7.88447	5.89595	-5.28309	1.50226	0.603129	0.0254899	4.93634	2.81743	0
0.3613	-36.2083	6.98339	4.96162	-5.57842	0.597052	-0.0150782	-0.866657	5.26988	2.49848	-0.318893
0.3620	-40.5282	4.22382	1.61092	-5.57842	-0.0192598	-0.919771	-2.09017	6.47061	3.72114	-0.318893
0.3627	-47.5185	2.42166	-0.515493	-5.57842	0.597052	-1.23641	-2.39605	8.60525	4.678	-0.637785
0.3633	-50.2675	-0.0563177	-3.57623	-6.79255	-0.0192598	-0.618207	-3.61957	8.90543	3.13639	-0.637785
0.3640	-43.9055	-0.0563177	-3.8662	-6.79255	0.597052	0.904693	-3.31369	10.7399	2.49848	0
0.3647	-17.9078	2.08375	-1.73979	-6.49722	2.42673	2.72916	-1.17254	14.709	3.45534	0.318893
0.3653	20.8139	1.46426	-2.35194	-8.33482	2.42673	3.0458	-0.560778	15.6429	2.49848	0
0.3660	38.4861	2.08375	-1.73979	-9.54894	3.33194	3.95049	-0.560778	13.1747	1.01002	-0.318893
0.3667	32.4383	2.42166	-1.41761	-11.0912	3.33194	3.64893	-0.866657	9.53915	0.0531591	0
0.3673	25.6836	1.46426	-1.73979	-12.6007	2.73489	3.34736	-1.47842	7.07098	0.0531591	0.318893
0.3680	25.3694	3.94224	1.32095	-11.3865	5.16161	5.48847	-0.866657	8.00488	1.27582	0
0.3687	29.6892	5.46281	2.83521	-8.63015	6.08608	6.0916	0.331369	7.7047	1.91373	0
0.3693	34.2447	4.84332	2.54525	-3.15017	5.16161	5.17183	0.637248	4.63616	1.01002	0.318893
0.3700	36.3654	3.60433	1.9331	3.87208	4.25641	3.64893	0.0254899	0.667074	1.27582	0
0.3707	36.3654	3.04115	2.54525	8.7614	3.94825	2.72916	-0.254899	-3.00183	9.24968	0
0.3713	34.8731	5.46281	4.38169	16.9978	5.16161	3.64893	1.24901	-3.6022	25.729	0
0.3720	33.0666	6.36389	5.2838	32.5517	6.99129	4.87026	3.39016	-0.833842	49.5443	-0.318893
0.3727	28.1184	5.12491	4.05951	42.3304	7.91576	4.26714	4.00192	0.967257	84.3103	-0.318893
0.3733	22.0706	4.84332	2.83521	39.9021	8.22392	3.95049	3.69604	-0.233476	152.354	-0.318893
0.3740	19.8714	3.94224	1.9331	42.6257	7.29945	2.72916	2.16664	-3.00183	251.549	0
0.3747	19.6357	3.94224	2.22306	52.6997	6.70239	2.12603	1.86076	-3.00183	321.719	0
0.3753	18.0649	6.08231	3.76954	55.7514	6.99129	3.34736	3.69604	0.36689	416.661	-0.318893
0.3760	15.0017	6.36389	3.76954	27.3671	4.25641	3.0458	4.91955	2.20134	506.659	-0.318893
0.3767	14.6875	4.56173	2.22306	-23.8888	-0.943728	2.12603	5.53131	2.20134	380.353	0
0.3773	20.1855	2.70325	1.61092	-31.2063	-4.60308	4.26714	7.36659	2.50153	-21.5826	0
0.3780	23.2487	0.901082	0.998767	1.11568	-6.43276	5.79004	7.67246	2.20134	-442.443	-0.318893
0.3787	19.0074	1.80216	2.22306	36.8504	-4.91124	2.42759	6.14307	2.20134	-541.904	-0.318893
0.3793	11.9385	3.60433	4.96162	97.2614	-0.635572	-2.14111	3.69604	2.80171	-397.258	0
0.3800	8.63973	1.46426	4.38169	193.079	3.02378	-3.98065	0.943127	2.50153	-243.734	0
0.3807	6.44052	-2.19639	1.9331	252.604	5.77793	-3.98065	-1.47842	1.90116	-129.336	-0.318893
0.3813	3.77006	-3.09747	0.998767	191.241	5.16161	-3.98065	-2.39605	2.20134	-65.8641	-0.318893
0.3820	2.82755	-3.37906	0.998767	97.8849	4.56456	-3.06088	-1.17254	3.43543	-37.4772	0.318893
0.3827	3.77006	-1.85848	2.83521	76.8181	6.70239	0.286486	1.24901	4.93634	15.9477	0
0.3833	3.14172	-1.57689	3.44736	39.9021	6.39424	2.12603	0.943127	4.33598	208.809	-0.318893
0.3840	0.392715	-3.09747	1.61092	-51.6496	3.64009	3.0458	-0.560778	2.20134	482.844	-0.318893
0.3847	-0.863973	-2.75957	1.32095	-52.8966	2.11857	5.79004	0.943127	2.20134	443.825	0
0.3853	-1.72795	-2.47798	1.61092	73.1429	-0.0192598	6.39316	2.16664	1.90116	116.365	0
0.3860	-4.79112	-1.57689	2.54525	123.808	-1.84894	6.39316	2.47252	1.90116	-22.8052	0
0.3867	-7.22595	-0.0563177	4.05951	11.5178	-1.23262	8.53427	3.39016	2.80171	-20.041	-0.318893
0.3873	-7.22595	-1.57689	3.15739	-107.828	1.1941	10.3587	3.39016	2.50153	-155.862	-0.318893
0.3880	-5.73364	-3.71697	2.22306	-134.67	3.64009	10.6754	2.7784	1.90116	-332.882	-0.318893
0.3887	-4.47695	-3.99855	1.9331	-125.514	3.94825	7.6145	1.24901	1.90116	-329.533	0
0.3893	-2.98463	-3.09747	2.83521	-106.909	4.56456	4.87026	1.24901	2.80171	-145.815	0
0.3900	-2.35629	-2.47798	3.44736	-57.7531	6.70239	4.5687	1.86076	3.43543	51.3517	0
0.3907	-2.35629	-3.71697	2.54525	4.49555	7.91576	5.17183	1.24901	2.80171	183.186	0
0.3913	-1.72795	-3.99855	2.22306	47.2197	7.29945	5.17183	1.24901	2.20134	248.2	-0.318893
0.3920	-1.17814	-4.33646	2.22306	66.7442	4.25641	4.87026	0.943127	1.90116	241.449	-0.318893
0.3927	-0.863973	-4.33646	2.22306	97.2614	2.11857	5.79004	0.637248	1.90116	256.439	0
0.3933	-0.863973	-2.75957	3.15739	152.192	2.11857	7.01137	1.24901	1.90116	163.943	-0.318893
0.3940	-1.17814	-3.09747	3.44736	180.577	1.1941	5.79004	0.637248	0.667074	-147.038	-0.637785
0.3947	-1.49232	-4.89964	2.22306	92.3721	-1.84894	3.95049	0.637248	-0.233476	-282.222	0
0.3953	-1.72795	-7.03971	1.32095	-116.359	-5.20013	3.34736	1.24901	0.667074	-238.578	0
0.3960	-2.04212	-7.99711	0.998767	-246.074	-5.50829	4.87026	1.55488	1.60098	-362.173	-0.318893
0.3967	-2.04212	-7.37761	1.61092	-153.603	-3.0623	7.01137	1.86076	2.50153	-394.813	-0.318893
0.3973	-2.35629	-7.03971	1.9331	15.1602	0.288896	5.79004	0.637248	2.80171	-128.113	0
0.3980	-3.2988	-8.89819	1.32095	105.498	1.81042	1.82446	-2.70193	2.20134	76.9744	0
0.3987	-3.61298	-9.51768	0.708803	127.155	2.11857	-0.618207	-5.14896	1.60098	117.854	0
0.3993	-3.61298	-9.17978	0.38662	74.3571	1.50226	-0.0150782	-5.45484	1.60098	175.85	0
0.4000	-3.61298	-8.56028	0.998767	-111.175	-2.46525	1.82446	-4.5372	2.20134	244.851	0
0.4007	-3.2988	-6.13862	1.9331	-342.81	-8.26243	5.79004	-1.17254	2.50153	211.254	-0.318893
0.4013	-3.2988	-5.85704	1.61092	-445.65	-13.1352	7.91606	1.86076	2.20134	-85.6925	-0.318893
0.4020	-4.24132	-8.2787	-0.225528	-394.985	-16.7945	2.72916	0.943127	1.60098	-315.18	0.318893
0.4027	-4.79112	-10.7004	-1.12764	-279.019	-15.273	-1.53798	-1.17254	0.967257	-136.619	0
0.4033	-6.04781	-12.2209	-1.12764	-190.815	-9.78396	0.286486	-1.17254	0.667074	3.13639	-0.318893
0.4040	-6.67615	-11.3198	0.708803	-134.374	-5.81645	1.82446	0.331369	2.20134	-109.189	-0.318893
0.4047	-6.67615	-10.7004	1.9331	-43.1179	-3.0623	2.12603	-0.560778	3.43543	-201.048	0
0.4053	-7.8543	-13.7978	0.0966549	14.2414	2.11857	5.79004	-1.78429	2.20134	-142.147	0
0.4060	-9.11099	-15.6	-1.12764	-36.7191	6.08608	9.1374	-1.17254	1.60098	30.8854	-0.318893
0.4067	-8.48264	-15.3184	-0.805458	-102.019	4.25641	7.91606	-1.47842	2.20134	145.018	-0.318893
0.4073	-7.8543	-14.361	-0.515493	-109.961	2.11857	6.0916	-1.47842	3.73561	98.0254	0
0.4080	-9.11099	-11.9393	0.38662	-65.1034	3.33194	6.39316	-0.560778	5.57006	34.2345	0
0.4087	-10.6033	-12.8404	-0.225528	13.0273	2.11857	4.87026	-1.47842	4.0358	-11.2166	-0.318893
0.4093	-11.2316	-15.3184	-2.35194	53.6185	0.597052	2.42759	-2.09017	1.30079	-118.651	0
0.4100	-10.2891	-15.8816	-2.6419	32.8799	0.288896	0.904693	-1.47842	0.967257	-222.099	0
0.4107	-8.48264	-14.361	-2.02975	11.1897	-0.943728	0.286486	-0.560778	2.20134	-234.272	0
0.4113	-6.67615	-11.3198	-0.805458	12.4366	-2.15709	0.904693	2.16664	4.33598	-109.189	0
0.4120	-6.36198	-10.7004	-0.225528	22.4778	-3.0623	1.50782	2.47252	4.63616	65.0667	0
0.4127	-6.67615	-13.4599	-1.73979	57.8843	-2.7734	0.904693	0.0254899	2.50153	211.892	0
0.4133	-6.36198	-13.7978	-2.6419	97.5567	-0.635572	-0.316643	-1.78429	1.30079	296.734	0
0.4140	-5.73364	-12.5588	-2.35194	121.38	-0.635572	-2.45775	-2.70193	1.60098	249.103	-0.318893
0.4147	-5.10529	-11.0383	-1.41761	135.72	-2.46525	-2.14111	-1.47842	3.10189	86.1177	-0.318893
0.4153	-4.79112	-7.99711	-0.225528	81.084	-2.7734	1.82446	1.24901	4.33598	-48.7469	0
0.4160	-4.24132	-8.2787	-0.805458	14.5695	-3.98677	5.79004	2.7784	3.43543	-106.106	0
0.4167	-3.61298	-9.79927	-1.41761	48.4338	-5.20013	7.6145	3.69604	2.80171	-322.516	0
0.4173	-3.92715	-10.0809	-1.12764	142.742	-5.50829	6.0916	3.08428	3.43543	-544.03	0
0.4180	-4.47695	-11.6578	-1.41761	254.442	-6.1246	1.82446	-0.560778	3.43543	-427.186	0.318893
0.4187	-5.10529	-9.79927	0.0966549	323.712	-5.50829	-1.53798	-3.31369	4.63616	-278.873	0.318893
0.4193	-6.91178	-8.56028	0.998767	301.727	-5.50829	-3.67909	-4.23133	5.26988	-248.359	0.318893
0.4200	-8.16847	-11.9393	-0.805458	259.003	-3.98677	-3.67909	-5.14896	3.73561	-114.664	0
0.4207	-7.54013	-13.1783	-0.805458	219.035	3.02378	0.603129	-3.31369	4.0358	-1.75425	0
0.4213	-6.67615	-13.1783	-1.12764	99.3943	10.6699	5.48847	-1.17254	4.33598	-31.9486	0
0.4220	-5.10529	-13.1783	-1.41761	-21.4605	13.0966	6.70981	-0.866657	4.0358	-106.106	0
0.4227	-3.61298	-11.0383	-0.225528	38.3598	10.3617	3.95049	-0.866657	4.63616	-151.61	0
0.4233	-1.72795	-10.4188	-1.73979	191.241	5.16161	-0.316643	-0.560778	4.93634	-15.4693	0.318893
0.4240	0.078543	-10.7004	-2.96408	251.062	2.73489	-2.14111	-1.78429	5.57006	310.449	-0.318893
0.4247	0.078543	-8.89819	-2.02975	213.522	2.42673	-3.36244	-2.70193	6.17043	598.518	-0.637785
0.4253	0.078543	-7.03971	-1.12764	147.927	-0.0192598	-4.58378	-2.09017	5.87025	844.804	-0.318893
0.4260	3.77006	-5.23754	-0.515493	132.373	-5.50829	-4.90042	-0.560778	7.07098	986.101	0
0.4267	12.5669	-3.71697	-0.225528	228.781	-11.6136	-7.94622	-1.47842	7.7047	882.972	0
0.4273	19.8714	-4.33646	-0.805458	307.535	-16.7945	-13.4347	-3.61957	5.87025	754.753	0
0.4280	20.1855	-4.33646	-1.12764	215.36	-19.8568	-14.0529	-3.61957	3.10189	762.727	-0.318893
0.4287	13.5094	-3.37906	-0.225528	41.7069	-21.9946	-9.77069	-0.866657	0.0667074	779.791	0
0.4293	2.82755	-1.85848	0.38662	-39.1474	-22.611	-2.75931	3.39016	-1.16738	303.751	0
0.4300	-4.79112	-1.57689	-0.805458	-33.6674	-22.611	-2.45775	4.61367	1.30079	-661.565	-0.318893
0.4307	-4.79112	-2.47798	-2.35194	-118.492	-23.5162	-12.2134	0.637248	2.50153	-1084.82	-0.318893
0.4313	-2.04212	-3.71697	-2.02975	-336.083	-18.0271	-15.2742	-1.17254	3.43543	-659.704	0
0.4320	-2.04212	-6.13862	-1.41761	-556.136	-2.7734	-6.42332	1.55488	6.47061	-182.442	0
0.4327	-7.22595	-9.79927	-2.02975	-640.042	13.0966	1.82446	3.08428	7.40452	-32.9055	0
0.4333	-12.724	-11.3198	-2.96408	-504.847	24.4021	8.23271	3.39016	7.07098	47.3647	0
0.4340	-10.6033	-13.1783	-4.18838	-288.798	28.3696	11.5801	4.00192	6.47061	17.1704	-0.318893
0.4347	-1.72795	-14.361	-4.47834	-188.682	22.8613	10.0572	3.08428	4.63616	-335.328	-0.318893
0.4353	1.25669	-13.1783	-2.35194	-158.788	16.4671	4.87026	2.16664	2.50153	-568.749	0
0.4360	-1.49232	-12.2209	-0.225528	-134.965	14.6374	-0.919771	2.47252	0.967257	-439.679	0
0.4367	1.25669	-11.6578	2.22306	-166.729	13.7129	8.23271	3.39016	1.30079	-377.43	-0.318893
0.4373	3.45589	-9.79927	4.67165	-191.734	13.0966	33.5641	4.00192	1.90116	-292.588	0
0.4380	-1.17814	-9.51768	4.67165	-143.201	14.0211	53.392	5.22543	0.0667074	-85.6925	0
0.4387	-1.72795	-9.79927	3.15739	-56.2436	12.4996	56.1362	6.44895	-1.16738	-2.65795	0
0.4393	3.14172	-9.17978	1.32095	37.1457	6.70239	44.8426	3.39016	0.36689	68.4157	0
0.4400	8.32556	-7.99711	0.0966549	99.6897	2.73489	30.5032	0.0254899	2.50153	160.913	-0.318893
0.4407	11.3887	-6.75812	0.0966549	119.247	-0.327416	17.9883	0.0254899	4.0358	181.645	0
0.4413	10.4462	-5.51913	0.998767	110.092	-3.37046	4.87026	0.331369	3.73561	210.032	-0.318893
0.4420	8.01138	-5.23754	1.61092	110.682	-3.98677	-5.50355	1.86076	2.80171	228.371	-0.637785
0.4427	6.2049	-7.99711	0.38662	158.001	-3.98677	-13.4347	3.39016	1.90116	127.316	-0.318893
0.4433	5.26238	-10.0809	-1.41761	243.121	-4.60308	-18.6216	4.3078	1.30079	-31.3639	-0.318893
0.4440	4.94821	-7.6592	0.38662	355.148	-4.29493	-20.4611	6.75483	3.43543	-56.9865	0
0.4447	5.26238	-5.51913	1.61092	383.828	-5.50829	-25.6481	7.06071	5.26988	140.181	-0.318893
0.4453	5.57655	-6.75812	-0.225528	186.68	-7.33797	-32.3579	3.08428	3.73561	414.216	-0.318893
0.4460	7.38304	-7.6592	0.0966549	-31.2063	-6.43276	-34.8005	0.0254899	2.50153	452.331	0
0.4467	13.5094	-6.42021	2.22306	-20.2464	-3.67861	-32.6594	-1.17254	1.90116	162.72	0
0.4473	24.5054	-3.37906	4.38169	81.7075	-0.943728	-27.7892	-0.866657	1.30079	-4.51852	0
0.4480	32.7524	0.281588	6.5081	115.867	-4.60308	-24.1252	-1.17254	1.30079	143.53	-0.318893
0.4487	34.5589	2.42166	8.63451	73.7664	-14.9648	-21.3809	-4.84308	2.50153	231.402	0
0.4493	35.5014	2.42166	10.181	30.1235	-25.654	-17.4003	-6.98424	2.50153	298.541	0
0.4500	33.0666	1.46426	9.24665	30.4188	-34.8024	-20.1596	-6.67836	0.0667074	334.53	-0.318893
0.4507	29.6892	0.901082	8.63451	42.6257	-39.078	-26.5678	-4.84308	0.667074	235.388	-0.318893
0.4513	27.2544	0.563177	9.24665	93.5862	-32.9727	-22.5872	0.331369	7.40452	347.395	0
0.4520	19.3216	-1.85848	7.73239	126.565	-24.4406	-20.1596	4.91955	13.8084	367.223	0
0.4527	13.1952	-4.33646	4.67165	98.7709	-24.1325	-29.6136	2.47252	14.4088	144.433	-0.637785
0.4533	13.1952	-7.37761	0.998767	82.2981	-23.8243	-32.3579	-0.560778	11.974	-72.2432	-0.318893
0.4540	11.9385	-13.1783	-4.18838	97.5567	-16.7945	-22.5872	0.943127	12.8745	-464.079	0
0.4547	6.44052	-15.8816	-5.70264	213.522	-7.64612	-13.4347	4.00192	16.2432	-634.401	-0.318893
0.4553	-5.41947	-14.6989	-4.18838	481.188	-0.635572	-13.4347	5.83719	14.709	-377.748	-0.318893
0.4560	-14.8446	-16.5011	-4.80053	710.363	7.6076	-18.32	6.14307	9.83934	-134.811	0
0.4567	-22.2277	-17.7401	-5.41268	747.902	21.9561	-18.6216	6.75483	4.63616	101.693	0
0.4573	-35.9727	-14.361	-2.6419	723.193	30.1993	-15.5758	6.75483	-2.06793	389.178	0
0.4580	-50.5817	-8.2787	2.54525	765.294	29.2748	-14.656	5.53131	-6.63738	523.776	0
0.4587	-59.457	-1.23899	8.02236	734.153	44.8367	-13.7513	4.61367	-6.63738	471.574	-0.318893
0.4593	-65.2692	0.281588	8.95669	533.658	80.5443	-1.23641	5.22543	-4.80293	316.828	0
0.4600	-68.0182	-0.9574	7.73239	289.52	104.349	32.0261	8.89598	-3.30201	193.552	0
0.4607	-58.2003	-0.0563177	5.57377	-62.9705	108.009	68.9527	17.741	-1.16738	147.198	0
0.4613	-37.7792	-0.337906	1.61092	-586.029	105.871	90.6201	27.1977	-2.66829	-30.726	0
0.4620	-17.0438	-0.0563177	-0.225528	-998.012	96.1062	91.5399	28.7271	-6.3372	-226.351	0
0.4627	3.14172	-0.0563177	0.0966549	-1075.22	70.1633	72.9183	18.6586	-7.87147	-172.342	-0.318893
0.4633	16.8867	-1.85848	0.38662	-982.458	40.561	50.9493	3.08428	-10.6065	-124.711	-0.318893
0.4640	16.8867	-4.33646	-0.225528	-888.774	23.7858	36.6099	-8.51363	-12.7411	-271.537	0
0.4647	12.5669	-6.75812	-2.02975	-678.795	3.94825	21.3508	-14.6057	-12.1407	-420.435	0
0.4653	11.3887	-4.33646	0.38662	-427.93	-22.3028	7.01137	-15.5234	-8.47183	-447.6	-0.318893
0.4660	10.132	-0.9574	3.15739	-289.389	-39.3862	-2.75931	-13.3822	-3.6022	-416.182	0
0.4667	8.63973	-2.19639	1.61092	-163.677	-52.5021	-10.6905	-14.6057	-4.50275	-230.019	0.318893
0.4673	13.5094	-2.19639	0.708803	-56.2436	-64.7128	-13.1331	-16.7469	-7.2711	188.981	-0.318893
0.4680	14.6875	-0.9574	0.998767	-49.8448	-64.0965	-14.3545	-18.2763	-6.93757	531.697	-0.318893
0.4687	3.45589	-0.337906	2.83521	-60.8048	-53.1184	-17.4003	-20.1115	-4.50275	662.628	0.318893
0.4693	4.00569	2.70325	8.34454	21.8871	-52.5021	-22.2856	-18.2763	-1.16738	665.977	0
0.4700	14.1377	5.7444	11.9852	89.6157	-71.1263	-29.3121	-13.6881	-2.66829	460.889	-0.318893
0.4707	12.5669	8.50397	14.1438	9.05673	-88.826	-29.6136	-8.81951	-7.2711	22.9647	-0.318893
0.4713	16.5726	10.0245	17.7845	-102.938	-98.5907	-32.9761	-4.23133	-8.47183	-483.322	-0.318893
0.4720	22.0706	10.0245	19.9431	-194.785	-103.772	-38.163	-0.560778	-6.3372	-878.507	-0.318893
0.4727	31.8099	10.9256	20.5553	-350.128	-94.6232	-31.4381	3.08428	0.967257	-1105.87	0
0.4733	73.9089	9.74295	17.1724	-584.815	-75.4019	-30.835	2.7784	6.47061	-1131.23	0
0.4740	110.51	5.46281	10.471	-702.618	-64.4046	-41.827	-0.560778	4.93634	-962.126	-0.318893
0.4747	98.0216	-0.0563177	4.38169	-556.136	-46.7049	-39.6859	-1.78429	6.17043	-810.782	0
0.4753	65.3478	-7.37761	-2.6419	-361.121	-2.7734	-24.4267	0.637248	11.3736	-724.08	-0.318893
0.4760	33.0666	-13.1783	-8.76338	-223.465	31.7208	-13.4347	5.22543	15.0092	-595.01	-0.637785
0.4767	3.77006	-14.361	-11.212	-112.093	35.3802	-15.8774	7.36659	17.444	-498.26	-0.637785
0.4773	-6.36198	-14.0794	-12.7262	-84.3326	41.4855	-22.9038	4.91955	18.6781	-450.683	-0.318893
0.4780	1.88503	-14.361	-14.5627	-116.359	69.5662	-22.2856	3.39016	19.9121	-419.85	0
0.4787	-12.4098	-14.9805	-16.0769	-130.699	96.1062	-19.5414	3.08428	16.5434	-413.737	0
0.4793	-63.3842	-11.9393	-12.7262	-108.123	101.903	-19.2398	2.7784	8.30507	-406.401	-0.318893
0.4800	-111.61	-6.75812	-8.15123	-90.7314	95.798	-24.1252	0.331369	0.967257	-321.878	0
0.4807	-147.347	-2.75957	-5.41268	-80.6574	75.9605	-14.9727	-7.90187	-6.93757	-138.16	0
0.4813	-179.392	2.42166	1.32095	-28.4828	32.029	41.1937	-14.6057	-12.1407	-39.2846	-0.318893
0.4820	-195.258	5.46281	7.12025	17.2931	-5.20013	102.215	-16.1351	-12.4409	-22.8052	-0.318893
0.4827	-187.953	5.46281	7.12025	-8.63015	-12.827	122.978	-16.441	-13.0413	210.935	-0.318893
0.4833	-140.906	6.7018	6.79806	8.13793	-24.4406	123.581	-14.9116	-15.5095	616.858	-0.318893
0.4840	-24.3483	7.60288	8.02236	96.0473	-45.7997	115.65	-13.994	-16.1098	858.838	0
0.4847	135.251	5.46281	7.41021	112.815	-46.1079	95.807	-14.9116	-13.9752	880.793	0
0.4853	220.077	4.56173	7.41021	91.158	-52.2132	65.9069	-13.3822	-12.7411	848.472	0
0.4860	165.176	6.98339	9.8588	112.52	-77.2316	36.6099	-9.43127	-11.2402	850.28	0
0.4867	60.1639	10.3624	11.9852	121.675	-76.9235	21.9539	-4.84308	-10.3063	601.601	0
0.4873	-0.235629	13.0657	14.1438	85.9733	-65.9454	23.1752	5.22543	-6.3372	-193.074	-0.318893
0.4880	-20.3426	11.5451	12.5974	70.0912	-69.2966	25.6179	14.9881	2.50153	-902.003	-0.318893
0.4887	-19.7928	5.7444	5.57377	133.587	-70.51	26.8392	18.0469	8.00488	-748.799	0
0.4893	81.5276	0.281588	-2.96408	192.784	-67.1588	29.5835	18.9645	10.4397	-144.593	0
0.4900	223.455	-7.03971	-13.3384	145.466	-54.6399	22.5721	18.3527	14.1086	237.196	0
0.4907	183.791	-14.0794	-22.1984	53.6185	-27.1755	15.8623	15.5998	21.1129	416.927	0
0.4913	84.905	-15.3184	-23.7127	54.5373	-9.78396	9.1374	14.3763	27.2166	499.323	0
0.4920	107.525	-12.5588	-20.362	145.466	-11.9218	-20.1596	11.9293	26.0159	432.502	0
0.4927	136.508	-6.13862	-13.6283	202.858	-14.3678	-50.9795	3.69604	17.1438	360.206	0
0.4933	94.6443	2.70325	-3.57623	132.668	-25.9621	-61.9564	-6.67836	4.33598	338.198	0.318893
0.4940	-30.4747	10.9256	7.12025	8.7614	-39.078	-62.8762	-13.994	-7.57129	113.282	0
0.4947	-210.181	18.2469	17.7845	-8.92547	-35.7268	-53.7237	-14.2998	-10.6065	-187.917	-0.318893
0.4953	-400.019	23.4845	24.8081	-17.7853	-27.4837	-38.4645	-10.043	-10.6065	-191.266	0
0.4960	-536.763	24.0476	23.906	-84.0044	5.16161	-25.0298	-8.81951	-14.2754	80.9613	0
0.4967	-428.688	19.4859	17.1724	-84.9232	49.7287	-10.0873	-11.5469	-12.4409	348.883	-0.318893
0.4973	-190.388	12.7841	8.02236	-131.913	61.6312	-1.23641	-16.7469	-3.30201	215.241	0
0.4980	-103.677	4.22382	0.38662	-246.369	61.6312	3.95049	-25.8978	5.57006	-298.701	0
0.4987	-99.4354	-6.13862	-5.70264	-271.078	66.5039	39.0526	-35.0486	14.709	-653.006	0
0.4993	-112.552	-13.4599	-13.6283	-268.945	51.8665	90.3185	-39.3309	20.5125	-545.891	0
0.5000	36.0512	-12.5588	-16.3991	-219.527	19.8183	104.658	-40.8603	26.6162	-165.325	0
0.5007	401.669	-9.51768	-11.212	-40.0662	-8.26243	101.612	-42.6956	36.0887	138.32	0
0.5013	456.021	-1.85848	1.32095	140.904	-2.15709	111.066	-40.5545	38.2233	321.453	-0.318893
0.5020	150.253	10.644	15.9481	169.289	56.1422	104.658	-34.7428	31.1857	448.078	-0.318893
0.5027	-47.8327	17.9653	20.5553	68.8771	94.8928	82.6889	-29.2624	22.347	501.184	-0.318893
0.5033	-160.463	15.5437	13.2095	67.9583	75.3634	71.0938	-23.4507	24.1814	401.67	-0.318893
0.5040	-303.883	6.98339	-1.12764	104.284	53.6962	62.5445	-20.1115	31.4859	-15.4693	-0.318893
0.5047	-248.353	-5.51913	-17.5912	-35.1769	19.5101	45.4608	-11.5469	27.8503	-442.709	-0.318893
0.5053	-21.5993	-15.8816	-28.5776	-102.019	-55.5644	19.2097	14.0704	19.9121	-462.59	-0.318893
0.5060	158.735	-15.6	-28.2877	-4.65962	-111.707	-9.46912	45.1936	13.5082	-302.954	0.318893
0.5067	448.716	-12.2209	-24.0026	44.168	-125.15	-27.1709	62.2974	5.57006	-275.205	0
0.5073	701.703	-12.8404	-22.7783	70.0912	-135.82	-38.4645	64.1326	2.20134	-389.018	-0.318893
0.5080	540.219	-13.1783	-21.5863	114.029	-136.128	-40.289	54.0641	0.667074	-527.551	-0.318893
0.5087	142.87	-10.7004	-17.3012	116.195	-118.428	-31.4381	38.4898	-0.833842	-535.79	0
0.5093	-181.827	-3.99855	-9.05334	107.631	-99.804	-34.8005	22.9154	5.87025	-441.22	0
0.5100	-181.827	8.50397	5.2838	103.365	-94.315	-56.1664	1.55488	8.00488	-315.446	0
0.5107	108.703	23.1466	23.906	4.16741	-98.5907	-75.0895	-21.0292	-3.6022	-201.048	-0.318893
0.5113	119.385	38.1271	43.1081	-104.776	-86.6882	-84.242	-29.2624	-19.145	-156.766	-0.318893
0.5120	-250.159	50.6296	58.3796	-139.264	-74.1693	-85.4633	-23.1448	-35.0214	-143.955	0
0.5127	-488.223	55.5292	62.9546	-263.466	-76.9235	-75.9942	-11.8528	-44.1936	-109.774	0
0.5133	-533.385	49.3906	52.2903	-368.734	-72.3396	-64.0975	2.16664	-40.5247	-71.0205	0
0.5140	-644.131	28.6657	22.6817	-275.344	-36.035	-54.0253	11.6234	-36.8558	-84.1508	0
0.5147	-497.334	-4.89964	-19.7498	-135.588	26.2318	-29.9152	7.67246	-26.4828	-148.261	-0.318893
0.5153	274.429	-34.8043	-53.3213	-49.2214	71.3959	11.5801	-4.5372	-1.16738	-182.708	-0.637785
0.5160	1018.78	-46.7437	-63.9856	5.70968	85.1281	39.3541	-10.9607	18.6781	-112.857	-0.318893
0.5167	1003.15	-40.605	-58.7984	21.8871	91.5416	39.9724	-12.7704	23.8812	2.81743	0
0.5173	471.258	-25.3429	-44.1713	29.8281	67.4284	24.7132	-13.6881	17.1438	50.129	-0.318893
0.5180	-4.79112	-6.42021	-20.362	71.6335	13.4048	5.17183	-10.3489	1.90116	72.0837	-0.318893
0.5187	-176.329	11.5451	3.76954	127.483	41.4855	-9.77069	-5.76072	0.36689	141.988	0
0.5193	-237.985	25.6245	21.1674	158.919	126.633	-37.5448	-3.00781	2.80171	203.918	0.318893
0.5200	-326.739	36.2686	33.056	148.222	142.195	-62.8762	1.86076	-17.0104	225.288	-0.318893
0.5207	-207.432	42.0693	38.5331	132.044	131.506	-74.7729	6.75483	-38.0899	241.768	-0.318893
0.5213	100.142	38.7465	36.4067	152.816	149.205	-90.9518	6.44895	-41.4253	254.313	0
0.5220	271.366	32.3263	31.5417	161.348	168.446	-94.0127	6.44895	-37.4562	248.785	0
0.5227	255.814	23.7661	22.3595	152.192	162.649	-90.9518	6.75483	-32.8867	148.42	0.318893
0.5233	150.253	11.5451	9.56884	153.735	115.039	-101.642	-0.560778	-31.3525	-40.8262	0.318893
0.5240	42.1776	3.32274	0.708803	84.1357	43.9315	-104.387	-16.441	-26.1826	-97.2811	0
0.5247	99.8281	-2.19639	-6.60475	-8.92547	-14.9648	-89.1273	-28.9565	-13.675	-23.1242	0
0.5253	221.02	-9.79927	-17.3012	-3.15017	-43.6619	-63.7959	-31.0977	-3.90238	0.372114	-0.318893
0.5260	245.133	-14.361	-24.6148	94.505	-66.5424	-22.2856	-32.3212	5.87025	-3.56166	-0.318893
0.5267	248.196	-7.99711	-17.9134	169.584	-92.4853	10.6754	-28.6507	19.9121	-4.51852	0
0.5273	125.512	9.40505	2.22306	63.3971	-96.4529	4.87026	-12.4646	22.0468	-23.1242	-0.318893
0.5280	-41.7063	23.4845	16.2702	-96.2113	-94.9313	-11.6102	0.0254899	6.17043	-27.058	-0.318893
0.5287	-14.2948	22.865	14.1438	-102.643	-93.4098	-5.50355	-0.254899	-8.77202	-7.22964	0
0.5293	-110.981	11.883	3.76954	-57.1624	-73.5723	7.31294	-6.67836	-11.5404	32.1081	0.318893
0.5300	-492.779	-3.71697	-10.5998	0.525028	-45.7997	4.87026	-18.2763	-0.833842	115.462	-0.318893
0.5307	-593.471	-11.0383	-20.362	91.4533	-22.8998	-2.45775	-31.4036	20.5125	238.419	-0.318893
0.5313	-192.195	-10.4188	-24.0026	121.052	-0.943728	-15.5758	-39.6368	37.5896	337.613	-0.318893
0.5320	51.0529	-14.0794	-31.3484	73.1429	44.2397	-38.163	-41.1662	37.5896	352.87	0
0.5327	-40.214	-15.8816	-35.3113	-91.9455	90.6171	-54.6435	-35.3545	31.4859	318.37	0
0.5333	-14.8446	-12.5588	-31.0262	-253.982	97.0306	-74.4713	-27.733	36.3889	297.957	-0.318893
0.5340	30.3176	-4.89964	-22.4884	-210.044	87.5741	-88.8107	-11.5469	37.2894	207.32	-0.318893
0.5347	-113.73	6.7018	-11.212	-100.477	57.6637	-76.3109	18.6586	19.9121	18.393	0
0.5353	-131.167	12.1646	-0.515493	-60.5095	10.9588	-65.6204	51.0053	-5.43665	-78.0375	0
0.5360	135.251	16.4448	10.471	-45.8743	15.8508	-38.163	69.0012	-30.7521	-41.4109	0
0.5367	181.356	22.865	18.1067	-10.4677	43.9315	30.2017	64.7444	-58.2355	11.695	0
0.5373	-129.36	25.9061	19.9431	23.1012	35.9965	96.1236	46.723	-77.7474	26.6327	0
0.5380	-283.776	28.6657	23.5838	52.4043	28.0615	161.126	25.9742	-75.6128	-15.4693	0
0.5387	-292.258	30.4678	28.1588	142.414	21.0317	190.724	10.4254	-64.6394	-65.8641	-0.318893
0.5393	-505.267	31.0873	30.9296	231.242	-7.95428	135.176	12.2352	-57.902	-69.2131	-0.318893
0.5400	-895.626	31.0873	31.2195	197.673	-18.6434	64.0824	24.139	-48.7631	-53.9565	-0.318893
0.5407	-1105.89	25.6245	25.1303	52.6997	-11.3055	30.5032	31.1742	-28.0171	-37.1582	-0.318893
0.5413	-891.62	19.2043	18.1067	-35.505	-20.165	25.0148	34.2075	-0.233476	-26.1543	0
0.5420	-591.35	12.1646	10.471	-28.4828	25.9236	48.2051	35.431	22.9473	-42.0488	0
0.5427	-227.618	2.08375	-2.6419	-43.7414	123.571	99.471	30.2565	44.0269	-59.4319	-0.318893
0.5433	370.566	1.18267	-7.2169	-46.7931	152.576	149.832	18.9645	50.4308	-52.0959	-0.637785
0.5440	806.322	11.883	4.38169	-11.6819	130.909	178.828	8.89598	32.4198	-39.9225	0
0.5447	563.389	29.2852	26.0324	0.2297	110.147	179.732	7.97834	12.2742	-31.3639	0
0.5453	-124.098	41.1682	41.916	-8.63015	67.4284	155.019	5.53131	2.20134	-21.2636	0
0.5460	-313.308	30.8058	32.1217	-58.6719	21.9561	131.512	-10.3489	10.1395	-17.0109	0
0.5467	-138.785	2.42166	-2.02975	-122.463	0.597052	111.684	-20.4174	40.358	-15.4693	-0.318893
0.5473	-185.44	-31.7632	-42.947	-102.315	-31.143	103.753	-7.29012	73.6116	-2.65795	-0.318893
0.5480	20.4997	-54.6844	-67.3363	-29.0734	-72.3396	108.322	11.9293	94.3576	28.7591	0
0.5487	870.099	-54.3465	-67.3363	13.9461	-95.5476	96.4252	16.2116	98.3266	56.5613	0
0.5493	1374.58	-42.4635	-56.3498	23.7247	-96.761	64.384	12.541	87.0531	55.6044	-0.318893
0.5500	781.346	-28.4404	-41.1106	24.9388	-55.2562	8.53427	14.9881	73.9118	40.3477	0
0.5507	21.4422	-14.6989	-22.4884	31.0423	-21.3783	-68.0631	12.8469	62.9384	41.5704	0
0.5513	-307.26	-3.99855	-6.31479	36.8504	-25.654	-119.646	7.97834	58.3689	64.8009	-0.318893
0.5520	-333.808	3.60433	3.15739	50.8621	-22.3028	-119.947	9.81362	42.7928	73.3064	0
0.5527	-64.0125	13.6852	12.3074	86.564	-26.5785	-114.142	12.2352	-21.313	26.6327	0
0.5533	67.547	26.5256	22.9717	79.2464	-45.7997	-140.393	13.7646	-107.365	-41.4109	-0.318893
0.5540	-88.7536	30.1863	21.7474	-34.8815	-76.6153	-202.651	16.5175	-160.465	-52.0959	0
0.5547	-251.102	23.7661	9.56884	-160.626	-106.218	-271.921	20.188	-165.634	-16.4262	-0.318893
0.5553	-404.261	19.2043	2.54525	-154.522	-96.4529	-282.913	27.5036	-138.184	-3.88061	-0.318893
0.5560	-338.991	15.8253	-0.225528	-16.5712	-78.445	-259.104	33.5957	-110.1	-7.54859	0
0.5567	-85.3762	11.2635	-4.80053	95.1285	-75.0938	-272.84	33.5957	-86.9197	1.59477	-0.318893
0.5573	-143.655	9.40505	-7.82905	83.8404	-51.5969	-281.39	34.5133	-59.7364	9.51548	0
0.5580	-337.421	7.60288	-8.76338	24.02	-23.8243	-213.945	46.1113	-39.9244	12.9177	-0.318893
0.5587	40.0569	4.56173	-7.2169	-12.3053	5.77793	-107.131	64.4385	-15.2093	6.48541	-0.318893
0.5593	578.705	1.18267	-5.41268	-6.79255	91.5416	-10.0873	81.2109	20.5125	-13.9808	0.318893
0.5600	473.379	-5.51913	-11.5019	26.4483	191.326	104.356	79.9874	52.2652	-23.1242	0
0.5607	174.287	-18.0216	-25.2269	53.3231	236.491	226.128	48.2524	70.8766	-22.8052	-0.318893
0.5613	-69.8247	-28.1025	-33.4748	72.2241	253.285	285.627	5.53131	71.7771	-23.4432	-0.318893
0.5620	-314.879	-24.7798	-25.8391	87.4828	243.809	287.768	-23.4507	61.7043	-21.9015	0
0.5627	-235.55	-15.3184	-12.7262	79.5745	186.434	283.501	-37.4957	48.8965	-38.3809	0
0.5633	-99.7496	-3.09747	3.44736	62.4783	117.773	267.623	-42.3897	31.4859	-54.5412	0
0.5640	-221.491	18.8664	29.3831	54.5373	43.9315	229.174	-39.3309	6.7708	-47.5242	0
0.5647	-321.005	36.6065	49.2296	28.5812	-37.2484	200.797	-24.6742	-14.5756	-49.9695	0
0.5653	-115.615	40.5487	50.1317	-5.57842	-72.3396	155.019	-1.78429	-17.0104	-68.2563	0
0.5660	128.889	33.509	38.2431	-17.7853	-58.2993	57.056	12.2352	0.36689	-75.0075	0
0.5667	204.526	15.5437	15.6581	-38.2286	-33.8972	-45.4759	7.06071	33.954	-72.5622	-0.318893
0.5673	251.573	-10.7004	-15.787	-64.1846	-17.4108	-104.688	-5.45484	76.3466	-69.2131	-0.318893
0.5680	454.135	-40.0419	-45.9755	-51.3543	-12.827	-118.424	-11.2411	101.395	-60.6545	-0.318893
0.5687	983.044	-54.966	-60.957	-24.8076	-7.02981	-121.169	-7.29012	101.395	-53.6375	-0.318893
0.5693	1156.07	-43.3646	-50.5505	-9.84427	8.53207	-146.5	5.53131	82.4503	-52.7338	-0.318893
0.5700	746.237	-21.1191	-24.6148	-7.71135	24.691	-191.659	40.9368	47.6624	-51.1922	-0.318893
0.5707	475.264	-3.99855	-2.96408	-17.1947	15.8508	-221.574	97.0911	26.3161	-43.2715	-0.318893
0.5713	45.8691	5.46281	6.18591	-8.63015	-19.2405	-177.32	111.722	25.082	-27.3769	0
0.5720	-753.384	9.74295	8.95669	16.079	-29.6215	-49.4566	54.9817	20.5125	-8.77125	0
0.5727	-1005.19	12.7841	8.95669	27.9905	-13.7515	63.1627	-3.31369	5.87025	2.23268	-0.637785
0.5733	-411.644	7.26498	-1.41761	30.4188	-4.91124	71.0938	-27.4271	-15.5095	1.27582	-0.637785
0.5740	176.486	-3.71697	-17.0113	35.3081	-2.15709	6.70981	-40.5545	-23.1141	-1.11634	0
0.5747	427.038	-10.4188	-28.8998	34.3893	-16.1975	-57.6893	-39.9427	-11.5404	-5.74118	-0.318893
0.5753	655.598	-12.5588	-31.6384	26.1529	-50.6724	-85.7649	-19.8057	3.43543	-13.9808	-0.318893
0.5760	668.087	-6.42021	-22.4884	24.3153	-89.4423	-65.0173	3.39016	11.0401	-13.024	-0.318893
0.5767	304.668	-5.23754	-22.4884	31.3376	-111.11	-21.3809	8.89598	0.36689	-8.4523	0
0.5773	-123.234	-8.56028	-30.7363	45.3821	-93.6987	-9.77069	1.86076	-20.0789	-5.74118	0.318893
0.5780	-303.569	-1.23899	-27.3856	64.6112	-65.3291	-10.992	-4.5372	-41.1251	2.81743	0
0.5787	-188.817	6.36389	-23.3905	75.8993	-58.2993	45.7624	-12.7704	-64.3392	11.0571	-0.318893
0.5793	-32.2812	11.5451	-18.8155	83.8404	-59.5319	153.496	-16.1351	-74.7122	13.5024	0
0.5800	-4.24132	15.5437	-10.2776	93.9144	-64.4046	265.497	-13.994	-69.8092	15.363	0
0.5807	-65.5048	10.644	-9.66549	90.8626	-69.2966	334.767	-6.98424	-59.1361	15.6288	0.318893
0.5813	-165.961	8.78555	-6.60475	78.9511	-61.3616	314.321	4.91955	-42.3592	16.5325	0
0.5820	-120.485	12.5025	3.15739	69.5006	-36.9402	238.025	13.4587	-25.2487	20.2005	-0.318893
0.5827	167.611	12.7841	8.63451	60.6407	2.11857	139.142	13.7646	-13.0413	23.2837	-0.318893
0.5833	383.368	13.6852	13.8217	61.5595	39.0395	11.8967	12.2352	-7.87147	27.8554	-0.318893
0.5840	375.75	23.4845	26.3546	55.4561	50.9421	-92.4747	10.4254	-12.7411	37.9024	-0.318893
0.5847	350.38	33.2274	37.0188	2.36263	37.2098	-151.988	8.89598	-18.2445	49.8101	0
0.5853	282.99	34.4664	35.7945	-64.1846	38.7314	-175.797	14.9881	-13.9752	53.797	-0.318893
0.5860	2.82755	23.7661	19.6209	-105.99	57.0474	-137.951	15.5998	6.17043	47.6837	-0.318893
0.5867	-323.44	4.56173	-4.47834	-121.544	54.6014	-101.326	-3.92545	34.8546	43.431	-0.318893
0.5873	-522.703	-10.4188	-23.7127	-89.1891	107.412	-119.947	-35.3545	58.9693	48.9064	-0.318893
0.5880	-786.686	-16.5011	-34.3769	-42.1991	213.918	-135.81	-50.623	71.7771	56.8271	0
0.5887	-829.728	-18.6411	-38.0498	-19.6229	290.822	-115.982	-40.8603	70.5764	58.3687	0
0.5893	-242.855	-16.839	-34.087	-11.3865	360.08	-62.273	-33.2388	64.4727	56.8271	-0.318893
0.5900	277.492	-11.3198	-26.1613	-12.6007	347.581	3.0458	-32.0153	55.6006	55.6044	-0.318893
0.5907	147.19	-5.51913	-17.9134	-15.0289	233.447	43.9379	-15.2175	42.1924	54.3817	-0.318893
0.5913	-88.4394	-0.0563177	-10.5998	-11.9772	113.806	40.8771	7.06071	30.8855	50.7138	0
0.5920	63.5413	3.60433	-7.82905	-12.6007	-17.719	7.01137	12.2352	26.3161	42.7931	0
0.5927	231.702	5.46281	-7.2169	-11.3865	-130.023	-8.24779	2.16664	28.4507	38.8593	-0.318893
0.5933	74.8515	7.88447	-2.96408	-2.23137	-158.103	-14.656	-10.3489	25.3821	45.2384	0
0.5940	-89.3819	12.1646	3.44736	4.16741	-143.138	-50.9795	-15.8292	6.47061	53.478	0
0.5947	-92.3665	15.8253	8.63451	3.87208	-134.915	-65.3188	-12.1587	-22.8139	56.2423	0
0.5953	-59.1429	16.4448	9.56884	5.41435	-140.712	-37.5448	-7.29012	-47.529	56.2423	-0.318893
0.5960	0.078543	16.1632	8.63451	11.5178	-163.284	-34.8005	-1.47842	-58.5357	57.146	0
0.5967	0.706887	18.2469	9.8588	15.1602	-183.122	-44.8728	5.53131	-57.3016	58.0497	-0.318893
0.5973	-118.364	19.2043	11.0831	9.97553	-183.43	-29.6136	13.7646	-47.529	52.2554	-0.318893
0.5980	-225.183	16.4448	8.95669	2.65795	-173.665	-9.46912	23.5272	-35.9553	39.444	0
0.5987	-264.847	13.6852	6.79806	5.70968	-145.276	7.6145	13.7646	-28.6175	34.2345	-0.318893
0.5993	-283.462	14.3047	8.34454	18.8354	-115.385	46.9837	-10.043	-23.1141	43.6968	-0.318893
0.6000	-268.46	14.3047	8.95669	26.7764	-108.355	111.383	-24.9801	-18.2445	50.448	0
0.6007	-64.0125	10.3624	5.2838	21.8871	-92.1772	139.76	-31.4036	-13.675	45.2384	-0.318893
0.6013	322.026	9.74295	3.76954	14.5695	-71.7426	115.348	-34.7428	-6.03702	41.3046	-0.318893
0.6020	474.949	10.0245	3.15739	13.0273	-66.5424	123.28	-40.5545	-3.30201	40.082	0
0.6027	310.716	10.3624	2.22306	15.4883	-49.7672	160.508	-45.423	-7.57129	36.6798	-0.637785
0.6033	123.391	15.2058	5.57377	16.3743	-4.60308	182.175	-39.9427	-10.0061	30.3007	-0.318893
0.6040	25.3694	15.2058	6.18591	6.62848	65.9069	228.254	-24.0625	-11.5404	18.393	-0.318893
0.6047	16.2584	13.4036	4.96162	-3.74082	129.079	272.81	-6.67836	-9.70592	9.24968	0
0.6053	36.0512	17.0642	8.02236	-2.23137	138.844	235.884	8.28422	-4.20256	9.51548	0.318893
0.6060	50.1104	17.9653	8.34454	-1.01724	101.595	133.05	28.1154	-6.3372	8.29282	0
0.6067	51.6813	19.2043	9.24665	-10.4677	64.0772	45.7624	46.4171	-10.0061	-0.212636	-0.318893
0.6073	32.7524	20.1054	10.7609	-18.7041	20.1264	-37.8463	48.5583	-10.9067	-5.10327	0
0.6080	17.1224	16.1632	8.34454	-11.6819	-30.8349	-139.172	47.0289	-10.9067	0.372114	0
0.6087	22.3847	15.5437	7.41021	3.28142	-50.3643	-215.769	56.1798	-5.13647	11.695	0
0.6093	32.1241	16.1632	7.12025	9.6802	-71.4344	-264.593	62.9091	2.50153	18.9778	-0.318893
0.6100	26.6261	12.5025	4.05951	6.62848	-99.207	-227.063	55.568	3.73561	18.0741	-0.318893
0.6107	24.8196	10.9256	3.44736	2.65795	-86.0718	-70.2042	36.0427	0.967257	14.1403	0
0.6113	35.1873	11.5451	4.38169	8.7614	-72.6478	34.1672	6.44895	-1.16738	15.363	0
0.6120	36.0512	10.644	4.38169	24.3153	-88.826	-16.7971	-21.6409	-2.66829	23.6026	0
0.6127	28.7467	10.0245	3.44736	38.6552	-87.9015	-102.547	-45.7289	-2.06793	34.2345	0
0.6133	24.8196	10.644	3.76954	42.3304	-65.6372	-134.287	-59.7738	0.667074	40.082	-0.318893
0.6140	20.8139	9.40505	3.15739	30.1235	-49.1509	-100.723	-46.0348	2.50153	33.3307	0
0.6147	8.63973	6.36389	0.998767	9.05673	-9.16764	-32.3579	-10.043	4.33598	17.4893	0
0.6153	-4.79112	6.36389	0.708803	-2.23137	72.6093	-7.02645	26.8919	8.30507	6.16645	-0.318893
0.6160	17.1224	5.7444	-0.225528	-9.54894	124.495	-42.4301	52.2288	10.1395	-0.531591	0
0.6167	49.7962	4.56173	-1.73979	-15.9477	121.144	-94.9174	63.5209	8.30507	-3.88061	0
0.6173	41.5492	5.7444	0.0966549	-11.6819	104.966	-104.07	69.0012	7.07098	1.01002	0
0.6180	22.3847	6.7018	1.32095	-8.03949	72.9174	-50.6779	83.0461	5.26988	5.90066	0
0.6187	11.7029	6.7018	0.708803	-7.71135	16.4671	11.8967	90.3617	2.80171	8.29282	-0.318893
0.6193	-2.98463	7.60288	1.32095	-0.393771	-42.4292	49.1248	62.9091	2.50153	15.363	-0.318893
0.6200	-13.6665	6.7018	0.998767	5.41435	-68.3721	33.5641	15.5998	2.20134	21.7421	-0.637785
0.6207	-14.8446	6.36389	0.998767	9.6802	-60.4371	-17.7169	-19.1939	1.90116	28.7591	-0.318893
0.6213	-9.66079	7.26498	2.54525	20.3448	-52.2132	-39.9874	-39.6368	2.80171	39.1251	0
0.6220	-4.79112	6.36389	1.32095	27.9905	-40.3107	-23.5069	-52.4582	3.43543	44.9194	0
0.6227	-3.61298	5.12491	0.0966549	27.0717	-20.4731	12.4998	-56.4092	2.80171	41.5704	0
0.6233	-3.61298	4.22382	-0.225528	22.8059	-19.8568	26.8392	-48.7877	0.667074	35.4571	0
0.6240	-2.98463	3.60433	-0.515493	15.4883	-36.035	17.9883	-34.7428	-0.833842	30.8854	-0.318893
0.6247	-1.72795	5.46281	0.998767	9.97553	-48.2457	16.1639	-33.5192	0.0667074	27.8554	-0.318893
0.6253	-2.04212	6.7018	1.9331	9.05673	-32.6645	-4.58378	-35.3545	0.667074	25.9948	0
0.6260	-2.98463	6.36389	2.54525	9.05673	14.6374	-14.3545	-20.1115	0.36689	22.9647	0
0.6267	-2.98463	5.46281	1.9331	5.70968	60.1097	27.759	-2.09017	-1.46756	16.8514	0
0.6273	-2.98463	3.60433	0.38662	0.820356	79.928	55.5331	-0.866657	-3.90238	11.9608	0
0.6280	-2.98463	5.12491	1.61092	2.36263	76.8849	45.7624	-7.90187	-3.30201	12.2797	0
0.6287	-3.92715	5.46281	1.32095	3.57675	53.0799	38.751	-6.37248	-3.30201	12.9177	-0.318893
0.6293	-4.79112	4.56173	0.38662	3.87208	22.8613	5.79004	4.3078	-4.80293	11.695	-0.318893
0.6300	-4.47695	5.7444	3.44736	13.9461	8.84023	-53.7237	15.5998	-3.30201	11.376	0
0.6307	-4.24132	4.56173	4.05951	24.6435	16.756	-101.326	26.2801	-4.80293	13.1835	0
0.6313	-3.92715	3.04115	3.76954	24.6435	43.9315	-127.577	35.7369	-6.63738	17.4893	0
0.6320	-3.2988	6.08231	5.57377	20.9683	74.7471	-107.432	25.0566	-3.6022	21.4231	0
0.6327	-3.61298	5.7444	1.9331	20.0495	92.4468	-76.6124	-6.98424	-3.30201	19.9347	-0.318893
0.6333	-3.92715	2.42166	-3.25405	18.8354	94.2765	-91.2534	-31.0977	-5.13647	15.6288	-0.318893
0.6340	-3.2988	3.32274	-0.515493	16.3743	78.0983	-117.806	-36.2721	-3.6022	14.4061	-0.318893
0.6347	-2.98463	2.08375	0.708803	11.1897	46.6664	-122.39	-24.9801	-5.43665	11.9608	-0.637785
0.6353	-2.98463	2.08375	1.32095	4.79088	21.3398	-114.76	-1.78429	-6.63738	6.80436	-0.637785
0.6360	-2.67046	6.36389	5.2838	-0.689099	0.905208	-101.024	21.7174	-3.90238	3.72114	0
0.6367	-2.67046	4.22382	3.44736	-5.87375	-21.6865	-62.273	29.033	-5.13647	0.691068	0
0.6373	-2.98463	1.80216	1.61092	-2.82202	-38.7699	2.42759	9.20186	-6.3372	0.372114	-0.318893
0.6380	-2.67046	4.56173	4.38169	9.38487	-50.3643	43.0182	-17.6645	-4.20256	7.12332	-0.318893
0.6387	-3.61298	3.32274	2.54525	16.3743	-50.3643	54.0102	-32.6271	-5.43665	12.5987	-0.318893
0.6393	-3.92715	3.94224	3.44736	18.54	-43.97	62.5445	-35.3545	-5.13647	15.6288	0
0.6400	-2.67046	6.7018	5.89595	18.54	-43.6619	53.0904	-30.4859	-3.30201	16.5325	0
0.6407	-2.35629	3.60433	2.54525	15.1602	-47.6294	35.6901	-28.0389	-5.73683	12.5987	-0.318893
0.6413	-3.61298	3.32274	2.22306	12.7319	-43.97	31.423	-25.8978	-5.43665	9.83443	-0.318893
0.6420	-3.92715	6.36389	5.2838	10.599	-29.9297	23.1752	-20.1115	-1.76775	8.61177	0
0.6427	-4.47695	3.94224	4.05951	8.7614	-17.719	8.23271	-14.2998	-2.36811	5.5817	-0.318893
0.6433	-3.92715	1.80216	2.22306	7.54727	-12.827	1.82446	-8.81951	-3.90238	3.72114	0
0.6440	-2.04212	1.80216	1.32095	6.33315	-7.64612	8.83584	-2.70193	-4.80293	3.13639	0
0.6447	-2.67046	-0.675812	-0.515493	4.49555	0.905208	25.3163	1.55488	-6.63738	1.01002	0
0.6453	-4.24132	1.18267	-0.225528	1.44383	8.22392	34.7854	1.86076	-6.93757	-1.75425	0
0.6460	-4.79112	5.12491	1.9331	-0.0984427	11.8833	31.1214	-1.47842	-5.73683	-3.29586	0
0.6467	-5.41947	4.84332	3.44736	1.11568	9.74544	25.9345	-3.31369	-4.50275	-3.29586	-0.318893
0.6473	-5.73364	2.08375	1.9331	1.73915	1.81042	20.1294	-3.61957	-4.50275	-2.97691	0
0.6480	-6.04781	2.08375	1.32095	1.44383	-4.29493	15.5456	-4.5372	-4.20256	-1.75425	0
0.6487	-6.04781	5.46281	2.83521	1.44383	-3.67861	14.0227	-3.00781	-3.00183	-1.11634	-0.318893
0.6493	-5.41947	7.88447	3.15739	0.525028	-0.943728	12.4998	-0.560778	-3.30201	-2.0732	-0.318893
0.6500	-7.54013	6.98339	7.12025	-0.393771	0.905208	11.5801	-0.254899	-8.47183	-3.29586	-0.318893
0.6507	-11.5458	6.36389	15.3681	-0.393771	2.42673	11.8967	0.637248	-11.8406	-4.19957	-0.318893
0.6513	-11.86	4.22382	15.3681	-0.689099	2.73489	11.2785	1.24901	-6.63738	-5.10327	-0.318893
0.6520	-7.8543	-2.75957	11.0831	-1.31257	2.73489	10.3587	0.637248	-1.46756	-6.00698	0
0.6527	-4.79112	-8.56028	10.471	-1.01724	3.33194	9.75561	-0.254899	-0.833842	-6.96384	0
0.6533	-3.2988	-7.99711	8.63451	-1.01724	2.73489	9.1374	-2.09017	-1.46756	-7.54859	-0.318893
0.6540	-2.35629	-5.23754	4.05951	-1.6079	2.11857	9.45404	-2.09017	-0.533659	-7.86755	-0.318893
0.6547	-0.549801	-3.37906	0.998767	-1.6079	3.02378	6.70981	0.637248	1.90116	-8.1865	-0.318893
0.6553	-1.49232	-3.09747	-0.805458	-1.01724	2.73489	-2.45775	1.24901	-0.233476	-9.0902	0
0.6560	-4.24132	-1.57689	-10.5998	-1.31257	2.11857	-9.46912	1.55488	-4.80293	-9.356	0
0.6567	-2.67046	-1.85848	-18.2033	-3.15017	2.11857	-11.9118	3.69604	-5.13647	-10.3129	-0.637785
0.6573	-0.863973	-4.33646	4.05951	-2.23137	2.73489	-14.0529	3.08428	-7.2711	-9.67495	-0.318893
0.6580	-4.47695	-1.57689	24.8081	0.820356	2.42673	-18.6216	3.69604	-10.6065	-7.22964	0
0.6587	-6.67615	3.04115	18.7188	0.525028	0.597052	-26.8694	7.36659	-8.17165	-7.22964	0
0.6593	-6.91178	-0.675812	11.0831	-0.0984427	1.50226	-31.4381	10.4254	-1.76775	-8.1865	0
0.6600	-7.8543	-10.0809	-3.25405	0.2297	2.42673	-29.3121	14.3763	2.80171	-8.77125	0
0.6607	-10.6033	-3.37906	-21.2641	0.2297	0.905208	-14.9727	16.2116	9.20562	-10.5787	0
0.6613	-11.2316	14.3047	-26.1613	0.2297	4.25641	26.5377	13.7646	17.1438	-11.5355	-0.318893
0.6620	-9.97496	13.0657	-9.66549	-0.689099	10.6699	77.2005	7.97834	11.0401	-12.4392	-0.318893
0.6627	-9.42516	-0.9574	13.2095	-1.93604	10.9588	83.6087	0.943127	-8.77202	-13.024	-0.637785
0.6633	-6.04781	-13.4599	10.7609	-0.393771	6.99129	47.9035	-0.866657	-23.7478	-12.1203	-0.637785
0.6640	-1.49232	-19.2606	-3.57623	0.820356	1.1941	17.3852	3.39016	-18.2445	-11.5355	0
0.6647	-4.79112	-12.2209	-2.35194	1.73915	-3.0623	0.286486	8.89598	5.87025	-10.3129	-0.318893
0.6653	-10.6033	-2.19639	6.18591	2.65795	-1.54078	-14.656	13.7646	11.974	-8.1865	-0.318893
0.6660	-6.91178	-0.337906	7.73239	0.525028	0.288896	-19.5414	15.5998	-10.3063	-9.67495	-0.318893
0.6667	2.1992	-7.03971	1.9331	-0.0984427	2.42673	-9.77069	11.9293	-19.145	-10.8976	-0.318893
0.6673	4.00569	-15.8816	-7.82905	2.65795	3.33194	-0.919771	5.83719	-13.0413	-8.77125	-0.318893
0.6680	-3.61298	-16.2195	-10.2776	4.16741	0.905208	1.82446	-0.560778	-6.93757	-6.96384	-0.318893
0.6687	-10.2891	-8.89819	-5.41268	5.41435	4.56456	9.1374	-3.00781	0.967257	-5.10327	0
0.6693	-8.48264	-13.4599	-7.53908	6.00501	5.77793	10.9769	-3.00781	-4.20256	-3.29586	0
0.6700	-2.98463	-19.5422	-11.212	4.79088	-2.7734	4.5687	-7.29012	-20.0789	-4.19957	0
0.6707	-3.2988	-9.17978	-6.92694	5.08621	-5.20013	2.12603	-10.3489	-21.9134	-4.51852	-0.318893
0.6713	-6.91178	0.281588	-2.35194	6.62848	0.597052	1.50782	-10.3489	-17.0104	-3.29586	-0.318893
0.6720	-5.73364	5.7444	-1.73979	6.33315	3.02378	-1.23641	-11.2411	-27.0832	-3.56166	0
0.6727	-0.549801	10.9256	2.54525	6.9238	3.94825	-1.23641	-10.3489	-38.6903	-3.29586	0
0.6733	1.88503	8.22238	2.22306	6.9238	2.11857	-1.23641	-8.51363	-25.5823	-2.97691	0
0.6740	-2.98463	7.88447	-0.515493	4.79088	-1.84894	-3.06088	-9.43127	6.7708	-4.19957	0
0.6747	-6.91178	14.0231	10.181	4.16741	-0.0192598	-2.75931	-9.12539	23.5477	-4.51852	0
0.6753	-4.24132	13.0657	13.2095	4.79088	2.42673	-0.919771	-8.20775	9.83934	-4.51852	0
0.6760	-4.47695	7.60288	-3.25405	4.16741	1.81042	-1.23641	-8.81951	-14.2754	-4.78432	-0.318893
0.6767	-6.67615	7.60288	-14.8526	4.49555	2.11857	-0.919771	-7.90187	-36.2554	-3.56166	-0.637785
0.6773	-6.91178	-0.0563177	-16.6891	3.87208	1.50226	-1.53798	-7.59599	-64.0057	-3.88061	-0.318893
0.6780	-9.11099	-16.5011	-26.7734	2.65795	-0.0192598	-2.75931	-8.20775	-76.5467	-5.10327	0
0.6787	-13.6665	-19.2606	-9.98768	2.65795	0.905208	-1.83954	-7.29012	-53.9663	-5.10327	0
0.6793	-17.358	-13.1783	45.2667	2.65795	1.81042	-0.919771	-6.98424	-22.2136	-4.51852	0
0.6800	-14.2948	-4.61805	43.7202	2.65795	1.50226	-1.83954	-6.37248	68.4084	-4.19957	-0.318893
0.6807	-9.66079	21.9076	-17.3012	2.65795	2.42673	-1.53798	-5.14896	226.505	-3.56166	-0.318893
0.6813	-24.9767	22.5271	-57.5741	1.44383	1.50226	-2.14111	-5.45484	257.023	-4.78432	-0.318893
0.6820	-47.2043	-44.6036	-52.387	0.2297	0.905208	-3.36244	-5.76072	105.664	-6.32593	-0.318893
0.6827	-44.4553	-68.088	17.4945	1.11568	2.42673	-2.75931	-4.5372	-45.3944	-5.74118	-0.318893
0.6833	-24.0342	2.42166	77.6139	2.36263	2.42673	-2.45775	-3.92545	-89.9549	-5.10327	0
0.6840	-2.35629	25.6245	34.8924	1.44383	2.11857	-3.06088	-3.61957	-75.3126	-5.10327	-0.318893
0.6847	14.6875	-15.3184	4.67165	-0.689099	1.81042	-2.75931	-3.31369	-49.3634	-3.56166	-0.318893
0.6853	18.6932	-9.79927	63.5667	-2.82202	0.905208	-2.75931	-3.00781	8.30507	-2.65795	0
0.6860	18.3791	24.6671	69.076	-4.36429	-0.327416	-3.36244	-3.00781	101.395	-3.29586	0
0.6867	21.4422	33.509	-11.5019	-5.57842	-0.327416	-4.28221	-3.61957	124.576	9.24968	-0.637785
0.6873	18.6932	35.3675	-56.672	-4.36429	0.597052	-3.36244	-3.31369	-10.0061	33.9687	-0.318893
0.6880	10.7604	36.2686	-34.6991	-2.82202	0.597052	-3.36244	-2.39605	-121.074	46.78	0
0.6887	2.1992	31.9884	8.63451	-2.23137	-0.0192598	-3.98065	-2.70193	-123.542	42.2083	0
0.6893	-11.2316	31.0873	29.3831	0.820356	0.288896	-3.36244	-3.00781	-104.597	40.082	0
0.6900	-19.4787	11.883	-1.12764	-7.71135	-0.635572	-3.67909	-3.31369	-24.048	26.6327	0
0.6907	-21.5993	-14.361	-58.5084	-40.0662	-0.943728	-3.06088	-2.09017	56.8347	-24.6658	0
0.6913	-21.2851	-25.6808	-88.697	-62.0517	0.597052	-0.618207	-0.866657	58.9693	-67.6715	0
0.6920	-14.8446	-40.605	-88.1171	-36.7191	0.597052	-1.23641	-1.78429	-2.06793	-61.2393	-0.318893
0.6927	-12.724	-74.7898	-53.9334	19.7542	-0.327416	-2.45775	-2.09017	-114.37	-35.9355	-0.318893
0.6933	-17.358	-96.1906	17.7845	58.2125	-0.635572	-3.06088	-2.39605	-154.661	-20.6789	-0.637785
0.6940	-13.3523	-45.5047	59.6039	44.4633	-0.635572	-3.06088	-3.00781	-42.9595	-14.8845	-0.318893
0.6947	-0.863973	52.7696	75.4875	5.08621	0.597052	-1.23641	-2.09017	101.095	-11.5355	-0.318893
0.6953	1.57086	95.7963	117.597	-12.6007	0.597052	-1.23641	-1.78429	143.488	-9.99391	-0.318893
0.6960	-5.10529	43.3083	87.0539	-7.41602	-0.0192598	-2.45775	-2.09017	74.8457	-8.4523	0
0.6967	4.00569	-18.979	-35.3113	2.95328	0.288896	-2.14111	-2.09017	24.7818	-6.00698	0
0.6973	25.1338	-14.0794	-80.1591	8.13793	-0.327416	-3.06088	-3.00781	-56.7013	-4.78432	-0.318893
0.6980	30.5532	13.6852	-6.60475	7.54727	-0.635572	-3.67909	-3.61957	-232.175	-4.19957	-0.318893
0.6987	18.0649	14.0231	46.781	7.21913	0.597052	-2.14111	-2.09017	-275.802	-2.65795	0
0.6993	8.63973	1.18267	18.1067	6.00501	-0.327416	-2.45775	-1.78429	-157.096	-1.75425	0.318893
0.7000	7.38304	-9.79927	-10.5998	5.70968	-1.54078	-3.36244	-2.09017	-59.4363	-1.11634	0
0.7007	7.06887	-24.7798	-2.35194	8.46607	-0.943728	-2.45775	-1.17254	-16.1098	0.0531591	0
0.7013	4.94821	-31.7632	8.02236	11.8131	-0.635572	-1.83954	-1.47842	3.73561	1.27582	0.318893
0.7020	0.392715	-10.4188	0.0966549	10.8943	-0.0192598	-0.618207	-1.17254	16.5434	2.49848	0
0.7027	-1.17814	3.60433	-12.7262	-3.4455	0.288896	-0.0150782	0.0254899	20.8127	2.81743	-0.318893
0.7033	-1.49232	-11.6578	-0.515493	-18.4088	-0.635572	-0.316643	-0.254899	-23.1141	2.49848	0
0.7040	-9.11099	-1.85848	16.8824	-17.1947	-1.23262	-0.618207	-0.866657	-56.7013	3.72114	-0.318893
0.7047	-20.107	17.6837	23.2938	-8.63015	-1.23262	-0.919771	-1.78429	-31.0523	5.5817	-0.318893
0.7053	-20.971	2.42166	26.9345	-1.6079	-0.327416	-0.618207	-0.866657	6.47061	8.02702	0
0.7060	-11.86	-8.89819	-1.73979	6.9238	1.50226	0.286486	0.331369	71.1768	9.24968	0
0.7067	-7.8543	-12.5588	-34.6991	15.4883	-0.0192598	-1.53798	-1.47842	120.307	8.02702	0
0.7073	-6.91178	-18.3596	-15.4648	20.673	-1.54078	-3.06088	-2.70193	106.565	7.12332	0
0.7080	2.51338	-7.99711	-12.404	22.1824	-0.635572	-2.45775	-2.09017	86.1192	7.12332	0
0.7087	11.7029	-11.3198	-36.8255	24.9388	-0.327416	-2.14111	-2.09017	36.3889	6.80436	-0.318893
0.7093	6.44052	-30.8621	-2.02975	29.5	0.288896	-0.919771	-0.866657	-7.57129	7.12332	-0.318893
0.7100	-2.35629	-32.1011	31.8317	28.2859	0.905208	-0.0150782	0.331369	18.0777	5.90066	-0.318893
0.7107	-6.91178	-7.37761	11.6952	22.4778	1.1941	-0.0150782	-0.254899	36.689	3.45534	-0.318893
0.7113	-10.6033	13.4036	11.9852	9.97553	0.905208	0.603129	0.0254899	12.2742	2.49848	-0.318893
0.7120	-5.41947	6.08231	32.7338	-38.8521	0.905208	1.50782	0.637248	-0.533659	1.59477	-0.318893
0.7127	8.63973	-7.03971	-3.8662	-98.9677	2.11857	2.72916	0.943127	15.0092	0.691068	-0.318893
0.7133	13.5094	-29.3415	-84.122	-80.3621	3.64009	3.34736	1.24901	11.0401	1.59477	0
0.7140	0.392715	-56.4866	-89.6313	-12.3053	2.73489	2.12603	0.637248	-13.3748	4.35905	0
0.7147	-14.2948	-27.483	-2.96408	10.599	1.50226	1.20626	0.0254899	-26.783	8.02702	0
0.7153	-12.4098	36.2686	64.791	-1.6079	2.11857	0.904693	0.637248	-16.41	10.4723	-0.318893
0.7160	3.77006	32.3263	63.8889	-4.98776	2.42673	1.20626	1.55488	4.0358	11.695	-0.318893
0.7167	19.3216	21.3444	21.7474	-1.01724	3.64009	2.42759	2.7784	34.2542	12.5987	0
0.7173	23.2487	79.6332	-16.3991	-0.689099	3.02378	2.42759	2.47252	86.1192	12.5987	0
0.7180	18.3791	105.877	-21.5863	-1.93604	1.1941	0.904693	0.637248	110.534	10.7381	0
0.7187	10.132	84.8144	-9.37553	-0.689099	0.905208	0.904693	0.943127	83.6844	8.02702	0
0.7193	2.1992	48.7711	-12.1141	0.820356	0.905208	1.50782	1.86076	32.4198	7.12332	0
0.7200	-0.549801	-22.0202	-32.8627	5.41435	0.905208	1.82446	2.7784	-20.3791	8.93073	0.318893
0.7207	-1.72795	-72.6498	-30.4141	17.2931	1.50226	1.82446	3.08428	-71.9439	10.7381	0.318893
0.7213	-3.61298	-58.6267	-7.2169	24.02	0.597052	0.286486	2.16664	-93.3236	11.0571	0
0.7220	0.706887	-32.1011	-23.3905	18.54	-0.635572	-0.919771	1.24901	-51.7983	11.9608	-0.318893
0.7227	2.51338	-33.6216	-39.2741	9.97553	0.288896	-0.0150782	0.637248	-10.3063	14.4061	-0.637785
0.7233	-10.2891	-36.6628	-7.53908	8.13793	1.1941	0.904693	0.331369	-10.0061	18.393	-0.318893
0.7240	-21.5993	-0.0563177	9.24665	15.7836	1.81042	1.50782	1.55488	-6.3372	22.061	-0.318893
0.7247	-14.609	61.3299	15.6581	8.13793	1.81042	2.12603	2.7784	9.20562	20.5194	-0.318893
0.7253	-2.35629	79.6332	46.1688	-11.3865	1.50226	2.42759	2.47252	16.2432	15.044	-0.318893
0.7260	-0.863973	85.9971	35.5046	-30.2875	2.42673	3.95049	2.16664	38.8237	11.695	0
0.7267	2.82755	131.164	-2.6419	-52.2731	2.73489	4.26714	1.86076	53.1658	7.70807	0
0.7273	13.5094	68.6512	10.181	-42.1991	1.50226	2.72916	1.55488	27.8503	2.81743	-0.318893
0.7280	15.3159	-42.7451	26.6445	-5.28309	2.11857	2.12603	1.24901	-0.233476	-1.4353	-0.318893
0.7287	5.26238	38.1271	6.79806	16.079	1.81042	1.50782	0.637248	-43.5599	-7.86755	-0.318893
0.7293	-4.47695	125.701	-9.37553	19.426	0.597052	0.904693	0.0254899	-93.0234	-11.5355	-0.318893
0.7300	-11.86	93.3184	-4.18838	31.6329	1.50226	1.50782	-0.254899	-100.962	-7.54859	-0.318893
0.7307	-17.9078	111.959	21.7474	64.9066	3.02378	2.72916	0.637248	-78.9815	0.0531591	0
0.7313	-14.609	100.076	29.3831	62.1502	3.94825	2.72916	1.24901	-25.8825	2.81743	0
0.7320	-6.67615	-52.5444	-3.25405	35.3081	3.64009	1.20626	0.0254899	26.6162	0.691068	0
0.7327	-5.41947	-107.172	-27.0634	60.3454	2.42673	-0.316643	-0.560778	29.985	-0.850545	0
0.7333	-2.04212	31.0873	-18.2033	97.8849	0.905208	-0.919771	-0.866657	4.93634	-0.212636	0
0.7340	8.32556	100.696	-6.31479	102.151	0.905208	-1.23641	-1.78429	-4.20256	-0.212636	-0.318893
0.7347	18.0649	29.2852	-11.7919	98.1802	1.50226	-0.316643	-1.47842	17.444	1.01002	-0.318893
0.7353	16.8867	2.42166	-23.7127	102.741	1.1941	0.286486	0.331369	27.8503	3.72114	0
0.7360	3.77006	40.5487	-34.087	98.4755	-0.943728	-1.23641	-0.560778	29.6514	4.678	-0.318893
0.7367	-9.97496	-2.75957	-36.2134	21.5918	-1.54078	-1.53798	-2.39605	27.2166	1.59477	-0.318893
0.7373	-20.3426	-65.6664	-18.5255	-152.061	1.1941	1.50782	-1.17254	8.30507	-7.22964	-0.318893
0.7380	-23.72	-46.1242	-0.515493	-249.126	2.73489	4.26714	0.637248	26.3161	-11.8013	0
0.7387	-23.72	-12.8404	6.18591	-162.43	1.50226	3.64893	0.943127	20.2123	-7.22964	0
0.7393	-28.5896	-74.5083	4.67165	-66.9082	-0.0192598	1.82446	0.331369	-34.7212	-1.11634	0
0.7400	-30.1605	-203.588	0.708803	-48.0072	-0.943728	0.286486	-0.866657	-41.4253	1.91373	0
0.7407	-22.2277	-220.089	12.3074	-32.4533	-0.635572	-0.0150782	-2.09017	-27.0832	4.04009	-0.318893
0.7413	-13.9806	-127.616	34.8924	-14.4383	-0.327416	-0.0150782	-2.09017	-9.70592	5.5817	-0.318893
0.7420	-11.2316	-70.2281	39.4674	-9.25362	0.288896	0.286486	-1.17254	31.1857	6.80436	0
0.7427	-13.9806	-54.6844	25.7424	-6.20189	1.81042	0.904693	-0.254899	40.358	6.48541	0
0.7433	-13.6665	-54.966	17.1724	-6.49722	0.905208	0.286486	-0.866657	9.83934	3.72114	0
0.7440	-8.16847	-51.0238	15.9481	-12.3053	-0.0192598	-0.0150782	-2.09017	-29.2178	1.27582	0
0.7447	-7.54013	-33.0021	26.9345	-9.54894	0.288896	0.904693	-1.78429	-46.6284	1.27582	0
0.7453	-8.79681	-36.0433	26.6445	-22.3793	0.288896	1.50782	-1.17254	-44.794	1.27582	0
0.7460	-3.2988	-32.1011	-5.70264	-57.4577	1.1941	2.12603	-0.560778	-54.5666	0.372114	0
0.7467	2.51338	-32.3827	-20.9741	-75.4727	0.905208	2.12603	-0.560778	-57.902	-1.4353	0
0.7473	-1.72795	-78.7884	-13.6283	-88.2703	-0.943728	0.286486	-1.78429	-63.4053	-2.97691	0
0.7480	-9.11099	-75.1277	-10.5998	-102.938	-0.635572	-0.0150782	-2.09017	-62.5048	-3.29586	0
0.7487	-10.9175	-35.4238	8.34454	-107.828	-0.0192598	0.904693	-2.09017	-11.2402	-3.29586	-0.318893
0.7493	-16.4155	-45.5047	26.0324	-72.421	-0.327416	1.20626	-1.78429	44.0269	-3.88061	-0.318893
0.7500	-15.473	-39.7039	8.63451	3.87208	0.597052	1.82446	-0.866657	58.9693	-3.29586	0
0.7507	-4.47695	-21.4007	-4.47834	31.3376	0.597052	1.20626	-1.47842	65.9736	-2.0732	0
0.7513	-1.72795	-36.9444	2.54525	5.41435	-0.327416	0.286486	-1.78429	88.2538	-1.75425	-0.318893
0.7520	-2.67046	-53.1639	-3.57623	-8.63015	-0.943728	-0.316643	-1.47842	44.9274	-1.4353	0
0.7527	0.078543	-46.7437	-8.76338	-8.92547	-1.23262	-0.919771	-2.70193	-54.2664	-1.4353	-0.318893
0.7533	6.7547	-9.79927	6.18591	-8.33482	0.288896	0.904693	-3.61957	-58.2355	-1.4353	-0.637785
0.7540	17.7507	22.5271	13.2095	-4.06897	2.11857	1.82446	-1.78429	0.0667074	0.372114	-0.318893
0.7547	23.2487	23.4845	-3.8662	0.2297	1.81042	0.286486	-0.560778	2.20134	1.59477	0
0.7553	17.4365	38.4086	-32.5727	-5.57842	1.50226	-0.0150782	-0.560778	-22.5137	1.91373	0
0.7560	3.45589	87.236	-53.9334	-8.03949	1.50226	0.904693	-0.866657	-29.5514	3.45534	0
0.7567	-7.22595	154.367	-45.9755	2.03448	1.50226	0.904693	-1.17254	-30.7521	4.9438	0
0.7573	-8.16847	213.275	-9.98768	5.70968	2.11857	1.20626	-0.254899	-1.76775	5.26275	0
0.7580	-2.04212	253.26	17.1724	-5.57842	2.42673	1.82446	0.0254899	46.7619	4.678	0
0.7587	4.63404	223.018	28.7709	-10.1724	3.02378	1.82446	-0.560778	48.8965	3.45534	0
0.7593	3.77006	61.3299	41.3039	3.28142	2.42673	1.20626	-0.560778	34.2542	2.81743	0
0.7600	2.1992	-76.6483	32.7338	15.7836	0.288896	-0.919771	-1.78429	36.9892	3.13639	-0.318893
0.7607	17.1224	-96.7537	-2.96408	20.673	1.50226	-0.0150782	-2.09017	14.709	3.72114	-0.318893
0.7613	33.0666	-142.54	-26.7734	19.7542	3.02378	1.82446	-0.254899	-42.3592	4.678	-0.318893
0.7620	26.3119	-173.402	-15.4648	9.38487	1.1941	0.603129	0.331369	-93.924	5.5817	0
0.7627	8.63973	-118.774	19.331	2.65795	-0.0192598	-0.618207	0.0254899	-26.4828	6.16645	0
0.7633	-6.67615	-82.7306	32.4438	2.36263	-0.635572	-1.23641	-0.866657	80.6158	5.5817	0
0.7640	-19.7928	-72.3682	-3.8662	-0.689099	-0.635572	-1.23641	-0.560778	26.0159	4.35905	0
0.7647	-22.5418	-53.1639	-28.2877	-6.20189	0.905208	0.286486	1.24901	-52.7322	3.72114	-0.318893
0.7653	-15.1588	-13.7978	-3.57623	-20.837	1.81042	1.20626	1.55488	3.43543	3.13639	0
0.7660	-18.222	53.0512	17.4945	-38.2286	1.81042	1.20626	0.943127	109.333	3.45534	0
0.7667	-26.7832	82.6743	14.1438	-41.9038	0.288896	0.286486	0.0254899	146.856	4.678	0
0.7673	-21.2851	17.0642	2.22306	-37.0145	-1.23262	-1.23641	-1.17254	108.399	4.04009	0
0.7680	-5.73364	-83.0685	-12.404	-30.911	-0.0192598	-0.316643	-0.560778	72.711	4.35905	0
0.7687	3.45589	-58.9083	-36.5356	-42.1991	0.905208	0.603129	0.331369	43.093	4.678	0
0.7693	1.02106	49.3906	-81.7056	-62.6424	0.905208	0.286486	0.331369	7.40452	3.45534	0.318893
0.7700	-1.17814	99.1191	-121.076	-30.911	0.597052	0.286486	0.0254899	-0.833842	3.13639	0
0.7707	3.14172	119.281	-112.216	48.7291	0.288896	0.286486	-0.254899	26.6162	3.13639	-0.318893
0.7713	5.57655	117.479	-19.4276	90.2392	0.905208	1.20626	0.331369	55.9008	3.72114	0
0.7720	6.7547	104.019	138.345	61.2642	2.11857	2.12603	1.24901	65.073	4.9438	0.318893
0.7727	15.9442	44.4909	161.833	21.2636	0.905208	1.20626	0.637248	46.4617	4.9438	0
0.7733	31.4957	-132.178	31.8317	12.4366	-0.635572	-0.0150782	-0.254899	-14.5756	4.9438	0
0.7740	26.6261	-202.969	-38.372	15.1602	-0.635572	-0.618207	-0.866657	-77.7474	4.9438	0
0.7747	0.078543	-81.8296	-44.4613	14.5695	-0.943728	-0.618207	-0.866657	-75.0124	5.90066	0
0.7753	-3.92715	1.46426	-62.7613	14.8649	-0.327416	-0.0150782	-0.254899	-1.16738	7.70807	0
0.7760	16.5726	19.8238	-69.7849	17.2931	1.1941	1.50782	0.943127	58.6691	9.24968	0
0.7767	19.3216	52.1501	-26.7734	18.8354	1.50226	2.42759	1.24901	36.0887	9.51548	0
0.7773	5.89072	76.8736	27.2567	17.9166	-0.0192598	1.50782	0.331369	20.8127	8.93073	0
0.7780	-5.41947	114.719	26.9345	12.7319	-1.54078	0.286486	-0.560778	74.8457	7.38911	-0.318893
0.7787	-14.609	148.284	4.96162	6.00501	-1.23262	0.286486	-0.254899	91.9227	5.90066	-0.318893
0.7793	-15.1588	31.7068	29.3831	14.2414	0.597052	2.42759	0.637248	63.8389	6.48541	0
0.7800	-8.16847	-150.199	54.4167	41.1162	0.288896	2.42759	0.943127	61.1039	7.12332	-0.318893
0.7807	-9.42516	-177.344	6.79806	67.0395	-1.54078	0.904693	0.0254899	36.689	7.70807	-0.318893
0.7813	-8.16847	-104.695	-20.0398	75.8993	-1.84894	0.286486	-0.560778	-7.87147	8.61177	0
0.7820	4.63404	-56.8245	20.5553	74.3571	-1.54078	0.286486	-1.17254	-26.4828	8.29282	-0.318893
0.7827	7.69721	-45.7863	26.9345	74.6852	-0.0192598	1.50782	-1.47842	-75.6128	8.02702	-0.637785
0.7833	-5.73364	-48.8837	3.15739	74.3571	0.288896	2.42759	-0.560778	-139.385	8.29282	0
0.7840	-16.7297	-51.587	12.5974	61.5595	-0.635572	1.50782	0.0254899	-60.3702	7.38911	0.318893
0.7847	-15.7871	-30.8621	40.6917	34.094	-0.0192598	2.12603	0.0254899	98.6268	6.80436	0
0.7853	-2.98463	9.74295	41.916	6.33315	0.597052	3.0458	0.0254899	139.218	5.90066	-0.318893
0.7860	16.8867	20.387	17.7845	-35.8003	0.597052	2.72916	0.0254899	62.6382	4.35905	0
0.7867	32.4383	15.2058	12.5974	-96.8348	1.50226	3.34736	0.0254899	-48.7631	3.13639	-0.318893
0.7873	28.4326	40.8303	22.9717	-110.551	1.81042	3.64893	0.0254899	-63.4053	4.35905	-0.318893
0.7880	11.7029	89.6577	10.471	-68.4505	1.50226	3.34736	0.0254899	28.1505	6.48541	0
0.7887	3.14172	168.108	-9.05334	-35.8003	2.11857	3.0458	-0.560778	38.8237	6.80436	0
0.7893	2.82755	212.036	-14.2405	-22.0512	2.11857	2.72916	-0.866657	-33.1869	6.80436	0
0.7900	-1.17814	193.451	-26.7734	-14.1429	1.81042	3.0458	-0.866657	-52.7322	7.70807	0
0.7907	0.078543	132.403	-49.0363	-13.5195	0.905208	2.42759	-0.866657	12.8745	7.12332	0
0.7913	21.7564	-27.483	-39.5641	-13.5195	-0.327416	1.82446	0.0254899	75.1458	6.16645	-0.318893
0.7920	56.8651	-84.5891	5.2838	-11.6819	-2.15709	1.20626	0.637248	39.424	5.5817	0
0.7927	76.0296	40.2671	12.3074	-10.7631	-3.67861	0.603129	-0.254899	-22.5137	4.35905	0
0.7933	59.8498	71.974	-20.6519	-9.54894	-4.29493	-0.316643	-0.254899	-16.7102	3.13639	0
0.7940	30.0034	-5.51913	-22.1984	-7.71135	-4.60308	-0.618207	0.0254899	19.2784	2.81743	0
0.7947	13.5094	-61.3862	4.96162	-6.79255	-3.98677	-0.618207	-0.560778	22.9473	3.13639	0
0.7953	0.706887	-93.7126	21.7474	-6.20189	-2.7734	-0.316643	-1.78429	-35.9553	3.45534	-0.318893
0.7960	-14.609	-126.658	16.2702	-5.28309	-2.46525	0.286486	-1.47842	-106.131	3.45534	-0.318893
0.7967	-25.5265	-157.183	6.5081	-3.4455	-2.15709	1.20626	-0.254899	-112.235	3.72114	0
0.7973	-45.3978	-159.323	6.18591	-2.5267	-1.84894	0.904693	0.0254899	-109.2	4.35905	0
0.7980	-71.6312	-61.3862	-2.35194	-2.82202	-1.54078	0.904693	0.0254899	-136.95	4.04009	0
0.7987	-81.6847	176.668	-33.4748	-2.23137	-1.23262	1.20626	-0.254899	-121.708	3.72114	0.318893
0.7993	-78.3859	416.525	-31.9606	-1.6079	-1.23262	1.50782	-0.866657	-74.0785	3.13639	0
0.8000	-65.819	553.546	31.5417	-1.31257	-0.327416	2.12603	-0.866657	-68.3083	2.81743	0
0.8007	-31.0245	676.544	38.8553	-1.01724	2.42673	3.64893	-0.254899	3.10189	4.04009	0
0.8013	3.45589	718.332	-17.0113	-0.689099	3.64009	4.26714	-0.560778	144.121	4.678	0
0.8020	12.5669	455.61	-16.6891	-0.689099	2.73489	3.34736	-1.17254	129.779	3.72114	0
0.8027	15.3159	11.2635	22.6817	-0.0984427	3.02378	3.0458	-0.866657	75.7462	3.72114	0
0.8033	27.5686	-174.303	36.1167	0.820356	3.64009	3.0458	-0.560778	122.742	4.35905	0.318893
0.8040	31.8099	-59.5278	20.2331	2.36263	3.94825	3.34736	-0.866657	50.1306	4.35905	0.318893
0.8047	11.3887	-2.75957	9.24665	4.16741	3.02378	4.5687	0.637248	-49.9972	4.35905	0
0.8053	-15.7871	-74.5083	9.56884	3.28142	-0.0192598	2.72916	1.86076	11.3736	3.45534	0
0.8060	-20.971	-126.095	-21.5863	2.65795	-2.46525	-0.316643	-0.254899	105.965	1.27582	0
0.8067	-11.5458	-126.095	-40.1762	3.87208	-3.37046	-1.53798	-2.70193	172.805	0.0531591	-0.318893
0.8073	-4.79112	-223.131	-14.8526	4.79088	-3.37046	-1.53798	-2.70193	165.768	0.0531591	-0.318893
0.8080	0.392715	-376.033	4.05951	6.33315	-1.23262	0.286486	0.0254899	47.6624	1.01002	0
0.8087	1.88503	-324.728	11.0831	6.62848	0.288896	1.50782	1.24901	-69.2089	2.23268	0
0.8093	-5.10529	-244.475	-25.5491	4.79088	-1.23262	0.286486	-0.560778	-55.167	1.27582	-0.318893
0.8100	-15.7871	-268.297	-99.1035	4.49555	-2.46525	-0.316643	-0.866657	-1.76775	0.0531591	-0.318893
0.8107	-23.72	-240.533	-118.628	5.41435	-1.54078	0.286486	0.0254899	-58.8359	0.691068	0
0.8113	-24.0342	-235.351	-60.0227	5.70968	-0.0192598	0.904693	0.943127	-96.3588	1.27582	0
0.8120	-7.8543	-270.099	62.9546	5.70968	1.81042	3.0458	1.86076	-24.3482	1.59477	-0.318893
0.8127	9.81787	-235.633	159.094	4.79088	1.81042	3.0458	1.55488	25.082	1.01002	0
0.8133	15.3159	-174.585	109.639	3.57675	0.288896	1.50782	0.0254899	-7.87147	0.0531591	-0.318893
0.8140	28.7467	-147.158	-15.1748	3.57675	0.597052	1.50782	-0.254899	4.63616	-0.212636	-0.318893
0.8147	33.9306	-150.199	-72.8456	4.49555	1.81042	1.82446	-0.254899	70.2429	0.0531591	0
0.8153	11.7029	-161.801	-34.087	5.41435	2.73489	3.34736	-0.254899	25.082	0.372114	-0.318893
0.8160	-20.971	-101.372	53.1924	5.08621	1.50226	3.34736	-0.254899	-100.628	0.372114	-0.318893
0.8167	-49.4035	-6.75812	120.625	4.49555	-1.54078	0.286486	-1.47842	-203.191	-1.11634	0
0.8173	-49.9533	-8.2787	112.7	3.87208	-2.7734	-0.919771	-1.47842	-177.542	-2.0732	0
0.8180	-15.473	-36.6628	40.3695	3.87208	-2.46525	-0.316643	-0.560778	-56.7013	-1.75425	0
0.8187	17.4365	-2.19639	-10.5998	5.08621	-3.37046	-0.316643	0.331369	-1.76775	-1.4353	0.318893
0.8193	29.6892	16.7263	-14.8526	5.70968	-5.20013	-0.316643	0.943127	21.7466	-1.4353	0
0.8200	47.6756	14.5863	-44.4613	5.41435	-5.81645	-1.23641	-0.254899	44.9274	-2.339	0
0.8207	68.7251	134.824	-107.319	4.79088	-3.67861	-1.23641	-1.47842	71.7771	-2.339	0
0.8213	56.5509	322.531	-129.904	5.08621	-0.943728	-0.0150782	-0.866657	45.2276	-1.4353	0
0.8220	18.0649	423.565	-88.1171	5.41435	-0.943728	0.603129	-0.560778	-93.924	-1.4353	0
0.8227	-9.42516	507.76	-38.9841	5.70968	-0.943728	0.904693	-0.254899	-143.354	-1.4353	0
0.8233	-19.1645	500.157	5.89595	6.62848	-2.7734	-0.316643	0.0254899	-76.8469	-1.75425	0
0.8240	-27.0973	220.596	74.5532	7.8426	-5.20013	-2.14111	-0.866657	-120.473	-2.97691	0
0.8247	-33.5379	-139.217	123.686	7.21913	-4.60308	-1.53798	-1.17254	-94.2241	-2.97691	0
0.8253	-29.5322	-365.333	113.312	5.70968	-4.29493	-1.53798	-1.17254	183.779	-2.339	0
0.8260	-13.0381	-400.137	39.1452	4.49555	-4.60308	-0.919771	-0.866657	337.606	-2.97691	0
0.8267	11.3887	-256.696	-38.372	0.820356	-4.91124	-0.618207	-0.866657	197.821	-2.97691	0
0.8273	24.8196	-130.657	-14.2405	-1.31257	-5.50829	-1.23641	-1.17254	63.8389	-2.65795	0
0.8280	13.1952	-97.9927	58.7018	0.2297	-4.29493	-0.0150782	-1.17254	23.5477	-2.339	0
0.8287	-3.92715	-113.255	57.1553	0.2297	-2.46525	0.904693	-0.866657	-28.9176	-1.4353	0
0.8293	-3.92715	-164.504	23.906	-0.393771	0.288896	3.0458	0.943127	-33.8206	0.0531591	0
0.8300	4.94821	-114.156	9.24665	0.820356	4.56456	6.0916	1.86076	25.082	1.59477	0
0.8307	8.63973	73.4945	-50.8727	0.820356	5.77793	5.79004	1.24901	3.73561	1.91373	0.318893
0.8313	10.4462	197.731	-103.066	0.2297	3.64009	4.87026	0.637248	-80.5158	1.91373	0
0.8320	15.9442	279.786	-48.7463	-0.0984427	1.81042	4.87026	0.331369	-42.059	1.59477	-0.318893
0.8327	19.0074	456.173	-14.5627	-0.0984427	-0.0192598	3.64893	0.331369	43.093	0.691068	-0.318893
0.8333	23.8771	531.582	-88.407	0.820356	-1.84894	2.42759	0.0254899	52.5654	-0.531591	0
0.8340	23.5629	286.544	-111.604	2.36263	-5.20013	0.904693	-0.254899	109	-2.339	0
0.8347	-5.41947	-20.7812	-26.1613	3.87208	-10.0921	-2.14111	-1.17254	219.501	-3.56166	0
0.8353	-29.5322	-21.6823	18.3967	5.08621	-11.9218	-3.36244	-1.47842	186.514	-3.88061	0
0.8360	-27.4115	102.78	24.5181	4.16741	-11.9218	-3.06088	-1.17254	32.1196	-3.56166	0
0.8367	-17.358	7.88447	41.5938	3.28142	-11.3055	-1.53798	-0.560778	54.0663	-3.29586	0
0.8373	10.132	-231.691	10.181	3.87208	-8.87875	0.904693	0.331369	182.245	-2.0732	0
0.8380	46.7331	-385.156	-1.12764	3.57675	-7.95428	2.42759	0.943127	146.856	-1.75425	0
0.8387	61.4206	-347.311	0.708803	2.03448	-8.26243	2.12603	0.331369	28.1505	-2.339	-0.318893
0.8393	57.4149	-170.305	-29.1898	1.44383	-7.33797	1.50782	-1.17254	-101.262	-2.65795	-0.318893
0.8400	43.4343	-15.3184	-22.4884	0.820356	-7.02981	1.20626	-2.09017	-225.771	-2.97691	-0.318893
0.8407	17.7507	89.6577	-16.3991	0.525028	-6.74091	2.12603	-1.78429	-194.952	-2.65795	0
0.8413	-9.11099	183.652	-37.1477	0.820356	-5.81645	3.95049	-0.254899	-27.4167	-1.11634	0
0.8420	-28.5896	226.115	-82.6077	0.820356	-6.43276	3.95049	0.0254899	71.4769	-0.850545	-0.318893
0.8427	-25.2908	71.974	-120.142	0.525028	-6.43276	4.5687	-0.866657	53.7661	-1.4353	-0.637785
0.8433	-0.549801	-156	-48.7463	0.2297	-6.43276	4.5687	-1.78429	25.3821	-1.75425	-0.318893
0.8440	16.2584	-111.734	44.6546	-1.31257	-8.26243	2.72916	-1.78429	10.4397	-2.0732	0
0.8447	24.5054	-11.9393	5.57377	2.65795	-8.26243	3.34736	-0.866657	-13.3748	-1.11634	0
0.8453	24.5054	-18.3596	-81.9956	10.8943	-7.95428	2.72916	-1.17254	-38.3901	-1.11634	0
0.8460	2.1992	148.566	-72.2334	13.9461	-7.95428	0.904693	-3.61957	-70.7432	-2.339	0
0.8467	-27.4115	431.787	37.9209	12.7319	-7.64612	0.904693	-5.76072	-53.0323	-2.97691	-0.318893
0.8473	-30.7888	548.984	145.369	12.7319	-6.74091	2.12603	-5.45484	25.082	-2.97691	0
0.8480	-8.16847	388.141	128.261	14.2414	-4.91124	3.34736	-3.61957	109	-1.4353	0
0.8487	5.26238	104.357	14.1438	13.0273	-4.29493	4.5687	-2.70193	116.938	-0.850545	0
0.8493	11.3887	-151.1	-42.0127	14.8649	-5.81645	3.34736	-3.31369	38.5235	-1.75425	0
0.8500	21.1281	-456.905	-40.4984	8.46607	-7.33797	1.50782	-4.84308	75.7462	-2.339	0
0.8507	17.1224	-667.758	-63.9856	-25.7264	-8.57059	1.20626	-4.84308	145.956	-2.339	0
0.8513	0.706887	-500.833	-55.4477	-40.0662	-7.33797	2.72916	-3.00781	119.373	-1.11634	0
0.8520	-5.73364	-115.676	3.15739	-15.6524	-5.20013	3.95049	-1.47842	96.4922	1.27582	0
0.8527	-0.549801	137.922	78.8382	-0.0984427	-6.74091	1.82446	-2.09017	53.4659	1.59477	0
0.8533	-7.22595	213.894	104.452	-0.689099	-12.827	-2.14111	-3.31369	-18.2445	-0.531591	0
0.8540	-17.358	212.036	23.906	-1.31257	-16.5056	-3.67909	-3.31369	-107.966	-2.65795	-0.318893
0.8547	0.078543	159.266	2.83521	-1.31257	-14.9648	-2.45775	-1.78429	-187.314	-2.339	-0.318893
0.8553	29.0609	87.236	58.9917	-0.689099	-11.6136	-0.0150782	0.331369	-128.712	-0.850545	0
0.8560	22.6204	-86.3913	12.3074	-1.6079	-10.7084	1.20626	2.16664	44.9274	-0.212636	0
0.8567	-1.49232	-293.64	-43.237	-4.36429	-10.7084	1.50782	0.331369	179.209	-0.850545	-0.318893
0.8573	7.38304	-325.685	51.066	-5.28309	-7.95428	2.72916	-2.39605	290.577	-0.850545	0
0.8580	15.9442	-407.12	193.568	-4.06897	-4.60308	3.34736	-3.31369	253.988	0.0531591	0.318893
0.8587	-1.17814	-557.601	268.958	-2.82202	-0.635572	4.5687	-1.78429	88.2538	1.59477	0
0.8593	-7.54013	-404.417	268.346	-1.93604	1.50226	6.39316	0.0254899	43.093	2.23268	-0.318893
0.8600	3.77006	-79.07	221.05	-1.6079	-1.84894	5.17183	-0.560778	4.63616	1.27582	0
0.8607	22.9345	165.687	84.9275	-1.93604	-6.43276	2.72916	-1.17254	-84.1513	-0.212636	0.318893
0.8613	30.5532	467.493	-149.429	-1.6079	-11.6136	-1.83954	0.331369	-95.158	-2.0732	0
0.8620	22.3847	793.122	-277.013	0.820356	-18.0271	-14.0529	1.55488	-15.2093	-3.88061	0
0.8627	27.2544	1019.86	-170.209	2.03448	-21.6865	-25.0298	3.08428	56.2343	-4.19957	0
0.8633	53.4878	1143.14	39.7574	-0.393771	-25.9621	-28.6938	4.61367	49.797	-6.96384	0
0.8640	88.2823	807.764	95.9139	-2.23137	-32.0675	-29.0105	3.39016	50.1306	-9.99391	0
0.8647	102.027	116.521	-16.6891	-1.93604	-35.1105	-23.2054	0.637248	53.4659	-10.5787	-0.318893
0.8653	78.7786	-334.808	-68.2706	-2.5267	-31.7593	-12.2134	1.86076	-6.63738	-9.0902	0
0.8660	43.4343	-530.456	-31.3484	-2.5267	-27.1755	-9.46912	7.67246	-7.57129	-7.22964	0
0.8667	11.7029	-509.055	13.5317	-1.6079	-23.5162	-14.0529	14.9881	15.9431	-6.32593	-0.318893
0.8673	-18.8503	-311.324	22.6817	-4.65962	-18.3353	-16.1789	18.6586	-110.401	-7.22964	-0.318893
0.8680	-34.0877	-229.213	-82.8977	-8.03949	-10.4003	-14.0529	14.6822	-289.543	-6.96384	0
0.8687	-23.0916	-236.253	-226.044	-5.57842	-2.46525	-12.8316	7.97834	-351.181	-4.19957	0
0.8693	-8.16847	-147.721	-213.833	-1.01724	2.73489	-2.45775	6.14307	-338.373	0.0531591	0
0.8700	-7.22595	-83.3501	-56.672	0.525028	4.25641	18.305	5.22543	-273.967	2.23268	0
0.8707	-11.5458	-90.953	71.8146	-0.689099	2.73489	25.3163	1.55488	-92.7232	1.91373	-0.318893
0.8713	5.89072	7.60288	118.209	-0.393771	-0.943728	24.7132	-3.00781	81.2496	1.01002	-0.318893
0.8720	42.4918	20.7249	112.41	3.57675	-4.91124	29.9001	-8.81951	135.249	1.91373	-0.318893
0.8727	63.8554	-264.017	29.0931	8.46607	-6.1246	24.3966	-13.994	120.907	3.72114	-0.637785
0.8733	53.4878	-464.846	-78.3227	10.599	-5.81645	7.6145	-14.6057	16.5434	4.678	-0.637785
0.8740	6.44052	-381.496	-87.5049	9.6802	-7.95428	-2.75931	-12.7704	-90.2551	4.04009	0
0.8747	-40.5282	-272.859	-73.7477	7.8426	-8.26243	-5.50355	-13.994	-62.805	2.49848	0
0.8753	-32.5953	-183.145	-62.4713	5.41435	-0.635572	-6.42332	-14.9116	-40.8249	1.27582	-0.318893
0.8760	-18.5361	-84.8707	7.73239	2.95328	6.39424	-6.12176	-13.0763	-90.5552	0.691068	0
0.8767	-57.8862	-109.313	-9.98768	2.36263	4.87272	-4.90042	-9.73715	-136.65	1.59477	0
0.8773	-115.301	-193.507	-49.6484	2.36263	2.11857	-3.06088	-6.0666	-150.092	3.13639	-0.318893
0.8780	-162.898	-87.6303	125.812	0.820356	2.42673	-1.53798	-3.31369	-68.3083	3.13639	-0.318893
0.8787	-183.633	39.6476	324.503	0.525028	5.16161	0.904693	-2.39605	79.7153	2.49848	0.318893
0.8793	-137.843	-45.5047	257.65	1.44383	8.84023	3.34736	-1.47842	217.666	2.23268	0
0.8800	-42.963	-54.0649	91.951	2.03448	10.0536	2.12603	-1.17254	335.138	2.49848	0
0.8807	29.3751	162.927	-31.6384	3.28142	9.12912	0.603129	-3.00781	409.917	2.81743	0
0.8813	57.4149	450.429	-108.866	2.65795	6.70239	-0.0150782	-4.5372	365.957	2.23268	0
0.8820	62.3631	661.901	-26.4512	2.03448	4.25641	-0.618207	-4.84308	194.152	1.59477	0
0.8827	26.6261	725.653	89.8246	1.73915	3.64009	-0.316643	-4.84308	-59.4363	1.27582	0
0.8833	-36.2083	669.504	102.035	0.820356	2.11857	-0.316643	-4.23133	-328	0.691068	0
0.8840	-59.1429	394.843	101.423	-0.0984427	1.1941	-0.919771	-3.31369	-467.452	0.372114	0
