MR32 ASCII
Name	CORE30_fast
Frequency	1500
Date	27-08-2015 11:25:00
"Time,s"	"RT TIB.ANT.,uV"	"RT MED. GASTRO,uV"	"RT LAT. GASTRO,uV"	"RT BICEPS FEM.,uV"	"RT VMO,uV"	"RT VLO,uV"	"RT RECTUS FEM.,uV"	"RT SOLEUS,uV"	"RT SEMITEND.,uV"	"Channel 12,uV"
0.0000	8.29628	-76.9199	97.0563	-9.66189	0.207365	1.69557	0.276415	2.92509	2.20911	-10100.4
0.0007	20.2703	-65.9203	79.344	-8.76094	-1.30344	0.476283	0.276415	31.91	3.1756	-10047.2
0.0013	38.5734	-99.5343	17.7123	-5.40569	-1.92553	0.781104	1.50772	57.5563	4.07305	-9568.62
0.0020	53.7975	-135.225	-27.2011	-3.8834	-2.22177	1.08592	2.41235	60.3041	4.69436	-9909.6
0.0027	39.7708	-110.457	-22.3211	-5.71636	-3.1401	-0.133359	1.20617	67.0111	3.72788	-9812.31
0.0033	12.3161	-93.6884	2.43996	-3.8834	-3.1401	-0.133359	0.879501	38.0261	3.1756	-9800.42
0.0040	8.6384	-96.7652	13.7361	-0.21747	-3.43633	-0.133359	0.577958	-9.27755	2.83043	-9817.63
0.0047	13.8556	-76.9199	38.4972	0.403873	-3.43633	0.171462	0.879501	16.9596	3.45174	-9817.63
0.0053	7.44099	-25.922	46.0882	0.403873	-2.518	1.08592	1.80926	36.4897	4.34919	-9802.93
0.0060	8.6384	19.8453	-10.3924	-1.11842	-3.43633	-0.133359	0.879501	-15.6891	3.1756	-9806.68
0.0067	23.6059	11.6149	-60.0954	-5.09501	-4.05843	-1.35264	-0.326672	-9.60256	1.65683	-9915.54
0.0073	27.8823	-27.7681	-67.4153	-6.92798	-3.76219	-0.743001	-0.628215	30.4032	0.690348	-9589.58
0.0080	10.1779	-5.84591	-93.0801	-6.30663	-3.43633	-0.133359	-0.929758	-42.2513	1.03552	-9977.48
0.0087	-11.5464	56.1515	-104.376	-4.78434	-2.22177	1.08592	0.577958	-131.038	2.83043	-10250.3
0.0093	-13.0004	33.5371	-39.4009	-4.78434	-1.30344	1.39075	2.1108	-87.3981	3.72788	-5134.67
0.0100	-2.65139	-32.9986	14.9109	-8.45027	-1.92553	-0.133359	0.577958	48.3969	1.03552	108.549
0.0107	-5.73042	4.23059	-3.70513	-9.97256	-3.76219	-1.04782	-1.25643	212.261	-2.62332	108.549
0.0113	-18.8163	85.7657	-21.056	-6.30663	-4.68052	0.476283	-1.25643	254.394	-3.58981	-250.258
0.0120	-3.84879	28.9988	1.80738	-4.47367	-1.92553	2.30521	0.577958	158.575	-0.207104	93.8468
0.0127	30.8759	-68.0741	21.3271	-6.92798	-0.0888707	1.39075	1.20617	82.582	2.20911	-2.8154
0.0133	46.1855	-51.3056	-0.90369	-7.23865	-1.30344	1.08592	-0.0251286	-29.7236	0.414209	-17.5181
0.0140	50.1198	-9.46115	-28.1048	-2.95138	-0.710966	3.21967	1.20617	-119.751	1.03552	-0.938468
0.0147	50.1198	3.92291	-24.1285	-3.26205	0.207365	2.61003	1.80926	-48.3378	2.83043	-0.938468
0.0153	34.297	-5.23055	-13.7361	-3.57272	0.82946	1.08592	0.276415	17.2551	2.83043	-0.312823
0.0160	11.7174	-26.2297	-8.22358	1.61549	2.66612	3.21967	1.80926	-19.9733	4.07305	-0.625646
0.0167	-2.9935	-36.9215	-5.78362	3.13778	2.66612	2.91485	1.80926	-41.6308	4.34919	-0.625646
0.0173	-6.32912	-50.6902	-4.24734	1.92616	1.45155	2.91485	0.577958	-8.36161	3.72788	-1.87694
0.0180	-2.9935	-26.5374	2.16886	2.23684	1.1257	4.74378	1.50772	5.6729	4.07305	-2.8154
0.0187	1.62504	102.227	15.2724	1.30482	0.533224	4.13413	0.577958	-16.3096	3.45174	-2.8154
0.0193	7.44099	244.451	37.5031	1.30482	2.04403	5.0486	0.879501	-8.06615	4.07305	-1.87694
0.0200	11.974	266.374	28.3759	-0.528142	2.96236	4.43896	1.20617	10.2526	4.69436	-0.312823
0.0207	8.29628	247.144	-17.0797	-3.57272	0.533224	1.39075	-0.326672	-29.4282	3.45174	0.312823
0.0213	1.62504	262.758	-46.9919	-2.95138	-0.710966	1.08592	-0.0251286	-79.4797	2.55429	-0.312823
0.0220	0.684229	111.38	-65.6079	-2.95138	-1.30344	0.476283	-0.0251286	-90.4709	1.93297	-0.312823
0.0227	3.16456	-170.301	-76.6329	-2.67178	-1.6293	-0.133359	-0.0251286	-84.6503	1.93297	0
0.0233	-0.855287	-220.991	-51.8718	-2.3611	-1.0072	0.476283	0.879501	-68.193	2.55429	0
0.0240	-16.0794	-100.688	0.90369	-3.8834	-1.6293	0.171462	0.577958	-37.3466	1.93297	0
0.0247	-30.7048	-63.1512	26.5685	-4.47367	-1.0072	0.781104	-0.326672	-17.2255	1.03552	0
0.0253	-27.7113	-85.1503	6.68731	-4.19407	-0.385106	2.00039	-0.326672	-26.6803	1.03552	0
0.0260	-22.494	-39.6907	-3.07255	-4.19407	0.533224	2.30521	0.577958	-22.1007	1.93297	0
0.0267	-31.0469	41.7675	30.1832	-3.26205	2.34026	3.21967	1.50772	-13.5618	3.45174	0
0.0273	-37.7181	115.38	57.6554	-2.3611	2.66612	3.82931	1.50772	-58.4131	3.45174	0
0.0280	-39.5998	265.527	37.5031	-2.95138	2.96236	3.21967	-0.0251286	-97.1779	2.20911	0
0.0287	-41.1393	396.984	49.7029	-8.45027	2.66612	1.69557	-0.929758	-79.1546	2.20911	0
0.0293	-35.922	310.372	110.792	-14.5705	0.207365	1.08592	-1.25643	-28.8077	2.55429	0
0.0300	-14.2833	155.609	93.7126	-13.0482	1.1257	2.91485	-0.0251286	40.1535	3.45174	0
0.0307	9.2371	163.532	23.2248	-9.66189	2.66612	4.43896	0.577958	94.4892	4.34919	0
0.0313	2.22375	125.995	5.51251	-11.2152	1.45155	3.82931	-1.25643	140.552	3.1756	0
0.0320	-21.8953	-73.5354	19.8812	-13.3278	0.207365	2.91485	-1.55797	219.293	2.20911	0
0.0327	-24.9744	-228.914	14.9109	-13.0482	-0.710966	2.30521	-0.628215	280.011	2.55429	0
0.0333	-12.1451	-260.605	-9.48874	-12.4269	0.207365	2.91485	-0.0251286	283.999	3.1756	0
0.0340	-6.58571	-230.76	-20.4234	-11.4949	2.34026	5.0486	1.50772	269.965	3.45174	0
0.0347	-4.19091	-213.914	3.07255	-12.1162	1.45155	4.43896	1.20617	181.769	2.83043	0
0.0353	-1.11187	-159.916	35.9669	-15.7821	-0.710966	2.91485	-0.0251286	3.84102	1.31166	0
0.0360	-9.06604	-34.2294	38.7683	-17.6151	-1.92553	1.69557	-0.929758	-118.244	0.0690348	-0.312823
0.0367	-24.2901	73.5354	16.8086	1.61549	-1.6293	1.69557	-0.628215	-201.536	-0.483243	0
0.0373	-38.0603	127.226	6.14509	35.7894	0.533224	3.82931	0.879501	-292.479	-0.207104	0.312823
0.0380	-46.6131	158.993	-1.53627	44.3328	1.45155	4.74378	1.20617	-294.932	-0.207104	0
0.0387	-32.5864	205.068	-35.0632	24.2013	0.82946	3.21967	-0.326672	-212.527	-0.483243	0
0.0393	0.0855287	256.297	-48.257	8.326	0.533224	3.52449	-0.628215	-85.8912	-0.207104	0
0.0400	17.4478	236.221	-5.15103	6.18237	1.74779	4.43896	-0.628215	40.7739	0.0690348	-0.312823
0.0407	5.30278	149.225	38.7683	6.49304	3.88069	5.65824	0.577958	71.8862	1.03552	0
0.0413	-28.31	46.075	38.4972	6.80371	4.79902	6.5727	1.50772	63.3474	1.93297	0.312823
0.0420	-51.4883	-24.999	-4.24734	7.70466	3.25859	5.65824	-0.326672	79.2137	0.414209	0.312823
0.0427	-21.2966	-4.30751	-39.0394	7.42505	2.66612	5.35342	-1.25643	8.42071	-0.483243	0.312823
0.0433	27.5402	93.6884	-23.767	4.3494	2.66612	5.65824	-0.628215	-102.969	-0.483243	0.312823
0.0440	40.0274	169.07	-17.0797	3.13778	2.96236	6.26788	0.276415	-151.189	-0.207104	0
0.0447	32.7575	116.841	-51.6007	4.0698	3.88069	6.87752	1.80926	-192.081	1.03552	0
0.0453	20.2703	34.4601	-74.7352	2.51644	2.04403	5.35342	0.276415	-186.585	-0.483243	0.312823
0.0460	0.427643	-6.15359	-20.4234	0.994149	-0.0888707	3.21967	-0.628215	-123.12	-2.34718	0.312823
0.0467	-21.5532	-161.763	63.8005	1.92616	0.82946	2.61003	1.50772	-74.9	-2.07104	0.312823
0.0473	-40.7972	-371.446	45.8171	2.51644	1.45155	3.21967	2.71389	-5.02288	-1.44973	0.312823
0.0480	-45.4157	-405.599	3.34365	3.13778	1.1257	4.43896	3.01543	81.0456	-0.828417	0
0.0487	-26.1718	-314.372	39.0394	3.75913	0.82946	5.35342	3.01543	118.894	-0.207104	0
0.0493	-6.58571	-223.991	81.5128	3.44846	-0.0888707	4.74378	2.1108	140.256	-0.483243	0.312823
0.0500	-8.12522	-180.685	90.0075	2.23684	-0.385106	4.13413	0.879501	117.063	-1.10456	0
0.0507	-1.11187	-165.685	41.2083	1.92616	0.82946	4.74378	1.50772	-7.15021	-1.10456	0
0.0513	22.4085	-68.6895	-39.4009	1.61549	0.533224	4.74378	1.80926	-92.3028	-1.44973	0.312823
0.0520	17.1913	40.306	-50.0644	1.30482	-0.385106	4.43896	1.20617	-82.2275	-1.44973	0.312823
0.0527	-7.86864	31.3833	7.04878	0.714545	1.1257	5.0486	0.879501	-67.5725	-1.10456	0.312823
0.0533	-16.4215	23.4606	46.0882	0.403873	2.34026	5.96306	1.50772	-0.118185	-1.44973	0
0.0540	-33.4417	116.534	37.8646	1.30482	2.04403	7.48717	1.80926	87.7526	-2.34718	-1.56411
0.0547	-58.8437	125.072	35.9669	1.61549	1.45155	8.09681	1.20617	97.5325	-3.24463	-2.50258
0.0553	-42.5933	-75.6892	57.6554	0.403873	1.74779	7.48717	0.276415	132.929	-3.86595	-1.87694
0.0560	-1.71057	-268.835	22.8634	0.403873	4.79902	9.01127	0.879501	230.284	-2.62332	-0.938468
0.0567	4.96066	-253.297	-42.7445	-0.21747	5.71735	9.31609	1.50772	237.287	-2.34718	-1.56411
0.0573	-17.8755	-99.5343	-31.0869	-0.21747	5.71735	9.31609	2.71389	95.0801	-2.07104	-1.25129
0.0580	-26.1718	27.4604	18.8871	-1.73976	5.71735	8.09681	2.1108	-49.8742	-2.07104	-0.312823
0.0587	-17.6189	76.9199	49.4318	-2.95138	3.25859	6.87752	-0.0251286	-85.8912	-3.58981	-2.18976
0.0593	-9.40815	100.996	68.6804	-0.21747	3.88069	8.40163	2.1108	-44.9991	-2.34718	-1.56411
0.0600	6.50018	125.379	32.6232	-0.528142	5.39149	8.09681	3.94519	-18.4369	-1.10456	0.625646
0.0607	23.2638	150.763	-32.3521	-2.3611	3.88069	5.65824	2.41235	-70.3203	-2.07104	0.312823
0.0613	17.79	55.2285	-71.1204	-2.67178	2.66612	3.82931	1.50772	-95.0506	-3.24463	0
0.0620	1.02634	-117.534	-90.6401	-2.95138	2.34026	2.91485	0.577958	-56.2858	-5.38471	0.312823
0.0627	-18.2176	-70.5355	-32.9847	-2.3611	3.25859	4.13413	0.879501	-32.4714	-5.72989	0.312823
0.0633	-32.2443	96.996	18.8871	-1.11842	4.17692	5.35342	1.50772	53.5971	-3.86595	0.312823
0.0640	-12.1451	151.071	-33.2558	-0.528142	2.96236	4.74378	1.20617	218.082	-3.58981	0.312823
0.0647	20.2703	108.919	-56.4806	-0.21747	0.533224	2.61003	-0.0251286	301.077	-4.48726	0
0.0653	40.0274	-42.4598	-32.3521	-0.21747	-1.6293	0.781104	-0.628215	244.023	-5.38471	0
0.0660	63.5478	-88.2271	-36.3283	-0.21747	-2.518	0.781104	-0.929758	126.517	-6.00602	0
0.0667	80.3114	16.7685	-28.647	-0.21747	-1.92553	1.39075	-0.326672	61.22	-5.72989	0
0.0673	82.7918	-97.9959	5.51251	-0.21747	-1.30344	1.39075	-0.326672	100.28	-5.72989	0.312823
0.0680	70.5612	-275.604	34.521	-0.838813	-2.22177	0.781104	-1.25643	99.3643	-5.72989	0
0.0687	44.9881	-223.991	15.2724	-1.42909	-1.92553	1.08592	-1.25643	49.9333	-5.72989	0.312823
0.0693	27.8823	-39.383	-21.6886	-1.73976	-1.0072	2.00039	-0.0251286	9.04118	-5.10857	0
0.0700	23.2638	146.763	-34.521	0.403873	-1.0072	3.21967	1.50772	-149.357	-4.14209	-2.18976
0.0707	22.0664	210.222	-67.4153	7.42505	-0.0888707	4.43896	3.3421	-288.52	-3.24463	-1.87694
0.0713	11.974	164.762	-85.7602	12.6133	0.533224	3.52449	3.01543	-255.251	-2.96849	0.312823
0.0720	-19.415	81.4582	-41.4794	13.2035	-1.30344	0.781104	-0.0251286	-132.87	-4.7634	0.312823
0.0727	-50.2909	1.23072	35.4246	13.2035	-1.30344	0.476283	-1.55797	42.2808	-5.72989	0
0.0733	-50.5474	-89.4578	110.16	14.4462	0.207365	1.69557	-0.929758	129.265	-4.48726	0.312823
0.0740	-17.2768	-222.145	114.136	16.2481	1.45155	3.21967	-0.0251286	120.106	-3.24463	0
0.0747	35.8365	-229.529	33.8884	15.0365	2.04403	3.21967	0.577958	215.334	-2.34718	-0.312823
0.0753	80.3114	-71.997	-49.4318	14.4462	0.82946	1.39075	-0.326672	327.314	-2.62332	0
0.0760	104.174	10.9995	-80.6091	7.42505	0.207365	1.39075	-0.628215	379.198	-2.96849	0.312823
0.0767	102.292	-35.9985	-68.319	-19.448	1.74779	2.91485	0.276415	360.909	-2.07104	0
0.0773	72.6994	-88.8425	-32.9847	-35.603	2.96236	3.21967	0.879501	173.526	-1.72587	0
0.0780	47.1263	-112.918	-1.53627	-20.6597	3.25859	2.91485	1.50772	11.1685	-1.44973	0
0.0787	39.1721	-101.303	-14.3687	-7.54932	2.66612	4.13413	3.01543	-94.1346	-0.483243	0
0.0793	26.0007	-19.23	-42.1119	-8.76094	1.45155	9.94478	4.24673	-236.016	-0.828417	0.312823
0.0800	7.09888	43.3059	-51.6007	-9.07161	1.1257	18.175	6.68421	-200.62	-0.207104	0
0.0807	2.82245	21.3837	-90.369	-6.30663	1.45155	21.2232	8.5186	-96.8825	0.690348	0
0.0813	4.36196	60.3821	-154.079	-6.02703	0.207365	18.4798	7.28729	-149.061	-0.828417	0.312823
0.0820	-9.06604	110.765	-99.2252	-6.61731	-3.1401	15.4316	5.77958	-188.122	-2.62332	0.312823
0.0827	-17.0202	102.227	58.0169	-4.78434	-5.27299	14.2123	3.94519	-106.633	-3.24463	0
0.0833	-0.855287	286.219	89.3749	-2.05043	-4.35466	13.6026	0.577958	-5.31834	-2.34718	0
0.0840	24.8033	580.438	70.4878	-0.838813	-3.43633	12.993	-1.55797	25.4985	-1.10456	0.312823
0.0847	61.7517	650.281	122.721	-2.3611	-4.68052	7.18234	-3.39236	58.7677	-2.07104	0.312823
0.0853	71.8441	548.67	111.425	-5.09501	-6.19132	0.781104	-4.90008	189.067	-4.14209	0
0.0860	17.4478	386.369	81.1514	-4.78434	-5.27299	-2.26711	-2.16106	160.998	-4.48726	0
0.0867	-18.5597	184.915	95.7911	-2.95138	-6.48756	-17.2224	0.879501	-20.8893	-3.86595	0.312823
0.0873	9.8358	-14.0763	45.8171	-2.67178	-8.94632	-40.7317	-1.55797	13.2959	-3.86595	0.312823
0.0880	43.4486	-237.144	-78.7114	-5.09501	-12.2938	-37.6644	-3.6939	165.903	-5.38471	0.312823
0.0887	51.3172	-353.985	-129.68	-6.92798	-15.345	2.00039	-3.6939	169.241	-7.24865	0.625646
0.0893	40.3695	-250.528	-68.0479	-3.8834	-7.40589	37.3977	-3.06569	61.5155	-6.00602	0.625646
0.0900	15.9939	-97.9959	-43.9193	-0.838813	3.25859	39.5315	-0.628215	-36.1352	-4.14209	0
0.0907	11.7174	59.2283	-65.3368	-1.73976	6.93191	24.881	3.64365	-153.02	-5.10857	0
0.0913	35.8365	203.838	-60.9991	-2.3611	6.63568	8.70645	8.21705	-302.555	-6.62734	0.312823
0.0920	25.1454	124.841	-77.1751	-2.67178	-0.0888707	-17.2224	12.7905	-324.537	-7.52479	0
0.0927	-17.2768	31.3833	-90.0075	-4.19407	-13.8342	-44.9992	14.6248	-210.399	-8.42224	0
0.0933	-36.2642	216.991	-38.4068	-4.19407	-30.3049	-51.7053	14.9264	-145.988	-8.42224	0
0.0940	-30.1061	244.451	10.3924	-1.73976	-38.244	-48.0474	18.2936	-93.5142	-8.1461	0.312823
0.0947	-17.0202	-85.1503	21.9597	-2.67178	-41.5915	-52.6197	25.3045	128.054	-10.2862	0.312823
0.0953	-14.882	-340.601	95.52	-7.54932	-51.6635	-66.3557	29.5764	337.094	-13.5998	0
0.0960	-9.40815	-491.672	201.071	-9.07161	-57.4697	-82.8351	30.481	256.226	-14.5663	0
0.0967	12.5727	-570.976	206.312	-9.66189	-57.7659	-84.3592	35.0795	192.731	-14.8425	0
0.0973	10.4345	-482.518	118.383	-14.8501	-54.7147	-73.9953	42.6935	237.907	-16.3612	0.312823
0.0980	-14.5399	-318.294	23.4959	-18.516	-48.316	-65.1364	46.0607	95.0801	-16.9826	-0.312823
0.0987	-34.9812	-82.0735	-68.319	-17.6151	-49.8268	-36.75	39.3514	-38.883	-16.3612	0
0.0993	-53.0278	86.9964	-149.832	-11.8055	-51.9597	17.8701	19.1983	-40.4194	-13.0476	0.312823
0.1000	-59.4424	60.6898	-176.671	-4.19407	-41.8877	80.1298	-2.76415	-27.8917	-6.90348	-1.56411
0.1007	-72.8704	21.6914	-133.927	2.51644	-27.8461	134.445	-11.6094	-73.3636	-1.44973	-2.50258
0.1013	-87.4958	105.919	58.0169	5.87169	-22.662	137.188	-17.7157	-73.3636	2.83043	-0.312823
0.1020	-38.4024	123.303	243.816	6.49304	-17.1817	81.9587	-32.6672	162.239	4.69436	0.625646
0.1027	44.9881	-143.456	190.407	10.4696	-5.27299	71.5758	-40.9094	173.821	6.48927	0
0.1033	82.7918	-370.523	71.1204	13.8249	2.66612	134.14	-41.5376	-187.206	7.73189	0
0.1040	91.6012	-236.221	30.8158	12.8929	11.4939	179.616	-37.8688	-273.865	6.21313	0
0.1047	88.8643	-42.4598	95.2489	9.53762	29.2088	182.359	-23.8219	-168.591	3.72788	0
0.1053	48.5803	85.1503	126.968	3.13778	45.3833	159.783	-8.26731	-299.186	-0.207104	0
0.1060	13.8556	313.987	-85.7602	-2.67178	47.22	113.089	1.50772	-393.498	-4.7634	-0.312823
0.1067	29.4219	600.591	-259.359	-3.8834	52.7003	56.3157	7.28729	-228.098	-6.28216	0
0.1073	39.4287	884.425	-167.544	-5.71636	68.2823	2.30521	12.1874	-0.443195	-7.52479	0.625646
0.1080	4.96066	1141.95	0.271107	-12.7375	61.5578	-30.9584	18.8967	149.091	-11.5288	0.312823
0.1087	-14.5399	1104.72	97.0563	-16.9937	33.4746	-51.7053	25.3045	167.705	-15.1876	0
0.1093	14.7109	680.203	80.8802	-10.9046	2.66612	-101.753	28.6717	64.5588	-13.3237	0
0.1100	15.3096	339.986	-8.85616	-1.11842	-29.3866	-158.526	29.2748	10.548	-7.86996	0.312823
0.1107	-39.5998	142.533	-87.929	2.23684	-39.7548	-152.106	25.003	49.3128	-4.14209	0.312823
0.1113	-59.1003	-275.296	-86.6639	2.82711	-35.7853	-90.4747	10.353	149.091	-2.34718	0
0.1120	-29.1653	-697.356	10.3924	9.53762	-41.5915	-51.7053	-16.5095	275.756	2.55429	0
0.1127	-0.855287	-780.968	103.472	16.2481	-34.8669	-30.6536	-38.1703	261.396	7.11058	0
0.1133	7.44099	-678.433	119.92	18.3918	-20.5291	10.8592	-39.4016	189.983	8.97452	0.312823
0.1140	-9.40815	-512.979	162.664	20.2247	-23.5804	39.5315	-37.2657	132.929	10.4933	0.312823
0.1147	-11.2043	-286.296	186.793	19.6344	-32.1416	54.1819	-41.8391	28.2463	10.4933	0
0.1153	32.7575	-180.993	119.287	15.3472	-26.6316	56.6205	-30.5313	9.95712	7.73189	0
0.1160	69.0216	-200.838	88.2001	10.7803	-6.19132	18.4798	-6.43292	20.0029	3.45174	0
0.1167	64.4886	-274.066	57.3843	6.80371	11.8198	-35.8355	2.71389	123.149	0.414209	0
0.1173	44.9881	-410.137	-27.2011	2.51644	31.9638	-77.3483	3.94519	236.991	-2.34718	0.312823
0.1180	13.1714	-474.288	-72.6567	-2.67178	53.0262	-106.954	7.61397	-70.3203	-5.10857	0
0.1187	-9.40815	-375.369	-63.439	-5.40569	53.9149	-119.757	0.879501	-428.599	-5.38471	0
0.1193	-2.9935	-230.452	-7.95247	-2.95138	47.22	-107.869	-17.4141	-407.237	-2.07104	0
0.1200	-3.84879	-125.456	169.08	2.23684	38.6587	-63.9171	-37.2657	-188.417	3.45174	0
0.1207	-11.5464	86.381	297.224	9.53762	26.4538	-17.832	-45.5079	48.3969	9.25066	0.312823
0.1213	-9.06604	354.908	114.769	15.3472	18.8406	-4.40085	-43.9751	194.563	12.6334	0.312823
0.1220	-12.7438	389.368	-163.568	16.2481	12.4123	-1.04782	-40.9094	197.015	12.012	0
0.1227	-27.9679	382.676	-237.128	15.0365	10.6052	11.1641	-35.1298	84.4139	10.7694	0
0.1233	-31.9877	539.208	-248.063	13.8249	14.2489	8.70645	-30.8579	43.5218	9.25066	0
0.1240	-3.84879	605.436	-255.112	11.3706	10.2794	-8.38258	-30.8579	38.0261	5.86795	0.312823
0.1247	15.6517	339.678	-70.4878	9.25801	2.34026	-14.1742	-30.5313	-100.842	3.1756	0.312823
0.1253	0.0855287	-317.987	91.8149	8.01533	-0.0888707	-10.8211	-27.7922	-178.342	1.93297	0.312823
0.1260	-21.5532	-678.741	-15.9049	7.42505	2.34026	-8.6874	-22.9173	-138.07	1.31166	0.312823
0.1267	-39.5998	-334.448	-152.904	7.42505	7.22815	-6.22978	-17.1126	-115.497	1.65683	0.312823
0.1273	-63.7189	54.9208	-106.184	7.42505	10.6052	-5.01049	-13.7453	-126.458	1.03552	0
0.1280	-93.5684	252.374	7.31989	6.49304	7.85024	-7.46811	-12.5392	-37.3466	-1.44973	0
0.1287	-90.8315	353.062	59.1917	5.87169	4.79902	-9.90668	-10.4032	119.81	-3.24463	0.312823
0.1293	-58.5016	148.302	107.449	4.66007	5.39149	-10.2115	-9.47348	89.5845	-4.14209	0
0.1300	-62.1793	-93.0731	144.048	4.0698	9.06481	-7.16329	-7.96577	4.13649	-4.7634	-2.50258
0.1307	-74.6665	196.53	107.991	5.28142	12.4123	-1.65746	-4.90008	63.9678	-2.96849	-2.18976
0.1313	-49.9487	653.665	107.087	2.51644	10.9015	-0.43818	-3.6939	184.192	-2.34718	0.625646
0.1320	-40.1985	692.433	138.536	-0.838813	8.44272	-1.04782	-3.06569	253.774	-4.14209	0.312823
0.1327	-51.4883	481.519	174.864	-1.42909	6.63568	-0.43818	0.577958	204.342	-5.10857	0
0.1333	-28.9087	341.14	329.937	-1.11842	4.50278	0.781104	5.15136	7.50477	-4.48726	0.312823
0.1340	32.1588	127.533	410.456	-0.838813	5.71735	3.52449	8.5186	-280.277	-3.24463	0
0.1347	79.114	-288.68	296.049	-1.11842	7.22815	4.74378	9.12168	-460.332	-3.86595	0
0.1353	76.9758	-555.746	130.945	-2.3611	3.88069	3.21967	7.61397	-361.765	-6.28216	0
0.1360	55.5936	-625.282	-69.8552	-2.3611	-0.710966	1.69557	7.91551	-230.225	-7.24865	0
0.1367	40.9682	-729.97	-147.121	-1.11842	-1.6293	2.30521	10.0514	-280.897	-6.00602	0.312823
0.1373	18.7308	-761.43	-7.04878	0.403873	0.82946	4.43896	14.3233	-308.05	-4.48726	0.312823
0.1380	-15.8228	-516.056	24.3996	1.92616	2.34026	7.48717	18.5952	-269.61	-2.96849	0
0.1387	-36.5207	-115.688	-187.064	1.30482	3.25859	8.70645	18.2936	-201.536	-2.62332	0.312823
0.1393	-56.9621	177.916	-338.432	-0.21747	4.17692	8.40163	14.6248	4.75696	-3.24463	0.312823
0.1400	-90.8315	245.682	-256.919	-0.528142	1.1257	7.79199	9.44835	247.687	-3.86595	0.312823
0.1407	-87.1537	81.1505	-105.551	0.403873	-2.22177	7.48717	4.54828	223.873	-3.86595	0.312823
0.1413	-47.2118	-79.0736	-21.9597	1.92616	0.533224	9.62091	2.71389	-39.1784	-2.96849	0
0.1420	-1.11187	-131.225	-49.7029	0.714545	2.34026	10.5544	2.1108	41.0694	-2.96849	0
0.1427	47.3829	-285.68	-213.903	-0.838813	0.82946	9.01127	-0.0251286	578.488	-4.7634	0.312823
0.1433	40.7116	-457.75	-308.249	-0.21747	0.533224	7.48717	-0.628215	766.462	-5.38471	0
0.1440	-8.46734	-284.142	-284.12	0.403873	0.82946	7.48717	-0.326672	388.653	-5.38471	0
0.1447	0.427643	46.075	-287.825	0.714545	-0.0888707	6.5727	-2.4626	-6.85475	-5.10857	0
0.1453	41.909	151.071	-267.944	-0.21747	-1.0072	5.96306	-4.59853	-210.399	-4.7634	0
0.1460	42.1656	137.302	-227.368	-2.05043	-3.1401	5.96306	-5.20162	-167.675	-6.00602	0
0.1467	33.3562	97.3037	-184.353	-2.05043	-4.68052	6.26788	-3.39236	-59.9495	-6.28216	0.312823
0.1473	54.1396	53.6901	-83.5913	-0.21747	-3.76219	7.48717	-3.39236	-93.8096	-4.7634	0
0.1480	69.3638	-88.5348	17.3508	0.994149	-1.30344	9.62091	-4.29699	-82.2275	-2.96849	0
0.1487	61.7517	-222.76	66.2405	-0.21747	-1.0072	8.40163	-4.90008	-53.2425	-2.62332	0.312823
0.1493	42.5078	-70.2279	132.752	-0.838813	-4.05843	4.74378	-8.26731	-82.5229	-5.72989	-1.56411
0.1500	3.76326	-12.8456	253.304	0.403873	-4.97676	3.82931	-11.9361	-180.794	-7.52479	-1.87694
0.1507	-26.7705	-152.609	265.775	-3.26205	-2.518	4.13413	-14.3736	-329.708	-7.24865	0
0.1513	-33.1851	-207.53	127.601	-6.92798	-0.710966	2.91485	-16.2079	-331.244	-7.52479	0
0.1520	-57.3042	-265.835	30.1832	-6.30663	0.207365	2.61003	-13.1423	-278.74	-6.90348	0
0.1527	-91.7723	-199.915	3.70513	-4.47367	2.04403	5.65824	-3.06569	-207.356	-4.48726	0.312823
0.1533	-98.4435	142.84	46.0882	-2.3611	2.66612	7.18234	6.98575	29.1622	-2.62332	0.312823
0.1540	-108.279	477.596	227.007	-1.42909	0.207365	4.43896	10.9561	239.444	-3.86595	0
0.1547	-97.8448	454.981	486.727	-2.05043	-4.05843	0.171462	11.8858	305.361	-6.28216	0
0.1553	-27.3692	245.682	546.552	-1.73976	-6.81342	-3.48639	13.092	397.812	-7.52479	0
0.1560	7.44099	234.375	164.2	-1.11842	-6.48756	-4.09603	12.1874	477.764	-8.1461	0
0.1567	-2.3948	258.451	-281.68	-2.05043	-4.68052	-1.65746	10.353	331.894	-6.62734	-0.312823
0.1573	34.5536	195.3	-280.415	-3.26205	-3.1401	3.52449	10.0514	139.341	-3.86595	0
0.1580	81.5944	280.45	-7.31989	-5.40569	-2.84386	5.65824	7.61397	131.097	-3.58981	0
0.1587	104.174	188.3	204.776	-7.54932	-1.30344	5.0486	2.1108	118.894	-4.48726	0.312823
0.1593	90.4038	-71.7663	237.761	-6.02703	5.71735	8.09681	3.01543	23.9916	-1.44973	0.312823
0.1600	13.5135	48.5364	125.432	-0.528142	11.1977	11.4689	5.77958	-6.23428	1.03552	-1.56411
0.1607	-41.738	238.605	99.4963	4.3494	9.6869	11.1641	5.77958	16.3391	-0.207104	-2.8154
0.1613	-23.6914	442.52	85.4891	0.714545	7.85024	8.70645	6.68421	-107.549	-0.828417	-0.312823
0.1620	3.76326	925.577	-104.647	-5.09501	5.39149	5.65824	7.91551	-382.507	-1.72587	0.312823
0.1627	-14.2833	1221.95	-208.12	-4.19407	1.74779	3.82931	9.44835	-511.92	-3.24463	-0.312823
0.1633	-34.1259	1007.34	-37.232	-2.05043	-0.0888707	4.13413	14.3233	-362.681	-2.62332	0
0.1640	27.8823	688.125	179.744	-1.11842	-1.92553	4.13413	18.2936	-197.576	-2.07104	0.312823
0.1647	101.437	543.208	150.735	-0.838813	-4.97676	2.30521	18.5952	-190.544	-3.86595	0
0.1653	99.5554	56.1515	-170.255	-1.42909	-6.48756	0.171462	16.1577	-121.583	-5.38471	0.312823
0.1660	95.0224	-757.122	-521.881	-1.11842	-7.10965	-1.96229	13.3935	-72.4476	-5.72989	0.312823
0.1667	91.9433	-1275.02	-441.001	-0.21747	-7.73175	-3.18157	11.8858	-319.041	-6.28216	0.312823
0.1673	24.4612	-1398.33	-45.1845	0.0932015	-8.62046	-3.48639	12.4889	-476.819	-6.28216	0.312823
0.1680	-28.31	-1189.87	2.71107	-1.73976	-10.1609	-3.48639	11.5843	-200.324	-6.90348	0
0.1687	-22.1519	-775.122	-168.177	-3.57272	-10.1609	-1.96229	10.353	126.517	-6.90348	0
0.1693	-21.8953	-353.139	-41.4794	-3.8834	-6.81342	0.171462	10.353	183.601	-6.00602	0
0.1700	-13.9412	-2.15376	269.751	-4.78434	-3.76219	2.00039	10.0514	103.619	-4.7634	0
0.1707	18.3887	238.298	360.392	-4.19407	-2.22177	4.13413	10.353	-1.95006	-2.34718	0
0.1713	12.5727	287.142	191.311	-3.8834	-2.518	4.13413	9.12168	-64.8247	-2.07104	0
0.1720	-51.8304	158.686	86.6639	-5.40569	-3.43633	2.91485	4.84982	42.2808	-3.86595	0
0.1727	-114.01	-75.6892	53.4081	-5.09501	-0.0888707	4.13413	3.94519	196.72	-3.24463	0
0.1733	-108.536	-430.29	-86.0313	-4.19407	3.58445	5.96306	4.24673	153.375	-1.72587	0
0.1740	-36.8629	-597.514	-153.808	-2.3611	8.14648	8.40163	4.24673	-67.5725	-0.207104	0.312823
0.1747	37.6326	-423.598	13.1035	-0.21747	14.2489	11.1641	4.54828	-249.164	1.03552	0
0.1753	46.7842	-142.84	228.272	-0.838813	15.7894	9.31609	2.41235	-320.873	0.414209	0
0.1760	-24.6323	135.456	286.831	-1.42909	10.6052	4.74378	-0.0251286	-319.041	-1.44973	0
0.1767	-104.259	323.448	107.087	-1.11842	2.34026	-1.35264	-2.16106	-145.073	-4.14209	0
0.1773	-135.734	474.211	-225.561	-0.21747	-4.05843	-5.92496	-3.99545	128.97	-6.90348	0
0.1780	-141.807	719.278	-249.599	1.92616	-5.56923	-5.31532	-2.76415	280.336	-6.90348	0
0.1787	-110.075	623.128	171.159	1.61549	-6.81342	-5.01049	-2.4626	278.799	-6.28216	0.312823
0.1793	-28.31	-34.7678	364.097	0.994149	-7.40589	-6.5346	-3.06569	126.813	-6.62734	0.312823
0.1800	39.1721	-450.443	110.16	1.30482	-5.56923	-6.85847	-3.6939	38.6171	-6.00602	0
0.1807	55.9358	-524.286	-80.2477	0.714545	-4.05843	-6.85847	-5.52829	164.662	-5.38471	0
0.1813	53.1988	-549.977	-123.625	-0.21747	-2.84386	-6.22978	-6.13138	214.093	-4.14209	0.312823
0.1820	70.3046	-265.22	-154.441	-2.95138	-1.92553	-5.01049	-6.13138	136.593	-3.58981	0.312823
0.1827	88.6077	30.8449	-70.7589	-6.02703	1.45155	-2.26711	-5.82984	29.7827	-3.58981	0
0.1833	71.1599	48.8441	6.68731	-6.61731	6.93191	1.69557	-2.76415	-79.4797	-2.07104	-0.312823
0.1840	40.3695	33.8448	-73.5604	-7.23865	9.36105	3.82931	-0.0251286	-122.499	-1.10456	0
0.1847	14.7109	154.378	-189.233	-6.02703	10.9015	5.96306	3.3421	-165.844	-0.207104	0
0.1853	-5.73042	517.286	-239.839	-4.47367	11.4939	5.96306	6.08112	-198.788	0.0690348	0
0.1860	-9.40815	761.122	-254.841	-5.71636	7.55401	1.69557	5.47803	-154.852	-2.62332	0
0.1867	-29.8495	684.202	-267.944	-6.61731	3.25859	-1.65746	6.08112	5.6729	-4.7634	0
0.1873	-87.1537	891.732	-138.897	-6.61731	0.533224	-3.48639	7.61397	294.666	-5.38471	0.312823
0.1880	-110.418	1363.79	165.104	-5.71636	-4.05843	-6.22978	8.82014	588.859	-7.52479	0
0.1887	-93.3118	1234.1	382.08	-4.19407	-8.94632	-8.38258	10.9561	648.69	-9.38873	0.312823
0.1893	-56.9621	140.686	390.936	-2.3611	-12.2938	-10.2115	12.1874	328.851	-9.66487	-0.312823
0.1900	8.29628	-1188.34	263.064	3.44846	-12.59	-8.38258	10.9561	-72.7726	-10.2862	-2.50258
0.1907	28.481	-1813.69	13.1035	8.94734	-6.81342	-5.01049	9.44835	-189.953	-8.42224	-1.87694
0.1913	1.28293	-1640.01	-248.063	5.87169	-0.385106	-4.40085	7.28729	-222.898	-6.00602	0.625646
0.1920	-37.7181	-1191.1	-228.272	3.75913	3.58445	-1.96229	3.3421	-407.828	-3.58981	0.312823
0.1927	-86.555	-797.121	-46.7208	7.42505	7.85024	1.39075	-1.85952	-478.326	-1.10456	-0.312823
0.1933	-88.6932	-570.361	-74.1929	8.63667	9.98314	0.171462	-7.03601	-302.555	-0.483243	0
0.1940	-62.4359	-473.057	-135.463	8.326	10.2794	-1.96229	-6.43292	-226.266	-0.207104	0
0.1947	-43.2775	-397.676	44.2808	9.25801	11.1977	-3.48639	-0.929758	-196.66	1.03552	0
0.1953	10.4345	-297.218	243.183	9.84829	11.4939	-4.09603	3.64365	136.888	2.20911	0
0.1960	73.2981	-143.456	173.328	9.84829	10.9015	-4.40085	5.15136	304.12	2.83043	0
0.1967	90.4038	21.076	100.4	8.01533	9.36105	-5.31532	4.54828	43.8172	1.03552	0
0.1973	63.8899	210.53	147.121	6.49304	9.36105	-5.62014	-3.39236	-106.012	0.690348	0
0.1980	30.6193	367.446	-34.7921	5.87169	10.6052	-5.01049	-21.0829	-36.4306	2.83043	0.312823
0.1987	22.6651	326.833	-263.064	6.49304	11.1977	-3.48639	-35.7329	35.8693	4.07305	0.312823
0.1993	7.69758	201.684	-239.839	8.01533	12.7381	-1.65746	-45.1812	70.9703	4.9705	-0.312823
0.2000	-5.38831	224.606	-113.232	7.70466	10.2794	-2.87675	-51.2875	50.8493	4.69436	-0.312823
0.2007	53.7975	197.146	69.313	6.49304	2.66612	-4.09603	-53.4234	-57.4972	2.55429	0.312823
0.2013	121.878	-13.461	197.727	6.18237	-2.518	-8.07776	-55.8609	-141.113	1.65683	0.312823
0.2020	107.167	2.46144	161.399	4.3494	-1.30344	-24.2523	-52.8203	-134.111	0.690348	0.312823
0.2027	67.8242	36.9215	137.361	3.75913	2.66612	-42.2558	-42.7438	-102.674	0.414209	0.312823
0.2033	43.7052	-330.217	140.343	2.23684	6.01358	-49.5715	-37.2657	-33.3874	-2.07104	0.312823
0.2040	1.62504	-507.825	54.9443	-2.3611	4.50278	-49.5715	-26.2594	-56.8767	-6.90348	0.312823
0.2047	-56.9621	-304.295	-117.841	-5.40569	-6.48756	-55.6679	2.41235	-158.812	-9.66487	0
0.2053	-108.536	-134.917	-247.159	-6.92798	-19.3146	-64.8316	30.481	-62.9928	-11.1836	0
0.2060	-137.872	88.1502	-221.585	-6.92798	-33.0599	-58.7352	38.4216	105.776	-12.4263	0
0.2067	-154.294	292.065	-139.168	-4.19407	-39.7548	-42.2558	26.8373	143.004	-10.5623	0
0.2073	-141.807	289.603	-93.3512	-3.26205	-8.62046	-27.9102	15.8561	186.94	-7.52479	0
0.2080	-80.8246	309.141	-134.288	-6.61731	39.5771	-24.5571	11.2576	270.881	-7.86996	0
0.2087	-24.9744	298.142	-269.209	-9.97256	53.9149	-26.9957	18.5952	313.9	-9.66487	0
0.2093	17.4478	-18.3069	-361.928	-11.8055	57.5882	-25.1668	32.0138	260.185	-8.42224	0
0.2100	80.0548	-266.758	-332.648	-12.7375	81.4055	-25.4716	7.91551	-50.4947	-7.24865	0.312823
0.2107	114.266	-144.071	-292.344	-9.38228	87.508	-11.7356	-54.6547	-499.392	-5.38471	0.312823
0.2113	83.9892	-42.4598	-273.457	-5.09501	59.4249	26.729	-108.983	-664.793	-1.44973	0
0.2120	39.1721	-57.9976	-166.008	-4.47367	33.1784	55.4012	-129.412	-401.742	-0.207104	0.312823
0.2127	16.2504	-26.5374	-60.0954	-3.57272	21.566	63.3456	-118.13	-47.1264	-1.44973	0.312823
0.2133	5.55936	18.6146	-45.4556	0.994149	11.4939	57.8398	-77.2453	114.61	-0.207104	0
0.2140	-10.2634	55.8438	14.6398	5.28142	-3.76219	43.818	-24.7517	219.293	2.55429	0
0.2147	-11.5464	75.0738	124.8	4.66007	-8.94632	41.97	6.38266	232.737	2.20911	0.312823
0.2153	8.03969	51.2286	154.441	2.82711	0.533224	50.5241	32.3154	105.155	-0.207104	0
0.2160	10.1779	24.3836	129.408	2.23684	16.3818	32.2158	63.7513	68.2225	-2.62332	0
0.2167	15.053	42.9982	112.329	1.30482	48.7308	-0.43818	79.331	81.0456	-2.96849	0.312823
0.2173	39.1721	82.0735	60.728	-5.71636	73.4664	4.13413	89.7091	14.5073	-6.62734	0.312823
0.2180	41.5669	95.5345	-58.5591	-12.4269	63.9869	26.4242	101.896	-61.4564	-10.9075	0
0.2187	22.0664	79.3044	-135.192	-7.54932	46.3016	54.1819	118.079	-130.122	-6.62734	0.312823
0.2193	9.57921	66.228	-36.3283	1.61549	18.8406	131.397	127.226	-167.971	3.1756	0.312823
0.2200	16.5926	65.6127	89.7364	10.4696	-24.2024	201.887	107.098	-120.963	9.25066	-1.56411
0.2207	39.1721	55.2285	65.3368	14.4462	-43.4281	209.221	86.3419	-99.9257	8.35321	-2.50258
0.2213	57.1332	33.8448	28.1048	3.75913	-37.0295	177.787	92.1466	-189.628	1.31166	-0.312823
0.2220	45.2447	31.9987	113.865	-7.54932	-27.5499	128.349	90.9153	-253.419	-5.38471	0.625646
0.2227	-0.855287	46.075	162.393	-7.23865	-12.2938	84.7021	63.1482	-185.078	-6.90348	0
0.2233	-27.1126	57.0746	65.879	-4.78434	0.207365	51.7434	37.517	-49.2537	-5.72989	0
0.2240	-13.3425	65.9203	-14.9109	-2.05043	10.2794	20.3087	16.7608	18.7915	-2.07104	0.312823
0.2247	-7.26994	61.3052	-23.2248	1.92616	13.3306	-2.87675	-1.25643	3.22055	1.93297	0
0.2253	-3.25009	46.9981	-31.0869	0.403873	-7.73175	-26.6909	-7.66422	26.7394	3.45174	0
0.2260	17.79	37.8446	-33.5269	0.714545	-11.3754	-67.2702	-12.8407	76.7909	7.73189	0.312823
0.2267	19.3295	35.6908	-20.7849	6.49304	17.626	-107.869	-18.6454	51.1447	12.6334	0.312823
0.2273	-14.2833	41.7675	-4.60882	9.25801	24.6172	-116.404	-28.722	5.05242	12.9095	0
0.2280	-44.1328	45.152	14.6398	8.94734	13.6565	-83.1399	-47.6438	-3.191	11.1146	0
0.2287	-45.4157	50.921	34.521	8.63667	17.3002	-50.7908	-55.8609	9.33664	10.4933	0
0.2293	-36.5207	64.382	32.081	7.70466	17.626	-51.7053	-49.7798	44.7332	9.5268	0.312823
0.2300	-31.6456	67.1511	14.0072	6.49304	5.09525	-58.4304	-40.6078	81.3411	8.00803	0
0.2307	-23.4349	61.9205	12.8324	6.18237	-2.22177	-48.9619	-28.0938	97.5325	7.11058	0
0.2313	-14.5399	47.9211	15.5435	4.66007	-1.92553	-31.568	-18.947	114.61	6.48927	0
0.2320	-14.882	20.153	-3.70513	4.0698	-0.385106	-21.4899	-10.4032	124.981	5.59182	0.312823
0.2327	-19.415	17.3839	-13.465	5.28142	1.1257	-21.4899	-3.39236	102.703	6.48927	0
0.2333	-13.0004	34.7678	22.3211	5.87169	2.34026	-23.9475	-49.7798	44.4377	7.45575	0.312823
0.2340	-1.45399	65.9203	62.2642	5.59209	4.50278	-23.9475	-117.828	-28.2168	7.45575	0.312823
0.2347	10.4345	124.226	58.288	5.59209	4.50278	-21.4899	-146.5	-73.0681	6.83444	0
0.2353	28.1389	131.841	44.823	4.97075	2.66612	-18.1368	-170.925	-88.9345	6.83444	0
0.2360	31.8167	72.6124	70.7589	4.97075	2.34026	-14.1742	-180.373	-88.9345	7.11058	0.312823
0.2367	10.4345	25.3066	107.449	5.28142	2.34026	-10.8211	-164.818	-49.2537	7.73189	0.312823
0.2373	-5.38831	16.1532	95.2489	5.28142	2.66612	-8.38258	-150.772	2.62962	7.73189	0.312823
0.2380	-2.3948	30.2295	40.9372	4.97075	1.74779	-8.6874	-132.176	25.203	7.11058	0
0.2387	-0.513172	36.9215	-2.43996	4.0698	0.533224	-9.60186	-114.461	27.9508	6.21313	0.312823
0.2393	2.22375	29.6142	-14.3687	2.82711	-0.0888707	-8.6874	-95.2374	30.6986	5.31568	0.312823
0.2400	3.16456	32.9217	30.5447	2.82711	-0.0888707	-8.6874	-62.5953	59.0631	4.07305	0.312823
0.2407	-6.92782	47.9211	94.2549	2.82711	-0.0888707	-7.46811	-27.1891	75.2545	3.45174	0
0.2413	-15.1386	53.0747	69.8552	2.23684	-0.0888707	-3.79121	12.1874	61.22	2.55429	0
0.2420	-14.5399	50.921	0.632583	0.994149	-0.0888707	-2.26711	61.9169	68.843	0.414209	0
0.2427	1.28293	46.9981	-25.6648	-0.21747	0.207365	-3.48639	98.2528	70.3794	-2.34718	0
0.2433	20.869	43.3059	-11.9287	-1.73976	0.82946	-2.26711	93.3528	39.533	-3.58981	0.312823
0.2440	21.1256	49.9979	23.767	-2.3611	1.74779	2.61003	79.331	24.2871	-5.10857	0
0.2447	4.01985	56.4592	63.8005	-3.8834	3.58445	7.79199	88.1763	34.0669	-8.1461	0
0.2453	-25.5731	45.4597	99.4963	-6.92798	3.58445	13.2978	80.2356	37.4057	-11.1836	0.312823
0.2460	-42.9354	21.9222	118.383	-8.76094	2.96236	18.175	31.7123	-9.60256	-13.0476	0.312823
0.2467	-36.5207	3.0768	119.287	-10.2832	3.88069	20.0039	5.15136	-83.1434	-14.8425	0
0.2473	-44.4749	-5.84591	111.063	-11.4949	6.63568	23.3569	42.0904	-80.0706	-17.6039	0
0.2480	-44.1328	-12.5379	62.5353	-12.1162	8.14648	26.729	79.331	-9.60256	-19.3988	0.312823
0.2487	11.3753	-19.5377	-5.51251	-12.7375	7.22815	25.7955	74.4309	27.0349	-20.3653	0
0.2493	69.7059	-19.23	-38.4068	-13.0482	6.63568	25.7955	51.8654	13.9163	-20.0201	0
0.2500	84.93	-14.9994	-60.728	-12.4269	6.30982	26.1193	30.1794	-6.23428	-18.2252	0
0.2507	79.4561	-11.6149	-75.6388	-9.97256	5.71735	22.1376	19.8013	-21.4802	-14.5663	0
0.2513	51.0606	3.0768	-55.848	-7.23865	4.50278	17.5653	25.9076	-27.3008	-11.5288	0
0.2520	6.84229	17.9993	-34.1595	-7.23865	2.04403	13.6026	42.3919	-17.2255	-9.94101	0
0.2527	-11.803	19.5377	-26.5685	-6.02703	-1.30344	10.8592	67.42	1.71369	-6.90348	0
0.2533	-12.7438	15.5378	-11.9287	-2.67178	-3.76219	9.94478	105.565	11.1685	-2.62332	0.312823
0.2540	-13.6846	10.3842	3.34365	-1.11842	-4.68052	6.26788	126.925	13.9163	-0.483243	0.312823
0.2547	5.55936	5.15363	6.4162	0.0932015	-4.68052	0.171462	108.003	34.3624	1.03552	0.312823
0.2553	28.1389	-1.5384	-1.80738	1.92616	-4.97676	-5.01049	86.945	38.0261	2.55429	0
0.2560	31.218	-9.76883	-14.6398	3.13778	-6.81342	-9.29704	71.0888	-12.3208	2.55429	0.312823
0.2567	26.9415	-15.8455	-18.8871	2.51644	-8.02799	-12.0404	46.0607	-49.2537	1.31166	0
0.2573	18.7308	-20.4607	-10.031	4.3494	-7.73175	-12.0404	52.167	-38.883	0.0690348	-2.50258
0.2580	12.9148	-18.9223	0	7.11438	-4.97676	-9.60186	81.1403	-15.3936	0.414209	-2.50258
0.2587	15.6517	-14.0763	1.53627	2.23684	-4.68052	-10.8211	80.5372	16.0437	-0.483243	0
0.2593	19.3295	-13.461	0.271107	-3.57272	-6.48756	-15.6983	62.5451	38.6171	-3.24463	0.312823
0.2600	17.79	-13.1533	0.271107	-2.3611	-6.81342	-18.7465	43.6233	36.1943	-3.58981	0
0.2607	15.053	-11.6149	0.90369	0.714545	-6.48756	-17.832	-4.59853	27.3304	-1.72587	0
0.2613	13.1714	-7.92275	3.70513	2.51644	-5.27299	-12.9549	-57.3937	22.4552	0.0690348	0
0.2620	9.2371	-6.15359	4.60882	0.994149	-4.68052	-6.22978	-71.4406	17.8755	-0.828417	0
0.2627	6.84229	-6.38435	3.70513	-2.05043	-4.35466	1.69557	-65.9374	16.9596	-4.48726	0
0.2633	3.42115	-6.38435	4.24734	-5.40569	-3.1401	11.4689	-48.5485	18.496	-8.42224	0
0.2640	2.22375	-6.15359	3.97624	-9.38228	0.533224	27.0338	-14.3736	20.6233	-13.3237	0
0.2647	9.8358	-4.30751	2.43996	-12.7375	5.39149	42.5987	5.47803	26.119	-18.5013	0.312823
0.2653	12.5727	-3.0768	3.70513	-13.3278	6.63568	43.5132	3.01543	28.2463	-20.3653	0.312823
0.2660	8.6384	-1.84608	7.591	-10.5939	5.09525	33.7399	6.08112	29.1622	-16.9826	0
0.2667	8.03969	-4.30751	5.15103	-8.45027	2.34026	22.1376	14.0218	31.3191	-13.3237	0
0.2673	11.974	-6.38435	4.87993	-5.40569	-0.0888707	13.6026	4.84982	32.2351	-9.66487	0
0.2680	14.4543	-4.30751	9.48874	-0.528142	-1.0072	9.62091	-28.722	32.5305	-4.48726	-0.312823
0.2687	11.974	-6.69203	3.97624	0.403873	-4.68052	3.21967	-72.6468	29.4872	-1.10456	0
0.2693	11.974	-6.69203	-0.90369	4.0698	-7.10965	-4.40085	-95.8405	26.4144	3.72788	0.312823
0.2700	13.8556	-5.53823	0	7.11438	-9.24255	-13.2597	-92.7999	22.4552	7.45575	0.312823
0.2707	13.5135	-6.38435	0.271107	6.18237	-11.3754	-19.9658	-85.789	19.0869	8.00803	0.312823
0.2713	14.7109	-3.0768	3.34365	9.25801	-10.783	-21.7947	-79.9843	22.1598	11.3907	0.312823
0.2720	13.8556	-4.61519	2.71107	10.4696	-13.2121	-25.1668	-63.5	23.0757	12.6334	0.312823
0.2727	12.5727	-7.30739	0.90369	8.01533	-14.4267	-23.9475	-36.6375	20.6233	10.1481	0.312823
0.2733	12.5727	-6.38435	1.53627	7.11438	-13.8342	-20.2706	-7.33755	20.9188	9.25066	0
0.2740	8.6384	-7.92275	1.80738	5.87169	-15.6412	-22.0995	4.54828	21.2438	9.25066	0
0.2747	7.09888	-6.99971	3.07255	7.42505	-15.345	-21.1851	-28.0938	24.2871	11.6669	0.312823
0.2753	8.03969	-6.99971	0	8.326	-15.9671	-22.0995	-55.8609	24.2871	12.012	0.312823
0.2760	5.30278	-8.23043	-3.07255	8.63667	-16.8854	-24.2523	-77.2453	20.3279	10.7694	0
0.2767	1.28293	-5.53823	-2.43996	9.25801	-16.2633	-20.5754	-140.092	16.9596	10.7694	0.312823
0.2773	0.684229	-5.23055	-3.34365	5.87169	-15.9671	-12.6501	-188.615	16.0437	7.11058	0
0.2780	3.76326	-3.69215	-0.90369	4.97075	-14.4267	-5.31532	-249.351	23.6666	4.07305	0
0.2787	0.427643	-2.46144	1.26517	5.59209	-14.4267	-4.70567	-297.271	25.8235	3.72788	0.312823
0.2793	-9.06604	-6.15359	-0.271107	3.44846	-16.8854	-3.48639	-246.914	21.8347	2.55429	0.312823
0.2800	-12.1451	-10.0765	0	2.82711	-16.8854	0.171462	-191.379	15.7482	0.414209	-2.18976
0.2807	-5.13172	-11.9226	2.16886	3.44846	-15.0488	3.52449	-152.304	4.13649	-3.24463	-3.44105
0.2813	3.42115	-14.6917	-2.16886	-0.838813	-14.1304	8.09681	-81.8187	12.0845	-7.86996	-0.625646
0.2820	4.01985	-17.6916	-12.1998	-8.1396	-14.7229	12.6882	22.867	25.4985	-13.5998	0.625646
0.2827	8.03969	-16.1532	-14.3687	-15.1608	-13.5083	20.9183	191.028	23.0757	-21.884	0
0.2833	20.869	-14.384	-12.4709	-21.281	-10.783	31.6061	371.074	20.9188	-29.4778	0
0.2840	23.8625	-13.461	-11.025	-21.281	-8.02799	35.8736	487.043	22.4552	-30.0992	0
0.2847	13.8556	-12.5379	-7.95247	-14.2598	-6.19132	26.4242	557.83	23.3712	-24.6454	0
0.2853	7.44099	-14.0763	-9.75985	-9.66189	-6.81342	13.2978	567.906	23.6666	-20.3653	0.312823
0.2860	6.15806	-14.6917	-12.8324	-7.85999	-7.10965	8.40163	475.735	23.0757	-18.2252	0.312823
0.2867	5.30278	-15.8455	-11.025	-5.71636	-6.19132	4.74378	333.833	25.4985	-16.3612	0.312823
0.2873	7.44099	-19.23	-7.591	-2.67178	-5.89509	0.476283	211.759	30.9941	-14.2212	0.312823
0.2880	13.5135	-18.6146	-4.87993	0.0932015	-4.68052	2.91485	81.4669	34.0669	-12.7024	0
0.2887	19.3295	-14.9994	-5.15103	1.61549	-3.76219	5.65824	-51.2875	33.4465	-12.7024	0
0.2893	20.2703	-14.6917	-7.31989	0.0932015	-4.05843	8.40163	-112.626	31.3191	-14.8425	0.312823
0.2900	20.2703	-16.1532	-8.58505	-6.61731	-3.1401	18.4798	-141.022	29.4872	-21.2627	0.312823
0.2907	23.2638	-14.0763	-6.68731	-15.1608	1.1257	32.8254	-173.362	32.826	-31.6179	0
0.2913	25.1454	-10.9995	-2.16886	-22.4926	7.22815	41.3604	-175.197	38.6171	-41.0757	0.312823
0.2920	22.6651	-9.15347	-0.632583	-28.3022	11.1977	43.5132	-153.536	40.4489	-48.3934	0
0.2927	20.2703	-7.30739	-2.16886	-31.6574	11.8198	41.3604	-129.111	37.4057	-51.1548	0
0.2933	18.7308	-6.38435	-3.34365	-31.9681	8.44272	32.5206	-74.1796	27.6554	-49.636	0.312823
0.2940	15.3096	-3.69215	-1.53627	-25.5372	5.71735	20.9183	40.8591	20.3279	-43.5609	0.312823
0.2947	12.3161	-3.0768	-2.43996	-16.6831	2.96236	9.62091	124.487	23.6666	-34.7245	0
0.2953	14.4543	-9.46115	-9.48874	-14.2598	-1.6293	1.08592	135.167	27.9508	-29.4778	0
0.2960	17.79	-9.76883	-10.031	-12.1162	-2.84386	-1.96229	176.679	30.6986	-24.3002	0.312823
0.2967	14.7109	-8.84579	-9.48874	-8.1396	-4.35466	-6.5346	235.581	30.6986	-18.5013	0.625646
0.2973	9.57921	-9.46115	-10.6635	-4.19407	-7.40589	-8.6874	237.717	28.8668	-12.4263	0.312823
0.2980	8.6384	-6.69203	-7.95247	-0.528142	-7.73175	-5.92496	207.487	29.7827	-7.24865	0.312823
0.2987	9.8358	-7.61507	-9.12727	-0.528142	-9.24255	-7.77293	165.698	28.8668	-6.00602	0.312823
0.2993	12.9148	-8.53811	-10.031	0.714545	-9.24255	-7.77293	123.256	28.8668	-3.86595	0.312823
0.3000	14.7109	-5.53823	-7.04878	3.13778	-8.62046	-5.01049	94.8856	30.6986	-0.483243	0
0.3007	12.9148	-6.15359	-7.95247	2.23684	-11.6717	-8.6874	68.9529	28.5713	0.0690348	0
0.3013	13.5135	-6.15359	-8.85616	1.92616	-13.5083	-12.9549	54.3029	27.0349	1.03552	0.312823
0.3020	13.8556	-5.23055	-8.58505	2.23684	-13.5083	-16.3079	46.0607	25.8235	1.65683	0.312823
0.3027	11.974	-6.69203	-10.3924	-0.21747	-15.0488	-19.9658	15.2279	23.3712	0.0690348	0.312823
0.3033	11.974	-4.61519	-8.58505	1.30482	-13.8342	-21.7947	-25.0532	23.9916	3.1756	0
0.3040	12.3161	-0.30768	-4.60882	5.59209	-11.0792	-26.3861	-106.847	26.119	8.00803	0
0.3047	11.0332	-0.615359	-5.51251	6.49304	-11.6717	-32.7873	-291.768	25.8235	9.5268	0
0.3053	9.8358	-2.46144	-7.31989	6.80371	-12.9159	-33.3969	-493.802	25.4985	10.4933	0
0.3060	9.8358	-2.15376	-6.68731	8.326	-11.9975	-27.6054	-574.666	24.2871	12.2882	0.312823
0.3067	9.57921	-2.76912	-7.591	9.84829	-11.9975	-23.6427	-598.463	21.8347	13.5308	0
0.3073	11.3753	-3.38448	-8.58505	10.4696	-14.1304	-23.6427	-618.917	22.7507	14.4283	0.312823
0.3080	21.7243	-2.15376	-7.04878	9.84829	-15.345	-24.2523	-549.939	23.9916	14.4283	0
0.3087	42.8499	0.615359	-4.87993	9.25801	-15.0488	-24.862	-455.054	27.3304	13.2547	0.312823
0.3093	51.0606	3.61523	-2.16886	6.18237	-14.1304	-25.1668	-379.97	28.5713	8.97452	-0.312823
0.3100	21.1256	6.99971	0.90369	3.75913	-13.5083	-22.7092	-269.806	11.464	1.93297	-3.44105
0.3107	-10.8621	10.0765	4.24734	3.13778	-12.59	-19.0513	-142.529	2.62962	-0.207104	-2.18976
0.3113	-20.3558	13.3841	7.95247	-1.73976	-11.6717	-14.7838	-9.47348	20.6233	-2.34718	0.625646
0.3120	-17.0202	16.4609	11.2961	-7.85999	-11.3754	-5.62014	109.234	20.0029	-11.1836	-2.18976
0.3127	3.42115	21.6914	17.7123	-6.92798	-7.10965	5.35342	227.942	8.12524	-16.0851	-3.44105
0.3133	-21.8953	24.0759	21.3271	-5.09501	-3.1401	9.01127	354.288	22.4552	-14.5663	0
0.3140	-94.2526	21.3837	18.616	-7.23865	-3.1401	7.18234	389.066	38.3216	-15.7399	0.625646
0.3147	-139.668	19.23	15.5435	-6.61731	-0.0888707	4.13413	326.521	41.3649	-16.7064	-0.312823
0.3153	-172.682	13.0764	8.58505	-4.78434	1.74779	-1.65746	288.677	47.481	-14.5663	0
0.3160	-175.419	4.84595	0	-3.8834	1.1257	-0.743001	251.738	60.3041	-10.2862	0.312823
0.3167	-121.365	1.23072	-5.15103	-1.42909	2.96236	11.1641	95.4887	74.6341	-5.38471	0
0.3173	-48.7513	-7.30739	-14.0072	-2.95138	2.66612	19.0894	-38.4719	81.3411	-4.48726	0
0.3180	-13.9412	-15.8455	-22.3211	-5.71636	1.1257	20.9183	-82.4218	83.173	-4.48726	0.312823
0.3187	-70.3901	-19.23	-26.207	-4.47367	1.1257	21.2232	-163.914	84.7094	-1.72587	0.312823
0.3193	-44.4749	-25.6143	-34.1595	-3.8834	1.45155	18.4798	-208.165	84.4139	0.0690348	0.312823
0.3200	232.98	-31.1526	-41.4794	-1.73976	2.04403	12.993	-161.778	85.9208	2.55429	0
0.3207	517.705	-27.1527	-38.7683	3.75913	4.50278	10.2496	-97.0718	85.0048	8.35321	0
0.3213	502.738	-18.9223	-31.0869	5.87169	5.71735	9.62091	-48.5485	71.2953	11.3907	0.312823
0.3220	236.572	-9.76883	-23.4959	4.3494	3.88069	3.82931	20.4296	40.7739	9.87197	0.312823
0.3227	17.79	3.30756	-11.9287	4.66007	2.96236	-5.31532	116.848	11.464	8.62934	0
0.3233	-41.738	11.3072	-3.70513	4.66007	4.17692	-9.90668	157.757	7.50477	8.35321	0
0.3240	-75.6073	10.6919	-3.70513	2.82711	3.58445	-9.60186	147.982	17.2551	6.48927	0.312823
0.3247	-133.852	7.92275	-6.14509	1.30482	2.96236	-9.90668	176.679	14.5073	4.69436	0
0.3253	-181.834	7.61507	-8.22358	0.403873	3.25859	-10.8211	233.445	-2.27507	3.72788	0
0.3260	-159.254	9.46115	-9.48874	-0.528142	3.88069	-11.7356	270.057	-24.8485	3.72788	0
0.3267	-98.7856	13.0764	-7.04878	1.30482	5.39149	-13.8694	267.921	-42.2513	4.07305	0.312823
0.3273	-119.227	15.8455	-2.43996	4.0698	7.55401	-15.6983	200.778	-47.7469	3.72788	0.312823
0.3280	-132.997	17.0762	0	2.23684	7.85024	-12.6501	119.914	-51.4106	0.690348	0.312823
0.3287	-42.3367	19.23	1.80738	-1.73976	8.14648	-5.31532	107.098	-53.2425	-3.58981	0.312823
0.3293	12.5727	21.9222	5.15103	-4.19407	9.06481	-0.743001	113.807	-42.5467	-5.72989	0.312823
0.3300	-72.8704	24.0759	9.75985	-4.19407	9.36105	-1.65746	85.7388	-31.5555	-5.72989	0.312823
0.3307	-244.013	25.922	14.3687	-0.528142	9.36105	-4.70567	66.5154	-30.3441	-2.07104	0.312823
0.3313	-352.72	25.3066	15.9049	3.44846	8.76857	-9.60186	68.6513	-33.6828	2.83043	0.312823
0.3320	-175.676	23.1529	16.8086	4.66007	8.14648	-15.0886	74.4309	-30.9646	4.07305	0.312823
0.3327	200.308	21.076	17.7123	3.75913	8.44272	-14.7838	57.3435	-15.6891	3.1756	0
0.3333	340.062	16.4609	14.9109	1.30482	9.06481	-6.5346	17.6654	1.09321	0.690348	0
0.3340	165.156	14.9225	13.7361	-0.21747	13.3306	6.5727	-1.55797	16.3391	-0.483243	0.312823
0.3347	3.16456	10.6919	7.95247	-1.73976	16.3818	13.2978	-6.13138	26.4144	-1.44973	0.312823
0.3353	36.0931	-0.615359	-6.14509	-3.57272	14.5452	11.1641	-5.52829	27.3304	-3.58981	0
0.3360	197.828	-10.3842	-18.3449	-0.838813	15.7894	7.48717	5.77958	33.4465	-2.62332	0
0.3367	268.303	-21.6914	-29.9121	3.13778	18.2185	4.74378	6.68421	43.1968	-0.207104	0.312823
0.3373	125.214	-32.3833	-41.4794	4.97075	17.9223	3.82931	11.2576	42.6058	1.93297	0.312823
0.3380	-2.9935	-35.6908	-44.2808	8.94734	19.7589	6.87752	42.0904	41.9854	5.59182	0
0.3387	92.8841	-36.9215	-42.7445	9.84829	20.6772	7.79199	75.6622	49.9333	6.83444	0.312823
0.3393	216.473	-31.7679	-36.3283	6.18237	17.3002	6.26788	101.896	47.1855	4.9705	0.312823
0.3400	117.602	-11.6149	-16.1761	6.49304	14.871	5.96306	108.304	12.3799	4.69436	-2.18976
0.3407	-31.6456	5.76899	2.71107	8.01533	13.6565	4.74378	88.7794	-33.3874	5.59182	-3.12823
0.3413	-81.4233	13.3841	11.2961	6.18237	11.8198	1.69557	75.0591	-55.6653	6.48927	-0.312823
0.3420	-185.768	17.0762	17.0797	4.66007	9.98314	0.171462	25.003	-69.4044	7.73189	0.625646
0.3427	-296.87	13.0764	16.4472	5.87169	11.1977	1.08592	-54.6547	-83.7343	8.62934	0
0.3433	-295.587	-0.30768	6.14509	3.75913	12.116	1.08592	-76.014	-82.5229	6.48927	0.312823
0.3440	-317.568	-13.7687	-4.60882	-0.838813	11.4939	0.171462	-77.8484	-68.7839	3.1756	0
0.3447	-278.823	-23.2298	-10.6635	-1.73976	13.3306	0.476283	-101.344	-48.9583	2.83043	0
0.3453	26.0007	-30.5372	-15.9049	-2.3611	14.5452	0.171462	-106.219	-33.6828	1.31166	0
0.3460	294.304	-33.3063	-17.9834	-5.09501	14.2489	-1.65746	-108.656	-34.0078	-1.72587	0.312823
0.3467	378.464	-29.3065	-14.0072	-6.02703	14.5452	-0.743001	-125.442	-34.5988	-2.62332	0.625646
0.3473	476.138	-22.9221	-7.591	-5.40569	13.9527	0.781104	-108.983	-24.8485	-1.72587	0.625646
0.3480	425.505	-18.6146	-6.14509	-6.02703	11.1977	-1.04782	-56.1876	-19.9733	-2.34718	0.312823
0.3487	180.722	-13.1533	-3.97624	-6.30663	10.2794	-1.04782	3.01543	-29.7236	-3.24463	0
0.3493	-15.8228	-6.38435	2.16886	-4.78434	12.116	3.21967	55.8106	-50.1697	-1.72587	0.312823
0.3500	-99.7264	-3.0768	4.24734	-3.8834	12.7381	5.35342	40.256	-65.7406	-1.10456	0.312823
0.3507	-146.682	-1.23072	3.97624	-1.73976	13.3306	3.52449	-37.5673	-62.6973	0.414209	0.312823
0.3513	-190.986	-1.5384	3.70513	-0.21747	12.4123	0.476283	-66.5405	-52.3266	1.93297	0.312823
0.3520	-144.886	-4.92287	1.53627	-0.21747	9.6869	-1.35264	-76.014	-47.4219	1.65683	0.312823
0.3527	-4.19091	-4.30751	3.97624	0.403873	8.76857	-1.96229	-123.306	-42.5467	1.31166	0.312823
0.3533	72.4428	-0.615359	9.12727	0.714545	7.85024	-4.40085	-121.798	-36.1352	1.65683	0.938468
0.3540	34.297	-0.923039	8.58505	-0.21747	6.30982	-6.85847	-61.6656	-36.1352	0.690348	0
0.3547	-16.4215	-4.61519	3.97624	1.30482	5.71735	-5.31532	-20.7814	-46.2105	0.414209	-2.18976
0.3553	3.16456	-7.61507	0.90369	2.82711	6.01358	-3.48639	9.7499	-48.0424	1.31166	-0.938468
0.3560	45.8434	-10.0765	-1.80738	2.51644	6.30982	-3.48639	50.6341	-34.9238	1.31166	0.938468
0.3567	66.6268	-15.8455	-6.68731	2.23684	6.01358	-5.62014	77.7981	-23.0166	-0.207104	0.312823
0.3573	87.0682	-22.6144	-13.1035	0.994149	4.79902	-6.85847	85.1106	-11.1094	-1.72587	0
0.3580	58.4161	-24.1528	-14.9109	2.23684	6.01358	-1.35264	99.459	2.62962	-0.828417	0
0.3587	-2.3948	-24.7682	-15.9049	3.13778	6.93191	2.91485	133.332	5.05242	-1.10456	0.312823
0.3593	-0.256586	-28.9988	-21.6886	0.0932015	5.71735	0.781104	144.64	-2.57053	-4.48726	0.312823
0.3600	12.5727	-26.845	-20.1523	1.61549	6.30982	1.39075	106.47	-6.52974	-4.14209	0.312823
0.3607	-17.0202	-21.076	-14.3687	5.28142	6.01358	2.30521	50.6341	-13.2368	-1.10456	0.312823
0.3613	-10.8621	-17.9993	-12.4709	4.97075	3.88069	-0.43818	12.7905	-27.3008	-0.483243	0.625646
0.3620	46.4421	-9.76883	-5.15103	6.18237	3.58445	-1.35264	0.577958	-35.5147	0.690348	0.312823
0.3627	75.7784	0.30768	5.78362	7.11438	2.66612	-2.26711	3.3421	-38.883	1.31166	0
0.3633	38.2313	5.46131	12.1998	5.28142	1.74779	-1.65746	5.47803	-39.5035	-1.44973	0
0.3640	-69.1927	9.76883	17.0797	6.49304	2.96236	2.61003	-3.6939	-31.5555	-2.34718	0.312823
0.3647	-199.795	12.7687	20.4234	6.80371	3.88069	4.43896	-13.7453	-22.1007	-2.34718	0.312823
0.3653	-281.902	12.7687	20.7849	4.66007	2.66612	2.61003	-14.6751	-13.5618	-4.14209	0
0.3660	-331.595	9.15347	17.0797	5.59209	1.74779	1.69557	-12.5392	3.22055	-3.58981	0
0.3667	-369.484	-1.5384	6.14509	6.80371	-0.385106	-0.133359	-15.8813	18.171	-2.34718	0
0.3673	-333.134	-13.7687	-7.95247	6.49304	-3.43633	-2.87675	-21.9875	22.4552	-2.34718	0
0.3680	-146.682	-21.3837	-18.3449	8.94734	-2.518	-3.48639	-21.3844	23.0757	-1.72587	0.312823
0.3687	53.4554	-25.922	-24.7611	9.53762	-0.0888707	-1.96229	-20.1783	24.9076	-1.72587	0.625646
0.3693	47.9816	-29.6142	-29.0084	7.70466	-0.0888707	-1.96229	-23.8219	23.3712	-2.96849	-0.312823
0.3700	44.9881	-32.3833	-30.1832	9.53762	-1.0072	-2.57193	-35.7329	7.50477	-4.14209	-2.8154
0.3707	203.045	-30.5372	-28.3759	11.3706	-0.0888707	0.476283	-47.6438	3.22055	-3.86595	-1.87694
0.3713	247.862	-25.6143	-26.207	7.42505	-0.0888707	2.00039	-48.5485	23.9916	-4.14209	0.312823
0.3720	115.464	-22.9221	-25.3033	4.66007	-2.84386	0.476283	-50.0813	39.533	-5.72989	0.312823
0.3727	56.5345	-18.3069	-21.3271	5.87169	-3.43633	1.69557	-56.7906	39.858	-5.10857	0
0.3733	113.325	-9.76883	-14.3687	6.80371	-3.1401	3.82931	-60.4594	31.3191	-3.86595	0.312823
0.3740	82.4496	-3.38448	-7.95247	5.87169	-3.76219	4.13413	-56.1876	17.5801	-4.14209	0
0.3747	-49.35	3.92291	-0.90369	5.28142	-4.68052	4.13413	-54.9562	1.09321	-5.10857	0
0.3753	-128.122	10.6919	6.14509	5.59209	-6.19132	2.61003	-61.9671	-18.4369	-5.10857	0.312823
0.3760	-116.49	12.7687	10.031	5.59209	-8.32422	-0.43818	-53.4234	-37.967	-5.10857	0.312823
0.3767	-96.0487	16.4609	14.6398	7.42505	-7.73175	-1.65746	-31.7626	-49.2537	-3.86595	0.312823
0.3773	-126.24	19.5377	16.1761	8.94734	-5.89509	-2.26711	-15.5797	-52.0016	-2.62332	0.312823
0.3780	-169.86	14.6148	10.3924	8.326	-6.19132	-4.09603	3.01543	-50.1697	-4.14209	0.312823
0.3787	-86.8971	3.30756	0.632583	7.70466	-5.27299	-4.09603	24.0732	-35.5147	-4.14209	0
0.3793	168.235	-10.9995	-11.025	8.326	-3.1401	-1.96229	30.481	-9.60256	-3.86595	0
0.3800	409.597	-22.3068	-19.8812	9.53762	-2.518	-1.35264	19.1983	8.42071	-3.58981	0
0.3807	478.618	-24.999	-23.4959	10.4696	-1.6293	-1.35264	6.08112	15.1277	-2.07104	0
0.3813	428.841	-23.5375	-25.0322	9.53762	-1.6293	-1.04782	-0.929758	17.5801	-2.96849	0.312823
0.3820	376.412	-21.6914	-25.0322	7.11438	-3.1401	-2.26711	2.1108	16.3391	-6.62734	0.312823
0.3827	204.841	-17.0762	-20.4234	4.97075	-2.84386	-2.26711	19.1983	10.8731	-9.38873	0.312823
0.3833	-106.74	-10.0765	-13.1035	2.51644	-1.92553	0.171462	26.8373	-1.03412	-11.8049	0.312823
0.3840	-263.599	-2.46144	-6.14509	2.51644	0.207365	4.13413	13.092	-14.7732	-13.5998	0
0.3847	-220.835	0.615359	-1.53627	4.0698	2.66612	6.26788	-0.929758	-20.8893	-13.5998	0
0.3853	-182.091	-0.923039	-0.632583	2.51644	1.1257	4.74378	-10.4032	-20.8893	-14.5663	0.312823
0.3860	-205.269	-0.615359	0.90369	1.61549	-0.385106	3.82931	-19.2485	-17.2255	-14.8425	0.312823
0.3867	-198.255	-0.615359	2.71107	2.82711	-0.710966	3.52449	-23.2188	-13.2368	-13.5998	0
0.3873	-172.682	-3.0768	2.71107	3.13778	-1.30344	3.82931	-21.686	-12.6458	-13.0476	0
0.3880	-200.992	-3.0768	3.07255	3.44846	-0.710966	5.96306	-17.4141	-9.89802	-12.0811	0.312823
0.3887	-230.927	-6.69203	-0.271107	4.97075	-0.385106	5.65824	-16.5095	-4.4024	-11.1836	0.312823
0.3893	-222.717	-11.9226	-4.87993	6.49304	-0.710966	3.21967	-16.2079	-2.27507	-9.94101	0.312823
0.3900	-146.682	-8.84579	-1.26517	6.80371	-1.92553	1.69557	-13.1423	-6.52974	-8.42224	0
0.3907	-48.1526	-5.23055	2.71107	7.11438	-3.1401	0.781104	-9.80015	-14.7732	-8.1461	0
0.3913	8.29628	-6.38435	0	9.25801	-2.518	1.39075	-9.17194	-15.9846	-6.62734	0
0.3920	81.5944	-8.84579	-3.34365	9.84829	-2.518	1.39075	-11.0063	-5.93881	-5.10857	0.312823
0.3927	72.6994	-11.3072	-5.78362	8.01533	-4.05843	-0.43818	-13.4438	2.00915	-5.72989	0.312823
0.3933	-42.5933	-12.5379	-6.68731	7.42505	-4.68052	0.171462	-13.1423	3.22055	-6.28216	0.312823
0.3940	-42.5933	-16.4609	-11.5672	6.49304	-4.68052	1.08592	-11.0063	5.37743	-6.90348	0.312823
0.3947	55.5936	-20.153	-16.8086	4.0698	-4.68052	1.69557	-9.17194	8.42071	-9.04355	0
0.3953	79.114	-13.461	-11.5672	3.44846	-2.518	4.13413	-3.99545	-0.443195	-10.2862	0
0.3960	10.7766	-5.23055	-5.78362	3.75913	-1.0072	5.65824	2.71389	-17.521	-11.1836	0
0.3967	-92.9697	-2.76912	-5.51251	3.44846	-1.30344	5.35342	6.68421	-27.3008	-13.0476	0
0.3973	-157.715	1.23072	-1.80738	4.3494	-0.0888707	5.96306	8.5186	-28.8077	-13.5998	0.312823
0.3980	-74.4099	2.15376	2.43996	4.66007	-1.0072	4.43896	1.80926	-25.4689	-13.945	0.312823
0.3987	88.6077	0	2.71107	4.0698	-1.6293	2.00039	-11.9361	-13.8572	-14.5663	0.625646
0.3993	79.114	1.23072	5.15103	5.59209	0.533224	1.39075	-12.8407	-2.27507	-13.945	-0.312823
0.4000	-71.3309	4.23059	8.85616	9.25801	-0.710966	-1.96229	-1.25643	-14.4777	-13.3237	-2.8154
0.4007	-173.538	11.6149	15.5435	10.7803	-2.518	-3.18157	6.38266	-29.4282	-10.9075	-1.87694
0.4013	-201.334	18.6146	19.8812	7.70466	-2.84386	-1.65746	6.98575	-24.228	-9.04355	0.312823
0.4020	-164.985	16.1532	15.9049	5.28142	-4.97676	-1.65746	2.1108	-20.5643	-9.66487	0
0.4027	-78.0022	12.7687	12.1998	6.80371	-4.35466	0.781104	-3.6939	-15.6891	-9.04355	0
0.4033	24.2046	7.30739	8.22358	8.01533	-1.30344	3.21967	-3.39236	-5.02288	-7.52479	0.312823
0.4040	110.246	-6.69203	-2.71107	6.80371	-0.710966	2.30521	-3.6939	3.84102	-8.1461	0.312823
0.4047	184.742	-18.9223	-12.8324	6.80371	0.82946	3.21967	-6.73447	14.5073	-7.52479	0.312823
0.4053	211.855	-26.2297	-19.8812	7.70466	3.25859	5.35342	-7.96577	19.7074	-6.62734	0.312823
0.4060	223.486	-28.6911	-22.5922	7.70466	3.58445	5.65824	-8.8704	14.2118	-6.62734	0
0.4067	322.7	-21.9991	-16.8086	8.94734	3.58445	6.87752	-8.8704	5.37743	-5.38471	0
0.4073	353.747	-13.1533	-10.031	8.326	3.25859	7.18234	-6.43292	-7.77069	-5.38471	0
0.4080	225.881	-7.30739	-6.14509	5.59209	1.74779	6.26788	-5.82984	-20.5643	-7.52479	0
0.4087	68.7651	-2.76912	-3.34365	3.75913	1.45155	6.87752	-6.43292	-22.1007	-9.38873	0
0.4093	-45.4157	-0.615359	-3.70513	3.13778	2.34026	8.09681	-6.43292	-24.228	-9.94101	0
0.4100	-42.9354	-0.615359	-3.34365	2.51644	3.88069	9.94478	-5.82984	-28.8077	-10.2862	0
0.4107	22.4085	-0.615359	-1.26517	3.13778	5.71735	11.4689	-4.29699	-20.5643	-9.04355	0.312823
0.4113	-13.0004	-1.84608	-1.80738	2.82711	5.09525	10.5544	-3.6939	-7.44568	-8.42224	0.312823
0.4120	-120.424	-2.76912	-2.71107	1.92616	2.96236	8.70645	-5.82984	-5.93881	-9.04355	0
0.4127	-146.682	-1.84608	-1.53627	1.61549	2.34026	7.18234	-7.96577	-9.89802	-8.76742	0
0.4133	-89.9762	-2.46144	-1.53627	0.0932015	2.66612	7.79199	-8.56885	-9.89802	-9.04355	-0.312823
0.4140	-57.9029	-0.923039	-0.271107	0.0932015	4.17692	10.2496	-7.33755	-12.3208	-9.38873	-0.312823
0.4147	-56.0213	2.76912	3.07255	0.994149	5.39149	10.2496	-6.43292	-19.3529	-9.04355	0.312823
0.4153	-39.8564	3.61523	3.97624	-0.21747	3.88069	8.09681	-7.96577	-26.3849	-8.42224	0.312823
0.4160	-15.1386	3.92291	3.97624	-2.05043	2.66612	6.26788	-7.96577	-30.9646	-8.76742	0.312823
0.4167	0.427643	3.92291	3.70513	-2.3611	2.96236	5.35342	-4.59853	-29.7236	-9.38873	0.312823
0.4173	6.15806	3.61523	3.97624	-1.11842	3.88069	5.35342	-1.85952	-24.228	-8.76742	0.312823
0.4180	8.6384	5.15363	7.04878	-0.21747	5.39149	6.5727	-0.628215	-19.9733	-6.62734	0.312823
0.4187	3.76326	6.38435	8.58505	-0.528142	5.39149	6.87752	-2.16106	-19.0574	-5.72989	0
0.4193	-11.803	5.46131	7.95247	-1.73976	4.17692	5.96306	-4.29699	-19.9733	-6.28216	0
0.4200	-33.4417	5.46131	8.22358	-2.67178	3.58445	5.0486	-3.6939	-18.7324	-6.62734	0
0.4207	-53.0278	4.84595	7.31989	-2.67178	3.88069	5.0486	-0.0251286	-13.5618	-6.90348	0.312823
0.4213	-62.778	4.53827	7.591	-1.42909	6.01358	5.96306	4.24673	-6.52974	-6.28216	0.312823
0.4220	-68.594	6.69203	9.75985	-1.11842	7.22815	7.79199	7.61397	-1.95006	-6.62734	0.312823
0.4227	-74.0678	6.99971	9.12727	-2.67178	6.63568	8.40163	8.21705	-2.57053	-7.86996	0
0.4233	-69.1927	3.0768	5.15103	-3.57272	5.71735	8.09681	6.38266	-4.69787	-9.04355	0
0.4240	-59.1003	1.23072	2.16886	-3.8834	5.39149	7.79199	4.84982	-3.191	-8.76742	0.312823
0.4247	-46.6131	2.76912	2.71107	-3.57272	5.39149	8.09681	4.84982	1.38868	-7.86996	0.312823
0.4253	-20.9545	3.92291	4.24734	-3.26205	5.09525	8.70645	5.15136	5.96836	-7.86996	0
0.4260	6.84229	5.46131	4.24734	-3.26205	4.79902	9.01127	5.77958	7.20931	-8.42224	0
0.4267	15.3096	5.76899	3.07255	-3.57272	3.58445	7.48717	3.94519	4.4615	-8.76742	0
0.4273	-0.513172	3.61523	0.90369	-4.19407	2.96236	5.96306	0.577958	3.22055	-8.42224	0
0.4280	-10.0069	1.84608	-1.26517	-3.26205	3.88069	6.5727	-0.326672	3.22055	-7.52479	0.312823
0.4287	8.6384	1.84608	-2.71107	-1.42909	4.79902	7.18234	0.276415	2.62962	-5.72989	0.312823
0.4293	22.4085	1.23072	-3.34365	-0.838813	4.79902	6.87752	0.276415	3.84102	-4.48726	0.312823
0.4300	23.6059	-0.615359	-3.70513	-1.73976	4.17692	6.26788	-0.0251286	2.62962	-4.7634	0
0.4307	37.0339	0	-2.71107	-2.67178	3.88069	5.35342	-0.628215	-2.27507	-5.38471	0.312823
0.4313	57.4753	4.53827	1.26517	-2.95138	3.58445	5.0486	-1.25643	-10.814	-6.62734	0
0.4320	33.6983	9.46115	6.4162	-4.19407	2.96236	5.0486	-2.16106	-21.8052	-7.52479	0
0.4327	-35.5799	12.7687	10.6635	-4.78434	3.25859	5.96306	-0.929758	-22.3961	-6.90348	0.312823
0.4333	-93.3118	13.9994	11.9287	-2.67178	3.25859	5.35342	0.577958	-25.7644	-6.62734	-2.18976
0.4340	-136.333	12.5379	11.2961	0.403873	2.66612	4.43896	1.80926	-31.851	-6.62734	-2.8154
0.4347	-171.399	11.9226	11.5672	0.0932015	3.88069	4.74378	2.41235	-12.3208	-4.48726	0.312823
0.4353	-178.755	10.6919	10.6635	-1.11842	2.96236	3.82931	0.879501	-0.443195	-4.7634	-0.938468
0.4360	-190.986	8.53811	9.48874	0.714545	2.34026	4.13413	-0.0251286	-12.3208	-5.10857	-3.12823
0.4367	-197.999	6.38435	8.58505	1.92616	4.17692	6.26788	1.50772	-0.118185	-2.07104	-0.312823
0.4373	-60.2977	2.76912	5.15103	-0.528142	3.58445	5.0486	-0.326672	20.9188	-1.44973	0.312823
0.4380	129.747	0.923039	3.07255	-2.95138	1.74779	2.91485	-3.06569	18.496	-2.96849	-0.312823
0.4387	155.149	4.23059	4.87993	-3.57272	0.82946	2.91485	-3.06569	9.33664	-2.96849	0.312823
0.4393	127.01	5.46131	5.15103	-3.26205	1.74779	3.21967	-2.16106	4.13649	-3.24463	0.312823
0.4400	158.485	2.15376	0.632583	-2.95138	3.58445	3.82931	-1.55797	2.92509	-2.96849	-0.312823
0.4407	164.899	-1.23072	-5.51251	-1.42909	5.09525	4.74378	-0.0251286	5.6729	-1.44973	-0.312823
0.4413	124.017	-3.99983	-10.3924	-1.11842	5.39149	5.35342	0.577958	8.42071	0.0690348	0
0.4420	88.6077	-4.61519	-12.8324	-2.95138	4.50278	4.43896	-0.326672	5.37743	-0.483243	0.312823
0.4427	85.5287	-0.923039	-11.025	-3.57272	3.58445	3.82931	-1.55797	-5.02288	-0.483243	0.312823
0.4433	86.4695	3.30756	-7.591	-3.57272	2.66612	4.13413	-2.4626	-17.8164	-0.828417	0
0.4440	52.6001	8.53811	-2.16886	-4.19407	2.66612	4.43896	-2.4626	-27.8917	-1.44973	0
0.4447	21.7243	13.0764	3.97624	-3.8834	3.88069	4.74378	-0.929758	-31.5555	-0.483243	0
0.4453	15.053	10.3842	3.97624	-4.47367	3.88069	4.43896	-1.25643	-27.8917	-1.10456	0
0.4460	-9.66474	6.38435	2.16886	-5.09501	3.58445	4.74378	-2.16106	-19.9733	-1.44973	0.312823
0.4467	-35.5799	6.99971	3.34365	-5.09501	3.25859	4.74378	-2.16106	-20.2688	-1.44973	0
0.4473	-34.3825	6.99971	2.43996	-6.02703	1.74779	3.21967	-3.06569	-26.9758	-2.07104	0
0.4480	-38.659	6.38435	2.16886	-5.09501	2.04403	4.13413	-2.4626	-25.4689	-1.72587	0
0.4487	-4.44749	5.15363	2.16886	-5.09501	2.66612	4.74378	-1.55797	-20.8893	-0.483243	0.312823
0.4493	125.214	3.30756	0.90369	-5.71636	2.04403	3.52449	-2.4626	-19.3529	-1.10456	0
0.4500	213.137	2.15376	-0.271107	-6.02703	1.1257	3.52449	-2.4626	-13.5618	-1.44973	0
0.4507	167.636	0.30768	-1.26517	-6.61731	-0.0888707	2.30521	-3.39236	-9.60256	-2.07104	0
0.4513	86.7261	0.615359	-0.90369	-6.30663	0.82946	2.00039	-3.39236	-9.27755	-2.07104	0
0.4520	48.9224	3.30756	1.80738	-4.47367	1.1257	2.30521	-2.16106	-5.93881	-0.828417	0.312823
0.4527	51.3172	4.84595	2.71107	-3.26205	0.207365	2.30521	-1.25643	-3.48647	0.414209	0
0.4533	40.7116	3.92291	2.16886	-2.95138	-0.385106	2.00039	-1.25643	-4.69787	1.65683	0
0.4540	-2.9935	2.46144	0.632583	-2.95138	-1.92553	0.171462	-2.16106	-7.77069	2.55429	0
0.4547	-43.8762	0.30768	-1.53627	-2.67178	-3.1401	-1.04782	-3.06569	-9.27755	3.1756	0.312823
0.4553	-58.8437	-0.615359	-1.80738	-1.73976	-3.1401	-1.65746	-3.06569	-5.6138	4.07305	0.312823
0.4560	-43.5341	0.30768	-0.90369	-0.528142	-3.76219	-2.26711	-3.6939	-12.6458	4.34919	-1.56411
0.4567	-17.2768	1.5384	0.90369	1.30482	-3.1401	-1.35264	-3.39236	-21.8052	5.31568	-2.18976
0.4573	-14.882	0.923039	1.80738	1.61549	-3.43633	-1.65746	-3.39236	-10.814	6.83444	0.312823
0.4580	-5.38831	-1.23072	1.26517	0.0932015	-5.27299	-3.79121	-5.52829	-2.57053	6.48927	0.312823
0.4587	70.9033	-1.5384	1.26517	0.714545	-5.56923	-4.40085	-6.13138	-4.69787	6.83444	0
0.4593	127.951	-1.5384	1.80738	1.61549	-4.68052	-4.09603	-5.52829	-2.866	8.35321	0.312823
0.4600	78.5153	-2.46144	1.53627	1.92616	-4.68052	-4.40085	-5.20162	-1.6546	8.35321	0
0.4607	15.9939	-3.69215	0.90369	2.23684	-5.27299	-4.70567	-4.59853	-1.35913	8.35321	0.312823
0.4613	0.427643	-5.23055	-0.632583	0.994149	-6.19132	-5.01049	-4.90008	0.177278	7.73189	0.312823
0.4620	-2.05269	-7.30739	-3.70513	-0.838813	-7.40589	-5.31532	-6.13138	-10.489	5.31568	-2.18976
0.4627	-14.5399	-4.92287	-1.80738	0.403873	-5.89509	-3.18157	-4.59853	-20.8893	4.9705	-2.8154
0.4633	-18.2176	0	3.07255	1.61549	-4.05843	-1.96229	-2.4626	-7.77069	6.48927	0
0.4640	11.7174	1.23072	4.24734	-0.528142	-5.27299	-2.87675	-2.4626	4.4615	6.48927	0.625646
0.4647	22.4085	0.923039	4.60882	-2.3611	-6.81342	-3.48639	-3.06569	1.09321	4.69436	0.312823
0.4653	-6.58571	2.46144	7.04878	-3.8834	-8.02799	-3.48639	-3.39236	-3.48647	2.83043	0
0.4660	-30.1061	3.92291	9.12727	-3.26205	-6.81342	-2.87675	-2.76415	-2.27507	3.72788	0.312823
0.4667	-65.515	2.15376	8.85616	-1.11842	-3.76219	-1.96229	-1.25643	0.472741	6.21313	0.625646
0.4673	-83.8181	-1.84608	7.95247	-0.21747	-3.76219	-2.26711	-0.929758	3.54556	6.48927	0.312823
0.4680	-50.8896	-6.69203	4.24734	-0.838813	-5.27299	-2.57193	-1.55797	10.2526	6.21313	0
0.4687	-19.415	-13.461	-2.71107	-1.11842	-5.56923	-3.48639	-1.85952	17.5801	6.83444	0
0.4693	5.55936	-19.5377	-8.85616	-0.528142	-4.05843	-4.09603	-1.55797	23.9916	7.11058	0.312823
0.4700	-4.78961	-23.8452	-13.1035	0.0932015	-2.518	-2.57193	-0.326672	30.4032	8.00803	0
0.4707	-84.4168	-25.6143	-15.2724	-0.838813	-2.22177	-1.96229	0.879501	29.4872	7.73189	0.312823
0.4713	-125.984	-22.3068	-12.8324	-2.67178	-3.43633	-2.57193	0.879501	18.496	5.86795	0.312823
0.4720	-66.7124	-15.3071	-7.31989	-3.57272	-4.68052	-2.87675	-1.25643	5.6729	4.34919	0.312823
0.4727	-23.4349	-8.84579	-2.43996	-3.8834	-4.68052	-2.87675	-2.4626	-6.85475	4.07305	0
0.4733	-58.1595	-3.99983	2.43996	-3.8834	-4.05843	-2.57193	-0.628215	-19.6483	4.07305	0.312823
0.4740	-82.8773	-0.30768	7.04878	-3.26205	-2.518	-0.743001	1.20617	-22.3961	4.34919	0.312823
0.4747	-55.166	-2.76912	6.14509	-4.19407	-1.92553	-0.43818	1.20617	-18.1415	3.72788	0.312823
0.4753	-46.6131	-10.9995	-1.26517	-5.71636	-2.84386	-2.87675	-0.0251286	-18.1415	2.20911	0.312823
0.4760	-67.0545	-15.8455	-6.68731	-6.02703	-3.76219	-3.18157	-0.326672	-16.9005	2.20911	0.312823
0.4767	-38.659	-14.9994	-5.78362	-4.78434	-3.1401	-2.26711	0.577958	-9.60256	3.1756	0
0.4773	0.684229	-11.3072	-2.43996	-2.67178	-2.22177	-1.65746	2.41235	2.00915	4.9705	0
0.4780	7.44099	-7.92275	-0.271107	-1.73976	-4.05843	-2.26711	2.41235	11.1685	6.21313	0.312823
0.4787	-9.66474	-4.92287	2.16886	-2.95138	-7.10965	-5.01049	-0.628215	5.37743	4.9705	0
0.4793	-100.924	1.23072	8.22358	-4.47367	-8.02799	-5.62014	-1.85952	-8.98209	4.34919	-0.312823
0.4800	-182.433	5.76899	11.5672	-4.19407	-7.10965	-4.40085	-0.929758	-15.0686	4.69436	0.312823
0.4807	-94.2526	2.46144	7.04878	-3.26205	-5.27299	-2.87675	0.577958	-8.68662	4.9705	0.312823
0.4813	41.5669	-6.69203	-1.53627	-2.67178	-2.84386	-1.04782	2.71389	2.00915	5.31568	0
0.4820	2.22375	-13.7687	-6.4162	-4.78434	-2.84386	-1.65746	2.1108	6.58883	3.72788	0
0.4827	-169.005	-12.8456	-4.87993	-7.54932	-3.1401	-1.96229	1.50772	5.6729	1.03552	0
0.4833	-250.428	-11.3072	-4.24734	-8.45027	-1.30344	-0.43818	2.41235	2.92509	0.414209	0.312823
0.4840	-33.4417	-12.8456	-5.15103	-7.85999	1.45155	1.08592	3.01543	-0.443195	1.31166	0.312823
0.4847	250.941	-11.9226	-3.97624	-6.92798	2.66612	1.69557	3.64365	0.177278	2.20911	0
0.4853	239.053	-11.6149	-3.34365	-7.23865	1.45155	0.781104	3.3421	3.84102	3.1756	0.312823
0.4860	110.589	-10.9995	-3.34365	-7.23865	-0.0888707	-1.04782	2.1108	5.96836	3.45174	0
0.4867	7.09888	-7.92275	-0.632583	-5.71636	-0.710966	-1.35264	2.1108	7.50477	4.69436	0
0.4873	-128.122	-5.84591	0.271107	-5.09501	-2.22177	-2.26711	1.20617	7.50477	5.86795	0.312823
0.4880	-256.843	-4.30751	1.26517	-6.02703	-3.76219	-3.79121	0.276415	5.6729	6.83444	0
0.4887	-352.72	-0.923039	3.70513	-5.71636	-3.76219	-4.40085	0.879501	5.05242	7.73189	0.625646
0.4893	-349.641	-0.923039	3.70513	-6.02703	-4.97676	-5.62014	-0.0251286	-1.6546	6.83444	-0.312823
0.4900	-167.722	-2.76912	2.16886	-6.61731	-5.89509	-5.31532	-1.85952	-23.0166	4.9705	-2.8154
0.4907	34.8957	-0.615359	4.24734	-4.78434	-3.76219	-3.48639	0.577958	-31.26	7.11058	-1.87694
0.4913	85.2721	0.615359	5.51251	-5.09501	-3.43633	-4.40085	2.1108	-18.1415	8.97452	0.625646
0.4920	78.8574	-0.615359	4.87993	-7.23865	-4.68052	-5.92496	0.879501	-12.3208	7.11058	0.312823
0.4927	73.6402	2.46144	7.95247	-7.23865	-3.76219	-4.70567	1.50772	-11.7299	6.83444	0
0.4933	147.451	3.61523	8.85616	-6.61731	-3.1401	-4.40085	2.41235	-8.36161	7.45575	0.312823
0.4940	345.536	2.76912	7.31989	-7.54932	-4.05843	-5.01049	2.41235	-4.10694	7.11058	0.312823
0.4947	401.129	3.61523	8.22358	-9.38228	-4.97676	-5.31532	2.1108	-2.866	6.21313	0
0.4953	218.868	4.53827	9.12727	-9.66189	-5.56923	-5.31532	0.577958	-6.23428	5.31568	0.312823
0.4960	53.7975	4.84595	7.95247	-7.85999	-3.43633	-3.79121	2.1108	-7.15021	6.48927	0
0.4967	-4.44749	1.5384	2.43996	-6.92798	-1.6293	-2.87675	3.94519	-9.60256	8.00803	0.312823
0.4973	-19.7571	-5.53823	-5.78362	-7.85999	-2.22177	-4.09603	3.01543	-12.6458	8.00803	0.312823
0.4980	9.57921	-10.0765	-11.025	-8.76094	-2.84386	-4.40085	2.41235	-9.27755	7.45575	0.312823
0.4987	76.035	-10.0765	-9.48874	-9.38228	-3.1401	-5.01049	1.20617	-6.23428	6.83444	0
0.4993	133.767	-4.61519	-3.07255	-8.76094	-3.1401	-4.40085	1.50772	-3.48647	7.11058	0.312823
0.5000	114.266	0.30768	0.90369	-7.85999	-2.22177	-3.48639	3.3421	0.797751	8.00803	0
0.5007	9.2371	1.5384	0	-7.54932	-1.92553	-3.18157	3.3421	0.797751	8.00803	0
0.5013	-68.594	3.92291	0.90369	-7.23865	-2.84386	-3.48639	3.01543	-9.27755	8.00803	0
0.5020	-58.1595	7.30739	3.07255	-7.85999	-4.35466	-5.31532	2.1108	-23.3121	8.35321	0.312823
0.5027	-9.40815	8.84579	4.60882	-8.1396	-5.27299	-5.62014	1.50772	-30.3441	8.00803	0.312823
0.5033	30.6193	10.6919	7.591	-7.23865	-4.35466	-3.79121	2.71389	-30.0486	7.73189	0.312823
0.5040	49.5211	10.9995	8.85616	-7.23865	-3.43633	-2.87675	3.64365	-25.1439	7.73189	0
0.5047	50.7185	8.84579	7.04878	-8.76094	-4.05843	-2.87675	3.01543	-19.6483	7.11058	0
0.5053	38.5734	7.30739	5.51251	-10.9046	-4.68052	-2.87675	2.1108	-15.3936	4.9705	0.312823
0.5060	26.9415	6.99971	3.97624	-11.8055	-4.05843	-2.57193	2.71389	-10.489	4.07305	0
0.5067	27.8823	6.07667	2.16886	-11.4949	-2.518	-1.35264	4.24673	-4.4024	4.34919	0
0.5073	31.218	3.92291	0	-11.2152	-1.30344	-0.133359	4.54828	0.797751	4.34919	0
0.5080	26.9415	1.5384	-2.16886	-11.2152	-1.6293	-0.43818	4.54828	3.54556	3.72788	0
0.5087	23.0072	0	-3.70513	-12.1162	-2.84386	-1.65746	3.64365	3.54556	3.1756	0.312823
0.5093	21.1256	0.923039	-3.70513	-11.8055	-2.84386	-1.35264	2.41235	2.30461	3.1756	0.312823
0.5100	17.4478	2.76912	-3.07255	-10.9046	-2.84386	-1.35264	2.71389	1.38868	4.07305	0
0.5107	21.1256	3.30756	-2.43996	-9.97256	-2.518	-1.04782	3.3421	3.54556	4.9705	0
0.5113	24.2046	3.0768	-1.80738	-8.45027	-2.84386	-1.04782	3.3421	9.33664	6.21313	0.312823
0.5120	10.4345	2.15376	-2.71107	-8.76094	-4.35466	-2.57193	2.41235	13.0004	6.21313	0.625646
0.5127	-4.19091	2.76912	-2.16886	-9.66189	-4.35466	-2.26711	1.80926	9.95712	4.9705	0.312823
0.5133	-5.73042	5.15363	-0.632583	-9.38228	-3.43633	-0.743001	2.71389	4.75696	4.07305	0
0.5140	-2.05269	6.38435	-0.271107	-9.07161	-2.518	-0.133359	3.94519	5.6729	4.34919	0
0.5147	-0.256586	6.99971	0.90369	-9.38228	-1.30344	0.781104	4.24673	11.1685	4.69436	0.312823
0.5153	-2.05269	6.38435	0.271107	-10.5939	-2.22177	0.781104	3.64365	11.789	3.1756	0.312823
0.5160	-2.65139	5.46131	-1.53627	-11.8055	-2.84386	0.476283	3.3421	7.80023	1.31166	0.312823
0.5167	1.88163	6.38435	-0.632583	-11.2152	-1.0072	1.39075	3.94519	8.71617	1.03552	0
0.5173	6.15806	8.23043	0.90369	-10.9046	0.207365	2.91485	4.84982	12.3799	1.03552	0.312823
0.5180	6.15806	9.76883	2.16886	-10.9046	0.82946	3.52449	5.47803	12.3799	0.690348	0.312823
0.5187	6.84229	10.0765	3.07255	-10.9046	0.82946	3.52449	4.84982	11.464	-0.828417	0
0.5193	8.03969	8.53811	2.43996	-11.8055	-0.710966	2.61003	2.71389	13.5913	-3.24463	0
0.5200	5.90148	7.61507	1.26517	-11.8055	-1.6293	3.21967	1.80926	6.8843	-5.10857	-1.87694
0.5207	4.36196	8.84579	2.71107	-9.66189	0.207365	5.65824	3.3421	-2.866	-3.86595	-2.8154
0.5213	3.16456	10.6919	4.24734	-8.76094	1.1257	4.43896	4.24673	7.20931	-2.62332	0
0.5220	-1.45399	8.84579	2.43996	-10.2832	-0.385106	1.39075	2.41235	17.5801	-3.58981	0.312823
0.5227	-5.13172	5.46131	-1.26517	-9.38228	-1.0072	2.61003	1.20617	5.96836	1.93297	-2.18976
0.5233	-5.13172	5.76899	-2.16886	-6.61731	-0.0888707	5.0486	2.71389	0.472741	12.2882	-1.87694
0.5240	-6.32912	7.92275	-0.632583	-6.30663	0.533224	3.52449	3.94519	13.5913	6.48927	0.312823
0.5247	-10.0069	6.69203	-1.80738	-6.30663	-0.0888707	1.69557	2.41235	18.7915	-20.3653	0.312823
0.5253	-12.1451	4.84595	-3.07255	-1.42909	-0.385106	1.08592	0.879501	14.5073	-37.4168	0
0.5260	-17.2768	8.23043	0.632583	4.3494	0.82946	2.61003	2.1108	13.9163	-31.9631	0.312823
0.5267	-27.3692	11.6149	4.24734	3.44846	1.74779	3.82931	2.71389	13.5913	-27.6829	0.312823
0.5273	-31.9877	11.9226	4.87993	-2.95138	1.1257	3.82931	2.41235	12.0845	-41.697	0
0.5280	-26.4284	9.46115	3.34365	-7.85999	0.207365	3.82931	2.41235	10.548	6.83444	0.312823
0.5287	-15.1386	6.07667	0.632583	-13.0482	-1.6293	3.52449	0.879501	10.548	119.085	0.312823
0.5293	-5.38831	6.38435	1.26517	-19.7587	-1.6293	4.74378	0.879501	12.6754	163.681	0
0.5300	-5.73042	7.92275	3.70513	-19.1374	-0.0888707	6.5727	2.1108	15.1277	179.214	0
0.5307	5.90148	7.30739	3.34365	-12.7375	1.1257	6.87752	2.1108	16.3391	167.064	0
0.5313	39.7708	5.76899	1.53627	-9.07161	1.1257	5.65824	0.276415	16.9596	84.9128	0
0.5320	41.909	3.30756	-0.271107	-10.2832	-0.385106	4.13413	-1.25643	15.7482	13.2547	0.312823
0.5327	8.98051	3.92291	-0.632583	-7.23865	-1.30344	4.13413	-1.55797	13.0004	-20.3653	0.312823
0.5333	-9.06604	7.30739	0.90369	0.994149	0.82946	6.26788	-0.628215	10.2526	18.7084	0.312823
0.5340	-9.66474	7.61507	1.80738	8.01533	1.74779	7.79199	0.276415	10.2526	56.5395	0.312823
0.5347	-7.52652	6.99971	1.80738	18.3918	0.533224	7.18234	-0.326672	11.1685	5.31568	0.312823
0.5353	-5.13172	6.38435	1.80738	31.8128	-0.0888707	5.96306	-2.16106	10.2526	11.6669	0.312823
0.5360	-4.44749	6.69203	2.43996	43.1212	-1.30344	5.35342	-2.16106	9.33664	101.412	0
0.5367	-4.78961	9.15347	4.87993	49.2104	-2.22177	5.35342	-0.0251286	9.63211	157.261	0
0.5373	-4.19091	10.3842	5.78362	47.6881	-2.22177	4.43896	0.577958	9.63211	146.906	0.312823
0.5380	-4.78961	8.84579	4.87993	32.7448	-2.84386	4.13413	0.577958	9.33664	-22.7815	0.312823
0.5387	-4.44749	7.30739	3.97624	11.0599	-3.76219	5.35342	2.71389	9.33664	-200.408	0
0.5393	-2.65139	6.38435	3.97624	9.84829	-5.27299	5.0486	4.24673	9.63211	-157.399	0
0.5400	-0.256586	6.99971	4.24734	44.3328	-6.19132	4.13413	3.94519	10.548	-47.8411	0
0.5407	1.02634	6.38435	4.60882	76.3941	-5.89509	4.43896	3.01543	11.1685	48.6005	0
0.5413	0.0855287	3.92291	2.71107	55.0199	-3.76219	4.13413	2.1108	11.464	105.071	0.312823
0.5420	-1.71057	0.923039	0.90369	33.9564	-1.92553	2.30521	0.577958	10.8731	85.5341	0
0.5427	-2.05269	0	1.26517	71.7962	-1.30344	2.00039	-0.628215	9.95712	150.565	0.312823
0.5433	-1.11187	1.5384	3.07255	99.2596	0.207365	4.13413	-0.326672	9.33664	214.974	0.312823
0.5440	-0.256586	3.61523	5.78362	37.6223	1.45155	7.18234	2.1108	9.95712	111.215	0
0.5447	0.0855287	5.15363	7.95247	-73.4738	0.533224	10.2496	4.84982	10.8731	1.03552	0
0.5453	-1.11187	2.46144	5.78362	-109.17	-2.22177	9.94478	4.54828	9.33664	34.5864	0
0.5460	-2.3948	-0.30768	3.07255	-56.9772	-3.1401	8.40163	3.3421	7.80023	73.3149	0
0.5467	-1.71057	1.5384	4.24734	-36.535	-0.710966	10.2496	3.64365	9.33664	-117.359	0
0.5473	-1.71057	0.923039	5.51251	-46.9114	1.74779	12.993	4.24673	10.2526	-276.691	0.312823
0.5480	-2.3948	-1.5384	4.87993	5.87169	4.17692	13.2978	3.94519	8.42071	-135.377	0
0.5487	-1.71057	-2.15376	3.97624	89.5045	4.79902	10.8592	3.64365	9.63211	-45.701	0.625646
0.5493	-1.45399	-3.99983	2.16886	132.843	2.66612	7.48717	1.20617	8.12524	-106.383	0
0.5500	-0.855287	-4.92287	1.80738	104.448	2.04403	8.09681	-0.326672	-5.31834	-82.6346	-2.8154
0.5507	2.56586	-2.15376	4.87993	44.9542	4.79902	12.0785	2.71389	-7.44568	-38.0382	-1.87694
0.5513	4.70408	-0.923039	5.15103	43.1212	3.58445	11.7737	3.64365	6.58883	-90.2284	0.625646
0.5520	5.55936	-1.5384	3.70513	72.1069	-0.385106	8.70645	1.50772	11.1685	-180.871	0.312823
0.5527	7.44099	-0.30768	4.60882	44.0222	-2.518	8.70645	1.80926	9.95712	-166.512	0
0.5533	8.03969	-0.923039	4.60882	-5.09501	-4.05843	9.31609	3.01543	10.8731	-11.1836	0.625646
0.5540	8.6384	-2.46144	3.34365	-24.3256	-4.68052	9.01127	3.01543	10.2526	53.2258	0.625646
0.5547	7.44099	-5.84591	0.90369	-49.3347	-4.35466	8.40163	3.01543	8.42071	-20.0201	0.312823
0.5553	5.55936	-9.46115	-0.632583	-53.9326	-4.05843	8.40163	2.71389	7.80023	-74.9718	0
0.5560	7.44099	-9.15347	0.632583	1.30482	-1.92553	10.2496	3.3421	10.2526	-55.4349	0.312823
0.5567	8.29628	-8.84579	1.80738	51.0434	1.1257	12.6882	5.15136	12.0845	43.4229	0.312823
0.5573	4.96066	-9.15347	2.16886	30.6012	3.88069	13.6026	5.47803	11.1685	15.3257	0
0.5580	1.28293	-10.3842	1.26517	-30.7254	5.09525	13.2978	3.3421	9.04118	-231.543	0
0.5587	-1.11187	-12.5379	-0.271107	-83.8192	4.17692	12.993	2.71389	10.548	-464.397	0.625646
0.5593	-2.65139	-13.1533	-0.632583	-100.005	2.04403	13.9075	3.3421	7.50477	-453.42	-0.625646
0.5600	-4.78961	-10.6919	1.53627	-95.749	0.207365	14.8219	4.24673	-2.57053	-229.057	-1.87694
0.5607	-5.13172	-8.23043	3.34365	-122.591	-1.0072	13.2978	4.84982	2.30461	-35.8981	-0.312823
0.5613	-5.98701	-9.76883	1.80738	-179.661	-1.92553	10.8592	3.3421	11.1685	69.6561	0.625646
0.5620	-8.72392	-12.5379	-0.632583	-217.191	-2.84386	7.79199	1.20617	8.42071	263.437	0
0.5627	-11.5464	-12.5379	-0.90369	-186.061	-2.84386	4.43896	0.879501	7.50477	649.479	0.312823
0.5633	-12.7438	-10.0765	0.90369	-122.902	-1.0072	4.74378	1.80926	9.33664	776.434	0
0.5640	-11.2043	-8.23043	2.43996	-56.9772	-0.710966	7.18234	2.1108	8.71617	255.843	0
0.5647	-8.12522	-10.3842	1.53627	28.4575	-1.6293	8.70645	1.80926	6.58883	-189.086	0.312823
0.5653	-5.13172	-12.2303	0	76.6738	-1.0072	9.01127	1.50772	4.75696	-16.7064	0.312823
0.5660	-2.3948	-12.5379	-0.632583	77.2951	-1.0072	7.79199	0.276415	6.29337	234.166	0
0.5667	-1.71057	-12.5379	0	73.9398	-1.0072	6.87752	-0.929758	9.04118	133.444	0.312823
0.5673	-2.65139	-11.9226	0.90369	62.0411	-0.385106	8.40163	-0.326672	9.95712	-101.55	0.312823
0.5680	-2.9935	-12.5379	-0.271107	62.0411	-0.710966	7.48717	-1.55797	9.33664	-157.952	0.312823
0.5687	-2.65139	-14.384	-2.16886	92.2384	-1.0072	3.21967	-3.99545	8.12524	1.31166	0.312823
0.5693	-2.05269	-14.6917	-2.71107	108.114	-1.6293	-0.43818	-6.13138	7.20931	196.956	0
0.5700	-1.71057	-13.7687	-2.16886	74.5612	-1.30344	0.171462	-6.43292	7.80023	257.362	0
0.5707	-0.855287	-12.2303	-0.271107	37.933	1.74779	4.43896	-4.29699	9.63211	246.385	0
0.5713	-0.256586	-12.5379	-0.271107	38.5543	2.96236	6.87752	-2.76415	9.63211	250.32	0.312823
0.5720	-0.256586	-15.6147	-3.07255	23.2693	-0.0888707	7.18234	-2.76415	7.80023	159.401	0.312823
0.5727	-0.513172	-16.4609	-3.70513	-13.6385	-3.1401	8.70645	-0.929758	6.8843	-40.1782	0.312823
0.5733	-0.256586	-15.8455	-2.71107	-6.30663	-4.35466	11.4689	2.41235	7.50477	-223.88	0
0.5740	0.0855287	-14.9994	-1.26517	38.834	-4.97676	12.3834	4.84982	8.42071	-415.865	0
0.5747	0.427643	-13.1533	0.271107	98.98	-4.68052	5.65824	4.24673	10.2526	-522.041	0
0.5753	0.684229	-14.9994	0	141.697	-2.518	-3.18157	-0.929758	9.95712	-470.196	0
0.5760	0.427643	-17.9993	-1.26517	120.323	2.04403	-4.40085	-4.90008	8.12524	-407.65	0
0.5767	-0.256586	-17.6916	-1.26517	56.8529	6.93191	-0.43818	-3.6939	8.71617	-359.671	0
0.5773	0.0855287	-17.0762	-1.26517	-37.7466	8.76857	1.69557	-1.85952	9.95712	-375.273	0.312823
0.5780	1.02634	-17.3839	-1.53627	-158.909	5.71735	1.69557	-1.85952	8.71617	-335.923	0
0.5787	1.88163	-16.4609	-0.90369	-205.602	0.82946	1.39075	-1.55797	7.80023	-129.302	0.312823
0.5793	2.56586	-15.6147	-1.53627	-179.04	-4.68052	0.476283	-1.55797	9.63211	-93.266	0.312823
0.5800	0.427643	-16.4609	-1.80738	-230.612	-7.73175	1.08592	-1.85952	0.472741	-149.46	-2.18976
0.5807	-1.11187	-15.8455	0.632583	-349.63	-4.35466	4.13413	0.879501	-9.60256	-33.1367	-3.12823
0.5813	0.427643	-14.384	2.16886	-384.425	-1.30344	3.82931	3.01543	1.38868	29.0636	0
0.5820	-0.256586	-14.0763	1.80738	-318.501	-1.30344	3.52449	1.80926	12.6754	28.7875	0.625646
0.5827	-3.5922	-13.461	2.71107	-179.351	0.207365	6.5727	2.1108	10.548	48.6005	-0.312823
0.5833	-6.32912	-14.6917	2.43996	1.61549	2.66612	6.5727	1.80926	8.42071	-13.945	0.312823
0.5840	-4.44749	-14.9994	1.26517	95.5937	3.58445	5.0486	-0.326672	7.50477	-94.5086	0.312823
0.5847	-0.855287	-14.384	-0.271107	89.1938	2.04403	5.0486	-1.55797	6.29337	-111.905	0
0.5853	-0.513172	-14.6917	-2.43996	116.968	0.207365	5.96306	-0.929758	6.29337	-46.8746	0.312823
0.5860	-1.71057	-12.8456	-2.16886	185.937	1.1257	6.87752	1.20617	9.33664	148.08	0.312823
0.5867	-1.45399	-11.6149	-2.16886	188.982	2.66612	2.30521	0.879501	11.1685	310.449	0
0.5873	-0.855287	-12.8456	-3.70513	152.975	3.88069	-2.26711	-0.326672	10.2526	364.78	0
0.5880	-1.11187	-14.9994	-4.87993	162.761	5.71735	-1.04782	-0.0251286	9.95712	440.442	0.312823
0.5887	-5.73042	-17.9993	-7.04878	199.078	6.93191	1.69557	0.577958	9.95712	520.453	0.312823
0.5893	-11.803	-18.9223	-7.591	213.711	6.30982	4.13413	1.80926	10.548	444.101	0
0.5900	-16.6781	-15.3071	-4.24734	208.523	3.88069	5.65824	4.84982	12.0845	249.699	0
0.5907	-20.6979	-13.1533	-3.07255	196.624	1.45155	3.82931	4.84982	12.0845	281.455	0.312823
0.5913	-21.2966	-15.3071	-5.51251	143.841	1.1257	1.39075	0.577958	8.71617	449.623	0
0.5920	-17.0202	-17.6916	-7.31989	39.766	1.74779	-1.35264	-3.99545	5.37743	477.099	0
0.5927	-5.73042	-17.3839	-7.591	-44.4571	1.74779	-4.09603	-8.26731	4.13649	292.776	0
0.5933	8.98051	-14.384	-3.97624	-44.7678	-0.710966	-5.31532	-9.80015	5.05242	-114.943	0
0.5940	15.6517	-12.2303	-0.271107	22.0577	-6.81342	-8.38258	-9.80015	5.96836	-373.754	0.312823
0.5947	18.3887	-14.9994	-1.80738	120.323	-11.9975	-12.9549	-10.7048	5.6729	-477.168	0
0.5953	24.2046	-17.0762	-4.87993	240.273	-15.345	-16.3079	-11.6094	4.75696	-630.702	0
0.5960	25.402	-17.0762	-4.87993	303.433	-17.8038	-16.0031	-9.47348	5.05242	-504.989	0.312823
0.5967	25.1454	-15.3071	-2.43996	221.944	-13.8342	-1.65746	-5.20162	8.71617	-122.606	0
0.5973	26.5994	-12.5379	0.632583	85.2172	-8.62046	19.0894	-2.76415	11.464	167.962	0
0.5980	23.2638	-12.2303	0.90369	40.0766	-8.02799	27.9483	-4.59853	9.33664	400.195	0
0.5987	15.3096	-14.384	-1.53627	96.8363	-7.10965	30.082	-3.99545	4.75696	561.943	0.312823
0.5993	7.44099	-16.1532	-3.34365	162.761	-6.19132	29.4724	-0.0251286	4.4615	348.004	0
0.6000	6.50018	-15.3071	-3.70513	181.96	-8.02799	23.6617	2.71389	8.12524	-100.584	0
0.6007	11.0332	-11.3072	-1.80738	192.958	-11.3754	13.9075	4.54828	7.80023	-340.479	0
0.6013	11.7174	-8.23043	-0.90369	172.516	-13.8342	0.476283	5.15136	4.13649	-369.474	0.312823
0.6020	8.98051	-8.53811	-2.71107	46.7871	-15.9671	-11.7356	2.71389	1.09321	-336.199	0.312823
0.6027	7.69758	-9.15347	-3.97624	-95.749	-15.9671	-19.9658	0.577958	0.472741	-308.447	0
0.6033	8.6384	-11.6149	-4.87993	-155.864	-11.3754	-21.4899	0.577958	1.38868	-249.215	0
0.6040	9.8358	-14.0763	-5.78362	-197.059	-5.56923	-19.0513	-0.0251286	3.54556	-60.9577	0.312823
0.6047	10.7766	-12.8456	-3.70513	-200.104	1.74779	-17.832	-0.929758	7.50477	110.87	0.312823
0.6053	10.7766	-13.1533	-2.43996	-102.46	7.22815	-21.4899	-3.6939	8.42071	89.8142	0.312823
0.6060	8.98051	-15.6147	-3.07255	-10.2832	6.63568	-29.7391	-8.56885	6.58883	-20.6414	0.312823
0.6067	6.50018	-14.9994	-1.26517	-22.8033	3.25859	-33.3969	-9.80015	6.8843	-32.5844	0.312823
0.6073	4.96066	-12.8456	0.632583	-95.1277	-5.56923	-33.3969	-5.52829	9.33664	39.4879	0.312823
0.6080	5.90148	-11.6149	3.07255	-195.226	3.58445	-32.4825	1.20617	13.2959	69.6561	-0.312823
0.6087	5.90148	-11.9226	6.14509	-305.08	43.2504	-27.3005	7.91551	18.496	100.791	0.312823
0.6093	2.22375	-15.8455	4.24734	-335.898	73.7627	-21.7947	10.6545	19.4119	120.051	-0.312823
0.6100	0.0855287	-17.6916	2.43996	-230.021	89.6409	-22.4043	12.1874	8.71617	60.8196	-3.12823
0.6107	0.684229	-14.0763	3.97624	-1.42909	101.224	-28.8246	13.7202	-0.118185	105.071	-2.18976
0.6113	0.0855287	-11.6149	4.24734	253.384	95.7434	-38.8837	9.7499	3.54556	274.482	0.625646
0.6120	-0.855287	-11.9226	2.71107	423.352	74.9772	-48.6571	2.41235	4.75696	415.106	0.312823
0.6127	2.22375	-10.0765	1.80738	512.795	55.4553	-52.9245	-3.06569	-1.03412	561.598	0.312823
0.6133	9.57921	-6.69203	1.53627	577.787	37.4442	-52.9245	-7.03601	-6.23428	777.4	0.312823
0.6140	11.974	-4.30751	3.34365	625.693	8.44272	-49.2667	-8.26731	-8.68662	1149.7	0.312823
0.6147	6.15806	-2.76912	4.87993	616.839	-24.2024	-36.75	-2.76415	-6.23428	1464.37	0.625646
0.6153	3.16456	-2.46144	4.24734	508.507	-50.7452	-24.862	3.01543	-4.4024	1303.51	0.625646
0.6160	2.22375	-0.615359	5.15103	279.014	-75.4808	-25.7764	3.3421	-5.6138	807.293	0.312823
0.6167	-5.98701	0.615359	7.591	56.5422	-99.2686	-33.3969	1.50772	-6.52974	589.971	0
0.6173	-17.2768	-0.923039	9.75985	-78.0407	-107.504	-34.0066	1.80926	-6.85475	666.6	0.312823
0.6180	-25.5731	-4.61519	10.031	-235.52	-94.0844	-16.3079	7.61397	-6.52974	236.582	0
0.6187	-29.5074	-11.3072	7.31989	-384.736	-79.4208	9.62091	12.7905	-2.866	-807.085	0
0.6193	-24.2901	-15.3071	3.97624	-440.284	-74.2366	26.729	12.1874	2.62962	-1529.47	0
0.6200	-8.46734	-12.5379	1.53627	-312.411	-66.9196	34.0447	8.21705	6.58883	-1427.22	0
0.6207	2.82245	-10.9995	0.271107	-17.6151	-54.4185	38.9218	1.50772	9.33664	-909.326	0
0.6213	-2.05269	-10.9995	0.632583	174.66	-45.8573	37.3977	-5.20162	6.29337	-439.061	0.312823
0.6220	-11.5464	-9.76883	1.26517	166.706	-40.9694	19.6991	-11.0063	-0.738659	-200.408	0
0.6227	-14.5399	-9.46115	1.53627	111.158	-33.0599	4.43896	-16.5095	-3.78193	-186.394	0
0.6233	-9.06604	-9.76883	1.80738	53.187	-20.855	18.7846	-17.4141	-2.866	-321.84	0
0.6240	1.28293	-10.6919	1.53627	-71.3302	-14.1304	42.5987	-14.9766	-2.57053	-515.068	0
0.6247	11.0332	-9.76883	1.26517	-253.197	-10.783	58.1446	-10.7048	-2.57053	-663.355	0.312823
0.6253	18.9874	-7.92275	0.90369	-416.766	-1.30344	70.3565	-6.43292	-2.27507	-595.632	0.312823
0.6260	24.4612	-8.23043	0.90369	-414.032	3.25859	68.2227	-4.59853	-2.27507	-277.934	0.312823
0.6267	26.9415	-6.99971	3.97624	-309.056	-2.84386	51.7434	-2.76415	-4.69787	-169.549	0.312823
0.6273	24.4612	-2.76912	10.3924	-382.281	-8.32422	36.1784	0.879501	-6.85475	-442.996	0
0.6280	18.1321	-1.5384	14.0072	-534.573	-9.53879	23.6617	1.20617	-7.77069	-553.797	0
0.6287	16.2504	-3.38448	14.0072	-547.403	-10.783	7.18234	-2.4626	-9.27755	-444.515	0.312823
0.6293	14.4543	-3.69215	14.3687	-502.853	-9.53879	-11.7356	-5.20162	-9.89802	-460.393	0.312823
0.6300	4.96066	-5.53823	13.465	-440.905	-2.518	-25.1668	-6.13138	-10.489	-476.616	0.312823
0.6307	2.82245	-6.38435	12.1998	-337.42	13.9527	-33.3969	-4.59853	-8.36161	-424.081	0
0.6313	18.9874	-2.46144	10.6635	-243.132	30.1272	-42.5606	-3.6939	-3.78193	-352.077	0.312823
0.6320	31.8167	-1.23072	4.60882	-185.751	32.5563	-52.0101	-6.73447	-4.69787	-220.221	0.312823
0.6327	26.0007	-3.99983	-2.71107	-137.534	27.6684	-52.3149	-7.66422	-5.93881	-83.5321	0.312823
0.6333	17.1913	-6.15359	-7.31989	-88.4171	24.3209	-47.7426	-4.29699	-4.4024	25.75	0
0.6340	12.5727	-4.61519	-7.04878	-57.9092	24.943	-40.4269	-0.326672	-7.44568	58.6796	0
0.6347	9.57921	0.923039	-0.271107	-19.448	18.8406	-33.7018	2.41235	-8.06615	116.393	0.312823
0.6353	8.98051	2.15376	2.16886	71.7962	4.79902	-33.3969	0.879501	-6.52974	306.169	0
0.6360	8.98051	1.84608	1.53627	183.793	8.44272	-34.0066	-0.0251286	-7.77069	456.665	0
0.6367	11.7174	3.61523	2.43996	244.53	22.8101	-47.7426	2.1108	-9.27755	548.826	0
0.6373	15.053	4.84595	2.16886	260.405	28.9126	-48.9619	0.879501	-11.7299	737.705	0.312823
0.6380	7.69758	6.38435	2.71107	244.219	34.0967	2.30521	1.20617	-12.9413	916.851	0
0.6387	-1.71057	5.15363	1.53627	214.612	42.6283	49.9144	3.3421	-11.7299	684.273	0
0.6393	-7.52652	1.84608	-1.26517	244.84	60.6394	62.1263	3.01543	-8.68662	89.5381	0.312823
0.6400	-18.8163	0	-2.43996	324.497	67.0381	66.6986	0.577958	-16.605	-456.113	-2.50258
0.6407	-27.3692	-0.615359	-2.43996	320.209	58.5065	59.6878	-1.55797	-29.4282	-746.68	-3.12823
0.6413	-28.31	2.76912	0.632583	135.266	58.8028	37.7025	-0.929758	-19.9733	-643.818	0
0.6420	-32.2443	5.46131	3.07255	-23.7042	47.22	18.175	0.276415	-7.77069	-349.316	0.625646
0.6427	-38.0603	5.46131	1.26517	-32.8691	21.2697	6.87752	-2.4626	-9.89802	-146.699	0
0.6433	-37.1194	5.46131	1.26517	-200.725	16.7077	-9.90668	-7.33755	-7.77069	-31.6179	0.312823
0.6440	-25.5731	3.92291	1.80738	-516.864	13.3306	-33.3969	-11.6094	-4.69787	6.83444	0
0.6447	-7.52652	1.5384	1.80738	-591.954	-9.24255	-49.5715	-12.5392	-6.52974	-23.1266	0
0.6453	1.28293	3.30756	3.70513	-442.427	-28.172	-51.4004	-7.33755	-8.06615	-88.9858	0.312823
0.6460	-6.58571	4.23059	5.51251	-298.369	-37.9182	-47.7426	-1.25643	-9.27755	-354.493	0.312823
0.6467	-11.803	-0.923039	5.78362	-223.901	-44.6427	-42.5606	-2.16106	-7.77069	-653	0
0.6473	1.62504	-4.61519	3.97624	-235.209	-37.3257	-34.0066	-9.17194	-5.93881	-457.355	0
0.6480	0.0855287	-1.23072	0.632583	-224.833	-17.8038	-21.1851	-15.5797	-6.23428	-23.4028	0.312823
0.6487	-37.7181	3.0768	2.43996	-105.193	-4.68052	-8.6874	-17.4141	-5.02288	202.755	0
0.6493	-62.1793	1.84608	4.87993	9.25801	5.39149	-1.04782	-18.0423	-4.10694	295.538	0
0.6500	-67.6532	0	3.34365	82.4833	9.06481	11.1641	-17.4141	-3.191	146.906	0
0.6507	-92.371	0.615359	3.07255	170.683	-14.1304	15.7364	-12.8407	-2.27507	-232.44	0
0.6513	-110.418	0.923039	2.71107	250.65	-35.7853	1.69557	-9.47348	-6.85475	-346.555	0.312823
0.6520	-98.7856	2.76912	3.34365	261.306	-13.5083	-1.04782	-4.90008	-13.5618	-66.4114	0.312823
0.6527	-45.0736	4.84595	5.15103	176.493	19.1368	9.94478	0.276415	-14.1527	225.329	0
0.6533	51.3172	1.84608	3.97624	109.636	25.8614	15.7364	3.64365	-10.814	445.343	0
0.6540	93.7394	-1.5384	1.80738	120.012	32.5563	20.0039	8.82014	-8.68662	658.385	0
0.6547	86.4695	-1.23072	2.16886	71.2059	69.4969	23.0521	12.7905	-8.68662	638.848	0
0.6553	143.517	1.23072	3.70513	16.5588	110.999	21.2232	13.092	-9.60256	368.439	0
0.6560	177.729	5.76899	7.04878	62.6625	104.275	16.6508	10.9561	-11.7299	77.9402	0.312823
0.6567	91.9433	8.23043	7.04878	47.9988	56.6699	31.6061	6.38266	-14.4777	-208.347	0.312823
0.6573	-7.26994	6.38435	2.43996	-38.3679	12.7381	65.4794	1.50772	-18.4369	-383.833	0.312823
0.6580	-63.1202	4.53827	0	-106.405	-24.7949	80.4346	-2.4626	-20.8893	-327.984	0
0.6587	-111.273	3.61523	-0.90369	-174.473	-50.1231	74.0143	-5.82984	-14.7732	-182.735	0
0.6593	-178.156	2.46144	-2.43996	-210.791	-54.4185	71.271	-3.06569	-1.6546	-20.9866	0
0.6600	-184.571	2.76912	-1.26517	-226.977	-63.2463	84.3973	6.08112	10.2526	143.247	-0.312823
0.6607	-13.9412	1.84608	-1.26517	-251.986	-79.7466	98.743	12.1874	17.8755	247.283	0
0.6613	161.222	-0.30768	-3.97624	-270.284	-92.544	89.5793	10.6545	14.2118	237.825	0
0.6620	131.629	-0.30768	-2.71107	-248.009	-109.044	69.1372	-0.0251286	-7.44568	-140.003	-2.50258
0.6627	22.0664	5.46131	4.24734	-187.584	-119.413	57.2301	-16.2079	-11.4049	-638.295	-1.87694
0.6633	-4.19091	12.2303	10.3924	-158.909	-91.3294	43.5132	-23.2188	11.1685	-621.244	0.625646
0.6640	-33.7838	11.9226	12.4709	-175.374	-46.7756	10.2496	-18.3439	19.4119	-360.638	0
0.6647	-195.519	10.0765	16.4472	-157.386	-24.4987	-15.3935	-15.8813	14.8323	-258.397	-0.312823
0.6653	-319.107	11.6149	20.4234	-78.9417	-22.9879	-10.8211	-18.3439	15.7482	-214.767	0.312823
0.6660	-351.437	8.84579	14.9109	-8.1396	-47.3977	-10.8211	-11.9361	23.0757	-170.171	0.312823
0.6667	-521.725	0	1.26517	11.9919	-74.8587	-17.5272	-0.0251286	37.1102	-108.868	0.312823
0.6673	-622.734	-7.61507	-9.48874	-2.3611	-79.4208	-13.2597	6.08112	45.3536	-62.1313	0
0.6680	-440.9	-12.8456	-14.0072	-10.9046	-96.2173	-22.4043	8.21705	43.1968	-145.456	-0.312823
0.6687	-122.563	-13.461	-12.1998	3.13778	-121.842	-44.6944	5.77958	48.1014	-269.098	0.312823
0.6693	384.879	-10.6919	-6.14509	-2.95138	-121.545	-61.4786	1.80926	56.0199	-246.799	-0.312823
0.6700	741.705	-10.3842	-1.80738	-31.0361	-115.147	-74.3001	6.38266	48.3969	-124.746	-3.44105
0.6707	543.877	-4.61519	4.24734	-27.6808	-116.983	-75.2146	21.9373	41.9854	-4.14209	-2.50258
0.6713	217.072	6.38435	9.48874	12.6133	-101.698	-62.0882	37.8185	40.7739	44.6655	0.312823
0.6720	29.0797	12.7687	13.7361	66.2973	-27.8461	-37.3596	50.6341	27.6554	50.7406	0.312823
0.6727	-179.952	15.5378	17.7123	85.5279	82.6201	-11.7356	57.3435	21.8347	119.43	0
0.6733	-338.009	14.6148	13.465	32.4341	141.216	-1.96229	51.8654	26.4144	196.335	0.312823
0.6740	-303.541	10.6919	3.70513	-24.6363	165.329	6.26788	43.3217	20.3279	223.466	0.312823
0.6747	-21.5532	4.53827	-6.68731	-1.11842	192.168	28.5579	32.3154	11.789	235.685	0.625646
0.6753	454.157	0.615359	-13.1035	70.2739	177.534	35.264	12.4889	8.42071	293.95	0.312823
0.6760	836.299	-0.923039	-16.1761	104.448	138.461	19.3942	-9.47348	2.62962	369.957	0
0.6767	811.582	-4.61519	-22.5922	83.1047	101.846	-3.18157	-24.7517	1.09321	306.514	0
0.6773	440.473	-8.23043	-28.3759	73.3185	49.3529	-36.4452	-28.3953	10.548	92.5756	0.312823
0.6780	88.8643	-8.84579	-27.7433	105.69	-1.6293	-59.6497	-17.4141	16.3391	-74.0743	0
0.6787	-74.4099	-3.0768	-18.3449	126.133	-19.6108	-61.1738	-1.55797	3.22055	-45.9772	0
0.6793	-118.286	8.53811	-2.43996	126.133	-17.4779	-67.2702	6.68421	-22.3961	67.8612	0
0.6800	-180.893	19.8453	12.4709	141.697	-12.9159	-76.129	3.64365	-45.59	76.9738	0.312823
0.6807	-234.263	28.6911	21.3271	160.928	-1.6293	-74.6049	-5.52829	-60.245	13.5308	0.312823
0.6813	-223.315	24.0759	14.0072	170.062	-6.81342	-68.1846	-18.3439	-58.4131	15.0496	0.312823
0.6820	-331.338	9.46115	-3.97624	178.326	-40.9694	-68.1846	-30.8579	-43.7581	66.9637	0.312823
0.6827	-399.077	3.30756	-9.12727	166.706	-69.0525	-73.3857	-32.6672	-26.6803	39.4879	0
0.6833	-13.9412	1.23072	-7.95247	106.591	-87.3599	-76.129	-18.947	-5.6138	-48.7385	0.312823
0.6840	461.513	-0.615359	-9.75985	-0.528142	-90.4111	-83.7496	7.61397	7.50477	-91.7472	0.312823
0.6847	357.424	2.46144	-9.75985	-62.7867	-74.2366	-87.4074	29.5764	5.05242	-91.7472	0.312823
0.6853	-47.8105	0.30768	-13.1035	-31.0361	-50.7452	-69.4039	40.5576	2.92509	-67.9302	0.312823
0.6860	-294.988	-6.15359	-18.616	18.0811	49.0566	-46.2185	42.3919	9.63211	-20.9866	0
0.6867	-273.948	-9.46115	-22.5922	28.7682	190.035	-31.568	27.1389	13.2959	31.825	0.312823
0.6873	170.715	-10.6919	-24.1285	22.9897	241.314	-26.9957	-3.99545	4.13649	77.3189	0.312823
0.6880	694.322	-2.46144	-12.8324	-5.71636	229.405	-34.3114	-35.7329	-12.9413	109.627	0
0.6887	740.422	14.9225	10.6635	-120.447	198.567	-38.8837	-53.7249	-22.1007	123.986	0.312823
0.6893	445.006	30.8449	33.2558	-244.343	118.939	-23.9475	-55.8609	-21.4802	114.874	0.312823
0.6900	156.346	43.6136	49.1607	-262.362	-3.76219	1.39075	-42.4422	-20.2688	99.8933	0
0.6907	-128.721	50.6133	55.848	-170.807	-130.403	24.881	-13.4438	-15.9846	100.791	0
0.6913	-408.57	48.5364	54.5829	-58.8101	-204.254	59.9926	19.1983	-4.10694	100.791	0
0.6920	-482.125	36.6139	42.7445	-27.6808	-188.998	90.1889	36.9139	13.0004	91.333	0
0.6927	-256.244	16.7685	16.4472	16.5588	-133.454	89.2744	28.9733	19.7074	91.6782	0.312823
0.6933	50.7185	-3.38448	-15.2724	118.179	-119.709	66.3938	7.61397	14.2118	91.6782	0.312823
0.6940	290.284	-22.3068	-43.0156	171.304	-152.058	38.9218	-9.47348	23.9916	76.6976	0.312823
0.6947	425.505	-35.0755	-58.5591	135.888	-184.11	9.31609	-13.1423	50.5242	53.2258	0
0.6953	324.496	-40.6137	-66.8731	49.5211	-194.479	-25.7764	-0.628215	66.7156	37.0026	0.312823
0.6960	116.062	-42.7675	-72.6567	15.3472	-171.283	-44.6944	29.8779	67.927	45.9081	0.312823
0.6967	-92.371	-31.7679	-59.5532	39.1446	-130.403	-45.9137	71.3904	49.9333	79.7352	0.312823
0.6973	-369.484	-11.3072	-33.8884	30.2905	-85.5528	-29.4343	88.1763	14.2118	120.949	0.312823
0.6980	-401.557	3.92291	-14.0072	16.2481	-4.35466	45.0373	60.0825	-11.7299	149.046	0
0.6987	-103.062	17.0762	3.70513	68.7516	86.8859	123.757	8.21705	-21.8052	164.924	0.312823
0.6993	-36.2642	29.6142	18.3449	107.213	132.062	150.315	-32.9939	-34.5988	174.037	0.625646
0.7000	-237	27.4604	17.9834	60.5188	127.174	151.229	-50.9859	-46.5059	164.924	-2.18976
0.7007	-323.983	15.8455	8.22358	15.0365	118.613	110.04	-55.8609	-41.9263	138.07	-3.44105
0.7013	-367.346	14.3071	3.97624	7.11438	157.064	54.7916	-49.7798	-34.3033	105.968	0
0.7020	-467.756	18.3069	4.60882	-1.11842	177.83	37.7025	-33.8985	-45.2945	76.4215	0.938468
0.7027	-308.416	17.0762	3.34365	-6.92798	129.011	27.0338	-16.5095	-59.9495	68.1373	0
0.7033	179.525	14.3071	3.07255	-7.54932	84.753	-5.31532	-0.929758	-64.8247	81.5991	0
0.7040	411.478	13.9994	5.15103	-14.5705	76.5177	-44.0847	6.08112	-58.7086	83.1179	0
0.7047	120.595	18.3069	10.3924	-25.5372	55.4553	-58.4304	9.44835	-37.967	61.7171	0
0.7053	-275.146	26.2297	18.8871	-32.2477	17.3002	-49.5715	10.353	-29.1327	35.829	0.312823
0.7060	-518.731	35.0755	28.3759	-46.6007	-6.81342	-56.9063	8.5186	-45.59	22.0911	0.312823
0.7067	-687.479	42.9982	39.672	-64.309	-49.2344	-75.2146	18.5952	-53.538	-30.0992	0.312823
0.7073	-664.558	44.2289	45.1845	-63.6877	-126.433	-81.9206	31.4108	-48.9583	-138.139	0.312823
0.7080	-322.186	34.4601	34.7921	-58.4995	-155.435	-66.3557	32.6169	-45.59	-185.773	0
0.7087	148.991	21.9222	20.7849	-61.8547	-113.932	-17.2224	32.9436	-24.553	-144.559	0
0.7093	678.841	10.0765	11.5672	-63.0974	-80.0429	11.7737	29.2748	14.8323	-104.588	0
0.7100	1130.43	-2.46144	2.16886	-56.0762	-25.7133	17.2605	21.6357	53.2721	-94.7847	0
0.7107	1027.28	-6.15359	-2.71107	-44.7678	125.634	71.271	18.5952	72.5067	-90.8497	0.312823
0.7113	345.878	0.615359	1.26517	-33.1797	296.236	140.542	18.5952	79.5092	-82.2894	0.312823
0.7120	-272.751	8.23043	4.24734	-25.2265	403.977	171.976	18.5952	89.5845	-73.1768	0.312823
0.7127	-644.459	6.99971	-1.53627	-29.2031	452.174	171.367	11.5843	88.9936	-68.5515	0.312823
0.7133	-1266.68	-10.0765	-23.767	-34.3913	430.815	131.397	1.50772	82.582	-71.5891	0
0.7140	-1608.79	-32.9986	-52.7755	-36.535	344.759	39.5315	-0.628215	91.4164	-81.0468	0
0.7147	-621.879	-38.4599	-59.5532	-53.3113	205.291	-60.8689	6.38266	97.5325	-89.331	0.312823
0.7153	1028.82	-30.8449	-46.9919	-76.8291	55.1591	-112.136	30.8077	91.7414	-94.7847	0
0.7160	1955.36	-23.8452	-32.9847	-60.9538	-55.3368	-105.735	61.3138	83.7934	-96.3035	0.312823
0.7167	1710.57	-6.38435	-8.85616	-4.19407	-134.372	-70.6232	59.4794	67.6316	-89.6071	0.312823
0.7173	727.336	16.4609	17.9834	29.7002	-181.355	-44.6944	24.7014	41.0694	-76.2144	0.312823
0.7180	-277.968	21.3837	19.5197	26.0343	-188.998	-27.6054	-17.7157	24.9076	-50.8786	0
0.7187	-775.061	14.6148	3.97624	27.8672	-165.181	-5.62014	-52.8203	17.5801	-21.884	0.312823
0.7193	-910.88	10.3842	-7.95247	69.373	-154.516	-5.31532	-59.5297	-4.4024	-10.2862	0.312823
0.7200	-962.454	3.61523	-20.4234	112.991	-178.63	-55.0583	-39.4016	-27.8917	-10.2862	0
0.7207	-383.853	-7.61507	-34.1595	94.382	-183.192	-115.794	-19.2485	-38.2625	-14.2212	0
0.7213	611.958	-15.8455	-38.4068	34.2671	-147.496	-134.102	6.38266	-39.7989	-29.2017	0
0.7220	870.767	-17.3839	-32.6232	-15.1608	-96.8394	-113.05	38.1201	-28.8077	-45.9772	0
0.7227	403.268	-10.9995	-20.4234	-28.6129	-51.3673	-73.3857	36.5872	-15.3936	-45.701	0.312823
0.7233	-87.8379	0	-7.591	-1.42909	-22.662	-46.8281	11.2576	-8.36161	-10.9075	0.312823
0.7240	-374.359	7.61507	-2.16886	51.0434	-26.0391	-57.2111	-6.43292	-9.89802	43.1467	0.312823
0.7247	-474.171	12.7687	0.632583	93.1704	-29.0903	-110.307	-14.3736	-17.521	76.6976	0
0.7253	-426.874	25.3066	12.1998	90.4054	-1.0072	-165.232	-0.628215	-27.3008	82.7727	0
0.7260	-282.501	37.8446	26.8396	71.4855	10.2794	-155.173	35.6826	-44.0831	75.8002	0
0.7267	-129.319	44.8443	38.1357	65.3964	3.25859	-79.1773	69.2544	-55.3698	80.6326	0
0.7273	-154.037	47.3057	45.4556	62.6625	-10.1609	14.5171	71.3904	-55.0448	56.5395	0.312823
0.7280	-232.467	41.7675	44.5519	59.5868	-43.1319	83.178	42.3919	-52.0016	-48.3934	0
0.7287	-184.827	30.8449	35.0632	52.8763	-51.6635	188.151	16.4592	-32.7669	-122.882	0
0.7293	-347.845	10.9995	12.4709	52.8763	-23.2841	347.763	2.71389	13.9163	-91.4711	0.312823
0.7300	-299.008	-12.8456	-11.2961	60.5188	42.0358	417.033	-0.0251286	52.6811	-45.701	-2.18976
0.7307	240.592	-21.3837	-16.1761	51.9754	142.134	363.937	14.0218	64.2633	-48.1172	-3.44105
0.7313	514.626	-8.84579	-1.53627	33.9564	179.963	303.202	35.9842	81.0456	-74.0743	-0.312823
0.7320	672.084	17.9993	25.6648	33.0555	110.703	273.005	53.3731	92.6573	-94.7847	0.938468
0.7327	775.831	39.9983	48.5281	40.0766	10.2794	231.797	50.9357	76.7909	-96.6487	0
0.7333	337.924	43.6136	52.5044	36.7214	-57.4697	179.311	35.6826	68.2225	-80.7707	0
0.7340	-536.436	34.1524	41.8408	40.6669	-51.3673	120.099	23.1686	82.582	-69.1728	0.312823
0.7347	-1211.17	16.1532	23.4959	59.5868	22.188	67.0035	8.5186	99.3643	-70.4155	0.312823
0.7353	-1316.12	-3.0768	4.24734	69.9632	96.6617	88.9696	6.68421	114.315	-75.5931	0
0.7360	-981.698	-15.6147	-10.6635	63.8741	154.339	117.661	21.6357	115.851	-84.4295	0.312823
0.7367	115.464	-22.3068	-21.056	58.0645	188.821	7.18234	24.3999	102.112	-90.2284	0.312823
0.7373	1466.47	-27.4604	-32.6232	55.0199	117.694	-159.745	15.5295	106.987	-88.4335	0.312823
0.7380	2069.79	-35.3831	-49.1607	43.1212	-25.1208	-242.142	27.742	128.349	-88.4335	0.312823
0.7387	1698.68	-35.6908	-54.9443	30.0109	-113.014	-297.677	54.6045	132.929	-85.0508	0.312823
0.7393	356.227	-27.4604	-50.3355	19.0131	-154.813	-333.379	59.1779	103.028	-71.0368	0
0.7400	-893.432	-14.384	-40.5757	6.18237	-167.314	-285.484	47.5936	38.0261	-51.1548	0.312823
0.7407	-913.019	9.46115	-16.4472	-1.42909	-134.372	-202.763	32.0138	-26.0599	-21.5388	0.312823
0.7413	-12.4017	29.6142	1.26517	-17.9258	-93.4623	-112.746	-3.06569	-62.9928	4.34919	0
0.7420	666.012	31.3833	-2.43996	-43.8668	-75.7771	10.8592	-45.8094	-87.7231	12.012	0.312823
0.7427	676.019	19.5377	-14.9109	-40.5116	-68.1342	163.136	-72.6468	-91.3868	10.1481	0.312823
0.7433	671.742	4.84595	-24.3996	-5.71636	-56.2551	267.195	-79.9843	-66.3611	7.11058	0
0.7440	552.173	3.0768	-20.7849	17.1801	-46.7756	286.417	-76.3156	-39.7989	5.31568	0.312823
0.7447	42.5078	10.0765	-11.025	15.0365	-59.3064	273.615	-69.3047	-25.4689	1.31166	0.312823
0.7453	-122.563	6.07667	-10.3924	7.70466	-95.5952	226.615	-63.5	-8.68662	-9.04355	0.312823
0.7460	-80.4825	-0.923039	-11.2961	3.75913	-107.208	123.452	-53.1219	8.71617	-18.8465	0.312823
0.7467	-344.424	6.38435	-1.53627	-2.95138	-81.8795	7.79199	-28.722	5.37743	-20.9866	0.312823
0.7473	-521.468	16.4609	7.95247	-9.66189	-29.0903	-65.7461	-12.5392	-15.0686	-13.5998	0
0.7480	-400.018	18.6146	10.3924	-6.30663	61.5578	-132.273	-19.2485	-32.176	-0.483243	0.312823
0.7487	-106.996	19.8453	10.6635	-1.42909	114.643	-189.046	-28.0938	-47.7469	9.25066	0
0.7493	129.49	19.5377	9.12727	-2.67178	91.7738	-172.872	-27.1891	-55.3698	16.9135	0
0.7500	32.4154	16.7685	7.04878	-2.95138	68.2823	-139.608	-17.1126	-48.0424	25.75	0
0.7507	-176.873	18.9223	8.85616	-0.21747	54.2407	-98.0952	0.879501	-37.0511	32.4463	0
0.7513	-228.789	22.8452	11.5672	4.3494	10.9015	-7.46811	16.4592	-31.26	40.3853	0
0.7520	-278.567	23.4606	11.2961	9.53762	-25.7133	39.5315	14.0218	-32.176	55.0207	0
0.7527	-197.058	24.0759	11.5672	15.9685	-31.2232	10.2496	-0.929758	-34.0078	69.6561	0.312823
0.7533	77.9166	26.5374	14.9109	19.6344	-53.2039	15.7364	-13.4438	-28.5122	76.0763	0
0.7540	157.544	23.4606	13.7361	17.1801	-95.0028	52.6578	-29.6266	-19.3529	73.0388	0.312823
0.7547	106.911	15.8455	7.31989	16.8695	-110.555	12.0785	-43.0453	-4.10694	68.1373	0.312823
0.7553	149.59	10.0765	2.71107	19.3238	-127.352	-102.668	-16.5095	15.1277	68.1373	0.312823
0.7560	178.584	5.15363	-0.271107	17.8015	-92.2478	-207.05	41.1858	26.4144	70.2774	0
0.7567	164.301	6.38435	1.26517	19.6344	61.5578	-215.889	84.5075	30.6986	73.3149	0
0.7573	126.753	11.9226	6.4162	26.345	190.035	-88.6458	89.3824	29.7827	75.8002	0.312823
0.7580	48.5803	13.3841	8.58505	32.7448	247.712	73.0999	50.9357	21.8347	75.1789	0.312823
0.7587	-24.9744	13.0764	9.75985	36.1	281.602	120.099	-2.4626	21.5393	76.6976	0.312823
0.7593	11.7174	11.3072	7.95247	29.7002	237.344	81.3491	-36.336	26.119	77.9402	0.312823
0.7600	84.5879	12.7687	8.85616	22.679	125.041	70.3565	-51.589	23.3712	72.4175	0
0.7607	158.143	20.4607	16.1761	27.5566	19.7589	91.1034	-56.4891	22.4552	66.9637	0.625646
0.7613	285.153	26.845	23.767	32.4341	-51.0414	110.345	-60.1327	21.2438	58.0582	0
0.7620	252.737	28.6911	30.1832	26.6246	-96.8394	120.099	-65.9374	7.80023	43.768	-2.8154
0.7627	57.1332	27.4604	29.9121	15.0365	-121.842	103.62	-61.9671	-4.69787	35.2077	-3.12823
0.7633	-64.9163	27.7681	24.1285	4.66007	-133.454	40.1411	-50.9859	0.177278	33.0676	0
0.7640	-176.873	31.3833	21.6886	2.51644	-124.893	-38.5789	-42.7438	9.63211	33.689	0.312823
0.7647	-357.852	30.8449	19.8812	2.82711	-110.881	-102.058	-27.7922	19.0869	36.1052	-0.312823
0.7653	-463.736	20.153	11.2961	-1.73976	-125.219	-169.5	-7.33755	37.1102	33.3438	0
0.7660	-317.568	7.61507	-0.632583	-9.38228	-126.433	-221.395	1.20617	58.1472	23.6099	0.312823
0.7667	-114.951	1.5384	-7.31989	-16.6831	-103.534	-243.666	3.01543	70.3794	12.9095	0.312823
0.7673	-312.436	-7.30739	-15.9049	-22.182	-90.1149	-259.536	11.8858	84.4139	2.20911	0.312823
0.7680	-535.495	-21.9991	-31.4484	-24.6363	-72.7258	-241.228	23.4701	109.44	-6.28216	0
0.7687	-126.839	-35.0755	-45.1845	-21.281	-55.633	-175.31	26.2091	120.431	-9.04355	0
0.7693	368.714	-40.6137	-51.2392	-17.9258	-48.316	-130.749	32.6169	106.692	-8.42224	-0.312823
0.7700	307.732	-36.3062	-46.3593	-24.6363	-36.4074	-134.102	46.9654	78.5933	-11.5288	0
0.7707	137.102	-21.6914	-30.5447	-32.5584	-14.4267	-125.872	61.6153	44.4377	-16.7064	0.312823
0.7713	-43.2775	-0.923039	-9.48874	-28.6129	2.66612	-62.6979	71.0888	3.54556	-17.6039	0
0.7720	-315.43	15.8455	6.68731	-14.5705	13.0344	51.4385	58.5748	-37.967	-9.04355	0
0.7727	-14.5399	22.2298	12.1998	-3.8834	33.1784	222.024	35.6826	-64.8247	2.83043	0
0.7733	503.593	24.6913	12.4709	5.59209	56.3736	422.539	11.2576	-84.0593	12.012	0.312823
0.7740	393.175	24.999	10.6635	17.8015	62.4761	496.077	-25.0532	-103.264	21.4698	0.312823
0.7747	126.753	21.9222	6.68731	22.0577	51.4858	381.026	-51.2875	-110.917	28.1662	0
0.7753	84.3313	20.7684	5.15103	19.9141	38.0663	168.928	-58.3235	-106.337	27.5449	0
0.7760	51.0606	20.4607	5.15103	7.11438	33.7709	-37.9693	-47.6438	-99.3053	17.811	0
0.7767	37.6326	20.7684	7.31989	-11.8055	18.5147	-146.009	-7.66422	-87.1026	7.11058	0.312823
0.7773	63.8899	22.2298	11.025	-14.8501	32.5563	-199.41	39.9545	-68.193	7.11058	0.312823
0.7780	84.93	17.9993	8.22358	-6.61731	129.603	-249.458	51.2372	-55.6653	12.9095	0
0.7787	117.26	12.7687	3.70513	-2.67178	234.293	-241.533	33.5467	-50.4947	19.0536	0
0.7793	131.287	11.3072	2.43996	-6.92798	294.725	-188.437	36.9139	-44.9991	21.4698	0.312823
0.7800	90.4038	10.3842	2.16886	-6.30663	305.686	-136.846	45.4576	-40.4194	23.886	0
0.7807	37.8892	13.9994	6.4162	2.82711	248.334	-96.5711	22.5655	-34.5988	29.4088	0
0.7813	12.5727	17.6916	9.75985	5.59209	162.278	-41.951	4.24673	-33.6828	27.89	0
0.7820	8.29628	14.3071	6.4162	-2.05043	74.0589	69.7468	2.1108	-37.3466	19.6059	0
0.7827	9.57921	10.6919	3.97624	-9.66189	-33.9782	202.192	-10.7048	-35.5147	15.947	0
0.7833	12.5727	9.46115	3.97624	-10.2832	-134.372	279.102	-11.0063	-30.3441	15.947	0
0.7840	17.79	9.46115	4.60882	-6.92798	-198.152	247.362	10.9561	-26.0599	16.2922	0
0.7847	18.3887	8.84579	4.24734	-2.05043	-215.541	128.349	22.867	-22.3961	20.2272	0
0.7853	14.4543	7.61507	3.07255	-4.47367	-172.202	79.5202	15.8561	-19.9733	22.0911	0
0.7860	8.98051	7.61507	3.07255	-5.71636	-114.525	152.144	6.98575	-19.3529	20.5724	0
0.7867	1.28293	6.38435	2.43996	8.326	-66.6234	193.047	9.12168	-19.9733	25.75	0
0.7873	-2.9935	5.76899	2.16886	16.8695	15.4635	162.832	12.7905	-19.3529	33.689	0.312823
0.7880	-5.98701	4.84595	2.16886	16.5588	112.214	87.7503	7.28729	-18.7324	38.8666	-0.312823
0.7887	-11.2043	3.30756	0.271107	26.9352	175.994	-15.6983	-7.96577	-16.3096	44.3203	0.312823
0.7893	-11.803	3.30756	-0.632583	33.0555	187.606	-57.5159	-29.6266	-13.2368	45.5629	0.312823
0.7900	-12.4017	2.46144	0	25.4129	139.083	-53.839	-47.0156	-25.7644	41.0066	-2.8154
0.7907	-25.5731	2.15376	1.53627	23.8906	68.8748	-70.3184	-47.3172	-37.6716	37.6239	-2.8154
0.7913	-42.9354	4.53827	2.16886	29.0789	13.0344	-48.6571	-36.336	-25.4689	37.3478	0.312823
0.7920	-49.0079	3.92291	0	26.9352	-25.7133	47.171	-30.8579	-16.3096	34.5864	0.312823
0.7927	-44.7315	2.76912	-0.632583	15.6579	-63.2463	111.869	-29.9282	-20.2688	27.89	-0.312823
0.7933	-39.0011	4.23059	1.80738	4.66007	-110.555	57.535	-29.3251	-21.1847	23.886	0.312823
0.7940	-33.7838	6.69203	4.24734	1.30482	-128.566	-41.0365	-32.9939	-18.1415	25.1287	0
0.7947	-29.1653	7.30739	3.97624	-0.528142	-102.942	-83.7496	-39.075	-16.9005	24.5073	0
0.7953	-27.7113	2.76912	-0.271107	-1.42909	-85.227	-72.4712	-36.336	-20.2688	20.5724	0.312823
0.7960	-27.7113	2.15376	-0.271107	4.97075	-91.0332	-35.8355	-23.8219	-19.9733	22.0911	0.312823
0.7967	-27.1126	4.23059	1.53627	9.25801	-80.9612	-11.126	-16.811	-15.6891	23.6099	0.312823
0.7973	-29.1653	0.615359	-1.80738	5.59209	-52.2856	-14.479	-20.4798	-16.9005	19.0536	0.312823
0.7980	-31.0469	2.15376	-0.632583	6.18237	-26.6316	-21.7947	-19.8516	-15.9846	16.9135	0
0.7987	-31.9877	3.61523	0.632583	5.87169	-9.86465	-37.6644	-17.4141	-14.4777	14.4283	0
0.7993	-32.843	0.30768	-2.16886	-0.21747	-7.40589	-50.1812	-24.7517	-17.8164	8.00803	0
0.8000	-32.5864	2.15376	-0.632583	-1.73976	-15.345	-30.6536	-26.8876	-17.8164	4.07305	-0.312823
0.8007	-32.843	2.76912	-0.632583	-1.11842	-21.4475	-3.18157	-22.9173	-17.8164	1.65683	0
0.8013	-33.1851	-0.30768	-2.71107	-2.3611	-21.7437	-5.31532	-26.2594	-19.6483	0.0690348	0.312823
0.8020	-29.8495	1.23072	-0.90369	-1.42909	-29.6828	-26.9957	-23.2188	-17.521	0.690348	0
0.8027	-25.8297	1.84608	-0.632583	-1.73976	-43.1319	-48.0474	-11.6094	-16.3096	0.0690348	0
0.8033	-21.5532	-0.615359	-1.80738	-1.42909	-37.9182	-63.3075	-4.90008	-15.0686	-1.10456	0
0.8040	-18.5597	0	-0.271107	0.0932015	-20.855	-55.3631	7.28729	-12.3208	-1.44973	0
0.8047	-19.415	-0.615359	-1.26517	-5.40569	-13.5083	-31.8728	18.8967	-14.7732	-2.62332	0.312823
0.8053	-21.5532	-1.23072	-1.80738	-12.1162	-15.0488	-24.2523	17.9921	-17.2255	-4.14209	0.312823
0.8060	-21.5532	0.615359	0.632583	-8.1396	-19.3146	-29.4343	10.6545	-15.0686	-0.207104	0
0.8067	-21.5532	2.15376	2.16886	-1.42909	-21.7437	-33.7018	-3.6939	-14.4777	6.21313	0
0.8073	-21.8953	0	0.271107	1.92616	-21.1512	-33.3969	-20.4798	-15.9846	8.00803	0
0.8080	-21.8953	-3.38448	-2.43996	5.87169	-13.2121	-15.3935	-24.7517	-16.9005	8.35321	0
0.8087	-21.2966	-4.61519	-2.16886	7.70466	-3.1401	1.69557	-21.3844	-16.605	8.62934	0.312823
0.8093	-20.0137	-4.61519	-1.53627	6.49304	0.533224	8.70645	-20.7814	-15.6891	7.45575	0.312823
0.8100	-18.8163	-4.92287	-2.43996	6.18237	2.04403	28.8627	-17.4141	-14.4777	5.31568	0.312823
0.8107	-18.5597	-3.99983	-0.90369	6.49304	6.63568	45.6469	-10.4032	-14.1527	3.45174	0
0.8113	-19.1584	-3.38448	0	4.66007	6.93191	29.4724	-6.43292	-13.8572	1.31166	0
0.8120	-19.1584	-4.61519	-1.53627	1.30482	5.09525	5.35342	-7.03601	-13.8572	-2.07104	0
0.8127	-19.1584	-5.23055	-1.26517	-1.73976	6.63568	2.91485	-8.26731	-14.7732	-5.10857	0
0.8133	-19.415	-5.53823	-0.632583	-3.26205	4.79902	-2.57193	-10.7048	-15.6891	-7.52479	-0.312823
0.8140	-19.7571	-6.15359	-0.632583	-2.3611	-2.84386	-33.3969	-11.9361	-15.9846	-8.42224	-0.312823
0.8147	-20.0137	-3.99983	1.53627	-1.42909	-8.02799	-73.3857	-6.13138	-15.3936	-8.42224	0
0.8153	-19.7571	-3.38448	2.16886	-2.67178	-8.32422	-103.582	-1.25643	-15.6891	-8.42224	0
0.8160	-19.7571	-5.23055	0.632583	-0.21747	-4.05843	-106.04	-0.929758	-16.605	-8.42224	0
0.8167	-20.0137	-5.53823	0.90369	2.51644	2.04403	-79.4821	4.84982	-16.605	-8.42224	0
0.8173	-20.0137	-5.23055	1.26517	1.30482	9.06481	-60.5641	16.1577	-16.605	-8.42224	0.312823
0.8180	-18.5597	-3.69215	2.43996	1.30482	17.0039	-47.7426	25.9076	-15.3936	-8.1461	0
0.8187	-16.6781	-3.69215	3.07255	0.403873	24.6172	-25.7764	28.3451	-13.5618	-9.94101	0
0.8193	-15.8228	-4.30751	2.71107	-2.3611	32.2601	1.39075	26.2091	-12.9413	-10.5623	0.312823
0.8200	-15.1386	-2.76912	4.87993	-2.05043	36.2296	51.4385	25.606	-12.0254	-6.90348	0.312823
0.8207	-13.9412	-3.69215	4.87993	-0.838813	29.5051	83.178	21.3342	-11.1094	-4.48726	0.312823
0.8213	-14.2833	-5.84591	3.70513	3.75913	20.3514	55.0964	8.21705	-12.6458	-3.58981	-0.312823
0.8220	-13.9412	-6.15359	5.15103	11.9919	16.7077	24.5762	-5.20162	-24.8485	-1.10456	-2.8154
0.8227	-12.1451	-6.69203	3.34365	14.1356	13.0344	10.8592	-11.3079	-29.7236	-0.207104	-1.87694
0.8233	-12.1451	-4.30751	-0.271107	9.25801	10.9015	-9.90668	-9.80015	-14.7732	-0.828417	0.625646
0.8240	-12.1451	-2.46144	-0.271107	7.70466	12.4123	-14.479	-5.82984	-7.15021	-0.483243	0
0.8247	-11.5464	-5.53823	0	6.80371	11.4939	13.6026	-5.52829	-11.1094	-2.34718	-0.312823
0.8253	-10.6056	-6.15359	2.43996	4.3494	9.36105	47.4759	-4.59853	-10.1935	-4.7634	0.312823
0.8260	-9.06604	-3.99983	4.87993	3.13778	7.55401	49.9144	-3.39236	-8.06615	-6.00602	0
0.8267	-9.66474	-5.53823	3.07255	1.61549	3.25859	27.3386	-5.20162	-8.98209	-7.52479	-0.312823
0.8273	-10.6056	-3.69215	4.24734	1.61549	4.50278	16.6508	-0.628215	-7.15021	-7.24865	0
0.8280	-11.5464	0.615359	5.51251	3.44846	7.85024	12.0785	3.94519	-6.23428	-5.72989	0
0.8287	-13.9412	1.84608	5.78362	3.13778	6.30982	-3.18157	-0.628215	-8.98209	-5.72989	0
0.8293	-16.6781	4.84595	10.3924	4.66007	5.39149	-5.92496	-1.55797	-12.9413	-4.7634	0
0.8300	-19.1584	1.5384	2.16886	5.59209	4.50278	12.3834	0.577958	-24.553	-4.7634	0
0.8307	-18.5597	-3.69215	-5.15103	3.13778	2.96236	26.1193	-3.06569	-23.3121	-6.28216	0
0.8313	-17.2768	-7.92275	21.9597	2.82711	7.85024	30.9965	-5.20162	-6.52974	-6.62734	0
0.8320	-20.9545	-18.9223	40.5757	1.30482	13.9527	34.3495	-3.39236	-6.52974	-7.24865	0
0.8327	-20.9545	-11.9226	19.2486	-0.838813	11.4939	28.5579	-2.76415	-0.443195	-8.76742	0
0.8333	-19.7571	-6.38435	26.207	0.714545	4.79902	17.8701	-2.76415	20.3279	-7.52479	0
0.8340	-22.1519	-16.7685	56.1191	1.92616	0.82946	10.5544	-4.59853	23.3712	-6.28216	0
0.8347	-17.0202	-9.15347	37.5031	0.994149	0.533224	2.30521	-8.56885	20.3279	-6.62734	0
0.8353	-5.13172	-10.3842	-4.24734	0.0932015	1.1257	-4.70567	-13.7453	-6.52974	-7.24865	0.312823
0.8360	1.28293	-9.15347	-26.207	0.0932015	-1.0072	-11.126	-14.3736	-51.4106	-7.52479	0.312823
0.8367	3.42115	12.7687	-33.8884	1.61549	-4.68052	-29.7391	-5.20162	-41.6308	-6.28216	0.312823
0.8373	2.22375	11.9226	-36.9609	2.23684	-9.24255	-48.3522	1.20617	23.6666	-5.72989	0.312823
0.8380	-2.65139	-0.923039	-36.3283	1.30482	-11.6717	-50.7908	-2.16106	86.2458	-5.38471	0
0.8387	-4.78961	-1.23072	-30.8158	1.30482	-9.86465	-46.2185	0.276415	105.776	-5.10857	0.312823
0.8393	-2.65139	-4.30751	-16.1761	-0.21747	-7.73175	-40.4269	14.3233	67.927	-6.28216	0.312823
0.8400	-0.855287	-9.46115	19.8812	-1.42909	-6.81342	-37.0548	27.742	-34.3033	-7.52479	0
0.8407	1.62504	-13.7687	35.9669	-3.57272	-6.48756	-36.4452	40.8591	-115.497	-9.04355	0
0.8413	3.42115	-24.999	2.43996	-6.92798	-8.32422	-33.3969	48.4982	-86.4821	-11.1836	0
0.8420	1.88163	-30.2295	-15.9049	-6.61731	-9.24255	-25.7764	35.6826	-27.3008	-9.04355	0.312823
0.8427	1.28293	-15.6147	2.71107	-4.47367	-4.05843	-15.0886	17.0623	-23.0166	-5.72989	0.312823
0.8433	0.427643	8.53811	10.3924	-3.57272	5.09525	-5.92496	3.01543	-46.5059	-4.48726	0.312823
0.8440	-2.65139	15.2301	-7.04878	-3.26205	11.4939	-6.22978	-7.03601	-49.2537	-4.48726	0.312823
0.8447	-4.78961	3.92291	-17.0797	-3.8834	10.6052	-15.3935	-6.73447	-38.5875	-4.14209	0.312823
0.8453	-5.13172	-2.15376	1.26517	-3.26205	4.50278	-26.9957	-3.06569	-31.5555	-4.14209	0.312823
0.8460	-3.84879	-0.615359	12.1998	-2.3611	1.45155	-35.2259	-3.39236	-23.3121	-3.24463	0
0.8467	-0.855287	-0.30768	-0.271107	-1.73976	2.04403	-37.3596	-5.52829	-16.9005	-2.34718	0
0.8473	2.56586	-1.23072	-4.60882	-0.21747	1.45155	-32.7873	-6.73447	-13.5618	-0.828417	0.312823
0.8480	4.01985	2.15376	5.51251	0.994149	0.82946	-26.3861	-5.20162	-12.3208	0.414209	0.312823
0.8487	1.28293	6.69203	12.1998	2.51644	-1.0072	-24.862	-2.4626	-23.3121	0.414209	0
0.8493	-3.5922	8.23043	-2.71107	3.75913	-1.92553	-24.2523	-2.76415	-38.883	1.03552	0
0.8500	-10.6056	0.30768	-24.1285	4.66007	-1.6293	-13.8694	-7.33755	-48.0424	1.93297	-1.87694
0.8507	-18.2176	-14.6917	-1.53627	6.49304	-0.385106	13.2978	-10.4032	-45.915	2.83043	-2.8154
0.8513	-23.0927	-23.8452	9.12727	5.87169	1.74779	42.2749	-9.17194	-19.9733	4.34919	-0.312823
0.8520	-24.9744	-38.7676	-48.257	1.30482	0.82946	51.4385	-9.17194	13.2959	2.55429	0.625646
0.8527	-26.7705	-51.6132	-76.0003	-1.42909	-0.385106	43.2084	-9.80015	33.4465	0.0690348	0.312823
0.8533	-24.6323	-28.3834	17.3508	-1.42909	2.96236	32.5206	-7.96577	23.6666	-0.207104	0.312823
0.8540	-13.6846	-17.0762	144.681	-1.73976	5.71735	22.7473	-6.13138	0.177278	-0.207104	0
0.8547	-3.25009	-30.5372	128.776	-0.528142	4.79902	14.2123	-4.59853	34.9533	0.690348	0.312823
0.8553	-4.19091	-8.23043	24.3996	0.994149	5.71735	9.01127	-1.85952	102.703	2.55429	0.312823
0.8560	-8.72392	23.4606	-10.031	-0.838813	6.63568	5.0486	-2.4626	148.795	1.03552	0.312823
0.8567	-6.58571	23.7682	2.16886	-2.67178	6.63568	2.61003	-4.59853	167.114	-1.10456	0.312823
0.8573	0.684229	10.0765	0.632583	-2.67178	6.63568	2.30521	-4.29699	50.8493	-1.72587	-0.312823
0.8580	9.57921	-1.84608	-14.3687	-2.3611	5.39149	0.781104	-3.6939	-117.919	-2.07104	0
0.8587	17.1913	-9.46115	-31.7195	-0.838813	6.01358	2.00039	-2.16106	-158.516	-0.828417	0.312823
0.8593	12.5727	-14.384	-45.1845	-1.73976	6.30982	2.00039	0.577958	-153.316	-0.828417	0
0.8600	-0.513172	-22.6144	-35.4246	-4.19407	3.88069	-0.743001	1.50772	-125.542	-2.34718	0
0.8607	-7.52652	-32.0756	-11.025	-4.47367	1.1257	-1.35264	1.50772	-37.3466	-2.62332	0.312823
0.8613	-12.4017	-26.845	-4.87993	-4.78434	-1.0072	-2.26711	-0.929758	37.1102	-3.24463	0.312823
0.8620	-14.882	-2.46144	8.58505	-3.8834	-2.22177	-2.87675	-2.76415	88.6686	-3.24463	0
0.8627	-2.05269	15.2301	22.8634	-1.42909	-1.92553	-1.65746	-1.55797	117.358	-1.72587	0
0.8633	13.5135	36.6139	22.3211	-2.05043	-3.76219	-1.96229	-0.929758	105.451	-1.72587	0
0.8640	6.84229	69.5356	47.8956	-3.57272	-6.19132	-2.57193	-1.25643	101.492	-2.62332	0
0.8647	-10.2634	68.9202	58.0169	-3.8834	-8.02799	-2.87675	-0.628215	24.9076	-2.96849	0
0.8653	-13.9412	34.4601	20.1523	-3.57272	-8.02799	-3.48639	0.276415	-138.07	-2.62332	0.625646
0.8660	-4.78961	0.30768	19.8812	-3.26205	-5.89509	-2.57193	1.80926	-172.255	-2.07104	0
0.8667	6.15806	-22.9221	46.3593	-2.67178	-4.35466	-0.43818	2.1108	-78.5637	-2.62332	-1.87694
0.8673	12.5727	-21.6914	19.5197	-2.3611	-2.518	-0.133359	2.41235	-22.1007	-2.34718	-0.938468
0.8680	8.29628	-8.53811	-28.3759	-2.95138	-2.22177	-2.26711	3.01543	-21.4802	-2.07104	0.625646
0.8687	-0.256586	-3.0768	-41.2083	-0.21747	-3.76219	-5.01049	1.80926	-24.553	-2.96849	0
0.8693	-5.98701	-3.0768	-33.2558	7.70466	-2.84386	-4.09603	1.80926	6.8843	-2.96849	0
0.8700	-10.8621	-4.92287	-28.647	11.9919	-1.30344	-1.96229	3.94519	9.33664	-2.34718	0
0.8707	-11.803	-7.61507	-25.9359	11.0599	-1.6293	-1.96229	3.94519	-46.831	-2.07104	0
0.8713	-7.52652	-8.84579	-16.8086	12.6133	-1.6293	-2.26711	3.01543	-77.9432	-1.72587	0
0.8720	-1.71057	-1.84608	10.6635	13.5142	-1.6293	-2.57193	3.01543	-61.7814	-1.44973	0
0.8727	4.70408	4.84595	29.2796	9.53762	-2.518	-3.79121	1.80926	-42.5467	-1.44973	0
0.8733	9.8358	0.30768	7.04878	11.6813	-1.6293	-4.09603	2.1108	-37.967	-0.483243	0
0.8740	8.29628	-8.23043	-7.95247	34.8884	-0.385106	-4.40085	2.71389	-35.8397	0.414209	0
0.8747	1.28293	-15.3071	7.31989	63.5634	-1.6293	-5.92496	1.20617	-37.3466	0.414209	0
0.8753	-2.65139	-26.845	9.12727	62.3518	-2.518	-6.22978	0.577958	-38.2625	1.31166	0
0.8760	-3.5922	-33.9217	3.97624	54.7093	-2.518	-5.31532	1.50772	-29.1327	1.03552	0.312823
0.8767	-1.71057	-17.0762	12.8324	73.0389	-1.92553	-3.79121	1.80926	-18.7324	0.0690348	0
0.8773	0.427643	3.0768	13.465	78.8174	-0.0888707	-1.96229	3.3421	-11.7299	0.414209	0.312823
0.8780	2.56586	-7.61507	3.34365	55.0199	0.207365	-1.65746	3.64365	-6.52974	-0.483243	0
0.8787	12.9148	-22.9221	-8.58505	46.7871	-0.385106	-2.26711	1.50772	2.62962	-2.62332	0
0.8793	20.869	-17.0762	-18.616	61.1091	-0.710966	-3.18157	0.577958	16.3391	-3.86595	0.625646
0.8800	10.1779	-6.99971	-23.767	46.4765	-2.22177	-0.743001	0.577958	9.04118	-7.24865	-1.56411
0.8807	-4.78961	6.99971	-25.9359	-17.6151	-0.385106	7.48717	2.41235	-13.5618	-10.9075	-2.50258
0.8813	-11.803	13.0764	-29.9121	-50.2667	3.58445	9.62091	6.08112	-17.8164	-10.5623	0
0.8820	-17.0202	-7.30739	-47.8956	-21.281	1.45155	2.61003	4.24673	-13.8572	-9.04355	0.625646
0.8827	-11.5464	-19.5377	-52.7755	-23.114	-1.92553	-1.96229	0.276415	2.62962	-7.52479	0
0.8833	4.36196	-16.4609	-17.3508	-57.2878	-1.0072	-0.133359	0.879501	28.5713	-6.90348	0.312823
0.8840	9.8358	-27.1527	36.3283	-51.1676	0.207365	1.39075	3.01543	41.0694	-7.52479	0.312823
0.8847	10.7766	-8.23043	64.4331	-23.4246	0.82946	1.39075	4.24673	60.3041	-5.72989	0
0.8853	16.2504	28.6911	26.207	-36.8457	0.533224	1.08592	3.94519	62.4314	-5.38471	0
0.8860	14.1122	13.6917	-37.8646	-53.0006	-1.0072	-0.743001	1.80926	14.5073	-7.24865	0.312823
