MR32 ASCII
Name	KneeFJC1
Frequency	1500
Date	27-08-2015 09:42:09
"Time,s"	"RT TIB.ANT.,uV"	"RT MED. GASTRO,uV"	"RT LAT. GASTRO,uV"	"RT BICEPS FEM.,uV"	"RT VMO,uV"	"RT VLO,uV"	"RT RECTUS FEM.,uV"	"RT SOLEUS,uV"	"RT SEMITEND.,uV"	"Channel 12,uV"
0.0000	-2.83998	12.7662	-4.37507	-2.10644	4.51004	-6.74841	-3.81288	-33.8543	1.51303	-6588.57
0.0007	2.7165	-2.48455	-15.0576	-4.85206	2.96374	-4.32917	-5.94449	-28.3612	5.17615	-10516.7
0.0013	4.81562	-8.28184	-12.007	-5.15713	2.06173	-6.74841	-3.50264	36.3406	7.92349	-9755.11
0.0020	3.33389	2.70675	-18.1082	-4.54699	2.38388	-9.50719	-0.45034	59.2233	7.61823	-9680.33
0.0027	1.48173	8.20104	-13.2338	-4.24192	3.28589	-9.50719	5.65427	25.9617	9.44979	-9912.38
0.0033	1.85216	0.565589	-1.62844	-1.4963	-0.966437	-19.5661	13.5903	2.4574	10.9761	-9793.62
0.0040	2.09912	-4.32272	-2.24725	4.61237	7.28049	-31.7897	17.253	-3.94629	8.53401	-9812.56
0.0047	1.23477	-0.0403992	-4.37507	7.96814	39.9461	-32.9781	21.216	-2.71759	7.92349	-9819.3
0.0053	1.23477	0.565589	-1.02049	3.39209	64.0425	-27.8	26.7102	-0.896227	-4.89743	-9820.58
0.0060	1.48173	0.565589	0.803363	0.0290543	68.9392	-19.8632	29.7625	14.6721	-30.8313	-9795.23
0.0067	0	6.66587	-2.55122	-1.4963	67.3929	-13.7515	25.7895	40.9229	-33.5786	-9843.37
0.0073	-1.85216	9.71601	-3.15917	-2.4115	55.1513	-12.8602	16.6426	40.3013	-21.0762	-9880.6
0.0080	-0.987819	8.50404	1.11819	-0.581086	39.3018	-4.32917	8.70657	17.115	-19.2447	-9532.37
0.0087	-0.370432	1.17158	1.42217	-0.276016	24.9985	15.237	5.65427	6.12904	-19.2447	-10306.8
0.0093	-1.23477	-4.01972	-1.02049	-1.4963	2.38388	39.0049	11.7589	7.34328	-13.75	-9454.69
0.0100	-2.22259	3.31274	-2.55122	-2.71657	-21.7126	57.3402	16.6426	4.29322	-5.20269	-3228.17
0.0107	-2.46955	6.96887	-2.55122	-3.63178	-29.3797	68.3329	12.6696	0.939593	3.03933	106.236
0.0113	-1.85216	3.91872	-1.02049	-0.886155	-29.6374	84.8007	4.73357	2.4574	8.22875	-63.5491
0.0120	-0.370432	3.31274	0.195413	2.46961	-38.2065	102.202	-7.16541	5.52192	11.2813	-137.69
0.0127	0.617387	-4.92871	0.499388	3.08702	-44.0051	103.73	-20.2853	6.12904	10.0603	94.6817
0.0133	-0.987819	-13.1701	-0.108563	-0.276016	-40.0105	78.3919	-30.0527	2.4574	2.12355	-25.9974
0.0140	-3.08693	-1.87856	0.803363	-3.32671	-36.6602	36.5857	-32.1943	-4.85697	-4.89743	-6.74006
0.0147	-1.85216	10.9482	2.63807	-1.80137	-39.4306	3.31054	-27.0004	-14.6287	-6.72899	1.28382
0.0153	-0.370432	8.50404	0.803363	1.85947	-40.3326	-14.9823	-23.6478	-16.4501	-4.89743	-0.320955
0.0160	0	5.75689	-4.0711	3.08702	-31.7636	-25.0413	-22.1167	-16.1465	-1.23431	0
0.0167	0.617387	5.4539	-6.81773	2.16454	-19.2643	-35.1426	-18.4539	-23.1718	0.597248	0.320955
0.0173	0.617387	3.00974	-4.37507	1.5544	-10.4375	-45.2016	-15.4016	-22.2611	1.51303	0
0.0180	-0.370432	2.40375	-0.412538	2.16454	-0.644291	-40.0236	-11.4386	-6.08567	3.64985	-0.320955
0.0187	-3.08693	3.91872	2.03012	1.5544	9.08451	-18.3353	-5.94449	3.07897	4.56563	0
0.0193	-6.79126	3.91872	2.3341	-0.581086	11.2107	0.891299	-1.67126	0.939593	3.64985	0
0.0200	-9.75471	2.40375	0.803363	-2.4115	8.1825	4.54138	3.21242	8.87554	2.12355	0
0.0207	-11.6069	0.565589	-0.412538	-3.63178	2.70602	12.4782	6.56495	16.2044	0.902508	0.320955
0.0213	-12.5947	1.77757	-0.412538	-5.76727	-0.966437	53.6901	3.51265	14.065	0.291988	0.320955
0.0220	-14.6938	4.22172	-3.46315	-6.98755	-4.31675	95.1568	0.160121	12.2292	-0.0132722	0.320955
0.0227	-17.4103	3.91872	-5.29786	-1.19123	-11.9838	90.6154	0.770582	9.78622	-0.623792	0.320955
0.0233	-17.4103	1.47457	-2.55122	6.44279	-17.7824	60.3961	2.90219	5.21835	0.597248	0
0.0240	-16.1755	-1.57557	-1.94327	6.74786	-17.4603	42.6975	2.90219	2.15384	3.34459	0
0.0247	-13.2121	-0.969581	-0.716513	4.91744	-13.7878	43.9283	1.38104	3.07897	5.17615	0
0.0253	-7.03821	1.47457	0.803363	4.3073	-13.7878	44.5225	-5.0338	4.59678	4.87089	0
0.0260	-1.60521	1.17158	0.499388	4.00223	-14.11	33.2327	-11.1284	6.12904	3.95511	0.320955
0.0267	2.7165	-0.969581	-1.32446	3.69716	-13.7878	14.3032	-11.7389	7.03972	2.73407	0
0.0273	7.90255	-2.18156	-3.15917	-0.276016	-14.6898	-18.3353	-8.38633	4.90034	1.81829	0
0.0280	13.0886	-0.646388	-1.62844	-2.4115	-7.0872	-62.9002	-4.1131	2.77541	3.03933	0.320955
0.0287	16.4225	1.17158	0.499388	0.944264	5.73419	-85.4798	-2.28172	0.0289106	4.56563	0.962865
0.0293	17.6573	1.77757	0.803363	3.08702	10.3087	-78.7738	-0.45034	-4.24985	3.03933	0.64191
0.0300	15.8051	0.565589	-0.716513	0.944264	4.51004	-76.0151	3.82289	-6.99635	-1.23431	0.320955
0.0307	13.3356	-0.646388	-1.94327	-1.80137	-0.386575	-80.5989	6.87519	-7.60348	-6.11847	0.320955
0.0313	11.6069	0.565589	0.195413	-0.581086	1.80402	-69.9033	10.2277	-4.24985	-4.59217	0.64191
0.0320	9.38428	2.70675	1.72615	1.85947	4.51004	-47.3237	10.8382	-0.289106	3.64985	0.320955
0.0327	7.90255	2.40375	1.72615	0.944264	5.15433	-33.6147	5.95449	0.939593	10.9761	0.320955
0.0333	6.42082	0.565589	0.195413	-1.80137	7.28049	-30.2617	1.38104	-0.289106	16.776	0.320955
0.0340	4.81562	-0.969581	-0.716513	-3.02164	8.1825	-25.6779	1.07081	-1.80691	18.9128	0.320955
0.0347	4.19823	-0.343393	0.195413	-1.80137	7.60264	-19.5661	1.38104	-1.50335	13.1129	0.320955
0.0353	2.7165	2.08056	1.72615	0.944264	5.41205	-14.6852	2.29173	-0.592666	10.3656	0.64191
0.0360	2.09912	2.40375	1.72615	0.639194	1.48187	-10.738	3.21242	-1.19979	11.5866	0.64191
0.0367	1.85216	-0.0403992	-0.108563	-3.32671	-0.386575	-8.27635	1.68127	-3.03561	4.87089	0.320955
0.0373	2.09912	-0.969581	-1.02049	-4.85206	0.837579	-6.15421	-0.760574	-3.64273	-0.623792	0.320955
0.0380	2.7165	0.565589	0.499388	-1.80137	2.38388	-9.80429	-1.0608	-2.11047	6.09193	0.64191
0.0387	2.09912	1.77757	2.03012	0.334124	2.38388	-19.8632	0.770582	0.332471	-0.0132722	0
0.0393	2.7165	1.17158	2.03012	-1.4963	0.579862	-22.9191	1.9915	1.24315	-24.7393	0.320955
0.0400	3.58084	-0.646388	-0.716513	-3.93685	-1.86844	-19.5661	1.38104	0.0289106	-28.9997	0.64191
0.0407	1.85216	-2.18156	-2.24725	-4.54699	-2.51274	-18.3353	1.68127	-0.896227	-22.6025	0.962865
0.0413	0.864342	-0.343393	0.803363	-0.581086	-1.86844	-18.0382	3.82289	0.0289106	-29.9155	0.320955
0.0420	1.23477	1.17158	2.94205	2.16454	-2.19059	-18.0382	4.43335	1.54671	-30.8313	0.320955
0.0427	0	0.262595	2.63807	0.334124	-3.0926	-18.9719	1.9915	1.85028	-20.771	0.320955
0.0433	-1.85216	-2.48455	0.803363	-1.19123	-3.99461	-17.7411	-1.9815	-1.19979	-15.2763	-0.64191
0.0440	-1.85216	-4.62571	-0.412538	-1.80137	-4.31675	-15.2794	-3.81288	-4.55341	-12.8342	-1.28382
0.0447	-1.85216	-0.969581	0.803363	-1.4963	-1.28858	-12.8602	-1.37103	-1.19979	-7.95003	0
0.0453	-4.32171	3.61573	1.72615	-0.886155	1.48187	-11.9264	1.38104	1.85028	-4.59217	0.64191
0.0460	-6.17387	3.61573	1.72615	0.334124	3.28589	-4.32917	1.68127	0.332471	-6.42373	0.64191
0.0467	-7.03821	0.565589	0.195413	0.0290543	4.83218	14.8974	1.07081	-1.80691	-8.56055	0.320955
0.0473	-10.1251	-0.646388	-1.32446	-1.4963	3.60803	30.771	1.07081	-2.71759	-7.95003	0.320955
0.0480	-13.8295	0.868583	0.499388	-1.19123	3.28589	43.5888	2.60196	-1.80691	-6.11847	0.64191
0.0487	-17.7807	2.40375	2.3341	0.0290543	4.51004	55.2181	2.90219	-0.896227	-5.50795	0.320955
0.0493	-21.3616	2.08056	2.3341	0.944264	5.73419	45.7533	1.68127	-0.896227	-4.28691	0
0.0500	-24.4485	0.868583	1.11819	-0.276016	5.41205	46.9417	1.38104	-2.41403	-3.98165	0.320955
0.0507	-28.1528	-0.343393	-0.412538	-2.10644	3.28589	96.6847	2.29173	-3.94629	-4.89743	0.320955
0.0513	-31.4867	2.70675	1.42217	-0.886155	2.96374	134.544	4.73357	-1.80691	-3.37113	0.64191
0.0520	-36.0554	6.05988	2.94205	-1.4963	7.60264	126.607	6.56495	0.0289106	-3.06587	0
0.0527	-37.5371	3.91872	2.63807	-2.10644	13.4013	104.961	5.34403	-1.80691	-3.67639	-0.64191
0.0533	-31.4867	-0.969581	1.72615	0.0290543	13.9811	80.2169	3.82289	-5.16053	-3.37113	0
0.0540	-22.5964	-2.48455	0.499388	0.639194	9.98652	57.0431	3.21242	-6.99635	-3.98165	0.64191
0.0547	-16.1755	-0.969581	1.42217	0.944264	6.95835	35.3549	3.51265	-3.64273	-3.37113	0.320955
0.0553	-11.3599	0.565589	2.03012	4.3073	6.6362	7.89436	3.21242	3.07897	-1.23431	0.320955
0.0560	-4.32171	0.262595	1.11819	8.2732	6.95835	-24.15	-0.150113	7.96486	1.20777	0.64191
0.0567	1.85216	-1.27258	-1.62844	10.4087	4.83218	-53.4355	-5.33403	7.03972	3.34459	0.64191
0.0573	4.56866	-1.87856	-3.15917	9.79855	2.96374	-85.1827	-11.4386	1.24315	3.95511	0.320955
0.0580	5.43301	-0.343393	-0.716513	6.74786	2.96374	-115.996	-13.8805	-3.64273	3.34459	0.320955
0.0587	5.43301	2.08056	2.63807	2.46961	0.837579	-111.412	-8.99679	-4.24985	2.73407	0.320955
0.0593	7.28517	3.31274	2.03012	3.69716	0.837579	-73.5958	-5.0338	-2.41403	1.51303	0.320955
0.0600	12.4712	-0.646388	-0.716513	0.639194	3.60803	-43.0794	-3.81288	-2.41403	-0.0132722	0.320955
0.0607	18.2747	-5.53469	-0.716513	-17.665	3.28589	-27.8	1.9915	-4.85697	-0.318532	0.320955
0.0613	22.5964	-4.62571	0.803363	-28.6548	3.93018	-27.2058	12.0591	-5.78211	0.902508	0.320955
0.0620	23.4607	-4.01972	0.499388	-12.4788	7.28049	-35.1426	19.6949	-1.19979	3.64985	0.320955
0.0627	23.7077	-0.969581	2.3341	7.358	10.6308	-30.5588	22.1267	7.96486	6.09193	0.64191
0.0633	27.165	6.96887	2.3341	8.57827	9.98652	-16.5103	17.5532	10.3933	4.26037	0.320955
0.0640	31.1163	7.89805	-4.99388	1.85947	7.28049	-12.2235	8.70657	6.4326	0.902508	0.320955
0.0647	29.5111	3.91872	-2.8552	0.639194	4.51004	-15.2794	-0.760574	14.3685	1.81829	0.320955
0.0653	22.2259	6.36288	14.8405	1.5544	1.48187	-16.2132	-10.5179	31.4547	4.87089	0.64191
0.0660	17.0399	6.36288	11.7899	1.5544	-0.0644291	-12.2235	-17.233	26.5688	6.70245	0.64191
0.0667	15.8051	-4.62571	-6.51376	0.639194	-1.61073	-3.69252	-17.233	-1.50335	6.39719	0
0.0673	15.1877	-11.938	-9.86834	-0.276016	-2.83488	0.254657	-12.9598	-22.2611	6.09193	0.320955
0.0680	10.9895	-4.01972	-4.68991	0.334124	-2.19059	-2.46168	-5.0338	-22.2611	5.17615	0.962865
0.0687	2.7165	8.80703	5.38471	-0.886155	-1.86844	-4.32917	0.160121	-13.0965	2.42881	0.320955
0.0693	-5.18605	10.6452	16.3712	-4.54699	-2.83488	-1.57038	4.12311	-4.85697	0.597248	0
0.0700	-12.2243	5.4539	17.902	-7.90276	-4.31675	0.254657	11.1484	-1.80691	1.20777	0.320955
0.0707	-20.1268	7.27186	4.47278	-8.81797	-4.6389	-1.57038	19.0844	-3.33917	2.73407	0.64191
0.0713	-29.0172	16.1193	-13.5378	-6.37741	-2.19059	-0.339542	21.8265	-5.78211	3.95511	0.320955
0.0720	-33.5858	15.5133	-8.04449	-3.32671	1.80402	16.4254	17.253	-18.893	3.95511	0.64191
0.0727	-33.5858	5.1509	4.47278	0.0290543	1.80402	35.3549	9.0068	-40.2579	2.73407	0
0.0733	-33.9563	-7.06986	6.29663	4.91744	-1.61073	26.8239	0.160121	-42.3973	-0.0132722	-1.28382
0.0740	-36.3024	-18.9674	29.1925	5.83265	-1.61073	2.71634	-8.0761	-26.829	-1.53957	-0.962865
0.0747	-36.0554	-8.88783	32.5471	3.08702	1.80402	-9.50719	-12.3493	-9.13573	-1.53957	0.320955
0.0753	-31.4867	10.6452	-7.74051	1.85947	2.96374	-8.87055	-10.8282	14.9757	-3.37113	0.320955
0.0760	-20.7442	13.0691	-24.2203	-0.276016	2.38388	-1.27328	-7.16541	41.53	-6.11847	0.64191
0.0767	-6.79126	7.89805	-14.4497	-3.32671	1.48187	5.13558	-5.0338	33.5941	-8.56055	0.64191
0.0773	6.42082	-2.48455	-9.26039	-5.15713	0.257717	8.48856	-5.33403	-20.4253	-9.78159	0.64191
0.0780	22.2259	-10.726	-7.43654	-4.24192	0.837579	10.356	-5.94449	-36.2972	-6.11847	0.64191
0.0787	41.4884	-8.88783	-5.90581	-3.02164	2.38388	7.59726	-10.8282	21.0758	6.70245	0.64191
0.0793	53.7127	-5.2317	-1.94327	-1.80137	2.70602	2.0797	-14.7912	53.7303	19.2181	0.64191
0.0800	50.6257	-6.14068	-0.108563	-0.276016	1.48187	-6.74841	-14.4909	28.4046	17.6918	0.320955
0.0807	34.6971	-6.46388	-1.32446	2.46961	-0.644291	-16.2132	-11.4386	8.87554	9.14453	0.320955
0.0813	15.1877	-3.39353	-0.108563	4.91744	-0.966437	-19.8632	-5.0338	9.1791	6.70245	0.64191
0.0820	1.48173	-0.969581	2.03012	4.00223	-0.644291	-22.3249	-0.45034	8.26842	6.09193	0.64191
0.0827	-5.55648	-0.969581	2.3341	1.24933	-0.644291	-25.6779	1.9915	5.82548	3.03933	0.64191
0.0833	-11.6069	-1.87856	3.55	-0.886155	-1.86844	-26.2721	4.73357	2.77541	0.597248	0.64191
0.0840	-18.6451	-3.39353	3.55	-2.10644	-2.19059	-24.15	7.17542	-0.289106	0.291988	0.64191
0.0847	-23.8311	-2.48455	-4.0711	-2.4115	-0.644291	-19.269	13.8905	-1.50335	0.597248	0.64191
0.0853	-25.9303	-2.18156	-10.1832	-5.15713	0.257717	-12.8602	17.5532	-4.85697	-0.0132722	0.320955
0.0860	-25.3129	-4.01972	-10.7911	-5.15713	0.579862	-8.57345	13.8905	-8.2106	-0.318532	0.320955
0.0867	-25.0659	-4.62571	-22.3856	-2.10644	-0.386575	-3.09832	12.3693	-6.99635	-0.0132722	0.320955
0.0873	-25.3129	-4.92871	-16.5884	-2.10644	-1.28858	8.19146	12.3693	-3.03561	0.597248	0.64191
0.0880	-22.5964	0.868583	16.6752	-2.10644	3.60803	17.6562	8.09611	-2.41403	2.12355	0.320955
0.0887	-19.8799	17.3515	21.2566	1.24933	12.4348	24.0651	1.07081	-1.50335	4.87089	0
0.0893	-23.2137	16.1193	3.24602	3.69716	15.2053	30.771	-5.0338	5.52192	7.00771	0.64191
0.0900	-31.1163	-7.06986	4.1688	2.16454	17.0093	31.7048	-8.68656	3.6861	6.09193	0.320955
0.0907	-36.0554	-15.0083	11.7899	0.639194	22.8079	28.946	-8.99679	-12.7929	3.34459	0
0.0913	-36.6728	-7.37286	4.77675	3.39209	25.5784	28.0547	-5.0338	-22.5647	3.64985	0.320955
0.0920	-32.1041	-4.32272	-3.46315	7.358	21.326	20.1179	0.160121	6.4326	4.87089	0.320955
0.0927	-29.0172	-4.92871	-3.15917	7.66307	13.4013	7.89436	3.21242	47.6301	4.26037	0.320955
0.0933	-28.7702	-6.46388	-10.1832	4.91744	7.86035	17.3591	4.12311	42.7443	1.81829	0.64191
0.0940	-14.6938	-12.8672	-17.8043	1.85947	3.28589	52.1622	4.43335	19.8615	0.291988	0.64191
0.0947	10.3721	-13.4731	-7.12171	1.85947	-1.86844	82.0419	4.12311	22.0009	0.597248	0.64191
0.0953	26.1772	-1.57557	-0.412538	3.08702	-7.0872	93.9684	1.07081	7.96486	1.20777	0.64191
0.0960	31.3633	8.50404	-18.7271	3.08702	-10.7597	88.1537	-1.37103	-10.35	0.597248	0.64191
0.0967	34.2032	7.57485	-32.7642	0.944264	-14.4321	61.924	-3.81288	25.9617	-0.929052	0.64191
0.0973	31.9806	6.05988	-8.34846	-1.4963	-16.5583	61.6269	-5.64426	45.7943	-1.23431	0.320955
0.0980	26.5476	5.75689	43.8376	-0.276016	0.837579	94.2655	-0.150113	-6.99635	1.20777	0.320955
0.0987	24.325	0.868583	49.9388	-0.581086	29.8307	102.796	5.34403	-41.1686	2.42881	0.64191
0.0993	23.4607	5.1509	7.21941	-4.54699	42.0722	86.0316	9.0068	-36.6008	0.291988	0.64191
0.1000	19.7564	10.6452	-14.4497	-6.37741	46.3245	51.8227	12.6696	-61.9264	-3.06587	0.320955
0.1007	11.8538	-5.53469	4.47278	-7.59769	48.193	9.4223	12.3693	-61.9264	-3.98165	0.320955
0.1013	2.34607	-7.06986	46.2802	-7.59769	39.3018	-14.9823	12.9798	43.9729	-3.37113	0
0.1020	-6.17387	7.89805	52.0775	-4.54699	25.9005	-33.3176	16.6426	142.543	-2.45535	0.320955
0.1027	-13.459	-3.39353	12.4087	-0.886155	9.40665	-56.4914	13.5903	89.4348	-1.23431	0.64191
0.1033	-20.4972	-4.62571	-11.0951	4.00223	-13.208	-70.5399	3.51265	-20.7289	0.597248	-0.64191
0.1040	-24.4485	25.5929	11.7899	9.18841	-27.8334	-77.543	-10.8282	-37.2079	3.95511	-0.962865
0.1047	-20.4972	31.0872	36.5096	11.629	-29.3797	-98.2975	-18.1537	-15.2359	7.31297	0.320955
0.1053	-5.55648	1.47457	14.2326	9.79855	-32.0857	-108.993	-13.27	-10.9571	7.31297	0.962865
0.1060	14.9408	-20.4824	-19.639	5.83265	-35.7582	-86.4135	-9.60725	3.6861	5.17615	0.64191
0.1067	27.7824	-15.6143	-30.3215	3.08702	-32.73	-74.7842	-15.1014	11.9256	2.73407	0.64191
0.1073	33.8328	-10.423	-20.8549	1.5544	-28.1555	-80.3018	-18.1537	23.8223	0.902508	0.64191
0.1080	37.7841	-12.2612	-0.412538	0.944264	-28.4132	-59.5473	-12.9598	24.4439	-0.0132722	0.64191
0.1087	38.1545	-6.46388	9.96605	0.944264	-33.3099	-29.0309	-8.0761	-21.336	-0.0132722	0.64191
0.1093	32.3511	2.08056	6.91544	0.639194	-35.7582	-20.4999	-7.47564	-48.4974	0.597248	0.320955
0.1100	19.139	10.9482	1.42217	-1.19123	-32.0857	-22.9191	-8.68656	-23.4754	0.902508	0.64191
0.1107	4.56866	26.8049	-2.24725	-1.4963	-24.8052	-22.622	-10.5179	-3.64273	1.20777	0.64191
0.1113	-5.80344	27.7341	-2.8552	0.334124	-18.0402	-22.0278	-9.60725	-9.43929	2.12355	0.320955
0.1120	-11.6069	10.9482	-2.8552	0.944264	-11.0174	-26.2721	-5.33403	-18.893	1.51303	0.64191
0.1127	-17.1634	10.322	-1.94327	-1.19123	-5.21876	-29.9646	-2.28172	-22.8682	-0.929052	0.962865
0.1133	-22.3494	11.8572	-1.94327	-4.54699	-4.96104	-29.9646	-1.9815	-25.3112	-3.98165	0.64191
0.1140	-19.5094	2.08056	-1.32446	-6.37741	-6.1852	-31.4501	-1.37103	-20.1217	-5.81321	0.320955
0.1147	-5.80344	1.77757	6.61146	-1.80137	-4.6389	-27.8	-2.89218	-6.08567	-6.11847	0.64191
0.1153	9.13733	5.4539	8.43532	7.05293	-3.0926	-9.80429	-3.20242	1.85028	-4.89743	0.64191
0.1160	16.4225	6.96887	-4.0711	7.66307	-3.41474	8.19146	1.38104	10.7114	-3.98165	0.320955
0.1167	20.9912	6.05988	-6.20978	0.0290543	-3.99461	17.062	5.04381	10.0898	-4.59217	0.64191
0.1173	24.9424	-2.78755	3.24602	-3.32671	-4.31675	19.7783	9.92749	-10.35	-5.50795	0.64191
0.1180	25.5598	-6.14068	4.47278	-2.10644	-2.51274	10.356	20.6056	-18.5895	-4.59217	0.320955
0.1187	24.0781	1.17158	-0.108563	-3.32671	-1.28858	-6.15421	31.5938	-14.9323	-3.37113	0.320955
0.1193	26.7946	5.4539	-2.55122	-7.59769	-2.19059	-19.269	36.7778	-7.60348	-4.28691	0.320955
0.1200	29.2641	0.868583	-3.15917	-10.9535	-3.41474	-31.7897	32.8148	8.57198	-5.81321	0.320955
0.1207	24.0781	-2.78755	-4.0711	-7.90276	-2.19059	-19.5661	20.9058	24.4439	-5.20269	0.64191
0.1213	15.8051	-0.0403992	-3.76712	-4.24192	-2.51274	32.5961	7.78588	39.6942	-3.37113	0.64191
0.1220	7.90255	1.77757	-2.55122	-6.37741	-7.0872	80.2169	-9.29702	56.1732	-2.45535	0.64191
0.1227	1.48173	-0.0403992	-3.15917	-7.29262	-3.99461	114.383	-28.5315	59.2233	-2.45535	0.64191
0.1233	-1.85216	-1.27258	-4.0711	-6.98755	1.48187	143.075	-38.2889	9.1791	-3.98165	0.320955
0.1240	-5.55648	-1.27258	-4.0711	-8.81797	-1.86844	147.956	-34.9364	-63.1551	-5.50795	0.320955
0.1247	-8.27299	-0.969581	-2.55122	-6.68248	-3.0926	128.135	-19.3746	-75.6589	-4.89743	0.320955
0.1253	-5.80344	-1.27258	-1.32446	1.85947	2.06173	92.4404	0.770582	-50.6368	-3.06587	0.320955
0.1260	-3.33389	-2.78755	-1.02049	5.22251	8.50464	42.9946	16.6426	-28.6648	-3.37113	0.64191
0.1267	-5.55648	-4.62571	-0.716513	-2.71657	10.6308	-7.3426	34.9464	-12.1858	-6.42373	0.64191
0.1273	-8.27299	-4.92871	-1.62844	-7.29262	8.50464	-36.6706	48.987	-9.13573	-7.64477	0.320955
0.1280	-7.6556	-3.39353	-3.15917	-3.02164	4.51004	-51.6104	38.6091	-8.52861	-4.89743	0
0.1287	-6.42082	-1.87856	-3.76712	2.16454	-1.61073	-58.0193	12.3693	-6.69279	-1.53957	0.320955
0.1293	-8.27299	-1.27258	-2.8552	6.74786	1.80402	-67.7812	-7.77587	-11.8822	2.12355	0.64191
0.1300	-10.9895	-3.09054	-4.99388	9.79855	12.1771	-81.1931	-18.4539	-18.2859	5.48141	0.64191
0.1307	-12.8416	-3.71673	-8.04449	10.4087	13.659	-65.0224	-20.8958	-23.1718	6.39719	0.64191
0.1313	-18.0277	2.40375	-4.68991	11.0188	9.08451	-39.7265	-16.0121	-23.4754	7.61823	0.64191
0.1320	-23.8311	7.57485	0.195413	10.1036	8.1825	-39.3869	-11.1284	-20.7289	8.53401	0.64191
0.1327	-25.9303	4.82771	-0.716513	6.13772	11.5328	-43.3765	-9.90748	-25.9183	7.00771	0.320955
0.1333	-30.8693	-2.78755	-3.76712	1.85947	13.0791	-32.681	-10.8282	-18.5895	4.87089	-0.962865
0.1340	-37.9076	-6.14068	-3.15917	0.944264	10.6308	-18.6324	-10.8282	12.2292	3.64985	-0.64191
0.1347	-41.2414	-2.18156	-0.716513	1.85947	5.73419	-18.3353	-6.86518	26.5688	4.26037	0.64191
0.1353	-43.3406	0.262595	-0.108563	1.5544	0.257717	-22.3249	-4.1131	21.0758	4.87089	0.64191
0.1360	-34.5737	-2.18156	-1.62844	1.85947	0.579862	-21.3912	-4.72357	19.558	4.26037	0.320955
0.1367	-12.2243	-6.46388	-5.60183	5.83265	3.28589	-25.975	-5.0338	14.3685	4.26037	0.64191
0.1373	9.13733	-9.51402	-11.3991	11.3239	3.60803	-28.0971	-3.20242	8.87554	4.56563	0.320955
0.1380	29.5111	-9.19082	-14.1457	10.4087	5.15433	-23.2162	-0.760574	9.78622	5.17615	0.320955
0.1387	50.3788	-8.58484	-15.6764	5.22251	6.95835	-19.5661	-1.67126	13.4579	4.87089	0.320955
0.1393	58.2813	-7.97885	-21.4737	2.46961	6.6362	-16.5103	-2.89218	13.7614	3.64985	0.320955
0.1400	50.3788	-5.83769	-16.2844	0.639194	5.73419	-12.2235	-1.9815	2.15384	1.81829	0.320955
0.1407	35.3145	0.565589	5.38471	-0.276016	4.18789	-8.27635	-2.59196	-14.0216	0.902508	0.320955
0.1413	24.325	16.1193	16.0673	1.5544	4.83218	-8.27635	-1.9815	-17.3752	1.51303	0
0.1420	20.7442	24.0577	17.902	3.69716	6.37848	-1.86748	-0.760574	-15.2359	2.73407	0.320955
0.1427	18.5216	13.9983	17.5871	3.69716	5.41205	25.2959	-0.150113	-20.4253	3.03933	0.64191
0.1433	13.9529	-1.57557	5.99266	2.46961	3.28589	51.5256	-1.0608	-8.83217	2.12355	0.320955
0.1440	6.66778	-26.9059	0.195413	1.24933	2.06173	63.452	-2.89218	26.8724	1.51303	0.320955
0.1447	2.34607	-46.7419	2.63807	1.5544	2.38388	67.3992	-3.20242	42.7443	2.12355	0.64191
0.1453	1.23477	-26.9059	5.08073	2.46961	2.96374	57.3402	-2.28172	18.3293	2.73407	0.64191
0.1460	2.09912	6.96887	22.1685	2.46961	2.70602	35.3549	-1.9815	-10.35	2.42881	0.320955
0.1467	7.03821	25.5929	31.6351	0.639194	1.15972	14.8974	-3.20242	-3.33917	1.20777	0.320955
0.1473	9.13733	29.855	3.24602	-1.4963	1.80402	3.60764	-3.20242	4.29322	-0.0132722	0.320955
0.1480	6.42082	18.2604	-19.335	-2.4115	5.15433	-2.16458	1.38104	-16.1465	-0.318532	0.320955
0.1487	6.05039	7.57485	-10.7911	-1.80137	6.6362	-18.6324	6.56495	-14.9323	-0.318532	0.320955
0.1493	8.7669	6.36288	1.42217	0.334124	6.05634	-37.5619	7.48565	-3.64273	1.20777	0.64191
0.1500	7.28517	4.52471	3.86483	2.16454	2.96374	-42.7823	5.04381	-28.9684	2.12355	0.64191
0.1507	-0.987819	-0.0403992	3.24602	1.85947	0.579862	-45.7958	3.21242	-39.9544	0.597248	0.64191
0.1513	-9.13733	-5.2317	2.94205	1.5544	2.38388	-46.4324	5.34403	-16.7681	0.291988	0.320955
0.1520	-12.2243	-7.37286	0.195413	1.5544	3.60803	-32.0868	11.4486	3.07897	0.902508	0.320955
0.1527	-13.8295	-4.62571	-1.32446	0.639194	2.96374	-4.92337	14.8112	21.6974	0.597248	0.320955
0.1533	-18.6451	-4.92871	-0.716513	-2.10644	0.837579	17.6562	14.2007	32.0618	-1.23431	0.320955
0.1540	-26.9181	-9.51402	-2.24725	-6.37741	-5.5409	11.884	15.4216	23.5187	-3.37113	0.320955
0.1547	-35.1911	1.17158	-1.32446	-6.07234	-3.73689	5.77222	16.9428	18.0257	-3.06587	-0.64191
0.1553	-39.7597	16.7455	2.3341	-1.4963	8.1825	28.3518	12.6696	22.9116	-0.623792	-0.320955
0.1560	-39.3893	12.4632	3.55	0.944264	13.4013	42.0608	7.17542	16.8115	0.597248	0.64191
0.1567	-32.7215	2.40375	1.42217	-0.886155	13.9811	25.8901	2.29173	2.4574	-0.623792	0.320955
0.1573	-17.4103	0.262595	-0.108563	-2.71657	19.7797	3.31054	-4.1131	-2.41403	-1.23431	0.320955
0.1580	-0.370432	1.77757	2.63807	-1.4963	24.6764	-8.27635	-5.94449	1.54671	0.902508	0.64191
0.1587	12.4712	2.08056	3.24602	1.85947	21.5838	-18.3353	-1.0608	6.4326	3.03933	0.962865
0.1593	18.892	1.17158	-2.8552	4.00223	13.0791	-23.8529	1.68127	11.0149	3.95511	0.64191
0.1600	13.0886	-0.0403992	-4.37507	0.944264	3.93018	-18.0382	-1.37103	8.87554	1.51303	0.64191
0.1607	-2.83998	-0.646388	1.42217	-5.15713	-4.6389	-14.6852	-4.1131	-4.55341	-1.84483	0.320955
0.1613	-17.1634	0.565589	3.55	-3.93685	-8.31136	-14.9823	-11.7389	-14.3252	-2.15009	0.320955
0.1620	-27.5355	3.00974	-1.62844	-0.276016	-7.66707	-5.22046	-26.7002	-7.90704	-1.53957	0.64191
0.1627	-34.8206	2.70675	-0.716513	-3.32671	-8.89122	21.3063	-35.8471	4.59678	-3.37113	0.64191
0.1633	-41.2414	-2.48455	5.08073	-5.4622	-10.1154	45.7533	-34.0257	3.07897	-7.33951	-0.64191
0.1640	-43.0936	-4.92871	-0.108563	-0.886155	-11.6617	70.4551	-25.169	5.52192	-10.0869	-0.962865
0.1647	-28.3998	-1.27258	-12.615	3.39209	-16.5583	101.905	-9.60725	35.1119	-7.33951	0.320955
0.1653	0	0.262595	-13.8417	0.944264	-23.2589	110.436	2.60196	51.2873	-3.98165	0.64191
0.1660	28.6468	-2.78755	-1.32446	-6.37741	-25.9649	86.0316	1.9915	37.2512	-4.28691	0.320955
0.1667	48.7736	-3.71673	3.55	-10.3433	-20.4885	51.5256	-0.760574	16.5079	-6.11847	0.64191
0.1673	59.5161	-4.01972	-0.716513	-6.98755	-12.2415	31.7048	2.60196	-5.78211	-6.42373	0.320955
0.1680	62.4796	-3.71673	1.42217	-3.02164	-8.6335	14.6003	12.6696	-16.7681	-4.89743	0.320955
0.1687	57.2935	-0.646388	5.38471	-2.71657	-7.40935	-7.3426	22.1267	-16.1465	-2.76061	0.320955
0.1693	46.0571	2.08056	4.77675	-2.4115	-5.21876	-30.8559	23.6579	-14.9323	-1.53957	0.320955
0.1700	31.9806	0.868583	2.03012	-3.32671	-8.6335	-70.2428	18.1637	-16.1465	-1.84483	0.320955
0.1707	20.3738	-1.27258	-0.412538	-4.54699	-3.41474	-101.353	5.65427	-17.3752	-3.37113	0.64191
0.1713	11.6069	0.565589	0.803363	0.944264	30.1528	-80.896	-5.0338	-12.4894	-3.37113	0.320955
0.1720	3.58084	2.40375	2.63807	5.52758	57.0198	-41.5515	-7.16541	-4.24985	-1.53957	0.320955
0.1727	3.95128	3.31274	2.94205	0.639194	60.6922	-22.3249	-7.47564	-0.896227	-0.623792	0.64191
0.1733	-3.70432	3.61573	2.94205	-9.12304	61.2721	-16.2132	-8.68656	-4.55341	-4.28691	0.64191
0.1740	-38.7719	3.31274	3.24602	-13.6991	53.6695	-15.9161	-2.89218	-5.78211	-7.95003	0.320955
0.1747	-66.5543	4.52471	4.1688	-7.90276	38.3998	-18.6324	15.4216	-0.289106	-7.03425	0.320955
0.1753	-61.3683	6.05988	5.99266	-1.19123	23.7743	-30.2617	37.9987	2.77541	-4.89743	0.320955
0.1760	-65.9369	6.36288	7.21941	-2.71657	2.06173	-34.2089	47.4658	1.24315	-6.11847	0.64191
0.1767	-94.5837	4.82771	6.29663	-3.63178	-20.8106	-36.6706	40.1403	2.77541	-5.20269	0.64191
0.1773	-111.994	2.40375	5.08073	0.944264	-29.3797	-34.2089	29.152	7.64684	0.597248	0.320955
0.1780	-115.698	1.77757	4.47278	1.85947	-34.8562	-5.22046	12.0591	12.5327	5.17615	0.64191
0.1787	-50.3788	0.565589	1.11819	0.944264	-44.585	-3.69252	-11.4386	13.1398	4.87089	0.320955
0.1793	125.33	-1.87856	-2.8552	3.39209	-44.585	-24.15	-22.7272	8.87554	2.73407	0.320955
0.1800	199.539	-5.53469	-5.90581	5.83265	-38.5286	0.254657	-19.3746	9.48266	1.51303	0.320955
0.1807	68.6534	-8.58484	-8.34846	5.52758	-39.7528	36.8828	-14.4909	16.5079	2.42881	0.64191
0.1813	-54.0831	-6.46388	-6.20978	2.46961	-46.1313	35.0578	-6.25472	18.6329	2.73407	0.64191
0.1820	-80.6307	-2.78755	-1.94327	0.334124	-51.0279	-4.92337	3.51265	15.2792	3.03933	0.320955
0.1827	-47.6623	-2.78755	-2.55122	0.334124	-48.2574	-40.3207	5.34403	12.5327	5.17615	0.320955
0.1833	5.18605	-4.32272	-5.60183	-0.886155	-34.8562	14.3032	5.04381	11.0149	4.26037	0.64191
0.1840	9.13733	-6.76687	-7.43654	-1.4963	-24.4831	130.894	6.26473	12.2292	-0.318532	0.64191
0.1847	-11.3599	-8.58484	-7.74051	1.24933	-22.6146	186.748	3.82289	19.558	0.291988	0.64191
0.1853	-13.459	-8.28184	-7.12171	2.46961	-19.9086	165.357	3.82289	25.051	3.95511	0.64191
0.1860	-5.55648	-7.97885	-6.51376	1.24933	-16.5583	121.132	10.8382	18.6329	4.56563	0.320955
0.1867	13.706	-8.28184	-6.81773	-0.581086	-14.6898	79.9198	15.7219	1.54671	2.12355	0.320955
0.1873	45.6866	-7.06986	-5.90581	-1.19123	-11.3395	52.1622	13.8905	-11.8822	0.291988	0.64191
0.1880	77.4203	-3.39353	-1.94327	4.00223	-6.44291	31.1106	11.7589	-14.9323	3.03933	0.320955
0.1887	90.6324	0.262595	1.11819	10.4087	2.96374	-9.50719	7.17542	-17.9824	6.09193	0
0.1893	89.3976	3.00974	2.94205	9.18841	13.9811	-76.0151	-2.28172	-25.0076	7.00771	0.64191
0.1900	71.3699	3.61573	3.55	2.78195	15.7851	-149.271	-9.90748	-28.9684	6.39719	0.64191
0.1907	22.5964	3.00974	3.86483	0.0290543	12.4348	-197.189	-15.1014	-26.2219	5.17615	0.320955
0.1913	-11.3599	4.52471	5.99266	1.24933	16.7516	-211.238	-19.9851	-21.0324	4.56563	0.320955
0.1920	-5.55648	6.66587	7.21941	1.85947	25.9005	-188.319	-22.4269	-18.2859	5.17615	0.320955
0.1927	10.0017	6.66587	6.29663	2.46961	29.8307	-118.755	-19.0644	-16.4501	5.17615	0.64191
0.1933	34.2032	3.91872	4.47278	2.78195	24.6764	-34.8455	-16.9328	-16.7681	3.64985	0
0.1940	54.9474	0.565589	3.86483	3.69716	19.4576	3.01344	-17.233	-17.9824	2.42881	-1.28382
0.1947	55.5648	1.47457	5.38471	5.83265	21.9059	5.77222	-12.9598	-13.7036	3.64985	-0.320955
0.1953	67.0482	2.70675	4.77675	6.44279	22.8079	26.1872	-8.0761	-6.08567	4.56563	0.962865
0.1960	120.761	0.262595	2.03012	4.61237	16.1073	38.4107	-5.0338	-0.289106	4.87089	0.64191
0.1967	153.482	-3.39353	-1.32446	1.5544	6.6362	21.6458	-2.28172	1.54671	5.17615	0.320955
0.1973	86.3107	-4.92871	-4.0711	0.334124	3.28589	11.5444	-1.0608	3.07897	4.56563	0.64191
0.1980	-6.79126	-3.71673	-3.15917	1.24933	8.1825	13.709	0.160121	5.52192	3.95511	0.64191
0.1987	-65.0726	-1.87856	-1.32446	1.24933	12.4348	11.884	1.38104	7.03972	3.03933	0.320955
0.1993	-101.375	-1.27258	-1.62844	-0.581086	10.953	6.66352	4.73357	7.03972	2.12355	0.64191
0.2000	-49.5144	-2.18156	-2.24725	-4.24192	7.28049	-5.81466	9.31703	3.38253	2.12355	0.962865
0.2007	85.4464	-2.18156	-2.24725	-6.07234	5.41205	-18.6324	9.92749	-1.50335	2.73407	0.64191
0.2013	143.11	-2.18156	-1.02049	-4.24192	5.15433	-22.9191	8.09611	-2.11047	3.64985	0.64191
0.2020	75.9386	-3.71673	1.11819	-1.80137	2.38388	-36.6706	5.65427	-2.71759	4.26037	0.64191
0.2027	-17.1634	-3.71673	1.72615	-0.886155	-0.644291	-52.2046	-0.150113	-5.78211	4.26037	0.64191
0.2033	-81.8655	-4.32272	1.72615	0.639194	-0.966437	-43.3765	-4.72357	-10.9571	4.26037	0.64191
0.2040	-111.994	-1.57557	1.42217	2.16454	-3.41474	-14.9823	-5.0338	-14.3252	3.34459	0.320955
0.2047	-108.413	11.2512	0.803363	2.16454	-3.73689	5.77222	1.07081	-6.99635	2.73407	0.320955
0.2053	-71.123	16.7455	0.803363	1.85947	-0.0644291	11.2473	8.09611	2.77541	3.34459	0.64191
0.2060	-17.7807	6.66587	-0.412538	2.78195	4.83218	16.4254	3.51265	2.77541	3.64985	0.64191
0.2067	11.2364	-1.87856	-2.55122	4.3073	8.50464	18.887	-3.81288	0.939593	3.34459	0.320955
0.2073	12.4712	-3.39353	-3.76712	4.00223	9.98652	22.5371	-4.42334	2.15384	2.42881	0.64191
0.2080	6.42082	-1.27258	-1.94327	1.5544	13.9811	40.8724	0.160121	2.77541	0.902508	0.64191
0.2087	-1.23477	1.77757	1.11819	-0.276016	12.1771	54.8785	5.34403	1.24315	-1.23431	0
0.2093	-6.17387	3.61573	2.03012	-0.276016	1.80402	60.9903	3.51265	-3.94629	-1.84483	0.320955
0.2100	-7.6556	2.40375	-0.108563	-2.4115	-0.966437	63.452	-1.67126	-8.2106	-2.15009	0.64191
0.2107	-7.6556	0.565589	-2.24725	-6.07234	5.73419	44.8196	1.07081	-9.13573	-3.98165	0.64191
0.2113	-4.32171	2.40375	-0.412538	-8.20783	13.4013	10.6531	12.3693	-7.60348	-5.20269	0.320955
0.2120	0.617387	3.91872	0.803363	-6.07234	18.8777	-20.797	20.2953	-4.85697	-5.20269	0.320955
0.2127	2.7165	3.31274	0.803363	2.16454	22.5502	-37.5619	19.9951	-1.80691	-2.76061	0.320955
0.2133	2.7165	2.08056	0.803363	4.3073	22.5502	-42.1457	14.8112	1.85028	-1.23431	0.64191
0.2140	0.246955	0.262595	0.803363	-2.10644	17.0093	-50.6767	5.95449	3.07897	-2.76061	0.64191
0.2147	-1.60521	1.47457	2.03012	0.0290543	10.6308	-46.7295	-7.77587	-0.896227	-1.53957	0.320955
0.2153	-0.370432	4.22172	3.86483	7.358	4.18789	-17.444	-23.9481	-5.16053	1.51303	0.64191
0.2160	0.246955	4.22172	3.55	7.05293	-0.644291	-7.97925	-27.6108	-4.55341	-0.318532	0.64191
0.2167	0.617387	2.08056	0.803363	1.85947	-3.41474	-6.45131	-16.9328	-3.03561	-4.59217	0.320955
0.2173	0.617387	0.262595	-1.32446	-0.276016	-7.66707	19.1841	-8.68656	-3.94629	-5.50795	0.320955
0.2180	-6.79126	2.08056	0.499388	0.944264	-8.6335	30.1768	-7.16541	-5.16053	-3.67639	0.320955
0.2187	-19.0155	4.52471	2.94205	1.24933	-5.5409	20.415	-16.0121	-4.24985	-2.76061	0.320955
0.2193	-24.4485	3.91872	1.72615	-0.276016	-10.7597	13.3695	-29.142	-1.50335	-4.59217	0.320955
0.2200	-24.4485	2.40375	-6.20978	-3.32671	-20.8106	13.709	-28.8318	0.0289106	-7.95003	0.320955
0.2207	-31.7337	1.17158	-5.60183	-5.4622	-25.7072	32.9356	-22.7272	1.24315	-9.47633	0.64191
0.2213	-42.1058	1.77757	7.52339	-5.15713	-23.2589	70.158	-23.3376	4.90034	-7.95003	0.64191
0.2220	-52.2309	2.08056	11.7899	-3.63178	-16.5583	108.908	-23.3376	9.1791	-6.11847	0.64191
0.2227	-81.8655	2.08056	3.86483	-2.71657	-12.2415	147.361	-18.7642	8.57198	-6.42373	0.64191
0.2233	-119.65	2.40375	-5.90581	-4.85206	-11.3395	164.763	-14.4909	2.15384	-7.33951	0.64191
0.2240	-129.775	1.17158	-7.12171	-5.4622	-17.4603	156.826	-11.4386	-2.71759	-9.17107	0.64191
0.2247	-122.737	1.17158	1.42217	-4.85206	-11.6617	149.484	-8.99679	0.0289106	-10.3921	0.64191
0.2253	-110.265	2.70675	6.61146	-12.4788	22.8079	132.422	-6.25472	5.82548	-12.2237	0.64191
0.2260	-53.4657	2.08056	4.47278	-21.6382	51.801	105.555	-1.0608	9.1791	-14.0552	0.64191
0.2267	38.4015	-2.48455	-0.716513	-23.4686	58.8238	66.805	8.70657	12.8363	-11.9184	0.64191
0.2273	89.3976	-5.83769	-4.68991	-22.5534	56.3755	-18.3353	29.4522	12.2292	-9.78159	0.320955
0.2280	99.1523	-3.39353	-2.55122	-19.5027	45.1004	-102.881	59.3648	9.78622	-8.86581	0.64191
0.2287	101.005	-1.57557	1.11819	-14.3092	29.573	-139.212	74.6263	11.0149	-6.72899	0.320955
0.2293	60.9978	-4.01972	-1.62844	-6.37741	13.0791	-166.673	65.4694	6.73616	-1.84483	-0.962865
0.2300	-2.83998	-5.2317	-3.15917	3.69716	-7.66707	-187.725	40.7508	0.0289106	3.95511	-0.962865
0.2307	-24.4485	-4.62571	4.77675	12.8493	-18.3623	-207.248	7.48565	1.54671	8.83927	0.320955
0.2313	-3.95128	-3.09054	6.29663	16.5101	-10.7597	-172.785	-19.3746	7.64684	11.5866	0.320955
0.2320	18.2747	-1.27258	1.11819	14.0695	-5.86305	-34.506	-32.1943	10.7114	10.3656	0.320955
0.2327	28.3998	3.00974	5.99266	10.7138	-16.2361	56.1094	-30.9734	10.7114	9.44979	0.320955
0.2333	32.598	9.41302	-0.108563	7.66307	-24.1609	36.8828	-22.1167	8.26842	9.14453	0.64191
0.2340	32.9685	4.22172	-18.7271	4.91744	-23.2589	11.884	-15.4016	-1.19979	7.00771	0.320955
0.2347	23.4607	-9.51402	-13.8417	5.83265	-25.0629	1.4855	-11.4386	-7.90704	6.39719	0.320955
0.2353	6.05039	-10.423	2.3341	10.7138	-33.9542	-10.738	-7.47564	-4.55341	7.31297	0.320955
0.2360	-2.46955	-2.18156	3.55	15.9	-39.4306	-19.5661	-5.0338	1.24315	8.22875	0.320955
0.2367	-3.08693	2.08056	1.11819	12.8493	-35.436	-23.8529	-5.33403	2.4574	7.00771	0.320955
0.2373	-8.89037	6.36288	2.3341	4.3073	-26.9314	-20.4999	-3.81288	-2.11047	4.87089	0.320955
0.2380	-8.89037	9.71601	3.24602	2.46961	-18.6844	-20.4999	4.12311	-3.33917	5.48141	0.320955
0.2387	-0.617387	8.50404	3.24602	5.83265	-11.3395	-39.3869	8.70657	-2.11047	7.31297	0.320955
0.2393	-0.617387	5.4539	5.08073	7.96814	-10.7597	-69.3091	5.95449	-10.6535	7.92349	0.320955
0.2400	-4.32171	0.868583	5.08073	6.44279	-15.012	-82.4239	8.39634	-21.9431	6.70245	0.320955
0.2407	-1.60521	-0.646388	2.63807	3.08702	-15.5918	-80.0047	18.1637	-18.2859	3.03933	0.320955
0.2413	3.58084	3.31274	3.86483	-0.581086	-11.6617	-82.721	25.179	-6.69279	-0.318532	0.64191
0.2420	10.6191	6.36288	6.91544	-4.54699	-5.5409	-76.6517	24.8788	0.636032	-3.06587	0.64191
0.2427	18.2747	4.52471	6.29663	-5.76727	-0.386575	-43.9707	19.9951	4.90034	-3.98165	0.320955
0.2433	20.1268	2.08056	0.499388	-5.4622	-1.28858	-3.09832	9.0068	7.03972	-3.98165	0
0.2440	14.3234	1.47457	-9.56437	-3.93685	-6.44291	25.2959	-1.67126	8.57198	-3.37113	0.64191
0.2447	6.42082	2.08056	-15.6764	-0.886155	-7.66707	47.8755	0.460347	7.03972	-0.929052	0.64191
0.2453	0.617387	3.31274	-3.76712	-0.581086	-6.44291	60.3961	13.8905	0.636032	1.20777	0.64191
0.2460	-4.56866	3.31274	33.459	-4.24192	-10.1154	38.4107	25.7895	-10.35	2.73407	0.320955
0.2467	-7.03821	2.08056	49.9388	-7.29262	-15.914	10.9502	21.8265	-21.9431	3.03933	0.64191
0.2473	-5.18605	0.868583	13.6246	-3.32671	-19.0066	18.5899	5.04381	-16.4501	3.95511	0.64191
0.2480	-0.987819	1.77757	-15.0576	4.91744	-18.0402	41.4666	-6.25472	7.64684	5.48141	0
0.2487	5.43301	-0.343393	-8.65244	6.74786	-13.208	48.8092	-9.60725	15.8863	5.78667	0.320955
0.2493	8.7669	-4.01972	-8.04449	4.3073	-6.76506	29.2431	-12.3493	15.2792	4.26037	0.64191
0.2500	6.42082	-1.27258	-19.335	2.46961	1.80402	2.0797	-15.4016	21.3794	2.42881	0.64191
0.2507	3.33389	4.22172	-27.2709	1.24933	10.953	-6.45131	-15.7119	13.1398	-0.318532	0.320955
0.2513	2.7165	-3.09054	-31.2335	1.24933	19.1999	-7.3426	-12.0491	-10.0464	-0.318532	0.320955
0.2520	2.09912	-19.2704	-17.1963	1.85947	22.5502	-11.0351	-8.68656	-21.9431	1.20777	0.64191
0.2527	-2.83998	-27.5119	-1.02049	1.24933	22.5502	-10.1014	-7.16541	-6.99635	0.597248	0.320955
0.2533	-11.6069	-22.0176	-18.4231	-1.4963	19.7797	-4.92337	-7.16541	3.38253	-2.15009	-1.28382
0.2540	-17.1634	-12.5642	-25.4362	-3.63178	15.7851	0.891299	-6.86518	12.2292	-4.28691	-0.962865
0.2547	-19.5094	-7.67585	16.9792	-2.4115	15.5274	8.19146	-3.81288	38.4799	-3.37113	0
0.2553	-24.6955	22.2398	64.2799	-1.19123	15.7851	15.8312	-1.9815	35.4299	-2.45535	0.64191
0.2560	-25.0659	57.6295	55.1281	-1.19123	14.3033	18.887	-2.28172	4.59678	-1.84483	0.962865
0.2567	-15.9286	40.8436	20.0298	-2.10644	13.0791	17.062	-3.81288	-4.24985	-3.06587	0
0.2573	-8.27299	11.5542	25.827	-3.32671	12.4348	17.9533	-3.50264	-15.2359	-4.59217	-0.64191
0.2580	-5.55648	9.11002	46.2802	-3.63178	12.757	17.3591	0.460347	-51.8511	-3.06587	0.320955
0.2587	0.246955	6.05988	27.0538	-1.19123	9.40665	3.31054	1.07081	-71.6982	-0.929052	0.64191
0.2593	9.38428	-0.969581	-25.7402	3.08702	5.73419	-15.9161	-0.760574	-5.78211	-0.318532	0.320955
0.2600	14.5703	-3.71673	-42.828	3.39209	5.73419	-13.1573	-1.0608	109.282	-1.23431	0.64191
0.2607	19.5094	-5.83769	-16.2844	0.334124	5.73419	28.0547	0.160121	114.775	-2.45535	0.64191
0.2613	25.9303	-5.2317	1.42217	-0.886155	4.83218	73.5109	4.73357	28.4046	-1.53957	0.64191
0.2620	23.2137	-1.57557	3.55	0.0290543	4.18789	90.9125	12.0591	-11.5787	-0.0132722	0.64191
0.2627	10.0017	-0.343393	2.3341	0.639194	1.48187	91.2096	16.3323	-0.592666	0.902508	0.320955
0.2633	-0.987819	-1.57557	1.42217	-2.10644	-3.0926	76.5668	15.1114	24.7474	-0.318532	0.64191
0.2640	-8.02603	-0.343393	2.03012	-6.37741	-5.21876	35.9915	16.0321	59.2233	-3.37113	0.320955
0.2647	-16.1755	3.91872	3.86483	-7.29262	-0.386575	-5.22046	22.7372	87.917	-4.89743	0
0.2653	-25.3129	5.4539	5.99266	-6.68248	10.3087	-27.8	23.9581	102.864	-2.45535	0.320955
0.2660	-32.9685	1.77757	1.11819	-8.5129	15.7851	-47.9604	13.8905	78.7523	2.42881	0.962865
0.2667	-38.5249	-2.18156	-9.26039	-8.81797	14.3033	-68.0783	1.07081	-26.5254	6.70245	0.962865
0.2673	-45.8101	-4.32272	-9.56437	-6.68248	16.7516	-75.1238	-4.42334	-128.146	7.31297	0.64191
0.2680	-52.8483	-8.88783	-0.716513	-0.886155	23.7743	-69.9033	-1.9815	-132.121	7.00771	0.64191
0.2687	-53.4657	-10.12	2.94205	7.05293	25.2562	-58.9531	1.9915	-91.5308	9.75505	0.64191
0.2693	-42.1058	-0.0403992	0.499388	7.96814	18.5556	-52.5442	0.770582	-38.1186	13.1129	0.320955
0.2700	-18.3981	3.00974	-3.46315	0.639194	11.2107	-44.2678	-9.29702	7.03972	15.2497	0.64191
0.2707	6.66778	-4.32272	-5.90581	-4.24192	6.37848	-14.091	-21.8165	14.3685	6.39719	0.962865
0.2713	22.8433	-3.39353	-2.55122	-1.80137	1.15972	16.4254	-22.1167	20.1651	-11.6132	0.64191
0.2720	31.9806	-1.87856	2.03012	4.00223	-7.40935	36.2886	-15.4016	23.2152	-17.4131	0.64191
0.2727	34.6971	-3.39353	0.195413	4.61237	-11.3395	46.0504	-8.99679	1.24315	-10.3921	0.64191
0.2733	28.8937	0.565589	-4.0711	1.24933	-8.89122	37.1799	-6.86518	-26.829	-6.72899	0.320955
0.2740	21.3616	2.40375	-4.99388	0.334124	-8.6335	13.0724	-9.60725	-45.1438	-5.81321	0
0.2747	18.0277	-0.969581	-2.24725	1.24933	-7.98921	-16.8074	-8.99679	-50.6368	-4.89743	0
0.2753	17.4103	-5.2317	0.499388	0.334124	-6.44291	-25.975	-2.28172	-55.5227	-5.50795	0.320955
0.2760	19.139	-6.46388	2.3341	0.0290543	-11.9838	-10.3985	6.56495	-52.1691	-6.72899	0.64191
0.2767	21.979	-5.53469	1.42217	0.334124	-17.4603	0.254657	9.92749	-15.5394	-7.33951	0.320955
0.2773	18.2747	-9.19082	-2.24725	-1.19123	-7.66707	6.66352	7.78588	16.2044	-9.17107	0.320955
0.2780	11.8538	-6.46388	-3.15917	-1.19123	4.83218	22.5371	9.0068	-2.71759	-8.25529	0.320955
0.2787	10.3721	12.7662	-0.108563	1.5544	3.60803	36.2886	11.4486	-26.829	-3.98165	0.64191
0.2793	-4.9391	20.7046	3.24602	4.61237	-1.28858	35.652	11.1484	-24.0825	-0.623792	0.64191
0.2800	-42.4762	7.27186	1.72615	4.00223	-2.19059	29.2431	5.04381	-31.4113	-0.318532	0.64191
0.2807	-66.9247	0.565589	-1.94327	0.639194	-1.28858	28.0547	-4.72357	-34.1578	-1.84483	0.320955
0.2813	-67.1717	3.00974	-1.02049	-0.581086	1.48187	40.8724	-5.33403	11.9256	-3.06587	0.320955
0.2820	-62.85	3.00974	2.94205	-0.276016	5.73419	67.3992	2.29173	66.2485	-3.67639	0.64191
0.2827	-61.3683	3.61573	4.47278	-1.4963	7.86035	71.3888	5.34403	68.3879	-3.67639	0.64191
0.2833	-73.5925	1.17158	2.03012	-3.02164	5.41205	28.3518	6.26473	36.037	-4.28691	-0.64191
0.2840	-77.5438	-3.71673	-0.412538	0.0290543	2.38388	-31.153	5.04381	13.7614	-2.76061	-1.60478
0.2847	32.9685	-3.71673	-0.716513	6.13772	-1.86844	-64.1311	-3.81288	11.622	0.902508	0
0.2853	197.687	-2.48455	-3.46315	4.3073	-5.21876	-64.7253	-6.25472	25.051	1.20777	0.64191
0.2860	193.736	-3.09054	-5.29786	-1.80137	-3.41474	-56.4914	-2.59196	30.8476	-1.23431	0.320955
0.2867	86.0637	-1.87856	-3.15917	-2.4115	0.257717	-43.3765	-12.0491	5.82548	-1.84483	0.64191
0.2873	42.7232	-0.969581	-2.8552	-1.4963	0.579862	-11.6293	-22.4269	-10.0464	-1.53957	0.64191
0.2880	32.9685	-0.343393	-3.15917	-3.02164	0.257717	42.9946	-12.6596	12.5327	-1.84483	0.64191
0.2887	15.5582	1.47457	-1.62844	-4.54699	3.60803	96.0905	3.21242	38.7835	-0.929052	0.64191
0.2893	4.19823	1.77757	-1.02049	0.0290543	3.93018	108.908	5.65427	52.8196	2.73407	0.320955
0.2900	5.18605	0.262595	-2.24725	6.13772	-0.386575	90.6154	-1.37103	66.5521	6.39719	0.320955
0.2907	2.7165	-1.27258	-3.76712	3.08702	-5.21876	76.2697	-11.7389	55.8696	9.44979	0.64191
0.2913	-9.50776	0.868583	-1.02049	0.334124	-6.1852	65.8712	-26.3899	-14.0216	10.9761	0.64191
0.2920	-18.6451	4.82771	2.3341	3.69716	-4.31675	48.8092	-36.1573	-78.1019	10.0603	0.320955
0.2927	-24.2016	5.75689	1.72615	5.52758	-4.31675	22.8342	-30.3629	-66.8123	8.53401	0.320955
0.2933	-30.4989	3.00974	-0.412538	4.61237	-6.44291	5.13558	-17.5432	-37.2079	7.31297	0.64191
0.2940	-31.4867	0.262595	-2.24725	3.39209	-8.6335	6.66352	-12.3493	-28.9684	7.00771	0.64191
0.2947	-20.4972	0.868583	-1.94327	3.69716	-8.89122	-6.15421	-11.4386	-19.1966	8.83927	0.64191
0.2953	-8.02603	1.47457	-0.108563	3.39209	-5.86305	-22.622	-8.0761	-7.29991	8.83927	0.64191
0.2960	8.14951	-0.0403992	0.195413	0.639194	-3.73689	-14.091	-3.20242	2.4574	5.17615	0.64191
0.2967	28.0294	-2.48455	-1.62844	-5.15713	-2.83488	-5.81466	7.17542	7.34328	1.81829	0.64191
0.2973	15.8051	-3.39353	-3.15917	-11.5636	-2.19059	-12.8602	24.8788	2.4574	-1.23431	0.64191
0.2980	-15.9286	0.262595	-0.412538	-13.394	-0.966437	-29.0309	35.5568	-4.85697	-2.76061	0.64191
0.2987	-30.005	3.61573	3.24602	-6.37741	-2.51274	-40.6178	32.5045	-10.9571	-1.23431	0.64191
0.2993	-27.165	3.61573	3.55	5.52758	-3.73689	-16.8074	20.6056	-14.3252	0.597248	0.320955
0.3000	-8.02603	2.08056	1.72615	10.1036	14.8831	31.4077	3.82289	-11.8822	1.20777	0.320955
0.3007	19.139	-0.646388	-0.716513	8.2732	44.1984	73.5109	-3.20242	-6.38923	1.81829	0.320955
0.3013	16.4225	-1.27258	-1.02049	11.3239	60.0479	101.566	10.2277	-0.592666	2.73407	0.320955
0.3020	-1.60521	-0.646388	-1.32446	11.629	64.9446	83.2728	25.4892	4.59678	1.81829	0.320955
0.3027	24.0781	-2.78755	-2.55122	1.85947	58.2439	33.2327	22.7372	10.0898	-0.318532	0.64191
0.3033	62.85	-5.53469	-4.37507	-4.85206	44.1984	-9.50719	11.1484	12.2292	-1.53957	0.64191
0.3040	88.1629	-6.46388	-5.29786	-3.02164	36.5957	-50.3796	8.39634	10.0898	-0.623792	0.64191
0.3047	96.0654	-5.2317	-4.68991	-3.32671	21.5838	-80.3018	12.3693	5.21835	1.81829	0.64191
0.3053	52.4779	-2.48455	-2.24725	-6.68248	-7.66707	-90.0636	13.5903	-3.03561	3.03933	0.320955
0.3060	2.7165	-0.343393	-0.716513	-2.71657	-27.1891	-98.9342	9.61726	-8.83217	3.64985	0.64191
0.3067	-18.3981	-0.969581	-1.02049	4.91744	-37.5622	-123.339	-0.45034	-10.35	4.87089	0.64191
0.3073	-26.3007	-1.27258	-1.94327	7.96814	-55.2802	-158.099	-9.90748	-9.74286	6.09193	0.64191
0.3080	-13.8295	0.868583	-0.412538	10.1036	-58.3728	-173.082	-10.2177	-7.29991	5.17615	0.320955
0.3087	2.7165	2.70675	2.03012	9.79855	-37.5622	-135.859	-5.33403	-4.85697	3.34459	0.320955
0.3093	3.58084	2.70675	2.63807	5.22251	-24.1609	-73.2987	-3.50264	-4.85697	1.81829	0.320955
0.3100	0.246955	1.47457	1.11819	0.639194	-29.6374	-33.3176	-4.42334	-5.46409	-0.0132722	0.64191
0.3107	-0.617387	-0.969581	-1.32446	-3.02164	-38.7863	-14.6852	-5.94449	-6.08567	-3.06587	0.320955
0.3113	-2.22259	-1.27258	-0.716513	-4.24192	-40.3326	-2.80122	-5.33403	-3.94629	-4.89743	0.320955
0.3120	-4.32171	-0.0403992	1.42217	-3.02164	-34.534	-5.81466	-1.67126	-1.19979	0.291988	0.64191
0.3127	-5.55648	-0.969581	0.499388	-2.71657	-27.1891	-14.091	1.38104	-2.11047	7.92349	0.320955
0.3133	-4.9391	-4.32272	-1.62844	-3.63178	-20.4885	1.4855	1.38104	-3.94629	8.22875	-0.962865
0.3140	-4.56866	-7.97885	-2.55122	-3.02164	-14.6898	27.7152	0.160121	-2.71759	6.70245	-0.962865
0.3147	-5.80344	-4.01972	-0.412538	-1.80137	-10.1154	41.7637	2.60196	1.24315	4.56563	0.320955
0.3153	-9.50776	5.75689	2.63807	-1.80137	-8.31136	42.6975	6.56495	3.07897	-0.623792	0.64191
0.3160	-13.459	7.89805	2.3341	-1.4963	-8.31136	33.5298	7.17542	2.4574	-1.23431	0.320955
0.3167	-13.2121	0.565589	0.195413	-3.02164	-7.66707	22.8342	5.34403	0.636032	-3.98165	-0.962865
0.3173	-8.27299	-3.71673	-1.02049	-4.54699	-4.96104	15.8312	5.04381	0.332471	-12.5289	-0.64191
0.3180	-4.9391	-0.646388	-0.108563	-2.4115	-2.83488	5.77222	6.26473	1.24315	-14.3605	0.320955
0.3187	-5.80344	0.262595	0.803363	-0.276016	-2.83488	-10.3985	4.12311	-2.71759	-5.50795	-0.64191
0.3193	-6.79126	-0.969581	1.42217	0.334124	-1.61073	-17.444	1.68127	-5.16053	4.87089	-1.60478
0.3200	-4.56866	-1.87856	0.803363	-0.886155	-0.644291	-10.738	2.60196	-2.71759	6.09193	-0.962865
0.3207	-2.22259	-2.18156	-0.716513	-3.02164	-1.86844	-11.3322	4.12311	0.0289106	7.31297	0
0.3213	-1.23477	0.565589	-0.108563	-2.71657	0.257717	-22.0278	6.87519	3.07897	4.87089	0.64191
0.3220	-3.08693	2.70675	2.03012	-2.71657	4.83218	-14.9823	7.17542	4.59678	-15.8868	0.64191
0.3227	-4.56866	2.40375	2.03012	-0.886155	6.6362	9.4223	-0.150113	4.29322	-24.7393	0.64191
0.3233	-4.9391	0.868583	0.195413	2.16454	5.41205	23.4709	-9.29702	2.15384	-10.3921	0.64191
0.3240	-5.80344	-0.646388	-1.32446	0.639194	4.83218	25.2959	-9.60725	-0.289106	-4.59217	0.64191
0.3247	-6.17387	0.868583	-0.108563	-3.02164	7.60264	24.7017	-4.72357	0.636032	-7.95003	0.962865
0.3253	-5.18605	2.70675	1.72615	-4.54699	9.7288	17.062	-1.0608	2.15384	-8.86581	0.64191
0.3260	-4.9391	2.40375	2.03012	-4.24192	8.50464	-4.62627	-0.45034	2.77541	-9.47633	0.320955
0.3267	-5.80344	0.565589	0.195413	-3.32671	4.18789	-29.0309	-3.81288	1.85028	-10.6974	0.320955
0.3273	-6.42082	-0.646388	-1.32446	-3.32671	1.80402	-35.7368	-7.47564	0.332471	-10.3921	0.64191
0.3280	-7.40864	0.868583	0.195413	-3.63178	2.96374	-30.8559	-7.47564	1.85028	-8.56055	0.64191
0.3287	-7.6556	2.08056	1.11819	-3.63178	4.51004	-34.2089	-6.25472	3.98966	-7.33951	0.320955
0.3293	-7.40864	1.77757	1.42217	-3.32671	4.51004	-44.6074	-5.64426	3.98966	-7.03425	0.320955
0.3300	-7.40864	1.17158	0.499388	-3.63178	2.70602	-53.1384	-3.50264	2.4574	-7.64477	0.320955
0.3307	-8.64342	0.262595	-1.32446	-5.76727	-0.0644291	-58.0193	-2.89218	-0.289106	-6.42373	0
0.3313	-9.50776	0.262595	-0.108563	-6.37741	-0.386575	-58.3164	-1.9815	0.636032	-0.0132722	0.320955
0.3320	-9.75471	1.47457	1.72615	-6.07234	0.579862	-58.3164	5.95449	3.38253	7.00771	0.64191
0.3327	-10.7425	1.77757	1.72615	-4.54699	-0.0644291	-55.2605	16.0321	3.98966	9.14453	0.320955
0.3333	-12.2243	0.868583	0.499388	-4.24192	-1.86844	-39.3869	18.1637	2.15384	7.31297	0.320955
0.3340	-13.8295	-0.646388	-1.32446	-2.10644	-3.73689	-18.9719	14.2007	-0.289106	6.39719	0.64191
0.3347	-12.8416	0.868583	-0.412538	4.61237	-3.0926	-8.27635	10.538	1.54671	10.0603	0.64191
0.3353	-10.1251	2.40375	1.72615	3.08702	-0.386575	-11.9264	11.1484	4.29322	12.5024	0.64191
0.3360	-9.13733	1.77757	1.72615	-3.02164	1.15972	-14.9823	11.1484	3.38253	13.7234	0.64191
0.3367	-10.7425	0.262595	-0.108563	-1.19123	1.48187	5.13558	2.29173	0.939593	13.7234	0.64191
0.3373	-13.2121	-2.48455	-1.32446	2.16454	1.80402	55.5152	-9.60725	-1.19979	-5.81321	0.320955
0.3380	-13.8295	-4.01972	-0.108563	2.16454	2.70602	105.555	-11.1284	-2.41403	-28.9997	0.320955
0.3387	-13.2121	-3.71673	1.72615	1.24933	2.70602	112.261	-6.55495	-1.19979	-27.7787	0.64191
0.3393	-9.75471	-5.2317	2.03012	0.944264	2.70602	94.2655	-7.16541	0.939593	-16.1921	0.64191
0.3400	-4.32171	-6.14068	1.72615	0.334124	2.96374	80.514	-10.8282	1.85028	-10.6974	0.64191
0.3407	0.246955	2.70675	0.195413	-0.581086	1.80402	58.8682	-13.27	3.6861	-7.64477	0.64191
0.3413	-0.617387	13.3721	0.803363	0.334124	2.06173	35.9915	-10.8282	8.26842	-2.76061	0.320955
0.3420	-5.55648	10.6452	3.55	0.334124	3.28589	25.8901	-2.59196	4.90034	0.597248	0.320955
0.3427	-8.27299	4.82771	2.94205	0.639194	2.38388	21.6458	5.95449	-3.33917	1.51303	0.64191
0.3433	-8.89037	1.47457	-4.99388	1.24933	0.257717	17.3591	7.17542	-6.08567	0.597248	-0.962865
0.3440	-4.9391	-1.87856	-3.76712	-0.581086	-0.386575	20.415	3.82289	-3.03561	0.902508	-1.28382
0.3447	4.81562	-0.969581	7.52339	-0.886155	1.15972	27.121	1.9915	4.29322	4.26037	0.320955
0.3453	10.0017	-1.27258	3.86483	2.46961	1.80402	28.3518	0.770582	6.12904	7.92349	0.64191
0.3460	7.53212	-4.92871	-4.68991	4.61237	3.93018	27.4181	3.51265	3.07897	10.0603	0.320955
0.3467	4.56866	-6.46388	-5.29786	3.08702	5.15433	21.6458	7.78588	4.29322	8.83927	0.320955
0.3473	2.96346	-7.37286	-3.15917	0.639194	3.60803	10.6531	7.17542	3.38253	5.78667	0.320955
0.3480	1.48173	-7.67585	0.499388	0.334124	6.6362	6.66352	9.92749	0.636032	6.09193	0.320955
0.3487	1.23477	-0.969581	4.1688	0.639194	14.3033	26.1872	15.7219	2.4574	7.61823	0.320955
0.3493	0.864342	10.6452	4.77675	-0.276016	19.1999	52.4593	16.3323	7.64684	7.00771	0.320955
0.3500	-0.617387	11.5542	2.3341	-1.19123	20.6817	57.0431	14.2007	10.0898	6.39719	0.320955
0.3507	-2.83998	7.27186	-4.99388	-0.886155	22.228	48.1726	12.0591	8.26842	6.09193	0.320955
0.3513	-2.83998	8.20104	-8.95642	-1.4963	21.326	40.8724	11.1484	7.64684	5.17615	0.64191
0.3520	-0.987819	6.66587	-1.94327	-2.10644	16.7516	32.9356	12.0591	8.57198	3.64985	0.320955
0.3527	-1.60521	-0.0403992	3.86483	0.0290543	11.2107	22.24	6.26473	5.52192	2.42881	0.320955
0.3533	-3.70432	-5.83769	2.03012	3.69716	5.41205	12.4782	-9.29702	-7.60348	2.42881	0.64191
0.3540	-4.32171	-7.37286	0.195413	4.3073	-3.0926	7.30016	-19.9851	-21.336	1.81829	0.320955
0.3547	-3.95128	-6.46388	-0.716513	3.08702	-10.1154	-1.86748	-16.0121	-21.9431	1.81829	0.320955
0.3553	-3.08693	-0.646388	-1.32446	1.5544	-13.4657	-23.2162	-10.2177	-12.1858	2.73407	0.64191
0.3560	-1.85216	10.9482	-2.55122	-0.581086	-15.5918	-41.8486	-9.90748	0.636032	2.12355	0.64191
0.3567	-0.987819	17.3515	-3.46315	-1.4963	-15.3341	-47.9604	-11.1284	11.9256	0.291988	0.320955
0.3573	-1.23477	9.71601	-1.02049	-0.276016	-16.2361	-51.6104	-11.4386	27.1904	-1.23431	0.64191
0.3580	-3.33389	-0.646388	1.42217	1.24933	-17.7824	-41.2544	-9.60725	41.8336	-1.84483	0
0.3587	-5.18605	2.40375	1.11819	1.5544	-19.0066	-16.5103	-5.64426	43.0478	-0.929052	-0.962865
0.3593	-3.70432	11.2512	4.1688	1.85947	-19.5865	8.48856	-2.28172	29.3153	3.34459	0
0.3600	-5.80344	3.91872	5.99266	-0.581086	-15.5918	46.0504	-0.45034	10.0898	6.09193	0.64191
0.3607	-10.7425	-7.06986	-2.24725	-4.54699	-10.1154	73.2138	-0.150113	26.5688	3.64985	0.320955
0.3613	-10.1251	-4.32272	-4.0711	-3.63178	-6.44291	69.8609	1.38104	61.0591	2.12355	0.320955
0.3620	-5.55648	-0.969581	8.13134	-1.4963	-2.51274	64.0462	0.460347	26.5688	2.73407	0.320955
0.3627	-4.9391	0.868583	13.6246	-2.10644	0.257717	63.7491	-2.28172	-41.7902	3.03933	0.64191
0.3633	-5.18605	-1.87856	10.574	-2.71657	0.837579	49.9976	0.460347	-61.6228	3.64985	0.320955
0.3640	-1.23477	-10.12	6.91544	-2.10644	1.15972	21.3063	5.34403	-49.4081	-4.89743	0.320955
0.3647	1.85216	-8.88783	-4.68991	1.24933	1.48187	-9.21009	9.0068	-30.8042	-17.1078	0.64191
0.3653	0.246955	-6.46388	-12.311	3.08702	-0.0644291	-47.6633	14.2007	-14.9323	-16.8026	0.320955
0.3660	-3.33389	-3.39353	21.5605	0.334124	-0.966437	-86.7106	19.0844	-6.99635	-9.78159	0.320955
0.3667	-7.03821	15.2103	66.7226	-2.71657	-1.28858	-106.531	13.28	-3.64273	-4.28691	0.320955
0.3673	-6.42082	26.1989	39.875	-3.02164	-1.86844	-103.815	-0.45034	1.54671	-1.53957	0.320955
0.3680	-4.32171	15.8163	-11.0951	-0.886155	-0.644291	-72.6621	-8.0761	7.34328	-1.53957	0.320955
0.3687	-3.33389	4.22172	-10.4871	3.69716	0.257717	-42.7823	-8.38633	7.64684	-0.318532	0.320955
0.3693	-0.617387	1.17158	-0.716513	6.74786	-0.386575	-37.859	-8.38633	4.29322	1.51303	0.320955
0.3700	-2.83998	-2.78755	-17.5003	4.3073	-1.61073	-33.6147	-12.0491	-6.38923	-0.0132722	0.64191
0.3707	-13.2121	-16.5233	-44.3587	0.639194	-1.86844	-29.9646	-17.8435	-20.4253	-3.67639	0.64191
0.3713	-17.1634	-25.3707	-44.3587	0.639194	-0.644291	-32.3839	-19.0644	-37.2079	-5.81321	0
0.3720	-10.7425	-16.5233	-9.86834	1.85947	0.579862	-27.2058	-12.0491	-66.8123	-6.11847	0
0.3727	-10.3721	-12.2612	-4.99388	1.24933	0.579862	-18.9719	-5.0338	-75.6589	-5.81321	0.64191
0.3733	-19.8799	-35.4503	-49.852	-0.886155	-0.386575	-16.2132	-5.94449	-36.2972	-6.42373	-0.64191
0.3740	-19.0155	-47.0449	-70.9131	-2.4115	-1.61073	-13.7515	-7.16541	13.7614	-7.33951	-0.962865
0.3747	-4.32171	-12.5642	-17.1963	-1.4963	0.257717	-10.738	-3.20242	45.1872	-5.20269	0.320955
0.3753	4.81562	11.8572	59.1015	0.944264	2.96374	-9.50719	-0.150113	40.6049	2.12355	0.64191
0.3760	8.51994	2.08056	78.3171	2.78195	4.83218	-8.27635	0.160121	12.2292	12.8076	0.320955
0.3767	13.3356	3.00974	33.763	2.46961	5.73419	-7.68215	0.460347	7.34328	17.0813	0.64191
0.3773	14.5703	20.4016	-13.5378	0.334124	4.18789	-9.21009	1.07081	10.0898	14.6392	0.64191
0.3780	8.51994	30.158	-23.2975	-0.581086	3.28589	-8.27635	2.90219	16.8115	9.44979	0.64191
0.3787	2.34607	24.3607	-24.2203	0.0290543	3.60803	-3.69252	4.43335	80.5882	4.87089	0.320955
0.3793	0.864342	28.946	-22.9936	0.0290543	2.38388	-0.933742	2.60196	131.861	2.42881	0.320955
0.3800	0	42.6818	6.61146	-1.80137	0.257717	-0.636642	0.770582	52.8196	-6.11847	0.320955
0.3807	0.864342	31.0872	30.7124	-3.93685	-0.0644291	0.891299	0.770582	-54.9156	-18.9394	0.320955
0.3813	4.56866	10.6452	28.8885	-3.93685	1.15972	7.30016	1.68127	-65.9016	-20.1604	0.320955
0.3820	6.05039	4.22172	13.6246	-3.02164	1.48187	7.30016	3.82289	-26.5254	-9.78159	0.320955
0.3827	2.34607	0.868583	-0.412538	-3.02164	-0.386575	2.71634	3.82289	4.59678	0.597248	0.64191
0.3833	-3.95128	0.565589	6.29663	-1.80137	-1.28858	6.06932	1.38104	6.4326	4.87089	0.64191
0.3840	-3.95128	3.61573	0.499388	-0.886155	-1.28858	8.19146	-0.45034	0.636032	4.87089	0.320955
0.3847	1.85216	-0.969581	-15.6764	0.0290543	-0.386575	5.13558	-0.150113	4.59678	4.56563	0.320955
0.3853	4.56866	-8.88783	5.08073	1.5544	0.837579	4.54138	1.38104	0.0289106	4.56563	0.320955
0.3860	3.33389	-9.81701	33.459	2.46961	0.257717	5.47512	1.07081	-1.80691	4.87089	0.64191
0.3867	4.56866	-10.12	14.8405	1.85947	-1.28858	6.06932	-1.37103	9.1791	5.17615	0.64191
0.3873	4.81562	-13.1701	-20.8549	1.5544	-1.61073	3.94718	-1.37103	17.115	5.17615	0.320955
0.3880	1.85216	-17.1293	-15.9804	2.46961	-0.644291	0.254657	3.51265	10.0898	5.48141	0.320955
0.3887	-0.987819	-13.1701	8.43532	2.46961	-0.644291	-3.69252	8.09611	19.2544	6.39719	0.320955
0.3893	-2.22259	1.17158	5.08073	2.78195	-0.644291	-6.45131	10.2277	53.1231	6.09193	0.64191
0.3900	-4.56866	2.70675	-1.02049	2.78195	-0.644291	-12.2235	12.3693	73.8809	5.17615	0.64191
0.3907	-4.9391	-23.2296	3.86483	0.639194	-1.86844	-20.1603	13.28	84.2453	5.48141	0.64191
0.3913	-2.22259	-48.8831	-2.55122	1.24933	-1.86844	-22.3249	11.7589	94.3207	9.44979	0.64191
0.3920	0	-30.259	-9.86834	3.39209	-0.644291	-21.0941	5.65427	78.7523	12.8076	0.64191
0.3927	1.48173	11.5542	-3.46315	2.46961	0.257717	-20.797	-3.50264	-5.78211	11.5866	0.64191
0.3933	-3.95128	31.9962	5.08073	-1.4963	-0.0644291	-17.1469	-10.2177	-115.642	8.53401	0.320955
0.3940	-12.5947	49.3881	-7.43654	-2.71657	-0.644291	-14.091	-16.6225	-123.578	8.22875	0.64191
0.3947	-15.5582	57.0235	2.94205	0.944264	1.15972	-14.091	-19.6748	-46.9796	9.14453	0.64191
0.3953	-15.9286	29.249	56.04	3.39209	4.18789	-11.0351	-15.7119	7.64684	7.92349	0.64191
0.3960	-11.9773	-0.646388	60.9253	1.24933	4.18789	-6.45131	-9.90748	43.9729	6.09193	0.64191
0.3967	-3.95128	-0.343393	12.0939	-2.10644	2.38388	-4.62627	-6.55495	47.023	4.26037	0.64191
0.3973	0.246955	19.4926	-13.8417	-0.276016	0.257717	-3.09832	-4.42334	-58.8763	2.12355	0.64191
0.3980	2.7165	21.6136	-14.1457	4.3073	-0.644291	1.7826	-4.1131	-217.566	0.597248	0.320955
0.3987	6.05039	3.61573	-11.703	6.44279	-0.966437	10.9502	-6.55495	-238.628	0.597248	0.320955
0.3993	8.14951	-10.12	-12.007	5.83265	-0.644291	28.946	-8.38633	-93.6702	2.42881	0.320955
0.4000	11.2364	-17.4323	-16.5884	2.16454	-0.966437	43.9283	-8.99679	47.9337	1.51303	0.320955
0.4007	13.9529	-13.4731	-6.20978	-0.886155	-1.86844	41.1695	-8.38633	137.961	0.597248	0.64191
0.4013	13.9529	3.91872	14.5365	-0.886155	-0.966437	35.652	-5.33403	184.955	0.291988	0.64191
0.4020	11.6069	6.36288	12.4087	0.334124	0.579862	38.1136	-1.9815	122.711	-1.84483	0.64191
0.4027	5.43301	-8.28184	-4.99388	1.24933	0.579862	35.3549	1.38104	9.48266	-3.67639	0.64191
0.4033	-0.370432	-20.8056	-15.9804	-0.886155	-1.61073	20.7121	3.21242	-35.0685	-5.50795	-0.962865
0.4040	-0.987819	-25.6737	-17.1963	-3.02164	-2.83488	5.47512	5.34403	-20.1217	-7.64477	-1.28382
0.4047	-0.370432	-3.71673	-12.311	-3.93685	-1.28858	-6.74841	12.6696	-1.50335	-7.33951	0
0.4053	-0.617387	27.7341	-8.95642	-4.85206	-0.386575	-19.269	18.1637	12.5327	-5.81321	0.64191
0.4060	-1.23477	23.4517	-10.7911	-6.07234	-0.386575	-18.9719	16.0321	27.1904	-6.42373	0.320955
0.4067	-1.60521	9.11002	-9.26039	-3.93685	-1.61073	-10.1014	13.8905	46.4159	-8.25529	0.320955
0.4073	-1.60521	10.6452	-4.0711	4.3073	-3.99461	-11.0351	13.5903	69.2986	-6.72899	0.320955
0.4080	0.246955	5.75689	-1.62844	6.74786	-3.99461	-15.2794	15.7219	52.516	-4.59217	0.64191
0.4087	1.85216	-1.27258	-2.8552	3.08702	-1.28858	-14.9823	16.3323	-23.1718	-1.53957	0.64191
0.4093	1.23477	-1.57557	-7.12171	3.69716	-0.386575	-17.444	9.92749	-71.6982	8.22875	0.320955
0.4100	0.617387	-1.87856	-7.74051	4.61237	-1.28858	-18.9719	1.9915	-53.6869	15.555	0.320955
0.4107	0.246955	-1.27258	-8.34846	1.5544	-2.51274	-13.4544	-0.150113	-30.1826	13.1129	0.320955
0.4113	-0.617387	1.17158	-12.311	1.85947	-1.61073	-4.62627	1.07081	-17.6788	10.9761	0.64191
0.4120	-2.22259	3.00974	-1.02049	5.22251	-0.0644291	3.31054	1.68127	-11.2751	9.75505	0.64191
0.4127	-1.23477	3.00974	16.6752	6.44279	-0.0644291	10.356	0.460347	-17.3752	14.3339	0.320955
0.4133	1.23477	-3.09054	15.7633	5.22251	-0.966437	25.593	-1.37103	-20.7289	31.4152	0.320955
0.4140	-0.617387	-8.28184	6.61146	4.00223	-2.19059	42.4004	-3.50264	-21.336	38.131	0.64191
0.4147	-3.33389	-4.92871	1.72615	3.69716	-1.86844	39.6416	-4.42334	-21.9431	14.3339	0.64191
0.4153	-2.83998	-2.18156	-1.94327	3.08702	-0.386575	21.0092	-2.59196	-17.3752	-15.5815	0.320955
0.4160	-0.987819	-1.57557	-2.24725	1.5544	0.837579	7.89436	-0.150113	-10.35	-21.0762	0.64191
0.4167	0.617387	1.17158	-10.7911	-1.4963	0.257717	3.60764	0.160121	5.21835	-14.0552	0.320955
0.4173	-1.60521	3.31274	-27.2709	-4.85206	-1.61073	1.7826	-0.45034	24.4439	-16.4973	0.320955
0.4180	-1.85216	0.868583	-14.4497	-5.4622	-0.644291	3.94718	0.460347	27.7975	-20.1604	0.320955
0.4187	1.48173	-4.92871	14.8405	-6.68248	0.837579	6.36642	1.38104	29.6189	-20.4657	0.64191
0.4193	2.34607	-7.06986	17.5871	-7.59769	0.257717	6.96062	1.9915	46.0979	-27.1681	0.64191
0.4200	0.864342	-4.92871	7.82736	-9.42811	-1.61073	6.36642	1.68127	34.2012	-24.4341	0.64191
0.4207	-1.23477	-3.39353	5.08073	-11.5636	-2.19059	5.77222	1.07081	-16.7681	-5.81321	0.320955
0.4213	-2.46955	-1.57557	-2.24725	-8.5129	0.257717	6.36642	1.68127	-51.8511	0.291988	0.320955
0.4220	-2.46955	-1.57557	-14.1457	-3.93685	1.80402	6.36642	2.60196	-54.9156	-3.67639	0.320955
0.4227	-2.22259	-2.78755	-3.15917	-2.10644	0.579862	5.47512	2.60196	-36.9043	-0.929052	0.320955
0.4233	-1.23477	-4.01972	11.1819	-3.93685	-1.61073	3.31054	2.29173	-17.0717	1.20777	0.962865
0.4240	-0.370432	-4.92871	3.55	-6.68248	-1.86844	0.594199	3.51265	-10.6535	1.20777	0.64191
0.4247	-0.617387	-2.78755	2.63807	-4.24192	-0.966437	0.254657	5.34403	-9.74286	7.31297	0.320955
0.4253	-0.987819	0.262595	7.52339	1.85947	0.579862	2.41924	4.43335	-8.52861	12.1971	0.320955
0.4260	-1.23477	-0.0403992	1.72615	4.3073	0.579862	1.7826	2.29173	-5.78211	10.0603	0.64191
0.4267	-2.22259	-4.92871	-2.55122	3.39209	-0.386575	-0.636642	1.9915	-4.85697	10.6708	0.320955
0.4273	-2.46955	-9.51402	-1.02049	2.78195	-0.966437	-2.16458	1.38104	-7.29991	0.597248	0.320955
0.4280	-1.23477	-7.67585	0.803363	2.78195	-0.386575	-0.933742	-2.28172	-7.90704	-25.0446	0.320955
0.4287	-0.617387	-2.48455	2.3341	3.69716	-0.386575	3.60764	-5.94449	-6.69279	-29.9155	0.320955
0.4293	-1.23477	-0.343393	1.42217	3.69716	-1.28858	7.89436	-6.86518	-6.99635	-13.75	0.64191
0.4300	-1.85216	-1.87856	-0.108563	1.5544	-2.51274	6.66352	-8.0761	-7.60348	-5.20269	0.320955
0.4307	-2.46955	-4.32272	-1.32446	0.639194	-3.0926	1.4855	-9.29702	-7.60348	-2.76061	0.320955
0.4313	-2.83998	-4.32272	-0.412538	1.85947	-1.61073	0.891299	-5.0338	-5.16053	-0.929052	0.320955
0.4320	-1.85216	-1.57557	1.72615	4.00223	-0.644291	5.13558	2.29173	-1.50335	-0.929052	0.64191
0.4327	-1.85216	0.868583	1.72615	0.0290543	-2.51274	6.36642	3.21242	-0.896227	-0.623792	0.320955
0.4333	-2.46955	-1.27258	0.499388	-17.665	-5.21876	4.24428	1.9915	-3.94629	-1.23431	-1.28382
0.4340	-2.83998	-1.27258	1.72615	-27.1294	-8.31136	4.54138	4.43335	-5.46409	-1.84483	-0.962865
0.4347	-2.83998	4.82771	4.47278	-14.0042	-8.6335	8.19146	4.43335	-1.80691	-2.15009	0.320955
0.4353	-4.32171	3.00974	5.68868	1.85947	-7.40935	6.36642	5.04381	2.4574	-1.23431	0.64191
0.4360	-5.80344	-3.71673	3.55	10.1036	-7.0872	-5.51756	9.0068	3.07897	3.34459	0.64191
0.4367	-6.17387	3.31274	-4.37507	8.88334	-7.0872	-13.7515	12.0591	1.24315	4.26037	0.320955
0.4373	-8.89037	6.96887	-12.615	4.91744	-7.40935	-16.5103	12.0591	-5.46409	1.51303	0.64191
0.4380	-9.50776	-7.06986	-7.12171	4.91744	-5.86305	-18.9719	10.8382	-17.3752	3.03933	0.962865
0.4387	-6.17387	-10.12	22.4725	5.22251	-2.83488	-17.444	7.48565	-17.9824	5.48141	0.320955
0.4393	-5.18605	3.00974	61.8481	4.61237	-0.386575	-16.8074	3.21242	-9.43929	5.48141	0
0.4400	-5.80344	6.66587	36.5096	5.22251	-0.966437	-15.9161	0.160121	-18.2859	5.48141	0.64191
0.4407	-3.08693	3.61573	-38.2575	4.91744	-1.86844	-10.1014	-2.28172	-35.9936	4.87089	0.64191
0.4413	1.48173	5.4539	-51.9906	4.61237	0.579862	-3.98962	-2.59196	-11.5787	1.20777	0.320955
0.4420	0.617387	4.52471	-25.4362	4.3073	3.28589	-2.46168	-0.150113	30.544	-3.06587	0.320955
0.4427	-4.56866	-4.01972	-14.1457	3.08702	2.70602	-5.22046	0.770582	17.7222	-4.89743	0.64191
0.4433	-6.17387	-6.76687	16.0673	1.5544	-0.0644291	-11.3322	-1.0608	-21.0324	-5.81321	0.320955
0.4440	-3.70432	3.00974	44.1416	0.639194	0.837579	-14.6852	-1.37103	-16.4501	-6.72899	0.320955
0.4447	0.617387	6.66587	16.0673	0.334124	7.86035	-10.738	-0.45034	13.4579	-6.72899	0.320955
0.4453	3.33389	-4.01972	-13.5378	-0.276016	13.0791	-5.51756	-0.760574	24.4439	-9.78159	0.320955
0.4460	4.56866	-11.635	-6.51376	0.0290543	10.953	-6.74841	-1.67126	29.0117	-12.8342	0.64191
0.4467	3.95128	-8.58484	-0.716513	0.0290543	5.73419	-10.738	-0.760574	25.3546	-12.5289	0.64191
0.4473	-0.370432	-7.67585	-7.43654	-1.4963	1.80402	-11.3322	0.460347	17.4186	-11.0026	0.64191
0.4480	-5.18605	-7.06986	-12.311	-1.4963	1.48187	-7.97925	1.68127	75.7023	-6.72899	0.64191
0.4487	-6.17387	-3.39353	-6.81773	-0.581086	2.96374	-3.09832	2.29173	156.276	-2.76061	0.64191
0.4493	-4.9391	-3.39353	-0.412538	-1.80137	3.28589	3.94718	1.68127	99.5101	-2.76061	0.320955
0.4500	-3.70432	-2.18156	4.47278	-3.93685	1.80402	9.1252	0.770582	-36.2972	-3.98165	0
0.4507	-2.46955	-2.78755	13.0167	-5.76727	-0.0644291	6.66352	1.07081	-93.3666	-4.89743	0
0.4513	2.96346	-11.332	9.66207	-3.32671	0.257717	3.60764	1.9915	-79.0125	-2.76061	0.320955
0.4520	8.14951	-14.3821	-0.412538	0.334124	1.15972	5.13558	3.21242	-42.0938	1.81829	0.320955
0.4527	7.28517	-7.97885	-0.108563	0.944264	0.837579	8.19146	2.29173	-12.4894	3.64985	0.64191
0.4533	3.58084	-1.57557	0.803363	-1.19123	-0.966437	9.7194	-2.28172	-3.03561	1.20777	0.64191
0.4540	0.617387	6.66587	-0.716513	-4.85206	-2.51274	6.06932	-5.33403	2.4574	-2.15009	0.64191
0.4547	-0.370432	12.1602	-0.108563	-5.4622	-1.28858	0.594199	-4.42334	2.77541	-1.53957	0
0.4553	0	2.40375	-1.02049	-3.02164	0.579862	-1.57038	-3.20242	-8.52861	2.12355	0.320955
0.4560	0.864342	-9.51402	-2.55122	-0.581086	-0.386575	-0.0424428	-2.59196	-12.1858	5.78667	0.962865
0.4567	0.864342	-9.19082	-2.8552	1.24933	-1.61073	-1.27328	-2.28172	-2.11047	7.92349	0.64191
0.4573	0	-8.28184	-4.99388	0.639194	-1.86844	-2.16458	-1.9815	2.4574	7.61823	0.320955
0.4580	-0.370432	-12.2612	-5.29786	-1.4963	-0.644291	13.3695	-1.0608	1.24315	8.22875	0.320955
0.4587	-0.370432	-0.0403992	-3.76712	-2.71657	0.579862	34.124	0.160121	2.4574	10.3656	0.64191
0.4593	0.617387	23.4517	-1.94327	-0.276016	0.579862	58.5711	-0.760574	2.77541	17.0813	0.320955
0.4600	1.23477	19.4926	-2.24725	2.16454	2.96374	86.0316	-3.20242	-2.71759	24.089	0.320955
0.4607	-0.370432	0.565589	-9.26039	1.85947	8.1825	86.6258	-5.33403	-9.74286	27.1416	0.320955
0.4613	-1.23477	-3.39353	-12.9298	2.16454	12.757	70.4551	-3.81288	-8.83217	27.1416	-0.64191
0.4620	-1.60521	0.262595	-11.3991	3.69716	16.7516	55.2181	-0.150113	-2.11047	24.6995	0
0.4627	-1.85216	-1.27258	-12.311	5.83265	19.4576	33.2327	0.770582	-0.592666	17.6918	0.64191
0.4633	-2.22259	-1.87856	-0.716513	4.3073	16.7516	3.31054	-0.760574	-10.0464	-4.28691	0.320955
0.4640	-4.9391	3.31274	22.4725	2.46961	10.6308	-20.797	-1.9815	-23.4754	-33.2733	0.64191
0.4647	-7.6556	1.77757	21.8645	3.39209	6.05634	-32.9781	-1.37103	-30.5006	-43.0417	0.64191
0.4653	-8.02603	2.08056	7.82736	2.46961	3.93018	-46.7295	-0.150113	-14.0216	-34.7996	0.320955
0.4660	-7.03821	19.1896	9.34724	-0.886155	0.257717	-65.659	1.07081	30.2404	-22.2973	0.64191
0.4667	-8.64342	24.9869	-0.412538	-4.24192	-7.40935	-75.4209	0.460347	56.4768	-16.1921	-0.320955
0.4673	-8.89037	11.2512	-10.7911	-5.15713	-13.4657	-64.4282	-0.45034	31.4547	-14.3605	-0.962865
0.4680	-6.17387	7.89805	-1.94327	-2.10644	-14.4321	-43.3765	0.460347	17.7222	-10.3921	0
0.4687	-4.32171	7.27186	3.55	1.85947	-11.9838	-31.4501	1.07081	46.7195	-6.72899	0.64191
0.4693	-2.46955	-4.32272	3.24602	4.00223	-10.7597	-30.5588	0.460347	22.6081	-0.929052	0.320955
0.4700	0.617387	-9.51402	-1.02049	5.83265	-14.6898	-29.0309	0.770582	-43.6116	8.22875	0
0.4707	4.56866	-4.92871	-9.26039	7.358	-19.5865	-22.3249	1.9915	-49.1046	13.1129	0.320955
0.4713	7.90255	-6.76687	-8.34846	6.13772	-21.1328	-20.797	3.51265	-18.893	14.9445	0.64191
0.4720	7.03821	-8.58484	-2.55122	3.39209	-15.914	-27.5029	3.82289	-1.80691	16.4708	0.320955
0.4727	3.58084	4.52471	2.03012	3.69716	-8.31136	-32.3839	3.21242	4.59678	15.555	0.64191
0.4733	2.09912	17.6545	2.3341	3.08702	-6.1852	-31.153	2.60196	3.98966	12.5024	0.64191
0.4740	0	10.6452	-6.81773	-1.19123	-7.40935	-30.8559	2.29173	0.636032	9.44979	0.64191
0.4747	-2.46955	0.262595	-8.95642	-6.07234	-6.1852	-29.9646	2.60196	-3.94629	8.83927	0.64191
0.4753	-2.22259	-3.39353	3.86483	-9.42811	-3.73689	-24.15	4.12311	-3.94629	8.53401	0.320955
0.4760	-1.60521	-11.029	19.1179	-8.20783	-1.86844	-18.6324	4.73357	6.12904	6.09193	0.320955
0.4767	-1.60521	-17.1293	16.6752	-7.90276	-1.86844	-14.6852	3.21242	13.7614	14.0287	0.320955
0.4773	0.246955	-2.18156	-1.02049	-10.9535	-2.51274	-13.4544	0.460347	9.78622	28.9732	0.64191
0.4780	1.48173	18.5634	5.99266	-9.73318	-0.966437	-11.0351	0.460347	7.96486	33.8573	0.64191
0.4787	2.09912	12.1602	14.8405	-3.93685	-0.0644291	-6.15421	2.90219	3.6861	31.7205	0.320955
0.4793	3.58084	-6.14068	-5.90581	4.61237	-0.644291	-4.62627	2.29173	-9.13573	24.089	0.320955
0.4800	2.96346	-10.423	-20.2469	11.3239	-1.61073	-6.45131	-1.0608	-14.6287	12.1971	0.320955
0.4807	0.617387	-4.62571	-17.5003	11.934	-3.0926	-1.86748	-3.81288	-5.78211	2.73407	0.320955
0.4813	1.48173	-0.646388	-8.95642	13.7645	-2.83488	14.8974	-4.42334	7.96486	-4.89743	0.320955
0.4820	2.09912	-11.029	2.63807	16.205	-2.19059	29.8797	-4.1131	13.1398	-10.6974	0.64191
0.4827	0.246955	-13.4731	3.55	14.3746	-2.19059	26.8239	-3.81288	13.7614	-13.75	0.64191
0.4833	-2.22259	8.50404	-6.81773	10.4087	-2.19059	11.884	-3.20242	10.0898	-17.4131	0.320955
0.4840	-2.22259	13.9983	-10.1832	-4.54699	-3.99461	4.24428	-3.20242	-4.55341	-21.0762	0.320955
0.4847	0	-3.09054	-4.37507	-25.9092	-4.31675	6.36642	-1.0608	-11.2751	-27.7787	0.64191
0.4853	0.864342	-7.37286	-7.12171	-17.665	-2.51274	8.8281	1.68127	-4.55341	-31.4418	0.64191
0.4860	-0.617387	2.40375	-22.6896	41.228	-2.19059	12.7753	1.07081	2.77541	-23.213	0.64191
0.4867	-2.83998	8.20104	-15.3616	88.2306	-3.0926	20.415	-1.37103	8.26842	-14.0552	0.64191
0.4873	-4.56866	6.96887	29.1925	23.5267	-3.0926	24.7017	-3.50264	3.38253	-13.1395	0.64191
0.4880	-2.22259	6.05988	46.2802	-68.3284	-1.61073	20.415	-1.67126	-7.60348	-13.4447	0.320955
0.4887	1.85216	8.80703	22.4725	-56.4234	-0.386575	11.5444	0.460347	-6.38923	-9.78159	0.320955
0.4893	2.34607	10.322	6.61146	-11.5636	0.579862	6.96062	1.38104	-6.38923	-7.33951	0.64191
0.4900	1.48173	6.05988	4.1688	-1.80137	2.70602	6.06932	1.07081	-10.9571	-6.72899	0.64191
0.4907	0	2.08056	4.77675	1.24933	3.60803	5.77222	0.160121	-13.7036	-6.11847	0.64191
0.4913	-0.617387	2.08056	-1.94327	9.79855	2.96374	6.96062	-0.150113	-20.4253	-3.06587	0.320955
0.4920	-0.987819	3.31274	-9.86834	11.629	2.70602	7.89436	1.9915	-15.5394	-0.318532	0.64191
0.4927	0.246955	3.00974	-6.81773	-6.07234	2.06173	7.30016	3.82289	1.54671	-0.318532	0.64191
0.4933	0.617387	-0.0403992	-3.76712	-26.2142	0.579862	7.30016	1.68127	8.57198	-3.98165	-0.962865
0.4940	-0.617387	-2.18156	-7.12171	-22.8585	-0.0644291	8.19146	-2.28172	7.03972	-7.33951	-1.28382
0.4947	-0.370432	0.868583	-9.56437	-7.90276	0.579862	7.30016	-1.9815	7.34328	-6.72899	0.320955
0.4953	0	4.52471	-8.65244	-0.276016	1.48187	2.41924	1.38104	7.03972	-6.72899	0.64191
0.4960	-1.85216	3.61573	-6.20978	-0.276016	2.38388	-0.0424428	3.51265	7.03972	-11.9184	0.320955
0.4967	-3.08693	-0.646388	0.803363	-4.85206	1.48187	1.7826	3.82289	8.26842	-16.8026	0.64191
0.4973	-2.46955	-5.53469	14.5365	-7.59769	-0.644291	1.7826	2.60196	8.26842	-16.8026	0.64191
0.4980	-0.987819	-8.88783	11.1819	-5.15713	-0.386575	1.7826	1.68127	11.9256	-10.6974	0.64191
0.4987	-0.370432	-11.029	-1.62844	-2.4115	1.48187	2.71634	3.21242	14.9757	-2.76061	0.64191
0.4993	0	-16.8263	4.47278	-1.19123	2.06173	1.7826	5.04381	5.52192	0.597248	0.64191
0.5000	0.617387	-28.1179	0.803363	-1.4963	0.837579	1.4855	4.43335	-4.85697	-0.623792	0.64191
0.5007	0.246955	-25.6737	-13.5378	-4.54699	-1.61073	0.891299	1.9915	1.24315	1.51303	0.64191
0.5013	-2.46955	0.565589	-18.4231	-7.59769	-1.86844	-3.09832	1.68127	11.622	4.26037	0.64191
0.5020	-5.55648	17.6545	-15.0576	-6.37741	-0.644291	3.01344	1.07081	5.52192	3.95511	0.320955
0.5027	-6.17387	14.3013	4.47278	-2.71657	0.837579	32.0019	-1.0608	-6.08567	6.39719	0.320955
0.5033	-10.9895	18.5634	24.9151	-1.80137	1.48187	47.8755	-3.20242	-12.1858	6.70245	0.64191
0.5040	-18.6451	17.6545	40.787	-3.32671	0.257717	35.652	-3.50264	-22.8682	2.73407	0.64191
0.5047	-16.7929	-7.67585	45.0535	-3.32671	0.257717	26.1872	-0.45034	-17.9824	1.81829	0.64191
0.5053	-8.27299	-16.5233	34.6858	-1.80137	1.15972	22.24	3.21242	-1.50335	1.81829	0.320955
0.5060	-3.33389	4.82771	27.9657	-1.4963	1.15972	11.884	4.43335	-10.9571	2.12355	0.320955
0.5067	-1.85216	14.6043	4.77675	-2.71657	-0.0644291	-3.98962	2.90219	-19.8182	3.64985	0.962865
0.5073	1.48173	6.36288	-23.9163	-4.85206	-1.61073	-20.797	1.9915	-10.6535	3.34459	0.64191
0.5080	5.80344	3.31274	-17.5003	-4.24192	-0.644291	-33.3176	4.73357	2.4574	4.56563	0.320955
0.5087	5.43301	-0.646388	0.499388	0.944264	0.579862	-42.7823	7.17542	41.53	8.22875	0.320955
0.5093	2.7165	-8.28184	-5.29786	3.39209	0.579862	-54.3692	9.61726	70.2093	8.83927	0.320955
0.5100	3.95128	-5.53469	-14.4497	0.944264	-0.0644291	-65.0224	10.8382	36.9477	7.61823	0.320955
0.5107	3.95128	3.00974	-4.37507	-1.19123	-0.966437	-59.2502	8.39634	-4.85697	6.09193	0.64191
0.5113	-2.22259	11.2512	1.11819	0.0290543	-1.61073	-35.7368	2.60196	0.636032	4.56563	0.64191
0.5120	-5.18605	13.3721	-16.2844	1.24933	-1.28858	-1.27328	-3.20242	46.0979	3.34459	0.320955
0.5127	-1.23477	8.20104	-26.967	0.944264	-0.0644291	33.8269	-7.16541	65.3378	2.73407	0.64191
0.5133	1.85216	3.61573	-13.2338	0.639194	0.579862	42.0608	-8.99679	17.115	2.42881	0.320955
0.5140	3.95128	-4.92871	-4.99388	1.24933	0.579862	24.0651	-8.68656	-17.6788	2.73407	0.64191
0.5147	6.05039	-15.0083	-10.1832	2.78195	1.48187	11.5444	-5.64426	10.3933	5.78667	0.64191
0.5153	3.58084	0.565589	-7.43654	3.08702	2.70602	6.66352	-3.20242	53.4267	14.6392	0.64191
0.5160	1.23477	28.0371	2.3341	2.78195	2.06173	1.4855	-2.89218	54.0338	23.7837	0.64191
0.5167	2.96346	22.8458	-0.716513	1.85947	0.579862	-0.636642	-3.50264	-2.11047	26.2258	0.64191
0.5173	3.33389	3.00974	-13.5378	0.639194	-0.386575	-1.27328	-4.1131	-43.6116	23.1732	0.64191
0.5180	1.23477	3.00974	-11.703	1.24933	-0.386575	-1.86748	-5.64426	-43.9151	22.2574	0.320955
0.5187	0.864342	9.71601	9.34724	2.78195	0.837579	-1.57038	-8.68656	-32.0184	22.868	0.320955
0.5193	1.23477	8.50404	23.6992	0.334124	2.38388	-0.933742	-9.60725	-6.08567	23.4785	0.64191
0.5200	2.09912	2.70675	16.0673	-2.10644	1.48187	-1.57038	-9.90748	11.0149	25.0048	0.64191
0.5207	4.19823	-1.57557	2.63807	-0.886155	-0.386575	-3.69252	-11.1284	-0.896227	10.0603	0.64191
0.5213	2.96346	-2.48455	-1.32446	1.24933	0.257717	-2.80122	-8.68656	-21.6395	-17.1078	0.64191
0.5220	0.864342	-2.18156	-1.62844	1.5544	2.06173	0.594199	-4.1131	-18.893	-24.1288	0.962865
0.5227	0	-6.46388	-1.62844	0.334124	2.06173	0.891299	-1.37103	-8.52861	-12.8342	0.962865
0.5233	-1.85216	-10.726	-0.108563	-1.4963	0.257717	-0.933742	-0.150113	-23.7789	-6.72899	-0.64191
0.5240	-3.08693	2.40375	6.91544	-0.276016	-0.386575	-1.27328	-0.760574	-27.7541	-6.11847	-1.60478
0.5247	-2.46955	20.4016	20.0298	6.74786	1.48187	3.60764	0.460347	-2.71759	-2.15009	0
0.5253	-3.70432	24.3607	20.9526	13.4594	2.96374	7.89436	5.34403	6.12904	0.902508	0.962865
0.5260	-4.9391	23.1488	-3.76712	16.205	1.48187	-0.636642	9.92749	-3.94629	0.902508	0.320955
0.5267	-3.95128	10.019	-32.4602	18.3405	-0.0644291	-8.87055	10.2277	0.332471	1.81829	0.64191
0.5273	-5.80344	-6.46388	-32.7642	19.5608	-0.644291	-4.92337	9.31703	24.7474	3.34459	0.64191
0.5280	-9.13733	-1.57557	-13.5378	21.0861	-0.0644291	0.254657	10.2277	52.516	3.95511	0.320955
0.5287	-8.02603	9.71601	0.195413	19.2557	1.48187	2.71634	7.48565	49.1624	2.73407	0.64191
0.5293	-5.55648	10.9482	36.2056	17.1202	2.06173	3.60764	3.51265	1.54671	0.902508	0.64191
0.5300	-2.83998	5.1509	82.2905	17.7304	0.257717	1.4855	1.68127	-18.2859	1.20777	0.320955
0.5307	0.864342	-2.18156	56.3549	2.78195	-0.966437	-0.933742	2.29173	11.3185	2.12355	0.64191
0.5313	1.48173	-3.39353	-8.65244	-20.723	0.257717	-3.09832	4.43335	-20.4253	1.51303	0.64191
0.5320	0.864342	-0.969581	-21.4737	-20.723	0.837579	-5.81466	5.65427	-89.3914	-0.623792	0.320955
0.5327	2.7165	-0.969581	-7.74051	-7.29262	0.257717	-7.3426	5.65427	-78.1019	-3.06587	0.320955
0.5333	4.56866	-5.83769	-12.311	-7.29262	-0.386575	-17.444	7.48565	-25.0076	-6.72899	0.64191
0.5340	3.58084	-11.938	-12.9298	-12.7839	-1.28858	-31.7897	9.61726	7.64684	-10.3921	0.64191
0.5347	2.09912	-15.0083	-6.20978	-11.5636	-0.644291	-37.2648	8.09611	20.1651	-9.78159	0.64191
0.5353	1.23477	-15.0083	-10.7911	-7.90276	0.837579	-35.4397	6.56495	14.6721	-7.33951	0.320955
0.5360	0	-18.6644	-17.8043	-9.42811	2.38388	-10.738	11.4486	2.77541	-7.64477	0.320955
0.5367	0	-24.1587	-13.8417	-12.4788	1.80402	22.24	15.7219	-7.60348	-8.86581	0.64191
0.5373	0.864342	-17.7555	-2.8552	-9.42811	-0.644291	31.4077	14.8112	-17.6788	-10.0869	0.64191
0.5380	2.34607	0.565589	-3.15917	-5.76727	-0.386575	30.1768	16.3323	-12.4894	-11.0026	0.64191
0.5387	3.95128	12.7662	-18.1082	-7.90276	1.48187	31.1106	20.2953	7.34328	-11.6132	0.64191
0.5393	2.7165	13.0691	-13.2338	-5.76727	0.579862	35.3549	19.6949	4.29322	-10.3921	0.64191
0.5400	-0.370432	6.96887	13.9286	0.944264	-1.86844	35.3549	14.5009	-18.5895	-7.33951	0.64191
0.5407	-0.370432	1.17158	15.7633	-0.276016	-3.0926	27.4181	9.92749	-7.60348	-5.50795	0.64191
0.5413	2.09912	-4.01972	-4.37507	-3.02164	-2.51274	39.0049	4.43335	25.6581	-3.06587	0.64191
0.5420	2.7165	-9.51402	-5.60183	0.334124	-2.19059	77.4581	-1.37103	25.051	-0.318532	0.64191
0.5427	1.48173	-5.53469	5.99266	2.78195	-3.0926	119.307	-6.55495	8.87554	1.20777	0.320955
0.5433	0.864342	2.08056	6.91544	1.85947	-3.99461	125.376	-12.6596	9.1791	2.12355	0.320955
0.5440	0.864342	-0.343393	0.499388	-0.276016	-3.99461	78.3919	-15.7119	20.7722	1.51303	0.320955
0.5447	0.617387	-3.09054	-0.412538	-1.19123	-3.0926	21.0092	-12.0491	39.9977	-0.0132722	0.64191
0.5453	0.246955	-0.646388	1.72615	-1.4963	-1.28858	-13.4544	-8.99679	59.8448	-0.318532	0.64191
0.5460	-0.370432	0.262595	2.3341	-2.4115	-0.0644291	-29.0309	-12.9598	70.5128	-0.0132722	0.320955
0.5467	-0.370432	-1.27258	1.42217	-2.71657	-1.28858	-35.7368	-18.4539	38.1764	0.291988	0.320955
0.5473	-0.370432	-2.78755	-0.412538	-1.80137	-2.19059	-46.4324	-22.4269	-42.3973	0.291988	0.64191
0.5480	-0.987819	-1.87856	0.195413	0.334124	-0.644291	-68.0783	-22.7272	-79.0125	0.902508	0.320955
0.5487	0	-0.0403992	2.3341	2.16454	0.837579	-82.721	-16.9328	-51.8511	2.12355	0.64191
0.5493	0.246955	0.565589	2.94205	2.46961	1.15972	-80.5989	-11.1284	-29.2719	2.42881	0.320955
0.5500	-0.617387	-0.969581	0.803363	0.639194	-0.0644291	-76.3122	-8.38633	-22.2611	1.20777	0.64191
0.5507	-1.60521	-2.48455	-1.02049	-0.581086	-2.19059	-72.0679	-6.25472	-15.5394	-0.318532	0.64191
0.5513	-1.23477	-1.57557	-0.108563	1.5544	-1.86844	-56.1943	-3.81288	-9.13573	-0.0132722	0.320955
0.5520	-1.23477	-0.0403992	1.72615	4.00223	0.257717	-29.0309	-2.59196	-10.0464	1.51303	0.320955
0.5527	-1.60521	1.17158	2.3341	5.52758	2.38388	-6.15421	-0.760574	-11.8822	2.42881	0.64191
0.5533	-1.85216	-1.27258	0.195413	3.39209	3.60803	-1.27328	1.38104	-7.29991	1.81829	-0.64191
0.5540	-1.85216	-4.62571	-1.02049	0.0290543	3.60803	-3.98962	4.43335	-6.99635	0.291988	-1.28382
0.5547	-1.23477	-1.87856	0.195413	-0.581086	3.93018	-7.04551	8.09611	-7.29991	0.291988	0
0.5553	-0.617387	1.47457	1.11819	-0.886155	3.60803	-14.3881	7.78588	-4.55341	0.597248	0.64191
0.5560	-0.617387	1.17158	2.3341	-0.276016	2.06173	-19.269	5.04381	-3.33917	0.902508	0.320955
0.5567	-0.987819	-0.0403992	1.11819	0.0290543	0.837579	-18.3353	5.65427	-3.94629	0.902508	0.64191
0.5573	-1.60521	-1.57557	-1.62844	-1.80137	-0.644291	-16.5103	6.26473	-6.38923	-0.0132722	0.64191
0.5580	-2.22259	-0.646388	-1.02049	-0.886155	-0.0644291	-15.619	4.73357	-5.78211	0.902508	0.320955
0.5587	-3.08693	0.868583	0.803363	1.85947	1.80402	-14.9823	-3.20242	-3.64273	2.73407	0.320955
0.5593	-3.95128	0.868583	1.11819	2.78195	1.80402	-12.8602	-11.4386	-2.71759	5.17615	0.320955
0.5600	-1.85216	-0.0403992	0.499388	1.85947	2.38388	-9.80429	-11.4386	-1.80691	10.0603	0.320955
0.5607	0	-1.57557	-0.716513	0.639194	5.15433	-2.80122	-8.0761	-1.80691	13.4182	0.64191
0.5613	-0.617387	-1.27258	-0.716513	0.334124	6.37848	8.19146	-4.72357	-2.11047	14.0287	0.64191
0.5620	-0.987819	0.868583	1.11819	1.24933	5.15433	13.3695	-2.28172	-0.896227	14.3339	0.64191
0.5627	-0.617387	3.00974	1.11819	1.5544	3.28589	12.7753	-1.67126	0.636032	13.4182	0.320955
0.5633	-1.23477	3.61573	-1.02049	0.639194	1.15972	15.5341	-2.89218	0.332471	10.6708	0.320955
0.5640	-2.22259	1.77757	-3.15917	-0.581086	-0.386575	15.8312	-3.81288	-1.80691	11.5866	0.320955
0.5647	-2.83998	2.40375	-2.55122	0.639194	0.837579	10.6531	-2.28172	-1.50335	1.20777	0.320955
0.5653	-1.85216	5.4539	-1.94327	2.16454	2.70602	7.59726	-0.150113	-1.19979	-24.1288	0.64191
0.5660	-1.85216	2.08056	5.99266	2.78195	1.80402	6.36642	0.770582	-4.55341	-27.1681	0.64191
0.5667	-0.987819	-4.32272	14.2326	1.85947	0.579862	4.83848	-0.45034	-6.99635	-10.3921	0.64191
0.5673	0.246955	-1.27258	1.11819	1.24933	0.579862	3.01344	-1.9815	-3.03561	-5.50795	0.64191
0.5680	-1.23477	4.52471	-14.7537	2.16454	1.15972	2.71634	-1.67126	5.52192	-7.03425	0
0.5687	-1.60521	-0.646388	-10.4871	3.39209	2.06173	3.94718	-1.0608	7.96486	-4.89743	0
0.5693	-0.617387	-8.88783	-0.108563	4.00223	2.38388	4.24428	-0.45034	1.85028	-4.89743	0.320955
0.5700	-1.23477	-13.1701	3.86483	2.16454	1.15972	3.31054	0.160121	-5.16053	-0.318532	0.64191
0.5707	-2.83998	-12.8672	16.3712	0.944264	-0.0644291	2.71634	-0.760574	-7.60348	17.6918	0.320955
0.5713	-3.08693	-9.51402	33.763	2.78195	0.837579	2.71634	-1.37103	-6.08567	30.8047	0.320955
0.5720	-0.617387	-12.5642	16.0673	6.44279	1.80402	3.31054	-0.150113	1.24315	27.1416	0.320955
0.5727	2.7165	-7.37286	-14.7537	7.66307	1.80402	3.31054	0.160121	11.0149	19.8286	0.320955
0.5733	2.7165	14.3013	-17.5003	4.61237	-0.0644291	1.7826	-0.760574	13.4579	14.3339	0.64191
0.5740	1.48173	17.0485	-9.26039	1.85947	-1.86844	0.891299	-1.67126	9.78622	7.00771	0.64191
0.5747	0.246955	5.1509	-4.37507	2.16454	-1.28858	0.891299	-0.760574	7.03972	2.73407	0.64191
0.5753	-0.617387	2.08056	-1.02049	1.24933	-0.0644291	1.4855	-0.150113	5.82548	-3.67639	0.64191
0.5760	-1.23477	3.91872	2.63807	1.5544	0.257717	2.0797	-0.45034	1.85028	-14.6658	0.64191
0.5767	-1.85216	6.96887	6.29663	5.22251	-0.644291	0.891299	-0.45034	-3.03561	-18.0236	0.320955
0.5773	-2.46955	8.50404	4.47278	3.08702	-1.28858	0.254657	-1.0608	-4.24985	-10.3921	0.320955
0.5780	-1.60521	7.89805	4.47278	0.944264	0.257717	2.0797	0.460347	-1.50335	-0.318532	0.320955
0.5787	-0.987819	8.50404	4.77675	7.96814	0.837579	3.01344	1.68127	0.0289106	4.56563	0.320955
0.5793	-1.85216	8.80703	-9.56437	13.4594	0.257717	2.0797	0.770582	-0.289106	6.09193	0.320955
0.5800	-1.85216	5.1509	-19.335	10.1036	-1.28858	1.1884	-0.45034	-0.896227	0.902508	0.320955
0.5807	-0.370432	-3.39353	-4.99388	6.13772	-1.86844	1.1884	-1.0608	-1.19979	-18.0236	0.320955
0.5813	-0.370432	-6.76687	3.55	-0.276016	-0.386575	2.41924	1.38104	-1.19979	-31.4418	0.320955
0.5820	-1.85216	0.262595	-4.0711	-12.7839	1.15972	3.60764	3.82289	-1.50335	-25.3499	0.64191
0.5827	-2.46955	5.1509	-8.95642	-22.2483	1.48187	4.24428	3.21242	-3.03561	-15.2763	0.962865
0.5833	-3.33389	-0.0403992	-15.6764	-25.299	-0.0644291	3.01344	0.460347	-3.94629	-10.0869	-0.320955
0.5840	-3.70432	2.08056	-13.8417	-15.5295	-2.51274	1.4855	-1.67126	-1.80691	-8.56055	-1.28382
0.5847	-3.70432	11.5542	20.3338	-1.4963	-1.28858	1.7826	1.68127	-0.592666	-7.64477	-0.320955
0.5853	-3.95128	7.27186	42.6217	0.334124	0.837579	3.01344	5.04381	-2.71759	-4.89743	0.962865
0.5860	-1.60521	-4.62571	20.3338	-2.10644	1.48187	3.31054	3.21242	2.15384	-0.929052	0.320955
0.5867	1.85216	-9.19082	-4.37507	-1.4963	0.257717	2.71634	1.07081	9.1791	1.51303	0.320955
0.5873	0.864342	-7.97885	-5.60183	-2.4115	-0.966437	1.7826	-0.760574	10.3933	0.597248	0.64191
0.5880	-1.23477	-0.0403992	4.1688	-3.02164	-0.386575	1.7826	-5.0338	15.5828	-1.23431	0.64191
0.5887	-0.370432	9.41302	7.52339	-1.4963	0.837579	2.41924	-5.94449	15.5828	-1.84483	0.64191
0.5893	-0.370432	8.20104	6.29663	-0.276016	1.15972	4.24428	-1.9815	5.21835	-2.15009	0.64191
0.5900	-2.46955	0.868583	7.82736	-2.4115	-0.386575	0.891299	-0.45034	6.4326	-0.0132722	0.64191
0.5907	-2.22259	-0.969581	5.08073	-4.24192	-2.19059	-8.87055	-1.67126	19.8615	5.48141	0.320955
0.5913	-1.85216	4.22172	-11.703	-2.71657	-0.386575	-15.619	0.160121	36.9477	9.75505	0.320955
0.5920	-3.70432	5.75689	-24.8283	-3.02164	7.86035	-26.9087	2.60196	60.1484	8.22875	0.64191
0.5927	-2.83998	2.08056	-13.8417	-4.54699	14.561	-26.2721	4.12311	86.9919	4.87089	0.64191
0.5933	-0.370432	-1.87856	9.66207	-7.29262	15.7851	3.60764	5.34403	80.2846	1.51303	0.320955
0.5940	-0.987819	-7.37286	29.8004	-10.0383	17.0093	30.4739	6.26473	26.8724	-2.15009	0.64191
0.5947	-1.60521	-7.37286	24.6111	-8.20783	18.5556	40.2358	5.95449	12.8363	-3.67639	0.64191
0.5953	-0.617387	1.47457	2.3341	-3.63178	17.3314	39.0049	5.95449	36.3406	-3.06587	0.320955
0.5960	-0.370432	4.82771	-8.65244	0.0290543	12.757	26.8239	9.0068	-28.3612	-2.45535	0.320955
0.5967	-1.60521	-0.969581	-14.7537	2.78195	5.73419	15.8312	11.1484	-132.728	-2.15009	0.64191
0.5973	-5.18605	-3.09054	-11.703	4.91744	1.15972	9.1252	9.31703	-122.046	-0.623792	0.64191
0.5980	-8.89037	1.17158	-1.02049	4.91744	-2.19059	2.41924	8.39634	-36.9043	0.597248	0.320955
0.5987	-8.02603	3.00974	2.63807	3.08702	-6.44291	-1.27328	8.39634	11.0149	0.902508	0.64191
0.5993	-3.33389	-3.71673	1.72615	2.16454	-10.1154	-1.86748	5.95449	10.7114	1.81829	0.64191
0.6000	0.864342	-12.5642	-0.412538	2.78195	-13.7878	-11.0351	0.770582	-7.60348	2.12355	0.320955
0.6007	3.95128	-7.06986	-5.60183	3.39209	-15.3341	-27.2058	-2.28172	-20.1217	-0.0132722	0.64191
0.6013	6.05039	7.89805	-9.26039	4.00223	-13.7878	-23.2162	-0.760574	-18.5895	-1.53957	0.962865
0.6020	3.33389	12.1602	-3.76712	3.39209	-15.3341	-2.46168	0.770582	-10.6535	-2.76061	0.64191
0.6027	-0.987819	8.80703	5.38471	1.5544	-18.3623	0.254657	1.68127	-18.893	-4.28691	0.320955
0.6033	-1.60521	-1.87856	6.29663	0.0290543	-20.2307	-10.1014	1.07081	-32.322	-6.11847	0.320955
0.6040	-1.23477	-17.4323	0.195413	-1.80137	-16.5583	-14.9823	-1.9815	-20.1217	-8.25529	0.320955
0.6047	1.48173	-13.4731	-9.56437	-2.10644	-7.40935	-16.8074	-4.1131	4.59678	-7.95003	0.64191
0.6053	5.80344	-1.27258	-12.311	0.639194	-1.86844	-15.619	1.07081	15.8863	-4.89743	0.64191
0.6060	5.18605	-4.32272	-5.90581	3.39209	-1.86844	-13.4544	9.31703	14.9757	-2.15009	0.64191
0.6067	2.96346	-4.01972	-4.37507	2.46961	-1.28858	-18.0382	11.7589	7.64684	-0.623792	0.64191
0.6073	3.58084	0.262595	-5.29786	-0.581086	1.80402	-6.15421	9.31703	0.332471	0.902508	0.962865
0.6080	3.33389	-4.32272	-3.46315	-1.80137	3.28589	34.7607	8.09611	-0.289106	3.64985	0.64191
0.6087	-0.370432	-6.76687	-4.68991	-0.276016	1.48187	58.2315	10.2277	0.332471	6.39719	0.320955
0.6093	-0.987819	-3.39353	-8.95642	1.5544	0.579862	50.3372	9.31703	-2.71759	6.39719	0.320955
0.6100	0	6.66587	-5.60183	1.5544	-0.386575	35.9915	1.9915	2.4574	5.48141	0.64191
0.6107	-0.617387	12.4632	8.43532	0.639194	-1.28858	18.2928	-5.94449	12.8363	4.87089	0.64191
0.6113	0	4.22172	4.1688	-0.276016	0.257717	5.47512	-6.55495	7.64684	4.26037	0.320955
0.6120	0.864342	-1.27258	-13.5378	-2.4115	2.06173	-0.0424428	0.460347	-4.24985	3.95511	0.320955
0.6127	-1.60521	4.22172	13.0167	-5.4622	1.80402	-9.21009	7.48565	-14.0216	3.64985	0.64191
0.6133	-4.32171	1.17158	41.3949	-3.63178	-0.386575	-22.0278	8.39634	-38.1186	3.03933	-0.64191
0.6140	-3.33389	-6.76687	9.96605	0.639194	-1.28858	-32.9781	5.65427	-58.8763	2.42881	-1.28382
0.6147	-2.83998	3.61573	-14.1457	1.24933	0.579862	-44.9045	0.160121	-57.9657	2.42881	0
0.6153	-2.22259	10.6452	-3.76712	5.22251	1.48187	-49.4883	-10.2177	-71.0766	3.95511	0.64191
0.6160	0.617387	1.77757	5.38471	10.4087	1.48187	-34.8455	-16.3223	-72.0017	6.09193	0.320955
0.6167	0.864342	-2.78755	8.13134	5.83265	0.579862	-16.8074	-13.27	24.7474	5.48141	0.320955
0.6173	-1.23477	3.31274	6.61146	0.0290543	-0.966437	-19.8632	-10.2177	137.658	3.95511	0.64191
0.6180	-1.23477	14.9073	2.63807	1.24933	0.257717	-31.7897	-6.25472	127.582	4.87089	0.64191
0.6187	0.246955	19.1896	-1.32446	2.16454	1.80402	-20.4999	-3.50264	49.466	5.48141	0.64191
0.6193	2.7165	14.6043	-2.24725	3.08702	1.80402	3.01344	-5.64426	3.98966	3.95511	0.64191
0.6200	5.43301	5.75689	-3.46315	3.39209	1.48187	10.356	-8.68656	-4.24985	5.17615	0.320955
0.6207	5.18605	-2.48455	-5.90581	1.5544	0.579862	14.3032	-6.86518	-5.46409	11.2813	0.320955
0.6213	2.34607	-2.18156	-1.32446	0.639194	0.837579	22.8342	-2.59196	-5.16053	15.2497	0.64191
0.6220	0.617387	5.1509	10.27	1.24933	2.38388	24.7017	-0.150113	2.4574	14.0287	0.64191
0.6227	0.617387	7.27186	5.99266	0.944264	2.96374	19.1841	0.770582	3.07897	13.7234	0.320955
0.6233	1.23477	3.31274	-13.8417	-0.581086	1.80402	10.9502	-0.150113	1.85028	14.6392	0.320955
0.6240	0	-0.343393	-18.4231	-2.4115	0.257717	2.71634	-2.28172	-3.03561	12.8076	0.320955
0.6247	-0.370432	2.40375	-6.81773	-0.886155	0.837579	0.891299	-2.59196	-26.2219	14.9445	0.320955
0.6253	0.617387	10.6452	3.86483	1.85947	3.28589	2.71634	-1.37103	-44.8403	17.0813	0.320955
0.6260	-1.23477	16.4425	15.4593	2.16454	3.60803	1.4855	-1.67126	-45.4474	-2.15009	0.64191
0.6267	-4.32171	10.322	15.1553	0.0290543	1.15972	-0.0424428	-5.94449	-42.7009	-26.5576	0.64191
0.6273	-5.55648	-6.46388	3.86483	-1.80137	-1.28858	-0.339542	-10.2177	-43.0044	-25.6551	0.320955
0.6280	-4.9391	-16.2203	-2.8552	-1.4963	-1.86844	-0.339542	-8.38633	-22.2611	-12.8342	0.320955
0.6287	-2.83998	-15.3113	-4.99388	-0.276016	-0.966437	-0.0424428	-4.1131	24.4439	-6.42373	0.320955
0.6293	1.85216	-18.6644	-4.37507	0.944264	0.257717	-1.57038	-1.37103	54.959	-5.50795	0.320955
0.6300	4.19823	-25.9767	-3.46315	0.944264	-0.0644291	-5.51756	-0.45034	55.8696	-4.89743	0.320955
0.6307	1.23477	-18.0585	25.5231	-0.276016	-1.86844	-8.57345	-1.37103	41.53	-5.50795	0.64191
0.6313	-2.46955	3.91872	57.2668	0.944264	-1.28858	-7.04551	-1.67126	26.8724	-5.20269	0.64191
0.6320	0	10.019	19.1179	4.00223	0.257717	-0.933742	-0.150113	24.1259	-3.37113	0.64191
0.6327	3.58084	1.77757	-28.1829	3.39209	0.579862	7.30016	0.460347	15.2792	-4.28691	0.320955
0.6333	0.617387	6.96887	-19.639	1.24933	-0.0644291	11.2473	-0.150113	-1.50335	1.20777	0.320955
0.6340	-6.42082	16.7455	-8.34846	0.639194	-0.386575	10.9502	-0.760574	-21.0324	16.4708	0.64191
0.6347	-11.3599	6.66587	-12.311	1.24933	-0.0644291	13.0724	0.460347	-39.0437	23.7837	0.64191
0.6353	-11.6069	-9.81701	-17.8043	3.08702	0.837579	16.1283	1.38104	-32.6256	23.1732	0
0.6360	-9.13733	-31.774	-23.6015	3.39209	1.48187	12.1811	0.770582	-6.99635	19.2181	0.320955
0.6367	-5.18605	-43.3888	4.77675	0.334124	2.38388	5.47512	0.160121	34.2012	7.61823	0.320955
0.6373	-0.370432	-6.46388	43.8376	-2.4115	4.51004	3.60764	-0.150113	96.1565	-3.98165	0.320955
0.6380	7.28517	31.9962	19.4219	-2.10644	3.93018	2.41924	0.770582	130.95	-10.0869	0.320955
0.6387	13.9529	30.4812	-28.1829	0.0290543	2.06173	1.4855	2.60196	84.8669	-13.1395	0.320955
0.6393	16.4225	20.4016	-26.0442	0.639194	2.38388	1.4855	1.9915	10.7114	-16.4973	0.320955
0.6400	14.3234	14.3013	10.878	-1.4963	1.80402	-0.339542	-0.45034	-18.5895	-17.7184	0.320955
0.6407	6.42082	5.1509	23.3952	-4.85206	-0.0644291	-2.46168	-1.67126	-15.2359	-10.6974	0.64191
0.6413	-1.60521	-4.32272	7.82736	-4.24192	0.837579	-0.339542	-1.0608	-0.592666	-7.64477	0.320955
0.6420	-6.42082	1.17158	-2.24725	-1.80137	2.38388	0.594199	0.160121	16.8115	-9.78159	0.320955
0.6427	-7.40864	15.8163	-1.62844	-1.4963	1.80402	-0.933742	1.38104	28.7082	-6.72899	0
0.6433	-2.46955	19.1896	7.82736	-2.4115	-0.0644291	-0.339542	-0.150113	32.9869	-4.28691	-1.28382
0.6440	2.34607	13.9983	2.3341	-0.581086	-0.644291	0.254657	-1.67126	10.0898	-3.98165	-0.962865
0.6447	3.33389	8.80703	-8.04449	2.78195	0.257717	-0.339542	0.460347	-43.0044	-1.53957	0.64191
0.6453	2.96346	3.00974	-3.15917	1.85947	1.80402	2.71634	3.51265	-76.266	-0.318532	0.64191
0.6460	3.58084	-5.2317	-5.60183	-1.19123	2.38388	5.13558	3.51265	-49.1046	-0.318532	0.320955
0.6467	4.19823	-5.53469	-4.99388	-0.581086	1.15972	5.47512	1.9915	8.57198	-0.0132722	0.64191
0.6473	4.81562	9.71601	13.6246	-0.581086	-0.0644291	9.7194	2.29173	57.0839	-0.318532	0.64191
0.6480	2.96346	29.249	16.6752	-1.80137	0.579862	12.1811	3.51265	93.1064	-0.623792	0.320955
0.6487	-0.370432	52.7412	-0.716513	-1.4963	2.70602	11.2473	3.21242	122.089	-0.318532	0.320955
0.6493	-2.83998	57.3265	-7.74051	-0.886155	2.96374	22.8342	3.51265	103.167	-0.623792	0.320955
0.6500	-2.83998	31.0872	-3.46315	-2.4115	0.257717	41.7637	5.34403	-6.08567	-0.929052	0.320955
0.6507	-1.23477	33.5314	-8.04449	-4.24192	-1.86844	48.8092	5.95449	-113.199	-1.84483	0.320955
0.6513	0.617387	84.798	-11.703	-2.71657	-0.966437	48.4697	5.65427	-133.639	-1.84483	0.64191
0.6520	1.85216	130.873	-9.56437	0.639194	1.15972	39.3445	6.56495	-100.681	0.597248	0.64191
0.6527	1.48173	107.987	-19.639	1.85947	2.06173	23.4709	7.48565	-46.3581	3.03933	0.64191
0.6533	-0.617387	30.158	-21.4737	1.24933	1.80402	5.77222	6.26473	-0.896227	3.34459	0.320955
0.6540	-3.33389	6.05988	15.7633	0.944264	0.257717	-18.9719	3.51265	25.051	3.95511	0.320955
0.6547	-0.987819	31.0872	35.9017	1.5544	-0.644291	-42.4428	3.51265	32.3654	4.26037	0.320955
0.6553	3.95128	-0.646388	9.34724	3.08702	-0.966437	-54.6663	3.21242	23.8223	4.26037	0.320955
0.6560	3.95128	-64.4368	-8.95642	3.39209	-0.644291	-58.0193	0.160121	22.0009	4.56563	0.64191
0.6567	0.246955	-85.808	-5.29786	0.334124	-1.28858	-61.3723	-7.16541	16.5079	1.51303	0.64191
0.6573	-2.83998	-90.979	-1.32446	-1.80137	-3.41474	-68.0783	-15.7119	-6.99635	-2.45535	0.320955
0.6580	-3.33389	-94.0494	1.42217	1.5544	-2.83488	-68.4178	-18.1537	-28.6648	-0.623792	0.320955
0.6587	-2.46955	-76.6373	2.03012	3.08702	-0.644291	-50.0825	-18.7642	-42.7009	4.26037	0.320955
0.6593	-3.08693	-61.9926	-3.15917	1.85947	0.837579	-24.7442	-17.233	-55.2192	10.6708	0.320955
0.6600	-8.02603	-60.4776	-11.703	0.944264	-0.0644291	-14.091	-12.9598	-47.5868	20.4391	0.64191
0.6607	-13.459	-59.5485	-11.703	-1.80137	-0.386575	-8.87055	-9.29702	-8.52861	24.089	0.64191
0.6613	-13.2121	-51.004	0.195413	-3.02164	2.70602	-0.933742	-4.42334	16.8115	20.4391	0.64191
0.6620	-7.03821	-44.2977	3.86483	-1.4963	4.51004	-1.57038	-1.9815	0.332471	22.2574	0.64191
0.6627	-0.617387	-41.8536	1.11819	-3.02164	3.60803	-4.92337	-1.67126	-15.843	21.0497	0.320955
0.6633	0.617387	-32.4002	13.0167	-6.68248	1.48187	3.60764	2.60196	-15.5394	-4.28691	0.320955
0.6640	-0.987819	-28.4209	13.6246	-6.98755	-1.28858	7.59726	8.39634	-16.1465	-26.5576	0.64191
0.6647	0.617387	-18.6644	-7.74051	-3.32671	-1.61073	-6.45131	10.8382	-6.08567	-19.5499	0.320955
0.6653	3.33389	7.57485	-15.0576	0.639194	0.837579	-4.62627	9.31703	7.34328	-4.89743	0.64191
0.6660	4.81562	37.1875	-5.60183	1.5544	1.15972	26.1872	5.95449	2.15384	3.95511	0.320955
0.6667	4.19823	77.1625	8.13134	1.24933	-0.0644291	48.4697	5.34403	8.87554	8.22875	-0.962865
0.6673	3.33389	107.684	12.7127	1.85947	4.83218	52.4593	7.78588	41.2264	8.83927	0
0.6680	1.23477	111.643	4.1688	2.46961	12.1771	48.4697	7.17542	77.8417	6.70245	0.962865
0.6687	0	105.24	-2.8552	0.639194	15.7851	43.5888	4.12311	99.2066	6.09193	0.64191
0.6693	1.48173	103.402	-2.24725	-4.54699	18.8777	59.4624	6.56495	48.8444	-4.28691	0.64191
0.6700	3.33389	31.6932	-0.412538	-7.90276	20.1019	80.2169	14.5009	-40.8651	-27.7787	0.64191
0.6707	4.56866	-116.006	-0.412538	-5.4622	17.9757	83.2728	21.8265	-61.6228	-35.4102	0.64191
0.6713	4.19823	-150.81	-6.51376	-0.276016	13.0791	92.7375	23.6579	-43.9151	-25.3499	0.64191
0.6720	0.617387	-93.1202	-10.1832	3.08702	7.28049	96.3876	21.8265	-61.6228	-14.3605	0.64191
0.6727	-2.46955	-80.0107	7.82736	4.91744	4.18789	65.277	16.0321	-74.7482	-5.50795	0.64191
0.6733	-6.17387	-54.0542	28.5737	4.61237	0.579862	8.8281	5.04381	-49.1046	-3.67639	-0.320955
0.6740	-8.89037	-12.5642	24.6111	0.334124	-6.76506	-43.0794	-2.28172	-17.0717	-7.03425	-1.28382
0.6747	-6.17387	-6.76687	5.08073	-2.71657	-12.2415	-65.9561	-1.67126	7.64684	-12.8342	0
0.6753	-2.83998	-13.7761	-5.29786	-3.63178	-15.3341	-71.1341	0.460347	23.5187	-21.3815	0.962865
0.6760	-3.08693	-14.6851	-8.34846	-4.85206	-15.5918	-72.365	0.460347	25.6581	-25.6551	0.64191
0.6767	-3.95128	-15.6143	-11.0951	-6.37741	-15.012	-71.4312	-0.45034	19.2544	-21.992	0.64191
0.6773	-4.32171	-16.8263	1.42217	-7.29262	-17.7824	-69.012	-1.0608	3.07897	-14.971	0.64191
0.6780	-3.33389	-13.7761	14.5365	-5.4622	-20.4885	-61.3723	1.38104	-18.893	-9.47633	0.320955
0.6787	-1.85216	-8.28184	9.34724	-2.71657	-21.3905	-51.6104	5.04381	-28.9684	-5.50795	0.320955
0.6793	-0.617387	-4.32272	2.94205	1.24933	-19.5865	-36.3735	6.26473	-23.4754	-1.84483	0.64191
0.6800	-0.617387	-5.2317	-0.716513	5.83265	-14.4321	-16.5103	2.60196	-13.4	0.291988	0.64191
0.6807	-0.370432	-9.81701	-9.26039	3.08702	-12.5637	-8.27635	-2.59196	-8.52861	-0.929052	0.64191
0.6813	0	-10.423	-14.7537	-0.581086	-13.208	-10.3985	-4.1131	-7.60348	-1.23431	0.320955
0.6820	-1.60521	-7.97885	-16.8923	1.85947	-8.6335	-13.4544	-4.72357	0.939593	0.902508	0.64191
0.6827	-3.08693	-4.92871	-15.0576	4.00223	0.579862	-13.1573	-6.25472	13.1398	1.20777	0.320955
0.6833	-3.95128	-1.27258	-4.0711	1.85947	7.86035	-11.6293	-7.47564	12.5327	-0.318532	0.320955
0.6840	-6.17387	0.565589	3.86483	0.0290543	9.40665	-11.6293	-7.77587	2.77541	-2.15009	0.320955
0.6847	-5.55648	3.31274	3.55	1.24933	6.95835	-11.0351	-5.94449	-5.46409	-2.15009	0.64191
0.6853	-1.23477	6.36288	2.94205	2.78195	4.83218	-10.3985	-4.1131	-7.60348	-0.623792	0.64191
0.6860	-2.83998	5.75689	6.91544	3.08702	3.60803	-9.50719	-5.64426	-14.3252	0.291988	0.64191
0.6867	-7.03821	0.262595	17.2832	1.85947	1.80402	-10.738	-8.0761	-32.322	-0.318532	0.64191
0.6873	-5.80344	-3.71673	28.5737	0.334124	-0.386575	-5.22046	-7.77587	-35.0685	-2.45535	0.320955
0.6880	-3.95128	-2.48455	28.2697	0.334124	-0.0644291	25.2959	-5.33403	-26.829	-1.53957	0.64191
0.6887	-3.95128	-7.97885	9.96605	1.5544	1.15972	57.6373	-3.20242	-47.8903	3.03933	0.320955
0.6893	-0.617387	-14.6851	-13.2338	3.08702	1.80402	62.2211	-1.67126	-62.5335	6.09193	0.320955
0.6900	4.56866	-3.71673	-26.3481	3.39209	2.38388	52.4593	-1.9815	-7.60348	4.87089	0.64191
0.6907	5.80344	10.6452	-19.335	2.46961	1.80402	40.5329	-3.50264	64.7163	1.81829	0.962865
0.6913	3.58084	10.019	-4.37507	3.39209	2.38388	29.2431	-1.67126	83.3347	2.12355	0.64191
0.6920	2.09912	6.36288	-7.43654	4.00223	2.96374	18.5899	1.07081	46.7195	3.95511	0.320955
0.6927	1.48173	15.8163	-9.56437	2.78195	2.70602	7.59726	1.68127	16.2044	4.26037	0.320955
0.6933	-0.370432	23.7547	7.21941	0.639194	1.48187	-3.39542	0.770582	27.7975	2.73407	0.64191
0.6940	-1.85216	11.8572	15.1553	-2.10644	0.579862	-10.3985	1.07081	32.0618	-0.0132722	0.320955
0.6947	-1.60521	-3.09054	7.82736	-2.71657	2.70602	-17.1469	4.12311	16.8115	-0.623792	0.320955
0.6953	0.617387	-9.81701	13.0167	-2.4115	4.18789	-37.5619	5.95449	2.15384	1.81829	0.320955
0.6960	4.56866	-9.51402	14.2326	-3.93685	2.70602	-55.8972	3.82289	-1.19979	2.12355	0.320955
0.6967	7.03821	-6.46388	-5.60183	-6.07234	1.80402	-48.8517	1.38104	18.6329	0.597248	0.64191
0.6973	7.03821	-6.46388	-15.0576	-6.37741	2.38388	-36.9677	1.38104	43.0478	-1.53957	0.64191
0.6980	6.66778	-10.423	-8.04449	-2.71657	3.28589	-36.9677	1.9915	54.3374	-2.45535	0.64191
0.6987	3.33389	-11.938	1.42217	2.46961	3.28589	-34.2089	1.38104	57.4019	0.291988	0.64191
0.6993	-3.95128	-0.646388	9.04327	4.91744	2.38388	-21.3912	0.160121	101.042	2.73407	0.320955
0.7000	-9.13733	14.6043	11.7899	2.46961	1.80402	-13.7515	-2.28172	199.309	7.31297	0.64191
0.7007	-10.3721	18.5634	9.66207	-0.886155	0.579862	-16.5103	-5.64426	161.162	16.776	0.320955
0.7013	-10.1251	8.20104	2.03012	-0.581086	0.837579	-18.0382	-5.64426	-25.6147	21.3549	0
0.7020	-7.03821	-0.646388	-12.007	2.16454	2.38388	-14.091	-1.9815	-69.5588	16.1655	0.64191
0.7027	-3.33389	6.66587	-19.335	3.08702	2.06173	-8.87055	-0.150113	-17.6788	9.44979	0.64191
0.7033	1.48173	11.5542	-13.2338	1.24933	0.837579	-0.339542	-2.59196	-58.8763	6.09193	-0.962865
0.7040	7.03821	6.36288	2.94205	-0.276016	-0.0644291	7.89436	-4.42334	-113.806	7.00771	-0.64191
0.7047	3.58084	13.9983	39.5602	-0.581086	-0.0644291	10.356	-2.89218	-121.135	8.83927	0
0.7053	0.617387	24.3607	45.3683	0.0290543	0.837579	12.7753	-1.9815	-99.7703	8.83927	-1.28382
0.7060	7.03821	13.9983	-2.55122	1.85947	2.38388	17.3591	-2.28172	-70.773	9.44979	-0.320955
0.7067	6.05039	-5.83769	-23.9163	1.5544	1.48187	13.0724	-3.20242	-36.9043	9.44979	0.962865
0.7073	-1.23477	-14.6851	-20.2469	1.5544	-0.644291	5.47512	-4.42334	-4.85697	7.31297	-0.320955
0.7080	-2.83998	-2.78755	-28.4868	3.08702	-0.644291	3.94718	-4.1131	-3.03561	4.56563	-1.28382
0.7087	-3.08693	14.9073	-33.0682	3.39209	0.837579	5.47512	-1.67126	-5.46409	3.03933	-1.60478
0.7093	-4.32171	20.0986	-37.9535	3.08702	2.38388	6.66352	0.160121	16.5079	2.73407	-1.28382
0.7100	-3.95128	18.2604	-34.2841	2.78195	2.38388	4.83848	0.460347	31.4547	2.73407	0
0.7107	-3.70432	12.1602	0.499388	2.16454	1.15972	2.71634	-1.0608	16.8115	2.12355	0.64191
0.7113	-1.23477	5.1509	29.4965	0.639194	1.48187	5.47512	-2.28172	-1.80691	3.95511	0.320955
0.7120	3.33389	1.47457	27.3578	-2.10644	2.38388	7.89436	-1.37103	-4.24985	10.0603	0.64191
0.7127	4.56866	-8.58484	17.902	-3.63178	2.38388	7.89436	-0.45034	-6.99635	11.8919	0.64191
0.7133	1.23477	-22.0176	12.0939	-4.85206	1.15972	3.94718	-0.45034	-13.0965	6.70245	0.64191
0.7140	-0.370432	-20.1794	11.7899	-6.98755	-0.644291	-5.81466	-1.67126	-10.35	4.26037	0.320955
0.7147	1.23477	-7.37286	10.27	-5.4622	-0.386575	-12.8602	-1.0608	-2.11047	6.70245	0.320955
0.7153	2.96346	1.17158	1.11819	-1.4963	1.15972	-14.3881	1.68127	11.622	7.61823	0.320955
0.7160	4.56866	1.17158	-7.12171	-0.581086	1.48187	-18.0382	4.43335	29.3153	10.6708	0.64191
0.7167	2.96346	-0.646388	-11.703	-1.4963	1.15972	-20.4999	5.04381	36.9477	6.09193	0.64191
0.7173	0	48.1761	-14.7537	-3.93685	0.837579	-17.1469	5.04381	39.0871	-20.771	0.64191
0.7180	0.246955	148.568	-9.86834	-5.76727	0.579862	-11.6293	5.04381	44.2765	-37.547	0.320955
0.7187	2.34607	216.318	2.94205	-4.85206	1.15972	-7.3426	6.26473	37.2512	-22.2973	0.320955
0.7193	2.09912	225.165	10.27	-2.10644	1.48187	-3.69252	8.70657	-4.24985	-6.42373	0.320955
0.7200	1.85216	202.905	9.96605	-1.19123	-0.386575	-2.46168	8.70657	-74.7482	-5.81321	0.320955
0.7207	0.864342	172.989	6.61146	-2.71657	-1.61073	-1.27328	5.34403	-101.91	-11.0026	0.320955
0.7213	-2.22259	149.194	2.3341	-3.63178	-1.28858	3.60764	2.60196	-64.9765	-13.1395	0.320955
0.7220	-3.95128	155.598	0.499388	-3.63178	-0.386575	7.89436	3.51265	-36.2972	-13.1395	0.962865
0.7227	-1.60521	80.5157	-4.68991	-3.32671	-0.386575	13.709	4.43335	-17.3752	-13.4447	0.962865
0.7233	2.09912	-114.491	-12.007	-1.80137	-1.28858	27.7152	1.38104	24.4439	-11.0026	0.320955
0.7240	1.85216	-137.075	-5.29786	-0.276016	-2.83488	38.7078	-3.81288	47.6301	-6.42373	0.64191
0.7247	0.864342	11.5542	10.27	1.5544	-1.86844	35.0578	-5.94449	34.8083	-0.929052	0.64191
0.7253	0.617387	77.4655	8.43532	3.08702	0.579862	22.5371	-4.1131	22.3045	6.39719	0.320955
0.7260	-0.617387	63.1238	-4.0711	3.69716	1.15972	12.4782	-2.28172	16.8115	12.8076	0.320955
0.7267	-0.987819	40.5406	-5.29786	3.08702	-0.0644291	7.89436	-2.59196	4.59678	13.1129	0.64191
0.7273	0.246955	-46.1359	-4.0711	1.85947	-1.61073	6.06932	-4.1131	-7.90704	9.44979	0.64191
0.7280	0.617387	-233.811	-7.74051	2.16454	-0.966437	5.47512	-3.50264	-5.46409	14.6392	0.64191
0.7287	-0.370432	-315.599	5.08073	3.08702	0.257717	5.13558	-1.0608	0.636032	28.3626	0.64191
0.7293	-1.60521	-204.218	21.8645	3.08702	0.837579	3.94718	0.160121	-0.896227	35.6889	0.64191
0.7300	-0.987819	-112.047	10.878	3.69716	0.579862	2.71634	-0.150113	-5.16053	39.9625	0.64191
0.7307	-1.23477	-96.7763	-4.37507	5.22251	-0.386575	2.71634	-1.67126	-6.69279	39.352	0.64191
0.7313	-3.08693	-77.5665	-4.0711	7.96814	0.257717	5.13558	-1.0608	-0.896227	28.3626	0.64191
0.7320	-2.22259	-55.5893	-1.02049	10.4087	1.15972	9.1252	1.68127	2.77541	17.0813	0.64191
0.7327	-0.617387	-49.792	-1.94327	10.1036	0.837579	9.1252	2.29173	-4.55341	9.75505	0.320955
0.7333	-2.46955	-46.7419	-5.29786	6.74786	-0.386575	6.36642	0.460347	-11.2751	-0.318532	-0.962865
0.7340	-3.95128	-39.4094	-1.62844	4.91744	-0.386575	4.54138	-0.45034	-12.7929	-8.56055	-0.962865
0.7347	-3.95128	-36.3593	9.04327	5.52758	0.257717	3.60764	-0.45034	-11.5787	-0.929052	0
0.7353	-2.46955	-42.4596	9.34724	7.358	1.15972	3.01344	-2.28172	-7.90704	2.42881	0.320955
0.7360	-0.370432	-45.2067	5.08073	8.57827	1.15972	4.24428	-3.20242	0.332471	-14.3605	0.64191
0.7367	-0.987819	-40.3386	6.61146	-1.80137	0.837579	3.01344	-2.59196	11.3185	-18.3289	0.64191
0.7373	-2.22259	-40.6416	5.99266	-22.2483	-0.0644291	-8.27635	-2.28172	11.622	-7.03425	0.64191
0.7380	-0.617387	-37.2683	6.29663	-24.6889	-0.0644291	-23.2162	0.770582	4.29322	-1.84483	0.64191
0.7387	0	-11.938	8.13134	-10.6484	1.15972	-31.4501	4.73357	2.4574	-3.98165	0.320955
0.7393	-1.23477	15.8163	7.21941	-2.4115	1.15972	-33.6147	4.73357	2.15384	-10.3921	0.320955
0.7400	-1.60521	19.4926	4.77675	-0.581086	-0.966437	-32.0868	4.43335	0.939593	-12.2237	0.64191
0.7407	-3.08693	16.4425	-3.15917	-0.276016	-1.86844	-31.4501	5.65427	4.29322	-4.28691	0.64191
0.7413	-5.55648	18.8664	-11.3991	2.46961	-0.386575	-34.8455	7.17542	9.78622	13.7234	0.64191
0.7420	-4.9391	13.0691	-13.5378	5.83265	0.837579	-32.3839	8.70657	10.0898	26.2258	0.64191
0.7427	-1.85216	5.75689	-12.007	5.22251	1.48187	-5.22046	10.8382	5.82548	21.3549	0.64191
0.7433	0	6.66587	-15.0576	2.16454	1.48187	26.5268	11.1484	-2.11047	20.1339	0.320955
0.7440	0.864342	6.66587	-16.8923	-0.276016	0.257717	33.8269	9.31703	-11.8822	18.6076	0.320955
0.7447	0.864342	3.61573	-3.76712	0.0290543	-0.0644291	33.8269	4.73357	-11.8822	-9.47633	0.320955
0.7453	0	3.61573	14.5365	3.69716	0.837579	39.6416	-2.28172	-9.43929	-28.0839	0.320955
0.7460	0	3.31274	23.0804	6.74786	0.837579	45.7533	-7.77587	-6.08567	-13.75	0.64191
0.7467	1.48173	-0.646388	18.2059	5.52758	-0.966437	49.9976	-9.60725	18.9509	-6.11847	0.64191
0.7473	1.85216	-6.46388	1.42217	0.0290543	-2.19059	40.5329	-8.68656	48.8444	-9.78159	0
0.7480	2.34607	-9.19082	-10.7911	-3.32671	-0.644291	16.1283	-6.55495	58.009	-0.0132722	0.320955
0.7487	2.34607	-6.14068	-15.6764	0.944264	1.15972	-5.81466	-5.0338	65.6414	17.0813	0.64191
0.7493	0.864342	-3.71673	-19.639	5.52758	1.80402	-18.3353	-6.55495	83.0311	22.868	0.320955
0.7500	-0.370432	-0.0403992	-19.031	5.22251	2.38388	-29.0309	-8.68656	49.466	19.2181	0.320955
0.7507	-1.85216	8.80703	-15.3616	4.91744	2.06173	-51.0162	-8.38633	-60.7122	18.6076	0.64191
0.7513	-2.83998	17.6545	6.29663	6.13772	2.06173	-71.4312	-5.64426	-119.603	25.31	0.64191
0.7520	-1.85216	20.7046	36.5096	9.49348	3.93018	-70.2428	-1.0608	-74.1411	23.1732	0.64191
0.7527	0	16.1193	26.7498	11.0188	2.96374	-46.7295	3.51265	-35.0685	8.83927	0.320955
0.7533	1.23477	8.20104	0.803363	3.39209	-1.61073	-10.3985	5.95449	-35.6756	-1.84483	0.320955
0.7540	0	3.61573	-1.94327	-4.85206	-3.99461	18.5899	5.95449	-34.1578	-2.76061	0.320955
0.7547	-0.617387	3.00974	2.94205	0.639194	-2.51274	46.6446	8.70657	-21.0324	2.42881	0.320955
0.7553	0	1.77757	4.77675	1.5544	-1.61073	80.2169	15.4216	-11.8822	2.42881	0.64191
0.7560	-0.370432	-4.62571	4.47278	-16.7498	-1.61073	96.6847	16.9428	-11.5787	-9.78159	0.64191
0.7567	-1.60521	-11.029	2.3341	-22.8585	-1.61073	93.0346	13.28	-2.11047	-35.7154	0.320955
0.7573	-1.85216	-13.1701	-0.108563	-10.6484	-2.51274	75.0389	10.2277	7.96486	-54.9468	0.64191
0.7580	-1.60521	-16.8263	-0.412538	-11.2585	-2.19059	51.2285	8.70657	7.64684	-42.4311	0.64191
0.7587	-1.85216	-11.332	1.72615	-20.4179	-0.644291	33.5298	5.95449	5.21835	-38.4628	0.320955
0.7593	-3.08693	23.7547	4.47278	-17.665	-0.644291	19.1841	-1.9815	3.6861	-58.3047	0.320955
0.7600	-3.70432	53.6704	6.91544	-8.5129	-3.0926	5.13558	-12.9598	-0.592666	-57.6941	0.64191
0.7607	-3.33389	46.0349	6.29663	-3.02164	-3.0926	-10.3985	-18.1537	-11.5787	-43.9574	0.320955
0.7613	-2.46955	33.5314	4.77675	-2.71657	1.48187	-26.5692	-14.4909	-14.3252	-36.3259	0
0.7620	-0.987819	31.6932	-1.32446	-10.0383	4.18789	-43.3765	-8.68656	-2.11047	-22.2973	0.64191
0.7627	-0.987819	31.3902	-1.02049	-15.2244	2.38388	-55.8972	-3.20242	9.78622	-11.3079	0.962865
0.7633	-1.60521	20.4016	5.38471	-8.20783	0.837579	-48.5546	-1.0608	8.57198	-17.7184	-0.320955
0.7640	0.246955	-4.92871	-12.615	2.46961	-0.386575	-30.5588	-3.50264	5.21835	-24.1288	-1.60478
0.7647	2.96346	-23.8557	-25.1322	9.49348	0.579862	-20.1603	-4.1131	14.6721	-20.771	0
0.7653	2.34607	-11.332	1.11819	10.1036	2.06173	-16.2132	-1.0608	29.0117	-17.7184	0.962865
0.7660	1.23477	17.0485	16.9792	6.74786	2.06173	-16.2132	2.29173	34.2012	-15.8868	0.320955
0.7667	0.246955	14.3013	2.03012	4.3073	0.837579	-17.444	3.21242	23.2152	-12.5289	0.320955
0.7673	-1.23477	-2.48455	-4.37507	4.00223	-0.644291	-16.5103	2.60196	6.12904	-9.17107	0.320955
0.7680	-2.46955	-1.57557	7.82736	4.3073	-0.644291	-12.2235	1.9915	-2.11047	-7.03425	0.320955
0.7687	-6.17387	3.00974	8.73929	5.22251	0.837579	-7.97925	1.38104	-4.55341	-4.89743	0.64191
0.7693	-5.55648	15.5133	-12.9298	9.79855	1.15972	-6.74841	1.38104	-14.3252	-1.84483	0.64191
0.7700	0.864342	48.1761	-24.5243	6.13772	0.257717	-7.04551	0.770582	-27.7541	-0.623792	0.64191
0.7707	2.96346	81.7478	-2.55122	-10.0383	-0.644291	-7.3426	-0.45034	-31.4113	-1.53957	0.64191
0.7713	2.09912	86.3129	17.5871	-9.12304	-0.644291	-6.45131	-0.150113	-41.4866	-1.23431	0.320955
0.7720	2.7165	70.7592	4.77675	18.9507	-0.0644291	-5.81466	0.770582	-61.6228	2.12355	0.64191
0.7727	0.246955	75.3244	-13.5378	41.5331	-1.61073	-6.15421	0.160121	-72.0017	5.17615	0.320955
0.7733	-5.18605	77.1625	-11.3991	43.0584	0.837579	-7.3426	-1.9815	-96.1131	6.09193	0.320955
0.7740	-8.27299	2.08056	-2.24725	37.5672	7.28049	-7.68215	-2.89218	-122.653	6.09193	0.320955
0.7747	-9.75471	-101.665	4.47278	29.0252	11.2107	-5.81466	-1.37103	-58.5728	6.09193	0.64191
0.7753	-12.5947	-131.58	10.574	16.8152	15.2053	-3.69252	1.07081	64.1091	4.56563	0.64191
0.7760	-13.8295	-107.159	9.66207	6.74786	17.9757	-2.16458	1.9915	133.075	1.81829	0.320955
0.7767	-9.75471	-61.9926	4.1688	11.629	15.7851	-0.933742	2.29173	148.644	1.51303	0.64191
0.7773	-4.9391	-15.3113	2.3341	47.0316	11.2107	-1.57038	1.38104	119.343	2.42881	0.64191
0.7780	0.617387	1.17158	1.42217	106.23	7.60264	-3.39542	0.770582	53.4267	1.51303	0.64191
0.7787	8.51994	-7.06986	3.55	129.735	4.83218	-6.15421	1.9915	0.332471	1.51303	0.64191
0.7793	13.3356	-8.88783	9.66207	47.3367	1.80402	-7.68215	1.9915	-18.893	0.902508	0.64191
0.7800	11.8538	-0.969581	1.42217	-63.1422	-3.41474	-6.45131	1.07081	-10.35	-1.53957	0.64191
0.7807	8.7669	-8.58484	-14.7537	-57.6437	-6.44291	-6.15421	-0.150113	10.0898	-2.15009	0.64191
0.7813	6.66778	-11.029	-13.8417	14.3746	-6.44291	-6.15421	-0.45034	26.8724	0.597248	0.64191
0.7820	2.09912	6.36288	-3.76712	13.1543	-7.66707	-6.15421	-0.150113	34.2012	2.73407	0.320955
0.7827	-2.46955	9.41302	6.61146	-54.593	-8.31136	-4.92337	0.770582	22.6081	2.12355	0.64191
0.7833	-1.60521	-0.343393	11.1819	-93.3514	-11.0174	-4.92337	1.68127	-2.11047	10.9761	0.64191
0.7840	0	-3.09054	4.77675	-77.1754	-16.816	-8.27635	1.07081	-10.35	44.5414	0.320955
0.7847	0.246955	1.47457	4.1688	-43.9155	-19.0066	-9.50719	1.68127	1.24315	82.9909	0.64191
0.7853	-0.370432	6.96887	1.11819	-8.20783	-16.816	-7.3426	3.21242	8.26842	93.9803	0.64191
0.7860	-3.95128	0.262595	-10.7911	25.6695	-11.0174	-3.09832	4.43335	4.59678	87.8751	0.64191
0.7867	-5.55648	-14.0791	-5.90581	36.3469	-5.5409	3.01344	4.12311	0.636032	87.5698	0.64191
0.7873	-1.85216	-13.4731	5.68868	22.9166	-4.96104	7.30016	1.68127	1.54671	88.7908	0.320955
0.7880	2.34607	-3.71673	3.86483	4.91744	-3.99461	9.1252	0.460347	4.59678	83.2962	0.64191
0.7887	4.19823	-2.78755	-3.76712	-4.24192	-2.19059	11.5444	1.9915	1.24315	39.9625	0.962865
0.7893	3.95128	-5.53469	-8.04449	-17.3599	-0.966437	10.356	3.21242	-3.33917	-53.4205	0.64191
0.7900	3.33389	-9.81701	-7.12171	-45.4409	-0.0644291	1.1884	2.29173	0.636032	-114.764	0.320955
0.7907	2.96346	-14.3821	-4.68991	-70.4639	1.48187	-7.3426	2.60196	4.90034	-95.2278	0.64191
0.7913	3.33389	-4.92871	-3.46315	-73.5146	2.70602	-4.92337	3.51265	5.52192	-57.6941	0.320955
0.7920	2.09912	16.4425	-1.94327	-49.4068	2.96374	21.6458	3.82289	10.3933	-46.7048	0.64191
0.7927	-0.370432	22.5428	0.803363	-12.4788	3.28589	51.8227	4.12311	10.0898	-39.9891	0.962865
0.7933	-3.33389	11.2512	2.03012	5.52758	2.38388	55.8123	2.29173	-3.94629	-24.7393	-0.64191
0.7940	-5.55648	6.96887	-0.412538	7.05293	0.579862	47.5784	0.160121	-13.4	-12.8342	-0.962865
0.7947	-2.46955	6.36288	-1.62844	11.934	0.837579	38.7078	0.460347	-5.78211	-9.17107	0.320955
0.7953	2.96346	-12.5642	-1.32446	15.5949	1.80402	27.4181	2.90219	1.24315	-9.47633	0.64191
0.7960	5.43301	-18.6644	-3.15917	25.9745	1.15972	17.9533	3.82289	-2.11047	-10.0869	0.64191
0.7967	3.58084	5.75689	-3.76712	40.6179	0.257717	8.48856	1.68127	-3.03561	-11.9184	0.64191
0.7973	-0.370432	13.6953	-2.55122	40.9229	-0.644291	-3.09832	-1.67126	-0.896227	-13.1395	0.64191
0.7980	-1.23477	6.36288	-0.716513	29.6354	0.257717	-6.45131	-3.20242	-8.2106	-11.0026	0.320955
0.7987	-0.987819	0.565589	1.42217	-10.0383	1.48187	1.7826	-2.59196	-10.6535	-6.72899	0.320955
0.7993	-1.60521	-6.46388	3.86483	-40.5598	1.48187	3.31054	-3.50264	-3.64273	2.12355	0.64191
0.8000	-2.22259	13.9983	4.1688	-24.9939	0.579862	-11.3322	-5.0338	-1.19979	10.3656	0.64191
0.8007	-4.56866	56.1145	4.1688	-35.3663	-0.644291	-25.0413	-3.50264	6.73616	9.44979	0.64191
0.8013	-5.80344	75.9505	2.3341	-63.4473	0.257717	-27.8	-1.0608	18.0257	7.92349	0.64191
0.8020	-4.56866	77.1625	-9.56437	-46.9662	2.06173	-31.4501	0.160121	10.7114	7.92349	0.320955
0.8027	-4.32171	76.2535	-24.8283	-18.5875	2.96374	-30.2617	1.38104	-1.50335	8.83927	0.320955
0.8033	-3.95128	55.4883	-27.5749	-9.12304	1.48187	-17.7411	1.68127	-11.5787	12.8076	0.64191
0.8040	-4.56866	41.4496	-21.4737	-9.42811	-0.386575	-8.87055	1.38104	-25.0076	6.70245	0.64191
0.8047	-4.56866	45.1259	-16.8923	-10.0383	0.257717	3.31054	1.07081	-16.1465	-6.11847	0.64191
0.8053	-1.60521	-40.9446	9.04327	-8.5129	2.06173	26.5268	1.9915	20.1651	-4.59217	0.64191
0.8060	-0.617387	-144.084	43.2296	-6.98755	2.38388	39.3445	1.9915	41.53	2.12355	0.320955
0.8067	0.617387	-98.3115	27.0538	-6.98755	0.837579	37.1799	0.770582	28.7082	2.42881	0.320955
0.8073	2.09912	-24.7647	-13.8417	-8.5129	-0.644291	28.946	-0.45034	1.54671	2.42881	0.64191
0.8080	-0.987819	-17.7555	-23.9163	-7.59769	-0.0644291	18.887	0.460347	-21.336	1.51303	0.64191
0.8087	-6.17387	-8.58484	-7.43654	-4.85206	0.837579	9.1252	1.9915	-24.386	-8.86581	0.64191
0.8093	-7.03821	2.40375	16.0673	-2.4115	0.837579	1.1884	2.90219	-10.0464	-18.3289	0.64191
0.8100	-4.56866	-9.19082	44.7495	-0.886155	1.15972	-10.3985	2.90219	7.96486	-14.0552	0.962865
0.8107	-2.22259	-21.4116	47.4961	-2.10644	0.579862	-25.3808	1.68127	25.3546	-7.95003	0.962865
0.8113	2.34607	-17.4323	13.0167	-3.32671	0.257717	-28.4367	1.9915	12.8363	-4.89743	0.64191
0.8120	6.42082	-9.19082	-1.02049	-1.80137	1.15972	-25.6779	2.60196	-35.9936	-1.84483	0.320955
0.8127	5.43301	-9.51402	5.99266	-0.276016	2.38388	-30.5588	1.9915	-50.3333	-0.318532	0.320955
0.8133	3.33389	-12.5642	1.11819	-0.581086	1.15972	-33.9118	0.770582	-22.5647	-0.0132722	0.64191
0.8140	1.48173	-7.97885	0.195413	-1.4963	-1.61073	-30.8559	0.460347	-3.94629	-0.318532	0.320955
0.8147	1.48173	-3.09054	0.803363	-1.80137	-1.28858	-23.2162	1.07081	13.1398	1.20777	0.320955
0.8153	0.246955	-2.78755	-12.311	-0.276016	0.579862	-12.5631	2.29173	26.8724	3.64985	0.64191
0.8160	-1.85216	0.565589	-15.3616	1.85947	1.15972	-1.86748	2.60196	25.051	2.12355	0.64191
0.8167	-0.987819	0.565589	0.499388	2.16454	1.15972	4.24428	0.770582	16.8115	6.70245	0.64191
0.8173	-1.23477	6.36288	7.52339	1.24933	0.837579	3.31054	-1.0608	6.12904	21.3549	0.64191
0.8180	-3.33389	31.0872	3.86483	2.16454	0.837579	-1.86748	-1.0608	-0.289106	30.4995	0.64191
0.8187	-4.56866	48.4791	16.3712	4.00223	1.48187	-3.98962	-0.45034	0.636032	32.0258	0.320955
0.8193	-3.08693	53.6704	35.9017	4.00223	1.48187	-2.80122	-1.37103	5.52192	29.2784	0.320955
0.8200	0	63.4268	18.2059	3.69716	0.257717	-3.69252	-2.28172	11.9256	21.6602	0.64191
0.8207	2.09912	68.3151	-18.1082	7.05293	-0.966437	-6.15421	-2.89218	15.5828	12.1971	0.64191
0.8213	4.56866	65.5679	-23.6015	13.7645	-0.386575	-5.81466	-3.50264	28.4046	4.87089	0.320955
0.8220	5.80344	49.3881	-9.86834	19.2557	1.15972	-3.39542	-2.59196	51.9089	-2.45535	0.320955
0.8227	5.18605	-19.8764	-2.8552	20.7811	1.48187	-1.86748	-1.67126	73.2593	-7.64477	0.64191
0.8233	2.34607	-88.5551	-2.24725	20.1709	0.257717	-1.86748	-3.20242	97.0672	-2.15009	-0.320955
0.8240	-1.60521	-66.8809	-1.62844	18.3405	-2.19059	-2.16458	-6.25472	66.5521	3.34459	-1.28382
0.8247	-2.22259	-13.7761	-0.108563	18.6456	-0.644291	-1.27328	-7.77587	-39.6508	-0.929052	0
0.8253	-1.60521	-5.2317	-0.412538	18.6456	1.80402	-1.57038	-6.86518	-103.124	-3.06587	0.962865
0.8260	-2.83998	-10.12	-1.62844	20.7811	1.80402	-3.09832	-7.47564	-93.6702	-1.84483	0.320955
0.8267	-3.95128	0.868583	-0.716513	13.4594	0.579862	-3.09832	-9.90748	-65.9016	0.291988	0.320955
0.8273	-4.56866	13.3721	2.03012	-31.7055	-1.28858	-3.69252	-10.5179	-28.0577	-3.98165	0.320955
0.8280	-4.56866	1.17158	8.13134	-62.8371	-0.644291	-6.15421	-7.16541	11.622	-18.6341	0.64191
0.8287	-4.9391	-35.4503	7.82736	-32.6207	0.837579	-9.50719	-1.9815	31.1511	-22.6025	0.320955
0.8293	-6.17387	-51.307	-3.46315	0.334124	2.06173	-12.2235	1.07081	15.5828	-8.25529	0.64191
0.8300	-9.75471	-42.7626	2.03012	1.24933	2.06173	-14.3881	1.9915	-10.0464	-1.23431	0.64191
0.8307	-14.0764	-42.1566	26.7498	-2.4115	0.257717	-14.6852	2.90219	-23.1718	-4.89743	0.64191
0.8313	-14.9408	-44.6007	25.5231	6.74786	0.257717	-11.9264	3.82289	-39.3473	8.53401	0.64191
0.8320	-17.1634	-37.8945	7.82736	16.8152	0.837579	-8.27635	5.95449	-54.9156	13.4182	0.320955
0.8327	-17.4103	-31.168	13.6246	19.8659	0.579862	-6.74841	9.61726	-32.322	6.70245	0.320955
0.8333	-9.50776	-29.047	11.7899	23.2216	-0.386575	-10.738	10.8382	20.1651	15.555	0.64191
0.8340	-0.987819	-19.5734	-6.81773	28.7202	-1.61073	-14.3881	9.92749	39.6942	4.56563	0.320955
0.8347	3.95128	0.565589	-6.51376	31.1607	-1.86844	-13.7515	8.70657	0.939593	-12.8342	0.64191
0.8353	8.7669	18.2604	-3.46315	30.2455	-1.28858	-13.4544	6.56495	-35.3721	-3.98165	0.64191
0.8360	9.75471	18.8664	-5.60183	31.4658	-0.386575	-11.9264	4.12311	-50.9404	7.61823	0.320955
0.8367	7.90255	18.2604	10.27	32.381	0.579862	-7.04551	2.60196	-102.517	5.17615	0.320955
0.8373	7.03821	35.0463	18.8139	33.6013	-0.966437	3.01344	0.460347	-117.782	-17.7184	0.64191
0.8380	8.51994	35.3493	2.03012	45.5063	-0.966437	14.0061	-1.0608	-36.2972	-30.2207	0.64191
0.8387	10.9895	9.11002	-8.95642	25.9745	0.837579	15.8312	0.460347	56.4768	-21.6867	0.64191
0.8393	9.75471	-12.5642	-12.311	-30.1801	1.15972	7.89436	2.60196	114.153	-18.0236	0.320955
0.8400	4.56866	-22.3206	-17.1963	-40.2547	-0.0644291	-0.339542	3.51265	127.279	-14.3605	0.320955
0.8407	2.96346	-16.8263	-17.1963	-10.3433	-1.28858	-3.98962	3.82289	80.2846	-9.78159	0.320955
0.8413	4.19823	4.22172	-11.703	3.69716	-0.966437	0.254657	5.34403	14.9757	-10.3921	0.320955
0.8420	4.19823	16.4425	-8.95642	3.39209	-0.0644291	14.3032	5.04381	0.636032	-6.72899	0.320955
0.8427	3.33389	15.5133	-12.311	3.08702	-0.0644291	31.7048	2.90219	8.87554	0.291988	0.320955
0.8433	2.34607	13.6953	-12.007	5.83265	-0.644291	38.4107	1.68127	-20.7289	3.03933	0.320955
0.8440	1.48173	6.96887	-11.3991	-3.02164	-1.28858	24.9988	-0.45034	-37.5114	2.42881	0.320955
0.8447	1.48173	0.565589	-8.95642	-23.1635	-0.386575	8.8281	-1.67126	-14.0216	1.81829	0.64191
0.8453	0.864342	1.47457	1.11819	-30.7903	1.15972	4.24428	-0.45034	0.939593	3.03933	0.64191
0.8460	0.864342	-1.27258	3.86483	-22.2483	1.80402	3.31054	1.07081	-3.03561	5.78667	0.64191
0.8467	1.85216	-3.39353	-3.76712	-21.028	0.837579	0.891299	1.07081	-6.99635	9.75505	0.64191
0.8473	0.246955	7.57485	-6.20978	-42.3902	-0.966437	-5.22046	0.160121	-5.46409	10.0603	0.64191
0.8480	-0.617387	19.7956	1.11819	-51.2372	-0.0644291	-11.0351	0.770582	-2.41403	9.14453	0.64191
0.8487	-0.370432	21.0076	2.63807	-22.5534	2.06173	-10.3985	-0.150113	-1.19979	13.1129	0.64191
0.8493	-0.987819	19.1896	-4.99388	7.05293	2.06173	-4.92337	-1.0608	0.332471	16.1655	0.64191
0.8500	-3.08693	13.3721	-14.7537	18.6456	1.15972	3.01344	-0.150113	0.636032	17.3865	0.320955
0.8507	-4.9391	1.17158	-26.967	27.8049	0.257717	9.7194	0.770582	-4.24985	10.0603	0.320955
0.8513	-3.33389	-7.97885	-31.5374	36.957	0.579862	11.2473	2.29173	-3.64273	-7.03425	0.320955
0.8520	-1.60521	-16.8263	-8.65244	49.1671	1.80402	2.41924	3.21242	3.38253	-11.0026	0.64191
0.8527	-2.83998	-24.4617	18.5099	73.58	1.48187	-10.1014	2.60196	2.77541	-1.23431	0.64191
0.8533	-0.987819	-8.58484	8.43532	93.1117	-0.644291	-11.0351	0.770582	2.4574	4.26037	-0.64191
0.8540	2.96346	17.6545	-5.60183	91.5863	-1.86844	-7.04551	1.07081	8.26842	4.26037	-0.962865
0.8547	3.58084	15.5133	15.7633	82.427	-1.61073	-2.46168	2.90219	12.2292	2.73407	0.320955
0.8553	-0.617387	8.50404	41.3949	61.675	-0.386575	9.7194	0.160121	17.4186	-0.0132722	0.64191
0.8560	-6.79126	24.9869	30.4084	39.0925	1.15972	21.3063	-5.0338	11.3185	-3.06587	0.64191
0.8567	-6.79126	27.4109	-1.32446	8.57827	-0.0644291	27.121	-8.38633	-16.4501	-6.11847	0.320955
0.8573	0.246955	3.61573	-16.8923	-44.8307	-1.86844	30.4739	-9.60725	-41.4866	-6.72899	0.320955
