MR32 ASCII
Name	SORD15_fast
Frequency	1500
Date	27-08-2015 10:24:18
"Time,s"	"RT TIB.ANT.,uV"	"RT MED. GASTRO,uV"	"RT LAT. GASTRO,uV"	"RT BICEPS FEM.,uV"	"RT VMO,uV"	"RT VLO,uV"	"RT RECTUS FEM.,uV"	"RT SOLEUS,uV"	"RT SEMITEND.,uV"	"Channel 12,uV"
0.0000	-18.0511	458.096	-186.698	-3.04049	12.8213	6.34999	-1.93457	104.023	4.91741	-7488.85
0.0007	-8.86147	569.772	-125.372	0.899299	12.207	6.34999	-1.61622	30.4994	7.37611	-10554.3
0.0013	-21.7434	765.403	101.105	3.34025	12.207	6.34999	-0.391811	24.3804	8.9128	-9640.81
0.0020	-23.2203	896.636	345.228	3.93979	9.16189	3.89912	1.12646	120.5	7.06877	-9739.05
0.0027	-0.984608	660.707	339.739	1.84142	2.75124	-0.0636591	1.73866	122.348	1.29082	-9894.3
0.0033	28.0613	165.736	129.772	-0.299766	-2.13688	-4.64711	-0.710158	101.282	-3.31925	-9785.43
0.0040	73.1892	-107.396	-60.9626	2.14119	-1.52253	-6.17493	-1.93457	271.276	-3.31925	-9812.17
0.0047	89.3531	-41.4835	-107.047	3.93979	-0.320533	-4.94949	-1.32236	396.078	-1.47522	-9814.75
0.0053	45.4561	-7.63823	4.67198	2.74072	-3.04506	-4.94949	-1.00402	351.237	-2.0899	-9815.71
0.0060	3.93843	-180.354	39.4624	1.49883	-5.7963	-4.34473	-0.391811	336.896	-5.16328	-9787.04
0.0067	-10.9948	-411.082	15.3314	1.19907	-4.56759	-1.89386	-0.391811	328.323	-5.47062	-9860.48
0.0073	-40.0407	-408.645	90.4006	2.44095	-2.13688	-0.0636591	-0.710158	292.31	-4.24126	-9836.33
0.0080	-72.6969	-97.6508	75.1599	3.04049	-1.52253	0.541102	-1.00402	225.798	-4.85594	-9538.7
0.0087	-38.1535	50.3728	-80.7845	1.84142	-1.84306	0.843482	-1.61622	79.9295	-4.85594	-10444.5
0.0093	39.6305	-215.78	-233.1	1.19907	-2.45742	0.843482	-1.61622	-72.9819	-4.24126	-8838.78
0.0100	64.6559	-335.358	-322.82	2.14119	-2.13688	1.16178	-0.710158	-176.718	-3.01191	-2320.09
0.0107	31.0972	-106.211	-304.813	3.93979	2.43071	2.67368	-1.00402	-287.816	-1.16788	110.159
0.0113	-15.0153	78.1602	-89.0398	3.04049	8.84136	5.12455	-1.00402	-365.037	0.368806	-173.613
0.0120	-35.1177	22.9147	142.291	1.49883	10.9782	5.72932	0.195906	-260.663	0.676144	-74.4054
0.0127	-32.0818	-124.516	127.64	0.599533	9.45571	5.42693	1.73866	-178.853	0.368806	80.2032
0.0133	-50.7073	79.082	65.0902	0	7.63936	4.50388	2.03252	-160.56	-0.860546	-28.667
0.0140	-86.3993	627.454	100.788	-1.24189	4.56759	2.3713	1.73866	-83.6583	-2.0899	-2.25471
0.0147	-79.425	1117.29	86.1368	-1.24189	4.27377	0.541102	1.73866	-7.64876	-2.0899	0.644202
0.0153	-22.646	1431.58	116.936	-1.24189	5.18194	-0.0636591	1.73866	189.179	-1.78256	0
0.0160	33.8049	1295.47	151.726	-1.54166	4.27377	-1.89386	0.514252	318.889	-2.39724	0
0.0167	67.1174	715.952	-78.3351	-1.24189	1.52253	-4.34473	-0.0979528	173.308	-3.93393	-0.322101
0.0173	61.62	201.096	-369.177	0.599533	-1.84306	-5.25187	0.514252	10.6445	-4.24126	-0.322101
0.0180	11.8973	-141.307	-384.735	1.19907	-1.52253	-4.02644	0.514252	-151.7	-3.93393	-0.322101
0.0187	-61.3739	-284.129	-137.256	0.299766	3.65941	0.541102	0.195906	-401.018	-2.0899	-0.322101
0.0193	-112.327	-238.958	116.346	-0.299766	7.63936	3.29436	-0.391811	-479.163	-0.24587	-0.322101
0.0200	-102.317	-64.0689	220.127	0.599533	9.16189	3.59674	-0.710158	-404.078	0.0614676	-0.322101
0.0207	-58.9124	69.6001	210.965	2.74072	8.22701	2.99198	0.514252	-374.184	0.0614676	0
0.0213	-16.8204	-123.594	104.734	3.04049	3.95324	0.541102	1.12646	-253.939	-0.860546	0
0.0220	30.4408	-260.622	-25.265	2.74072	3.04506	1.16178	1.42032	60.712	-0.860546	0
0.0227	88.7788	-136.698	-100.017	2.74072	4.56759	2.99198	2.03252	198.931	-0.553208	-0.322101
0.0233	118.399	-245.016	-32.8853	1.19907	1.81635	0.843482	0.808111	41.1758	-1.78256	0
0.0240	95.1787	-796.22	107.501	1.19907	0.908176	0.238721	0.808111	-89.7454	-2.39724	0
0.0247	41.1894	-1159.36	121.517	2.14119	4.88812	2.99198	2.35087	-238.386	-0.860546	-0.322101
0.0253	-14.3589	-893.87	218.268	0.299766	7.31883	4.50388	2.64473	-421.16	-0.860546	0
0.0260	-34.2151	-548.372	355.297	-2.44095	8.22701	5.72932	1.73866	-437.031	-1.47522	0.322101
0.0267	-23.5485	-471.2	253.376	-7.32286	9.45571	5.12455	-0.710158	-336.96	-3.01191	-1.61051
0.0273	-15.3435	-434.852	198.128	-9.16428	13.1151	6.34999	-0.391811	-227.997	-2.0899	-1.93261
0.0280	-6.1538	-304.871	237.5	-3.98261	19.232	11.8406	3.86914	-65.9387	1.9055	0.644202
0.0287	18.8716	-162.642	152.951	-2.14119	19.8463	12.4453	4.16299	86.9409	2.82751	0.644202
0.0293	43.8971	-17.3836	2.22259	-4.28238	18.0033	10.9175	2.35087	71.6752	1.59816	-0.322101
0.0300	44.2253	289.002	-196.45	-3.04049	17.3889	12.143	2.35087	-93.1236	2.52017	0.322101
0.0307	39.6305	663.472	-388.092	-1.24189	16.4807	11.8406	2.03252	-225.861	1.59816	0.322101
0.0313	44.2253	932.917	-389.634	-1.24189	15.8664	10.3128	1.42032	-192.589	0.676144	-1.2884
0.0320	51.5278	1061.71	-239.496	1.19907	15.5725	9.69209	3.25693	-49.462	3.07338	-0.966304
0.0327	47.2612	985.397	-203.163	3.34025	10.6844	7.55951	2.96307	44.2034	2.21283	0.966304
0.0333	3.61023	791.939	-240.72	2.14119	4.27377	2.99198	0.195906	58.258	-2.0899	0.322101
0.0340	-37.5792	348.856	-174.179	0.899299	1.52253	0.541102	-0.0979528	110.429	-3.62659	0
0.0347	-13.1281	-406.209	-131.133	1.84142	0.908176	-0.36604	1.12646	271.563	-2.70457	0.322101
0.0353	21.9075	-879.516	-100.017	3.93979	1.22871	0.238721	2.64473	429.956	-2.0899	0
0.0360	-9.84608	-812.089	43.0911	2.44095	1.22871	-1.2891	1.42032	467.498	-3.62659	0
0.0367	-65.0662	-606.976	213.369	0.299766	1.52253	-2.81691	-0.0979528	454.687	-4.85594	0
0.0373	-97.7223	-515.12	315.336	0.599533	3.36559	-2.51453	1.12646	416.539	-3.62659	0.322101
0.0380	-110.85	-444.334	254.283	0.899299	4.56759	-2.51453	0.808111	309.105	-2.70457	0.322101
0.0387	-87.6301	-342.403	135.578	1.84142	5.50248	-1.2891	0.808111	169.038	-1.47522	0.322101
0.0393	-32.9844	-344.51	73.0281	2.14119	4.88812	-1.2891	0.195906	-7.96746	-0.860546	0
0.0400	1.14871	-440.383	13.1995	0.299766	2.43071	-3.42167	-2.54677	-153.836	-2.0899	0
0.0407	-17.1486	-368.347	40.6417	0.299766	2.75124	-3.11929	-3.45284	-182.518	-1.16788	0.322101
0.0413	-39.1382	-151.053	53.4783	0.599533	4.56759	-2.51453	-3.45284	-184.654	-0.24587	0.322101
0.0420	-37.9074	-123.002	5.57916	1.84142	7.02501	-1.59148	-2.54677	-194.119	0.983482	0.322101
0.0427	-56.5329	-262.136	18.3704	3.93979	9.45571	-1.2891	-1.61622	-150.489	2.52017	0.322101
0.0433	-99.8556	-261.543	52.8886	3.34025	8.84136	-3.72405	-4.3589	-65.6518	2.21283	0
0.0440	-122.091	-101.931	67.5396	3.34025	9.16189	-4.34473	-5.90166	44.2034	2.21283	0
0.0447	-77.5378	-1.84371	-26.1722	3.64002	10.0701	-3.72405	-6.19552	158.042	2.82751	0.322101
0.0453	0.246152	3.68742	-149.141	4.58214	10.9782	-3.11929	-6.19552	164.161	3.07338	0
0.0460	32.3279	35.689	-172.637	7.0231	12.8213	-1.59148	-4.3589	146.442	4.91741	0
0.0467	32.5741	51.8873	-118.024	6.08097	11.8864	-2.81691	-4.97111	198.645	4.91741	0
0.0473	42.3381	13.1035	60.509	5.18167	10.9782	-4.02644	-5.58331	83.8814	4.61007	0.322101
0.0480	27.7331	12.8401	144.106	5.78121	11.2988	-3.42167	-4.67725	-288.103	5.22475	0.644202
0.0487	2.05127	63.4763	-35.9244	5.48144	11.2988	-2.19624	-4.3589	-573.752	4.61007	0.322101
0.0493	11.5691	95.5437	-97.8848	6.72333	13.4357	2.06892	-0.391811	-518.522	5.22475	0
0.0500	9.43582	29.3018	17.7807	6.38074	15.252	4.82217	2.35087	-311.623	5.83942	0.322101
0.0507	-22.646	-27.4581	67.5396	6.08097	17.0951	6.65237	2.96307	-155.971	4.91741	0
0.0513	-27.487	73.8801	88.8584	5.48144	17.3889	6.95475	5.3874	-83.6583	4.91741	0.322101
0.0520	-20.5127	172.716	53.4783	3.64002	15.252	6.0317	5.99961	-21.0978	3.07338	0.322101
0.0527	-23.5485	175.811	-39.5984	3.93979	15.8664	7.25713	6.31796	124.77	2.52017	0
0.0533	3.03587	163.563	-94.2107	4.88191	16.1602	7.55951	6.93016	188.861	3.38072	0.644202
0.0540	33.2305	148.353	-135.442	3.93979	15.252	5.72932	5.3874	165.691	2.52017	0.322101
0.0547	20.1024	153.818	-183.931	1.49883	14.0233	3.29436	2.96307	138.506	1.9055	-2.25471
0.0553	-13.1281	167.251	-229.109	0.899299	14.3438	2.3713	2.03252	-61.9868	2.82751	-1.2884
0.0560	-35.7741	125.767	-239.178	5.48144	15.5725	4.82217	0.195906	-246.609	4.91741	0.966304
0.0567	-35.7741	78.1602	-207.155	6.72333	13.7295	4.50388	-2.22843	-203.584	4.61007	0.322101
0.0573	-20.5127	89.7492	-169.597	3.93979	10.9782	1.76654	4.16299	-90.9883	2.82751	0
0.0580	-4.34868	108.647	-135.714	3.04049	10.3639	0.541102	10.5789	6.05527	1.29082	0.322101
0.0587	24.9434	62.2911	-101.559	1.84142	8.84136	-0.36604	2.96307	8.82794	-1.16788	0.322101
0.0593	41.4356	-41.8127	-42.3653	0.599533	8.54754	-0.0636591	-6.80772	-79.6746	-2.70457	0.322101
0.0600	4.51278	-69.8635	-17.3272	1.84142	9.74953	1.76654	-6.19552	-54.0512	-1.78256	0
0.0607	-57.7636	26.2729	-3.90088	1.19907	9.16189	0.843482	-8.64434	38.7218	-1.78256	0.322101
0.0613	-91.8967	137.356	90.0831	0.299766	8.54754	0.238721	-21.77	35.3755	-1.78256	0.322101
0.0620	-83.6917	184.305	112.082	0.299766	7.93318	1.16178	-29.9981	41.7813	-0.860546	0
0.0627	-65.9687	132.484	36.378	-0.299766	6.70447	2.3713	-34.2835	97.936	-0.24587	0.322101
0.0633	-55.8765	67.1637	39.4624	0	7.02501	4.2015	-43.1237	130.571	0.676144	0.322101
0.0640	-20.1845	83.0328	44.3158	0.599533	7.02501	5.72932	-44.642	201.067	0.368806	0
0.0647	59.4867	97.6508	-36.5594	0.599533	7.02501	7.25713	-31.2225	248.68	-0.24587	0.322101
0.0653	123.24	61.9618	-66.1335	0.299766	7.93318	6.95475	-19.6395	109.537	-0.860546	0.644202
0.0660	120.532	30.8163	-17.0096	-1.24189	7.93318	5.42693	-12.2931	-171.237	-1.47522	0.322101
0.0667	76.8814	28.7092	9.20789	-0.299766	8.54754	5.12455	2.96307	-296.358	-0.860546	0.322101
0.0673	43.5689	50.6362	1.90508	1.19907	9.74953	4.2015	-7.73827	-121.806	-0.860546	0
0.0680	34.1331	65.9127	-16.42	-0.299766	8.54754	2.3713	-46.797	24.9859	-1.78256	0.322101
0.0687	15.1794	39.0472	-11.2037	-1.24189	6.70447	-0.36604	-63.2775	-76.0095	-2.0899	0.322101
0.0693	1.47691	-1.51448	29.9823	-2.14119	4.88812	-3.72405	-74.5666	-190.454	-1.78256	0
0.0700	17.3127	-6.12375	45.223	-2.74072	6.09012	-1.59148	-84.9251	-116.93	-1.47522	0
0.0707	39.0561	-0.921855	20.5023	-3.68284	8.54754	2.99198	-72.4361	28.9697	-2.70457	-0.322101
0.0713	59.1585	-7.63823	-11.8387	-5.18167	7.93318	2.67368	-58.086	111.066	-4.24126	0.322101
0.0720	67.3636	-0.592621	-8.7543	-4.28238	4.88812	-1.59148	-48.6091	187.331	-3.01191	0.644202
0.0727	45.7022	12.2475	47.9899	-3.38308	1.22871	-5.87255	-34.8957	295.37	-2.0899	0
0.0733	27.7331	15.8691	94.0747	-1.84142	-0.614354	-6.77969	-15.9663	229.144	0.0614676	0
0.0740	31.4254	14.3546	123.966	1.19907	-0.908176	-7.38445	-1.61622	-47.6454	2.82751	0
0.0747	27.4049	19.5565	149.322	1.84142	-2.13688	-8.91227	2.03252	-175.507	3.38072	0.322101
0.0753	14.2768	36.6108	84.0049	1.49883	-3.97995	-8.30751	7.83623	-70.8466	3.07338	0
0.0760	-0.328203	36.3474	-32.8853	1.49883	-5.7963	-8.60989	15.7704	21.0341	3.68806	0
0.0767	3.61023	17.1202	-51.2104	2.44095	-6.11683	-9.83532	20.9619	33.2402	5.53208	0.322101
0.0773	24.369	2.76557	-17.9168	4.88191	-3.97995	-8.60989	22.4802	24.6991	7.68345	0.322101
0.0780	11.5691	2.17294	-36.2419	4.88191	-3.36559	-5.55425	2.64473	5.44974	7.68345	0
0.0787	-19.6101	19.5565	-52.1175	3.34025	-3.36559	-0.684335	-23.9005	10.6445	6.14676	0.322101
0.0793	-23.5485	32.9892	-30.7534	1.19907	-4.56759	4.50388	-19.6395	64.6639	3.38072	0.644202
0.0800	-9.84608	29.3018	-4.21839	-1.54166	-5.18194	7.86189	0.514252	107.688	0.0614676	0.322101
0.0807	-13.1281	26.2729	21.727	-0.942123	-2.45742	10.0104	3.57528	118.683	-0.553208	0.322101
0.0813	-43.0766	24.7584	42.5014	-0.599533	-1.22871	8.48257	-8.03213	141.566	-0.24587	0
0.0820	-58.338	22.2562	47.3548	-1.84142	-1.52253	7.55951	-5.28945	167.189	-1.47522	0
0.0827	-42.7484	25.9436	32.7492	-1.84142	-1.52253	8.18019	11.8033	126.013	-2.0899	0
0.0833	-12.5537	28.38	10.4326	-1.54166	-3.04506	7.25713	28.8961	53.382	-2.39724	0.966304
0.0840	27.7331	28.38	3.12977	-1.54166	-4.27377	7.55951	50.862	36.9053	-1.16788	-0.322101
0.0847	43.3227	30.5529	11.3851	-3.98261	-4.88812	9.69209	52.9925	35.3755	0.0614676	-1.93261
0.0853	17.9691	38.1253	25.0835	-4.28238	-3.97995	14.2755	51.4742	4.23869	-0.24587	0.322101
0.0860	-6.1538	44.8417	37.2851	-6.72333	-3.97995	17.9359	62.4694	-4.90795	-4.5486	-0.966304
0.0867	-8.86147	43.0638	29.3927	-11.0057	-4.56759	21.294	32.8632	19.5043	-8.17519	-2.25471
0.0873	2.37947	37.5327	-2.04116	-8.26498	-1.22871	26.7845	-10.7748	4.84421	-6.33116	0.644202
0.0880	4.51278	26.5363	-17.0096	-5.82403	-0.614354	28.3124	-21.77	-21.7034	-6.02383	0.966304
0.0887	-8.86147	16.1983	2.22259	-5.48144	-1.84306	24.3496	-43.4421	-10.1027	-6.6385	0
0.0893	-14.3589	9.74533	21.4548	-2.74072	-2.13688	17.9359	-104.173	-26.5794	-4.5486	0.322101
0.0900	-0.984608	-3.02895	25.0835	-1.24189	-4.27377	11.5382	-166.104	-78.1448	-3.93393	0
0.0907	15.1794	-14.9472	23.5867	0.299766	-4.56759	9.08733	-179.229	-119.352	-2.0899	0
0.0913	17.9691	-20.1491	19.5951	-0.299766	-4.88812	6.95475	-173.132	-155.684	-1.78256	0.322101
0.0920	20.4306	-19.2273	17.1457	-3.68284	-6.11683	3.59674	-176.805	-154.441	-4.85594	0.322101
0.0927	29.2921	-12.1817	22.0445	-4.88191	-5.18194	3.89912	-155.745	-101.952	-6.94584	0.322101
0.0933	23.7947	-8.56008	26.0361	-6.72333	-5.7963	1.46416	-105.985	-56.5052	-8.48253	0.322101
0.0940	7.30251	-6.71637	23.2692	-4.58214	-6.11683	-5.87255	-41.6055	-35.4392	-7.86785	0.322101
0.0947	5.74354	-5.79452	19.0054	-0.599533	-4.56759	-13.4957	30.1205	-18.357	-5.47062	0
0.0953	13.3743	-7.90162	19.9126	0	-3.65941	-18.9863	110.687	-0.350568	-4.5486	0.322101
0.0960	9.10762	-7.63823	23.8589	2.14119	-3.65941	-21.1189	198.869	14.3096	-3.31925	0
0.0967	-3.69228	-7.90162	20.5023	4.28238	-6.41065	-25.7023	264.791	18.8988	-0.553208	0
0.0973	-3.36408	-3.62157	19.2776	7.92239	-7.02501	-28.4556	273.95	24.9859	3.07338	0
0.0980	9.10762	2.43633	22.9517	11.6052	-5.7963	-26.9278	238.858	44.2034	7.06877	0
0.0987	14.0307	-1.51448	16.8736	11.2626	-7.31883	-27.2302	202.836	46.0519	7.99079	0
0.0993	6.39995	-5.46528	8.93573	10.6631	-8.54754	-29.3627	173.548	5.16291	8.60546	0
0.1000	2.70767	-5.46528	5.57916	9.76382	-9.45571	-31.1929	128.979	-39.9966	8.29813	0.322101
0.1007	9.43582	-2.76557	4.67198	10.3633	-9.45571	-27.8349	91.4634	-36.6503	9.52748	0.322101
0.1013	13.0461	1.51448	5.85132	12.2048	-7.63936	-17.1561	82.3049	-8.57298	11.6174	0.322101
0.1020	7.30251	1.51448	6.16883	9.76382	-8.54754	-8.91227	69.1792	1.17918	11.0642	0
0.1027	-0.328203	2.43633	10.4326	9.76382	-9.16189	-8.91227	31.9571	3.63316	12.2321	0
0.1033	-7.71276	1.51448	11.9748	8.22216	-10.0701	-10.7425	-29.9981	7.58502	11.9247	0
0.1040	-12.882	-1.18524	11.6573	3.04049	-10.0701	-4.02644	-94.0837	9.7203	7.37611	0.322101
0.1047	-13.4563	0.592621	16.2385	1.84142	-6.70447	7.86189	-121.853	13.3853	5.22475	0.322101
0.1053	-9.51787	-0.921855	14.7417	0.299766	-5.7963	13.6708	-113.919	14.9151	2.52017	0
0.1060	6.6461	-3.95081	6.16883	-1.54166	-5.50248	13.9732	-95.6264	20.1099	-0.24587	0
0.1067	26.5024	-5.2019	0.0907181	-1.24189	-6.11683	6.65237	-116.98	25.5915	0.0614676	0
0.1073	30.1946	-4.54343	0.680386	0	-7.63936	-2.51453	-154.202	26.197	2.21283	0
0.1080	21.6614	0	6.80386	3.64002	-7.02501	-6.17493	-142.007	26.8344	6.4541	0.322101
0.1087	14.2768	-0.263387	6.16883	4.58214	-8.54754	-10.7425	-100.5	23.4562	8.29813	0
0.1093	11.8973	-2.43633	2.81226	3.64002	-10.0701	-12.5727	-50.764	21.0341	6.76144	0
0.1100	12.7999	-3.02895	2.22259	2.14119	-9.45571	-5.87255	4.48134	21.0341	4.30273	0.322101
0.1107	12.1435	-6.12375	0.362872	-2.14119	-8.25372	3.89912	52.0864	17.6559	-0.24587	0.322101
0.1113	9.43582	-7.30899	0.362872	-5.18167	-4.27377	14.8803	90.239	17.0504	-5.16328	0.322101
0.1120	7.54866	-10.6672	-1.45149	-9.46405	-2.75124	20.6892	105.177	17.3691	-11.2486	0.322101
0.1127	5.16919	-13.6961	-2.04116	-12.5045	-3.97995	21.5963	110.981	17.3691	-15.4898	0.322101
0.1133	3.28203	-10.3379	3.44729	-11.0057	-2.45742	22.8218	131.747	21.9264	-14.8752	0
0.1140	4.51278	-3.95081	9.20789	-8.56475	-1.52253	22.5194	145.166	27.1212	-12.4779	0.644202
0.1147	6.6461	1.84371	14.1067	-6.42356	-0.614354	22.8218	148.839	32.316	-9.71188	0
0.1153	6.39995	-0.921855	12.5645	-8.56475	-1.22871	19.7661	169.581	31.9973	-9.09721	-2.25471
0.1160	8.77942	-4.28004	4.94414	-7.62263	-0.614354	17.6336	173.254	28.651	-6.6385	-1.2884
0.1167	13.7025	-3.62157	-3.58336	-3.38308	1.22871	20.9916	128.686	28.0454	-5.47062	0.966304
0.1173	15.1794	-5.79452	-11.2037	-4.88191	1.22871	22.217	96.0427	26.5157	-9.09721	0.322101
0.1180	15.5076	-5.2019	-10.2965	-2.44095	1.52253	18.5566	113.723	26.197	-7.25318	-0.322101
0.1187	15.5076	-5.46528	-8.16463	3.34025	-0.320533	8.18019	120.457	24.9859	-2.0899	0
0.1193	13.7025	-8.23085	-8.16463	5.78121	-3.36559	-2.19624	62.4694	23.7749	0.983482	0.322101
0.1200	13.0461	-6.38714	-5.39773	7.62263	-3.04506	-4.64711	-2.22843	26.197	2.21283	0.322101
0.1207	15.1794	-3.95081	-3.90088	8.52193	-2.13688	-2.81691	-22.3822	28.651	1.59816	0
0.1213	17.0665	-4.87266	-3.58336	6.72333	-1.22871	0.238721	-22.0639	30.4994	-1.16788	0
0.1220	14.605	-7.90162	-2.9937	0.899299	-1.22871	4.50388	-21.1578	31.7105	-6.94584	0
0.1227	10.3384	-9.74533	-3.90088	-7.0231	-1.22871	9.38971	-23.2883	30.1807	-14.5678	0
0.1233	9.43582	-9.48194	-4.49055	-12.8043	-0.614354	14.8803	-4.06504	30.1807	-19.4852	0.322101
0.1240	11.5691	-6.97976	-3.58336	-12.5045	0.614354	18.859	36.5119	34.1326	-18.8706	0.322101
0.1247	15.5076	-4.54343	-4.49055	-9.16428	2.13688	15.8034	58.184	37.7976	-15.4898	0.322101
0.1253	18.8716	-5.46528	-8.16463	-8.86452	2.13688	7.55951	68.8608	38.1163	-14.322	0.322101
0.1260	19.446	-7.30899	-10.2965	-8.26498	1.22871	-0.0636591	71.628	36.2679	-14.322	0.322101
0.1267	17.6409	-7.90162	-12.1109	-7.32286	0	-2.51453	51.1803	32.6347	-13.3999	0
0.1273	15.5076	-8.23085	-13.0634	-7.32286	-1.22871	2.06892	41.7034	29.5752	-12.7853	0.322101
0.1280	14.2768	-6.38714	-9.97899	-5.82403	-0.908176	6.34999	10.5789	29.5752	-10.3266	0.322101
0.1287	14.9332	-5.2019	-6.62242	-2.44095	-0.908176	2.3713	-65.408	32.316	-6.94584	0.322101
0.1293	16.164	-3.95081	-5.71524	-0.599533	-1.22871	-1.2891	-102.948	34.4513	-4.5486	0.322101
0.1300	15.5076	-3.35819	-6.93993	-0.299766	-3.04506	0.843482	-101.724	32.9215	-2.70457	0
0.1307	13.7025	-2.43633	-7.25745	2.74072	-5.18194	2.67368	-103.854	31.3918	-0.24587	0
0.1313	13.3743	0.921855	-4.49055	5.18167	-4.88812	6.0317	-99.2752	31.9973	0.983482	0.322101
0.1320	12.4717	0.921855	-4.49055	1.49883	-4.88812	12.4453	-76.4032	30.1807	-2.39724	0.322101
0.1327	11.2409	-0.263387	-5.71524	-3.38308	-5.7963	17.6336	-46.797	28.0454	-6.02383	0
0.1333	11.5691	-1.84371	-6.93993	-6.72333	-7.31883	22.8218	-33.6713	28.651	-9.09721	0.322101
0.1340	12.1435	-2.43633	-7.57496	-10.0636	-7.63936	29.8402	-22.3822	28.3641	-13.3999	0.322101
0.1347	12.1435	-0.263387	-5.12557	-11.6052	-5.7963	35.9515	9.35449	28.9697	-15.4898	0
0.1353	12.7999	0.329234	-4.21839	-11.905	-5.7963	34.726	46.6011	30.7863	-15.4898	0.322101
0.1360	14.0307	2.17294	-2.67618	-8.26498	-6.70447	26.7845	79.2438	32.9215	-11.2486	0.322101
0.1367	13.0461	2.43633	-3.26585	-6.1238	-9.77625	17.0288	111.593	31.7105	-7.56052	0
0.1373	12.7999	-0.263387	-6.03275	-7.92239	-11.9131	10.6151	118.915	29.862	-8.17519	0
0.1380	14.0307	2.17294	-3.26585	-6.42356	-9.45571	10.3128	94.5	30.7863	-6.94584	0
0.1387	14.0307	2.17294	-2.9937	-7.0231	-9.77625	6.65237	57.2779	28.9697	-6.33116	0
0.1393	14.2768	1.25109	-3.90088	-7.0231	-10.9782	2.3713	37.4425	28.3641	-5.77796	0
0.1400	14.0307	3.95081	-2.35867	-3.38308	-10.6844	1.16178	63.0816	28.9697	-1.47522	0
0.1407	11.8973	2.76557	-3.58336	-3.04049	-12.5275	-4.02644	99.0793	24.9859	0.676144	0
0.1413	13.0461	3.35819	-1.45149	-1.54166	-12.207	-8.91227	126.237	23.7749	1.9055	0.322101
0.1420	14.9332	5.79452	0.680386	-0.942123	-11.2988	-10.1377	160.128	23.4562	2.21283	0.322101
0.1427	15.1794	4.28004	-1.45149	-4.28238	-11.5926	-10.1377	164.095	20.4286	-0.553208	0
0.1433	15.8358	6.71637	0.0907181	-3.38308	-8.54754	-11.0448	109.462	21.6396	-0.860546	0.644202
0.1440	15.5076	6.38714	0.362872	-6.1238	-7.31883	-16.2331	34.9936	21.3209	-3.31925	-0.644202
0.1447	21.6614	2.43633	-1.45149	-12.8043	-7.63936	-19.2887	-36.7078	18.5801	-7.56052	-2.57681
0.1453	12.4717	6.12375	2.22259	-10.0636	-3.65941	-13.4957	-125.82	21.0341	-5.47062	-0.322101
0.1460	-23.5485	7.63823	1.58757	-5.82403	-3.65941	-10.4401	-194.191	22.5638	-4.5486	1.2884
0.1467	-32.9844	4.60928	-0.861822	-6.42356	-6.11683	-8.91227	-237.829	21.9264	-5.77796	0
0.1473	-18.3793	7.04561	2.49475	-5.48144	-4.88812	-3.42167	-313.204	24.6991	-4.24126	0
0.1480	-27.8152	9.74533	4.94414	-5.48144	-4.56759	-2.81691	-369.674	25.5915	-3.31925	0.322101
0.1487	-47.3432	8.56008	3.71944	-8.26498	-6.11683	-6.47731	-347.071	22.2451	-5.16328	0.322101
0.1493	-57.4354	9.15271	4.67198	-9.76382	-5.7963	-7.08207	-300.691	19.5043	-6.6385	0.322101
0.1500	-56.2047	11.9183	7.39352	-8.56475	-4.27377	-10.4401	-243.315	20.1099	-6.33116	0.322101
0.1507	-10.9948	11.9183	7.71104	-9.16428	-3.36559	-14.1005	-146.268	20.4286	-6.6385	0.322101
0.1513	68.5943	11.3256	7.39352	-7.92239	-1.84306	-14.4029	-70.8934	21.3209	-5.47062	0
0.1520	99.4454	11.3256	8.02855	-4.28238	-0.614354	-16.8537	-81.5702	24.9859	-2.0899	0.322101
0.1527	60.0611	7.04561	5.85132	-2.44095	-2.13688	-19.9094	-121.853	26.8344	-0.553208	0.322101
0.1533	63.0969	3.95081	3.71944	0.299766	-2.75124	-19.9094	-119.723	29.5752	1.9055	0.322101
0.1540	186.091	3.02895	3.12977	3.64002	-2.13688	-19.5911	-124.62	34.77	4.61007	0
0.1547	276.429	0.329234	0.680386	2.44095	-3.04506	-17.7609	-124.62	34.1326	4.30273	0.322101
0.1553	189.455	1.51448	2.22259	0.599533	-1.22871	-8.30751	-80.958	32.316	2.21283	0.322101
0.1560	76.225	5.2019	5.57916	0	2.13688	1.16178	-56.5433	37.5108	0.676144	0
0.1567	64.3277	3.68742	4.35447	-0.299766	1.81635	0.238721	-39.7688	41.4626	-0.24587	0
0.1573	62.8508	1.51448	2.49475	0.599533	0.614354	-5.25187	11.8033	41.4626	0.676144	0.322101
0.1580	22.5639	0	-0.544308	2.14119	1.22871	-10.1377	65.2121	39.0405	0.983482	0.322101
0.1587	-32.0818	-2.1071	-5.12557	2.44095	2.75124	-16.5514	75.8889	31.9973	0.368806	0
0.1593	-74.1738	-2.76557	-8.48214	3.34025	5.50248	-18.9863	63.6938	22.2451	0.983482	0.322101
0.1600	-101.989	-4.87266	-13.3356	3.93979	7.93318	-15.6283	95.4305	15.8393	2.21283	0.644202
0.1607	-112.327	-7.90162	-18.2343	3.04049	9.45571	-8.00513	172.324	14.9151	1.9055	0.322101
0.1613	-81.5583	-9.15271	-20.6837	-0.299766	10.0701	-0.0636591	228.181	12.7798	0.0614676	0
0.1620	8.20506	-6.97976	-19.459	-0.942123	10.9782	5.12455	279.753	9.7203	0.368806	0.322101
0.1627	85.0865	-0.592621	-14.2881	0.299766	11.2988	5.42693	304.462	6.97949	1.59816	0.322101
0.1633	-1.23076	3.95081	-9.07181	-1.24189	8.22701	-0.684335	180.576	-0.637397	0.368806	0
0.1640	-176.409	10.4038	-2.9937	0.899299	6.70447	-9.53294	22.7985	-6.7564	2.21283	0
0.1647	-259.444	18.042	5.26165	4.28238	6.09012	-17.4585	-36.414	-12.8435	6.4541	0.322101
0.1653	-278.07	20.1491	10.7501	2.74072	3.04506	-19.5911	-51.3763	-21.3847	5.53208	0
0.1660	-340.346	22.2562	17.4632	2.14119	2.75124	-15.3259	-45.5725	-20.1736	5.22475	0
0.1667	-422.725	22.9147	20.8198	1.49883	2.43071	-14.7212	-94.402	-14.692	6.14676	0.322101
0.1673	-464.817	20.1491	19.9126	-0.599533	0.614354	-18.9863	-171.001	-13.7678	3.99539	0.322101
0.1680	-451.114	19.8199	21.1373	0.599533	2.13688	-17.1561	-140.783	-6.4377	3.99539	0
0.1687	-362.254	12.8401	15.0138	0.899299	3.65941	-12.2703	-52.5762	7.29819	4.91741	0
0.1693	-213.086	-3.35819	-2.35867	-1.54166	4.27377	-9.53294	27.99	17.6559	3.07338	0
0.1700	70.7276	-18.6346	-18.8694	-1.24189	8.22701	-4.94949	123.812	30.1807	3.07338	0
0.1707	469.904	-34.7671	-34.4275	-0.599533	10.0701	-0.0636591	208.64	46.6574	3.38072	0.322101
0.1713	680.2	-45.1709	-43.8622	-0.942123	10.0701	2.67368	248.923	60.3933	2.82751	0.322101
0.1720	536.775	-38.7179	-35.6522	1.49883	11.8864	2.67368	255.02	64.9826	4.30273	0.644202
0.1727	246.562	-28.0507	-23.7228	3.04049	12.207	-1.2891	238.246	60.0746	4.91741	0
0.1733	48.8201	-21.6636	-17.6447	2.74072	10.0701	-4.02644	211.088	54.2743	3.99539	0.322101
0.1740	-76.0609	-14.618	-10.9315	1.19907	7.93318	-3.72405	149.745	40.8571	2.82751	0
0.1747	-136.45	-11.2598	-9.07181	-2.14119	5.7963	-2.81691	47.8255	14.9151	0.368806	-2.57681
0.1753	-146.542	-7.90162	-7.57496	-1.24189	7.93318	0.541102	-17.8029	-3.6969	2.21283	-1.2884
0.1760	-232.285	-2.1071	-3.90088	1.49883	10.0701	0.843482	-28.1859	-16.8273	4.61007	1.2884
0.1767	-336.079	-2.1071	-4.80806	-0.942123	9.16189	-1.59148	-26.6432	-37.8614	2.21283	0.322101
0.1773	-328.449	-4.54343	-8.16463	-1.24189	10.6844	-0.0636591	-45.8664	-54.3699	0.368806	0
0.1780	-169.763	-5.2019	-9.38932	-0.942123	11.8864	2.99198	-84.9251	-61.9868	-0.24587	0.322101
0.1787	102.481	-3.35819	-6.62242	-1.54166	11.2988	6.34999	-135.591	-69.9224	-1.47522	0
0.1793	395.73	-4.87266	-6.03275	-2.44095	9.45571	8.48257	-235.087	-72.9819	-2.70457	0
0.1800	510.191	-10.6672	-9.97899	-4.88191	7.93318	9.69209	-325.424	-68.7113	-4.24126	0.322101
0.1807	334.438	-9.48194	-6.62242	-3.98261	7.63936	9.69209	-308.013	-65.9387	-3.62659	0.322101
0.1813	227.608	-4.28004	1.58757	-2.44095	5.50248	4.50388	-229.895	-63.8034	-2.39724	0.322101
0.1820	311.546	-4.54343	4.35447	-2.14119	3.65941	-0.0636591	-173.425	-55.581	-1.78256	0.322101
0.1827	259.034	-6.97976	3.44729	-0.599533	3.36559	1.46416	-138.334	-45.7969	0.0614676	0.322101
0.1833	96.9838	-10.3379	-0.544308	-0.299766	3.04506	1.16178	-74.2482	-40.9209	0.368806	0
0.1840	66.461	-12.1817	-4.21839	-0.942123	2.75124	-1.59148	1.42032	-40.3153	-0.24587	0
0.1847	167.219	-11.589	-4.49055	0.599533	3.65941	-1.59148	5.70575	-44.5859	0.676144	0
0.1853	191.916	-16.7909	-9.38932	-0.299766	3.95324	-2.19624	-31.5408	-47.6454	0.0614676	0
0.1860	96.0813	-22.5855	-15.5128	-2.74072	3.95324	-0.986715	-25.1249	-44.5859	-1.47522	0.322101
0.1867	77.1276	-21.9928	-15.5128	-4.58214	4.27377	2.3713	-2.22843	-40.9209	-3.01191	0.322101
0.1873	162.953	-20.1491	-13.3356	-6.72333	3.04506	-0.0636591	42.3156	-37.5745	-5.77796	0
0.1880	189.783	-15.8691	-8.7543	-6.72333	3.95324	-5.25187	110.687	-29.9258	-6.02383	0
0.1887	101.25	-7.90162	-0.861822	-4.58214	5.18194	-6.47731	118.009	-22.3089	-4.5486	0
0.1893	-53.415	-1.18524	6.80386	-3.98261	4.56759	-6.47731	89.0146	-22.3089	-4.24126	0
0.1900	-173.701	1.84371	11.6573	-3.98261	3.95324	-4.94949	65.506	-29.0334	-3.31925	0.322101
0.1907	-176.409	0.592621	10.7501	-4.28238	2.75124	-2.51453	24.929	-36.0448	-4.24126	0.322101
0.1913	-154.501	-0.921855	8.93573	-4.28238	3.04506	0.843482	-11.9992	-34.515	-4.85594	0.322101
0.1920	-191.096	-2.1071	7.07601	-3.04049	3.95324	4.50388	-12.6114	-29.6389	-3.93393	0.322101
0.1927	-223.096	-5.2019	2.49475	-4.28238	1.81635	2.3713	11.8033	-32.3797	-4.85594	0.322101
0.1933	-199.957	-5.46528	0.680386	-1.84142	1.22871	-1.2891	44.7644	-33.5908	-3.93393	0.322101
0.1940	-150.481	-3.95081	-0.544308	1.49883	2.13688	-4.02644	77.4072	-33.304	-2.70457	0.322101
0.1947	-132.758	-5.46528	-4.21839	-0.599533	-0.320533	-5.87255	101.528	-38.4987	-4.85594	0.322101
0.1953	-152.942	-4.54343	-2.9937	1.49883	0.293822	-3.72405	128.686	-35.1205	-3.93393	0.322101
0.1960	-85.825	-4.54343	-2.35867	5.48144	2.13688	-1.59148	150.97	-27.185	-1.16788	0
0.1967	91.2403	-10.3379	-7.84711	3.93979	0	-3.42167	161.941	-23.8386	-2.0899	0
0.1973	112.245	-10.6672	-7.25745	5.18167	-0.614354	-2.81691	182.706	-12.8435	-1.16788	0.322101
0.1980	-39.1382	-6.38714	-4.21839	7.0231	0.614354	-0.0636591	203.766	-3.6969	-0.553208	0.322101
0.1987	-78.7686	-6.71637	-6.93993	5.48144	0.293822	0.541102	192.771	-5.22665	-3.31925	0
0.1993	-12.5537	-5.46528	-6.35027	7.32286	0.293822	0.541102	161.941	-0.956095	-3.01191	0
0.2000	2.70767	-6.71637	-6.93993	8.22216	0	-0.36604	130.816	5.44974	-1.78256	0.322101
0.2007	13.7025	-11.9183	-12.1109	5.48144	-1.52253	0.238721	103.365	4.23869	-4.24126	0.322101
0.2013	35.9382	-11.2598	-10.9315	5.18167	-0.908176	5.12455	84.4353	0.573657	-4.85594	0.322101
0.2020	-9.51787	-6.97976	-7.57496	5.48144	-0.908176	7.55951	66.7304	-4.30243	-4.85594	0.322101
0.2027	-18.9537	-5.46528	-6.62242	4.28238	-1.22871	8.78495	49.3437	-4.90795	-5.77796	0.322101
0.2033	98.5428	-4.87266	-5.71524	4.58214	-0.320533	10.9175	38.6669	0.573657	-6.02383	0.644202
0.2040	222.111	-9.48194	-9.97899	2.14119	-2.75124	8.18019	27.6717	0.892355	-8.17519	-1.2884
0.2047	223.342	-12.8401	-12.7459	1.19907	-3.97995	4.2015	16.6765	-0.637397	-9.09721	-2.57681
0.2053	116.84	-6.71637	-7.25745	5.48144	-0.908176	5.12455	12.0972	6.69266	-5.16328	0
0.2060	-11.6512	1.51448	-0.861822	7.32286	-1.22871	4.50388	7.54237	10.3577	-3.62659	1.2884
0.2067	-88.2044	5.79452	1.58757	6.38074	-3.65941	2.99198	1.73866	2.42211	-4.5486	0.322101
0.2073	-37.9074	6.12375	1.58757	6.72333	-4.27377	2.67368	-3.15898	-2.77267	-4.5486	0.322101
0.2080	51.856	2.17294	-2.04116	6.72333	-4.27377	2.06892	-8.64434	0.286828	-4.5486	0
0.2087	21.3332	-3.02895	-6.93993	5.48144	-5.18194	0.843482	-12.6114	5.76844	-4.5486	0
0.2093	-55.8765	-4.87266	-7.84711	5.18167	-5.18194	0.238721	-14.7419	9.11477	-4.24126	0.322101
0.2100	-51.2816	-4.28004	-6.93993	6.72333	-3.04506	0.843482	-16.2602	9.7203	-2.70457	0.322101
0.2107	-16.246	-6.71637	-9.70683	6.72333	-3.04506	1.76654	-19.6395	9.7203	-2.39724	0
0.2113	-79.0968	-11.2598	-13.9706	5.18167	-3.97995	2.06892	-24.5127	9.7203	-3.93393	0
0.2120	-217.926	-13.1035	-15.1953	5.78121	-3.65941	2.67368	-27.8676	13.3853	-3.62659	0
0.2127	-329.597	-9.74533	-12.7459	6.38074	-4.27377	2.67368	-32.153	14.3096	-2.0899	0
0.2133	-406.807	-4.28004	-9.07181	5.78121	-5.7963	1.46416	-37.9322	9.11477	-2.70457	0
0.2140	-430.93	0.329234	-4.80806	5.78121	-4.88812	1.46416	-41.6055	7.90372	-3.62659	0
0.2147	-373.002	0.921855	-4.21839	5.78121	-4.56759	1.76654	-43.1237	11.5687	-3.62659	0
0.2153	-266.747	-2.43633	-7.84711	5.18167	-5.18194	1.16178	-42.8299	14.3096	-3.93393	0.322101
0.2160	-153.271	-3.35819	-8.48214	6.08097	-3.65941	2.99198	-40.9933	15.5206	-3.93393	0.322101
0.2167	-43.6509	-2.43633	-6.93993	5.18167	-2.75124	4.82217	-41.6055	13.9909	-5.47062	0
0.2173	23.7947	-0.921855	-5.12557	5.18167	-3.04506	4.50388	-41.2871	10.9632	-6.33116	0
0.2180	-13.4563	2.17294	-1.13398	7.0231	-2.45742	3.89912	-36.7078	8.50924	-5.47062	0
0.2187	-53.415	1.84371	-0.544308	6.72333	-1.84306	3.59674	-33.9651	4.55738	-6.94584	0.322101
0.2193	67.6918	-2.1071	-3.58336	5.48144	-1.22871	2.67368	-33.3529	1.78471	-8.17519	0.322101
0.2200	221.209	-4.87266	-5.12557	6.72333	-1.52253	1.16178	-33.9651	-1.24292	-7.25318	0.322101
0.2207	192.819	-4.28004	-3.58336	7.0231	-3.04506	-0.0636591	-34.8957	-7.96746	-7.25318	0
0.2213	81.1481	2.43633	3.44729	7.32286	-2.75124	1.16178	-33.0591	-14.0865	-6.33116	0
0.2220	31.6715	9.74533	10.7501	7.32286	-1.84306	2.67368	-29.3858	-17.4328	-6.02383	0
0.2227	14.2768	11.9183	12.5645	5.78121	-2.13688	2.99198	-27.5737	-19.5681	-8.78987	0.322101
0.2233	31.9997	10.6672	11.0676	3.93979	-2.13688	3.59674	-26.031	-19.8549	-10.9412	0
0.2240	75.3225	6.12375	6.48634	3.34025	-2.45742	4.50388	-24.5127	-19.5681	-11.8632	0
0.2247	68.5943	1.51448	2.49475	3.64002	-0.908176	6.34999	-21.1578	-20.1736	-11.5559	0.322101
0.2253	16.7383	-1.18524	0.362872	4.58214	1.52253	7.86189	-19.0273	-20.7791	-10.0192	0.322101
0.2260	-0.0820506	-6.97976	-3.58336	3.64002	0	5.72932	-21.4517	-18.357	-9.71188	0.322101
0.2267	61.2918	-9.15271	-4.80806	3.64002	-1.22871	3.89912	-23.6066	-17.4328	-9.40454	0
0.2273	153.435	-5.79452	-2.04116	4.28238	-1.52253	2.99198	-23.6066	-19.8549	-9.09721	0
0.2280	236.798	-5.79452	-2.35867	3.93979	-2.45742	1.46416	-23.6066	-19.5681	-10.0192	0
0.2287	230.644	-4.54343	-1.769	6.38074	-0.320533	2.67368	-21.4517	-12.5567	-8.78987	0
0.2293	126.932	-1.18524	-0.861822	7.92239	0.293822	3.29436	-20.5456	-7.64876	-6.33116	-0.322101
0.2300	47.8355	-2.76557	-2.67618	6.38074	-2.13688	0.238721	-22.6761	-7.04323	-6.94584	-0.322101
0.2307	-0.656405	-1.84371	-0.544308	6.72333	-2.13688	0.238721	-21.1578	-5.51348	-7.86785	-0.322101
0.2313	-43.0766	2.43633	3.12977	7.32286	-2.13688	0.238721	-19.6395	-8.28615	-7.86785	0
0.2320	-67.5277	5.2019	5.85132	7.32286	-2.75124	-0.684335	-20.5456	-12.8435	-6.94584	0
0.2327	-98.9531	8.23085	10.7501	9.46405	-0.908176	1.16178	-18.4151	-8.57298	-5.47062	0.322101
0.2333	-133.989	6.71637	10.4326	7.62263	-0.614354	1.46416	-17.4846	-0.637397	-6.94584	0.322101
0.2340	-105.599	0.592621	4.03695	4.88191	-1.52253	1.76654	-18.0968	3.31446	-10.3266	0
0.2347	20.1024	-3.35819	0.997899	5.48144	0.614354	3.59674	-16.8724	5.76844	-10.6339	0
0.2353	130.296	-6.38714	-1.45149	3.93979	0.293822	3.29436	-16.8724	5.44974	-10.9412	0.322101
0.2360	103.384	-6.12375	-2.67618	3.04049	0.614354	4.50388	-15.3541	4.55738	-12.1706	0.322101
0.2367	-5.57944	-4.87266	-4.21839	4.58214	3.04506	6.95475	-10.481	5.76844	-11.5559	0.322101
0.2373	-32.0818	-6.71637	-8.48214	4.88191	1.81635	4.50388	-10.481	0.892355	-10.6339	0.322101
0.2380	65.5585	-5.79452	-8.7543	5.48144	0.293822	2.06892	-12.6114	-6.7564	-8.78987	0.322101
0.2387	123.24	-2.1071	-6.62242	6.38074	0.293822	2.3713	-12.2931	-10.1027	-7.25318	0
0.2393	65.5585	0.921855	-3.90088	6.38074	0.908176	1.76654	-11.9992	-13.4491	-6.94584	0
0.2400	16.7383	5.79452	2.22259	7.92239	2.13688	2.3713	-10.481	-14.692	-5.47062	0.322101
0.2407	13.3743	7.63823	4.67198	10.0636	2.13688	1.46416	-9.86875	-15.903	-3.31925	0.322101
0.2413	-10.4204	4.28004	1.31541	9.76382	-0.320533	-1.59148	-11.9992	-19.5681	-3.31925	0.322101
0.2420	-55.8765	5.53113	3.44729	10.0636	-0.320533	-0.986715	-11.387	-20.1736	-2.0899	0
0.2427	-79.425	7.96746	7.07601	10.3633	0	-0.0636591	-10.7748	-20.4923	-0.860546	0
0.2433	-79.425	6.38714	7.07601	9.46405	-1.52253	-0.986715	-11.387	-19.5681	-1.47522	0.322101
0.2440	-71.4661	4.28004	6.80386	10.0636	-1.52253	-0.684335	-10.1626	-11.6325	-1.16788	-1.2884
0.2447	-40.0407	-1.51448	2.22259	9.16428	-0.614354	-1.2891	-8.9382	-2.48585	-0.860546	-2.57681
0.2453	2.05127	-6.38714	-2.04116	7.92239	1.22871	1.46416	-6.51386	6.97949	-2.39724	0.322101
0.2460	31.0972	-6.38714	-2.35867	6.72333	2.43071	5.42693	-3.45284	16.4448	-6.02383	0.966304
0.2467	53.3329	-8.82347	-4.80806	3.93979	1.81635	4.50388	-4.3589	19.7912	-8.78987	-0.322101
0.2473	99.7736	-10.3379	-6.35027	5.18167	1.52253	3.29436	-5.90166	22.2451	-6.33116	0.322101
0.2480	172.06	-8.23085	-4.21839	8.52193	1.81635	2.06892	-6.19552	24.9859	-1.78256	0.322101
0.2487	151.055	-9.74533	-5.39773	7.62263	-0.614354	-0.0636591	-7.12607	24.0617	-1.47522	0
0.2493	27.7331	-10.9964	-7.25745	5.48144	-1.22871	0.541102	-7.73827	21.6396	-2.70457	0
0.2500	-55.3021	-9.74533	-6.62242	5.18167	-1.22871	-0.0636591	-8.64434	18.2933	-1.78256	0
0.2507	-79.0968	-8.56008	-5.71524	6.38074	-1.84306	-2.19624	-10.1626	13.9909	0.368806	0.322101
0.2513	-103.22	-3.62157	-0.544308	9.46405	0	-0.684335	-6.80772	12.493	2.21283	0.322101
0.2520	-118.727	0	3.44729	9.16428	0.293822	0.238721	-4.67725	8.50924	1.29082	0.322101
0.2527	-69.661	0.592621	4.35447	6.08097	-1.84306	-2.19624	-7.12607	2.70894	-0.553208	0.322101
0.2533	-10.9948	2.43633	6.16883	5.18167	-1.52253	-2.19624	-7.73827	-0.0318698	-0.860546	0
0.2540	-15.5896	3.35819	5.57916	5.78121	-0.908176	-1.89386	-6.19552	-0.637397	-1.16788	0.322101
0.2547	-15.0153	3.68742	4.94414	7.0231	-0.320533	-1.89386	-4.3589	-1.24292	-1.47522	0.322101
0.2553	14.605	6.38714	8.3007	7.92239	1.22871	0.238721	-1.32236	-4.0156	-0.860546	0.322101
0.2560	24.0408	7.04561	8.02855	6.72333	0.908176	-0.0636591	-1.32236	-11.6325	-1.47522	0.322101
0.2567	16.4101	5.53113	6.16883	4.58214	-0.320533	-0.684335	-3.77118	-18.357	-1.78256	0.322101
0.2573	8.20506	5.2019	6.48634	3.34025	0	-0.36604	-4.3589	-18.357	-2.70457	0
0.2580	6.9743	4.60928	7.39352	2.74072	0.293822	0.238721	-3.77118	-15.2975	-3.01191	0
0.2587	19.1998	6.12375	8.93573	3.93979	1.52253	1.76654	-2.22843	-9.78404	-1.16788	0
0.2593	15.5076	7.63823	9.20789	4.88191	1.22871	1.16178	-2.22843	-6.4377	0.368806	0.322101
0.2600	-11.6512	7.63823	8.3007	4.88191	-0.614354	-1.59148	-4.97111	-7.36193	0.983482	0.322101
0.2607	-31.5074	7.96746	8.3007	5.18167	-1.22871	-2.81691	-6.80772	-7.36193	0.983482	0
0.2613	-40.6151	8.88932	8.3007	4.58214	-1.52253	-2.81691	-6.51386	-4.62112	0.983482	0
0.2620	-46.4407	10.0746	9.84291	5.78121	0	-1.2891	-4.97111	1.78471	2.52017	0.322101
0.2627	-60.1431	10.0746	10.7501	6.72333	1.52253	0.238721	-3.45284	9.7203	3.38072	0
0.2633	-80.3276	6.71637	7.39352	4.58214	0.908176	-0.0636591	-3.77118	11.5687	1.9055	0
0.2640	-69.3328	0.921855	0.0907181	3.34025	0.908176	-0.684335	-4.3589	10.039	0.676144	0.322101
0.2647	-34.2151	-6.97976	-9.70683	2.44095	-0.320533	-2.81691	-6.19552	9.7203	-0.24587	-1.61051
0.2653	3.93843	-10.9964	-14.8778	3.04049	0.293822	-3.11929	-6.19552	11.8556	0.983482	-1.93261
0.2660	54.2355	-6.97976	-11.2037	6.38074	3.65941	0.238721	-2.54677	15.8393	3.99539	0.644202
0.2667	58.256	-4.87266	-8.16463	6.72333	3.04506	0.541102	-1.61622	15.5206	4.30273	0.966304
0.2673	-4.02048	-4.28004	-7.57496	5.48144	0.293822	-1.89386	-4.97111	7.90372	3.68806	-0.322101
0.2680	-47.6714	-0.263387	-3.90088	5.48144	-0.908176	-3.11929	-6.80772	0.573657	4.30273	0
0.2687	-43.9791	2.43633	-1.13398	5.18167	-1.84306	-3.72405	-6.80772	2.10341	4.91741	0
0.2693	-36.0202	3.95081	0.680386	6.72333	-2.13688	-3.72405	-6.80772	8.22241	7.06877	0
0.2700	-50.7073	8.23085	4.67198	9.46405	-1.84306	-3.72405	-6.19552	7.58502	10.4495	0.322101
0.2707	-64.1636	11.3256	5.85132	9.76382	-3.36559	-5.87255	-6.51386	-0.956095	11.0642	0.322101
0.2713	-81.5583	11.589	5.57916	8.82169	-4.88812	-7.38445	-7.41993	-7.36193	10.4495	0
0.2720	-100.43	11.589	5.85132	8.22216	-5.18194	-8.00513	-6.80772	-5.22665	10.1422	0
0.2727	-34.8715	11.589	6.48634	7.92239	-5.18194	-6.77969	-6.19552	0.892355	10.4495	0.322101
0.2733	60.3893	14.3546	9.5254	8.22216	-3.65941	-4.64711	-5.28945	2.70894	11.3715	0.322101
0.2740	46.933	17.3836	12.882	7.62263	-3.97995	-4.34473	-4.67725	-1.24292	11.3715	0.322101
0.2747	-11.6512	17.3836	13.7891	5.18167	-6.11683	-6.17493	-6.51386	-6.7564	9.52748	0.322101
0.2753	-43.9791	16.4617	13.1995	3.93979	-6.41065	-7.08207	-8.64434	-7.36193	7.99079	0.322101
0.2760	-48.2458	12.8401	9.5254	3.93979	-5.18194	-5.55425	-7.73827	-0.350568	7.06877	0
0.2767	51.5278	6.71637	4.35447	3.04049	-4.56759	-4.02644	-5.28945	7.58502	5.83942	-0.322101
0.2773	136.368	3.95081	2.81226	4.28238	-2.75124	-2.51453	-2.84063	14.6283	5.83942	0
0.2780	51.1996	3.02895	2.81226	5.78121	-1.52253	-2.51453	-2.54677	19.7912	6.76144	0
0.2787	-57.1072	1.84371	0.362872	4.28238	-1.84306	-3.11929	-2.84063	18.8988	6.14676	0
0.2793	-94.3582	0.592621	-2.67618	2.14119	-2.13688	-1.89386	-1.32236	14.6283	3.99539	0
0.2800	-111.425	0	-3.90088	0.299766	-2.45742	-2.19624	-0.710158	11.8556	3.07338	0.322101
0.2807	-129.148	3.02895	-0.861822	2.14119	-1.52253	-1.89386	-0.391811	11.25	5.53208	0
0.2813	-167.876	7.63823	3.71944	5.48144	-0.320533	-1.2891	0.514252	9.11477	8.29813	0
0.2820	-144.737	8.23085	2.81226	4.58214	-2.13688	-3.11929	0.195906	3.63316	6.76144	0.322101
0.2827	45.4561	7.04561	0.0907181	2.44095	-3.65941	-3.72405	0.514252	-1.56162	3.99539	0.322101
0.2833	197.742	6.38714	-1.769	1.84142	-3.65941	-2.81691	2.03252	-4.30243	2.82751	0
0.2840	126.932	6.12375	-0.544308	1.49883	-3.36559	-3.42167	1.42032	-0.637397	2.82751	0
0.2847	-33.6408	8.23085	4.03695	4.28238	-2.45742	-3.42167	-0.0979528	7.58502	5.22475	-0.322101
0.2853	-178.542	9.74533	6.48634	6.08097	-2.13688	-3.42167	0.514252	9.11477	6.4541	0
0.2860	-249.68	9.15271	5.85132	3.93979	-3.04506	-3.11929	1.73866	4.23869	3.68806	0.322101
0.2867	-210.952	9.74533	5.85132	1.84142	-3.04506	-2.51453	2.64473	-1.24292	1.29082	0
0.2873	-154.747	11.3256	6.80386	1.19907	-3.36559	-2.51453	2.35087	-5.22665	0.0614676	0
0.2880	-133.086	14.6838	9.5254	1.84142	-3.04506	-1.2891	3.25693	-5.51348	0.368806	0.322101
0.2887	-117.825	16.7909	12.2923	2.44095	-1.52253	0.843482	5.70575	-5.51348	0.676144	0.322101
0.2893	-115.117	13.1035	9.84291	0.599533	-1.84306	-0.0636591	4.16299	-7.36193	0.0614676	0
0.2900	-10.0922	6.71637	5.26165	-0.299766	-2.75124	-2.19624	0.195906	-6.15088	-0.24587	0
0.2907	241.967	4.60928	3.71944	-0.299766	-3.36559	-3.72405	-1.93457	-3.3782	0.368806	0
0.2913	331.977	7.04561	6.16883	-1.24189	-3.97995	-3.42167	-2.54677	-0.956095	0.0614676	-0.322101
0.2920	205.045	11.589	11.6573	-1.54166	-2.75124	-1.89386	-0.710158	2.10341	-0.553208	0
0.2927	147.363	12.8401	13.1995	-1.84142	-2.75124	-1.59148	0.808111	3.63316	-1.78256	0.322101
0.2933	133.332	9.15271	9.5254	-3.68284	-4.27377	-2.81691	-0.0979528	4.23869	-4.24126	-0.322101
0.2940	48.4919	6.12375	6.16883	-5.48144	-3.65941	-2.81691	-0.710158	4.55738	-4.85594	0.322101
0.2947	-26.9126	4.87266	4.03695	-6.72333	-3.97995	-3.42167	-2.22843	0.286828	-4.85594	0
0.2953	-43.6509	5.53113	4.67198	-7.32286	-3.04506	-3.42167	-2.54677	-5.83218	-5.16328	-2.25471
0.2960	-24.7793	9.15271	8.3007	-5.48144	0.614354	0.541102	1.12646	-4.90795	-4.24126	-0.644202
0.2967	-15.9178	7.96746	6.48634	-7.92239	-0.908176	0.541102	1.12646	-2.48585	-6.94584	0
0.2973	-30.851	3.35819	3.12977	-11.3055	-2.75124	-1.59148	-1.32236	-3.6969	-10.6339	-2.25471
0.2980	-32.41	2.76557	2.22259	-9.46405	-0.320533	0.843482	0.808111	0.892355	-8.17519	-0.322101
0.2987	5.74354	2.43633	-0.226795	-8.56475	0	2.3713	2.96307	4.55738	-6.94584	0.966304
0.2993	86.3173	2.17294	-0.226795	-9.16428	-0.908176	2.67368	3.86914	3.63316	-8.78987	-0.644202
0.3000	187.978	0.329234	-0.226795	-9.76382	-0.320533	3.29436	4.7752	4.23869	-9.09721	-0.322101
0.3007	268.224	-3.02895	-3.26585	-11.0057	-0.614354	1.76654	3.25693	1.49788	-8.48253	0.644202
0.3013	276.757	-2.76557	-2.9937	-9.46405	-2.13688	-0.684335	0.808111	-5.83218	-7.25318	0.322101
0.3020	217.516	-0.263387	-0.226795	-7.92239	-3.36559	-1.2891	0.195906	-11.9193	-5.77796	0
0.3027	132.43	2.43633	4.03695	-6.42356	-2.75124	-0.0636591	2.03252	-10.4214	-3.62659	-0.322101
0.3033	60.9636	3.35819	6.48634	-6.1238	-2.45742	0.238721	2.35087	-4.0156	-2.0899	0
0.3040	8.77942	1.51448	6.80386	-7.62263	-3.65941	-0.986715	-0.0979528	0.892355	-1.78256	0.322101
0.3047	-37.5792	0.592621	6.16883	-7.92239	-3.97995	-1.2891	-1.61622	2.70894	-2.39724	0.322101
0.3053	-65.0662	-1.18524	3.71944	-6.72333	-3.36559	-1.2891	-0.710158	3.02763	-2.39724	0
0.3060	-127.014	-0.921855	3.71944	-4.58214	-2.45742	-0.0636591	1.73866	4.23869	-0.860546	0
0.3067	-234.09	0.329234	5.26165	-3.38308	-1.84306	0.541102	3.25693	6.97949	0.676144	0
0.3073	-275.034	-3.62157	1.31541	-3.98261	-2.75124	-0.0636591	2.64473	11.8556	0.368806	0
0.3080	-226.214	-10.0746	-5.39773	-4.88191	-3.36559	-0.986715	2.03252	15.2338	-0.860546	0.322101
0.3087	-189.291	-13.1035	-8.16463	-5.82403	-3.65941	-0.684335	1.73866	16.1261	-1.16788	0.322101
0.3093	-159.342	-10.9964	-4.80806	-6.42356	-2.75124	0.541102	1.73866	13.9909	-0.24587	0.322101
0.3100	-87.9583	-5.79452	1.58757	-4.88191	-1.84306	1.46416	2.64473	9.43347	0.983482	0
0.3107	-43.4048	-3.02895	4.94414	-3.68284	-1.52253	0.541102	2.96307	5.16291	2.21283	0
0.3113	-9.51787	-2.76557	5.57916	-4.58214	-2.45742	-0.986715	0.808111	-1.24292	3.07338	0
0.3120	45.4561	0	8.3007	-4.88191	-3.36559	-1.2891	-0.391811	-8.89168	3.07338	0
0.3127	58.5842	3.35819	11.0676	-5.18167	-3.65941	-0.986715	0.195906	-12.238	2.52017	0.322101
0.3133	40.8612	4.28004	12.2923	-5.18167	-3.36559	0.238721	0.808111	-8.89168	2.52017	0
0.3140	27.0767	4.60928	12.2923	-4.88191	-2.13688	1.46416	2.03252	-1.24292	3.38072	-0.322101
0.3147	7.87686	1.25109	9.20789	-5.48144	-2.13688	0.541102	0.808111	1.49788	3.07338	0
0.3153	-18.6255	-3.62157	4.35447	-6.42356	-3.36559	-0.36604	-0.0979528	-3.09137	2.82751	0.322101
0.3160	-54.9739	-5.46528	2.49475	-6.1238	-3.04506	0.238721	0.514252	-7.96746	3.38072	0
0.3167	-77.8661	-5.79452	2.49475	-5.82403	-3.04506	0.541102	1.42032	-8.57298	3.68806	0
0.3173	-66.2969	-5.46528	3.71944	-4.58214	-2.13688	1.46416	3.57528	-8.28615	4.61007	0
0.3180	-7.05635	-4.28004	4.35447	-4.58214	-1.52253	2.67368	4.48134	-11.6325	5.22475	0
0.3187	57.0252	-3.02895	4.94414	-7.0231	-2.75124	1.46416	2.35087	-16.8273	4.30273	0
0.3193	24.9434	0.329234	8.61822	-7.92239	-3.04506	1.76654	1.73866	-18.0383	4.30273	0
0.3200	-1.23076	2.76557	12.2923	-7.32286	-2.13688	2.3713	2.96307	-13.4491	4.91741	0.322101
0.3207	139.076	-1.18524	9.20789	-7.32286	-1.84306	1.46416	2.64473	-6.7564	5.53208	0.322101
0.3213	317.044	-7.90162	1.90508	-6.1238	-0.908176	1.46416	2.03252	-1.24292	6.14676	0.322101
0.3220	314.008	-11.9183	-2.67618	-5.82403	-0.320533	1.46416	1.42032	-0.0318698	5.83942	0.322101
0.3227	181.496	-10.9964	-2.04116	-7.0231	-0.908176	0.541102	1.42032	-2.48585	5.53208	0.322101
0.3233	111.343	-10.3379	-2.04116	-7.92239	-0.908176	1.76654	2.64473	-1.84845	5.22475	0.322101
0.3240	110.768	-13.1035	-7.25745	-9.16428	-0.320533	3.29436	3.25693	4.55738	3.68806	0
0.3247	64.0816	-15.8691	-9.70683	-9.76382	-0.320533	3.59674	3.25693	7.29819	3.07338	-1.2884
0.3253	-10.9948	-13.4327	-6.03275	-8.86452	0.614354	3.89912	3.57528	6.97949	4.61007	-1.2884
0.3260	-41.5176	-11.2598	-4.21839	-8.26498	0.908176	3.59674	3.25693	12.1743	6.14676	0.644202
0.3267	-36.3484	-10.9964	-4.21839	-9.76382	-1.22871	2.06892	1.73866	14.3096	5.83942	0.322101
0.3273	-26.0101	-9.48194	-2.67618	-10.3633	-1.84306	0.843482	1.12646	11.5687	5.83942	-0.322101
0.3280	28.0613	-7.90162	-1.769	-9.76382	-1.22871	1.46416	1.42032	7.58502	6.4541	0.322101
0.3287	102.481	-4.54343	-0.226795	-8.56475	-1.22871	2.67368	2.35087	-4.62112	7.37611	0.322101
0.3293	84.184	-0.592621	2.49475	-9.16428	-1.84306	2.67368	2.03252	-21.7034	7.68345	0
0.3300	18.5434	1.25109	4.03695	-8.86452	-2.45742	2.06892	2.03252	-27.5037	7.99079	0
0.3307	-7.71276	2.17294	6.16883	-7.62263	-2.75124	1.16178	2.35087	-24.7629	8.9128	0
0.3313	-26.0101	2.43633	8.02855	-7.92239	-3.97995	-0.36604	1.12646	-22.3089	9.22014	0
0.3320	-47.3432	3.68742	9.20789	-7.0231	-4.27377	-0.36604	1.42032	-15.903	10.1422	0.322101
0.3327	-61.3739	1.51448	7.39352	-5.82403	-3.04506	0.238721	2.35087	-8.28615	11.6174	0.322101
0.3333	-68.4302	-5.2019	0.997899	-6.42356	-3.36559	-0.986715	1.42032	-2.48585	11.3715	0.322101
0.3340	-47.9176	-8.23085	-2.04116	-6.1238	-3.36559	-1.2891	0.808111	6.05527	11.6174	0
0.3347	10.3384	-7.90162	-3.26585	-5.82403	-4.27377	-1.89386	0.514252	12.1743	11.6174	0
0.3353	91.2403	-6.71637	-4.49055	-5.82403	-5.18194	-2.19624	0.195906	13.704	11.6174	0.322101
0.3360	124.471	-2.76557	-2.04116	-4.58214	-3.65941	-0.0636591	2.03252	14.9151	12.8467	0.322101
0.3367	74.0917	-1.84371	-2.04116	-5.48144	-3.97995	-0.684335	1.73866	10.6445	11.6174	0.322101
0.3373	32.5741	-2.43633	-3.26585	-7.0231	-5.18194	-1.89386	0.514252	2.70894	9.83482	0.322101
0.3380	32.9023	-2.1071	-2.35867	-7.0231	-5.18194	-1.59148	0.514252	1.78471	9.52748	0.322101
0.3387	21.3332	-2.43633	-2.35867	-6.72333	-5.50248	-1.59148	0.808111	5.16291	9.83482	0.322101
0.3393	6.9743	-3.02895	-1.769	-5.82403	-4.88812	-2.19624	0.514252	6.37396	9.83482	-0.644202
0.3400	-2.78972	-3.35819	-0.226795	-4.58214	-3.65941	-1.59148	1.73866	5.16291	11.0642	-0.644202
0.3407	-47.3432	0.329234	3.44729	-4.28238	-3.65941	-0.986715	2.35087	-3.3782	12.2321	0.966304
0.3413	-93.1275	5.2019	7.39352	-5.18167	-6.11683	-2.51453	0.195906	-15.2975	11.3715	0.322101
0.3420	-88.8608	5.2019	7.71104	-5.18167	-7.63936	-4.02644	-1.32236	-15.5843	10.4495	-0.322101
0.3427	-74.8302	3.02895	7.39352	-3.04049	-5.50248	-2.81691	0.514252	-4.62112	11.3715	0.322101
0.3433	-87.0557	1.25109	7.39352	-2.44095	-4.56759	-1.89386	1.42032	4.23869	11.9247	0
0.3440	-106.83	0.921855	6.80386	-3.68284	-6.70447	-2.81691	0.195906	4.84421	11.3715	0
0.3447	-110.194	1.51448	5.85132	-3.98261	-7.02501	-3.11929	-0.0979528	3.02763	11.3715	0
0.3453	-59.897	-4.87266	-3.26585	-3.68284	-6.41065	-2.51453	-0.710158	4.55738	11.3715	0
0.3460	39.6305	-16.4617	-17.3272	-4.58214	-6.41065	-2.51453	-1.32236	11.5687	10.7568	0
0.3467	141.291	-18.3054	-20.0487	-4.28238	-5.50248	-1.2891	-0.710158	14.6283	11.0642	0
0.3473	231.301	-13.1035	-14.8778	-4.28238	-5.18194	-1.2891	-0.391811	10.039	10.1422	0
0.3480	237.701	-8.82347	-9.70683	-5.48144	-6.70447	-2.19624	-1.32236	10.3577	8.9128	0.322101
0.3487	130.871	-4.54343	-4.80806	-6.42356	-7.31883	-1.89386	-1.00402	15.5206	8.29813	0.322101
0.3493	21.6614	-0.921855	-0.226795	-6.72333	-6.70447	-0.986715	-0.391811	14.6283	7.06877	0
0.3500	-56.2047	3.68742	4.35447	-5.48144	-5.18194	-0.0636591	0.514252	9.7203	7.68345	0
0.3507	-159.014	8.23085	7.07601	-3.68284	-3.97995	0.238721	1.73866	7.58502	8.60546	0.322101
0.3513	-280.203	9.15271	6.48634	-3.98261	-4.27377	-0.0636591	2.03252	6.69266	7.37611	0
0.3520	-329.597	8.23085	4.94414	-5.18167	-5.50248	-1.2891	0.514252	4.23869	5.83942	0
0.3527	-222.85	7.30899	2.81226	-4.58214	-5.7963	-2.51453	-0.0979528	4.23869	5.53208	0
0.3533	-71.4661	6.71637	1.90508	-2.74072	-4.88812	-2.19624	1.12646	10.039	6.14676	0.322101
0.3540	-17.1486	7.63823	2.49475	-2.44095	-4.88812	-1.59148	2.03252	12.7798	6.4541	0.322101
0.3547	-29.9485	5.79452	0.680386	-3.98261	-6.11683	-2.81691	0.195906	6.69266	5.53208	-1.61051
0.3553	-25.6818	3.95081	-1.13398	-3.68284	-6.11683	-3.11929	-0.710158	-1.24292	5.83942	-1.2884
0.3560	23.1383	5.79452	-2.67618	-3.38308	-5.18194	-1.2891	0.514252	-6.4377	6.4541	0.966304
0.3567	37.8253	8.23085	-3.58336	-5.48144	-5.50248	-0.36604	0.808111	-11.6325	4.61007	0.322101
0.3573	-12.882	13.1035	0.680386	-6.42356	-3.97995	2.3713	2.64473	-16.8273	3.07338	-0.322101
0.3580	-54.9739	15.8691	4.03695	-6.72333	-2.13688	3.89912	3.25693	-19.5681	1.29082	-0.322101
0.3587	-67.1995	13.4327	1.58757	-8.56475	-2.13688	2.67368	1.73866	-18.357	-0.860546	0
0.3593	-89.7634	10.6672	-0.226795	-9.46405	-2.75124	2.06892	1.73866	-12.5567	-1.16788	0.322101
0.3600	-137.681	9.48194	-0.861822	-9.16428	-3.36559	1.76654	1.42032	-7.04323	-0.24587	0.322101
0.3607	-105.353	9.15271	0.0907181	-7.0231	-2.45742	2.06892	1.42032	-1.84845	1.59816	0
0.3613	62.1944	9.15271	0.0907181	-4.58214	-1.84306	2.3713	2.96307	2.70894	3.07338	0
0.3620	137.271	6.71637	-2.67618	-4.28238	-3.04506	0.843482	2.64473	3.91999	3.38072	0
0.3627	42.9945	6.38714	-3.90088	-3.98261	-4.56759	-0.684335	0.808111	2.10341	3.68806	0.322101
0.3633	-11.9794	7.04561	-4.21839	-3.98261	-5.18194	-1.89386	-1.32236	-1.24292	3.99539	0.322101
0.3640	21.6614	7.04561	-4.80806	-3.68284	-4.56759	-1.89386	-2.22843	-2.48585	3.68806	0
0.3647	81.7224	9.48194	-2.67618	-2.14119	-2.75124	-0.0636591	-0.710158	0.573657	4.30273	0
0.3653	134.235	11.3256	-0.226795	-2.44095	-1.84306	0.541102	0.514252	1.17918	3.68806	0
0.3660	139.076	11.589	0.362872	-4.28238	-1.84306	0.541102	0.808111	0.286828	1.59816	0
0.3667	100.02	10.9964	0.0907181	-6.42356	-3.04506	0.238721	-0.0979528	-1.56162	-0.553208	0
0.3673	57.3534	10.9964	0.997899	-7.0231	-3.65941	-0.0636591	-1.61622	-2.16715	-1.16788	0.322101
0.3680	31.0972	13.762	4.03695	-5.18167	-1.52253	2.67368	0.195906	2.70894	0.676144	0
0.3687	0.902557	14.3546	4.35447	-3.98261	-0.320533	4.2015	2.96307	6.97949	0.676144	0
0.3693	-37.0048	10.6672	0.997899	-6.1238	-2.13688	2.3713	1.73866	8.22241	-1.47522	0
0.3700	-38.4817	8.56008	0.0907181	-7.32286	-3.36559	1.76654	1.12646	10.3577	-2.0899	0.322101
0.3707	-20.1845	7.04561	-0.861822	-3.38308	-3.97995	2.06892	0.808111	12.7798	-1.47522	0
0.3713	-30.851	5.53113	-2.35867	7.0231	-3.65941	1.76654	0.514252	15.2338	-0.24587	0
0.3720	-62.9328	6.71637	-0.861822	16.4871	-2.13688	2.3713	0.808111	17.9746	0.983482	0
0.3727	-79.0968	7.96746	0.362872	21.0693	-2.13688	1.46416	-0.0979528	16.1261	-1.78256	0.644202
0.3733	-33.6408	7.04561	-1.45149	23.5102	-3.97995	-0.0636591	-2.22843	12.1743	-1.78256	0.322101
0.3740	70.1533	3.02895	-5.71524	29.2914	-4.27377	-0.684335	-4.67725	12.1743	3.68806	0.322101
0.3747	143.999	0.329234	-8.7543	36.9141	-3.65941	-0.684335	-5.58331	11.25	0.0614676	0.322101
0.3753	122.338	3.35819	-6.62242	41.4962	-2.75124	-0.36604	-4.67725	5.76844	6.76144	0
0.3760	59.4867	5.79452	-4.80806	37.5136	-2.13688	-0.684335	-4.06504	-0.637397	38.4787	0.322101
0.3767	32.3279	3.35819	-6.62242	34.7729	-3.04506	-1.59148	-4.97111	-2.77267	83.6574	0
0.3773	38.7279	2.76557	-6.35027	32.0322	-4.56759	-1.89386	-5.58331	-0.350568	121.521	0
0.3780	6.6461	5.79452	-2.9937	-7.32286	-4.88812	-0.684335	-5.28945	1.78471	112.67	0
0.3787	-75.4045	9.74533	1.58757	-47.0205	-3.36559	1.46416	-2.84063	2.42211	123.058	0
0.3793	-119.712	10.9964	2.81226	-27.7926	-2.45742	1.76654	-1.61622	2.42211	182.559	0
0.3800	-115.691	7.96746	-0.226795	3.34025	-5.18194	-0.986715	-3.45284	1.78471	131.602	0.322101
0.3807	-108.061	5.2019	-2.04116	5.78121	-6.70447	-2.51453	-5.28945	0.286828	-50.2805	0.322101
0.3813	-86.0711	6.12375	-0.226795	11.905	-5.18194	-2.19624	-4.97111	-0.956095	-181.206	0
0.3820	-70.5635	8.88932	3.12977	63.4648	-3.04506	-2.51453	-3.45284	-1.56162	-152.87	0
0.3827	-59.5688	8.23085	3.12977	136.693	-2.13688	-4.02644	-1.93457	-1.56162	-29.5659	0.322101
0.3833	57.3534	2.76557	-1.45149	184.613	-1.84306	-3.72405	-0.391811	-0.350568	42.1668	0.644202
0.3840	180.347	-2.43633	-5.39773	206.882	-3.04506	-3.42167	1.42032	1.17918	56.4887	-0.322101
0.3847	136.696	-3.62157	-4.49055	214.204	-3.65941	-3.42167	2.35087	-0.637397	91.8941	-2.57681
0.3853	58.256	-0.263387	0.362872	214.847	0	0.541102	5.70575	0.286828	108.675	-0.644202
0.3860	44.4714	3.35819	4.67198	137.336	1.81635	6.34999	10.285	5.16291	109.597	1.2884
0.3867	34.4613	4.28004	4.94414	-22.9107	-0.614354	8.48257	11.1911	5.44974	137.073	0.322101
0.3873	19.7742	3.68742	3.44729	-101.021	-3.36559	7.25713	9.67284	2.42211	136.151	0
0.3880	18.5434	3.35819	2.22259	-82.3929	-5.7963	4.82217	7.83623	0.286828	169.405	0
0.3887	26.5024	3.95081	3.44729	-124.232	-5.50248	6.95475	7.83623	-0.956095	285.087	0
0.3893	29.8664	4.87266	5.57916	-219.129	-0.320533	15.1986	9.9667	0.573657	372.678	0.322101
0.3900	25.928	5.2019	5.85132	-209.665	5.50248	20.6892	12.4155	4.84421	451.418	0.322101
0.3907	23.1383	0	0.0907181	-115.067	7.02501	21.294	11.8033	6.05527	470.35	0.322101
0.3913	19.1998	-4.87266	-5.39773	-75.7124	4.88812	23.1242	9.9667	3.91999	191.103	0.322101
0.3920	7.54866	-3.95081	-3.90088	-78.4531	2.75124	24.9543	9.9667	3.91999	-253.247	0
0.3927	-5.8256	-1.51448	-0.544308	-61.966	0.293822	21.294	8.13008	5.76844	-433.9	0
0.3933	-7.71276	-1.18524	0.0907181	-48.5193	-3.97995	14.2755	4.16299	4.55738	-385.402	0
0.3940	2.05127	-1.84371	0.362872	-28.3921	-7.02501	8.78495	0.808111	1.17918	-372.555	0
0.3947	6.39995	-3.62157	0.680386	38.7555	-4.88812	6.95475	-0.391811	0.573657	-364.626	0.322101
0.3953	1.80511	-6.38714	0.680386	122.048	0.614354	8.18019	-1.32236	0.573657	-335.92	0.322101
0.3960	-3.36408	-7.63823	0.362872	172.408	4.27377	8.78495	-1.61622	0.286828	-296.274	0
0.3967	-6.1538	-7.63823	0.997899	171.809	4.88812	7.86189	-2.22843	-0.0318698	-209.297	0
0.3973	-5.25124	-6.71637	1.90508	110.485	5.18194	6.65237	-1.93457	0.286828	-120.784	0
0.3980	-2.78972	-5.79452	2.22259	38.7555	6.70447	6.0317	-1.00402	0.892355	-36.8806	0.322101
0.3987	-0.656405	-5.46528	3.44729	32.9315	8.22701	5.72932	-1.00402	1.78471	96.1968	0.322101
0.3993	0.246152	-4.54343	4.03695	83.9346	7.93318	6.34999	-1.32236	2.42211	200.876	0
0.4000	0.246152	-6.12375	1.58757	120.549	4.56759	6.0317	-3.15898	-0.0318698	163.627	0
0.4007	0.246152	-7.30899	0.362872	84.5341	2.43071	6.34999	-3.15898	-1.56162	-2.70457	0.322101
0.4013	1.80511	-4.54343	3.12977	-15.8876	5.18194	9.69209	1.12646	1.17918	-211.756	0.322101
0.4020	2.05127	-3.95081	3.12977	-126.972	5.18194	10.6151	3.57528	2.42211	-313.055	0
0.4027	1.80511	-5.2019	1.58757	-160.846	3.04506	11.2199	3.57528	1.78471	-216.612	0
0.4033	1.47691	-6.38714	0.997899	-100.721	2.13688	11.5382	4.48134	1.17918	-84.7638	0
0.4040	0.574354	-8.23085	-0.226795	-36.9141	0.908176	9.69209	6.31796	-0.0318698	-95.4592	0
0.4047	0.246152	-7.30899	1.31541	26.8505	0.908176	10.3128	8.74229	1.49788	-127.484	0
0.4053	0.574354	-5.2019	3.12977	108.044	2.75124	10.3128	9.06064	3.63316	-95.4592	0
0.4060	0.902557	-5.2019	2.81226	127.572	2.43071	7.55951	7.83623	3.63316	-96.6885	0.322101
0.4067	0.574354	-7.30899	1.58757	40.2543	-0.320533	6.95475	5.70575	2.42211	-140.331	0.322101
0.4073	-0.984608	-10.0746	-0.544308	-40.8967	-1.22871	8.78495	3.25693	1.17918	-130.557	0
0.4080	-1.55896	-10.3379	-1.13398	-29.9338	1.22871	13.0501	3.25693	1.49788	-30.1806	0
0.4087	-0.0820506	-8.56008	1.31541	-28.9917	4.88812	17.0288	6.61182	3.31446	-43.5805	0.322101
0.4093	1.80511	-7.90162	2.49475	-159.005	5.18194	16.4081	8.13008	3.63316	-165.655	0.322101
0.4100	3.93843	-9.48194	0.680386	-399.803	2.13688	13.3684	6.61182	1.78471	-93.9225	0.322101
0.4107	5.74354	-11.2598	-0.544308	-568.228	0.614354	10.3128	5.09355	0.286828	94.0454	0
0.4113	7.30251	-11.2598	-0.226795	-475.772	2.43071	8.18019	3.86914	1.17918	200.876	0
0.4120	8.20506	-9.48194	0.997899	-195.019	5.50248	7.86189	3.57528	3.02763	295.475	0
0.4127	7.54866	-7.90162	2.49475	30.4905	7.93318	9.08733	4.48134	2.70894	394.929	0
0.4133	6.07175	-8.82347	1.90508	99.4796	8.54754	8.18019	5.3874	2.42211	474.591	0.322101
0.4140	3.93843	-10.6672	-1.13398	79.952	6.09012	2.99198	4.16299	1.49788	497.765	0
0.4147	2.05127	-12.5109	-3.58336	48.5193	0.908176	-2.19624	1.42032	-0.637397	387.922	-1.93261
0.4153	4.51278	-10.9964	-1.769	25.3088	-2.13688	-0.684335	1.42032	1.17918	156.927	-1.61051
0.4160	6.39995	-6.97976	1.90508	9.46405	-3.97995	2.06892	3.25693	4.84421	-263.942	0.966304
0.4167	2.37947	-7.63823	0.680386	25.9512	-7.93318	-2.81691	1.12646	3.63316	-652.417	0.644202
0.4173	-2.46152	-10.3379	-2.04116	62.8653	-8.84136	-8.60989	-3.45284	0.573657	-565.44	-0.322101
0.4180	-6.1538	-10.0746	-1.769	73.8282	-7.31883	-9.83532	-5.58331	-0.0318698	-120.477	0
0.4187	-9.51787	-8.82347	0.0907181	118.108	-3.36559	-7.70275	-4.67725	0.573657	297.319	0
0.4193	-11.9794	-8.56008	1.90508	204.441	4.27377	-0.684335	-2.84063	1.78471	477.665	0.322101
0.4200	-12.882	-9.48194	2.49475	211.464	10.0701	4.2015	-2.22843	2.10341	424.864	0.322101
0.4207	-10.0922	-11.9183	0.680386	137.336	8.54754	2.67368	-3.77118	0.892355	359.524	0
0.4213	-6.482	-12.1817	-0.544308	66.2055	5.50248	-0.684335	-4.97111	1.17918	366.285	0.322101
0.4220	-4.02048	-9.74533	0.997899	79.6522	3.95324	-1.89386	-4.3589	4.55738	234.745	0.322101
0.4227	-4.34868	-9.74533	0.997899	191.337	2.75124	0.541102	-3.45284	6.05527	-150.104	0.322101
0.4233	-6.482	-10.6672	0.0907181	289.917	2.75124	4.50388	-0.710158	5.44974	-491.864	0.322101
0.4240	-7.71276	-10.9964	-0.544308	355.823	3.36559	4.82217	1.42032	4.23869	-468.998	0.322101
0.4247	-8.28711	-10.9964	-0.861822	425.111	3.04506	-0.36604	-0.710158	2.10341	-222.697	0.322101
0.4253	-7.95891	-9.48194	-0.226795	444.339	0.908176	-5.25187	-2.22843	0.892355	32.7008	0
0.4260	-7.71276	-8.23085	0.680386	363.445	-2.75124	-6.47731	-1.00402	0.892355	201.491	0.322101
0.4267	-7.95891	-8.23085	0.997899	209.965	-5.18194	-6.47731	-0.710158	0.573657	26.0008	0
0.4273	-8.28711	-8.23085	1.31541	6.72333	-5.50248	-4.94949	-0.710158	1.17918	-335.92	0
0.4280	-7.05635	-8.82347	1.31541	-289.317	-3.04506	-0.986715	1.42032	2.70894	-416.197	0
0.4287	-3.69228	-10.6672	-0.544308	-513.328	-0.614354	2.99198	4.16299	4.55738	-359.77	0.322101
0.4293	-0.328203	-11.2598	-1.13398	-433.034	-1.22871	3.89912	7.22402	6.37396	-392.409	0.322101
0.4300	1.80511	-12.1817	-1.45149	-233.775	-3.04506	2.06892	6.93016	6.05527	-373.785	0
0.4307	4.84099	-13.6961	-1.769	-135.794	1.22871	2.3713	5.09355	4.55738	-232.163	0
0.4313	9.43582	-13.4327	-0.861822	-82.3929	8.84136	5.72932	7.22402	6.05527	9.83482	0
0.4320	9.43582	-13.6961	-1.45149	-58.5829	11.2988	6.95475	8.44843	6.37396	134.921	0
0.4327	5.74354	-13.4327	-2.35867	-149.541	8.54754	6.34999	8.13008	5.76844	-16.4119	0
0.4333	2.05127	-13.4327	-2.04116	-288.418	2.75124	5.72932	9.06064	5.16291	-167.499	0
0.4340	-1.55896	-15.2765	-2.9937	-279.853	-3.36559	2.67368	8.13008	3.91999	-43.5805	0
0.4347	-2.21537	-13.6961	-1.13398	-163.887	-5.50248	-2.19624	6.31796	4.55738	172.478	0
0.4353	-0.984608	-10.6672	2.49475	-80.5943	-6.41065	-5.87255	3.86914	6.05527	228.352	0
0.4360	-5.8256	-10.6672	3.12977	1.84142	-7.31883	-8.91227	0.808111	5.16291	226.201	0.322101
0.4367	-15.0153	-11.9183	2.49475	106.802	-6.41065	-12.891	-0.391811	2.70894	234.13	0.644202
0.4373	-18.0511	-13.1035	0.680386	127.872	-7.31883	-20.2118	-4.67725	-1.24292	253.062	0
0.4380	-13.4563	-12.1817	-0.544308	3.34025	-9.16189	-26.0047	-8.64434	-0.956095	324.733	0
0.4387	-10.0922	-8.82347	1.58757	-143.46	-9.16189	-25.4	-6.51386	4.84421	452.647	0
0.4393	-9.84608	-8.56008	1.90508	-214.547	-8.84136	-21.7396	-3.15898	7.29819	458.118	0
0.4400	-7.95891	-10.3379	-0.861822	-300.923	-8.84136	-15.6283	-0.710158	6.69266	65.3401	0
0.4407	-7.38456	-11.2598	-1.769	-475.772	-7.93318	-6.17493	1.12646	5.16291	-142.175	0
0.4413	-3.69228	-10.6672	0.0907181	-557.266	-4.88812	3.29436	3.57528	3.02763	159.939	0
0.4420	9.10762	-9.48194	1.90508	-360.405	-2.75124	4.2015	4.7752	5.44974	118.141	0
0.4427	21.3332	-8.56008	3.12977	-74.1707	-2.45742	0.238721	3.25693	10.9632	-265.171	0
0.4433	18.8716	-10.3379	0.997899	108.644	2.13688	-0.0636591	0.808111	12.493	-321.906	0
0.4440	11.8973	-15.5398	-2.35867	223.069	9.45571	-1.2891	-1.00402	10.9632	-127.484	0
0.4447	19.446	-19.2273	-4.49055	269.147	16.4807	-4.94949	-1.61622	10.9632	67.4914	-0.322101
0.4453	29.8664	-18.6346	-3.58336	273.43	22.8914	-6.47731	-1.61622	12.1743	132.524	0.322101
0.4460	29.2921	-16.1325	-2.35867	323.491	22.277	-8.91227	-1.61622	11.8556	43.0888	0.644202
0.4467	24.369	-17.7128	-4.21839	411.965	13.1151	-16.5514	-3.15898	6.69266	-54.2759	-1.2884
0.4473	20.1024	-18.6346	-3.26585	503.222	5.7963	-22.6467	-2.84063	0.573657	-82.6739	-2.25471
0.4480	14.0307	-14.3546	1.31541	580.733	1.52253	-22.6467	0.514252	-0.956095	90.3574	0.644202
0.4487	8.77942	-12.8401	1.31541	600.261	-3.36559	-21.4213	0.195906	-2.16715	363.827	1.2884
0.4493	9.10762	-13.6961	0.997899	602.402	-7.31883	-20.5141	-1.00402	-0.637397	308.26	-0.322101
0.4500	8.77942	-12.5109	3.44729	628.952	-9.45571	-20.5141	-0.0979528	4.84421	98.9014	0
0.4507	-5.57944	-12.8401	2.81226	488.576	-10.6844	-22.0419	0.195906	7.58502	139.224	0.322101
0.4513	-19.2819	-13.6961	0.680386	131.212	-13.7295	-11.0448	0.514252	9.11477	285.087	0
0.4520	-11.6512	-10.9964	0.997899	-94.8974	-19.5258	13.3684	2.64473	8.82794	322.951	0.322101
0.4527	-0.984608	-7.90162	3.71944	-82.6927	-19.8463	30.1426	5.70575	9.11477	193.561	0
0.4533	4.51278	-6.38714	7.07601	-143.46	-14.6644	31.368	7.22402	11.8556	51.6328	0
0.4540	14.9332	-6.71637	6.80386	-274.672	-13.4357	24.0472	4.7752	10.9632	-107.691	0
0.4547	17.9691	-9.15271	4.94414	-185.256	-14.9582	20.0685	2.35087	10.039	-453.754	0
0.4553	11.8973	-9.15271	6.80386	56.4417	-10.9782	18.2383	3.86914	11.5687	-683.827	0
0.4560	10.6666	-8.23085	8.61822	196.518	-7.02501	6.0317	3.57528	8.82794	-526.101	0.322101
0.4567	12.4717	-10.0746	6.48634	261.824	-5.18194	-10.4401	0.514252	2.70894	-117.772	0.322101
0.4573	11.8973	-12.1817	5.57916	342.719	-1.52253	-18.0792	-0.710158	1.78471	279.309	0.322101
0.4580	9.68198	-12.5109	4.35447	353.981	-1.84306	-23.5698	-0.710158	5.44974	461.191	0.322101
0.4587	3.28203	-13.4327	0.997899	221.57	-8.84136	-30.5882	-1.32236	6.97949	506.616	0.322101
0.4593	-3.11792	-14.9472	-2.04116	-73.871	-14.3438	-30.5882	-0.710158	8.82794	729.436	0
0.4600	-3.36408	-15.2765	-4.21839	-438.558	-14.05	-25.0976	2.35087	8.50924	941.499	0
0.4607	-3.11792	-14.0254	-4.49055	-714.429	-14.05	-21.7396	6.61182	3.91999	550.565	0
0.4613	-1.23076	-9.74533	-1.45149	-808.127	-19.232	-26.6095	8.13008	0.573657	-135.475	-0.322101
0.4620	4.26663	-5.79452	2.81226	-661.327	-23.1852	-33.9462	5.99961	-3.6969	-360.692	0
0.4627	8.20506	-4.28004	4.03695	-405.884	-23.7995	-34.551	4.48134	-7.64876	-182.436	0
0.4633	10.6666	-5.46528	1.90508	-207.224	-25.3221	-27.2302	1.12646	-7.96746	-115.621	0.322101
0.4640	10.0102	-8.56008	0.0907181	-78.7529	-24.1201	-7.38445	-2.84063	-6.4377	-255.705	0
0.4647	2.05127	-10.3379	-0.226795	6.38074	-15.8664	13.9732	-2.54677	-2.48585	-427.507	0
0.4653	-8.28711	-11.2598	-0.544308	131.812	9.16189	20.0685	-1.93457	0.892355	-527.884	0.322101
0.4660	-18.3793	-11.2598	0.362872	321.349	45.4622	12.7477	-4.06504	-1.56162	-381.714	0.322101
0.4667	-29.3741	-10.9964	0.680386	479.112	69.5823	3.59674	-6.19552	-4.30243	-85.6858	0
0.4673	-33.8869	-12.8401	-0.861822	511.487	78.1298	-4.02644	-3.77118	-4.0156	133.385	0.322101
0.4680	-33.3126	-13.4327	-0.861822	402.201	82.0831	-9.21465	1.12646	-3.09137	208.805	0.322101
0.4687	-36.0202	-9.48194	1.58757	275.871	80.5605	-14.4029	4.48134	-2.16715	94.6601	0
0.4693	-42.5022	-6.38714	1.90508	205.083	68.0598	-24.1745	3.57528	-3.6969	47.6374	0
0.4700	-43.9791	-6.12375	1.31541	94.2979	56.761	-33.9462	0.195906	-8.28615	253.369	0
0.4707	-35.4459	-4.87266	2.49475	-97.3384	48.2135	-39.4368	0.195906	-9.49721	356.512	0
0.4713	-24.1229	-3.95081	3.44729	-311.885	25.6426	-43.0972	2.96307	-8.28615	140.146	0
0.4720	-26.0101	-3.35819	4.67198	-391.837	3.36559	-43.7019	5.70575	-8.89168	-121.091	0
0.4727	-34.2151	0	8.02855	-399.803	17.0951	-40.9646	7.54237	-10.4214	-371.633	-0.322101
0.4733	-17.7229	1.51448	8.3007	-558.165	42.711	-37.3042	7.83623	-8.89168	-583.143	0.322101
0.4740	13.3743	-1.51448	5.57916	-609.425	39.3721	-33.0231	5.99961	-0.956095	-493.708	0.322101
0.4747	26.5024	-7.63823	4.03695	-423.912	29.5958	-30.2858	1.73866	7.90372	-296.581	-1.61051
0.4753	32.9023	-11.589	5.26165	-395.52	36.9147	-22.3443	-1.61622	12.493	-244.088	-1.2884
0.4760	45.1278	-7.90162	8.93573	-515.769	45.4622	-3.42167	-1.32236	14.3096	-239.232	0.644202
0.4767	55.7944	-6.71637	8.3007	-429.394	28.9815	12.7477	-4.3589	9.7203	-150.104	0
0.4773	53.3329	-9.48194	5.57916	-165.728	-2.75124	17.9359	-10.7748	5.16291	52.5548	-0.322101
0.4780	21.6614	-10.6672	0.997899	3.34025	-27.1651	23.7448	-15.6725	4.84421	264.311	0.322101
0.4787	-8.28711	-11.2598	-6.35027	64.3641	-52.4872	24.0472	-17.8029	0.892355	468.199	0.322101
0.4793	-9.18967	-6.38714	-6.35027	185.213	-73.5622	3.29436	-14.7419	-3.09137	661.084	0
0.4800	-16.4922	0	0.362872	282.294	-74.4704	-27.8349	-10.481	-3.09137	672.64	0
0.4807	-40.3689	0.921855	3.44729	235.274	-69.5823	-47.06	-11.7054	-5.22665	462.113	0
0.4813	-60.1431	1.51448	4.35447	176.691	-74.4704	-48.5878	-14.1297	-6.7564	274.391	0
0.4820	-69.0046	2.76557	4.35447	224.011	-82.4036	-44.625	-13.5175	-7.64876	283.55	0.322101
0.4827	-46.4407	2.76557	2.81226	298.139	-85.4487	-43.0972	-11.9992	-7.96746	378.149	0
0.4833	2.37947	4.28004	1.58757	299.081	-92.4737	-43.7019	-11.9992	-2.77267	465.433	0
0.4840	24.6972	3.95081	0.0907181	237.715	-96.7474	-47.3623	-14.7419	-0.350568	437.649	0
0.4847	18.8716	2.43633	-0.861822	147.399	-73.5622	-42.1741	-14.1297	-1.56162	198.11	-0.322101
0.4853	17.9691	1.25109	-1.769	55.5424	-49.1483	-26.6095	-9.86875	-0.350568	-203.519	0
0.4860	19.1998	-0.592621	-3.58336	-13.1469	-47.3053	-13.7981	-7.73827	1.17918	-737.242	0.322101
0.4867	20.6768	1.51448	-1.13398	-117.508	-33.8696	-7.38445	-6.19552	0.892355	-1107.71	0
0.4873	15.1794	4.87266	3.44729	-189.195	-7.31883	-6.17493	-5.58331	-5.22665	-1116.25	0
0.4880	3.28203	2.43633	4.03695	-54.9429	6.09012	-3.42167	-6.51386	-11.3138	-883.105	0
0.4887	3.93843	-1.51448	2.49475	51.26	10.3639	4.50388	-5.28945	-11.3138	-516.021	0
0.4893	-1.23076	-4.54343	-1.13398	-32.0322	14.3438	12.4453	-4.3589	-12.8435	-262.098	0
0.4900	-38.81	-3.62157	-1.45149	-50.3607	19.8463	24.652	-2.54677	-12.8435	-148.567	0.322101
0.4907	-62.0303	0	2.81226	-37.8562	22.8914	40.519	2.64473	-10.1027	-63.7419	0.322101
0.4913	-60.1431	1.84371	5.85132	-61.3664	15.5725	52.4232	5.3874	-7.36193	-107.691	0
0.4920	-88.8608	2.17294	6.16883	4.88191	6.70447	61.8766	6.93016	-0.637397	-154.345	0
0.4927	-130.625	1.84371	4.67198	53.4012	-0.320533	62.4973	7.54237	1.17918	-90.2959	0
0.4933	-162.378	3.95081	6.16883	-15.8876	-8.84136	51.5161	6.61182	-8.57298	-31.9632	0
0.4940	-216.45	9.15271	11.3851	-76.3119	-12.207	37.7817	7.54237	-14.3733	-74.7446	0
0.4947	-201.763	8.88932	10.7501	-80.8941	-6.41065	27.0869	9.06064	-11.027	-205.609	-0.322101
0.4953	-67.7738	3.02895	4.94414	-133.353	0.293822	13.9732	8.44843	-2.77267	-190.673	0
0.4960	3.28203	-1.84371	0.0907181	-193.178	-3.04506	1.76654	4.7752	6.37396	-9.09721	0.322101
0.4967	-10.7486	-5.2019	-3.58336	-171.209	-16.1869	-1.2891	-1.61622	10.039	150.78	0
0.4973	80.4917	-6.71637	-5.71524	-121.148	-28.6877	-0.0636591	-5.28945	13.9909	260.069	0
0.4980	259.69	-7.63823	-8.48214	-115.067	-34.8045	-4.02644	-3.15898	21.6396	154.468	0
0.4987	345.105	-10.0746	-12.1109	-164.486	-39.6659	-15.0235	-0.710158	20.4286	-330.757	0
0.4993	323.115	-9.74533	-11.5212	-317.41	-43.9397	-31.1929	0.514252	13.704	-689.052	0
0.5000	261.824	-6.71637	-7.84711	-485.236	-34.8045	-46.7576	-0.0979528	9.7203	-410.112	0.322101
0.5007	140.06	-1.18524	-2.04116	-437.316	-13.4357	-48.2854	-2.54677	7.58502	99.5161	0
0.5013	-16.246	8.23085	7.71104	-258.484	13.7295	-43.0972	-2.54677	9.11477	431.564	-0.322101
0.5020	-131.609	15.8691	15.921	-128.471	31.4389	-43.3996	-3.15898	6.37396	630.535	0
0.5027	-204.224	21.4002	22.6342	-18.9281	25.9364	-42.1741	-7.12607	-5.83218	714.745	0
0.5033	-247.875	27.1947	29.9823	7.62263	15.8664	-37.3042	-12.9053	-17.7196	755.99	0.322101
0.5040	-200.204	29.8944	33.3389	-159.005	13.1151	-30.5882	-17.4846	-25.3684	757.773	-0.644202
0.5047	-43.6509	29.8944	34.2461	-357.364	9.45571	-14.4029	-12.6114	-26.5794	350.365	-2.25471
0.5053	79.9173	25.9436	29.9823	-361.347	0.293822	-4.94949	0.195906	-12.5567	-425.663	-0.644202
0.5060	63.4251	14.0254	14.7417	-205.383	-18.6176	-11.9679	8.13008	9.7203	-901.422	0.966304
0.5067	-19.6101	2.17294	2.22259	-28.9917	-38.7577	6.34999	13.9338	23.7749	-933.201	0
0.5073	-154.501	-3.35819	-1.769	86.6753	-44.2602	47.235	21.5741	28.651	-779.348	-0.322101
0.5080	-318.685	-9.15271	-7.57496	117.166	-41.509	63.7227	25.2229	35.0568	-528.498	0.322101
0.5087	-228.347	-15.8691	-16.42	86.975	-36.327	59.744	20.0558	45.4464	-317.357	0
0.5093	-28.7177	-22.8488	-27.9865	24.1098	-17.0951	53.6487	6.61182	54.9117	-214.768	0
0.5100	-187.404	-29.5652	-38.3737	-11.3055	10.6844	45.4048	-3.77118	65.2694	-152.563	0.322101
0.5107	-491.976	-31.1455	-41.4128	72.9289	30.2102	41.1397	-8.03213	70.1455	-115.621	0
0.5113	-531.36	-26.207	-35.3347	151.982	70.811	46.0096	-11.0932	60.9988	-98.5326	0
0.5120	-89.7634	-17.9762	-24.63	70.1881	112.293	53.951	-6.80772	42.3869	-80.2152	0.322101
0.5127	588.631	-11.589	-17.9168	-0.599533	93.088	49.0652	12.0972	28.651	-111.933	0.322101
0.5133	712.2	-6.12375	-13.6531	52.5019	61.6491	31.9728	34.0876	21.3209	-221.529	0.322101
0.5140	356.1	2.43633	-5.71524	91.2574	37.2352	20.0685	42.634	14.3096	-275.498	0.322101
0.5147	98.871	14.6838	4.94414	22.5681	10.0701	10.9175	37.7363	-0.350568	-204.749	0
0.5153	-51.6099	29.3018	19.2776	-80.2517	34.484	24.652	32.5448	-23.2331	-135.782	0.322101
0.5160	-179.199	41.2201	33.0214	-66.5481	79.3318	64.6299	33.7692	-43.9804	-99.1472	0.322101
0.5167	-257.311	43.0638	37.013	43.6374	95.8126	77.4412	30.4144	-57.1107	-42.0438	0.322101
0.5173	-235.649	42.4053	38.2377	43.3376	93.9962	61.8766	19.4436	-68.9982	2.52017	0.322101
0.5180	-214.562	43.0638	39.4624	-25.3517	69.8761	44.8001	11.1911	-81.2043	34.5448	0
0.5187	-162.706	35.4256	30.2998	36.3145	35.3921	33.5006	9.06064	-77.5393	56.1814	0
0.5193	16.164	22.2562	15.3314	96.1393	14.3438	29.5378	7.83623	-55.2623	61.4061	0.322101
0.5200	106.174	11.3256	3.44729	41.1965	-31.7327	13.3684	1.12646	-29.9258	93.1234	0
0.5207	234.665	0	-8.7543	39.9546	-109.569	-13.7981	-8.32599	-5.51348	124.533	-0.322101
0.5213	582.806	-15.2765	-27.0793	111.984	-142.21	-28.758	-16.5785	18.2933	89.7427	0
0.5220	707.359	-31.4089	-47.5363	132.154	-136.734	-47.983	-24.8066	37.7976	43.0888	0.322101
0.5227	530.047	-35.689	-52.1175	112.284	-141.916	-58.0571	-27.2554	50.0038	14.0761	0
0.5233	525.78	-22.8488	-35.3347	147.1	-107.432	-17.1561	-21.1578	46.6574	-71.0566	0
0.5240	481.555	-0.921855	-9.70683	237.415	-39.3721	11.2199	-14.448	31.7105	-76.5272	0.322101
0.5247	-34.5433	21.4002	15.6489	221.57	-17.7094	-10.7425	-6.51386	24.6991	99.8234	0.644202
0.5253	-669.615	36.3474	33.0214	174.25	-18.9114	-26.3071	3.25693	20.7154	309.797	0.322101
0.5260	-949.408	46.422	44.9508	297.839	-5.7963	-25.4	4.48134	0.892355	422.713	0
0.5267	-800.814	49.7802	51.3464	377.791	-14.6644	-22.3443	-4.67725	-20.7791	348.275	0
0.5273	-558.19	39.7056	41.5942	243.196	-48.534	-36.6835	-9.5504	-28.1092	198.417	0.322101
0.5280	-511.175	19.2273	17.1457	53.701	-48.2135	-58.6618	-0.710158	-24.7629	78.1868	0.322101
0.5287	-374.807	0.329234	-5.71524	-42.4383	-19.5258	-60.7944	17.2887	-19.5681	-107.077	0.322101
0.5293	-47.6714	-11.589	-17.0096	-90.0155	-18.9114	-69.0382	26.4473	-14.692	-215.382	0.322101
0.5300	456.53	-20.7417	-25.8547	-232.876	-25.0283	-74.2265	20.6436	1.17918	-154.96	0
0.5307	1146.82	-27.1289	-35.9244	-386.656	-12.8213	-38.5137	15.4765	22.8507	-77.4492	0
0.5313	1284.75	-21.071	-30.7534	-379.932	1.22871	7.55951	12.7094	32.6347	-24.9558	0
0.5320	712.528	-5.2019	-14.5603	-250.562	3.04506	16.4081	4.7752	37.5108	9.52748	0
0.5327	175.752	5.2019	-6.62242	-136.436	-18.0033	-11.9679	-11.0932	47.263	25.0788	0
0.5333	-146.214	7.04561	-8.48214	-86.975	-50.9647	-39.7392	-29.3858	41.7813	26.9228	0.644202
0.5340	-359.874	3.35819	-17.0096	-81.4936	-39.3721	-40.3439	-44.642	8.22241	16.2274	0
0.5347	-350.356	0.921855	-22.4981	-86.975	38.7577	-39.1344	-52.2823	-43.9804	16.8421	-1.93261
0.5353	-76.3071	7.63823	-18.8694	-68.3467	100.086	-51.6434	-52.2823	-87.6101	50.7108	-0.966304
0.5360	140.963	17.7128	-10.9315	-80.2517	111.999	-58.9642	-49.8335	-93.4105	97.7335	0.966304
0.5367	38.3997	28.1166	5.57916	-116.909	124.206	-48.8902	-41.8993	-82.7341	128.529	0.644202
0.5373	-181.332	40.2982	25.7186	-82.0931	132.433	-26.3071	-31.2225	-82.1285	173.093	0.322101
0.5380	-194.132	44.2491	31.7967	-1.24189	131.846	-19.9094	-25.4188	-78.7822	258.84	0.322101
0.5387	-25.3536	37.8619	24.8114	68.3467	127.572	-29.0604	-20.2273	-68.3926	336.351	0.322101
0.5393	95.7531	24.7584	10.1604	113.526	104.681	-33.6279	-16.8724	-50.0675	374.522	0.322101
0.5400	239.506	3.95081	-12.4284	129.071	70.811	-36.6835	-19.6395	-18.0383	373.907	0
0.5407	548.344	-17.0543	-32.8853	111.684	34.1634	-41.8717	-22.3822	19.1856	346.431	0
0.5413	599.052	-25.9436	-41.4128	84.2343	1.81635	-48.5878	-19.9334	49.3982	273.162	0
0.5420	194.378	-19.2273	-35.9244	83.592	-48.8278	-41.8717	-7.41993	57.3338	62.9428	-0.322101
0.5427	-71.7943	-6.38714	-23.4053	92.1567	-84.5405	-7.70275	11.1911	44.2034	-175.121	0.322101
0.5433	-37.9074	4.87266	-9.07181	83.592	-44.2602	25.575	21.2558	23.4562	-214.153	-0.644202
0.5440	-17.1486	16.4617	6.48634	75.3698	3.04506	42.6516	17.9009	7.29819	-129.943	-1.61051
0.5447	-134.317	26.8655	16.2385	79.6522	31.1184	62.4973	9.9667	0.286828	-92.1399	0.322101
0.5453	-275.034	31.1455	16.2385	80.5515	65.6023	79.2714	3.25693	-12.5567	-78.3712	0.644202
0.5460	-290.541	31.7382	17.4632	77.511	61.6491	77.4412	-3.77118	-36.3635	-45.4246	-0.644202
0.5467	-196.922	28.1166	15.0138	72.9289	18.9114	63.102	-13.5175	-50.9917	-21.9439	0
0.5473	-14.6871	17.1202	3.12977	72.3293	-17.0951	55.7813	-16.8724	-48.8564	-16.4119	0
0.5480	285.618	8.56008	-4.80806	77.511	-54.3303	57.6114	0.808111	-36.969	-10.6339	0
0.5487	318.849	6.71637	-4.49055	65.9058	-101.021	45.1024	37.1241	-25.0497	-15.1825	0
0.5493	-110.85	7.63823	0.362872	36.6143	-124.821	16.7105	74.9829	-19.2494	-42.0438	0
0.5500	-448.981	8.56008	6.16883	15.8448	-140.981	2.67368	92.0757	-6.15088	-63.4346	0.322101
0.5507	-657.718	11.9183	11.3851	38.4557	-148.006	28.6147	71.3097	13.9909	-58.2098	0
0.5513	-881.716	16.4617	16.556	85.1336	-87.9061	87.5153	33.7692	30.1807	-33.8072	0.322101
0.5520	-991.254	14.6838	15.6489	104.062	25.0283	132.681	8.74229	51.5335	-3.93393	0.322101
0.5527	-971.726	9.48194	11.0676	116.266	130.911	122.926	-4.67725	64.9826	10.7568	0.322101
0.5533	-460.222	7.96746	9.84291	167.826	183.104	79.2714	-3.77118	60.0746	4.61007	0
0.5540	514.211	10.9964	11.6573	218.487	184.921	23.4265	5.70575	54.593	-5.16328	0.322101
0.5547	997.243	13.1035	10.7501	220.928	163.872	-44.9274	6.93016	51.8522	-15.4898	0.322101
0.5553	534.888	10.9964	5.26165	209.965	111.385	-106.565	18.2192	42.7056	-25.5705	0.322101
0.5560	-43.0766	10.0746	2.81226	228.55	45.1684	-125.806	48.1193	29.5752	-26.7999	0
0.5567	-302.439	5.2019	-4.80806	247.179	-7.93318	-113.6	58.184	28.3641	-24.0338	0
0.5573	-672.651	-2.76557	-16.42	244.738	-38.7577	-101.075	43.2462	38.7218	-8.48253	0
0.5580	-807.871	-0.263387	-17.3272	210.265	-54.9446	-80.0194	24.929	29.5752	25.3861	0
0.5587	-120.861	2.43633	-20.6837	78.4103	-54.3303	-55.0014	8.13008	-0.956095	50.0961	0
0.5593	572.795	-4.54343	-32.5678	-148.941	-36.327	-32.7208	-2.54677	-26.5794	39.4007	0.322101
0.5600	396.058	-11.9183	-41.1407	-339.078	-41.1884	0.238721	-13.2236	-45.5101	34.8521	0.322101
0.5607	27.7331	-7.90162	-32.2956	-416.247	-59.5122	30.1426	-18.709	-54.0512	107.445	0
0.5613	-3.11792	9.48194	-5.12557	-423.27	-72.6274	46.6303	-2.84063	-59.246	185.263	0.322101
0.5620	194.05	27.7873	22.0445	-335.695	-90.043	72.5713	12.4155	-74.7985	164.856	0
0.5627	590.19	37.2693	37.013	-129.713	-83.018	75.9293	6.61182	-77.858	83.0427	0
0.5633	613.082	41.4835	43.7261	65.9058	-59.2184	38.3864	-8.9382	-58.9273	36.6962	0.322101
0.5640	173.619	43.3272	47.0827	131.512	-62.8778	29.8402	-19.0273	-39.3911	70.5648	-0.644202
0.5647	-212.183	34.1745	41.8664	61.9231	-78.4237	53.951	-19.9334	-20.7791	29.6274	-2.25471
0.5653	-403.771	8.23085	15.3314	-52.2022	-45.7827	62.1949	-12.2931	13.3853	-152.563	-0.322101
0.5660	-316.798	-20.1491	-20.0487	-108.044	-4.27377	72.8737	-5.90166	55.1985	-256.935	1.2884
0.5667	151.055	-35.0963	-39.5984	-100.721	-7.31883	111.929	-4.97111	80.2163	-194.975	0
0.5673	787.03	-38.4545	-43.5447	-77.511	-17.0951	137.87	2.64473	96.693	-93.0005	0.322101
0.5680	818.701	-29.8944	-33.475	-58.2831	-23.5057	111.324	17.2887	107.083	-48.8053	0.322101
0.5687	288.08	-6.71637	-8.16463	-94.8974	-32.0533	63.7227	34.3814	97.3304	-134.86	0
0.5693	-157.209	12.8401	11.6573	-198.06	-42.4172	24.0472	53.3108	86.3354	-294.122	0.322101
0.5700	-635.154	18.3054	17.4632	-213.305	-38.7577	9.08733	63.3755	65.8749	-309.981	0.322101
0.5707	-791.378	21.9928	26.0361	-130.013	3.36559	32.2751	61.8572	26.197	-203.827	0
0.5713	-442.581	29.8944	39.7345	-80.2517	49.736	50.2907	56.6657	-1.24292	-136.335	0.322101
0.5720	-557.288	30.2237	41.5942	-63.4648	75.6724	61.5742	40.7973	-7.04323	-124.472	0.322101
0.5727	-1105.39	18.3054	29.3927	-47.3202	101.021	112.231	8.13008	-1.24292	-122.628	0.322101
0.5733	-1101.45	0	11.3851	-34.4731	113.228	161.678	-12.9053	21.0341	-108.613	0.322101
0.5740	-596.344	-23.5073	-14.5603	-22.6109	114.751	148.867	-17.8029	66.7992	-88.1445	0.322101
0.5747	-138.009	-42.4053	-36.2419	-8.26498	126.958	107.966	-33.3529	95.482	-56.7346	0.322101
0.5753	-360.12	-41.8127	-36.5594	4.28238	140.981	90.8733	-48.9274	76.2645	-25.8779	0.322101
0.5760	-653.697	-29.8944	-22.8156	16.4871	157.168	66.4601	-48.6091	54.2743	-14.322	0.322101
0.5767	670.764	-21.3344	-13.9706	12.2048	182.196	-15.9307	-33.6713	47.5816	-17.3339	0.322101
0.5773	1859.68	-11.589	-7.84711	-18.9281	194.403	-92.5284	-6.19552	14.6283	-30.7953	0.322101
0.5780	1051.31	7.30899	4.35447	-27.7926	173.649	-87.0378	18.5131	-52.5215	-48.4979	0.322101
0.5787	290.787	22.9147	15.921	-18.6283	113.228	-54.699	27.0595	-103.194	-54.5832	0.644202
0.5793	396.961	26.8655	17.7807	-35.1155	14.3438	-55.3038	28.8961	-111.736	-45.4246	0.322101
0.5800	365.536	28.38	15.921	-43.6374	-71.1048	-70.2637	35.312	-110.493	-33.8072	0.322101
0.5807	245.331	26.8655	11.9748	-21.6688	-106.203	-69.3406	40.1851	-110.206	-26.1852	0.322101
0.5813	323.444	18.3054	3.44729	3.93979	-102.838	-39.1344	27.6717	-91.8807	-14.5678	0.322101
0.5820	266.336	9.15271	-5.12557	20.4269	-70.1966	2.3713	0.514252	-62.2736	3.68806	0.322101
0.5827	-93.7018	7.63823	-6.03275	29.891	-40.6008	54.5558	-18.709	-40.634	19.6082	0.322101
0.5833	-174.029	9.15271	-2.04116	35.0727	-47.9196	104.305	-26.031	-27.7905	28.7668	0
0.5840	134.563	8.23085	1.31541	37.2138	-70.811	104.003	-34.5773	-11.9193	34.5448	0
0.5847	219.075	1.51448	-3.58336	35.0727	-97.9761	87.5153	-37.9322	5.44974	37.6182	0.322101
0.5853	144.327	-7.90162	-15.1953	33.2741	-138.871	118.645	-18.4151	12.7798	39.7081	0.322101
0.5860	229.414	-7.30899	-16.6921	35.0727	-148.006	165.036	16.6765	12.7798	40.6301	0.322101
0.5867	287.095	1.25109	-6.62242	32.9315	-108.954	182.431	37.7363	5.16291	41.5521	0.322101
0.5873	208.983	8.88932	0.997899	36.0148	-74.4704	185.168	28.2839	-0.0318698	46.7154	0.322101
0.5880	239.834	9.74533	-0.861822	48.8191	-55.2385	175.11	3.25693	10.9632	54.7062	0.322101
0.5887	509.863	7.30899	-4.49055	58.5829	-53.7159	133.604	-13.8358	22.5638	58.6401	0.322101
0.5893	524.878	12.5109	0.362872	55.5424	-61.3553	45.4048	-11.9992	23.4562	58.0254	0
0.5900	181.25	14.3546	0.0907181	48.2195	-41.509	-67.208	6.93016	11.5687	54.952	0
0.5907	99.4454	10.9964	-3.90088	51.8596	-20.7545	-126.109	29.1899	-0.350568	45.2402	0.322101
0.5913	363.074	12.8401	-0.544308	28.9917	-22.8914	-88.2633	40.479	5.76844	39.4007	0.322101
0.5920	404.592	10.4038	-2.67618	-26.5507	-31.7327	-60.1896	31.6388	15.8393	44.3181	0.322101
0.5927	124.143	9.15271	-4.21839	-28.9917	-46.6909	-118.772	8.13008	18.8988	51.9401	0
0.5933	-37.0048	14.6838	1.90508	14.0462	-54.6241	-195.386	-15.6725	15.8393	57.7181	0.322101
0.5940	-7.05635	14.0254	0.680386	34.1734	-52.8078	-281.437	-27.5737	5.44974	62.9428	0
0.5947	30.1946	7.04561	-7.57496	32.9315	-51.8729	-354.072	-17.4846	2.70894	69.3355	-1.93261
0.5953	50.6252	3.95081	-9.97899	25.6086	-38.4639	-375.429	4.16299	6.37396	72.9621	-1.2884
0.5960	74.9943	9.74533	-2.9937	25.0091	-18.9114	-368.411	15.7704	4.84421	73.5767	1.2884
0.5967	22.2357	17.1202	7.07601	34.4731	3.65941	-293.039	2.03252	2.10341	73.5767	0.644202
0.5973	-90.0916	19.5565	12.5645	41.796	41.1884	-176.161	-24.8066	-1.56162	71.7942	0
0.5980	-107.158	20.7417	15.3314	46.3781	63.4655	-99.5469	-38.5444	3.02763	71.4868	0
0.5987	-67.7738	18.6346	13.7891	45.1791	55.5323	-62.0198	-37.0262	14.9151	70.5648	0
0.5993	-158.768	12.5109	6.80386	36.0148	43.0315	-80.9425	-21.77	15.5206	64.7254	0
0.6000	-306.131	8.88932	1.58757	29.5912	14.3438	-79.4147	-1.32236	15.2338	57.7181	0
0.6007	-238.111	9.74533	2.49475	29.2914	-10.9782	17.9359	0.514252	26.197	53.7842	0.322101
0.6013	75.6507	10.0746	2.49475	28.9917	8.84136	96.6822	-10.481	31.1049	49.1741	0.322101
0.6020	326.808	7.96746	-0.226795	28.3921	46.0766	125.361	-9.86875	30.1807	46.408	0
0.6027	295.71	8.88932	-0.226795	28.0496	66.5372	154.962	-8.32599	32.6347	47.0227	0
0.6033	111.917	11.3256	1.90508	24.7093	63.786	136.342	-2.84063	29.5752	41.2448	0
0.6040	-59.897	12.8401	3.44729	20.1272	57.0548	58.2162	22.4802	24.3804	29.6274	0.322101
0.6047	-227.116	14.6838	5.26165	17.3864	71.1048	12.143	34.9936	22.5638	25.6935	0.322101
0.6053	-365.946	16.7909	7.71104	18.6283	73.8561	32.2751	20.9619	15.8393	28.7668	0
0.6060	-373.248	20.4784	11.3851	25.0091	51.8729	50.8954	3.57528	5.76844	36.3888	0
0.6067	-308.921	22.5855	14.1067	30.8331	38.1434	47.8398	-22.6761	2.10341	47.9447	0.322101
0.6073	-273.147	20.7417	12.882	33.8736	39.9864	57.9138	-57.4738	1.17918	57.7181	0.322101
0.6080	-281.762	20.1491	12.882	39.0553	39.0516	64.0251	-73.636	1.49788	62.9428	0.322101
0.6087	-234.747	21.071	14.1067	44.5367	21.6627	70.4228	-69.0567	6.69266	62.9428	0
0.6093	9.43582	19.8199	13.1995	43.0379	-3.04506	98.1941	-62.347	13.3853	59.8694	0.322101
0.6100	189.455	15.6057	8.61822	36.3145	-18.6176	90.8733	-50.4457	17.3691	53.4768	0.322101
0.6107	146.132	10.9964	4.03695	33.2741	-38.1434	33.803	-30.9286	18.5801	47.3301	0
0.6113	132.43	9.48194	3.71944	32.9315	-72.9479	-19.2887	-10.7748	21.6396	45.8548	0.322101
0.6120	84.7583	7.96746	2.81226	25.0091	-104.36	-92.5284	18.8314	21.6396	41.8594	0.322101
0.6127	-97.0659	10.9964	4.35447	14.346	-118.704	-166.086	48.7315	19.7912	33.9301	0
0.6133	-185.599	14.6838	5.85132	11.2626	-75.6991	-176.161	52.6986	19.1856	28.7668	0.322101
0.6140	-140.142	10.6672	0.680386	9.16428	9.16189	-158.447	37.7363	16.4448	22.3127	0.322101
0.6147	-117.825	9.48194	-0.861822	0	40.8946	-101.075	24.0229	15.5206	11.9247	0
0.6153	-117.25	13.1035	2.22259	-3.68284	30.504	27.7076	3.86914	10.9632	9.52748	0
0.6160	-46.7689	14.6838	3.12977	4.88191	20.1401	123.228	-22.6761	-0.0318698	17.1495	0.322101
0.6167	64.6559	15.2765	1.90508	9.16428	3.65941	113.759	-40.6749	-0.350568	20.7761	0.322101
0.6173	90.9121	13.4327	-0.544308	2.44095	12.207	28.6147	-56.8616	3.91999	16.8421	0.322101
0.6180	33.8049	12.5109	0.0907181	0	76.6073	-70.8684	-67.2446	2.42211	14.3834	0
0.6187	-8.86147	14.3546	3.44729	2.74072	144.053	-116.035	-53.5067	5.44974	16.5348	0.322101
0.6193	-29.6203	11.589	0.362872	-0.942123	173.328	-114.204	-21.1578	9.43347	14.9981	0.322101
0.6200	-56.779	9.15271	-2.67618	-6.72333	197.448	-94.6769	15.4765	12.7798	12.5394	0
0.6207	-83.0352	11.3256	0.680386	-7.32286	196.219	-76.359	40.1851	18.5801	14.9981	0
0.6213	-79.425	11.9183	1.90508	-4.58214	150.437	-103.828	55.1474	22.2451	18.3788	0.322101
0.6220	-56.5329	11.3256	0.362872	-3.38308	99.7925	-163.636	83.8231	18.8988	18.6862	0
0.6227	-76.0609	12.2475	0.997899	-10.0636	29.9164	-152.352	116.784	12.1743	16.2274	0
0.6233	-44.6355	12.8401	2.49475	-21.9686	-68.9679	-68.7359	123.812	9.43347	14.0761	0.322101
0.6240	107.076	11.589	0.997899	-23.2105	-142.53	-37.3042	112.523	6.05527	13.1541	-0.966304
0.6247	194.05	11.3256	0.997899	-4.88191	-166.33	-46.4552	92.3695	2.42211	19.6082	-2.25471
0.6253	145.23	12.2475	2.49475	16.4871	-148.62	-30.2858	53.3108	5.16291	33.0081	0
0.6260	35.0356	10.0746	-0.226795	21.3691	-124.206	9.08733	8.44843	4.84421	38.1714	0.644202
0.6267	-83.3634	7.30899	-3.58336	19.5276	-132.14	64.3275	-21.1578	1.17918	37.864	-0.322101
0.6273	-151.383	7.04561	-3.90088	20.1272	-139.165	100.024	-28.4798	-0.0318698	39.7081	0.322101
0.6280	-125.455	7.04561	-4.21839	20.1272	-104.681	109.796	-16.2602	-4.0156	39.0934	0.322101
0.6287	-36.6766	9.74533	-2.04116	19.5276	-54.0098	145.509	-4.06504	-7.36193	35.7741	0
0.6293	14.0307	12.5109	0.680386	13.7464	-5.7963	204.712	4.7752	-8.89168	28.4595	0
0.6300	12.4717	13.1035	0.997899	3.04049	43.3253	218.128	18.5131	-17.7196	19.3008	0.322101
0.6307	17.0665	14.3546	2.22259	-1.54166	68.3536	203.789	15.7704	-28.4279	13.7687	-0.322101
0.6313	28.6357	14.6838	2.81226	-4.88191	51.8729	200.128	-0.0979528	-32.061	7.06877	0
0.6320	27.0767	12.5109	0.997899	-13.4467	69.2618	152.209	5.3874	-34.2282	0.0614676	0.322101
0.6327	19.7742	11.9183	0.362872	-17.0867	152.894	87.2129	31.3449	-34.8337	-1.47522	0.322101
0.6333	14.2768	12.2475	0.997899	-13.4467	193.174	69.5157	51.1803	-32.6984	-0.860546	0.322101
0.6340	11.5691	11.589	0.0907181	-6.72333	205.996	40.519	46.8949	-30.2445	-1.16788	0.322101
0.6347	11.8973	9.74533	-0.861822	-0.299766	281.668	-54.0784	30.4144	-29.3202	1.59816	0
0.6353	9.10762	9.48194	-0.226795	-4.58214	337.227	-119.695	29.8021	-26.8981	4.61007	0.322101
0.6360	2.05127	10.4038	0.680386	-15.8876	300.286	-91.6213	49.9559	-23.2331	5.53208	0.322101
0.6367	-3.11792	8.56008	-0.544308	-18.3286	210.269	-61.7175	72.5341	-23.2331	7.68345	0
0.6373	-4.92304	8.88932	-0.226795	-11.0057	94.6106	-55.3038	69.7914	-22.9144	15.3054	-0.322101
0.6380	-5.8256	10.6672	1.58757	-3.68284	-19.8463	-57.7388	42.634	-19.8549	27.2302	0
0.6387	-7.71276	7.63823	-0.544308	1.49883	-117.502	-47.983	4.7752	-20.4923	36.0815	0
0.6393	-7.38456	7.30899	-0.226795	12.5045	-187.699	-13.7981	-37.0262	-20.7791	43.7035	0
0.6400	-6.1538	9.74533	1.90508	21.9686	-221.568	-42.7948	-58.6982	-18.0383	47.0227	0.322101
0.6407	-7.71276	5.79452	-1.769	18.9281	-243.231	-119.695	-61.4409	-19.2494	39.7081	0
0.6413	-8.86147	5.79452	-1.769	16.7869	-253.915	-158.447	-62.9592	-18.357	31.7788	0
0.6420	-9.18967	8.88932	0.997899	20.4269	-269.782	-150.824	-58.086	-14.9788	26.3081	0
0.6427	-10.4204	6.71637	-1.45149	25.0091	-296.947	-100.47	-53.5067	-16.2217	21.3907	0.322101
0.6433	-10.9948	7.63823	-0.861822	32.9315	-285.354	-36.0788	-54.4128	-15.903	21.3907	0.322101
0.6440	-11.6512	7.96746	-0.226795	35.715	-232.546	2.06892	-52.5762	-16.2217	21.3907	0
0.6447	-12.5537	6.12375	-2.04116	31.4326	-172.42	61.5742	-53.1884	-17.4328	19.9155	0.322101
0.6453	-11.6512	7.63823	0.362872	30.1907	-103.158	134.814	-56.8616	-14.9788	23.5421	0.322101
0.6460	-11.6512	7.30899	0.997899	28.9917	-38.7577	125.058	-54.1189	-14.0865	25.0788	-1.2884
0.6467	-11.323	6.38714	-0.226795	26.251	-9.77625	69.8181	-44.642	-14.3733	21.3907	-0.322101
0.6473	-10.7486	7.63823	0.362872	24.7093	-10.3906	25.2567	-36.1201	-12.5567	17.1495	0.966304
0.6480	-11.9794	5.79452	-0.861822	20.4269	-18.3238	-28.4556	-32.153	-13.7678	12.2321	0.322101
0.6487	-13.4563	4.28004	-2.9937	15.2453	-21.9832	-62.927	-27.2554	-15.2975	8.60546	0
0.6493	-13.1281	5.53113	-2.35867	12.8043	-19.8463	-54.0784	-21.4517	-13.4491	6.76144	0.322101
0.6500	-12.5537	7.30899	-0.226795	11.6052	-11.9131	-26.9278	-20.5456	-11.6325	5.53208	0.322101
0.6507	-12.882	7.30899	0.0907181	9.46405	-1.52253	-8.00513	-23.2883	-11.3138	3.99539	0
0.6513	-13.4563	5.79452	-1.13398	6.08097	10.0701	10.0104	-22.0639	-12.238	0.368806	0
0.6520	-13.1281	6.12375	-1.13398	4.58214	17.0951	28.6147	-19.9334	-11.9193	-1.78256	0.322101
0.6527	-12.5537	7.63823	-0.226795	5.48144	9.16189	20.0685	-22.9944	-11.027	-1.47522	0
0.6533	-11.9794	6.71637	-0.861822	7.62263	-2.75124	5.12455	-28.4798	-10.7083	0.983482	0.322101
0.6540	-11.9794	5.79452	-1.13398	10.3633	-4.88812	20.9916	-32.7407	-11.027	3.07338	0.322101
0.6547	-13.4563	4.87266	-2.35867	9.76382	-1.22871	46.0096	-34.2835	-12.5567	1.9055	-1.61051
0.6553	-12.5537	4.28004	-2.35867	7.32286	7.31883	59.1393	-29.092	-13.1622	0.676144	-0.966304
0.6560	-10.7486	6.71637	-0.226795	7.92239	13.1151	52.4232	-20.2273	-10.7083	1.29082	0.644202
0.6567	-10.7486	5.79452	-1.13398	6.72333	8.22701	31.9728	-14.1297	-10.7083	-0.860546	0.322101
0.6573	-10.4204	3.95081	-2.35867	4.28238	3.04506	25.2567	-10.1626	-11.3138	-3.01191	0
0.6580	-10.4204	6.12375	0.997899	4.88191	2.75124	33.803	-9.86875	-9.17851	-2.70457	0.322101
0.6587	-10.0922	7.30899	3.71944	5.18167	1.22871	38.6888	-11.0932	-7.96746	-3.01191	0.322101
0.6593	-9.84608	6.71637	4.35447	4.28238	0.614354	29.5378	-11.9992	-8.89168	-4.85594	0.322101
0.6600	-10.0922	6.12375	2.81226	4.28238	1.22871	16.1057	-14.7419	-9.78404	-6.02383	0.322101
0.6607	-10.4204	3.95081	-2.04116	3.64002	0.614354	44.1794	-17.1907	-11.6325	-7.56052	0
0.6613	-9.84608	4.28004	-3.90088	4.58214	0.293822	104.608	-17.4846	-11.3138	-9.09721	0
0.6620	-8.86147	5.79452	-0.226795	6.08097	0	132.379	-17.8029	-9.49721	-9.09721	0
0.6627	-9.18967	4.28004	1.90508	5.48144	-2.75124	111.929	-16.5785	-9.17851	-9.71188	0
0.6633	-9.51787	1.84371	0.680386	3.34025	-7.63936	73.4785	-12.6114	-10.1027	-11.5559	0.322101
0.6640	-9.18967	0	-1.13398	1.49883	-12.8213	53.3463	-11.0932	-10.7083	-13.0926	0
0.6647	-8.86147	-1.18524	-1.45149	0.299766	-14.9582	45.4048	-4.67725	-10.1027	-14.322	0
0.6653	-7.71276	0.592621	0.997899	-1.54166	-7.31883	26.7845	15.7704	-7.04323	-16.1045	0.322101
0.6660	-8.28711	0.921855	1.31541	-4.88191	2.13688	1.76654	30.7327	-6.4377	-17.9485	0
0.6667	-8.86147	0.592621	0.362872	-7.0231	5.18194	-24.1745	33.7692	-7.04323	-17.3339	0
0.6673	-8.28711	1.25109	1.31541	-8.86452	9.74953	-41.267	34.3814	-6.4377	-15.7972	0
0.6680	-8.61532	-0.592621	0.362872	-10.3633	17.3889	-47.3623	32.5448	-9.17851	-16.4119	0.322101
0.6687	-9.51787	0.592621	1.31541	-6.1238	24.4139	-47.3623	28.8961	-10.7083	-14.322	0
0.6693	-10.4204	3.02895	4.94414	1.19907	23.5057	-36.9859	17.2887	-9.49721	-8.17519	0
0.6700	-11.6512	-3.62157	5.26165	3.34025	19.5258	-16.2331	1.42032	-17.1141	-3.93393	0
0.6707	-9.51787	-6.71637	4.94414	5.48144	25.0283	-3.42167	0.514252	-18.9625	-2.70457	0.322101
0.6713	-6.72815	-2.43633	3.44729	9.76382	27.459	-14.7212	6.93016	-8.57298	-3.62659	0.322101
0.6720	-7.05635	-3.35819	-0.226795	11.905	15.5725	-32.7208	4.7752	-6.4377	-4.24126	-0.322101
0.6727	-8.28711	-2.43633	3.12977	14.0462	4.88812	-37.3042	2.64473	-7.04323	-0.860546	-0.322101
0.6733	-8.28711	0	7.07601	13.4038	-0.614354	-40.0415	0.514252	-5.51348	1.9055	0
0.6740	-7.95891	-4.28004	2.22259	8.82169	-5.18194	-56.2109	-6.19552	-9.49721	0.0614676	0
0.6747	-7.05635	-4.28004	1.31541	7.92239	-4.56759	-71.7756	-6.51386	-8.28615	-0.553208	0
0.6753	-6.72815	-2.43633	3.44729	9.16428	-5.50248	-75.1336	-2.84063	-5.22665	-0.860546	0
0.6760	-7.71276	-2.1071	1.58757	7.92239	-10.0701	-75.1336	-3.15898	-6.4377	-4.5486	0
0.6767	-7.38456	0.921855	2.22259	9.76382	-11.5926	-71.4732	-0.391811	-4.62112	-5.77796	0
0.6773	-7.05635	1.84371	2.22259	10.3633	-12.5275	-65.0755	2.35087	-3.6969	-6.02383	0
0.6780	-7.71276	0.921855	0.0907181	7.32286	-10.3906	-57.7388	-0.391811	-6.4377	-7.25318	0
0.6787	-7.38456	-0.263387	4.03695	7.0231	-6.11683	-48.8902	-1.32236	-8.57298	-6.94584	0.322101
0.6793	-6.1538	-5.79452	9.5254	7.62263	-4.88812	-44.9274	-0.0979528	-11.027	-6.6385	0
0.6800	-4.92304	-10.6672	8.61822	7.92239	-5.50248	-31.4953	-2.22843	-10.1027	-6.94584	0
0.6807	-3.36408	-12.1817	6.16883	10.3633	-3.97995	10.3128	-4.97111	-4.90795	-6.02383	0.322101
0.6813	-3.36408	-12.5109	5.57916	11.2626	-2.45742	43.5746	-6.19552	-3.6969	-5.16328	0.322101
0.6820	-4.02048	-12.5109	4.67198	9.46405	0	41.442	-4.06504	-4.30243	-6.33116	0.322101
0.6827	-4.34868	-11.2598	1.90508	8.82169	4.88812	26.4822	1.73866	-4.0156	-6.94584	0
0.6833	-3.36408	-7.30899	-0.226795	7.62263	8.84136	19.7661	8.44843	-2.48585	-6.02383	0
0.6840	-5.25124	-6.12375	0.997899	5.18167	8.54754	14.5779	8.44843	-7.04323	-6.33116	0
0.6847	-10.9948	-8.23085	3.12977	2.74072	5.50248	-1.59148	2.03252	-19.8549	-7.86785	-1.61051
0.6853	-11.9794	-3.35819	4.94414	5.78121	4.27377	-24.1745	-1.00402	-20.7791	-6.33116	-0.966304
0.6860	-7.71276	0	3.71944	10.0636	3.65941	-39.1344	-3.15898	-9.49721	-3.31925	0.644202
0.6867	-6.482	-3.95081	-1.45149	9.46405	4.56759	-40.6622	-4.67725	-6.4377	-3.31925	0
0.6873	-6.482	-3.35819	-0.861822	7.62263	7.93318	-37.909	1.73866	-7.96746	-3.93393	0
0.6880	-6.1538	-1.18524	12.2923	6.72333	7.93318	-37.6066	7.83623	-6.7564	-4.24126	0
0.6887	-6.1538	-5.46528	17.4632	5.18167	5.7963	-26.0047	6.31796	-7.04323	-4.85594	0
0.6893	-5.57944	-11.9183	6.48634	4.88191	5.7963	-2.19624	5.3874	-10.1027	-5.16328	0.322101
0.6900	-5.25124	-10.3379	1.90508	5.18167	5.7963	14.2755	5.3874	-11.027	-4.85594	0
0.6907	-4.92304	-6.38714	4.35447	3.64002	6.41065	21.5963	3.57528	-9.17851	-5.16328	0
0.6913	-5.57944	-7.63823	5.26165	2.14119	8.22701	25.575	6.93016	-9.78404	-5.47062	0.322101
0.6920	-6.1538	-2.43633	5.85132	1.49883	7.93318	17.6336	13.0277	-10.7083	-5.77796	0
0.6927	-6.1538	3.02895	4.67198	1.19907	6.70447	4.2015	14.546	-9.78404	-6.02383	-0.322101
0.6933	-5.8256	-1.84371	0.680386	1.49883	6.41065	-1.59148	14.546	-6.4377	-6.02383	0
0.6940	-5.8256	-7.90162	-4.21839	0.599533	6.09012	-3.11929	13.9338	-6.4377	-6.33116	0
0.6947	-8.61532	-3.62157	-5.12557	0	6.70447	-2.81691	10.5789	-7.04323	-6.02383	0
0.6953	-12.2255	5.53113	-0.226795	1.49883	8.54754	-1.89386	4.7752	-3.09137	-4.5486	0
0.6960	-15.0153	4.87266	17.1457	0.299766	7.31883	-3.11929	-1.32236	-4.90795	-5.16328	0.322101
0.6967	-18.6255	1.51448	47.0827	-1.54166	5.7963	-5.25187	-2.22843	-7.64876	-6.02383	0.322101
0.6973	-18.0511	-3.95081	69.6715	-0.942123	5.7963	-5.87255	0.514252	-7.36193	-6.02383	0
0.6980	-13.4563	-8.56008	47.0827	-0.942123	5.7963	-6.17493	2.35087	-5.22665	-6.02383	0
0.6987	-10.0922	-4.28004	-7.57496	-0.599533	7.31883	-6.17493	5.3874	-0.350568	-5.16328	0.322101
0.6993	-7.05635	-14.9472	-22.2259	-0.299766	7.93318	-5.55425	7.83623	-0.637397	-4.5486	0
0.7000	1.47691	-22.5855	0.997899	-1.84142	6.70447	-6.77969	7.22402	1.49788	-4.5486	-0.322101
0.7007	5.16919	7.30899	13.1995	-3.38308	5.7963	-8.91227	7.54237	7.58502	-4.5486	0
0.7013	-5.8256	28.38	4.94414	-3.98261	5.50248	-9.83532	7.54237	2.42211	-4.85594	0
0.7020	-13.7845	5.53113	0.362872	-2.74072	6.70447	-8.60989	7.54237	-0.0318698	-4.24126	0
0.7027	-9.84608	-32.66	1.31541	-0.942123	8.22701	-8.30751	9.06064	21.3209	-2.70457	0
0.7033	-12.5537	-56.1673	-9.97899	-2.14119	6.41065	-11.0448	9.06064	69.2531	-2.39724	0.322101
0.7040	-21.7434	-74.7361	31.5245	-4.28238	5.50248	-13.1933	7.54237	118.683	-3.01191	0.322101
0.7047	-18.9537	-68.349	81.8731	-3.98261	6.09012	-11.9679	5.70575	133.025	-2.70457	0
0.7053	-7.05635	0.921855	26.6258	-3.98261	6.09012	-9.83532	5.09355	87.8651	-2.39724	0.322101
0.7060	7.30251	62.8837	-20.6837	-3.68284	7.31883	-9.21465	6.93016	-18.357	-1.47522	0.322101
0.7067	17.3127	47.0146	4.94414	-3.38308	7.02501	-9.53294	6.61182	-92.4862	-1.47522	-0.322101
0.7073	16.7383	1.51448	-9.07181	-4.28238	4.27377	-8.91227	2.96307	-44.2991	-2.0899	0
0.7080	11.2409	-28.7092	-43.8622	-3.68284	3.95324	-8.00513	1.12646	19.1856	-1.47522	0
0.7087	4.84099	-38.7179	-38.0562	-3.68284	3.36559	-9.21465	-0.391811	-9.49721	-0.860546	0
0.7093	-1.88716	-14.3546	-17.6447	-2.74072	3.65941	-8.91227	-1.32236	-37.2558	0.368806	0
0.7100	-7.95891	2.76557	-0.544308	-0.299766	4.56759	-7.08207	-0.710158	-43.9804	2.21283	0.322101
0.7107	-12.5537	-18.3054	-4.21839	-0.599533	3.65941	-7.38445	-1.61622	-82.4154	1.59816	0
0.7113	-12.882	-27.1289	-17.3272	-2.14119	3.04506	-7.38445	-1.93457	-81.523	0.983482	-0.322101
0.7120	-6.1538	-10.9964	-5.39773	-2.74072	3.04506	-7.08207	-0.710158	-39.3911	1.59816	0
0.7127	2.37947	-5.79452	8.02855	-3.38308	2.43071	-7.38445	-1.32236	-25.3684	1.59816	0.322101
0.7133	7.54866	-9.48194	-11.8387	-1.24189	3.95324	-5.25187	-0.0979528	-70.5279	2.52017	0.322101
0.7140	7.54866	-13.6961	-30.7534	-0.599533	4.56759	-4.02644	0.808111	-122.412	2.82751	0.322101
0.7147	1.14871	-15.8691	-11.8387	-3.38308	2.13688	-7.08207	-1.93457	-82.1285	0.0614676	-1.2884
0.7153	-0.984608	-4.54343	10.1604	-2.44095	2.13688	-6.77969	-1.93457	-21.9902	0.676144	-1.93261
0.7160	1.47691	8.88932	0.680386	-1.54166	2.13688	-4.64711	-0.391811	-46.1156	2.52017	0.644202
0.7167	2.70767	3.02895	-1.45149	-2.74072	1.22871	-4.64711	-1.00402	-81.2043	1.59816	0.644202
0.7173	6.9743	-17.9762	18.6879	-0.299766	2.75124	-3.11929	0.514252	-31.1687	2.52017	-0.322101
0.7180	6.07175	-28.0507	19.2776	0	2.13688	-3.72405	0.514252	58.8636	2.52017	0.322101
0.7187	-0.984608	-1.84371	9.5254	-1.54166	0.908176	-4.02644	-1.00402	80.2163	1.29082	0.322101
0.7193	-4.34868	33.9111	12.5645	-1.54166	1.22871	-2.19624	-0.391811	60.3933	1.29082	0
0.7200	-7.95891	26.8655	6.16883	-2.14119	0.293822	-3.11929	-1.00402	87.2596	0.0614676	0
0.7207	-10.9948	4.87266	-19.1415	-1.24189	0.908176	-2.19624	-0.710158	144.625	0.0614676	0.322101
0.7213	-8.86147	0.921855	-39.5984	0	1.52253	-0.684335	0.514252	162.919	0.983482	0.644202
0.7220	-0.0820506	-10.0746	-25.5825	-2.14119	-0.320533	-2.19624	-1.32236	157.118	-0.860546	0.322101
0.7227	9.43582	-17.7128	3.12977	-1.54166	0.293822	-1.2891	-1.61622	171.492	-1.47522	0
0.7233	11.5691	1.25109	-0.861822	-1.24189	0.614354	-0.986715	-0.710158	118.078	-0.860546	0
0.7240	6.6461	18.042	-10.9315	-2.74072	-0.908176	-1.89386	-1.61622	-31.7742	-1.78256	0
0.7247	-1.55896	21.4002	4.35447	-0.942123	0.293822	-0.986715	0.195906	-138.283	-1.78256	0
0.7253	-14.1127	16.1983	5.26165	-0.942123	0.614354	-3.72405	3.25693	-149.884	-2.0899	0
0.7260	-23.2203	-6.12375	-28.304	-3.68284	-1.22871	-7.08207	3.57528	-99.2108	-3.62659	0.322101
0.7267	-24.1229	-21.6636	-35.3347	-3.98261	-1.22871	-4.64711	2.64473	-24.7629	-3.93393	0.322101
0.7273	-22.9742	-19.8199	18.3704	-4.28238	-0.320533	-2.81691	1.12646	4.55738	-3.62659	0.322101
0.7280	-17.1486	-14.0254	58.6492	-3.38308	0.614354	-1.59148	0.808111	2.70894	-2.39724	0.322101
0.7287	-11.9794	16.1983	48.3074	-0.942123	2.13688	0.843482	2.35087	38.435	-0.24587	0.322101
0.7293	-8.28711	49.7802	22.6342	-2.44095	0.614354	-0.0636591	0.808111	51.5335	-0.553208	0
0.7300	4.84099	29.6311	-15.1953	-3.68284	-0.614354	-0.986715	-1.00402	42.0682	-1.47522	0
0.7307	8.77942	-4.28004	-43.8622	-3.04049	-0.908176	-0.36604	-0.0979528	127.83	-1.16788	0.322101
0.7313	-4.34868	-11.9183	-31.6606	-3.38308	-1.52253	-0.684335	0.808111	91.817	-1.47522	0.322101
0.7320	-8.28711	-24.0999	4.94414	-2.14119	0	1.46416	2.35087	-162.695	0.0614676	0.322101
0.7327	-0.328203	-26.207	20.2301	-1.24189	1.22871	2.3713	3.57528	-249.987	0.983482	0.322101
0.7333	7.30251	-5.2019	10.4326	-2.44095	-0.320533	0.541102	2.03252	-141.024	-0.24587	0
0.7340	12.7999	3.02895	39.7345	-3.38308	-0.320533	0.541102	0.808111	-92.8049	-0.24587	0
0.7347	10.6666	-7.63823	81.238	-4.28238	-0.320533	0.843482	0.808111	-27.5037	-0.553208	0
0.7353	-2.46152	-7.90162	59.2843	-3.68284	-0.908176	0.843482	1.12646	92.1357	-0.553208	0
0.7360	-4.92304	-5.79452	4.03695	0.899299	0.908176	2.67368	2.96307	72.5995	0.983482	0
0.7367	12.1435	-27.7873	-51.2104	2.14119	0.614354	2.67368	2.96307	-44.2991	1.29082	0
0.7373	23.7947	-48.1999	-89.3573	0.299766	-0.908176	1.46416	1.12646	-61.0626	0.676144	0.322101
0.7380	23.4665	-42.0761	-67.086	0	-0.320533	1.16178	1.12646	-3.3782	0.368806	0
0.7387	22.8101	-30.8163	-22.8156	0.299766	0.293822	1.76654	1.42032	16.1261	0.676144	0
0.7393	24.0408	-15.5398	-13.0634	1.84142	2.13688	4.2015	3.25693	-0.0318698	1.9055	0.322101
0.7400	20.6768	-5.46528	-11.2037	1.19907	2.13688	4.50388	3.86914	-7.04323	1.9055	0.322101
0.7407	16.4101	-11.589	-7.25745	-0.599533	-0.614354	1.76654	1.12646	7.29819	0.676144	0.322101
0.7413	14.2768	3.95081	-10.2965	-0.599533	0	2.06892	0.514252	20.7154	0.676144	0.322101
0.7420	-0.0820506	23.1781	11.0676	-11.6052	0.614354	2.99198	1.12646	7.58502	0.368806	0
0.7427	-15.5896	11.9183	36.378	-21.9686	0.614354	3.59674	1.73866	-10.1027	0.0614676	0
0.7433	-14.6871	2.17294	13.517	-15.2453	2.43071	5.42693	4.16299	-17.4328	2.21283	0.322101
0.7440	-15.3435	-1.18524	-14.2881	-9.16428	1.22871	3.59674	2.64473	-29.9258	1.9055	0
0.7447	-16.246	-7.63823	-14.8778	-7.92239	-1.52253	0.843482	-0.710158	-23.5199	-0.553208	-1.61051
0.7453	-0.656405	-7.63823	-17.6447	-3.68284	0.614354	2.67368	0.195906	17.3691	0.676144	-0.966304
0.7460	15.1794	-5.46528	-22.8156	-3.68284	1.22871	3.89912	0.808111	39.9329	1.59816	0.644202
0.7467	15.1794	-6.97976	-14.2881	-4.88191	1.22871	4.2015	1.12646	19.1856	1.59816	0
0.7473	1.47691	-9.74533	0.362872	-4.28238	1.81635	4.50388	2.64473	-7.64876	2.52017	0.322101
0.7480	-10.4204	-9.74533	-3.58336	-6.42356	-0.614354	2.06892	0.514252	-13.4491	0.983482	-0.322101
0.7487	-4.34868	-6.12375	-21.2734	-7.32286	-0.908176	1.46416	-1.00402	5.44974	0.0614676	-1.61051
0.7493	4.84099	-0.592621	-29.2112	-5.18167	1.52253	3.59674	-0.0979528	11.8556	1.9055	0.322101
0.7500	-1.55896	13.762	-25.8547	-4.88191	0.908176	4.2015	0.808111	-22.9144	2.21283	0.644202
0.7507	-10.0922	28.1166	-21.0012	-3.98261	1.22871	4.82217	2.03252	-42.7693	1.9055	0
0.7513	-11.9794	10.9964	-3.58336	-4.58214	0.908176	4.50388	1.73866	-21.3847	1.9055	0.322101
0.7520	-14.1127	-22.8488	8.61822	-6.42356	-0.320533	3.59674	-0.0979528	2.10341	1.29082	0
0.7527	-20.5127	-36.9401	-10.9315	-6.1238	0.293822	3.89912	0.195906	16.1261	1.29082	0
0.7533	-29.3741	-31.1455	11.0676	-5.48144	0.908176	3.89912	0.514252	31.1049	1.59816	0.322101
0.7540	-33.6408	-14.0254	57.1524	-4.88191	0.908176	3.89912	1.42032	41.4626	2.21283	0
0.7547	-26.5844	12.8401	18.6879	-4.58214	1.22871	3.59674	2.96307	31.3918	2.21283	0.322101
0.7553	-17.4768	27.1947	-37.7841	-5.18167	0.614354	3.89912	2.03252	17.3691	1.9055	0.322101
0.7560	-15.3435	10.4038	-13.0634	-5.82403	0	4.50388	0.514252	31.1049	1.59816	0.322101
0.7567	-20.1845	2.76557	29.3927	-6.42356	-0.614354	3.89912	-0.391811	27.1212	0.983482	0
0.7573	-25.3536	4.87266	8.61822	-5.82403	-0.908176	4.2015	0.195906	-27.7905	1.29082	0
0.7580	-25.1075	-24.4292	-33.475	-4.58214	0	5.42693	1.42032	-67.4684	3.07338	0.322101
0.7587	-11.6512	-35.3597	-30.1184	-4.88191	0	4.82217	0.808111	-35.7261	3.07338	0
0.7593	13.3743	10.6672	14.7417	-6.42356	-1.52253	3.59674	0.195906	16.7635	2.21283	0
0.7600	23.4665	44.5783	33.9286	-7.0231	-2.75124	3.59674	0.195906	4.84421	1.9055	0
0.7607	14.605	36.0182	1.90508	-6.42356	-2.75124	4.2015	-0.0979528	-33.5908	2.21283	0
0.7613	8.53327	16.4617	-9.07181	-5.18167	-0.908176	4.82217	1.12646	-9.17851	3.07338	-0.322101
0.7620	3.28203	-12.1817	25.4011	-5.48144	-0.320533	4.2015	1.42032	46.0519	2.82751	0
0.7627	0.574354	-25.9436	48.3074	-6.1238	-1.52253	3.89912	0.808111	57.6525	1.9055	0.322101
0.7633	8.77942	-19.2273	31.5245	-6.1238	-2.13688	3.59674	0.808111	37.7976	1.9055	0.322101
0.7640	23.4665	-25.6144	11.6573	-6.42356	-2.45742	2.99198	-0.391811	11.25	1.9055	0.322101
0.7647	22.2357	-30.8163	10.7501	-5.82403	-1.22871	4.50388	0.195906	-16.5086	2.21283	0
0.7653	6.9743	-19.2273	0.997899	-3.04049	0.614354	5.72932	2.03252	-13.1622	3.38072	0
0.7660	8.77942	-0.921855	-19.1415	-1.24189	-0.320533	5.12455	1.42032	18.5801	3.07338	0
0.7667	17.6409	19.8199	-33.2028	-0.942123	-2.13688	3.59674	-0.391811	37.1921	2.21283	0
0.7673	12.4717	27.1947	-34.11	-1.54166	-3.04506	2.67368	-0.710158	53.0633	1.9055	0
0.7680	4.84099	15.6057	-24.0403	-2.44095	-2.45742	3.89912	0.514252	89.3949	2.52017	0.322101
0.7687	4.26663	5.2019	-25.8547	-2.14119	-0.908176	5.12455	1.73866	113.488	3.99539	0
0.7693	5.41534	0.592621	-34.6997	-2.74072	-1.22871	4.2015	1.12646	84.8056	3.99539	0
0.7700	3.93843	0	-28.304	-4.58214	-2.13688	2.67368	-0.0979528	14.6283	2.52017	0
0.7707	0.246152	9.74533	-27.0793	-4.88191	-2.45742	2.3713	-1.00402	-73.5874	1.9055	0
0.7713	-1.88716	-0.592621	-36.8315	-3.04049	-1.84306	2.99198	-1.61622	-136.753	1.9055	0
0.7720	-1.23076	-17.7128	-32.2956	0.899299	0.293822	4.50388	-0.0979528	-117.536	3.07338	0
0.7727	-2.78972	16.4617	-21.9084	1.49883	1.81635	4.82217	1.42032	-56.792	3.99539	0
0.7733	-8.86147	50.6362	-6.03275	-1.54166	-0.320533	3.59674	-0.391811	-37.5745	3.07338	0.322101
0.7740	-10.7486	56.4966	19.0054	-3.04049	-1.84306	2.3713	-1.93457	-3.6969	2.21283	0
0.7747	-8.28711	85.7325	25.4011	-3.38308	-1.84306	1.16178	-2.54677	54.2743	1.9055	-1.61051
0.7753	-5.57944	137.356	8.02855	-0.942123	0.293822	2.3713	-1.61622	58.8636	3.38072	-1.61051
0.7760	-1.23076	168.173	-10.614	2.14119	2.75124	4.82217	2.03252	77.4755	5.83942	0.644202
0.7767	2.05127	79.082	-19.7765	0	-0.614354	1.76654	-0.0979528	112.883	3.68806	-0.966304
0.7773	2.70767	-17.0543	-30.1184	-1.54166	-1.84306	0.541102	-2.84063	101.888	2.21283	-1.93261
0.7780	1.80511	53.731	-34.6997	-7.0231	1.22871	3.29436	-0.391811	60.0746	4.30273	0.644202
0.7787	4.51278	129.718	-22.8156	-19.8274	1.22871	3.29436	-0.0979528	-11.9193	3.99539	0.644202
0.7793	11.8973	105.882	-11.5212	-19.8274	1.52253	3.59674	-0.391811	-80.5988	3.99539	0
0.7800	17.3127	-7.30899	0.997899	-4.28238	1.81635	3.89912	0.514252	-86.7178	5.22475	0.644202
0.7807	20.1024	-136.698	-0.226795	9.76382	-0.614354	1.76654	-1.00402	-50.0675	4.91741	0.322101
0.7813	23.7947	-147.102	-22.2259	13.1041	-1.52253	0.843482	-2.84063	-7.36193	4.30273	0
0.7820	20.1024	-129.06	-26.1722	10.3633	-0.320533	1.46416	-2.54677	42.3869	4.30273	0
0.7827	6.9743	-148.616	9.5254	9.76382	0.908176	2.06892	-1.32236	81.7461	4.61007	0
0.7833	-1.23076	-133.34	59.2843	11.6052	3.04506	3.59674	-0.0979528	86.3354	5.83942	0.322101
0.7840	1.80511	-113.849	65.9974	10.9629	3.95324	4.50388	0.195906	71.9939	6.4541	0.322101
0.7847	8.53327	-70.1927	22.6342	7.92239	3.65941	4.50388	-0.710158	55.8041	6.14676	0
0.7853	8.77942	79.938	-20.6837	7.62263	3.65941	4.2015	-1.00402	-10.4214	6.4541	0
0.7860	3.93843	239.551	-48.1259	0.899299	2.75124	3.89912	-1.32236	-50.9917	5.53208	0.322101
0.7867	1.80511	302.764	-58.5132	-19.5276	2.75124	4.2015	-1.93457	-1.56162	3.99539	0
0.7873	-0.0820506	312.838	-9.38932	-28.9917	3.65941	4.50388	-1.93457	-14.3733	4.30273	0
0.7880	-1.55896	310.402	60.509	-18.3286	3.36559	3.59674	-1.93457	-48.5696	4.91741	0
0.7887	-0.984608	249.625	75.7496	-7.92239	1.81635	2.3713	-2.22843	-14.3733	5.22475	0.322101
0.7893	-6.72815	-11.589	81.5556	-7.0231	-0.908176	0.238721	-2.84063	-34.8337	4.30273	0.322101
0.7900	-14.6871	-292.952	89.8109	-9.46405	-3.65941	-2.19624	-3.15898	-44.2991	2.82751	0.644202
0.7907	-11.323	-253.905	46.7652	-9.76382	-3.97995	-2.19624	-2.84063	23.4562	2.21283	0.322101
0.7913	3.61023	-129.982	-5.71524	-7.32286	-2.45742	-0.986715	-1.32236	6.69266	3.38072	0
0.7920	27.0767	-144.665	-20.0487	-5.48144	-1.52253	-0.0636591	-0.710158	-44.5859	3.99539	0.322101
0.7927	49.0663	-158.362	-27.9865	-4.88191	-1.52253	-0.0636591	-1.32236	10.6445	3.68806	0.322101
0.7933	55.4662	-166	-34.11	-5.82403	-2.13688	-0.684335	-1.93457	47.8685	3.99539	0.322101
0.7940	49.0663	-166.922	12.882	-5.18167	-1.52253	-0.36604	-1.93457	-2.16715	4.30273	0.322101
0.7947	39.3023	-129.982	79.1062	-3.38308	0	0.843482	-1.00402	-19.5681	4.61007	0.322101
0.7953	36.2664	-105.882	88.5862	-2.44095	-0.320533	0.843482	-1.32236	-6.4377	5.22475	0
0.7960	46.6868	-97.98	88.2687	-2.74072	-0.614354	0.541102	-1.32236	-15.5843	5.53208	0
0.7967	73.5174	-109.569	74.2528	-3.38308	-1.22871	-0.0636591	-1.93457	-28.7147	5.53208	0.322101
0.7973	97.8864	-115.956	-8.7543	-3.98261	-1.22871	-0.684335	-2.84063	-29.0334	4.61007	0
0.7980	88.7788	-87.9055	-52.4351	-2.14119	0.614354	0.843482	-1.61622	-17.1141	4.91741	-0.322101
0.7987	55.2201	-75.0654	-32.5678	-2.14119	1.52253	1.46416	-1.00402	17.9746	5.22475	0
0.7993	21.005	-81.7817	-53.3422	-3.38308	1.81635	1.76654	-1.00402	80.8537	4.91741	0
0.8000	-18.6255	-57.6818	-92.3964	-3.04049	2.43071	2.06892	-0.710158	156.513	4.61007	0
0.8007	-47.6714	25.0218	-110.404	-4.58214	0.908176	0.541102	-1.93457	171.778	3.07338	0
0.8013	-29.6203	110.491	-134.807	-4.58214	1.22871	1.16178	-1.32236	96.4062	2.52017	0
0.8020	4.26663	158.427	-89.0398	-2.44095	2.13688	2.99198	1.12646	92.7412	3.38072	0
0.8027	2.05127	231.32	34.8811	-2.74072	1.52253	1.76654	-0.0979528	83.5946	3.38072	0
0.8033	-4.34868	296.047	69.9436	-3.98261	1.22871	1.46416	-0.391811	-27.5037	3.38072	0.644202
0.8040	14.9332	264.572	58.0596	-5.48144	-0.614354	0.238721	-0.391811	-3.3782	2.21283	0
0.8047	35.692	196.553	71.1683	-3.38308	-2.13688	-0.0636591	-0.710158	123.878	1.9055	-1.93261
0.8053	39.0561	121.751	29.3927	2.44095	1.22871	2.67368	2.35087	158.042	4.61007	-0.644202
0.8060	24.0408	-52.4799	-30.7534	3.04049	1.52253	2.67368	2.96307	110.142	4.91741	0.966304
0.8067	7.54866	-229.147	-20.3662	0.299766	-1.22871	0.238721	-0.0979528	19.5043	2.52017	-0.322101
0.8073	-0.0820506	-253.576	41.5942	-0.599533	-1.84306	-0.986715	-0.710158	-63.8034	2.21283	-0.322101
0.8080	2.70767	-192.536	31.5245	-0.942123	-0.908176	-0.0636591	0.514252	-55.2623	3.07338	0.322101
0.8087	16.164	-109.569	-31.6606	0.299766	0.293822	1.46416	1.73866	6.69266	3.68806	0.322101
0.8093	20.4306	-46.0928	-33.2028	0.899299	0.293822	1.16178	1.42032	24.9859	3.38072	0
0.8100	9.68198	-13.6961	-5.39773	-0.299766	-0.320533	-0.0636591	1.12646	67.1179	2.82751	0
0.8107	6.07175	18.3054	1.58757	0	-0.320533	-0.0636591	1.42032	198.326	2.82751	0.644202
0.8113	14.2768	17.7128	-2.9937	-0.942123	-0.614354	-0.0636591	0.195906	210.245	2.21283	0.644202
0.8120	20.6768	36.6108	-0.861822	-1.24189	-0.614354	0.843482	0.195906	-9.17851	1.9055	0
0.8127	22.8101	66.5053	8.93573	0.299766	-0.320533	1.16178	2.35087	-207.855	2.21283	0
0.8133	24.369	-37.5327	5.26165	-0.299766	-1.52253	-0.684335	1.73866	-220.061	1.29082	0.322101
0.8140	20.1024	-167.514	4.03695	-0.942123	-2.45742	-0.986715	0.808111	-146.506	0.676144	0.322101
0.8147	10.6666	-144.336	21.4548	-0.942123	-3.04506	-0.986715	0.808111	-107.465	0.0614676	0.322101
0.8153	2.70767	-68.9416	35.7883	0	-3.04506	-1.2891	0.514252	-51.3104	0.368806	0
0.8160	-7.38456	-43.6564	40.6417	2.44095	-0.614354	0.238721	1.73866	60.712	2.21283	0.322101
0.8167	-28.1434	-49.7143	24.1764	2.14119	0	0.843482	1.73866	110.429	2.82751	0.322101
0.8173	-63.179	-45.1709	-9.07181	-0.299766	-1.22871	-0.0636591	-0.0979528	113.488	1.29082	0.322101
0.8180	-107.732	-27.1289	-33.7925	-0.599533	0	0.541102	-0.0979528	112.277	1.29082	0.322101
0.8187	-123.979	-40.2982	-45.0869	0.599533	1.81635	2.3713	0.808111	137.295	2.52017	0.322101
0.8193	-100.43	-21.3344	-21.5909	1.19907	3.36559	3.29436	1.42032	251.134	3.38072	0.322101
0.8200	-73.2712	50.0436	16.2385	0.899299	4.27377	2.67368	1.12646	241.956	3.38072	0.322101
0.8207	-41.2715	64.3982	22.9517	0.299766	3.95324	2.3713	0.195906	30.4994	2.82751	0.322101
0.8213	3.03587	33.2526	9.84291	0.299766	3.36559	2.06892	0.195906	-131.559	2.52017	0
0.8220	41.4356	31.7382	-11.8387	0	2.13688	1.46416	0.195906	-205.72	2.21283	0.322101
0.8227	52.4304	-3.35819	-37.1491	1.49883	2.43071	1.76654	1.42032	-243.868	2.52017	0.644202
0.8233	22.2357	-91.5271	-21.2734	2.74072	2.13688	2.06892	2.96307	-189.243	3.07338	0
0.8240	-21.087	-103.116	21.727	1.49883	-1.84306	-0.684335	1.12646	-84.2638	1.59816	0
0.8247	-40.9433	-47.6072	38.2377	0.899299	-2.75124	-1.89386	-0.0979528	-11.3138	0.0614676	0.322101
0.8253	-32.41	48.5291	35.1533	1.49883	-1.52253	-0.986715	0.514252	38.7218	0.0614676	0.322101
0.8260	-9.18967	220.653	38.5098	2.74072	-0.320533	-0.0636591	1.42032	122.03	0.983482	0.322101
0.8267	4.51278	341.811	70.2612	3.93979	1.52253	1.76654	2.35087	185.833	2.82751	0.322101
0.8273	11.8973	332.329	62.9584	3.34025	1.22871	1.76654	1.73866	166.584	3.07338	0.322101
0.8280	31.9997	200.174	-32.5678	2.14119	0.293822	0.238721	0.195906	123.878	1.59816	0.322101
0.8287	35.3638	64.9908	-84.776	1.49883	-0.908176	-1.2891	-1.00402	67.7234	-0.24587	0.322101
0.8293	14.2768	61.6326	-31.3431	2.14119	-3.97995	-2.81691	-1.61622	-17.1141	-1.47522	0.322101
0.8300	14.2768	38.1253	33.9286	3.34025	-4.27377	-2.81691	-1.00402	-61.6681	-1.47522	0
0.8307	25.5998	7.30899	46.7652	3.64002	-3.36559	-2.19624	-0.391811	-66.8629	-1.47522	0
0.8313	9.68198	62.8837	44.3158	2.44095	-3.65941	-2.51453	-1.32236	-107.146	-1.47522	0
0.8320	-14.1127	35.689	80.9659	2.44095	-4.56759	-2.81691	-1.32236	-153.836	-1.16788	0
0.8327	-20.5127	-65.9127	108.091	1.84142	-5.7963	-3.11929	-1.32236	-121.488	-1.78256	0
0.8333	-17.7229	-90.9344	69.0365	3.04049	-3.04506	-0.986715	-0.0979528	-41.2396	-0.860546	0
0.8340	-16.4922	-53.0725	7.39352	4.28238	0	1.46416	2.03252	-19.8549	0.368806	0
0.8347	-33.8869	-6.97976	-36.5594	1.49883	-1.52253	-0.36604	0.195906	-57.3976	-1.16788	-1.93261
0.8353	-51.9381	109.898	-57.0163	1.49883	-1.84306	-0.986715	-0.710158	-90.9883	-1.16788	-1.2884
0.8360	-29.3741	233.164	-62.5048	3.34025	-0.614354	0.238721	0.195906	-108.357	0.0614676	1.2884
0.8367	5.16919	218.216	-74.0713	2.14119	-2.13688	-0.986715	-1.93457	-70.8466	-1.16788	0.644202
0.8373	9.68198	177.918	-58.1957	3.64002	-0.908176	-0.0636591	-0.710158	30.7863	-0.553208	-0.322101
0.8380	1.47691	233.756	-12.1109	5.18167	0.908176	1.76654	2.64473	14.6283	1.59816	0
0.8387	-4.02048	366.503	-16.42	3.93979	0.908176	2.67368	3.25693	-85.7936	1.59816	0
0.8393	-7.38456	527.038	-64.9088	3.93979	1.81635	2.99198	3.57528	0.573657	1.59816	0.322101
0.8400	2.05127	567.336	-92.0789	3.64002	0	0.843482	2.35087	168.113	0.0614676	0
0.8407	9.43582	440.383	-65.8613	4.28238	-1.84306	-0.36604	1.12646	164.161	-0.860546	0.322101
0.8413	-8.86147	279.52	7.07601	5.18167	-2.13688	0.238721	1.42032	8.50924	-0.24587	0.322101
0.8420	-37.251	117.8	75.7496	4.28238	-4.27377	-0.986715	0.808111	-123.018	-0.860546	0
0.8427	-53.1688	-139.134	111.765	3.34025	-6.41065	-2.81691	0.514252	-102.557	-1.78256	0.322101
0.8433	-58.0098	-541.063	75.7496	2.44095	-7.63936	-4.02644	0.514252	-4.0156	-2.0899	0.322101
0.8440	-50.3791	-724.776	8.3007	3.34025	-7.02501	-3.11929	0.808111	60.9988	-2.0899	0.322101
0.8447	-19.2819	-490.69	19.9126	5.18167	-4.27377	-0.36604	1.42032	158.361	-0.860546	0.322101
0.8453	18.5434	-259.107	69.354	3.64002	-3.36559	-0.986715	0.808111	261.205	-0.553208	0.322101
0.8460	39.9587	-151.645	73.6177	1.19907	-3.65941	-1.59148	-0.710158	146.442	-1.78256	0.322101
0.8467	43.3227	-53.9944	24.1764	1.49883	-3.36559	-0.684335	-0.391811	-98.9239	-2.0899	0
0.8473	38.3997	-3.02895	-10.2965	1.49883	-3.36559	-0.36604	-0.0979528	-149.565	-2.0899	0.322101
0.8480	25.928	60.7108	7.71104	1.49883	-3.36559	0.541102	0.195906	-90.9883	-2.0899	0.322101
0.8487	-0.984608	79.938	-0.226795	1.19907	-2.75124	1.76654	1.12646	-114.763	-1.47522	0
0.8493	-37.9074	-72.9583	-39.2809	0.899299	-2.13688	1.76654	1.12646	-65.0463	-1.47522	0
0.8500	-64.4098	-235.863	-78.3351	1.49883	-3.04506	1.16178	-0.0979528	-31.7742	-1.78256	0.322101
0.8507	-71.7943	-260.622	-143.652	1.19907	-6.11683	-1.89386	-1.61622	-180.096	-3.01191	-0.322101
0.8513	-87.0557	-298.154	-163.202	2.14119	-6.11683	-3.11929	-1.00402	-220.667	-4.5486	-1.61051
0.8520	-125.784	-407.065	35.7883	5.18167	-1.52253	0.843482	2.96307	-52.5215	-2.0899	0
0.8527	-145.886	-357.943	288.483	5.18167	-1.22871	1.76654	3.86914	75.3403	-1.47522	0.966304
0.8533	-101.989	19.2273	216.136	3.64002	-4.88812	-0.36604	2.03252	181.244	-3.31925	0.322101
0.8540	-17.7229	462.376	-26.1722	4.28238	-5.50248	-0.36604	2.35087	276.758	-2.70457	0.322101
0.8547	32.5741	664.065	-85.0482	4.88191	-4.27377	1.16178	2.96307	162.919	-1.16788	0
0.8553	28.9639	713.187	-6.93993	4.88191	-3.04506	2.67368	4.16299	49.3982	0.0614676	0
0.8560	39.6305	542.314	42.1839	4.28238	-3.36559	2.99198	4.48134	96.4062	-0.24587	0.322101
0.8567	82.9532	212.422	15.921	3.34025	-5.50248	1.16178	3.25693	173.627	-1.47522	0.322101
0.8573	120.204	55.2455	-27.9865	3.04049	-6.11683	0.238721	2.35087	272.168	-1.78256	0
0.8580	136.943	-122.343	-55.1566	3.64002	-6.70447	0.541102	2.03252	159.891	-1.78256	0
0.8587	109.538	-342.733	-86.0007	4.58214	-6.70447	1.46416	2.35087	-196.86	-1.47522	0
0.8593	52.1022	-271.881	-31.3431	4.88191	-6.41065	1.16178	2.64473	-372.654	-1.47522	-0.322101
0.8600	16.164	-53.4018	92.2149	3.04049	-8.54754	-0.986715	1.42032	-237.781	-2.70457	0
0.8607	3.61023	-29.3018	67.8118	2.14119	-10.6844	-1.59148	1.12646	-36.0448	-3.31925	0.644202
0.8613	-13.4563	-316.13	-37.7841	2.74072	-9.77625	-0.684335	2.35087	73.8105	-3.01191	0.322101
0.8620	-24.7793	-537.705	-42.3653	2.74072	-8.25372	-0.0636591	2.96307	121.137	-2.70457	0
0.8627	-18.9537	-345.432	-42.955	1.19907	-7.93318	1.16178	3.57528	87.5464	-2.39724	0
0.8633	-21.7434	-102.194	-85.3657	-2.44095	-8.54754	0.843482	3.57528	78.6866	-3.01191	0.322101
0.8640	-37.9074	-125.702	-31.0709	-4.28238	-9.45571	-1.2891	1.73866	182.168	-3.93393	-0.644202
0.8647	-29.3741	-109.569	83.0978	-2.14119	-10.0701	-3.42167	0.808111	133.343	-4.24126	-2.25471
0.8653	22.8101	50.6362	10.7501	0.899299	-9.77625	-2.51453	2.35087	-52.2028	-3.31925	-0.322101
0.8660	47.5894	65.9127	-121.063	0.599533	-8.54754	-0.986715	2.64473	-89.7454	-3.31925	0.966304
0.8667	7.30251	-6.97976	-40.1881	-0.942123	-7.02501	-0.36604	2.35087	0.286828	-3.62659	0
0.8673	-15.3435	9.15271	38.8273	-2.14119	-4.56759	0.238721	1.73866	141.566	-3.31925	0
0.8680	3.03587	6.38714	-25.8547	-3.04049	-3.65941	0.541102	1.42032	194.661	-3.31925	0.322101
0.8687	31.0972	-117.207	-62.1872	-1.84142	-3.65941	0.541102	2.96307	30.1807	-2.70457	0
0.8693	56.4508	-182.791	-3.90088	-1.84142	-5.50248	-0.986715	2.96307	-103.481	-3.01191	0.322101
0.8700	43.8971	-46.0928	70.5787	-2.74072	-6.41065	-0.684335	2.35087	-92.4862	-3.31925	0.322101
0.8707	6.9743	38.7838	122.152	-2.14119	-5.7963	0.238721	2.96307	-68.0739	-3.01191	0
0.8713	-7.05635	-109.569	127.958	-2.74072	-7.02501	-0.986715	3.25693	-101.952	-3.31925	0
0.8720	16.164	-327.127	71.4858	-3.98261	-9.16189	-1.89386	2.64473	-115.082	-3.93393	0
0.8727	45.4561	-339.374	83.0978	-3.98261	-10.9782	-2.81691	2.03252	25.5915	-4.5486	0
0.8733	28.6357	26.2729	193.23	-2.74072	-11.5926	-3.72405	2.35087	227.327	-5.16328	0
0.8740	3.61023	612.77	224.074	-1.24189	-11.9131	-3.72405	3.86914	434.832	-5.16328	-0.322101
0.8747	13.3743	1147.18	102.602	-0.299766	-11.2988	-4.02644	4.16299	579.489	-3.93393	0
0.8753	20.1024	1306.14	0.680386	-0.599533	-9.77625	-4.34473	2.96307	486.11	-3.31925	0.322101
0.8760	21.9075	1172.8	34.8811	-0.942123	-10.0701	-4.94949	1.42032	211.456	-3.62659	0.322101
0.8767	49.0663	1185.31	25.4011	-1.24189	-13.4357	-6.77969	0.514252	-116.006	-4.85594	0.322101
0.8773	87.2198	1026.62	-86.2729	-0.599533	-16.7745	-8.00513	1.12646	-376	-5.77796	0.322101
0.8780	98.5428	300.92	-165.334	1.19907	-17.0951	-6.77969	2.96307	-394.325	-4.5486	0.322101
0.8787	73.1892	-575.238	-187.287	1.49883	-15.5725	-4.64711	3.57528	-255.755	-3.01191	0
0.8793	19.1998	-915.797	-165.923	1.19907	-12.8213	-4.02644	1.73866	-167.285	-3.31925	-0.322101
0.8800	-36.6766	-687.572	-109.769	1.19907	-9.45571	-3.11929	0.514252	-129.137	-3.31925	0
0.8807	-64.4098	-568.851	-25.265	0.599533	-7.02501	-3.11929	-0.391811	-104.692	-2.70457	0.322101
0.8813	-60.4713	-663.472	65.0902	0.599533	-7.31883	-1.59148	-1.00402	-123.018	-3.01191	0.322101
0.8820	-25.1075	-542.578	113.307	1.49883	-7.63936	6.0317	-0.0979528	-137.072	-2.70457	0
