MR32 ASCII
Name	KneeFJC2
Frequency	1500
Date	14-09-2015 10:54:07
"Time,s"	"RT TIB.ANT.,uV"	"RT MED. GASTRO,uV"	"RT LAT. GASTRO,uV"	"RT BICEPS FEM.,uV"	"RT VMO,uV"	"RT VLO,uV"	"RT RECTUS FEM.,uV"	"RT SOLEUS,uV"	"RT SEMITEND.,uV"	"Channel 12,uV"
0.0000	5.98291	12.0888	-5.12694	4.96178	1.34953	-0.410943	0.292636	-2.15558	-2.3683	-5409.39
0.0007	2.27611	4.15714	-10.313	0.0740564	1.07031	-3.49302	-3.06142	-5.21988	-19.1397	-10311.8
0.0013	1.04051	-0.730543	-5.12694	-3.5794	0.139606	-3.49302	-4.27698	-14.9834	-26.4862	-9928.48
0.0020	2.27611	-0.730543	3.72331	-2.06124	0.465354	0.462311	0.292636	-19.8651	-24.6496	-9605.6
0.0027	1.69082	1.4089	3.72331	0.691194	1.07031	4.46901	5.1774	-21.3867	-14.5723	-9915.58
0.0033	-0.130063	2.62648	1.58832	1.91312	1.07031	5.03406	5.49254	-17.1178	-3.28661	-9803.23
0.0040	-2.92642	4.15714	9.21963	2.20935	0.744566	2.92797	3.64669	0.591727	-0.84582	-9804.81
0.0047	-7.15348	5.06162	11.6575	1.60456	-0.791101	1.07873	1.5082	12.4897	-2.05413	-9818.34
0.0053	-7.8038	2.92217	6.77436	4.04842	0.139606	2.61976	1.82334	11.5809	11.3582	-9818.97
0.0060	-3.51171	2.92217	1.89121	9.54094	2.55945	6.26689	4.86225	8.22078	35.7903	-9799.46
0.0067	1.69082	7.20107	-8.17799	13.1944	3.21094	8.73255	7.31589	-0.929856	49.8067	-9818.34
0.0073	3.18655	1.09581	-17.0282	10.7629	2.88519	6.8833	5.78518	8.83364	39.7535	-9908.03
0.0080	0.130063	-10.1928	-13.364	5.27035	2.88519	2.00335	1.21556	26.839	14.1131	-9558.4
0.0087	-0.78038	-7.75767	-2.99195	3.12271	3.49015	2.31156	0.900417	14.3282	1.30498	-10101.9
0.0093	-0.130063	-3.18308	13.1867	3.43128	3.8159	5.03406	4.25447	0.88759	11.0682	-10009.7
0.0100	0.455222	-4.08756	29.9712	3.12271	2.88519	4.1608	5.1774	4.54362	26.9212	-4407.69
0.0107	0.130063	-2.86999	23.8691	0.691194	-0.186141	1.38693	1.5082	2.11331	26.9212	107.942
0.0113	-3.18655	-1.94812	7.38753	-2.66603	-2.60598	-1.02736	-2.74627	-1.54272	12.5906	107.942
0.0120	-2.27611	-1.04363	5.85831	-0.234512	-0.186141	1.07873	-1.23807	6.08633	8.62736	-211.164
0.0127	1.36566	1.7046	8.00069	3.12271	3.49015	3.54439	2.11598	15.5328	15.3214	99.1306
0.0133	1.69082	6.88798	4.94226	1.60456	3.49015	3.23618	2.43113	16.4627	15.6356	-13.5321
0.0140	1.36566	3.23526	0.672265	-2.36981	0.744566	1.69514	0.292636	6.08633	8.3132	-11.6439
0.0147	1.69082	-13.2367	-6.34588	-5.1099	-1.67527	-1.64377	-3.37656	-7.35432	1.30498	1.2588
0.0153	3.51171	-17.8287	-7.56483	-3.28317	-1.39606	-0.410943	-2.45364	-7.65018	0.386661	-0.944101
0.0160	5.3326	-9.27094	-1.46273	-0.234512	0.744566	2.61976	1.82334	2.11331	1.59497	-0.944101
0.0167	6.24304	-1.33933	1.28543	0.382625	1.34953	3.23618	2.43113	7.60792	-0.531658	-0.629401
0.0173	3.83687	8.73173	0.0591002	-1.4441	-0.465354	0.462311	-0.315146	5.15648	-8.1682	-0.629401
0.0180	-2.92642	18.194	0.975153	-4.5051	-2.28023	-2.8766	-3.6692	7.29092	-14.8864	-0.629401
0.0187	-5.91788	25.5168	7.38753	-3.28317	-2.00102	-1.33557	-2.45364	19.5058	-14.5723	-0.629401
0.0193	-2.60127	25.5168	18.0699	-0.530738	-0.791101	1.69514	0.292636	21.6403	-10.609	-0.3147
0.0200	0.78038	9.63621	30.2741	0.691194	-0.186141	2.00335	1.21556	14.3282	-2.3683	-0.3147
0.0207	-1.69082	-7.44458	26.307	-1.14787	-0.186141	-0.410943	-1.23807	12.1727	4.03577	-0.629401
0.0213	-6.24304	-10.5059	7.38753	-5.41846	-1.67527	-3.18481	-4.88476	2.72617	-2.05413	-0.629401
0.0220	-3.83687	-8.36646	6.77436	-4.19653	-1.07031	-2.5684	-3.37656	-22.2954	-3.89077	-1.2588
0.0227	1.36566	-9.27094	7.38753	0.691194	1.07031	1.38693	0.607781	-42.4353	7.39488	-1.2588
0.0233	3.51171	-7.14889	-13.6669	2.20935	1.34953	3.23618	2.43113	-37.2577	4.95409	-0.3147
0.0240	3.18655	-4.69635	-32.5938	-0.530738	-0.465354	0.462311	0.607781	-16.2091	-17.0131	-0.3147
0.0247	2.27611	-12.628	-38.9987	-1.75267	-1.67527	-1.64377	-1.84585	7.29092	-42.3393	-0.3147
0.0253	3.18655	-21.7945	-33.5098	-0.234512	-0.791101	-0.102736	-0.630292	27.4519	-76.5346	-0.3147
0.0260	5.00744	-19.0463	-9.39693	2.51792	1.67527	1.69514	2.11598	27.1349	-80.1837	-0.3147
0.0267	4.42215	-7.75767	27.223	4.34465	3.21094	1.38693	2.74627	7.29092	-24.9396	-0.3147
0.0273	0.130063	1.09581	43.7046	2.51792	2.28023	-1.33557	0.292636	-7.35432	12.5906	-0.3147
0.0280	-4.09699	-8.05337	27.5259	-2.06124	0.465354	-2.5684	-1.84585	1.79631	6.79073	0
0.0287	-3.51171	-18.4375	5.25253	-3.28317	-0.186141	0.770519	-0.315146	19.21	14.4273	-0.3147
0.0293	-0.78038	-8.97525	-8.78377	-0.234512	0.744566	4.1608	2.43113	10.9681	31.8028	-0.3147
0.0300	-0.78038	-0.434847	-13.0611	0.987419	1.07031	3.23618	2.43113	-10.3975	34.872	-0.3147
0.0307	-2.60127	-5.00944	-14.583	-0.839306	-0.465354	-0.102736	0	-16.2091	39.7535	-0.629401
0.0313	-2.92642	-9.27094	-16.7254	-3.88796	-2.60598	-2.5684	-2.74627	-13.7576	43.1127	-0.629401
0.0320	-0.455222	-7.75767	-10.9262	-4.5051	-2.28023	-0.719151	-1.53071	-10.1016	24.1905	0
0.0327	1.69082	-4.08756	-3.59773	-3.5794	-0.465354	1.38693	1.5082	-3.3813	-2.68246	-0.3147
0.0333	0.78038	-2.86999	-3.908	-6.02326	-0.186141	0.154104	0.607781	0.88759	-25.8579	-0.629401
0.0340	-2.27611	-4.08756	-4.51378	-9.08426	-1.67527	-2.26019	-2.45364	1.79631	-54.5433	-0.3147
0.0347	-2.60127	-5.61823	2.80726	-6.33183	-1.67527	-3.49302	-4.59213	-0.0211331	-47.5351	0
0.0353	-1.36566	-6.22701	10.1357	0.691194	0.465354	-1.02736	-2.74627	-3.3813	8.3132	0
0.0360	-1.04051	-6.5401	12.5736	3.12271	1.67527	2.00335	0.292636	-2.47257	38.5211	-0.3147
0.0367	2.27611	-9.58403	14.7086	0.691194	-0.465354	0.462311	0.292636	0.88759	30.9087	-0.3147
0.0373	2.60127	-14.7674	9.21963	-1.75267	-2.60598	-3.18481	-2.74627	-8.26304	24.7946	-0.3147
0.0380	0.455222	-14.1586	-3.29484	-2.66603	-2.60598	-5.03406	-5.51505	-25.9726	17.1581	-0.3147
0.0387	4.09699	2.01769	4.03359	0.987419	-0.791101	-1.64377	-2.45364	-24.134	8.91736	-0.3147
0.0393	6.89336	25.8125	16.5407	4.04842	0.744566	1.38693	2.11598	-6.74146	-2.05413	0
0.0400	5.00744	42.3019	9.52252	4.96178	1.07031	2.31156	2.74627	13.7154	-45.4085	0
0.0407	4.09699	50.2335	-3.908	4.96178	0.139606	0.770519	0.607781	30.4951	-87.2161	-0.3147
0.0413	5.3326	32.2309	-8.17799	4.34465	-0.791101	-1.64377	-2.13849	33.2424	-60.3432	-0.3147
0.0420	7.8038	-15.0805	0.672265	7.70187	1.07031	1.69514	0.607781	31.7208	-4.20493	0
0.0427	2.60127	-41.6236	6.16858	11.0591	2.55945	5.03406	4.25447	22.549	17.4722	-0.3147
0.0433	-6.5682	-15.985	2.20148	9.83716	2.28023	3.85259	4.56962	-7.96718	11.9865	0
0.0440	-5.00744	20.6292	-3.29484	3.73985	1.34953	0.462311	1.5082	-40.005	-3.89077	0
0.0447	1.36566	37.1012	-0.849565	-2.36981	-0.465354	-2.26019	-2.13849	-58.0104	-7.24989	0
0.0453	6.89336	48.4072	7.38753	-1.14787	-1.07031	0.154104	0	-58.3062	16.8681	-0.3147
0.0460	7.47864	46.2677	-3.59773	1.60456	0.139606	4.46901	3.96183	-28.4029	38.5211	-0.3147
0.0467	2.92642	15.4458	-15.8093	-0.530738	1.34953	5.65047	4.86225	9.1295	44.321	0
0.0473	-1.36566	-22.0902	-9.09404	-5.1099	1.07031	3.23618	3.03891	33.5382	48.5984	-0.3147
0.0480	-5.91788	-40.0929	-5.73272	-9.38048	-1.67527	-1.02736	-0.922927	71.0917	43.1127	0
0.0487	-6.24304	-46.5113	-8.17799	-9.08426	-2.00102	-0.719151	-0.922927	112.28	20.8313	-0.3147
0.0493	-3.83687	-59.9393	-12.448	-6.02326	0.139606	2.00335	1.82334	110.442	-3.57661	-0.3147
0.0500	-6.24304	-62.6876	-14.2801	-4.19653	0.744566	2.31156	2.43113	87.5544	-10.609	-0.3147
0.0507	-8.06392	-50.7901	-6.95905	-6.6404	-0.791101	-0.410943	0	72.9092	-6.93572	-0.3147
0.0513	-4.09699	-42.2324	2.20148	-9.08426	-2.60598	-2.26019	-3.06142	33.2424	-15.4906	0
0.0520	0.78038	-24.5428	5.25253	-5.1099	-2.00102	-1.02736	-1.53071	-32.6718	-29.217	-0.944101
0.0527	-1.04051	-4.69635	1.58832	1.29599	1.07031	1.07873	2.11598	-81.8062	-33.1803	-1.2588
0.0533	-5.3326	-8.66216	-2.07589	2.51792	3.49015	2.31156	3.03891	-98.9029	-29.217	-0.629401
0.0540	-5.3326	-13.8629	-1.46273	-2.66603	1.95449	0.154104	0.607781	-102.559	-24.6496	-0.3147
0.0547	-3.18655	-1.65242	4.03359	-6.93662	-1.39606	-2.5684	-2.13849	-94.9299	-18.2455	-0.3147
0.0553	-0.78038	9.02743	3.42042	-4.19653	-2.00102	-0.410943	-0.922927	-63.505	-19.768	0
0.0560	0.78038	11.1669	-7.8751	1.29599	0.139606	3.54439	2.74627	-19.2523	-27.0904	0
0.0567	2.01598	7.51416	-14.583	-0.234512	1.34953	3.85259	3.03891	15.5328	-2.05413	0
0.0573	0.78038	5.37471	-17.9443	-4.19653	-0.186141	0.770519	-0.315146	27.4519	30.5945	0
0.0580	-2.27611	10.245	-23.4332	2.82649	-0.791101	-1.33557	-2.74627	11.2639	25.1088	-0.3147
0.0587	-1.95095	20.0204	-19.1632	15.6383	0.139606	0.770519	-0.630292	-12.5319	20.2272	-0.3147
0.0593	-1.69082	30.0914	-6.64877	18.0821	0.465354	4.1608	3.03891	-18.6394	32.117	-0.3147
0.0600	0.455222	28.5608	-3.29484	12.5896	0.139606	4.77722	3.96183	1.79631	24.4804	-0.3147
0.0607	4.09699	18.4897	-13.0611	7.40564	-0.186141	2.92797	1.5082	22.549	5.87241	-0.3147
0.0613	3.51171	5.9835	-21.6011	1.60456	-0.465354	-0.102736	-2.13849	11.8768	-1.13582	-0.3147
0.0620	2.92642	-10.5059	-23.4332	-1.14787	0.465354	-0.102736	-1.23807	-12.8489	4.66409	0
0.0627	2.92642	-13.2367	-18.5501	-0.839306	2.55945	1.07873	1.21556	-35.7361	17.7864	0
0.0633	-0.130063	1.7046	-2.37878	-0.839306	1.67527	0.154104	0.900417	-48.8597	30.5945	0
0.0640	-2.27611	7.51416	15.9349	-1.14787	-0.791101	-1.33557	-0.630292	-31.4672	41.276	-0.3147
0.0647	-1.36566	-4.40065	18.0699	-3.5794	-2.28023	-3.80123	-3.37656	-3.3813	36.3944	-0.3147
0.0653	1.36566	-18.4375	12.2707	-4.19653	-1.39606	-2.26019	-3.06142	11.2639	14.7173	-0.3147
0.0660	4.09699	-26.3691	12.2707	-0.530738	0.744566	1.38693	0	14.92	-7.24989	-0.629401
0.0667	3.83687	-32.7701	11.0517	1.91312	0.744566	1.38693	1.5082	8.22078	-13.654	-0.3147
0.0673	0.455222	-45.5894	3.11754	-0.530738	-0.791101	-1.33557	0	1.79631	-6.64573	-0.3147
0.0680	-2.27611	-53.2253	-1.46273	-4.5051	-2.00102	-4.72585	-3.06142	-8.26304	0.386661	0
0.0687	1.69082	-42.5454	2.50437	-1.4441	-1.07031	-2.8766	-2.13849	-17.1178	4.95409	-0.3147
0.0693	4.09699	-8.97525	2.80726	3.12271	1.95449	0.154104	0.607781	-8.26304	10.4398	-0.3147
0.0700	1.36566	63.9573	-7.26194	4.34465	3.49015	-0.102736	1.82334	0.88759	22.668	0
0.0707	1.69082	110.66	-13.9772	2.82649	2.55945	-1.95198	0.292636	-3.08543	29.362	0
0.0713	2.27611	79.5248	-10.6159	-0.234512	-0.465354	-2.8766	-1.84585	-4.90288	7.70905	-0.3147
0.0720	-0.78038	44.4414	-3.908	0.0740564	-1.39606	0.462311	0.900417	8.22078	-14.5723	-0.3147
0.0727	-4.42215	27.6563	4.03359	1.60456	-1.07031	3.23618	3.64669	25.6133	-7.56405	-0.3147
0.0733	-4.42215	0.487029	11.9678	1.29599	-1.07031	3.85259	4.25447	38.1241	6.79073	-0.3147
0.0740	-2.92642	-16.5938	16.5407	0.0740564	-1.67527	2.00335	2.74627	29.8822	9.54568	0
0.0747	-5.00744	-12.0192	22.3399	-0.234512	-1.39606	-0.719151	-0.630292	-3.67716	6.79073	0
0.0753	-4.74731	-9.58403	25.6938	2.82649	0.139606	0.154104	0.292636	-20.161	7.99904	0
0.0760	-0.455222	-15.0805	29.9712	5.56658	1.67527	2.31156	3.03891	-12.5319	6.18657	0
0.0767	1.69082	-12.9411	29.6683	4.65321	2.28023	2.61976	3.03891	-14.9834	-5.72741	0
0.0773	-1.36566	-6.8358	5.85831	0.987419	1.95449	0.154104	0.607781	-18.9353	-17.6172	-0.3147
0.0780	-4.09699	-3.47878	-11.229	-1.4441	1.95449	-1.95198	-1.53071	-4.29002	-22.4988	0
0.0787	-0.455222	3.23526	-6.95905	-1.14787	2.28023	0.154104	-0.315146	15.8498	-20.3722	0
0.0793	2.60127	12.0888	-6.043	0.0740564	2.88519	3.54439	2.74627	29.2693	-13.654	-0.3147
0.0800	2.27611	14.5239	-7.8751	0.987419	3.49015	3.54439	3.03891	37.8071	-10.609	-0.3147
0.0807	0.130063	5.67041	-8.17799	-1.4441	0.139606	1.07873	0.292636	39.9627	-17.3272	0
0.0813	-2.60127	-5.00944	-9.69982	-4.80133	-3.53669	-1.33557	-3.06142	30.1781	-5.72741	-0.3147
0.0820	-3.18655	-4.40065	-7.26194	-2.06124	-1.39606	-0.410943	-2.13849	14.6241	36.6844	-1.2588
0.0827	-1.36566	1.7046	-2.07589	1.91312	1.07031	2.61976	2.43113	0.88759	51.3534	-0.944101
0.0833	2.01598	2.31339	0.0591002	0.987419	0.139606	3.85259	3.96183	-5.21988	22.958	0.3147
0.0840	1.36566	-0.434847	-2.07589	-2.66603	-2.00102	1.38693	0.900417	-6.1286	1.30498	0
0.0847	-2.27611	-2.26121	-4.51378	-6.6404	-3.53669	-2.8766	-3.37656	-10.1016	-5.12325	-1.2588
0.0853	-1.04051	-0.121757	-2.37878	-5.41846	-2.00102	-1.64377	-2.45364	-8.8759	-6.01741	-1.5735
0.0860	2.01598	3.53096	1.89121	0.0740564	0.465354	2.31156	2.11598	0.27473	-1.44998	-0.3147
0.0867	1.69082	2.62648	1.58832	2.51792	-0.186141	1.69514	2.11598	5.15648	0.0724989	0
0.0873	0.130063	-0.434847	-1.46273	0.987419	-1.07031	-1.95198	-1.23807	2.72617	-9.37652	-0.3147
0.0880	-1.69082	-1.65242	-3.59773	-0.234512	-1.07031	-3.18481	-3.6692	-1.54272	-17.3272	-0.3147
0.0887	-0.455222	-0.730543	-1.46273	1.29599	0.139606	-0.719151	-2.13849	-0.33813	-6.33157	0
0.0893	2.01598	1.09581	1.89121	4.04842	1.34953	0.770519	0.607781	5.76934	4.95409	0
0.0900	3.18655	2.01769	2.50437	3.73985	1.34953	1.07873	1.82334	8.22078	5.26825	-0.3147
0.0907	2.01598	0.800119	0.369376	-1.14787	-0.186141	0.462311	0.607781	4.86061	3.11745	-0.3147
0.0913	-1.04051	-1.65242	-2.07589	-8.15855	-2.93173	-1.33557	-2.13849	1.79631	-1.44998	0
0.0920	0.455222	-0.434847	0.0591002	-6.6404	-2.28023	0.154104	-0.630292	4.24775	-1.44998	0
0.0927	3.51171	2.31339	3.11754	-1.75267	-0.186141	2.61976	2.74627	7.29092	5.55825	0
0.0933	3.18655	2.31339	3.11754	0.0740564	0.465354	3.54439	3.35405	6.3822	10.754	0.3147
0.0940	1.36566	0.800119	0.975153	-0.530738	-0.186141	2.61976	0.900417	2.40917	8.91736	0
0.0947	-1.04051	-1.65242	-2.37878	-3.88796	-1.67527	0.154104	-3.06142	-2.47257	2.19913	-0.3147
0.0953	0.130063	-0.434847	-0.849565	-2.36981	-0.791101	2.00335	-1.53071	-0.929856	-1.76414	-0.3147
0.0960	2.92642	2.01769	3.11754	0.987419	1.34953	5.95868	1.5082	3.33903	-5.12325	0
0.0967	2.27611	1.7046	3.42042	0.987419	1.95449	8.11613	1.5082	3.63489	-8.48237	-0.3147
0.0973	0.455222	0.487029	0.975153	-1.75267	1.07031	7.19151	0.292636	1.79631	-13.9681	-0.3147
0.0980	-1.36566	-1.65242	-2.07589	-4.80133	-0.186141	4.1608	-3.37656	-1.54272	-35.3311	-0.3147
0.0987	-0.78038	-1.65242	-0.849565	-1.4441	-0.186141	6.57509	-2.45364	-0.929856	-42.3393	0
0.0993	1.36566	0.487029	1.89121	3.73985	1.34953	10.8386	1.82334	2.72617	-9.69068	-0.3147
0.1000	2.27611	1.4089	2.80726	3.43128	2.55945	10.5304	3.03891	2.11331	15.3214	-1.2588
0.1007	0.78038	0.173939	0.975153	-0.530738	1.07031	6.57509	0.607781	-3.67716	9.23152	-0.629401
0.1013	-0.78038	-1.65242	-0.849565	-3.88796	-0.791101	2.61976	-3.06142	-10.7145	-2.68246	0.3147
0.1020	0.130063	-0.121757	0.672265	-3.88796	-0.465354	2.92797	-2.45364	-12.5319	-8.77236	0
0.1027	1.36566	4.15714	3.42042	-3.5794	-0.186141	4.46901	0.292636	-11.9191	-14.8864	0
0.1033	0.455222	7.51416	4.03359	-3.88796	-0.186141	1.38693	1.82334	-6.74146	-23.1271	0
0.1040	-0.78038	5.06162	1.89121	-6.02326	-1.67527	-6.21552	0	7.60792	-32.8903	0
0.1047	-2.27611	1.7046	-0.546677	-7.86233	-2.28023	-12.9447	-3.37656	14.3282	-40.5027	-0.3147
0.1053	-1.04051	1.7046	1.58832	-5.1099	-0.186141	-14.4858	-2.74627	11.8768	-40.2127	-0.3147
0.1060	1.04051	-3.79187	4.33648	-2.06124	0.744566	-14.1775	0.607781	9.74236	-38.6902	-0.3147
0.1067	1.69082	-9.58403	5.25253	-1.14787	0.139606	-13.8693	0.900417	6.99506	-35.9353	-0.3147
0.1073	1.04051	-6.8358	3.42042	0.382625	-0.791101	-14.1775	-2.13849	3.63489	-20.9763	0
0.1080	-0.78038	-4.08756	-2.07589	0.382625	-1.67527	-14.1775	-5.19991	0.591727	-7.24989	-0.3147
0.1087	-0.455222	-4.40065	-4.21089	2.82649	-0.465354	-9.6058	-3.6692	0.27473	0.386661	-0.3147
0.1093	2.27611	-8.05337	-2.68167	6.47994	1.34953	-3.49302	-0.630292	1.79631	20.8313	0
0.1100	2.92642	-14.4717	-3.908	7.09708	1.07031	-1.95198	0.607781	1.79631	39.4394	0
0.1107	5.00744	-16.9069	-7.56483	5.27035	0.139606	-3.49302	0	0.591727	29.362	0
0.1113	8.71424	-20.8727	-10.6159	3.12271	-0.186141	-4.41764	-2.13849	0.591727	10.1498	0.3147
0.1120	10.5351	-20.577	-11.5319	5.87514	0.465354	-2.26019	-0.922927	3.63489	5.26825	-0.944101
0.1127	9.29953	-4.69635	-7.26194	10.7629	2.88519	1.38693	3.96183	7.60792	11.0682	-1.2588
0.1133	8.71424	-3.47878	-3.908	9.83716	4.09511	3.23618	6.10033	14.0112	20.5172	-0.3147
0.1140	7.15348	-16.9069	-4.81667	2.51792	1.67527	2.31156	3.96183	27.1349	17.1581	0.3147
0.1147	-1.04051	-0.121757	-4.51378	-5.72703	-2.28023	-0.719151	-0.315146	38.737	-0.531658	-0.944101
0.1153	-3.83687	20.9422	0.672265	-5.41846	-2.28023	0.154104	0.292636	50.6349	-13.364	-1.2588
0.1160	-1.36566	9.63621	13.7925	-0.234512	-0.186141	3.54439	3.64669	54.6079	-19.1397	-0.3147
0.1167	-3.83687	-1.65242	18.0699	1.60456	0.139606	2.92797	2.74627	25.9092	-22.813	0
0.1173	-4.42215	-0.434847	11.3546	0.0740564	-1.07031	-0.410943	0	-12.5319	-19.768	-0.3147
0.1180	-1.69082	2.01769	8.60647	-2.06124	-2.60598	-4.41764	-3.98435	-40.005	-13.654	-0.944101
0.1187	-0.455222	18.4897	5.55542	-0.839306	-1.39606	-3.49302	-3.37656	-47.0211	-11.5273	-1.2588
0.1193	-1.04051	38.023	17.7596	0.0740564	0.744566	-0.102736	0	-8.8759	-17.0131	-1.2588
0.1200	-4.42215	43.5195	24.172	-0.530738	1.07031	0.462311	0.900417	47.5917	-20.058	-0.629401
0.1207	-7.8038	27.952	-9.69982	-2.06124	-0.791101	-1.64377	-0.922927	50.9308	-21.2905	0
0.1213	-4.74731	-11.7235	-28.6267	-7.55376	-4.14165	-5.90731	-5.19991	4.86061	-22.2088	0.3147
0.1220	3.51171	-21.4815	-15.8093	-6.93662	-3.21094	-5.03406	-4.27698	-42.1394	-15.1764	0
0.1227	7.8038	9.9493	-13.6669	-0.234512	0.465354	-1.95198	-0.922927	-74.1772	7.70905	0
0.1233	5.98291	20.3161	-8.78377	4.65321	3.21094	-1.95198	-0.315146	-81.1934	39.7535	0
0.1240	0.78038	7.51416	8.90936	4.65321	2.88519	-2.5684	-1.53071	-75.107	35.1619	-0.3147
0.1247	-2.27611	1.4089	11.6575	1.29599	-1.67527	-2.8766	-3.98435	-58.0104	4.34993	0
0.1253	-0.130063	-11.1147	-3.59773	2.82649	-2.93173	-0.719151	-2.45364	-18.0265	11.9865	0
0.1260	2.27611	-30.0218	-14.583	7.70187	0.139606	2.00335	1.5082	14.6241	50.1209	0
0.1267	2.92642	-40.406	-0.849565	10.4543	2.28023	3.23618	3.35405	22.2532	68.4389	-0.3147
0.1273	2.27611	-37.9709	12.8765	6.47994	1.67527	1.07873	2.43113	13.1025	52.8758	-0.3147
0.1280	-3.18655	-2.5569	-1.46273	0.382625	-0.186141	-0.410943	0.900417	-0.0211331	30.2804	-0.3147
0.1287	-7.8038	31.9178	-4.81667	-0.530738	-0.186141	3.85259	3.64669	-2.76844	25.1088	0
0.1293	-5.65775	14.5239	15.3217	2.51792	0.465354	8.42434	7.60852	-11.9191	29.6762	0
0.1300	-0.455222	-13.2367	19.5917	4.96178	0.139606	9.65717	8.53145	-18.0265	33.0353	-0.3147
0.1307	1.36566	-24.5428	11.0517	3.12271	-0.465354	6.57509	5.49254	-4.90288	28.7579	-0.3147
0.1313	0.130063	-46.8069	8.60647	-0.530738	-1.07031	3.23618	1.5082	-5.83274	15.0314	0
0.1320	-0.130063	-83.7342	-2.37878	0.0740564	0.139606	4.46901	2.43113	-21.9996	8.62736	0
0.1327	-2.92642	-108.764	-15.1961	2.20935	2.28023	7.19151	4.56962	-22.2954	13.1948	0
0.1333	-8.06392	-90.4482	-8.17799	0.0740564	1.34953	6.57509	4.25447	-22.9083	9.83568	0
0.1340	-11.4456	-12.9411	5.85831	-6.02326	-1.07031	2.61976	1.5082	-32.6718	-8.77236	-0.3147
0.1347	-10.8603	75.2634	8.00069	-8.77569	-1.67527	-1.02736	-1.23807	-24.7469	-19.1397	-0.3147
0.1353	-5.3326	86.552	6.47147	-5.41846	-0.791101	1.38693	-0.315146	-6.1286	-12.4456	0
0.1360	-0.455222	49.6248	10.1357	0.0740564	1.07031	5.65047	2.43113	3.02203	-13.364	0
0.1367	0.455222	34.666	11.0517	3.12271	1.95449	5.95868	3.96183	17.0755	-28.6129	0
0.1373	-1.36566	21.8467	6.47147	0.987419	1.07031	2.92797	1.5082	32.0166	-67.0614	-0.3147
0.1380	-1.95095	0.487029	0.975153	-0.234512	0.139606	-1.33557	-2.45364	25.9092	-79.5796	0
0.1387	0.455222	-13.8629	0.975153	4.34465	0.465354	-1.33557	-2.74627	7.90378	1.90914	0
0.1393	2.92642	-22.4033	0.975153	7.09708	0.465354	1.69514	0.900417	-7.65018	76.9696	0
0.1400	2.92642	-34.9095	-1.46273	2.51792	-0.186141	2.92797	1.5082	-21.6826	58.3616	0
0.1407	2.01598	-48.3376	-2.07589	-3.88796	-1.67527	0.770519	-1.53071	-31.763	18.3905	-0.3147
0.1413	0.130063	-48.6507	-2.07589	-6.02326	-3.53669	-1.95198	-4.59213	-44.8867	1.30498	0
0.1420	-1.04051	-38.2666	-0.849565	-2.66603	-3.21094	-0.410943	-3.06142	-53.7415	-13.364	0
0.1427	-2.60127	-28.8043	2.80726	3.12271	-0.791101	2.00335	0.607781	-24.7469	-28.0087	-0.944101
0.1433	-2.27611	-30.648	4.63937	8.62758	1.34953	0.770519	0.900417	13.7154	-35.3311	-0.629401
0.1440	-1.36566	-17.2199	0.369376	11.3677	3.21094	-1.95198	-1.23807	13.7154	-19.768	0
0.1447	-2.27611	42.5976	-1.76562	10.7629	3.21094	-5.2909	-3.98435	10.6511	19.913	0
0.1453	-0.455222	98.7625	9.82541	10.1457	2.55945	-4.10943	-3.6692	31.4038	39.1252	0
0.1460	2.60127	97.5275	18.9859	8.9238	1.07031	-0.102736	0	47.5917	18.9947	0
0.1467	2.01598	59.087	21.1209	2.51792	-1.39606	0.770519	1.5082	50.022	-3.57661	0
0.1473	0.130063	27.952	23.5588	-6.6404	-3.21094	-1.64377	-0.922927	40.5544	-14.8864	0
0.1480	-1.69082	23.0643	15.0188	-11.5158	-3.53669	-3.49302	-3.37656	14.6241	-20.058	0
0.1487	-1.95095	33.1354	8.00069	-9.08426	-2.93173	-1.33557	-1.23807	-10.7145	-10.0048	0.3147
0.1493	1.36566	47.7984	13.7925	-5.41846	-1.39606	2.61976	2.11598	-26.5643	11.3582	0
0.1500	3.51171	45.3459	12.5736	-4.19653	-1.67527	4.46901	3.64669	-31.1502	22.0397	0
0.1507	2.01598	21.2379	4.94226	-4.19653	-2.60598	2.92797	2.43113	-19.5481	17.4722	-0.3147
0.1513	-0.78038	8.73173	-0.546677	-3.5794	-2.60598	0.770519	0	3.02203	9.23152	0
0.1520	-2.27611	20.9422	-11.229	-0.839306	-0.791101	2.00335	0.900417	23.7747	6.18657	-0.3147
0.1527	-1.04051	29.7783	-16.1122	2.82649	1.34953	4.77722	4.25447	27.7478	5.55825	-0.3147
0.1533	0.455222	18.194	-6.34588	3.43128	1.95449	5.03406	4.56962	24.3876	5.87241	-0.3147
0.1540	0.78038	5.37471	-3.29484	-0.530738	1.07031	1.69514	1.5082	21.3444	6.18657	0
0.1547	0.78038	0.173939	-10.9262	-5.41846	-0.465354	-1.33557	-1.84585	20.1187	2.19913	0
0.1553	1.69082	-9.27094	-12.448	-4.5051	0.744566	0.462311	-0.315146	36.6025	-0.241663	-0.3147
0.1560	2.01598	-16.9069	-10.6159	-2.06124	3.21094	2.61976	3.03891	57.9681	7.39488	0
0.1567	0.78038	-15.0805	-16.7254	-2.9746	2.88519	1.69514	2.11598	56.7424	12.2765	0.3147
0.1573	0.130063	-7.14889	-25.2653	-5.72703	-0.186141	0.154104	-0.315146	22.2532	6.79073	0
0.1580	-0.78038	1.09581	-16.4151	-7.86233	-2.60598	-3.18481	-3.98435	-28.107	4.03577	0
0.1587	0.130063	8.12294	7.38753	-5.1099	-1.67527	-2.26019	-3.06142	-48.5427	-0.84582	0
0.1593	2.01598	7.80986	20.5078	-1.75267	0.465354	0.770519	0.292636	-33.8975	-20.9763	0
0.1600	1.36566	5.67041	20.5078	-2.36981	1.07031	1.07873	1.5082	-7.03732	-20.6863	0.3147
0.1607	0.455222	13.602	17.7596	-2.66603	0.465354	0.154104	0.607781	5.15648	-3.89077	0
0.1613	0.455222	16.0546	8.30358	-2.66603	-0.186141	-1.33557	-1.84585	-7.96718	-36.5394	-0.3147
0.1620	1.04051	14.837	-4.21089	0.691194	1.67527	-0.410943	-0.922927	-8.26304	-91.4694	0
0.1627	3.51171	16.3503	-9.39693	4.34465	2.88519	1.38693	1.21556	8.51664	-98.7918	0
0.1633	5.00744	2.01769	-12.7583	3.43128	1.67527	0.462311	0.292636	15.5328	-67.6656	-0.3147
0.1640	2.01598	-13.8629	-22.8275	1.60456	-0.465354	-3.18481	-1.84585	14.0112	-25.8579	-0.3147
0.1647	-2.60127	-11.7235	-27.0974	0.987419	-1.67527	-5.5991	-3.98435	9.1295	15.6356	-0.3147
0.1653	-1.04051	-7.14889	-17.3311	4.96178	0.139606	-3.49302	-1.84585	2.11331	36.6844	-0.3147
0.1660	0.130063	-8.05337	-7.56483	10.1457	4.09511	0.770519	2.43113	-3.67716	48.5984	0
0.1667	-0.78038	-8.36646	-3.908	11.0591	5.30503	2.61976	3.64669	-5.83274	57.7574	0
0.1673	-1.69082	-8.36646	-4.51378	7.40564	3.21094	0.462311	1.21556	-4.90288	36.6844	-0.3147
0.1680	-2.27611	-10.1928	-6.64877	1.29599	0.465354	-1.64377	-1.53071	-6.74146	0.0724989	-0.3147
0.1687	-1.04051	-7.14889	-3.908	-2.06124	-0.186141	0.154104	0.292636	-9.48876	-22.4988	0
0.1693	0.455222	0.800119	1.58832	-2.66603	0.139606	2.61976	2.74627	-8.26304	-31.0537	0
0.1700	1.69082	5.9835	5.25253	-2.66603	0.744566	3.85259	4.25447	-5.83274	-26.4862	0
0.1707	2.01598	3.53096	5.85831	-3.5794	-0.186141	2.31156	3.03891	-7.35432	-0.84582	0
0.1713	0.130063	-5.30514	4.33648	-2.36981	-1.39606	-0.102736	-0.630292	-4.29002	31.5128	0
0.1720	0.130063	-11.4104	2.80726	2.51792	-0.186141	0.154104	-0.630292	6.08633	53.1658	-1.2588
0.1727	0.130063	-5.00944	-0.243788	6.18371	2.88519	2.00335	1.82334	6.3822	64.4757	-1.2588
0.1733	-0.78038	9.34052	-0.849565	5.56658	3.21094	2.61976	3.03891	0.88759	55.0025	0.3147
0.1740	-1.36566	19.7073	0.975153	2.51792	0.744566	1.38693	1.5082	0.27473	31.8028	0
0.1747	-1.95095	18.8028	1.89121	0.691194	-0.791101	-0.410943	-2.13849	-1.24685	14.4273	0
0.1753	-0.78038	3.53096	5.85831	2.51792	0.465354	0.462311	-1.23807	1.20459	1.90914	0
0.1760	1.04051	-19.342	0.369376	4.65321	1.95449	2.92797	2.43113	10.3552	-1.44998	-0.3147
0.1767	1.69082	-30.9437	-21.6011	4.34465	1.67527	3.54439	3.64669	13.7154	2.82746	0
0.1773	2.60127	-20.577	-27.0974	0.987419	0.465354	0.462311	0.607781	2.40917	6.47656	0
0.1780	1.04051	0.173939	-11.5319	-2.66603	-1.39606	-2.8766	-3.37656	-7.65018	7.10489	0
0.1787	3.18655	16.6633	-2.99195	-1.14787	-1.67527	-0.719151	-2.13849	-1.85971	6.18657	0
0.1793	5.98291	25.8125	0.672265	2.51792	-0.791101	2.61976	2.43113	5.15648	4.95409	-0.3147
0.1800	4.09699	18.194	1.28543	1.60456	-0.465354	2.00335	2.43113	8.22078	0.676656	0
0.1807	0.78038	-9.58403	-9.69982	-1.75267	-0.791101	-0.719151	-0.630292	13.7154	-7.24989	0
0.1813	-1.95095	-32.1613	-24.3493	-2.9746	-0.465354	-2.8766	-2.74627	17.9843	-12.7356	0
0.1820	-2.27611	-28.8043	-20.0793	-1.14787	1.34953	-1.33557	-1.53071	8.83364	-15.1764	0
0.1827	-1.36566	-11.4104	4.33648	0.691194	3.21094	1.69514	1.82334	-8.5589	-24.0455	0
0.1833	0.130063	-1.33933	22.3399	-0.530738	2.28023	2.61976	3.03891	-7.96718	-37.4577	0
0.1840	1.04051	-5.61823	21.7267	-3.28317	-0.791101	0.154104	0.900417	0.27473	-49.3717	0
0.1847	-1.36566	-19.6551	17.1538	-7.24519	-3.53669	-3.49302	-2.74627	4.86061	-55.1716	0
0.1853	-0.455222	-23.0121	18.9859	-5.41846	-2.60598	-2.26019	-2.45364	16.7585	-24.9396	-0.3147
0.1860	2.01598	-9.58403	22.953	0.691194	-0.186141	0.770519	0.900417	21.6403	26.6312	-0.3147
0.1867	2.27611	-4.40065	18.9859	2.51792	0.465354	0.770519	1.21556	13.1025	31.1987	0
0.1873	2.60127	-21.1858	6.16858	0.0740564	-1.07031	-1.02736	-1.23807	2.11331	1.59497	0
0.1880	-0.455222	-40.406	4.94226	-3.28317	-3.21094	-3.49302	-4.27698	-9.17177	-15.8048	0
0.1887	0.455222	-31.5525	19.2888	-1.14787	-2.93173	-2.8766	-3.37656	-12.2361	-15.1764	0
0.1893	6.5682	-1.33933	18.6757	3.43128	-1.39606	-0.102736	-0.315146	-9.48876	2.82746	0
0.1900	4.42215	16.959	6.16858	2.51792	-0.186141	1.07873	0.900417	-16.2091	9.83568	0
0.1907	-3.51171	21.2379	-5.12694	-3.88796	-1.07031	-1.02736	-0.630292	-33.8975	-14.2581	-0.3147
0.1913	-7.47864	22.1598	-21.2982	-10.6024	-3.21094	-4.72585	-3.98435	-53.4245	-29.217	-0.3147
0.1920	-4.74731	11.7757	-26.1814	-10.2938	-2.60598	-1.95198	-2.13849	-54.9461	-15.1764	-0.3147
0.1927	2.27611	1.09581	-20.3822	-6.33183	-2.00102	2.31156	1.82334	-33.8975	-6.01741	-0.3147
0.1933	7.8038	-8.66216	-18.2472	-5.1099	-1.67527	2.31156	2.43113	-5.21988	-16.4089	0
0.1940	3.83687	-27.5867	-15.499	-6.6404	-1.07031	-1.33557	-0.922927	17.9843	-31.972	0
0.1947	-2.27611	-35.8314	-13.6669	-6.6404	-1.39606	-4.10943	-3.6692	28.0436	-46.3026	-0.3147
0.1953	-0.78038	-24.2297	-12.1451	-2.36981	-0.791101	-2.26019	-1.53071	21.0274	-40.2127	-0.3147
0.1960	1.04051	18.8028	-6.64877	3.12271	1.67527	0.154104	2.11598	-0.633993	-1.44998	0
0.1967	-0.78038	61.5222	-1.15984	6.18371	2.55945	1.07873	3.35405	-18.0265	28.7579	0
0.1973	-1.36566	47.7984	2.20148	4.65321	1.34953	-0.102736	1.21556	-22.9083	27.8396	0
0.1980	1.36566	18.8028	1.28543	3.12271	1.07031	-2.26019	-1.23807	-10.7145	23.8763	-0.3147
0.1987	6.89336	20.0204	0.975153	6.18371	2.28023	0.462311	1.21556	17.3714	29.9904	0
0.1993	6.89336	28.2651	4.94226	8.62758	2.88519	4.77722	4.56962	35.3768	36.6844	0
0.2000	4.09699	23.6731	2.50437	6.78851	2.55945	4.1608	4.25447	33.2424	36.6844	0
0.2007	3.83687	14.5239	-0.849565	0.987419	1.67527	0.770519	1.21556	24.3876	27.2354	0.3147
0.2013	2.01598	2.62648	-0.243788	-4.5051	-0.186141	-1.33557	-1.84585	17.6673	18.3905	0
0.2020	-2.27611	-15.985	4.63937	-4.5051	-0.465354	0.462311	-0.922927	10.6511	17.4722	-0.944101
0.2027	-7.8038	-31.5525	12.5736	-0.530738	1.07031	4.1608	2.74627	3.63489	18.3905	-0.629401
0.2033	-10.8603	-40.406	2.20148	1.29599	1.34953	5.34226	3.96183	6.69919	20.5172	0.3147
0.2040	-7.15348	-46.5113	-25.5756	-0.234512	1.34953	2.61976	1.82334	3.02203	18.9947	0
0.2047	-3.51171	-49.2595	-44.798	-2.9746	0.465354	-0.719151	-1.23807	-17.7307	6.79073	-0.3147
0.2053	-2.92642	-46.1982	-21.9114	-2.9746	-0.465354	0.154104	-1.53071	-25.3597	-7.56405	-0.3147
0.2060	-1.04051	-34.9095	38.5112	-0.530738	-0.186141	2.92797	1.5082	-23.2253	-18.2455	0
0.2067	1.36566	-27.291	67.5072	-0.839306	-0.186141	2.31156	2.11598	-23.8381	-43.2577	-0.3147
0.2073	2.27611	-37.049	46.4528	-3.88796	0.139606	-1.33557	-1.53071	-8.8759	-63.7023	-1.2588
0.2080	2.01598	-19.342	22.6428	-5.72703	-0.465354	-3.80123	-3.98435	15.8498	-40.5027	-0.944101
0.2087	2.92642	41.0844	12.2707	-5.1099	-0.465354	-1.02736	-0.922927	22.549	-12.1315	0.3147
0.2093	3.51171	59.6958	-2.68167	-5.72703	0.465354	2.00335	2.43113	26.2262	-13.654	0
0.2100	2.92642	26.1256	-24.6596	-3.88796	0.139606	2.00335	2.43113	34.7639	-15.1764	0
0.2107	4.42215	12.0888	-34.7288	3.43128	-1.07031	-0.102736	0.607781	14.6241	-20.3722	0.3147
0.2113	2.92642	22.7686	-38.0827	5.27035	-2.28023	-3.18481	-3.37656	-8.8759	-35.9353	0.3147
0.2120	-0.455222	33.1354	-36.8638	3.12271	-2.60598	-2.26019	-3.98435	10.3552	-35.3311	0
0.2127	-2.92642	45.9547	-14.2801	3.12271	-0.186141	0.462311	-0.315146	48.5005	-35.3311	0
0.2133	-5.3326	54.8081	13.7925	3.12271	1.34953	0.462311	1.21556	62.5328	-64.9348	0
0.2140	-6.24304	34.9791	19.2888	2.20935	-1.07031	-1.02736	-0.922927	36.2855	-76.8246	0
0.2147	-4.42215	-3.79187	14.4057	1.91312	-3.8159	-1.33557	-3.06142	-11.0103	-49.6617	0
0.2153	0.130063	-19.0463	16.5407	5.87514	-2.00102	2.92797	0	-32.6718	-5.72741	0
0.2160	4.74731	-18.7332	21.4238	9.83716	1.67527	7.19151	3.64669	-23.8381	58.6757	0
0.2167	6.24304	-21.7945	18.9859	10.1457	1.67527	7.19151	3.96183	-23.8381	99.5651	0
0.2173	3.83687	-23.6209	11.3546	8.01044	1.07031	3.23618	0.607781	-37.5535	84.9203	0
0.2180	-1.69082	-21.1858	8.90936	6.47994	1.67527	0.770519	-3.37656	-43.978	72.088	0
0.2187	-2.27611	-19.9508	15.3217	11.0591	3.21094	5.65047	-1.53071	-35.1232	84.9203	0
0.2193	1.36566	-18.7332	15.9349	13.8115	3.49015	11.7633	3.64669	-27.79	88.5694	0
0.2200	1.36566	-7.44458	1.28543	11.0591	3.21094	12.6879	5.49254	-32.3759	73.6105	0.3147
0.2207	-0.130063	-7.44458	-17.3311	5.56658	0.465354	9.65717	2.43113	-43.661	45.5534	0
0.2213	-0.78038	-19.6551	-28.0135	-1.4441	-2.28023	6.57509	-2.13849	-50.9942	4.66409	-0.3147
0.2220	-2.60127	-5.30514	-31.6777	-1.14787	-0.465354	7.80792	-1.23807	-32.6718	-29.217	0
0.2227	-5.3326	19.4116	-24.9625	4.65321	2.55945	9.65717	2.74627	3.63489	-21.8947	0
0.2233	-4.74731	23.0643	-2.99195	6.78851	2.28023	8.42434	3.96183	25.2963	6.18657	0
0.2240	-3.18655	13.9151	9.21963	4.04842	-0.791101	5.03406	1.21556	28.6565	7.10489	0.3147
0.2247	-4.09699	-5.91392	4.94226	-0.839306	-2.60598	-0.719151	-2.13849	30.1781	5.87241	0
0.2253	-4.74731	-20.8727	7.69041	-5.72703	-2.28023	-3.18481	-0.922927	32.6295	14.7173	-0.3147
0.2260	-5.00744	-9.89712	1.89121	-8.77569	-1.39606	-3.18481	2.74627	25.2963	11.9865	-0.3147
0.2267	-3.18655	10.8712	-12.1451	-8.46712	-0.791101	-5.90731	3.96183	1.50045	4.95409	-0.3147
0.2273	0.130063	14.2282	-1.15984	-7.55376	-2.28023	-12.3283	1.21556	-30.8543	1.30498	-0.3147
0.2280	2.60127	10.245	17.4567	-7.86233	-3.8159	-16.9	-3.37656	-56.7846	-2.68246	0
0.2287	4.42215	19.7073	17.7596	-2.9746	-2.60598	-13.8693	-2.74627	-52.2199	-2.97245	0
0.2293	6.5682	28.5608	12.2707	4.96178	1.07031	-8.98939	1.5082	-19.8651	4.95409	0.3147
0.2300	6.5682	27.6563	8.60647	8.62758	5.63078	-6.52373	2.74627	3.33903	15.3214	0
0.2307	2.01598	19.0985	7.08464	7.40564	7.77141	-5.90731	0.900417	9.1295	22.668	0
0.2313	-3.18655	-8.05337	4.63937	1.29599	4.09511	-7.14014	-2.13849	12.7855	23.5621	0.3147
0.2320	-2.60127	-35.8314	3.42042	-4.19653	-0.186141	-4.72585	-1.53071	9.1295	15.9497	-0.629401
0.2327	2.01598	-33.3789	12.8765	-2.36981	0.465354	0.154104	3.03891	-4.90288	8.3132	-1.2588
0.2333	5.3326	-17.2199	21.7267	0.987419	1.07031	1.69514	4.25447	-13.4618	7.99904	0
0.2340	5.3326	-17.8287	22.3399	-0.839306	-1.67527	-1.95198	-0.922927	-18.3435	8.62736	-0.629401
0.2347	1.36566	-22.699	21.1209	-2.9746	-2.93173	-5.03406	-3.98435	-25.3597	5.26825	-0.944101
0.2353	-2.27611	-3.47878	12.5736	0.382625	-1.07031	-2.5684	-1.23807	-15.8921	-0.531658	0.3147
0.2360	-2.27611	28.2651	5.25253	4.04842	1.67527	1.07873	1.5082	8.51664	-22.813	0
0.2367	0.130063	34.0572	8.30358	4.96178	3.21094	1.69514	2.43113	26.2262	-31.0537	-0.3147
0.2373	1.36566	5.67041	6.47147	4.65321	1.95449	0.462311	1.82334	30.4951	10.1498	0
0.2380	-1.36566	-29.4131	-6.043	0.691194	-0.186141	-1.64377	-1.23807	19.5058	34.872	0
0.2387	-1.69082	-46.1982	-16.1122	-0.839306	-0.465354	0.462311	-0.922927	8.83364	10.4398	0
0.2393	0.78038	-52.9122	-9.09404	-1.75267	-0.186141	3.23618	2.43113	6.3822	-10.9232	0
0.2400	0.455222	-59.0175	4.03359	-2.66603	-0.465354	2.00335	2.11598	6.69919	-18.2455	-0.3147
0.2407	-0.78038	-57.5042	0.975153	-0.839306	-0.186141	-0.102736	-0.630292	18.2801	-16.4089	0
0.2413	-1.95095	-53.2253	-11.8422	-0.234512	-0.465354	-1.33557	-2.45364	31.4038	-1.13582	0
0.2420	-2.27611	-30.3349	-19.4661	2.20935	0.139606	0.154104	0	30.7909	12.2765	0
0.2427	-3.18655	46.8765	-23.1303	4.34465	0.465354	1.69514	1.82334	24.7046	11.9865	0
0.2433	-2.27611	110.956	-22.2143	3.73985	-0.186141	0.770519	0	19.8017	2.51329	-0.3147
0.2440	-1.04051	83.4907	-7.8751	3.12271	0.139606	-0.719151	-1.53071	1.50045	-17.0131	0
0.2447	-2.60127	31.309	5.85831	3.73985	1.07031	-2.8766	-3.6692	-25.6556	-34.727	0
0.2453	-0.78038	14.5239	5.25253	5.87514	2.55945	-2.5684	-3.06142	-27.79	-19.768	-0.3147
0.2460	2.01598	13.3063	3.42042	5.87514	2.55945	-0.102736	0.292636	-11.0103	3.43161	0
0.2467	1.69082	13.3063	3.42042	1.91312	1.95449	0.462311	1.21556	-2.47257	-2.97245	0
0.2473	1.04051	11.1669	-0.849565	-6.6404	1.07031	-0.410943	-0.922927	-1.85971	-20.058	-0.3147
0.2480	0.130063	8.12294	-4.51378	-13.9596	-2.00102	-1.02736	-2.74627	-3.08543	-23.7313	-0.3147
0.2487	1.04051	9.02743	-2.37878	-13.9596	-2.93173	1.38693	-0.922927	-0.929856	-4.49493	0
0.2493	1.69082	10.245	-0.243788	-10.911	-1.07031	3.23618	2.11598	1.50045	19.5989	0
0.2500	1.69082	9.34052	-0.243788	-7.24519	0.139606	3.23618	3.03891	2.40917	21.4355	0
0.2507	1.04051	6.59228	-1.76562	-6.6404	-0.186141	1.07873	1.21556	2.11331	6.18657	-0.3147
0.2513	-0.78038	3.84405	-4.81667	-7.86233	-1.67527	-1.95198	-2.45364	-5.21988	-4.49493	0
0.2520	1.04051	4.15714	-3.29484	-4.19653	-0.791101	-0.102736	-0.922927	-11.0103	-5.72741	0
0.2527	3.18655	6.59228	0.369376	0.0740564	0.744566	3.23618	2.74627	-12.8489	-2.3683	0
0.2533	2.60127	7.20107	0.975153	0.987419	0.744566	3.54439	3.35405	-14.9834	0.0724989	-0.3147
0.2540	0.78038	5.9835	0.369376	-0.839306	-0.791101	0.462311	0.900417	-4.29002	0.676656	-0.3147
0.2547	-2.92642	1.4089	-2.68167	-2.66603	-1.39606	-2.8766	-2.45364	15.237	-0.84582	-0.3147
0.2553	-2.92642	-3.18308	-4.51378	-2.06124	-1.07031	-1.64377	-1.84585	17.3714	-6.01741	0
0.2560	0.455222	-1.65242	-0.243788	0.987419	0.465354	2.61976	1.5082	11.2639	-11.8173	0
0.2567	2.92642	0.800119	4.63937	2.51792	1.07031	4.1608	3.35405	12.7855	-13.364	-0.3147
0.2573	3.18655	-0.121757	4.63937	-0.234512	-0.465354	2.61976	1.82334	9.4465	-23.4171	-0.3147
0.2580	1.69082	1.4089	0.975153	-3.28317	-2.28023	-0.410943	-2.13849	-2.15558	-47.5351	0
0.2587	0.455222	5.06162	-1.76562	-1.75267	-1.67527	-0.719151	-2.45364	-4.60702	-39.8985	0
0.2593	2.92642	5.37471	-1.46273	1.29599	0.139606	2.00335	0.607781	4.54362	0.990818	0
0.2600	5.98291	1.09581	-3.29484	1.29599	-0.186141	2.61976	0	13.1025	13.509	-0.3147
0.2607	5.00744	-3.18308	-6.95905	-2.66603	-0.791101	-0.410943	-2.74627	18.5971	-5.72741	-0.3147
0.2613	0.78038	-5.91392	-7.26194	-8.77569	-1.07031	-3.49302	-4.88476	27.1349	-23.1271	-0.3147
0.2620	-1.36566	-5.00944	1.28543	-7.86233	-0.465354	-1.95198	-3.37656	30.7909	-29.217	-1.2588
0.2627	-0.130063	3.53096	11.0517	-0.839306	2.28023	2.00335	1.21556	20.4146	-10.0048	-0.944101
0.2633	-1.04051	15.1327	5.85831	2.51792	3.8159	3.54439	3.03891	1.20459	28.4679	-0.3147
0.2640	-2.92642	20.0204	-6.64877	0.691194	1.34953	0.462311	1.5082	-15.8921	43.4026	-1.2588
0.2647	-2.60127	14.2282	-8.78377	-3.5794	-2.00102	-2.5684	-0.922927	-20.161	28.1537	-0.3147
0.2653	-0.78038	11.7757	-1.46273	-3.88796	-2.60598	-1.02736	-0.630292	-13.1448	9.54568	0.3147
0.2660	1.36566	15.7415	3.11754	-1.4441	-1.39606	2.31156	2.11598	-9.78463	-5.72741	0
0.2667	2.60127	10.8712	1.28543	-0.530738	-0.791101	2.00335	1.82334	-12.2361	-20.058	-0.3147
0.2673	3.18655	3.53096	-2.68167	-0.530738	-1.39606	-0.410943	-0.630292	-15.8921	-36.8536	-0.3147
0.2680	2.27611	7.20107	0.672265	-0.234512	-1.39606	-2.26019	-2.45364	-24.4299	-54.2533	0
0.2687	3.51171	12.9932	18.3728	4.34465	1.07031	0.462311	0.607781	-27.1772	-32.2862	0
0.2693	2.60127	3.53096	35.1572	8.31901	2.88519	2.92797	4.56962	-8.5589	21.7497	-0.3147
0.2700	-1.36566	-17.2199	37.6025	7.09708	1.67527	2.00335	3.64669	23.1619	33.0353	0
0.2707	-3.51171	-19.342	29.9712	3.43128	0.465354	-0.102736	0.607781	35.0809	6.18657	0
0.2713	-4.74731	-2.86999	10.4386	-0.530738	-0.791101	-2.26019	-2.45364	25.0005	3.43161	0
0.2720	-1.95095	5.67041	-14.2801	0.987419	0.465354	-0.719151	-0.630292	25.9092	28.7579	0
0.2727	4.42215	-0.434847	-16.4151	4.34465	2.88519	1.38693	2.11598	30.4951	36.0803	0.3147
0.2733	6.89336	-15.3762	10.1357	3.73985	1.95449	1.69514	2.11598	10.9681	21.1213	0.3147
0.2740	1.69082	-25.1516	32.7194	1.29599	0.465354	0.462311	0.900417	-15.8921	10.4398	0
0.2747	-4.42215	-22.4033	30.2741	-0.234512	-0.791101	-1.02736	-1.23807	-14.9834	7.99904	0
0.2753	-2.92642	-22.0902	15.0188	0.382625	-1.07031	0.154104	-0.630292	-1.54272	8.91736	0
0.2760	-1.36566	-33.692	-4.51378	1.29599	-0.186141	2.31156	1.21556	9.1295	7.99904	0
0.2767	-3.83687	-43.763	-17.634	0.987419	0.744566	2.31156	1.82334	41.7801	0.0724989	0
0.2773	-5.3326	-51.6946	-17.3311	-1.14787	0.465354	-0.719151	-0.630292	75.3606	-8.1682	0
0.2780	-4.74731	-70.9323	-22.8275	-3.5794	-0.465354	-4.41764	-4.88476	76.2694	-2.05413	-0.3147
0.2787	-1.36566	-91.057	-33.5098	-2.36981	-0.465354	-1.95198	-3.06142	48.1835	11.9865	0
0.2793	-1.36566	-88.9349	-33.8127	-0.530738	-1.07031	2.00335	1.21556	1.79631	18.0764	0.3147
0.2800	-5.91788	-87.7	-24.3493	0.691194	-1.07031	2.61976	2.43113	-27.79	10.4398	0.3147
0.2807	-6.5682	-105.111	-15.1961	0.0740564	-1.07031	0.154104	0.292636	-36.6448	-9.69068	0
0.2813	-1.36566	-106.625	-16.4151	-2.66603	-0.465354	-2.26019	-2.74627	-60.4407	-27.3804	0
0.2820	4.74731	-55.6604	-20.0793	-1.4441	1.34953	-1.02736	-0.922927	-82.1232	-34.727	0
0.2827	5.3326	40.7713	-8.78377	2.82649	2.88519	2.00335	3.03891	-76.9245	-41.131	0
0.2833	2.92642	107.303	6.16858	2.51792	2.28023	2.92797	3.64669	-56.4888	-47.8492	0
0.2840	2.01598	110.051	5.55542	0.987419	0.744566	1.69514	2.11598	-25.6556	-53.625	-0.3147
0.2847	0.130063	89.5959	-1.46273	-1.14787	-1.67527	0.154104	-0.315146	4.54362	-62.1799	-0.3147
0.2853	-0.78038	72.5151	-0.243788	-1.75267	-3.21094	0.154104	0	11.2639	-57.9024	-0.3147
0.2860	1.04051	57.2433	4.63937	0.987419	-2.28023	3.54439	3.35405	-3.67716	-26.7762	-0.3147
0.2867	2.60127	44.7371	3.11754	2.82649	-0.791101	4.77722	4.56962	-20.7738	6.47656	-0.3147
0.2873	2.60127	39.5537	-6.64877	0.0740564	-1.07031	2.31156	2.43113	-21.3867	13.509	0
0.2880	0.455222	37.1012	-16.7254	-3.88796	-2.28023	-0.410943	-0.922927	-11.9191	0.0724989	0
0.2887	0.455222	36.4924	-15.8093	-2.06124	-0.465354	0.154104	-0.922927	-2.15558	-11.5273	0
0.2893	3.18655	30.7002	-7.26194	2.51792	0.744566	3.54439	2.74627	14.3282	6.47656	0
0.2900	3.51171	17.2721	0.0591002	2.82649	-0.186141	5.03406	4.25447	26.522	55.3166	0
0.2907	1.69082	7.51416	3.72331	-1.14787	-0.186141	2.31156	2.11598	13.3984	68.7289	-0.3147
0.2913	-0.455222	3.84405	-1.76562	-4.80133	-1.39606	-1.33557	-1.53071	-11.9191	22.958	-0.3147
0.2920	0.455222	8.73173	-2.68167	-2.36981	-1.39606	0.462311	0	-10.7145	-6.33157	-0.3147
0.2927	5.3326	28.5608	4.33648	2.20935	0.139606	3.54439	3.03891	7.60792	-4.80909	0
0.2933	7.47864	47.4853	9.21963	2.82649	0.744566	3.23618	2.74627	3.33903	-18.2455	0
0.2940	5.00744	30.3871	7.08464	1.29599	0.465354	1.07873	1.21556	-17.1178	-33.8086	-0.944101
0.2947	3.83687	-2.86999	2.80726	0.382625	-0.186141	-1.33557	-1.23807	-37.8705	-8.1682	-0.944101
0.2953	4.74731	-0.121757	15.9349	3.12271	0.744566	1.38693	-0.630292	-55.5589	31.1987	0
0.2960	3.18655	14.837	32.4091	2.20935	1.34953	3.85259	1.82334	-51.9029	25.1088	0
0.2967	2.27611	12.6975	38.8214	-2.66603	0.744566	3.23618	2.43113	-24.7469	9.54568	0
0.2973	1.36566	6.27919	34.8543	-6.33183	-0.465354	0.462311	0.607781	2.72617	25.3988	0
0.2980	-6.5682	0.800119	6.77436	-9.08426	-2.60598	-2.8766	-3.06142	37.2154	45.8434	0
0.2987	-12.356	-5.00944	-20.3822	-6.02326	-2.00102	-1.33557	-2.13849	72.9092	51.6434	0
0.2993	-9.29953	-5.61823	-22.2143	-0.234512	1.07031	1.38693	1.21556	56.4254	36.6844	0
0.3000	-4.09699	-2.86999	-16.4151	0.691194	1.67527	1.38693	1.21556	1.20459	11.0682	0
0.3007	-2.27611	0.173939	-14.583	-1.75267	-0.186141	-1.02736	-1.84585	-22.6124	3.11745	0
0.3013	-4.09699	5.06162	-11.8422	-3.88796	-2.00102	-2.8766	-4.88476	-7.03732	13.509	-0.3147
0.3020	-2.60127	11.7757	-7.56483	-0.530738	-0.186141	-0.719151	-2.45364	12.1727	18.9947	-0.3147
0.3027	1.04051	18.8028	-6.043	3.73985	2.88519	2.00335	1.5082	17.6673	14.4273	0
0.3033	1.69082	22.7686	-5.42983	4.04842	3.21094	1.69514	1.82334	15.237	8.62736	-0.3147
0.3040	-0.455222	10.8712	-2.68167	1.29599	2.28023	-2.26019	-0.922927	7.90378	6.79073	-0.944101
0.3047	-1.69082	-15.985	-2.68167	-2.66603	0.139606	-5.90731	-4.59213	3.95189	5.87241	-0.3147
0.3053	-1.69082	-24.8385	-1.76562	-4.5051	-1.39606	-4.72585	-3.98435	6.99506	-12.1315	0.3147
0.3060	-0.455222	-9.58403	3.11754	-2.36981	-0.186141	-0.719151	-0.315146	7.29092	-49.0576	-0.3147
0.3067	0.130063	0.173939	4.63937	0.382625	-0.186141	0.770519	2.11598	7.29092	-58.8207	-0.3147
0.3073	0.130063	-1.65242	1.28543	1.29599	-2.00102	-0.410943	0.607781	5.76934	-32.8903	-0.3147
0.3080	-0.130063	-5.00944	-0.849565	0.0740564	-3.8159	-1.33557	-2.13849	0.591727	-21.6047	-0.3147
0.3087	0.78038	-10.5059	0.369376	-0.530738	-3.8159	-0.102736	-1.23807	1.79631	-20.6863	-0.3147
0.3093	2.92642	-17.2199	2.50437	0.382625	-2.28023	2.31156	1.5082	3.02203	-10.609	-0.3147
0.3100	2.60127	-20.2639	3.11754	0.987419	-0.791101	2.31156	1.82334	-1.54272	-13.654	-0.3147
0.3107	-1.04051	-22.0902	-1.15984	-1.4441	-1.07031	-0.719151	-1.23807	-0.33813	-18.8497	-0.3147
0.3113	-4.42215	-21.7945	-6.34588	-4.5051	-1.07031	-2.8766	-3.37656	1.20459	1.90914	0
0.3120	-3.51171	-16.9069	-2.99195	-3.28317	-0.186141	-0.410943	-0.315146	-6.74146	25.7129	0.3147
0.3127	0.130063	-11.4104	7.69041	0.0740564	1.34953	3.85259	3.35405	-10.3975	27.5496	0
0.3133	2.60127	-3.47878	8.60647	0.987419	2.28023	3.54439	3.03891	-6.42446	10.4398	0
0.3140	1.36566	5.37471	0.0591002	-0.530738	1.95449	-0.102736	0.292636	-6.1286	-5.72741	0
0.3147	-0.130063	1.09581	3.11754	-3.5794	0.465354	-2.5684	-2.45364	-5.21988	0.990818	0
0.3153	-1.04051	-8.66216	14.7086	-2.9746	0.744566	-1.02736	-1.53071	4.24775	23.8763	-0.3147
0.3160	-1.69082	-8.36646	15.3217	1.91312	2.88519	1.38693	1.5082	15.8498	45.8434	-0.3147
0.3167	-0.130063	-3.18308	9.52252	2.82649	1.95449	2.31156	1.82334	18.893	36.3944	0
0.3173	-0.130063	-1.33933	6.77436	0.987419	-0.791101	1.38693	0	19.5058	1.59497	-0.3147
0.3180	-4.09699	-3.18308	-1.76562	-2.36981	-2.60598	-1.95198	-2.13849	22.2532	10.1498	-0.3147
0.3187	-4.42215	0.800119	-9.69982	-3.28317	-2.00102	0.462311	-0.315146	25.2963	42.4843	-0.3147
0.3193	-2.27611	10.5581	-6.64877	-0.234512	0.139606	5.03406	3.64669	19.5058	33.9536	0
0.3200	-1.69082	12.6975	-4.81667	1.29599	1.67527	4.1608	3.96183	-0.0211331	0.0724989	0
0.3207	-1.95095	9.02743	-8.48088	-0.530738	0.744566	0.770519	1.82334	-12.2361	-20.6863	0.3147
0.3213	-3.18655	7.51416	-10.313	-5.1099	-1.39606	-2.5684	-1.84585	-13.1448	-16.6989	0
0.3220	0.130063	6.88798	-6.34588	-6.93662	-0.186141	-1.95198	-2.13849	-9.48876	-19.4539	-0.944101
0.3227	3.51171	-1.65242	-2.37878	-7.24519	1.67527	1.69514	1.82334	2.11331	-42.3393	-0.944101
0.3233	2.01598	-10.1928	-2.07589	-8.46712	1.07031	3.54439	3.96183	9.4465	-64.6207	0.3147
0.3240	-0.130063	-4.69635	-1.15984	-8.46712	0.744566	2.61976	2.74627	1.79631	-82.9387	0
0.3247	-2.60127	-0.121757	0.672265	-6.02326	0.465354	-0.410943	-0.315146	-14.3705	-60.3432	0
0.3253	-0.455222	-4.40065	2.80726	-1.75267	0.465354	0.462311	0.292636	-22.2954	13.7989	0
0.3260	2.27611	-5.61823	4.03359	0.0740564	1.67527	2.92797	2.43113	-9.78463	56.8391	0
0.3267	0.130063	-1.94812	4.63937	-1.75267	1.67527	2.31156	2.43113	6.08633	43.1127	0
0.3273	-1.36566	2.01769	2.20148	-3.28317	1.07031	0.154104	0.900417	7.90378	19.5989	0
0.3280	-1.36566	4.15714	-1.46273	0.382625	-0.791101	-1.33557	-1.84585	11.8768	-4.20493	0
0.3287	1.04051	8.73173	1.28543	11.6762	-1.67527	1.07873	-1.23807	21.0274	-14.8864	0
0.3293	5.00744	14.5239	3.11754	18.9955	-1.07031	4.77722	2.11598	10.6511	6.18657	0
0.3300	6.5682	9.9493	-1.15984	16.2554	-1.07031	5.34226	3.35405	-7.35432	22.3538	0
0.3307	3.83687	-4.69635	-5.42983	9.83716	-1.39606	1.69514	0.607781	-7.35432	8.3132	0
0.3313	0.455222	-9.58403	-6.34588	4.96178	-0.791101	-2.8766	-3.6692	3.33903	-6.01741	0
0.3320	0.455222	-5.91392	2.50437	5.27035	1.07031	-1.33557	-2.74627	12.4897	-5.12325	0
0.3327	-0.455222	-9.27094	11.6575	9.54094	1.95449	3.54439	1.21556	16.4627	11.9865	0
0.3333	-2.60127	-12.9411	8.00069	11.6762	1.67527	5.34226	2.74627	17.6673	30.9087	-0.3147
0.3340	-3.51171	-15.6893	0.369376	8.9238	0.139606	3.54439	0.900417	18.893	26.0029	-0.3147
0.3347	-4.09699	-14.4717	-4.21089	4.65321	-0.186141	1.07873	-1.53071	13.1025	16.5539	0
0.3353	-2.60127	-4.08756	-4.21089	3.73985	0.744566	3.23618	-0.630292	-7.03732	19.5989	0
0.3360	1.04051	-1.65242	-0.849565	4.04842	1.34953	8.11613	2.11598	-33.2846	24.4804	0
0.3367	2.01598	-5.61823	0.672265	2.82649	1.07031	9.34896	1.5082	-51.29	29.9904	-0.3147
0.3373	1.04051	-3.18308	-0.243788	0.987419	-0.791101	7.19151	-0.630292	-58.0104	33.9536	-0.3147
0.3380	1.04051	-5.91392	-3.908	-2.06124	-2.93173	5.34226	-1.84585	-45.4996	26.9212	0
0.3387	3.83687	-6.8358	-9.39693	-1.14787	-2.00102	7.49972	-0.315146	-4.29002	11.9865	0.3147
0.3393	5.65775	7.51416	-10.9262	3.43128	0.744566	10.8386	3.35405	38.737	3.74577	-0.3147
0.3400	6.89336	19.4116	-11.8422	4.65321	1.34953	10.5304	4.25447	56.4254	5.87241	-0.3147
0.3407	5.98291	13.9151	-20.0793	0.382625	-0.465354	6.57509	1.5082	50.339	6.18657	0
0.3413	0.78038	-3.47878	-30.4514	-5.41846	-2.28023	2.31156	-2.45364	29.5863	-0.531658	-0.3147
0.3420	0.78038	-20.577	-27.0974	-6.6404	-1.39606	0.154104	-1.53071	6.69919	-1.76414	-0.3147
0.3427	7.15348	-30.0218	-16.1122	-3.28317	0.465354	-1.33557	3.03891	-17.7307	4.03577	0
0.3433	12.0309	-36.7359	-27.4003	-0.234512	1.07031	-5.2909	3.64669	-32.9888	6.18657	0
0.3440	9.62469	-50.7901	-47.2432	-1.14787	1.07031	-12.3283	0.607781	-21.6826	4.34993	0.3147
0.3447	-2.27611	-65.1227	-29.2324	-4.19653	0.744566	-18.4411	-3.06142	-7.35432	3.43161	0
0.3453	-11.4456	-63.9051	16.2378	-2.66603	0.744566	-17.5165	-2.13849	-14.0535	3.43161	0
0.3460	-7.15348	-14.1586	51.3285	1.60456	1.34953	-12.0201	1.82334	-28.107	2.82746	0
0.3467	0.455222	65.8011	55.303	2.20935	1.34953	-8.98939	2.43113	-28.4029	-1.44998	0
0.3473	0.455222	69.4538	29.0551	0.691194	-0.186141	-8.98939	-0.315146	-9.48876	-10.0048	0
0.3480	-2.92642	5.67041	15.3217	-1.4441	-1.67527	-9.29759	-3.98435	19.21	-13.654	0
0.3487	-1.95095	-16.9069	25.3909	-0.530738	-1.39606	-5.5991	-2.45364	39.0328	-6.01741	0
0.3493	1.69082	-7.75767	18.3728	1.29599	0.465354	-0.719151	1.82334	22.866	1.59497	0
0.3500	1.36566	-17.2199	7.38753	-0.839306	1.07031	-0.719151	2.11598	-14.0535	0.0724989	-0.3147
0.3507	-2.60127	-21.4815	8.30358	-4.5051	-0.791101	-3.18481	-0.315146	-21.9996	-13.364	-0.3147
0.3513	-6.89336	-0.121757	-5.12694	-5.41846	-2.00102	-5.2909	-3.37656	-10.3975	-26.7762	0
0.3520	-8.38908	12.0888	-13.364	-1.4441	-1.07031	-4.10943	-3.06142	-10.3975	-23.1271	-0.3147
0.3527	-8.71424	5.37471	-0.243788	2.51792	0.465354	-1.33557	0	-20.478	-30.4495	-1.2588
0.3533	-6.5682	9.9493	15.9349	3.73985	1.67527	0.154104	1.5082	-37.2577	-42.6535	-0.944101
0.3540	-3.18655	15.1327	22.3399	4.96178	1.67527	-0.719151	0.292636	-47.0211	-6.64573	0
0.3547	-4.09699	8.73173	19.902	3.43128	-0.186141	-4.72585	-3.37656	-37.5535	30.5945	0
0.3553	-3.51171	7.51416	20.5078	2.20935	-0.465354	-3.80123	-3.98435	-0.0211331	22.958	0
0.3560	0.78038	12.9932	23.5588	5.56658	0.139606	2.31156	0.900417	33.8552	19.3089	0
0.3567	3.18655	13.9151	21.7267	7.09708	-0.465354	3.54439	3.03891	26.522	26.9212	-0.3147
0.3573	2.01598	15.7415	13.1867	2.82649	-1.07031	0.462311	0.292636	12.4897	16.8681	0
0.3580	-1.36566	22.7686	-0.243788	-3.28317	-0.791101	-2.8766	-3.37656	9.1295	0.676656	-0.3147
0.3587	0.455222	16.0546	-1.15984	-4.80133	0.465354	-0.719151	-1.53071	4.24775	-2.68246	-0.3147
0.3593	3.51171	-0.730543	4.63937	-4.19653	0.465354	2.92797	2.74627	7.29092	-3.57661	-0.3147
0.3600	1.36566	-5.61823	-1.76562	-6.33183	0.139606	2.92797	3.35405	14.0112	-13.654	-0.3147
0.3607	0.130063	2.62648	-6.34588	-8.15855	0.139606	1.38693	1.21556	14.0112	-22.4988	-0.3147
0.3613	0.130063	12.0888	-2.68167	-9.08426	-1.07031	-1.33557	-1.84585	7.90378	-24.3354	-0.3147
0.3620	3.18655	17.5852	6.47147	-5.41846	-0.465354	-0.719151	-1.23807	-0.33813	-21.2905	0
0.3627	6.5682	16.959	15.3217	0.691194	2.28023	2.61976	2.43113	-5.83274	-25.5679	-0.3147
0.3633	2.92642	12.6975	12.8765	1.91312	2.88519	3.54439	3.03891	-5.51574	-37.4577	-0.3147
0.3640	-2.92642	6.27919	4.63937	0.382625	1.67527	1.69514	1.21556	-3.3813	-56.09	0
0.3647	-5.91788	-1.65242	-3.59773	0.0740564	0.744566	-1.02736	-1.23807	1.50045	-84.7753	-0.3147
0.3653	-5.00744	-0.121757	-8.17799	6.78851	2.55945	0.154104	0	6.99506	-46.0126	-0.3147
0.3660	-1.69082	9.02743	-7.56483	14.1201	4.70007	2.92797	3.35405	3.63489	52.8758	-0.3147
0.3667	-1.04051	8.73173	-5.42983	12.8982	4.09511	1.07873	3.03891	-2.47257	79.1204	0
0.3673	-1.36566	2.01769	-5.42983	5.56658	2.55945	-1.33557	0	-3.08543	40.9619	0
0.3680	-1.69082	-0.121757	-6.043	-1.4441	1.07031	-1.64377	-1.53071	0.27473	17.7864	0
0.3687	-0.455222	0.800119	-2.99195	-4.80133	-0.465354	0.770519	0	5.15648	4.03577	0
0.3693	2.01598	0.173939	1.58832	-4.5051	-1.67527	2.61976	2.11598	3.95189	-16.6989	0
0.3700	3.18655	0.487029	4.33648	-2.36981	-1.67527	3.23618	2.74627	-0.633993	-31.0537	0
0.3707	2.60127	-4.69635	-0.546677	-2.9746	-2.00102	1.69514	0.607781	-1.85971	-20.058	0
0.3713	1.04051	-16.5938	-8.78377	-3.28317	-2.60598	-1.33557	-3.06142	-1.54272	11.0682	0.3147
0.3720	0.78038	-23.3078	-6.64877	0.987419	-0.791101	-0.719151	-2.45364	0.88759	27.5496	0.3147
0.3727	-0.130063	-22.0902	0.975153	3.73985	1.34953	2.31156	0.607781	4.54362	9.54568	-0.3147
0.3733	-1.36566	-18.7332	4.33648	1.60456	1.07031	2.61976	0.900417	5.47347	-11.8173	-0.3147
0.3740	-1.04051	-19.0463	0.369376	-3.5794	-1.39606	-0.102736	-2.13849	0.88759	-8.48237	0.3147
0.3747	-1.95095	-15.6893	-5.42983	-7.24519	-2.60598	-3.18481	-5.19991	-5.83274	-0.531658	0.3147
0.3753	-1.04051	8.73173	-5.42983	-5.72703	-0.791101	-1.64377	-3.98435	-7.65018	-4.80909	0
0.3760	1.36566	33.7441	-0.243788	-2.36981	0.465354	2.00335	0	-4.29002	-8.77236	0
0.3767	0.455222	30.0914	6.77436	-2.06124	-0.791101	2.61976	1.5082	-0.0211331	-17.9314	0
0.3773	-1.36566	11.7757	8.90936	-5.72703	-3.21094	-0.410943	-1.23807	2.40917	-24.6496	0
0.3780	-1.69082	1.7046	4.94226	-6.93662	-5.02582	-2.8766	-4.88476	3.02203	-7.24989	-0.3147
0.3787	-0.78038	4.15714	3.11754	-2.9746	-2.60598	-0.719151	-3.98435	5.15648	-1.13582	-0.3147
0.3793	0.455222	12.0888	1.28543	-2.36981	0.744566	2.00335	-0.315146	6.69919	-22.813	0
0.3800	1.36566	14.837	-1.15984	-6.33183	0.139606	-0.102736	-0.630292	6.69919	-34.4128	0
0.3807	1.69082	16.959	-2.99195	-8.77569	-0.186141	-3.49302	-3.06142	3.02203	-40.8169	0
0.3813	2.27611	18.4897	-6.64877	-12.4415	0.465354	-5.5991	-5.80769	-10.3975	-70.4206	-0.3147
0.3820	5.3326	13.3063	4.03359	-11.8243	-0.186141	-2.8766	-4.88476	-17.1178	-94.8285	-1.2588
0.3827	6.5682	14.2282	29.358	-4.5051	-0.791101	3.23618	2.11598	-8.8759	-54.2533	-0.629401
0.3833	5.65775	19.7073	42.1754	-2.66603	-2.28023	5.34226	5.78518	8.83364	19.913	0
0.3840	1.36566	9.9493	33.3251	-8.46712	-3.8159	2.92797	4.25447	46.366	47.6801	0
0.3847	-5.3326	-3.79187	10.4386	-11.2196	-3.53669	0.462311	1.5082	75.3606	51.9575	0
0.3853	-6.89336	-12.3323	-8.48088	-5.41846	-1.07031	2.31156	2.43113	57.0382	57.4433	0
0.3860	-3.83687	-23.0121	-12.448	0.987419	1.34953	5.34226	6.10033	10.6511	54.0841	-0.3147
0.3867	-0.130063	-23.6209	-7.8751	3.73985	1.34953	5.03406	7.31589	-17.1178	54.7125	-0.3147
0.3873	1.69082	-12.9411	-8.17799	2.82649	1.67527	3.23618	5.49254	-20.161	44.6351	0
0.3880	-1.95095	-3.47878	-17.634	0.382625	1.67527	1.07873	2.11598	-18.3435	26.6312	0
0.3887	-2.60127	0.487029	-20.6925	6.78851	2.28023	2.00335	2.11598	-12.8489	26.0029	0
0.3893	0.455222	-2.5569	-17.634	15.6383	2.55945	4.1608	3.96183	-12.2361	28.1537	-0.3147
0.3900	1.36566	-4.40065	-20.0793	14.7249	2.88519	3.54439	4.25447	-18.3435	19.5989	-0.3147
0.3907	0.455222	-0.730543	-23.7435	9.83716	1.67527	0.770519	2.43113	-18.9353	5.87241	0
0.3913	-2.27611	-1.65242	-21.2982	5.56658	0.465354	-2.26019	-0.922927	-14.9834	-7.85404	0
0.3920	-1.04051	-3.18308	-11.229	8.62758	1.67527	-0.410943	-0.315146	-5.83274	-7.24989	-0.3147
0.3927	1.04051	2.92217	-2.99195	13.503	3.49015	2.00335	2.11598	3.33903	-0.84582	-0.3147
0.3933	0.130063	5.9835	-1.76562	14.4163	3.49015	1.69514	1.5082	13.7154	-25.2538	-0.3147
0.3940	-0.130063	-3.47878	-1.76562	13.8115	1.34953	0.462311	0	21.6403	-56.3799	0
0.3947	0.78038	-11.7235	-2.37878	11.0591	-1.67527	-1.33557	-1.84585	-0.0211331	-28.6129	0.3147
0.3953	3.18655	-5.30514	-3.59773	9.23237	-1.67527	0.154104	-1.84585	-27.1772	28.7579	-0.3147
0.3960	4.74731	0.800119	-4.21089	8.31901	1.07031	2.61976	0.607781	-21.6826	49.5167	-0.3147
0.3967	3.51171	0.800119	-3.59773	6.47994	3.49015	3.54439	2.43113	-3.67716	35.1619	0
0.3973	1.69082	2.01769	-5.12694	1.29599	2.28023	1.69514	0.900417	-0.33813	21.7497	0
0.3980	-1.69082	2.62648	-8.78377	-8.15855	-0.465354	-2.5684	-3.37656	-5.21988	25.7129	0
0.3987	-2.27611	3.84405	-6.043	-9.99762	-0.791101	-1.33557	-2.74627	-1.85971	26.6312	0
0.3993	0.78038	1.7046	0.369376	-4.80133	-0.465354	2.92797	1.21556	6.08633	15.6356	0
0.4000	2.01598	-10.5059	4.33648	-3.5794	-0.791101	3.23618	2.43113	8.51664	5.26825	0
0.4007	1.04051	-24.8385	3.72331	-7.24519	-1.07031	0.154104	-0.315146	4.24775	-7.24989	0
0.4013	0.130063	-25.1516	1.58832	-9.38048	-1.67527	-3.49302	-4.27698	-5.83274	-8.48237	-0.3147
0.4020	2.01598	-7.14889	5.55542	-5.1099	-0.186141	-3.80123	-3.6692	-12.2361	19.3089	-0.3147
0.4027	5.3326	8.73173	12.2707	1.60456	1.95449	-0.102736	0.292636	-11.3062	42.7985	0
0.4033	4.42215	5.67041	11.3546	1.91312	2.88519	1.69514	2.74627	-11.9191	30.5945	0
0.4040	1.36566	-4.40065	4.63937	-2.9746	3.21094	-0.410943	0.900417	-17.4137	0.0724989	0
0.4047	-0.78038	-2.5569	-2.07589	-5.41846	2.55945	-4.10943	-2.45364	-21.9996	-31.0537	0
0.4053	2.60127	10.245	-6.64877	-1.75267	2.55945	-3.18481	-1.53071	-20.161	-35.0169	0.3147
0.4060	7.47864	19.4116	-15.1961	2.51792	1.34953	0.770519	1.5082	-11.6232	4.03577	0
0.4067	4.42215	13.3063	-17.3311	0.0740564	-1.39606	0.770519	1.21556	-1.85971	25.3988	-0.944101
0.4073	-0.78038	-8.05337	-2.68167	-4.80133	-1.67527	-1.33557	0	2.72617	3.74577	-0.629401
0.4080	-2.27611	-27.5867	19.902	-6.93662	-1.07031	-1.95198	-2.45364	-0.33813	-16.0947	0.3147
0.4087	-0.78038	-31.5525	40.9564	-5.41846	0.139606	0.462311	-2.13849	0.591727	-16.0947	0
0.4093	-0.455222	-28.5086	35.1572	-1.14787	1.95449	3.23618	1.21556	9.74236	-11.2132	0
0.4100	-3.18655	-26.9779	2.80726	1.91312	2.88519	2.61976	3.35405	10.9681	-10.2948	0
0.4107	-5.65775	-30.3349	-16.7254	1.91312	1.95449	1.38693	2.11598	9.4465	-2.3683	0
0.4113	-5.65775	-40.406	-24.6596	-0.839306	-0.465354	-0.719151	-2.13849	22.866	18.6805	0
0.4120	-3.83687	-36.7359	-36.8638	-1.75267	0.139606	-1.02736	-3.06142	32.0166	33.0353	-0.944101
0.4127	-2.27611	-10.8016	-40.8309	0.691194	4.42086	0.462311	0.607781	20.1187	18.3905	-0.944101
0.4133	-1.69082	6.27919	-24.6596	4.34465	7.16645	1.69514	1.82334	7.90378	-11.2132	0
0.4140	-0.455222	12.9932	-9.09404	0.987419	3.8159	0.462311	-0.922927	-2.76844	-28.6129	0
0.4147	-1.36566	28.5608	-6.043	-9.38048	-1.67527	-2.5684	-4.59213	-11.6232	-33.8086	-0.3147
0.4153	-2.27611	47.7984	13.7925	-12.4415	-3.21094	-0.410943	-2.74627	5.76934	-25.2538	-0.3147
0.4160	-1.04051	55.73	35.1572	-8.15855	-0.791101	3.85259	1.82334	32.0166	-7.85404	0
0.4167	-0.455222	39.2406	32.7194	-6.33183	-0.465354	3.85259	1.82334	37.5112	-2.97245	0
0.4173	-1.69082	12.6975	21.4238	-9.99762	-3.8159	0.462311	-1.53071	30.1781	-11.2132	0
0.4180	-4.42215	-0.730543	2.80726	-16.7121	-6.56149	-3.18481	-5.51505	26.2262	-24.0455	0
0.4187	-3.83687	-1.94812	-13.364	-17.6254	-5.02582	-1.64377	-4.27698	28.0436	-39.8985	0
0.4193	0.78038	1.7046	-10.9262	-6.33183	-2.28023	1.69514	0.292636	19.21	-42.9435	0
0.4200	5.00744	5.67041	-4.21089	9.23237	-2.00102	3.85259	2.74627	11.5809	-18.5355	0
0.4207	4.74731	5.9835	-6.34588	13.8115	-2.28023	2.92797	2.11598	13.7154	13.7989	0
0.4213	0.455222	5.67041	-3.908	7.09708	-1.07031	0.154104	0	-2.47257	26.9212	0
0.4220	-1.36566	7.80986	6.16858	4.65321	1.95449	0.770519	0.607781	-27.1772	13.7989	-0.3147
0.4227	-0.455222	9.34052	8.90936	7.40564	3.8159	3.23618	3.35405	-36.0319	-0.531658	-0.3147
0.4233	-0.455222	9.63621	3.42042	9.23237	3.49015	3.54439	5.49254	-31.4672	24.4804	0
0.4240	-0.78038	5.9835	-1.76562	17.4773	2.55945	1.38693	3.96183	-23.5211	56.2349	0
0.4247	-1.95095	0.487029	-5.42983	28.1538	0.744566	-0.102736	0.292636	-17.1178	45.8434	0
0.4253	-1.69082	-0.434847	-4.21089	21.4393	-0.791101	2.00335	1.5082	-8.26304	30.2804	0
0.4260	-0.455222	1.7046	0.369376	4.96178	-2.00102	4.77722	5.1774	3.33903	34.2436	0
0.4267	2.01598	3.53096	4.03359	-1.14787	-2.00102	5.95868	5.1774	10.0382	27.8396	0
0.4273	2.27611	3.23526	4.03359	-1.4441	-1.67527	3.54439	2.43113	-0.0211331	13.509	0.3147
0.4280	0.130063	1.4089	2.20148	-1.75267	-2.00102	0.154104	-1.23807	-21.0908	5.87241	0
0.4287	0.455222	1.4089	2.20148	0.987419	-1.07031	0.462311	-1.23807	-28.4029	-6.93572	0
0.4293	2.01598	2.92217	2.50437	3.12271	0.139606	2.92797	1.82334	-18.9353	-16.6989	0
0.4300	2.60127	3.53096	3.11754	3.43128	0.744566	3.54439	2.74627	-10.7145	-13.364	0
0.4307	1.36566	1.7046	1.58832	1.91312	-0.791101	0.770519	-0.315146	-8.8759	-14.2581	0
0.4313	-1.95095	-0.730543	-3.29484	-0.234512	-2.60598	-1.95198	-3.37656	-7.35432	-19.768	0
0.4320	-1.95095	-1.04363	-3.908	2.51792	-1.67527	-0.410943	-2.45364	-3.67716	-31.6578	0
0.4327	1.04051	0.800119	0.369376	4.96178	-0.186141	3.23618	1.82334	-0.633993	-45.4085	0
0.4333	2.60127	2.01769	3.11754	-0.530738	0.139606	4.1608	3.96183	1.20459	-43.2577	0
0.4340	1.04051	1.4089	3.42042	-6.02326	-0.186141	2.61976	2.11598	1.20459	-26.4862	0
0.4347	-1.36566	-1.33933	1.28543	-6.33183	-1.67527	-0.410943	-1.84585	-1.85971	-0.531658	0
0.4353	-1.04051	-1.65242	1.58832	-2.9746	-1.07031	-0.102736	-2.13849	-1.85971	19.913	0
0.4360	0.78038	0.487029	3.42042	2.20935	1.07031	1.69514	0	1.50045	8.62736	0
0.4367	1.69082	0.487029	2.80726	5.27035	1.67527	0.462311	0.292636	1.79631	-35.0169	0
0.4373	1.04051	-1.04363	0.0591002	10.1457	1.67527	-1.02736	-0.630292	-0.33813	-24.9396	-0.3147
0.4380	-0.78038	-3.18308	-2.99195	18.0821	1.07031	-2.5684	-3.06142	-2.15558	50.725	-0.3147
0.4387	0.130063	-2.5569	-2.37878	21.1308	1.07031	-0.410943	-1.84585	-0.633993	68.4389	0
0.4393	1.36566	0.487029	0.975153	17.1688	1.67527	2.31156	2.11598	3.02203	15.0314	-0.3147
0.4400	1.04051	1.7046	1.89121	11.6762	1.95449	2.00335	2.43113	4.86061	-32.5762	-0.3147
0.4407	1.36566	0.487029	0.0591002	8.31901	1.34953	0.154104	0	3.95189	-49.3717	-0.3147
0.4413	-0.78038	-2.26121	-3.29484	8.01044	-0.465354	-2.5684	-3.06142	0.27473	-47.5351	0.3147
0.4420	-1.69082	-2.5569	-1.76562	12.281	-0.186141	-2.5684	-3.37656	-1.85971	-11.2132	-0.629401
0.4427	1.04051	-0.730543	3.42042	17.4773	1.95449	-0.719151	0	-0.929856	72.088	-1.2588
0.4433	2.92642	-1.04363	4.33648	21.1308	2.28023	0.154104	1.21556	0.88759	108.41	0.3147
0.4440	2.27611	-1.65242	5.55542	22.9698	1.07031	-1.33557	-0.315146	1.50045	55.9208	0.3147
0.4447	0.130063	-1.94812	10.1357	7.40564	-0.465354	-3.49302	-3.06142	0.27473	4.66409	-0.3147
0.4453	2.92642	-0.730543	9.52252	-18.2302	-2.28023	-2.26019	-2.13849	1.79631	-18.8497	-0.3147
0.4460	6.89336	0.800119	9.21963	-22.5008	-2.93173	0.462311	1.5082	4.24775	-35.6211	0
0.4467	5.00744	3.23526	14.1028	-14.5768	-1.67527	2.00335	2.74627	4.24775	-38.3761	0.3147
0.4473	-1.04051	5.37471	9.82541	-22.2046	-2.00102	0.154104	0	1.20459	-30.4495	0
0.4480	-5.65775	2.01769	1.58832	-27.6971	-1.67527	-3.49302	-2.74627	-5.51574	-4.80909	0
0.4487	-2.92642	2.01769	0.975153	-15.7864	2.28023	-3.18481	-1.53071	-11.3062	27.8396	0
0.4493	2.27611	2.01769	-2.07589	-6.93662	5.02582	0.462311	2.11598	-11.9191	40.9619	0
0.4500	2.60127	-2.5569	-2.99195	-4.5051	5.30503	2.00335	3.35405	-1.85971	42.4843	0
0.4507	-1.04051	-0.121757	-2.68167	-0.530738	3.8159	-0.719151	0.607781	13.1025	26.0029	0
0.4513	-3.83687	5.06162	-6.34588	1.60456	0.139606	-3.80123	-2.74627	19.5058	6.47656	0
0.4520	-3.18655	4.45284	-10.0101	1.60456	-2.00102	-0.410943	0.607781	15.8498	13.509	0.3147
0.4527	-2.27611	16.6633	-15.499	-0.530738	-1.07031	3.54439	5.49254	2.11331	19.5989	0
0.4533	-2.27611	33.1354	-13.9772	-4.5051	0.744566	3.23618	5.1774	-16.2091	6.18657	0
0.4540	-1.04051	19.4116	-5.73272	-6.33183	0.465354	1.07873	2.11598	-28.7199	-11.2132	0
0.4547	-0.455222	-5.00944	-6.64877	-6.93662	-1.67527	-1.95198	-1.53071	-28.7199	-10.0048	0
0.4553	0.78038	-8.36646	-11.229	-13.9596	-2.60598	-0.719151	-2.13849	-12.5319	11.0682	0
0.4560	3.18655	4.15714	-11.8422	-17.0083	-0.791101	4.77722	1.5082	4.24775	11.6723	0
0.4567	5.00744	20.3161	-13.364	-8.15855	-0.791101	6.57509	3.35405	10.9681	-12.4456	0
0.4573	4.74731	32.8397	-11.5319	-2.66603	-3.21094	3.85259	0.292636	13.3984	-28.0087	0
0.4580	2.27611	27.3432	-2.68167	-7.86233	-5.02582	1.38693	-3.37656	15.5328	-36.8536	0
0.4587	1.69082	-1.65242	5.85831	-12.7377	-3.8159	3.54439	-3.37656	19.21	-50.29	0
0.4593	2.60127	-23.6209	16.5407	-9.08426	-1.07031	7.80792	-0.315146	24.7046	-64.6207	0
0.4600	2.27611	-23.6209	33.6354	-5.1099	-0.465354	9.65717	1.21556	35.6727	-55.1716	-0.3147
0.4607	0.130063	-22.4033	36.9893	-5.72703	-2.00102	8.73255	-0.922927	40.5544	-9.69068	0
0.4613	-1.36566	-26.056	23.2559	-9.38048	-2.93173	5.95868	-4.59213	29.5863	2.51329	0
0.4620	-1.69082	-29.1174	16.5407	-12.1329	-1.67527	6.57509	-3.6692	18.5971	-35.9353	-0.3147
0.4627	-3.51171	-33.3789	6.77436	-14.2682	-0.465354	9.96538	0.292636	3.95189	-43.2577	-0.3147
0.4633	-5.00744	-41.9367	-13.364	-6.6404	-1.07031	9.65717	1.21556	-19.5481	3.43161	0
0.4640	-2.27611	-46.8069	-20.6925	9.54094	-1.07031	6.26689	0	-32.3759	80.9571	-0.3147
0.4647	-0.78038	-37.049	-20.9953	10.4543	-1.67527	2.31156	-2.13849	-24.134	115.732	-0.629401
0.4653	-1.95095	-20.2639	-17.0282	2.51792	-1.07031	0.770519	-1.23807	-2.47257	57.4433	0
0.4660	-3.51171	-11.1147	-6.95905	0.691194	0.744566	-1.95198	1.5082	5.47347	-3.57661	0
0.4667	-4.74731	-5.30514	-5.12694	-1.14787	1.67527	-8.37297	1.21556	-7.96718	-17.0131	0
0.4673	-5.00744	19.7073	-6.043	-4.19653	2.28023	-14.4858	-0.922927	-19.5481	-33.8086	-0.3147
0.4680	-4.74731	46.5634	-5.12694	-5.41846	1.07031	-19.3657	-4.59213	-15.8921	-75.6163	0
0.4687	-0.455222	36.1967	-2.99195	-0.530738	1.07031	-18.1329	-3.37656	-1.54272	-89.3428	0
0.4693	3.18655	13.9151	-6.043	5.56658	2.55945	-11.4037	1.82334	8.83364	-26.1721	0
0.4700	3.18655	2.31339	-17.634	6.18371	2.55945	-8.06476	3.35405	13.7154	55.9208	0
0.4707	4.42215	-8.05337	-26.1814	2.51792	1.67527	-7.75656	1.5082	12.7855	69.3572	0
0.4713	4.09699	-14.7674	-31.3674	-3.5794	0.139606	-9.6058	-2.45364	2.40917	25.3988	-0.3147
0.4720	7.15348	-20.2639	-26.7946	-6.6404	-0.791101	-7.75656	-2.45364	-5.51574	-14.2581	-1.2588
0.4727	12.356	-19.9508	4.63937	-5.72703	-1.39606	-1.33557	2.74627	1.20459	-44.7801	-0.629401
0.4733	11.7707	-1.04363	34.5441	-4.19653	-1.67527	1.07873	4.25447	6.69919	-64.6207	0.3147
0.4740	11.1204	22.7686	34.5441	-0.530738	-1.07031	-1.64377	1.82334	-0.929856	-49.3717	0
0.4747	11.4456	32.2309	17.7596	3.43128	-0.791101	-5.03406	-1.84585	-5.51574	-22.4988	-0.3147
0.4753	9.29953	32.5266	0.0591002	5.56658	-0.186141	-3.49302	-1.84585	-9.17177	-13.9681	-0.3147
0.4760	6.5682	24.595	-16.4151	7.09708	1.07031	0.770519	1.82334	-38.7792	-3.57661	0
0.4767	-1.69082	3.84405	-27.0974	9.23237	2.28023	3.54439	4.25447	-74.4942	25.3988	0
0.4773	-9.88481	-13.5498	-8.48088	9.23237	1.67527	2.61976	3.35405	-58.0104	56.5249	-0.3147
0.4780	-10.21	-7.75767	16.2378	5.56658	0.139606	-0.102736	0.900417	14.0112	67.8348	-0.3147
0.4787	-5.3326	13.602	15.9349	3.12271	0.139606	0.462311	0.900417	73.8179	56.8391	-0.3147
0.4793	-3.83687	17.5852	20.5078	1.91312	-0.186141	2.92797	3.96183	89.0971	37.9169	-0.3147
0.4800	-8.06392	5.9835	28.442	-2.06124	-1.39606	2.92797	4.86225	82.3768	28.7579	0
0.4807	-12.9413	6.27919	15.0188	-7.55376	-1.67527	0.770519	2.11598	93.9789	27.2354	0
0.4813	-12.9413	9.02743	1.28543	-9.68905	-1.39606	-1.33557	-0.630292	94.5706	19.3089	0
0.4820	-5.65775	0.800119	3.72331	-4.80133	0.465354	1.07873	1.21556	11.5809	4.66409	-0.3147
0.4827	1.04051	0.487029	5.85831	0.987419	2.55945	4.1608	3.96183	-77.8543	-1.13582	-0.3147
0.4833	1.04051	7.20107	0.369376	2.51792	3.21094	3.23618	2.74627	-86.688	5.55825	-0.3147
0.4840	-0.130063	-7.75767	-9.09404	-0.234512	2.55945	0.462311	0.292636	-58.9191	6.47656	0
0.4847	-2.27611	-24.2297	-13.9772	-2.66603	0.139606	-2.26019	-3.37656	-30.5373	-2.05413	0
0.4853	-2.60127	-17.5156	-2.68167	-1.4441	-0.791101	-1.64377	-3.6692	-5.51574	-2.05413	0
0.4860	-1.36566	-14.1586	15.9349	-0.530738	-0.186141	0.770519	0	6.3822	7.70905	0
0.4867	-2.92642	-23.0121	18.9859	0.382625	-0.186141	0.154104	0.292636	6.69919	12.2765	0.3147
0.4873	-1.69082	-26.9779	9.21963	4.96178	-1.67527	-1.95198	-2.45364	6.3822	9.23152	0
0.4880	-0.455222	-22.0902	7.08464	6.78851	-4.14165	-4.10943	-5.51505	1.79631	-4.49493	-0.3147
0.4887	-1.04051	-12.9411	10.7415	3.12271	-3.8159	-4.10943	-6.41547	-13.1448	-26.7762	-0.3147
0.4893	2.01598	-4.40065	7.38753	1.91312	-1.07031	-0.719151	-3.37656	-32.0589	-41.7352	0
0.4900	2.92642	3.84405	0.369376	3.73985	-1.07031	0.462311	-2.13849	-46.1124	-46.0126	0
0.4907	-0.78038	11.7757	-1.46273	2.20935	-2.60598	-2.26019	-3.98435	-55.2631	-55.1716	0
0.4913	-2.60127	7.80986	-1.46273	-2.06124	-3.53669	-5.03406	-6.12284	-51.607	-83.2287	-0.3147
0.4920	-0.130063	-1.33933	-0.546677	-2.06124	-0.791101	-3.18481	-2.74627	-29.9245	-90.2611	0
0.4927	1.69082	-0.730543	3.42042	-2.36981	5.30503	-0.102736	2.43113	-9.17177	-39.8985	0
0.4933	0.455222	2.92217	6.16858	-6.02326	7.77141	1.38693	3.64669	8.51664	14.4273	-0.3147
0.4940	-0.130063	-1.33933	5.85831	-1.14787	4.70007	3.23618	3.64669	23.7747	46.4718	-0.3147
0.4947	-2.60127	-5.00944	-0.849565	6.47994	-1.07031	2.31156	2.43113	21.0274	67.8348	-0.3147
0.4953	-3.51171	3.84405	-4.81667	10.1457	-2.28023	4.46901	4.25447	13.3984	66.2881	0
0.4960	0.78038	16.0546	3.42042	14.1201	1.95449	9.65717	9.13923	17.3714	50.1209	0
0.4967	2.60127	20.0204	9.82541	12.8982	3.8159	9.65717	10.0622	21.9573	31.5128	-0.3147
0.4973	-1.95095	12.3844	4.03359	5.56658	1.95449	5.95868	7.31589	26.2262	16.5539	-0.3147
0.4980	-5.91788	-3.79187	-2.37878	1.29599	0.139606	3.85259	3.64669	30.4951	12.2765	0
0.4987	-4.09699	-12.628	-2.07589	3.73985	0.744566	5.34226	3.35405	32.9254	15.3214	0
0.4993	-1.04051	-11.7235	-5.42983	9.23237	1.07031	7.80792	5.49254	26.522	18.6805	0
0.5000	0.78038	-13.8629	-7.8751	12.281	1.07031	7.19151	5.78518	8.22078	16.8681	0
0.5007	1.36566	-19.6551	-0.546677	9.23237	1.07031	3.54439	2.74627	-30.2415	11.0682	0.3147
0.5013	0.455222	-17.8287	3.11754	5.56658	-0.465354	-1.02736	-3.06142	-70.5211	5.87241	0
0.5020	1.36566	-6.22701	3.72331	14.1201	-0.465354	-0.102736	-3.37656	-60.7577	1.90914	0
0.5027	2.27611	1.4089	10.7415	21.4393	0.139606	1.38693	-0.630292	-18.6394	-0.531658	-0.3147
0.5033	1.04051	4.15714	17.7596	16.5516	0.465354	-1.02736	-1.53071	4.24775	-7.85404	-1.2588
0.5040	-1.04051	7.20107	19.2888	9.23237	1.95449	-3.49302	-3.37656	11.8768	-22.4988	-0.629401
0.5047	-2.60127	4.76592	18.6757	5.56658	1.67527	-3.18481	-4.27698	17.0755	-19.1397	0
0.5053	-0.455222	0.800119	16.8509	9.23237	0.139606	-0.719151	-2.45364	15.8498	-6.01741	-0.3147
0.5060	1.04051	2.31339	7.08464	7.70187	-0.186141	2.00335	0.292636	6.08633	-15.4906	-0.3147
0.5067	-0.455222	2.92217	-4.51378	-7.86233	0.139606	2.61976	1.5082	-3.08543	-20.9763	0
0.5073	-1.36566	-1.94812	-12.448	-12.1329	-0.791101	0.770519	0	-5.21988	0.0724989	-0.3147
0.5080	-2.27611	-8.05337	-21.6011	-6.33183	-1.07031	-2.5684	-3.37656	-12.2361	15.9497	0
0.5087	-1.69082	-7.75767	-25.2653	-17.934	-0.465354	-1.95198	-3.06142	-23.5211	6.18657	0
0.5093	-0.130063	-5.00944	-19.7764	-24.3399	-0.465354	1.07873	-0.315146	-32.3759	-13.9681	-0.629401
0.5100	0.130063	-5.00944	-13.364	-1.14787	-0.186141	2.00335	0.607781	-36.0319	-16.0947	-0.629401
0.5107	0.78038	-2.5569	-10.313	17.1688	-0.791101	-0.102736	-1.23807	-26.8813	-2.68246	0.3147
0.5113	-0.130063	3.23526	-11.229	10.7629	-2.00102	-3.80123	-4.27698	-4.90288	1.59497	0
0.5120	0.130063	9.34052	-8.78377	-3.28317	-0.465354	-2.8766	-3.06142	19.21	2.82746	0
0.5127	2.01598	13.3063	-3.29484	-9.99762	1.95449	1.07873	0	28.6565	10.4398	0
0.5133	2.01598	10.8712	-1.15984	-6.6404	0.139606	2.31156	0.607781	26.2262	12.2765	-0.3147
0.5140	0.130063	2.31339	-1.15984	-2.36981	-3.21094	1.38693	-0.315146	20.7316	1.59497	-0.3147
0.5147	-2.27611	-5.00944	-0.849565	-4.19653	-4.42086	-0.410943	-2.74627	11.2639	-20.058	0
0.5153	-2.27611	-5.91392	-0.546677	-7.24519	-2.00102	0.462311	-2.13849	7.60792	-35.0169	0
0.5160	-0.78038	-1.04363	-0.849565	-2.9746	1.67527	3.23618	1.21556	10.0382	-30.1354	0
0.5167	0.78038	2.62648	-1.15984	2.82649	2.88519	0.770519	0.607781	10.6511	-17.3272	0
0.5173	1.36566	1.7046	-2.99195	0.0740564	1.95449	-3.80123	-3.06142	6.69919	-6.33157	-0.3147
0.5180	-0.130063	-0.434847	-6.95905	-4.19653	-0.186141	-5.90731	-5.80769	-0.33813	5.87241	-0.3147
0.5187	0.455222	-0.434847	-5.73272	-5.1099	0.744566	-3.18481	-3.06142	0.88759	33.9536	-0.3147
0.5193	3.18655	1.09581	-1.15984	-11.5158	2.55945	0.462311	1.82334	7.90378	67.5206	0
0.5200	2.92642	2.92217	0.369376	-20.9827	1.67527	1.69514	3.03891	10.3552	60.1982	0
0.5207	2.27611	4.45284	0.672265	-22.8094	-0.791101	1.38693	2.43113	9.1295	17.1581	0
0.5213	1.04051	1.7046	-0.243788	-22.5008	-2.28023	-1.64377	-0.315146	4.24775	-14.5723	0
0.5220	0.130063	0.800119	0.369376	-30.141	-1.07031	-0.410943	-0.630292	3.63489	-27.3804	0
0.5227	1.04051	4.45284	3.42042	-41.126	0.465354	4.1608	3.35405	13.3984	-37.7719	-0.3147
0.5233	3.18655	7.80986	4.63937	-37.7688	0.465354	5.03406	4.86225	20.1187	-31.0537	0
0.5240	3.51171	6.88798	1.28543	-20.9827	-0.791101	2.00335	2.43113	22.549	-2.68246	0
0.5247	0.78038	0.800119	-2.37878	-25.5618	-0.465354	-2.26019	-2.45364	24.7046	26.0029	0
0.5253	0.455222	-0.121757	-1.46273	-42.3479	1.67527	-1.33557	-2.74627	21.0274	51.0392	0
0.5260	3.18655	5.9835	3.11754	-56.6902	1.07031	2.00335	1.5082	0.88759	51.6434	-0.3147
0.5267	5.98291	7.51416	10.7415	-90.8673	1.07031	2.61976	3.35405	-31.4672	25.1088	0
0.5273	4.74731	-2.5569	15.9349	-90.5587	2.55945	0.462311	2.11598	-51.607	1.30498	0.3147
0.5280	-1.36566	-27.5867	15.9349	-21.5875	0.744566	-2.26019	-1.53071	-48.5427	-16.6989	0
0.5287	-2.27611	-56.2692	25.6938	14.7249	0.139606	-1.64377	-1.53071	-31.1502	-31.0537	-0.3147
0.5293	1.36566	-73.6631	40.9564	-17.934	1.67527	0.770519	2.43113	-7.65018	-27.0904	0
0.5300	2.01598	-79.1596	51.0256	-53.9378	2.88519	0.770519	4.25447	18.893	-8.1682	-0.3147
0.5307	0.130063	-75.5069	61.708	-83.2394	2.28023	-2.5684	2.11598	44.5274	4.95409	-0.3147
0.5313	0.130063	-66.0446	60.4891	-130.228	1.07031	-5.03406	-1.23807	46.9789	8.3132	-0.3147
0.5320	3.51171	-71.8368	32.7194	-151.285	1.34953	-3.80123	-0.922927	16.4627	5.55825	-0.629401
0.5327	2.01598	-80.0815	-10.6159	-76.8336	1.34953	-1.02736	1.82334	-13.1448	3.43161	-1.5735
0.5333	-4.42215	-19.9508	-49.3782	11.6762	-0.186141	1.07873	2.43113	-19.2523	1.30498	-0.629401
0.5340	-8.06392	58.7739	-67.6845	-2.36981	-1.67527	-0.102736	0	-10.7145	-10.0048	0
0.5347	-8.06392	83.4907	-62.8014	-0.234512	-3.53669	-3.18481	-3.6692	4.24775	-19.768	-0.3147
0.5353	-5.00744	105.163	-52.4293	106.58	-3.8159	-0.719151	-2.13849	9.1295	-16.0947	-0.3147
0.5360	-1.95095	100.589	-40.8309	169.75	-2.28023	3.54439	1.21556	-2.15558	-12.7356	-0.3147
0.5367	-1.36566	54.1994	-26.1814	137.708	-1.67527	3.85259	2.11598	-3.08543	-16.0947	-0.3147
0.5373	-2.60127	34.0572	-18.8604	98.347	-2.00102	1.69514	0.292636	10.0382	-18.2455	-0.3147
0.5380	-4.42215	31.9178	-11.229	70.872	-1.39606	-1.02736	-2.74627	9.74236	-10.0048	-0.3147
0.5387	-0.78038	23.3774	-2.68167	55.925	-0.465354	-0.102736	-2.13849	-6.42446	20.2272	0
0.5393	4.09699	22.4555	-1.15984	58.3688	-0.791101	3.85259	1.5082	-17.4137	50.435	0.3147
0.5400	4.42215	26.4213	-0.243788	45.5447	-2.28023	5.03406	3.03891	-11.0103	36.9986	0
0.5407	1.69082	21.551	1.58832	23.5746	-2.93173	2.31156	1.21556	2.72617	4.03577	0
0.5413	-1.36566	11.7757	-1.46273	22.0441	-3.21094	-1.02736	-1.84585	12.4897	-8.48237	0
0.5420	-1.04051	10.245	-4.21089	32.733	-2.93173	0.770519	-1.53071	20.7316	-12.1315	0
0.5427	0.455222	9.9493	-1.46273	36.695	-1.07031	3.85259	1.82334	26.2262	-13.654	0
0.5433	2.01598	4.15714	1.89121	31.511	0.744566	2.31156	2.11598	19.8017	-13.9681	-0.3147
0.5440	1.04051	6.59228	0.0591002	26.0185	0.465354	-0.102736	0.292636	13.3984	-19.1397	-0.3147
0.5447	-3.51171	19.7073	-4.81667	22.9698	-1.67527	-3.18481	-2.74627	6.08633	-5.41325	0
0.5453	-3.51171	30.7002	-4.81667	23.5746	-0.465354	-3.80123	-3.37656	-10.7145	14.7173	0
0.5460	2.27611	29.7783	-1.15984	27.2404	2.28023	-0.719151	-0.315146	-15.8921	0.386661	0
0.5467	5.00744	13.3063	0.369376	30.2891	1.34953	1.07873	0.607781	-4.60702	-0.531658	0
0.5473	2.27611	0.173939	-0.546677	28.4624	0.139606	0.770519	-1.23807	-2.47257	17.4722	0
0.5480	-2.92642	2.31339	-3.908	18.9955	-0.186141	-1.33557	-4.59213	-7.96718	-4.80909	0
0.5487	-2.60127	5.67041	-5.12694	10.7629	-0.186141	-1.02736	-4.88476	-5.21988	-35.9353	0
0.5493	1.36566	5.9835	-1.76562	10.1457	0.744566	4.46901	-2.74627	-0.929856	-29.217	0
0.5500	3.18655	6.27919	2.50437	12.281	0.465354	10.5304	-0.630292	-1.24685	-12.4456	0
0.5507	1.69082	3.23526	0.975153	9.23237	-1.39606	11.7633	-1.84585	-1.24685	-17.6172	0
0.5513	-1.95095	-2.5569	-2.07589	0.382625	-3.21094	9.34896	-6.73062	-1.54272	-19.4539	-0.3147
0.5520	-1.04051	-4.08756	1.28543	-1.4441	-3.21094	12.0715	-5.80769	0.591727	2.19913	-0.3147
0.5527	2.01598	-2.5569	7.08464	4.34465	-2.00102	16.9514	0	3.95189	10.4398	-0.3147
0.5533	2.27611	-2.26121	15.6246	8.01044	-2.00102	17.876	1.5082	2.72617	-8.77236	-0.3147
0.5540	1.04051	0.173939	15.9349	8.31901	-3.21094	14.8453	-0.922927	-3.67716	-31.3678	-0.3147
0.5547	0.455222	5.67041	2.80726	9.54094	-3.21094	9.04075	-4.27698	-16.5049	-51.4984	0
0.5553	0.130063	16.0546	-2.99195	16.8602	0.744566	9.34896	-3.6692	-19.2523	-42.3393	0
0.5560	2.27611	23.9862	-0.849565	29.3757	3.49015	13.6125	2.11598	1.50045	19.3089	0
0.5567	3.51171	14.5239	0.369376	35.1768	2.88519	12.9961	6.10033	31.1079	64.4757	0
0.5573	-1.69082	-10.8016	0.672265	27.2404	0.744566	6.8833	5.1774	51.2478	48.9126	-0.3147
0.5580	-7.47864	-26.6648	5.25253	19.6126	-0.465354	-1.33557	2.11598	43.0059	31.1987	-0.3147
0.5587	-2.60127	-23.0121	18.6757	22.9698	1.07031	-6.21552	2.74627	14.6241	48.5984	0
0.5593	3.18655	-8.97525	11.9678	26.0185	3.49015	-10.2222	5.49254	-5.83274	58.6757	0
0.5600	2.92642	7.80986	-11.5319	23.2661	3.8159	-15.9754	5.78518	-17.1178	37.6027	-0.3147
0.5607	2.60127	4.76592	-16.7254	18.3907	3.49015	-19.3657	4.25447	-25.6556	11.6723	-0.3147
0.5613	3.83687	-10.1928	-13.0611	2.82649	3.8159	-20.2903	0	-29.0157	-32.8903	0
0.5620	2.60127	-9.27094	-13.6669	-23.4265	3.8159	-17.8247	-3.6692	-21.9996	-54.2533	-0.944101
0.5627	-0.130063	1.7046	-2.07589	-30.4372	5.02582	-8.68118	-2.74627	-6.74146	-13.9681	-1.2588
0.5633	-0.455222	9.02743	13.7925	-18.5388	5.95653	1.07873	-1.23807	-1.54272	-2.05413	0
0.5640	0.78038	2.92217	10.1357	-20.0693	4.09511	3.85259	-4.27698	-12.8489	-22.4988	0.3147
0.5647	-0.455222	-9.89712	-2.68167	-30.141	0.465354	1.69514	-7.63103	-24.7469	-9.08652	0
0.5653	0.455222	-12.0192	-3.908	-30.141	0.139606	1.38693	-8.26133	-23.5211	3.43161	0
0.5660	3.51171	-5.91392	0.975153	-27.08	1.34953	2.31156	-7.3384	-17.1178	-7.56405	0
0.5667	2.27611	1.09581	1.89121	-29.2153	1.95449	0.770519	-9.16174	-12.8489	-19.4539	-0.3147
0.5673	-0.78038	4.15714	-0.243788	-35.3249	1.34953	-2.26019	-12.8309	-8.26304	-27.0904	-0.3147
0.5680	-1.69082	-4.08756	-4.51378	-43.2613	-1.07031	-6.52373	-15.5772	-7.03732	-28.6129	0.3147
0.5687	0.130063	-13.5498	-5.42983	-24.9447	-3.53669	-8.68118	-14.0465	-7.65018	-28.0087	0
0.5693	2.60127	-13.5498	-2.68167	14.4163	-4.14165	-7.44835	-7.02325	-3.3813	-22.2088	-0.3147
0.5700	4.09699	-8.66216	-8.48088	20.8345	-4.74661	-8.37297	-0.630292	5.76934	5.55825	-0.3147
0.5707	2.60127	-1.04363	-13.6669	4.65321	-6.56149	-15.1022	3.35405	16.4627	22.0397	0
0.5713	-1.95095	2.01769	-2.07589	-0.234512	-6.88723	-23.9375	4.86225	28.3606	-10.2948	-0.3147
0.5720	-3.51171	-0.434847	11.0517	1.91312	-3.8159	-26.0435	7.92367	37.5112	-47.2209	-0.3147
0.5727	-1.69082	1.4089	10.4386	-0.234512	0.465354	-21.1636	9.45438	30.4951	-60.0532	0
0.5733	-1.36566	3.23526	5.55542	-1.4441	3.8159	-19.3657	6.39296	2.40917	-96.351	0
0.5740	0.78038	-3.47878	1.89121	5.27035	5.63078	-24.5539	3.03891	-30.2415	-118.342	0
0.5747	2.01598	-12.628	-6.043	11.0591	4.70007	-28.201	-1.23807	-38.1664	-58.5307	-0.3147
0.5753	1.69082	-15.0805	-3.29484	11.9725	1.34953	-19.0575	-3.37656	-14.6664	1.90914	-0.3147
0.5760	2.60127	-9.27094	10.7415	11.9725	-0.791101	-7.44835	-0.630292	8.51664	0.676656	0
0.5767	2.27611	-2.26121	11.3546	9.83716	-1.39606	-1.95198	3.64669	14.92	-3.89077	0
0.5773	-0.130063	-1.04363	-0.243788	-10.911	-0.791101	4.1608	6.70811	10.6511	41.276	0
0.5780	-4.42215	-0.121757	-6.64877	-44.7795	0.465354	7.49972	5.49254	-2.76844	99.2509	0
0.5787	-4.09699	3.23526	-2.99195	-50.5806	-0.186141	13.3043	9.74701	-9.48876	94.3693	0
0.5793	-1.69082	2.31339	3.42042	-33.4982	-2.60598	20.0335	15.8473	-4.29002	46.7618	-0.3147
0.5800	-1.69082	-1.04363	6.16858	-12.4415	-1.07031	22.4478	15.5547	1.20459	18.9947	-0.3147
0.5807	-2.27611	-3.18308	3.42042	16.8602	2.28023	23.3724	12.8084	3.63489	4.03577	-0.3147
0.5813	-2.60127	-5.91392	-0.849565	9.83716	2.28023	20.3417	7.60852	4.86061	-10.9232	-0.3147
0.5820	-1.04051	-4.69635	0.0591002	-42.0394	3.49015	17.5678	3.64669	5.47347	-11.2132	0
0.5827	2.01598	1.09581	4.03359	-62.7875	6.8407	17.2596	2.74627	-4.29002	-8.1682	-0.3147
0.5833	1.36566	3.23526	4.03359	-40.2127	7.77141	15.4104	0.607781	-16.8008	-9.69068	-0.3147
0.5840	-1.36566	0.487029	0.672265	-0.839306	5.63078	10.2222	-2.74627	-17.7307	-14.5723	0
0.5847	-2.92642	-4.40065	-2.37878	46.7666	1.34953	6.26689	-5.80769	-14.3705	-32.2862	0
0.5853	-1.36566	-5.00944	-1.76562	53.4811	-2.28023	7.80792	-4.27698	-10.3975	-53.335	-0.3147
0.5860	0.78038	-0.434847	1.89121	14.4163	-4.42086	11.7633	1.21556	-4.90288	-63.0982	0
0.5867	1.04051	3.23526	3.72331	-23.7227	-4.14165	12.3797	5.78518	-0.633993	-67.3756	0.3147
0.5873	1.04051	2.62648	2.50437	-52.7159	-4.14165	9.34896	5.78518	-0.633993	-65.539	0
0.5880	-0.130063	-0.121757	-0.546677	-65.2314	-6.56149	3.23618	0.292636	-4.29002	-51.8125	0
0.5887	-1.36566	0.173939	-0.849565	-71.3287	-6.56149	-0.410943	-3.6692	-4.60702	-43.8618	0
0.5893	1.36566	2.92217	2.80726	-77.1298	-2.28023	0.770519	-1.53071	-0.0211331	-37.1677	-0.3147
0.5900	2.60127	1.4089	4.33648	-28.6105	1.67527	-1.02736	-0.630292	2.11331	-11.5273	-0.3147
0.5907	0.78038	-3.47878	0.672265	35.7816	1.95449	-8.37297	-5.19991	0.591727	11.6723	0.3147
0.5913	-1.36566	-4.40065	-2.99195	41.2741	-2.00102	-15.9754	-11.3002	-1.24685	16.5539	0
0.5920	-1.69082	-2.86999	-2.37878	32.733	-4.74661	-21.1636	-12.2232	-2.15558	-3.89077	-1.2588
0.5927	0.78038	0.173939	0.975153	47.0752	-3.8159	-24.2457	-7.02325	-0.33813	-37.4577	-0.944101
0.5933	2.01598	1.09581	3.42042	43.1009	-0.186141	-25.4785	-4.27698	2.11331	-17.0131	0
0.5940	0.455222	-1.04363	1.89121	-8.15855	4.09511	-25.7867	-6.41547	2.40917	35.4761	-0.3147
0.5947	-1.36566	-1.94812	-1.76562	-60.0474	4.09511	-22.7046	-8.26133	-0.0211331	34.5578	-0.3147
0.5953	-1.36566	1.4089	-1.76562	-67.6753	2.28023	-8.98939	-5.51505	-0.33813	14.1131	0
0.5960	1.04051	7.51416	1.89121	-54.8511	3.21094	9.65717	1.21556	3.95189	9.83568	0
0.5967	2.01598	10.8712	3.11754	-41.7308	2.88519	20.3417	7.00074	6.69919	-3.28661	0
0.5973	1.04051	10.245	1.28543	-32.8811	1.34953	22.756	7.92367	4.86061	-18.5355	0
0.5980	0.455222	6.27919	-1.15984	-35.0164	0.744566	21.8314	4.86225	1.79631	-29.217	-0.3147
0.5987	1.04051	0.487029	-0.546677	-30.141	1.95449	24.297	6.39296	2.11331	-35.6211	0
0.5993	2.27611	-2.5569	3.11754	-19.1436	3.8159	28.2524	12.2007	4.86061	-37.4577	0
0.6000	1.04051	-6.8358	3.72331	-36.5469	4.70007	27.0195	14.6318	5.15648	-38.3761	-0.3147
0.6007	-2.27611	-16.5938	0.0591002	-56.3816	3.21094	22.4478	13.7314	1.79631	-23.1271	0
0.6013	-5.91788	-25.1516	-4.51378	-5.41846	0.465354	19.1089	11.2777	-3.67716	20.8313	0
0.6020	-5.00744	-23.934	-2.99195	80.3389	-1.07031	20.0335	12.4933	-4.60702	55.6066	-0.3147
0.6027	-1.36566	-13.2367	1.58832	97.4336	-0.186141	22.1396	16.1625	-1.24685	36.0803	-0.3147
0.6033	0.130063	-8.05337	2.80726	53.4811	1.67527	20.5985	13.7314	1.20459	-12.7356	0
0.6040	-0.455222	-9.89712	1.28543	14.7249	1.67527	13.6125	7.60852	0.591727	-53.625	0
0.6047	-3.51171	-5.00944	-3.29484	3.43128	-1.67527	1.07873	2.43113	-4.29002	-75.9063	0
0.6053	-2.27611	2.62648	-2.37878	8.62758	-2.00102	-5.2909	2.74627	-0.33813	-84.4612	0
0.6060	0.455222	3.53096	2.80726	7.09708	1.07031	-8.06476	4.56962	10.3552	-113.147	0
0.6067	0.78038	3.23526	3.72331	-2.9746	3.21094	-21.78	3.96183	14.92	-131.465	0
0.6073	1.04051	5.37471	1.89121	-8.46712	4.70007	-34.9302	2.74627	14.3282	-71.943	-0.3147
0.6080	-0.455222	4.76592	-2.07589	-6.02326	4.09511	-29.4338	2.11598	11.2639	37.3127	0
0.6087	-0.130063	4.76592	-1.76562	4.34465	3.49015	-14.794	3.96183	8.22078	118.173	-0.3147
0.6093	2.92642	6.88798	1.89121	13.503	3.8159	-3.49302	5.78518	5.47347	109.328	-0.3147
0.6100	2.92642	6.59228	2.20148	16.8602	3.21094	3.54439	5.1774	2.40917	47.9942	0
0.6107	0.455222	3.53096	0.0591002	18.0821	3.49015	4.1608	3.35405	-0.0211331	2.51329	0.3147
0.6113	-1.36566	-0.121757	-2.68167	15.9468	2.55945	1.07873	1.82334	-2.47257	-39.6085	0
0.6120	-1.04051	-1.33933	-1.76562	18.0821	1.95449	3.23618	4.86225	-2.47257	-44.4901	-0.944101
0.6127	-0.130063	0.800119	0.975153	22.0441	3.8159	12.3797	9.45438	0.27473	-1.13582	-0.3147
0.6133	0.455222	3.84405	2.50437	10.7629	5.02582	23.3724	9.74701	2.11331	8.62736	0
0.6140	1.36566	4.15714	1.28543	-9.99762	4.42086	26.7113	6.70811	1.50045	-5.12325	-0.3147
0.6147	-0.130063	0.800119	-1.46273	-17.6254	1.67527	22.1396	2.11598	-0.0211331	11.0682	0
0.6153	-1.36566	-0.730543	-0.546677	11.6762	-1.07031	19.1089	-1.23807	0.591727	42.1943	0
0.6160	0.78038	0.800119	3.11754	68.1319	-1.07031	16.9514	-1.84585	2.40917	70.5656	-0.3147
0.6167	2.27611	0.487029	4.03359	94.0764	-0.465354	10.2222	-2.45364	3.33903	87.9653	0
0.6173	-0.130063	-1.04363	1.28543	71.7977	-2.93173	-2.5684	-2.45364	1.79631	97.1243	0
0.6180	-2.92642	-3.47878	-1.46273	46.4581	-5.35157	-13.2529	-2.13849	-1.54272	99.5651	0
0.6187	0.455222	-3.18308	0.369376	41.5827	-5.02582	-17.8247	1.21556	-0.33813	95.8918	0
0.6193	2.27611	1.09581	2.50437	43.1009	-4.42086	-19.6739	5.78518	3.63489	92.8469	0
0.6200	0.130063	1.7046	2.50437	39.1388	-7.49219	-17.2083	6.39296	4.86061	87.9653	-0.3147
0.6207	0.78038	-3.18308	1.89121	29.6843	-9.63282	-11.4037	2.74627	6.08633	85.2103	0
0.6213	0.455222	-7.44458	-0.849565	20.526	-9.30707	-8.98939	-4.88476	6.99506	87.6511	0.3147
0.6220	-1.95095	-6.5401	-3.59773	15.3297	-6.88723	-10.4791	-11.0076	6.69919	86.7328	-0.3147
0.6227	-0.455222	1.4089	-0.546677	15.9468	-2.60598	-12.6365	-11.3002	8.83364	82.1654	-1.2588
0.6233	2.60127	8.12294	2.80726	16.2554	0.465354	-13.8693	-10.3773	16.1457	77.8879	-0.3147
0.6240	1.36566	6.59228	0.672265	10.7629	-0.465354	-14.794	-12.8309	6.3822	66.9164	0
0.6247	-1.95095	1.7046	-3.908	2.82649	-2.93173	-16.9	-16.7928	-21.0908	41.5902	-0.3147
0.6253	-2.27611	1.7046	-3.29484	-2.36981	-0.791101	-13.2529	-16.185	-24.134	10.4398	0
0.6260	-0.130063	3.84405	1.28543	-6.6404	4.70007	-5.90731	-12.5158	-7.65018	-4.20493	0
0.6267	0.78038	3.53096	1.89121	-21.896	5.30503	-1.33557	-11.6154	-1.54272	-21.2905	0
0.6273	0.130063	1.7046	-0.243788	-56.0731	1.34953	2.00335	-9.76952	-2.76844	-48.7434	0
0.6280	-1.36566	-0.730543	-3.29484	-92.3854	-2.60598	0.770519	-6.12284	-5.21988	-39.8985	-0.3147
0.6287	-1.69082	0.173939	-2.07589	-97.2731	-3.53669	-2.8766	2.43113	-4.29002	-29.5312	-0.3147
0.6293	1.36566	3.84405	1.58832	-62.1827	-3.21094	-4.72585	14.3391	-0.33813	-61.2615	0
0.6300	3.18655	5.37471	0.369376	-26.4752	-3.53669	-7.44835	17.6932	1.50045	-64.9348	0
0.6307	1.69082	4.45284	-1.76562	-33.1896	-3.8159	-9.29759	12.4933	2.72617	-12.4456	0
0.6313	-1.36566	1.09581	-5.12694	-68.8972	-5.02582	-7.14014	4.56962	6.08633	48.9126	-0.3147
0.6320	-0.455222	2.62648	-6.043	-64.9228	-5.35157	-2.26019	-2.45364	14.3282	82.7695	-0.3147
0.6327	2.01598	7.51416	-1.76562	-32.8811	-4.74661	-2.8766	-6.12284	18.5971	58.6757	0
0.6333	2.01598	11.1669	2.80726	-42.0394	-4.14165	-7.44835	-3.37656	9.4465	-6.33157	0
0.6340	1.04051	15.1327	5.55542	-35.6335	-2.60598	-9.6058	2.74627	-7.65018	-42.0493	-0.3147
0.6347	-3.18655	7.80986	4.33648	38.8303	-3.21094	-13.5611	3.35405	-12.8489	-25.8579	-0.3147
0.6353	-3.83687	-8.05337	0.975153	82.4742	-2.28023	-16.9	2.43113	1.20459	-9.37652	0
0.6360	2.01598	-7.44458	3.11754	37.3121	1.07031	-17.8247	-1.23807	9.74236	-23.4171	-0.3147
0.6367	4.74731	2.62648	5.25253	-31.0543	2.28023	-18.7493	-9.16174	0.27473	-49.6617	-0.3147
0.6373	-0.130063	1.09581	-0.546677	-73.1678	2.88519	-16.9	-14.3617	-11.3062	-51.8125	0
0.6380	-5.91788	-8.36646	-10.6159	-89.0405	5.02582	-11.4037	-16.185	-14.3705	-25.8579	0
0.6387	-3.83687	-12.3323	-10.6159	-93.6074	5.95653	-4.72585	-12.2232	-6.1286	-30.4495	0
0.6393	0.130063	-5.61823	1.58832	-100.026	5.30503	0.770519	-6.73062	5.15648	-33.4945	-0.3147
0.6400	2.01598	3.53096	10.4386	-129.623	6.23574	2.61976	-2.13849	2.11331	15.3214	0
0.6407	1.36566	6.27919	6.47147	-194.929	6.23574	-0.102736	1.82334	-7.96718	21.4355	0
0.6413	-1.04051	3.53096	-2.07589	-221.478	1.95449	-2.26019	1.21556	-7.35432	-35.6211	0
0.6420	-0.130063	-2.86999	-2.99195	-142.744	0.139606	2.31156	3.96183	-0.633993	-50.29	0
0.6427	1.69082	-8.97525	1.28543	-24.6485	1.67527	5.65047	10.9851	0.591727	-1.76414	0
0.6433	2.01598	-8.97525	2.80726	39.1388	4.70007	2.31156	14.024	2.11331	84.9203	-0.3147
0.6440	1.04051	-13.2367	0.672265	20.2174	3.21094	1.07873	14.6318	4.54362	140.769	0
0.6447	-1.95095	-23.0121	-0.243788	-5.41846	-2.28023	5.65047	14.6318	-0.0211331	109.642	0
0.6453	-1.95095	-23.6209	1.58832	15.0335	-3.8159	7.19151	13.4162	-5.21988	61.7207	-0.3147
0.6460	0.130063	-15.6893	4.33648	6.47994	-0.791101	3.23618	11.5929	-2.76844	27.2354	-0.3147
0.6467	0.130063	-12.3323	4.63937	-20.6741	1.95449	-1.02736	7.31589	0.27473	-3.28661	0
0.6473	0.130063	-14.4717	1.58832	46.4581	3.21094	-3.80123	0.292636	-1.54272	11.6723	0
0.6480	-2.92642	-4.40065	-2.68167	152.667	2.28023	0.154104	-5.80769	-6.74146	33.0353	0
0.6487	-5.00744	12.3844	-3.29484	174.637	2.28023	9.96538	-7.3384	-7.35432	3.43161	0
0.6493	-1.69082	12.9932	0.672265	147.471	3.49015	16.0268	-5.51505	0.591727	1.90914	0
0.6500	0.78038	4.76592	1.89121	123.983	2.88519	15.7186	-3.37656	9.1295	38.8352	0
0.6507	0.130063	3.53096	0.0591002	83.079	2.28023	10.8386	-2.74627	12.4897	12.2765	-0.3147
0.6513	-0.78038	5.06162	-2.07589	26.6233	1.67527	5.03406	-5.19991	12.1727	-31.0537	0
0.6520	-0.455222	7.80986	-1.46273	5.87514	-0.465354	7.19151	-5.80769	13.7154	-28.6129	-0.3147
0.6527	1.04051	13.9151	1.89121	11.3677	-1.67527	13.6125	-6.12284	13.3984	-35.0169	-0.3147
0.6533	2.01598	18.194	2.20148	-45.088	-2.28023	15.4104	-8.26133	7.60792	-60.3432	0
0.6540	2.27611	17.2721	-0.849565	-130.228	-5.02582	13.6125	-8.26133	0.88759	-83.857	0
0.6547	-1.04051	11.7757	-4.81667	-129.932	-8.4229	10.5304	-8.26133	-3.67716	-97.2693	0
0.6553	-1.36566	9.63621	-4.21089	-83.2394	-7.49219	10.5304	-5.80769	-3.3813	-77.1388	0
0.6560	3.18655	9.34052	-1.46273	-85.0662	-3.21094	12.0715	0	0.591727	-30.1354	-0.3147
0.6567	5.3326	3.84405	2.20148	-84.4614	-0.186141	9.96538	2.43113	3.63489	-3.89077	0.3147
0.6573	1.69082	1.7046	5.25253	-46.31	0.465354	5.03406	0.900417	2.72617	-11.8173	-0.3147
0.6580	-3.51171	6.59228	2.80726	-24.0313	-0.186141	0.154104	-0.630292	-2.76844	-6.33157	-0.944101
0.6587	-1.69082	10.245	2.50437	-17.0083	0.465354	0.770519	-0.922927	-2.15558	21.1213	-0.3147
0.6593	1.04051	7.20107	3.72331	-49.3586	0.744566	2.61976	-3.06142	1.20459	22.0397	-0.629401
0.6600	-0.130063	2.31339	3.42042	-115.59	2.55945	2.00335	-3.6692	2.11331	-13.9681	-1.2588
0.6607	-1.36566	0.173939	1.58832	-98.1865	2.88519	1.69514	-0.630292	2.40917	-50.8942	-0.3147
0.6613	-2.92642	-3.47878	-2.07589	18.9955	-0.465354	0.154104	1.5082	0.27473	-65.2248	0.3147
0.6620	-1.04051	-1.94812	-2.07589	145.336	-1.67527	0.462311	2.43113	1.79631	-59.4249	0.3147
0.6627	-0.130063	3.84405	-0.243788	204.235	0.744566	-0.719151	-1.53071	3.02203	-62.494	-0.629401
0.6633	-3.18655	5.67041	-1.15984	178.303	3.8159	-3.80123	-7.02325	-0.0211331	-86.902	-1.5735
0.6640	-3.83687	5.9835	-4.21089	158.16	3.49015	-5.2909	-7.94618	-2.47257	-76.2205	-1.2588
0.6647	-4.74731	1.09581	-6.95905	129.772	1.67527	-6.21552	-7.63103	-8.26304	-2.68246	-0.944101
0.6653	-5.00744	-5.30514	-3.908	35.473	5.30503	-2.8766	-4.88476	-8.26304	76.6796	0
0.6660	-2.92642	1.7046	0.0591002	-16.0949	8.98133	2.61976	-2.45364	-2.15558	109.642	0
0.6667	0.130063	12.3844	0.975153	-9.99762	7.16645	4.46901	-6.41547	0.27473	98.9609	0
0.6673	1.04051	11.7757	-0.546677	-9.99762	4.42086	-0.719151	-12.8309	-0.929856	77.2838	0
0.6680	-1.69082	4.45284	-5.42983	31.2025	2.88519	-7.75656	-13.7539	-3.67716	61.4065	0
0.6687	-1.04051	-0.730543	-10.0101	75.4512	2.55945	-9.6058	-5.80769	-3.3813	55.6066	0
0.6693	0.78038	-1.04363	-8.17799	73.3159	3.8159	-8.06476	4.25447	-0.33813	61.4065	-0.3147
0.6700	0.455222	2.62648	0.975153	120.008	4.42086	-8.37297	11.5929	1.50045	70.2756	-0.3147
0.6707	-0.130063	2.92217	7.38753	184.709	2.28023	-14.1775	14.9469	1.20459	73.3205	0
0.6713	-1.95095	-1.33933	4.94226	166.096	-3.53669	-21.78	12.8084	-1.85971	77.8879	0
0.6720	-1.95095	-1.94812	1.58832	143.509	-8.70211	-19.3657	13.7314	-3.08543	89.1978	0
0.6727	0.130063	2.31339	1.28543	177.081	-9.63282	-6.83193	21.0472	0.591727	92.2427	0
0.6733	1.36566	5.06162	-3.29484	201.804	-10.8427	5.95868	24.1087	4.54362	84.9203	-0.3147
0.6740	1.69082	6.27919	-7.26194	162.739	-13.5883	7.80792	21.3624	3.63489	72.4022	-0.3147
0.6747	-1.04051	-8.66216	-0.243788	68.4405	-13.9141	-1.95198	14.9469	-0.0211331	49.5167	0
0.6753	-1.95095	-37.3621	6.16858	-7.24519	-10.8427	-3.18481	9.45438	0.88759	27.8396	0.3147
0.6760	0.78038	-47.7288	0.672265	-22.2046	-7.16645	8.73255	7.92367	5.76934	14.4273	0
0.6767	2.60127	-56.5823	-0.546677	-4.19653	-5.35157	22.1396	6.10033	7.29092	4.03577	0
0.6773	2.60127	-84.9691	3.11754	1.29599	-5.67732	28.5606	2.11598	3.33903	-1.44998	0
0.6780	-0.455222	-102.05	3.42042	-31.9677	-6.56149	28.8688	-3.98435	-7.96718	-9.37652	-0.3147
0.6787	-1.36566	-101.128	10.7415	-74.6859	-4.42086	33.1323	-7.3384	-14.6664	-16.6989	0
0.6793	-0.455222	-91.6832	16.5407	-85.6833	-0.186141	41.6594	-5.51505	-14.9834	-17.0131	0
0.6800	-0.78038	-48.0419	11.6575	-56.6902	3.49015	45.9743	-6.73062	-12.2361	-14.2581	0
0.6807	-0.455222	2.92217	7.38753	-6.33183	7.44566	45.3579	-14.9694	3.63489	-9.69068	-0.3147
0.6813	-0.78038	8.73173	0.0591002	45.8533	9.91203	45.6661	-21.9927	17.0755	-0.241663	0
0.6820	-0.455222	39.2406	-6.64877	83.079	10.517	54.5014	-17.7157	14.3282	18.6805	0
0.6827	1.69082	114.017	-4.51378	83.6961	11.7269	60.3059	-10.3773	4.54362	36.0803	0
0.6833	4.09699	124.992	-3.908	58.3688	13.5883	56.0424	-8.26133	-11.6232	40.3577	0
0.6840	3.83687	79.8379	-2.99195	-20.3655	12.6576	48.6968	-7.02325	-29.6286	37.9169	0
0.6847	-1.69082	55.73	4.03359	-156.173	7.16645	38.6287	-7.63103	-29.3116	32.4312	0
0.6853	-3.83687	47.7984	10.1357	-192.189	4.70007	30.4098	-4.59213	-6.42446	32.7211	0
0.6860	-1.69082	32.2309	8.00069	-69.502	5.95653	25.2217	1.82334	10.6511	42.4843	-0.3147
0.6867	-1.04051	23.0643	3.72331	82.1656	4.09511	14.8453	3.96183	14.92	57.1533	-0.3147
0.6873	-0.130063	20.6292	0.0591002	163.652	-0.465354	-11.0955	8.8466	15.8498	68.4389	0
0.6880	-1.04051	12.3844	-4.51378	149.002	-4.14165	-35.8548	15.2396	9.1295	62.3249	0
0.6887	0.130063	11.48	-3.908	96.5079	-5.02582	-29.742	22.578	-0.929856	51.3534	0
0.6893	3.51171	15.1327	-2.68167	69.3539	-4.42086	-16.9	40.8789	-3.08543	44.9251	-0.3147
0.6900	2.27611	13.3063	-6.043	57.7517	-5.67732	-26.9682	58.2795	3.02203	31.8028	-0.3147
0.6907	-1.36566	14.5239	-6.34588	43.4094	-8.09715	-38.5773	53.3947	2.72617	14.7173	-0.3147
0.6913	-1.36566	24.595	-0.243788	33.0415	-11.4477	-36.7281	31.1094	4.54362	-2.3683	-0.3147
0.6920	5.3326	34.666	-5.12694	28.1538	-13.3091	-40.7348	12.2007	37.2154	-16.6989	0
0.6927	11.1204	36.8055	-7.8751	8.01044	-10.8427	-40.1183	3.35405	63.4627	-25.5679	0
0.6933	10.21	29.7783	30.2741	-17.6254	-7.81794	-20.5985	-3.37656	38.737	-30.4495	0
0.6940	3.51171	20.9422	68.1204	-23.118	-8.09715	-8.68118	-14.9694	-8.5589	-36.8536	0
0.6947	-5.00744	23.9862	58.9598	-20.3655	-8.70211	-6.52373	-28.093	-38.4834	-47.2209	0
0.6953	-5.65775	27.6563	58.657	-18.5388	-5.95653	3.54439	-33.8782	-31.1502	-53.335	0
0.6960	-0.130063	22.4555	86.1238	-15.4901	-1.07031	13.6125	-33.2704	4.24775	-52.4167	0
0.6967	1.69082	13.3063	66.894	-16.7121	0.465354	13.3043	-34.1933	29.2693	-52.4167	-0.3147
0.6973	3.18655	-9.89712	11.3546	-22.2046	-2.60598	4.46901	-38.1552	27.7478	-52.4167	-0.3147
0.6980	2.60127	-29.7262	-15.499	-26.7837	-5.95653	-2.5684	-37.5474	11.2639	-47.5351	0
0.6987	-3.83687	-13.5498	-38.393	-27.9933	-6.88723	0.154104	-26.5623	2.40917	-41.421	-0.3147
0.6993	-6.5682	9.34052	-57.6153	-31.0543	-5.02582	1.07873	-14.9694	-1.24685	-39.6085	-0.3147
0.7000	-2.27611	4.45284	-51.2103	-36.8554	-4.74661	-5.03406	-8.26133	-28.107	-44.4901	0
0.7007	-0.78038	-0.434847	-53.6482	-50.5806	-6.56149	-10.4791	-2.74627	-64.7307	-57.2983	0
0.7013	-4.42215	11.48	-61.2795	-80.7956	-7.16645	-16.2836	2.43113	-68.3867	-73.7797	0
0.7020	-6.5682	23.3774	-47.849	-110.393	-5.95653	-19.6739	9.74701	-35.1232	-82.3345	-0.3147
0.7027	-5.00744	25.2037	-28.6267	-124.736	-2.93173	-19.0575	18.301	4.86061	-85.0653	-0.3147
0.7033	-1.36566	13.3063	-19.4661	-133.585	-2.00102	-16.9	21.655	57.6511	-91.1794	0
0.7040	5.98291	-10.5059	-25.2653	-137.251	-1.67527	-12.6365	20.7321	99.7694	-87.2161	0
0.7047	13.2665	-33.0832	-47.849	-131.154	0.139606	-19.9821	16.4776	60.3984	-64.3065	0
0.7053	13.2665	-25.7603	-79.5858	-118.021	-0.186141	-36.7281	13.4162	-2.15558	-32.8903	0
0.7060	9.62469	0.173939	-96.6805	-106.431	-1.07031	-44.3819	13.4162	-15.2792	-14.5723	0
0.7067	4.74731	-8.66216	-57.3124	-107.345	-0.465354	-38.8855	8.8466	-11.0103	-21.8947	0
0.7073	-3.83687	-36.4402	30.577	-117.108	-0.791101	-27.2764	2.11598	3.33903	-44.4901	0
0.7080	-12.0309	-38.5796	86.1238	-130.845	-2.00102	-19.0575	-2.13849	25.0005	-69.5022	0
0.7087	-14.1769	-26.3691	76.9706	-138.782	-2.28023	-13.5611	-0.922927	23.4789	-84.147	0
0.7093	-11.1204	-30.3349	39.7375	-110.393	-2.60598	-7.14014	3.96183	10.9681	-85.9836	0
0.7100	-5.3326	-43.1542	7.69041	15.0335	-2.60598	-1.02736	5.78518	16.7585	-62.784	0
0.7107	-1.69082	-56.878	-2.07589	160.9	-2.28023	2.00335	5.49254	9.74236	-6.93572	0
0.7113	-3.18655	-80.0815	7.69041	156.025	-2.60598	0.462311	3.35405	-37.2577	41.5902	-0.3147
0.7120	-3.83687	-85.8736	16.8509	81.2523	-1.67527	1.07873	3.35405	-71.4299	72.088	-0.3147
0.7127	-0.455222	-71.5411	18.0699	55.925	0.465354	4.77722	5.78518	-61.9834	105.051	-0.3147
0.7133	-0.455222	-70.3061	17.7596	38.8303	0.744566	6.26689	6.70811	-36.6448	104.761	0
0.7140	-4.09699	-73.9762	14.1028	26.6233	-1.07031	4.1608	3.03891	-25.6556	67.2064	0
0.7147	-7.15348	-70.9323	1.58832	13.503	-3.53669	-0.410943	-5.19991	-33.6016	39.1252	0
0.7153	-8.71424	-26.9779	-16.7254	5.87514	-2.60598	-0.719151	-7.3384	-40.9137	19.913	0
0.7160	-5.91788	70.6714	-27.0974	36.0902	-1.39606	2.31156	-5.19991	-44.8867	3.11745	-0.3147
0.7167	-1.95095	118.278	-23.1303	40.9656	-2.28023	2.31156	-5.51505	-44.5697	-2.3683	0
0.7173	-3.18655	78.6204	-14.583	0.0740564	-2.28023	-2.26019	-7.02325	-35.1232	-3.28661	-0.3147
0.7180	-5.3326	39.8494	-10.313	4.04842	-3.8159	-8.68118	-9.76952	-19.5481	-11.2132	-0.3147
0.7187	-2.60127	31.0133	-4.21089	56.8383	-3.21094	-10.7873	-10.3773	6.69919	-26.7762	0
0.7193	2.01598	23.3774	4.94226	86.14	-1.39606	-8.06476	-8.26133	8.51664	-31.3678	-0.629401
0.7200	2.92642	18.4897	7.69041	82.1656	-0.791101	-6.52373	-8.86911	-31.1502	-31.972	-1.2588
0.7207	-0.78038	18.194	4.33648	70.2672	0.465354	-7.44835	-12.8309	-40.3008	-56.9841	-0.944101
0.7213	-3.51171	13.3063	0.0591002	52.5677	1.95449	-11.7119	-15.2621	-5.21988	-62.1799	-0.629401
0.7220	-1.95095	10.8712	-2.07589	31.8196	3.21094	-17.2083	-7.94618	17.6673	-2.68246	-0.944101
0.7227	1.69082	14.2282	-1.76562	16.2554	5.95653	-23.9375	4.56962	15.237	55.6066	-0.629401
0.7233	2.01598	13.3063	-0.243788	4.65321	8.70211	-31.2317	10.3548	3.33903	47.0759	-0.629401
0.7240	0.130063	9.34052	0.369376	-2.06124	8.37637	-29.4338	12.2007	-3.99416	15.3214	-1.2588
0.7247	-1.69082	7.51416	-2.37878	-0.234512	4.70007	-15.9754	15.5547	-1.85971	12.8806	-0.629401
0.7253	-2.60127	8.73173	-2.99195	3.43128	4.09511	-4.41764	22.2628	4.86061	13.1948	0
0.7260	-1.04051	13.3063	2.80726	0.987419	11.122	0.154104	32.0323	8.22078	-6.93572	-0.3147
0.7267	0.130063	16.959	5.85831	2.82649	17.2181	3.54439	37.5249	6.69919	-23.7313	-0.3147
0.7273	-0.78038	16.3503	2.80726	10.1457	14.7982	5.34226	34.1708	2.40917	-30.4495	-0.3147
0.7280	-2.60127	16.3503	-0.849565	-22.2046	8.05062	5.03406	22.578	-1.85971	-42.9435	0
0.7287	-1.04051	13.9151	-0.243788	-68.8972	5.02582	10.5304	13.7314	2.11331	-46.0126	-0.3147
0.7293	1.36566	1.4089	4.03359	-25.2533	4.42086	19.4171	13.4162	12.4897	-33.8086	-0.3147
0.7300	0.78038	-8.66216	4.94226	58.3688	1.67527	19.7253	11.5929	13.7154	-24.9396	-0.3147
0.7307	0.130063	-5.30514	1.89121	76.3645	0.744566	13.3043	3.96183	7.90378	14.4273	0
0.7313	-1.36566	-2.5569	-1.76562	60.8127	-0.791101	12.9961	-5.51505	3.63489	87.047	-0.629401
0.7320	-1.04051	-1.33933	-0.849565	52.2592	-4.74661	23.0642	-9.76952	2.40917	124.577	-1.2588
0.7327	2.60127	2.62648	4.03359	40.0522	-5.35157	29.177	-9.76952	6.3822	91.0102	-0.3147
0.7333	3.18655	3.53096	4.63937	15.9468	-5.95653	23.9888	-11.6154	9.4465	22.3538	0
0.7340	0.130063	1.7046	1.89121	-0.530738	-10.2378	12.3797	-14.6543	7.60792	-35.9353	-0.3147
0.7347	-1.95095	-1.04363	-1.46273	4.96178	-11.4477	1.69514	-21.0698	2.72617	-87.2161	0
0.7353	-0.455222	-1.04363	-1.15984	7.70187	-8.4229	3.54439	-22.6005	3.33903	-102.465	0
0.7360	1.69082	1.4089	2.20148	3.43128	-5.35157	10.5304	-17.4006	7.29092	-14.8864	-0.3147
0.7367	2.01598	2.01769	2.80726	4.04842	-5.02582	10.5304	-15.8698	7.90378	103.528	0
0.7373	2.27611	1.09581	1.58832	-0.839306	-8.09715	5.65047	-17.1079	7.29092	123.369	0.3147
0.7380	0.78038	-0.730543	-0.849565	-17.0083	-9.02786	-0.102736	-15.8698	4.24775	73.9247	0
0.7387	0.455222	-1.04363	-0.546677	-25.2533	-6.28227	-1.95198	-7.94618	3.95189	34.2436	0
0.7393	2.27611	0.173939	1.58832	-19.1436	-4.74661	-1.33557	0	6.69919	15.0314	0
0.7400	2.60127	1.4089	2.80726	-18.8474	-4.14165	-0.102736	3.35405	6.69919	5.55825	-0.3147
0.7407	1.04051	0.800119	2.20148	-13.0463	-4.14165	3.23618	3.03891	5.47347	-6.33157	0
0.7413	-0.455222	-2.86999	-1.15984	19.9088	-5.95653	6.26689	0.900417	3.33903	-7.56405	0.3147
0.7420	-1.04051	-3.18308	-1.15984	41.2741	-4.42086	12.0715	2.74627	1.79631	11.6723	-0.629401
0.7427	0.130063	0.487029	2.50437	31.511	0.744566	18.8007	2.74627	3.02203	22.668	-1.2588
0.7433	2.27611	2.31339	3.72331	21.7479	3.21094	21.215	-3.37656	6.3822	29.6762	-0.3147
0.7440	2.92642	1.09581	1.28543	17.7735	3.49015	21.215	-11.3002	6.3822	53.7942	0
0.7447	0.130063	-2.26121	-2.07589	10.4543	3.21094	23.3724	-18.9313	1.79631	71.798	-0.3147
0.7453	0.455222	-2.5569	-1.15984	4.65321	4.42086	25.5299	-19.539	2.11331	75.1572	0
0.7460	3.51171	-0.121757	2.20148	-0.530738	7.44566	23.3724	-12.5158	5.76934	55.0025	0
0.7467	3.83687	0.800119	3.11754	-3.28317	8.98133	20.5985	-3.6692	5.47347	18.6805	0
0.7473	2.60127	0.173939	1.28543	0.691194	7.44566	20.9067	0.607781	3.02203	17.1581	0
0.7480	0.130063	-1.94812	-2.07589	8.01044	4.70007	23.0642	1.21556	0.27473	33.9536	0
0.7487	-0.455222	-2.5569	-1.76562	14.1201	2.88519	28.2524	5.78518	-0.0211331	29.072	0
0.7493	1.69082	-1.33933	0.975153	15.3297	3.21094	35.2898	15.8473	2.40917	22.3538	0
0.7500	2.92642	-0.121757	2.20148	11.0591	4.09511	40.1697	24.4013	4.24775	23.2721	-0.3147
0.7507	2.27611	-0.730543	0.369376	4.04842	3.21094	41.0943	27.1476	3.02203	20.2272	0
0.7513	0.130063	-2.86999	-2.07589	2.51792	2.55945	37.7041	24.7164	0.27473	22.0397	0.3147
0.7520	0.130063	-3.18308	-1.46273	2.20935	4.42086	35.2898	14.9469	0.88759	29.6762	0.3147
0.7527	2.27611	-0.434847	1.58832	-4.80133	4.09511	36.7794	5.1774	3.95189	27.8396	-0.3147
0.7533	2.01598	1.4089	3.11754	-3.5794	0.465354	32.8241	4.56962	4.54362	17.4722	0
0.7540	1.04051	-0.730543	0.672265	8.01044	-3.53669	18.4925	3.03891	2.11331	7.39488	0
0.7547	-0.130063	-3.79187	-1.76562	8.62758	-3.53669	-0.410943	-3.98435	-1.24685	-1.13582	0
0.7553	-0.130063	-2.5569	-0.546677	1.29599	2.28023	-13.5611	-6.73062	-1.24685	-6.33157	-0.3147
0.7560	2.01598	-0.434847	1.58832	1.29599	5.30503	-13.5611	-5.80769	1.50045	-7.56405	-0.3147
0.7567	2.01598	-0.434847	1.28543	2.51792	6.56149	-7.44835	-7.3384	2.40917	-8.77236	0
0.7573	1.69082	-1.33933	0.672265	-6.93662	9.30707	-5.03406	-7.63103	2.11331	-10.2948	0
0.7580	0.455222	-3.18308	-1.46273	-20.3655	5.63078	-11.7119	-7.02325	-0.33813	-11.8173	-0.3147
0.7587	-0.455222	-4.40065	-2.68167	-22.5008	0.744566	-20.5985	0.292636	-1.85971	-12.4456	-0.3147
0.7593	2.01598	-1.65242	0.369376	-11.8243	-1.39606	-13.5611	19.2239	1.20459	-9.37652	0
0.7600	3.83687	0.800119	2.80726	-1.75267	-4.42086	3.85259	40.8789	2.72617	-6.01741	-0.3147
0.7607	2.27611	-0.730543	1.28543	-5.1099	-6.56149	2.00335	45.4711	0.591727	-7.24989	0
0.7613	-1.04051	-3.79187	-2.07589	-15.4901	-8.70211	-12.3283	25.3242	-3.3813	-12.1315	0
0.7620	-1.04051	-2.86999	-0.849565	-16.0949	-12.0527	-9.6058	6.10033	-3.3813	-13.364	-0.3147
0.7627	1.69082	-0.121757	2.80726	-10.6024	-8.70211	7.80792	-0.922927	-0.0211331	-10.2948	-0.3147
0.7633	2.60127	0.173939	2.80726	-11.2196	-1.07031	17.5678	-10.0847	1.50045	-9.37652	0
0.7640	2.92642	-1.04363	0.975153	-14.5768	0.139606	11.7633	-16.185	-0.33813	-10.609	0
0.7647	1.04051	-2.86999	-2.37878	-15.7864	-5.02582	-1.64377	-11.6154	-4.60702	-11.5273	-0.3147
0.7653	1.04051	-2.86999	-1.15984	-13.6511	-6.88723	-17.5165	-0.315146	-4.60702	-10.9232	-0.3147
0.7660	1.69082	-0.121757	2.20148	-11.2196	-2.60598	-26.0435	9.13923	-0.633993	-9.69068	0
0.7667	-0.455222	-0.121757	3.11754	-11.8243	1.07031	-28.5092	11.8855	2.11331	-9.69068	0
0.7673	-0.78038	-2.86999	2.20148	-16.4035	-1.07031	-37.3445	15.5547	6.08633	-9.69068	0
0.7680	-1.04051	-7.14889	-1.46273	-21.896	-2.93173	-37.3445	18.301	6.69919	-12.1315	0
0.7687	-0.455222	-7.44458	-1.46273	-22.8094	0.465354	-13.2529	11.5929	6.99506	-13.654	-0.3147
0.7693	2.27611	-3.79187	1.28543	-19.7607	1.67527	16.0268	-2.13849	9.4465	-14.5723	0
0.7700	4.09699	3.53096	1.58832	-21.2912	-1.39606	29.177	-13.4387	5.76934	-18.5355	-0.3147
0.7707	3.18655	9.63621	0.369376	-30.7458	-4.74661	16.9514	-20.462	-4.60702	-22.813	-0.3147
0.7713	-0.455222	8.12294	-1.46273	-39.2869	-9.63282	-7.75656	-23.5009	-13.4618	-24.6496	-0.3147
0.7720	-1.04051	3.23526	-0.243788	-40.5089	-12.3784	-35.2384	-15.5772	-10.3975	-23.1271	-0.944101
0.7727	1.36566	-0.730543	2.20148	-42.6442	-7.81794	-62.6689	-4.88476	5.15648	-20.058	-0.629401
0.7733	2.27611	-5.00944	2.20148	-42.6442	-2.60598	-66.6756	-6.12284	16.1457	-20.6863	0
0.7740	0.455222	-3.18308	-2.68167	-22.5008	-2.28023	-55.991	-13.4387	3.33903	-23.1271	-0.3147
0.7747	-1.04051	3.23526	-12.1451	7.09708	-2.00102	-47.7208	-17.1079	-19.8651	-24.3354	0
0.7753	1.69082	1.4089	-15.499	20.526	-0.791101	-32.7727	-17.7157	-23.5211	-22.2088	0
0.7760	3.83687	-0.121757	-13.6669	18.0821	-1.67527	-16.5918	-17.7157	-12.5319	-17.6172	-0.3147
0.7767	1.69082	5.37471	-17.9443	8.62758	-1.67527	-9.6058	-17.4006	-3.67716	-16.0947	-0.3147
0.7773	-0.78038	2.01769	-30.4514	-2.36981	-1.39606	-10.2222	-17.7157	3.63489	-18.2455	-0.3147
0.7780	-1.04051	-5.91392	-32.5938	-11.8243	-1.67527	-12.9447	-19.539	2.72617	-20.3722	-0.3147
0.7787	-1.04051	-4.40065	-10.0101	-12.4415	-0.791101	-11.4037	-17.4006	-7.35432	-19.768	-0.3147
0.7793	0.130063	-1.65242	8.30358	-1.4441	0.139606	-6.52373	-11.908	-12.2361	-16.4089	-0.3147
0.7800	2.92642	-0.730543	15.6246	7.09708	0.744566	-4.41764	-9.16174	-11.9191	-13.654	-0.3147
0.7807	3.51171	2.62648	28.1391	4.34465	1.07031	-6.21552	-10.6925	-20.161	-14.2581	0
0.7813	2.92642	-1.33933	26.0041	-2.06124	-0.186141	-9.91401	-13.7539	-31.4672	-16.4089	0.3147
0.7820	5.00744	-6.5401	21.1209	-3.5794	0.465354	-8.98939	-13.4387	-25.9726	-16.6989	0
0.7827	7.47864	0.800119	40.9564	-0.839306	3.21094	-2.8766	-9.16174	0.591727	-13.9681	0
0.7833	6.89336	6.27919	59.573	0.0740564	4.09511	1.07873	-6.41547	20.7316	-12.7356	0
0.7840	2.92642	1.4089	55.303	-2.06124	2.88519	1.07873	-7.3384	25.0005	-13.0498	-0.3147
0.7847	-4.09699	-9.58403	37.9054	-5.72703	1.67527	-0.719151	-8.26133	46.9789	-15.1764	-0.3147
0.7853	-4.42215	-15.6893	15.3217	-4.19653	2.55945	0.462311	-4.27698	63.4627	-14.8864	0
0.7860	5.00744	-8.05337	-13.9772	0.382625	4.70007	3.54439	1.82334	35.3768	-7.24989	0
0.7867	10.21	5.67041	-39.9148	1.29599	4.42086	4.77722	3.96183	9.74236	-2.05413	0
0.7873	7.15348	20.9422	-46.933	-2.36981	2.88519	5.03406	3.96183	7.29092	-4.80909	0.3147
0.7880	-0.130063	17.8809	-43.2687	-6.93662	0.744566	2.31156	1.5082	-2.47257	-10.0048	0
0.7887	-5.00744	-11.1147	-30.4514	-6.6404	0.744566	-0.719151	0	-13.7576	-9.69068	0
0.7893	-4.42215	-17.8287	1.58832	-3.28317	2.55945	-0.102736	3.03891	-14.0535	-6.01741	0
0.7900	-1.36566	8.12294	27.5259	-2.06124	2.28023	2.00335	6.39296	-14.3705	-3.89077	0
0.7907	1.69082	26.1256	26.0041	-1.4441	-0.186141	1.07873	4.25447	-16.8008	-3.28661	0
0.7913	0.78038	27.0301	29.358	-2.66603	-2.28023	-7.75656	-5.19991	4.24775	-5.41325	0
0.7920	-0.78038	21.551	54.6899	-2.66603	-1.39606	-15.6672	-9.47689	47.2747	-6.01741	-0.3147
0.7927	-1.36566	16.959	63.843	0.987419	0.744566	-12.9447	-4.88476	67.4146	-3.89077	-0.3147
0.7933	-4.42215	15.4458	43.3943	2.51792	1.34953	-1.95198	0	53.3822	-2.68246	0
0.7940	-8.71424	4.45284	18.0699	0.382625	1.34953	5.34226	1.21556	34.4681	-4.20493	0
0.7947	-12.0309	-8.36646	-12.448	-2.9746	-0.186141	0.462311	0	13.1025	-6.93572	0
0.7953	-6.5682	4.15714	-38.9987	-2.36981	-0.465354	-8.68118	5.78518	-31.4672	-5.41325	-0.3147
0.7960	4.09699	12.0888	-40.528	0.691194	1.34953	-15.1022	15.5547	-74.79	-1.76414	-0.3147
0.7967	7.47864	-6.5401	-31.0645	1.91312	4.09511	-18.1329	16.7703	-65.6394	-1.44998	0
0.7973	4.74731	-12.628	-28.6267	0.0740564	4.09511	-17.5165	14.6318	-18.0265	-3.28661	0
0.7980	4.42215	-14.1586	-28.9296	-2.9746	1.95449	-12.3283	17.9858	5.15648	-5.41325	0
0.7987	8.38908	-25.7603	-18.5501	-2.06124	3.8159	-6.83193	20.4395	-23.2253	-5.12325	0
0.7993	10.21	-28.5086	-2.37878	0.382625	5.95653	-8.68118	17.378	-72.0427	-2.97245	0
0.8000	6.24304	-25.1516	1.58832	-1.14787	4.70007	-12.3283	11.5929	-93.4083	-1.76414	0
0.8007	-2.27611	-19.6551	-15.1961	-5.1099	3.8159	-13.8693	4.56962	-95.8597	-3.57661	0
0.8013	-9.62469	-13.8629	-37.1666	-6.6404	2.55945	-12.3283	0.607781	-93.4083	-5.41325	0
0.8020	-9.88481	-5.30514	-38.9987	-2.9746	1.07031	-5.03406	3.64669	-47.0211	-3.57661	0
0.8027	-8.38908	23.9862	-21.2982	0.382625	-0.186141	9.04075	10.6699	31.4038	0.0724989	0.3147
0.8033	-12.6812	45.9547	-4.51378	-1.75267	-1.67527	22.1396	12.8084	64.0544	-0.531658	0
0.8040	-16.3229	14.2282	-7.26194	-5.72703	-3.21094	22.1396	4.56962	35.3768	-3.57661	-1.2588
0.8047	-11.7707	-27.291	-22.2143	-6.33183	-2.60598	9.04075	-6.73062	-19.5481	-5.12325	-0.944101
0.8053	-2.92642	-32.7701	-17.3311	-3.5794	0.139606	1.07873	-12.5158	-61.6664	-4.49493	-0.3147
0.8060	2.92642	-24.2297	8.90936	0.382625	3.21094	3.85259	-12.5158	-62.8921	-2.68246	0
0.8067	5.65775	-12.0192	11.6575	1.29599	5.30503	6.26689	-9.16174	-47.634	-1.76414	0
0.8073	5.65775	-15.3762	-1.15984	-1.4441	4.70007	6.26689	-6.73062	-20.7738	-4.80909	0
0.8080	2.27611	-30.648	18.0699	-4.19653	1.67527	11.455	-8.26133	31.7208	-8.1682	0
0.8087	-1.04051	-34.6138	40.0404	-2.36981	1.34953	19.4171	-9.47689	75.0436	-6.33157	-0.3147
0.8093	-1.95095	-31.2568	26.0041	1.91312	4.09511	18.1842	-6.12284	69.2532	-1.44998	-0.3147
0.8100	-2.27611	-13.5498	1.89121	3.43128	5.30503	12.9961	-0.922927	14.6241	0.990818	0
0.8107	-2.27611	4.15714	-3.908	2.82649	2.88519	17.2596	6.70811	-31.4672	0.676656	0
0.8113	-2.92642	5.9835	0.369376	1.29599	-0.186141	22.756	13.1011	-36.3489	-0.84582	0
0.8120	-3.18655	9.63621	8.90936	2.20935	-0.791101	21.5232	10.6699	-31.763	0.0724989	0
0.8127	0.130063	13.9151	22.037	4.34465	0.465354	20.5985	1.82334	-31.4672	2.51329	0
0.8133	3.18655	20.0204	25.6938	2.51792	0.744566	18.8007	-7.3384	-31.1502	2.19913	0.3147
0.8140	4.09699	22.4555	19.2888	-0.530738	-0.465354	11.455	-8.26133	-25.0427	0.386661	0
0.8147	-0.130063	9.9493	12.8765	-4.19653	-2.93173	1.07873	3.35405	-27.1772	-1.44998	-0.3147
0.8153	-5.65775	3.53096	-0.546677	-3.5794	-1.67527	0.154104	17.9858	-34.2145	-0.241663	0
0.8160	-3.83687	8.12294	-21.2982	0.382625	1.07031	6.26689	23.4784	-26.2684	3.74577	-0.629401
0.8167	1.04051	5.9835	-30.7617	1.60456	2.55945	8.11613	21.655	-15.5962	4.95409	-0.629401
0.8173	2.92642	0.487029	-21.9114	0.382625	4.70007	9.04075	17.6932	-3.08543	3.11745	0
0.8180	-1.36566	-1.94812	-9.69982	-2.9746	4.70007	10.2222	14.6318	14.3282	-0.531658	0
0.8187	-5.00744	1.7046	-2.68167	-4.19653	4.09511	19.4171	13.1011	25.0005	-1.44998	0
0.8193	-2.27611	8.12294	-0.546677	-3.5794	8.37637	32.8241	3.35405	18.5971	0.0724989	0
0.8200	1.69082	9.63621	-0.849565	-6.33183	12.9368	27.3277	-12.2232	5.15648	0.0724989	-0.3147
0.8207	1.36566	-1.94812	-2.37878	-7.24519	10.8427	5.95868	-19.539	15.237	-0.531658	0
0.8213	-0.78038	-13.8629	-5.12694	-5.41846	6.23574	1.38693	-20.1468	33.5382	-0.531658	0
0.8220	-0.455222	-8.97525	-3.908	-2.36981	5.30503	21.215	-20.1468	32.0166	0.0724989	-0.3147
0.8227	2.01598	-0.121757	-0.546677	-0.234512	5.95653	35.2898	-20.1468	24.3876	0.990818	-0.3147
0.8233	1.69082	3.53096	0.672265	0.987419	7.16645	34.6733	-16.185	23.1619	1.59497	0
0.8240	-0.130063	5.06162	0.0591002	1.29599	8.70211	36.7794	-11.0076	22.866	0.386661	0
0.8247	-1.36566	2.62648	-1.76562	-0.530738	5.63078	42.2758	-10.0847	18.5971	-2.3683	-0.3147
0.8253	-1.04051	1.09581	-2.68167	-0.234512	-1.39606	43.5086	-5.19991	15.237	-1.76414	0
0.8260	0.78038	3.23526	-1.15984	4.04842	-5.35157	45.0497	11.2777	15.8498	2.82746	-0.3147
0.8267	1.69082	4.76592	0.672265	12.5896	-7.49219	44.125	30.8168	16.7585	8.3132	0
0.8273	1.36566	6.27919	-0.546677	18.6869	-9.02786	30.9749	37.84	20.1187	10.4398	0
0.8280	-0.78038	8.41864	-4.21089	16.5516	-11.4477	12.6879	34.4635	28.9735	6.47656	0
0.8287	-2.92642	10.5581	-5.73272	15.3297	-14.1933	3.54439	37.5249	42.71	4.66409	0
0.8293	-0.78038	15.1327	-4.21089	18.0821	-14.519	1.69514	44.5481	51.2478	5.87241	0.3147
0.8300	2.01598	18.8028	0.672265	15.6383	-12.6576	-1.02736	37.5249	46.366	3.74577	0.3147
0.8307	0.455222	11.7757	0.369376	5.27035	-8.4229	-11.7119	14.3391	28.6565	-2.3683	0
0.8313	-2.92642	-4.08756	-10.6159	-7.86233	-3.8159	-34.622	-9.47689	-6.1286	-9.69068	-0.3147
0.8320	-2.27611	-13.8629	-12.448	-15.7864	-1.39606	-54.7582	-22.8931	-47.317	-12.1315	-0.3147
0.8327	0.130063	-14.4717	0.975153	-14.2682	-0.465354	-53.8336	-27.1701	-54.9461	-9.08652	0
0.8333	-1.04051	-10.8016	8.30358	-12.1329	-1.39606	-43.4573	-27.1701	-25.9726	-6.33157	0
0.8340	-2.60127	-6.5401	7.08464	-15.4901	-2.00102	-36.7281	-26.2472	-2.76844	-6.33157	0
0.8347	-2.92642	-5.91392	6.77436	-17.3169	-0.186141	-27.8928	-27.4852	4.24775	-7.85404	-0.3147
0.8353	-3.51171	-4.08756	8.60647	-11.8243	5.02582	-16.5918	-26.5623	15.5328	-6.64573	-1.2588
0.8360	-1.04051	2.62648	7.08464	-4.19653	10.8427	-8.68118	-22.6005	26.2262	-2.3683	-1.2588
0.8367	3.18655	4.15714	0.975153	-3.5794	13.5883	-7.75656	-21.9927	12.1727	-1.44998	0
0.8373	5.3326	0.173939	-3.29484	-8.46712	10.1912	-12.3283	-22.2853	-8.5589	-2.3683	0
0.8380	3.18655	-1.65242	-3.908	-13.0463	3.21094	-19.3657	-17.4006	-7.65018	-2.68246	0
0.8387	1.69082	-1.65242	-1.46273	-11.2196	-2.28023	-16.2836	-7.94618	2.11331	-0.531658	0.3147
0.8393	3.51171	0.800119	3.42042	-2.9746	-4.42086	1.07873	3.03891	7.60792	4.34993	0
0.8400	4.09699	2.62648	5.55542	3.43128	-5.35157	4.46901	13.7314	9.4465	6.47656	0
0.8407	2.27611	1.7046	5.25253	5.56658	-4.74661	-11.0955	21.655	6.69919	5.26825	-0.3147
0.8413	-0.130063	-1.04363	1.58832	4.34465	0.139606	-11.0955	24.4013	1.20459	1.90914	-0.629401
0.8420	-0.455222	-1.04363	0.369376	8.31901	7.77141	10.8386	28.0705	0.88759	0.990818	0
0.8427	1.69082	1.7046	3.72331	14.7249	9.30707	21.5232	26.5398	4.24775	3.43161	0
0.8433	2.60127	2.62648	3.72331	11.9725	4.42086	12.9961	12.2007	4.86061	2.82746	0
0.8440	2.27611	1.4089	1.58832	4.04842	0.465354	-0.719151	0.900417	3.33903	0.0724989	0
0.8447	0.455222	-1.04363	-2.37878	-6.02326	-2.00102	-15.9754	-0.922927	0.27473	-3.89077	0
0.8453	0.455222	-1.04363	-3.59773	-12.1329	-1.39606	-29.1256	-4.27698	0.27473	-6.64573	0
0.8460	1.69082	1.4089	0.369376	-7.24519	0.465354	-44.6901	-9.76952	4.24775	-4.80909	0
0.8467	1.04051	2.01769	2.50437	-1.75267	-0.465354	-62.6689	-14.9694	4.54362	-2.05413	0
0.8473	1.69082	-0.121757	0.369376	-2.66603	-1.39606	-66.6756	-19.539	1.20459	-2.05413	0
0.8480	0.78038	-3.47878	-2.37878	-4.19653	-3.53669	-55.3746	-21.3624	-1.24685	-2.97245	-0.3147
0.8487	0.130063	-3.79187	0.672265	-1.4441	-7.81794	-33.6974	-14.6543	0.88759	-2.05413	-0.3147
0.8493	2.27611	-1.94812	6.47147	4.34465	-11.1685	-5.03406	-3.98435	4.54362	0.386661	-0.3147
0.8500	3.18655	-1.94812	0.0591002	6.18371	-13.3091	14.8453	-0.922927	7.90378	1.30498	0
0.8507	1.69082	0.173939	-13.364	1.91312	-11.7734	16.9514	-3.98435	14.92	-0.531658	0
0.8513	-1.95095	3.84405	-21.9114	-5.72703	-7.81794	5.03406	-7.94618	20.1187	-4.49493	0
0.8520	-3.18655	5.06162	-13.6669	-9.08426	-4.14165	-4.10943	-4.88476	21.6403	-5.72741	0
0.8527	-1.04051	9.63621	11.9678	-6.02326	-1.07031	-1.95198	2.11598	17.0755	-2.97245	0
0.8533	-0.130063	13.602	23.8691	-4.5051	-1.07031	0.462311	1.5082	2.11331	-0.84582	0
0.8540	1.36566	7.51416	11.9678	-4.5051	-2.00102	-3.18481	-2.74627	-16.8008	-0.84582	0
0.8547	0.78038	-1.04363	-2.37878	-6.02326	-2.93173	-7.75656	-4.88476	-34.8062	-3.28661	-0.3147
0.8553	1.69082	-8.66216	-8.78377	-5.72703	-2.00102	-8.68118	-3.06142	-35.1232	-2.97245	-0.3147
0.8560	4.42215	-13.8629	-6.95905	-2.66603	1.67527	-8.68118	-0.630292	-7.65018	-0.531658	-0.3147
0.8567	3.51171	-5.61823	-6.043	-2.36981	3.49015	-12.3283	-2.45364	16.1457	-0.84582	0
0.8573	2.60127	5.06162	-8.17799	-4.5051	3.21094	-16.5918	-4.88476	10.6511	-2.68246	0
0.8580	0.78038	1.4089	0.672265	-8.46712	1.34953	-22.0882	-10.0847	-7.03732	-5.12325	0
0.8587	0.130063	-2.86999	22.6428	-7.24519	-0.186141	-22.7046	-13.4387	-9.17177	-4.49493	0
0.8593	2.60127	-0.434847	33.9383	-0.234512	-0.186141	-15.6672	-7.94618	-4.90288	0.386661	-0.3147
0.8600	2.92642	-1.65242	23.5588	4.04842	-0.465354	-9.91401	0.607781	-9.78463	4.66409	0
0.8607	3.18655	0.487029	6.77436	4.34465	-0.465354	-6.83193	6.70811	-10.1016	4.34993	0
0.8613	3.18655	1.4089	-8.48088	1.29599	-0.791101	-5.5991	10.6699	3.63489	0.386661	0
0.8620	0.455222	-6.22701	-16.1122	0.382625	0.139606	0.770519	15.5547	20.1187	0.386661	-0.944101
0.8627	-1.36566	-7.75767	-9.09404	4.96178	2.55945	11.7633	14.9469	22.549	4.03577	-0.944101
0.8633	-2.27611	-5.00944	5.85831	7.70187	3.8159	12.3797	8.23882	22.2532	4.34993	-0.3147
0.8640	-2.27611	-8.05337	20.818	4.96178	2.28023	2.92797	3.96183	23.4789	2.51329	-1.2588
0.8647	-1.04051	-8.97525	27.5259	0.987419	1.07031	1.07873	0	10.3552	0.386661	-0.944101
0.8653	2.01598	-4.08756	25.088	0.691194	2.88519	7.80792	-3.6692	3.95189	-0.241663	0
0.8660	5.00744	-3.79187	29.358	3.12271	3.49015	10.2222	-2.74627	14.6241	1.90914	0
0.8667	7.8038	-4.08756	36.6865	4.04842	2.88519	12.3797	0	14.3282	3.74577	0
0.8673	9.94984	4.15714	12.8765	1.29599	0.744566	16.335	-5.19991	-5.21988	2.19913	0
0.8680	10.21	17.2721	-23.4332	-3.5794	-2.93173	16.0268	-13.7539	-20.161	-1.76414	-0.3147
0.8687	7.8038	31.9178	-24.3493	-2.9746	-3.53669	14.5371	-11.908	-22.9083	-2.3683	0
0.8693	2.01598	27.6563	-11.229	1.29599	-0.465354	14.8453	-3.6692	-18.3435	0.676656	0
0.8700	-5.00744	-2.86999	-19.4661	2.20935	2.55945	17.5678	-2.74627	8.22078	3.43161	0
0.8707	-10.21	-25.1516	-25.8785	0.987419	3.21094	21.215	-10.0847	37.5112	2.82746	0
0.8713	-10.21	-20.8727	-0.546677	0.382625	1.67527	22.4478	-18.3235	25.6133	0.0724989	-0.3147
0.8720	-6.5682	-1.33933	29.358	0.987419	1.67527	24.297	-17.4006	-7.65018	0.0724989	-0.3147
0.8727	-5.65775	16.3503	30.8872	0.987419	3.49015	25.7867	-9.47689	-21.9996	2.19913	0
0.8733	-4.74731	21.8467	22.6428	-1.4441	4.09511	17.5678	-7.94618	-29.3116	1.30498	0
0.8740	-1.04051	14.5239	21.7267	-3.5794	3.21094	2.92797	-14.6543	-38.7792	-0.531658	0
0.8747	-2.60127	2.92217	8.00069	-2.66603	1.67527	-1.33557	-14.9694	-43.0481	-0.531658	0
0.8753	-5.00744	3.84405	-15.1961	0.987419	2.88519	6.26689	-3.37656	-42.4353	1.59497	0
0.8760	-1.69082	3.53096	-21.6011	3.73985	6.23574	13.3043	4.56962	-25.0427	4.03577	-0.3147
0.8767	0.455222	-15.6893	-20.0793	4.65321	8.37637	16.9514	3.64669	-2.47257	5.55825	-0.3147
0.8773	0.130063	-24.2297	-21.9114	3.12271	8.70211	16.9514	3.64669	-4.90288	4.34993	0
0.8780	-1.36566	-16.2981	-24.3493	-0.839306	5.95653	7.49972	5.1774	-8.8759	1.59497	0
0.8787	-1.95095	-11.1147	-21.9114	1.29599	2.55945	0.462311	9.45438	5.15648	1.90914	-0.3147
0.8793	-0.455222	-6.5401	-13.0611	10.4543	0.465354	16.6432	22.578	10.3552	6.47656	-0.3147
0.8800	0.78038	-2.5569	-6.95905	16.8602	-2.93173	37.0876	44.5481	6.69919	10.4398	-0.3147
0.8807	-0.130063	-1.94812	-5.42983	17.7735	-5.95653	24.297	61.0258	6.3822	10.4398	0
0.8813	-1.69082	-2.86999	-7.26194	14.7249	-8.09715	-5.03406	50.9636	6.08633	7.99904	-0.3147
0.8820	-1.95095	-2.5569	-9.69982	13.1944	-8.4229	-11.0955	34.4635	8.51664	7.70905	0
0.8827	-0.130063	-0.121757	-9.39693	14.1201	-5.35157	-0.102736	33.563	11.2639	7.70905	0.3147
0.8833	1.04051	0.173939	-4.81667	10.1457	-0.186141	-2.5684	32.3475	9.4465	3.74577	0
0.8840	0.455222	-1.33933	-0.546677	1.60456	2.28023	-23.321	18.9088	7.60792	-1.44998	0
0.8847	-1.95095	-4.08756	-5.42983	-5.41846	0.465354	-38.8855	0	3.63489	-6.93572	0
0.8853	-0.78038	-4.69635	-9.39693	-5.41846	1.07031	-31.2317	-12.2232	2.72617	-9.08652	-0.3147
0.8860	2.60127	-1.33933	-5.42983	-2.06124	3.8159	-14.1775	-14.3617	6.08633	-6.33157	-0.3147
0.8867	3.51171	3.53096	-3.59773	-0.839306	4.09511	-5.90731	-12.2232	9.1295	-3.57661	0
0.8873	2.92642	7.80986	-1.15984	-1.4441	2.28023	-5.5991	-11.6154	10.3552	-3.57661	0
0.8880	-0.130063	8.41864	10.1357	-2.66603	-1.67527	-7.44835	-12.2232	5.76934	-5.12325	0
0.8887	-3.18655	13.3063	24.4749	0.691194	-2.60598	-5.2909	-7.94618	3.02203	-3.57661	0
0.8893	-3.18655	23.9862	25.3909	5.56658	-0.186141	0.154104	-1.53071	3.33903	0.386661	0
0.8900	0.130063	19.0985	6.16858	3.12271	1.07031	7.80792	0.292636	1.20459	0.676656	0
0.8907	5.00744	0.487029	-12.448	-3.88796	1.07031	17.876	-2.74627	-1.54272	-1.44998	0
0.8913	5.00744	-9.89712	-17.3311	-6.93662	0.465354	23.6806	-6.12284	-10.3975	-4.20493	-0.3147
