MR32 ASCII
Name	KneeFJC1
Frequency	1500
Date	14-09-2015 10:53:35
"Time,s"	"RT TIB.ANT.,uV"	"RT MED. GASTRO,uV"	"RT LAT. GASTRO,uV"	"RT BICEPS FEM.,uV"	"RT VMO,uV"	"RT VLO,uV"	"RT RECTUS FEM.,uV"	"RT SOLEUS,uV"	"RT SEMITEND.,uV"	"Channel 12,uV"
0.0000	-2.23624	1.11375	1.163	13.9007	6.30001	102.972	17.8057	1.05203	2.35072	-5714.89
0.0007	-2.23624	2.01331	1.163	7.18465	0.823847	116.091	25.4342	1.66874	-1.9273	-10382
0.0013	-5.01226	-0.128509	-2.1896	-3.49293	-8.33539	119.764	16.5837	-1.37852	-7.41718	-9880.1
0.0020	-7.17139	-1.97048	-4.02025	-18.7568	-4.07077	28.8041	-8.13474	-3.51886	-10.7754	-9623.14
0.0027	-4.70382	-0.72822	-1.57938	-23.0306	0.193846	-97.8406	-26.1499	-0.4716	-9.24227	-9915.91
0.0033	-1.38801	0.471201	0.552785	-12.3389	-7.75385	-135.391	-25.8357	1.97709	-6.19072	-9799.31
0.0040	-2.23624	1.11375	0.861483	-4.71404	-15.6531	-129.852	-16.9852	2.57566	-4.05901	-9806.6
0.0047	-3.16158	-0.428365	-1.27787	-7.15625	-20.8869	-111.251	-15.1523	0.453461	-5.59209	-9818
0.0053	8.40518	-1.97048	-2.79982	-7.7668	-22.0985	-67.9287	-18.2072	-1.68688	-7.11056	-9818.64
0.0060	23.9818	-0.428365	-0.0574322	-1.97365	-20.8869	-39.8243	-16.0775	0.453461	-4.97885	-9797.72
0.0067	30.9989	1.71346	2.08192	1.07912	-22.3893	-32.8273	-14.5413	2.57566	-2.83254	-9824.02
0.0073	28.2229	1.11375	1.4717	-1.66127	-19.9662	-20.641	-17.2994	1.36038	-1.9273	-9903.23
0.0080	15.7308	-0.72822	-1.27787	-3.49293	-14.4416	-5.9474	-23.095	-1.68688	-3.44578	-9547.1
0.0087	9.94742	-1.97048	-2.79982	-1.3631	-10.1769	0.116616	-28.8905	-3.51886	-5.28547	-10154.8
0.0093	-7.17139	-0.128509	-0.0574322	0.170387	-1.01769	1.98247	-26.1499	-0.4716	-2.83254	-9888.34
0.0100	-45.8815	2.61303	2.69213	-6.5457	5.08847	-1.69093	-19.4291	3.50072	0.219011	-4099.63
0.0107	-50.8167	2.31317	1.4717	-14.1705	2.03539	-6.88033	-18.2072	3.19237	-1.00745	107.726
0.0113	-23.0564	-0.72822	-2.79982	-12.3389	-0.726924	-10.5537	-21.873	-0.779953	-2.54053	63.3685
0.0120	-8.40518	-2.57019	-4.93917	-5.63697	-1.64769	-39.5327	-23.706	-2.61194	-1.00745	-193.591
0.0127	-3.16158	-0.72822	-1.57938	-0.141989	2.95616	-79.2404	-22.7982	0.145108	1.43087	99.4886
0.0133	1.69646	1.4136	2.38344	5.05481	11.7762	-78.8906	-17.2994	3.19237	4.17581	-17.1095
0.0140	2.6218	0.471201	1.77322	6.27592	16.38	-58.4828	-2.65339	3.19237	4.78904	-9.82212
0.0147	-0.462671	-1.97048	-2.4983	-0.752542	20.9354	-45.9466	11.0849	0.453461	0.511026	1.58421
0.0153	-5.93761	-3.1699	-4.02025	-7.15625	25.2	-26.4135	17.4914	-1.68688	-2.83254	-0.316843
0.0160	-7.78829	-0.72822	-0.0574322	-2.5842	22.4862	-13.0027	29.0826	1.66874	0.817642	-0.633685
0.0167	-5.01226	1.4136	2.99365	6.5741	16.38	-4.4314	44.968	4.716	6.32212	-0.633685
0.0173	-3.47003	0.471201	1.4717	9.93924	8.43232	36.4424	45.8757	3.50072	7.22737	-0.316843
0.0180	-4.08692	-0.428365	-1.27787	4.44426	7.80232	77.0247	33.9704	0.743676	4.17581	-0.633685
0.0187	-4.08692	-1.62779	-2.79982	-1.05072	16.38	73.7012	24.509	-0.779953	1.43087	-0.316843
0.0193	-1.07956	-1.02808	-0.358951	2.91078	19.0939	54.4596	19.3244	0.743676	2.96395	-0.316843
0.0200	0.462671	0.171346	2.38344	6.27592	17.8823	45.0137	23.287	2.26731	4.48243	-0.950528
0.0207	0.154224	0.471201	1.4717	4.74244	19.0939	39.1829	37.0253	2.88401	4.78904	-0.633685
0.0213	-1.69646	-1.32793	-2.1896	2.91078	11.4854	26.3552	38.8582	0.453461	3.56258	0
0.0220	-3.77848	-3.1699	-4.32895	3.83371	-4.36154	28.221	25.4342	-2.61194	0.817642	-0.316843
0.0227	-2.54469	-1.62779	-2.1896	8.10758	-11.7277	58.133	9.86294	-0.163246	-1.00745	0
0.0233	0.154224	0.171346	-0.0574322	10.2374	-13.86	92.3014	-10.2819	2.57566	-4.67224	0
0.0240	1.38801	-0.128509	0.251266	6.5741	-19.6269	98.7152	-24.0027	2.57566	-6.49733	-0.316843
0.0247	-0.771118	-1.97048	-2.1896	-8.06498	-23.0193	23.6147	-21.5763	-0.779953	-8.03041	-0.316843
0.0253	-2.54469	-3.1699	-3.71873	-24.8623	-19.6269	-109.735	-15.7632	-2.61194	-9.8555	-0.316843
0.0260	-1.38801	-1.97048	-1.27787	-23.6412	-19.6269	-150.318	-11.5038	-0.4716	-7.11056	-0.316843
0.0267	0.154224	0.813893	2.69213	-9.89664	-25.7331	-74.051	-10.5787	0.743676	-3.13916	-1.26737
0.0273	1.38801	2.01331	4.21409	-0.752542	-27.8654	-10.8453	-11.1896	1.36038	-0.700836	-0.633685
0.0280	-0.462671	-0.72822	-0.0574322	-1.05072	-29.1254	-0.758003	-12.4116	0.453461	-2.54053	0.316843
0.0287	-2.85314	-2.57019	-3.71873	-1.97365	-29.1254	3.49847	-13.3368	-2.92029	-4.36562	0
0.0293	-1.07956	-0.72822	-1.27787	1.68967	-22.68	11.7199	-9.67091	-1.68688	-1.00745	0
0.0300	1.07956	0.813893	1.163	4.44426	-14.4416	11.1368	-6.3018	1.66874	1.73749	0.316843
0.0307	0.462671	1.4136	1.163	3.52133	-9.25616	7.75495	-6.61602	2.26731	1.43087	0.316843
0.0313	-1.92779	-0.428365	-1.57938	-0.440166	-7.41462	4.72294	-9.96767	-0.779953	-1.31407	0
0.0320	-2.54469	-1.62779	-3.41003	-1.97365	-4.70077	4.08155	-13.0226	-2.92029	-3.13916	0
0.0327	-0.154224	0.471201	-0.358951	1.07912	-0.726924	7.17187	-10.2819	-0.4716	-0.0876045	0
0.0333	2.31335	2.01331	2.69213	3.52133	1.40539	5.59756	-6.3018	1.66874	2.96395	0
0.0340	1.07956	0.813893	1.163	2.00205	5.08847	-6.58879	-5.39407	0.453461	2.0441	0
0.0347	-1.69646	-2.27033	-3.10852	-1.97365	20.9354	-20.9325	-3.56113	-2.92029	-1.31407	0.316843
0.0353	-1.07956	-2.27033	-3.10852	-3.49293	42.5977	-13.0027	-2.33917	-2.92029	-1.9273	0
0.0360	0.154224	0.813893	0.861483	-1.3631	54.5193	12.0114	-3.87535	0.453461	1.12426	0
0.0367	0.154224	2.91288	2.08192	0.468564	53.3078	17.8422	4.06737	2.57566	4.48243	0
0.0373	1.69646	1.71346	0.251266	1.39149	44.1485	9.56249	21.1573	2.57566	4.48243	0
0.0380	0.154224	-1.32793	-2.4983	0.468564	31.9362	8.04649	28.1748	-0.779953	0.511026	0
0.0387	-2.54469	-2.87004	-4.02025	1.68967	18.5123	18.4253	31.2297	-3.82721	-1.62068	-0.316843
0.0393	-1.38801	-1.62779	-1.27787	6.88647	0.823847	43.7892	42.2099	-1.08831	3.27057	-0.316843
0.0400	0.154224	0.813893	1.4717	8.40576	-18.7062	73.7012	39.155	2.26731	8.14722	0
0.0407	-0.154224	0.813893	1.163	6.27592	-25.7331	99.2983	17.4914	1.97709	6.92075	0
0.0413	-1.69646	-1.02808	-1.57938	1.39149	-20.5477	108.453	-4.17211	-0.779953	1.43087	0
0.0420	-2.54469	-2.57019	-3.41003	-5.02641	-16.9131	80.6981	-15.1523	-2.92029	-3.75239	0
0.0427	-0.154224	-0.128509	-0.667649	-5.32459	-19.6269	13.2359	-15.7632	-1.08831	-3.13916	0
0.0433	2.00491	1.4136	2.08192	-2.27183	-24.5216	-74.9256	-11.5038	1.66874	-0.700836	0
0.0440	1.07956	0.813893	1.4717	0.468564	-32.4693	-125.012	-9.05993	1.97709	-0.700836	0
0.0447	-1.92779	-1.02808	-1.57938	-0.440166	-44.3424	-110.96	-13.6335	-0.4716	-2.54053	0
0.0453	-3.47003	-2.87004	-3.41003	-4.41586	-47.1047	-91.4268	-20.3543	-3.51886	-5.28547	0
0.0460	-0.154224	-0.72822	-0.358951	-3.49293	-33.0508	-81.3395	-16.9852	-1.08831	-3.75239	0
0.0467	2.6218	2.31317	2.69213	0.468564	-10.8069	-58.4828	-9.3567	2.57566	-0.39422	0
0.0473	2.31335	2.91288	2.08192	1.07912	2.61693	-25.8304	-3.56113	1.97709	0.511026	0
0.0480	-1.07956	-0.428365	-0.969168	-2.5842	-1.01769	2.27401	-2.95015	-1.37852	-1.62068	0
0.0487	-2.85314	-3.1699	-2.4983	-5.02641	-8.33539	10.2039	-6.91278	-1.68688	-3.44578	-0.316843
0.0493	-0.154224	-0.72822	0.251266	-2.5842	-8.33539	5.59756	-7.52376	1.97709	-1.62068	0
0.0500	2.93025	2.01331	2.08192	-1.66127	-5.62154	3.20693	-6.3018	4.09929	-0.39422	0
0.0507	1.69646	1.71346	1.4717	-2.27183	-2.22923	6.23894	-6.3018	3.80907	-1.00745	0
0.0513	-1.38801	-1.32793	-1.27787	-4.10349	1.40539	15.9764	-5.0973	1.05203	-2.54053	-0.316843
0.0520	-1.92779	-4.06947	-2.1896	-5.02641	4.1677	31.253	-2.65339	-0.163246	-2.83254	-0.316843
0.0527	1.07956	-1.02808	1.4717	-1.3631	7.22078	45.3052	-3.56113	4.40764	0.511026	0
0.0533	2.6218	2.31317	2.99365	1.68967	10.2739	50.2031	-4.17211	4.716	2.35072	0
0.0540	0.771118	1.4136	0.552785	1.07912	9.98309	49.8532	4.06737	-3.82721	2.0441	-0.950528
0.0547	-1.38801	-1.32793	-2.1896	-2.88238	8.14155	48.3372	10.4739	-11.4635	0.511026	-1.26737
0.0553	-1.38801	-1.62779	-3.10852	-2.5842	8.43232	47.7542	12.9178	-9.01481	0.817642	0
0.0560	-0.154224	0.471201	-0.0574322	2.91078	10.8554	53.5266	19.9353	-3.21051	4.48243	0
0.0567	0.154224	1.4136	1.77322	4.44426	11.4854	60.232	23.898	-1.68688	6.01551	-0.316843
0.0573	0.154224	0.813893	1.163	1.68967	9.64386	52.0106	25.4342	-4.44392	5.09566	0
0.0580	-0.771118	0.171346	-0.969168	-0.440166	7.22078	12.6528	23.6012	-9.32316	3.56258	0.316843
0.0587	-1.38801	-0.428365	-0.969168	2.91078	10.8554	-63.6722	18.4166	-5.65919	3.8692	0
0.0593	0.771118	-0.72822	0.552785	6.27592	27.3323	-140.58	14.1398	2.57566	4.17581	0
0.0600	2.31335	0.171346	0.251266	6.27592	45.0693	-145.77	11.0849	5.02435	1.43087	0.316843
0.0607	1.07956	-0.428365	-1.27787	9.62686	45.9901	-85.3044	5.58609	4.40764	0.219011	-0.316843
0.0613	-2.85314	-4.06947	-2.1896	12.3815	30.7247	-37.0838	-10.8929	3.80907	0.219011	-0.316843
0.0620	-3.47003	-5.61158	-1.57938	7.49703	14.2477	-22.4485	-17.5962	5.3327	-0.39422	0
0.0627	0.154224	-2.57019	1.77322	-1.97365	6.59078	-21.2241	-1.7282	10.8287	-0.700836	0
0.0633	2.00491	1.11375	2.99365	-7.7668	-1.93846	-14.5187	10.4739	14.4745	-2.54053	0
0.0640	1.07956	2.31317	1.4717	-7.7668	-13.86	3.79001	4.97511	11.1189	-4.67224	-0.316843
0.0647	-1.07956	1.11375	-0.969168	-9.28609	-21.7593	13.5857	-11.8006	0.145108	-5.8841	-0.316843
0.0653	-3.16158	-0.428365	-3.41003	-9.28609	-26.6539	10.4954	-29.5015	-9.93987	-5.8841	0
0.0660	-1.92779	0.171346	-2.1896	-3.80531	-26.9446	13.2359	-38.0552	-8.70645	-2.23391	0
0.0667	0.771118	2.31317	2.08192	0.170387	-29.4162	20.2911	-37.741	-2.61194	0.219011	-0.316843
0.0673	1.38801	2.01331	2.38344	-1.97365	-33.39	19.6498	-32.2422	-1.37852	-0.700836	-0.316843
0.0680	-0.462671	-0.428365	-1.27787	-5.63697	-28.4954	15.1017	-24.0027	-4.73413	-3.13916	0
0.0687	-1.69646	-1.62779	-2.1896	-5.32459	-20.8869	11.1368	-16.0775	-6.56612	-3.44578	0
0.0693	-0.771118	0.471201	1.4717	-1.3631	-19.6269	5.59756	-5.39407	-2.30358	0.219011	-0.316843
0.0700	1.69646	2.31317	2.69213	2.00205	-20.2569	-1.69093	6.80804	1.97709	3.27057	0
0.0707	1.07956	0.813893	0.552785	5.35299	-11.0977	-15.1017	12.3068	1.36038	3.27057	0
0.0713	-2.54469	-1.62779	-2.4983	6.27592	7.51155	-22.7401	12.3068	-1.99523	1.43087	-0.316843
0.0720	-3.47003	-2.57019	-3.71873	6.27592	19.7239	-3.20693	15.9727	-3.21051	-0.700836	0
0.0727	0.154224	-0.428365	-0.667649	10.848	22.4862	25.7721	23.287	0.743676	2.65734	0
0.0733	2.00491	2.01331	2.08192	14.5113	22.4862	42.2732	31.5265	3.80907	7.53399	-0.316843
0.0740	1.38801	1.4136	1.77322	12.0691	19.0939	50.2031	38.2472	3.80907	9.37368	0
0.0747	-1.38801	-1.32793	-1.88808	6.5741	12.4062	51.4276	30.3045	0.453461	6.01551	0
0.0753	-3.16158	-1.97048	-3.41003	2.91078	7.51155	52.5937	8.9552	-1.37852	2.65734	0
0.0760	-0.771118	0.813893	0.251266	5.35299	7.51155	56.617	-8.74572	2.88401	4.78904	0
0.0767	1.07956	2.31317	1.77322	8.40576	6.93001	45.3052	-22.484	4.716	6.01551	0
0.0773	-0.154224	1.11375	0.251266	6.88647	8.14155	16.3262	-33.7784	2.88401	1.12426	0
0.0780	-3.47003	-1.32793	-2.79982	-3.49293	10.8554	-30.6699	-31.0377	0.743676	-6.19072	0.316843
0.0787	-4.08692	-2.27033	-3.71873	-18.1462	10.5646	-86.8204	-14.5413	-0.163246	-9.8555	0.316843
0.0793	-1.07956	0.171346	-0.0574322	-23.9394	9.06232	-105.771	-4.78309	2.26731	-7.11056	0.316843
0.0800	0.771118	2.61303	2.38344	-19.0549	4.1677	-87.4618	-7.83798	5.02435	-3.44578	-0.316843
0.0807	1.07956	2.01331	2.08192	-10.5072	-2.56846	-68.2202	-5.39407	4.716	-1.31407	-0.316843
0.0813	-1.69646	-1.02808	-1.57938	-6.85807	-9.25616	-54.5179	4.67835	0.145108	-1.62068	-0.316843
0.0820	-3.47003	-1.97048	-4.02025	-3.49293	-14.4416	-37.0838	12.6036	-2.30358	-0.700836	-0.316843
0.0827	-0.771118	0.171346	-0.969168	0.468564	-12.9392	-16.6761	15.0475	0.453461	2.0441	0
0.0833	0.771118	1.4136	1.4717	0.78094	-7.41462	-7.81326	15.6585	1.05203	2.35072	-0.316843
0.0840	-0.771118	0.471201	0.861483	0.170387	-5.62154	-15.1017	14.1398	-1.37852	2.35072	-1.26737
0.0847	-2.54469	-1.32793	-1.57938	-1.05072	-7.41462	-27.0549	7.12226	-3.51886	1.73749	-0.950528
0.0853	-2.54469	-1.32793	-2.1896	-0.752542	-9.5954	-27.9295	3.45639	-2.30358	-1.00745	0
0.0860	0.154224	0.813893	0.251266	1.39149	-8.96539	-14.2271	9.25196	-0.163246	-2.54053	-0.316843
0.0867	0.771118	1.71346	2.38344	3.83371	-8.33539	-1.39939	12.9178	0.453461	-0.0876045	-0.316843
0.0873	-1.07956	0.813893	1.163	4.13188	-10.4677	-1.39939	8.64098	0.453461	2.0441	0
0.0880	-3.16158	-1.32793	-1.88808	0.170387	-14.7808	-3.20693	-0.209478	-1.68688	-0.700836	0
0.0887	-3.16158	-1.97048	-2.4983	-2.5842	-13.86	8.97941	-8.74572	-2.92029	-2.83254	0
0.0893	-0.462671	0.813893	0.251266	-1.05072	-6.20308	32.769	-10.2819	-0.4716	-0.700836	-0.316843
0.0900	1.38801	2.01331	1.77322	2.00205	0.484616	47.7542	-8.13474	1.97709	1.73749	-0.316843
0.0907	0.771118	1.11375	0.251266	5.66537	0.484616	48.6288	-11.5038	1.97709	2.35072	0.316843
0.0913	-2.54469	-1.02808	-2.79982	6.5741	-2.22923	45.8883	-17.2994	-0.779953	0.511026	0
0.0920	-3.16158	-2.27033	-4.32895	7.18465	-1.01769	44.6638	-15.1523	-1.99523	-0.700836	-0.316843
0.0927	-0.462671	-0.128509	-1.27787	10.2374	3.87693	45.5968	-8.44896	0.743676	2.0441	-0.316843
0.0933	0.154224	2.01331	1.163	11.7709	7.22078	45.0137	-3.87535	2.57566	5.09566	0
0.0940	-0.462671	1.11375	0.552785	13.2902	7.22078	41.3403	-2.04241	1.66874	5.40228	0
0.0947	-2.23624	-1.32793	-2.79982	6.88647	5.67001	33.1189	-3.56113	-1.08831	1.43087	0
0.0953	-2.85314	-1.97048	-4.02025	-10.5072	7.22078	20.5827	-2.95015	-2.30358	-2.54053	0
0.0960	0.154224	0.813893	-0.358951	-17.2233	11.1946	19.6498	4.36413	1.36038	-0.700836	0
0.0967	1.07956	2.31317	2.08192	-10.5072	10.5646	13.5857	6.19707	2.88401	1.43087	-0.316843
0.0973	0.154224	1.11375	0.552785	-6.5457	6.30001	-38.0167	4.67835	0.743676	-1.31407	-0.316843
0.0980	-1.69646	-0.72822	-1.88808	-8.06498	5.67001	-94.7503	5.58609	-1.37852	-4.67224	0
0.0987	-2.85314	-1.97048	-3.41003	-10.209	10.2739	-93.2343	1.62346	-1.68688	-5.8841	0
0.0993	-0.771118	-0.128509	-0.667649	-9.28609	16.38	-57.2583	-3.87535	1.66874	-4.36562	0
0.1000	0.154224	1.4136	1.4717	-8.67554	21.8562	-16.0347	-9.96767	3.80907	-2.54053	-0.316843
0.1007	-0.154224	0.813893	-0.0574322	-9.59846	23.0677	21.5156	-15.1523	2.26731	-1.31407	0
0.1013	-1.92779	-0.72822	-3.10852	-10.5072	16.0408	43.4394	-18.5214	-1.37852	-2.54053	0
0.1020	-2.85314	-1.97048	-3.71873	-7.46863	5.37924	62.9725	-17.5962	-3.21051	-2.23391	0
0.1027	0.154224	0.171346	-0.0574322	0.170387	0.823847	75.2172	-7.83798	0.453461	1.73749	0.316843
0.1033	1.38801	1.4136	1.77322	3.52133	-1.30846	77.3163	0.715717	1.97709	2.65734	0.316843
0.1040	0.462671	0.813893	0.552785	2.91078	-13.23	88.0449	1.93767	0.453461	1.43087	0
0.1047	-1.69646	-0.428365	-2.1896	0.78094	-23.0193	102.972	2.23443	-3.51886	-0.700836	0
0.1053	-2.23624	-1.32793	-3.10852	3.22315	-15.9923	114.867	7.41902	-4.44392	-1.31407	0
0.1060	-1.07956	0.471201	0.251266	10.2374	-4.36154	111.193	12.6036	-0.779953	-0.0876045	0
0.1067	-0.771118	2.31317	2.08192	9.93924	-4.70077	91.0769	14.4365	1.36038	-0.0876045	-0.316843
0.1073	-0.154224	2.01331	1.4717	2.6126	-12.6	53.5266	19.3244	1.36038	-0.700836	0
0.1080	-2.23624	-0.428365	-2.1896	-8.06498	-15.3623	-58.7743	16.2695	-1.99523	-3.44578	0
0.1087	-3.77848	-1.62779	-4.02025	-11.1177	-10.4677	-183.903	9.56617	-4.13557	-4.05901	0
0.1093	-1.07956	0.813893	-0.969168	-3.80531	-5.91231	-173.524	9.25196	-0.4716	0.511026	0
0.1100	1.38801	2.61303	1.4717	1.39149	-3.15	-91.1352	3.75315	2.88401	3.56258	-0.316843
0.1107	1.07956	1.71346	0.552785	1.68967	2.03539	-52.9436	-3.87535	2.26731	3.27057	-0.316843
0.1113	-1.69646	-1.02808	-3.10852	-1.97365	2.61693	-41.6901	-8.13474	-1.68688	-0.0876045	0
0.1120	-2.54469	-1.97048	-3.41003	-3.80531	0.193846	-24.2561	-9.05993	-2.61194	-2.23391	0
0.1127	0.462671	0.471201	0.552785	-0.141989	1.11462	-6.58879	-4.48633	1.66874	-0.39422	0
0.1133	2.00491	1.71346	1.77322	1.39149	2.32616	-2.62385	0.104739	4.09929	1.43087	0
0.1140	0.154224	-0.128509	0.861483	0.170387	1.11462	-8.39634	1.01248	1.05203	0.511026	-0.950528
0.1147	-2.54469	-2.57019	0.861483	-0.752542	-0.726924	-13.2942	-1.7282	-3.82721	-1.00745	-1.26737
0.1153	-1.69646	-1.97048	2.08192	-1.66127	-0.436154	-15.1017	-8.13474	-2.30358	-2.23391	-0.316843
0.1160	-0.771118	-0.428365	1.77322	-3.80531	0.823847	-19.7081	-11.8006	2.57566	-2.54053	0
0.1167	0.154224	1.4136	0.861483	-3.19476	2.95616	-29.1539	-8.44896	4.716	-0.39422	-0.316843
0.1173	1.07956	2.31317	0.552785	-1.66127	3.87693	-39.8243	-5.0973	5.64106	1.43087	0
0.1180	-1.69646	0.471201	-1.88808	-3.80531	4.74924	-43.7892	-7.227	4.09929	-0.39422	0
0.1187	-2.54469	-0.428365	-3.10852	-4.71404	6.93001	-42.5648	-7.83798	2.26731	-1.31407	0
0.1193	0.462671	-0.128509	-0.0574322	0.468564	5.08847	-39.2412	-1.11722	4.716	2.0441	0
0.1200	2.31335	0.471201	2.38344	5.66537	2.61693	-27.3464	5.28933	8.07161	6.01551	-0.316843
0.1207	1.38801	0.471201	0.861483	5.66537	3.87693	-8.1048	5.28933	6.54798	5.70889	0
0.1213	-1.92779	-1.62779	-3.41003	1.07912	3.87693	8.39634	-0.209478	-1.68688	1.43087	-0.316843
0.1220	-3.16158	-3.76961	-4.32895	-1.66127	5.37924	20.8742	-3.26437	-8.70645	0.511026	-0.950528
0.1227	0.462671	-0.128509	0.251266	0.468564	12.9877	25.7721	0.4015	-5.96755	3.56258	-0.633685
0.1233	2.6218	2.61303	2.38344	2.6126	22.4862	18.4253	5.28933	0.743676	4.78904	0
0.1240	0.462671	0.813893	0.251266	3.52133	29.1739	12.0114	9.25196	1.36038	3.27057	0
0.1247	-2.54469	-1.97048	-2.4983	1.07912	28.5923	19.3582	12.6036	-2.30358	0.511026	0.316843
0.1253	-3.16158	-2.27033	-2.79982	0.170387	22.4862	33.702	17.1947	-2.92029	0.219011	0
0.1260	-0.154224	-0.128509	0.251266	7.7952	18.5123	46.5297	23.898	0.145108	5.09566	0
0.1267	1.07956	1.4136	2.38344	17.8622	13.9085	52.5937	21.4541	1.36038	10.5855	-0.316843
0.1273	0.462671	0.813893	1.4717	19.6939	5.08847	46.8212	19.6211	0.145108	11.5054	-0.316843
0.1280	-1.38801	-1.32793	-1.88808	8.10758	1.11462	29.4455	22.9902	-2.30358	7.8406	-0.316843
0.1287	-3.16158	-2.57019	-2.79982	-3.19476	3.87693	11.4283	25.7309	-3.82721	5.70889	0
0.1293	-1.07956	-0.428365	0.552785	-2.5842	5.08847	15.6848	29.3968	0.145108	6.32212	0
0.1300	2.00491	1.4136	2.69213	-2.27183	0.193846	40.1158	12.3068	3.80907	1.12426	0
0.1307	1.38801	0.813893	1.4717	-8.67554	-8.96539	33.4104	-17.5962	2.26731	-8.64364	-0.316843
0.1313	-2.23624	-1.32793	-1.57938	-16.3145	-12.9392	-8.39634	-26.7608	-2.30358	-14.4401	0
0.1320	-3.16158	-1.97048	-2.79982	-14.7811	-10.4677	-19.7081	-19.4291	-2.61194	-12.2938	0
0.1327	-0.154224	0.471201	-0.0574322	-6.24752	-7.12385	1.34108	-16.0775	1.36038	-6.49733	0
0.1333	1.38801	2.01331	1.4717	-2.88238	-7.12385	6.82202	-20.0401	2.26731	-4.97885	-0.316843
0.1340	0.154224	1.11375	0.251266	-4.10349	-12.0185	-2.62385	-18.2072	0.145108	-5.59209	-0.316843
0.1347	-3.47003	-1.62779	-2.79982	-5.02641	-18.1246	-5.07279	-13.6335	-2.92029	-4.67224	0
0.1353	-2.85314	-1.62779	-2.1896	-1.3631	-17.2039	4.4314	-8.74572	-1.68688	-0.700836	0
0.1360	1.38801	1.11375	1.77322	2.30022	-9.5954	20.8742	-4.17211	1.97709	1.43087	-0.316843
0.1367	2.6218	1.71346	3.30235	0.468564	-2.85923	36.1509	-7.227	2.57566	-1.9273	-0.316843
0.1373	1.07956	1.11375	1.4717	-0.752542	-1.64769	48.0457	-12.4116	1.66874	-3.75239	0
0.1380	-1.69646	-1.02808	-2.1896	-0.141989	-4.36154	46.8212	-11.8006	-1.68688	-2.83254	0
0.1387	-1.69646	-1.97048	-2.79982	3.83371	-4.70077	22.3902	-4.17211	-3.51886	-0.39422	0
0.1393	1.07956	0.171346	0.251266	7.7952	-1.93846	-37.7252	4.36413	-0.4716	2.35072	0
0.1400	1.07956	2.01331	1.77322	4.74244	-1.64769	-104.255	3.75315	1.97709	1.73749	-0.316843
0.1407	0.154224	1.11375	0.552785	-1.05072	-6.54232	-108.219	-3.26437	1.05203	-1.62068	0
0.1413	-1.92779	-1.62779	-3.41003	-1.97365	-17.4946	-59.9988	-7.52376	-1.99523	-2.54053	0
0.1420	-1.92779	-1.97048	-3.10852	3.52133	-25.7331	-24.2561	-2.33917	-2.30358	0.511026	0
0.1427	0.462671	0.813893	0.861483	7.18465	-25.4423	-17.2591	4.06737	1.05203	3.27057	0.316843
0.1433	0.154224	2.01331	2.38344	1.68967	-21.1777	-21.8655	4.36413	2.88401	2.35072	-0.316843
0.1440	-1.69646	0.813893	1.77322	-6.5457	-11.7277	-27.0549	9.56617	-0.163246	0.511026	-1.26737
0.1447	-2.54469	-1.02808	-1.57938	-8.37736	-1.30846	-26.705	8.03	-4.13557	-1.9273	-0.950528
0.1453	-2.85314	-1.62779	-3.71873	-5.63697	5.67001	-21.5156	-2.04241	-3.51886	-4.36562	0.316843
0.1460	-0.771118	-0.128509	-0.667649	-2.88238	10.5646	-17.9005	-2.04241	0.453461	-3.44578	0
0.1467	1.69646	2.61303	2.38344	-0.440166	10.8554	-16.6761	3.14217	3.19237	-0.700836	0
0.1473	1.69646	2.01331	1.163	1.07912	6.59078	-13.9356	1.01248	2.26731	0.817642	0
0.1480	-1.38801	-1.02808	-2.79982	-1.66127	3.24693	-6.29725	-2.33917	-1.68688	-0.39422	0
0.1487	-3.77848	-1.62779	-3.41003	-2.88238	2.61693	5.9474	0.104739	-2.92029	-0.39422	0
0.1493	-1.07956	0.813893	-0.0574322	1.39149	5.37924	27.5796	4.36413	0.145108	3.56258	0
0.1500	1.07956	1.71346	1.77322	4.44426	10.2739	53.2351	4.97511	1.36038	5.70889	0
0.1507	0.154224	1.11375	1.163	4.13188	13.3269	64.8384	4.97511	-0.163246	4.48243	0
0.1513	-1.38801	-1.02808	-1.57938	3.83371	10.5646	63.9054	3.45639	-3.21051	0.219011	-0.316843
0.1520	-1.92779	-1.97048	-2.4983	2.6126	9.06232	67.5788	-3.56113	-4.44392	-3.13916	0
0.1527	0.462671	0.471201	0.861483	0.170387	12.4062	75.5087	-5.39407	-0.4716	-2.83254	0
0.1533	2.6218	2.91288	5.43452	-5.63697	12.1154	74.9256	-0.209478	1.66874	-1.9273	-0.316843
0.1540	2.00491	3.55543	10.625	-5.02641	6.00924	65.1299	3.14217	-1.08831	0.219011	-0.316843
0.1547	-1.07956	2.61303	12.7643	1.68967	1.40539	58.133	0.715717	-4.44392	0.511026	0
0.1553	-2.23624	3.25557	11.5439	8.40576	7.22078	66.6459	-4.48633	-4.13557	-0.39422	0
0.1560	1.07956	6.89667	10.0147	16.6411	18.2216	81.631	-6.3018	0.145108	1.73749	0
0.1567	3.23869	7.19653	5.74322	20.6168	22.7769	55.0426	-4.48633	1.97709	2.96395	-0.316843
0.1573	1.38801	-0.72822	-3.71873	17.5641	13.3269	-46.2382	-7.227	3.19237	1.73749	-0.316843
0.1580	-2.85314	-9.89523	-12.2618	12.992	-8.04462	-138.423	-9.67091	3.19237	0.817642	0
0.1587	-4.39537	-8.95282	-8.90917	12.3815	-20.5477	-118.248	3.75315	1.66874	2.0441	-0.316843
0.1593	-0.771118	-3.46976	-6.1596	5.05481	-18.7062	-34.9847	14.1398	7.16469	3.8692	-0.316843
0.1600	0.771118	-3.76961	-12.2618	-16.6127	-15.6531	22.0987	-0.820457	12.6606	1.12426	0
0.1607	1.38801	-5.91143	-16.2318	-27.9151	-13.86	54.7511	-10.2819	9.90359	-2.23391	-0.316843
0.1613	0.462671	-8.05326	-19.5844	-22.1077	-12.3092	84.08	-9.3567	6.54798	-4.05901	-0.316843
0.1620	-1.07956	-5.01187	-20.5033	-13.8723	-12.6	95.0419	-13.3368	8.37996	-4.05901	0
0.1627	-0.154224	7.79624	-15.6215	-3.49293	-11.7277	70.9607	-4.17211	9.28688	-1.31407	0
0.1633	3.23869	18.2055	-7.07134	3.83371	-8.96539	15.3933	19.9353	-0.163246	0.817642	-0.316843
0.1640	4.78093	12.0799	3.60387	2.91078	-10.4677	-71.2522	32.1375	-7.49118	0.511026	-0.316843
0.1647	0.462671	1.11375	14.2863	-3.49293	-14.4416	-150.959	24.2122	5.3327	-2.23391	0.316843
0.1653	-1.07956	6.59682	27.108	-9.28609	-13.5208	-152.475	13.5288	27.2984	-3.44578	0.316843
0.1660	1.38801	16.6634	33.2102	-8.37736	-8.67463	-106.995	6.19707	50.8058	-1.62068	-0.316843
0.1667	0.462671	3.55543	20.0869	-4.71404	-2.22923	-80.4066	-1.11722	76.7438	-0.0876045	-0.316843
0.1673	0.154224	-20.8614	2.08192	-4.71404	-1.64769	-59.0659	-5.0973	63.6115	-0.700836	0
0.1680	0.462671	-25.145	-9.51938	-7.46863	-5.91231	-23.673	-6.61602	1.97709	-2.54053	-0.316843
0.1687	-0.154224	-9.89523	-15.6215	-5.63697	-5.62154	15.9764	-1.11722	-36.7848	-0.700836	0
0.1693	2.00491	-3.46976	-15.9231	-0.752542	-2.85923	40.6989	4.97511	-35.5695	2.35072	0
0.1700	3.54714	-9.59537	-6.46112	1.07912	-2.85923	48.3372	2.23443	-34.9528	2.96395	0
0.1707	-0.771118	-10.1951	-2.4983	0.468564	-2.85923	51.4276	-0.820457	-34.6444	1.73749	0
0.1713	-5.01226	-6.85384	-8.90917	-0.752542	-1.30846	54.4596	3.45639	-24.8859	-0.700836	-0.316843
0.1720	-3.77848	-8.05326	-2.79982	-0.752542	1.40539	54.7511	11.3817	-23.3623	-2.54053	-0.316843
0.1727	0.154224	-9.29552	7.26517	2.00205	5.08847	51.7191	18.7134	-38.9251	-1.00745	0
0.1733	-0.462671	-3.1699	5.74322	4.44426	6.00924	45.8883	23.898	-50.2072	1.73749	0.316843
0.1740	-5.62916	8.13893	2.38344	7.18465	3.87693	33.9935	24.2122	-48.9919	3.56258	-0.950528
0.1747	-7.47984	11.1803	2.69213	7.7952	0.823847	20.8742	8.03	-36.7848	2.35072	-1.26737
0.1753	-3.77848	5.99711	3.30235	2.30022	0.484616	4.72294	-14.8555	-19.6984	-0.0876045	0.316843
0.1760	-0.771118	2.91288	3.60387	-3.19476	2.03539	-40.4657	-19.7433	-9.32316	-1.62068	0.316843
0.1767	-0.462671	4.15514	1.4717	-5.02641	2.61693	-104.546	-14.5413	-5.65919	-1.9273	0
0.1773	-1.69646	4.45499	-1.57938	-4.10349	0.484616	-137.198	-16.9852	-3.21051	-2.54053	0
0.1780	-4.39537	1.71346	-3.10852	-1.05072	-4.36154	-130.785	-21.873	-4.44392	-2.83254	0
0.1787	-4.08692	0.813893	-3.41003	0.78094	-3.15	-109.444	-17.5962	-6.87447	-1.9273	0.316843
0.1793	-0.154224	2.31317	0.251266	1.07912	4.45847	-78.016	-10.8929	-3.82721	-0.39422	0
0.1800	1.69646	1.71346	3.30235	0.468564	4.45847	-41.3986	-11.1896	-0.4716	0.511026	0
0.1807	-0.462671	-1.32793	1.77322	-0.752542	1.69616	-17.2591	-14.2445	-2.61194	-0.0876045	0.316843
0.1813	-3.47003	-4.71201	-2.4983	-2.5842	5.08847	-7.52172	-19.1323	-5.65919	-2.23391	0
0.1820	-2.54469	-4.06947	-2.1896	-1.66127	8.72309	-0.758003	-23.706	-3.82721	-1.62068	0
0.1827	1.38801	-0.128509	3.30235	2.00205	12.1154	2.56555	-22.1872	0.743676	1.73749	0
0.1833	2.00491	1.4136	6.35343	2.6126	14.5385	-4.13986	-22.1872	2.26731	2.96395	0
0.1840	-0.154224	1.4136	2.99365	0.468564	9.64386	-18.4836	-27.0576	1.36038	2.35072	0
0.1847	-2.54469	0.171346	-2.79982	-0.752542	0.823847	-29.4455	-30.7235	-1.99523	1.12426	-0.316843
0.1853	-2.54469	-1.62779	-3.71873	2.30022	-2.56846	-25.8304	-32.2422	-3.21051	2.96395	0
0.1860	0.462671	-1.02808	0.552785	7.18465	1.69616	-15.1017	-33.4642	0.743676	6.32212	0
0.1867	2.31335	0.471201	2.38344	8.71813	7.80232	5.01448	-32.8532	2.57566	6.61414	-0.316843
0.1873	1.69646	1.4136	0.861483	8.10758	8.43232	39.1829	-29.8157	1.05203	4.48243	-0.316843
0.1880	-1.92779	-0.72822	-2.1896	6.88647	8.72309	59.0076	-26.4466	-1.68688	1.43087	0
0.1887	-2.23624	-1.62779	-2.4983	12.3815	15.1685	71.2522	-11.8006	-1.68688	2.0441	0
0.1893	0.462671	0.813893	-0.358951	21.8379	19.4331	81.2812	21.7683	1.66874	5.40228	0
0.1900	1.07956	1.11375	0.552785	19.3957	16.0408	67.5788	47.0977	3.50072	6.92075	0
0.1907	0.154224	0.171346	-0.0574322	12.3815	11.1946	45.5968	52.8933	3.19237	6.61414	0
0.1913	-2.54469	-1.32793	-2.79982	12.0691	4.45847	25.1307	66.6315	-0.779953	3.56258	0.316843
0.1920	-3.47003	-1.62779	-3.10852	7.7952	-7.75385	9.91234	79.1304	-0.4716	-0.700836	0
0.1927	-0.771118	0.471201	0.251266	-4.10349	-15.0716	15.1017	66.6315	5.93127	-3.44578	0
0.1933	1.38801	1.71346	2.08192	-14.4829	-13.5208	14.1688	48.0054	7.76325	-4.05901	0
0.1940	1.07956	1.11375	1.163	-22.7183	-11.7277	-5.36433	28.1748	4.716	-5.59209	0
0.1947	-1.92779	-1.32793	-2.1896	-24.8623	-14.4416	-16.0347	8.03	1.66874	-8.33703	0
0.1953	-2.54469	-1.32793	-2.4983	-16.3145	-22.68	-25.189	-0.209478	1.66874	-8.03041	0
0.1960	-0.462671	0.471201	0.552785	-9.59846	-29.707	-43.7892	-4.17211	3.80907	-6.49733	0
0.1967	0.771118	1.11375	1.77322	-8.67554	-25.1516	-45.3635	-7.83798	4.40764	-6.19072	0
0.1973	0.771118	0.813893	0.861483	-6.24752	-14.7808	-27.3464	-7.227	3.50072	-4.97885	-0.316843
0.1980	-1.92779	-0.428365	-2.1896	-5.32459	-8.33539	-12.7111	-7.52376	1.05203	-4.97885	0
0.1987	-2.54469	-1.32793	-2.4983	-4.71404	-0.726924	-3.84832	-5.0973	-0.163246	-4.05901	0
0.1993	0.771118	0.171346	0.861483	-1.66127	6.93001	3.79001	-3.26437	2.57566	-1.00745	0
0.2000	1.07956	2.01331	2.69213	0.170387	6.59078	6.53048	-8.74572	5.02435	0.817642	0
0.2007	-0.462671	1.11375	0.552785	-1.97365	2.32616	3.49847	-12.1148	3.19237	-1.00745	0
0.2013	-3.47003	-2.57019	-3.71873	-5.93514	-0.436154	-1.39939	-9.96767	-1.37852	-3.75239	0
0.2020	-4.39537	-3.1699	-4.02025	-5.02641	-1.01769	-1.39939	-5.70828	-1.99523	-3.75239	0
0.2027	-0.462671	0.171346	0.552785	-0.141989	0.823847	2.27401	0.104739	2.26731	-0.700836	-0.316843
0.2033	1.38801	2.01331	2.08192	1.39149	1.69616	3.49847	0.715717	4.716	0.817642	-0.316843
0.2040	-0.462671	0.471201	-0.0574322	-0.440166	1.11462	4.4314	-1.7282	2.57566	-0.0876045	-0.950528
0.2047	-2.54469	-1.62779	-2.1896	-2.88238	0.823847	8.04649	-2.04241	-0.4716	-2.23391	-0.950528
0.2053	-2.23624	-1.62779	-2.79982	-3.19476	2.03539	14.7519	-0.506239	0.453461	-2.83254	-0.316843
0.2060	0.462671	0.171346	-0.358951	0.468564	4.45847	19.9413	4.67835	3.80907	0.219011	0
0.2067	2.31335	2.31317	2.38344	3.22315	6.30001	25.4805	10.7881	5.93127	2.35072	-0.316843
0.2073	1.07956	1.11375	1.163	1.68967	7.51155	39.4744	11.9926	4.40764	0.817642	-0.316843
0.2080	-2.23624	-1.32793	-2.4983	-2.5842	7.51155	50.2031	10.1772	-0.4716	-1.9273	-0.316843
0.2087	-3.16158	-1.02808	-2.79982	-3.49293	9.64386	55.684	10.1772	-0.779953	-1.62068	0
0.2093	-0.154224	1.71346	1.163	-0.440166	14.5385	63.9054	12.9178	2.57566	1.73749	0
0.2100	1.07956	1.71346	1.77322	1.07912	16.6708	69.0948	14.7508	3.19237	3.27057	0
0.2107	-1.07956	0.471201	-0.667649	0.170387	15.75	75.8003	11.0849	1.36038	1.73749	0.316843
0.2113	-2.85314	-1.62779	-3.41003	-3.80531	14.5385	89.5609	3.75315	-2.30358	-1.9273	0.316843
0.2120	-1.38801	-1.97048	-2.79982	-4.41586	12.1154	102.039	3.45639	-3.21051	-2.54053	-0.316843
0.2127	1.38801	1.4136	1.163	3.83371	10.2739	96.5579	7.12226	1.05203	2.65734	-0.316843
0.2133	2.00491	2.61303	2.69213	11.7709	8.43232	67.5788	5.28933	3.80907	6.01551	0
0.2140	1.38801	2.01331	1.4717	12.0691	5.08847	42.2732	3.75315	2.88401	5.09566	0
0.2147	-1.38801	-0.72822	-2.4983	9.62686	2.03539	-5.9474	7.12226	-1.37852	2.35072	0
0.2153	-3.47003	-2.27033	-2.79982	10.2374	1.40539	-120.406	11.3817	-2.61194	2.35072	0
0.2160	-1.38801	0.813893	0.552785	9.62686	2.95616	-190.317	0.715717	0.743676	3.56258	-0.316843
0.2167	0.771118	2.31317	1.4717	5.96354	2.61693	-157.023	-24.0027	2.57566	2.65734	-0.316843
0.2173	-0.462671	0.471201	-0.667649	0.78094	-7.12385	-120.114	-32.2422	1.97709	1.73749	0.316843
0.2180	-3.47003	-1.97048	-4.32895	-4.71404	-19.0454	-98.1322	-30.4267	-0.779953	-0.39422	0.316843
0.2187	-2.85314	-1.62779	-3.10852	-4.41586	-14.1508	-61.2233	-31.3345	-1.08831	-1.31407	0
0.2193	0.462671	1.11375	1.163	-1.97365	-0.726924	-32.5358	-24.6137	2.57566	-0.39422	-0.316843
0.2200	1.69646	2.01331	2.08192	-2.5842	12.9877	-27.6379	-11.8006	3.80907	-0.0876045	0
0.2207	-0.462671	0.171346	-0.358951	-4.10349	31.9362	-30.6699	-4.17211	1.36038	-1.31407	0
0.2213	-3.77848	-2.57019	-3.71873	-5.93514	39.8839	-32.2443	-1.7282	-2.61194	-3.13916	-0.316843
0.2220	-2.54469	-1.32793	-2.1896	-1.66127	34.0685	-32.8273	8.9552	-1.37852	-0.39422	-0.316843
0.2227	0.771118	0.813893	1.4717	4.74244	28.5923	-28.5709	19.6211	3.80907	3.27057	-0.316843
0.2233	1.69646	2.31317	2.99365	5.66537	24.6185	-21.5156	15.0475	4.716	2.35072	0
0.2240	0.154224	2.01331	1.4717	1.68967	11.4854	-22.4485	8.9552	2.57566	-0.0876045	0
0.2247	-2.85314	-1.32793	-3.71873	-0.752542	-9.88616	-15.7431	10.7881	-2.30358	-1.62068	0
0.2253	-3.47003	-1.97048	-4.32895	4.74244	-26.6539	15.1017	12.6036	-5.04249	0.219011	0
0.2260	-1.38801	0.171346	-0.358951	9.32868	-37.0247	45.5968	11.0849	-4.44392	2.0441	-0.316843
0.2267	0.462671	2.31317	1.4717	5.05481	-38.8662	50.7862	6.51128	-4.44392	1.43087	0
0.2273	0.462671	2.61303	0.552785	-3.80531	-35.8131	36.1509	-0.506239	-6.87447	-1.31407	0
0.2280	-1.92779	0.813893	-2.4983	-9.59846	-36.4431	18.4253	-7.227	-7.49118	-4.97885	0
0.2287	-2.23624	0.471201	-2.4983	-6.24752	-31.2577	13.2359	-7.83798	1.05203	-3.75239	0
0.2293	-0.154224	0.171346	0.552785	1.39149	-22.3893	26.0636	-5.0973	12.3523	1.12426	-0.316843
0.2300	0.154224	-0.428365	2.08192	1.68967	-21.4685	54.7511	-7.52376	12.6606	2.96395	0
0.2307	-1.38801	-1.62779	-0.358951	-4.71404	-24.2308	83.147	-16.9852	4.09929	0.817642	0
0.2313	-3.47003	-4.06947	-3.71873	-8.37736	-19.9662	74.2842	-25.5389	-1.08831	-1.00745	-0.316843
0.2320	-2.54469	-3.76961	-2.79982	-3.80531	-5.91231	1.63262	-27.6686	1.36038	1.73749	-0.316843
0.2327	1.38801	0.171346	1.4717	2.30022	11.1946	-76.1501	-26.1499	5.64106	6.61414	-0.316843
0.2333	2.93025	3.25557	3.60387	2.30022	20.6446	-83.4969	-18.5214	6.54798	6.92075	-0.316843
0.2340	0.771118	2.91288	1.4717	-2.5842	17.5916	-50.2031	-0.506239	2.88401	3.56258	-0.950528
0.2347	-1.69646	0.813893	-1.57938	-4.10349	7.51155	-30.0869	18.1024	-1.99523	2.96395	-1.26737
0.2353	-0.771118	1.4136	0.251266	3.83371	1.69616	-24.2561	26.3419	0.453461	5.70889	-0.316843
0.2360	1.07956	3.85528	2.99365	11.4585	-0.436154	-23.673	26.6561	4.716	6.61414	0.316843
0.2367	1.07956	3.25557	0.861483	7.7952	-4.99154	-31.8944	20.8431	4.09929	3.27057	0
0.2373	-0.154224	0.471201	-0.667649	0.78094	-12.0185	-48.104	10.7881	1.97709	-2.23391	-0.316843
0.2380	-4.39537	-1.97048	-1.88808	-1.97365	-15.6531	-50.5529	4.06737	-0.779953	-6.19072	-0.316843
0.2387	-6.24605	-1.62779	-4.32895	-3.80531	-12.0185	-31.3113	1.93767	-0.163246	-6.80395	-0.316843
0.2393	-2.85314	0.813893	-2.4983	-8.37736	-4.70077	-9.91234	-3.26437	4.716	-7.11056	-0.316843
0.2400	0.154224	2.61303	0.861483	-9.59846	-1.30846	5.9474	-11.1896	7.16469	-6.49733	0
0.2407	-0.154224	1.71346	0.251266	-7.46863	-2.22923	17.5507	-12.7258	6.54798	-4.97885	0
0.2413	-3.16158	-1.62779	-4.02025	-6.85807	-5.62154	18.1338	-9.05993	3.19237	-4.67224	0
0.2420	-2.85314	-1.32793	-3.41003	-4.10349	-6.20308	16.3262	-3.26437	4.09929	-2.54053	0
0.2427	0.771118	2.31317	0.251266	-1.3631	-1.64769	14.7519	0.715717	6.23963	-0.0876045	0
0.2433	2.00491	2.31317	1.163	-2.27183	3.87693	8.97941	-2.95015	2.88401	-0.0876045	0
0.2440	1.38801	1.11375	4.8243	-3.49293	5.08847	3.49847	-12.7258	-1.08831	-0.700836	0
0.2447	-1.69646	-0.72822	8.7943	-6.24752	3.5377	2.56555	-20.9653	-4.44392	-3.75239	-0.316843
0.2453	-3.16158	-1.62779	10.0147	-5.32459	5.08847	5.30602	-18.5214	-3.51886	-4.67224	-0.316843
0.2460	0.154224	0.813893	9.40452	-0.141989	6.93001	8.39634	-9.67091	1.66874	-1.62068	0
0.2467	2.00491	1.71346	7.26517	2.00205	7.22078	11.4283	-7.227	4.40764	-0.0876045	0.316843
0.2473	-0.771118	0.471201	-0.667649	-0.440166	6.30001	13.5857	-13.3368	1.05203	-2.23391	0.316843
0.2480	-4.70382	-1.02808	-11.6516	-3.80531	5.67001	10.4954	-16.6884	-3.21051	-5.8841	0
0.2487	-3.77848	-0.72822	-7.99025	-2.5842	8.72309	9.27095	-7.52376	-2.92029	-5.59209	0
0.2493	-0.154224	0.171346	-0.969168	1.68967	10.5646	20.8742	9.25196	0.453461	-2.23391	0
0.2500	1.69646	0.813893	-4.93917	3.52133	9.64386	40.1158	21.7683	1.36038	-1.62068	-0.316843
0.2507	-0.154224	0.171346	-9.21068	-0.752542	9.35309	48.9786	20.2321	-1.08831	-4.36562	-0.316843
0.2513	-1.92779	-2.27033	-10.1296	-6.85807	8.14155	46.2382	11.3817	-5.04249	-8.03041	0
0.2520	-1.38801	-3.1699	-7.99025	-7.15625	6.93001	41.6318	8.9552	-2.30358	-8.95026	0
0.2527	-0.462671	-2.57019	-4.63047	-2.88238	6.59078	31.8944	14.1398	6.85633	-7.41718	0
0.2533	1.07956	-2.87004	-2.79982	-0.752542	5.37924	21.8071	15.9727	14.1843	-5.59209	0
0.2540	1.07956	-4.41216	-4.32895	-2.5842	1.40539	23.3232	8.03	14.4745	-6.80395	-0.316843
0.2547	-2.23624	-6.85384	-7.07134	-5.63697	-4.70077	35.8593	-3.56113	9.90359	-8.95026	0
0.2553	-2.23624	-6.51115	-5.54938	-4.41586	-7.12385	52.9436	-9.96767	8.68832	-6.49733	0.316843
0.2560	0.771118	-1.97048	-0.358951	2.91078	-4.99154	60.5819	-10.2819	12.0439	-3.75239	0
0.2567	1.07956	4.15514	2.38344	8.40576	-3.15	26.9966	-8.13474	6.85633	-4.97885	0
0.2573	-1.07956	6.59682	1.77322	5.05481	-0.726924	-52.3605	-7.83798	-10.8468	-8.03041	0
0.2580	-4.08692	3.25557	-1.27787	-3.80531	-2.85923	-111.251	-11.8006	-22.1289	-11.3886	0
0.2587	-3.47003	1.11375	-1.27787	-1.05072	-8.04462	-103.613	-13.6335	-16.3427	-12.0018	-0.316843
0.2593	-0.462671	4.15514	2.69213	17.8622	-8.67463	-60.9317	-6.3018	-7.18282	-8.33703	0
0.2600	1.38801	4.45499	3.60387	22.1361	-4.99154	-25.189	2.23443	-2.61194	-6.19072	0
0.2607	0.154224	-0.428365	-0.358951	2.6126	-2.22923	-9.32926	2.23443	-1.99523	-8.03041	0
0.2613	-2.85314	-3.1699	-3.71873	-13.2618	-1.01769	-8.74618	-4.17211	-4.73413	-10.7754	0
0.2620	-2.54469	-1.02808	-1.88808	-12.6512	2.03539	-8.74618	-8.13474	-7.18282	-10.1621	0
0.2627	0.154224	2.01331	1.4717	-6.5457	5.37924	-0.174924	-9.05993	-5.65919	-7.41718	0
0.2633	0.462671	1.4136	1.163	-8.37736	5.67001	8.04649	-6.61602	-1.68688	-8.03041	-0.316843
0.2640	-0.462671	-0.72822	0.552785	-22.1077	5.37924	7.75495	-0.209478	-0.4716	-11.3886	-1.26737
0.2647	-2.54469	-2.27033	-0.358951	-37.9821	6.30001	4.4314	0.715717	-2.92029	-13.8269	-0.950528
0.2653	-1.92779	-1.32793	-0.667649	-32.1747	7.22078	5.59756	-2.95015	-1.08831	-12.6004	0
0.2660	0.771118	1.11375	2.08192	-12.9494	7.80232	7.46341	-1.11722	1.66874	-9.24227	0
0.2667	1.69646	1.71346	2.69213	-10.5072	7.22078	6.53048	1.62346	-1.37852	-9.8555	-0.316843
0.2673	0.154224	-0.128509	-0.358951	-17.2233	5.08847	7.17187	0.715717	-8.70645	-13.8269	0
0.2680	-2.85314	-3.46976	-4.02025	-22.1077	1.11462	5.01448	-3.87535	-13.2955	-15.0534	0
0.2687	-2.85314	-3.76961	0.861483	-24.5499	-1.01769	-4.4314	-3.56113	-6.56612	-8.64364	0
0.2693	0.154224	-0.128509	13.0658	-21.8095	-0.436154	-10.8453	3.75315	5.02435	0.817642	-0.316843
0.2700	0.154224	2.91288	18.5578	-16.6127	-1.64769	-5.9474	7.12226	8.99667	3.56258	-0.316843
0.2707	-2.23624	2.31317	16.4256	-21.4972	-3.15	7.46341	-0.506239	5.64106	-2.54053	-0.316843
0.2713	-4.08692	-0.128509	12.7643	-32.7853	-4.07077	15.3933	-13.3368	0.743676	-8.64364	-0.316843
0.2720	-2.23624	0.471201	13.0658	-23.0306	-2.85923	8.97941	-15.7632	-1.08831	-4.97885	-0.316843
0.2727	2.00491	1.4136	10.0147	1.39149	-1.64769	0.408155	-10.8929	-4.44392	2.35072	-0.316843
0.2733	2.6218	1.71346	-2.1896	14.8095	-1.01769	1.63262	-7.227	-8.3981	7.22737	-0.316843
0.2740	-0.154224	1.11375	-7.99025	12.992	-1.64769	11.1368	-7.227	-7.49118	8.14722	-0.316843
0.2747	-2.85314	-1.02808	-7.38003	7.18465	-4.36154	20.8742	-8.13474	-6.56612	6.32212	-0.316843
0.2753	-1.38801	0.813893	-7.07134	14.5113	-1.30846	31.8944	1.01248	-2.30358	11.1988	0
0.2760	1.38801	3.55543	-6.46112	24.8907	9.06232	43.4394	13.8256	1.97709	16.382	0
0.2767	1.69646	2.31317	-9.51938	25.1889	16.6708	47.4043	16.8805	3.19237	18.2217	-0.316843
0.2773	0.154224	-0.128509	-11.9602	21.8379	19.7239	39.8243	23.287	5.3327	20.3534	0
0.2780	-2.85314	-1.32793	-8.60047	26.41	20.6446	24.8392	42.2099	4.40764	22.7918	-0.316843
0.2787	-1.92779	-3.46976	-1.27787	35.8665	15.4592	8.97941	54.1152	4.716	26.7632	-0.316843
0.2793	0.462671	-5.31172	4.52278	35.5683	9.98309	-36.2092	40.6912	10.2119	28.2816	-0.316843
0.2800	0.154224	-4.06947	5.133	19.6939	15.75	-92.3597	16.2695	13.2592	22.4851	-0.316843
0.2807	-0.462671	-4.41216	2.99365	-4.71404	16.38	-94.7503	6.80804	12.3523	13.9437	-0.316843
0.2813	-1.38801	-4.41216	0.861483	-1.66127	1.40539	-81.048	12.3068	10.8287	10.2789	-0.316843
0.2820	-1.38801	1.71346	-1.27787	25.7994	-8.67463	-72.8266	19.3244	12.6606	10.8922	0
0.2827	-0.154224	7.19653	-6.46112	23.6696	-6.54232	-31.8944	20.2321	16.6148	11.1988	0
0.2833	-1.69646	6.59682	-11.6516	6.88647	-6.54232	6.82202	8.03	16.9232	13.3305	0
0.2840	-4.39537	6.59682	-11.35	13.9007	-22.68	13.5857	-7.52376	6.23963	15.4768	-0.316843
0.2847	-5.62916	5.35456	-5.24069	21.5255	-45.8931	13.2359	-11.8006	-5.35084	13.6371	-0.316843
0.2853	-3.47003	-1.97048	1.163	16.9535	-51.7085	27.5796	-9.96767	-12.0621	12.1186	-0.316843
0.2860	-0.462671	-5.91143	-0.0574322	14.8095	-36.4431	45.3052	-8.44896	-18.4831	11.812	-0.316843
0.2867	-1.92779	-1.97048	-4.93917	12.3815	-17.8339	45.0137	-10.8929	-19.6984	9.37368	-0.633685
0.2873	-5.93761	0.171346	-7.07134	6.88647	-4.70077	27.5796	-15.1523	-17.8664	5.70889	-0.633685
0.2880	-8.09674	-1.32793	-8.29177	2.91078	3.24693	5.01448	-15.4665	-16.9413	3.27057	-0.316843
0.2887	-6.5545	-4.41216	-5.8509	4.74244	5.67001	-7.81326	-10.5787	-7.18282	4.78904	-0.316843
0.2893	-2.23624	-7.7534	-3.10852	8.71813	3.24693	-10.5537	-5.70828	8.68832	6.61414	-0.316843
0.2900	1.07956	-5.91143	-2.79982	9.01631	1.11462	-10.8453	-2.65339	17.5399	6.01551	-0.316843
0.2907	1.07956	-0.72822	-3.10852	6.27592	0.484616	-9.32926	-0.820457	13.2592	3.56258	-0.316843
0.2913	-1.38801	1.4136	-3.71873	3.52133	-2.85923	-7.81326	-2.33917	4.716	1.43087	-0.316843
0.2920	-1.69646	3.85528	-2.79982	6.27592	-1.93846	-2.91539	-1.7282	6.23963	3.8692	-0.316843
0.2927	0.462671	7.79624	-1.57938	11.4585	7.80232	3.20693	1.62346	8.07161	8.45383	0
0.2933	0.462671	11.1803	-0.358951	11.4585	14.2477	6.53048	0.715717	-4.44392	8.76045	-0.316843
0.2940	-3.16158	8.73864	0.861483	6.5741	14.2477	8.97941	-3.87535	-20.0067	7.53399	-0.950528
0.2947	-6.24605	0.171346	-0.358951	1.07912	15.1685	11.1368	-7.227	-31.9055	6.92075	-1.26737
0.2953	-2.85314	-7.45355	0.251266	0.468564	20.0146	26.0636	-9.05993	-31.2888	7.8406	-0.633685
0.2960	0.154224	-10.1951	2.08192	3.22315	22.4862	48.6288	-11.8006	-12.3704	7.8406	0
0.2967	-0.462671	-9.89523	0.552785	8.71813	22.7769	58.4245	-10.8929	4.09929	5.40228	-0.316843
0.2973	-1.07956	-6.21129	-3.71873	12.6796	25.83	62.681	-4.17211	4.40764	2.65734	-0.316843
0.2980	-3.16158	-5.01187	-6.46112	10.848	25.5393	76.4416	3.14217	-1.99523	0.817642	-0.316843
0.2987	-4.39537	-5.01187	-4.32895	12.6796	20.0146	102.68	14.4365	-3.21051	1.73749	-0.316843
0.2993	-2.54469	-1.97048	-0.667649	11.4585	14.5385	136.557	26.9529	-0.4716	2.96395	-0.316843
0.3000	-1.38801	1.4136	0.861483	9.62686	5.08847	171.309	38.2472	1.97709	8.45383	-0.316843
0.3007	-1.92779	0.171346	-1.27787	14.1989	-8.33539	190.259	42.5241	1.05203	13.9437	-0.316843
0.3013	-4.39537	-3.1699	-3.71873	9.32868	-13.23	186.294	37.6363	-3.21051	7.22737	0
0.3020	-3.77848	-2.57019	-0.667649	-1.66127	-13.5208	187.81	44.357	-1.08831	-0.0876045	-0.316843
0.3027	-1.38801	-1.62779	0.861483	-2.27183	-19.3362	197.897	44.6538	3.80907	-0.0876045	0
0.3033	-0.771118	-0.428365	-1.27787	-0.440166	-23.0193	121.922	15.6585	5.3327	-1.00745	0
0.3040	-2.23624	2.91288	-2.1896	-5.32459	-20.5477	-39.2412	-12.7258	4.716	-4.97885	0
0.3047	-5.93761	2.91288	-5.8509	-13.2618	-19.6269	-124.371	-31.0377	3.19237	-8.33703	0
0.3053	-4.08692	5.05471	-7.38003	-22.7183	-21.1777	-141.455	-42.9256	4.09929	-10.1621	0
0.3060	0.462671	9.33835	-7.07134	-27.9151	-19.9662	-186.935	-45.3695	5.93127	-8.33703	0
0.3067	1.07956	9.93806	-7.07134	-22.1077	-15.6531	-221.104	-40.1849	4.40764	-3.44578	0
0.3073	-1.07956	2.31317	1.4717	-15.704	-11.3885	-192.416	-33.7784	-0.4716	0.511026	0
0.3080	-4.08692	-6.85384	10.3234	-13.8723	-7.41462	-135.974	-28.2796	-5.35084	1.73749	0
0.3087	-4.39537	-7.7534	7.88257	-6.24752	-3.15	-95.6832	-18.8181	-4.73413	5.40228	-0.316843
0.3093	-1.69646	-5.31172	5.133	-0.141989	-0.726924	-60.5819	-9.96767	-0.779953	9.06706	-0.316843
0.3100	-0.154224	-2.27033	4.8243	-1.97365	0.823847	-35.8593	-3.26437	0.743676	8.14722	-0.316843
0.3107	-1.92779	4.15514	1.4717	-5.32459	1.40539	-24.6059	3.45639	0.145108	6.01551	0
0.3113	-3.77848	2.91288	-2.79982	-7.15625	-0.0969232	-2.33232	5.58609	-1.08831	4.17581	0
0.3120	-1.92779	-6.21129	-0.358951	-4.41586	-0.436154	21.5156	13.2146	0.743676	5.09566	0
0.3127	2.31335	-7.7534	4.8243	2.91078	1.11462	26.3552	23.287	3.50072	7.53399	-0.316843
0.3133	2.93025	-2.87004	6.04474	6.88647	0.823847	-3.55678	18.7134	2.57566	5.40228	0
0.3140	-0.771118	-1.97048	2.69213	2.00205	-2.56846	-80.4066	6.19707	-2.30358	-0.700836	-0.316843
0.3147	-2.54469	-2.27033	-1.27787	-4.10349	-5.28231	-140.872	1.01248	-4.13557	-4.97885	-0.316843
0.3153	-0.462671	-1.32793	-0.358951	-3.49293	-7.41462	-113.992	0.104739	-1.37852	-4.97885	-0.316843
0.3160	0.771118	0.171346	2.99365	0.468564	-7.75385	-45.0137	-4.48633	2.26731	-2.83254	-0.316843
0.3167	0.462671	1.71346	3.60387	1.68967	-4.36154	-10.8453	-12.1148	4.09929	-2.54053	-0.316843
0.3173	0.462671	1.11375	1.4717	-0.752542	-2.56846	-33.1189	-13.0226	4.40764	-4.05901	0
0.3180	-1.92779	-1.32793	-2.1896	-8.37736	-3.48923	-82.8555	-7.83798	3.50072	-7.41718	0
0.3187	-2.54469	-1.32793	-2.1896	-14.4829	0.193846	-104.546	-2.33917	4.09929	-9.8555	0
0.3193	0.154224	2.31317	1.4717	-11.7283	4.45847	-85.3044	2.84541	7.47304	-8.33703	0
0.3200	0.462671	2.91288	2.08192	-7.15625	2.95616	-56.617	6.80804	4.716	-5.8841	0
0.3207	-0.154224	0.813893	-0.358951	-7.15625	-0.726924	-32.8273	2.84541	-4.44392	-5.8841	-0.316843
0.3213	-1.69646	-1.02808	-2.79982	-9.28609	-2.22923	-22.4485	-5.39407	-9.63151	-8.03041	-0.316843
0.3220	-0.462671	-0.72822	-0.667649	-7.15625	0.193846	-23.9645	-5.70828	-5.04249	-6.19072	-0.316843
0.3227	2.31335	1.4136	2.69213	-2.5842	3.24693	-17.2591	-2.65339	1.97709	-3.13916	0
0.3233	1.38801	2.61303	2.99365	-1.97365	4.45847	-1.98247	-4.48633	2.26731	-2.54053	-0.316843
0.3240	-1.69646	-0.128509	1.163	-4.71404	6.00924	1.04954	-7.83798	-0.4716	-3.75239	-1.26737
0.3247	-3.16158	-2.87004	-2.1896	-7.46863	6.00924	-5.36433	-7.52376	-1.68688	-5.59209	-0.950528
0.3253	-0.462671	0.813893	-2.4983	-4.41586	4.45847	-5.36433	-2.65339	1.66874	-4.05901	0.316843
0.3260	2.93025	4.45499	1.77322	0.170387	4.45847	-6.88033	1.01248	8.99667	-1.00745	-0.316843
0.3267	4.47248	4.15514	3.60387	1.68967	6.93001	-9.03772	2.23443	14.7828	0.817642	-0.316843
0.3273	2.93025	3.55543	-2.1896	2.6126	8.14155	11.1368	3.14217	19.6802	1.12426	0
0.3280	-1.07956	2.01331	-13.4822	0.170387	7.22078	45.5968	0.104739	27.9151	-0.0876045	0
0.3287	0.154224	-0.128509	-16.5333	-1.97365	11.1946	73.3513	0.4015	41.9542	0.219011	0
0.3293	2.93025	1.11375	-11.9602	-0.752542	17.3008	92.0098	6.51128	46.8335	2.65734	-0.316843
0.3300	0.771118	11.1803	-21.7237	3.83371	17.5916	100.231	9.56617	28.2234	5.09566	-0.316843
0.3307	-3.77848	15.7638	-30.5755	6.88647	14.8292	99.2983	9.25196	2.88401	5.40228	-0.316843
0.3313	-5.32071	7.19653	-14.4011	7.18465	11.1946	102.039	12.3068	-5.35084	3.56258	0
0.3320	-0.771118	2.61303	5.43452	9.01631	12.4062	107.87	20.8431	-14.2024	4.48243	-0.316843
0.3327	3.23869	-4.06947	20.0869	11.1603	16.38	101.164	31.2297	-33.1208	6.61414	-1.26737
0.3333	4.78093	-18.1198	27.7182	9.93924	16.0408	93.5258	37.0253	-24.8859	6.92075	-1.26737
0.3340	6.5545	-21.8038	11.5439	-0.141989	13.3269	92.0098	20.5463	-2.92029	1.43087	0
0.3347	6.24605	-13.2365	-1.27787	-11.7283	11.1946	45.3052	-12.1148	-16.6511	-8.03041	0.316843
0.3353	3.85559	-3.1699	16.7271	-8.06498	6.30001	-73.1181	-25.2247	-34.6444	-7.41718	0
0.3360	-1.07956	6.29696	25.2773	-1.66127	0.823847	-182.97	-14.5413	-22.7456	-1.00745	-0.316843
0.3367	-4.39537	12.3797	10.0147	-4.10349	-2.22923	-186.644	-2.65339	-3.21051	-0.700836	-0.316843
0.3373	-1.92779	7.19653	4.21409	-8.67554	-7.12385	-104.838	-2.33917	13.5676	-4.36562	0
0.3380	0.462671	-5.61158	7.88257	-8.98791	-12.3092	-33.1189	-5.0973	25.4664	-6.49733	0
0.3387	-0.154224	-13.8362	4.52278	-3.49293	-11.3885	-12.0697	-3.26437	25.4664	-4.97885	0
0.3393	-1.07956	-16.5777	4.21409	2.6126	-8.33539	-15.7431	-1.11722	16.6148	-1.9273	-0.316843
0.3400	-2.54469	-18.1198	13.0658	4.13188	-7.75385	-21.2241	-1.7282	8.37996	-1.62068	-0.316843
0.3407	-4.39537	-17.82	16.4256	0.170387	-7.41462	-29.7953	-6.61602	-12.9871	-4.05901	0
0.3413	-6.24605	-12.9366	10.0147	-0.752542	-5.28231	-33.7603	-13.0226	-47.7767	-5.28547	0
0.3420	-3.77848	-2.57019	9.103	5.66537	-4.36154	-17.9005	-9.3567	-50.2072	-2.23391	-0.316843
0.3427	-0.771118	9.63821	10.625	6.88647	-8.04462	8.39634	8.9552	-36.7848	1.73749	0
0.3433	-2.85314	16.9632	-0.0574322	-0.440166	-9.5954	21.8071	25.4342	-47.16	2.65734	0
0.3440	-5.62916	14.5216	-8.60047	-8.37736	-4.99154	25.1307	22.9902	-54.4879	0.219011	0
0.3447	-5.62916	9.33835	-13.7909	-13.8723	-1.01769	19.6498	4.36413	-38	-3.75239	-0.316843
0.3453	-2.23624	8.73864	-17.4522	-10.5072	-1.30846	11.1368	-13.3368	-18.1747	-4.05901	-0.316843
0.3460	-0.154224	4.75485	-13.1807	-1.05072	-4.07077	15.6848	-21.5763	-9.63151	-1.00745	-0.316843
0.3467	-0.771118	-3.1699	-6.76982	2.30022	-2.56846	29.4455	-25.8357	-5.96755	-0.0876045	-0.316843
0.3473	-0.771118	-3.76961	-4.93917	0.468564	2.95616	36.4424	-30.4267	-0.779953	-1.9273	-0.633685
0.3480	-1.92779	-2.27033	-7.68155	-2.5842	3.24693	29.0956	-29.2048	-0.779953	-3.75239	-0.316843
0.3487	-1.92779	-2.27033	-6.46112	-2.88238	0.193846	20.2911	-18.2072	-4.73413	-3.13916	0
0.3493	0.771118	0.813893	-0.358951	-1.05072	-2.56846	14.4604	-9.05993	-3.51886	-1.62068	0
0.3500	1.69646	3.85528	2.08192	-1.05072	-7.41462	5.01448	-5.39407	1.36038	-0.700836	0
0.3507	-0.771118	2.61303	-0.358951	-2.88238	-16.9131	-13.5857	-4.48633	3.19237	-1.00745	-0.316843
0.3513	-3.47003	-0.72822	-3.71873	-5.32459	-23.31	-31.0198	-3.87535	1.05203	-3.44578	0
0.3520	-1.38801	-0.428365	-2.1896	-2.5842	-17.2039	-26.4135	3.14217	1.97709	-3.75239	0
0.3527	1.38801	2.31317	1.163	1.39149	-9.25616	-8.74618	10.4739	5.02435	-2.23391	-0.316843
0.3533	2.6218	3.85528	1.77322	0.78094	-5.91231	5.30602	6.80804	8.07161	-2.83254	0
0.3540	0.462671	2.01331	-1.27787	-4.10349	-6.54232	13.5857	-4.78309	7.16469	-5.59209	-0.316843
0.3547	-4.39537	-1.97048	-4.63047	-8.98791	-13.23	20.8742	-13.3368	0.743676	-8.33703	-1.26737
0.3553	-2.23624	-0.72822	-2.1896	-6.5457	-15.6531	39.4744	-14.8555	1.66874	-5.8841	-0.950528
0.3560	1.38801	2.31317	0.251266	-1.97365	-11.0977	57.7831	-13.3368	6.85633	-1.62068	0
0.3567	0.771118	2.31317	-0.969168	-1.05072	-6.20308	64.5468	-9.67091	6.85633	-0.700836	0
0.3573	-0.462671	1.4136	-2.4983	-3.19476	-3.78	64.5468	-5.70828	4.09929	-1.62068	0
0.3580	-2.23624	0.171346	-4.02025	-6.5457	-1.01769	62.3894	-6.3018	1.36038	-4.05901	0
0.3587	-1.07956	2.31317	-1.57938	-4.10349	4.45847	66.6459	-4.48633	3.19237	-2.83254	0
0.3593	1.38801	6.59682	1.77322	0.170387	9.06232	65.4214	2.5312	5.3327	-0.0876045	0
0.3600	2.00491	9.33835	-0.667649	2.6126	12.6969	45.8883	8.9552	4.40764	0.817642	0
0.3607	0.154224	8.13893	-4.63047	2.00205	11.7762	23.3232	11.3817	1.66874	0.511026	0
0.3613	-3.16158	4.45499	-3.71873	-1.05072	8.72309	-0.758003	8.03	-1.08831	-0.700836	-0.316843
0.3620	-1.92779	5.05471	2.08192	0.468564	11.4854	-45.6551	4.06737	0.145108	0.511026	-0.316843
0.3627	1.07956	6.29696	8.18408	2.91078	15.75	-87.4618	3.45639	6.54798	3.8692	0.316843
0.3633	1.69646	1.71346	14.5949	2.91078	17.5916	-96.9077	5.58609	12.6606	5.09566	0
0.3640	1.38801	-6.21129	17.0358	1.39149	14.8292	-94.4588	6.51128	12.0439	3.8692	-0.316843
0.3647	-0.771118	-7.45355	15.5067	0.78094	8.43232	-81.9809	3.75315	7.47304	1.43087	0
0.3653	-1.38801	-2.87004	15.2052	5.05481	6.00924	-41.9817	4.67835	8.99667	1.73749	0
0.3660	-0.462671	1.11375	13.0658	12.0691	4.1677	1.98247	9.56617	16.3065	6.01551	-0.316843
0.3667	-0.462671	3.25557	6.35343	17.2517	-2.85923	16.6177	13.8256	19.9704	7.8406	0.316843
0.3673	-1.07956	-1.32793	3.30235	17.5641	-10.4677	11.4283	20.5463	22.1108	3.27057	0.316843
0.3680	-2.54469	-9.89523	3.30235	14.1989	-9.25616	5.30602	20.2321	24.2511	-2.23391	0
0.3687	-1.69646	-12.9366	2.99365	6.27592	-1.93846	0.116616	6.80804	22.1108	-4.67224	0
0.3693	0.771118	-13.2365	5.133	-3.19476	2.95616	-6.58879	-2.65339	19.6802	-4.36562	0
0.3700	0.462671	-4.06947	5.43452	0.468564	6.59078	-7.17187	-0.820457	14.7828	-1.9273	0
0.3707	-1.69646	10.8805	-1.27787	12.0691	12.9877	1.04954	0.4015	-4.13557	-0.0876045	-0.316843
0.3713	-2.54469	12.6796	-17.7537	9.01631	15.75	3.20693	-5.0973	-27.9332	-3.13916	-0.316843
0.3720	-0.154224	7.79624	-27.8259	-8.98791	16.0408	-9.6208	-7.52376	-38.3084	-5.28547	0
0.3727	0.462671	2.91288	-22.0252	-22.4201	19.7239	-32.8273	-3.26437	-31.9055	-5.28547	0
0.3733	-2.85314	-5.61158	-16.5333	-16.9251	18.8031	-49.3285	-2.04241	-17.8664	-4.67224	0
0.3740	-3.77848	-9.89523	-15.3129	-2.88238	8.43232	-45.9466	-9.05993	-10.2301	-3.75239	-0.316843
0.3747	-3.77848	-6.21129	-12.2618	-2.27183	2.03539	-28.8624	-18.5214	-8.70645	-3.75239	-0.316843
0.3753	-2.23624	-3.1699	-2.1896	-8.98791	-1.30846	-5.65586	-10.8929	1.36038	-2.23391	-0.316843
0.3760	-0.154224	-2.87004	3.60387	-8.98791	-12.3092	9.56249	14.4365	10.5203	2.35072	-0.316843
0.3767	1.07956	-1.02808	-0.969168	-1.66127	-21.4685	12.0114	26.6561	3.80907	4.78904	-0.316843
0.3773	-0.154224	-1.32793	-7.68155	3.52133	-20.2569	8.97941	18.1024	-2.92029	1.73749	0
0.3780	-4.08692	-4.41216	-16.2318	2.6126	-15.0716	3.79001	3.75315	0.145108	-3.44578	0
0.3787	-2.23624	-1.62779	-21.1135	-3.19476	-14.1508	3.79001	-6.61602	1.36038	-4.97885	0
0.3793	1.69646	1.71346	-17.1435	-13.2618	-20.2569	-0.174924	-7.83798	2.26731	-4.05901	0
0.3800	0.154224	-0.72822	-7.99025	-18.4444	-21.4685	-9.6208	-7.83798	5.93127	-2.83254	0
0.3807	-2.85314	-2.27033	-2.79982	-14.7811	-10.8069	-4.13986	-17.5962	1.97709	-2.54053	-0.316843
0.3813	-5.01226	-3.46976	-5.54938	-8.37736	-2.56846	20.8742	-21.262	-8.10789	-3.13916	-0.316843
0.3820	-2.23624	-5.01187	1.4717	-1.66127	2.03539	51.7191	-15.1523	-3.51886	-1.62068	-0.316843
0.3827	0.771118	-5.91143	10.9336	2.00205	8.72309	72.4767	-13.0226	13.5676	-0.700836	-0.316843
0.3833	-0.154224	-1.32793	6.96365	3.52133	8.72309	76.0918	-8.44896	12.9509	-0.0876045	0
0.3840	-2.85314	0.813893	0.251266	3.22315	0.484616	64.8384	-2.04241	-9.01481	-0.700836	-0.950528
0.3847	-3.77848	-1.97048	-0.969168	2.91078	-4.99154	52.3022	-2.04241	-22.7456	-1.31407	-1.26737
0.3853	0.771118	2.61303	0.861483	1.68967	-3.15	47.1128	0.104739	-15.726	-0.700836	-0.316843
0.3860	2.6218	6.59682	2.38344	-2.88238	-1.01769	39.8243	6.19707	-4.73413	-1.62068	0.316843
0.3867	0.771118	2.31317	1.77322	-4.41586	-2.56846	27.2881	13.2146	-0.779953	-1.9273	0
0.3873	-0.771118	-2.57019	-0.969168	-1.3631	-6.20308	10.4954	6.80804	-1.08831	-1.62068	0
0.3880	-2.23624	-3.46976	-3.10852	1.07912	-8.04462	-31.3113	-9.67091	0.145108	-1.00745	-0.316843
0.3887	-1.92779	-1.62779	-0.969168	0.468564	-5.28231	-106.354	-11.8006	6.23963	1.12426	-0.316843
0.3893	-0.154224	0.171346	1.4717	-3.19476	1.11462	-146.353	0.104739	5.93127	1.73749	0.316843
0.3900	1.07956	1.4136	1.163	-3.49293	8.43232	-100.873	8.03	-2.30358	0.817642	0.316843
0.3907	-0.154224	0.813893	-0.969168	-1.97365	13.9085	-32.8273	4.97511	-6.2759	0.511026	-0.316843
0.3913	-2.23624	-1.32793	-3.41003	-1.05072	16.38	2.56555	0.4015	-5.35084	0.511026	-0.316843
0.3920	-1.07956	-0.428365	-1.27787	2.00205	18.5123	24.5476	0.715717	-1.37852	2.0441	0.316843
0.3927	1.69646	2.31317	2.99365	3.83371	21.5654	47.4043	2.84541	3.50072	4.48243	0
0.3933	2.31335	2.61303	3.60387	5.96354	20.9354	56.2671	9.86294	5.3327	5.09566	0
0.3940	0.154224	0.813893	0.251266	3.52133	15.75	47.4043	18.7134	3.19237	2.35072	0
0.3947	-1.92779	-1.02808	-2.4983	-4.41586	13.9085	39.8243	31.5265	0.743676	-1.31407	-0.316843
0.3953	-1.07956	0.171346	-0.358951	-3.49293	16.0408	39.8243	53.2075	1.97709	-2.54053	-0.316843
0.3960	0.462671	2.61303	2.69213	5.05481	13.9085	45.3052	64.1876	3.80907	-1.62068	0
0.3967	0.771118	2.91288	2.69213	5.96354	6.00924	59.9405	44.357	4.40764	-0.39422	0
0.3973	-1.07956	1.11375	-0.667649	-2.5842	-2.56846	66.0628	7.12226	2.88401	-0.700836	0
0.3980	-4.39537	-1.62779	-4.02025	-5.93514	-5.91231	16.3262	-19.7433	-0.163246	-1.9273	0
0.3987	-2.85314	-0.428365	-2.1896	0.78094	-3.78	-74.3426	-27.0576	1.36038	1.12426	0
0.3993	1.38801	3.25557	1.77322	7.18465	-3.15	-93.8757	-24.3169	5.64106	5.40228	-0.316843
0.4000	2.31335	3.25557	2.38344	7.18465	-8.33539	-48.9786	-18.5214	5.64106	5.70889	-0.316843
0.4007	0.771118	0.471201	-0.0574322	3.83371	-11.7277	-23.3815	-15.4665	2.26731	2.35072	0
0.4013	-0.771118	-1.32793	-2.1896	1.07912	-8.33539	-5.07279	-16.9852	-0.4716	-1.9273	-0.316843
0.4020	1.07956	-0.128509	0.251266	2.00205	-5.91231	23.3232	-14.8555	1.36038	-2.54053	-0.316843
0.4027	4.16403	2.01331	3.30235	3.52133	-6.83308	45.8883	-8.44896	4.09929	-0.0876045	0
0.4033	2.00491	1.71346	2.99365	4.13188	-7.75385	59.0076	-2.04241	5.02435	1.12426	0
0.4040	-5.32071	0.471201	0.861483	3.22315	-11.3885	63.9054	0.4015	3.19237	-0.0876045	0
0.4047	-9.56186	-1.32793	-2.4983	2.30022	-18.4154	55.9756	0.104739	-0.163246	-2.23391	-0.316843
0.4053	-4.08692	-0.428365	-0.358951	9.32868	-23.8916	61.7481	3.45639	2.26731	1.12426	-0.316843
0.4060	-2.23624	1.71346	3.30235	17.5641	-28.4954	77.6661	-0.209478	5.64106	5.09566	-0.316843
0.4067	-9.87031	2.31317	1.77322	17.2517	-31.2577	29.4455	-8.44896	5.64106	3.8692	0
0.4073	-19.9719	1.11375	-1.88808	13.9007	-26.3631	-68.8616	-7.227	3.19237	1.12426	0
0.4080	-30.9218	-0.72822	-4.63047	11.7709	-13.23	-97.1992	0.715717	0.743676	0.219011	-0.633685
0.4087	-31.2303	0.813893	-1.88808	12.6796	2.03539	-45.3635	11.0849	2.88401	2.0441	0
0.4093	-15.4224	2.91288	1.163	12.3815	8.43232	-10.5537	21.7683	5.3327	3.27057	0
0.4100	1.69646	2.61303	1.163	2.30022	6.59078	-25.189	23.898	4.40764	2.35072	-0.316843
0.4107	9.33052	0.813893	-0.667649	-19.0549	4.1677	-57.8414	8.64098	2.26731	-4.05901	-0.316843
0.4113	6.86295	-1.62779	-3.10852	-33.7082	2.61693	-74.6341	-10.8929	-0.4716	-10.1621	0
0.4120	3.85559	-0.72822	-0.358951	-26.694	2.03539	-61.8064	-15.7632	1.05203	-7.41718	0.316843
0.4127	6.24605	1.71346	3.60387	-12.9494	1.11462	-34.3433	-14.8555	3.80907	-2.83254	0
0.4133	9.33052	2.61303	3.30235	-8.37736	-0.0969232	-24.8975	-13.3368	4.716	-2.54053	0
0.4140	10.5643	-0.428365	-1.27787	-11.4301	-1.01769	-41.3986	-8.74572	1.05203	-5.59209	-0.316843
0.4147	11.1812	-4.06947	-3.10852	-12.3389	7.22078	-48.104	-6.00504	-4.44392	-6.49733	-1.26737
0.4153	10.2559	-1.97048	0.552785	-4.71404	22.4862	-29.7953	-2.33917	-2.61194	-1.31407	-0.950528
0.4160	5.62916	0.471201	1.77322	1.39149	34.3593	-12.7111	0.104739	1.97709	2.96395	0
0.4167	3.54714	0.813893	1.163	1.68967	40.4654	-14.5187	-0.820457	2.88401	3.56258	-0.316843
0.4173	2.6218	0.813893	0.861483	2.30022	34.6985	-14.2271	2.23443	2.26731	3.56258	-0.316843
0.4180	0.462671	-1.32793	-2.1896	4.74244	27.0416	11.1368	10.1772	-0.4716	2.65734	-0.316843
0.4187	12.415	0.171346	-0.667649	8.71813	24.2793	50.4946	18.7134	1.05203	3.56258	0
0.4193	26.9891	3.55543	2.99365	10.848	17.5916	82.5057	18.4166	5.02435	4.17581	0
0.4200	27.2976	2.31317	2.38344	7.49703	8.14155	86.4706	12.6036	5.02435	3.56258	-0.316843
0.4207	19.1237	-0.128509	-0.667649	-1.05072	2.03539	68.8033	9.25196	1.66874	0.817642	-0.316843
0.4213	5.32071	-2.27033	-3.10852	-9.59846	0.193846	56.9085	6.19707	-1.37852	-3.13916	0
0.4220	-5.93761	-1.32793	-0.358951	-9.59846	0.823847	56.9085	7.12226	0.743676	-1.9273	0.316843
0.4227	-10.1788	0.813893	2.69213	-2.88238	-3.15	63.3224	5.28933	3.50072	0.511026	0
0.4233	-26.9891	1.4136	2.69213	1.07912	-13.23	73.9927	-1.7282	3.50072	0.511026	-0.316843
0.4240	-63.0003	0.813893	-0.667649	-0.141989	-23.0193	79.1821	-2.65339	1.66874	-0.39422	-0.316843
0.4247	-71.2513	-0.72822	-4.93917	-2.5842	-31.2577	37.6669	-4.17211	-0.4716	-2.23391	-0.316843
0.4253	-35.2401	1.4136	-2.1896	-2.88238	-43.1308	-96.3246	-13.3368	2.88401	-1.00745	-0.316843
0.4260	-2.85314	4.45499	1.163	-2.27183	-48.3162	-239.762	-19.1323	7.16469	0.817642	0
0.4267	9.02208	5.35456	-0.969168	-1.97365	-34.3108	-247.342	-19.1323	6.85633	-0.700836	0
0.4273	15.7308	3.55543	-4.32895	-2.5842	-11.3885	-142.679	-24.6137	3.19237	-2.83254	-0.316843
0.4280	17.273	0.471201	-5.54938	-2.27183	5.67001	-46.2382	-29.8157	0.145108	-2.83254	0
0.4287	17.273	0.471201	-0.667649	1.07912	14.5385	-1.98247	-24.6137	1.97709	1.12426	-0.316843
0.4293	22.748	2.31317	5.43452	2.91078	11.4854	6.82202	-17.5962	4.40764	3.8692	-0.316843
0.4300	20.2804	1.11375	5.74322	0.170387	2.03539	0.758003	-16.6884	2.88401	1.73749	0
0.4307	12.415	-1.97048	2.08192	-3.49293	0.823847	-10.2622	-18.2072	-1.37852	-1.9273	0
0.4313	17.273	-3.46976	-0.969168	-5.63697	3.5377	-17.5507	-13.9478	-4.73413	-3.75239	0
0.4320	18.1984	-1.97048	0.552785	-5.02641	3.87693	-17.9005	-1.43143	-3.82721	-3.75239	0
0.4327	7.17139	0.171346	2.99365	-1.66127	1.11462	-17.5507	11.3817	-1.37852	-1.62068	0
0.4333	0.154224	1.11375	2.69213	1.07912	-4.70077	-18.1921	15.0475	-1.37852	-0.0876045	0
0.4340	-4.70382	-0.72822	-0.969168	-0.752542	-7.12385	-17.5507	7.73324	-4.73413	-2.23391	0
0.4347	-9.25341	-2.57019	-2.79982	-3.19476	-8.04462	-14.5187	-2.33917	-7.79953	-4.36562	-0.316843
0.4353	-7.47984	-0.428365	0.861483	-0.141989	-7.41462	-8.74618	-3.87535	-4.13557	-1.62068	-0.316843
0.4360	-5.01226	1.71346	2.99365	1.68967	-3.15	3.79001	0.4015	0.145108	0.511026	-0.316843
0.4367	-4.08692	1.4136	2.38344	0.468564	-0.0969232	25.4805	2.23443	0.453461	0.219011	-0.316843
0.4373	-3.77848	-0.72822	-0.0574322	-1.97365	-2.22923	32.186	-0.820457	-1.99523	-0.700836	0
0.4380	-3.77848	-2.87004	-2.4983	-2.88238	-7.41462	19.6498	-2.33917	-4.44392	-1.62068	0.316843
0.4387	-0.462671	-1.02808	-0.0574322	1.68967	-10.4677	13.5857	1.62346	-1.68688	0.511026	-0.316843
0.4393	1.69646	1.4136	3.30235	5.96354	-7.12385	14.7519	2.84541	2.57566	2.96395	0
0.4400	1.07956	1.4136	2.69213	5.05481	-2.85923	14.1688	-1.43143	2.88401	2.35072	0
0.4407	-0.771118	-0.428365	-0.0574322	-1.3631	-1.93846	11.7199	-6.3018	0.743676	-1.00745	0
0.4413	-1.92779	-1.97048	-2.79982	-6.5457	-0.726924	11.1368	-7.83798	-1.68688	-4.05901	0
0.4420	0.154224	-0.428365	-0.969168	-4.10349	3.5377	11.7199	-5.39407	0.145108	-2.54053	-0.316843
0.4427	1.69646	2.01331	2.08192	0.170387	5.37924	8.04649	-2.33917	3.80907	0.219011	0
0.4433	0.462671	1.11375	1.4717	0.170387	2.95616	2.27401	-2.95015	3.50072	0.511026	0
0.4440	-1.69646	-2.27033	-0.969168	-2.27183	-0.726924	-3.84832	-5.0973	-1.37852	-1.00745	-1.26737
0.4447	-1.92779	-3.1699	-2.79982	-3.49293	0.484616	-6.88033	-1.43143	-4.13557	-1.31407	-1.26737
0.4453	-0.462671	-0.72822	-0.358951	1.39149	2.95616	-0.466463	6.80804	-0.163246	1.73749	0
0.4460	-0.154224	1.4136	2.08192	7.18465	0.484616	3.79001	9.25196	2.88401	5.09566	0
0.4467	0.154224	1.11375	1.77322	9.01631	0.823847	15.3933	4.97511	2.26731	6.92075	0
0.4473	0.154224	-0.128509	-0.667649	6.27592	4.1677	44.3723	-0.820457	0.145108	5.09566	-0.316843
0.4480	-1.07956	-1.32793	-2.79982	1.39149	4.74924	66.9375	-6.3018	-2.92029	0.817642	-0.316843
0.4487	-1.38801	-0.128509	0.251266	0.468564	9.35309	80.9897	-5.70828	-2.92029	1.43087	-0.633685
0.4493	-0.154224	1.71346	2.08192	1.39149	18.8031	95.3334	-2.04241	-0.779953	3.8692	-0.633685
0.4500	-0.154224	1.71346	0.861483	2.91078	23.4069	106.645	1.93767	-0.163246	5.09566	0
0.4507	-1.38801	-0.72822	-1.27787	4.13188	22.4862	115.508	5.58609	-1.08831	4.17581	0
0.4513	-2.85314	-3.1699	-4.02025	4.74244	22.4862	127.986	7.12226	-2.30358	1.73749	-0.316843
0.4520	-0.771118	-1.97048	-1.88808	9.62686	20.0146	152.125	21.1573	0.145108	4.78904	-0.316843
0.4527	0.771118	0.471201	1.163	13.9007	11.7762	159.414	41.9131	2.57566	9.66569	-0.316843
0.4533	-2.23624	1.4136	0.552785	10.5498	4.74924	114.283	42.8209	0.145108	7.8406	0
0.4540	-1.92779	-0.428365	-1.27787	4.44426	-0.436154	44.3723	29.3968	-1.68688	0.817642	0
0.4547	-0.154224	-2.27033	-2.4983	-1.05072	-12.6	-54.8094	20.2321	-1.08831	-4.36562	0.316843
0.4553	0.154224	-1.32793	-0.667649	-5.63697	-21.7593	-191.833	13.2146	1.05203	-6.19072	0
0.4560	-1.38801	1.11375	1.77322	-5.63697	-16.9131	-250.724	5.28933	0.453461	-4.05901	-0.316843
0.4567	-1.92779	2.31317	1.4717	-1.66127	-6.54232	-210.725	2.23443	-0.163246	1.12426	-0.316843
0.4573	-0.462671	0.813893	-0.969168	-3.49293	-3.48923	-174.107	-0.209478	1.66874	1.73749	0
0.4580	-1.92779	-2.57019	-4.02025	-6.85807	-5.91231	-139.356	0.4015	-1.37852	-1.9273	0
0.4587	-1.69646	-2.57019	-1.27787	2.30022	-4.99154	-84.4298	6.80804	-0.4716	-1.62068	-0.316843
0.4593	1.07956	-0.128509	2.38344	11.7709	2.03539	-43.7892	1.93767	3.80907	0.817642	-0.316843
0.4600	0.462671	0.171346	1.77322	7.49703	6.59078	-13.2942	-10.5787	2.88401	-1.00745	0
0.4607	-1.38801	-1.02808	-0.667649	-4.71404	2.32616	17.5507	-15.4665	0.453461	-3.44578	0
0.4613	-2.23624	-2.27033	-3.10852	-12.6512	-1.64769	21.5156	-15.7632	-1.68688	-2.83254	-0.316843
0.4620	-4.08692	-0.72822	-2.1896	-7.7668	-0.436154	1.04954	-7.83798	-3.21051	1.73749	-0.633685
0.4627	-6.5545	0.471201	0.251266	-2.88238	-4.36154	-18.1921	7.73324	-3.51886	5.09566	0
0.4633	-7.17139	0.813893	0.552785	-5.32459	-6.83308	-22.7401	15.0475	-3.82721	3.8692	-0.316843
0.4640	-3.77848	0.171346	-1.88808	-5.93514	-3.78	-8.74618	11.9926	-1.37852	0.219011	-0.316843
0.4647	-0.771118	-2.57019	-4.32895	-3.49293	-5.28231	12.0114	2.23443	0.743676	-3.13916	0
0.4653	0.771118	-1.62779	-1.27787	-0.752542	-4.99154	19.0667	-6.3018	1.66874	-3.44578	0
0.4660	1.38801	1.71346	1.4717	-0.141989	-4.36154	-2.91539	-9.05993	1.66874	-2.23391	-0.316843
0.4667	1.07956	1.71346	1.163	-2.88238	-8.33539	-38.5998	-8.74572	1.97709	-2.83254	-0.316843
0.4673	-0.154224	-0.72822	-1.27787	-7.15625	-10.8069	-60.5819	-8.44896	1.05203	-4.97885	-0.316843
0.4680	-1.92779	-2.27033	-3.71873	-8.98791	-5.62154	-58.7743	-10.5787	-0.779953	-5.59209	-0.316843
0.4687	-1.38801	0.813893	-1.57938	-5.93514	4.74924	-40.7572	-15.7632	-0.4716	-3.44578	0
0.4693	2.00491	3.85528	1.77322	-1.66127	9.06232	-24.2561	-20.3543	1.66874	-0.700836	0
0.4700	1.07956	3.25557	1.163	-1.66127	7.80232	-15.1017	-17.5962	1.66874	0.511026	-0.316843
0.4707	-1.07956	-1.32793	-1.57938	-4.71404	4.45847	-9.6208	-9.05993	1.36038	-1.31407	0
0.4713	0.154224	-5.01187	-3.41003	-5.93514	1.69616	-0.758003	-11.8006	2.88401	-4.05901	0
0.4720	-3.16158	-3.1699	-3.71873	-6.85807	4.45847	11.7199	-28.2796	-0.163246	-2.83254	0
0.4727	-7.17139	0.471201	-2.4983	-5.32459	9.35309	26.705	-29.8157	-3.51886	-0.0876045	0.316843
0.4733	-1.69646	1.71346	0.861483	-0.141989	9.06232	49.8532	-21.262	1.05203	-0.39422	-0.316843
0.4740	1.69646	-1.02808	-0.969168	-1.66127	1.69616	69.7362	-21.5763	0.145108	-4.67224	-1.26737
0.4747	-1.07956	-3.1699	-0.969168	-4.71404	-2.22923	70.9607	-10.8929	-3.82721	-5.28547	-1.26737
0.4753	-1.69646	0.171346	9.40452	-4.41586	3.5377	66.9375	8.64098	-1.99523	-1.31407	0
0.4760	-2.23624	3.55543	16.1169	-7.15625	6.59078	74.9256	11.3817	-2.30358	-1.31407	0
0.4767	-2.54469	3.25557	12.7643	-5.32459	2.32616	83.147	13.5288	-5.65919	-2.54053	0
0.4773	-0.771118	3.25557	3.91257	3.52133	0.823847	73.9927	31.5265	-8.70645	-0.0876045	0
0.4780	0.771118	5.99711	-3.71873	10.5498	2.32616	53.5266	40.6912	-11.7537	1.73749	0
0.4787	-1.07956	4.75485	-7.07134	14.8095	5.67001	13.8773	28.1748	-12.3704	3.27057	-0.316843
0.4793	-1.92779	-2.87004	-4.93917	14.5113	8.72309	-54.168	11.6959	-10.2301	3.27057	-0.316843
0.4800	-1.07956	-7.15369	-1.88808	11.7709	1.11462	-98.1322	5.28933	-5.35084	3.27057	-0.316843
0.4807	-0.154224	-8.05326	-8.90917	12.0691	-15.0716	-87.7534	4.36413	3.80907	2.65734	-0.316843
0.4813	-0.154224	-9.29552	-15.0113	8.10758	-23.0193	-63.0308	0.4015	13.2592	-0.39422	-0.316843
0.4820	-0.462671	-5.01187	-10.1296	-3.49293	-19.6269	-42.5648	-4.48633	19.0635	-2.54053	0
0.4827	-3.47003	-1.62779	-7.99025	-13.2618	-14.4416	-20.9325	-7.227	12.9509	-1.9273	0.316843
0.4833	-5.01226	-1.97048	-10.1296	-11.4301	-12.3092	-2.33232	-11.5038	2.88401	-1.31407	0
0.4840	-1.07956	-4.41216	-7.99025	-4.71404	-13.5208	5.59756	-15.4665	1.66874	-2.54053	0
0.4847	3.23869	-7.45355	-0.358951	-2.88238	-13.5208	9.27095	-16.9852	1.97709	-4.36562	0
0.4853	2.6218	-3.76961	3.91257	-1.3631	-8.96539	22.3902	-13.9478	-0.4716	-2.54053	0
0.4860	-4.39537	3.25557	-6.46112	-1.66127	-2.85923	33.1189	-10.8929	-9.32316	-0.700836	0
0.4867	-4.70382	6.59682	-11.6516	-0.752542	-0.726924	38.8914	-10.2819	-15.1275	-0.39422	0
0.4873	1.69646	6.29696	-10.4311	1.68967	-3.15	42.5648	-8.74572	-12.9871	-0.700836	-0.316843
0.4880	0.154224	5.99711	-20.1946	-0.141989	-3.48923	39.4744	-9.3567	-15.1275	-2.83254	0
0.4887	-3.16158	11.1803	-29.6565	-0.141989	1.40539	33.9935	-6.61602	-15.4177	-1.62068	0
0.4893	-1.07956	14.2217	-26.3039	3.22315	4.45847	25.7721	1.93767	-5.65919	1.73749	-0.316843
0.4900	1.07956	10.2379	-7.99025	3.22315	2.95616	16.3262	7.41902	6.54798	2.0441	-0.316843
0.4907	1.69646	10.2379	8.7943	-0.752542	2.03539	8.68787	6.51128	20.2788	-0.0876045	0
0.4913	2.93025	15.7638	11.8454	-2.88238	2.32616	11.1368	7.12226	27.9151	-2.23391	0
0.4920	-1.38801	12.6796	11.5439	-1.3631	3.24693	17.5507	13.5288	12.0439	-0.700836	0
0.4927	-7.47984	2.31317	8.18408	-1.66127	5.08847	-20.641	15.0475	-2.30358	1.12426	0.316843
0.4933	-5.32071	3.85528	15.2052	-2.27183	6.59078	-92.9428	10.7881	15.3995	-0.0876045	0
0.4940	1.38801	15.1213	22.8293	-1.97365	5.67001	-111.543	6.19707	35.8416	-2.83254	0
0.4947	3.85559	18.8052	13.3745	-2.27183	4.1677	-69.4447	-0.506239	38.5986	-3.75239	0
0.4953	2.6218	3.55543	13.9847	-1.3631	4.1677	-26.1219	-6.91278	30.3456	-1.00745	-0.316843
0.4960	-1.38801	-20.8614	22.5278	0.468564	0.484616	-3.20693	-8.13474	11.1189	1.12426	0
0.4967	-7.17139	-34.9117	15.5067	0.78094	-2.85923	4.08155	-12.7258	1.97709	0.511026	0
0.4973	-7.17139	-37.6533	2.08192	-1.05072	-2.22923	-0.758003	-22.484	3.19237	-1.9273	0
0.4980	-3.77848	-28.4863	0.861483	-1.3631	0.484616	-9.03772	-22.484	-7.49118	-3.13916	0
0.4987	-2.85314	-18.1198	7.26517	-0.141989	2.32616	-4.72294	-8.13474	-10.2301	0.219011	-0.316843
0.4993	-5.32071	-20.8614	-6.46112	-2.5842	0.484616	0.758003	4.67835	-4.13557	0.817642	-0.316843
0.5000	-6.5545	-17.5201	-22.6355	-2.5842	-1.01769	3.49847	10.1772	-9.93987	-1.9273	-0.316843
0.5007	-0.154224	-2.57019	-11.6516	4.74244	-1.30846	20.8742	10.4739	-1.99523	-1.31407	-0.316843
0.5013	5.62916	0.171346	-2.1896	9.01631	-1.01769	31.5446	4.97511	37.9819	-0.700836	-0.316843
0.5020	3.54714	-9.29552	-3.41003	10.2374	0.484616	22.0987	2.84541	64.5366	0.219011	-0.316843
0.5027	-2.85314	-11.3945	1.4717	12.3815	1.40539	10.2039	5.28933	45.6182	2.35072	0
0.5033	-6.86295	-3.1699	6.04474	10.848	0.484616	-0.466463	3.45639	5.02435	1.12426	-0.633685
0.5040	-2.85314	10.8805	6.04474	11.7709	-2.22923	-8.39634	4.36413	-44.4211	-1.31407	-1.58421
0.5047	0.462671	21.8466	-0.667649	13.9007	-4.70077	-17.2591	14.4365	-95.3719	-0.39422	-0.633685
0.5053	-5.62916	15.7638	-17.1435	-1.97365	-3.15	-35.2763	11.3817	-117.047	-0.700836	0.316843
0.5060	-9.87031	-3.1699	-22.0252	-25.1605	2.03539	-43.2061	-6.91278	-85.6135	-5.8841	0
0.5067	-6.86295	-9.89523	-4.63047	-24.2517	5.37924	-23.3815	-12.1148	-25.5027	-6.19072	0
0.5073	-3.77848	-5.31172	13.3745	-10.8196	3.5377	-5.07279	-9.3567	17.5399	-4.05901	0
0.5080	-2.23624	-6.51115	20.0869	-7.46863	1.40539	-4.72294	-10.5787	29.1303	-4.67224	0.316843
0.5087	-3.16158	-5.31172	24.9686	-7.7668	2.03539	-4.4314	-9.96767	19.9704	-2.83254	0
0.5093	-5.01226	3.25557	24.6671	-5.93514	2.95616	-3.55678	-8.13474	12.6606	-0.700836	-0.316843
0.5100	-4.70382	11.78	9.103	-5.32459	2.95616	-6.58879	-9.96767	9.59524	-1.31407	-0.316843
0.5107	0.154224	5.69725	-0.358951	-3.49293	1.69616	-0.466463	-13.9478	8.37996	-2.83254	0
0.5113	4.16403	-15.0784	7.57387	-2.27183	1.69616	11.4283	-16.3742	5.02435	-2.83254	-0.316843
0.5120	-0.154224	-13.8362	10.9336	-3.19476	4.45847	12.6528	-17.2994	-16.6511	-1.00745	0
0.5127	-1.92779	5.69725	3.91257	-2.5842	6.30001	19.3582	-15.4665	-35.8778	0.219011	0
0.5133	-0.462671	11.78	-2.1896	-1.66127	4.74924	42.2732	-10.5787	-44.7294	0.219011	-0.316843
0.5140	2.00491	13.622	-3.41003	-2.88238	3.87693	62.681	-5.70828	-52.9643	-0.700836	-0.316843
0.5147	2.31335	27.0298	-6.76982	-3.49293	5.67001	76.0918	-5.70828	-54.7962	-2.23391	0
0.5153	-0.771118	34.3549	-15.3129	-4.71404	8.72309	88.9195	-3.87535	-54.7962	-1.00745	-0.316843
0.5160	-0.462671	20.947	-19.5844	-6.5457	9.64386	95.6249	4.97511	-55.3948	-0.0876045	-0.316843
0.5167	-0.771118	1.11375	-18.6726	-5.32459	9.98309	94.1089	15.0475	-45.6363	-0.0876045	-0.316843
0.5173	-0.462671	-10.4949	-18.9742	1.07912	9.64386	92.3014	26.0451	-16.0344	-0.39422	-0.316843
0.5180	2.31335	-18.4197	-23.5544	5.35299	6.59078	87.6951	36.7111	12.3523	-1.62068	-0.316843
0.5187	-3.77848	-25.7447	-32.0974	2.00205	2.61693	76.0918	44.0428	21.8024	-2.54053	0
0.5193	-11.1041	-23.303	-33.6265	-0.440166	-1.93846	65.7713	40.9879	17.5399	-3.13916	-0.316843
0.5200	-11.1041	-7.15369	-25.6937	1.68967	-4.07077	66.0628	20.8431	1.97709	-1.31407	-0.316843
0.5207	-7.47984	9.33835	-16.2318	4.74244	-4.99154	5.01448	-4.17211	-7.49118	1.12426	-0.316843
0.5213	-2.23624	10.2379	-6.1596	5.05481	-9.25616	-137.198	-17.5962	-5.96755	0.219011	0
0.5220	-4.70382	-7.7534	-1.88808	-0.752542	-12.3092	-207.401	-22.7982	-16.3427	-2.83254	-0.316843
0.5227	-9.02208	-25.145	-3.10852	-2.27183	-13.86	-174.457	-17.9104	-21.5303	-2.54053	-0.316843
0.5233	-6.24605	-19.3621	-0.0574322	1.68967	-14.7808	-134.75	-7.52376	-5.04249	0.511026	0
0.5240	-0.771118	-5.31172	1.77322	1.68967	-11.7277	-98.7736	-9.67091	12.0439	-0.0876045	-0.316843
0.5247	2.6218	-4.41216	-0.667649	-0.752542	-3.48923	-59.7073	-17.2994	20.2788	-3.44578	-0.316843
0.5253	-3.47003	-5.91143	-5.8509	-3.80531	6.59078	-32.2443	-17.9104	25.7747	-4.05901	0
0.5260	-9.25341	-1.62779	-8.29177	-5.93514	13.9085	-16.0347	-20.3543	30.9623	-2.54053	0
0.5267	-6.5545	-1.32793	-5.24069	-7.15625	15.75	-8.39634	-27.3718	23.326	-3.13916	0
0.5273	1.07956	-1.62779	0.861483	-4.41586	14.5385	-2.62385	-24.6137	9.90359	-3.13916	0
0.5280	2.31335	-0.428365	2.08192	-3.19476	14.2477	1.04954	-16.9852	1.97709	-1.00745	0
0.5287	-5.01226	-3.46976	-4.93917	-6.5457	16.0408	-5.65586	-16.3742	-5.65919	-1.9273	-0.316843
0.5293	-3.16158	-1.97048	-3.71873	-2.88238	18.5123	-11.1368	-8.13474	-1.08831	0.511026	-0.316843
0.5300	3.23869	2.31317	2.08192	4.44426	16.9616	-19.7081	7.12226	8.37996	5.40228	0
0.5307	4.47248	0.813893	-0.667649	7.7952	9.98309	-31.0198	15.6585	9.59524	5.70889	-0.316843
0.5313	2.31335	-0.72822	-4.02025	12.992	5.67001	-21.2241	23.287	7.76325	5.70889	-0.316843
0.5320	-4.39537	-1.32793	-8.29177	19.6939	6.00924	-5.07279	33.9704	4.09929	5.70889	-0.316843
0.5327	-9.25341	-6.51115	-15.9231	18.1746	-0.0969232	-12.7111	35.1923	2.26731	0.511026	0
0.5333	-8.40518	-7.45355	-10.4311	13.6026	-7.75385	-25.189	31.2297	4.09929	-1.31407	0
0.5340	-0.462671	-1.32793	6.35343	16.3429	-1.64769	-21.5156	36.4143	6.85633	2.96395	0
0.5347	6.5545	0.171346	10.0147	18.1746	6.59078	-15.4516	39.766	6.23963	2.35072	0
0.5353	3.85559	1.71346	4.8243	11.4585	1.11462	3.49847	32.7484	1.97709	1.12426	0
0.5360	-3.47003	2.61303	0.251266	-0.440166	-4.07077	24.8392	17.1947	-2.61194	0.511026	0
0.5367	-6.86295	-0.128509	-3.41003	-8.67554	-8.33539	18.1338	2.5312	-4.13557	-1.00745	-0.633685
0.5373	-0.462671	-1.02808	-0.667649	-3.49293	-17.8339	5.9474	1.3267	2.26731	0.511026	-1.58421
0.5380	7.17139	1.11375	4.52278	3.52133	-17.4946	5.59756	4.67835	10.5203	1.12426	-0.316843
0.5387	5.08938	3.25557	6.35343	-0.440166	-10.1769	9.91234	-2.65339	12.0439	-0.0876045	0.316843
0.5393	-3.47003	0.171346	-0.0574322	-9.89664	-5.62154	1.98247	-23.095	5.02435	-3.13916	0
0.5400	-5.93761	-1.32793	-4.32895	-8.37736	-2.56846	-9.03772	-31.3345	0.743676	-4.97885	-0.633685
0.5407	1.38801	2.01331	1.77322	0.468564	-6.20308	-5.65586	-21.873	7.16469	-3.75239	0
0.5413	2.31335	0.813893	2.38344	-1.97365	-16.2831	-7.52172	-17.2994	8.07161	-5.8841	0
0.5420	-3.47003	-1.02808	-2.79982	-10.209	-21.4685	-13.9356	-12.1148	0.743676	-8.33703	0
0.5427	-3.47003	0.813893	-1.27787	-12.9494	-22.0985	-4.4314	-1.43143	1.66874	-5.8841	0
0.5433	-0.154224	2.91288	3.30235	-13.2618	-25.4423	5.01448	4.36413	5.93127	-2.83254	0
0.5440	1.69646	2.01331	2.99365	-10.5072	-26.6539	1.98247	2.23443	6.23963	-2.23391	0
0.5447	2.6218	0.171346	1.4717	-5.93514	-17.8339	4.08155	-2.33917	5.93127	-1.9273	0
0.5453	-0.462671	-0.428365	-0.358951	-5.32459	-9.5954	8.68787	-8.44896	3.19237	-2.54053	0
0.5460	-5.01226	-3.76961	-4.93917	-7.46863	-7.75385	5.9474	-21.262	-0.779953	-6.19072	0
0.5467	-5.93761	-4.71201	-8.29177	-8.67554	-3.48923	5.30602	-28.8905	-3.21051	-8.03041	0
0.5473	1.07956	-1.97048	-0.969168	-5.02641	-0.726924	12.6528	-21.262	2.57566	-5.59209	-0.316843
0.5480	9.02208	-0.128509	11.2352	-0.440166	-2.85923	22.0987	-11.8006	10.5203	-3.75239	-0.316843
0.5487	2.6218	0.171346	14.5949	-2.88238	-3.15	24.5476	-12.1148	5.3327	-3.75239	0
0.5493	-2.54469	2.01331	12.4556	-4.10349	-0.726924	26.0636	-11.5038	1.66874	-1.9273	0
0.5500	2.31335	3.25557	10.625	-1.3631	1.11462	33.4104	-5.70828	5.93127	0.219011	-0.316843
0.5507	3.54714	1.4136	6.04474	-1.05072	0.823847	39.4744	-5.39407	6.23963	-1.31407	-0.316843
0.5513	4.47248	1.4136	-1.88808	-0.141989	-1.01769	45.3052	-5.39407	8.07161	-2.23391	-0.316843
0.5520	1.07956	2.61303	-7.38003	-1.05072	2.95616	47.7542	-4.17211	6.54798	-0.39422	0
0.5527	-3.77848	1.71346	-8.90917	-4.71404	9.64386	43.1478	-6.91278	-0.779953	-1.00745	0
0.5533	-3.16158	0.813893	-12.872	-4.10349	10.5646	39.8243	-7.52376	-2.92029	-1.31407	0
0.5540	3.23869	-0.428365	-9.51938	-1.05072	9.06232	43.7892	-3.26437	5.3327	-0.39422	0
0.5547	8.71363	-1.97048	0.861483	-0.440166	10.8554	48.6288	-1.11722	13.8759	-1.31407	-0.316843
0.5553	4.16403	-0.128509	4.52278	-3.19476	10.2739	45.8883	-3.56113	12.3523	-2.23391	0
0.5560	0.771118	7.49638	8.49278	-3.80531	5.67001	27.9295	-3.56113	10.5203	-1.00745	0
0.5567	4.78093	15.1213	13.9847	-2.27183	2.61693	-17.2591	-0.506239	11.1189	0.511026	-0.316843
0.5573	10.5643	18.8052	18.2563	-1.05072	-4.99154	-57.5499	0.4015	14.1843	-0.39422	-0.316843
0.5580	14.497	32.213	18.8665	1.68967	-14.4416	-66.1211	-0.506239	16.6148	-0.700836	0
0.5587	11.1812	49.3048	-7.38003	2.91078	-14.1508	-67.6371	-2.04241	11.1189	0.817642	0
0.5593	7.17139	39.2382	-48.5804	0.468564	-8.04462	-63.9638	-3.56113	3.80907	0.511026	0
0.5600	6.5545	0.813893	-62.9241	0.78094	-4.36154	-45.9466	-2.65339	6.54798	0.817642	-0.316843
0.5607	5.93761	-24.5453	-50.1024	4.13188	-6.54232	-30.6699	1.62346	26.99	2.0441	-0.316843
0.5613	0.154224	-25.4449	-29.355	4.13188	-9.5954	-23.0899	5.58609	59.9476	1.43087	-0.316843
0.5620	-4.70382	-27.8866	-4.32895	4.44426	-3.15	-25.4805	8.9552	86.1939	1.43087	0
0.5627	-5.01226	-31.2278	6.65495	5.96354	7.80232	-52.0689	9.86294	64.5366	0.511026	0
0.5633	-6.5545	-18.1198	8.18408	-0.752542	11.1946	-74.6341	4.06737	3.50072	-2.83254	0
0.5640	-4.08692	2.01331	24.3584	-8.06498	11.4854	-62.0979	-0.209478	-40.7571	-2.54053	0
0.5647	2.31335	8.43879	35.9525	-5.93514	10.8554	-35.5678	2.84541	-55.7032	0.817642	0
0.5653	-0.154224	-1.02808	22.2191	-0.752542	7.51155	-17.9005	9.86294	-59.0588	3.56258	0.316843
0.5660	-8.40518	-13.2365	-1.57938	-0.752542	3.5377	-6.88033	8.64098	-64.8631	2.35072	-0.316843
0.5667	-7.78829	-18.4197	-13.4822	-2.88238	1.40539	5.30602	1.93767	-66.0784	0.219011	-1.26737
0.5673	0.771118	-18.7195	-14.7026	-0.752542	2.61693	15.9764	4.06737	-36.1681	-0.700836	-0.950528
0.5680	5.08938	-14.1789	-13.1807	2.30022	2.03539	22.3902	6.80804	2.26731	-1.9273	0
0.5687	0.462671	-0.128509	-3.71873	2.00205	-2.22923	31.253	2.84541	15.0912	-0.700836	0
0.5693	-3.16158	12.0799	5.74322	1.39149	-9.25616	39.1829	-1.11722	19.6802	1.43087	0
0.5700	-2.23624	10.5806	5.133	0.78094	-13.23	34.9264	-5.39407	27.9151	-0.39422	0
0.5707	1.69646	-1.02808	6.65495	1.68967	-12.3092	26.9966	-8.44896	23.0358	-2.54053	0
0.5713	4.78093	-11.7372	10.3234	2.6126	-7.75385	22.7401	-4.78309	-2.61194	-2.54053	0
0.5720	-1.07956	-13.8362	6.96365	-0.752542	-1.01769	13.5857	-0.209478	-28.2416	-0.700836	-0.316843
0.5727	-7.78829	-9.89523	1.4717	-3.19476	2.61693	3.20693	0.4015	-39.832	-0.700836	0
0.5733	-4.70382	-4.06947	2.08192	-1.3631	2.61693	2.56555	2.5312	-41.3557	-0.0876045	0.316843
0.5740	1.38801	-3.46976	6.04474	1.07912	1.11462	5.30602	4.97511	-11.1551	-0.0876045	0
0.5747	2.93025	-6.85384	6.96365	0.468564	-0.726924	3.79001	3.75315	32.7943	-1.62068	0
0.5753	-0.771118	-6.85384	5.74322	-1.66127	-1.01769	3.20693	2.23443	39.1972	-1.31407	0
0.5760	-4.70382	-5.61158	1.163	-3.80531	-0.726924	-0.758003	-1.43143	17.2315	-2.23391	0.316843
0.5767	-7.78829	-2.87004	-3.10852	-4.10349	0.193846	-5.36433	-6.3018	3.19237	-3.44578	0
0.5773	-3.16158	2.61303	2.38344	-0.752542	0.823847	5.01448	-5.39407	5.02435	-1.9273	0
0.5780	4.16403	5.05471	6.96365	1.07912	1.69616	21.8071	-3.26437	0.453461	-1.62068	0
0.5787	0.462671	5.35456	-0.0574322	-3.19476	4.1677	26.705	-6.00504	-22.4373	-1.9273	0
0.5793	-4.70382	5.69725	-9.51938	-5.93514	5.37924	21.1658	-7.83798	-36.4764	-2.83254	0
0.5800	-4.08692	3.85528	-11.0413	-3.80531	4.1677	21.8071	-4.78309	-26.1012	-3.75239	0
0.5807	1.07956	-1.02808	-5.8509	0.78094	0.823847	37.6669	-1.7282	-7.49118	-2.23391	-0.316843
0.5813	4.47248	-5.91143	-4.02025	3.52133	-1.64769	53.2351	-3.87535	-1.37852	-1.31407	-0.316843
0.5820	2.6218	-1.97048	-5.8509	3.52133	-0.726924	69.3864	-6.00504	-11.7537	2.0441	0
0.5827	1.07956	3.25557	-11.0413	1.39149	-0.436154	80.115	-9.3567	-18.1747	2.96395	0
0.5833	-1.69646	7.19653	-13.4822	1.07912	1.40539	76.4416	-10.8929	-11.4635	-1.31407	0
0.5840	1.69646	15.464	-3.10852	6.5741	5.37924	72.7682	2.5312	3.80907	0.219011	-0.316843
0.5847	5.62916	13.622	5.74322	8.40576	8.43232	45.8883	11.6959	9.28688	2.0441	0
0.5853	1.69646	2.01331	-0.969168	5.35299	10.8554	-23.0899	10.1772	1.36038	0.219011	0
0.5860	-1.07956	-8.05326	-2.79982	3.22315	9.35309	-80.7564	15.0475	-0.4716	0.219011	-0.316843
0.5867	-3.16158	-12.0371	10.9336	3.52133	7.22078	-70.6692	11.9926	-4.13557	0.511026	0
0.5873	1.07956	-3.1699	19.7782	7.18465	7.22078	-21.2241	2.23443	-17.8664	1.43087	0
0.5880	6.5545	5.05471	15.2052	5.35299	5.37924	3.49847	2.23443	-23.9609	3.56258	0.316843
0.5887	1.38801	2.91288	8.49278	-5.93514	3.87693	-5.65586	5.28933	-20.0067	3.8692	0.316843
0.5893	-4.08692	-1.02808	0.552785	-12.6512	3.87693	-19.0667	2.84541	-14.5108	0.219011	0
0.5900	-2.54469	-2.57019	-3.71873	-8.06498	2.95616	-21.2241	5.58609	-7.79953	-1.31407	0
0.5907	5.32071	-1.97048	-3.10852	-4.10349	0.823847	-23.3815	12.9178	-0.163246	-0.700836	0
0.5913	10.5643	0.813893	-3.41003	-9.59846	-4.36154	-21.5156	11.6959	4.40764	-2.54053	0
0.5920	6.5545	4.45499	-4.63047	-18.4444	-11.0977	-5.07279	1.62346	4.40764	-3.13916	-0.316843
0.5927	-0.154224	2.61303	-7.38003	-21.4972	-13.86	10.4954	-7.83798	1.36038	-2.83254	0
0.5933	-2.23624	-10.7948	-7.38003	-19.0549	-13.5208	14.1688	-10.5787	2.57566	-3.44578	-0.316843
0.5940	1.07956	-23.6029	0.251266	-14.4829	-12.9392	12.6528	-6.61602	13.2592	-2.23391	-1.26737
0.5947	5.08938	-19.0194	12.7643	-9.28609	-8.67463	14.1688	2.84541	17.5399	1.12426	-1.26737
0.5953	2.00491	-5.91143	17.646	-12.3389	-2.85923	11.4283	8.34422	6.85633	1.12426	0
0.5960	-3.47003	-3.46976	11.2352	-18.1462	-1.93846	10.4954	3.14217	7.76325	-1.62068	0.316843
0.5967	0.154224	-7.15369	12.7643	-1.05072	-0.436154	19.3582	-0.820457	36.7666	-0.0876045	-0.316843
0.5973	6.24605	-5.31172	16.4256	31.6068	2.32616	-11.7782	0.715717	54.4698	2.0441	0
0.5980	4.78093	2.61303	11.5439	41.0633	2.95616	-81.9809	5.58609	34.6263	1.73749	0
0.5987	-3.16158	9.93806	4.21409	22.4485	-0.726924	-105.771	9.56617	7.47304	1.43087	0
0.5993	-8.09674	11.1803	-2.4983	6.27592	-7.75385	-75.567	10.4739	-9.93987	-0.39422	0
0.6000	-6.24605	12.6796	-5.54938	5.05481	-9.25616	-48.9786	15.0475	-12.0621	0.511026	0
0.6007	-2.23624	17.2631	-3.71873	8.40576	-6.20308	-32.8273	21.1573	10.5203	3.27057	0
0.6013	1.38801	11.4802	-3.10852	7.49703	-4.99154	-21.2241	16.2695	35.5332	2.35072	-0.316843
0.6020	-0.154224	-2.87004	-10.4311	0.170387	-4.07077	-27.3464	1.3267	33.411	-1.31407	-0.316843
0.6027	-5.01226	-11.7372	-17.1435	-2.88238	-3.48923	-38.5998	-6.3018	13.5676	-2.23391	0
0.6033	-2.85314	-15.6782	-8.90917	-1.3631	-3.15	-37.7252	-5.39407	-4.44392	-0.700836	0
0.6040	8.09674	-12.9366	5.74322	-1.05072	-3.15	-31.0198	-5.39407	-2.30358	-2.23391	0
0.6047	11.7981	-4.41216	7.57387	-3.49293	-3.15	-28.2793	-11.5038	-3.21051	-5.28547	0
0.6053	2.6218	-1.32793	-4.02025	-7.15625	-1.64769	-28.8624	-18.8181	-38.9251	-6.80395	0
0.6060	-1.38801	-5.61158	-18.3639	-7.15625	-0.726924	-24.2561	-18.2072	-57.2268	-6.19072	0
0.6067	-0.462671	-7.45355	-28.4361	-5.02641	0.823847	-14.5187	-12.4116	-39.5418	-4.05901	0
0.6073	3.23869	-7.15369	-18.3639	-1.05072	1.11462	1.04954	-4.48633	-25.5027	-1.9273	0
0.6080	6.24605	-6.85384	7.26517	1.39149	0.193846	12.9444	0.104739	-23.054	-1.31407	0
0.6087	1.07956	-1.02808	16.7271	0.468564	3.24693	15.3933	1.01248	-29.1485	0.219011	0
0.6093	-3.77848	3.25557	5.43452	-0.141989	6.93001	15.3933	1.93767	-35.8778	2.0441	0
0.6100	-5.62916	-2.27033	-4.93917	-0.141989	7.51155	15.6848	-0.506239	-35.8778	2.0441	0
0.6107	0.462671	-8.05326	1.4717	3.22315	8.14155	17.5507	4.06737	-23.6707	4.17581	0
0.6113	6.86295	-8.35311	11.2352	5.96354	10.2739	11.1368	9.56617	-6.2759	5.70889	0
0.6120	3.85559	-4.06947	19.4767	4.74244	13.6177	1.98247	2.23443	9.28688	4.48243	-0.316843
0.6127	2.6218	3.25557	29.2402	5.96354	15.1685	2.85709	-2.04241	27.2984	2.65734	-0.316843
0.6133	7.17139	14.2217	28.9386	10.2374	15.1685	8.04649	6.80804	43.1695	3.27057	-0.316843
0.6140	13.8801	20.3473	12.7643	11.4585	12.1154	5.9474	17.4914	53.5447	2.96395	0
0.6147	12.9548	15.7638	-3.10852	6.88647	6.30001	1.04954	16.8805	63.9199	-0.0876045	0
0.6153	2.93025	17.9056	-6.76982	2.91078	0.823847	-1.39939	10.1772	64.2282	-1.31407	-0.316843
0.6160	-5.32071	32.8556	-13.1807	1.68967	-4.36154	-0.466463	11.9926	47.7404	-1.62068	0
0.6167	-2.85314	37.0964	-22.3339	0.468564	-8.33539	11.1368	25.4342	38.2903	-1.62068	0
0.6173	9.33052	30.4139	-20.8048	-0.440166	-10.1769	15.3933	32.7484	34.6263	-1.62068	-0.316843
0.6180	14.497	29.4715	-10.1296	-1.3631	-7.12385	4.08155	23.898	30.0554	-1.62068	-0.316843
0.6187	5.93761	24.5881	0.552785	-3.80531	-2.22923	4.72294	4.06737	33.7012	-2.54053	0
0.6193	-2.85314	8.13893	13.3745	-3.80531	-4.70077	11.7199	-14.5413	58.1156	-4.36562	0
0.6200	-1.69646	-7.7534	29.2402	-6.5457	-8.67463	7.75495	-16.3742	89.5495	-4.97885	0
0.6207	5.62916	-19.3621	23.138	-18.4444	-8.96539	0.116616	-11.8006	63.6115	-4.97885	0
0.6213	1.69646	-26.6871	4.21409	-30.6554	-6.83308	-0.174924	-18.5214	-5.65919	-6.80395	0
0.6220	-7.78829	-24.2454	4.21409	-35.8381	-4.36154	7.75495	-25.8357	-47.4683	-5.8841	0
0.6227	-9.25341	-14.4787	5.43452	-37.9821	-4.99154	14.1688	-25.8357	-73.7146	-1.9273	0
0.6233	-4.39537	-7.45355	-1.88808	-23.0306	-6.20308	16.3262	-24.9279	-105.747	-0.0876045	0
0.6240	3.23869	-10.1951	3.91257	16.0306	-6.20308	19.9413	-24.3169	-113.075	-0.39422	-0.633685
0.6247	3.54714	-8.65297	11.8454	39.5298	-4.99154	19.3582	-21.262	-86.2302	1.43087	-1.26737
0.6253	2.6218	-7.45355	6.96365	26.1118	-3.15	14.7519	-13.6335	-51.1323	4.78904	-0.633685
0.6260	9.94742	-17.5201	4.8243	7.18465	-3.48923	7.75495	-5.0973	-46.5433	5.09566	0.316843
0.6267	11.4897	-17.82	11.8454	2.91078	-3.78	0.408155	-2.33917	-74.023	2.65734	-0.950528
0.6273	10.8728	-4.41216	10.3234	5.66537	-3.15	3.20693	-2.95015	-71.5743	0.219011	-1.26737
0.6280	12.1065	9.0385	-12.872	6.5741	-1.01769	9.56249	-2.04241	-20.6053	-0.0876045	-0.316843
0.6287	1.07956	10.2379	-31.1857	2.6126	1.11462	2.85709	-5.0973	27.6067	-1.31407	0.316843
0.6293	-14.1886	-2.87004	-21.7237	-1.05072	1.11462	-6.88033	-11.5038	41.0292	-3.44578	0
0.6300	-13.8801	-7.7534	-9.51938	2.00205	0.193846	-2.62385	-4.78309	20.5871	-0.0876045	0
0.6307	-5.01226	2.01331	-1.57938	5.96354	-1.93846	4.72294	5.28933	-0.163246	1.73749	0
0.6313	-2.54469	6.29696	11.8454	5.35299	-3.48923	14.1688	2.23443	4.716	-0.700836	0.316843
0.6320	-3.16158	8.13893	11.8454	2.91078	-1.01769	26.705	-2.95015	-3.51886	-0.700836	0.316843
0.6327	-1.07956	13.9219	4.52278	1.07912	1.69616	32.4775	-5.0973	-38.3084	-0.700836	0
0.6333	4.47248	5.99711	7.88257	3.52133	2.32616	31.8944	-5.0973	-54.7962	-0.700836	0
0.6340	7.17139	-8.35311	1.4717	6.5741	0.484616	23.9062	-3.87535	-39.2335	-0.39422	-0.316843
0.6347	3.85559	-8.05326	-10.7398	4.13188	0.193846	16.3262	-4.48633	-15.726	-0.700836	0
0.6353	-2.85314	-12.6368	-13.4822	-1.66127	2.61693	13.8773	-6.3018	4.716	-1.62068	0
0.6360	-6.24605	-20.2617	-14.0924	-2.88238	3.87693	14.7519	-5.39407	31.8692	-2.23391	0
0.6367	-0.771118	-14.1789	-10.4311	4.13188	3.87693	18.4253	3.45639	51.7127	0.511026	-0.316843
0.6373	4.47248	-17.5201	-6.1596	7.49703	3.5377	12.3613	10.7881	44.0764	0.511026	-0.316843
0.6380	4.16403	-25.145	-1.57938	5.96354	1.11462	4.08155	11.9926	33.7012	-0.700836	0
0.6387	0.462671	-16.2779	0.861483	5.05481	0.823847	1.98247	9.86294	35.243	0.817642	0
0.6393	-7.47984	-3.46976	-1.88808	2.6126	2.61693	-6.58879	4.06737	35.243	0.817642	-0.316843
0.6400	-5.93761	5.35456	4.8243	4.13188	2.61693	-27.0549	2.23443	25.158	-0.0876045	0
0.6407	2.31335	9.33835	15.5067	5.96354	2.03539	-43.4977	0.715717	-3.51886	-2.54053	0
0.6413	4.16403	8.13893	22.5278	5.66537	1.40539	-34.3433	-4.17211	-10.8468	-4.05901	-0.316843
0.6420	2.00491	9.0385	24.6671	2.91078	1.11462	-13.9356	-4.78309	12.9509	-2.54053	0
0.6427	-2.54469	13.9219	12.4556	-1.3631	1.40539	-1.69093	-4.78309	21.8024	-3.13916	0.316843
0.6433	-2.23624	16.0637	-3.10852	1.68967	-1.93846	5.59756	-2.04241	35.243	-3.44578	0
0.6440	-0.771118	9.33835	-14.0924	-5.02641	-7.41462	4.72294	4.67835	55.3767	-3.44578	-0.316843
0.6447	-1.92779	5.35456	-23.5544	-19.0549	-8.33539	-6.29725	11.9926	37.3652	-2.23391	-0.316843
0.6453	-5.62916	9.33835	-29.0463	-15.0934	-4.70077	-23.9645	14.1398	-5.65919	-0.0876045	0
0.6460	-12.0294	10.8805	-37.8981	-5.93514	-2.56846	-40.1741	7.41902	-31.9055	-0.700836	0
0.6467	-6.86295	12.0799	-39.1185	-2.5842	-1.93846	-36.5007	3.45639	-29.1485	-0.39422	0
0.6473	4.47248	7.49638	-19.5844	-1.66127	-1.30846	-22.4485	1.93767	-16.6511	-0.39422	0
0.6480	6.5545	-10.1951	-0.358951	-2.27183	-0.726924	-15.7431	-5.39407	-13.5857	-1.9273	0
0.6487	3.85559	-22.4035	3.30235	-1.66127	1.11462	-14.5187	-7.52376	-15.1275	-0.700836	0
0.6493	2.31335	-18.4197	2.99365	-0.440166	2.03539	-12.0697	-1.7282	-12.3704	1.12426	0
0.6500	2.6218	-10.4949	6.35343	0.78094	0.823847	1.34108	4.36413	-6.56612	1.73749	0
0.6507	4.16403	-2.27033	3.60387	1.07912	-1.01769	13.8773	4.97511	-1.99523	-0.0876045	0
0.6513	4.47248	0.171346	-2.79982	1.68967	-0.726924	11.1368	3.14217	6.85633	-1.62068	0
0.6520	-1.07956	-10.7948	-6.46112	0.78094	1.40539	2.56555	-0.209478	19.0635	-1.00745	0
0.6527	-6.86295	-14.7786	-7.68155	0.170387	2.95616	2.85709	-2.95015	23.6344	0.219011	0.316843
0.6533	-4.70382	-7.7534	-5.24069	1.68967	1.69616	8.68787	-2.95015	16.0162	0.817642	0
0.6540	-2.23624	-4.71201	-4.32895	-0.752542	-1.93846	4.72294	-3.26437	0.453461	-1.31407	-1.26737
0.6547	-0.771118	1.71346	-6.1596	-4.41586	-3.78	-7.52172	-2.04241	-10.8468	-2.83254	-1.26737
0.6553	-3.16158	5.69725	-12.5705	-8.67554	-1.64769	-21.5156	-6.61602	-17.558	-3.44578	-0.316843
0.6560	-7.17139	0.171346	-22.3339	-11.4301	-0.726924	-25.4805	-15.1523	-19.0816	-3.44578	0
0.6567	-1.07956	-3.1699	-24.1646	-6.24752	-2.22923	-16.9676	-13.3368	-10.5384	-1.00745	0
0.6573	4.47248	-2.27033	-20.8048	-2.27183	-3.15	-10.8453	-11.1896	-1.08831	-1.00745	0
0.6580	2.93025	1.4136	-16.5333	-0.440166	-1.93846	-4.13986	-13.3368	5.93127	-2.54053	0
0.6587	0.154224	4.15514	-0.358951	1.68967	0.193846	10.4954	-12.1148	9.28688	0.511026	0
0.6593	-2.54469	-2.87004	22.2191	1.68967	2.32616	34.285	-10.8929	7.76325	2.0441	0
0.6600	-2.85314	-9.59537	26.7993	2.00205	2.32616	57.7831	-10.2819	11.1189	0.817642	0
0.6607	-0.462671	-5.61158	15.2052	3.22315	0.193846	63.6139	-5.39407	12.9509	-1.31407	0
0.6613	3.54714	1.11375	6.96365	5.35299	-1.30846	55.684	7.12226	1.97709	-1.31407	-0.316843
0.6620	0.154224	3.85528	3.91257	6.5741	0.823847	47.7542	19.0276	-12.3704	2.65734	-0.316843
0.6627	-3.77848	4.45499	2.69213	5.35299	4.45847	46.5297	24.509	-13.5857	3.8692	-0.316843
0.6633	1.69646	3.55543	2.38344	5.05481	2.03539	54.7511	30.6187	-5.35084	0.817642	0
0.6640	4.47248	2.01331	0.552785	6.27592	-3.48923	62.681	29.0826	-1.99523	-1.62068	0
0.6647	2.00491	2.01331	0.552785	10.2374	-2.22923	67.5788	18.7134	-2.30358	-1.62068	0
0.6653	-0.771118	5.35456	2.08192	6.27592	3.5377	69.0948	13.2146	-3.51886	0.817642	0
0.6660	-1.07956	4.45499	2.08192	-6.24752	4.74924	73.3513	10.4739	-2.30358	1.43087	0
0.6667	1.38801	-5.01187	2.08192	-9.59846	3.5377	65.1299	4.36413	5.02435	1.12426	-0.316843
0.6673	1.38801	-10.7948	0.251266	-7.15625	2.03539	-31.6029	-3.26437	8.68832	-0.39422	0
0.6680	1.07956	-4.41216	-2.4983	-5.32459	-0.0969232	-152.475	-6.91278	8.68832	-1.62068	0
0.6687	-1.07956	3.85528	-3.10852	-1.05072	-0.436154	-160.405	-4.48633	16.6148	1.73749	-0.316843
0.6693	-2.23624	4.15514	-1.27787	2.30022	-1.64769	-110.96	-5.39407	25.4664	3.8692	-0.316843
0.6700	-0.462671	2.01331	-2.4983	3.22315	-3.78	-68.5118	-8.44896	16.0162	1.43087	0
0.6707	-0.771118	-3.76961	-11.6516	1.39149	-7.41462	-25.4805	-4.48633	6.54798	-1.9273	-0.316843
0.6713	0.771118	-17.2203	-10.4311	-0.440166	-11.3885	4.4314	3.14217	22.4191	-3.44578	-0.316843
0.6720	0.771118	-16.9204	7.88257	-0.440166	-7.12385	19.3582	8.03	38.2903	-1.00745	0
0.6727	-0.771118	-0.428365	15.2052	3.22315	-0.726924	22.0987	8.9552	40.7208	1.43087	0
0.6733	3.54714	12.3797	5.43452	5.35299	-1.01769	6.82202	5.28933	36.1499	1.12426	0
0.6740	5.32071	14.5216	-5.24069	-1.97365	-3.48923	-9.91234	-1.43143	17.5399	-0.700836	0
0.6747	5.08938	3.85528	-6.46112	-7.46863	-1.30846	-13.0027	-3.87535	-5.04249	-2.54053	0
0.6753	4.78093	-14.7786	-1.57938	-4.10349	2.32616	-14.2271	-1.43143	-17.2497	-0.39422	-0.316843
0.6760	-2.23624	-21.8038	-2.1896	-1.05072	2.61693	-20.2911	-1.43143	-24.5776	2.0441	0
0.6767	-5.93761	-9.59537	-6.1596	-2.27183	1.40539	-23.0899	-0.820457	-28.5499	0.511026	-0.316843
0.6773	-3.16158	7.49638	-6.46112	-4.41586	1.40539	-19.7081	-0.209478	-23.9609	-2.83254	-0.316843
0.6780	-3.77848	18.2055	0.552785	-3.80531	2.95616	-14.5187	-0.820457	-22.1289	-3.13916	-0.316843
0.6787	-7.17139	21.8466	12.1541	0.468564	2.95616	-15.7431	-1.7282	-34.9528	0.219011	0
0.6793	-5.93761	23.6886	16.4256	3.83371	0.823847	-13.5857	-1.43143	-45.6363	0.817642	0
0.6800	-1.38801	22.789	10.3234	4.74244	-0.436154	-3.20693	4.97511	-28.5499	-0.39422	-0.316843
0.6807	0.462671	6.59682	1.77322	2.30022	-1.01769	-0.174924	9.86294	-5.04249	-2.83254	-0.316843
0.6813	0.154224	-12.3369	-1.27787	-1.3631	-0.0969232	-2.91539	14.4365	-6.2759	-2.83254	0
0.6820	1.07956	-19.6619	-0.358951	-6.24752	3.5377	-2.91539	21.1573	-7.79953	0.219011	0
0.6827	5.62916	-19.3621	-0.969168	-6.24752	7.80232	-1.69093	19.6211	3.19237	1.43087	0
0.6833	8.09674	-11.7372	-3.10852	-1.97365	10.8554	-5.9474	11.0849	7.16469	0.219011	0.316843
0.6840	3.23869	-8.35311	-10.4311	-2.5842	8.43232	-15.7431	3.45639	9.90359	-3.13916	-0.950528
0.6847	0.154224	-16.2779	-15.3129	2.91078	6.00924	-16.9676	-1.11722	19.9704	-4.05901	-1.58421
0.6853	0.771118	-18.4197	-13.7909	12.3815	6.00924	-16.6761	-5.70828	24.8678	-2.23391	0
0.6860	0.771118	-11.3945	-7.68155	10.5498	2.95616	-26.4135	-12.1148	12.6606	-3.75239	0.316843
0.6867	-0.771118	-0.72822	-0.0574322	0.170387	-3.78	-26.1219	-14.2445	-8.70645	-6.19072	0
0.6873	-1.38801	6.59682	-5.24069	-18.7568	-12.9392	-8.1048	-17.5962	-26.7179	-7.72379	0
0.6880	0.462671	3.25557	-12.2618	-34.3188	-13.86	8.97941	-18.2072	-30.9805	-8.64364	-0.316843
0.6887	1.38801	-1.62779	-0.667649	-26.694	-6.20308	14.1688	-8.74572	-17.8664	-7.11056	-0.316843
0.6893	-0.462671	-0.128509	4.52278	-13.56	-1.30846	11.4283	3.14217	0.453461	-5.59209	0
0.6900	-1.69646	2.01331	-2.4983	-10.8196	0.484616	6.23894	6.51128	8.37996	-4.67224	-0.316843
0.6907	-2.54469	6.89667	10.0147	-16.3145	0.193846	4.08155	3.45639	7.76325	-6.19072	-0.316843
0.6913	-2.85314	15.7638	24.9686	-19.6655	-0.726924	10.4954	6.80804	11.1189	-5.59209	-0.316843
0.6920	-3.47003	19.4049	9.71321	-23.3288	1.11462	12.6528	8.34422	9.28688	-0.39422	-0.316843
0.6927	-2.54469	12.0799	-5.54938	-51.1019	2.61693	3.79001	-1.43143	-1.08831	2.0441	0
0.6933	0.462671	-2.27033	-5.24069	-82.8364	2.32616	-2.91539	-7.227	-9.63151	0.817642	-0.316843
0.6940	0.462671	-15.0784	-9.21068	-75.2116	2.03539	-2.91539	-8.13474	-22.1289	-0.39422	-0.316843
0.6947	1.38801	-19.3621	-15.3129	-35.8381	3.24693	5.59756	-8.74572	-36.4764	0.817642	0
0.6953	4.16403	-13.8362	-18.3639	20.6168	4.74924	24.5476	-6.3018	-42.2807	5.70889	0
0.6960	3.54714	-3.46976	-13.7909	64.5624	4.1677	41.6318	-6.61602	-26.4096	8.14722	0
0.6967	-1.38801	2.31317	6.96365	65.173	2.32616	52.3022	-7.227	-1.37852	6.32212	0
0.6973	-6.5545	-1.62779	25.5789	38.621	-0.0969232	57.2	-8.13474	-2.61194	2.65734	-0.316843
0.6980	-8.71363	-2.27033	23.4395	17.5641	-1.01769	60.8734	-10.2819	-11.1551	1.43087	-0.316843
0.6987	-7.47984	8.43879	13.3745	7.49703	-1.30846	73.3513	-7.52376	-9.32316	2.65734	0
0.6993	-2.85314	7.19653	7.26517	2.00205	-2.56846	93.5258	-2.95015	-9.63151	2.65734	0
0.7000	0.462671	-4.71201	3.60387	13.6026	-2.22923	108.453	-3.87535	3.19237	2.65734	0
0.7007	-1.69646	-5.31172	4.52278	31.905	-4.07077	116.091	-7.227	24.5595	1.12426	0
0.7013	-3.77848	-2.27033	8.18408	30.0733	-8.67463	121.28	-1.7282	30.3456	-0.39422	0
0.7020	-2.23624	-5.31172	9.40452	18.7852	-6.54232	111.543	10.1772	34.6263	0.817642	0
0.7027	-1.92779	-5.61158	7.26517	14.5113	-0.726924	77.6661	19.6211	34.9346	1.73749	0
0.7033	-3.16158	-1.02808	6.04474	12.6796	-0.0969232	40.1158	21.4541	22.1108	1.43087	0
0.7040	-5.01226	-0.128509	-0.0574322	6.88647	-2.85923	20.8742	9.86294	14.4745	-1.62068	0
0.7047	-5.01226	0.171346	-8.90917	0.468564	-1.64769	10.4954	-4.48633	14.4745	-3.75239	0
0.7053	-2.54469	1.71346	-5.8509	-1.97365	0.484616	-26.1219	-13.6335	13.8759	-2.83254	0
0.7060	-1.38801	0.471201	0.552785	-0.141989	0.823847	-74.6341	-19.1323	12.9509	-1.9273	0
0.7067	-1.38801	-2.27033	-4.32895	2.00205	-1.01769	-114.633	-17.5962	10.8287	-1.31407	-0.316843
0.7073	-3.16158	-6.51115	-13.7909	-0.752542	-4.07077	-159.764	-16.3742	5.3327	-2.54053	0
0.7080	-3.16158	-5.91143	-14.7026	-1.97365	-4.36154	-163.437	-13.6335	9.28688	-3.44578	0
0.7087	-0.771118	0.813893	-10.1296	2.6126	0.484616	-118.598	-4.78309	18.7552	-0.0876045	-0.316843
0.7093	0.771118	2.91288	-8.90917	8.71813	10.5646	-95.3917	1.3267	15.7079	2.35072	0
0.7100	1.38801	0.171346	-8.29177	13.9007	20.3539	-97.1992	4.97511	6.23963	2.35072	0
0.7107	-1.92779	-2.57019	-5.8509	14.5113	17.8823	-88.6863	8.9552	-2.61194	0.511026	-0.316843
0.7113	-4.39537	1.71346	0.552785	16.6411	11.7762	-64.8967	19.9353	-6.87447	1.73749	-0.316843
0.7120	-3.47003	9.33835	5.133	20.3044	11.4854	-38.0167	31.5265	-4.73413	5.09566	-0.316843
0.7127	-1.07956	10.8805	6.35343	19.6939	11.1946	-21.8655	27.2671	-0.4716	5.70889	-0.316843
0.7133	0.462671	9.33835	8.18408	13.6026	8.72309	-24.6059	17.1947	1.05203	2.96395	-0.316843
0.7140	-2.54469	9.33835	5.74322	0.78094	3.5377	-33.7603	11.3817	0.145108	-0.700836	-1.26737
0.7147	-1.92779	8.13893	7.26517	-5.63697	-2.85923	-32.8273	9.25196	10.2119	-0.39422	-1.26737
0.7153	0.462671	-6.21129	15.8154	-6.5457	-8.33539	-27.3464	7.41902	26.3914	3.27057	0
0.7160	-1.38801	-23.0032	20.9986	-10.209	-11.3885	-22.157	-4.78309	36.7666	3.56258	0
0.7167	-0.771118	-20.5615	21.9176	-5.93514	-11.3885	-21.5156	-18.8181	47.1418	0.219011	-0.316843
0.7173	-0.771118	-11.3945	13.676	-1.66127	-18.1246	-28.8624	-21.5763	42.2626	-3.44578	-0.316843
0.7180	-3.47003	-0.128509	-6.76982	-2.88238	-28.2046	-27.3464	-18.2072	14.7828	-4.67224	0
0.7187	-2.54469	12.3797	-22.0252	-0.440166	-29.707	-9.32926	-16.6884	-2.30358	-4.05901	-0.316843
0.7193	-0.771118	9.93806	-18.6726	2.30022	-22.68	3.79001	-18.8181	1.97709	-4.36562	-0.316843
0.7200	-0.154224	0.813893	-11.9602	1.68967	-12.3092	5.30602	-22.7982	9.59524	-6.19072	-0.316843
0.7207	-2.85314	-0.128509	-14.7026	-6.24752	-6.54232	0.408155	-26.7608	6.23963	-8.33703	-0.316843
0.7213	-4.70382	1.11375	-14.0924	-12.9494	-2.85923	-9.6208	-24.9279	-3.51886	-7.41718	-0.316843
0.7220	-2.23624	1.11375	-2.1896	-11.1177	2.03539	-18.7751	-14.8555	-10.5384	-2.83254	0
0.7227	-0.462671	5.69725	4.21409	-6.85807	1.69616	-23.0899	-7.227	-18.1747	-1.62068	0
0.7233	-1.07956	10.5806	1.77322	-5.02641	-0.436154	-22.4485	-7.52376	-24.8859	-2.23391	0
0.7240	-3.16158	8.13893	-1.27787	-5.32459	0.193846	-20.641	-10.2819	-20.9136	-3.13916	0
0.7247	-4.70382	5.35456	-2.4983	-3.19476	3.24693	-11.1368	-7.227	4.09929	-1.9273	0
0.7253	-3.16158	2.91288	-2.1896	1.68967	8.14155	8.39634	1.01248	30.654	2.35072	-0.316843
0.7260	-0.462671	-8.05326	-7.38003	3.83371	9.35309	21.1658	5.28933	27.9151	4.78904	0
0.7267	1.69646	-17.5201	-15.6215	4.13188	7.51155	23.6147	5.9003	-2.61194	3.56258	-0.316843
0.7273	0.154224	-10.7948	-18.0624	2.30022	5.67001	22.3902	4.06737	-38.6168	0.219011	-0.316843
0.7280	-1.69646	1.11375	-15.9231	2.00205	4.74924	26.3552	4.97511	-49.6087	-0.700836	-0.316843
0.7287	-0.462671	2.01331	-11.6516	-0.440166	2.61693	34.6349	10.4739	-34.6444	1.43087	0
0.7293	1.07956	-0.128509	-2.79982	-11.1177	-1.01769	45.8883	14.1398	-23.3623	3.27057	0.316843
0.7300	0.771118	2.31317	2.69213	-14.7811	-1.93846	65.1299	17.8057	-17.8664	3.8692	0.316843
0.7307	-1.07956	2.31317	-3.71873	-5.32459	-1.64769	72.4767	20.2321	-10.8468	2.35072	-0.316843
0.7313	0.154224	3.85528	-7.38003	3.83371	-0.436154	66.9375	15.3617	-1.08831	1.43087	-0.316843
0.7320	2.00491	5.35456	-3.41003	7.18465	2.03539	51.0777	8.9552	11.4272	1.73749	0
0.7327	-0.154224	3.55543	-5.24069	6.5741	1.69616	-1.69093	3.14217	13.8759	0.511026	0
0.7333	-4.70382	4.75485	-4.02025	2.91078	-1.64769	-77.083	-5.70828	4.40764	-2.83254	-0.316843
0.7340	-10.1788	7.49638	4.8243	-0.752542	-7.12385	-105.771	-12.4116	-5.04249	-6.49733	-0.316843
0.7347	-9.56186	9.33835	10.3234	2.91078	-8.96539	-69.7362	-13.3368	-5.96755	-7.41718	0
0.7353	-4.08692	9.63821	12.1541	7.7952	-4.99154	-23.9645	-13.3368	4.716	-4.97885	0.316843
0.7360	-1.69646	4.15514	9.71321	4.74244	-3.48923	-0.758003	-8.44896	19.0635	-1.9273	0
0.7367	-1.69646	-6.21129	2.99365	-4.41586	-7.41462	8.04649	-1.11722	18.4468	-2.23391	-0.950528
0.7373	-3.16158	-13.8362	-3.10852	-12.9494	-8.67463	8.39634	-1.7282	5.93127	-4.36562	-0.950528
0.7380	-2.23624	-10.4949	0.552785	-26.3816	-4.07077	5.01448	-3.87535	-1.99523	-4.36562	0
0.7387	1.69646	0.171346	12.4556	-44.3858	0.484616	6.53048	-2.04241	-4.13557	-1.9273	0
0.7393	1.69646	7.79624	19.7782	-47.1404	1.40539	7.75495	-2.33917	0.743676	-0.39422	-0.316843
0.7400	0.154224	7.49638	22.5278	-36.1504	0.193846	4.4314	-6.00504	13.5676	-1.9273	0.316843
0.7407	0.462671	4.15514	25.2773	-17.8338	-0.0969232	3.79001	-9.96767	30.654	-4.67224	-0.316843
0.7413	0.462671	1.11375	22.5278	7.49703	0.484616	9.27095	-8.74572	49.2822	-2.83254	-0.316843
0.7420	0.771118	-5.01187	7.57387	12.3815	1.40539	14.4604	-4.78309	63.6115	-0.39422	-0.316843
0.7427	-1.07956	-10.4949	-13.7909	-24.8623	1.40539	12.9444	-3.26437	67.8922	-2.23391	-0.316843
0.7433	-4.39537	-8.35311	-22.0252	-52.6212	0.484616	7.46341	-3.87535	60.2559	-4.05901	0
0.7440	-6.86295	-4.06947	-18.3639	-16.0022	-1.01769	2.27401	-5.39407	26.3914	-3.44578	-0.633685
0.7447	-5.93761	-0.128509	-15.3129	34.9577	-0.726924	2.27401	-4.17211	-11.1551	-0.700836	-1.26737
0.7453	-0.771118	5.05471	-10.1296	54.4954	1.40539	6.23894	0.104739	-18.1747	1.73749	-0.633685
0.7460	1.07956	5.99711	-5.8509	59.3657	2.32616	7.46341	1.93767	-21.222	1.73749	0
0.7467	-1.38801	7.19653	-8.90917	46.8564	1.69616	4.08155	0.104739	-46.5433	0.511026	-0.316843
0.7473	-3.77848	15.7638	-14.0924	21.5255	0.484616	0.116616	-3.26437	-67.3118	-1.00745	0
0.7480	-2.54469	21.5468	-10.4311	-1.05072	1.11462	-1.10785	-2.65339	-58.7504	0.219011	0
0.7487	2.6218	14.8214	1.163	-40.1119	2.95616	0.758003	1.3267	-37.0931	4.48243	0
0.7493	3.85559	1.11375	8.18408	-62.7024	3.5377	2.27401	2.84541	-20.3151	4.48243	0
0.7500	-0.154224	-2.87004	14.5949	-17.5357	3.24693	2.56555	0.715717	-16.0344	1.43087	0
0.7507	-5.32071	8.43879	15.8154	29.1646	1.40539	1.63262	-3.56113	-20.3151	-1.31407	0
0.7513	-6.24605	10.5806	10.625	21.2274	1.40539	2.56555	-4.78309	-12.3704	-1.62068	0
0.7520	-2.54469	-7.15369	10.0147	13.2902	3.5377	5.30602	-2.65339	-0.779953	1.43087	0
0.7527	-1.38801	-15.978	5.74322	26.1118	3.87693	5.01448	-2.65339	-7.49118	4.17581	-0.316843
0.7533	-4.39537	-4.71201	-3.10852	32.5155	2.61693	1.63262	-7.83798	-22.7456	3.56258	-0.316843
0.7540	-7.78829	5.99711	-12.872	36.477	1.40539	-1.98247	-14.5413	-27.9332	0.219011	0
0.7547	-6.5545	1.4136	-22.3339	34.3472	2.32616	-2.62385	-15.7632	-14.5108	-0.39422	0
0.7553	-2.23624	-13.8362	-25.9952	1.07912	4.1677	-3.55678	-13.3368	-5.65919	2.0441	0
0.7560	-1.07956	-21.4611	-23.2457	-36.4486	3.87693	-6.88033	-10.5787	-15.1275	2.96395	0
0.7567	-0.154224	-17.5201	-17.4522	-34.9293	2.95616	-3.55678	-7.52376	-20.9136	2.0441	0
0.7573	-1.69646	-6.21129	-12.872	-17.5357	1.40539	6.53048	-6.91278	-22.7456	-0.39422	0
0.7580	-3.77848	5.69725	-1.27787	-7.15625	2.03539	9.27095	-2.65339	-20.9136	-0.0876045	-0.316843
0.7587	-0.771118	8.73864	8.49278	13.6026	5.08847	-0.174924	8.34422	1.97709	4.48243	0
0.7593	0.462671	6.29696	-0.667649	41.6738	7.22078	-11.1368	19.3244	35.5332	6.92075	0
0.7600	-2.23624	7.19653	-15.9231	37.0876	7.51155	-22.7401	26.6561	52.6378	4.78904	0
0.7607	-4.08692	9.33835	-24.7748	9.93924	5.08847	-30.0869	30.0078	36.4583	1.73749	0
0.7613	-4.08692	14.2217	-22.9442	9.32868	3.24693	-16.9676	29.3968	5.02435	2.35072	0
0.7620	-2.85314	23.3887	-11.9602	12.6796	2.61693	2.27401	26.9529	-8.70645	4.48243	0
0.7627	1.38801	27.0298	-2.79982	-0.440166	-0.0969232	9.91234	25.7309	-7.79953	5.70889	0
0.7633	3.54714	18.5054	0.861483	-12.6512	-3.15	13.5857	18.1024	-4.44392	2.96395	0.316843
0.7640	-1.69646	-6.85384	10.3234	-27.3045	-5.28231	15.3933	2.84541	-0.779953	-3.44578	0
0.7647	-3.77848	-34.0122	26.7993	-36.4486	-4.70077	12.6528	-1.43143	5.64106	-4.67224	-0.316843
0.7653	0.154224	-35.5114	33.5117	-26.694	-1.93846	11.4283	4.67835	25.7747	-0.0876045	0
0.7660	2.6218	-9.89523	23.7482	-15.0934	-0.0969232	12.9444	7.41902	45.3098	2.0441	0.316843
0.7667	2.31335	5.69725	10.3234	-16.9251	0.823847	12.9444	2.5312	31.579	-0.0876045	0.316843
0.7673	0.771118	-3.1699	3.30235	-25.1605	-0.436154	12.0114	-5.70828	-7.49118	-3.75239	0.316843
0.7680	0.154224	-12.6368	2.69213	-28.2132	-2.22923	13.8773	-7.52376	-27.3346	-3.75239	0
0.7687	0.154224	-18.1198	4.21409	-25.4728	-2.22923	18.1338	-1.7282	-10.2301	-0.700836	0
0.7693	-0.154224	-18.7195	3.30235	-30.9536	-1.64769	20.2911	3.14217	15.7079	0.817642	-0.316843
0.7700	-1.07956	-15.3783	1.163	-38.8908	-1.64769	17.8422	3.45639	24.8678	-0.39422	-0.316843
0.7707	-2.54469	-18.1198	-0.0574322	-13.56	-1.93846	14.4604	1.01248	16.0162	-1.9273	0
0.7713	-2.85314	-17.82	0.552785	29.7751	-0.726924	16.9093	0.104739	-0.163246	0.511026	0
0.7720	-2.23624	-8.95282	7.26517	41.3614	1.69616	20.8742	-0.820457	-4.13557	4.48243	-0.316843
0.7727	-1.38801	-1.62779	16.4256	28.8522	3.5377	20.2911	-5.70828	-1.08831	5.09566	0
0.7733	-1.38801	1.4136	17.0358	12.0691	2.95616	13.2359	-10.2819	-16.6511	2.0441	0
0.7740	-2.23624	-0.128509	8.18408	-3.80531	1.11462	4.4314	-13.0226	-40.4487	-0.700836	-1.26737
0.7747	-1.38801	-0.428365	2.99365	-2.5842	0.484616	6.53048	-13.3368	-38.3084	0.511026	-0.633685
0.7753	0.154224	1.4136	-2.4983	10.848	1.69616	12.3613	-7.52376	-15.726	3.8692	0.316843
0.7760	-0.154224	-1.97048	-9.8209	15.7324	2.95616	6.82202	1.3267	0.145108	5.70889	0
0.7767	0.462671	-8.35311	-10.1296	12.6796	3.24693	1.98247	4.67835	5.3327	6.01551	-0.316843
0.7773	-2.23624	-10.7948	-15.9231	8.40576	1.40539	10.2039	0.715717	-1.68688	3.8692	-0.316843
0.7780	-5.62916	-6.51115	-18.3639	7.7952	2.03539	26.0636	0.4015	-13.2955	2.65734	0
0.7787	-3.47003	-0.428365	-4.93917	9.62686	8.43232	37.9584	10.1772	-6.87447	5.09566	0
0.7793	-1.92779	4.75485	4.8243	9.01631	11.1946	45.0137	27.5638	1.97709	6.01551	0
0.7800	-2.23624	9.63821	3.60387	9.01631	4.45847	48.3372	39.766	-14.2024	4.78904	0
0.7807	-3.77848	9.33835	0.552785	7.7952	-3.15	42.8563	32.4517	-32.8125	2.35072	0
0.7813	-3.47003	7.79624	0.552785	5.96354	-3.48923	41.0488	22.676	-27.0263	0.817642	0
0.7820	-1.07956	7.49638	2.69213	5.35299	-2.56846	42.5648	17.8057	-12.9871	0.817642	0
0.7827	-0.154224	5.99711	1.4717	2.6126	-3.48923	19.0667	0.715717	-7.49118	-1.31407	0
0.7833	-0.462671	4.45499	-0.969168	-1.66127	-4.07077	-27.6379	-19.1323	-5.35084	-4.05901	0
0.7840	-3.16158	1.4136	-3.71873	-6.24752	-4.99154	-73.4096	-24.0027	-6.87447	-5.8841	0
0.7847	-3.47003	0.813893	-1.88808	-3.80531	-5.62154	-90.7854	-14.2445	-6.2759	-4.05901	0
0.7853	-0.462671	3.85528	1.77322	1.68967	-7.12385	-70.6692	-3.56113	-0.779953	-0.0876045	0
0.7860	-0.462671	4.75485	2.08192	-0.141989	-8.33539	-45.9466	-3.87535	1.36038	0.511026	0.316843
0.7867	-2.54469	3.85528	0.251266	-2.27183	-7.41462	-42.5648	-11.5038	-0.163246	-1.31407	0.316843
0.7873	-4.08692	2.31317	-1.57938	-1.05072	-9.5954	-41.9817	-16.0775	-1.37852	-2.83254	0
0.7880	-2.85314	5.99711	0.552785	3.83371	-11.0977	-28.2793	-11.8006	1.97709	-0.39422	0
0.7887	-0.462671	13.3221	4.52278	6.88647	-5.28231	-16.0347	-4.17211	5.02435	2.65734	0.316843
0.7893	-0.462671	18.8052	6.04474	3.83371	1.40539	-9.91234	-2.33917	4.716	2.65734	0.316843
0.7900	-2.23624	18.2055	2.38344	-3.80531	2.03539	-6.88033	-6.00504	4.40764	-0.0876045	-0.316843
0.7907	-5.32071	13.0223	-4.63047	-10.209	3.24693	-10.8453	-8.13474	3.19237	-4.05901	0
0.7913	-3.16158	13.3221	-0.667649	-6.5457	7.22078	-3.20693	-3.26437	-1.08831	-3.13916	0.316843
0.7920	1.07956	8.43879	14.2863	-0.141989	9.64386	20.8742	3.14217	-5.35084	0.219011	0
0.7927	0.154224	-4.71201	27.108	0.468564	11.4854	39.1829	6.19707	-1.37852	0.219011	0
0.7933	-1.92779	-12.9366	30.7693	-1.05072	11.7762	45.8883	6.80804	0.145108	-1.62068	-0.316843
0.7940	-2.23624	-19.6619	23.138	-1.3631	8.43232	48.9786	5.9003	-2.61194	-2.83254	0
0.7947	-0.154224	-21.4611	17.646	2.00205	6.00924	55.0426	5.9003	8.99667	-0.700836	0.316843
0.7953	3.85559	-13.5363	15.5067	4.13188	7.22078	66.3544	8.34422	22.1108	0.511026	0
0.7960	4.78093	-2.57019	-3.41003	2.00205	8.43232	78.2492	12.6036	19.0635	-0.700836	0
0.7967	0.771118	6.29696	-26.6055	-0.141989	7.80232	84.9546	10.1772	6.23963	-1.31407	0
0.7973	-1.92779	9.0385	-31.4872	-1.66127	4.74924	83.7301	-3.56113	-7.79953	-2.83254	0
0.7980	-0.154224	10.5806	-28.4361	0.170387	2.03539	84.663	-8.13474	-17.8664	-1.62068	0
0.7987	2.6218	11.4802	-16.842	1.39149	-1.01769	75.5087	4.67835	-8.3981	3.27057	0
0.7993	2.6218	5.69725	1.163	-4.41586	-5.62154	-21.2241	10.4739	25.158	2.65734	0.316843
0.8000	0.462671	-2.57019	3.60387	-11.7283	-8.04462	-171.075	4.06737	41.9542	-3.44578	0
0.8007	-3.16158	-7.15369	-3.71873	-13.56	-8.67463	-208.626	-2.33917	11.7356	-5.59209	0
0.8013	-3.16158	-6.21129	-4.93917	-7.46863	-9.88616	-146.061	-9.67091	-24.8859	-2.83254	0
0.8020	-1.69646	-0.72822	-3.71873	1.68967	-13.86	-90.2023	-16.6884	-35.2611	0.817642	-0.316843
0.8027	-1.69646	5.35456	-4.02025	4.44426	-15.9923	-47.1711	-19.1323	-33.4292	2.65734	-0.316843
0.8033	-0.771118	2.61303	3.30235	1.07912	-11.7277	-13.5857	-18.5214	-19.6984	0.817642	-0.316843
0.8040	-2.23624	-8.65297	6.96365	-1.3631	-6.83308	3.49847	-18.2072	2.57566	-2.54053	-0.950528
0.8047	-4.08692	-6.51115	-5.24069	0.170387	-2.85923	13.2359	-16.3742	9.59524	-1.31407	-1.26737
0.8053	-2.85314	9.0385	-15.6215	0.170387	1.11462	18.4253	-12.4116	5.02435	1.43087	-0.316843
0.8060	-3.16158	14.8214	-21.7237	-3.19476	1.69616	19.9413	-9.67091	1.97709	0.817642	0.316843
0.8067	-3.47003	5.35456	-30.2668	-5.02641	0.823847	20.5827	-6.91278	-2.92029	-0.39422	0
0.8073	-4.08692	-5.01187	-26.6055	-5.93514	-0.0969232	17.8422	-4.17211	-4.73413	-2.23391	0.316843
0.8080	-4.08692	-5.91143	-0.667649	-3.80531	-0.436154	17.5507	1.93767	2.88401	-1.31407	0
0.8087	-3.77848	-4.41216	23.4395	0.468564	1.11462	24.2561	9.56617	-1.99523	2.0441	-0.316843
0.8093	-3.77848	-8.95282	27.4095	2.6126	1.69616	29.4455	12.3068	-19.0816	3.56258	0
0.8100	-1.69646	-11.7372	20.3884	1.39149	-0.0969232	33.4104	11.9926	-17.2497	2.0441	0
0.8107	-2.85314	-9.89523	12.4556	-4.71404	-4.07077	39.4744	7.12226	-7.18282	-3.13916	0
0.8113	-3.16158	-7.45355	6.65495	-7.7668	-4.70077	21.8071	1.93767	-1.37852	-4.67224	0
0.8120	0.462671	-5.01187	-4.93917	-5.93514	-1.30846	-28.8624	2.23443	10.8287	-1.62068	0
0.8127	0.771118	-1.02808	-10.7398	-3.80531	0.193846	-67.9287	7.73324	17.2315	0.511026	0.316843
0.8133	-0.771118	4.15514	-6.76982	-1.97365	-2.56846	-76.7915	11.0849	11.7356	0.817642	0
0.8140	-2.23624	2.91288	-9.51938	-2.5842	-5.91231	-69.1532	5.58609	8.07161	-1.31407	0
0.8147	-2.85314	-1.97048	-11.6516	-1.66127	-3.15	-44.4306	-4.17211	12.0439	-1.62068	0.316843
0.8153	-0.462671	-2.87004	-8.60047	0.468564	1.40539	-14.2271	-10.2819	16.0162	-0.0876045	0
0.8160	0.462671	-1.97048	-7.68155	0.468564	1.40539	8.68787	-7.52376	15.7079	0.219011	0
0.8167	-1.38801	-1.32793	-4.93917	-2.27183	-0.0969232	19.6498	-5.0973	10.8287	-1.00745	0
0.8173	-3.47003	-1.97048	-3.71873	-5.63697	-1.01769	15.1017	-7.83798	6.23963	-3.44578	0
0.8180	-2.23624	-0.72822	-3.10852	-3.49293	-0.0969232	5.01448	-6.3018	7.76325	-2.23391	0
0.8187	-0.462671	1.4136	-0.667649	1.68967	1.11462	4.08155	-0.506239	10.8287	1.12426	0
0.8193	-0.771118	1.4136	-0.0574322	3.22315	0.484616	11.7199	0.4015	10.8287	2.35072	0
0.8200	-0.771118	-0.428365	-2.1896	-0.440166	-0.436154	11.1368	-3.87535	8.07161	0.219011	0
0.8207	-1.92779	-2.27033	-5.24069	-4.41586	-0.726924	2.56555	-7.52376	5.3327	-2.83254	-0.316843
0.8213	-1.69646	-1.62779	-3.71873	-4.10349	0.193846	3.20693	-6.61602	6.23963	-2.83254	-0.316843
0.8220	1.07956	1.11375	0.861483	-1.3631	1.69616	8.04649	-2.95015	8.68832	0.219011	0
0.8227	1.38801	5.05471	2.08192	0.170387	2.61693	8.68787	-0.506239	8.37996	1.73749	0.316843
0.8233	-0.462671	8.43879	-2.1896	-1.66127	2.32616	-6.88033	-1.7282	5.02435	-0.0876045	0
0.8240	-1.92779	5.99711	-7.07134	-4.71404	1.69616	-56.617	-5.0973	0.743676	-2.54053	0
0.8247	-0.771118	3.85528	-4.32895	-3.80531	2.32616	-98.7736	-3.56113	0.145108	-1.62068	0
0.8253	2.00491	4.15514	-0.667649	-1.05072	3.87693	-85.596	0.715717	3.80907	1.12426	0
0.8260	2.93025	-1.62779	-9.51938	-0.752542	4.45847	-49.9116	1.01248	8.99667	2.0441	0.316843
0.8267	2.31335	-5.61158	-17.7537	-2.88238	2.61693	-27.0549	-3.56113	9.59524	-0.0876045	0
0.8273	-1.69646	-3.76961	-10.4311	-6.85807	-0.436154	-17.9005	-8.74572	3.80907	-2.83254	0
0.8280	-4.08692	-0.428365	5.133	-5.93514	0.484616	-11.1368	-7.83798	0.453461	-1.9273	0
0.8287	-0.462671	2.91288	13.0658	-1.05072	4.1677	0.116616	-2.04241	2.88401	2.0441	0
0.8293	0.771118	3.25557	11.8454	-1.05072	4.45847	7.46341	-2.04241	5.02435	2.65734	-0.316843
0.8300	-0.771118	-0.428365	10.3234	-3.19476	2.61693	7.75495	-8.74572	4.09929	0.219011	-0.316843
0.8307	-1.07956	-4.71201	10.9336	-1.66127	2.03539	5.9474	-15.1523	3.50072	-1.9273	-0.316843
0.8313	-1.38801	-3.1699	10.9336	3.52133	5.08847	5.9474	-15.4665	7.76325	-0.700836	0
0.8320	-1.38801	3.55543	10.3234	5.96354	7.80232	8.68787	-10.5787	10.5203	1.73749	-0.316843
0.8327	-0.771118	2.61303	11.2352	2.00205	6.93001	4.08155	-1.43143	5.64106	2.0441	0
0.8333	-1.07956	-3.76961	8.18408	-1.05072	3.87693	-14.8102	12.6036	0.453461	1.12426	-0.316843
0.8340	-2.85314	-6.51115	-4.02025	0.170387	-0.0969232	-34.9847	24.2122	-7.79953	0.511026	-1.26737
0.8347	-0.771118	-5.31172	-11.6516	6.27592	-1.93846	-31.6029	32.7484	-20.9136	3.56258	-0.950528
0.8353	2.31335	-2.27033	-3.10852	12.6796	-1.01769	-16.3262	36.1175	-24.8859	5.70889	0
0.8360	3.85559	-0.428365	10.0147	10.2374	-0.726924	-7.17187	26.6561	-5.96755	1.73749	0
0.8367	3.23869	-3.1699	9.103	2.00205	-2.22923	0.116616	14.1398	23.6344	-2.54053	0
0.8373	0.462671	-8.95282	0.861483	-7.7668	-4.07077	6.23894	3.75315	26.3914	-4.36562	0.316843
0.8380	-0.154224	-9.89523	9.71321	-12.6512	-3.48923	18.1338	-3.26437	4.09929	-2.54053	0
0.8387	0.154224	-5.61158	19.168	-8.06498	-0.726924	31.5446	-4.78309	-9.32316	-0.39422	0
0.8393	-1.07956	2.31317	-4.93917	4.13188	1.11462	31.253	-2.65339	-7.18282	-0.700836	0
0.8400	-2.85314	13.0223	-42.1696	6.27592	-0.0969232	20.8742	0.4015	-1.08831	-1.62068	0
0.8407	-3.77848	17.2631	-48.2717	-5.02641	-5.91231	11.7199	0.4015	1.66874	-2.54053	-0.316843
0.8413	3.23869	16.6634	-33.0163	-6.85807	-8.04462	7.17187	0.104739	12.9509	0.219011	0
0.8420	12.1065	11.1803	-25.0835	4.13188	-5.28231	3.79001	1.01248	28.5136	4.17581	0.316843
0.8427	11.1812	-0.72822	-21.415	20.6168	-2.85923	3.79001	0.715717	23.0358	5.40228	0
0.8433	3.23869	-13.2365	-8.60047	21.2274	-2.22923	5.59756	-2.04241	-0.163246	2.96395	0
0.8440	-5.32071	-14.7786	6.65495	-0.141989	-2.56846	4.08155	-5.39407	-9.93987	-1.31407	0
0.8447	-9.02208	2.01331	9.71321	-6.5457	-0.0969232	3.49847	-2.95015	-8.10789	-1.9273	0
0.8453	-8.71363	15.464	5.133	5.96354	1.69616	5.01448	-0.506239	-21.5303	0.511026	0
0.8460	-5.62916	13.622	5.74322	13.2902	2.32616	5.9474	-1.11722	-26.4096	1.12426	-0.316843
0.8467	-3.77848	5.69725	8.49278	11.7709	2.61693	4.08155	-2.65339	-8.10789	-0.700836	0
0.8473	-3.77848	-4.71201	10.0147	6.27592	3.24693	3.49847	-6.3018	6.23963	-3.13916	-0.316843
0.8480	-1.92779	-9.29552	15.2052	5.35299	4.45847	8.39634	-8.13474	11.4272	-1.62068	-0.316843
0.8487	-0.771118	-5.31172	17.9476	11.1603	6.59078	12.3613	-6.3018	11.7356	1.12426	0
0.8493	-0.771118	-1.62779	15.5067	13.9007	8.43232	13.5857	-6.00504	6.85633	1.73749	0
0.8500	-1.92779	-1.97048	16.7271	12.0691	7.80232	16.6177	-8.44896	2.26731	0.817642	0
0.8507	-4.39537	-5.01187	18.8665	12.6796	6.59078	20.2911	-12.1148	-3.82721	-0.39422	0.316843
0.8513	-4.39537	-5.61158	10.0147	10.2374	7.80232	25.1307	-10.5787	-12.0621	0.817642	0.316843
0.8520	-2.23624	2.61303	-5.24069	-8.06498	10.5646	27.5796	-2.04241	-16.0344	4.48243	0
0.8527	-1.07956	14.8214	-13.4822	-30.6554	10.8554	24.8392	4.97511	-14.2024	6.32212	-0.316843
0.8533	-1.38801	17.563	-19.8931	-47.7509	8.14155	21.1658	5.9003	-10.5384	4.17581	0
0.8540	-2.23624	11.1803	-22.3339	-43.1647	5.67001	18.1338	5.9003	-8.70645	3.27057	0
0.8547	-1.07956	9.93806	-14.0924	-4.71404	4.1677	18.7751	14.1398	-5.65919	6.32212	0
0.8553	2.00491	13.0223	-9.8209	22.4485	4.74924	23.9062	23.287	-1.08831	8.14722	0
0.8560	5.08938	2.01331	-9.51938	16.9535	9.35309	19.3582	21.7683	-1.08831	7.22737	0
0.8567	3.23869	-15.978	-4.93917	2.00205	9.06232	8.68787	14.7508	-9.01481	4.78904	0
0.8573	-3.16158	-12.3369	-3.10852	-11.1177	3.5377	10.2039	9.56617	-18.7733	1.43087	0
0.8580	-1.92779	7.79624	-2.1896	-20.276	6.30001	10.787	10.4739	-15.726	-1.9273	0
0.8587	4.78093	21.5468	-0.667649	-28.5256	10.5646	-13.2942	16.8805	0.453461	-5.59209	0.316843
0.8593	5.93761	24.888	-7.99025	-33.0977	4.1677	-42.9146	18.1024	12.6606	-7.41718	0.316843
0.8600	2.00491	26.1303	-11.6516	-32.7853	-2.85923	-50.8445	10.7881	21.2038	-7.11056	0
0.8607	-3.47003	26.4301	3.91257	-32.7853	-8.33539	-44.4306	-2.04241	39.1972	-8.95026	0
0.8613	-4.70382	20.947	10.9336	-19.6655	-19.3362	-22.7401	-11.5038	62.7046	-9.54889	0
0.8620	-2.54469	9.63821	-1.27787	2.00205	-25.7331	9.56249	-9.67091	61.7795	-6.49733	0
0.8627	-1.92779	-1.62779	-4.93917	7.49703	-20.5477	29.4455	-4.78309	44.3848	-5.28547	0
0.8633	-5.62916	-19.3621	-0.667649	-6.5457	-14.4416	26.705	-6.61602	39.1972	-7.41718	-0.316843
0.8640	-10.4872	-35.8113	-2.79982	-30.0449	-15.0716	11.4283	-10.5787	19.3719	-7.41718	-0.950528
0.8647	-7.17139	-25.7447	-0.667649	-29.7325	-17.4946	1.34108	-8.13474	-15.4177	-2.23391	-0.633685
0.8653	-0.154224	-13.5363	6.65495	27.9435	-17.2039	-1.98247	-4.17211	-33.1208	2.0441	-0.316843
0.8660	0.462671	-15.3783	5.74322	85.3071	-10.4677	-2.91539	-2.95015	-37.4015	3.56258	0
0.8667	-1.69646	-8.65297	-0.0574322	63.6395	-0.436154	-2.33232	-4.17211	-31.5972	2.65734	0
0.8673	-1.07956	-1.97048	-4.63047	8.71813	2.61693	-1.69093	-5.0973	-12.3704	-0.700836	-0.316843
0.8680	3.23869	-5.01187	-3.10852	-13.56	4.45847	0.408155	-0.209478	8.68832	0.219011	0
0.8687	6.5545	-6.21129	4.8243	-12.0407	7.80232	0.758003	4.67835	2.26731	3.27057	0
0.8693	6.24605	-1.32793	14.5949	-4.10349	7.80232	-1.10785	4.06737	-28.5499	2.65734	0
0.8700	1.07956	4.15514	21.6089	2.91078	1.69616	-5.07279	1.3267	-45.328	-1.00745	0.316843
0.8707	-5.93761	4.75485	22.5278	5.05481	-4.70077	-12.0697	-0.506239	-44.1127	-3.13916	0.316843
0.8713	-6.24605	4.15514	20.0869	-2.5842	-0.0969232	-16.9676	-0.209478	-33.4292	-1.31407	0
0.8720	-2.85314	3.25557	17.0358	-9.59846	6.59078	-18.4836	-0.506239	-9.32316	2.0441	-0.316843
0.8727	-1.69646	-5.61158	4.52278	4.13188	6.59078	-20.641	-1.7282	17.2315	4.78904	0
0.8733	-1.69646	-16.5777	-15.9231	20.6168	3.87693	-24.6059	-4.48633	23.6344	3.56258	0.316843
0.8740	-0.462671	-14.1789	-22.3339	16.3429	-0.436154	-25.4805	-9.67091	16.9232	-0.0876045	0
0.8747	1.38801	-3.1699	-6.76982	3.52133	-4.36154	-18.1921	-7.52376	9.59524	-0.39422	0
0.8753	0.771118	3.55543	-3.41003	-4.71404	-6.83308	-9.32926	1.01248	-7.79953	1.12426	0.316843
0.8760	-0.154224	6.29696	-25.0835	-8.67554	-8.67463	-7.81326	4.97511	-30.0735	2.35072	0
0.8767	0.771118	3.25557	-35.7587	-12.0407	-8.96539	-10.5537	2.84541	-41.0654	0.817642	0
0.8773	-1.69646	-7.45355	-17.1435	-13.2618	-8.04462	-1.98247	3.14217	-33.7375	-1.62068	0.316843
0.8780	-2.85314	-10.1951	5.43452	-7.7668	-6.20308	18.4253	7.73324	-12.9871	-0.0876045	0
0.8787	0.462671	-5.91143	5.133	-4.41586	-4.70077	38.25	5.58609	11.4272	2.35072	0
0.8793	2.6218	-12.0371	-4.02025	-8.06498	-1.01769	52.5937	-4.78309	18.4468	2.35072	0
0.8800	-0.154224	-19.0194	-4.63047	-15.704	3.87693	54.4596	-15.1523	-2.61194	-1.62068	0
0.8807	-5.93761	-12.3369	1.77322	-17.2233	4.74924	48.0457	-18.8181	-30.0735	-4.97885	0.316843
0.8813	-7.47984	5.99711	10.9336	2.00205	3.5377	49.5617	-15.7632	-48.3752	-2.83254	0
