MR32 ASCII
Name	TBAS30_fast
Frequency	1500
Date	14-09-2015 11:34:37
"Time,s"	"RT TIB.ANT.,uV"	"RT MED. GASTRO,uV"	"RT LAT. GASTRO,uV"	"RT BICEPS FEM.,uV"	"RT VMO,uV"	"RT VLO,uV"	"RT RECTUS FEM.,uV"	"RT SOLEUS,uV"	"RT SEMITEND.,uV"	"Channel 12,uV"
0.0000	-32.5476	4.07657	0.802069	10.049	3.226	-5.92039	-7.6304	12.3065	-3.41922	-6934.74
0.0007	-2.32483	5.25424	2.03191	8.82259	3.53401	-5.61521	-3.66335	13.5323	-3.09776	-10539.9
0.0013	29.6803	6.16015	3.55584	9.73254	4.15003	-3.47899	-2.73328	13.5323	-2.19181	-9707.48
0.0020	38.5921	5.88838	3.23501	9.73254	3.226	-3.47899	-2.12588	11.7182	-1.89957	-9701.36
0.0027	50.1387	6.79428	2.62009	9.4556	3.226	-3.78417	-1.82219	10.4924	-0.964396	-9905.3
0.0033	59.903	8.33432	1.09616	8.82259	3.226	-4.08934	-1.82219	9.26667	-0.964396	-9788.86
0.0040	39.522	8.60609	1.09616	8.50608	3.226	-4.08934	-2.42958	8.97249	-0.672155	-9811.05
0.0047	44.4042	7.70018	2.62009	9.13909	3.226	-4.08934	-2.12588	11.424	0.847499	-9816.52
0.0053	103.3	5.88838	3.84993	8.22914	3.53401	-4.39451	-2.73328	14.1697	1.16896	-9817.81
0.0060	157.856	4.98247	8.12763	8.50608	5.05785	-3.78417	-2.42958	16.278	2.68862	-9791.11
0.0067	182.344	4.07657	9.65156	9.4556	4.45804	-3.47899	-2.12588	17.5037	3.91603	-9848.36
0.0073	198.773	4.98247	8.12763	10.049	1.70216	-2.86864	-2.42958	19.0236	4.20827	-9864.13
0.0080	187.768	7.42841	5.98878	9.73254	0.486332	-2.86864	-2.12588	20.2494	4.20827	-9530.24
0.0087	86.4835	9.24022	2.62009	7.31919	0.178322	-4.39451	-2.12588	19.661	3.01008	-10360.5
0.0093	-79.199	12.5921	2.326	7.59613	0.486332	-2.56347	-0.303698	20.2494	4.52974	-9235.27
0.0100	-179.941	15.038	2.326	9.4556	1.10235	-1.34277	1.23377	20.5436	6.34163	-2878.56
0.0107	-196.99	15.038	0.802069	8.22914	1.10235	-2.56347	0.303698	16.9154	6.04939	108.401
0.0113	-226.593	13.498	0.507977	6.68618	0.794342	-3.47899	-0.303698	12.9439	5.43568	-108.401
0.0120	-246.431	8.87786	1.09616	5.77622	-0.129689	-5.00486	-2.12588	8.67831	3.91603	-114.19
0.0127	-176.919	4.34834	6.28287	7.31919	0.178322	-4.08934	-1.82219	7.15838	4.82198	89.744
0.0133	-65.1726	2.8083	10.8814	8.22914	1.70216	-2.86864	0.607395	7.74674	6.04939	-27.0197
0.0140	-3.25476	1.9024	9.65156	6.09273	2.31818	-4.39451	-0.303698	3.18695	2.39638	-4.50329
0.0147	-6.587	2.17417	8.12763	3.63981	2.01017	-5.92039	-2.12588	-0.78448	-0.0584482	0.96499
0.0153	-24.0232	2.17417	5.98878	1.5034	1.41036	-7.44626	-3.96705	-2.30441	-1.5781	-0.643327
0.0160	-26.1155	2.53653	7.21862	1.81991	2.31818	-6.22556	-2.42958	-2.30441	-0.964396	-0.643327
0.0167	-28.5953	4.98247	10.8814	3.63981	4.45804	-3.17382	1.23377	-2.01023	1.78267	-0.321663
0.0173	-36.1898	5.52601	9.94565	3.04636	4.76605	-3.78417	-0.303698	-4.46173	1.46121	-0.643327
0.0180	-38.9796	5.88838	8.12763	2.41335	4.15003	-5.92039	-2.42958	-4.75591	2.39638	-0.643327
0.0187	-36.1898	5.25424	5.37386	0.276942	2.62619	-8.97213	-4.87814	-3.53016	8.50422	-0.643327
0.0193	-25.4956	4.62011	5.37386	-0.316505	1.70216	-8.97213	-5.78923	-1.42187	12.7709	-0.321663
0.0200	-8.44686	6.79428	10.2665	3.32331	2.9342	-5.00486	-1.82219	3.18695	14.9043	-0.321663
0.0207	2.55731	8.60609	12.6994	4.23326	3.226	-3.47899	0.607395	5.93263	16.7162	-0.321663
0.0213	6.81949	9.87435	10.2665	2.41335	2.62619	-4.39451	0	5.63845	16.1317	0
0.0220	5.88956	9.87435	5.98878	-0.0395632	1.10235	-6.53074	-2.42958	4.70688	14.9043	0
0.0227	1.93735	8.87786	4.17076	-1.22646	-0.729498	-8.66696	-4.57444	4.06949	15.8102	0
0.0233	5.57958	11.3238	8.42172	0.593448	2.01017	-5.31004	-0.607395	8.04092	17.0377	0
0.0240	23.6357	14.6756	9.94565	1.1869	5.05785	-3.17382	2.14486	11.424	17.9436	0
0.0247	49.8288	15.3098	6.89779	-0.949516	4.15003	-5.00486	0.303698	11.1298	15.8102	0
0.0253	64.1652	14.6756	4.17076	-0.949516	2.9342	-6.22556	-2.12588	11.1298	4.82198	0
0.0260	56.8807	13.2262	0.802069	-1.22646	0.794342	-8.05661	-4.27075	9.26667	-5.23112	0
0.0267	46.4965	13.7697	1.71108	1.5034	-0.421488	-5.00486	-2.42958	9.56085	1.46121	0
0.0273	46.4965	16.2157	7.83354	7.91263	0.486332	3.8452	3.05596	11.7182	5.43568	0
0.0280	56.2608	15.3098	9.65156	10.6425	-0.129689	7.5073	4.57444	9.26667	-7.07223	0
0.0287	60.5229	12.3203	7.21862	8.22914	-3.17737	6.2866	2.44856	3.77531	-11.0467	-0.321663
0.0293	26.968	9.87435	4.75894	3.63981	-5.60903	4.76072	-0.607395	-1.07866	-5.23112	-0.321663
0.0300	-41.6919	11.052	6.28287	3.04636	-5.60903	7.20212	0.303698	-1.07866	-12.8586	0
0.0307	-88.9633	14.4039	10.8814	7.00268	-3.17737	11.7797	4.89712	3.48113	-33.0232	-0.321663
0.0313	-81.9888	15.038	12.0845	7.31919	-2.25334	12.6953	6.41561	5.63845	-44.9175	0
0.0320	-47.5039	14.6756	10.2665	5.18278	-2.25334	9.64352	3.66335	5.93263	-46.7586	0.321663
0.0327	-23.4032	13.498	6.89779	2.09685	-3.17737	4.45555	0.303698	4.70688	-56.8117	0
0.0333	-11.7791	11.3238	4.46485	0.593448	-2.86936	0.793454	-2.12588	3.48113	-38.1959	0
0.0340	2.86728	13.7697	8.12763	5.18278	1.41036	2.6245	-0.303698	6.22681	13.9691	0
0.0347	12.0116	16.578	11.1755	7.31919	3.84202	1.70898	1.84117	9.26667	36.5594	0.321663
0.0353	11.0817	15.6721	8.42172	0.593448	2.01017	-4.69969	-0.911093	7.15838	43.8946	-0.321663
0.0360	9.60928	14.1321	5.69469	-7.04225	-0.421488	-9.27731	-3.96705	3.18695	42.6672	-0.643327
0.0367	10.1517	13.498	5.37386	-8.54565	-1.96154	-8.05661	-4.27075	3.48113	-6.16629	0
0.0373	13.5615	14.6756	7.51271	-3.99588	-1.65353	-1.95312	-2.12588	6.22681	-52.8372	0.321663
0.0380	15.3438	16.8498	10.8814	2.41335	-0.729498	1.09863	0.607395	8.67831	-56.198	0
0.0387	13.8715	15.9439	9.94565	7.59613	-1.65353	-0.12207	0	7.74674	-71.1607	0
0.0393	11.3916	14.1321	7.21862	12.1855	-3.48538	1.09863	-2.12588	5.00106	-78.7882	-0.321663
0.0400	8.98932	14.1321	6.89779	17.0517	-5.31723	4.76072	-2.12588	4.70688	-23.5546	0
0.0407	8.67935	14.6756	8.74255	22.2741	-6.22505	8.42282	-0.303698	6.22681	74.1123	0
0.0413	10.4617	15.9439	12.0845	24.6874	-4.3932	12.0849	3.05596	8.67831	155.589	0
0.0420	8.67935	16.2157	11.7904	18.9112	-4.3932	11.4746	3.66335	8.67831	126.277	0.321663
0.0427	2.24733	14.4039	8.12763	10.049	-6.53306	6.2866	1.53747	5.93263	4.82198	0.321663
0.0433	-3.25476	12.5921	5.69469	5.45972	-7.44088	2.92968	0.607395	3.48113	-75.4274	0
0.0440	-3.87471	12.8638	6.28287	3.63981	-6.53306	1.70898	1.84117	4.06949	-83.9901	0
0.0447	0.154988	15.9439	9.94565	2.72986	-4.08519	0.793454	4.57444	7.74674	-64.7606	0
0.0453	2.24733	17.4839	11.1755	1.5034	-2.56135	-4.08934	3.96705	9.26667	-36.0626	0
0.0460	1.00742	15.3098	7.83354	-5.81579	-3.48538	-11.4135	0	6.52099	-33.9292	0
0.0467	0.697447	13.7697	5.37386	-15.9044	-4.70121	-17.2118	-2.12588	4.70688	-54.3861	0.321663
0.0473	2.86728	14.6756	6.6037	-17.7243	-3.48538	-17.8222	-1.21479	5.63845	-26.3017	0.321663
0.0480	6.19953	16.8498	10.2665	-3.99588	-1.03751	-15.0756	2.14486	8.38413	45.4143	0
0.0487	7.12946	18.1181	12.0845	12.7789	-1.96154	-14.4653	3.96705	9.56085	53.3632	0
0.0493	5.57958	16.8498	9.35747	18.0012	-5.60903	-18.7377	2.44856	7.45256	-0.0584482	0.321663
0.0500	5.57958	14.6756	7.83354	16.4583	-8.0569	-25.1464	1.84117	4.70688	20.6907	0
0.0507	7.74942	14.1321	9.03664	18.5947	-8.36491	-28.1981	5.20082	4.4127	52.1358	0
0.0513	11.3916	16.2157	12.0845	26.5469	-7.44088	-24.8412	8.54149	7.15838	-58.3313	0.321663
0.0520	13.5615	16.2157	13.0203	33.8661	-7.44088	-20.2636	7.02301	8.67831	-159.973	0.321663
0.0527	12.3216	14.4039	11.4963	41.1853	-6.53306	-15.0756	3.66335	7.74674	-103.512	0
0.0533	10.7717	14.6756	8.74255	49.7309	-4.3932	-9.88766	1.53747	6.52099	-40.3293	0
0.0540	9.2993	16.578	5.98878	46.368	-5.60903	-5.92039	1.53747	7.45256	-76.6548	0
0.0547	9.60928	19.024	4.75894	27.1403	-9.58074	-1.34277	3.96705	10.4924	-78.496	0
0.0553	12.3216	22.6476	5.37386	10.6425	-12.0286	4.15037	6.71931	14.1697	75.9242	0.321663
0.0560	8.98932	24.1876	5.69469	-3.08593	-13.5525	5.37107	8.2378	15.3954	212.342	0
0.0567	2.55731	21.4699	2.62009	-20.7707	-16.0003	0.488279	5.50452	13.2381	193.113	0
0.0573	5.03712	20.2017	1.71108	-30.5428	-14.4603	-1.34277	3.66335	12.0124	172.364	0
0.0580	8.67935	21.1076	7.21862	-28.4064	-8.0569	4.45555	7.3267	12.3065	188.846	0
0.0587	7.74942	19.5675	11.1755	-23.5005	-4.08519	10.559	8.86417	10.7866	168.389	0
0.0593	11.0817	17.7557	10.5606	-34.8156	-4.08519	10.559	5.80822	7.74674	85.1006	0
0.0600	15.0339	18.6616	9.35747	-61.3625	-3.48538	10.2539	3.96705	7.45256	-45.2097	0
0.0607	12.6315	19.2958	8.12763	-67.1783	-1.03751	18.1884	2.44856	8.67831	-110.847	0.321663
0.0613	10.7717	19.9299	7.83354	-43.9547	3.226	30.3954	3.35965	9.90406	-91.9098	0
0.0620	10.4617	21.4699	8.74255	-36.0421	3.226	37.4144	6.41561	9.56085	-98.9236	0
0.0627	-1.70487	22.9194	9.65156	-65.3188	-3.48538	39.5506	4.89712	7.45256	-134.635	0
0.0633	-30.6877	24.1876	10.2665	-87.9094	-8.36491	38.3299	0.303698	5.00106	-101.671	0
0.0640	-52.696	23.5535	9.65156	-79.3637	-8.98093	33.4471	-3.05596	3.18695	-11.0467	0
0.0647	-32.8575	23.9159	11.1755	-48.8605	-7.14908	29.785	-2.42958	4.70688	10.3161	0
0.0653	7.12946	23.9159	10.5606	-4.90583	-5.91704	22.4609	-3.35965	7.15838	-62.9195	0.321663
0.0660	14.1814	19.9299	5.69469	31.7297	-7.44088	9.33834	-8.54149	5.63845	-174.614	0
0.0667	0.697447	19.2958	8.42172	43.3217	-5.60903	3.23485	-7.02301	7.15838	-295.164	0
0.0673	-10.8492	20.8358	13.0203	36.2794	-2.25334	0.793454	0	10.1982	-319.887	0.321663
0.0680	-25.4956	19.5675	12.0845	30.1867	-2.86936	-6.53074	4.27075	8.04092	-256.705	0
0.0687	-34.0974	19.024	11.1755	33.8661	2.01017	-16.2963	8.86417	6.22681	-232.916	-0.643327
0.0693	-35.8798	18.6616	8.42172	32.0066	18.8048	-28.5033	7.9341	6.52099	-172.188	0
0.0700	-36.4998	18.3899	5.37386	29.8702	31.6116	-22.0946	4.27075	7.74674	34.426	-0.321663
0.0707	-30.0677	22.3758	5.69469	31.7297	22.1605	5.0659	8.86417	12.0124	255.39	-0.96499
0.0713	-21.5434	26.2712	7.51271	6.68618	0.178322	17.5781	13.4386	16.6212	330.437	-0.321663
0.0720	-16.3513	27.2677	6.89779	-39.6819	-8.36491	19.1039	11.2938	19.0236	312.143	0.321663
0.0727	-11.7791	24.1876	3.23501	-71.728	-8.0569	21.5453	7.02301	16.278	290.78	0
0.0733	-4.80464	19.9299	2.94092	-89.7293	-9.88875	21.5453	7.6304	14.1697	251.094	0
0.0740	1.93735	19.5675	6.28287	-106.821	-12.9364	23.0712	17.102	16.278	169.938	0
0.0747	8.98932	21.1076	8.12763	-122.685	-16.6001	20.6298	22.8912	17.5037	56.4025	0
0.0753	13.5615	21.1076	8.12763	-133.091	-15.6923	10.8642	17.102	16.6212	-8.29965	0
0.0760	4.41717	18.1181	5.98878	-127.908	-9.58074	-0.732419	9.47157	14.1697	2.39638	0
0.0767	-16.3513	16.578	5.07977	-105.594	-2.25334	-6.83591	8.2378	15.0522	-17.1546	0
0.0773	-29.4478	19.024	7.83354	-89.1358	1.10235	-8.05661	12.5085	20.8868	-22.3272	0
0.0780	-26.7355	19.2958	10.8814	-94.6351	-2.56135	-11.7187	17.4057	23.3383	20.077	0
0.0787	-22.4733	17.1216	12.6994	-96.7715	-9.58074	-18.1274	19.5315	23.6325	16.1317	0.321663
0.0793	-27.9754	15.3098	10.8814	-95.2286	-18.74	-23.9257	17.102	25.4466	51.5221	0.321663
0.0800	-36.1898	14.4039	9.94565	-136.453	-27.5912	-26.9774	12.2048	29.418	162.603	0.321663
0.0807	-35.8798	17.1216	13.9293	-176.729	-29.4231	-34.3016	13.1349	35.2036	206.848	0
0.0813	-28.2854	22.0135	13.6084	-113.23	-30.0229	-49.8655	17.102	41.6265	151.615	0
0.0820	-18.8311	25.0935	9.35747	17.0517	-27.8992	-57.4949	14.3497	48.0494	83.8732	0
0.0827	-13.329	24.8218	4.75894	88.1863	-18.124	-49.8655	4.89712	52.0208	35.0397	0
0.0833	-15.7313	23.5535	0.802069	79.3242	-8.67292	-35.5223	-3.05596	53.5408	8.79646	0
0.0840	-19.451	25.7277	-2.24579	46.6845	-1.03751	-17.2118	-5.18184	57.5122	32.9063	0
0.0847	-10.5392	29.0795	-5.29365	19.5046	7.19771	3.8452	-1.21479	62.6604	43.8946	0.321663
0.0853	6.50951	28.1736	-4.38464	4.23326	14.2171	18.7988	5.20082	64.8177	6.95534	-0.321663
0.0860	15.3438	23.2817	-0.106943	-5.22234	18.4968	21.2402	8.2378	61.1404	-21.4213	-0.643327
0.0867	15.3438	19.9299	2.94092	-14.9549	24.2842	13.916	10.079	56.8748	-48.5705	0.321663
0.0873	18.1336	17.4839	5.07977	-10.9986	38.323	7.81247	14.6534	54.7665	-46.7586	0.321663
0.0880	32.78	13.7697	8.42172	2.72986	47.4822	17.5781	18.0131	50.1577	13.9691	0
0.0887	49.2863	8.60609	8.42172	3.95632	42.9107	30.7006	19.5315	42.5581	28.0259	0.321663
0.0893	50.7587	4.98247	6.89779	-3.99588	36.1993	29.4799	23.8023	40.4007	-51.0253	0
0.0900	35.4923	5.88838	7.51271	-10.4051	28.2559	23.9867	26.8582	46.1863	-154.771	-0.321663
0.0907	16.2738	7.42841	7.83354	-17.4078	2.9342	21.5453	22.5875	50.7951	-236.248	-0.321663
0.0913	4.10719	7.97196	8.12763	-27.7733	-35.2104	18.1884	15.2608	50.7951	-270.732	0
0.0920	-5.3471	6.79428	5.98878	-38.1785	-55.0528	5.37107	8.54149	48.3436	-278.973	0
0.0927	-10.5392	5.25424	4.46485	-45.1811	-50.4813	-11.1084	3.35965	48.0494	-302.791	0
0.0933	-10.2292	6.79428	7.21862	-61.679	-39.7982	-16.9067	2.14486	52.0208	-293.644	-0.321663
0.0940	-14.2589	8.33432	8.12763	-89.1358	-33.0868	-14.1601	2.75226	55.6491	-155.385	-0.321663
0.0947	-19.1411	7.97196	7.83354	-103.774	-25.7594	-6.83591	3.35965	58.1006	33.8123	0.321663
0.0953	-22.1633	5.25424	5.37386	-123.002	-17.5242	3.8452	-1.51849	55.9923	17.9436	-0.321663
0.0960	-27.6654	0.996494	3.55584	-179.775	-5.00922	8.11764	-8.2378	51.6776	-181.628	-0.96499
0.0967	-36.4998	0.0905904	8.12763	-213.048	7.50572	1.4038	-7.9341	54.4233	-275.934	0
0.0973	-49.2863	0.996494	11.7904	-154.732	13.0013	-20.2636	-7.3267	58.1006	-132.21	0.321663
0.0980	-56.6482	0.996494	11.4963	-65.6353	20.0207	-51.6966	-7.9341	58.1006	165.058	0.321663
0.0987	-55.4083	1.9024	9.65156	-21.0872	20.3287	-72.4484	-7.6304	57.8064	348.761	0.321663
0.0993	-57.5782	3.71421	6.28287	-18.3178	9.95359	-51.0862	-8.54149	57.169	283.445	0.321663
0.1000	-58.1981	7.70018	5.98878	-67.1783	6.8897	17.2729	-10.6674	57.8064	154.362	0.321663
0.1007	-47.5039	13.2262	9.94565	-103.458	13.6173	78.0026	-13.1159	60.2579	110.116	0
0.1013	-37.7397	16.578	12.4053	-45.8142	14.8331	103.942	-15.5645	61.7778	89.3673	0
0.1020	-33.4775	18.1181	9.35747	-2.17597	-1.03751	120.422	-21.05	62.3662	77.4731	0.321663
0.1027	-26.7355	18.3899	2.03191	-45.8142	-24.8354	142.394	-28.3767	61.7778	85.3929	0.321663
0.1033	-19.9935	18.1181	-2.56662	-57.6831	-34.3026	154.601	-29.5915	61.1404	22.5318	0
0.1040	-9.37679	14.1321	-0.721862	6.36967	-25.7594	141.479	-25.6245	59.6205	-127.622	0.321663
0.1047	9.91925	7.97196	2.326	64.6858	-12.3366	115.539	-21.9611	55.9923	-225.873	0.321663
0.1053	26.038	1.63063	2.326	96.4155	-3.77718	83.4958	-21.05	49.8635	-198.724	0
0.1060	58.7406	-4.80129	1.71108	108.007	-2.86936	47.18	-21.6574	44.078	-157.839	0
0.1067	114.226	-6.6131	4.75894	92.4591	-8.0569	14.5263	-20.1389	40.6949	-180.4	0
0.1073	140.497	-7.519	6.89779	83.0035	-16.0003	-23.3153	-18.6015	35.2036	-219.473	-0.321663
0.1080	125.851	-10.3273	9.03664	93.6856	-21.4797	-59.9363	-17.3867	29.1238	-218.246	0
0.1087	98.6501	-11.8673	10.5606	94.5956	-23.9275	-100.525	-16.7793	26.9665	-182.242	0.321663
0.1093	67.5749	-15.2192	6.6037	84.5069	-22.0957	-151.489	-20.1389	21.7693	-90.3902	0
0.1100	47.4264	-19.1146	3.55584	79.9176	-14.7683	-177.123	-19.2278	15.0522	46.3202	0
0.1107	42.8543	-18.8428	8.12763	49.4144	-4.70121	-175.903	-12.8122	16.278	54.5614	0
0.1113	40.6844	-14.5851	15.1324	-37.862	2.31818	-160.034	-11.2938	22.7009	-99.8588	0.321663
0.1120	34.0199	-9.96494	16.9771	-163.594	-4.70121	-127.38	-19.2278	26.3781	-270.732	0.321663
0.1127	20.536	-7.88136	10.5606	-276.824	-24.8354	-101.44	-27.1619	25.4466	-368.107	0.321663
0.1133	8.98932	-5.43542	3.23501	-322.915	-41.322	-83.4347	-24.4097	23.3383	-419.074	0.321663
0.1140	4.10719	-5.16365	1.41699	-276.191	-41.63	-66.0398	-17.6904	22.1125	-494.735	0
0.1147	-0.154988	-8.15314	5.07977	-216.688	-26.0674	-53.8328	-13.7233	21.181	-578.667	0.321663
0.1153	-4.18469	-11.505	10.5606	-238.052	-14.4603	-41.6258	-9.75628	20.5436	-665.638	0
0.1160	-13.329	-13.9509	12.6994	-286.279	-12.6284	-28.5033	-3.66335	19.9552	-672.359	0
0.1167	-30.9977	-14.5851	9.94565	-266.458	1.10235	-22.705	0.303698	18.4353	-447.743	0
0.1173	-44.4042	-13.9509	8.12763	-202.049	25.5162	-21.4843	3.05596	16.6212	-92.8158	0.321663
0.1180	-32.2376	-13.045	9.94565	-158.411	37.7231	-15.3808	7.6304	17.7979	132.707	0.321663
0.1187	-8.75684	-10.3273	8.42172	-121.182	30.3957	-7.44626	4.89712	19.661	220.584	0.321663
0.1193	-5.65707	-5.16365	6.6037	-71.1346	17.5728	-2.86864	-6.09293	21.181	298.7	0.321663
0.1200	-12.0891	-1.17768	8.12763	-16.4978	5.05785	-0.732419	-12.5085	26.084	283.445	0
0.1207	-16.9712	0.0905904	8.12763	34.776	-11.1046	6.59177	-10.6674	30.3496	182.738	0
0.1213	-38.3596	1.63063	2.326	94.279	-27.8992	19.1039	-7.02301	30.6438	205.036	0
0.1220	-56.6482	2.53653	-9.27726	209.012	-37.3503	25.8178	-6.70033	28.4864	385.086	0
0.1227	-25.1856	5.52601	-15.6671	373.516	-41.938	31.3109	-8.84519	30.0064	554.761	0
0.1233	21.7759	6.79428	-15.0789	484.886	-42.2298	35.5834	-13.1159	32.4579	592.899	-0.321663
0.1240	10.1517	0.362362	-13.5282	515.746	-39.7982	28.8695	-21.3537	26.9665	518.143	0
0.1247	-27.0455	-6.6131	-8.04742	524.885	-41.014	20.0195	-25.6245	19.3669	397.273	0
0.1253	-16.3513	-10.9614	-3.76972	495.568	-39.1821	13.916	-22.5685	15.0522	291.072	-0.643327
0.1260	14.8014	-14.8568	-4.67873	413.475	-28.8071	9.03317	-16.4756	11.7182	191.915	-0.643327
0.1267	24.7981	-14.8568	-3.47563	312.47	-16.9081	8.11764	-9.75628	9.26667	62.8026	0.321663
0.1273	26.348	-12.4109	0.507977	199.557	-6.22505	4.15037	-6.09293	5.63845	1.16896	0.321663
0.1280	40.3745	-12.4109	4.75894	64.0528	1.10235	-5.31004	-7.02301	-3.23598	27.4122	-0.321663
0.1287	51.9986	-14.5851	5.98878	-75.4074	2.01017	-13.5498	-8.84519	-11.1788	30.773	-0.643327
0.1293	35.1824	-17.3028	5.07977	-172.733	-1.03751	-17.8222	-10.6674	-10.8847	72.2712	0
0.1300	12.0116	-20.3828	6.89779	-214.868	-4.70121	-15.3808	-9.45259	-8.43316	187.005	0
0.1307	1.93735	-24.3688	8.74255	-243.234	-7.14908	-6.83591	-1.82219	-7.50159	204.715	0
0.1313	-9.68677	-29.5325	6.89779	-312.826	-7.44088	2.31933	7.02301	-6.27584	74.7261	0.321663
0.1320	-25.4956	-31.3443	3.55584	-363.783	-3.77718	17.2729	10.6864	-5.68748	-9.2056	0
0.1327	-32.2376	-29.8042	-4.09055	-317.692	23.0683	35.2782	10.9901	-4.16755	27.12	-0.321663
0.1333	-34.6399	-28.6266	-10.4804	-264.915	83.1952	44.4334	10.3827	0.44127	47.2554	0
0.1340	-48.1239	-25.9089	-6.52349	-240.821	129.575	45.3489	10.3827	4.70688	-12.5664	0
0.1347	-76.1768	-24.9124	-1.01595	-190.774	132.331	38.9403	7.6304	5.93263	-114.5	0
0.1353	-116.164	-28.3548	-0.42777	-143.14	112.797	28.5643	-1.82219	6.22681	-164.532	0.321663
0.1360	-143.287	-31.0725	3.55584	-125.138	80.1313	25.8178	-12.2048	6.52099	-158.745	0.321663
0.1367	-113.141	-30.7101	8.74255	-151.369	36.7991	26.7333	-15.5645	9.26667	-197.818	-0.321663
0.1373	-42.0018	-30.4384	8.12763	-264.915	0.178322	22.4609	-12.8122	14.1697	-252.438	-0.321663
0.1380	-4.49466	-30.4384	4.75894	-396.146	-24.2355	14.2211	-11.2938	16.9154	-189.255	0
0.1387	37.6622	-29.5325	0.507977	-348.829	-45.2937	5.37107	-13.7233	18.1411	-19.5802	0
0.1393	145.069	-27.7207	-11.0953	-122.408	-61.1643	-0.427244	-14.9571	21.7693	144.893	0
0.1400	217.991	-21.2887	-33.3661	58.2766	-73.3713	-7.14109	-16.4756	29.418	273.684	0
0.1407	148.711	2.8083	-54.1396	123.872	-87.4101	-13.2446	-15.8682	44.9605	337.48	0
0.1413	-9.37679	35.7832	-67.5609	223.057	-100.217	-18.4325	-9.45259	66.3376	313.662	0.321663
0.1420	-108.259	45.2046	-87.6929	382.378	-106.928	-33.0809	-3.66335	81.5859	226.984	0
0.1427	-92.0631	41.581	-106.007	473.927	-102.049	-46.8138	-1.51849	88.3031	93.0203	0
0.1433	-60.9104	41.8528	-111.193	504.747	-92.8894	-41.6258	0.930074	87.7147	11.8358	0
0.1440	-60.9104	31.1631	-109.055	530.661	-83.7464	-20.8739	0.607395	75.212	30.773	0
0.1447	-116.164	12.5921	-104.483	492.838	-54.145	2.31933	-2.12588	57.5122	44.8006	0
0.1453	-279.754	0.0905904	-102.05	433.019	-22.7117	21.5453	-3.35965	37.6551	40.5338	0
0.1460	-391.113	-6.6131	-89.8317	478.477	-19.048	38.0248	-1.21479	12.6497	71.6575	0.321663
0.1467	-318.191	-8.15314	-52.0008	575.249	-22.4037	55.4197	1.23377	-4.46173	126.599	0
0.1473	-289.828	-4.16716	-11.4161	585.298	-16.2921	67.3215	-2.12588	-7.50159	245.015	0
0.1480	-446.676	4.34834	3.23501	485.836	-8.0569	70.3733	-3.66335	-3.53016	422.318	0
0.1487	-628.555	10.1461	5.98878	350.015	-1.65353	67.9319	-0.607395	-1.07866	505.928	0
0.1493	-677.996	6.16015	14.2234	251.74	-1.34552	55.4197	-3.96705	-6.27584	449.467	-0.321663
0.1500	-478.371	1.9024	24.5968	204.739	-5.60903	47.7903	-8.84519	-9.65891	389.967	-0.321663
0.1507	-42.0018	0.996494	49.9422	171.783	-15.0763	104.248	-5.78923	-5.3933	390.259	0
0.1513	408.162	-9.96494	71.9188	112.28	-26.9752	215.942	2.14486	-3.23598	418.022	0
0.1520	628.788	-26.8148	40.7718	38.4158	-29.7311	280.639	9.47157	-6.91323	485.179	0
0.1527	578.416	-37.7762	-5.90857	19.5046	-19.9558	273.314	8.86417	-16.9644	530.944	0
0.1533	384.061	-41.128	4.75894	63.1428	-6.22505	245.849	3.96705	-30.1044	523.024	0
0.1540	216.519	-37.5044	46.5735	92.7361	0.794342	216.552	3.35965	-39.224	515.689	0
0.1547	165.218	-35.602	61.8395	64.3693	4.45804	174.133	4.89712	-50.8441	447.626	0
0.1553	179.864	-35.9644	57.2677	3.95632	7.19771	120.117	6.11191	-63.9842	304.807	0
0.1560	172.27	-28.6266	55.1289	-54.0433	4.15003	59.9973	3.66335	-76.4868	152.842	0
0.1567	129.183	-24.6406	45.3704	-103.181	5.67387	-8.66696	-3.35965	-84.7239	-9.8193	-0.321663
0.1573	119.419	-31.7066	14.8383	-122.685	16.357	-67.5657	-4.57444	-76.1926	-149.277	-0.643327
0.1580	138.637	-34.1526	-28.7943	-106.227	26.424	-105.407	-0.303698	-58.4928	-255.185	-0.643327
0.1587	154.213	-29.5325	-47.1082	-88.5028	33.4434	-135.314	3.66335	-50.5499	-333.915	0
0.1593	220.471	-26.8148	-30.0241	-74.4975	42.2947	-164.306	4.57444	-47.5101	-251.824	0
0.1600	328.188	-26.4524	-8.66234	-79.6802	44.4345	-191.161	1.23377	-43.5387	-19.9016	0
0.1607	399.56	-21.017	24.9176	-128.501	33.1354	-202.758	-0.911093	-43.8328	112.25	0
0.1613	391.346	-13.045	70.3949	-188.004	21.2365	-201.537	-5.18184	-46.5785	60.6693	0
0.1620	289.441	-8.78727	87.1581	-215.778	14.2171	-192.077	-13.7233	-41.3813	-38.8096	0
0.1627	114.536	-5.43542	76.1698	-206.638	8.72155	-163.085	-16.1719	-24.2699	-64.7606	0
0.1633	-56.9582	0.362362	58.7916	-164.82	7.19771	-121.276	-15.2608	-5.05009	-31.4744	-0.321663
0.1640	-171.727	4.07657	33.7671	-74.7744	2.9342	-85.571	-12.8122	4.4127	4.20827	-0.321663
0.1647	-279.754	2.53653	9.03664	50.3244	7.19771	-64.8191	7.3267	8.38413	40.8261	0
0.1653	-364.843	-3.62362	1.09616	147.056	37.1071	-37.6585	33.5776	12.0124	93.0203	0
0.1660	-381.969	-5.16365	9.94565	215.738	62.137	16.6625	48.8384	14.758	134.226	-0.321663
0.1667	-343.842	-3.62362	6.6037	289.879	72.8201	62.7439	52.8054	16.6212	137.587	-0.321663
0.1673	-174.749	-6.06956	-23.3135	300.561	88.3827	74.9509	48.8384	16.9154	108.597	0
0.1680	17.2037	4.62011	-20.2656	227.014	93.8783	75.5612	45.7824	20.5436	49.681	0.321663
0.1687	-9.91925	20.2017	39.2479	151.646	80.4393	78.3078	43.0301	27.6039	-15.9271	0
0.1693	-141.814	16.2157	78.6295	121.459	63.6609	77.0871	40.2969	31.5753	-56.5194	0.321663
0.1700	-326.405	7.42841	61.5454	115.327	52.3617	74.0354	46.0861	31.2321	-70.547	0
0.1707	-590.971	3.08007	10.8814	80.5506	58.7813	66.1008	48.8384	28.1923	-103.19	0
0.1713	-607.167	-7.519	-39.7826	20.4146	88.0747	45.9593	39.0631	24.2208	-177.361	-0.321663
0.1720	-273.012	-24.9124	-78.2284	-18.6343	105.777	22.4609	26.8582	17.7979	-202.377	0
0.1727	48.9763	-32.6125	-108.44	-41.5413	88.9825	16.9677	20.1389	6.22681	-124.875	0.321663
0.1733	52.3086	-36.5079	-97.4514	-48.2275	71.8961	31.6161	14.9571	-4.16755	-11.9527	0
0.1740	-126.238	-68.3052	-59.9145	-20.1772	53.8856	14.5263	4.27075	-14.8561	57.9222	0
0.1747	-248.291	-104.904	-64.5131	10.3656	16.049	-34.912	-10.6674	-34.6642	40.2416	0
0.1753	-390.183	-114.053	-91.0615	15.8648	-0.129689	-35.5223	-22.2648	-56.6297	-30.5684	0
0.1760	-446.986	-110.701	-71.2237	-3.08593	34.0594	-5.61521	-32.0401	-66.7299	-82.149	0
0.1767	-133.832	-99.1059	3.55584	-36.6355	92.6462	9.03317	-40.5816	-59.3754	-131.888	0
0.1773	347.716	-73.7406	86.2491	-56.7732	131.715	28.2592	-36.6145	-41.6755	-191.096	-0.321663
0.1780	689.543	-39.3162	113.707	-60.136	133.239	40.7713	-29.2878	-23.6815	-212.752	-0.321663
0.1787	915.671	-16.7592	75.8757	-79.9572	117.06	37.1092	-34.166	-11.7672	-228.036	0
0.1793	1029.74	-13.9509	32.5373	-149.865	87.7667	9.94869	-33.2549	-7.50159	-252.438	0
0.1800	982.161	-16.3969	31.9223	-250.554	41.0788	-31.8602	-15.5645	-0.78448	-273.479	0
0.1807	777.731	-24.6406	64.8874	-302.46	0.178322	14.2211	3.35965	13.5323	-322.634	0
0.1813	405.372	-37.1421	90.206	-280.463	-11.7206	107.299	13.4386	21.4751	-359.544	0.321663
0.1820	-53.316	-43.3022	89.297	-235.915	-19.048	112.793	14.6534	9.26667	-361.064	0
0.1827	-255.653	-18.571	68.5501	-189.824	-49.8652	72.2043	14.6534	-12.4046	-386.109	0
0.1833	-49.9062	25.9994	31.6282	-149.549	-81.6065	41.6869	16.7983	-24.6131	-448.678	0.321663
0.1840	242.092	41.581	9.94565	-137.64	-82.5143	33.7523	18.0131	-23.9757	-479.188	0.321663
0.1847	109.034	31.1631	12.0845	-152.912	-75.8029	24.9022	17.102	-21.5242	-391.603	-0.321663
0.1853	-468.607	18.6616	0.802069	-147.096	-71.8474	-12.3291	13.1349	-27.9471	-209.42	-0.96499
0.1860	-817.486	5.88838	-12.94	-114.14	-54.7448	-37.0482	5.50452	-45.6469	-95.5628	-0.643327
0.1867	-831.822	-3.26125	-11.7102	-135.227	-36.1345	-67.2605	-6.70033	-63.3468	-109.006	0
0.1873	-750.609	-4.16716	-10.4804	-168.777	-34.3026	-123.107	-19.8352	-70.0639	-123.969	0
0.1880	-244.339	-5.16365	-2.24579	-137.363	-63.288	-162.78	-24.4097	-78.9383	-79.4019	0.321663
0.1887	400.49	-14.3133	11.1755	-114.14	-94.7213	-199.096	-28.073	-89.9211	-36.9685	-0.321663
0.1893	431.952	-18.8428	13.3143	-112.636	-91.9816	-242.736	-30.5216	-86.8322	-36.9685	-0.321663
0.1900	-127.168	-12.4109	0.507977	-75.4074	-80.3907	-297.362	-22.5685	-78.3009	-74.8137	0
0.1907	-630.958	-1.17768	-18.4208	-31.1362	-69.0916	-329.405	-14.3307	-68.8381	-147.757	0.321663
0.1913	-485.733	7.70018	-23.6076	-17.0913	-29.7311	-261.962	-7.6304	-62.7584	-259.159	0
0.1920	-92.993	6.52251	-25.1315	-19.8607	15.1411	-170.41	-5.78923	-79.5267	-358.931	-0.321663
0.1927	-157.391	-0.815314	-29.7033	4.23326	21.2365	-118.835	-10.06	-94.775	-322.313	-0.321663
0.1933	-324.623	-5.7072	-24.5166	42.6887	6.8897	-34.3016	-6.39663	-80.1641	-131.275	0
0.1940	-147.006	-10.3273	-19.6507	16.1418	16.665	65.1853	-3.96705	-61.2385	71.6575	0.321663
0.1947	152.741	-18.571	-10.8012	-21.6806	25.2082	109.741	-6.70033	-54.8156	202.874	0
0.1953	273.244	-34.6961	6.89779	11.592	10.8614	109.436	-7.3267	-53.884	248.96	-0.321663
0.1960	308.349	-56.0755	25.2117	33.2331	26.116	107.299	-10.6674	-65.5041	234.933	0
0.1967	431.333	-66.4934	38.0448	50.3244	65.8007	137.512	-7.02301	-83.7923	275.817	0
0.1973	457.913	-57.6155	28.2596	171.783	76.1758	177.49	2.75226	-86.538	364.629	0.321663
0.1980	354.148	-46.0199	10.2665	340.243	61.521	191.833	6.41561	-78.0068	364.921	0.321663
0.1987	348.026	-43.3022	-2.24579	428.153	35.5833	172.302	8.54149	-69.1323	263.309	0
0.1993	494.18	-34.1526	-24.5166	393.97	21.2365	128.356	15.2608	-60.0127	176.952	0
0.2000	672.417	-10.5991	-46.1992	283.47	31.3036	93.5665	22.2838	-51.1383	186.713	0
0.2007	347.406	14.1321	-58.7114	189.191	15.7409	65.4905	18.0131	-39.224	213.248	0.321663
0.2013	-654.206	32.7031	-67.2401	154.415	-28.2073	41.0765	14.3497	-14.8561	187.619	0
0.2020	-1343.28	40.6751	-67.5609	155.602	-47.4174	34.973	24.7324	8.04092	148.868	0
0.2027	-1225.8	35.5114	-67.855	172.1	-40.1062	38.3299	34.4887	5.63845	140.013	0.321663
0.2033	-780.521	30.6196	-66.037	199.24	-30.3309	39.2455	29.3068	-5.68748	175.432	0
0.2040	-353.916	24.1876	-57.1875	210.872	-27.8992	36.8041	7.3267	-11.473	197.701	-0.321663
0.2047	9.60928	6.79428	-42.5364	186.461	-44.6777	44.1283	-15.5645	-34.37	195.86	0
0.2053	262.24	-16.1251	-18.1268	154.099	-53.2209	42.6024	-22.2648	-81.3408	207.17	0
0.2060	282.389	-41.7622	1.71108	116.87	-29.1151	-16.6015	-28.073	-130.175	210.53	0
0.2067	19.916	-59.4273	13.9293	10.959	-1.96154	-94.421	-36.6145	-149.394	220.584	0.321663
0.2073	-291.301	-66.131	29.7835	-126.365	12.3853	-88.0124	-39.0631	-137.823	245.921	0.321663
0.2080	-130.81	-76.1865	47.1884	-138.273	15.4329	-17.8222	-33.8623	-127.723	248.346	0
0.2087	455.433	-77.7266	57.2677	-37.2685	16.665	16.0522	-21.05	-116.446	230.344	0
0.2093	887.231	-57.8873	35.9059	43.9151	6.28989	2.31933	-14.6344	-85.6554	208.982	0
0.2100	789.278	-21.9229	-8.04742	68.3256	-30.6389	-33.3861	-9.14889	-41.0872	179.378	0
0.2107	282.079	23.9159	-50.771	25.3204	-63.596	-89.2331	4.89712	9.56085	138.201	0.321663
0.2113	80.3615	64.5004	-91.3556	-23.5005	-67.5677	-145.69	8.2378	56.8748	101.583	0.321663
0.2120	34.6399	88.2351	-110.284	-9.49516	-47.4174	-196.044	6.11191	93.5002	80.5124	0
0.2127	-726.818	92.8552	-110.284	3.63981	-25.7594	-246.093	3.05596	106.346	61.8967	0
0.2133	-1254.48	82.7996	-102.959	-6.40923	-6.53306	-275.39	-5.18184	95.9517	39.9201	0.321663
0.2140	-308.737	65.9498	-81.5971	-27.4964	29.4717	-276.305	-3.96705	77.9577	15.1965	0
0.2147	1001.69	42.7587	-55.0487	-78.4538	60.905	-225.341	-3.66335	50.4519	-28.7273	-0.321663
0.2153	1220.22	23.5535	-32.163	-131.864	62.7368	-98.3883	-14.027	16.278	-92.5235	-0.643327
0.2160	579.036	14.6756	-23.3135	-148.045	72.2041	37.1092	-28.073	-21.5242	-146.237	-0.321663
0.2167	-273.012	1.26827	-23.9284	-99.5014	90.5064	138.732	-36.3108	-64.2784	-161.492	0
0.2173	-763.705	-21.017	-11.0953	-16.1813	62.445	234.557	-36.3108	-98.4523	-153.573	0.321663
0.2180	-421.646	-50.2777	8.74255	44.8251	20.0207	287.963	-35.096	-131.4	-167.893	0.321663
0.2187	210.087	-79.9007	25.5325	73.8249	13.0013	281.859	-16.1719	-171.066	-193.23	0
0.2193	479.844	-92.4022	27.9655	53.6872	6.5979	255.614	11.5974	-200.092	-165.759	0
0.2200	334.62	-88.7786	13.0203	-1.54296	-1.34552	224.181	13.1349	-209.211	-71.4529	0
0.2207	31.8501	-73.7406	2.326	-28.4064	-17.2162	196.41	7.3267	-188.766	33.8123	0
0.2213	-167.697	-57.8873	-3.47563	-28.7229	-66.9517	168.945	11.2938	-153.709	78.6713	0
0.2220	-318.501	-51.8177	-2.86071	-43.0447	-89.2419	131.103	12.2048	-133.852	5.14344	0
0.2227	-394.445	-48.7376	5.07977	-80.2737	-30.0229	56.9456	13.1349	-127.723	-135.863	0
0.2233	-273.322	-40.4939	3.23501	-107.454	58.1653	-46.2034	13.4386	-124.978	-228.328	0
0.2240	-34.9499	-27.0865	0.802069	-100.134	116.752	-79.7726	19.2278	-117.378	-245.716	0
0.2247	159.096	-14.3133	-3.76972	-85.773	162.532	-3.47899	30.5216	-105.169	-228.942	0
0.2253	228.065	4.34834	-19.3299	-76.9108	200.077	144.226	47.3009	-87.4696	-197.818	0.321663
0.2260	245.502	32.7031	-40.1034	-66.8618	189.994	275.145	73.248	-55.7471	-158.745	0.321663
0.2267	197.843	51.9083	-58.7114	-54.9533	133.239	321.227	83.0043	-21.5242	-155.998	0
0.2273	-219.618	54.9884	-57.1875	-36.0421	62.137	371.275	72.0333	6.22681	-191.096	0.321663
0.2280	-1095.77	51.0024	-45.5842	-17.4078	-11.4126	443.602	65.6176	26.6723	-174	0
0.2287	-1587.39	41.3092	-34.3018	15.2318	-52.6211	450.621	73.8554	38.5866	-72.6804	0
0.2293	-855.613	22.0135	-7.4325	67.0991	-44.3697	431.7	72.9444	38.2924	13.3846	0.321663
0.2300	515.569	-6.34133	21.8697	89.0963	-36.4425	429.564	35.3997	16.278	28.9319	0.321663
0.2307	1250.76	-25.5465	38.3389	66.1892	-66.9517	381.651	-8.84519	-5.68748	20.077	0
0.2313	995.878	-30.1666	42.2958	22.8675	-131.65	254.088	-21.6574	-0.78448	9.7024	0
0.2320	390.726	-31.7066	39.2479	-2.45292	-131.958	69.7629	-13.1159	4.4127	1.46121	0
0.2327	-55.7183	-31.3443	42.6166	4.23326	25.5162	-160.644	0	-12.0614	-3.41922	0
0.2333	-309.357	-31.9784	42.6166	13.7284	217.471	-377.623	9.77526	-39.8614	-18.0605	0
0.2340	-351.746	-26.4524	34.6761	28.0503	311.155	-429.503	19.2278	-60.8953	-18.6742	0
0.2347	-183.894	-10.5991	22.7788	50.9574	313.295	-329.405	33.2739	-62.4642	-0.350689	0
0.2353	111.204	3.08007	8.42172	64.0528	283.386	-208.251	40.9043	-47.1669	9.41016	0
0.2360	450.551	10.4179	9.94565	73.5084	272.087	-56.5794	50.0532	-22.4557	18.2651	0.321663
0.2367	609.569	10.4179	12.6994	75.9613	234.25	52.6731	65.3139	-1.42187	24.0514	0
0.2373	554.316	10.1461	5.69469	72.9149	133.855	41.992	75.0702	9.56085	28.0259	0
0.2380	434.045	16.578	6.6037	82.054	57.8573	-26.6723	90.331	26.084	46.3202	0
0.2387	160.645	15.6721	8.74255	79.3242	93.8783	-109.069	109.255	41.3323	54.2692	-0.321663
0.2393	-114.304	10.7803	15.1324	59.1865	225.091	-107.849	109.559	49.8635	50.6162	0
0.2400	-95.3953	5.25424	21.2548	36.2794	335.569	-68.4812	90.9384	47.412	48.1613	0
0.2407	64.7851	-5.7072	19.7309	6.36967	323.054	-13.2446	55.235	29.418	32.2926	-0.321663
0.2413	122.518	-6.6131	21.8697	-12.8185	270.255	223.266	12.5085	19.9552	16.7162	0
0.2420	120.348	-5.7072	19.4101	-12.5415	269.347	468.626	-24.7134	22.9951	15.8102	0.321663
0.2427	134.685	-17.031	17.8861	-3.36287	213.808	520.506	-31.4327	21.181	27.12	0
0.2433	75.4793	-26.4524	18.5011	8.22914	97.5258	471.373	-1.51849	19.3669	43.8946	-0.321663
0.2440	-44.4042	-28.3548	9.35747	17.0517	23.0683	350.218	42.4227	27.6039	52.4281	0
0.2447	-92.373	-24.6406	6.6037	31.7297	-43.1539	172.912	93.0833	32.1637	54.8829	0
0.2453	-71.9146	-19.1146	13.0203	46.9615	-113.04	73.1198	114.437	24.2208	53.3632	-0.321663
0.2460	-42.6218	-16.1251	15.7473	38.7323	-193.917	-2.56347	97.0503	19.3669	42.6672	-0.643327
0.2467	2.24733	-14.3133	17.592	-7.35875	-304.071	-260.436	67.1361	-2.64762	21.0121	-0.643327
0.2473	78.2691	-16.3969	20.3458	-68.0882	-403.866	-574.156	8.54149	-58.1496	-5.84482	0
0.2480	217.991	-16.7592	18.5011	-98.5914	-466.133	-715.146	-60.1131	-95.7066	-30.5684	0
0.2487	369.957	-7.88136	15.7473	-89.4523	-476.2	-709.043	-93.9944	-91.7352	-44.3038	0
0.2493	391.965	-2.35535	14.2234	-66.2288	-445.075	-598.875	-104.358	-75.2611	-41.5567	0
0.2500	338.262	-3.26125	10.5606	-46.0911	-415.765	-400.206	-111.988	-59.6695	-29.0488	0
0.2507	240.619	-4.16716	11.7904	-30.2263	-390.751	-230.224	-104.054	-47.5101	-15.3134	0
0.2513	-120.116	-8.15314	20.934	-15.5879	-311.09	-110.595	-64.0802	-44.4212	-4.03293	0
0.2520	-569.35	-13.9509	29.4894	-1.85947	-236.325	-20.2636	-4.57444	-42.9013	1.78267	0.321663
0.2527	-606.237	-19.7487	35.291	-7.9522	-203.676	-43.762	31.4327	-41.3813	-5.23112	0
0.2533	-318.811	-24.0065	39.8628	-34.4991	-92.5976	-133.789	14.3497	-40.4498	-15.6057	0
0.2540	-148.789	-17.031	31.3074	-54.9533	29.1799	-176.818	-40.2779	-27.9471	-19.5802	0
0.2547	-151.269	0.0905904	10.8814	-79.9572	37.1071	-210.693	-99.1762	-4.16755	-31.7958	0
0.2553	-251.624	15.6721	-3.76972	-105.594	27.0401	-307.433	-144.351	30.0064	-49.7979	0
0.2560	-260.225	25.9994	-6.2294	-97.6815	77.3916	-385.863	-161.131	64.5235	-54.0646	-0.321663
0.2567	142.977	26.6336	-7.4325	-71.4115	124.696	-322.997	-149.533	64.5235	-46.4371	-0.321663
0.2573	684.041	16.578	-7.75333	-50.6804	107.609	-209.167	-131.824	32.7521	-36.0626	0
0.2580	936.362	3.71421	2.94092	-29.9098	49.9301	-235.107	-108.629	2.54956	-26.5939	0.321663
0.2587	829.265	-1.17768	15.1324	-15.5879	2.62619	-314.147	-70.1921	-18.7785	-22.6487	-0.321663
0.2593	182.576	7.06605	16.9771	-4.27282	-45.6017	-258.605	-45.4597	-28.8787	-21.0998	-0.321663
0.2600	-700.547	21.4699	7.51271	6.09273	-98.693	-188.415	-64.0802	-20.9358	-21.4213	0
0.2607	-762.853	29.3513	1.09616	6.09273	-142.949	-194.518	-90.6347	-8.13898	-24.782	0
0.2613	6.81949	29.0795	-1.33678	-0.633011	-189.945	-207.946	-97.6577	-9.02152	-30.5684	0
0.2620	432.882	35.5114	-20.8538	-4.27282	-214.359	-214.355	-84.2191	-7.79577	-39.1311	0
0.2627	310.752	48.2847	-36.1198	-1.54296	-183.833	-157.592	-57.9872	9.90406	-42.1704	0
0.2633	154.833	42.7587	-30.9331	-11.6316	-109.684	-54.138	-37.2219	17.7979	-44.6252	0
0.2640	-125.308	23.9159	-24.2225	-35.7255	-44.0617	-39.4896	-32.0401	9.90406	-52.8372	-0.321663
0.2647	-700.857	16.8498	-10.8012	-43.0447	-11.7206	-88.3175	-46.0671	10.7866	-53.1587	-0.321663
0.2653	-1101.58	9.51199	1.71108	-39.0884	14.2171	-68.4812	-57.9872	9.90406	-52.2527	0
0.2660	-629.795	-10.5991	6.28287	-39.9984	50.8379	15.747	-50.3568	-4.16755	-58.6528	0.321663
0.2667	398.707	-32.6125	16.3622	-35.7255	70.0642	113.098	-36.9182	-21.5242	-55.9057	0
0.2673	847.864	-46.2917	12.4053	-24.727	45.0505	194.274	-38.7594	-38.0473	-44.6252	-0.321663
0.2680	434.355	-44.4799	-3.76972	-12.5415	26.732	214.111	-42.1001	-43.8328	-32.4095	0
0.2687	-13.9489	-41.128	-8.04742	-8.54565	40.7708	201.598	0.303698	-43.8328	-21.4213	0.321663
0.2693	-55.4083	-46.6541	-9.89218	-16.8144	29.7797	187.56	62.8654	-44.7154	-14.6997	0
0.2700	-118.024	-55.1696	-12.6192	-21.3641	-6.53306	137.206	79.0373	-45.6469	-9.2056	0.321663
0.2707	-398.475	-53.6295	-9.89218	-6.13229	-6.53306	30.3954	87.9015	-47.8043	1.16896	0.321663
0.2713	-677.686	-37.1421	-3.76972	19.5046	11.4774	-111.816	152.893	-43.8328	16.424	-0.321663
0.2720	-652.346	-31.7066	1.41699	24.6874	-5.31723	-243.346	225.533	-41.3813	22.2103	0
0.2727	-87.8009	-44.4799	2.94092	-6.40923	-37.0423	-321.471	259.396	-56.0413	10.3161	0.321663
0.2733	728.29	-45.3858	-1.63087	-51.5904	-84.6542	-315.367	264.9	-65.2099	-11.339	-0.321663
0.2740	1190.62	-21.9229	-19.0358	-84.5465	-145.689	-273.864	198.675	-59.0812	-39.7156	-0.321663
0.2747	1054.77	12.8638	-41.0125	-101.044	-156.372	-250.67	62.5617	-49.9126	-69.3196	0
0.2753	503.635	42.4869	-58.0965	-110.183	-130.434	-220.153	-51.8753	-22.7499	-88.8705	0.321663
0.2760	-256.816	55.6225	-70.9029	-115.366	-120.967	-189.941	-113.526	10.4924	-95.8843	0
0.2767	-822.911	45.8387	-62.9891	-108.957	-114.872	-163.39	-139.15	12.6497	-90.6824	-0.643327
0.2773	-772.617	19.5675	-32.163	-96.1385	-94.7213	-109.68	-138.239	-7.20741	-80.3079	-0.321663
0.2780	-399.327	-5.43542	-1.33678	-87.3159	-72.7553	-46.8138	-122.675	-19.4159	-79.1097	0
0.2787	-110.042	-27.3583	17.2712	-85.1795	-56.5766	-8.66696	-105.896	-23.3873	-101.671	0
0.2793	156.073	-44.4799	25.8266	-82.4101	-45.2937	11.1694	-91.5458	-23.3873	-136.769	0
0.2800	316.564	-45.3858	29.7835	-70.5016	-39.4902	28.8695	-73.2291	-14.5129	-154.771	0.321663
0.2807	283.319	-44.7517	25.5325	-61.679	-37.0423	38.6351	-57.3609	-18.7785	-157.518	0
0.2813	108.182	-51.5459	25.2117	-55.5467	-30.3309	46.2645	-46.6935	-55.7471	-152.959	0
0.2820	-196.448	-57.8873	30.7192	-50.6804	-23.3115	50.8421	-41.4927	-106.689	-146.851	0
0.2827	-421.026	-63.6851	24.3027	-54.6367	-20.5718	46.2645	-43.9412	-139.637	-125.488	0
0.2833	-356.938	-62.5074	16.0681	-50.9969	-16.9081	48.0955	-41.4927	-135.078	-26.3017	0.321663
0.2840	-164.365	-56.0755	13.9293	-36.952	-11.1046	53.8938	-35.3997	-108.209	114.997	0.321663
0.2847	-148.169	-48.4659	9.94565	-30.5428	-2.25334	56.3352	-32.6475	-78.9383	156.203	0
0.2853	-259.915	-35.0585	5.98878	-31.4527	10.5534	58.7766	-32.3438	-52.6582	80.8047	0
0.2860	-225.431	-25.2747	2.03191	-34.1826	20.0207	65.1853	-33.5586	-40.1556	-5.55258	0.321663
0.2867	24.7981	-27.0865	-2.24579	-36.6355	22.1605	79.8337	-34.166	-38.0473	-40.3293	0.321663
0.2873	284.249	-27.0865	-2.86071	-34.1826	31.0118	81.6647	-29.2878	-29.467	-25.688	0
0.2880	367.245	-23.7347	-1.01595	-30.5428	45.6504	113.708	-17.6904	-20.3475	1.78267	0.321663
0.2887	315.401	-23.1006	1.09616	-22.3136	56.9495	217.467	-4.87814	-16.0328	16.7162	0
0.2893	192.65	-22.557	3.23501	-4.27282	68.8484	286.437	1.23377	-8.72734	30.4515	0.321663
0.2900	42.2343	-22.8288	5.69469	23.184	77.3916	293.456	10.6864	-5.05009	57.0162	0
0.2907	-30.3777	-26.1806	6.6037	57.6435	75.5598	304.137	23.4986	-9.95309	89.3673	-0.643327
0.2913	-13.329	-23.1006	0.802069	77.5043	77.3916	299.254	17.102	-6.57002	109.211	0
0.2920	31.8501	-13.3168	-2.24579	76.8712	94.7861	266.295	3.96705	12.3065	111.022	0.321663
0.2927	68.1949	-13.3168	-1.33678	72.9149	111.273	258.361	11.5974	23.6325	96.9948	0
0.2933	75.1693	-22.1946	-1.9517	70.7785	134.147	274.535	39.0631	20.5436	69.8164	0
0.2940	62.6928	-24.9124	2.326	70.7785	174.739	274.23	59.5057	22.4067	46.3202	0
0.2947	41.6144	-19.1146	4.17076	78.0977	194.581	265.685	47.6046	30.6438	41.7613	0
0.2953	30.3002	-9.05904	0.507977	85.4169	186.946	239.44	23.1949	27.6039	47.8691	0
0.2960	42.2343	-6.6131	-0.106943	78.7307	174.139	164.672	0.607395	12.9439	49.0673	0
0.2967	57.5007	-12.1391	-0.42777	69.2356	154.297	37.7196	-27.1619	1.32381	48.1613	0
0.2973	64.4751	-13.6792	0.507977	78.7307	140.874	-20.8739	-30.5216	-3.53016	60.377	-0.321663
0.2980	64.4751	-12.4109	0.187149	97.6419	129.575	67.3215	20.7653	-2.01023	88.1399	0
0.2987	64.7851	-9.69317	0.507977	107.691	118.892	185.119	111.704	6.81517	113.477	0
0.2993	70.2872	-5.43542	5.07977	102.508	116.46	286.742	180.358	16.6212	117.744	0
0.3000	71.8371	-4.80129	2.62009	86.0499	91.7384	426.817	174.569	22.4067	101.583	0.321663
0.3007	71.8371	-5.7072	0.507977	60.0965	33.7514	550.718	127.572	25.1524	74.1123	0.321663
0.3013	74.0069	-6.34133	3.84993	30.1867	-35.8265	587.339	71.7296	23.9266	44.5083	0
0.3020	70.5972	-6.97546	1.71108	7.91263	-94.7213	556.822	12.5085	20.8868	22.824	0
0.3027	67.8849	-4.52952	-0.106943	-4.58933	-124.939	411.558	-21.3537	23.3383	15.1965	0
0.3033	72.457	-1.44945	5.07977	-2.76942	-137.762	165.588	-16.7793	29.418	15.1965	-0.321663
0.3040	80.0515	-5.7072	7.21862	5.45972	-168.887	-35.5223	3.35965	28.4864	11.8358	0.321663
0.3047	97.4877	-15.491	9.65156	9.13909	-215.883	-176.208	7.02301	22.4067	3.59457	0.321663
0.3053	122.828	-22.1946	16.3622	-4.90583	-225.95	-292.479	-21.05	17.5037	-7.97818	-0.643327
0.3060	138.947	-22.1946	18.5011	-42.4513	-161.867	-391.661	-53.3938	20.5436	-19.2879	-0.643327
0.3067	139.257	-24.3688	16.9771	-70.2246	-84.6542	-482.298	-52.179	33.0953	-25.0743	0
0.3073	134.375	-39.588	16.3622	-62.9054	-61.7642	-511.595	-37.2219	47.1178	-23.8469	0.321663
0.3080	114.536	-46.9258	12.6994	-34.8156	-56.5766	-467.955	-30.8253	66.0434	-16.2194	0.321663
0.3087	52.6185	-27.9924	-5.61448	-9.7721	-33.9946	-402.037	-35.7034	96.8833	-9.8193	0.321663
0.3093	-9.68677	-6.97546	-24.5166	6.09273	-22.0957	-338.561	-45.156	129.831	-6.16629	0.321663
0.3100	-21.5434	-3.26125	-26.0405	13.0954	-25.1434	-276.915	-29.5915	152.091	1.16896	0
0.3107	-15.4213	-3.89539	-23.3135	-7.63569	-20.5718	-226.867	-2.12588	156.994	3.91603	0
0.3113	-22.1633	0.362362	-19.6507	-50.087	-15.0763	-191.772	5.20082	130.42	-6.45853	0
0.3120	-17.2812	5.25424	-6.2294	-67.4552	-19.6478	-158.508	-2.12588	71.829	-18.0605	0
0.3127	9.2993	2.8083	2.62009	-54.6367	-24.8354	-127.685	-27.1619	11.7182	-23.2624	0.321663
0.3133	21.7759	-0.815314	-0.106943	-40.3149	-17.2162	-93.5055	-55.8424	-55.1097	-27.2076	0.321663
0.3140	9.60928	4.98247	-4.38464	-32.6792	-1.34552	-45.8983	-63.1691	-118.309	-29.0488	0.321663
0.3147	10.7717	10.4179	-2.56662	-27.1799	20.6367	1.4038	-56.4498	-115.858	-25.688	0
0.3153	38.5921	7.70018	9.03664	-17.7243	46.8662	31.9213	-48.212	-64.5725	-18.0605	0
0.3160	61.1429	1.9024	16.0681	-13.768	65.1847	84.7165	-29.2878	-30.3986	-15.0212	0
0.3167	74.5494	-4.52952	18.7951	-13.4515	73.7279	202.209	10.3827	-19.4159	-12.8586	0
0.3173	77.6492	-9.96494	21.5489	-5.49928	67.3246	308.104	43.0301	3.77531	-6.16629	0.321663
0.3180	53.5485	-6.34133	10.5606	-0.316505	59.9972	331.908	41.8154	38.5866	-4.93887	0.643327
0.3187	32.78	1.9024	2.326	2.09685	63.3528	326.11	23.1949	52.9034	-6.45853	0
0.3193	24.7981	-2.35535	5.07977	7.91263	62.7368	296.813	5.20082	47.412	-5.23112	0
0.3200	-4.18469	-9.4214	-4.38464	6.09273	61.521	197.631	-6.39663	40.1066	-9.52706	0.321663
0.3207	-45.954	0.996494	-25.7464	-3.08593	55.7174	77.0871	-5.18184	38.2924	-15.0212	0.321663
0.3213	-65.1726	18.1181	-33.981	-3.36287	34.9673	-13.5498	14.046	34.321	-11.0467	0
0.3220	-57.2682	17.4839	-29.7033	0.276942	17.8808	-112.426	30.2179	11.424	-7.68594	0
0.3227	-30.6877	4.98247	-19.3299	3.04636	8.12174	-189.635	33.8813	-16.9644	-8.59189	0
0.3233	-7.20696	-4.52952	-7.75333	5.45972	-9.88875	-157.592	42.4227	-30.3986	-10.433	0
0.3240	-5.96705	-6.6131	-7.4325	6.68618	-30.0229	-81.6037	43.3338	-27.0155	-12.5664	0
0.3247	-10.8492	2.17417	-9.27726	10.3656	-48.9574	-42.2362	21.069	-19.7101	-11.9527	0
0.3253	-11.1592	14.6756	-7.4325	13.7284	-58.7165	13.3056	-4.27075	-22.7499	-10.433	0.321663
0.3260	-12.0891	21.1076	-6.52349	15.8648	-51.6971	73.425	-17.083	-32.8501	-9.52706	0.321663
0.3267	-10.8492	20.8358	-8.04742	16.7748	-38.8741	83.4958	-18.2978	-37.4099	-10.7252	0
0.3273	-7.20696	15.9439	-9.27726	9.73254	-30.0229	60.6077	7.9341	-31.3302	-13.7938	0
0.3280	-5.96705	10.4179	-7.75333	-4.90583	-28.2073	31.6161	41.208	-17.6018	-16.5408	0
0.3287	-4.18469	9.87435	-5.90857	-16.1813	-33.6866	3.23485	43.6375	-0.19612	-18.3527	0
0.3293	1.62738	11.052	-5.61448	-13.135	-52.6211	-70.6174	39.6705	13.5323	-17.7683	0
0.3300	11.3916	11.052	0.187149	0.593448	-59.6243	-200.011	59.202	19.661	-12.2741	0
0.3307	19.916	7.97196	6.6037	11.2755	-20.2638	-291.564	74.4628	18.1411	-5.23112	0
0.3313	25.1081	3.08007	6.89779	10.049	25.5162	-303.16	60.4358	13.2381	-3.71146	0
0.3320	30.3002	3.71421	1.41699	-2.45292	47.4822	-265.014	26.8582	13.8755	-9.8193	0
0.3327	23.0158	10.7803	-9.27726	-20.1772	58.7813	-180.175	-2.12588	17.5037	-20.8076	0
0.3333	8.36937	19.5675	-16.6028	-26.2699	40.4628	-68.7864	-3.66335	26.6723	-22.9409	0
0.3340	-1.70487	29.7137	-22.6985	-10.9986	-1.03751	23.0712	17.102	51.6776	-10.433	0
0.3347	-11.4691	31.5255	-28.5002	1.1869	-28.2073	78.3078	18.9242	74.2805	-4.03293	-0.321663
0.3353	-16.9712	23.5535	-14.7581	-10.4051	-38.2743	88.3786	-17.6904	77.6145	-12.5664	-0.643327
0.3360	-24.0232	19.5675	5.37386	-28.4064	-45.8935	63.3542	-46.3898	73.3489	-24.4606	-0.321663
0.3367	-33.4775	12.8638	2.94092	-28.9998	-52.6211	24.5971	-44.2449	58.1006	-30.8899	0
0.3373	-27.0455	3.71421	-4.99956	-16.1813	-51.0811	-28.8085	-35.7034	34.321	-28.1428	0
0.3380	-16.0413	2.8083	-4.67873	-14.0449	-44.9857	-109.069	-35.7034	15.0522	-24.782	0
0.3387	-9.37679	0.996494	-1.33678	-18.0408	-40.1062	-203.063	-41.189	-3.23598	-23.8469	0
0.3393	-0.464965	-2.08358	3.23501	-12.8185	-37.0423	-252.501	-43.6375	-25.8388	-17.7683	0
0.3400	-0.464965	-2.71771	2.326	-8.54565	-44.6777	-244.567	-48.5157	-44.7154	-13.1801	0.321663
0.3407	-2.01485	-1.44945	2.62009	-5.81579	-48.6494	-222.289	-52.7864	-39.8614	-10.7252	0.321663
0.3413	5.2696	4.62011	9.35747	-0.0395632	-35.8265	-179.26	-48.212	-15.4445	-5.23112	0.321663
0.3420	2.86728	8.60609	9.03664	-2.17597	-23.3115	-107.238	-45.7634	-1.71605	-5.55258	0.321663
0.3427	-6.89698	6.79428	-0.106943	-7.35875	-16.2921	-50.7811	-44.5486	-1.71605	-10.7252	0
0.3433	-4.18469	6.16015	-6.81758	-3.67938	-9.27273	-26.6723	-34.4887	6.52099	-9.52706	0
0.3440	0.387471	3.71421	-7.13841	0.593448	-5.31723	-19.9584	-24.7134	17.2095	-7.07223	0
0.3447	0.154988	0.724723	-0.106943	1.5034	-3.17737	-15.3808	-19.5315	19.0236	-7.07223	0
0.3453	3.48724	0.724723	4.46485	3.32331	0.486332	-5.92039	-12.5085	31.2321	-3.41922	0
0.3460	1.3174	-2.71771	-4.38464	-0.316505	2.01017	-2.25829	-10.6674	43.4406	-3.09776	0.321663
0.3467	-3.25476	-4.80129	-11.0953	-3.08593	2.9342	-1.34277	-11.2938	30.0064	-6.16629	0
0.3473	-3.87471	1.63063	-7.4325	-0.949516	4.45804	4.45555	-7.3267	15.0522	-5.23112	0
0.3480	-3.87471	9.87435	-4.67873	-11.6316	5.05785	9.03317	-3.35965	21.4751	-2.80551	0
0.3487	-0.464965	8.33432	-1.9517	-23.817	6.8897	13.0004	0.303698	29.7122	-0.964396	0
0.3493	5.57958	1.26827	0.187149	-18.6343	8.42975	16.0522	1.84117	27.2607	-1.28586	0
0.3500	9.2993	-2.08358	0.187149	-10.9986	9.64558	17.8832	1.53747	20.5436	-1.89957	0
0.3507	11.7016	-1.17768	1.09616	-8.54565	10.8614	21.2402	3.66335	13.5323	-0.964396	0
0.3513	13.8715	0.996494	2.94092	-6.13229	11.7854	24.9022	6.41561	8.97249	0.847499	0.321663
0.3520	15.9638	4.62011	5.07977	-1.54296	13.6173	29.4799	9.47157	13.5323	3.30232	0.321663
0.3527	16.5838	8.87786	1.41699	-0.0395632	13.9091	32.2264	10.3827	19.3669	3.91603	0.321663
0.3533	13.5615	11.9579	-8.66234	-2.45292	13.3093	30.7006	7.9341	21.7693	1.78267	0
0.3540	12.0116	13.498	-11.0953	-3.08593	13.9091	31.3109	7.9341	35.8409	2.07491	0.321663
0.3547	20.8459	5.25424	-6.52349	-3.67938	14.8331	32.8368	9.16787	50.1577	2.39638	0.321663
0.3553	38.9021	-17.031	-1.9517	-5.22234	14.2171	32.2264	7.6304	48.932	0.847499	0
0.3560	43.7842	-35.3303	18.207	-4.58933	14.5251	33.4471	7.6304	47.1178	1.16896	0
0.3567	26.968	-32.8843	44.7554	-3.67938	15.4329	35.5834	8.54149	52.315	2.07491	0.321663
0.3573	0.697447	-13.6792	37.1091	-3.08593	15.1411	35.5834	7.9341	67.8575	1.78267	0.321663
0.3580	-18.8311	3.71421	10.2665	-1.85947	16.049	37.1092	9.47157	91.392	3.01008	0.321663
0.3587	-23.4032	13.498	-13.2341	-0.949516	16.049	38.0248	9.47157	100.806	3.59457	0
0.3593	-19.1411	33.3373	-30.9331	1.81991	15.4329	38.0248	7.9341	102.031	3.91603	0
0.3600	-14.8014	48.0129	-15.9879	1.1869	17.2648	40.4662	10.9901	98.4032	7.2768	0
0.3607	-17.9012	22.0135	9.03664	-7.35875	16.973	38.6351	9.77526	73.3489	6.6631	0
0.3613	-22.4733	-16.3969	7.21862	-6.40923	14.2171	34.6678	4.89712	37.6551	3.59457	0.321663
0.3620	-21.5434	-13.045	-4.99956	2.09685	15.1411	35.8885	6.11191	17.2095	4.20827	0
0.3627	-25.1856	9.24022	-17.8059	6.36967	15.7409	35.2782	4.89712	22.7009	3.91603	0
0.3633	-23.0933	9.51199	-21.1746	16.4583	16.665	34.973	3.66335	14.758	3.91603	0
0.3640	-9.37679	7.70018	-8.95644	24.6874	17.2648	37.4144	7.3267	-47.1669	6.95534	0
0.3647	-4.80464	18.1181	0.802069	34.4595	16.049	36.4989	7.3267	-111.249	9.41016	0.321663
0.3653	-9.37679	23.9159	2.94092	40.8688	14.5251	35.5834	6.11191	-120.712	11.5435	0.321663
0.3660	-12.3991	21.7417	1.71108	11.2755	12.6933	33.142	5.50452	-102.718	10.9298	-0.96499
0.3667	-12.3991	22.0135	1.71108	-19.2277	12.3853	31.6161	5.50452	-84.7239	9.7024	-0.643327
0.3673	-7.82691	26.9053	7.83354	-32.3627	14.5251	34.973	10.3827	-66.7299	13.0632	0.321663
0.3680	-5.3471	24.4594	6.28287	-48.2275	14.8331	34.0575	10.3827	-57.5612	13.3846	0.643327
0.3687	-3.87471	19.2958	-4.67873	-18.9508	13.6173	31.3109	7.3267	-56.6297	10.9298	0.643327
0.3693	0.154988	19.2958	-11.7102	33.2331	13.3093	31.9213	7.3267	-53.2956	11.5435	0.321663
0.3700	2.24733	8.87786	-8.95644	25.9139	13.3093	29.4799	4.27075	-46.5785	9.7024	0.321663
0.3707	17.5137	-5.7072	3.55584	2.41335	13.9091	28.8695	3.35965	-31.9185	8.50422	0
0.3713	52.6185	-3.26125	22.1638	13.4119	16.049	32.5316	8.2378	4.70688	13.0632	0
0.3720	89.5058	4.98247	34.6761	25.3204	16.357	29.785	7.3267	37.6551	13.9691	0.321663
0.3727	122.208	2.17417	41.7076	20.7311	15.1411	24.9022	2.75226	37.9492	10.6376	0
0.3733	138.017	-11.8673	50.2362	13.7284	15.1411	23.0712	1.53747	31.5753	9.41016	0
0.3740	122.828	-26.4524	53.899	9.73254	13.6173	21.2402	0	36.7235	8.50422	0.321663
0.3747	113.374	-26.8148	62.7485	10.959	14.5251	24.2919	3.05596	46.1863	10.0239	0
0.3753	117.016	-4.80129	65.1815	13.7284	16.665	27.3436	7.9341	73.6921	13.3846	-0.321663
0.3760	86.4835	25.3653	40.7718	9.13909	13.0013	21.5453	3.96705	146.011	10.9298	0.643327
0.3767	23.6357	42.2151	8.12763	6.09273	9.95359	18.7988	0.607395	222.302	7.56904	1.28665
0.3773	-56.0283	46.7446	-23.6076	7.31919	9.64558	20.935	2.75226	256.476	7.56904	0
0.3780	-125.928	32.069	-53.2039	6.36967	8.72155	20.0195	2.14486	277.216	6.34163	-0.643327
0.3787	-140.264	-27.7207	-59.3264	8.82259	9.64558	22.766	4.27075	287.61	8.50422	0
0.3793	-136.622	-81.0784	-44.3544	10.3656	9.95359	23.6815	7.02301	255.25	10.3161	0
0.3800	-141.814	-46.9258	-44.6752	6.09273	7.19771	17.8832	2.75226	211.614	6.34163	0.321663
0.3807	-113.374	37.8668	-64.1922	5.45972	6.8897	16.0522	0.303698	177.44	5.43568	0.321663
0.3813	-82.6088	79.0854	-83.736	6.09273	7.81373	16.0522	1.23377	136.843	6.6631	0
0.3820	-104.23	65.0439	-73.6567	4.23326	6.8897	14.2211	0.607395	106.64	5.75715	0
0.3827	-125.928	37.595	-15.9879	6.09273	8.12174	16.6625	2.44856	74.2805	7.89051	0.321663
0.3833	-93.8454	2.8083	27.0565	6.68618	8.42975	16.0522	2.75226	2.54956	8.79646	0.321663
0.3840	-57.2682	-31.7066	30.7192	3.04636	6.5979	11.4746	0	-109.729	5.75715	0.643327
0.3847	-70.9847	-20.6546	34.6761	1.81991	6.28989	10.559	-1.21479	-198.228	4.20827	0.321663
0.3853	-92.373	17.4839	35.5851	2.09685	6.8897	10.2539	-1.82219	-215.928	4.20827	0.321663
0.3860	-91.7531	43.121	14.5442	3.63981	8.12174	11.1694	-0.607395	-247.7	5.75715	0.321663
0.3867	-96.9452	58.7026	-14.7581	6.09273	9.95359	12.3901	2.14486	-265.056	7.56904	0
0.3873	-107.019	49.4624	-28.5002	4.86627	8.72155	10.559	0.930074	-171.409	6.04939	0
0.3880	-107.019	37.3232	-32.4571	3.63981	6.8897	9.03317	-0.911093	-114.632	4.52974	0.321663
0.3887	-79.509	46.1105	-33.3661	3.32331	6.8897	8.42282	-0.607395	-162.829	3.59457	0
0.3893	-5.03712	36.4173	-19.3299	0.909953	5.36586	6.59177	-1.51849	-173.811	2.39638	0
0.3900	150.571	13.498	4.46485	1.5034	4.15003	8.11764	0	-137.529	3.30232	0
0.3907	294.323	25.9994	10.5606	3.95632	4.45804	9.94869	2.44856	-126.203	5.14344	0
0.3913	238.45	44.9328	6.6037	2.72986	3.84202	8.42282	1.84117	-136.892	4.20827	0
0.3920	79.7415	39.1351	21.2548	0.909953	3.53401	6.89695	-0.303698	-147.875	2.39638	0
0.3927	32.1601	30.6196	39.8628	-0.949516	2.62619	4.45555	-2.73328	-156.455	0.847499	0
0.3933	119.109	11.9579	51.1453	-1.22646	2.9342	3.54003	-2.73328	-126.841	0.555258	-0.321663
0.3940	249.454	0.724723	55.1289	2.41335	5.36586	6.89695	0.607395	-37.1157	3.59457	-0.321663
0.3947	157.623	16.2157	37.724	3.63981	5.67387	6.89695	1.23377	44.3722	3.91603	0
0.3953	-177.229	21.4699	2.03191	1.1869	4.45804	4.15037	-0.607395	82.8117	1.78267	0
0.3960	-353.916	12.3203	-33.3661	-0.949516	3.226	1.70898	-2.42958	90.7546	0.555258	0.321663
0.3967	-248.291	9.51199	-49.247	-1.22646	2.01017	1.09863	-3.66335	61.1404	-0.0584482	0.321663
0.3973	-105.16	4.07657	-39.4885	3.04636	3.53401	5.98142	0.303698	34.6152	2.39638	0
0.3980	-43.5517	-7.88136	-15.6671	6.68618	4.45804	8.72799	3.35965	42.5581	3.91603	0
0.3987	-15.7313	-27.9924	11.4963	7.00268	3.53401	5.37107	1.23377	48.3436	1.46121	0
0.3993	-18.2111	-51.1836	22.4579	7.31919	3.53401	2.01415	-0.303698	40.1066	0.263017	0
0.4000	-65.1726	-51.5459	7.51271	6.09273	2.01017	-0.12207	-1.82219	56.8748	-1.5781	0
0.4007	-119.806	-55.1696	7.51271	6.09273	1.70216	0.183105	-2.73328	84.0375	-1.89957	0
0.4013	-124.068	-89.9563	33.4463	8.22914	5.05785	3.23485	1.23377	62.6604	1.16896	0.321663
0.4020	-74.6269	-64.9533	34.6761	5.18278	5.98188	4.15037	3.05596	24.2208	2.39638	0
0.4027	-9.37679	42.7587	13.9293	-3.08593	4.76605	2.31933	1.23377	9.26667	0.847499	0
0.4033	49.5188	66.3122	8.74255	-9.7721	4.45804	0.793454	0.303698	8.97249	-0.0584482	0.321663
0.4040	69.6673	-5.16365	5.69469	-12.5415	2.9342	-0.732419	-1.21479	7.74674	-1.5781	0
0.4047	52.3086	-25.9089	-3.76972	-9.17866	2.62619	0.793454	-0.911093	-14.5129	-0.672155	0
0.4053	30.9202	-2.71771	-15.373	-6.40923	4.15003	3.23485	1.84117	-42.9013	2.39638	0
0.4060	17.2037	-7.519	-31.548	-7.04225	3.226	1.4038	0.303698	-45.3528	2.07491	0
0.4067	10.7717	-38.048	-36.7348	-14.3614	1.41036	-0.427244	-2.42958	-25.8388	0.263017	0
0.4073	5.88956	-66.4934	-29.7033	-38.1785	-0.129689	-1.34277	-2.42958	-32.2127	-1.28586	0
0.4080	5.57958	-84.7926	-19.9448	-60.769	-1.03751	-1.03759	-1.51849	-66.3866	-0.350689	0
0.4087	8.05939	-93.9422	-5.61448	-64.7254	0.486332	3.54003	2.75226	-78.3009	2.68862	0
0.4093	1.93735	-130.269	9.03664	-48.8605	0.794342	5.37107	4.57444	-81.0466	3.59457	0.321663
0.4100	-5.3471	-158.896	19.116	-9.17866	-0.129689	3.23485	2.44856	-113.701	2.39638	0
0.4107	-8.75684	-84.4303	12.4053	14.0054	-0.129689	1.4038	0.607395	-129.586	-0.0584482	0
0.4113	-8.44686	5.25424	0.187149	11.869	-0.729498	-0.427244	-1.21479	-73.7411	-3.41922	0.321663
0.4120	-2.32483	19.2958	1.09616	23.461	0.178322	1.09863	-0.303698	6.81517	-2.80551	0.321663
0.4127	5.03712	4.07657	4.17076	30.5032	2.01017	3.54003	2.44856	59.9147	-0.672155	0
0.4133	13.5615	-27.7207	4.17076	16.1418	2.01017	2.92968	2.44856	95.6576	-0.672155	0
0.4140	19.916	-24.0065	7.21862	-0.633011	2.01017	2.01415	1.84117	104.777	-1.28586	0
0.4147	14.8014	42.7587	4.46485	-16.8144	1.41036	-0.427244	0	75.5062	-4.32517	0.321663
0.4153	11.7016	115.775	-1.33678	-33.9056	2.01017	-1.95312	-1.82219	44.6663	-6.77999	0
0.4160	23.3257	146.575	0.802069	-43.9547	4.76605	0.183105	0.930074	21.181	-5.55258	0
0.4167	33.09	91.0434	4.17076	-48.2275	5.05785	0.488279	2.75226	5.63845	-5.84482	0.321663
0.4173	24.2557	8.60609	-0.106943	-51.9069	3.226	-1.34277	0.607395	23.3383	-7.97818	0.321663
0.4180	9.2993	-24.6406	1.09616	-68.0882	2.9342	-3.17382	-0.911093	46.5295	-9.52706	0.321663
0.4187	10.7717	-20.6546	16.683	-72.361	3.226	-5.00486	-3.05596	44.9605	-12.5664	0
0.4193	18.1336	-38.048	22.7788	0.276942	3.53401	-3.17382	-3.05596	60.8463	-10.433	0
0.4200	13.8715	-143.405	7.51271	71.6885	3.84202	0.488279	0	105.709	-5.23112	0
0.4207	5.2696	-258.726	-6.2294	41.5018	4.15003	1.70898	0.607395	154.837	-6.77999	0
0.4213	-1.39489	-291.701	-14.1431	-7.9522	3.53401	0.488279	-0.607395	190.236	-8.91335	0
0.4220	-9.91925	-283.095	-22.6985	-22.5906	1.41036	-1.95312	-2.42958	172.537	-7.3937	0.321663
0.4227	-13.639	-267.604	-12.6192	-10.6821	-0.421488	-4.08934	-3.96705	98.9916	-5.55258	0.321663
0.4233	-7.20696	-326.125	13.6084	26.5469	-0.129689	-1.34277	-1.82219	10.4924	-2.48405	0.321663
0.4240	-12.3991	-433.294	22.1638	28.3668	0.794342	3.54003	2.75226	-50.2558	3.30232	0.321663
0.4247	-36.4998	-257.82	12.4053	0.276942	-0.729498	5.0659	3.96705	-39.5672	10.0239	-0.321663
0.4253	-19.1411	134.98	7.83354	8.50608	-2.56135	5.37107	3.66335	7.74674	15.8102	-0.96499
0.4260	55.9508	242.963	8.42172	36.0025	-3.17737	3.8452	2.14486	12.6497	16.1317	-0.643327
0.4267	127.4	119.398	8.42172	67.0991	-3.77718	2.92968	1.23377	8.67831	13.9691	0
0.4273	160.025	122.478	6.89779	101.005	-2.25334	5.98142	5.20082	42.5581	15.1965	-0.321663
0.4280	159.406	181.362	0.802069	120.232	-2.56135	7.5073	7.3267	65.406	15.1965	-0.321663
0.4287	183.816	112.966	-7.13841	118.69	-5.00922	5.0659	4.89712	51.6776	11.5435	0
0.4293	193.89	-17.3028	-9.27726	85.7334	-6.53306	2.01415	2.14486	35.4977	6.6631	0
0.4300	26.348	-95.1199	-8.66234	35.686	-5.91704	1.70898	1.23377	49.8635	4.82198	0
0.4307	-203.112	-110.973	-10.4804	10.6425	-1.96154	3.23485	3.96705	70.6032	6.95534	0
0.4313	-247.051	-94.214	-10.1863	14.6384	2.01017	3.23485	5.80822	60.8463	7.2768	0
0.4320	-167.697	-6.6131	-6.2294	17.6847	2.01017	1.4038	4.57444	32.1637	8.79646	0
0.4327	-90.2032	156.359	-0.106943	12.502	1.10235	-1.34277	1.53747	13.2381	14.5828	0
0.4333	-30.0677	272.315	12.6994	9.13909	1.41036	-2.56347	0.303698	15.6896	13.3846	0
0.4340	-6.89698	263.165	26.7356	7.91263	2.9342	-1.34277	1.53747	33.3894	7.2768	0.321663
0.4347	46.8065	232.002	31.0133	6.09273	3.226	-0.427244	2.44856	51.6776	4.20827	0.321663
0.4353	203.035	261.263	28.8745	5.77622	3.226	-0.427244	3.35965	51.3835	3.91603	0
0.4360	350.119	270.412	12.4053	6.68618	3.226	-0.732419	3.05596	20.2494	3.01008	0
0.4367	350.119	225.298	-15.6671	3.04636	0.486332	-2.86864	-0.303698	-17.6018	0.555258	0
0.4373	204.895	155.363	-24.5166	-3.08593	-3.48538	-3.17382	-1.82219	-31.9185	-2.80551	0
0.4380	1.93735	67.2181	-18.4208	8.50608	-5.31723	0.488279	1.53747	-29.8103	-2.48405	0
0.4387	-147.859	-14.8568	-23.9284	32.6396	-5.91704	3.54003	4.57444	6.52099	-0.672155	0
0.4393	-306.567	-90.8622	-35.5049	32.6396	-7.44088	2.01415	3.05596	97.1775	-3.41922	0
0.4400	-549.821	-140.325	-29.4092	14.9153	-8.98093	-1.03759	0.303698	183.519	-7.68594	0.321663
0.4407	-642.582	-164.15	3.23501	12.1855	-8.67292	-0.732419	0.930074	225.636	-7.68594	0.321663
0.4413	-433.502	-202.288	28.5804	18.5947	-6.84107	1.70898	3.05596	230.539	-5.55258	0
0.4420	-147.316	-162.882	21.8697	16.1418	-4.3932	3.8452	4.57444	205.828	-4.32517	0
0.4427	-17.5912	-44.4799	8.12763	8.50608	-3.17737	1.70898	3.35965	165.525	-4.32517	0
0.4433	34.0199	19.5675	11.1755	2.41335	-3.77718	-2.25829	-0.303698	89.823	-5.84482	0.321663
0.4440	112.134	42.4869	18.7951	-0.0395632	-3.77718	-2.86864	-0.911093	-37.4099	-5.84482	0
0.4447	140.807	59.6085	18.7951	0.909953	-1.96154	-0.732419	2.44856	-146.649	-1.5781	0
0.4453	92.2956	29.7137	16.3622	1.81991	-1.03751	-0.12207	3.66335	-166.212	4.52974	0
0.4460	17.5137	19.9299	6.6037	1.5034	-0.421488	-1.64794	1.84117	-136.303	7.56904	0
0.4467	-38.3596	117.858	-9.27726	-0.633011	0.178322	-3.78417	-0.303698	-105.464	6.34163	0
0.4473	-52.696	185.892	-15.0789	-3.36287	-0.129689	-4.39451	-2.12588	-55.4039	4.82198	0
0.4480	-39.522	126.374	-18.4208	-3.99588	-1.65353	-3.78417	-1.21479	-2.01023	2.39638	0.321663
0.4487	-19.6835	95.9352	-47.1082	-3.99588	-2.25334	-2.25829	0	14.758	0.263017	0
0.4493	5.57958	134.98	-68.4699	-4.27282	-1.65353	-1.03759	0.303698	16.6212	-0.350689	0
0.4500	17.8237	103.182	-30.639	-5.81579	-1.65353	-1.64794	-0.911093	33.0953	-0.964396	0.321663
0.4507	-2.01485	46.4729	4.46485	-8.2687	-2.56135	-1.34277	-3.35965	32.1637	-2.80551	0.321663
0.4513	-25.4956	27.8113	-6.81758	-8.86215	-1.96154	3.54003	-4.57444	8.04092	-3.09776	0
0.4520	-16.9712	-61.2391	16.0681	-7.04225	-0.129689	9.33834	-3.66335	-5.3933	-0.964396	0.321663
0.4527	1.3174	-191.87	56.6528	-5.49928	1.41036	12.3901	-4.27075	-9.3157	1.16896	0
0.4533	-7.51693	-220.588	52.99	-7.35875	1.10235	12.3901	-5.48554	32.4579	0.847499	0
0.4540	-24.3332	-177.195	43.5256	-10.0886	0.178322	10.559	-7.02301	156.7	-0.350689	0.321663
0.4547	-29.7578	-136.61	24.3027	-10.0886	0.486332	8.42282	-6.09293	225.048	-0.0584482	0
0.4553	-34.3299	-5.16365	-18.1268	-10.6821	2.01017	5.37107	-3.35965	125.566	0.847499	-0.96499
0.4560	-38.6696	188.972	-33.6869	-12.5415	3.226	2.31933	-2.42958	-33.7327	0.263017	-0.643327
0.4567	-40.142	234.448	-12.6192	-12.5415	3.226	-0.427244	-2.12588	-161.946	0.263017	0.321663
0.4573	-31.3076	140.415	18.5011	-11.3151	2.9342	-4.39451	0	-247.994	1.16896	0
0.4580	-11.7791	54.3542	44.1405	-11.6316	2.62619	-6.53074	1.23377	-225.685	1.46121	0
0.4587	1.00742	45.8387	39.2479	-11.3151	2.9342	-9.27731	0.303698	-93.5493	0.847499	0.321663
0.4593	5.2696	116.046	8.74255	-9.49516	3.226	-18.7377	2.14486	-34.0759	0.847499	0
0.4600	9.2993	178.916	-12.3251	-7.9522	3.53401	-25.7567	6.41561	-136.009	1.16896	0
0.4607	6.81949	174.296	-14.7581	-6.72574	3.226	-21.1791	11.2938	-247.7	0.847499	0
0.4613	4.10719	145.941	1.41699	-5.22234	2.62619	-13.8549	13.1349	-276.039	0.847499	0
0.4620	9.91925	142.318	27.0565	-4.90583	2.62619	-9.58248	12.8312	-245.837	1.16896	0
0.4627	13.8715	131.9	50.2362	-5.22234	2.31818	-9.27731	13.1349	-144.54	0.847499	0.321663
0.4633	13.5615	69.664	41.3868	-6.72574	1.10235	-11.1084	12.2048	-48.3926	-0.964396	0
0.4640	15.6538	-9.05904	-9.89218	-5.81579	2.31818	-7.75143	10.079	-38.0473	0.263017	0
0.4647	35.4923	-93.0363	-35.2108	-5.81579	-0.729498	2.92968	10.3827	-45.9411	-1.5781	0
0.4653	45.8765	-127.189	-27.8853	-5.49928	6.28989	-3.78417	3.96705	-14.5129	2.07491	-0.321663
0.4660	38.9021	-111.607	-10.8012	5.45972	4.15003	0.793454	1.23377	31.5753	2.07491	-0.321663
0.4667	121.588	-232.817	49.9422	-32.0462	-34.6106	36.1937	22.2838	-16.0328	-30.8899	0
0.4673	147.549	-210.804	74.0577	-66.2288	-1.96154	-5.00486	5.80822	-60.6011	-11.6604	0.321663
0.4680	54.7109	-4.16716	52.99	-4.27282	38.0312	-41.3206	-25.0171	6.52099	26.5063	0
0.4687	64.1652	-36.5079	79.5385	26.5469	-1.03751	0.488279	-7.6304	18.1411	0.847499	0
0.4693	84.9336	-105.538	76.1698	4.23326	-9.27273	8.42282	1.23377	-6.57002	-7.97818	0
0.4700	47.7364	19.5675	25.5325	1.1869	0.486332	-0.427244	-5.48554	14.758	-0.350689	0
0.4707	26.348	148.115	-4.38464	-1.54296	-4.3932	-1.34277	-6.39663	47.7062	-4.32517	0
0.4713	10.4617	22.3758	-20.2656	-3.67938	-3.77718	-2.86864	-5.78923	87.0773	-3.71146	0
0.4720	0.697447	-291.701	-19.3299	-2.76942	-3.17737	-0.12207	-1.21479	101.443	-2.48405	0
0.4727	19.6835	-518.449	7.21862	-4.27282	-4.70121	-4.39451	3.05596	78.8403	-3.41922	0
0.4733	46.8065	-592.914	15.1324	-6.72574	-6.22505	-12.3291	4.27075	77.0262	-4.64663	0
0.4740	51.9986	-548.615	-18.7417	-6.40923	-7.14908	-15.0756	4.57444	91.9803	-4.64663	0
0.4747	42.5443	-390.535	-59.9145	-3.67938	-5.31723	-14.7705	5.80822	42.8522	-3.09776	0
0.4753	40.3745	-244.413	-77.3194	-3.67938	-1.34552	-16.6015	1.23377	-29.467	-1.5781	0
0.4760	63.0028	-210.532	-54.7278	-7.04225	2.01017	-19.3481	-5.48554	-45.9411	-1.28586	0
0.4767	92.9155	-120.757	-21.1746	-7.9522	2.31818	-22.3998	-4.57444	-42.9013	-0.672155	0
0.4773	103.3	81.5314	-14.7581	-6.40923	1.70216	-25.1464	0	-42.6071	-0.0584482	-0.321663
0.4780	103.61	186.526	1.41699	-5.81579	3.226	-23.6205	1.53747	-27.3587	0.555258	0
0.4787	98.9601	213.703	35.9059	-7.35875	5.05785	-15.9911	0.607395	-2.01023	1.78267	0.321663
0.4793	78.8891	296.412	38.633	-8.54565	4.45804	-6.83591	-0.911093	15.9838	1.46121	0.321663
0.4800	35.1824	334.55	22.7788	-8.86215	3.226	-0.732419	-3.35965	9.90406	-0.0584482	0
0.4807	-30.3777	322.049	13.9293	-8.86215	2.31818	-1.03759	-3.35965	9.56085	-0.672155	0
0.4813	-76.7967	303.115	2.62009	-7.04225	1.41036	-2.56347	0	71.5348	1.16896	0
0.4820	-82.6088	207.271	-7.13841	-3.67938	0.794342	2.31933	3.35965	198.179	3.59457	0
0.4827	-83.5387	113.872	-13.5282	-0.316505	0.486332	1.4038	9.77526	315.998	5.43568	0
0.4833	-94.4654	103.817	-16.282	-0.0395632	-2.56135	-13.8549	14.3497	336.738	4.20827	0
0.4840	-99.9675	82.1655	-15.6671	-2.17597	-5.00922	-15.0756	10.6864	293.69	1.78267	0
0.4847	-97.2552	16.578	-21.4687	-0.949516	-2.86936	2.01415	6.41561	221.076	2.07491	0
0.4853	-86.561	52.9048	-33.072	-0.0395632	0.486332	9.64352	2.14486	76.4378	2.39638	-0.643327
0.4860	-58.1981	209.445	-32.163	-3.67938	2.62619	9.64352	-2.12588	-100.904	1.46121	-0.96499
0.4867	-17.5912	265.611	-18.7417	-6.72574	2.31818	9.94869	-3.35965	-216.566	-0.350689	-0.321663
0.4873	5.2696	177.376	-17.191	-6.13229	0.794342	-0.732419	-3.66335	-216.566	-1.28586	0.321663
0.4880	8.98932	85.5173	-11.4161	-3.99588	-0.421488	-11.7187	0.303698	-148.512	-0.964396	0
0.4887	13.2515	16.578	34.0612	-2.76942	-0.421488	-3.78417	6.41561	-85.9496	-0.350689	0
0.4893	19.3735	-38.6821	78.9236	-2.45292	-1.96154	4.45555	7.02301	-6.57002	-0.0584482	0.321663
0.4900	15.3438	-86.6044	66.1172	-1.85947	-6.53306	-9.88766	0.930074	81.5859	-0.0584482	0.321663
0.4907	-1.70487	-223.939	31.0133	-2.45292	-9.88875	-27.2826	-4.87814	161.848	-1.28586	0
0.4913	-17.5912	-463.189	26.4415	-4.27282	-12.0286	-24.2309	-5.18184	234.167	-2.48405	-0.321663
0.4920	-28.9053	-577.967	42.2958	-6.13229	-12.3366	-15.9911	-7.6304	234.511	-2.80551	-0.321663
0.4927	-52.3861	-470.164	41.7076	-6.40923	-10.1968	-13.8549	-13.1159	165.525	-2.48405	-0.321663
0.4933	-73.4645	-418.981	0.187149	-6.13229	-7.74889	-9.27731	-16.1719	20.5436	-1.5781	-0.321663
0.4940	-80.129	-467.809	-55.3428	-9.17866	-7.44088	-7.14109	-17.083	-151.258	-1.5781	-0.321663
0.4947	-80.129	-337.721	-84.9391	-9.17866	-6.84107	-9.58248	-13.1159	-227.842	-0.964396	0.321663
0.4953	-66.1025	-17.6651	-70.3147	-3.99588	-4.70121	-7.75143	-5.48554	-227.548	1.78267	-0.321663
0.4960	-56.3383	334.822	-33.072	-1.54296	-2.56135	9.94869	-3.05596	-136.303	3.59457	-0.643327
0.4967	-57.8881	439.816	-10.1863	-0.316505	-0.729498	30.3954	-1.51849	61.4836	5.14344	0.321663
0.4973	-46.574	266.155	2.94092	-0.949516	-0.421488	21.5453	4.27075	174.4	2.39638	0
0.4980	-36.4998	230.824	5.37386	-4.27282	-0.421488	4.15037	7.02301	120.075	-1.5781	-0.321663
0.4987	-46.574	387.636	-0.106943	-4.90583	0.794342	8.72799	2.14486	74.8688	-0.0584482	0
0.4993	-59.6705	455.126	-5.90857	-4.58933	1.41036	16.9677	-4.57444	87.7147	1.16896	0.321663
0.5000	-56.3383	384.013	-29.1151	-4.58933	-0.729498	20.0195	-2.42958	68.1517	1.16896	0
0.5007	-38.3596	310.091	-66.037	-3.08593	-3.77718	20.3246	1.23377	22.1125	1.78267	-0.321663
0.5013	-18.2111	301.847	-95.6333	-3.36287	-4.3932	20.935	-9.14889	-2.9418	-0.0584482	0
0.5020	1.00742	285.088	-91.6765	-5.49928	-3.77718	31.6161	-24.106	12.9439	-1.89957	0.321663
0.5027	13.2515	206.999	-43.1513	-7.9522	-3.77718	41.6869	-31.4327	69.7207	-3.41922	0
0.5033	15.6538	119.398	28.2596	-7.63569	-3.48538	43.8231	-30.5216	137.774	-3.71146	0
0.5040	19.6835	7.70018	131.406	-1.85947	-2.86936	45.6541	-23.4986	149.64	-1.5781	0
0.5047	22.7058	-164.422	209.233	2.41335	-3.77718	41.6869	-19.2278	82.2233	-0.672155	0.321663
0.5053	16.5838	-277.931	164.077	1.1869	-5.00922	29.785	-14.027	-13.2871	-1.89957	0
0.5060	12.6315	-319.15	87.479	1.81991	-7.14908	14.8315	1.84117	-78.0068	-0.350689	0
0.5067	8.36937	-369.79	52.99	3.63981	-11.7206	1.4038	19.2278	-62.121	1.78267	0.321663
0.5073	-2.6348	-353.031	-1.9517	4.54977	-11.7206	-8.66696	28.073	7.45256	3.01008	0.321663
0.5080	-5.3471	-254.468	-36.4407	3.95632	-7.14908	-31.8602	30.2179	58.1006	2.07491	0
0.5087	-7.51693	-214.79	1.71108	0.909953	-4.70121	-54.4431	32.3628	140.814	-0.964396	0.321663
0.5093	-15.7313	-180.909	29.1953	-2.17597	-4.08519	-53.5276	35.3997	279.373	-1.5781	0.321663
0.5100	-25.4956	-11.8673	-5.61448	-4.90583	-4.3932	-55.969	30.8253	286.678	-2.19181	0
0.5107	-49.9062	-15.7627	-48.0172	-6.72574	-3.17737	-59.0208	20.7653	160.328	-3.09776	0
0.5113	-69.1248	-302.391	-67.2401	-6.40923	-0.729498	-29.724	8.54149	152.385	-1.89957	0.321663
0.5120	-63.9327	-487.014	-87.0779	-5.22234	0.794342	20.935	-6.09293	239.365	-1.89957	0
0.5127	-67.0325	-489.098	-96.8632	-2.17597	0.178322	65.1853	-12.5085	237.55	-1.5781	0
0.5133	-80.4389	-396.695	-65.4221	1.81991	-1.34552	82.5802	-1.51849	135.911	1.78267	0
0.5140	-74.0069	-212.072	-37.6438	2.41335	0.486332	72.2043	11.9011	-27.9471	3.91603	0
0.5147	-67.3424	-23.4629	-41.0125	3.04636	5.05785	49.6214	11.5974	-230.588	5.14344	0
0.5153	-70.9847	123.656	-38.2587	5.77622	7.50572	28.2592	7.6304	-403.615	5.43568	-0.96499
0.5160	-64.5526	281.102	-35.2108	6.36967	7.50572	26.1229	17.102	-436.906	4.82198	-0.96499
0.5167	-58.5081	423.057	-47.4023	5.77622	8.72155	34.3627	21.6764	-384.395	3.91603	0
0.5173	-52.0761	450.506	-38.2587	2.72986	9.33757	33.142	11.2938	-385.621	2.07491	0.321663
0.5180	-19.6835	360.187	-10.1863	0.593448	5.98188	32.2264	6.71931	-387.778	2.07491	0.321663
0.5187	31.5401	324.495	9.94565	-0.0395632	0.486332	23.0712	6.41561	-326.099	2.39638	0
0.5193	76.0993	377.853	59.9948	-0.0395632	-4.08519	-13.5498	4.27075	-226.617	-0.350689	-0.321663
0.5200	102.68	359.916	121.647	0.276942	-5.91704	-62.0725	4.57444	-140.569	-3.41922	-0.321663
0.5207	109.344	273.855	105.793	-5.81579	-6.22505	-91.3693	-0.911093	-98.1581	-7.07223	0
0.5213	94.3879	197.215	62.7485	-10.4051	-3.77718	-87.7072	-9.75628	-24.2699	-7.68594	0
0.5220	56.2608	106.897	64.5933	-6.13229	-2.25334	-61.7673	-11.5974	70.6032	-3.41922	0
0.5227	26.968	-29.2607	62.4544	-3.36287	-5.31723	-38.2689	-12.8122	123.114	-2.80551	0.321663
0.5233	26.038	-177.829	51.4661	0.276942	-11.4126	-33.9965	-15.2608	208.868	-4.32517	0.321663
0.5240	17.5137	-277.025	0.802069	4.86627	-13.8605	-39.1844	-13.7233	358.704	-4.93887	0.321663
0.5247	-0.154988	-361.546	-90.4466	3.04636	-10.1968	-19.0429	-8.2378	455.146	-6.45853	0
0.5253	-17.9012	-436.918	-95.9274	-3.99588	-4.70121	5.67625	-3.05596	421.854	-7.3937	0
0.5260	-56.0283	-373.142	-55.9577	-13.4515	-3.48538	-10.498	-3.66335	331.247	-9.52706	0
0.5267	-88.6533	-161.342	-76.4104	-15.5879	-3.17737	-28.8085	-5.78923	213.428	-9.8193	0
0.5273	-92.683	108.437	-107.237	-12.5415	0.794342	-22.3998	-5.48554	-31.6244	-7.97818	0
0.5280	-82.9188	308.642	-91.3556	-11.3151	3.84202	-15.0756	-0.303698	-383.17	-7.3937	-0.321663
0.5287	-54.1684	368.431	-38.8736	-6.13229	3.84202	-7.14109	12.2048	-593.459	-4.32517	0
0.5293	-11.7791	369.609	4.46485	-2.17597	0.794342	1.4038	13.4386	-529.377	-3.09776	0
0.5300	25.1081	318.697	14.8383	-4.58933	-2.56135	6.2866	-0.607395	-337.425	-5.84482	0
0.5307	56.8807	154.819	2.326	-7.35875	-3.48538	4.45555	-13.4196	-187.883	-9.2056	0
0.5313	67.5749	-95.7541	-25.1315	-9.49516	-4.08519	-6.83591	-19.5315	-118.309	-11.0467	0
0.5320	53.5485	-316.432	-79.4583	-7.63569	-4.08519	-10.498	-20.7463	-77.0752	-8.59189	0
0.5327	55.6408	-478.77	-145.068	-3.08593	-3.17737	-4.39451	-21.05	-30.1044	-5.55258	0.321663
0.5333	84.3137	-640.202	-160.628	-1.22646	-3.17737	-7.14109	-24.4097	38.2924	-5.84482	0.321663
0.5340	104.462	-734.779	-120.658	-1.22646	-1.03751	-16.9067	-27.4656	133.46	-6.16629	0.643327
0.5347	94.3879	-701.26	-81.303	-1.54296	4.45804	-23.3153	-31.7364	187.491	-5.55258	0.321663
0.5353	60.213	-508.031	-57.8024	0.593448	9.64558	-21.7895	-34.4887	175.92	-3.71146	0
0.5360	25.1081	-86.6044	-41.9215	4.23326	13.0013	-19.9584	-24.7134	204.602	0.555258	0
0.5367	-0.464965	294.238	-60.8503	7.00268	16.665	-32.1654	-4.87814	229.608	3.91603	0
0.5373	-25.1856	296.684	-94.4035	8.22914	19.4046	-39.4896	13.7423	110.269	4.82198	0
0.5380	-52.0761	174.296	-57.8024	7.31919	17.8808	-17.517	21.9801	-5.3933	3.01008	0
0.5387	-58.5081	149.021	20.6399	6.68618	13.3093	-0.732419	22.2838	15.3954	1.46121	0
0.5393	-33.4775	47.3788	46.8943	7.91263	12.3853	-13.5498	23.8023	41.0381	4.52974	0.321663
0.5400	-17.9012	-9.4214	27.3505	3.04636	13.6173	-30.3344	21.069	-0.19612	5.75715	0
0.5407	-25.1856	152.011	2.62009	-3.08593	14.2171	-26.6723	17.7094	-94.1867	3.30232	-0.321663
0.5413	-23.0933	353.484	1.09616	-2.45292	12.3853	2.01415	23.4986	-198.572	3.30232	0
0.5420	-11.1592	413.273	41.0927	-0.316505	23.0683	27.954	26.2509	-217.448	3.01008	0
0.5427	7.43944	275.667	87.1581	0.909953	48.4062	27.954	22.5875	-191.217	1.78267	0
0.5433	33.71	69.0299	107.932	3.32331	57.2575	24.5971	21.9801	-197.346	2.39638	0
0.5440	44.9466	25.0935	127.449	3.04636	54.8096	43.5179	21.6764	-156.455	1.16896	0
0.5447	42.5443	96.8411	143.624	2.72986	55.7174	71.594	22.2838	-63.9842	-0.350689	0
0.5453	43.4742	134.346	134.774	7.00268	44.4345	86.5475	24.7324	-20.3475	0.555258	-0.96499
0.5460	44.9466	133.44	110.98	9.4556	30.7038	91.1251	26.8582	-20.9358	2.68862	-0.96499
0.5467	48.9763	59.6085	69.78	7.91263	22.7603	85.9372	25.0361	10.1982	4.20827	0
0.5473	61.1429	7.06605	30.7192	4.54977	16.357	73.1198	18.3168	84.6748	3.30232	0
0.5480	74.5494	98.0188	9.35747	-0.316505	18.4968	72.5095	15.8682	158.22	1.46121	0.321663
0.5487	80.9814	163.063	-27.2703	-1.54296	13.9091	68.5422	21.069	194.208	1.16896	0.321663
0.5493	79.7415	97.1129	-77.0253	1.1869	2.9342	29.4799	19.5315	234.167	3.01008	0
0.5500	77.0292	64.7721	-93.4945	2.72986	0.794342	-18.7377	3.96705	346.789	4.82198	0
0.5507	80.9814	115.14	-61.4652	4.86627	-0.421488	-32.7758	-6.09293	433.769	6.04939	0
0.5513	76.0993	169.766	-31.8421	6.09273	-15.0763	-5.31004	-0.911093	380.081	3.59457	0
0.5520	52.6185	174.024	-1.01595	3.95632	-40.1062	40.4662	0.930074	233.285	-1.5781	-0.321663
0.5527	25.7281	-27.9924	99.0555	1.1869	-51.3891	56.3352	-0.911093	123.409	-3.41922	0
0.5533	-2.94478	-349.317	216.264	0.593448	-29.4231	56.9456	2.14486	80.066	-2.19181	0.321663
0.5540	-34.3299	-407.385	251.662	4.86627	11.1694	73.1198	1.53747	17.5037	-0.672155	0.321663
0.5547	-53.9359	-281.917	200.998	11.869	37.7231	81.6647	-17.083	-62.7584	-0.0584482	0
0.5553	-37.7397	-315.164	134.774	15.2318	50.5299	96.6183	-41.189	-182.392	-1.5781	0
0.5560	15.6538	-566.371	132.635	14.6384	63.6609	134.155	-43.3338	-333.453	-2.48405	-0.321663
0.5567	68.8148	-870.936	145.763	11.869	66.7085	164.977	-21.9611	-381.65	-2.80551	0
0.5573	90.7457	-780.527	104.563	12.502	57.5493	201.598	4.57444	-363.361	-0.964396	0.321663
0.5580	78.8891	-248.308	93.8688	18.0012	48.0982	250.731	29.0031	-350.516	3.59457	0
0.5587	41.9243	298.495	126.54	18.5947	39.247	270.873	52.5017	-234.854	6.95534	0.321663
0.5593	10.1517	732.514	98.1465	9.73254	31.6116	188.171	63.7955	-11.1788	6.04939	0.321663
0.5600	-2.94478	879.905	18.207	0.276942	26.424	28.5643	62.258	200.631	2.39638	0
0.5607	-3.87471	692.835	-37.6438	-2.17597	21.5445	8.42282	57.9872	404.498	-1.28586	0
0.5613	10.4617	543.542	-56.8667	-1.22646	-1.03751	141.784	47.9273	553.402	-5.23112	0.321663
0.5620	21.7759	535.027	-110.899	2.41335	-33.9946	261.107	53.1091	518.934	-5.23112	0
0.5627	33.71	329.024	-181.695	7.00268	-53.2209	324.279	81.1821	353.212	-0.672155	-0.321663
0.5633	65.0951	-129.635	-168.862	4.54977	-90.7657	281.859	85.1492	209.162	0.847499	0
0.5640	74.0069	-456.213	-158.489	-1.22646	-113.04	128.051	56.1651	184.451	-2.19181	0
0.5647	21.7759	-541.912	-201.212	-7.35875	-71.8474	-12.0239	13.1349	200.631	-6.45853	-0.321663
0.5653	-44.4042	-582.859	-183.219	-16.4978	-32.7788	-81.2985	-33.8623	181.411	-10.433	0
0.5660	-87.4909	-593.82	-129.801	-20.4542	-9.27273	-145.385	-62.258	197.885	-11.339	0.321663
0.5667	-112.212	-383.832	-105.713	-11.6316	10.5534	-233.275	-57.9872	178.322	-9.2056	0.321663
0.5673	-107.949	12.5921	-69.379	-0.949516	5.36586	-310.179	-39.9742	-45.6469	-7.68594	0
0.5680	-87.8009	291.52	-34.89	2.72986	17.8808	-400.816	-34.166	-353.899	-7.97818	0
0.5687	-78.3466	297.318	-14.7581	5.18278	54.1936	-500.914	-44.5486	-462.206	-8.29965	0.321663
0.5693	-74.9369	126.102	10.2665	3.32331	60.6132	-473.753	-64.3839	-446.958	-13.1801	0
0.5700	-53.9359	8.87786	2.94092	-2.17597	45.9584	-324.217	-83.0043	-483.877	-20.5153	0
0.5707	-27.0455	-28.3548	-38.8736	-2.17597	39.247	-190.856	-89.7236	-464.363	-22.9409	0
0.5713	-30.0677	-166.233	-69.9939	-5.49928	32.8436	-103.881	-81.7895	-334.679	-22.9409	0
0.5720	-54.1684	-462.555	-81.5971	-18.0408	19.7127	-54.7483	-61.6316	-217.448	-24.4606	0.321663
0.5727	-53.9359	-763.768	-95.3392	-21.6806	-3.48538	-27.893	-35.7034	-142.089	-23.2624	0.321663
0.5733	-22.1633	-861.786	-74.5657	-7.9522	-9.27273	-4.39451	-12.5085	-80.4583	-18.9664	0
0.5740	0.697447	-878.183	1.71108	3.32331	0.178322	6.89695	-3.66335	-20.3475	-15.9271	0.321663
0.5747	-5.96705	-1023.22	74.6459	2.41335	-11.4126	-13.5498	-5.48554	146.306	-15.6057	0.321663
0.5753	-26.7355	-1057.64	122.262	0.276942	-18.432	-88.6227	2.14486	328.207	-12.2741	-0.643327
0.5760	-66.4125	-455.579	127.155	-4.58933	-18.124	-182.616	15.8682	403.566	-7.97818	-0.643327
0.5767	-115.234	516.456	171.402	-15.9044	-40.1062	-197.875	16.7983	399.595	-9.2056	0.321663
0.5773	-133.212	913.423	301.391	-24.727	-55.9768	-148.437	13.7423	251.279	-10.433	0.321663
0.5780	-139.954	728.256	323.688	-25.6369	-43.7699	-135.009	20.4426	134.391	-8.91335	0
0.5787	-152.199	694.375	180.252	-19.2277	-29.4231	-153.625	23.8023	110.269	-5.84482	0
0.5793	-133.832	940.6	15.4532	-14.6779	-26.0674	-151.489	11.5974	-99.0406	-5.23112	0
0.5800	-95.7053	1016.33	-76.7045	-14.0449	-22.4037	-116.394	-3.96705	-380.13	-7.97818	0
0.5807	-74.9369	923.569	-105.713	-11.6316	-12.9364	-59.3259	-11.5974	-382.875	-9.2056	0
0.5813	-75.5568	965.331	-136.833	-8.86215	-10.5048	-8.05661	-20.7463	-154.886	-9.8193	0
0.5820	-70.9847	991.603	-156.377	-6.40923	-6.84107	23.9867	-32.0401	-7.79577	-9.52706	0
0.5827	-33.7875	807.251	-133.785	-1.85947	13.0013	49.6214	-30.8253	-76.781	-6.77999	0
0.5833	5.03712	541.187	-111.808	5.18278	21.5445	73.1198	-18.9242	-182.392	-4.32517	0.321663
0.5840	14.4914	250.664	-95.0184	11.2755	-1.34552	100.586	-14.3307	-105.169	-3.71146	0.321663
0.5847	24.7981	-120.213	-44.3544	12.502	-20.8799	134.46	-22.8912	98.9916	-5.55258	0.321663
0.5853	69.9772	-507.125	42.2958	14.9153	-16.9081	155.822	-32.9512	230.833	-4.93887	0
0.5860	154.833	-889.507	117.369	22.8675	-16.9081	168.334	-23.8023	228.382	-0.350689	0
0.5867	248.214	-1259.66	148.811	29.8702	-25.4514	156.127	7.02301	208.868	3.91603	0
0.5873	288.511	-1486.41	119.829	32.6396	-24.5436	72.8147	23.1949	265.007	5.43568	0
0.5880	224.423	-1296.62	45.3704	28.3668	-15.3843	-7.14109	14.3497	369.098	4.82198	-0.321663
0.5887	65.715	-772.646	-36.1198	15.8648	-10.1968	-13.8549	12.2048	501.528	5.14344	-0.321663
0.5893	-109.112	-393.344	-108.761	1.5034	-14.1685	-17.2118	14.3497	652.884	3.59457	0
0.5900	-245.889	-166.233	-81.5971	-1.54296	-23.9275	-50.4759	7.3267	808.211	2.68862	0.321663
0.5907	-332.837	71.2041	-66.037	7.00268	-33.9946	-110.595	-1.51849	876.608	6.6631	0.321663
0.5913	-340.742	427.043	-259.817	1.81991	-31.8547	-150.878	-20.1389	670.878	7.89051	0
0.5920	-270.3	845.752	-480.145	-25.0435	-1.65353	-140.197	-42.1001	237.55	3.01008	0
0.5927	-176.609	1005.64	-545.166	-40.9083	34.9673	-132.263	-49.1231	-177.783	1.78267	0
0.5933	-97.2552	936.071	-474.664	-31.1362	41.0788	-129.516	-48.5157	-411.558	2.68862	0
0.5940	-20.3035	802.722	-316.577	-14.6779	30.7038	-102.661	-41.7964	-459.754	2.39638	-0.321663
0.5947	39.212	655.24	-177.738	-5.49928	26.424	-70.9226	-25.3208	-477.798	4.20827	0
0.5953	62.3828	483.753	-59.0055	-3.08593	23.3764	-58.1052	-10.9901	-522.66	3.30232	0.321663
0.5960	74.5494	363.539	54.808	-1.54296	24.9002	-54.138	-2.73328	-416.118	0.847499	0
0.5967	54.1684	372.689	46.8943	-1.85947	28.2559	-52.9173	-1.82219	-149.738	-0.0584482	0
0.5973	16.8937	364.717	8.12763	-2.45292	22.1605	-52.0018	-4.57444	63.8861	-0.0584482	0.643327
0.5980	35.4923	270.412	92.6657	-0.0395632	13.6173	-24.536	-2.12588	199.111	1.46121	0.321663
0.5987	63.0028	-55.8037	205.276	-0.633011	6.28989	16.6625	0.303698	230.833	1.16896	-0.643327
0.5993	50.7587	-501.599	274.227	-1.85947	-4.08519	36.8041	0	71.829	0.263017	-0.321663
0.6000	40.3745	-640.202	318.181	-1.85947	-13.5525	41.992	-0.303698	-91.1468	-1.89957	0
0.6007	48.6663	-761.322	312.085	-4.90583	-16.0003	46.5696	0	-88.9895	-5.55258	0
0.6013	81.6014	-1265.19	291.632	-4.27282	-13.5525	51.7576	2.14486	19.3669	-5.55258	0.321663
0.6020	113.374	-1733.9	313.609	0.909953	-7.74889	55.7249	5.20082	190.874	-1.5781	0.321663
0.6027	87.7234	-1574.01	295.295	1.81991	2.9342	65.1853	8.2378	341.935	-0.350689	0.321663
0.6033	9.60928	-1098.86	192.149	2.09685	16.357	75.8664	7.6304	331.835	-0.672155	0
0.6040	-54.1684	-908.712	81.9714	4.54977	25.5162	77.3923	1.23377	60.5521	2.07491	0
0.6047	-67.6524	-876.372	35.291	5.45972	28.5639	76.7819	-2.73328	-316.979	6.04939	0
0.6053	-53.9359	-799.189	88.388	2.41335	33.4434	63.3542	-1.82219	-407.292	5.14344	-0.643327
0.6060	-56.0283	-611.848	78.3087	0.276942	39.555	36.4989	-3.35965	-203.426	2.39638	-0.643327
0.6067	-116.784	-189.153	-20.2656	-1.54296	34.9673	5.67625	-6.09293	17.7979	1.46121	0
0.6073	-184.514	615.924	4.46485	-4.58933	22.7603	-36.743	-4.57444	42.5581	2.39638	0
0.6080	-169.867	1464.58	56.9469	-4.58933	13.6173	-61.7673	-1.21479	-169.84	3.91603	0
0.6087	-92.993	1682.81	24.0086	-3.08593	10.5534	-50.4759	1.53747	-395.084	5.75715	0.321663
0.6093	-27.0455	1365.11	-17.8059	-3.36287	5.05785	-32.7758	-2.42958	-587.331	4.82198	0.321663
0.6100	9.2993	987.345	-80.9822	-7.04225	-0.129689	-23.3153	-9.75628	-624.888	1.46121	0
0.6107	33.71	787.412	-132.261	-9.49516	2.9342	-19.3481	-2.73328	-405.478	0.555258	0
0.6113	44.4042	859.794	-112.102	-7.04225	11.4774	-10.8032	7.3267	-210.143	3.30232	0.321663
0.6120	28.5179	992.508	-107.531	-5.81579	24.9002	-0.427244	2.44856	-83.4981	7.89051	0.321663
0.6127	-10.5392	912.879	-85.2599	-4.58933	-2.25334	-7.75143	0.607395	-5.05009	12.7709	0.321663
0.6133	-46.884	732.152	47.8033	3.04636	-76.1109	-17.2118	10.3827	-40.1556	17.0377	0
0.6140	-27.9754	640.021	100.606	12.1855	-121.275	4.76072	20.7653	-23.3873	19.4633	0
0.6147	30.9202	517.362	11.4963	15.2318	-122.491	40.7713	26.2509	110.269	18.5573	0
0.6153	45.2566	372.961	-56.8667	14.9153	-112.424	64.2698	29.9142	268.047	14.5828	0
0.6160	13.5615	216.149	-156.056	18.5947	-95.9533	93.5665	37.8483	449.36	13.6769	0.321663
0.6167	-17.2812	-195.585	-253.4	24.094	-58.4085	142.7	47.3009	573.259	16.424	0.321663
0.6173	-28.5953	-483.934	-196.026	18.5947	-8.67292	185.119	44.8713	511.285	13.9691	0.321663
0.6180	19.916	-526.964	-65.4221	2.41335	42.6027	193.969	30.8253	393.515	4.52974	0
0.6187	120.348	-729.615	82.2923	-7.63569	98.4498	187.255	21.3727	295.553	-1.5781	0.321663
0.6193	162.738	-753.078	217.174	-2.17597	117.984	188.171	15.8682	122.82	1.16896	0.321663
0.6200	90.7457	-576.064	204.955	3.04636	82.2712	181.762	-3.66335	99.9232	3.59457	0.321663
0.6207	8.98932	-666.745	175.065	-7.9522	42.6027	148.498	-33.2549	307.761	-3.41922	0
0.6213	-1.70487	-735.685	288.878	-17.7243	32.8436	51.7576	-51.2679	356.546	-12.2741	0
0.6220	3.48724	-621.903	396.917	-16.1813	59.9972	-109.68	-50.3568	233.579	-13.7938	0
0.6227	5.2696	-444.527	374.031	-13.768	102.113	-203.979	-41.4927	213.722	-12.2741	0
0.6233	35.8023	30.6196	240.968	-9.7721	97.8338	-160.034	-35.096	166.751	-8.29965	0.321663
0.6240	70.5972	552.42	110.98	-2.45292	53.8856	-60.8518	-28.073	-193.374	-3.71146	0
0.6247	58.7406	924.747	13.9293	0.909953	39.863	13.0004	-19.8352	-714.612	-1.5781	0
0.6253	-2.32483	1140.8	-110.899	-0.0395632	41.3868	45.3489	-13.1159	-868.714	1.16896	0.321663
0.6260	-49.9062	961.345	-225.649	1.5034	4.45804	66.406	-8.54149	-552.862	4.20827	0.321663
0.6267	-32.5476	771.287	-243.348	2.41335	-38.5823	82.2751	-5.78923	-164.986	8.50422	-0.321663
0.6273	5.03712	774.004	-183.219	-6.72574	-43.1539	22.1557	-3.66335	108.16	11.8358	0
0.6280	1.62738	595.179	-139.266	-20.4542	-34.3026	-139.587	-0.303698	248.827	11.5435	0.321663
0.6287	-11.1592	371.511	-76.7045	-19.2277	-33.3948	-242.431	9.77526	130.42	11.8358	0.321663
0.6293	11.3916	317.429	-2.86071	-5.81579	-25.1434	-188.415	23.8023	-193.374	15.1965	0.321663
0.6300	64.1652	245.138	-6.52349	4.23326	-5.00922	-101.745	26.2509	-458.235	16.7162	0
0.6307	111.204	160.617	-25.7464	10.049	14.2171	-58.1052	20.7653	-489.663	16.1317	0
0.6313	106.012	68.3958	45.6645	11.2755	34.0594	-35.8275	13.1349	-194.257	12.7709	0
0.6320	53.8584	-227.563	125.31	7.59613	52.3617	-27.893	-0.607395	254.319	5.75715	0
0.6327	-2.01485	-669.191	83.4954	7.91263	38.323	-23.9257	-6.09293	441.417	1.78267	-0.321663
0.6333	-63.3902	-1110.46	-72.7476	9.13909	9.95359	-18.1274	1.23377	403.566	0.263017	0
0.6340	-117.714	-1389.11	-263.774	5.45972	20.6367	-12.6342	6.71931	377.923	-1.5781	0.321663
0.6347	-115.234	-1394.01	-311.39	0.909953	20.9285	-2.25829	12.8312	189.942	-1.89957	0
0.6353	-68.8148	-1226.78	-217.093	-3.67938	-23.6195	6.89695	14.046	-94.1867	-3.41922	-0.643327
0.6360	-39.2895	-638.391	-222.574	-8.86215	-37.0423	8.72799	8.86417	-172.291	-5.84482	-0.643327
0.6367	-42.3118	276.844	-244.257	-12.225	-33.9946	13.6108	10.6864	-204.651	-5.55258	-0.321663
0.6373	-32.5476	573.8	-62.6683	-12.8185	-63.904	27.6488	21.9801	-347.476	-5.84482	0
0.6380	-3.25476	140.777	136.298	-10.4051	-79.4666	48.0955	36.3298	-456.126	-6.45853	0
0.6387	25.1081	-206.274	132.341	-10.6821	-80.3907	67.0163	44.2639	-470.786	-8.59189	0.321663
0.6393	59.0506	-118.673	-8.66234	-12.225	-88.6259	87.7682	48.5347	-493.634	-9.8193	0
0.6400	83.4612	8.87786	-137.448	-11.6316	-81.9145	126.831	44.5676	-533.643	-9.8193	0
0.6407	94.6979	115.412	-167.659	-8.2687	-62.0722	176.879	31.129	-466.177	-9.8193	0
0.6413	92.2956	311.087	-102.344	-7.35875	-33.6866	226.012	24.7324	-287.365	-4.64663	0
0.6420	63.9327	148.659	13.3143	-2.17597	10.8614	283.08	11.9011	-148.806	0.847499	0
0.6427	37.3522	-326.488	119.508	16.4583	74.0359	339.537	-7.9341	-106.689	-0.0584482	0.321663
0.6433	31.5401	-655.422	146.378	25.9139	109.733	324.279	-9.45259	-77.7126	-1.28586	0.321663
0.6440	30.6102	-713.399	136.004	16.4583	79.2235	172.912	-7.9341	-11.473	0.555258	0
0.6447	36.4223	-486.108	196.427	8.82259	58.1653	-16.2963	-15.5645	125.223	3.59457	0
0.6453	88.6533	-38.4103	273.318	7.31919	77.3916	-143.859	-17.083	255.839	6.34163	0
0.6460	163.668	338.808	273.024	6.09273	76.4838	-235.107	-10.3637	247.013	6.34163	-0.321663
0.6467	182.576	665.387	260.512	8.22914	48.4062	-259.215	-0.303698	184.451	8.50422	-0.321663
0.6473	113.606	1088.62	236.102	14.0054	13.9091	-226.867	15.5645	175.282	13.6769	0
0.6480	-26.4255	1272.61	166.83	17.3682	-18.432	-189.941	28.3957	257.996	16.424	0
0.6487	-133.832	1065.16	154.906	25.5974	-26.6672	-90.7589	23.8023	395.623	19.4633	0
0.6493	-142.434	799.641	133.25	24.094	0.178322	46.5696	7.3267	527.171	18.2651	0
0.6500	-112.522	624.168	-1.01595	-4.90583	32.2276	103.332	-6.39663	587.576	6.6631	0
0.6507	-66.7225	402.312	-64.8072	-24.727	47.1742	103.942	-6.09293	373.952	-1.5781	0
0.6513	-14.8014	138.966	58.7916	-14.9549	60.905	138.427	5.80822	44.078	-0.672155	0
0.6520	16.8937	-6.06956	174.129	0.909953	90.5064	191.833	23.1949	-49.3242	3.91603	0
0.6527	37.3522	-74.3747	136.913	5.45972	98.7578	228.149	35.096	-12.0614	5.43568	0.321663
0.6533	47.1165	-176.017	106.702	0.909953	70.3722	264.159	24.106	-38.0473	0.847499	0
0.6540	47.1165	-116.771	193.379	-0.633011	46.8662	296.202	3.96705	-146.649	-1.28586	-0.321663
0.6547	19.3735	216.783	230.916	3.32331	31.9196	295.897	-3.96705	-301.093	3.01008	0
0.6553	-32.5476	421.789	141.485	9.4556	5.98188	266.295	1.84117	-336.493	9.41016	0.321663
0.6560	-67.3424	169.766	-122.476	13.0954	-14.4603	199.767	21.6764	-132.332	13.0632	0.321663
0.6567	-79.819	-183.627	-545.166	7.59613	-41.014	38.6351	36.0071	138.069	8.50422	0.321663
0.6573	-54.7884	-237.981	-767.313	3.04636	-105.096	-137.451	31.7364	156.994	3.91603	0
0.6580	-4.18469	-139.056	-663.578	0.593448	-170.411	-226.867	21.069	-105.169	4.20827	0
0.6587	22.3958	-146.394	-460.013	-5.81579	-168.271	-269.896	14.046	-340.17	4.20827	0
0.6593	37.0422	-416.172	-359.621	-5.22234	-122.491	-260.741	10.079	-349.29	7.56904	0
0.6600	65.715	-827	-367.241	3.63981	-95.0293	-174.682	9.77526	-156.112	12.1572	0
0.6607	72.1471	-1075.04	-313.235	10.6425	-82.5143	-45.2879	10.9901	105.709	11.8358	0
0.6613	45.8765	-1254.22	-175.894	12.7789	-64.212	61.8284	0.303698	251.573	8.79646	0
0.6620	32.78	-1373.53	9.35747	10.3656	-37.9663	120.727	-9.14889	183.225	6.34163	0
0.6627	-9.91925	-920.942	237.011	5.45972	-32.4708	140.563	-3.05596	-2.30441	3.01008	0
0.6633	-106.709	-86.6044	405.152	-5.81579	-48.3414	120.727	-18.2978	-119.829	-6.16629	0
0.6640	-140.574	410.556	492.738	-15.5879	-55.3608	54.8094	-54.3239	-117.672	-12.5664	0
0.6647	-92.0631	613.206	532.413	-12.5415	-46.5095	-102.966	-69.8884	-35.89	-9.8193	0
0.6653	-14.8014	670.55	540.354	-0.633011	-15.3843	-265.624	-64.3839	34.321	-5.23112	0
0.6660	88.0334	448.694	533.028	4.54977	-15.6923	-284.85	-54.9313	22.9951	-6.45853	0
0.6667	150.261	188.337	437.502	-6.40923	-61.4561	-214.049	-51.8753	-3.53016	-13.4723	0
0.6673	126.47	179.822	212.602	-10.9986	-55.0528	-152.709	-48.8194	-35.3016	-12.8586	0
0.6680	83.4612	209.989	-8.95644	3.04636	-18.124	-141.723	-39.3668	-113.995	-0.672155	0
0.6687	63.0028	195.947	-81.5971	17.0517	-13.8605	-151.794	-28.6804	-139.637	10.0239	0
0.6693	59.593	335.728	-150.254	18.2782	0.178322	-103.271	-13.7233	-58.787	17.3299	-0.321663
0.6700	62.6928	413.002	-348.633	6.68618	52.9778	-24.8412	13.4386	64.2293	21.0121	-0.643327
0.6707	44.0942	308.007	-492.363	-4.90583	124.079	23.9867	41.208	161.26	16.424	-0.321663
0.6713	10.7717	202.107	-440.79	-3.08593	161.624	69.4577	46.9972	183.519	10.0239	-0.321663
0.6720	-5.65707	76.0959	-276.286	7.00268	125.312	143.005	44.2639	192.1	8.50422	-0.643327
0.6727	-4.18469	-38.048	-73.3626	11.2755	56.9495	249.206	43.9412	234.805	6.95534	0
0.6733	9.91925	-44.4799	157.366	0.593448	26.116	305.968	20.7653	209.799	-1.89957	0
0.6740	14.8014	75.0994	306.283	-9.17866	11.7854	168.334	-9.14889	70.309	-9.8193	0
0.6747	-16.0413	169.404	284.013	-13.135	-39.7982	-23.9257	-12.5085	-61.5327	-14.4075	0
0.6753	-43.8617	147.119	160.414	-26.8634	-78.5588	-11.7187	-11.2938	-73.1038	-22.3272	0
0.6760	-31.3076	174.93	53.899	-29.9098	-53.8369	77.0871	-12.5085	-67.3182	-23.2624	0
0.6767	-21.5434	183.808	23.0728	-17.0913	-13.2444	69.4577	-11.5974	-132.332	-18.0605	0.321663
0.6773	-25.8056	117.224	55.7438	-14.3614	27.6399	-17.517	-25.6245	-194.257	-17.1546	0
0.6780	-15.7313	114.234	89.297	-26.2699	58.1653	-157.592	-46.9972	-273.637	-16.8331	-0.321663
0.6787	0.154988	41.581	55.1289	-39.9984	60.905	-264.403	-58.2909	-322.765	-16.5408	0
0.6793	28.5179	-122.297	7.83354	-38.4554	67.0165	-311.4	-52.179	-226.911	-12.8586	0.321663
0.6800	60.5229	-178.191	10.8814	-23.817	50.8379	-335.204	-39.0631	-97.8639	-4.32517	0
0.6807	54.4009	-136.339	-52.0008	-16.4978	8.12174	-307.738	-38.133	-47.5101	-1.28586	0
0.6813	26.348	-75.9148	-221.665	-16.1813	0.178322	-237.243	-43.9412	-32.2127	-2.48405	0.321663
0.6820	14.1814	-39.9504	-350.451	-16.8144	2.9342	-162.17	-46.0671	-37.7041	-3.41922	0.321663
0.6827	12.3216	-55.1696	-356.252	-16.8144	-16.2921	-97.4728	-46.0671	-49.9126	-4.32517	0.321663
0.6833	8.67935	-80.8066	-255.245	-14.0449	-25.1434	-57.8001	-39.9742	-35.5958	-2.80551	0.321663
0.6840	6.19953	-59.4273	-98.6812	-11.3151	-29.4231	-33.9965	-29.5915	-7.79577	-0.672155	0.321663
0.6847	23.9457	-21.2887	31.6282	-11.6316	-38.8741	-4.39451	-24.106	21.7693	-0.964396	0.321663
0.6853	48.9763	-37.7762	83.4954	-13.4515	-37.9663	20.6298	-23.4986	44.6663	-2.19181	0.321663
0.6860	47.4264	-80.1725	96.6226	-10.9986	-33.0868	42.6024	-16.4756	62.072	-0.672155	0
0.6867	30.6102	-104.27	110.98	-5.81579	-29.1151	74.6457	-3.66335	82.2233	3.30232	0
0.6873	29.4478	-139.69	83.2013	-5.81579	-28.4991	92.651	1.53747	98.4032	2.68862	0
0.6880	51.9986	-183.355	25.5325	-8.2687	-32.1628	85.3268	1.53747	101.443	-0.672155	0
0.6887	74.8594	-197.668	19.116	-8.54565	-33.0868	49.3162	3.35965	79.7718	-0.964396	0
0.6893	85.5536	-200.477	70.3949	-9.7721	-36.1345	-32.1654	3.66335	54.4233	-1.89957	0.321663
0.6900	85.2436	-209.626	150.949	-8.2687	-48.3414	-106.323	5.80822	55.3549	-1.89957	0.321663
0.6907	66.025	-209.898	213.805	-6.40923	-59.6243	-130.126	8.86417	14.4639	-2.19181	0
0.6913	44.4042	-171.397	177.498	-9.17866	-57.8087	-147.521	5.80822	-88.6953	-4.64663	0
0.6920	28.2079	-91.7681	30.7192	-11.3151	-50.4813	-156.982	1.53747	-122.869	-6.16629	-0.321663
0.6927	10.4617	-30.1666	-128.278	-11.3151	-44.9857	-118.225	-2.73328	-70.9955	-5.84482	0
0.6933	9.2993	-17.9369	-150.869	-7.63569	-39.7982	-61.4622	-3.96705	-43.8328	-2.19181	0.321663
0.6940	13.8715	-36.2362	-39.1677	-2.45292	-35.8265	-31.8602	-0.607395	-67.024	1.46121	0
0.6947	-1.39489	-53.9919	88.0939	-1.22646	-33.9946	-21.7895	0.607395	-65.7983	2.68862	0.321663
0.6953	-11.4691	-53.9919	186.053	-2.45292	-32.1628	-14.4653	-0.303698	-11.473	2.07491	0
0.6960	0.154988	-57.3437	226.638	-3.08593	-30.3309	-9.88766	-0.303698	21.7693	2.07491	-0.643327
0.6967	7.74942	-54.8978	192.764	-2.17597	-26.3754	-5.92039	-0.607395	26.3781	4.52974	-0.321663
0.6973	-1.08492	-28.6266	122.262	-2.17597	-22.7117	-4.39451	-3.05596	28.4864	5.75715	0.321663
0.6980	-11.4691	-10.9614	52.3751	-2.76942	-23.0035	-5.31004	-3.96705	26.9665	5.75715	0
0.6987	-6.587	-15.2192	2.326	-1.22646	-23.0035	-4.39451	-2.42958	37.9492	6.6631	0
0.6993	0.697447	-22.557	-44.0603	-1.85947	-19.6478	-4.39451	-5.18184	14.758	5.75715	0.321663
0.7000	-2.6348	-17.6651	-109.964	-0.0395632	-14.7683	-0.427244	-5.48554	-24.2699	4.82198	-0.321663
0.7007	-12.709	-6.97546	-196.026	5.18278	-10.5048	7.20212	-0.911093	-9.02152	6.04939	-0.321663
0.7013	-30.9977	-4.52952	-309.251	4.86627	-10.1968	8.42282	-2.73328	7.45256	2.68862	0
0.7020	-46.264	-6.34133	-351.68	2.41335	-11.4126	9.03317	-6.09293	-15.1503	-1.5781	-0.321663
0.7027	-45.954	-9.4214	-254.63	0.276942	-13.2444	11.7797	-7.02301	-46.8727	-4.03293	0
0.7033	-35.8798	-2.35535	-140.496	-0.316505	-14.7683	16.6625	-5.78923	-63.3468	-6.77999	0
0.7040	-17.2812	9.87435	-40.3975	1.81991	-14.4603	24.2919	-1.82219	-57.8554	-7.07223	0
0.7047	5.03712	-2.35535	88.0939	-0.0395632	-16.9081	27.3436	-1.82219	-49.3242	-7.97818	0
0.7053	26.658	-37.5044	170.172	-3.99588	-19.6478	26.7333	-3.96705	-45.9411	-10.433	0
0.7060	43.4742	-82.6184	178.407	-7.9522	-18.74	26.4281	-4.57444	-41.9697	-13.7938	0
0.7067	54.4009	-119.217	145.148	-7.9522	-22.7117	30.7006	-2.73328	-29.8103	-13.4723	0
0.7073	57.5007	-126.555	75.8757	-4.90583	-45.8935	35.8885	1.84117	-17.6018	-8.29965	0
0.7080	42.5443	-113.419	36.2	-5.49928	-71.2314	34.0575	0.930074	-21.23	-6.77999	0.321663
0.7087	30.9202	-93.3081	53.6049	-5.49928	-75.4949	31.9213	-2.73328	-21.8674	-6.16629	0.321663
0.7093	34.3299	-77.183	58.4708	-6.40923	-70.9234	27.3436	-8.2378	-13.2871	-6.16629	0
0.7100	33.71	-61.8732	42.9107	-7.63569	-59.9323	24.2919	-11.9011	-7.20741	-6.77999	0
0.7107	29.9902	-46.6541	40.7718	-4.58933	-40.4142	26.4281	-7.9341	-2.30441	-3.09776	0
0.7113	25.4181	-44.7517	34.9702	-4.58933	-20.2638	24.9022	-6.70033	2.54956	-2.80551	0
0.7120	21.1559	-44.7517	22.1638	-4.90583	1.70216	23.6815	-5.18184	8.38413	-4.03293	0
0.7127	15.9638	-38.9539	11.4963	-6.13229	20.3287	21.8505	-2.12588	5.93263	-4.32517	0
0.7133	8.98932	-36.2362	4.46485	-6.72574	25.8242	20.935	-1.51849	-1.42187	-6.77999	0
0.7140	7.74942	-31.9784	7.51271	-3.08593	38.939	25.5126	1.53747	-1.42187	-4.93887	0
0.7147	6.50951	-26.4524	8.12763	-3.67938	61.521	25.8178	1.84117	-3.23598	-3.41922	-0.321663
0.7153	3.79721	-22.1946	5.07977	-3.67938	57.5493	25.2074	1.84117	-6.91323	-2.48405	-0.321663
0.7160	2.86728	-19.7487	2.03191	-0.949516	30.0877	25.5126	3.96705	-9.3157	-0.350689	0
0.7167	4.10719	-17.6651	-1.33678	1.81991	15.7409	25.5126	5.20082	-11.7672	1.16896	0.321663
0.7173	9.91925	-12.1391	5.37386	8.22914	15.4329	30.3954	9.77526	-7.79577	5.14344	0
0.7180	6.81949	-11.2332	9.94565	8.22914	11.4774	29.785	11.5974	-7.20741	4.52974	-0.321663
0.7187	-1.70487	-12.4109	9.35747	5.45972	7.81373	27.3436	14.046	-10.2473	2.39638	0
0.7193	-7.51693	-12.4109	8.74255	7.31919	7.50572	28.2592	18.6205	-11.7672	3.91603	0
0.7200	-10.8492	-12.4109	7.51271	9.4556	5.98188	28.8695	18.9242	-13.9245	4.82198	0
0.7207	-4.18469	-5.16365	13.6084	14.9153	7.19771	34.0575	24.7324	-9.65891	9.0887	0
0.7213	1.62738	2.17417	16.3622	17.3682	7.19771	36.1937	29.0031	-7.20741	11.5435	0.321663
0.7220	0.697447	1.63063	12.0845	14.0054	3.53401	32.8368	25.3398	-10.8847	9.7024	0
0.7227	1.00742	-0.815314	11.1755	12.1855	-0.129689	29.785	19.8352	-12.993	8.79646	0
0.7233	0.387471	-0.271771	10.5606	11.592	-1.34552	28.2592	13.7423	-13.9245	8.50422	0
0.7240	0.154988	3.71421	12.0845	13.0954	1.70216	30.3954	12.5085	-9.95309	10.6376	-0.321663
0.7247	-1.39489	5.25424	12.0845	11.869	3.84202	29.1747	13.4386	-7.50159	10.6376	0
0.7253	-5.3471	6.16015	8.74255	7.31919	4.15003	24.5971	14.046	-11.473	7.56904	-0.643327
0.7260	-10.2292	8.87786	5.37386	5.45972	4.15003	22.1557	13.4386	-13.6303	6.95534	-0.643327
0.7267	-14.5689	11.3238	3.23501	5.45972	3.226	22.1557	6.71931	-13.6303	7.89051	0
0.7273	-9.06682	17.1216	9.35747	8.22914	4.45804	25.2074	3.35965	-9.02152	11.5435	0
0.7280	-2.32483	22.3758	14.5442	8.22914	4.76605	23.9867	3.35965	-5.3933	11.5435	0
0.7287	-2.01485	23.9159	11.1755	5.77622	5.36586	19.7143	2.75226	-5.98166	8.18275	0.321663
0.7293	-3.56473	22.0135	6.6037	4.54977	6.8897	17.2729	1.84117	-8.43316	6.95534	0.321663
0.7300	-3.87471	16.2157	4.46485	3.63981	6.5979	14.5263	-3.05596	-10.8847	6.34163	0
0.7307	1.3174	17.4839	11.1755	6.36967	8.72155	16.0522	-5.78923	-5.68748	9.41016	0
0.7313	3.48724	22.9194	13.3143	8.22914	10.5534	16.3574	-10.6674	-1.71605	12.1572	0
0.7320	-4.80464	20.4734	2.94092	4.23326	8.12174	11.1694	-18.9242	-8.13898	9.7024	0
0.7327	-10.8492	14.4039	-2.86071	1.1869	5.36586	7.5073	-24.4097	-12.993	7.56904	0
0.7333	-11.7791	11.052	-2.86071	0.276942	4.15003	6.59177	-28.6804	-12.993	5.75715	0
0.7340	-9.06682	13.498	-0.42777	3.32331	5.05785	9.94869	-21.05	-9.02152	6.34163	0
0.7347	-11.1592	15.9439	1.09616	3.04636	5.67387	9.03317	-12.8122	-6.91323	5.14344	0
0.7353	-17.2812	15.3098	-1.01595	-1.85947	6.5979	3.54003	-25.3208	-9.65891	-1.89957	0
0.7360	-18.5211	16.578	-2.24579	-4.58933	9.02956	1.70898	-38.4557	-9.65891	-7.97818	0
0.7367	-19.1411	17.7557	-4.38464	-7.04225	10.2454	-0.427244	-40.5816	-9.02152	-11.9527	-0.321663
0.7373	-16.3513	21.7417	-1.01595	-4.58933	14.5251	2.31933	-37.5256	-4.75591	-10.433	-0.321663
0.7380	-14.5689	25.3653	1.41699	-2.45292	19.4046	4.76072	-36.9182	-1.42187	-9.52706	0
0.7387	-18.8311	24.1876	-4.38464	-5.22234	19.0966	0.488279	-40.2779	-4.46173	-14.086	0
0.7393	-18.8311	25.0935	-5.29365	-3.99588	17.5728	0.183105	-39.6705	-4.75591	-14.4075	0
0.7400	-17.5912	25.3653	-5.61448	-4.90583	13.6173	-1.34277	-38.133	-5.68748	-12.5664	0
0.7407	-14.2589	26.9053	-3.76972	-4.58933	9.95359	-0.427244	-27.4656	-5.3933	-11.339	0
0.7413	-7.20696	31.5255	2.62009	2.72986	8.42975	6.2866	-1.51849	0.09806	-7.07223	0
0.7420	-8.75684	29.3513	-1.63087	3.63981	2.62619	5.98142	14.6534	-1.71605	-5.23112	0
0.7427	-13.019	25.7277	-7.75333	3.95632	-2.25334	5.98142	14.3497	-5.05009	-3.41922	0
0.7433	-14.8014	24.8218	-9.89218	8.22914	-4.70121	9.33834	10.9901	-5.98166	1.46121	0
0.7440	-15.7313	25.3653	-9.27726	11.2755	-7.74889	10.8642	2.14486	-7.20741	5.14344	0
0.7447	-9.68677	31.1631	-2.86071	15.5483	-6.84107	13.6108	-7.6304	-3.23598	10.0239	0
0.7453	-7.20696	33.9714	-3.76972	12.7789	-6.84107	7.20212	-20.1389	-2.9418	9.0887	0
0.7460	-8.13689	33.3373	-7.75333	8.22914	-6.84107	0.793454	-32.0401	-4.46173	4.82198	0
0.7467	-7.51693	30.8913	-6.81758	8.50608	-6.53306	1.09863	-28.073	-1.71605	4.20827	0
0.7473	-13.9489	22.9194	-9.57135	6.36967	-9.58074	-0.12207	-13.4196	-2.01023	4.20827	0
0.7480	-15.1114	22.9194	-6.2294	9.13909	-8.67292	2.92968	4.89712	1.02963	8.79646	0
0.7487	-12.3991	27.2677	-5.29365	9.73254	-8.0569	3.23485	14.3497	4.06949	11.8358	0
0.7493	-16.6612	26.2712	-12.3251	4.86627	-10.7966	-1.64794	-0.911093	1.32381	10.3161	0
0.7500	-17.9012	28.1736	-12.0043	7.59613	-10.1968	0.793454	-21.9611	2.54956	13.9691	0
0.7507	-17.5912	29.7137	-10.8012	11.869	-10.7966	4.45555	-33.8623	5.00106	21.0121	0
0.7513	-19.1411	29.7137	-11.7102	13.4119	-14.7683	6.89695	-37.8293	7.45256	28.0259	0
0.7520	-19.9935	29.9854	-12.0043	12.502	-18.74	9.64352	-38.133	9.26667	31.6789	0
0.7527	-21.8534	28.4454	-14.464	7.91263	-19.9558	11.7797	-44.2449	8.97249	32.5849	0
0.7533	-22.7833	28.4454	-15.6671	4.54977	-18.432	13.916	-49.4268	9.56085	35.332	-0.321663
0.7540	-21.8534	30.6196	-14.464	6.09273	-17.816	16.0522	-18.2978	12.0124	38.6927	0
0.7547	-19.451	33.0655	-12.6192	11.2755	-19.9558	18.7988	28.3957	15.9838	43.8946	0
0.7553	-20.6134	32.4314	-15.373	15.5483	-20.2638	18.7988	33.2739	16.278	47.8691	-0.321663
0.7560	-22.7833	31.1631	-16.8969	17.6847	-28.8071	18.4936	20.7653	14.758	48.4536	-0.96499
0.7567	-24.0232	31.5255	-17.8059	17.6847	-45.2937	15.747	13.1349	13.8755	46.6417	-0.321663
0.7573	-23.0933	31.7972	-19.6507	14.6384	-48.6494	9.94869	2.44856	12.6497	42.9887	0
0.7580	-16.0413	33.3373	-15.373	13.7284	-41.63	8.72799	29.0031	14.1697	41.1475	0
0.7587	-8.44686	35.1491	-9.57135	14.3219	-34.9186	8.72799	84.8455	17.5037	38.6927	0
0.7593	-4.80464	35.7832	-7.13841	14.6384	-23.6195	6.89695	119.334	19.0236	35.6534	0
0.7600	-5.03712	33.0655	-8.66234	12.1855	-10.1968	3.23485	152.589	17.5037	32.0004	-0.321663
0.7607	-8.13689	28.7172	-12.0043	7.31919	-5.91704	1.4038	191.956	16.278	25.5711	0
0.7613	-8.13689	29.9854	-11.0953	7.31919	1.10235	5.37107	199.89	18.7295	21.3044	0.321663
0.7620	-7.51693	30.6196	-11.4161	7.00268	21.2365	4.76072	179.144	19.0236	17.9436	0
0.7627	-9.91925	29.9854	-12.94	3.95632	31.3036	-1.03759	159.005	18.7295	13.9691	-0.321663
0.7633	-13.639	29.9854	-14.1431	-0.949516	31.0118	-6.53074	134.899	19.9552	11.2221	0.321663
0.7640	-15.4213	27.8113	-16.6028	-6.40923	37.1071	-8.66696	103.162	18.4353	7.89051	0
0.7647	-11.7791	29.3513	-12.6192	-4.27282	34.3675	-1.03759	81.4858	21.4751	7.89051	0
0.7653	-11.7791	30.2572	-11.0953	-2.17597	13.6173	5.67625	51.8943	22.9951	7.2768	0
0.7660	-12.3991	29.7137	-11.0953	0.593448	3.53401	9.64352	13.7423	22.9951	7.2768	0
0.7667	-7.82691	31.1631	-7.4325	5.77622	3.84202	13.0004	-16.4756	24.8582	10.3161	0
0.7673	-11.1592	27.5395	-11.4161	3.32331	-4.3932	11.7797	-50.0342	19.661	8.50422	0
0.7680	-13.019	25.0935	-11.4161	1.81991	1.10235	16.0522	-91.5458	17.2095	7.89051	0
0.7687	-8.44686	27.2677	-7.4325	3.63981	20.6367	16.3574	-158.075	19.3669	9.0887	0
0.7693	-9.68677	25.3653	-11.0953	1.1869	21.2365	8.42282	-233.145	16.278	4.82198	-0.321663
0.7700	-7.82691	26.6336	-9.57135	3.04636	-0.129689	6.2866	-257.554	17.5037	5.43568	0
0.7707	-5.03712	27.8113	-6.52349	3.95632	-22.7117	2.92968	-237.719	19.0236	6.6631	0.321663
0.7713	-6.89698	24.4594	-8.95644	-0.949516	-29.4231	-5.00486	-205.072	14.1697	0.263017	0
0.7720	-4.80464	23.2817	-6.2294	-3.36287	-21.7877	-6.22556	-169.672	12.3065	-2.19181	0
0.7727	-4.80464	20.4734	-7.4325	-8.54565	-12.6284	-9.58248	-138.543	8.97249	-4.64663	0
0.7733	-5.65707	18.1181	-9.89218	-12.5415	-5.00922	-13.2446	-91.5458	5.63845	-7.3937	0
0.7740	-2.01485	20.8358	-5.61448	-10.4051	7.50572	-10.1928	-45.156	8.97249	-5.23112	0
0.7747	1.00742	22.0135	-2.24579	-10.0886	18.8048	-8.66696	-9.14889	10.7866	-4.03293	0.321663
0.7753	-1.70487	18.6616	-5.29365	-15.2714	22.4523	-12.6342	33.8813	5.63845	-8.29965	0
0.7760	-7.20696	15.3098	-8.66234	-20.1772	29.7797	-14.1601	48.231	1.02963	-13.4723	0
0.7767	-10.2292	14.4039	-7.75333	-21.3641	35.8913	-10.8032	47.3009	1.9612	-13.7938	0
0.7773	-14.8014	13.498	-5.90857	-21.3641	34.0594	-12.0239	85.7566	1.9612	-12.2741	0
0.7780	-21.8534	11.6862	-5.29365	-22.5906	39.555	-17.2118	138.258	0.09806	-13.1801	0
0.7787	-28.5953	10.1461	-2.86071	-24.1335	49.6221	-19.6532	137.328	1.02963	-11.339	0
0.7793	-34.3299	9.51199	-0.721862	-26.2699	49.6221	-19.6532	70.7995	2.54956	-8.59189	0.321663
0.7800	-34.0974	9.24022	-0.106943	-28.0899	40.7708	-19.3481	-3.05596	3.48113	-7.3937	0.321663
0.7807	-29.7578	8.87786	2.03191	-27.4964	32.2276	-17.2118	-43.3338	4.70688	-5.23112	0.321663
0.7813	-34.9499	7.06605	1.41699	-26.2699	25.5162	-16.9067	-59.8094	3.77531	-4.32517	0
0.7820	-49.2863	5.88838	-0.106943	-22.9071	22.4523	-13.8549	-58.5946	2.84374	-0.672155	0.321663
0.7827	-49.2863	7.70018	2.326	-14.9549	22.1605	-6.53074	-35.096	6.22681	7.56904	0.321663
0.7833	-37.1197	8.87786	0.802069	-10.0886	20.3287	-3.17382	8.2378	8.04092	11.5435	0.321663
0.7840	-37.1197	10.1461	-5.61448	-8.2687	17.2648	-3.17382	46.6935	8.38413	11.2221	0.643327
0.7847	-45.6441	12.5921	-10.4804	-6.13229	13.6173	-2.86864	67.1361	10.7866	11.5435	0
0.7853	-57.5782	14.4039	-10.8012	-4.58933	12.0772	-2.25829	93.0833	13.2381	11.8358	-0.96499
0.7860	-76.4867	13.2262	-9.27726	-4.58933	13.3093	-4.39451	124.212	13.5323	10.6376	-0.643327
0.7867	-86.871	10.1461	-9.27726	-5.22234	13.9091	-7.44626	138.258	13.2381	9.7024	0.321663
0.7873	-90.2032	9.87435	-4.38464	-2.76942	15.4329	-2.86864	147.103	15.0522	13.0632	0.643327
0.7880	-101.207	8.33432	-3.1548	-3.67938	13.3093	-1.34277	149.533	11.424	12.4495	0
0.7887	-95.0853	4.07657	-6.81758	-9.49516	9.33757	-5.00486	134.899	2.84374	6.34163	-0.321663
0.7893	-68.5823	4.98247	-3.1548	-8.2687	9.33757	-1.34277	109.559	3.77531	7.2768	0
0.7900	-60.6004	7.06605	-5.29365	-7.63569	6.8897	0.183105	72.9444	6.52099	8.79646	0
0.7907	-45.954	8.33432	-16.6028	-9.17866	0.794342	-1.03759	43.0301	6.81517	7.2768	0.321663
0.7913	23.9457	16.2157	-19.3299	-3.08593	-2.25334	5.67625	39.3668	15.0522	12.1572	0.321663
0.7920	109.034	22.0135	-22.4045	0.276942	-6.53306	7.81247	24.106	19.661	16.1317	0
0.7927	154.523	20.4734	-27.2703	0.276942	-11.1046	6.2866	-12.8122	13.8755	16.424	0.321663
0.7933	131.973	16.8498	-24.2225	4.86627	-9.88875	8.72799	-31.7364	3.48113	17.9436	0
0.7940	46.4965	8.60609	-22.4045	4.54977	-8.98093	5.37107	-37.5256	-11.1788	15.518	0.321663
0.7947	-25.4956	0.0905904	-19.3299	3.04636	-9.58074	1.4038	-39.9742	-21.8674	12.4495	0.321663
0.7953	-40.7619	-4.80129	-10.8012	5.18278	-6.53306	2.31933	-28.3767	-25.8388	11.5435	0.321663
0.7960	0.154988	-9.69317	-3.76972	5.18278	-2.86936	4.76072	-25.3208	-29.1729	9.41016	0.321663
0.7967	84.0037	-14.5851	-0.42777	3.95632	0.486332	5.0659	-45.7634	-34.9584	6.95534	0.321663
0.7973	124.301	-20.1111	2.03191	2.72986	2.01017	3.54003	-62.5617	-40.793	3.91603	0.321663
0.7980	98.9601	-24.3688	6.28287	-0.316505	4.45804	2.31933	-50.0342	-41.9697	1.46121	0.321663
0.7987	95.6278	-26.8148	9.35747	-2.45292	10.5534	-1.34277	-22.5685	-41.6755	-0.350689	0
0.7993	129.803	-27.7207	8.42172	-2.76942	14.8331	-5.31004	3.05596	-39.8614	-1.28586	0
0.8000	153.283	-27.0865	5.69469	-2.76942	14.5251	-5.92039	27.4656	-35.5958	-0.964396	0.321663
0.8007	141.737	-24.9124	2.326	-3.08593	13.6173	-6.22556	50.9642	-29.467	-0.964396	0.321663
0.8013	98.9601	-19.4769	-0.721862	-2.76942	14.5251	-5.00486	74.1591	-19.4159	-1.5781	0
0.8020	86.7935	-12.1391	-0.721862	-3.08593	15.4329	-1.95312	88.8125	-7.20741	-1.89957	0.321663
0.8027	114.226	-7.88136	-1.9517	-5.49928	14.5251	-2.25829	83.9344	1.32381	-3.41922	0.321663
0.8033	101.75	-3.89539	-4.67873	-6.40923	15.1411	-2.86864	76.6077	9.26667	-4.93887	0
0.8040	50.7587	2.53653	-4.99956	-3.36287	16.665	-0.427244	91.2611	19.3669	-4.03293	0
0.8047	-13.639	3.71421	-7.4325	-3.08593	13.6173	-0.732419	87.2941	25.1524	-5.23112	0
0.8053	-108.259	2.53653	-12.0043	-4.27282	11.7854	-2.86864	35.7034	27.2607	-7.97818	0
0.8060	-211.947	4.62011	-15.0789	-3.67938	10.5534	-4.39451	-13.1159	30.0064	-7.68594	0
0.8067	-244.029	7.42841	-20.5597	-4.27282	6.5979	-5.61521	-46.3898	29.418	-7.97818	0
0.8073	-194.588	12.5921	-23.3135	-1.85947	6.5979	-3.17382	-73.2291	29.418	-5.84482	0
0.8080	-161.653	22.0135	-33.3661	0.276942	8.72155	-1.03759	-83.9154	32.1637	-2.80551	0
0.8087	-173.199	34.8773	-49.247	0.593448	5.67387	3.8452	-100.695	36.1351	-2.19181	0
0.8093	-232.405	42.4869	-50.771	5.77622	0.794342	12.0849	-115.044	39.4692	1.46121	0.321663
0.8100	-364.3	33.3373	-47.4023	5.45972	1.10235	7.5073	-109.255	29.418	-0.350689	0.321663
0.8107	-424.978	17.4839	-40.6916	2.41335	4.45804	-0.12207	-106.503	14.1697	-3.71146	0
0.8113	-250.771	4.98247	-22.9926	6.36967	7.50572	1.4038	-107.718	5.93263	0.847499	0
0.8120	3.48724	-14.8568	-9.89218	6.09273	8.12174	-0.732419	-112.596	-13.6303	2.68862	0
0.8127	133.755	-34.6961	-1.01595	4.54977	9.95359	-5.00486	-121.764	-39.5672	0.847499	0
0.8133	173.432	-42.0339	9.65156	8.82259	13.3093	-2.56347	-103.447	-54.8156	4.20827	0.321663
0.8140	186.296	-43.3022	5.69469	7.31919	10.8614	-5.31004	-57.0572	-69.4755	4.52974	0.321663
0.8147	191.488	-39.3162	0.802069	5.18278	9.33757	-6.53074	-17.083	-76.4868	3.30232	0
0.8153	207.297	-33.5184	5.69469	5.77622	11.1694	-2.56347	13.4386	-75.5553	4.52974	-0.643327
0.8160	207.917	-35.602	3.55584	-0.633011	9.02956	-4.69969	32.6665	-86.538	-0.0584482	-0.643327
0.8167	149.021	-38.048	0.507977	-4.90583	6.5979	-6.22556	32.3628	-96.295	-4.03293	0
0.8173	59.903	-36.5079	2.94092	-2.45292	5.98188	-2.25829	41.8154	-96.9323	-2.48405	0
0.8180	-5.03712	-36.2362	3.23501	0.593448	3.84202	0.793454	49.7495	-99.9722	-0.964396	0
0.8187	-40.142	-35.3303	1.09616	2.41335	1.41036	3.54003	17.4057	-99.678	-1.5781	0.321663
0.8193	-45.3341	-31.7066	-2.56662	4.23326	0.486332	4.76072	-6.39663	-89.9211	-2.19181	0.321663
0.8200	-26.7355	-28.6266	-7.13841	5.18278	-0.729498	3.54003	25.9472	-77.7126	-3.09776	0.321663
0.8207	-3.56473	-26.1806	-8.95644	6.36967	-3.17737	4.15037	53.7165	-67.024	-4.64663	0.321663
0.8213	6.50951	-24.9124	-8.34152	7.31919	-0.129689	5.37107	34.4887	-60.0127	-6.45853	0
0.8220	5.88956	-22.8288	-4.99956	10.049	4.45804	6.89695	16.1719	-53.884	-7.07223	0
0.8227	-4.18469	-21.5605	-1.63087	10.959	-0.729498	7.20212	24.7324	-48.3926	-8.29965	0
0.8233	-35.5698	-23.4629	-3.76972	8.50608	-5.60903	4.15037	39.9742	-46.5785	-11.0467	0.643327
0.8240	-68.5823	-24.0065	-2.56662	7.31919	-5.60903	3.23485	56.7725	-44.127	-12.8586	0.321663
0.8247	-87.1809	-23.7347	0.187149	7.00268	-5.60903	2.92968	68.6736	-38.6357	-13.1801	0
0.8253	-137.785	-21.9229	-1.63087	5.45972	-5.00922	0.793454	73.248	-33.1443	-15.6057	0
0.8260	-215.356	-18.8428	-0.106943	5.77622	-3.48538	1.09863	87.2941	-27.0155	-15.9271	0.321663
0.8267	-249.221	-17.6651	2.03191	5.77622	-3.17737	0.793454	99.8026	-22.4557	-15.3134	0.321663
0.8273	-227.523	-17.031	0.802069	4.54977	-4.70121	-1.95312	96.4429	-19.4159	-17.1546	0.321663
0.8280	-181.181	-11.2332	0.187149	5.45972	-4.70121	-0.427244	95.5319	-11.7672	-17.1546	0
0.8287	-128.95	-1.72122	-5.29365	6.68618	-5.00922	1.09863	89.7236	-4.16755	-16.2194	0
0.8293	-46.264	8.87786	-14.464	7.59613	-7.14908	2.01415	67.4398	1.9612	-16.2194	0
0.8300	100.51	18.6616	-17.8059	9.13909	-6.84107	5.67625	45.4787	9.56085	-15.0212	0
0.8307	234.807	22.3758	-18.7417	8.22914	-7.44088	5.67625	27.1619	15.0522	-17.7683	0
0.8313	265.03	22.0135	-20.2656	7.31919	-8.67292	2.31933	2.44856	17.2095	-21.0998	0.321663
0.8320	272.315	21.1076	-20.5597	9.73254	-7.44088	1.70898	-23.4986	15.9838	-21.7135	0.321663
0.8327	297.965	18.1181	-19.0358	10.6425	-5.91704	1.4038	-38.133	11.7182	-22.3272	0
0.8333	257.048	15.3098	-14.1431	10.3656	-2.86936	1.70898	-42.7264	9.56085	-22.6487	0.321663
0.8340	219.541	12.3203	-10.8012	7.91263	-1.65353	1.4038	-47.6046	8.38413	-22.9409	0.321663
0.8347	249.454	11.052	-11.7102	5.77622	-3.77718	1.70898	-51.2679	8.04092	-24.1683	0
0.8353	240.619	13.498	-10.4804	7.00268	-2.56135	5.0659	-48.212	7.15838	-22.6487	0
0.8360	178.004	11.9579	-11.4161	4.54977	-0.729498	2.01415	-49.7305	-2.9418	-23.5546	0.321663
0.8367	98.1076	8.33432	-12.94	1.81991	-0.421488	-1.64794	-50.6605	-15.4445	-25.0743	0
0.8373	27.2779	7.97196	-3.76972	6.68618	3.226	2.92968	-38.4557	-23.0931	-20.5153	0
0.8380	-10.8492	3.71421	2.03191	8.50608	5.36586	2.6245	-27.7693	-29.8103	-19.9016	0.321663
0.8387	-66.4125	0.996494	-0.106943	6.36967	4.76605	-0.427244	-19.5315	-33.1443	-22.3272	0
0.8393	-116.474	5.52601	2.94092	9.73254	6.8897	3.8452	-7.3267	-23.3873	-19.5802	0
0.8400	-94.1554	6.16015	0.187149	8.50608	4.76605	2.31933	0.930074	-12.6988	-21.0998	0.321663
0.8407	-14.8014	4.07657	-3.76972	5.18278	1.41036	-1.64794	19.5315	-7.79577	-24.1683	0.321663
0.8413	51.0687	6.79428	3.23501	8.50608	5.36586	2.6245	37.8483	1.02963	-21.0998	0
0.8420	48.6663	4.62011	5.98878	8.50608	9.95359	2.6245	33.2739	6.22681	-21.4213	-0.321663
0.8427	22.7058	-0.271771	4.46485	6.68618	12.3853	0.183105	27.1619	5.93263	-24.1683	0
0.8433	49.5188	0.0905904	6.89779	8.22914	14.5251	0.793454	28.3957	10.4924	-23.8469	0
0.8440	124.611	-1.17768	8.12763	7.00268	15.4329	-0.427244	20.4426	16.9154	-24.782	-0.321663
0.8447	221.091	-1.72122	11.1755	7.59613	15.7409	2.01415	10.9901	24.515	-23.8469	-0.321663
0.8453	290.371	4.62011	13.6084	10.6425	16.973	5.67625	5.20082	34.9094	-20.5153	-0.643327
0.8460	262.86	10.4179	6.28287	8.22914	14.8331	3.54003	-5.48554	42.2148	-22.035	-0.321663
0.8467	175.912	13.498	-0.42777	5.77622	12.3853	1.70898	-13.4196	48.6378	-23.2624	0
0.8473	48.9763	17.1216	-0.721862	5.45972	12.3853	2.01415	-14.3307	55.0607	-22.035	-0.96499
0.8480	-154.601	27.8113	-5.90857	3.32331	10.2454	2.6245	-16.7793	64.2293	-24.4606	-0.643327
0.8487	-325.166	47.6506	-16.6028	1.81991	5.67387	5.37107	-18.6015	77.9577	-26.3017	0.321663
0.8493	-405.139	63.8662	-25.4523	1.5034	2.9342	5.98142	-16.4756	86.1948	-25.688	0
0.8500	-481.161	68.3958	-30.3182	-0.0395632	0.794342	4.15037	-12.5085	85.5574	-25.3958	-0.321663
0.8507	-540.677	66.3122	-30.9331	-1.54296	-1.96154	2.92968	-8.84519	82.2233	-24.1683	0.321663
0.8513	-543.389	58.0684	-26.9762	-0.949516	-3.48538	2.31933	-8.54149	75.8004	-22.6487	0.643327
0.8520	-488.136	49.1906	-19.0358	2.72986	-2.86936	4.45555	-5.48554	66.0434	-19.9016	0.321663
0.8527	-332.217	39.4068	-9.89218	6.09273	-2.25334	6.2866	-1.82219	51.0893	-16.8331	0.321663
0.8533	-65.4826	20.2017	-1.63087	3.95632	-4.3932	2.6245	-6.09293	25.7408	-17.1546	0.321663
0.8540	174.362	0.0905904	8.12763	1.5034	-5.00922	0.793454	-9.14889	1.02963	-16.8331	0.321663
0.8547	235.737	-10.5991	16.0681	2.09685	-4.70121	2.6245	-5.18184	-15.7386	-14.086	0.321663
0.8553	158.476	-13.045	15.4532	1.1869	-7.14908	2.01415	-5.48554	-29.467	-10.7252	0.321663
0.8560	81.6014	-9.4214	9.94565	-1.54296	-9.27273	2.01415	-15.5645	-38.0473	-6.45853	0.321663
0.8567	38.5921	-5.16365	2.94092	-3.36287	-9.88875	1.70898	-28.073	-43.8328	-2.80551	0
0.8573	-4.80464	-2.98948	-4.09055	-3.99588	-10.5048	0.183105	-37.5256	-50.2558	-1.89957	0
0.8580	-43.5517	-1.17768	-5.29365	-2.17597	-9.88875	1.70898	-39.0631	-52.6582	1.78267	0
0.8587	-55.4083	-2.35535	-3.76972	-0.633011	-10.7966	2.92968	-33.8623	-55.1097	5.14344	0.321663
0.8593	53.5485	-7.88136	1.09616	0.909953	-12.3366	4.15037	-31.129	-62.4642	7.2768	0
0.8600	243.642	-12.4109	10.5606	4.23326	-13.2444	8.11764	-30.8253	-69.1323	11.2221	0
0.8607	272.315	-12.7732	13.3143	7.00268	-15.6923	10.559	-28.6804	-68.2498	14.9043	0.321663
0.8613	85.5536	-8.5155	9.94565	7.59613	-17.5242	9.64352	-25.0171	-60.8953	16.424	0
0.8620	-135.072	-2.08358	6.89779	6.36967	-14.7683	7.5073	-22.2648	-53.2956	14.9043	0
0.8627	-195.518	1.63063	5.07977	4.54977	-11.7206	4.76072	-22.5685	-45.6469	12.1572	0.321663
0.8633	-100.277	5.52601	4.75894	5.77622	-9.58074	5.37107	-23.4986	-34.37	12.1572	0
0.8640	-66.1025	8.87786	2.03191	4.23326	-8.67292	5.37107	-23.4986	-26.4272	10.3161	0
0.8647	-120.116	7.70018	-3.47563	-0.949516	-9.88875	1.70898	-19.8352	-26.7214	5.75715	0
0.8653	-114.924	7.42841	-6.2294	-2.17597	-10.5048	1.70898	-11.2938	-28.2413	5.14344	0.643327
0.8660	-95.7053	15.6721	-12.3251	-2.76942	-11.4126	2.92968	-3.35965	-25.2014	3.91603	0
0.8667	-69.4348	25.9994	-20.8538	-6.13229	-14.7683	1.70898	9.16787	-17.2586	1.16896	-0.643327
0.8673	82.8413	31.7972	-19.0358	-5.22234	-15.0763	4.45555	27.1619	-7.20741	2.07491	-0.321663
0.8680	242.402	32.7031	-16.6028	-5.49928	-13.8605	5.0659	31.129	-0.78448	1.78267	0.321663
0.8687	220.471	32.7031	-21.1746	-9.17866	-15.3843	2.31933	14.6534	0.73545	-1.28586	0.321663
0.8693	128.02	28.7172	-21.1746	-11.3151	-16.9081	0.488279	-9.75628	-0.4903	-2.80551	0
0.8700	114.536	15.9439	-15.373	-11.9085	-16.2921	0.183105	-32.6475	-7.50159	-3.09776	0
0.8707	151.501	5.88838	-7.75333	-7.35875	-12.6284	4.76072	-36.6145	-16.6702	-0.350689	0
0.8713	205.515	6.16015	-2.86071	-1.22646	-7.74889	10.2539	-21.3537	-20.9358	3.30232	0.321663
0.8720	229.615	6.16015	-4.67873	-2.76942	-5.00922	8.42282	-10.06	-29.1729	1.16896	0.321663
0.8727	167.387	0.724723	-5.90857	-6.72574	-1.65353	5.0659	-6.09293	-46.2843	-1.89957	0
0.8733	49.8288	-6.06956	-4.38464	-9.49516	1.41036	2.31933	-2.73328	-65.5041	-4.32517	0
0.8740	-1.39489	-10.3273	-1.33678	-10.4051	2.31818	0.488279	4.57444	-77.0752	-6.45853	0
0.8747	42.5443	-9.05904	6.89779	-7.35875	5.05785	3.8452	20.7653	-76.781	-4.64663	0
0.8753	79.7415	-7.88136	10.5606	-6.13229	7.19771	5.0659	31.129	-72.8096	-4.03293	-0.643327
0.8760	89.8157	-8.78727	8.42172	-8.86215	5.98188	2.01415	26.5546	-68.544	-7.07223	-0.643327
0.8767	108.724	-9.05904	9.35747	-9.17866	5.36586	1.09863	18.0131	-59.3754	-8.29965	0
0.8773	100.51	-9.05904	9.03664	-8.86215	4.45804	-0.12207	9.16787	-48.6868	-8.29965	0.321663
0.8780	55.0209	-8.5155	7.21862	-7.9522	4.15003	0.793454	3.96705	-43.8328	-6.77999	0
0.8787	20.536	-4.16716	9.35747	-3.99588	5.05785	5.67625	5.50452	-39.224	-2.19181	0.321663
0.8793	13.5615	-0.543542	5.69469	-3.36287	2.31818	5.67625	4.27075	-32.2127	-1.28586	0
0.8800	5.03712	0.724723	-4.09055	-6.40923	-2.56135	2.01415	-0.607395	-26.4272	-3.09776	-0.321663
0.8807	-31.3076	4.62011	-10.1863	-7.04225	-6.22505	1.4038	-2.73328	-19.4159	-3.09776	0
0.8813	-45.6441	9.24022	-15.6671	-7.9522	-9.27273	0.488279	-4.57444	-12.4046	-4.32517	0.321663
0.8820	-38.3596	15.6721	-18.1268	-6.72574	-8.98093	3.54003	-2.42958	-3.82434	-3.09776	0
0.8827	-70.6747	21.1076	-15.9879	-2.45292	-7.14908	7.81247	3.35965	4.70688	2.68862	0
0.8833	-75.5568	15.038	-15.373	-3.99588	-9.88875	4.15037	0.930074	1.9612	3.91603	0.321663
0.8840	-22.7833	3.71421	-12.94	-6.72574	-12.0286	0.488279	-4.27075	-5.98166	0.847499	0.321663
0.8847	5.57958	-2.98948	-7.75333	-5.81579	-11.7206	1.09863	-4.57444	-11.1788	0.847499	0.321663
0.8853	-1.39489	-7.88136	-4.99956	-4.90583	-12.9364	-0.12207	-4.27075	-13.9245	3.30232	0.321663
0.8860	1.3174	-9.05904	0.507977	-1.85947	-12.3366	2.92968	0.303698	-8.72734	8.18275	0.321663
0.8867	25.1081	-8.15314	6.6037	0.593448	-10.5048	6.2866	4.57444	-1.07866	10.6376	0.321663
0.8873	42.5443	-10.9614	4.46485	-3.36287	-13.2444	2.01415	2.44856	1.02963	6.95534	0
0.8880	40.0645	-11.505	-0.106943	-6.72574	-15.6923	-1.03759	1.23377	2.25538	6.6631	0.321663
0.8887	37.3522	-8.78727	-3.47563	-7.63569	-15.0763	-2.25829	0	3.18695	9.7024	0.321663
0.8893	42.5443	-5.7072	-5.61448	-6.72574	-14.1685	-1.95312	-1.21479	4.4127	11.2221	0
0.8900	44.6366	-1.72122	-1.9517	-2.45292	-11.7206	2.01415	1.53747	9.90406	13.3846	0
0.8907	31.8501	-1.17768	-1.01595	-3.08593	-10.5048	1.70898	1.23377	12.9439	13.0632	0
0.8913	7.12946	-3.89539	-6.2294	-7.63569	-12.0286	-3.17382	-3.66335	11.7182	7.56904	0.321663
0.8920	19.6835	-3.89539	-7.13841	-7.63569	-12.0286	-3.47899	-3.35965	13.2381	3.01008	0
0.8927	82.8413	-4.52952	-5.61448	-7.04225	-11.1046	-3.47899	-1.51849	14.758	-1.89957	0
0.8933	131.973	-6.6131	-3.76972	-7.35875	-8.36491	-3.47899	-1.51849	14.758	-6.77999	0
0.8940	129.803	-6.06956	0.507977	-5.22234	-3.77718	-1.34277	0	17.5037	-8.29965	0
0.8947	92.2956	-6.06956	-0.106943	-7.04225	-1.65353	-2.56347	-1.82219	18.4353	-11.339	0
0.8953	52.9285	-8.15314	-2.56662	-11.6316	1.41036	-5.31004	-5.78923	18.1411	-15.9271	-0.321663
0.8960	26.038	-9.05904	-1.33678	-12.225	6.28989	-5.31004	-7.02301	20.2494	-17.1546	0
0.8967	-36.8097	-8.78727	-1.33678	-12.225	9.64558	-6.22556	-9.45259	21.7693	-17.1546	0
0.8973	-149.409	-8.15314	1.71108	-10.9986	14.8331	-5.31004	-9.75628	25.4466	-15.3134	0
0.8980	-253.483	-7.519	6.28287	-8.54565	21.2365	-3.47899	-7.02301	29.7122	-12.5664	0.321663
0.8987	-316.021	-9.4214	6.89779	-9.49516	24.2842	-5.92039	-9.45259	30.0064	-12.5664	0.321663
