MR32 ASCII
Name	KneeFJC1
Frequency	1500
Date	09-09-2015 10:18:35
"Time,s"	"RT TIB.ANT.,uV"	"RT MED. GASTRO,uV"	"RT LAT. GASTRO,uV"	"RT BICEPS FEM.,uV"	"RT VMO,uV"	"RT VLO,uV"	"RT RECTUS FEM.,uV"	"RT SOLEUS,uV"	"RT SEMITEND.,uV"	"Channel 12,uV"
0.0000	-1.51206	-6.7515	-28.2863	-5.65097	-0.2069	-0.598123	-1.81255	3.96881	-1.278	-7265.44
0.0007	-1.86784	-8.88757	-15.4625	-4.74162	0.362074	0.920189	0.0244939	27.1676	-0.0639001	-10554.5
0.0013	-1.86784	-6.14119	2.8467	-3.83226	0.672424	0.920189	1.24919	24.4156	0.549541	-9667.39
0.0020	-1.86784	-0.953602	16.2759	-4.12456	0.0517249	-0.276057	0.636841	14.0443	-0.0639001	-9724.73
0.0027	-2.75729	-6.7515	19.6287	-4.74162	-1.4483	-1.79437	-1.81255	1.22817	-1.278	-9899.95
0.0033	-1.24523	-16.5164	10.7813	-5.05015	-1.13795	-1.79437	-1.2002	-8.23328	-0.971282	-9787.22
0.0040	2.13468	-14.3803	-3.8679	-6.57656	0.362074	0.322066	1.86153	14.0443	-0.0639001	-9812.34
0.0047	2.75729	-7.66696	-13.0225	-7.17738	0.362074	0.644132	2.15546	26.2464	1.16298	-9816.53
0.0053	2.40151	-3.69997	-23.0899	-5.05015	-0.2069	-1.79437	0.31842	0	2.37708	-9817.82
0.0060	3.29096	0.276544	-32.2536	-2.30585	-0.827598	-3.31268	-1.49413	-19.2186	0.856262	-9789.15
0.0067	3.02413	3.02292	-33.4736	-0.162384	-1.13795	-1.79437	-1.49413	-22.8803	-0.677341	-9856.15
0.0073	1.15628	3.93837	-31.639	1.0555	-0.2069	0	0.636841	-37.2317	0.549541	-9849.06
0.0080	-0.622614	7.29505	-29.199	1.67256	0.362074	0.322066	2.15546	-47.2959	1.16298	-9534.36
0.0087	-1.86784	10.3466	-25.2317	1.67256	-0.827598	-0.598123	0.636841	-34.1727	0.549541	-10412.7
0.0093	-1.86784	8.21051	-21.5717	1.36403	-1.4483	-2.11643	-1.2002	-14.9541	-0.0639001	-9009.33
0.0100	-2.75729	5.15898	-9.96797	1.67256	-0.827598	-0.874179	-0.293927	-3.66176	0.24282	-2546.58
0.0107	-4.89197	5.15898	15.0559	0.746967	-0.2069	1.24225	1.24919	-1.52384	0.856262	108.55
0.0113	-5.51458	3.63322	39.1579	-3.2152	0.0517249	1.24225	1.24919	-1.2168	0.856262	-148.169
0.0120	-5.24775	-1.86906	41.9052	-7.17738	-0.517249	-0.276057	-0.293927	-0.29567	-0.370621	-90.512
0.0127	-4.89197	-6.14119	23.596	-6.86885	-1.4483	-1.51831	-2.42489	-1.83088	-1.89144	84.392
0.0133	-3.37991	-5.22574	8.03402	-3.2152	-0.827598	-1.51831	-2.10647	4.58289	-1.278	-28.3454
0.0140	-0.35578	-3.69997	0.713934	-0.779444	0.0517249	-0.276057	0.31842	22.2776	-0.0639001	-3.22107
0.0147	1.7789	-1.86906	-5.70244	-0.162384	0.672424	0.644132	0.636841	34.184	0.549541	0.322107
0.0153	3.29096	-0.343297	-10.2752	0.146146	0.672424	-0.276057	-0.906273	43.6455	-0.0639001	-0.322107
0.0160	3.91358	-0.953602	-12.417	0.146146	-0.827598	-2.11643	-2.10647	58.9066	-0.971282	-0.322107
0.0167	4.26935	-2.17421	-14.8571	-0.162384	-1.13795	-1.19625	-1.49413	57.9855	-0.677341	-0.644214
0.0173	4.89197	-0.028608	-21.2644	0.146146	0.0517249	0.920189	0.930767	36.9361	0.24282	-0.644214
0.0180	3.29096	5.46414	-24.9244	0.454675	0.362074	0.644132	1.86153	13.7373	1.16298	0
0.0187	-0.35578	5.46414	-21.5717	0.454675	-0.517249	-0.874179	-0.293927	-4.57152	-0.0639001	-0.322107
0.0193	-4.26935	-2.17421	-14.2425	0.454675	-1.13795	-2.11643	-2.42489	-7.01649	-0.971282	-0.644214
0.0200	-6.75981	-6.44635	-0.515117	0.146146	-1.13795	-1.79437	-1.81255	9.15441	-0.370621	-0.322107
0.0207	-5.51458	-4.61543	14.1341	2.27338	0.0517249	-0.276057	0.930767	14.0443	0.856262	-0.322107
0.0213	-3.11307	-2.78452	26.036	7.7782	0.672424	0.644132	1.54311	-19.8327	1.4697	0
0.0220	-0.622614	-3.39482	39.4652	10.831	-0.517249	-0.598123	0.0244939	-61.6359	0.856262	-0.322107
0.0227	2.40151	-1.86906	38.5524	9.30461	-1.75865	-3.03662	-2.42489	-59.805	-0.0639001	-0.966321
0.0233	3.02413	4.24353	18.1014	9.90543	-0.827598	-2.4385	-1.81255	-32.3418	2.07036	-0.966321
0.0240	2.13468	4.54868	-7.52794	13.2668	0.362074	0	1.24919	-27.4632	2.6838	0
0.0247	2.13468	-0.953602	-24.6172	13.2668	-0.2069	0.920189	1.86153	-47.6029	0.549541	0
0.0253	3.02413	-0.953602	-26.4517	11.1233	-0.517249	-0.276057	0.930767	-61.6359	-0.0639001	0
0.0260	2.75729	2.71776	-20.6499	11.4318	-1.13795	-1.79437	-1.81255	-41.1892	-1.278	-0.322107
0.0267	1.51206	3.93837	-11.8025	16.0111	-0.827598	-1.19625	-2.10647	-0.602713	-1.278	-0.322107
0.0273	0.622614	2.10746	0.713934	21.8082	0.0517249	-0.276057	0.930767	17.092	0.24282	0
0.0280	0.266835	0.886849	-0.515117	20.8988	0.672424	-0.276057	1.86153	18.3202	0.856262	0
0.0287	0.266835	3.93837	-18.2098	18.1545	0.0517249	-1.19625	0.0244939	32.9673	0.24282	-0.322107
0.0293	0.889449	6.68475	-27.0572	6.54408	-1.13795	-3.03662	-2.10647	39.6767	-0.677341	0
0.0300	0.622614	7.90536	-32.5518	-22.1329	-0.827598	-1.79437	-1.81255	14.0443	-1.278	0
0.0307	-0.622614	11.262	-52.3883	-34.9451	0.362074	0.920189	0.31842	-14.6471	-1.278	-0.322107
0.0313	-0.35578	7.90536	-63.3775	-19.6972	0.362074	0.920189	0.930767	-15.2498	-0.677341	0.322107
0.0320	0.266835	0.276544	-69.4775	-5.05015	-0.517249	-0.276057	0.0244939	1.53521	-0.370621	0.322107
0.0327	-0.35578	2.41261	-83.5213	0.146146	-1.13795	-1.79437	-1.2002	11.5994	-0.971282	0
0.0333	-0.35578	3.02292	-42.9264	2.58191	-0.2069	-1.51831	-1.2002	13.1232	0.24282	-0.322107
0.0340	0.266835	-3.69997	44.6525	5.01767	0.362074	0.322066	0.0244939	10.6896	1.76364	-0.322107
0.0347	0	-10.7185	70.2909	-2.90668	0.0517249	1.24225	0.930767	8.85874	1.76364	0
0.0353	-0.978394	-17.4318	39.1579	-21.8244	-1.4483	0.644132	0.0244939	24.7226	0.24282	0
0.0360	-0.35578	-16.2112	22.0687	-27.3292	-2.37934	-0.874179	-2.10647	43.3385	-1.58472	0
0.0367	0.622614	-7.97211	19.6287	-13.5915	-1.4483	-0.598123	-1.49413	24.1085	-0.677341	0
0.0373	0.266835	-3.39482	37.3324	-0.779444	0.0517249	1.24225	1.54311	-11.895	1.76364	0
0.0380	0	-6.14119	86.4674	4.41685	0.362074	1.24225	2.15546	-19.8327	2.6838	0
0.0387	0.889449	-10.1082	104.162	6.54408	-0.517249	-1.19625	-0.293927	-12.5091	1.4697	0.322107
0.0393	1.15628	-6.7515	70.2909	8.07049	-0.827598	-2.71456	-2.42489	-9.75712	0.24282	0.322107
0.0400	0.889449	4.54868	44.9598	11.7404	-0.517249	-1.51831	-1.49413	-3.66176	0.549541	0
0.0407	2.13468	14.6187	28.7833	18.1545	0.362074	0	0.636841	6.41377	1.4697	0
0.0413	4.89197	12.4826	1.62669	22.7175	0.672424	0	1.54311	13.4303	1.4697	0
0.0420	6.40403	-1.86906	-18.2098	22.4252	0.0517249	-0.598123	0.636841	6.10673	0.549541	0
0.0427	3.64674	-12.2442	-31.3318	18.7554	-0.827598	-1.79437	-1.81255	-18.3088	-1.278	0
0.0433	-0.978394	-10.4133	-32.859	17.229	-0.827598	-1.51831	-1.2002	-37.2317	-2.19816	0
0.0440	-3.37991	-6.14119	-7.8352	13.5753	0.0517249	0	0.930767	-32.0348	-1.89144	0
0.0447	-3.11307	-3.39482	17.4959	-7.48591	0.0517249	1.56432	1.24919	-14.9541	-3.11833	0
0.0453	-2.49046	-0.953602	20.2432	-39.232	-0.827598	1.24225	0.0244939	-3.95743	-6.46669	0
0.0460	-1.24523	-0.343297	15.6614	-51.427	-1.4483	-0.276057	-1.81255	-9.75712	-8.30701	0
0.0467	0	-0.343297	13.2213	-38.6149	-1.4483	-0.276057	-1.81255	-23.8015	-7.08013	0
0.0473	0	0.276544	9.25403	-19.0801	-0.517249	0.920189	0.636841	-29.2941	-4.63915	0.322107
0.0480	0.622614	1.49715	4.37398	-7.48591	0.672424	0.920189	1.86153	-27.4632	-2.8116	0.322107
0.0487	1.7789	2.10746	0.406671	-2.90668	-0.2069	-0.276057	-0.293927	-23.4944	-2.19816	0
0.0493	3.02413	0.886849	-2.95515	-1.07173	-1.4483	-1.51831	-2.42489	-18.9115	-2.19816	0
0.0500	2.40151	-0.648449	-2.34062	1.67256	-0.827598	-1.19625	-2.10647	-3.66176	-0.677341	0.322107
0.0507	0.889449	-1.25875	-0.207854	3.5075	0.0517249	0.322066	0.31842	34.7981	1.4697	0.322107
0.0513	0.622614	-1.25875	-1.12061	-2.90668	0.362074	0.920189	1.24919	67.754	2.07036	0
0.0520	1.15628	-0.648449	-3.25337	-12.9745	-0.2069	0	0.0244939	55.5519	2.37708	0
0.0527	1.15628	-0.343297	-5.70244	-17.5537	-1.75865	-1.51831	-1.81255	22.2776	2.37708	0.322107
0.0533	0.622614	0.581697	-5.39517	-12.3737	-1.4483	-0.874179	-1.49413	7.32353	2.99053	0.322107
0.0540	-0.35578	3.32807	-0.813343	-1.38026	-0.2069	0.644132	0.930767	3.36609	4.20463	0
0.0547	-1.86784	6.07444	3.45219	3.19897	-0.2069	0.644132	0.930767	0.307042	3.91069	0
0.0553	-3.11307	4.24353	3.15396	2.27338	-0.517249	-0.874179	-0.906273	2.13792	2.6838	0
0.0560	-2.75729	-1.56391	-2.03336	0.146146	-1.13795	-2.71456	-2.10647	3.36609	1.4697	0.322107
0.0567	-1.51206	-2.78452	-6.00066	-1.99732	-1.4483	-1.19625	-0.587853	5.19698	1.76364	0
0.0573	-1.51206	-0.028608	-5.08791	-1.99732	-0.2069	1.56432	1.86153	11.5994	2.07036	0
0.0580	-1.24523	2.41261	-3.56063	-0.162384	0.362074	1.84038	2.15546	19.844	1.76364	0
0.0587	-0.622614	3.93837	-3.56063	2.58191	0.362074	-0.276057	0.636841	31.7391	0.549541	0
0.0593	-0.622614	2.41261	-9.66974	1.36403	-1.13795	-2.71456	-2.42489	42.4287	-0.370621	-0.322107
0.0600	-0.35578	-1.56391	-19.7371	1.0555	-0.827598	-2.4385	-1.81255	29.9082	2.37708	-0.966321
0.0607	0	-5.22574	-26.1444	2.89044	0.982773	0	1.54311	-9.46145	4.81807	-0.644214
0.0613	-1.24523	-6.14119	-27.979	-7.17738	0.362074	0.644132	1.54311	-38.4485	2.07036	-0.322107
0.0620	-1.51206	-4.92058	-28.5845	-15.7188	-0.827598	-1.19625	-0.587853	-39.9724	0.549541	-0.644214
0.0627	-0.978394	-8.88757	-27.6717	-5.9595	-1.13795	-2.71456	-2.42489	-29.9082	0.549541	-0.644214
0.0633	-1.86784	-16.2112	-20.3516	3.19897	-0.517249	-1.51831	-1.81255	-18.9115	-0.677341	0.322107
0.0640	-3.37991	-18.6524	-12.1098	5.94326	0.0517249	0	0.930767	-10.0642	-0.370621	0.322107
0.0647	-3.37991	-17.1267	-3.25337	11.1233	0.0517249	0.322066	1.54311	-6.09536	0.856262	0
0.0653	-3.11307	-15.9061	19.0232	11.7404	-0.517249	-0.874179	-0.587853	-6.70944	1.76364	-0.644214
0.0660	-2.49046	-17.4318	35.4979	8.07049	-1.13795	-2.11643	-1.49413	-8.54033	2.07036	-0.966321
0.0667	-2.49046	-16.8215	17.4959	8.37902	-0.517249	-1.51831	-0.587853	-10.9853	2.37708	-0.644214
0.0673	-3.11307	1.49715	-15.4625	10.214	0.362074	0	1.24919	-11.895	2.37708	-0.644214
0.0680	-2.75729	26.8248	-29.5063	12.0489	0.362074	0.920189	2.15546	-5.78832	1.4697	0
0.0687	-0.978394	30.1815	-28.5845	9.90543	-0.827598	0.322066	-0.293927	-3.95743	-0.0639001	0.322107
0.0693	-0.978394	18.5857	-25.539	-2.90668	-1.75865	-0.276057	-2.71882	-16.785	-1.58472	0
0.0700	-1.51206	10.6517	-14.2425	-16.3358	-1.4483	1.24225	-0.906273	-28.373	-2.19816	0
0.0707	-0.622614	5.76929	7.12127	-13.9001	-0.2069	1.56432	0.930767	-28.9871	-1.278	0
0.0713	-0.35578	2.71776	24.2105	-4.43309	0.0517249	0.644132	0.636841	-20.1397	-0.677341	0
0.0720	-1.24523	0.886849	35.4979	-5.05015	-0.517249	-0.276057	-0.906273	8.24466	-1.278	0
0.0727	-1.24523	0.581697	43.4325	-7.79444	-1.4483	-1.51831	-2.42489	40.2908	-2.8116	0.322107
0.0733	-0.622614	2.41261	34.8924	-0.779444	-0.827598	-0.598123	-1.81255	40.5978	-3.11833	0
0.0740	-1.24523	4.54868	16.5832	-1.99732	0.362074	0.322066	0.31842	22.8917	-1.89144	0
0.0747	-3.11307	6.37959	6.19948	-9.62938	0.0517249	0.644132	1.24919	12.2135	-1.278	0
0.0753	-3.37991	5.15898	2.53944	-5.65097	-1.13795	-0.276057	0.0244939	7.93761	-1.278	0
0.0760	-1.86784	1.80231	1.01216	0.146146	-1.4483	-1.79437	-2.42489	11.5994	-1.58472	0
0.0767	-1.86784	-0.028608	1.62669	0.146146	-0.827598	-1.51831	-1.81255	19.844	-1.58472	0
0.0773	-3.11307	1.192	2.23217	-0.162384	-0.2069	0	0.636841	18.6159	-0.370621	0.322107
0.0780	-2.49046	3.63322	1.93395	0.746967	0.362074	0.644132	1.54311	12.8275	0.549541	0.322107
0.0787	0.266835	4.54868	0.406671	2.27338	0.0517249	0.322066	0.930767	11.5994	-0.0639001	0
0.0793	1.15628	5.46414	-3.25337	1.98109	-1.13795	-1.51831	-1.2002	8.85874	-1.278	0
0.0800	0.266835	8.82082	0.0994086	1.0555	-1.13795	-1.19625	-1.2002	10.6896	-1.278	0
0.0807	0.889449	12.4826	10.474	7.7782	-0.2069	0.644132	0.930767	17.7061	0.24282	-0.322107
0.0813	2.40151	13.3981	12.0013	16.6281	-0.2069	0.644132	0.930767	2.44497	1.4697	0
0.0820	3.29096	11.262	2.23217	19.9732	-0.2069	-0.874179	-0.587853	-15.8639	0.549541	0.322107
0.0827	3.64674	7.90536	-9.96797	18.7554	-1.13795	-3.31268	-2.10647	0.921127	0.549541	-0.644214
0.0833	3.02413	5.76929	-15.1553	17.846	-1.13795	-3.03662	-1.81255	29.3055	2.6838	-0.644214
0.0840	1.51206	2.41261	-14.2425	19.681	0.362074	0	0.636841	27.4746	2.99053	0.322107
0.0847	0.622614	-2.78452	-12.417	20.5903	0.672424	0.644132	1.54311	-7.01649	1.16298	0
0.0853	0.889449	0.886849	-6.61519	17.846	-0.2069	-0.874179	-0.587853	-27.4632	-0.0639001	0
0.0860	0.889449	9.43112	-0.813343	11.7404	-1.13795	-2.11643	-2.71882	-9.46145	-1.278	0.322107
0.0867	1.15628	8.51566	-6.61519	9.90543	-1.4483	-1.51831	-2.10647	15.2611	-1.278	0.322107
0.0873	2.40151	-0.343297	-22.7917	13.2668	-0.2069	0.322066	0.0244939	20.1511	-0.0639001	0
0.0880	2.13468	-5.53089	-35.6063	17.5375	0.982773	0.920189	1.24919	12.8275	0.856262	0
0.0887	0.266835	-5.22574	-44.4537	25.1695	0.362074	-0.276057	0.31842	9.7685	0.24282	0
0.0893	-0.978394	-10.4133	-53.9156	22.7175	-1.13795	-2.11643	-1.81255	8.5517	-1.89144	0
0.0900	-1.51206	-18.9576	-46.8937	-0.162384	-0.827598	-1.51831	-1.81255	3.66176	-2.50488	0
0.0907	-2.13468	-21.3988	-33.7718	-13.5915	0.0517249	0.920189	0.930767	-2.12655	-0.0639001	0.322107
0.0913	-2.75729	-20.4834	-28.2863	3.19897	-0.2069	0.644132	1.54311	-10.0642	2.07036	0
0.0920	-2.49046	-16.2112	6.814	8.68755	-0.827598	-0.874179	-0.293927	-19.2186	0.549541	0
0.0927	-0.978394	-8.88757	49.5416	-20.298	-1.13795	-2.11643	-2.42489	-21.3565	-1.58472	0
0.0933	0	-8.58241	40.9925	-27.6215	-1.13795	-2.11643	-2.10647	-17.0807	-1.58472	0
0.0940	-1.51206	-14.9906	8.64854	-3.52373	-0.2069	-0.598123	-0.293927	-10.0642	0.24282	0.322107
0.0947	-2.49046	-22.3143	-5.08791	12.0489	0.672424	0.644132	1.24919	-1.83088	0.856262	0
0.0953	-1.86784	-38.1822	-8.74795	13.2668	0.0517249	-0.276057	0.0244939	2.75201	0.24282	-0.322107
0.0960	-1.24523	-41.844	-12.7153	-9.62938	-1.13795	-2.11643	-2.10647	2.44497	-1.58472	0
0.0967	-1.51206	-3.39482	-12.7153	-38.3064	-0.2069	-1.51831	-1.2002	4.58289	-2.19816	0.322107
0.0973	-2.75729	31.4021	-1.42787	-45.6299	0.982773	0.322066	1.24919	10.0755	-1.58472	0.322107
0.0980	-4.00252	26.8248	26.6505	-37.9979	0.982773	0.920189	1.24919	12.8275	-1.278	0
0.0987	-2.49046	10.9569	50.1471	-23.9679	0.362074	0	-0.293927	14.3514	-1.278	0
0.0993	0.889449	3.63322	46.1798	-14.5009	-0.827598	-1.79437	-1.81255	17.092	-1.58472	0
0.1000	2.75729	5.46414	32.4524	-15.7188	-0.827598	-0.276057	-1.2002	18.3202	-1.278	0
0.1007	2.75729	9.43112	17.4959	-18.1708	0.362074	2.48451	1.24919	15.5682	-0.971282	0
0.1013	3.02413	10.9569	0.406671	-17.8622	0.672424	1.84038	1.86153	8.24466	-0.971282	0
0.1020	2.40151	13.3981	-7.22068	-16.6444	-0.517249	0.644132	0.31842	-0.29567	-0.971282	0.322107
0.1027	0.889449	16.1445	-7.52794	-12.3737	-1.4483	-0.874179	-2.10647	-10.9853	-1.58472	0.322107
0.1033	-1.24523	12.7878	-6.92245	-2.90668	-0.517249	-1.19625	-1.49413	-16.4779	-1.278	0
0.1040	-1.51206	0.276544	-5.39517	5.01767	0.362074	0.644132	1.24919	-5.1856	0.549541	0
0.1047	-0.622614	-5.22574	-3.56063	8.99608	-0.2069	0.920189	1.86153	8.24466	1.16298	0
0.1053	-0.622614	0.581697	-0.813343	11.4318	-0.517249	-0.276057	-0.293927	16.1823	0.24282	0
0.1060	-1.24523	4.85383	8.64854	13.8676	-1.13795	-1.51831	-2.10647	28.3844	-0.677341	0.322107
0.1067	-1.51206	6.37959	24.2105	16.3196	-1.13795	-1.79437	-1.2002	41.5076	-0.370621	0.322107
0.1073	-0.622614	6.9899	33.0579	15.7025	-0.517249	-0.598123	0.636841	38.7669	1.76364	-0.322107
0.1080	0.622614	6.07444	30.0033	16.3196	0.0517249	0.644132	1.54311	16.785	2.99053	0
0.1087	0.622614	6.68475	19.9359	17.229	-0.517249	0	1.24919	-1.2168	0.856262	0.322107
0.1093	0.622614	8.82082	4.06671	17.229	-1.4483	-2.11643	-1.2002	9.7685	-0.971282	0.322107
0.1100	1.51206	4.54868	-10.2752	23.9517	-1.4483	-1.79437	-1.2002	54.3237	-0.677341	0
0.1107	3.02413	-7.3618	-15.4625	3.5075	-0.2069	0.322066	0.930767	65.6161	-0.370621	0
0.1113	2.40151	-14.6855	-9.96797	-46.5555	0.362074	1.24225	1.24919	-16.785	-1.58472	0
0.1120	0	-14.0752	-5.39517	-52.3526	-0.2069	-0.598123	0.0244939	-99.7888	-2.19816	0.322107
0.1127	-1.86784	-10.4133	-9.66974	-18.4793	-1.4483	-2.71456	-2.42489	-99.7888	-2.19816	0
0.1133	-3.64674	-5.22574	-6.30792	-1.68879	-1.75865	-2.4385	-1.81255	-63.1711	0.24282	-0.644214
0.1140	-4.89197	-0.953602	5.59399	-2.30585	-0.517249	-1.19625	0.930767	-39.3583	2.6838	-0.322107
0.1147	-4.62513	0.886849	9.56129	-13.283	0.362074	0.322066	1.54311	-30.5109	0.549541	0
0.1153	-2.13468	2.71776	9.56129	-23.3508	-0.2069	0.322066	0.0244939	-23.1874	-2.50488	0
0.1160	1.15628	5.46414	6.50674	-16.6444	-1.4483	-2.11643	-2.10647	-19.2186	-2.19816	0
0.1167	3.64674	8.82082	-2.64788	-5.9595	-1.4483	-2.11643	-1.81255	-20.7424	-0.0639001	0
0.1173	3.64674	10.3466	-8.74795	-3.83226	-0.827598	0	0.0244939	-25.3253	1.16298	-0.322107
0.1180	0.889449	8.51566	-12.417	-6.26803	-0.2069	0.322066	0.636841	-28.373	0.24282	0
0.1187	-0.622614	6.9899	-13.0225	-9.62938	-0.517249	-0.598123	-0.293927	-17.3877	-0.370621	0
0.1193	0.266835	4.85383	-12.1098	-9.01232	-1.13795	-2.4385	-2.10647	-7.6192	-0.677341	0
0.1200	1.15628	-0.343297	-9.36248	-5.34244	-0.827598	-1.51831	-2.10647	-12.5091	-0.370621	0
0.1207	1.51206	-5.22574	-2.03336	-3.2152	0.0517249	0.644132	0.0244939	-12.2021	0.856262	0.322107
0.1213	0.622614	-5.83604	2.53944	-2.30585	0.362074	0.920189	1.24919	-6.4024	1.16298	0
0.1220	-0.978394	-3.69997	2.8467	-1.99732	-0.2069	-0.598123	0.0244939	-6.09536	-0.0639001	0
0.1227	-0.622614	-2.78452	2.53944	-1.99732	-0.827598	-2.11643	-3.33117	-6.09536	-1.278	0
0.1233	-0.622614	-0.028608	6.19948	-0.779444	-0.827598	-2.11643	-3.03724	-3.95743	-0.677341	0
0.1240	-1.86784	3.63322	21.1559	0.454675	-0.2069	0	0.31842	-2.43359	0.549541	0
0.1247	-2.13468	4.85383	33.6724	0.746967	-0.2069	0.322066	0.636841	-3.66176	0.549541	0
0.1253	-2.75729	5.46414	22.9905	0.746967	-0.517249	-0.598123	-0.906273	-8.54033	-0.0639001	0
0.1260	-3.37991	0.581697	1.93395	0.454675	-1.13795	-2.71456	-3.33117	-7.6192	-1.58472	0
0.1267	-3.11307	-10.4133	-8.74795	0.454675	-0.827598	-3.03662	-3.03724	-0.602713	-0.971282	0.322107
0.1273	-3.64674	-10.4133	-11.4952	1.36403	0.362074	-0.598123	-0.587853	4.88993	0.549541	0
0.1280	-4.26935	0.886849	-17.9026	1.98109	0.0517249	0	0.0244939	16.4893	0.24282	0
0.1287	-1.51206	5.46414	-31.0245	1.36403	-0.517249	-1.19625	-0.906273	19.537	-0.0639001	0
0.1293	1.15628	-2.47936	-37.7391	1.36403	-0.827598	-2.4385	-2.42489	9.15441	-0.370621	0.322107
0.1300	-0.622614	-12.2442	-27.0572	1.98109	-0.517249	-1.51831	-2.42489	3.66176	-0.0639001	0
0.1307	-2.75729	-12.5494	-13.3298	2.58191	0.0517249	0.322066	-0.906273	-4.87856	-0.0639001	-0.322107
0.1313	-2.49046	-8.88757	-7.22068	2.89044	0.0517249	0.644132	0.0244939	2.75201	-0.0639001	0
0.1320	-1.51206	-5.83604	-6.92245	2.89044	-0.2069	-0.874179	-1.49413	35.7079	-0.370621	0.322107
0.1327	0.266835	-4.00513	-10.2752	2.89044	-0.827598	-3.31268	-3.64959	35.1052	-1.89144	0
0.1333	1.51206	-1.56391	-12.1098	4.41685	-0.827598	-3.03662	-3.33117	3.05905	-1.278	0
0.1340	0	3.63322	-11.8025	7.16114	0.362074	-0.276057	-0.587853	-11.895	0.549541	0.322107
0.1347	-1.51206	5.76929	-8.44973	8.07049	0.672424	0	0.636841	-8.84737	0.24282	0.322107
0.1353	-0.978394	3.32807	-3.25337	5.94326	-0.2069	-1.51831	-0.906273	3.96881	-0.971282	0
0.1360	-0.978394	3.93837	0.713934	2.58191	-0.827598	-2.71456	-3.03724	18.9229	-1.58472	0
0.1367	-3.11307	7.6002	3.45219	1.0555	-1.13795	-1.79437	-1.81255	24.7226	-0.370621	0
0.1373	-3.37991	10.3466	2.53944	3.5075	-0.517249	0	-0.293927	23.1988	0.549541	0.322107
0.1380	-2.75729	10.9569	-2.64788	6.54408	0.0517249	0.920189	0.636841	17.7061	1.76364	0
0.1387	-2.49046	3.32807	-15.4625	6.54408	0.362074	-0.276057	0.0244939	-1.52384	1.76364	0.322107
0.1393	-1.51206	-10.1082	-22.4844	4.41685	-0.827598	-3.03662	-2.71882	-23.4944	0.24282	0.322107
0.1400	-1.24523	-17.1267	-8.44973	4.72538	-0.827598	-2.4385	-3.03724	-21.9706	-0.0639001	0
0.1407	-1.24523	-14.6855	-3.25337	5.63473	0.362074	0.322066	-0.587853	-19.5256	0.856262	0
0.1413	1.51206	-9.19272	-13.9353	5.94326	0.672424	1.24225	0.930767	-33.8656	0.856262	0
0.1420	3.29096	-7.3618	-9.05521	4.10832	-0.2069	-0.276057	0.0244939	-32.3418	-0.0639001	-0.322107
0.1427	2.40151	-6.14119	7.72676	1.0555	-1.4483	-2.71456	-1.49413	-20.1397	0.856262	-0.966321
0.1433	1.51206	-2.17421	19.6287	2.89044	-1.13795	-1.19625	-0.906273	-17.3877	1.76364	-0.644214
0.1440	2.13468	1.80231	14.4414	8.07049	-0.2069	1.24225	0.930767	-6.4024	0.24282	0.322107
0.1447	2.40151	4.85383	-0.813343	11.1233	0.362074	0.920189	1.86153	10.9967	0.24282	0.322107
0.1453	2.40151	5.46414	-8.74795	12.3574	0.0517249	-0.598123	0.636841	14.3514	0.549541	0
0.1460	3.02413	3.63322	-10.2752	11.4318	-1.13795	-2.4385	-2.42489	4.58289	-0.677341	-0.322107
0.1467	2.75729	3.32807	0.0994086	9.90543	-0.517249	-1.79437	-2.10647	-5.49265	-0.677341	0
0.1473	1.15628	5.46414	13.8359	9.30461	0.362074	-0.276057	0.930767	-6.4024	0.549541	0.322107
0.1480	-0.35578	6.07444	8.64854	10.214	0.0517249	0.322066	2.47388	-1.2168	1.4697	0
0.1487	-0.35578	2.41261	-1.12061	13.2668	0.0517249	-0.598123	1.54311	2.44497	1.4697	0
0.1493	0.266835	-2.47936	-2.34062	16.3196	-0.2069	-2.4385	-1.2002	3.36609	0.24282	0
0.1500	-0.35578	-4.92058	-7.52794	12.9583	-0.827598	-1.79437	-0.906273	7.63057	-0.0639001	0
0.1507	-1.51206	-5.53089	-19.1226	-0.779444	-0.517249	0.920189	2.15546	10.0755	0.549541	0
0.1513	-2.49046	-4.31028	-26.759	-8.70379	-0.2069	1.56432	2.47388	0.921127	0.856262	0
0.1520	-2.49046	-1.56391	-28.2863	0.146146	-0.517249	0.644132	0.636841	-7.32353	0.856262	-0.322107
0.1527	-1.51206	-0.953602	-24.3189	10.5225	-1.13795	-0.598123	-0.587853	-7.01649	0.856262	0
0.1533	-0.622614	-2.47936	-17.2971	15.7025	-0.827598	-0.276057	-0.587853	-4.87856	1.4697	0.322107
0.1540	-2.13468	-2.78452	-11.188	21.2074	-0.2069	1.24225	0.930767	-1.83088	2.07036	0
0.1547	-4.00252	-1.86906	14.7486	26.0789	0.0517249	1.56432	2.47388	2.75201	2.37708	0.322107
0.1553	-1.86784	-0.028608	49.8398	29.7488	-0.2069	0.322066	1.54311	3.36609	1.4697	0
0.1560	1.7789	2.41261	48.0143	21.2074	-1.4483	-1.51831	-1.49413	-3.04768	-0.370621	0
0.1567	3.02413	2.71776	30.9251	-8.10297	-1.4483	0.322066	-0.293927	-7.6192	-0.971282	0.322107
0.1573	3.02413	1.80231	24.2105	-20.6065	-0.2069	2.48451	2.47388	-7.32353	-0.677341	0.322107
0.1580	1.15628	3.93837	14.1341	-6.26803	0.672424	2.16244	2.47388	-6.4024	-0.0639001	0
0.1587	-0.622614	3.63322	0.0994086	-14.5009	-0.2069	0.920189	0.930767	-5.78832	-1.89144	0
0.1593	-0.622614	-0.028608	-11.188	-46.5555	-1.4483	-0.874179	-0.906273	-4.87856	-4.33243	0
0.1600	-0.35578	-3.69997	-13.3298	-58.1497	-0.827598	-0.276057	0.0244939	-1.2168	-4.33243	-0.322107
0.1607	0.889449	-7.05665	-8.14246	-44.412	0.0517249	1.56432	1.54311	3.36609	-2.8116	-0.322107
0.1613	3.02413	-6.44635	-1.42787	-25.4943	0.672424	1.84038	2.15546	5.79969	-0.971282	-0.322107
0.1620	3.64674	-3.08967	2.8467	-13.5915	-0.2069	0.920189	1.54311	5.79969	-0.370621	-0.322107
0.1627	2.75729	-1.25875	1.93395	-10.2302	-1.4483	-0.598123	-0.587853	3.96881	-0.971282	0
0.1633	1.51206	0.581697	0.713934	-8.10297	-1.75865	-0.276057	-0.293927	3.66176	-0.677341	0
0.1640	0.266835	1.80231	3.75945	-4.74162	-1.13795	1.24225	2.15546	5.19698	0.856262	0
0.1647	0	0.581697	5.59399	-3.52373	-0.2069	1.56432	2.76781	8.24466	1.76364	0.322107
0.1653	-0.35578	-2.17421	2.53944	-4.12456	0.0517249	0	1.24919	10.6896	0.549541	0
0.1660	-0.978394	-2.47936	-3.25337	-4.43309	-0.517249	-1.79437	-0.906273	11.9064	-0.677341	-0.322107
0.1667	-1.24523	1.49715	-5.39517	-2.90668	-0.517249	-1.19625	-1.2002	11.5994	-0.971282	0
0.1673	-2.49046	1.80231	-2.95515	0.146146	0.0517249	0	0.636841	7.32353	-0.0639001	0.322107
0.1680	-3.64674	-0.953602	-0.813343	1.67256	0.0517249	0.644132	1.54311	3.96881	1.16298	0.322107
0.1687	-3.11307	1.49715	1.62669	1.36403	-0.517249	-0.276057	0.636841	4.88993	0.856262	0
0.1693	-0.622614	6.9899	1.31942	0.454675	-0.827598	-1.79437	-1.2002	0.614085	-0.971282	0
0.1700	0	11.262	-1.73513	-0.470914	-1.13795	-1.19625	-0.906273	-11.588	-1.278	0
0.1707	0.622614	11.262	-8.74795	1.0555	-0.2069	1.24225	1.24919	-21.6635	0.24282	-0.322107
0.1713	2.13468	5.46414	-31.9463	2.89044	0.362074	1.56432	1.54311	-27.4632	0.24282	-0.322107
0.1720	1.7789	0.581697	-64.5975	-0.470914	-0.2069	-0.276057	0.0244939	-30.818	-1.58472	0
0.1727	0.266835	-0.648449	-82.5995	-6.26803	-1.4483	-2.71456	-1.49413	-33.57	-0.971282	-0.644214
0.1733	-0.35578	-0.028608	-81.994	-7.79444	-0.827598	-2.71456	-0.906273	-24.7112	1.4697	-0.644214
0.1740	-1.51206	3.93837	-70.6976	-7.48591	0.362074	-0.276057	0.636841	13.1232	1.16298	0.322107
0.1747	-2.49046	4.24353	-54.8283	-7.17738	0.0517249	0.644132	0.636841	66.5372	-0.0639001	0.322107
0.1753	-0.978394	-5.22574	-46.2882	-2.30585	-0.517249	-0.276057	-0.293927	93.0793	-0.0639001	-0.322107
0.1760	-0.622614	-17.737	-17.9026	3.19897	-0.827598	-2.4385	-2.10647	71.1087	-1.278	-0.322107
0.1767	-2.13468	-21.704	66.3236	5.01767	-0.827598	-2.11643	-2.71882	18.0132	-1.58472	0
0.1773	-2.13468	-17.4318	128.888	5.3262	0.362074	0	0.31842	-26.2351	-0.0639001	0
0.1780	-0.622614	-11.9391	99.8875	5.01767	0.672424	0.322066	1.54311	-19.5256	0.24282	-0.322107
0.1787	1.51206	-7.05665	45.5743	3.5075	-0.2069	-0.598123	0.636841	15.5682	-0.677341	0
0.1793	3.02413	-3.39482	18.4087	0.746967	-1.13795	-2.11643	-1.2002	24.7226	-1.278	0
0.1800	2.40151	-1.25875	10.474	-1.68879	-1.13795	-1.79437	-0.906273	11.2923	-1.278	0
0.1807	0	0.886849	18.4087	-4.12456	-0.2069	0.322066	1.54311	1.83088	-0.971282	0.322107
0.1813	-2.49046	2.10746	28.4851	-5.34244	0.0517249	1.56432	2.47388	-1.52384	-0.971282	0
0.1820	-4.00252	1.49715	37.0252	-4.43309	-0.827598	0.920189	0.636841	-3.95743	-1.278	0
0.1827	-4.00252	-2.17421	57.169	-5.65097	-1.4483	-1.51831	-1.81255	-3.95743	-1.58472	0
0.1833	-3.37991	-4.00513	68.7636	-7.17738	-0.517249	-1.19625	-1.81255	-1.2168	-0.677341	0
0.1840	-2.49046	-3.08967	55.0271	-4.74162	0.362074	0.644132	1.24919	2.13792	0.549541	0
0.1847	-0.622614	-3.39482	30.9251	-1.99732	0.0517249	1.84038	1.86153	9.7685	0.549541	0
0.1853	1.51206	-4.00513	5.28673	-1.68879	0.0517249	1.56432	0.930767	19.2299	-0.971282	-0.322107
0.1860	1.7789	-4.31028	-12.1098	-3.2152	-0.827598	-0.874179	-1.2002	18.0132	-3.42505	0
0.1867	0.889449	-0.953602	-18.2098	-2.59815	-1.4483	-1.19625	-1.81255	9.7685	-4.63915	0
0.1873	1.7789	5.46414	-16.0771	-2.30585	-0.2069	0	0.0244939	11.5994	-3.71899	-0.322107
0.1880	3.29096	6.07444	-8.74795	-4.74162	-0.2069	0.322066	0.930767	23.8128	-3.11833	-0.322107
0.1887	3.91358	1.49715	-6.30792	-4.43309	-0.517249	0.322066	0.31842	29.9082	-2.8116	0
0.1893	3.64674	-0.953602	-10.5825	0.746967	-0.517249	-1.79437	-1.2002	22.8917	-1.58472	0.322107
0.1900	0.266835	1.192	-12.417	4.41685	0.0517249	-2.4385	-0.906273	14.3514	0.549541	0.322107
0.1907	-3.11307	3.32807	-11.188	4.72538	0.0517249	-0.874179	0.31842	15.2611	2.37708	0
0.1913	-3.11307	1.80231	-9.05521	2.27338	0.362074	-0.276057	1.54311	24.1085	3.60397	0
0.1920	-4.26935	-0.343297	-6.30792	2.27338	0.0517249	-0.874179	0.636841	10.0755	3.60397	0.322107
0.1927	-5.51458	-0.028608	-8.74795	4.10832	-1.4483	-2.71456	-2.10647	-32.9559	2.37708	0
0.1933	-4.89197	2.41261	-13.0225	4.72538	-1.75865	-1.79437	-1.81255	-52.1858	2.37708	0
0.1940	-5.87036	6.37959	-11.188	4.72538	-0.517249	0.920189	0.636841	-42.1103	3.91069	0
0.1947	-6.1372	2.71776	-3.56063	2.58191	0.362074	1.24225	1.86153	-27.1562	3.91069	0
0.1953	-2.75729	-5.83604	2.8467	0.746967	-0.2069	0.322066	0.636841	-7.6192	2.37708	0.322107
0.1960	0.266835	-5.53089	0.0994086	7.16114	-1.75865	-0.598123	-2.10647	11.5994	0.24282	0
0.1967	1.51206	-0.343297	-6.00066	15.7025	-1.13795	0	-1.81255	30.8293	-0.0639001	-0.322107
0.1973	2.75729	-0.028608	-9.05521	13.8676	0.362074	0.920189	0.930767	50.969	1.16298	0
0.1980	3.29096	-3.08967	-9.66974	6.54408	0.362074	1.24225	1.54311	46.3861	1.4697	0.322107
0.1987	3.02413	-4.61543	-4.78065	2.58191	-0.517249	0.322066	0.0244939	5.19698	-0.0639001	0.322107
0.1993	2.40151	-3.69997	1.01216	2.58191	-0.827598	-1.79437	-2.10647	-24.4042	-1.278	0
0.2000	0.889449	-0.343297	3.45219	4.72538	-0.827598	-1.79437	-2.10647	-13.7259	-0.0639001	0
0.2007	-0.978394	1.49715	5.90125	7.7782	0.0517249	-0.276057	-0.293927	8.85874	1.4697	0.322107
0.2013	-2.49046	1.192	6.19948	8.99608	0.0517249	0.644132	0.930767	13.4303	1.4697	0
0.2020	-2.13468	0.886849	2.23217	8.07049	-0.517249	-0.598123	0.0244939	-2.43359	0.549541	0
0.2027	-2.49046	-2.78452	-3.25337	6.54408	-1.4483	-2.4385	-1.49413	-17.0807	1.76364	-0.322107
0.2033	-1.86784	-9.19272	-9.66974	7.16114	-1.13795	-2.11643	-0.587853	-13.1232	3.60397	-0.644214
0.2040	0	-10.7185	-16.9898	9.90543	0.0517249	0.644132	1.54311	-4.26448	2.99053	0
0.2047	0.889449	-7.97211	-26.4517	10.5225	0.362074	1.84038	1.54311	-1.2168	1.4697	0
0.2053	1.15628	-7.3618	-32.859	12.0489	-0.2069	0	0.636841	-1.83088	1.16298	-0.322107
0.2060	1.7789	-9.19272	-34.3863	8.37902	-1.13795	-2.11643	-1.49413	-11.588	-0.370621	0
0.2067	2.13468	-9.49787	-32.2536	-8.10297	-1.4483	-1.51831	-1.81255	-26.5421	-1.89144	0.322107
0.2073	0.889449	-8.58241	-31.9463	-13.9001	-0.2069	0.644132	0.31842	-28.0659	-0.971282	0.322107
0.2080	0.266835	-8.27726	-26.1444	-1.68879	0.362074	1.24225	2.47388	-18.9115	1.16298	0
0.2087	0.622614	-8.27726	-7.52794	4.41685	-0.517249	0.644132	1.54311	-17.0807	1.16298	0.322107
0.2093	1.7789	-12.2442	4.37398	-0.162384	-2.069	-1.51831	-1.81255	-18.6159	-0.370621	0
0.2100	2.40151	-11.9391	-2.03336	-1.68879	-1.13795	-1.79437	-1.81255	-18.6159	-0.370621	-0.322107
0.2107	1.7789	9.12597	-13.3298	2.27338	-0.2069	-0.276057	0.0244939	-12.5091	0.24282	0
0.2113	0.266835	29.5712	-16.9898	7.46967	0.362074	-0.276057	0.31842	-1.83088	1.76364	0
0.2120	-0.622614	21.6372	-11.188	12.0489	0.0517249	-1.19625	-0.293927	-5.1856	3.91069	-0.322107
0.2127	-0.622614	4.54868	8.03402	16.6281	-1.13795	-1.79437	-1.49413	-20.4467	2.99053	0
0.2133	-0.35578	0.886849	39.7725	19.681	-1.4483	-0.874179	-2.10647	-26.2351	1.76364	0.322107
0.2140	-0.978394	4.24353	55.6417	22.1167	-0.517249	0.644132	-0.293927	-21.6635	2.99053	0
0.2147	-1.86784	6.68475	36.7179	25.7704	0.672424	0.920189	0.930767	-18.0018	3.60397	0
0.2153	-1.24523	6.68475	12.0013	31.2752	0.362074	-0.276057	-0.293927	-12.2021	2.07036	0
0.2160	0	5.15898	6.814	36.4552	-1.13795	-2.11643	-3.03724	2.44497	0.24282	0
0.2167	-0.622614	4.85383	11.6941	39.1995	-1.4483	-2.11643	-2.71882	14.6584	-0.0639001	0
0.2173	-0.622614	6.07444	14.1341	41.9438	0.0517249	0	0.0244939	13.4303	0.856262	0
0.2180	1.7789	7.6002	11.0886	37.6731	0.672424	0.920189	1.86153	7.93761	1.16298	0
0.2187	3.02413	7.29505	4.97946	11.7404	-0.2069	-0.598123	0.31842	6.72082	-0.370621	0
0.2193	2.40151	2.10746	4.06671	-39.232	-1.13795	-2.4385	-2.10647	3.96881	-4.02571	0
0.2200	1.15628	-2.47936	6.814	-84.391	-0.827598	-1.19625	-1.49413	-0.29567	-6.46669	0.322107
0.2207	-0.622614	-0.648449	4.97946	-81.3382	0.0517249	1.24225	0.930767	-0.29567	-5.25259	0.322107
0.2213	-0.978394	2.41261	0.713934	-51.1347	0.362074	1.24225	1.54311	2.75201	-2.50488	0.322107
0.2220	-0.622614	3.02292	-2.34062	-29.765	-0.2069	-0.598123	0.31842	6.10673	-1.278	0.322107
0.2227	-0.622614	2.41261	-4.78065	-18.4793	-1.13795	-1.79437	-1.49413	6.10673	-1.58472	0
0.2233	0.266835	1.49715	-4.48242	-13.5915	-0.827598	-1.79437	-1.49413	3.36609	-1.58472	0
0.2240	-0.35578	1.80231	-1.42787	-11.1558	0.0517249	0	0.31842	2.44497	-0.971282	0
0.2247	-1.51206	4.24353	-0.515117	-9.62938	0.0517249	0.920189	1.24919	2.75201	-0.370621	0
0.2253	-1.51206	6.07444	-2.64788	-9.62938	-0.827598	-0.598123	-0.293927	4.27585	-0.677341	0.322107
0.2260	-0.978394	3.02292	-5.08791	-9.62938	-1.4483	-2.4385	-1.81255	5.79969	-1.278	0
0.2267	-0.978394	-0.648449	-3.56063	-8.39526	-1.4483	-2.11643	-2.10647	7.32353	-1.278	0.322107
0.2273	-1.51206	-0.953602	-4.48242	-6.86885	-0.827598	-0.874179	-0.587853	10.6896	-0.677341	0.322107
0.2280	-1.86784	-0.028608	-17.2971	-5.05015	0.0517249	0	1.24919	10.6896	0.24282	0
0.2287	-1.51206	0.886849	-31.3318	-4.12456	-0.2069	0	0.31842	5.19698	0.24282	0
0.2293	-1.24523	-0.648449	-36.5191	-4.12456	-1.13795	-2.11643	-2.71882	-2.74064	-1.278	0
0.2300	-1.51206	-1.25875	-35.2991	-3.2152	-1.13795	-1.51831	-2.10647	-7.92624	-1.278	0
0.2307	-2.49046	1.49715	-32.2536	-3.83226	-0.2069	1.24225	0.636841	-9.46145	-0.0639001	0.322107
0.2313	-3.37991	5.15898	-23.7044	-4.12456	0.0517249	1.24225	1.54311	-9.15441	0.549541	0
0.2320	-2.49046	10.0414	-1.12061	-1.38026	-0.2069	-0.276057	0.636841	-5.78832	0.549541	-0.322107
0.2327	-1.24523	12.4826	19.6287	1.98109	-1.13795	-1.79437	-1.81255	1.53521	-0.677341	0
0.2333	-0.35578	12.1775	33.3651	2.89044	-1.4483	-2.4385	-2.10647	6.72082	-0.971282	-0.322107
0.2340	0.889449	12.7878	44.6525	1.36403	0.0517249	-1.79437	0.0244939	7.02786	1.76364	-0.644214
0.2347	0.266835	13.3981	37.3324	1.36403	0.362074	-1.19625	1.24919	6.41377	2.6838	0
0.2353	-0.622614	14.0084	18.1014	5.01767	-0.2069	-1.19625	0.636841	5.79969	0.24282	0
0.2360	0	7.29505	6.19948	11.4318	-0.827598	-2.71456	-1.49413	3.66176	-1.278	0
0.2367	0	-10.1082	3.45219	23.3346	-0.827598	-3.03662	-2.10647	5.79969	-0.370621	0
0.2373	0	-21.0937	5.90125	36.1467	0.0517249	-0.874179	0.31842	7.63057	1.16298	0
0.2380	0.266835	-18.3473	8.64854	32.4931	0.982773	0.920189	1.24919	1.22817	0.24282	0.322107
0.2387	-0.35578	-11.6339	7.41949	16.3196	0.362074	0.644132	0.31842	-3.35472	-1.58472	0.322107
0.2393	-1.51206	-4.61543	4.68124	12.3574	-1.13795	-1.79437	-1.49413	2.13792	-2.50488	-0.322107
0.2400	-2.75729	2.71776	3.75945	21.4997	-0.827598	-1.51831	-1.81255	14.9541	-1.89144	-0.322107
0.2407	-2.49046	3.02292	-6.61519	29.4402	-0.2069	0.644132	0.636841	25.6437	-0.370621	0
0.2413	-1.24523	1.192	-22.4844	28.8232	-0.2069	1.24225	1.86153	22.2776	0.24282	0.322107
0.2420	0.266835	4.24353	-26.759	24.2439	-0.2069	0.322066	0.636841	13.7373	-0.0639001	0
0.2427	1.51206	2.10746	-26.1444	19.9732	-1.4483	-1.79437	-2.10647	11.5994	-0.370621	0
0.2433	0.622614	-7.3618	-25.2317	17.229	-1.13795	-1.51831	-2.10647	9.15441	-0.370621	0.322107
0.2440	-2.49046	-8.58241	-26.759	23.9517	0.0517249	0.322066	0.31842	-5.1856	-0.370621	0
0.2447	-5.24775	-4.00513	-31.639	-5.65097	0.0517249	0.644132	1.24919	-29.9082	-1.278	-0.322107
0.2453	-4.26935	-10.7185	-9.05521	-88.0609	-0.827598	-0.598123	0.636841	-37.5274	-2.8116	-0.322107
0.2460	-0.978394	-21.3988	39.7725	-114.611	-1.4483	-1.79437	-1.49413	-19.8327	-3.11833	0
0.2467	1.15628	-18.0421	55.3344	-67.3082	-0.827598	-1.79437	-2.10647	-5.78832	-0.677341	0
0.2473	3.02413	-7.3618	31.2233	-32.8178	-0.2069	-0.598123	-0.293927	1.53521	1.4697	0.322107
0.2480	3.91358	-0.343297	10.1668	-22.1329	0.0517249	0.920189	0.930767	7.02786	1.4697	0.322107
0.2487	2.40151	3.63322	0.406671	-16.3358	-0.2069	0.644132	0.31842	-5.1856	0.24282	0
0.2493	0.889449	4.54868	-6.30792	-12.6822	-1.13795	-1.19625	-1.2002	-21.6635	-1.278	0.322107
0.2500	0	3.32807	-7.52794	-9.01232	-1.13795	-0.874179	-0.587853	-25.3253	-1.278	0
0.2507	-1.51206	3.02292	-4.48242	-6.26803	-0.2069	1.56432	1.24919	-28.9871	-0.0639001	0
0.2513	-2.75729	2.10746	4.37398	-4.74162	0.362074	2.16244	2.47388	-29.9082	0.24282	0
0.2520	-3.64674	-1.86906	13.8359	-2.90668	0.0517249	0.322066	0.930767	-13.7259	-0.370621	0
0.2527	-2.75729	-7.05665	8.64854	-0.470914	-1.13795	-1.79437	-2.10647	-1.52384	-0.971282	0
0.2533	-0.622614	-8.58241	-2.03336	3.19897	-1.13795	-1.51831	-2.10647	-5.49265	-0.971282	-0.322107
0.2540	-0.35578	-4.92058	-4.48242	6.85261	0.0517249	0.322066	0.31842	-10.0642	-0.0639001	-0.322107
0.2547	-0.978394	-2.17421	-1.73513	8.37902	0.362074	1.24225	1.24919	-10.3712	0.549541	0
0.2553	0	-4.61543	1.62669	8.99608	-0.827598	0	0.31842	7.32353	0.24282	0
0.2560	1.15628	-8.88757	-0.207854	3.5075	-1.13795	-1.51831	-1.81255	36.629	-1.278	0
0.2567	1.15628	-7.97211	-4.48242	-10.8473	-0.827598	-1.51831	-1.81255	52.7999	-1.278	-0.322107
0.2573	0.889449	-0.953602	-4.17516	-12.3737	0.0517249	0.322066	0.0244939	57.6785	1.16298	0
0.2580	1.15628	5.15898	-2.34062	3.19897	0.672424	0.920189	0.636841	54.6308	2.99053	0
0.2587	1.7789	5.76929	-2.95515	15.1017	0.0517249	-0.598123	0.0244939	36.9361	2.37708	0
0.2593	1.7789	3.63322	-2.95515	18.4468	-0.827598	-2.71456	-2.42489	6.72082	0.856262	0
0.2600	1.15628	4.24353	0.406671	19.0639	-0.2069	-2.4385	-2.71882	-15.2498	0.856262	0
0.2607	0	8.51566	1.93395	20.2818	0.362074	-0.874179	0.0244939	-16.4779	1.16298	0
0.2613	-0.35578	11.5672	1.93395	25.7704	0.0517249	-0.276057	0.930767	-9.75712	0.856262	0
0.2620	0	10.6517	1.93395	32.8016	0.0517249	-1.19625	0.0244939	-3.66176	0.856262	0.322107
0.2627	-0.978394	9.12597	-0.813343	33.7109	-1.4483	-3.03662	-2.10647	-3.95743	0.549541	-0.322107
0.2633	-1.86784	9.73627	-3.25337	34.0195	-1.4483	-3.31268	-1.2002	-3.04768	2.37708	-0.644214
0.2640	-1.86784	1.80231	-4.48242	34.6203	0.0517249	-1.19625	1.24919	9.46145	3.91069	0
0.2647	-2.13468	-10.4133	-8.44973	19.3724	0.0517249	0.644132	1.86153	9.15441	1.4697	-0.322107
0.2653	-1.51206	-8.27726	-10.2752	8.07049	-1.13795	-0.874179	0.0244939	-2.74064	1.4697	-0.966321
0.2660	-0.35578	3.63322	-8.74795	9.5969	-1.13795	-2.4385	-2.10647	14.0443	2.07036	-0.322107
0.2667	-1.24523	3.02292	-11.8025	-5.9595	-1.13795	-0.874179	-1.81255	37.2317	-0.0639001	0
0.2673	-2.75729	-6.7515	-16.9898	-10.2302	-0.2069	0.920189	0.636841	10.6896	0.24282	-0.322107
0.2680	-3.64674	-4.92058	-17.6044	14.1761	0.672424	1.24225	1.86153	-36.6176	1.76364	0
0.2687	-4.89197	-0.648449	-23.7044	6.25179	-0.2069	0	0.636841	-43.3271	1.16298	0.322107
0.2693	-5.51458	-6.44635	-34.3863	-30.9829	-1.13795	-1.79437	-1.49413	-28.0659	-0.370621	0
0.2700	-5.87036	-8.88757	-16.6826	-34.6528	-0.517249	-0.874179	-0.906273	-18.3088	-0.370621	0
0.2707	-5.51458	-3.08967	18.1014	-20.9151	-0.2069	1.56432	1.54311	-1.52384	-0.0639001	0
0.2713	-2.49046	1.80231	34.5851	-19.0801	-0.2069	1.56432	1.54311	13.7373	-0.677341	0
0.2720	2.13468	6.68475	38.5524	-13.9001	-0.2069	0.644132	0.31842	12.2135	-1.278	0.322107
0.2727	4.89197	4.85383	34.2779	-8.39526	-1.13795	-1.19625	-1.81255	-6.09536	-2.19816	0.322107
0.2733	4.89197	-4.61543	22.376	-25.1858	-1.4483	-1.19625	-2.10647	-21.9706	-3.11833	0
0.2740	4.26935	-6.44635	10.474	-53.879	0.0517249	0.644132	0.31842	-19.5256	-3.11833	0.322107
0.2747	2.13468	-0.648449	2.53944	-60.277	0.672424	1.24225	1.54311	-8.23328	-2.50488	0.644214
0.2753	0.622614	-6.44635	1.62669	-47.1563	-0.2069	0	0.31842	2.44497	-2.19816	0
0.2760	0.266835	-21.704	1.62669	-31.5999	-1.13795	-2.11643	-2.10647	5.49265	-2.19816	0
0.2767	-0.35578	-24.7555	-3.56063	-20.298	-1.13795	-2.11643	-2.10647	-0.909755	-1.89144	0.322107
0.2773	-1.51206	-14.0752	-7.8352	-16.0273	-0.517249	-0.276057	-0.293927	-7.32353	-0.370621	0
0.2780	-2.49046	-2.17421	-7.22068	-14.8094	-0.2069	0.920189	0.31842	-9.75712	0.24282	-0.322107
0.2787	-2.75729	5.46414	-2.64788	-13.9001	-0.2069	0	0.0244939	-9.15441	-0.370621	0
0.2793	-2.49046	6.07444	10.474	-12.0651	-0.517249	-1.51831	-1.49413	-4.57152	-1.58472	0
0.2800	-2.49046	2.71776	25.4305	-9.32085	-0.517249	-0.874179	-1.49413	3.96881	-1.58472	0
0.2807	-2.75729	1.80231	22.9905	-6.26803	-0.517249	0.322066	0.636841	7.63057	-0.370621	0
0.2813	-2.49046	0.581697	8.94677	-4.43309	-0.2069	0.322066	1.24919	-2.12655	0.24282	0
0.2820	-2.49046	-2.78452	-1.42787	-2.59815	-0.517249	0	0.31842	-18.6159	0.24282	0
0.2827	-1.86784	-4.31028	-9.66974	-0.162384	-0.827598	-1.79437	-1.81255	-24.7112	-0.677341	-0.322107
0.2833	0	-1.25875	-17.2971	2.89044	-0.517249	-1.79437	-1.81255	-16.785	-0.370621	0
0.2840	0.889449	0.886849	-16.9898	4.72538	0.672424	0.322066	0.31842	-6.70944	0.549541	0
0.2847	0	-1.56391	-10.5825	5.3262	0.362074	0.644132	0.930767	0.921127	0.549541	-0.322107
0.2853	0.622614	-2.47936	-7.8352	5.94326	0.0517249	-0.874179	0.31842	3.66176	0.24282	0
0.2860	3.29096	-0.648449	-13.0225	6.25179	-0.827598	-2.71456	-2.42489	-1.83088	-0.971282	0
0.2867	3.64674	0.581697	-15.4625	5.3262	-1.13795	-1.79437	-2.71882	-8.23328	-1.278	0
0.2873	1.15628	0.886849	-12.7153	3.19897	-0.517249	0.644132	0.636841	-12.2021	-0.0639001	0
0.2880	-0.35578	1.192	-18.5171	0.746967	0.362074	1.84038	2.15546	-15.2498	-0.0639001	0
0.2887	-0.978394	0.581697	-24.0117	-1.99732	0.0517249	0.920189	0.636841	-14.9541	-0.971282	-0.322107
0.2893	-1.51206	-0.648449	-17.2971	-5.65097	-1.13795	-1.51831	-2.42489	-12.8162	-2.8116	0
0.2900	-2.75729	-0.343297	-8.14246	-5.65097	-1.13795	-1.79437	-2.42489	-10.0642	-3.11833	0
0.2907	-4.89197	0.886849	0.0994086	-0.779444	-0.2069	-0.276057	0.31842	-2.12655	-1.278	-0.322107
0.2913	-5.87036	1.80231	14.1341	2.58191	0.362074	0	1.54311	12.2135	-0.677341	0
0.2920	-4.89197	2.71776	21.7705	2.58191	0.0517249	0	0.930767	28.3844	-1.58472	0
0.2927	-3.64674	1.49715	7.12127	1.0555	-1.4483	-1.79437	-1.2002	39.6767	-2.50488	-0.322107
0.2933	-0.978394	1.49715	-12.417	-1.99732	-1.4483	-2.4385	-1.81255	46.3861	-0.0639001	-0.644214
0.2940	2.75729	4.54868	-24.9244	-2.90668	0.362074	-0.276057	0.636841	58.5996	2.6838	-0.322107
0.2947	3.29096	6.9899	-28.2863	-0.162384	0.982773	1.84038	2.47388	73.5537	2.37708	0.322107
0.2953	1.51206	6.37959	-8.14246	2.58191	-0.2069	0.644132	1.24919	78.7393	1.16298	0
0.2960	0	2.71776	24.5178	3.79979	-1.13795	-1.79437	-1.81255	79.9561	-0.370621	0
0.2967	-0.622614	-1.86906	34.2779	4.10832	-1.13795	-1.51831	-1.81255	54.0167	-0.677341	0
0.2973	-0.35578	-5.53089	19.0232	5.3262	-0.827598	0.322066	0.930767	-32.3418	1.16298	0.322107
0.2980	0.622614	-6.7515	5.59399	5.94326	0.0517249	1.24225	1.86153	-115.96	1.76364	0.322107
0.2987	1.7789	-5.22574	-1.12061	5.94326	-0.2069	0.644132	0.31842	-126.945	0.549541	0
0.2993	2.40151	-1.56391	-7.52794	6.54408	-1.13795	-1.19625	-1.81255	-88.4964	-0.0639001	0
0.3000	1.15628	1.192	-9.66974	8.07049	-1.13795	-1.51831	-1.49413	-57.6785	-0.370621	0.322107
0.3007	0	-1.56391	-5.39517	9.30461	-0.2069	0.322066	0.636841	-31.125	-0.0639001	0
0.3013	1.15628	-5.22574	1.01216	8.68755	0.672424	0.920189	1.24919	16.1823	0.549541	0
0.3020	3.29096	-2.17421	4.06671	3.79979	0.0517249	-0.598123	-0.293927	42.4287	0.549541	0
0.3027	3.29096	-0.648449	0.406671	-0.779444	-1.13795	-2.4385	-2.71882	29.3055	0.24282	0
0.3033	2.75729	-3.08967	-5.70244	-1.38026	-0.827598	-2.11643	-3.03724	11.2923	0.24282	0
0.3040	2.75729	-1.25875	-8.44973	0.746967	0.0517249	0	0.31842	0.921127	0.856262	0
0.3047	2.75729	2.71776	-7.52794	2.27338	0.362074	1.24225	2.15546	-2.12655	1.4697	0
0.3053	2.75729	3.63322	-7.8352	1.98109	0.0517249	-0.598123	0.31842	7.93761	0.549541	0
0.3060	3.02413	3.93837	-7.8352	1.67256	-0.827598	-2.11643	-2.42489	22.2776	-1.58472	0
0.3067	2.75729	4.24353	-4.78065	2.27338	-1.13795	-1.19625	-2.42489	23.1988	-1.89144	0
0.3073	2.40151	3.32807	-1.12061	4.72538	0.362074	0.322066	-0.293927	7.63057	-0.370621	0
0.3080	2.13468	3.93837	-0.813343	6.54408	0.672424	0.920189	0.930767	-1.52384	-0.0639001	0
0.3087	1.7789	4.54868	-3.25337	6.25179	-0.2069	0	0.31842	5.19698	-0.971282	0
0.3093	2.13468	3.02292	-7.52794	10.214	-0.827598	-1.51831	-1.81255	5.49265	-1.89144	-0.322107
0.3100	0.889449	5.15898	-8.74795	14.1761	-0.827598	-1.79437	-1.81255	3.66176	-1.58472	-0.322107
0.3107	-0.978394	10.6517	-6.61519	12.6497	-0.517249	-0.276057	0.31842	-3.35472	-0.370621	0
0.3113	-0.35578	10.6517	-4.48242	11.1233	0.362074	0	0.636841	-33.57	0.24282	0
0.3120	0.266835	4.24353	-7.52794	9.30461	0.0517249	-0.874179	-0.906273	-56.4503	-0.370621	0
0.3127	-1.51206	-0.343297	-23.3972	5.63473	-1.13795	-2.4385	-2.42489	-55.8476	-1.278	0
0.3133	-4.26935	-2.17421	-42.6282	4.72538	-0.827598	-1.51831	-1.81255	-33.2629	-0.677341	0.322107
0.3140	-6.40403	-6.44635	-48.421	5.3262	0.362074	0.322066	0.31842	10.9967	1.4697	-0.322107
0.3147	-7.02665	-7.05665	-41.7064	3.5075	0.672424	0.322066	1.24919	37.5388	3.60397	-0.644214
0.3153	-4.62513	-0.343297	-26.759	3.79979	0.362074	-0.598123	0.31842	23.8128	2.6838	0
0.3160	-1.51206	3.32807	-8.74795	5.94326	-1.13795	-2.11643	-1.81255	-0.602713	-0.370621	0
0.3167	0.266835	-1.25875	15.6614	6.54408	-1.13795	-1.51831	-1.2002	-5.1856	-0.677341	0
0.3173	0.266835	-7.66696	62.049	5.94326	0.0517249	0.920189	0.930767	7.02786	0.856262	-0.322107
0.3180	-0.622614	-8.58241	114.844	4.41685	0.362074	1.56432	1.24919	11.9064	0.856262	-0.322107
0.3187	-1.86784	-5.22574	127.053	3.5075	-0.2069	-0.276057	0.0244939	6.10673	-0.370621	0
0.3193	-2.13468	-4.31028	92.5674	2.89044	-0.517249	-2.71456	-2.10647	4.58289	-1.58472	0
0.3200	-2.49046	-3.39482	64.489	2.89044	-0.517249	-1.79437	-1.49413	11.2923	-0.971282	0
0.3207	-4.26935	-0.028608	55.9489	2.89044	-0.2069	0	0.636841	24.1085	0.24282	-0.322107
0.3213	-3.64674	1.49715	30.3106	1.98109	-0.2069	-0.276057	0.636841	37.2317	-0.0639001	-0.322107
0.3220	0	0.276544	-13.0225	1.36403	-0.517249	-1.19625	-0.293927	38.7669	-0.370621	0
0.3227	1.15628	-1.56391	-36.8263	1.0555	-1.13795	-2.4385	-2.10647	30.2152	-1.278	-0.322107
0.3233	1.15628	0.276544	-39.5736	1.0555	-0.827598	-1.51831	-1.81255	19.2299	-1.278	-0.322107
0.3240	0.889449	6.07444	-42.3209	0.454675	0.0517249	0.322066	0.930767	10.6896	-0.0639001	-0.644214
0.3247	0.622614	7.90536	-39.8809	-0.470914	0.362074	0.644132	2.47388	7.93761	2.6838	-0.966321
0.3253	2.13468	5.15898	-30.419	0.746967	0.362074	-0.276057	1.54311	-16.785	2.99053	-0.322107
0.3260	4.26935	2.10746	-23.3972	1.36403	-0.517249	-1.79437	-1.81255	-69.5735	-0.370621	0
0.3267	4.26935	-0.343297	-16.3843	1.36403	-0.827598	-1.51831	-2.42489	-74.7591	-0.971282	0
0.3273	4.26935	-1.56391	-11.188	3.79979	-0.517249	0	0.0244939	-19.2186	0.856262	0
0.3280	3.29096	0.276544	-12.7153	5.94326	0.0517249	0.644132	1.24919	15.5682	1.4697	-0.322107
0.3287	0.889449	3.32807	-13.9353	4.41685	-0.517249	0	0.930767	9.15441	0.549541	-0.322107
0.3293	1.7789	1.49715	-11.8025	2.58191	-1.75865	-1.51831	-1.81255	-4.26448	-0.677341	0
0.3300	3.29096	-2.47936	-9.36248	1.98109	-1.13795	-1.51831	-2.10647	-9.46145	-0.370621	0
0.3307	1.51206	-2.17421	-8.44973	1.36403	-0.2069	0.920189	0.930767	-9.75712	1.16298	0
0.3313	0	-0.343297	-8.74795	1.0555	-0.2069	1.84038	2.76781	-11.895	1.76364	0
0.3320	0.622614	-0.648449	-9.36248	-0.162384	-0.2069	0.322066	1.24919	-11.895	0.549541	0
0.3327	1.7789	-0.953602	-9.96797	-2.30585	-1.13795	-1.51831	-1.81255	-0.29567	-1.58472	0
0.3333	1.51206	-0.028608	-7.52794	-1.99732	-1.4483	-1.79437	-1.81255	18.0132	-1.89144	0
0.3340	0	1.80231	-5.70244	-1.38026	-0.517249	-0.276057	0.31842	23.1988	-0.677341	0.322107
0.3347	-0.978394	1.192	-7.22068	-0.779444	0.672424	0.322066	0.636841	8.5517	-0.370621	0
0.3353	-1.51206	-4.00513	-8.44973	-0.162384	0.0517249	-0.598123	-0.906273	-8.23328	-0.971282	0
0.3360	-1.24523	-8.27726	-8.74795	-1.68879	-1.13795	-2.11643	-1.81255	-11.588	-2.19816	0
0.3367	-0.35578	-6.44635	-9.05521	-1.99732	-1.4483	-2.4385	-1.81255	-7.01649	-2.19816	0
0.3373	0	-1.56391	-7.8352	-1.07173	-0.2069	-0.874179	0.0244939	-2.43359	-0.677341	0
0.3380	0	0.581697	-6.30792	1.67256	0.0517249	0.322066	1.24919	3.96881	-0.0639001	0
0.3387	-0.622614	-0.648449	-4.78065	4.41685	-0.517249	-0.598123	0.31842	8.5517	0.24282	0.322107
0.3393	-0.978394	-3.08967	-3.56063	2.89044	-0.827598	-2.4385	-1.81255	6.10673	-0.677341	0
0.3400	-0.978394	-3.08967	-2.34062	0.746967	-0.827598	-2.11643	-2.10647	10.3826	-0.971282	0
0.3407	-1.24523	-0.343297	-2.03336	1.36403	0.0517249	-0.276057	0.31842	29.6012	-0.370621	0
0.3413	-0.978394	1.192	-0.813343	2.89044	0.672424	0.644132	1.86153	41.2005	-0.0639001	0
0.3420	-0.978394	-0.648449	-8.14246	4.10832	0.0517249	-0.598123	0.636841	21.3679	-0.0639001	0
0.3427	-1.86784	-4.00513	-36.5191	1.98109	-1.13795	-2.4385	-2.42489	-11.2923	-0.971282	-0.322107
0.3433	-3.11307	-4.31028	-66.7302	-0.779444	-1.13795	-2.11643	-2.42489	-21.9706	-0.370621	0
0.3440	-3.37991	-1.56391	-79.2467	2.58191	-0.2069	0.322066	0.636841	-11.588	2.07036	0.322107
0.3447	-2.75729	1.80231	-80.1594	5.63473	0.0517249	1.56432	1.86153	-2.74064	2.37708	0
0.3453	-1.86784	3.32807	-75.2794	2.27338	-0.2069	0.920189	0.636841	-1.52384	0.549541	0
0.3460	-1.86784	3.93837	-71.6193	-2.59815	-1.4483	-0.598123	-1.2002	-1.2168	-0.370621	0.322107
0.3467	-3.11307	5.46414	-65.212	-3.52373	-1.4483	-0.874179	-1.81255	2.75201	-0.370621	0
0.3473	-3.11307	5.46414	-3.56063	0.146146	0.0517249	0.644132	-0.293927	5.49265	0.24282	0.322107
0.3480	-3.11307	3.02292	101.415	7.16114	0.362074	0.644132	1.24919	3.66176	-0.0639001	0.322107
0.3487	-2.75729	2.10746	131.933	12.9583	-0.2069	-0.598123	0.0244939	0.614085	-0.677341	0
0.3493	-0.35578	3.32807	79.4455	17.229	-0.827598	-2.4385	-2.10647	-0.909755	-1.278	0
0.3500	2.40151	2.71776	39.4652	20.2818	-0.827598	-2.4385	-1.81255	-0.602713	-0.677341	0.322107
0.3507	3.02413	-4.92058	25.7378	21.4997	0.0517249	0.322066	0.636841	4.27585	0.24282	0
0.3513	2.13468	-11.9391	14.7486	25.1695	0.362074	1.56432	1.86153	11.5994	0.24282	0
0.3520	0.622614	-9.80302	8.64854	29.7488	-0.517249	0.322066	0.636841	17.3991	-0.0639001	0
0.3527	-1.24523	-4.92058	4.97946	32.8016	-2.069	-1.79437	-1.49413	15.8752	0.24282	-0.322107
0.3533	-1.86784	-2.47936	15.3541	37.3808	-1.4483	-1.79437	-1.81255	9.7685	3.29725	-0.966321
0.3540	-0.622614	-1.86906	38.5524	42.2523	-0.517249	0.322066	0.0244939	11.2923	5.12479	0
0.3547	0.889449	-0.343297	40.0797	38.9072	0.0517249	1.56432	0.930767	22.5847	3.60397	0.322107
0.3553	1.7789	2.71776	23.596	-3.83226	-0.517249	1.56432	0.31842	41.8146	1.4697	-0.322107
0.3560	2.75729	5.76929	12.3086	-62.1119	-2.37934	-0.276057	-2.10647	47.0002	-1.278	0
0.3567	1.7789	9.12597	5.28673	-69.744	-2.069	-0.598123	-2.42489	11.9064	-3.11833	0
0.3573	0.266835	11.5672	2.8467	-50.8262	-0.517249	0.644132	0.31842	-25.9394	-1.89144	-0.322107
0.3580	0	12.4826	5.28673	-39.232	-0.2069	0.322066	0.930767	-18.3088	1.4697	-0.644214
0.3587	0.889449	11.262	8.34128	-23.9679	0.0517249	-0.598123	0.31842	-3.04768	2.6838	0
0.3593	0.889449	6.37959	9.25403	-13.283	-0.517249	-2.11643	-1.81255	-18.0018	-0.370621	0.322107
0.3600	0	-3.39482	10.1668	-9.62938	-0.2069	-1.51831	-1.81255	-30.5109	-1.278	-0.322107
0.3607	-1.86784	-17.4318	10.1668	-6.26803	0.672424	-0.276057	0.636841	-24.7112	0.24282	0
0.3613	-4.00252	-23.5349	8.64854	-13.9001	0.362074	0	1.54311	-16.1709	-0.370621	0
0.3620	-5.87036	-16.5164	6.50674	-27.6215	-0.2069	-0.276057	0.31842	-14.6471	-1.89144	0
0.3627	-6.40403	-8.27726	1.62669	-22.75	-1.13795	-1.79437	-1.81255	-25.9394	-2.19816	0
0.3633	-4.26935	-2.47936	-4.48242	-8.70379	-0.827598	-1.79437	-1.2002	-30.2039	-0.677341	0
0.3640	-3.37991	3.63322	-8.74795	-5.9595	0.0517249	0.322066	0.930767	-17.6947	0.549541	0
0.3647	-3.37991	6.9899	-4.48242	-8.70379	0.0517249	1.24225	1.24919	-6.09536	0.24282	0
0.3653	-0.622614	7.90536	6.814	-7.79444	0.0517249	0.644132	0.31842	-1.52384	0.24282	0
0.3660	2.75729	9.12597	10.7813	-6.26803	-0.827598	-0.276057	-1.2002	-4.87856	-0.370621	0
0.3667	3.64674	9.12597	10.1668	-8.39526	-1.75865	-0.276057	-1.81255	-10.3712	-0.677341	0
0.3673	2.75729	8.82082	9.56129	-8.39526	-1.13795	0.920189	0.0244939	-8.84737	-0.370621	0
0.3680	2.75729	8.82082	6.19948	-4.43309	-0.2069	1.56432	1.54311	-2.12655	0.24282	0
0.3687	0.889449	3.02292	4.68124	-1.99732	-0.827598	1.24225	0.930767	6.72082	-0.0639001	0
0.3693	-1.86784	-8.27726	5.28673	-1.99732	-1.4483	-0.874179	-1.49413	12.5205	-1.278	0
0.3700	-2.75729	-14.0752	5.28673	-1.68879	-1.4483	-1.51831	-1.81255	12.8275	-1.278	0.322107
0.3707	-2.49046	-13.1597	5.90125	-0.162384	-0.517249	0.644132	0.636841	13.4303	-0.370621	0
0.3713	-2.75729	-9.19272	3.15396	-0.162384	0.362074	1.84038	1.54311	17.3991	0.24282	0
0.3720	-3.11307	-3.69997	-3.25337	-0.779444	-0.517249	0.644132	0.636841	14.6584	0.549541	0
0.3727	-0.622614	-0.953602	-10.2752	-2.30585	-1.75865	-1.19625	-1.49413	4.27585	-0.370621	0
0.3733	1.51206	-2.47936	-10.5825	-5.65097	-1.13795	-1.79437	-2.71882	-1.2168	-0.677341	0
0.3740	0.889449	-2.47936	-3.8679	-5.9595	0.0517249	-0.276057	-0.587853	7.02786	1.16298	0
0.3747	0	1.192	1.62669	-3.2152	0.362074	0.644132	1.86153	18.9229	1.76364	0.322107
0.3753	0.889449	1.49715	2.53944	-1.99732	-0.2069	-0.276057	0.636841	7.32353	0.856262	0.322107
0.3760	2.13468	-2.78452	1.31942	-2.90668	-1.75865	-2.4385	-2.42489	-23.1874	-0.0639001	0.322107
0.3767	2.40151	-3.08967	1.62669	-2.30585	-1.75865	-2.4385	-3.03724	-33.2629	-0.677341	0.322107
0.3773	1.7789	-0.343297	3.75945	-0.162384	-0.2069	0.322066	-0.293927	-12.5091	0.24282	0
0.3780	0.622614	-0.648449	1.93395	0.454675	0.362074	0.920189	1.54311	11.2923	0.856262	0
0.3787	0.622614	-0.028608	-4.78065	0.454675	0.0517249	0	0.0244939	10.6896	0.24282	0
0.3793	1.15628	2.71776	-11.4952	0.746967	-0.2069	-1.79437	-2.10647	-4.26448	-0.971282	-0.322107
0.3800	0.622614	4.54868	-9.96797	0.454675	-0.517249	-2.11643	-2.10647	-9.46145	-1.278	0
0.3807	-1.24523	6.07444	-1.42787	-0.779444	0.0517249	0.322066	0.31842	-4.26448	-0.0639001	0
0.3813	0	6.37959	2.8467	1.36403	0.982773	1.56432	1.54311	4.27585	0.856262	0
0.3820	1.51206	2.41261	4.06671	4.41685	-0.2069	-0.276057	0.0244939	11.9064	1.4697	-0.322107
0.3827	0.266835	-4.31028	7.41949	2.89044	-1.75865	-3.31268	-2.42489	18.6159	2.37708	-0.966321
0.3833	-1.24523	-7.97211	10.1668	2.58191	-1.4483	-2.71456	-2.10647	30.5223	2.6838	-0.644214
0.3840	-0.978394	-7.66696	6.814	4.72538	-0.2069	0.322066	0.636841	36.9361	2.07036	0
0.3847	0.266835	-4.31028	-5.08791	5.94326	0.672424	1.24225	1.86153	18.6159	1.76364	0
0.3853	0.889449	-1.25875	-20.3516	5.94326	-0.2069	-0.598123	0.930767	-15.5568	1.4697	0.322107
0.3860	0.266835	-1.86906	-32.859	6.85261	-1.4483	-2.71456	-1.81255	-39.9724	0.24282	0
0.3867	-1.86784	-1.56391	-36.5191	8.37902	-1.4483	-2.11643	-3.03724	-41.4962	-0.971282	-0.322107
0.3873	-4.00252	3.32807	-32.2536	6.54408	0.0517249	-0.276057	-0.587853	-31.432	1.16298	-0.644214
0.3880	-3.64674	6.9899	-33.1663	5.01767	0.672424	0	1.86153	-24.7112	3.29725	-0.966321
0.3887	-2.13468	4.54868	-31.3318	5.63473	-0.2069	-0.276057	0.930767	-21.3565	1.4697	-0.322107
0.3893	-1.86784	-0.343297	-11.8025	2.58191	-1.4483	-1.79437	-1.49413	-20.4467	-0.971282	0
0.3900	-2.13468	-0.953602	8.34128	0.146146	-1.13795	-1.79437	-1.49413	-19.2186	-2.50488	0
0.3907	-1.51206	-1.86906	15.9686	-1.38026	-0.2069	0.322066	0.636841	-14.6471	-3.11833	0
0.3913	-0.35578	-4.92058	15.9686	-8.10297	0.362074	0.644132	0.930767	-6.09536	-2.50488	0
0.3920	0.622614	-3.08967	10.1668	-8.10297	0.0517249	-0.598123	0.0244939	8.24466	-1.89144	0.322107
0.3927	0	-0.953602	2.8467	-2.30585	-0.827598	-2.11643	-1.49413	27.7703	-1.58472	0
0.3933	0	-0.953602	-2.34062	-1.38026	-0.827598	-2.11643	-2.42489	48.8311	-1.58472	0
0.3940	0.889449	3.32807	-4.78065	-0.779444	0.0517249	-0.276057	-0.587853	47.3073	-0.370621	0
0.3947	0.622614	5.15898	-3.8679	-0.162384	0.362074	0.644132	0.930767	7.63057	-0.370621	0
0.3953	-0.35578	0.886849	-3.25337	-0.779444	0.0517249	-0.598123	0.31842	-26.8491	-1.58472	0
0.3960	-0.978394	-0.343297	-3.56063	-0.779444	-0.517249	-2.4385	-1.81255	-23.4944	-2.19816	0
0.3967	-1.24523	-0.953602	-2.64788	-0.162384	-0.2069	-2.11643	-1.81255	-8.54033	-1.278	0
0.3973	-1.51206	-4.61543	-0.515117	0.746967	0.982773	0.322066	0.636841	0	-0.370621	0
0.3980	-1.86784	-5.22574	0.713934	1.0555	0.362074	0.920189	1.86153	4.88993	-0.0639001	0.322107
0.3987	-1.24523	-3.39482	1.62669	1.36403	-0.517249	-0.874179	1.24919	7.93761	-0.677341	0
0.3993	0.266835	-5.53089	1.93395	2.89044	-1.13795	-2.11643	-0.906273	10.6896	-2.19816	-0.322107
0.4000	1.51206	-7.97211	2.8467	3.79979	-1.13795	-1.51831	-1.49413	15.8752	-2.19816	0
0.4007	1.15628	-4.31028	4.68124	3.5075	-0.517249	0.322066	0.930767	21.6749	-0.370621	0
0.4013	1.15628	0.276544	7.41949	3.79979	0.0517249	0.920189	1.54311	17.7061	0.24282	-0.322107
0.4020	1.15628	-0.028608	5.59399	3.79979	-0.2069	0.322066	0.31842	6.72082	-0.0639001	-0.322107
0.4027	1.15628	-2.78452	-1.42787	2.27338	-0.517249	-0.874179	-1.2002	2.44497	-0.677341	0
0.4033	0.622614	-2.78452	-3.8679	0.746967	-0.517249	-0.874179	-1.2002	-6.70944	-0.370621	0
0.4040	-0.35578	-0.028608	-0.515117	-0.162384	-0.2069	0.644132	0.636841	-26.8491	-0.370621	0
0.4047	-0.622614	1.192	0.0994086	-0.162384	-0.2069	1.24225	1.86153	-34.1727	-0.0639001	-0.322107
0.4053	-1.24523	3.32807	-4.78065	-0.162384	-0.2069	0.322066	1.24919	-23.8015	0.24282	0
0.4060	-1.51206	6.07444	-12.417	-1.38026	-0.827598	-1.79437	-1.2002	-14.6471	-0.971282	0
0.4067	-0.978394	3.93837	-16.3843	0.146146	-0.827598	-2.4385	-2.42489	-9.75712	-0.677341	0
0.4073	-0.622614	-1.25875	-15.1553	3.79979	0.0517249	-0.276057	0.0244939	-3.95743	2.07036	0
0.4080	-1.24523	-0.953602	-11.4952	6.25179	0.672424	-0.276057	1.54311	-2.74064	2.6838	0
0.4087	-2.13468	2.71776	-7.52794	8.07049	0.0517249	-1.19625	0.31842	-9.15441	1.4697	-0.322107
0.4093	-1.24523	1.49715	-12.417	8.07049	-1.13795	-2.71456	-2.71882	-7.01649	0.24282	0
0.4100	-0.978394	0.581697	-24.9244	6.54408	-1.13795	-2.4385	-2.42489	11.5994	-0.0639001	0
0.4107	-1.24523	1.192	-30.7263	6.54408	0.362074	0.322066	0.636841	25.6437	1.16298	0
0.4113	-0.622614	-1.56391	-21.2644	8.37902	1.29312	1.56432	1.54311	26.5535	0.856262	0
0.4120	-1.24523	-1.25875	-8.44973	9.30461	0.362074	0	0.0244939	25.3367	-0.677341	0
0.4127	-2.13468	1.80231	-8.74795	8.07049	-0.827598	-3.03662	-1.81255	22.2776	-0.677341	-0.644214
0.4133	-1.86784	2.71776	-2.64788	4.10832	-1.13795	-2.71456	-1.81255	18.9229	0.856262	-0.644214
0.4140	-1.24523	2.41261	17.8032	-11.7566	-0.517249	0.644132	0.636841	23.1988	-0.0639001	-0.322107
0.4147	-0.35578	2.71776	31.2233	-28.2386	-0.517249	2.16244	1.24919	26.5535	-2.50488	0
0.4153	1.7789	3.63322	37.9379	-24.2764	-0.827598	0.920189	0.31842	18.6159	-2.50488	0
0.4160	3.29096	-2.78452	34.2779	-12.3737	-1.75865	-1.51831	-1.49413	12.5205	-2.19816	0
0.4167	2.40151	-12.5494	22.9905	-6.26803	-1.75865	-1.79437	-2.42489	15.5682	-1.89144	-0.322107
0.4173	0	-10.7185	17.8032	-2.30585	-0.2069	0.322066	-0.293927	21.982	-0.677341	0
0.4180	-1.51206	-1.25875	13.5286	1.0555	0.982773	1.24225	1.86153	28.9984	0.549541	0
0.4187	-1.86784	3.02292	5.59399	1.98109	-0.2069	0.644132	0.930767	18.3202	0.856262	0
0.4193	-2.13468	3.63322	-3.25337	1.98109	-1.13795	-1.51831	-1.49413	-20.4467	-0.370621	0
0.4200	-3.11307	5.76929	-5.70244	2.89044	-0.827598	-1.79437	-1.49413	-57.3714	-0.370621	0
0.4207	-4.26935	7.6002	-2.34062	4.10832	0.362074	0	0.0244939	-63.7738	0.24282	0
0.4213	-4.26935	4.54868	-9.36248	3.79979	0.672424	0.644132	0.930767	-44.8509	0.549541	0
0.4220	-4.00252	-1.25875	-27.3645	2.89044	-0.2069	-0.874179	0.0244939	-18.0018	-0.0639001	0
0.4227	-3.11307	-2.78452	-30.419	3.5075	-1.4483	-2.4385	-2.42489	-3.35472	-1.278	-0.322107
0.4233	-2.75729	2.10746	-19.1226	3.79979	-0.517249	-2.4385	-2.71882	-13.7259	-1.278	0
0.4240	-3.37991	8.21051	-17.2971	4.72538	0.362074	-0.598123	0.0244939	-29.6012	0.24282	0.322107
0.4247	-4.00252	7.6002	-18.5171	7.7782	0.672424	0.322066	1.54311	-27.4632	0.856262	0.322107
0.4253	-4.00252	-0.343297	-8.44973	0.746967	0.0517249	0.322066	0.930767	-12.5091	-0.0639001	0
0.4260	-3.37991	-5.83604	-3.25337	-14.5009	-1.13795	-1.19625	-1.2002	0.614085	-2.50488	0
0.4267	-3.11307	-3.69997	-1.12061	-15.4265	-1.13795	-0.874179	-1.81255	14.9541	-2.8116	0
0.4273	-1.24523	0.276544	15.6614	-7.17738	0.0517249	1.24225	0.636841	34.4911	-0.677341	0
0.4280	1.7789	-0.648449	15.9686	-3.83226	-0.2069	2.16244	1.54311	41.5076	-0.0639001	0
0.4287	3.64674	-9.19272	0.713934	-1.99732	-0.517249	0.644132	0.0244939	32.6602	-0.0639001	-0.322107
0.4293	3.29096	-17.1267	19.6287	-1.68879	-1.13795	-1.51831	-1.49413	24.4156	-0.677341	-0.322107
0.4300	2.40151	-10.4133	41.2997	-0.162384	-1.4483	-1.79437	-1.2002	27.1676	-0.971282	0
0.4307	1.51206	1.49715	31.5306	6.54408	-0.2069	0	0.930767	15.2611	-0.0639001	0.322107
0.4313	0.622614	5.15898	20.5505	12.0489	0.982773	0.920189	1.86153	-20.1397	1.16298	0
0.4320	1.15628	1.80231	18.1014	13.5753	0.672424	0	0.636841	-33.2629	2.07036	0
0.4327	1.7789	-1.86906	16.2759	16.6281	-0.827598	-2.11643	-1.81255	-24.7112	2.07036	0
0.4333	0.622614	-2.47936	16.5832	24.2439	-1.13795	-2.71456	-2.42489	-21.3565	2.07036	0
0.4340	-1.86784	-0.028608	20.2432	32.8016	0.0517249	-0.874179	0.0244939	-13.1232	2.6838	0
0.4347	-3.64674	2.41261	20.8487	37.0723	0.362074	-0.276057	1.54311	-2.12655	2.6838	-0.322107
0.4353	-3.37991	3.93837	12.0013	40.1251	-0.2069	-1.19625	0.0244939	3.66176	1.76364	0
0.4360	-1.86784	4.54868	-2.34062	41.0345	-1.13795	-2.4385	-1.81255	7.32353	0.856262	0.322107
0.4367	-1.86784	3.02292	-13.9353	46.8316	-1.13795	-1.79437	-2.10647	2.75201	-0.0639001	0
0.4373	-3.64674	-2.78452	-20.0444	50.7937	0.0517249	0.644132	-0.293927	-7.92624	0.24282	-0.322107
0.4380	-4.89197	-6.44635	-21.8699	9.5969	0.672424	1.84038	1.86153	-12.2021	-0.0639001	0
0.4387	-4.00252	-5.83604	-22.4844	-36.4715	0.362074	1.56432	1.86153	-16.4779	-1.58472	0
0.4393	-0.978394	-3.39482	-24.9244	-30.0735	-0.827598	-0.874179	-1.49413	-25.0183	-3.42505	-0.322107
0.4400	1.7789	0.276544	-31.0245	-30.6744	-1.4483	-1.19625	-2.10647	-22.5733	-4.63915	0
0.4407	2.13468	-2.17421	-37.7391	-49.6083	-0.517249	1.84038	0.930767	-12.5091	-4.33243	0.322107
0.4413	3.64674	-6.14119	-33.7718	-42.2848	0.362074	2.16244	1.86153	-10.6783	-2.8116	0.322107
0.4420	5.42564	-2.78452	-2.64788	-40.7584	-0.517249	0	0.31842	-13.1232	-2.50488	-0.322107
0.4427	4.26935	0.581697	45.5743	-57.8412	-2.069	-1.51831	-1.49413	-12.8162	-1.89144	-0.966321
0.4433	1.51206	0.886849	66.0163	-53.879	-1.4483	-1.51831	-1.49413	-13.1232	-0.0639001	-0.644214
0.4440	0	1.80231	43.1252	-32.8178	0.0517249	0.322066	0.0244939	-12.2021	0.856262	0
0.4447	-0.622614	2.41261	17.4959	-20.0057	0.0517249	0.920189	0.930767	-8.23328	0.856262	0
0.4453	-0.35578	2.71776	10.1668	-15.7188	0.0517249	0.322066	1.54311	-4.26448	0.24282	0
0.4460	-0.35578	1.80231	5.28673	-13.9001	-0.827598	-1.51831	-0.906273	-2.12655	-0.971282	0
0.4467	-1.51206	-1.86906	1.93395	-12.3737	-1.13795	-1.79437	-2.10647	2.44497	-1.278	0
0.4473	-2.75729	-6.14119	2.53944	-10.5387	-0.517249	-0.276057	0.0244939	7.32353	-0.370621	0
0.4480	-0.978394	-6.14119	2.53944	-8.39526	0.362074	0.644132	1.24919	4.27585	-0.370621	0
0.4487	1.15628	-3.69997	-0.207854	-7.48591	0.0517249	0.644132	1.24919	-3.66176	-0.0639001	0
0.4493	3.02413	-3.69997	-7.52794	-7.17738	-0.827598	-1.19625	-0.906273	-14.34	-0.971282	0
0.4500	3.91358	-1.25875	-12.7153	-6.57656	-0.827598	-1.51831	-1.81255	-23.8015	-1.278	0
0.4507	4.26935	3.32807	-10.8898	-5.34244	0.0517249	0.644132	0.31842	-25.3253	0.24282	-0.322107
0.4513	4.89197	4.54868	-9.66974	-3.83226	0.672424	1.24225	1.54311	-10.3712	0.856262	0
0.4520	3.91358	3.02292	-11.8025	-3.52373	0.0517249	0.322066	0.636841	26.2464	-0.370621	0
0.4527	2.13468	1.80231	-13.3298	-3.83226	-0.827598	-1.19625	-1.2002	53.721	-0.971282	0
0.4533	1.51206	2.71776	-11.8025	-4.43309	-0.827598	-1.19625	-1.81255	41.2005	-0.677341	0
0.4540	1.7789	4.85383	-6.00066	-3.83226	-0.2069	0	-0.293927	14.6584	-0.370621	0
0.4547	2.13468	5.46414	2.8467	-2.59815	0.0517249	0.644132	0.930767	7.02786	-0.0639001	0
0.4553	2.13468	2.10746	4.97946	-2.59815	0.362074	0	-0.293927	3.66176	-0.370621	0
0.4560	1.15628	-0.953602	0.0994086	-2.59815	-1.13795	-1.79437	-2.71882	-6.70944	-1.89144	-0.322107
0.4567	-0.35578	-0.028608	-3.56063	-1.68879	-1.4483	-1.51831	-3.33117	-13.4189	-1.58472	-0.322107
0.4573	-0.978394	-0.343297	-5.39517	-0.162384	0.0517249	0.322066	-0.293927	-20.7424	0.24282	0
0.4580	-0.978394	-3.39482	-3.25337	1.67256	0.982773	1.24225	2.47388	-23.1874	0.856262	0
0.4587	-1.24523	-2.78452	3.75945	2.58191	0.362074	0.322066	1.54311	-17.3877	0.24282	0
0.4593	-1.24523	-2.17421	2.23217	2.58191	-0.517249	-1.79437	-0.906273	-11.895	0.24282	0.322107
0.4600	0	-3.69997	-6.92245	2.27338	-0.517249	-1.51831	-0.906273	12.2135	0.856262	0
0.4607	0.622614	-2.17421	-12.7153	2.89044	0.362074	0.920189	0.930767	43.9525	1.76364	-0.322107
0.4613	0.266835	0.886849	-9.66974	2.89044	0.672424	1.56432	1.24919	42.1217	2.07036	0
0.4620	-1.24523	-0.953602	10.474	2.58191	0.0517249	-0.276057	0.31842	15.2611	0.856262	0
0.4627	-2.75729	-5.83604	37.0252	1.0555	-1.13795	-2.11643	-1.49413	-6.09536	-0.677341	0
0.4633	-2.49046	-6.14119	48.0143	1.0555	-1.13795	-1.79437	-1.81255	-12.8162	-1.278	-0.322107
0.4640	-0.978394	-3.08967	50.1471	4.72538	-0.517249	-0.276057	-0.293927	-10.0642	0.24282	0
0.4647	0.266835	-0.028608	54.4217	4.41685	-0.517249	0.644132	1.54311	-9.15441	1.4697	0
0.4653	0.622614	0.276544	42.827	0.146146	-0.827598	-0.276057	1.24919	-3.66176	1.16298	0
0.4660	1.7789	-1.86906	7.41949	-0.162384	-1.4483	-1.79437	-1.81255	23.8128	-0.370621	0
0.4667	2.75729	0.581697	-31.3318	3.5075	-1.13795	-1.19625	-2.42489	53.107	-0.677341	0
0.4673	1.15628	4.24353	-52.0901	6.54408	0.0517249	0.322066	0.930767	47.9213	0.24282	0.322107
0.4680	-0.978394	2.10746	-52.3883	8.07049	0.362074	0.920189	1.54311	18.3202	1.16298	0.322107
0.4687	0	-1.25875	-43.5409	7.46967	-0.2069	0.322066	0.31842	-2.43359	0.856262	0
0.4693	1.15628	-3.08967	-33.4736	3.19897	-1.13795	-1.79437	-1.2002	-6.09536	-0.370621	-0.322107
0.4700	-0.35578	-3.69997	-19.4299	1.0555	-1.13795	-2.11643	-1.49413	1.83088	-0.370621	-0.322107
0.4707	-3.11307	-0.343297	-0.515117	1.67256	-0.2069	-0.598123	0.0244939	15.5682	0.856262	0
0.4713	-4.00252	3.32807	11.3868	1.98109	0.362074	0.322066	1.54311	22.2776	1.16298	0
0.4720	-4.00252	4.24353	10.7813	1.36403	0.0517249	-0.276057	0.31842	26.2464	0.24282	0.322107
0.4727	-2.75729	5.15898	1.62669	1.0555	-1.13795	-2.4385	-2.10647	54.9378	-1.278	-0.322107
0.4733	-0.35578	6.37959	-9.05521	6.85261	-0.827598	-3.31268	-2.71882	90.3387	0.856262	-0.966321
0.4740	0	8.51566	-19.7371	16.6281	0.362074	-1.51831	-0.587853	77.8295	2.99053	-0.322107
0.4747	-0.978394	10.6517	-43.5409	21.8082	0.672424	0.322066	0.0244939	10.3826	1.4697	0
0.4753	0	8.21051	-71.3121	22.4252	0.0517249	-0.276057	-0.293927	-52.4815	0.24282	0
0.4760	0.889449	3.93837	-78.6322	22.1167	-0.827598	-2.11643	-1.81255	-54.9265	-0.677341	0
0.4767	0	1.80231	-61.2447	22.1167	-0.827598	-2.11643	-2.42489	-23.8015	-0.677341	0.322107
0.4773	-0.978394	-1.25875	-24.9244	21.2074	-0.2069	-0.598123	-0.293927	-8.23328	0.24282	0
0.4780	0	-1.25875	9.25403	18.4468	0.0517249	0.322066	0.930767	-4.87856	0.24282	-0.322107
0.4787	2.13468	-0.953602	18.1014	16.3196	0.0517249	-0.598123	0.0244939	-4.57152	0.24282	0
0.4793	3.29096	-9.49787	15.9686	14.4847	-0.827598	-3.31268	-2.42489	-7.6192	0.24282	0
0.4800	3.29096	-13.77	32.4524	9.90543	-0.827598	-3.31268	-3.33117	-2.74064	0.24282	0
0.4807	1.7789	-4.31028	44.047	5.3262	0.362074	0.322066	0.31842	7.93761	0.549541	0
0.4813	0.266835	3.02292	29.7051	2.58191	0.982773	2.16244	3.06173	12.2135	0.549541	0
0.4820	1.15628	1.49715	17.4959	-13.5915	-0.2069	0.644132	1.54311	3.05905	-0.677341	0
0.4827	2.40151	-0.953602	13.2213	-39.8328	-1.13795	-1.51831	-1.81255	-19.8327	-2.19816	0
0.4833	1.7789	-0.953602	8.64854	-43.5027	-1.13795	-1.79437	-2.42489	-34.1727	-1.89144	0
0.4840	0.889449	0.581697	6.50674	-26.7122	-0.2069	-0.276057	0.0244939	-26.5421	0.24282	-0.322107
0.4847	-0.622614	-0.343297	-0.207854	-13.283	0.362074	0.920189	1.86153	-16.4779	0.856262	-0.322107
0.4853	-2.75729	-6.14119	-13.637	-5.9595	-0.2069	0	0.31842	-14.6471	0.24282	0
0.4860	-3.11307	-11.0236	-23.0899	-2.59815	-1.4483	-1.79437	-2.10647	-12.5091	-0.677341	0
0.4867	-2.75729	-9.19272	-22.1771	-4.43309	-1.4483	-1.19625	-2.42489	-6.4024	-1.278	0
0.4873	-3.37991	-1.86906	-11.8025	-5.34244	-0.2069	1.24225	0.0244939	-1.52384	-0.370621	0
0.4880	-3.64674	2.41261	-0.207854	-3.2152	-0.2069	1.24225	0.930767	-1.83088	0.24282	-0.322107
0.4887	-3.11307	1.49715	8.34128	-1.38026	-0.827598	0	0.31842	-2.74064	0.24282	0
0.4893	-0.978394	1.80231	20.8487	-0.779444	-1.13795	-0.874179	-1.49413	-2.43359	-0.370621	0
0.4900	0.889449	5.15898	33.9706	0.146146	-1.4483	-1.19625	-1.81255	-1.83088	-1.278	-0.322107
0.4907	-0.35578	7.6002	30.9251	-1.99732	-0.517249	1.56432	1.24919	-0.602713	-0.370621	-0.322107
0.4913	-2.13468	7.29505	12.3086	-3.83226	0.0517249	2.76057	2.47388	-4.26448	0.24282	0
0.4920	-2.13468	7.90536	-1.73513	-1.99732	-0.2069	1.24225	1.24919	-11.588	-0.370621	0
0.4927	-1.86784	8.51566	-9.05521	-1.99732	-1.13795	-1.19625	-1.49413	-11.2923	-0.971282	0
0.4933	-1.24523	2.71776	-11.188	-3.83226	-1.13795	-1.79437	-2.71882	0.921127	-1.278	0
0.4940	-1.86784	-4.61543	-4.78065	-3.2152	-0.2069	-0.598123	-0.587853	14.3514	-0.370621	0
0.4947	-2.75729	-8.88757	-1.42787	-1.99732	0.0517249	0.644132	0.930767	19.537	0.549541	0
0.4953	-0.622614	-13.1597	-4.78065	-1.38026	0.0517249	-0.276057	0.636841	17.7061	0.549541	0.322107
0.4960	2.13468	-13.1597	-5.39517	-1.07173	-0.517249	-2.11643	-1.49413	11.2923	-0.971282	0.322107
0.4967	1.7789	-7.66696	1.01216	-1.07173	-1.13795	-1.79437	-1.81255	4.27585	-1.278	0
0.4973	-0.35578	-2.17421	4.37398	0.146146	-0.517249	0.644132	0.31842	4.27585	-0.0639001	0
0.4980	-0.622614	1.192	-0.207854	1.67256	0.0517249	1.24225	1.24919	1.22817	0.856262	0
0.4987	0.622614	0.276544	-6.61519	1.36403	-0.2069	0	-0.293927	-22.5733	0.549541	0.322107
0.4993	1.15628	-1.25875	-12.7153	0.146146	-1.13795	-1.79437	-2.42489	-46.3861	-1.278	0
0.5000	0.622614	0.276544	-16.6826	0.146146	-0.517249	-1.51831	-2.10647	-41.8032	-1.278	0
0.5007	0	2.10746	-16.3843	1.0555	0.362074	0.644132	0.31842	-17.6947	0.24282	0
0.5013	0.266835	2.71776	-16.3843	1.67256	0.362074	0.920189	1.54311	3.96881	1.16298	0
0.5020	0.622614	1.80231	-23.7044	1.67256	-0.2069	-0.276057	0.636841	14.3514	0.549541	0
0.5027	0.266835	-0.028608	-25.8372	-0.162384	-1.4483	-2.4385	-1.81255	7.32353	-0.370621	-0.322107
0.5033	0.622614	-0.343297	-6.61519	-1.99732	-1.13795	-3.03662	-2.71882	-3.66176	0.856262	-0.644214
0.5040	0.622614	1.80231	12.6158	-0.162384	0.0517249	-0.276057	-0.293927	-0.29567	1.76364	-0.322107
0.5047	0	1.49715	15.9686	1.67256	0.0517249	1.24225	1.54311	11.5994	0.549541	0
0.5053	0.889449	-1.86906	15.9686	1.67256	0.0517249	0.322066	0.636841	21.982	-0.0639001	0
0.5060	1.7789	-5.83604	15.0559	0.746967	-0.827598	-1.51831	-2.10647	29.6012	-1.278	0
0.5067	1.15628	-6.7515	10.7813	-0.162384	-1.4483	-2.11643	-2.71882	37.2317	-1.89144	0
0.5073	0.622614	-4.31028	6.50674	0.454675	-0.2069	-0.276057	0.0244939	49.7522	-0.370621	0
0.5080	0	-1.86906	4.37398	1.0555	0.0517249	0.322066	1.24919	64.0922	-0.370621	0
0.5087	-0.622614	-0.953602	4.37398	0.746967	-0.2069	0	0.0244939	73.2467	-0.677341	-0.322107
0.5093	-0.622614	-0.953602	2.8467	0.146146	-0.827598	-1.51831	-1.49413	77.2155	-0.0639001	0.322107
0.5100	-1.24523	-0.953602	2.23217	-0.162384	-1.13795	-1.79437	-1.2002	54.9378	-0.0639001	0.322107
0.5107	-1.51206	-0.028608	4.97946	0.146146	-0.2069	0.644132	0.636841	-25.3253	0.24282	0
0.5113	-0.978394	1.192	4.37398	1.0555	-0.2069	1.24225	1.24919	-102.529	-0.0639001	0
0.5120	0	3.02292	0.0994086	1.36403	0.0517249	0	0.930767	-103.143	-0.0639001	0
0.5127	0.622614	2.71776	-4.17516	0.454675	-0.827598	-1.51831	-0.906273	-60.7262	-0.370621	0.322107
0.5133	1.15628	0.886849	-6.30792	0.454675	-1.4483	-1.79437	-2.10647	-30.5109	-0.971282	0
0.5140	0.266835	0.276544	-4.78065	1.67256	-0.2069	0.322066	0.636841	-19.5256	0.549541	0
0.5147	-0.622614	0.276544	-2.34062	4.41685	0.672424	1.24225	1.86153	-9.46145	1.16298	0.322107
0.5153	0.622614	1.192	0.406671	5.63473	0.0517249	0	0.636841	4.58289	0.24282	0
0.5160	0.889449	2.71776	-0.207854	5.01767	-1.13795	-1.51831	-1.49413	12.8275	-0.677341	0
0.5167	-0.35578	4.24353	-2.03336	6.54408	-1.4483	-2.11643	-2.10647	18.0132	0.549541	-0.322107
0.5173	-0.622614	6.07444	-0.515117	9.5969	-0.2069	-0.874179	0.0244939	25.9394	3.60397	-0.644214
0.5180	-0.35578	6.9899	1.01216	11.7404	0.362074	0.322066	1.54311	34.4911	3.91069	0
0.5187	-0.978394	6.9899	0.0994086	12.6497	0.362074	0.644132	0.930767	41.5076	2.37708	0
0.5193	0	6.37959	-2.03336	14.1761	-0.2069	-1.51831	-1.2002	37.5388	1.16298	-0.322107
0.5200	0.266835	6.37959	-2.03336	16.9204	-0.827598	-2.11643	-2.10647	2.44497	0.24282	0
0.5207	-1.51206	2.41261	1.31942	18.1545	0.0517249	0.322066	-0.293927	-51.8788	0.549541	0
0.5213	-2.49046	-6.44635	2.23217	18.1545	0.672424	1.24225	1.24919	-74.1564	1.16298	0
0.5220	-1.51206	-9.19272	1.01216	17.5375	0.362074	0	0.636841	-56.1433	1.4697	0
0.5227	-0.978394	-6.14119	-1.73513	19.0639	-0.827598	-2.4385	-2.71882	-40.5864	0.24282	0
0.5233	-0.35578	-5.53089	-3.56063	20.5903	-0.827598	-3.31268	-3.64959	-36.6176	-0.971282	0
0.5240	-0.35578	-5.22574	-2.03336	1.98109	0.0517249	-0.874179	-0.587853	-28.0659	-0.971282	0
0.5247	-0.622614	-3.08967	0.713934	-28.8557	0.672424	1.56432	1.86153	-15.8639	-1.89144	0
0.5253	-0.978394	-1.25875	0.713934	-40.1413	-0.2069	0.920189	0.930767	-9.15441	-4.02571	0
0.5260	-0.622614	-2.17421	-2.64788	-33.4186	-1.4483	-1.79437	-1.2002	-8.84737	-5.86603	0
0.5267	-0.622614	-2.47936	-3.25337	-17.2452	-1.4483	-1.79437	-1.81255	-7.92624	-4.02571	0
0.5273	-0.978394	-0.953602	-0.207854	-3.2152	-0.2069	0	-0.293927	-6.70944	-0.971282	0
0.5280	-1.24523	0.276544	0.713934	-4.12456	0.0517249	0.920189	0.930767	-6.70944	0.24282	0
0.5287	-1.24523	0.276544	-0.207854	-11.7566	-0.517249	0.644132	1.24919	-5.1856	0.856262	0
0.5293	-0.978394	-1.25875	-2.34062	-14.8094	-1.4483	-1.19625	-0.906273	-5.1856	-0.0639001	0.322107
0.5300	-0.35578	-1.86906	-2.64788	-10.8473	-1.4483	-2.4385	-2.71882	-5.1856	-0.971282	0
0.5307	-0.978394	-0.343297	-0.515117	-6.57656	-0.2069	-0.874179	-0.293927	-2.43359	0.24282	0
0.5313	-1.51206	-0.028608	0.713934	-5.05015	0.362074	0.644132	1.54311	-0.602713	0.856262	0.322107
0.5320	-0.978394	-0.028608	0.713934	-4.12456	0.0517249	0.644132	0.930767	0.307042	0.549541	0
0.5327	-1.24523	-1.25875	-1.42787	-3.83226	-0.827598	-1.19625	-1.2002	0.614085	-0.370621	0
0.5333	0	-1.56391	-2.34062	-2.59815	-1.13795	-1.79437	-2.10647	2.13792	-1.278	0
0.5340	-0.622614	-0.953602	-0.515117	0.454675	-0.2069	-0.276057	0.31842	3.36609	0.24282	0
0.5347	-2.75729	-1.56391	-0.515117	2.58191	0.362074	0	1.86153	0.614085	2.37708	-0.644214
0.5353	-2.49046	-1.86906	-2.03336	4.41685	-0.517249	-0.598123	1.24919	1.83088	2.6838	-0.644214
0.5360	-1.24523	-1.86906	-4.48242	6.54408	-1.4483	-1.79437	-0.906273	6.41377	-0.0639001	0
0.5367	-1.24523	-1.25875	-2.64788	8.07049	-0.827598	-1.51831	-1.2002	6.10673	-0.971282	0
0.5373	-1.51206	1.192	4.37398	10.214	0.0517249	0.644132	0.636841	3.66176	0.549541	0
0.5380	-1.86784	2.10746	9.86856	12.6497	0.672424	1.56432	1.54311	2.75201	1.16298	0
0.5387	-1.51206	2.10746	11.3868	14.1761	0.362074	0.644132	0.930767	8.5517	-0.0639001	-0.322107
0.5393	-1.51206	3.63322	8.64854	14.1761	-0.517249	-1.19625	-1.81255	17.3991	-1.278	0
0.5400	-2.13468	3.93837	6.814	16.6281	-0.827598	-1.51831	-2.10647	17.3991	-0.370621	0.322107
0.5407	-3.11307	2.41261	8.03402	16.6281	0.0517249	0.322066	0.31842	2.44497	0.549541	0
0.5413	-3.11307	-0.028608	7.72676	-10.8473	0.672424	0.920189	1.54311	-20.7424	-0.0639001	0
0.5420	-3.11307	-2.47936	4.37398	-45.0291	0.0517249	0	0.930767	-29.9082	-1.278	0.322107
0.5427	-1.86784	-4.31028	-2.34062	-38.3064	-0.827598	-1.79437	-1.81255	-20.1397	-1.58472	0
0.5433	0	-4.31028	-6.61519	-15.7188	-0.827598	-2.71456	-3.03724	-9.46145	-1.278	0
0.5440	1.15628	-1.56391	-5.70244	-8.70379	0.362074	-0.598123	-0.293927	-3.35472	-0.0639001	0
0.5447	1.15628	1.192	-5.08791	-7.17738	0.672424	0.920189	1.24919	-2.43359	0.549541	0.322107
0.5453	0	3.93837	-5.70244	-4.74162	0.0517249	0.322066	0.636841	3.05905	0.24282	0
0.5460	0.622614	5.46414	-10.8898	-3.52373	-1.13795	-1.51831	-1.2002	21.0608	-0.971282	0
0.5467	1.51206	5.15898	-19.4299	-5.65097	-2.069	-1.51831	-1.81255	31.1364	-1.89144	0
0.5473	0.622614	6.9899	-20.9571	-4.74162	-0.517249	0	0.636841	31.4434	-0.971282	0
0.5480	-0.622614	10.9569	-13.637	4.41685	0.362074	0.644132	1.54311	48.217	1.16298	0
0.5487	-2.13468	12.7878	-2.95515	9.30461	-0.2069	0	0.636841	71.4158	1.76364	0
0.5493	0	9.43112	2.8467	5.01767	-0.517249	-1.19625	-1.49413	61.6473	0.549541	0
0.5500	1.7789	0.581697	9.25403	2.27338	-1.13795	-1.79437	-2.10647	38.1529	-0.677341	0.322107
0.5507	0.266835	-7.66696	12.9141	1.36403	-0.827598	0.322066	0.0244939	43.3385	-0.0639001	0
0.5513	0	-7.97211	-6.00066	0.454675	0.0517249	1.24225	0.636841	54.3237	0.856262	0
0.5520	0.266835	-2.78452	-34.3863	0.746967	-0.2069	-0.276057	0.0244939	44.2596	0.856262	0
0.5527	-0.622614	1.49715	-58.4974	-1.07173	-0.827598	-1.79437	-1.2002	-4.57152	-0.677341	0
0.5533	-0.35578	3.32807	-74.6649	-6.26803	-0.827598	-2.11643	-2.42489	-73.5423	-1.89144	0
0.5540	0.622614	5.15898	-74.3666	-7.17738	-0.2069	-0.276057	0.0244939	-92.4652	-0.677341	0
0.5547	-1.24523	4.24353	-68.5648	-5.65097	-0.2069	0.644132	2.15546	-68.3567	-0.370621	0
0.5553	-4.62513	0.886849	-25.8372	-6.26803	-0.827598	-0.598123	0.31842	-46.0791	-1.278	0
0.5560	-4.26935	-6.14119	62.3563	-5.34244	-0.827598	-1.51831	-2.10647	-22.5733	-1.278	0.322107
0.5567	-3.11307	-17.4318	98.062	-2.59815	-0.827598	-1.19625	-1.49413	-0.909755	-0.370621	0
0.5573	-1.86784	-21.704	60.2235	-1.07173	0.0517249	0.322066	0.930767	5.19698	0.549541	0
0.5580	0.266835	-12.5494	29.7051	-1.07173	0.362074	1.24225	1.54311	4.27585	0.549541	0
0.5587	1.15628	-1.25875	21.1559	-1.99732	-0.2069	0.920189	0.31842	15.2611	-0.370621	0
0.5593	2.40151	2.41261	12.0013	-2.59815	-0.827598	-1.51831	-1.49413	32.0461	-1.58472	0
0.5600	1.51206	-1.25875	6.814	-3.2152	-1.13795	-2.11643	-1.81255	26.5535	-2.19816	0
0.5607	-0.978394	-3.08967	10.474	-1.99732	-0.2069	0	0.0244939	-3.66176	-1.278	0
0.5613	-1.51206	3.02292	15.6614	0.146146	0.982773	1.24225	1.54311	-25.6323	0.24282	0
0.5620	-0.35578	8.21051	18.1014	1.36403	-0.2069	-0.276057	0.636841	-25.3253	0.549541	-0.322107
0.5627	0.266835	4.24353	20.5505	0.454675	-1.75865	-3.03662	-1.81255	-18.9115	0.856262	-0.966321
0.5633	0	-1.25875	24.2105	0.746967	-0.827598	-2.4385	-1.49413	-20.1397	2.07036	-0.644214
0.5640	-1.24523	-1.25875	30.3106	2.89044	0.0517249	0.644132	0.636841	-21.3565	1.16298	0
0.5647	-2.75729	1.49715	34.5851	4.10832	0.672424	0.920189	1.54311	-3.95743	0.24282	0
0.5653	-2.13468	3.93837	26.9578	6.25179	0.362074	-0.276057	0.930767	24.7226	1.16298	0
0.5660	-1.51206	1.80231	10.1668	7.7782	-0.827598	-2.4385	-1.2002	31.1364	0.549541	0
0.5667	-2.49046	-5.83604	1.93395	4.41685	-1.4483	-2.71456	-2.71882	14.0443	-0.0639001	0
0.5673	-2.49046	-13.1597	2.53944	0.454675	-0.2069	-0.276057	0.0244939	-4.87856	1.4697	0
0.5680	-0.622614	-11.6339	0.0994086	-0.779444	-0.2069	1.24225	1.86153	-18.3088	1.76364	0
0.5687	0.622614	2.10746	-7.52794	-3.52373	-1.13795	0.644132	0.636841	-14.033	0.549541	-0.322107
0.5693	0.622614	11.5672	-13.0225	-5.34244	-2.069	-1.19625	-1.49413	-0.909755	-0.370621	-0.322107
0.5700	1.15628	14.0084	-4.78065	-4.12456	-1.75865	-1.51831	-1.81255	6.41377	-0.677341	-0.322107
0.5707	0.889449	17.0599	4.68124	-2.30585	-0.517249	0.322066	0.0244939	11.2923	0.549541	0
0.5713	-0.978394	15.229	-1.12061	-2.59815	0.362074	0.920189	0.930767	12.8275	1.4697	-0.322107
0.5720	-3.37991	6.07444	-6.61519	-3.52373	-0.2069	0.322066	0.31842	3.36609	0.549541	-0.322107
0.5727	-5.24775	-2.47936	-10.8898	-3.2152	-1.75865	-1.51831	-2.10647	-12.2021	-0.971282	0
0.5733	-4.89197	-2.47936	-16.3843	-0.470914	-2.069	-2.11643	-3.03724	-32.0348	-1.278	0
0.5740	-4.62513	-4.92058	-14.2425	3.79979	-0.517249	0.322066	-0.587853	-53.0956	-0.0639001	0
0.5747	-4.00252	-17.1267	-16.3843	6.85261	0.362074	1.24225	0.636841	-50.0479	0.549541	0
0.5753	-1.24523	-22.6194	-36.5191	9.5969	-0.2069	0.322066	0.0244939	-41.1892	0.549541	0
0.5760	1.7789	-18.6524	-55.7501	13.2668	-1.4483	-1.19625	-1.81255	-47.2959	-0.370621	0
0.5767	2.75729	-12.5494	-48.7283	17.5375	-1.13795	-1.51831	-2.71882	-24.7112	-1.278	-0.322107
0.5773	3.02413	-2.78452	-28.8917	18.7554	0.0517249	0.322066	-0.293927	22.8917	0.24282	0
0.5780	3.64674	8.51566	-10.8898	16.6281	-0.2069	0.920189	1.24919	50.3549	1.16298	0
0.5787	4.53619	13.3981	11.3868	16.3196	0.0517249	0.322066	0.31842	65.002	0.856262	-0.322107
0.5793	5.78142	3.02292	2.53944	16.0111	0.0517249	-1.19625	-2.42489	62.2614	-0.0639001	0
0.5800	4.26935	-10.7185	-30.7263	15.7025	-0.827598	-2.11643	-3.03724	19.537	-0.971282	0
0.5807	-0.622614	-7.66696	-13.637	11.4318	-0.517249	-0.598123	-0.293927	-23.8015	-0.677341	0
0.5813	-1.51206	1.192	15.3541	-8.70379	0.672424	1.24225	0.930767	-20.1397	-0.370621	0
0.5820	1.7789	1.49715	0.406671	-24.8772	0.672424	1.84038	0.636841	8.5517	-0.971282	0
0.5827	2.40151	-5.53089	-13.9353	-19.3887	-0.827598	-0.598123	-2.10647	24.1085	-2.19816	0
0.5833	0	-14.6855	0.406671	-8.39526	-1.4483	-1.79437	-3.94351	38.7669	-2.19816	-0.322107
0.5840	-1.24523	-16.2112	28.4851	-3.83226	0.362074	0.644132	-0.906273	52.7999	-0.370621	-0.322107
0.5847	-1.24523	-8.88757	45.5743	-5.05015	0.982773	2.16244	0.930767	50.0479	0.549541	0
0.5853	2.13468	-0.343297	46.4871	-7.48591	0.0517249	0.322066	-0.293927	35.7079	-0.0639001	0
0.5860	6.67087	0.886849	38.8597	-7.17738	-0.827598	-1.79437	-2.10647	20.7538	-0.971282	0
0.5867	8.53871	-4.61543	26.9578	-8.70379	-1.13795	-2.11643	-3.33117	10.6896	-1.58472	0
0.5873	7.02665	-8.27726	16.2759	-9.92167	-0.517249	-0.598123	-0.906273	-2.12655	0.24282	0
0.5880	5.42564	-7.3618	4.37398	-6.26803	0.362074	0.644132	2.15546	-16.785	2.07036	-0.322107
0.5887	3.91358	-5.53089	-1.42787	-1.68879	0.362074	0	3.06173	-22.5733	1.76364	0
0.5893	3.29096	-5.22574	-4.48242	-1.07173	-1.13795	-2.4385	0.636841	-23.8015	0.24282	0
0.5900	1.7789	-4.31028	-11.188	-1.99732	-1.4483	-2.4385	-0.587853	-23.4944	-0.0639001	0
0.5907	-0.978394	-3.39482	-16.9898	-1.68879	-0.517249	-0.276057	1.24919	-18.9115	0.856262	0
0.5913	-2.75729	-3.39482	-21.2644	-0.779444	0.0517249	0.920189	2.47388	-14.033	1.16298	0
0.5920	-2.75729	-2.78452	-24.0117	-0.470914	0.362074	0.644132	0.930767	-12.2021	0.549541	0
0.5927	-2.13468	-1.86906	-25.2317	-3.2152	-1.13795	-2.11643	-2.10647	-11.2923	-0.0639001	-0.644214
0.5933	-1.86784	0.276544	-23.3972	-2.59815	-1.13795	-3.03662	-2.10647	-9.15441	1.4697	-0.644214
0.5940	0.622614	3.63322	-13.0225	2.89044	0.0517249	-0.874179	-0.293927	-7.6192	1.76364	0
0.5947	3.02413	4.85383	10.7813	5.63473	0.672424	0.322066	0.31842	-7.32353	0.24282	0
0.5953	3.64674	3.63322	32.1451	5.01767	0.362074	-0.598123	0.0244939	-6.70944	-0.0639001	-0.322107
0.5960	3.64674	0.886849	28.7833	5.94326	-0.517249	-2.4385	-1.49413	-5.1856	-0.677341	0
0.5967	2.40151	-0.648449	12.6158	10.5225	-0.827598	-3.03662	-2.10647	-3.35472	-0.0639001	0
0.5973	1.15628	0.886849	5.90125	16.0111	0.0517249	-0.598123	-0.587853	-2.43359	1.16298	0
0.5980	0.622614	2.41261	4.37398	23.0261	0.362074	0.920189	0.31842	-1.52384	1.4697	0
0.5987	0	2.71776	1.93395	34.328	0.0517249	0.644132	0.636841	0.307042	2.07036	0
0.5993	0.266835	2.10746	-0.813343	37.6731	-0.517249	-0.874179	-1.49413	-0.602713	1.4697	0.322107
0.6000	0.266835	1.80231	-2.03336	34.0195	-0.827598	-0.874179	-2.42489	-3.35472	-0.0639001	0
0.6007	-1.51206	3.02292	0.0994086	29.7488	-0.2069	0.920189	0.930767	-3.95743	-0.0639001	0
0.6013	-2.13468	3.93837	2.8467	17.229	0.362074	1.24225	2.76781	-5.78832	-0.677341	0
0.6020	-1.51206	4.54868	4.06671	11.7404	0.362074	0.644132	2.15546	-7.6192	-0.971282	0
0.6027	-1.51206	4.24353	1.31942	23.3346	-0.827598	-1.79437	0.930767	-7.01649	-0.677341	0
0.6033	-1.86784	3.32807	-2.34062	34.328	-1.4483	-3.63475	-0.906273	-7.6192	-0.677341	0.322107
0.6040	-2.13468	4.54868	-0.813343	32.1845	-0.517249	-1.79437	-0.293927	-4.26448	0.24282	0
0.6047	-2.49046	4.85383	1.31942	2.27338	0.0517249	0.644132	1.86153	7.02786	0.24282	0.322107
0.6053	-2.13468	4.24353	-1.42787	-34.6528	-0.827598	0	0.930767	14.3514	-1.278	0
0.6060	-0.622614	3.93837	-9.96797	-52.0441	-1.4483	-2.11643	-1.81255	9.46145	-1.58472	0
0.6067	0.622614	0.886849	-19.7371	-68.2176	-1.13795	-2.4385	-2.71882	2.44497	-2.19816	0
0.6073	0	-3.08967	-23.7044	-66.6911	-0.517249	0.322066	-0.293927	0.614085	-1.89144	0.322107
0.6080	-0.35578	-2.78452	-22.4844	-38.6149	0.362074	2.16244	1.24919	-0.602713	0.24282	0
0.6087	0	-1.25875	-20.3516	-17.5537	0.0517249	1.56432	0.636841	-0.909755	0.856262	0
0.6093	0.266835	-1.56391	-20.9571	-12.9745	-1.13795	-0.276057	-1.2002	3.05905	-0.677341	0
0.6100	0.622614	-1.56391	-22.4844	-13.283	-1.4483	-0.874179	-1.81255	12.2135	-2.50488	0
0.6107	0	0.276544	-11.8025	-11.1558	-0.827598	1.24225	0.636841	21.6749	-3.11833	0
0.6113	0	0.581697	14.7486	-14.2086	-0.2069	2.16244	1.86153	26.2464	-3.42505	0
0.6120	-0.35578	0.276544	33.3651	-19.0801	-0.517249	0	0.930767	27.1676	-3.11833	0
0.6127	-0.35578	0.886849	28.7833	-14.8094	-0.827598	-2.71456	-0.906273	24.1085	-2.8116	0.322107
0.6133	0	0.886849	16.8814	-10.8473	-1.13795	-3.95681	-1.81255	21.6749	-2.8116	0.322107
0.6140	0	1.80231	8.94677	-8.39526	0.0517249	-2.4385	-0.293927	25.6437	-1.58472	0
0.6147	-0.978394	3.63322	2.53944	-5.9595	0.672424	-0.874179	0.930767	20.1511	-0.677341	0
0.6153	-1.51206	1.80231	-3.25337	-4.74162	0.0517249	-1.19625	0.0244939	-10.0642	-0.370621	0
0.6160	-1.51206	-2.78452	-9.96797	-1.38026	-1.13795	-3.63475	-2.10647	-43.3271	-0.971282	0
0.6167	-1.86784	-3.08967	-14.5498	-3.2152	-1.4483	-3.63475	-2.42489	-48.8197	-1.278	0.322107
0.6173	-1.24523	0.581697	-13.9353	-17.5537	-0.517249	-0.276057	-0.293927	-32.9559	-0.971282	0
0.6180	-0.35578	2.41261	-17.2971	-23.0585	0.362074	1.24225	1.54311	-18.0018	-0.370621	0
0.6187	-1.51206	2.41261	-19.7371	-10.5387	0.362074	1.24225	2.15546	-10.6783	1.16298	0
0.6193	-1.86784	0.276544	-5.70244	-3.83226	-0.517249	-1.19625	0.0244939	-8.54033	1.16298	0.322107
0.6200	-1.24523	-0.953602	12.9141	-5.05015	-1.4483	-3.31268	-1.2002	-7.92624	1.4697	-0.322107
0.6207	-0.622614	2.10746	20.8487	-1.99732	-0.2069	-0.874179	0.31842	-5.49265	3.60397	-0.322107
0.6213	0	3.93837	20.5505	0.454675	0.362074	0.644132	1.24919	-2.74064	2.99053	0
0.6220	0	2.10746	15.0559	-0.470914	-0.517249	-1.19625	0.636841	-2.43359	1.16298	0
0.6227	-0.35578	-0.343297	8.34128	-0.779444	-1.4483	-3.03662	-0.906273	-3.35472	0.24282	0
0.6233	-0.35578	-1.86906	4.68124	-2.30585	-2.069	-1.79437	-1.81255	-3.95743	-0.370621	0
0.6240	-1.51206	-1.25875	4.37398	-3.52373	-1.4483	2.76057	0.31842	-2.43359	-0.370621	-0.322107
0.6247	-2.13468	-0.028608	4.68124	-1.38026	-0.827598	5.52113	2.76781	-1.2168	-0.0639001	0.322107
0.6253	-1.86784	-0.953602	3.45219	0.454675	-1.13795	3.08263	1.54311	-1.83088	-0.0639001	0
0.6260	-1.86784	-2.78452	1.62669	-1.68879	-1.75865	-0.598123	-1.81255	-3.04768	-0.0639001	-0.966321
0.6267	-2.49046	-1.86906	1.31942	-1.99732	-1.13795	-0.598123	-2.42489	-2.43359	0.549541	-0.644214
0.6273	-1.51206	2.71776	0.406671	1.36403	0.0517249	1.24225	-0.587853	1.53521	-0.971282	0
0.6280	-1.24523	6.37959	-1.12061	2.58191	0.0517249	1.84038	0.0244939	4.88993	-2.50488	0
0.6287	-1.24523	6.37959	-1.12061	-0.470914	-0.2069	0.644132	-0.587853	4.88993	-2.19816	0
0.6293	0	5.46414	-2.95515	-0.779444	-0.517249	-1.79437	-2.71882	3.96881	-1.278	0.322107
0.6300	0.266835	4.85383	-4.78065	4.41685	-0.827598	-2.11643	-3.94351	3.66176	-0.677341	0
0.6307	0.266835	1.80231	-2.64788	6.54408	0.362074	0	-2.10647	4.88993	0.549541	0
0.6313	0.889449	-5.83604	-1.73513	7.46967	0.672424	0.920189	0.0244939	7.02786	2.07036	0
0.6320	0.622614	-15.2958	-2.64788	13.5753	-0.2069	0.920189	-0.293927	2.44497	1.4697	0
0.6327	0.266835	-18.6524	-4.48242	21.2074	-1.13795	-0.598123	-2.42489	-7.6192	-0.370621	0
0.6333	0.622614	-13.77	-4.78065	25.1695	-1.4483	-1.79437	-4.26193	-10.0642	-0.370621	0
0.6340	-0.35578	-8.58241	-3.56063	26.6959	0.0517249	0.322066	-2.42489	-4.26448	1.16298	0
0.6347	-0.622614	-7.3618	-9.36248	27.6053	0.672424	1.24225	-0.587853	0.307042	1.4697	0
0.6353	-0.35578	-7.97211	-18.5171	27.2968	0.362074	0.644132	-1.2002	2.13792	0.856262	0
0.6360	-0.35578	-6.7515	-23.0899	25.4781	-0.827598	-1.19625	-3.64959	3.36609	-0.370621	0
0.6367	0	-7.3618	-24.9244	24.861	-1.13795	-1.51831	-4.26193	6.41377	-1.278	0.322107
0.6373	0.266835	-9.49787	-21.5717	25.4781	0.672424	0.644132	-0.906273	12.2135	0.856262	0
0.6380	-0.978394	3.63322	-12.7153	29.1317	0.982773	1.56432	1.24919	14.0443	1.76364	0
0.6387	-1.51206	24.3836	-5.39517	29.1317	-0.2069	1.24225	0.930767	10.0755	0.24282	0
0.6393	-1.51206	17.0599	-3.25337	-7.48591	-1.13795	-0.276057	-0.587853	5.49265	-1.278	0
0.6400	-1.86784	-5.83604	9.56129	-52.9534	-1.4483	-1.19625	-1.2002	3.66176	-2.19816	0
0.6407	-2.13468	-8.88757	32.4524	-51.427	-0.517249	-0.598123	1.24919	7.32353	-0.971282	0.322107
0.6413	-2.49046	-1.25875	34.2779	-33.4186	0.362074	-0.598123	3.38016	9.15441	0.24282	0.322107
0.6420	-2.49046	-0.648449	17.8032	-27.9301	0.362074	-0.598123	3.06173	-1.52384	-0.370621	0.322107
0.6427	-1.51206	-7.05665	5.90125	-20.298	-0.827598	-1.79437	0.31842	-12.5091	-0.971282	0.322107
0.6433	-0.35578	-14.6855	1.31942	-8.10297	-1.4483	-3.03662	-1.49413	-10.9853	-0.0639001	0.322107
0.6440	-0.35578	-15.9061	-1.12061	3.5075	-0.827598	-1.51831	0.930767	-5.1856	1.16298	0
0.6447	-0.35578	-19.8731	-2.95515	14.4847	-0.2069	-0.276057	2.47388	-1.83088	2.07036	0
0.6453	0.622614	-42.4543	-2.95515	21.4997	-0.2069	-1.79437	1.24919	1.22817	2.07036	-0.322107
0.6460	1.15628	-46.4213	-3.56063	25.7704	-0.827598	-3.95681	-0.587853	3.66176	0.856262	0
0.6467	1.15628	-1.25875	-4.48242	31.2752	-1.4483	-3.63475	-0.906273	5.79969	0.549541	0.322107
0.6473	0.622614	35.9794	2.8467	37.9816	-0.827598	-1.51831	0.0244939	10.3826	1.4697	0.322107
0.6480	-0.978394	33.233	20.2432	46.523	0.0517249	0.322066	0.930767	17.7061	2.37708	0
0.6487	-2.75729	19.8063	33.0579	50.7937	-0.517249	1.84038	1.24919	21.3679	1.76364	0
0.6493	-3.11307	14.0084	30.0033	51.4108	-2.069	1.56432	-0.587853	17.3991	-0.0639001	0
0.6500	-4.62513	13.7033	19.6287	51.7193	-2.37934	0.322066	-1.81255	9.7685	-0.971282	0
0.6507	-5.87036	14.0084	8.03402	40.7259	-1.13795	0.920189	-0.587853	7.02786	-0.677341	0
0.6513	-4.62513	13.7033	-4.78065	1.67256	0.0517249	2.16244	0.636841	12.2135	-1.58472	0
0.6520	-2.13468	14.3136	-16.0771	-61.2026	0.0517249	1.84038	0.31842	10.6896	-3.11833	0
0.6527	-0.978394	14.0084	-26.4517	-86.8268	-0.2069	-0.874179	-1.49413	-3.35472	-2.50488	-0.644214
0.6533	-0.622614	11.5672	-26.759	-46.247	0.0517249	-2.4385	-1.81255	-9.75712	-0.971282	-0.644214
0.6540	-0.978394	9.43112	-19.4299	0.746967	0.672424	-1.19625	0.0244939	5.79969	-0.370621	0.322107
0.6547	-0.978394	8.21051	-15.1553	10.5225	0.982773	-0.874179	0.636841	49.1381	-1.278	0.322107
0.6553	0	6.37959	-6.92245	-30.9829	0.672424	-0.276057	0.0244939	82.4011	-4.02571	0
0.6560	0.266835	7.6002	3.15396	-79.5033	-0.827598	0	-1.2002	52.1858	-6.77341	0
0.6567	-0.622614	13.0929	7.12127	-74.924	-1.4483	0.644132	-1.81255	-10.6783	-5.86603	0
0.6573	0	9.73627	6.19948	-46.8478	-0.2069	1.84038	0.31842	-46.9888	-1.278	0
0.6580	1.51206	-4.92058	1.62669	-29.4565	0.672424	2.16244	2.15546	-50.6506	2.99053	0
0.6587	2.75729	-14.9906	-5.08791	-20.0057	0.672424	0.920189	1.24919	-33.8656	3.91069	0.322107
0.6593	3.02413	-16.2112	-12.1098	-17.2452	-0.517249	-1.51831	-2.10647	-15.2498	1.4697	0.322107
0.6600	0.889449	-18.0421	-12.7153	-15.7188	-1.13795	-1.51831	-3.33117	-14.34	-0.0639001	0
0.6607	-0.978394	-28.1122	-5.39517	-12.9745	0.0517249	0.644132	-0.906273	-21.0495	0.856262	0
0.6613	-0.622614	-38.7925	-1.12061	-11.4481	0.0517249	0.920189	0.930767	-20.1397	1.4697	0.322107
0.6620	0.622614	-36.3513	-2.03336	-10.5387	-0.2069	0.322066	0.636841	-18.0018	0.856262	0
0.6627	1.51206	-26.5864	-3.25337	-9.01232	-0.517249	-1.51831	-0.906273	-19.2186	-0.0639001	0
0.6633	1.51206	-18.3473	1.01216	-8.10297	-1.75865	-3.31268	-2.10647	-17.3877	-0.971282	0
0.6640	-0.35578	3.02292	8.94677	-6.57656	-0.827598	-1.19625	0.31842	-11.2923	-0.370621	0
0.6647	-2.49046	37.8103	8.03402	-5.05015	0.672424	0.920189	2.47388	-4.87856	0.549541	0
0.6653	-3.37991	48.7958	-0.813343	-3.52373	0.0517249	0	0.31842	0.614085	0.24282	-0.322107
0.6660	-2.13468	23.163	-10.8898	-2.90668	-1.13795	-1.19625	-1.81255	1.53521	-0.971282	-0.322107
0.6667	0.622614	0.581697	-27.6717	-2.30585	-1.4483	-1.51831	-2.42489	0.307042	-0.971282	0
0.6673	3.02413	-1.25875	-44.761	-1.99732	-0.827598	-0.276057	-1.2002	2.13792	-0.0639001	0
0.6680	2.40151	1.80231	-41.4082	1.0555	-0.2069	-0.276057	0.636841	5.19698	0.549541	0.322107
0.6687	-0.622614	3.93837	-22.7917	9.90543	0.0517249	-1.19625	0.636841	4.58289	1.4697	0.322107
0.6693	-3.64674	0.886849	-2.64788	16.9204	-0.827598	-2.71456	-1.2002	-0.602713	1.4697	0
0.6700	-4.89197	-1.86906	36.7179	18.1545	-1.75865	-2.4385	-2.42489	-6.09536	0.549541	0
0.6707	-4.00252	-0.028608	73.0382	18.7554	-0.2069	0	-0.906273	-5.1856	1.16298	0
0.6713	-3.11307	-5.83604	73.3454	18.4468	0.362074	1.24225	0.636841	4.27585	1.4697	0
0.6720	-1.86784	-7.66696	65.7091	17.5375	-0.2069	1.24225	0.0244939	17.3991	1.76364	0.322107
0.6727	2.13468	14.0084	43.4325	14.1761	-1.13795	-0.598123	-2.71882	23.5058	0.856262	0
0.6733	4.89197	31.0969	-2.95515	7.7782	-1.4483	-1.79437	-4.55586	17.3991	-0.677341	0
0.6740	4.26935	29.266	-35.2991	4.10832	-0.2069	0.322066	-2.71882	12.2135	-0.370621	0
0.6747	2.75729	23.4681	-46.2882	5.3262	0.672424	1.84038	-0.906273	12.5205	1.4697	-0.322107
0.6753	1.15628	14.3136	-52.0901	5.63473	0.0517249	0.920189	-0.293927	-5.49265	1.16298	0
0.6760	0	3.32807	-51.7828	5.3262	-0.517249	-0.598123	-1.49413	-39.9724	-0.971282	0.322107
0.6767	-0.978394	-4.92058	-45.981	2.89044	-0.827598	-2.4385	-2.42489	-55.5405	-2.50488	-0.322107
0.6773	-2.75729	-13.77	-40.7937	-13.9001	-0.517249	-1.79437	-0.587853	-36.9247	-2.50488	-0.322107
0.6780	-5.51458	-14.0752	-30.419	-32.2008	0.672424	-0.874179	1.54311	-6.70944	-1.278	0
0.6787	-8.00504	-0.028608	-2.95515	-28.2386	0.982773	-1.19625	1.24919	23.5058	-0.370621	0.322107
0.6793	-8.00504	3.32807	33.0579	-12.3737	-0.517249	-3.31268	-0.293927	60.4305	-0.677341	0.322107
0.6800	-4.26935	-12.2442	49.5416	-2.90668	-1.13795	-4.877	-0.293927	84.539	-1.278	0.322107
0.6807	-0.622614	-18.6524	33.0579	0.454675	0.362074	-3.95681	2.47388	73.2467	-0.370621	0
0.6813	1.51206	-8.88757	2.23217	1.0555	1.29312	-2.71456	3.9925	20.7538	0.549541	0
0.6820	1.7789	2.41261	-14.5498	0.746967	0.0517249	-2.4385	2.47388	-38.4485	-0.370621	0.322107
0.6827	1.51206	9.12597	-4.17516	-0.470914	-0.827598	-4.23287	0.31842	-53.0956	-0.677341	-0.644214
0.6833	1.7789	6.9899	9.86856	-2.59815	-0.827598	-5.47512	-0.293927	-31.125	0.549541	-0.966321
0.6840	1.7789	0.581697	7.12127	0.146146	-0.2069	-2.71456	0.930767	-7.6192	0.549541	0.322107
0.6847	0.889449	0.886849	4.97946	2.27338	0.0517249	-0.276057	1.86153	5.79969	0.24282	0
0.6853	-1.24523	3.93837	6.50674	-0.779444	0.0517249	-1.79437	0.636841	15.5682	0.549541	-0.322107
0.6860	-3.11307	-0.343297	6.19948	-1.68879	-0.517249	-3.95681	-2.42489	22.5847	-0.677341	0
0.6867	-3.11307	-6.44635	10.474	0.746967	-0.827598	-4.877	-3.94351	28.9984	-0.971282	0
0.6873	-1.86784	-8.88757	13.2213	2.58191	0.0517249	-5.15306	-1.81255	45.1693	-0.0639001	-0.322107
0.6880	0.266835	-11.0236	10.474	2.89044	0.0517249	-4.23287	0.930767	67.1399	0.549541	0
0.6887	4.53619	-8.58241	13.8359	2.89044	-0.517249	-1.51831	0.930767	45.4764	0.856262	0
0.6893	6.40403	4.85383	26.036	3.19897	-2.069	0	-1.2002	-29.6012	0.24282	0
0.6900	4.53619	18.8908	34.5851	3.19897	-3.00004	1.24225	-2.10647	-55.8476	-0.677341	0
0.6907	3.91358	20.4166	29.3978	3.79979	-1.75865	4.60094	-0.293927	-20.1397	-0.0639001	0
0.6913	3.64674	10.0414	18.4087	5.94326	-1.13795	8.2817	0.636841	-11.588	1.16298	0
0.6920	1.51206	-7.05665	11.3868	7.16114	-2.069	7.36151	-0.293927	-36.9247	0.856262	0.322107
0.6927	1.7789	-21.704	-2.64788	6.25179	-2.68969	3.08263	-2.10647	-57.6785	-0.370621	0
0.6933	2.75729	-21.704	-23.7044	5.01767	-1.75865	-0.276057	-1.81255	-46.3861	-0.971282	0
0.6940	0.889449	-12.5494	-35.2991	5.3262	-0.2069	-0.276057	0.636841	-19.2186	-0.370621	0
0.6947	-0.978394	-6.44635	-35.6063	6.54408	0.672424	0	1.24919	-12.8162	-0.0639001	0
0.6953	-0.622614	-6.7515	-29.5063	6.85261	0.362074	-1.19625	0.636841	-19.5256	-0.370621	-0.322107
0.6960	1.15628	-15.2958	-23.7044	5.94326	-0.827598	-3.63475	-0.293927	-16.4779	-1.58472	0
0.6967	2.13468	-19.8731	-19.7371	5.01767	-1.4483	-3.63475	-1.49413	-13.4189	-1.58472	-0.322107
0.6973	1.51206	-9.49787	-14.5498	4.72538	0.0517249	-0.276057	1.24919	-22.2776	-0.0639001	0.322107
0.6980	1.7789	-9.80302	-12.7153	2.58191	0.362074	1.84038	3.38016	-17.6947	0.24282	0.322107
0.6987	3.02413	-19.8731	-13.637	1.0555	0.0517249	1.24225	2.15546	8.5517	-0.370621	-0.322107
0.6993	2.40151	-2.17421	-17.2971	0.746967	-0.517249	-0.598123	-1.2002	29.9082	-0.971282	0
0.7000	0.266835	24.0784	-19.7371	1.0555	-0.827598	-0.276057	-3.94351	35.7079	-1.58472	0.322107
0.7007	-2.13468	15.8393	-11.8025	0.454675	0.0517249	3.08263	-2.71882	46.0905	-0.0639001	0
0.7013	-4.26935	-8.88757	-1.42787	-2.30585	0.982773	5.8432	0.0244939	58.9066	1.4697	-0.322107
0.7020	-5.51458	-16.2112	4.68124	-1.99732	0.362074	4.27888	0.636841	28.6914	1.4697	0
0.7027	-4.62513	-14.9906	6.814	0.746967	-1.13795	0.644132	-2.10647	-28.9871	0.549541	0.322107
0.7033	-4.62513	-15.6009	4.68124	1.67256	-1.75865	-1.19625	-3.64959	-51.8788	-0.677341	0
0.7040	-5.51458	-18.9576	3.45219	1.0555	-0.827598	-0.276057	-0.293927	-41.4962	-0.0639001	0
0.7047	-3.64674	-30.2482	4.06671	0.454675	0.0517249	0.644132	2.76781	-37.8344	0.24282	0
0.7053	-0.978394	-42.7595	2.8467	1.0555	-0.2069	-0.598123	3.38016	-31.432	-0.0639001	0
0.7060	0.266835	-49.1677	2.53944	1.36403	-1.4483	-2.11643	1.54311	14.9541	-0.971282	0
0.7067	0.266835	-31.1637	4.97946	1.36403	-2.069	-1.79437	-0.293927	65.309	-1.278	-0.322107
0.7073	0	16.4496	2.53944	1.0555	-1.13795	0.644132	0.636841	52.1858	0.549541	0
0.7080	0.622614	68.9359	-5.39517	1.67256	0.0517249	2.16244	2.15546	3.05905	2.07036	0.644214
0.7087	2.40151	104.944	-11.8025	1.98109	0.0517249	1.56432	1.24919	-19.8327	1.16298	0.322107
0.7093	2.75729	101.892	-15.1553	1.67256	-0.827598	-0.276057	-2.10647	-14.9541	-0.677341	0.322107
0.7100	0.266835	74.1235	-14.2425	1.36403	-0.517249	-0.276057	-3.94351	-8.23328	-0.370621	0
0.7107	-2.75729	44.5237	-8.74795	1.0555	0.362074	1.56432	-2.10647	-7.32353	1.4697	0
0.7113	-3.64674	10.3466	-7.8352	3.79979	0.672424	2.16244	-0.293927	-8.84737	2.07036	0
0.7120	-1.51206	-7.66696	-9.96797	7.46967	0.362074	0.644132	-0.906273	-9.75712	1.4697	0
0.7127	1.15628	1.80231	-9.05521	6.25179	-0.517249	-2.4385	-3.33117	-13.7259	1.4697	-0.644214
0.7133	3.64674	14.3136	-12.417	5.63473	-0.517249	-2.71456	-3.64959	-15.5568	2.07036	-0.644214
0.7140	4.89197	10.6517	-13.3298	6.85261	0.672424	-0.598123	-0.906273	-8.54033	1.76364	0.322107
0.7147	3.29096	-0.648449	-1.12061	5.63473	0.982773	-0.598123	0.636841	0.307042	0.856262	0.322107
0.7153	2.13468	-6.14119	8.03402	4.72538	0.672424	-2.4385	-0.906273	2.13792	0.549541	0
0.7160	2.40151	-7.66696	7.72676	4.10832	-0.2069	-4.55493	-2.42489	-1.2168	-0.370621	0
0.7167	1.51206	-8.88757	6.50674	1.98109	-0.827598	-6.39531	-2.10647	-3.95743	-0.370621	0
0.7173	-0.35578	-8.27726	4.97946	1.0555	-0.2069	-6.39531	1.54311	-3.95743	0.549541	0
0.7180	-0.622614	-14.9906	4.06671	1.98109	0.362074	-5.15306	3.9925	-3.04768	1.4697	0
0.7187	0	-41.844	1.93395	1.0555	0.672424	-4.877	2.47388	-4.87856	1.4697	0
0.7193	0.889449	-81.2087	-2.95515	0.454675	0.0517249	-6.39531	-0.906273	-8.84737	0.24282	0
0.7200	2.13468	-95.2457	-5.70244	4.41685	0.0517249	-6.99343	-2.71882	-10.9853	-0.0639001	0
0.7207	2.13468	-50.9986	-3.25337	8.37902	0.672424	-4.23287	-0.293927	-9.46145	1.16298	0.322107
0.7213	0.889449	9.12597	-0.207854	9.30461	0.672424	0.920189	2.47388	-7.6192	1.16298	0.322107
0.7220	-0.35578	15.229	-0.813343	6.54408	-0.2069	3.08263	1.86153	-6.4024	0.549541	0
0.7227	-0.35578	-12.8545	-4.17516	3.79979	-0.517249	-0.276057	-1.2002	-8.23328	0.24282	-0.644214
0.7233	-0.35578	-26.8916	-3.8679	5.94326	-0.517249	-2.11643	-3.33117	-9.75712	-1.278	-0.322107
0.7240	-0.978394	-30.2482	-1.12061	8.68755	0.0517249	-0.276057	-1.81255	-4.87856	-1.278	0
0.7247	-1.24523	-32.6895	2.53944	9.30461	0.672424	0	0.31842	0.921127	0.549541	0
0.7253	-1.86784	-32.9946	16.2759	8.07049	0.672424	-0.874179	0.636841	2.13792	1.4697	0
0.7260	-1.51206	-44.2853	22.0687	-5.34244	-0.2069	-1.51831	-1.49413	4.27585	-0.370621	0
0.7267	-1.24523	-78.7675	6.50674	-23.9679	-1.13795	0	-2.71882	12.5205	-1.89144	0
0.7273	-0.622614	-113.25	-2.64788	-24.2764	-1.13795	3.68075	0.0244939	24.4156	-0.677341	0
0.7280	1.51206	-124.235	4.06671	-11.4481	-0.2069	4.27888	3.06173	32.0461	1.16298	0
0.7287	2.13468	-90.6684	7.41949	-1.99732	-0.517249	3.68075	2.76781	34.184	1.4697	0
0.7293	1.15628	-6.7515	1.93395	0.746967	-1.75865	1.56432	0.31842	31.1364	0.549541	0.322107
0.7300	0.622614	40.8618	-0.813343	1.36403	-1.4483	0.920189	-1.49413	24.7226	-0.0639001	0.322107
0.7307	1.51206	13.0929	1.01216	2.89044	0.0517249	2.76057	0.0244939	22.5847	0.549541	0.322107
0.7313	1.51206	-20.7885	1.31942	3.19897	0.672424	3.08263	0.636841	15.2611	1.16298	0
0.7320	0.266835	-33.9101	-0.515117	3.79979	0.362074	1.56432	-0.293927	-14.033	1.16298	0
0.7327	0.266835	-7.66696	-5.70244	2.27338	0.0517249	0	-1.81255	-44.8509	0.24282	0.322107
0.7333	0.266835	74.4286	-14.8571	2.27338	-0.2069	-0.874179	-2.10647	-46.6818	-0.370621	0.322107
0.7340	-1.51206	119.286	-20.9571	2.27338	0.0517249	0.644132	0.0244939	-31.432	0.24282	0
0.7347	-3.11307	78.7007	-20.0444	-11.7566	0.982773	2.76057	1.24919	-21.3565	-0.677341	-0.322107
0.7353	-3.11307	37.2	-16.9898	-23.3508	0.672424	2.48451	0.930767	-17.0807	-2.8116	-0.322107
0.7360	-3.11307	28.6557	-17.2971	-11.7566	-1.13795	0	-0.587853	-13.1232	-2.8116	0
0.7367	-3.11307	33.8433	-18.5171	-0.162384	-1.13795	-0.874179	-1.2002	-7.32353	-1.89144	0
0.7373	-3.37991	58.2555	-10.8898	-0.162384	0.0517249	0.920189	-0.587853	0	-1.278	0
0.7380	-3.64674	79.9213	9.56129	-1.07173	0.672424	1.56432	-0.293927	2.13792	-0.370621	0
0.7387	-2.75729	69.8513	22.6832	-1.38026	0.362074	-0.276057	0.0244939	-3.35472	-0.0639001	0.322107
0.7393	-0.978394	46.0494	10.1668	-1.99732	-0.827598	-2.4385	-1.81255	-9.46145	-1.89144	0
0.7400	0.622614	34.1485	-9.05521	-1.99732	-1.13795	-2.11643	-3.03724	-9.46145	-2.50488	-0.322107
0.7407	-0.978394	36.2845	-15.7698	-1.38026	-0.827598	-0.598123	-0.587853	-7.01649	-1.58472	-0.322107
0.7413	-2.13468	40.8618	-17.2971	-1.07173	-0.517249	0.322066	0.930767	-4.57152	-0.677341	0
0.7420	-1.86784	38.4206	-32.5518	-0.779444	-0.517249	0	-0.293927	0.307042	-0.677341	0.322107
0.7427	-2.49046	35.9794	-52.6956	-2.59815	-1.13795	-2.11643	-1.81255	6.72082	0.24282	-0.322107
0.7433	-3.11307	31.7073	-47.201	-3.2152	-1.13795	-2.4385	-2.71882	12.8275	0.856262	-0.966321
0.7440	-1.24523	17.0599	-26.1444	-0.470914	0.0517249	0.644132	-2.10647	19.2299	-0.370621	-0.322107
0.7447	0.266835	2.41261	-19.1226	0.746967	0.982773	3.68075	-0.293927	28.0773	-0.0639001	0
0.7453	0	-0.953602	-22.4844	0.146146	0.362074	3.08263	-0.587853	32.6602	0.24282	0.322107
0.7460	-1.24523	4.85383	-23.7044	-0.470914	-0.827598	0.644132	-3.64959	27.1676	-1.278	0.322107
0.7467	-2.13468	3.32807	-26.759	-0.779444	-0.517249	-0.276057	-4.84979	28.6914	-1.89144	0
0.7473	-0.622614	-12.2442	7.72676	0.146146	0.0517249	0.322066	-2.10647	39.6767	-1.278	0.322107
0.7480	3.02413	-38.7925	95.3147	1.0555	0.672424	0.920189	0.930767	47.6143	-0.677341	0.322107
0.7487	3.29096	-60.4583	130.713	0.454675	0.362074	0.322066	1.86153	50.969	-0.370621	0.322107
0.7493	1.15628	-45.2007	82.1928	-0.470914	-1.13795	-1.79437	-0.293927	44.2596	-0.971282	0
0.7500	0.889449	-12.8545	39.7725	0.746967	-0.827598	-1.51831	-0.906273	33.877	-1.58472	-0.322107
0.7507	0.889449	-4.61543	25.4305	5.01767	0.982773	0.322066	0.636841	28.0773	0.24282	0
0.7513	0	-9.49787	19.3214	8.68755	0.982773	-1.19625	1.86153	10.9967	1.76364	0
0.7520	0	-22.3143	23.596	9.30461	0.362074	-4.23287	3.38016	-25.0183	1.76364	0
0.7527	-0.622614	-61.0686	25.4305	9.5969	-0.2069	-4.877	1.86153	-63.1711	0.549541	-0.322107
0.7533	-3.11307	-64.4253	18.1014	10.831	-1.4483	-2.71456	-0.293927	-71.7114	-0.370621	0
0.7540	-4.26935	12.7878	14.4414	14.1761	-1.4483	0.322066	1.24919	-46.9888	0.549541	0
0.7547	-3.11307	53.0679	16.8814	19.3724	-0.827598	2.16244	2.47388	-23.1874	1.76364	0
0.7553	-2.13468	15.5342	16.2759	23.6431	-1.13795	1.84038	1.24919	-14.033	1.76364	0
0.7560	-0.978394	-14.9906	10.474	25.7704	-2.069	-0.276057	-2.10647	-7.92624	0.549541	0
0.7567	-0.35578	-22.3143	4.68124	27.2968	-1.75865	-1.51831	-4.55586	16.785	-0.370621	0
0.7573	-0.622614	-21.3988	3.45219	29.4402	-0.827598	2.16244	-3.64959	66.2302	0.549541	0.322107
0.7580	0	-9.19272	1.62669	23.3346	-0.517249	8.2817	-2.71882	80.2631	0.856262	0
0.7587	0.622614	5.76929	-2.64788	-2.59815	-0.517249	10.9963	-3.33117	18.6159	-0.677341	0
0.7593	-1.24523	8.82082	-4.78065	-35.5621	-1.4483	8.55776	-5.46213	-56.1433	-3.42505	0
0.7600	-1.86784	19.5012	-3.25337	-47.7734	-1.75865	5.8432	-7.29918	-72.3255	-6.15997	0
0.7607	-0.622614	47.5752	-4.17516	-39.8328	-0.2069	5.52113	-6.68683	-42.7244	-5.25259	0
0.7613	-0.35578	63.7483	-13.637	-27.0207	0.672424	4.00282	-4.84979	-16.785	-2.50488	0
0.7620	0	58.2555	-22.4844	-16.9529	0.362074	-1.51831	-3.33117	-7.92624	-1.58472	-0.322107
0.7627	0.266835	33.233	-24.6172	-12.3737	-0.827598	-6.39531	-2.71882	-2.74064	-1.58472	0
0.7633	0	-2.17421	-25.2317	-9.62938	-2.069	-7.3155	-2.71882	4.27585	-0.370621	0
0.7640	0	-29.6379	-22.1771	-6.86885	-1.75865	-5.47512	0.0244939	12.5205	2.37708	-0.322107
0.7647	-1.51206	-36.9616	-28.2863	-5.65097	-1.75865	-3.63475	5.82954	20.1511	4.20463	0
0.7653	-3.37991	-36.3513	-41.1009	-4.74162	-3.00004	-1.19625	9.47913	27.7703	3.29725	0.322107
0.7660	-1.24523	-52.5244	-16.6826	-3.83226	-4.81041	0.920189	7.02974	20.7538	-1.58472	0
0.7667	3.02413	-77.5469	23.2887	-3.52373	-4.81041	0.920189	4.89878	4.27585	-6.46669	-0.322107
0.7673	4.53619	-74.4954	20.5505	-1.99732	-3.00004	2.48451	5.2172	6.72082	-5.86603	0
0.7680	4.53619	-20.4834	1.31942	-1.38026	-1.75865	3.68075	4.60485	20.1511	-2.19816	0.322107
0.7687	3.02413	13.0929	2.53944	-3.83226	-0.827598	3.35869	2.47388	23.8128	-0.0639001	0
0.7693	0.622614	-13.77	8.64854	-5.05015	0.0517249	2.48451	-2.10647	17.7061	-0.370621	0
0.7700	0.266835	-16.5164	9.86856	-3.2152	0.672424	0.322066	-6.3929	10.6896	-0.370621	0
0.7707	1.15628	22.5527	19.9359	-2.59815	1.60347	-1.51831	-4.55586	5.19698	0.856262	0.322107
0.7713	1.15628	28.3506	32.7506	-2.30585	2.53452	-3.63475	-1.2002	-2.12655	0.856262	0
0.7720	2.13468	-4.31028	26.6505	-0.470914	1.91382	-5.15306	0.636841	-10.3712	-0.0639001	0
0.7727	3.64674	-0.343297	10.7813	-0.162384	0.672424	-6.07325	-0.293927	-28.0659	-1.89144	0
0.7733	1.7789	43.6082	3.75945	-2.30585	-0.517249	-6.07325	-1.81255	-48.217	-1.278	-0.644214
0.7740	-0.622614	63.138	4.06671	-2.59815	0.672424	-2.71456	0.31842	-42.7244	1.76364	-0.644214
0.7747	-1.51206	48.1855	4.68124	-0.162384	1.29312	0	0.930767	-11.2923	0.549541	0.322107
0.7753	-1.51206	34.7588	5.59399	8.68755	0.672424	0.920189	-1.2002	24.1085	-0.0639001	0.322107
0.7760	-1.24523	36.8948	7.41949	16.9204	-0.2069	0.322066	-2.42489	37.2317	0.856262	-0.322107
0.7767	-2.49046	39.6412	10.474	15.1017	-1.13795	-2.4385	-1.49413	20.7538	-0.0639001	-0.322107
0.7773	-3.37991	37.8103	13.2213	15.394	-0.827598	-5.47512	2.47388	-12.8162	0.549541	0
0.7780	-3.64674	32.0124	14.4414	22.1167	-0.2069	-6.67137	6.73582	-45.158	2.37708	0
0.7787	-5.24775	26.2145	21.1559	27.0045	-0.2069	-6.39531	8.25444	-53.4026	3.29725	0.322107
0.7793	-5.87036	22.2475	30.0033	30.3496	-1.75865	-5.79719	5.82954	-43.9412	2.07036	0.322107
0.7800	-4.00252	21.9424	26.036	34.328	-1.75865	-3.03662	2.47388	-28.9871	1.4697	0
0.7807	-2.49046	21.9424	8.03402	39.8166	-0.2069	1.24225	2.47388	2.44497	2.6838	0
0.7813	-2.13468	15.8393	-10.5825	32.8016	-0.2069	2.76057	2.76781	32.0461	2.6838	0
0.7820	-2.13468	8.51566	-20.9571	2.27338	-0.517249	1.56432	0.636841	31.4434	1.4697	0.322107
0.7827	-1.86784	-0.953602	-31.0245	-23.0585	-0.827598	-1.19625	-2.71882	13.1232	-0.971282	0.322107
0.7833	-0.622614	-16.8215	-46.8937	-25.1858	-0.517249	-1.79437	-3.94351	-2.12655	-2.19816	0
0.7840	0.622614	-27.5019	-56.3556	-14.8094	0.672424	0	-2.10647	-8.23328	-0.370621	0
0.7847	-0.978394	-22.9246	-43.5409	5.63473	1.60347	0.920189	-1.2002	-6.4024	0.856262	0
0.7853	-3.11307	4.24353	-13.9353	9.30461	2.22417	0.644132	-1.81255	-1.52384	1.76364	0
0.7860	-3.37991	35.6742	18.4087	-38.6149	1.60347	-2.4385	-4.26193	3.05905	2.37708	0
0.7867	-3.37991	35.6742	42.2125	-74.6317	0.0517249	-4.877	-5.78056	5.79969	4.20463	0
0.7873	-4.26935	17.9754	60.2235	-48.3742	0.362074	-3.03662	-3.33117	9.15441	6.35167	0
0.7880	-5.24775	13.3981	68.7636	-19.3887	1.60347	-1.51831	-1.49413	13.7373	6.95233	0
0.7887	-6.1372	13.7033	46.4871	-13.9001	0.672424	-2.4385	-1.49413	15.2611	6.65839	0.322107
0.7893	-5.87036	4.54868	1.01216	-12.0651	-1.13795	-3.63475	-1.81255	14.9541	6.35167	0
0.7900	-3.64674	1.49715	-29.8045	-10.5387	-1.13795	-4.23287	-3.03724	20.4467	8.17921	0
0.7907	-3.37991	6.68475	-33.4736	-9.32085	0.0517249	-3.03662	-1.81255	17.7061	7.25905	0
0.7913	-5.87036	-3.69997	-26.759	-8.39526	0.362074	-1.51831	0.636841	-24.4042	-1.58472	0
0.7920	-6.75981	-32.0792	-28.2863	-6.26803	-0.2069	-1.79437	0.31842	-61.3402	-9.52112	0
0.7927	-5.24775	-56.1862	-41.1009	-2.90668	-1.75865	-3.95681	-2.10647	-37.2317	-11.0419	0.322107
0.7933	-2.75729	-60.4583	-49.9483	0.146146	-1.75865	-3.95681	-3.03724	-12.5091	-9.82784	0.322107
0.7940	0	-38.1822	-52.6956	3.5075	-0.517249	0	-2.71882	-22.2776	-8.60096	0.322107
0.7947	3.02413	-8.88757	-60.3229	5.94326	0.672424	2.16244	-2.42489	-30.2039	-7.38685	-0.322107
0.7953	3.29096	-6.7515	-64.9047	8.07049	0.362074	0.322066	-2.10647	-33.2629	-7.69357	0
0.7960	1.15628	-23.5349	-58.1902	8.99608	-0.827598	0	-2.42489	-41.1892	-9.52112	0
0.7967	0	-39.0977	-43.8482	10.5225	-2.069	4.92301	-2.10647	-33.2629	-10.1346	0
0.7973	-1.86784	-60.7635	-16.6826	13.2668	-2.069	11.6404	-0.293927	11.5994	-7.08013	0
0.7980	-0.35578	-78.4623	5.90125	13.8676	-1.13795	13.4348	1.86153	60.7375	-0.0639001	0
0.7987	7.29348	-69.6129	13.5286	15.7025	-0.827598	10.9963	1.24919	71.4158	6.35167	0
0.7993	10.6734	-57.1017	30.3106	12.9583	-2.069	7.36151	-1.81255	49.7522	7.56577	0
0.8000	4.89197	-59.848	59.9162	-19.0801	-2.37934	2.48451	-2.42489	18.3202	3.29725	0.322107
0.8007	-1.51206	-78.4623	86.4674	-48.3742	-0.517249	-1.19625	0.31842	-3.04768	1.16298	0.322107
0.8013	-3.11307	-92.4994	81.5783	-34.6528	0.672424	-2.11643	3.06173	8.24466	0.549541	0
0.8020	0.622614	-63.2047	45.5743	-15.118	0.672424	-0.276057	3.9925	39.9837	-0.677341	0
0.8027	6.04825	-52.8295	1.93395	-11.7566	-1.13795	-0.276057	3.67408	47.9213	1.16298	-0.966321
0.8033	6.40403	-105.926	-29.5063	-10.2302	-2.68969	-0.598123	6.12347	42.4287	3.91069	-0.644214
0.8040	1.7789	-153.539	-30.419	-5.9595	-1.4483	4.92301	10.3854	65.309	4.20463	0
0.8047	0.889449	-165.745	-18.2098	-3.52373	-0.827598	8.55776	9.1852	89.4175	4.81807	0
0.8053	4.89197	-134.62	-10.2752	-3.52373	-1.13795	5.19907	4.28643	64.7063	5.12479	0
0.8060	6.67087	-76.9366	-4.48242	-2.59815	-1.4483	-0.276057	-1.2002	6.41377	2.37708	0.322107
0.8067	5.78142	-35.4358	-1.73513	-1.07173	-0.827598	-5.15306	-5.16821	-39.0626	1.16298	0
0.8073	4.26935	20.1115	-1.42787	0.746967	1.29312	-5.47512	-5.16821	-60.7262	5.73823	0
0.8080	1.51206	112.268	-3.56063	1.98109	2.84487	-3.31268	-4.26193	-70.4946	6.04495	0
0.8087	-0.622614	161.712	-4.78065	2.27338	2.22417	-2.71456	-4.55586	-66.5258	-3.42505	0
0.8093	-0.622614	112.268	-4.17516	2.58191	1.60347	-3.31268	-6.68683	-50.6506	-9.2144	0
0.8100	-0.35578	41.4721	-4.48242	2.27338	1.60347	-3.31268	-8.22994	-28.9871	-6.15997	-0.322107
0.8107	0	10.3466	-4.78065	2.27338	2.22417	-0.874179	-6.68683	-17.3877	-1.278	-0.322107
0.8113	0	-2.78452	-6.00066	2.58191	1.91382	1.84038	-5.16821	-20.4467	-0.0639001	0.322107
0.8120	0	-10.7185	-6.61519	1.98109	1.29312	5.8432	-4.84979	-17.3877	-0.971282	0
0.8127	0.622614	-11.9391	-7.8352	1.0555	0.0517249	7.63757	-6.3929	-9.75712	0.856262	-0.322107
0.8133	3.02413	3.02292	-7.8352	1.0555	-1.4483	5.19907	-8.52387	-7.92624	5.12479	-0.322107
0.8140	3.64674	43.9134	-4.17516	1.67256	0.0517249	3.68075	-4.84979	-4.57152	8.79266	0
0.8147	2.13468	99.7563	-0.813343	2.58191	1.91382	3.35869	-0.293927	1.53521	10.9269	0
0.8153	1.15628	131.807	-0.813343	2.89044	1.29312	0.322066	1.24919	0.614085	10.9269	0
0.8160	0.266835	114.098	-2.95515	1.67256	-0.2069	-6.99343	3.38016	-4.57152	9.39332	0
0.8167	-1.86784	78.0904	-2.34062	1.0555	0.0517249	-11.5944	5.2172	-2.12655	9.70004	0
0.8173	-2.75729	61.307	1.31942	2.58191	0.982773	-10.3521	6.12347	-2.43359	9.09938	0
0.8180	-2.13468	57.3401	2.53944	3.79979	1.29312	-9.43193	7.34816	-14.033	-1.58472	0
0.8187	-1.24523	53.0679	-0.515117	3.19897	1.29312	-8.51175	6.73582	-21.9706	-16.5373	0
0.8193	0.622614	51.8473	-8.14246	1.36403	-0.2069	-6.99343	2.47388	-23.8015	-17.7642	0
0.8200	1.7789	50.9319	-12.7153	0.146146	-1.4483	-2.4385	-0.293927	-18.9115	-10.1346	0
0.8207	0.889449	45.7443	-9.36248	0.454675	-1.13795	3.68075	0.930767	0.307042	-5.86603	0.322107
0.8213	-0.622614	40.2515	-4.78065	1.98109	-0.827598	5.52113	1.54311	12.5205	-4.94587	-0.322107
0.8220	-3.37991	37.8103	-3.8679	2.58191	-0.827598	3.35869	0.636841	2.75201	-4.33243	-0.322107
0.8227	-4.00252	36.5897	-6.92245	2.27338	-1.75865	0.920189	-0.906273	-7.32353	-4.33243	0
0.8233	0	36.2845	-10.8898	1.98109	-2.069	-0.276057	-2.42489	-8.23328	-4.94587	0
0.8240	1.51206	36.8948	-12.417	3.19897	-0.517249	1.24225	-1.49413	-8.54033	-3.71899	0
0.8247	-2.49046	35.9794	-12.417	4.41685	0.672424	2.48451	-0.587853	-1.83088	-1.58472	0.322107
0.8253	-5.24775	28.0454	-15.4625	4.72538	0.0517249	0.920189	-2.10647	2.44497	-0.677341	0
0.8260	-4.62513	17.3651	-24.9244	4.10832	-0.827598	-0.598123	-3.94351	-7.92624	0.549541	0
0.8267	-3.37991	18.5857	-39.2664	2.89044	-1.4483	-1.51831	-4.55586	-1.52384	2.07036	0
0.8273	-3.11307	17.6702	-44.1555	2.58191	-0.827598	-3.03662	-2.42489	30.5223	4.20463	0
0.8280	-5.87036	-1.25875	-35.6063	2.89044	-0.2069	-5.47512	0.930767	57.6785	5.43151	0
0.8287	-8.89449	-18.0421	-25.8372	1.98109	-0.827598	-10.3521	3.67408	77.8295	4.20463	0
0.8293	-9.78394	-22.3143	-11.8025	0.454675	-2.37934	-15.2291	3.67408	98.2763	2.6838	0
0.8300	-10.1397	-34.2152	11.0886	0.454675	-3.56902	-14.9531	1.54311	95.8313	4.51135	0
0.8307	-7.38243	-50.9986	30.9251	1.0555	-3.25867	-6.99343	2.47388	71.4158	3.60397	0
0.8313	1.15628	-49.1677	35.4979	1.36403	-2.37934	5.19907	4.28643	62.2614	-4.94587	0
0.8320	8.80554	-48.8625	26.9578	1.0555	-2.069	13.7568	1.54311	81.1843	-11.6554	0.322107
0.8327	10.3176	-69.6129	25.4305	-0.470914	-2.37934	12.5146	-2.71882	93.0793	-10.4413	-0.322107
0.8333	7.29348	-82.7345	26.3433	-1.38026	-2.37934	7.36151	-5.78056	32.6602	-6.46669	-0.966321
0.8340	3.29096	-51.6089	14.7486	1.0555	-0.517249	6.11926	-6.3929	-70.1876	-4.63915	-0.322107
0.8347	0.889449	-5.53089	2.23217	2.27338	1.29312	4.60094	-6.3929	-111.388	-4.33243	0
0.8353	3.64674	-32.3843	-5.70244	1.36403	2.22417	1.56432	-8.22994	-89.7132	-4.02571	0
0.8360	6.40403	-98.2972	-9.96797	0.454675	1.91382	-2.4385	-9.43014	-70.4946	-3.42505	0.322107
0.8367	3.64674	-72.9696	-6.30792	0.146146	1.91382	-5.15306	-6.3929	-61.0332	-0.677341	0.322107
0.8373	0.889449	-6.44635	1.62669	0.454675	2.22417	-2.71456	-3.03724	-32.3418	5.43151	0
0.8380	-0.622614	-0.648449	9.25403	1.36403	2.53452	8.87982	-2.42489	1.22817	4.81807	0
0.8387	-1.24523	-11.9391	24.5178	1.36403	2.53452	21.6704	-2.42489	11.2923	-0.971282	0
0.8393	0.889449	-15.6009	44.047	0.746967	1.29312	27.4676	-4.26193	-0.909755	-1.89144	0
0.8400	3.29096	11.262	42.5197	1.0555	0.982773	28.7099	-5.78056	-17.3877	-0.370621	0
0.8407	3.64674	93.3481	25.4305	1.67256	1.91382	27.7897	-2.42489	-18.9115	-0.677341	0
0.8413	2.13468	129.06	22.6832	1.36403	1.91382	24.7531	3.06173	-18.3088	-1.278	0
0.8420	-0.978394	82.3626	29.0906	-1.07173	0.362074	23.5108	8.57286	-24.1085	-2.19816	0.322107
0.8427	-1.51206	46.3546	27.5633	-2.30585	-0.2069	18.0357	11.6101	-17.3877	-3.71899	0
0.8433	0	34.7588	18.7159	-2.30585	-0.827598	5.8432	10.9978	-6.70944	-3.42505	0
0.8440	0	21.0269	12.0013	-1.38026	-1.13795	-2.71456	8.86678	-6.4024	-2.50488	0.322107
0.8447	-1.51206	13.0929	9.25403	0.146146	-0.517249	-6.07325	6.73582	-7.01649	-1.278	0.322107
0.8453	-1.24523	17.9754	-2.95515	1.0555	-0.2069	-17.9897	4.60485	-3.66176	-0.971282	0
0.8460	0	27.13	-22.4844	0.746967	-0.517249	-33.5409	2.47388	0	-1.58472	0
0.8467	0.266835	28.3506	-26.759	0.746967	0.0517249	-36.3014	0.636841	6.72082	-1.58472	0
0.8473	0.622614	26.2145	-18.2098	1.67256	1.91382	-29.9061	0.636841	16.4893	0.549541	0
0.8480	1.7789	32.6227	-13.0225	1.98109	2.22417	-26.5474	3.38016	17.092	1.4697	0
0.8487	2.13468	37.5051	-11.188	1.67256	0.672424	-28.6639	3.67408	-5.78832	0.856262	0
0.8493	2.13468	33.8433	-11.4952	1.0555	-0.517249	-32.0226	0.636841	-37.5274	-0.0639001	0
0.8500	0.266835	28.0454	-10.5825	0.746967	-1.13795	-32.3446	-1.49413	-44.2482	-0.370621	0
0.8507	-1.51206	21.3321	-6.61519	1.36403	-0.827598	-27.4216	0.636841	-31.7391	0.856262	-0.322107
0.8513	-2.13468	8.82082	-4.78065	1.98109	0.362074	-21.6244	2.76781	-28.0659	2.37708	0
0.8520	-2.75729	0.886849	-4.78065	1.67256	1.29312	-15.8272	1.86153	-30.2039	2.6838	0
0.8527	-2.49046	2.10746	-5.39517	1.36403	0.362074	-12.1925	-1.49413	-29.9082	1.4697	0
0.8533	-1.24523	0.276544	-5.08791	1.98109	0.0517249	-10.6742	-3.94351	-31.7391	-0.0639001	0
0.8540	-0.978394	-4.00513	0.406671	2.89044	1.29312	-5.79719	-2.71882	-30.818	-0.0639001	0
0.8547	-1.24523	-3.08967	2.53944	2.27338	1.91382	3.68075	-1.81255	-17.6947	0.856262	0.322107
0.8553	-0.622614	-0.953602	-3.25337	1.67256	1.91382	15.5972	-3.94351	-2.74064	0.24282	0.322107
0.8560	-1.86784	-1.25875	-8.74795	0.746967	0.672424	23.8329	-6.68683	0.614085	-1.278	0
0.8567	-4.00252	-5.22574	-9.96797	-0.162384	-1.4483	28.7099	-7.91152	-2.43359	0.24282	0
0.8573	-6.1372	-14.3803	-6.61519	0.146146	-1.75865	32.3906	-5.16821	-1.83088	4.81807	0
0.8580	-6.75981	-29.3328	-12.1098	1.0555	-0.517249	26.8695	-2.42489	-0.909755	6.95233	0
0.8587	-3.11307	-40.6234	-36.5191	0.454675	-0.2069	11.6404	-2.71882	-1.52384	3.91069	0
0.8593	-2.13468	-40.9286	-60.6302	0.146146	-1.13795	0	-4.84979	-1.52384	0.856262	0
0.8600	-8.89449	-48.5574	-68.872	1.0555	-1.4483	-2.11643	-5.78056	0.307042	-0.370621	0.322107
0.8607	-16.5438	-78.7675	-68.5648	1.36403	-0.2069	-0.874179	-4.26193	3.36609	-1.278	0
0.8613	-16.188	-106.231	-64.2902	1.67256	-0.2069	-1.79437	-2.10647	8.24466	-1.278	-0.322107
0.8620	-8.89449	-112.029	-60.9374	1.67256	-0.517249	-4.23287	-2.71882	13.7373	0.24282	0
0.8627	-1.51206	-111.724	-47.201	-0.470914	-1.75865	-6.39531	-5.16821	18.3202	5.12479	-0.966321
0.8633	0.622614	-90.0581	24.2105	-1.68879	-2.069	-6.07325	-6.3929	26.5535	8.48594	-0.966321
0.8640	0.622614	-31.1637	105.997	0.146146	-0.827598	-1.79437	-4.55586	37.5388	4.81807	-0.322107
0.8647	3.91358	-5.53089	98.9748	1.36403	-0.517249	1.24225	-2.71882	43.3385	1.16298	0
0.8653	5.42564	-49.778	43.1252	1.0555	-1.13795	0.644132	-3.33117	39.0626	2.6838	0
0.8660	2.75729	-86.7015	10.1668	0.746967	-2.37934	-1.51831	-5.46213	24.4156	3.29725	0
0.8667	0.622614	-31.4689	-2.95515	0.146146	-2.68969	-3.63475	-6.68683	7.63057	1.16298	0
0.8673	-1.86784	72.5977	-4.17516	0.146146	-0.827598	-3.03662	-3.94351	1.53521	-0.370621	0
0.8680	-2.49046	80.8368	1.62669	0.454675	0.362074	-1.51831	-0.906273	5.19698	-0.677341	0
0.8687	-1.24523	-8.27726	10.7813	-0.162384	-0.517249	0.920189	0.930767	11.9064	-1.89144	0
0.8693	-0.35578	-54.6604	25.7378	-1.07173	-1.75865	4.27888	0.0244939	21.0608	-3.11833	0
0.8700	1.51206	-31.4689	41.9052	-1.38026	-2.069	5.52113	-3.94351	18.6159	-3.11833	0
0.8707	3.02413	14.6187	47.7071	-1.38026	-0.2069	6.11926	-5.16821	2.13792	-0.0639001	0
0.8713	3.29096	91.5171	35.1906	-0.470914	1.60347	7.03944	-3.64959	-7.92624	3.29725	0
0.8720	4.53619	146.454	21.1559	-0.162384	1.60347	7.03944	-3.94351	-8.23328	2.6838	0
0.8727	6.40403	106.775	11.6941	-1.99732	0.982773	3.08263	-3.33117	-4.26448	-0.0639001	0
0.8733	7.29348	43.6082	0.406671	-3.83226	0.362074	-2.4385	-0.293927	2.13792	-1.89144	0
0.8740	7.02665	27.4351	-2.64788	-3.2152	0.982773	-1.79437	0.930767	16.1823	-1.58472	0
0.8747	4.89197	25.9094	0.0994086	-2.90668	1.60347	0.644132	0.0244939	32.6602	-1.278	0
0.8753	0.889449	17.3651	1.31942	-2.59815	0.982773	-0.276057	-1.2002	31.1364	-2.19816	0
0.8760	-0.978394	14.9239	0.713934	-2.90668	0.0517249	-5.47512	-1.81255	1.53521	-3.11833	0
0.8767	0	17.9754	-0.207854	-3.2152	-0.2069	-9.754	-2.42489	-39.6653	-3.42505	0.322107
0.8773	0.266835	21.6372	2.53944	-1.99732	1.29312	-8.23569	-1.49413	-55.5405	-1.89144	0
0.8780	-0.978394	21.3321	5.28673	-1.07173	2.22417	-7.91362	2.47388	-43.6341	-0.0639001	0
0.8787	-0.978394	17.0599	3.75945	-1.38026	1.91382	-11.2723	5.82954	-24.1085	-0.370621	0
0.8793	-0.35578	12.4826	1.01216	-3.2152	-0.517249	-13.3887	5.82954	-3.35472	-2.19816	0.322107
0.8800	-0.35578	9.43112	-1.42787	-5.65097	-3.25867	-10.9502	7.96051	12.5205	-4.33243	0
0.8807	-1.51206	7.29505	-5.70244	-5.34244	-4.18972	-1.19625	12.5409	21.3679	-4.33243	0
0.8813	-2.75729	6.68475	-6.30792	-2.90668	-4.18972	11.3183	11.6101	27.1676	-2.8116	0
0.8820	-3.64674	6.07444	2.23217	-1.07173	-3.87937	15.8733	7.64209	26.5535	-0.971282	0
0.8827	-3.37991	3.93837	10.7813	1.0555	-4.18972	12.2385	2.76781	17.3991	-0.0639001	0
