MR32 ASCII
Name	CORE30_fast
Frequency	1500
Date	03-09-2015 10:52:32
"Time,s"	"RT TIB.ANT.,uV"	"RT MED. GASTRO,uV"	"RT LAT. GASTRO,uV"	"RT BICEPS FEM.,uV"	"RT VMO,uV"	"RT VLO,uV"	"RT RECTUS FEM.,uV"	"RT SOLEUS,uV"	"RT SEMITEND.,uV"	"Channel 12,uV"
0.0000	9.46498	-42.9619	-16.5441	173.927	-14.8243	-2.96994	-2.11911	-42.6729	-0.629854	-8993.13
0.0007	10.064	-46.9163	-15.0091	196.503	-22.763	-2.38048	-3.02996	-77.4477	3.92732	-10404.9
0.0013	13.4187	-53.6388	-6.48118	187.968	-28.255	3.74076	-6.39451	-46.0179	9.11435	-9533.48
0.0020	16.1743	-37.4822	-1.91877	200.151	-21.8442	5.55446	-12.1849	-51.5234	9.74421	-9847.17
0.0027	17.1328	-6.63776	13.6446	126.023	-13.6062	5.55446	-9.74977	-81.1179	15.8204	-9854.59
0.0033	15.5753	-4.80179	25.8821	-157.822	-13.6062	12.2878	1.23615	-64.3229	27.1208	-9788.18
0.0040	12.2206	-11.2136	23.1105	-342.418	-29.7725	7.09611	13.1422	-54.5665	23.7862	-9816.55
0.0047	8.86593	9.23637	22.5136	-250.601	-43.2032	-7.54953	19.2393	-61.5818	14.005	-9816.22
0.0053	5.51125	27.2289	20.3816	-172.757	-39.239	-9.99803	14.6665	-53.3585	12.4859	-9812.36
0.0060	3.6542	32.4262	9.38066	-198.086	-39.239	-2.96994	13.4489	-49.3862	11.5597	-9787.21
0.0067	4.31315	40.3632	-0.980705	-181.292	-39.239	10.4515	18.9419	-51.5234	7.8917	-9900.69
0.0073	3.95372	46.1536	-12.5786	-122.995	-37.1021	19.9054	7.34254	-48.759	4.22372	-9724.98
0.0080	0.299525	42.171	-24.7735	-86.3787	-31.9094	18.3864	-13.7185	-42.6729	1.18561	-9668.24
0.0087	-0.898574	38.838	-9.84969	-100.144	-21.5345	18.3864	-19.2114	-14.2862	1.48201	-10564.2
0.0093	2.4561	41.8885	15.1796	-153.21	-23.0623	14.1015	-10.9673	32.1034	3.33452	-7281.16
0.0100	4.9122	20.1957	8.18676	-149.838	-20.3163	-2.96994	-1.8124	58.9569	2.40826	-818.26
0.0107	5.81078	-16.7215	-19.9126	-62.5643	-8.41352	-12.7412	2.463	75.1247	1.48201	108.65
0.0113	8.26688	-24.0372	-31.809	22.2313	-4.74873	-4.51158	3.37385	100.166	-3.07517	-281.458
0.0120	13.7182	-19.4614	-23.5796	39.3694	3.48929	5.25973	6.72911	91.9197	-9.81831	32.2404
0.0127	15.8748	-24.0372	-15.9471	39.3694	-2.31243	10.4515	8.56009	43.997	-13.1528	39.9781
0.0133	10.723	-29.8276	-9.84969	89.4071	-28.864	17.1621	7.64925	-0.255526	-15.8945	-26.7595
0.0140	7.96735	-21.608	2.68628	151.971	-6.27659	31.8078	11.6179	-21.9056	-15.3017	1.28961
0.0147	13.4187	-2.99405	12.1522	187.349	65.1299	51.033	22.9013	-51.2214	-7.37299	-0.644807
0.0153	17.1328	-3.58722	1.44974	193.13	78.5606	62.0286	27.4834	-115.916	-0.629854	-0.644807
0.0160	15.5753	-5.42319	-13.5167	196.503	40.4159	68.4219	25.039	-164.443	10.0406	-0.644807
0.0167	11.0225	-5.42319	-18.3776	209.305	33.0863	74.2257	26.2658	-156.8	25.6017	-0.322404
0.0173	1.85705	-21.2973	-21.1065	173.927	30.0409	68.1271	18.3285	-91.1996	28.3434	-0.322404
0.0180	-5.15182	-17.3147	-20.5095	49.4182	0.74328	60.1922	1.84958	-0.557512	24.379	-0.322404
0.0187	-4.55277	11.6655	-12.8771	-96.4964	-27.9453	73.3189	-1.50568	21.1158	22.86	-0.322404
0.0193	-1.79715	16.2413	1.15126	-105.031	-50.223	89.4835	1.84958	3.11277	10.337	-0.322404
0.0200	2.75563	-22.2012	9.38066	19.2029	-52.6697	52.8694	-0.288125	32.4054	-8.59565	-0.322404
0.0207	10.3636	-67.0838	5.4152	46.3898	-39.8481	-30.4475	-6.69193	73.6148	-11.6338	0.322404
0.0213	14.0777	-66.1516	4.51977	-25.3286	-41.0662	-100.32	-10.0565	116.032	-2.18596	-0.967211
0.0220	11.9211	-33.8102	0.255836	34.758	-40.4572	-127.186	-1.8124	165.767	-4.00142	-1.61202
0.0227	7.96735	-7.56987	-28.142	231.88	-23.6714	-115.601	6.4224	170.645	-17.1172	-0.644807
0.0233	4.61268	0.677899	-52.8728	350.333	-9.63167	-88.1232	4.29399	146.533	-22.3042	0
0.0240	4.9122	-45.391	-42.4688	238.35	-12.9971	-71.3465	-3.02996	126.091	-21.415	0
0.0247	5.21173	-51.2096	-18.0791	50.9325	-26.7271	-59.444	-8.52292	65.9722	-25.0459	0
0.0253	3.35468	65.389	-3.75226	1.17007	-43.8122	-46	-7.30536	-6.03971	-28.1211	0
0.0260	1.55753	142.274	-4.34922	-0.619449	-59.6895	-38.3824	-3.02996	-39.0026	-22.3042	-0.322404
0.0267	1.55753	85.2176	-4.34922	-70.8236	-61.2071	8.93248	1.84958	-74.4046	-18.9697	-0.322404
0.0273	7.3084	5.56442	4.2213	-63.8032	-52.969	88.8713	10.3911	-119.563	-28.7139	0
0.0280	9.7645	2.51388	10.9157	60.9813	-46.2589	118.775	14.0531	-125.37	-34.8272	0
0.0287	6.40983	33.9514	22.5136	101.934	-36.1833	104.129	8.25338	-84.4862	-19.5625	0
0.0293	6.1103	18.9812	36.5419	25.3286	-23.9811	88.2592	0.325302	-68.5972	-7.9658	0
0.0300	2.75563	-2.37265	27.076	-54.6492	-18.4891	62.3233	-5.47437	-104.301	-0.629854	-0.322404
0.0307	-5.45135	14.7161	11.5126	-120.242	-18.4891	23.8728	-7.61207	-96.9838	49.3879	0.322404
0.0313	-10.064	9.82954	15.1796	-190.171	-16.6515	-13.9655	-9.44306	-19.7684	75.6565	-0.322404
0.0320	-11.5616	-67.0838	17.0131	-173.033	-8.41352	-45.4105	-12.7983	32.1034	31.0851	-2.25683
0.0327	-7.00888	-117.107	13.0476	-27.8064	-1.39365	-56.3834	-9.74977	34.8445	-5.81688	-1.93442
0.0333	2.15658	-73.4673	17.0131	16.7251	-4.44936	-54.8645	-7.30536	24.1588	-25.6758	0
0.0340	4.31315	-57.6214	20.0831	-205.726	-6.58629	-48.4485	-11.5808	19.2806	-16.8208	0.322404
0.0347	2.4561	-75.614	17.9512	-355.839	-3.53058	-29.5407	-11.274	5.2499	23.1564	0
0.0353	2.15658	-111.938	15.1796	-194.713	-3.84028	-24.6437	-12.1849	-46.3199	28.047	0
0.0360	3.95372	-160.154	16.1177	-14.385	-1.09427	-24.6437	-17.3804	-75.9377	13.0787	0
0.0367	6.40983	-103.069	17.9512	70.7548	11.1182	-3.28733	-14.6293	-48.1551	17.9694	0.322404
0.0373	5.51125	-66.7731	11.2142	178.814	12.9455	15.9379	-7.61207	-40.8377	21.0075	0
0.0380	2.15658	-155.889	-8.0162	204.143	-6.27659	26.3213	-4.56353	-66.7852	11.8561	0
0.0387	0.299525	-210.798	-27.8435	146.121	-28.864	34.551	-4.86094	-53.6605	-0.629854	0.322404
0.0393	5.51125	-69.5129	-14.7106	192.855	-40.7669	37.9063	-4.86094	14.7044	-6.15034	0.322404
0.0400	16.4739	131.286	25.5836	254.8	-40.1578	41.5791	-0.594838	85.5083	1.48201	0
0.0407	21.0865	107.503	44.4729	178.195	-41.0662	41.5791	5.20484	99.2371	8.1881	0
0.0413	19.8285	-5.7339	31.681	53.6856	-47.477	37.6116	9.17352	87.9475	10.9669	-0.322404
0.0420	23.4827	-13.9817	28.9095	-103.448	-38.9293	34.8684	10.0844	100.468	17.9694	0
0.0427	27.4964	0.988603	42.3409	-309.793	-18.7885	29.6767	7.64925	94.3588	10.337	-0.322404
0.0433	18.93	14.7161	33.2161	-469.405	-3.84028	18.6811	3.68056	39.7227	-12.56	0
0.0440	7.66783	72.394	2.04669	-596.323	5.9256	-0.226713	2.15629	-17.6313	-21.415	0
0.0447	1.258	135.862	-19.3156	-571.614	16.3005	-24.3489	-2.73254	-19.4664	-29.0103	-0.322404
0.0453	-2.09667	159.984	-24.475	-358.592	26.6755	-55.1592	-12.4916	-17.9565	-38.7916	0
0.0460	0	185.603	-29.3785	-209.374	32.1778	-82.0246	-12.4916	-69.8283	-29.0103	0
0.0467	-1.49762	217.041	-39.4414	-154.174	25.4573	-84.7678	-6.39451	-100.956	-26.6021	0
0.0473	-12.8197	195.376	-44.3023	-105.65	10.5092	-71.9586	-4.86094	-83.5571	-36.9761	-0.322404
0.0480	-23.1832	186.535	-42.8099	-72.682	6.2353	-53.0281	-3.64338	-63.115	-30.5664	0
0.0487	-27.736	207.889	-46.4769	-77.5688	13.5545	-29.8354	-4.86094	-62.813	-14.6719	0
0.0493	-26.8374	181.027	-52.2332	-128.501	18.4375	-10.9049	-6.69193	-73.1734	-5.81688	0
0.0500	-23.7823	139.534	-42.4688	-151.696	14.1636	-4.80631	-5.78109	-64.9501	-3.07517	0
0.0507	-21.9851	44.6284	-18.3776	-96.1522	7.15407	-9.99803	-6.39451	-36.2615	-1.25971	-1.61202
0.0513	-15.5753	-87.5055	8.18676	-72.682	6.84437	-7.2548	-4.86094	-6.66691	6.37264	-2.90163
0.0520	-4.25325	-75.9247	27.7156	-111.432	5.9256	2.81124	-1.8124	16.2375	10.0406	-0.322404
0.0527	0.299525	22.9638	32.278	-119.347	1.35236	5.25973	-1.50568	26.9232	3.33452	0.644807
0.0533	-3.95372	61.7171	28.3125	-93.7432	-1.39365	0.680138	-0.901552	12.8692	-0.0370502	0
0.0540	-10.3636	61.4064	14.2842	-53.1349	-6.58629	-7.2548	0.325302	-18.5605	1.18561	0
0.0547	-9.7645	54.4014	-10.4466	14.0408	-12.0783	-10.6102	5.81826	-24.0427	8.1881	0
0.0553	-3.35468	48.5828	-15.9471	110.468	-9.0226	-6.34795	15.5773	13.4964	20.4147	0
0.0560	-5.45135	42.7924	-10.4466	147.979	-2.6118	-1.76836	17.1109	32.4054	23.4528	0.644807
0.0567	-8.86593	18.6705	-23.2811	100.351	-0.485197	1.29226	8.86681	18.0727	18.2658	0.322404
0.0573	-4.25325	-7.85233	-30.8709	86.0346	-2.9215	1.29226	2.15629	37.2836	17.9694	0
0.0580	-2.4561	-4.80179	-16.2456	118.659	-5.97721	0.385411	0.632016	70.5485	21.3409	0.322404
0.0587	-4.25325	1.29931	0.554312	134.558	-6.88567	-2.06308	2.463	47.0633	21.0075	0.322404
0.0593	-7.00888	-27.3984	9.67914	150.733	-6.88567	-16.0966	0.632016	-6.9689	16.1539	0
0.0600	-4.55277	-99.1145	15.8192	170.899	-6.88567	-31.3544	-5.16766	-42.9749	8.81795	0
0.0607	9.16545	-180.293	20.9786	112.877	-4.44936	-27.999	-9.44306	-55.7976	6.66904	-0.322404
0.0613	15.5753	-222.407	9.38066	46.9405	-4.13966	-13.6708	-11.8875	-36.2615	3.00107	-0.322404
0.0620	12.5201	-217.521	-13.1756	59.4671	-6.88567	0.385411	-10.9673	-29.2461	-9.18845	0
0.0627	17.1328	-153.742	-14.4121	44.5315	-9.63167	10.4515	-8.52292	-55.4956	-23.8233	0
0.0633	24.4412	-112.842	-5.88423	24.0897	-8.41352	11.3583	-7.30536	-16.4234	-37.5689	0
0.0640	18.0314	-166.876	-21.1065	98.5612	0.74328	5.25973	-3.9501	70.5485	-45.4977	0.322404
0.0647	3.35468	-171.141	-47.0739	235.253	11.1182	1.90439	-2.73254	99.5391	-48.5728	0.322404
0.0653	-1.79715	-83.2404	-33.6425	320.117	14.783	2.51651	-4.25681	83.9752	-47.6466	0
0.0660	-3.35468	-41.1259	11.5126	333.814	13.8642	4.03548	0.0185887	56.8197	-34.5308	0
0.0667	-10.3636	-86.9123	19.1451	369.88	9.59038	7.39083	3.06714	25.088	-18.6363	0
0.0673	-9.7645	-114.367	-14.7106	431.205	1.35236	6.77871	-1.50568	10.7321	-16.228	0
0.0680	7.96735	40.0525	-27.2466	487.644	-7.49474	-1.45096	-6.0878	22.0217	-19.2661	0.322404
0.0687	26.5379	256.726	-11.6832	513.248	-13.2965	-5.73583	-5.78109	43.695	-16.8208	0
0.0693	20.1281	242.999	-14.4121	462.315	-11.1595	-9.7033	3.37385	28.7351	-14.6719	0
0.0700	0.599049	78.1844	-18.9745	339.045	-5.97721	-17.933	16.8042	-6.34169	-8.2622	0.322404
0.0707	-7.00888	22.3424	3.88018	93.055	-5.66751	-16.414	17.4083	-10.616	13.0787	0
0.0713	-3.35468	84.5962	25.8821	-279.578	-9.3323	-17.933	7.34254	-34.1244	33.234	0
0.0720	10.723	126.711	43.8759	-627.502	-6.58629	-33.5081	7.64925	-74.1026	27.7506	0.322404
0.0727	23.8422	113.605	60.9743	-775.206	6.2353	-36.2513	13.1422	-34.7283	4.22372	0.322404
0.0733	18.93	58.3558	44.4729	-653.106	15.0824	-18.2504	9.48024	42.789	-6.74314	0
0.0740	6.1103	-44.7978	12.4507	-440.084	10.5092	-6.03056	4.29399	82.14	3.33452	0.322404
0.0747	4.31315	-99.1145	16.7146	-286.874	1.04266	-6.93741	3.06714	96.194	10.337	0.322404
0.0753	14.3772	-50.5882	38.6739	-173.377	-4.44936	-5.73583	1.54286	93.7549	10.9669	0.322404
0.0760	23.1832	-17.3147	41.7439	-103.448	-5.66751	6.48398	0.632016	78.493	20.4147	0
0.0767	17.1328	10.4509	29.5491	-67.7952	-3.2312	17.4569	3.37385	39.1187	27.4172	0
0.0773	8.86593	21.7493	13.6446	-38.75	4.39774	22.0365	3.98728	0.0464593	19.4884	0.322404
0.0780	14.0777	-28.0198	10.9157	-10.1177	17.2193	26.0039	0.325302	-25.5758	3.63092	0
0.0787	14.6767	32.7086	16.1177	21.6119	24.8483	25.7092	-3.33667	-82.0239	-14.3755	-0.322404
0.0793	12.2206	163.345	9.08218	55.1998	21.4932	21.1296	-3.9501	-121.398	-30.8628	0.322404
0.0800	23.8422	198.427	4.51977	106.201	11.1182	16.55	-3.9501	-96.9838	-47.6466	-0.322404
0.0807	31.4501	158.459	-3.11267	202.284	1.35236	15.6432	-7.61207	-53.3585	-61.0588	-2.90163
0.0813	28.0954	84.003	-16.5441	329.891	-1.09427	17.7743	-9.13634	-20.9996	-58.317	-2.25683
0.0820	27.4964	22.0317	-17.4821	426.938	-4.44936	13.8068	-6.0878	8.59497	-44.275	0.322404
0.0827	24.1417	31.1834	-17.7806	449.789	-5.97721	6.48398	-4.25681	50.4083	-18.6363	0.322404
0.0833	22.5842	66.6036	-11.3421	397.617	0.74328	1.58699	-2.73254	74.8227	10.0406	-0.322404
0.0840	28.6945	52.5654	7.54717	297.198	5.31652	-3.58206	-0.594838	81.5361	20.1183	0
0.0847	30.851	0.988603	13.6446	181.223	11.7273	-7.54953	0.632016	88.5514	21.0075	0
0.0853	25.6393	-106.741	23.409	129.947	17.8284	-9.3859	1.23615	48.8752	23.7862	0
0.0860	21.6856	-212.634	58.2027	157.478	16.0012	-10.9049	0.632016	-20.0936	34.4567	0
0.0867	21.9851	-194.02	86.6006	52.4467	14.783	-8.47905	0.632016	-27.109	53.6858	0
0.0873	16.1743	-106.43	79.9062	-215.499	9.59038	-3.28733	2.15629	10.7321	63.43	0
0.0880	9.46498	-81.7151	44.4729	-372.013	0.74328	3.12863	4.29399	13.1712	59.762	0
0.0887	11.9211	-81.1219	3.88018	-326.862	-5.05843	7.39083	4.29399	-0.255526	45.1272	0
0.0893	12.2206	-45.1085	-28.4405	-141.028	-9.63167	4.96501	3.06714	14.1004	15.8204	0
0.0900	3.05515	-109.481	-48.2678	136.072	-11.7686	-0.838837	1.23615	31.8014	-11.9302	0
0.0907	1.258	-184.869	-54.0667	198.361	-9.94137	3.74076	-0.901552	41.5578	-12.8564	0
0.0913	10.3636	-149.166	-38.2049	-89.7513	-5.66751	22.3539	0.325302	72.0816	0.259352	0
0.0920	16.7734	-157.414	-6.48118	-207.24	-2.6118	33.032	1.84958	100.77	-5.22408	0
0.0927	18.6304	-32.8781	16.1177	26.4986	-5.05843	30.2888	-0.901552	87.6455	-25.3794	0
0.0933	9.7645	204.528	7.24869	221.831	-9.0226	31.1957	-3.33667	57.4237	-28.1211	0.322404
0.0940	-8.20697	173.712	-18.0791	252.942	-9.3323	35.4805	-2.42583	24.1588	-13.7827	0.322404
0.0947	-16.1743	50.4187	-26.3085	207.515	-8.11414	33.6442	-1.50568	0.975645	-6.15034	0
0.0953	-10.3636	124.592	-22.0446	153.761	-6.88567	27.5456	0.929435	39.7227	1.77841	-0.322404
0.0960	-5.15182	196.901	-15.3075	144.332	-4.44936	23.5781	7.03582	78.493	17.3766	0
0.0967	-4.25325	61.4064	-10.4466	144.332	-3.2312	19.6106	13.1422	62.3019	29.8625	0
0.0973	0.599049	-166.876	-15.0091	10.9436	-1.39365	16.55	14.0531	53.7766	45.1272	0
0.0980	10.064	-305.111	-31.809	-175.166	3.48929	15.3258	10.3911	44.2989	53.0559	0
0.0987	13.4187	-329.826	-62.0403	-342.762	7.45345	11.9704	3.98728	51.6395	47.2761	0
0.0993	6.1103	-318.839	-80.9295	-531.969	6.84437	1.90439	0.325302	104.743	46.3498	0.322404
0.1000	-0.599049	-314.573	-58.6718	-493.494	6.2353	-12.7412	-1.19897	99.841	44.8308	0.322404
0.1007	3.6542	-194.952	-7.71773	-194.713	5.62622	-28.9285	-3.33667	45.5301	33.5304	0.322404
0.1013	9.16545	144.421	15.1796	31.7295	2.88021	-40.2188	-4.25681	44.6242	24.6754	0
0.1020	4.9122	375.132	-8.91163	69.8601	1.65173	-39.6067	-4.25681	65.3682	22.5636	0.322404
0.1027	1.258	295.79	-26.9054	63.4591	4.09836	-27.7043	-3.64338	24.1588	24.379	0
0.1033	1.258	245.738	-16.5441	46.9405	4.39774	-15.8019	-1.8124	-67.6912	25.6017	0
0.1040	-9.7645	271.979	-12.8771	-61.0501	0.74328	-10.3154	-0.594838	-125.068	21.0075	0.322404
0.1047	-25.3398	209.725	-9.84969	-192.924	-0.485197	-4.80631	0.325302	-118.355	6.96544	0.322404
0.1053	-32.6482	146.85	16.7146	-223.415	0.134203	0.0680138	-1.8124	-90.5724	-9.81831	0
0.1060	-28.3949	115.13	37.1815	-188.932	-1.39365	2.51651	-5.16766	-59.4447	-1.55611	0
0.1067	-9.7645	99.5664	36.8404	-217.014	0.43358	6.16658	-3.33667	-32.2892	22.5636	0.322404
0.1073	12.5201	85.8107	34.1115	-362.584	4.09836	6.48398	-0.594838	-36.2615	0.259352	0.322404
0.1080	26.8973	37.3127	29.8476	-441.323	4.70744	4.64761	-0.594838	-50.2922	-58.317	0.322404
0.1087	32.0491	-12.4564	22.2151	-311.032	3.78866	5.55446	-1.50568	-50.2922	-76.027	0
0.1093	32.6482	-35.9287	13.0476	-169.729	2.57051	6.48398	-3.02996	-50.5942	-38.7916	0
0.1100	28.994	-39.2899	12.7492	-147.429	2.57051	6.48398	-2.11911	-46.6451	0.259352	0
0.1107	22.2846	-40.5327	23.7501	-122.1	5.31652	2.81124	0.0185887	-40.2338	5.14998	-2.57923
0.1113	16.4739	6.77899	25.5836	-57.4023	6.2353	-3.28733	2.15629	-36.5635	-6.74314	-2.90163
0.1120	14.0777	105.978	24.0486	-9.77353	5.31652	-7.2548	5.20484	-35.9595	-22.3042	0
0.1127	20.4875	63.8637	49.0779	26.8428	5.31652	-11.2223	8.25338	-35.0303	-34.8272	0.644807
0.1133	29.2935	-55.7854	81.1001	70.1354	4.09836	-11.8344	11.6179	-8.80404	-26.6021	0
0.1140	27.4964	-87.223	78.6696	144.607	2.57051	-3.89946	11.0045	31.4994	-11.3374	0.322404
0.1147	21.0865	-158.318	52.1053	258.172	2.88021	11.3583	7.03582	40.0247	-4.63128	0
0.1153	20.1281	-208.059	34.7084	366.783	1.35236	20.8122	1.54286	22.3469	1.48201	0
0.1160	16.4739	-86.9123	31.681	483.377	-2.00273	8.61508	-7.61207	29.0603	5.77983	0.322404
0.1167	6.40983	63.8637	19.1451	568.516	-2.9215	-22.1952	-13.4117	93.4529	8.52155	0
0.1173	1.258	51.3509	-5.54312	433.339	0.134203	-46.6121	-10.0565	152.642	22.86	0
0.1180	3.05515	-53.0456	-18.676	245.026	1.96143	-38.3824	-3.33667	153.571	33.8268	0.322404
0.1187	11.322	32.7086	-8.0162	298.712	1.96143	-15.8019	-1.50568	129.761	28.9733	0
0.1193	23.4827	137.105	21.9166	389.977	1.04266	-6.03056	-3.9501	74.2187	23.4528	0
0.1200	32.0491	-21.608	53.6403	268.841	-0.485197	-2.67521	-3.33667	-29.5481	14.9312	0
0.1207	36.0029	-81.1219	57.9043	-78.1194	0.134203	2.81124	0.0185887	-110.411	0.592803	0.322404
0.1213	23.8422	34.5446	19.4436	-459.287	2.27113	7.39083	1.23615	-99.4229	-18.9697	0
0.1220	-2.09667	10.4509	-44.3023	-557.917	1.35236	8.61508	0.325302	-50.5942	-34.5308	0
0.1227	-24.3813	-115.893	-116.96	-379.034	0.134203	5.87186	-0.288125	-20.3956	-37.8653	0.322404
0.1233	-28.0355	-132.388	-161.816	-300.295	0.43358	2.19911	-0.901552	32.7073	-40.3106	0
0.1240	-9.46498	54.9946	-148.982	-341.798	0.74328	2.51651	-0.901552	109.621	-18.0435	0
0.1247	-0.898574	175.548	-138.919	-232.844	1.04266	5.25973	1.54286	104.417	23.1564	0
0.1253	-14.6168	105.668	-163.65	-88.5124	-0.784574	3.12863	1.54286	21.1158	27.7506	0
0.1260	-29.8926	76.0659	-177.977	-78.7388	-3.84028	-0.226713	-0.288125	-44.81	6.66904	0.322404
0.1267	-34.8048	70.2473	-160.878	-119.622	-4.44936	0.0680138	0.325302	-93.6387	-6.15034	0.322404
0.1273	-27.4365	27.8504	-73.5956	-91.8849	-3.84028	2.51651	1.23615	-116.52	-23.5269	0
0.1280	-27.1369	41.5778	84.4686	-15.0044	-1.39365	5.55446	2.463	-76.5417	-28.1211	-0.322404
0.1287	-37.8	115.723	176.015	57.6776	-0.175497	5.87186	2.76042	17.4455	-15.3017	0
0.1293	-38.1594	76.3484	144.889	113.497	-1.09427	3.42336	0.929435	119.075	-18.6363	0
0.1300	-28.3949	-99.4252	89.9691	168.146	-2.6118	0.680138	-0.901552	208.184	-23.8233	0
0.1307	-12.8197	-201.054	66.7732	209.649	-1.70335	-1.45096	-1.8124	236.269	-18.6363	0
0.1313	-0.599049	-189.134	21.6182	165.049	0.43358	-2.67521	0.325302	172.178	-14.3755	0
0.1320	-0.299525	-46.3231	-36.0729	90.9213	0.134203	-3.89946	1.54286	146.858	-11.6338	0.322404
0.1327	1.55753	172.186	-36.3714	51.5519	-0.485197	-3.58206	-0.901552	150.203	-9.48486	0.322404
0.1333	8.5664	167.921	-14.7106	5.78152	1.04266	-0.226713	-3.64338	32.7073	-7.9658	0
0.1340	3.35468	-7.85233	4.2213	-67.1758	2.57051	0.997536	-5.16766	-150.691	-10.7075	0
0.1347	-12.8197	-68.2983	44.1744	-188.312	3.78866	2.81124	-3.9501	-255.689	-12.56	0
0.1353	-22.2846	-82.3365	63.1063	-236.836	4.09836	7.09611	-0.594838	-264.214	-7.66939	0.322404
0.1360	-17.0729	-149.166	38.9724	-60.4307	2.88021	7.09611	-0.901552	-234.317	-12.8564	0.322404
0.1367	-7.3084	-109.481	41.7439	173.033	0.43358	2.81124	-2.73254	-192.202	-34.5308	0.322404
0.1373	-7.60792	-17.9361	73.4676	245.026	-2.00273	0.0680138	-3.33667	-132.386	-45.2013	0.322404
0.1380	-13.7182	-53.3281	68.6067	244.751	-2.31243	0.0680138	-1.50568	-48.4571	-36.6427	0.322404
0.1387	-13.7182	-121.4	49.9733	264.229	-0.485197	-0.226713	3.06714	44.6242	-22.0078	0
0.1393	-13.7182	-159.222	46.6048	280.748	-0.485197	-2.06308	4.89812	89.1786	-1.55611	0.322404
0.1400	-21.9851	-152.527	23.7501	313.716	-2.31243	-4.51158	2.76042	57.1217	15.524	0.644807
0.1407	-29.8926	-29.5451	-26.01	365.268	-4.44936	-7.2548	0.632016	-2.06744	33.234	-1.61202
0.1413	-27.736	109.029	-78.2006	391.836	-3.2312	-7.2548	1.23615	-31.6852	69.2469	-3.22404
0.1420	-32.6482	122.135	-141.051	74.1274	0.134203	-2.96994	3.98728	-65.8561	88.1425	-0.644807
0.1427	-48.8225	48.5828	-217.375	-535.273	0.134203	0.680138	2.76042	-96.0778	65.8753	0.644807
0.1433	-49.7211	-95.1601	-266.198	-684.56	-1.70335	1.58699	0.929435	-84.161	28.9733	0
0.1440	-32.6482	-262.686	-289.393	-415.65	-1.70335	4.96501	1.23615	-103.093	11.2633	0.322404
0.1447	-16.1743	-304.8	-250.933	-246.885	-2.6118	8.32035	0.632016	-100.352	15.2276	0.322404
0.1453	-7.00888	-224.837	-127.62	-126.643	-3.84028	6.16658	-1.19897	4.94792	3.00107	0.322404
0.1460	3.35468	-132.981	-10.4466	-10.7371	-4.44936	4.03548	-1.19897	57.4237	-12.56	0.322404
0.1467	10.723	-70.4168	120.456	48.1794	-3.53058	5.55446	-0.288125	-51.2214	0.592803	0
0.1473	4.9122	97.4197	239.207	80.253	-2.00273	6.16658	-1.8124	-172.968	28.3434	0
0.1480	-2.75563	332.086	226.074	97.3223	-1.09427	4.35288	-3.64338	-141.538	55.2048	0.322404
0.1487	-12.5201	240.541	107.664	118.659	0.134203	3.12863	-1.8124	-12.7531	67.3943	0
0.1493	-23.7823	-30.7597	-34.2394	152.591	0.43358	1.90439	1.84958	52.5455	53.3523	0
0.1500	-25.6393	-37.7646	-111.161	183.082	-1.09427	-1.15623	1.23615	48.8752	21.0075	0
0.1507	-23.4827	17.7666	-123.953	206.276	-2.31243	-4.19418	-2.73254	90.3866	-21.0816	0
0.1513	-17.3724	-104.001	-152.052	195.883	-2.9215	-5.12371	-5.16766	207.882	-66.8756	0.322404
0.1520	-1.1981	-210.516	-200.277	36.8916	-2.6118	-6.34795	-4.25681	257.617	-89.7727	0.322404
0.1527	0	-60.672	-219.806	-290.246	-0.784574	-6.34795	-2.11911	205.745	-72.3591	0
0.1533	-25.3398	274.719	-174.011	-467.89	1.65173	-1.76836	-0.901552	154.477	-45.2013	0.322404
0.1540	-43.6108	427.613	-129.453	-315.575	2.27113	2.51651	-1.8124	85.8103	-42.1631	0
0.1547	-35.7033	335.165	-138.621	-137.999	1.04266	1.90439	-1.8124	32.1034	-53.7599	0
0.1553	-26.2384	193.851	-149.622	-144.676	-0.175497	0.680138	-0.288125	33.0093	-57.3908	0.322404
0.1560	-36.0029	-55.164	-116.661	-185.559	0.134203	4.03548	-0.288125	-17.3293	-47.0167	0
0.1567	-34.4453	-294.123	28.3125	-99.8001	0.43358	9.52193	-0.288125	-86.6234	-24.4531	0
0.1573	-0.299525	-205.008	165.654	35.3774	-0.485197	13.1947	0.325302	-60.3739	6.66904	0.322404
0.1580	45.1683	-45.391	164.716	90.9213	0.74328	15.031	0.929435	6.15586	40.57	0.322404
0.1587	89.7376	-80.1898	190.982	118.659	5.31652	16.8447	1.54286	53.4747	67.3943	0.322404
0.1593	104.055	14.0947	240.401	165.668	10.1995	18.9985	1.84958	69.0385	78.6947	0
0.1600	72.6647	228.96	199.808	199.531	11.7273	18.069	4.59141	54.6826	77.7684	0
0.1607	39.3575	197.212	139.687	198.981	8.6716	12.5826	6.12498	34.2405	66.5051	0.322404
0.1613	20.787	53.1586	101.865	103.723	6.53467	8.61508	1.54286	16.2375	42.3854	0.322404
0.1620	6.40983	-14.8855	80.5031	-51.896	7.45345	9.52193	-0.594838	-17.0273	21.0075	0
0.1627	8.26688	-13.0496	88.1356	-137.036	7.76315	10.4515	3.68056	-87.2273	20.7111	0
0.1633	28.0954	200.263	118.964	-90.9901	7.45345	8.32035	5.81826	-133.617	25.8981	0
0.1640	36.9613	378.804	106.726	-6.74511	6.2353	4.64761	1.23615	-113.152	18.8956	0
0.1647	36.3024	228.96	22.8121	-116.938	5.01714	4.64761	-4.25681	-86.6234	17.3766	0
0.1653	48.8225	17.1452	-45.2404	-294.513	5.31652	8.93248	-4.25681	-51.8254	26.8244	0
0.1660	49.4815	-60.3613	-65.6646	-249.018	3.48929	8.00296	-0.288125	-9.70999	28.3434	0
0.1667	30.851	-60.672	-93.167	-139.789	-0.784574	1.58699	2.76042	-34.4263	21.0075	0
0.1673	14.6767	-17.3147	-126.426	-114.185	-2.9215	-1.76836	0.929435	-75.0085	13.3751	0.322404
0.1680	2.75563	-34.7141	-122.759	-78.1194	-4.74873	-0.226713	-1.50568	-58.2367	0.259352	0.322404
0.1687	-0.299525	-192.806	-41.2749	-9.15408	-6.88567	0.385411	-2.42583	-6.66691	-16.228	0
0.1693	2.4561	-227.887	124.123	34.758	-6.58629	-1.15623	-3.64338	37.5856	-20.4888	0.644807
0.1700	-3.95372	-63.1011	274.598	36.8916	-5.36813	-1.45096	-3.02996	34.5425	-17.4136	0.322404
0.1707	-10.6631	-114.678	326.149	49.0741	-6.27659	-4.80631	-1.8124	32.4054	-24.1567	-2.57923
0.1713	-0.898574	-332.255	247.735	87.2735	-4.44936	-8.77378	0.632016	92.2217	-26.2686	-2.57923
0.1720	14.3772	-177.553	96.6634	111.088	-1.70335	-6.03056	0.929435	98.9351	-15.3017	0.322404
0.1727	18.93	186.535	-33.6425	107.715	-1.39365	-2.06308	-1.50568	-17.0273	-7.03954	0.644807
0.1733	6.70935	206.364	-124.592	98.217	-1.09427	-2.06308	-2.11911	-75.6357	-4.29783	0
0.1740	-7.60792	97.7305	-170.984	97.5976	-5.36813	-1.76836	-0.594838	16.2375	-3.07517	0.322404
0.1747	-8.20697	148.997	-215.542	57.3334	-12.6874	-0.838837	3.68056	89.7826	0.259352	0
0.1753	-9.7645	194.162	-218.569	-40.333	-16.3522	3.12863	11.0045	54.0786	1.77841	0
0.1760	-13.7182	123.349	-152.649	-59.2606	-18.1794	11.3583	12.8355	-21.3016	-3.07517	0
0.1767	-8.86593	4.03915	-87.965	2.40897	-12.9971	14.4189	7.95596	-65.8561	-6.44674	0
0.1773	3.05515	-13.0496	-57.4352	-9.15408	-2.00273	18.069	7.03582	-19.1645	-2.18596	0
0.1780	1.55753	-53.0456	-123.654	-64.4227	4.09836	26.3213	12.5288	100.77	1.18561	0
0.1787	-19.8285	-189.755	-200.576	-21.4054	1.35236	30.2888	20.1594	196.593	0.889205	0
0.1793	-27.4365	-172.977	-158.448	161.401	-5.66751	30.2888	30.2345	217.639	3.00107	0
0.1800	-19.8285	-41.4366	-97.1325	380.204	-11.4692	27.2282	32.0655	115.73	2.11186	0
0.1807	-16.1743	-19.1507	-63.8311	493.15	-12.9971	21.4243	26.5632	-73.1734	-3.40862	0
0.1813	-6.40983	-19.7721	34.7084	501.065	-13.2965	23.2607	25.6524	-139.401	-0.963306	0
0.1820	3.6542	41.8885	129.922	481.243	-18.4891	24.7797	24.1281	-85.3922	14.3014	0.322404
0.1827	-4.55277	76.3484	160.153	464.449	-21.2351	14.1015	19.546	-92.1056	30.1589	0.322404
0.1833	-17.9715	90.3865	226.969	506.227	-16.0425	-0.838837	11.9154	-121.398	29.5661	0
0.1840	-21.0266	136.484	248.332	594.74	-9.3323	-7.86693	4.89812	-58.5387	15.2276	0
0.1847	-22.8837	116.655	121.096	330.786	-7.19537	-3.58206	5.81826	-8.80404	27.7506	0.322404
0.1853	-20.4276	3.72845	11.5126	-435.817	-8.41352	5.87186	9.48024	-62.209	41.4592	0.322404
0.1860	0.599049	-90.8667	60.9743	-854.495	-3.2312	26.3213	6.4224	-56.0996	-1.55611	0.322404
0.1867	22.8837	-233.988	131.159	-517.309	5.9256	51.6451	-5.47437	85.8103	-38.1988	0.322404
0.1873	21.0865	-324.629	61.5712	-111.088	10.1995	62.9354	-22.8734	208.788	-26.8985	0.322404
0.1880	4.9122	-161.058	-32.7044	0	9.59038	54.7058	-38.7388	208.486	-21.415	0.322404
0.1887	10.064	-20.0828	-56.2413	-84.245	13.8642	26.9335	-46.0628	135.243	-33.0117	0.322404
0.1893	24.1417	-28.3023	-73.5956	-295.133	27.904	-1.76836	-46.9829	104.417	-34.1973	0.322404
0.1900	19.2295	72.394	-74.2351	-436.711	39.8068	-22.1952	-42.0941	151.736	-25.0459	0.322404
0.1907	9.16545	152.047	-17.141	-349.163	42.8522	-44.7984	-31.7216	147.764	-20.4888	0
0.1913	-3.6542	71.4901	106.726	-197.191	42.8522	-72.2533	-23.1801	85.2064	-14.6719	0
0.1920	-6.1103	4.94301	207.739	-130.979	41.634	-94.5392	-19.8156	79.7009	-1.25971	0.322404
0.1927	9.7645	-75.9247	166.251	-105.306	41.0249	-92.4081	-18.9047	84.6024	9.11435	0.322404
0.1933	11.0225	-46.6338	108.56	-86.9981	38.888	-75.3139	-19.2114	41.5578	10.9669	0
0.1940	3.35468	194.162	130.86	-71.4431	27.904	-61.2577	-19.8156	-31.0813	9.11435	0.322404
0.1947	18.0314	266.188	90.566	-61.9449	13.2552	-44.1863	-17.3804	-57.0056	7.8917	0.322404
0.1953	37.8599	152.358	-18.9745	-65.3174	13.8642	-28.9285	-14.0252	-34.1244	1.77841	0.322404
0.1960	31.4501	87.0535	-128.558	-65.0421	23.9295	-22.8073	-11.274	-75.0085	-6.15034	0
0.1967	6.70935	21.4386	-249.099	-43.3614	26.0664	-18.8398	-3.64338	-152.526	-0.0370502	0.322404
0.1973	0.299525	-168.091	-324.784	-21.6807	18.4375	-19.1572	6.12498	-93.0115	11.2633	0.644807
0.1980	20.787	-253.224	-227.737	-15.0044	2.88021	-29.8354	13.4489	90.3866	15.524	0.322404
0.1987	41.2146	78.1844	-5.54312	-15.2797	-15.1237	-38.3824	21.0703	123.651	24.9718	0.322404
0.1993	43.3712	247.574	91.8026	-16.7939	-29.1634	-19.1572	25.6524	28.1311	36.5686	0.322404
0.2000	29.8926	-76.2354	19.4436	-9.49821	-40.7669	23.2607	21.377	47.9692	38.7175	0.644807
0.2007	12.5201	-293.813	-88.8604	7.91518	-47.7867	90.7077	5.20484	123.953	30.1589	-1.93442
0.2013	5.51125	-354.231	-153.885	26.8428	-36.7924	172.8	-10.3539	84.6024	12.7823	-3.54644
0.2020	3.05515	-371.941	-138.322	40.2642	-11.4692	198.442	-12.4916	6.45784	-15.8945	-0.967211
0.2027	0	-84.1725	-94.3609	44.5315	5.31652	169.445	-7.30536	-13.3803	-61.6886	0.644807
0.2033	2.4561	172.808	-75.1306	42.3978	12.037	139.542	0.929435	-76.2397	-84.882	0
0.2040	0	167.921	-39.1429	36.8916	14.4733	111.157	14.6665	-138.797	-50.6847	0.322404
0.2047	-14.9163	202.692	-27.2466	32.0049	16.6102	80.3243	32.3629	-98.8189	-21.7114	0.322404
0.2053	-34.1458	123.067	-59.5672	43.2926	16.6102	54.3884	39.0827	-11.2432	-23.8233	0
0.2060	-28.994	-80.1898	-42.8099	56.4387	3.48929	32.4199	25.3457	20.8138	1.77841	0.322404
0.2067	-0.898574	-41.4366	1.74821	7.91518	-12.0783	4.03548	6.12498	-30.4541	41.7556	0.322404
0.2073	1.258	82.167	31.681	-52.5155	-14.8243	-54.2523	-6.69193	-12.7531	39.9401	0.322404
0.2080	-12.8197	9.23637	60.0362	-21.4054	-10.8601	-133.896	-17.3804	121.816	8.81795	0.322404
0.2087	-5.15182	-37.7646	-49.5043	34.1385	-1.70335	-183.025	-25.0111	248.162	-9.81831	0.322404
0.2093	5.21173	-1.75124	-317.749	41.5031	17.8284	-169.309	-23.7842	254.574	-12.2266	0.322404
0.2100	11.9211	-137.275	-434.026	34.4827	28.8124	-104.9	-17.3804	203.306	-13.7827	0
0.2107	33.6067	-306.015	-312.589	31.1101	20.5744	-47.2242	-10.3539	182.237	-11.3374	0
0.2113	47.0254	-291.666	-158.746	27.7375	11.4176	-27.0922	-5.47437	81.5361	0.889205	0.322404
0.2120	22.8837	-209.584	-4.94617	24.365	2.57051	-20.3815	-3.9501	-94.8467	7.8917	0.322404
0.2127	-2.75563	-39.9113	135.423	21.6119	-16.9612	-17.3208	-5.78109	-189.159	3.00107	0.322404
0.2133	2.15658	111.458	153.118	23.7455	-33.747	-13.9655	-7.61207	-212.946	-1.85251	0.322404
0.2140	19.529	9.23637	41.147	28.357	-36.7924	-1.76836	-5.47437	-266.049	-1.55611	0
0.2147	42.7122	-72.8742	-108.73	31.1101	-27.6459	17.1621	-5.78109	-257.826	-2.18596	0
0.2153	65.9553	-67.9876	-175.845	27.4622	-11.7686	36.0926	-9.74977	-150.087	0.592803	0
0.2160	63.1997	-259.946	-133.419	11.9072	-2.00273	42.8033	-12.7983	-83.859	9.74421	0.322404
0.2167	36.0029	-475.998	-117.855	0.894759	0.43358	38.2237	-14.0252	-127.81	16.4503	0
0.2173	2.15658	-429.308	-194.18	0.275311	2.88021	32.7146	-7.91879	-165.349	20.1183	0
0.2180	-18.93	-184.558	-157.552	-6.74511	-1.70335	24.485	1.23615	-104.626	26.1945	0.322404
0.2187	-15.8748	-92.392	102.164	-16.1745	-2.6118	9.52193	7.03582	-66.46	32.6042	0.322404
0.2193	0.599049	-130.241	381.409	-16.7939	6.84437	-9.99803	23.5147	-61.8838	33.8268	0.322404
0.2200	-5.45135	-1.75124	509.583	-15.6239	-2.31243	-15.1897	39.6869	-48.1551	29.2697	0.322404
0.2207	-32.3487	-4.80179	453.725	-7.36456	-8.11414	-4.51158	24.7323	-90.8744	19.4884	0.322404
0.2213	-35.1043	-173.57	264.194	13.6967	18.7472	-33.1907	-3.33667	-82.0239	5.14998	0
0.2220	-22.8837	-102.476	169.321	28.9764	33.6954	-93.3149	-17.3804	25.692	-6.15034	0.322404
0.2227	-26.8374	9.51883	274.598	34.1385	21.7926	-93.6096	-20.7357	107.484	-9.18845	0.322404
0.2233	-37.8	29.0649	374.374	40.8836	12.037	-47.5416	-18.9047	175.221	-12.56	0.322404
0.2240	-36.9014	213.679	346.018	46.0457	7.76315	-23.4194	-9.74977	232.598	-15.8945	0
0.2247	-26.2384	461.79	204.072	38.1305	-5.97721	-13.9655	-0.594838	253.668	-10.7075	0.644807
0.2253	-40.2561	586.298	-77.2625	20.0977	-20.0066	1.29226	-0.901552	269.232	-5.52048	-0.644807
0.2260	-75.9594	526.191	-375.141	9.15408	-19.7072	9.52193	-1.19897	216.431	-4.00142	-2.57923
0.2267	-84.2263	386.12	-551.199	8.53463	-24.8896	8.32035	-0.288125	120.306	1.18561	-0.967211
0.2273	-60.3842	389.171	-640.955	8.53463	-45.9492	1.29226	-7.61207	67.8074	2.40826	0.644807
0.2280	-16.7734	424.252	-532.907	11.2877	-53.2787	-6.03056	-12.4916	-60.3739	-1.25971	0
0.2287	27.4964	322.341	-257.926	18.9276	-42.5941	-8.16165	-5.16766	-286.816	-4.00142	0.322404
0.2293	37.5604	122.135	-76.0686	23.1949	-34.9651	-10.9049	4.89812	-333.183	-5.22408	0.322404
0.2300	5.81078	-92.7027	32.5765	23.7455	-25.509	-5.12371	2.76042	-150.691	-6.44674	0
0.2307	-23.7823	-115.893	194.947	23.7455	-6.58629	12.2878	-6.69193	-40.5357	-7.9658	0.322404
0.2313	-5.15182	119.395	377.444	22.5755	9.59038	25.3918	-8.82963	-98.8189	-10.7075	-2.25683
0.2320	19.2295	263.449	406.737	19.8224	13.8642	33.6442	-4.56353	-175.105	-10.7075	-2.90163
0.2327	-2.75563	149.618	327.684	18.9276	4.70744	29.0646	0.929435	-91.5016	-6.74314	0
0.2333	-32.0491	45.5322	361.582	17.0693	-12.3777	9.2272	4.59141	112.362	-4.00142	0.644807
0.2340	-36.6019	58.0451	435.732	11.563	-24.2805	-3.58206	3.68056	143.49	-2.18596	0
0.2347	-37.5005	13.8122	411.939	8.19049	-24.2805	0.0680138	-3.02996	15.9355	-1.25971	0.644807
0.2353	-39.6571	-100.329	309.988	7.57104	-19.7072	8.32035	-11.8875	-62.209	-2.18596	0.322404
0.2360	-38.1594	-85.9802	163.181	6.40097	-15.7431	11.6757	-14.3226	-75.0085	-2.18596	0
0.2367	-46.3664	22.9638	-40.678	3.64787	-13.9055	11.6757	-10.3539	-98.8189	1.18561	0.322404
0.2373	-59.7851	94.3692	-260.399	-0.619449	-13.2965	10.4515	-5.47437	-156.8	6.07624	0.322404
0.2380	-60.3842	-28.9237	-340.347	-3.09724	-12.0783	8.93248	-1.50568	-160.772	8.81795	0
0.2387	-37.5005	-251.698	-214.604	-1.85835	-11.4692	6.48398	0.0185887	-99.1209	7.29889	0
0.2393	-9.16545	-220.571	-118.793	-0.619449	-11.4692	5.55446	-0.594838	-40.8377	6.37264	0
0.2400	-0.599049	-135.721	-251.828	0	-11.1595	6.16658	0.632016	3.11277	7.29889	0
0.2407	11.9211	-98.4931	-366.912	0.275311	-10.8601	6.16658	0.325302	81.2341	6.66904	0
0.2413	14.3772	-23.7265	-301.588	1.78952	-8.41352	6.77871	-0.288125	140.446	6.37264	0.322404
0.2420	-20.4276	46.7468	-266.198	2.40897	-6.27659	5.25973	0.632016	130.365	8.1881	0.322404
0.2427	-48.2235	195.998	-237.203	0.894759	-6.58629	2.51651	-0.594838	137.078	7.59529	0.322404
0.2433	-45.7674	261.613	-72.9986	1.17007	-5.66751	5.25973	-2.11911	157.822	5.14998	0.322404
0.2440	-16.4739	158.148	155.25	2.13366	-4.13966	8.93248	-3.02996	157.52	1.77841	0.322404
0.2447	29.2935	111.769	239.505	1.78952	-2.6118	9.83933	-4.25681	161.795	-0.963306	0.322404
0.2453	42.1132	116.344	-7.07814	3.02842	-1.09427	11.6757	-3.64338	176.754	-0.0370502	0
0.2460	13.1192	-16.4108	-242.064	3.30373	-1.39365	10.7462	-3.64338	201.471	-0.0370502	0.322404
0.2467	-15.8748	-29.8276	-174.949	2.13366	-2.31243	8.32035	-4.86094	175.221	-1.25971	0.322404
0.2473	-33.2472	274.408	-58.0322	0	-2.6118	7.39083	-6.99864	0.67366	-0.963306	0
0.2480	-35.4038	297.626	23.1105	-4.61145	-4.44936	3.74076	-6.0878	-152.526	-0.333452	0.322404
0.2487	-9.46498	-40.222	10.0203	-6.12566	-3.84028	4.03548	0.325302	-137.566	3.00107	0.322404
0.2493	25.0403	-165.04	-101.993	-4.26731	1.35236	9.83933	2.76042	-138.797	5.77983	0
0.2500	52.1772	-156.792	-78.2006	-3.992	3.48929	14.7136	-1.19897	-228.51	2.11186	0
0.2507	57.3889	-141.54	-73.9367	-3.37255	0.43358	16.55	-4.25681	-292.299	-4.63128	0.322404
0.2513	28.3949	-14.2641	-188.978	-4.61145	-4.13966	10.7462	-7.91879	-245.003	-9.48486	0.322404
0.2520	10.064	53.4693	-32.1074	-5.2309	-5.36813	3.42336	-10.9673	-133.919	-10.1147	0.322404
0.2527	21.9851	-6.94847	372.242	-3.37255	-3.84028	3.12863	-9.74977	-65.2521	-6.74314	0.322404
0.2533	20.1281	-85.387	571.837	-2.75311	-2.00273	4.64761	-7.30536	-35.6575	-4.00142	0.322404
0.2540	-11.2621	-106.119	410.105	-3.992	-2.00273	4.35288	-6.39451	-16.7253	-3.40862	0.322404
0.2547	-41.2146	-13.3603	163.82	-4.61145	-3.2312	3.12863	-3.64338	-26.1798	-2.18596	0
0.2553	-45.1683	53.78	104.296	-3.37255	-3.2312	3.74076	0.325302	-17.3293	-0.0370502	0
0.2560	-33.5468	-2.99405	120.797	0.894759	-2.31243	6.77871	3.37385	-13.9843	0.592803	0.322404
0.2567	-28.6945	-46.3231	139.687	4.54262	-2.00273	8.93248	4.59141	-67.6912	-4.00142	0
0.2573	-32.6482	0.677899	221.469	3.92318	-2.9215	8.32035	4.89812	-123.837	0.889205	0
0.2580	-35.7033	16.552	288.626	2.40897	-4.13966	8.00296	7.03582	-136.358	22.2301	0.322404
0.2587	-37.5005	-75.3033	262.701	3.30373	-4.74873	8.61508	8.86681	-69.2244	34.7531	0
0.2593	-33.8463	-148.234	222.705	4.26731	-2.9215	10.7462	8.86681	-5.43574	30.1589	0
0.2600	-23.7823	-37.4822	229.101	3.30373	-0.784574	14.1015	8.56009	-40.2338	20.4147	0
0.2607	-13.7182	38.838	219.678	-0.344138	-2.00273	12.2878	6.12498	-87.2273	17.0431	0
0.2613	-12.8197	-200.121	156.188	-0.619449	-3.53058	8.00296	3.37385	-31.3833	16.4503	0
0.2620	-22.5842	-384.143	49.3764	-0.963587	-3.2312	7.39083	2.76042	71.4776	8.1881	0
0.2627	-25.6393	-261.471	-32.1074	-4.61145	-2.31243	9.83933	3.98728	117.542	-2.18596	0.644807
0.2633	-29.593	-186.705	-109.924	-4.88676	-2.9215	8.61508	3.98728	111.131	-26.8985	-1.28961
0.2640	-34.4453	-196.76	-189.575	-8.25932	-3.84028	3.42336	2.15629	83.6732	-57.0944	-4.19125
0.2647	-10.3636	-99.4252	-195.672	-16.1745	-2.31243	3.42336	2.463	57.7257	-63.5041	-1.61202
0.2653	11.6216	98.3236	-199.638	-18.9276	-3.2312	4.96501	2.15629	4.64593	-60.1696	0.967211
0.2660	-10.9626	352.846	-245.134	-15.2797	-4.44936	0.385411	-0.901552	-62.813	-69.6174	-2.57923
0.2667	-32.6482	422.444	-185.609	-6.40097	-0.485197	-0.838837	0.325302	-74.7066	-63.5041	-3.22404
0.2673	-26.5379	221.334	-28.7389	-2.75311	1.65173	2.51651	1.23615	-21.9056	-13.7827	0.322404
0.2680	-28.0355	13.5015	-10.4466	-12.8708	-1.70335	1.90439	-2.73254	73.6148	25.8981	0.644807
0.2687	-30.4916	-107.955	-78.4991	-19.2717	-3.53058	0.385411	-3.9501	120.91	22.5636	0
0.2693	-1.1981	-171.452	-53.7682	-15.0044	-3.2312	1.90439	-1.8124	14.7044	11.5597	0.322404
0.2700	29.593	-167.78	-43.1084	-10.7371	-2.9215	2.51651	-0.288125	-158.635	15.2276	0.322404
0.2707	33.6067	-82.3365	-110.862	-7.02042	-2.6118	0.0680138	0.0185887	-210.205	31.0851	0.322404
0.2713	27.7959	55.616	-137.384	-4.61145	-4.13966	-4.51158	-2.11911	-148.252	46.9797	0.322404
0.2720	11.322	13.1908	-147.148	-1.85835	-5.05843	-5.12371	-4.86094	-72.2674	46.6462	0.322404
0.2727	-20.4276	-133.603	-253.96	3.30373	-1.09427	0.0680138	-1.50568	-10.616	31.715	0
0.2733	-42.7122	-157.103	-327.215	5.78152	2.57051	4.03548	2.76042	49.8044	18.5622	0.322404
0.2740	-47.5645	-134.196	-213.069	-1.2389	1.04266	3.74076	1.84958	113.895	17.673	0.322404
0.2747	-72.9043	-37.4822	-82.1661	-11.6319	-1.39365	4.03548	0.325302	124.883	20.4147	0.322404
0.2753	-117.174	108.407	-81.228	-12.8708	-2.6118	3.74076	-0.288125	136.172	18.5622	0.322404
0.2760	-141.256	226.814	-105.959	-8.60346	-4.74873	1.90439	-0.288125	288.443	16.1539	0.322404
0.2767	-123.584	205.771	-104.424	-5.50621	-5.97721	2.51651	-0.901552	476.742	12.1895	-0.322404
0.2773	-82.6688	-87.223	-134.357	-2.13366	-4.74873	3.42336	-0.901552	512.446	9.11435	0
0.2780	-76.5585	-351.491	-198.145	1.78952	-2.31243	4.96501	0.325302	468.798	10.0406	0.322404
0.2787	-76.259	-256.896	-273.83	1.51421	-2.6118	5.55446	-0.594838	488.334	9.41076	0.322404
0.2793	-14.9163	-39.2899	-226.5	-3.71669	-3.53058	4.35288	-2.73254	409.91	6.07624	0
0.2800	56.1908	34.2339	172.945	-6.12566	-2.9215	5.55446	-3.02996	110.829	2.70467	0
0.2807	74.7613	98.3236	618.825	-3.37255	-0.784574	8.32035	-3.64338	-181.818	-2.18596	0.322404
0.2813	67.4529	196.308	649.653	0.894759	1.96143	10.7462	-2.42583	-307.561	-5.52048	0
0.2820	50.6796	157.527	451.594	3.92318	3.17959	11.6757	0.929435	-235.851	-4.92768	0
0.2827	22.5842	52.2547	255.069	5.43738	3.78866	10.7462	3.37385	-163.212	-4.92768	0.322404
0.2833	23.1832	46.7468	81.3986	5.43738	4.70744	9.2272	4.59141	-275.527	-4.63128	0
0.2840	43.0716	99.8489	25.5836	3.30373	3.78866	6.48398	3.68056	-371.349	-4.92768	0
0.2847	55.2323	147.161	52.7449	0.550621	2.88021	8.00296	2.76042	-351.813	-4.29783	0.322404
0.2853	68.651	171.876	46.9459	0.275311	3.48929	12.5826	3.98728	-300.243	-1.55611	0.322404
0.2860	61.0431	163.035	34.7084	0	5.01714	12.8999	2.463	-257.199	-0.333452	0
0.2867	20.787	145.635	56.3692	-0.619449	6.2353	11.9704	1.54286	-204.096	-0.333452	0
0.2873	-13.4187	129.168	103.699	-2.13366	4.39774	8.93248	0.325302	-114.987	-2.77877	0.322404
0.2880	-19.2295	96.7983	108.261	-2.4778	2.57051	5.87186	0.325302	-46.6451	-4.29783	0.322404
0.2887	-24.0818	58.9772	-61.1022	0.894759	3.78866	5.55446	5.51155	-57.9347	-1.55611	0
0.2893	-37.201	42.171	-318.687	2.13366	4.09836	4.64761	7.64925	-114.383	-0.0370502	0.322404
0.2900	-17.3724	59.8811	-361.71	-0.963587	2.27113	3.12863	4.89812	-94.5447	-1.55611	-0.322404
0.2907	18.0314	74.8231	-187.741	-3.992	0.74328	-1.15623	2.463	-28.6189	-4.92768	-2.90163
0.2913	11.9211	46.4643	-132.523	-2.75311	3.17959	-1.45096	3.68056	-35.9595	-4.00142	-2.57923
0.2920	-16.4739	12.5694	-241.467	0.275311	5.9256	3.42336	7.34254	-63.7189	1.77841	0.322404
0.2927	-14.3173	40.9564	-221.639	-0.963587	4.09836	1.58699	7.34254	-71.3615	4.22372	0.322404
0.2933	24.4412	116.344	53.0434	-3.09724	2.27113	-2.38048	5.51155	-71.3615	4.55718	0
0.2940	47.3249	127.332	289.862	-4.26731	0.74328	-3.89946	3.06714	-46.6451	3.63092	0
0.2947	23.8422	39.4311	183.946	-4.26731	-0.175497	-3.28733	2.463	-26.4818	0.889205	0
0.2953	2.15658	-68.609	2.3878	-2.4778	1.65173	0.680138	5.20484	23.5549	-0.0370502	0
0.2960	12.5201	-143.658	89.9691	-0.344138	2.88021	4.03548	7.34254	96.194	0.592803	0
0.2967	31.7496	-165.351	305.724	-0.344138	2.57051	4.35288	5.81826	87.9475	-1.25971	0.322404
0.2973	34.8048	-116.514	484.255	-0.344138	1.65173	4.03548	4.89812	57.1217	-3.40862	0.322404
0.2980	29.2935	30.5902	595.629	-0.344138	0.74328	4.03548	3.98728	24.4608	-4.92768	0
0.2987	27.7959	169.757	486.686	0.894759	2.57051	6.77871	4.29399	-44.1828	-4.63128	0
0.2993	10.3636	116.938	196.141	2.40897	5.01714	11.0636	6.12498	39.4207	-2.48236	0.322404
0.3000	-16.7734	-33.1888	16.7146	0.550621	4.70744	10.7462	5.51155	226.187	-3.07517	0
0.3007	-24.0818	-90.2736	-0.980705	-1.85835	3.78866	9.52193	3.98728	271.369	-3.70502	0
0.3013	-16.7734	-94.8494	-10.1482	-2.4778	5.62622	9.83933	3.98728	274.11	-2.77877	0
0.3020	-2.75563	-132.671	-55.9002	-2.75311	6.84437	8.93248	3.06714	316.527	-1.85251	0
0.3027	18.3309	-107.052	-124.891	-0.963587	7.76315	9.52193	3.37385	162.422	1.18561	0
0.3033	28.994	55.9267	-247.564	-0.963587	6.84437	8.32035	3.68056	-165.349	2.40826	0.322404
0.3040	13.1192	174.926	-306.79	-2.75311	3.48929	4.35288	1.23615	-299.314	0.259352	0
0.3047	-11.2621	138.63	-121.224	-3.09724	1.35236	1.58699	-0.901552	-245.607	-0.963306	0
0.3053	-23.7823	79.1165	2.68628	-2.75311	1.65173	1.29226	-0.901552	-155.894	-1.55611	0.322404
0.3060	-31.7496	49.2042	-121.821	-1.2389	4.39774	4.03548	2.463	-85.6942	-0.333452	0.322404
0.3067	-41.5141	-26.777	-94.3609	-1.85835	6.53467	4.96501	5.51155	-99.1209	-0.333452	0
0.3073	-50.6197	-133.913	110.095	-3.37255	6.84437	4.35288	6.4224	-18.8625	-4.00142	0
0.3080	-59.7851	-142.133	168.383	-2.13366	8.06253	8.32035	7.95596	107.484	-4.92768	0
0.3087	-60.3842	-39.6006	75.0026	-3.992	9.28068	13.8068	8.86681	29.6643	-2.48236	0
0.3093	-57.6884	8.30426	56.7104	-3.992	12.3364	19.2932	10.3911	-44.1828	1.77841	0.322404
0.3100	-69.8491	-126.287	112.525	-2.4778	13.5545	19.2932	10.6978	28.7351	2.40826	0.322404
0.3107	-73.2038	-276.413	64.0017	-3.71669	10.1995	15.3258	7.34254	26.9232	-1.25971	0.322404
0.3113	-43.9103	-228.198	-34.2394	-2.75311	8.9813	14.1015	5.51155	-67.6912	-2.48236	0.322404
0.3120	1.85705	-70.1343	-19.3156	-0.963587	8.06253	11.6757	2.76042	-129.645	-4.63128	0
0.3127	43.9702	48.8935	66.7732	0	7.45345	10.4515	2.15629	-130.551	-4.92768	0.322404
0.3133	58.587	60.1918	72.5722	1.78952	8.06253	11.6757	5.20484	-60.0719	-0.629854	0.322404
0.3140	47.0254	-5.11249	5.11672	0.275311	5.62622	8.61508	4.59141	49.8044	-1.55611	0
0.3147	35.4038	-44.7978	9.38066	-0.963587	3.48929	7.09611	3.68056	106.252	-3.07517	0
0.3153	25.3398	-46.0124	130.221	-0.963587	2.88021	6.77871	3.06714	96.798	-2.77877	0
0.3160	4.31315	-30.7597	220.872	-0.619449	2.57051	6.77871	2.15629	68.4113	-0.963306	0
0.3167	-16.1743	-18.5575	152.819	0.550621	2.57051	7.09611	2.15629	32.4054	1.77841	0
0.3173	-17.0729	-33.4995	15.8192	-0.963587	0.43358	4.35288	-0.901552	-0.557512	-0.629854	0.322404
0.3180	0.599049	-32.2849	-63.8311	-1.2389	-1.39365	3.42336	-3.02996	-15.8194	-2.48236	0
0.3187	15.8748	8.92567	-83.0615	-0.963587	-2.9215	2.81124	-4.25681	-20.3956	-3.07517	-0.322404
0.3193	12.2206	48.8935	-107.792	0.550621	-2.9215	4.03548	-2.73254	-19.7684	-0.963306	0.322404
0.3200	-10.064	69.0327	-168.511	2.13366	-2.00273	6.48398	0.0185887	-12.4511	1.77841	0.644807
0.3207	-23.4827	63.553	-133.12	-0.963587	-5.66751	0.680138	-5.16766	0.371674	-3.70502	-2.25683
0.3213	-4.55277	55.616	40.5074	-0.344138	-6.58629	-2.96994	-7.61207	28.4331	-6.74314	-3.54644
0.3220	21.3861	31.1834	98.7954	1.78952	-5.66751	0.997536	-5.47437	49.2004	-3.40862	-0.322404
0.3227	33.9062	-33.1888	-15.9471	0.275311	-8.41352	1.90439	-7.30536	56.8197	-2.18596	0.644807
0.3233	38.7585	-66.1516	-76.0686	1.17007	-9.94137	2.51651	-8.2255	69.6425	-0.629854	-0.322404
0.3240	29.2935	-52.4242	-52.5743	1.17007	-12.3777	0.997536	-9.74977	42.487	-1.25971	0
0.3247	9.46498	-22.5119	-59.5672	-0.344138	-13.9055	-0.226713	-12.7983	-53.9625	-3.40862	0
0.3253	-2.75563	0.988603	-141.691	-0.344138	-13.2965	0.385411	-12.7983	-136.056	-4.92768	0
0.3260	-3.05515	-5.11249	-193.242	1.51421	-12.6874	0.997536	-10.3539	-118.053	-5.81688	0
0.3267	-8.86593	-29.8276	-83.4026	4.54262	-9.63167	1.58699	-7.91879	-71.3615	-5.22408	0
0.3273	-16.4739	-61.8865	24.3471	4.54262	-8.41352	-3.28733	-8.52292	-9.10602	-8.2622	0
0.3280	-19.8285	-81.7151	-8.31468	4.26731	-8.41352	-6.64268	-3.9501	68.1093	-10.7075	0.322404
0.3287	-19.529	-50.5882	-24.7735	4.88676	-9.0226	-4.80631	0.929435	44.9261	-11.0039	0.322404
0.3293	-5.15182	23.557	40.8059	5.78152	-9.3323	-1.45096	-1.19897	27.8291	-9.81831	0.322404
0.3300	3.05515	64.4569	43.279	7.29573	-9.3323	0.680138	-2.11911	123.349	-5.52048	0.644807
0.3307	2.4561	50.7295	-40.0384	3.92318	-12.3777	-0.226713	-4.56353	158.751	-5.22408	0.322404
0.3313	21.9851	43.1031	-84.5965	1.17007	-5.36813	-0.226713	-10.0565	107.484	-7.37299	0
0.3320	37.8599	59.2597	-37.3094	0.550621	12.3364	3.74076	-13.7185	112.362	-7.37299	0
0.3327	21.3861	69.6541	104.594	-0.344138	21.1835	12.2878	-14.0252	116.334	-4.63128	0.322404
0.3333	-0.599049	52.8761	183.349	-1.2389	16.9096	17.4569	-13.105	32.4054	0.889205	0.322404
0.3340	-6.1103	6.77899	70.4402	-2.4778	9.90008	13.8068	-15.2427	-23.1367	1.48201	0
0.3347	-11.8612	-55.164	-67.4981	-2.13366	4.70744	11.3583	-16.1536	39.1187	-1.25971	0
0.3353	-17.3724	-86.9123	-66.0057	-2.4778	-1.39365	12.8999	-17.0737	107.182	-1.85251	0
0.3360	0.599049	-88.1269	17.0131	-3.37255	-7.80444	11.6757	-18.2913	74.2187	-0.963306	0.322404
0.3367	22.5842	-97.5892	53.9388	-0.963587	-14.5146	5.55446	-13.7185	-5.13375	0.259352	0.322404
0.3373	29.2935	-97.8999	47.8414	-1.2389	-20.9254	-0.54411	-6.99864	-36.5635	-0.963306	0
0.3380	29.2935	-72.2527	48.7794	-4.26731	-24.2805	-2.96994	-6.39451	-28.015	-3.07517	0
0.3387	21.9851	-22.2012	50.9114	-3.71669	-23.9811	-3.58206	-7.61207	-11.2432	-5.22408	0
0.3393	14.0777	15.9306	40.5074	2.13366	-17.88	-2.67521	0.325302	28.7351	-6.44674	0.322404
0.3400	11.6216	5.56442	-26.3085	8.19049	-11.7686	-7.2548	12.5288	48.5732	-7.9658	0
0.3407	8.86593	-5.11249	-126.724	8.53463	-8.41352	-19.4519	18.6352	40.3499	-9.81831	0.322404
0.3413	4.31315	10.4509	-143.823	5.43738	-3.53058	-24.6437	23.208	38.2128	-10.1147	0.322404
0.3420	7.96735	19.6026	-86.1315	3.64787	-2.6118	-14.2829	29.6211	27.2252	-9.81831	0.322404
0.3427	28.3949	20.1957	-52.8728	3.92318	-4.44936	0.997536	32.3629	33.0093	-8.2622	0.322404
0.3433	38.1594	22.9638	-41.5734	2.75311	-3.84028	11.3583	29.3144	35.4484	-3.07517	0
0.3440	31.1506	27.5396	-19.9126	-2.13366	2.27113	16.55	26.2658	-12.7531	2.70467	0
0.3447	18.6304	15.6199	-26.9054	-4.26731	8.6716	13.8068	22.2971	-69.2244	3.92732	0.322404
0.3453	-7.3084	-14.2641	-58.0322	0	6.84437	6.77871	11.6179	-66.158	-1.55611	0
0.3460	-29.8926	-18.5575	-52.2332	8.53463	5.31652	5.55446	3.68056	-41.7437	-6.15034	0
0.3467	-36.0029	-1.15808	-17.141	14.9356	8.6716	5.25973	5.20484	-85.3922	-8.2622	0
0.3473	-23.1832	-6.32706	-0.68223	15.555	10.1995	1.58699	11.3112	-151.318	-9.18845	0
0.3480	16.7734	-24.3479	0.554312	12.1825	9.59038	0.385411	20.7729	-176.034	-6.15034	0
0.3487	50.9791	-26.777	15.8192	6.05683	8.9813	3.12863	32.9763	-165.047	-0.0370502	0
0.3493	54.0342	-17.9361	28.9095	3.30373	11.7273	11.6757	45.1798	-130.551	9.74421	0
0.3500	36.0029	-9.09515	30.743	2.13366	14.783	20.2228	50.6728	-84.161	17.3766	0
0.3507	12.8197	1.58176	46.9459	-3.37255	13.2552	21.7417	43.3488	-44.508	17.0431	0.322404
0.3513	5.81078	16.552	53.3419	-6.74511	10.1995	19.2932	30.8386	-3.90258	13.7086	0
0.3520	12.8197	20.5064	28.9095	-5.2309	8.37223	15.6432	18.6352	60.49	9.74421	0.644807
0.3527	8.86593	0.367195	0.852787	-2.75311	7.15407	11.6757	7.64925	91.3158	5.14998	0
0.3533	-2.75563	-22.2012	-19.3156	-0.344138	4.09836	1.90439	-1.50568	50.1064	-2.18596	-2.90163
0.3540	-0.898574	-23.444	-22.6415	3.30373	2.88021	-5.41843	-6.69193	-10.9179	-7.66939	-2.90163
0.3547	8.86593	-8.47374	1.44974	6.67628	3.17959	-3.28733	-7.61207	-47.5511	-7.9658	0.644807
0.3553	11.9211	2.51388	6.65174	6.40097	0.43358	-3.89946	-10.3539	-64.6481	-9.48486	0.644807
0.3560	5.21173	5.56442	-40.0384	6.40097	-0.485197	-6.93741	-12.7983	-67.3892	-11.0039	0
0.3567	-8.86593	8.61497	-69.9712	7.57104	-0.784574	-9.99803	-14.936	-60.0719	-11.0039	0.322404
0.3573	-14.3173	18.6705	-42.8099	8.53463	-2.6118	-12.7412	-18.9047	-53.9625	-12.2266	0
0.3580	-3.05515	23.8677	-19.6141	10.3241	-2.9215	-13.3534	-21.0424	-24.9719	-14.0791	0
0.3587	16.4739	12.2869	-17.4821	12.4578	-2.31243	-13.0586	-22.26	23.5549	-16.228	0
0.3593	26.2384	-0.847374	-11.6832	15.555	-1.09427	-11.8344	-22.5667	21.1158	-16.228	0
0.3600	21.9851	-1.75124	-14.4121	16.1745	-1.70335	-12.4465	-20.7357	-18.2585	-16.5244	0.322404
0.3607	15.8748	6.15758	-18.676	12.8019	-3.84028	-12.7412	-11.8875	-21.9056	-16.5244	0
0.3613	5.81078	11.9762	-18.3776	9.15408	-4.44936	-9.3859	0.632016	-33.5204	-13.4492	0.322404
0.3620	-6.1103	15.9306	-23.878	7.57104	-2.9215	-5.12371	10.3911	-65.2521	-9.18845	0.322404
0.3627	-5.45135	22.0317	-23.5796	7.29573	0.74328	1.29226	21.6837	-46.0179	-2.77877	0.322404
0.3633	0	23.2745	-15.6486	2.75311	2.27113	6.48398	32.6696	-7.87485	3.33452	0.322404
0.3640	3.05515	20.8172	-12.2801	-4.88676	1.04266	10.7462	41.2204	-1.16148	7.8917	0
0.3647	2.75563	19.6026	-12.8771	-10.1177	1.35236	15.031	47.6242	2.5088	13.0787	0
0.3653	-1.79715	23.2745	-7.07814	-9.77353	3.17959	18.3864	48.2377	13.7984	17.0431	0
0.3660	-5.15182	27.5396	-4.05074	-5.85035	5.01714	20.2228	43.0514	15.3083	18.2658	0
0.3667	-6.70935	20.8172	-14.7106	-3.71669	4.09836	16.2553	33.5898	12.5672	13.7086	0.322404
0.3673	-6.40983	14.0947	-21.4476	-0.963587	3.48929	11.3583	26.87	15.9355	8.81795	0.322404
0.3680	-2.75563	11.3548	-16.5441	0.550621	1.35236	7.09611	23.5147	18.6766	5.77983	0.322404
0.3687	3.05515	10.7616	-5.54312	1.51421	-1.39365	3.12863	19.8527	17.7475	2.11186	0
0.3693	8.5664	15.0268	1.74821	3.92318	0.74328	3.74076	17.1109	19.8846	2.11186	0
0.3700	8.86593	13.5015	-1.91877	2.13366	-0.175497	0.997536	9.48024	23.2529	-0.629854	0.322404
0.3707	7.66783	9.23637	-8.61315	-1.85835	-3.2312	-1.45096	1.23615	25.692	-4.00142	0
0.3713	7.66783	8.92567	-10.7451	-2.4778	-3.53058	-1.45096	-2.11911	26.9232	-4.29783	-0.322404
0.3720	5.21173	6.77899	-9.84969	-2.4778	-3.2312	-4.51158	-6.39451	22.3469	-4.29783	0.322404
0.3727	3.35468	6.77899	-4.64769	0	-2.00273	-5.41843	-8.52292	21.4177	-1.55611	0.322404
0.3733	3.05515	7.7111	-1.91877	2.75311	-3.53058	-9.3859	-11.8875	25.088	-4.29783	0
0.3740	0.958479	7.08969	-0.68223	4.88676	-7.80444	-17.0261	-17.3804	27.2252	-12.2266	0.322404
0.3747	-1.79715	7.7111	2.68628	8.53463	-9.94137	-21.2883	-19.5181	26.296	-17.7471	0.322404
0.3753	-3.05515	8.61497	3.58171	11.2877	-11.1595	-23.1247	-18.9047	25.39	-21.7114	0.322404
0.3760	-1.1981	10.4509	2.04669	14.0408	-10.8601	-23.7368	-14.0252	30.5702	-22.6006	0.322404
0.3767	-0.599049	10.1402	-0.980705	15.2109	-10.8601	-24.6437	-7.91879	33.0093	-21.415	0.322404
0.3773	-3.05515	6.15758	-5.54312	14.3161	-11.4692	-24.0315	-1.50568	28.1311	-20.4888	0
0.3780	-3.05515	4.94301	-7.37661	13.6967	-10.8601	-21.2883	5.20484	29.6643	-18.9697	0.322404
0.3787	-0.599049	5.87513	-5.54312	14.0408	-8.72322	-17.0261	11.9154	34.8445	-16.228	0.322404
0.3793	1.85705	7.4004	-1.27918	14.5915	-5.66751	-10.9049	19.546	32.4054	-11.0039	0.322404
0.3800	1.258	6.46829	-0.0852787	10.0488	-7.49474	-7.86693	24.1281	27.2252	-8.59565	0.322404
0.3807	-1.1981	3.41774	-0.980705	2.40897	-10.5504	-9.99803	25.039	23.2529	-8.59565	-1.93442
0.3813	-2.09667	3.41774	-0.0852787	1.17007	-8.41352	-9.99803	28.0968	21.1158	-5.52048	-2.57923
0.3820	-0.898574	7.7111	2.3878	4.26731	-3.84028	-0.838837	30.2345	22.0217	-0.333452	-0.322404
0.3827	-0.599049	7.99356	1.44974	4.54262	-2.31243	5.25973	26.87	21.1158	0.592803	0.322404
0.3833	-1.1981	4.34985	-1.91877	2.40897	-3.84028	3.12863	19.2393	19.5826	-3.07517	0
0.3840	1.55753	3.10704	1.15126	2.40897	-5.66751	-1.15623	11.3112	19.2806	-6.44674	0.322404
0.3847	4.9122	4.34985	3.28323	3.64787	-8.11414	-4.80631	5.51155	19.5826	-10.1147	0
0.3853	6.40983	7.4004	-0.383754	6.40097	-6.58629	-5.12371	3.37385	23.2529	-10.4111	0
0.3860	4.9122	9.51883	-2.21725	8.19049	-5.36813	-6.03056	-0.594838	22.6489	-7.66939	0.322404
0.3867	1.258	8.92567	-0.383754	7.91518	-7.19537	-8.77378	-5.78109	18.9786	-7.66939	0.322404
0.3873	1.258	8.30426	1.44974	9.15408	-8.41352	-12.1291	-7.61207	19.2806	-9.48486	0.322404
0.3880	4.61268	5.56442	-0.980705	10.9436	-8.72322	-16.0966	-10.6606	19.5826	-11.6338	0.322404
0.3887	8.86593	4.34985	-3.11267	15.555	-5.97721	-14.8723	-9.74977	23.5549	-9.81831	0
0.3893	10.3636	3.72845	-4.05074	18.9276	-3.53058	-13.3534	-6.99864	25.994	-6.74314	0
0.3900	8.5664	-0.225966	-6.77966	17.3446	-5.66751	-17.0261	-9.13634	17.7475	-8.2622	0.322404
0.3907	11.322	0.988603	-2.8142	16.4498	-5.36813	-15.4845	-6.99864	12.2653	-7.37299	0
0.3913	13.4187	4.94301	3.58171	13.4214	-3.84028	-12.4465	-0.901552	10.4301	-2.18596	0
0.3920	11.0225	7.08969	6.65174	10.9436	-2.00273	-9.99803	3.98728	8.89696	4.85358	0.322404
0.3927	9.7645	10.1402	6.65174	12.1825	1.35236	-6.34795	7.64925	9.22217	10.6334	0.322404
0.3933	7.66783	7.99356	1.74821	10.3241	0.134203	-7.86693	5.20484	6.15586	10.9669	0.322404
0.3940	5.21173	2.82458	-3.11267	8.80994	-1.39365	-10.6102	0.929435	4.94792	8.52155	0
0.3947	7.66783	-1.46878	-6.48118	8.80994	-0.485197	-9.99803	-1.19897	9.82614	6.07624	0.322404
0.3953	14.6767	-2.37265	-6.18271	9.77353	2.27113	-6.03056	0.632016	13.7984	7.8917	0.322404
0.3960	20.1281	0.0564916	-2.21725	10.3241	4.70744	-2.96994	2.15629	13.7984	10.337	0
0.3967	20.4875	-0.225966	-2.51572	6.40097	3.17959	-4.19418	0.325302	12.2653	7.29889	0
0.3973	20.787	-1.15808	-5.54312	2.13366	3.17959	-3.89946	-0.288125	12.5672	6.66904	0
0.3980	23.4827	-1.15808	-7.07814	0.275311	4.70744	-2.67521	-0.594838	11.6613	8.81795	0
0.3987	22.8837	-0.225966	-6.77966	3.02842	4.70744	-2.38048	0.325302	11.6613	9.74421	0
0.3993	19.529	2.51388	-4.64769	5.43738	4.70744	-1.76836	6.4224	18.0727	11.2633	0
0.4000	17.7319	3.72845	-0.980705	3.02842	5.62622	-2.06308	11.0045	25.39	13.7086	0
0.4007	16.1743	3.72845	0.852787	-0.344138	6.53467	-2.67521	9.78695	26.9232	14.9312	0.322404
0.4013	14.6767	6.15758	3.58171	1.17007	7.45345	-2.38048	9.17352	29.3623	14.3014	0
0.4020	12.8197	12.2869	10.6172	6.05683	8.9813	-1.45096	13.4489	35.7737	14.3014	0
0.4027	-6.1103	14.4054	14.8811	6.05683	8.06253	-4.80631	4.59141	37.5856	10.6334	0
0.4033	-47.265	13.5015	16.4162	3.64787	4.39774	-10.3154	-21.3491	35.7737	3.63092	-0.322404
0.4040	-75.6599	13.8122	18.5481	3.02842	3.48929	-12.7412	-41.1833	36.0756	-0.629854	-0.322404
0.4047	-82.6688	13.1908	19.4436	3.02842	3.17959	-13.9655	-68.6481	34.8445	-3.07517	0
0.4053	-97.046	15.0268	22.2151	5.43738	5.31652	-11.2223	-100.082	32.7073	-0.629854	0
0.4060	-119.93	13.5015	20.9786	6.05683	6.84437	-9.7033	-103.744	25.994	2.11186	0
0.4067	-133.947	5.25372	13.3461	2.75311	4.39774	-12.1291	-93.9752	13.7984	-0.629854	0.322404
0.4073	-128.436	0.0564916	8.48523	1.17007	4.09836	-13.9655	-84.2068	8.29299	-1.85251	0
0.4080	-128.796	-1.46878	4.51977	0.894759	4.09836	-17.3208	-72.9235	7.38703	-3.07517	0
0.4087	-137.302	1.29931	4.81825	2.75311	6.53467	-17.3208	-65.2928	9.52416	-2.48236	0.322404
0.4093	-122.086	4.94301	6.65174	5.43738	9.28068	-14.8723	-68.9548	14.1004	0.259352	0
0.4100	-86.9819	1.89247	1.15126	4.26731	5.9256	-20.3815	-75.0519	11.9633	-2.77877	0
0.4107	-27.4365	-1.75124	-5.24464	3.64787	3.17959	-25.5732	-67.4305	10.7321	-7.9658	0.644807
0.4113	20.1281	-4.20862	-9.50858	3.92318	1.96143	-27.7043	-46.9829	15.3083	-11.0039	-0.322404
0.4120	3.35468	-6.63776	-11.9817	4.54262	1.65173	-32.2839	-2.11911	19.5826	-12.2266	-2.90163
0.4127	-64.0983	-2.99405	-9.2101	7.91518	4.70744	-29.5407	58.3035	22.9509	-8.2622	-1.61202
0.4133	-154.435	-0.53667	-6.48118	5.16207	3.78866	-24.6437	86.9951	18.3747	-6.44674	0.644807
0.4140	-201.4	-0.225966	-4.05074	-0.344138	0.134203	-26.1626	64.4098	4.64593	-7.9658	0.322404
0.4147	-170.25	4.94301	2.3878	-2.4778	-0.175497	-25.8679	7.95596	-4.20457	-7.37299	0
0.4153	-110.165	12.2869	8.48523	-3.37255	0.134203	-20.9936	-46.6762	-0.859497	-4.00142	0.322404
0.4160	-46.6659	19.2919	15.1796	-4.61145	0.134203	-16.0966	-86.3445	8.89696	2.40826	0
0.4167	33.9062	20.5064	19.4436	-6.12566	-0.485197	-17.0261	-109.543	18.0727	5.14998	0
0.4173	89.7376	15.9306	19.4436	-6.12566	-1.09427	-18.5451	-115.036	28.1311	5.14998	0.322404
0.4180	57.6884	16.2413	24.0486	-6.74511	-1.39365	-18.2504	-96.7263	36.0756	7.29889	0.322404
0.4187	57.6884	22.3424	33.813	-7.36456	-0.784574	-13.9655	-49.4181	37.2836	9.41076	0
0.4193	174.563	25.7037	37.7785	-4.88676	2.88021	-4.51158	-5.47437	35.7737	11.5597	0
0.4200	285.028	19.9133	32.5765	-5.50621	3.17959	-2.67521	14.0531	28.4331	9.74421	0
0.4207	274.365	8.30426	23.1105	-8.25932	1.04266	-13.6708	19.546	14.7044	5.77983	0.322404
0.4213	130.353	-2.37265	12.4507	-6.40097	0.74328	-22.1952	15.5773	1.27763	3.00107	0
0.4220	-14.6168	-9.68831	0.255836	-3.992	-0.485197	-22.8073	25.3457	-7.87485	0.259352	0
0.4227	-65.5959	-9.40585	-6.48118	-1.85835	-0.175497	-16.7087	54.9482	-5.13375	0.889205	0.322404
0.4233	-55.2323	-7.56987	-8.31468	-0.963587	0.43358	-13.9655	70.2095	4.32071	1.77841	0.322404
0.4240	-23.7823	-12.1457	-10.4466	-0.963587	-1.09427	-16.7087	73.5648	9.82614	-0.0370502	0.322404
0.4247	-42.4127	-16.4108	-10.4466	0.550621	-1.09427	-12.1291	80.2753	10.4301	-1.55611	0.322404
0.4253	-90.9357	-15.1962	-10.4466	0	-1.39365	-5.41843	92.4881	9.52416	-4.29783	0.322404
0.4260	-90.3366	-8.16303	-6.18271	1.17007	0.134203	0.0680138	118.735	14.1004	-5.22408	0
0.4267	-62.8403	-1.46878	2.98476	3.92318	2.27113	2.81124	134.294	16.8415	-4.00142	0
0.4273	-19.8285	-6.32706	3.58171	1.51421	-1.09427	-4.80631	93.7056	10.4301	-9.48486	0
0.4280	81.1712	-12.4564	-0.383754	0.894759	-2.00273	-9.09118	14.0531	9.22217	-12.8564	0.322404
0.4287	206.612	-9.68831	2.68628	2.13366	0.74328	-2.06308	-39.9564	16.5395	-11.0039	0
0.4293	250.283	-4.80179	9.08218	0.550621	1.04266	1.58699	-36.6011	27.5271	-11.6338	0
0.4300	193.493	3.41774	16.7146	1.78952	4.09836	3.12863	12.8355	44.2989	-8.89205	0.644807
0.4307	89.438	7.99356	20.6801	3.02842	5.62622	2.51651	46.1	51.0123	-8.89205	-0.644807
0.4313	2.75563	4.34985	17.3116	2.40897	3.17959	-0.54411	53.1172	38.8167	-13.1528	-1.61202
0.4320	23.1832	2.82458	11.8537	2.13366	2.57051	3.42336	72.0405	21.4177	-12.56	0
0.4327	74.1623	-0.53667	5.11672	-0.619449	1.65173	4.96501	42.7447	3.71674	-11.3374	0.644807
0.4333	-0.599049	-3.89792	3.58171	-0.344138	1.96143	2.51651	-61.6308	-11.5451	-7.9658	0
0.4340	-169.052	-6.0446	6.65174	0	2.57051	2.51651	-118.698	-26.4818	-5.52048	0.322404
0.4347	-307.911	-10.6204	9.67914	-3.09724	0.43358	1.58699	-78.7138	-39.6066	-7.37299	0
0.4353	-326.841	-12.7389	9.38066	-3.09724	-1.09427	-0.54411	-34.4634	-38.3986	-6.44674	0
0.4360	-239.26	-14.2641	3.88018	-0.619449	-1.70335	-4.80631	-22.8734	-30.1521	-6.44674	0.322404
0.4367	-67.1534	-14.5748	1.44974	0.550621	-2.31243	-8.77378	-21.9533	-24.0427	-7.9658	0
0.4373	127.597	-8.47374	5.71368	1.78952	-1.39365	-10.9049	-25.3085	-16.1214	-7.37299	0
0.4380	200.502	-5.11249	7.54717	2.13366	-0.485197	-15.1897	-21.0424	-10.314	-5.81688	0
0.4387	159.287	-8.47374	2.04669	1.17007	1.04266	-14.5776	0.929435	-13.3803	-3.70502	0
0.4393	104.354	-11.5243	-2.51572	1.78952	2.88021	-6.34795	39.3895	-18.8625	-0.629854	0.322404
0.4400	76.3189	-9.40585	0.255836	1.51421	1.96143	-4.80631	89.1328	-20.3956	-0.0370502	0
0.4407	93.9908	-3.89792	6.65174	0.550621	1.65173	-11.8344	131.552	-11.8471	1.48201	-2.25683
0.4413	186.784	-0.225966	11.8537	0.275311	5.31652	-13.0586	141.005	0.975645	5.44638	-2.25683
0.4420	291.138	-2.68335	13.9857	-2.4778	7.15407	-1.76836	126.663	4.01873	6.07624	0.322404
0.4427	311.266	-7.25917	12.7492	-4.26731	7.76315	8.61508	109.571	4.64593	3.00107	0.644807
0.4433	268.554	-8.78444	10.9157	-1.58304	8.9813	8.93248	85.1641	4.32071	-1.55611	-0.322404
0.4440	170.01	-7.85233	11.2142	2.13366	8.6716	6.48398	52.2064	-7.27088	-5.22408	0
0.4447	-7.60792	-6.63776	12.7492	5.78152	10.5092	4.96501	27.1767	-22.5328	-5.22408	0.322404
0.4453	-178.217	-7.56987	11.8537	7.29573	11.4176	2.51651	26.2658	-33.5204	-6.44674	0
0.4460	-216.976	-6.94847	11.5126	7.57104	10.8085	1.58699	34.5006	-39.3046	-6.74314	0
0.4467	-130.892	-2.68335	13.6446	7.57104	9.59038	0.680138	24.7323	-38.7006	-5.81688	0.322404
0.4473	-40.8552	0.677899	13.6446	6.05683	7.76315	-0.838837	3.68056	-34.4263	-8.59565	0.644807
0.4480	-98.8431	2.20317	11.8537	8.19049	11.1182	4.96501	-9.13634	-24.9719	-8.2622	0.322404
0.4487	-245.67	-0.847374	7.24869	9.15408	14.1636	12.2878	-15.2427	-16.4234	-4.63128	0
0.4493	-200.502	-9.68831	-1.27918	3.92318	10.5092	10.4515	-18.2913	-16.1214	-5.52048	0.322404
0.4500	32.9477	-11.835	-3.41115	3.64787	9.59038	7.09611	-0.901552	-13.6823	-5.22408	0.322404
0.4507	180.074	-9.40585	-1.27918	5.78152	10.1995	5.25973	22.2971	-10.616	-4.29783	0
0.4513	183.129	-13.671	-4.05074	4.26731	5.9256	2.51651	16.8042	-15.8194	-8.89205	0.322404
0.4520	159.287	-16.4108	-6.18271	7.29573	5.9256	6.16658	-12.7983	-22.5328	-7.9658	0.322404
0.4527	144.97	-13.9817	-3.75226	10.0488	6.84437	9.83933	-44.2318	-24.3679	-5.52048	0.322404
0.4533	139.758	-13.0496	-3.75226	6.05683	3.78866	7.70823	-71.0925	-19.1645	-9.18845	0.322404
0.4540	109.566	-12.1457	-5.54312	4.26731	4.09836	10.7462	-86.0378	-11.2432	-11.0039	0.322404
0.4547	-1.1981	-12.1457	-8.31468	4.26731	7.76315	19.2932	-79.3273	-8.47882	-8.59565	0
0.4553	-160.485	-17.9361	-17.7806	1.17007	10.8085	25.7092	-62.5417	-12.1491	-6.15034	0.322404
0.4560	-317.676	-21.608	-24.1765	-0.963587	13.5545	28.7472	-46.0628	-9.40801	-3.70502	0.322404
0.4567	-426.643	-18.8399	-19.3156	-1.2389	12.037	26.0039	-38.7388	3.11277	-5.52048	0.322404
0.4573	-436.108	-10.9311	-7.37661	-0.963587	9.28068	20.5175	-34.7702	12.2653	-9.48486	0.322404
0.4580	-432.094	3.41774	10.3187	-0.344138	9.28068	16.8447	-20.1223	15.6103	-10.4111	0.322404
0.4587	-374.765	18.6705	29.5491	0	8.37223	12.2878	-3.64338	20.2098	-12.8564	0.322404
0.4593	-115.017	31.8048	44.4729	3.02842	8.9813	10.1341	20.7729	31.8014	-13.7827	0.322404
0.4600	63.7987	37.3127	50.5703	4.26731	9.59038	8.00296	51.8996	46.7381	-13.7827	0.644807
0.4607	-10.3636	33.0193	47.8414	2.40897	7.76315	4.03548	64.1031	51.0123	-14.6719	0.322404
0.4613	-73.2038	26.3251	40.8059	3.02842	7.45345	3.42336	57.9967	43.393	-13.1528	0.644807
0.4620	-110.165	18.9812	30.146	3.92318	6.2353	3.74076	45.4865	32.4054	-12.56	0.644807
0.4627	-155.333	9.51883	17.3116	3.64787	4.70744	3.74076	32.3629	19.2806	-11.9302	0.644807
0.4633	-73.8628	0.677899	5.11672	5.43738	4.70744	5.25973	25.9591	5.55189	-8.59565	0.322404
0.4640	10.723	-5.11249	-4.05074	5.43738	3.17959	3.42336	22.2971	-7.87485	-6.15034	0.322404
0.4647	-3.35468	-4.20862	-4.64769	4.54262	-0.175497	0.0680138	16.1908	-23.4387	-6.15034	0.322404
0.4653	29.2935	3.10704	2.98476	5.78152	-1.09427	-1.15623	13.7463	-34.7283	-6.15034	0.322404
0.4660	148.624	11.0441	13.6446	6.40097	-1.39365	-3.28733	6.12498	-35.3323	-7.03954	0
0.4667	307.612	19.2919	25.2425	6.40097	-1.70335	-3.28733	-10.3539	-29.8501	-7.37299	-0.322404
0.4673	447.729	24.7998	31.3826	7.57104	-1.39365	-1.76836	-17.0737	-31.3833	-4.63128	0
0.4680	485.829	21.4386	26.1806	6.05683	-3.84028	-4.19418	-17.0737	-43.8808	-2.18596	0
0.4687	487.985	11.0441	14.5827	3.92318	-6.88567	-6.93741	-16.767	-54.2645	-0.0370502	0
0.4693	514.523	0.0564916	3.88018	3.30373	-8.11414	-7.54953	-7.30536	-60.6758	1.48201	0.644807
0.4700	488.585	-8.78444	-5.54312	1.78952	-10.2511	-9.99803	5.20484	-70.4323	0.259352	-0.644807
0.4707	420.233	-13.671	-9.50858	3.02842	-9.94137	-10.3154	11.3112	-78.3768	-0.0370502	-2.90163
0.4713	361.047	-12.1457	-6.77966	5.78152	-7.49474	-8.77378	0.632016	-74.1026	3.33452	-1.61202
0.4720	290.838	-8.47374	-4.94617	3.64787	-8.41352	-11.8344	-15.2427	-58.8407	6.07624	0.322404
0.4727	196.249	-3.58722	-0.980705	1.78952	-9.94137	-12.7412	-14.936	-41.1397	8.52155	-0.322404
0.4733	89.7376	0.677899	4.81825	1.78952	-10.2511	-12.7412	-9.13634	-35.3323	10.0406	-0.322404
0.4740	8.26688	0.677899	4.2213	0.894759	-10.8601	-14.5776	-7.30536	-34.4263	9.74421	0
0.4747	-14.9163	0.0564916	1.74821	1.51421	-10.2511	-12.7412	-12.7983	-22.2308	11.5597	0
0.4753	-10.064	0.677899	2.04669	1.78952	-11.7686	-12.1291	-32.335	-6.66691	11.2633	0
0.4760	-10.064	3.72845	3.58171	1.51421	-13.9055	-12.4465	-47.5871	1.8816	8.52155	0
0.4767	-8.20697	6.15758	3.58171	1.78952	-14.5146	-10.6102	-49.4181	3.71674	9.41076	0
0.4773	-30.7911	1.58176	-2.51572	-1.2389	-16.0425	-11.2223	-46.6762	-0.557512	12.4859	-0.322404
0.4780	-68.052	-5.7339	-10.7451	-4.26731	-12.6874	-8.16165	-36.9079	-2.06744	21.9337	-0.322404
0.4787	-41.2146	-11.835	-19.3156	-3.71669	-6.88567	-0.226713	-28.3664	1.27763	29.5661	0.322404
0.4793	41.8136	-21.608	-32.4059	-3.37255	-7.49474	3.74076	-28.3664	-1.46347	24.6754	0
0.4800	92.4932	-26.4946	-41.8719	-1.58304	-9.63167	6.77871	-23.1801	-6.03971	19.192	-0.322404
0.4807	27.1968	-25.5624	-45.5388	1.17007	-10.2511	5.25973	-14.0252	-4.20457	17.3766	0.322404
0.4813	-163.241	-25.5624	-46.7754	0.275311	-12.0783	-1.45096	-7.91879	0.371674	13.7086	0
0.4820	-351.223	-18.2468	-36.3714	2.40897	-9.94137	-2.38048	4.89812	10.7321	14.5978	-0.322404
0.4827	-377.461	-3.27651	-16.2456	6.05683	-7.19537	1.58699	15.2799	29.6643	17.0431	0.322404
0.4833	-320.431	10.7616	4.2213	3.64787	-8.72322	1.58699	15.2799	45.2281	13.3751	0.322404
0.4840	-340.26	24.7998	25.2425	0.894759	-8.72322	0.997536	14.9732	54.0786	10.337	-0.322404
0.4847	-322.229	38.838	44.4729	2.13366	-6.58629	1.58699	10.6978	58.3529	9.11435	-0.322404
0.4853	-214.819	46.1536	54.8769	3.92318	-6.58629	1.58699	4.59141	52.8475	3.63092	-0.322404
0.4860	-117.474	47.9896	58.5438	7.57104	-4.44936	6.16658	5.81826	42.1618	2.40826	-0.322404
0.4867	7.3084	42.4817	53.6403	9.42939	-1.70335	8.61508	5.81826	27.2252	3.63092	0
0.4873	163.001	26.6075	36.8404	5.78152	-4.44936	3.12863	1.54286	5.85387	-0.963306	-0.322404
0.4880	226.441	11.9762	22.5136	4.26731	-6.58629	0.997536	1.54286	-9.40801	-4.92768	-0.322404
0.4887	184.327	4.34985	14.5827	5.16207	-6.88567	2.81124	1.54286	-16.7253	-4.92768	-0.322404
0.4893	216.676	-2.37265	5.11672	4.88676	-9.63167	1.58699	-2.11911	-24.3679	-6.74314	-0.322404
0.4900	344.274	-3.58722	0.255836	6.67628	-9.63167	2.51651	-1.8124	-26.4818	-6.74314	0
0.4907	375.364	-1.75124	-0.383754	8.80994	-8.72322	3.74076	-1.19897	-26.807	-5.22408	0
0.4913	223.984	-5.7339	-8.0162	7.02042	-11.4692	-0.226713	-3.33667	-28.3169	-7.03954	-0.322404
0.4920	-27.736	-9.99901	-15.0091	6.40097	-12.9971	-2.06308	-4.25681	-27.109	-7.37299	-0.322404
0.4927	-193.493	-9.40585	-17.141	7.29573	-12.9971	-2.38048	-3.64338	-24.0427	-6.15034	0
0.4933	-189.18	-8.78444	-19.3156	5.78152	-14.5146	-4.19418	-1.19897	-19.4664	-7.66939	0
0.4940	-121.727	-7.25917	-19.6141	5.43738	-12.3777	-3.28733	4.59141	-16.7253	-4.92768	-0.322404
0.4947	-115.317	-5.7339	-18.0791	3.30373	-10.5504	-2.06308	8.56009	-13.9843	0.592803	-0.322404
0.4953	-158.988	-5.11249	-17.141	-1.58304	-11.7686	-2.96994	5.51155	-5.73772	1.18561	-0.322404
0.4960	-183.069	-0.847374	-12.8771	-5.2309	-12.3777	-2.06308	1.23615	4.64593	2.11186	0
0.4967	-195.59	4.63231	-4.94617	-6.74511	-12.3777	0.680138	-3.64338	7.991	3.00107	-0.322404
0.4973	-200.502	10.1402	5.4152	-4.88676	-11.7686	5.55446	-13.105	3.71674	3.00107	-0.322404
0.4980	-125.441	16.2413	17.6101	-3.09724	-10.2511	9.2272	-17.6871	-4.20457	5.44638	0
0.4987	54.3338	18.9812	25.8821	-3.71669	-11.1595	7.39083	-13.4117	-10.314	5.14998	-0.322404
0.4993	208.17	16.8627	26.479	-3.37255	-12.6874	4.35288	-6.39451	-15.1922	1.18561	0
0.5000	245.67	9.82954	19.4436	-4.26731	-15.4334	0.997536	1.23615	-28.9441	-1.55611	0
0.5007	200.801	0.677899	9.38066	-8.60346	-17.2606	-0.838837	6.72911	-44.508	-2.77877	-1.93442
0.5013	86.0834	-5.11249	2.3878	-7.63987	-13.2965	4.64761	12.2221	-49.0843	0.592803	-1.93442
0.5020	-11.5616	-13.0496	-8.91163	-2.75311	-11.4692	7.39083	20.1594	-52.1273	3.92732	0
0.5027	12.2206	-24.9693	-23.878	-3.37255	-15.4334	5.87186	23.208	-56.4016	4.22372	0
0.5033	45.4678	-29.8276	-32.1074	-6.74511	-18.4891	5.55446	13.7463	-45.716	6.37264	-0.322404
0.5040	-2.75563	-28.0198	-32.4059	-10.1177	-20.9254	5.55446	-5.16766	-21.3016	5.44638	0
0.5047	-21.0266	-23.7265	-27.545	-10.7371	-20.3163	8.00296	-15.5494	3.71674	4.55718	-0.322404
0.5053	-88.18	-18.2468	-22.343	-7.36456	-14.8243	12.8999	-10.9673	20.5118	8.81795	-0.322404
0.5060	-334.749	-17.3147	-21.7461	-4.88676	-11.7686	12.5826	-6.99864	26.9232	10.337	-0.322404
0.5067	-585.331	-16.7215	-19.6141	-5.2309	-13.2965	8.93248	-7.91879	25.692	7.59529	0
0.5073	-711.071	-8.47374	-10.1482	-3.71669	-13.6062	6.16658	-5.78109	21.7197	5.77983	0.322404
0.5080	-758.037	6.15758	6.65174	-0.619449	-11.4692	4.64761	-1.8124	22.0217	3.92732	0
0.5087	-757.438	24.1784	28.9095	3.02842	-6.88567	5.55446	4.29399	33.0093	4.55718	-0.322404
0.5093	-719.278	35.166	42.3409	8.53463	-2.00273	7.70823	10.6978	44.9261	6.96544	0
0.5100	-620.435	33.0193	39.3135	12.1825	-1.09427	5.87186	15.2799	52.8475	6.07624	0
0.5107	-450.425	23.557	27.076	12.8019	-1.39365	4.03548	10.3911	58.9569	6.07624	0
0.5113	-279.516	14.4054	14.8811	14.3161	-1.09427	4.64761	-6.0878	62.6271	8.1881	0.322404
0.5120	-68.651	11.0441	12.4507	15.8304	-1.70335	4.96501	-16.1536	60.792	9.41076	0
0.5127	182.83	8.61497	14.2842	14.5915	-1.39365	6.16658	-20.1223	43.695	11.5597	0
0.5133	226.74	4.34985	13.0476	12.8019	-0.485197	8.00296	-30.5041	17.4455	13.0787	0
0.5140	92.4932	4.03915	15.4781	10.6683	-1.09427	8.00296	-42.4008	-3.6006	13.3751	0
0.5147	27.7959	10.1402	24.3471	10.6683	0.134203	8.32035	-48.5072	-16.7253	14.3014	0
0.5153	44.2697	15.6199	31.3826	13.6967	1.65173	7.39083	-49.7248	-24.0427	12.1895	0
0.5160	80.8716	18.388	33.2161	18.9276	1.04266	5.55446	-47.5871	-31.6852	9.11435	0
0.5167	224.943	17.1452	29.208	22.5755	-0.784574	2.81124	-37.2146	-41.7437	7.8917	0
0.5173	489.184	8.30426	17.6101	21.956	-5.05843	-2.06308	-28.6731	-49.6882	4.55718	0.322404
0.5180	614.924	-1.75124	7.84564	21.6119	-8.72322	-5.41843	-18.2913	-55.7976	1.48201	0
0.5187	556.936	-6.94847	5.4152	25.3286	-9.94137	-5.73583	4.29399	-61.2798	0.592803	0.322404
0.5193	510.27	-9.99901	3.88018	27.4622	-11.4692	-7.86693	15.884	-65.8561	-2.77877	0.322404
0.5200	479.419	-12.1457	1.74821	28.0817	-12.6874	-9.3859	5.81826	-64.0209	-7.03954	0.322404
0.5207	429.398	-12.4564	-0.383754	28.9764	-13.2965	-8.47905	8.56009	-57.0056	-7.9658	0.322404
0.5213	381.175	-13.0496	-2.8142	27.7375	-14.5146	-8.77378	36.6383	-47.8531	-8.59565	0.322404
0.5220	320.132	-11.2136	-3.41115	24.9844	-15.4334	-8.77378	56.4725	-32.5912	-10.4111	0
0.5227	249.923	-8.78444	-3.41115	23.4702	-15.7431	-8.16165	53.1172	-21.6036	-12.56	0
0.5233	191.995	-9.09515	-5.24464	21.6119	-15.4334	-8.16165	57.3926	-21.9056	-15.0053	0.322404
0.5240	148.325	-8.47374	-4.94617	21.0613	-12.9971	-6.03056	67.4584	-23.1367	-14.6719	0.322404
0.5247	118.132	-4.51933	-2.51572	21.6119	-9.3323	-2.06308	59.2236	-15.1922	-13.4492	0.322404
0.5253	106.211	-2.06194	-1.91877	20.0977	-7.49474	0.680138	49.1485	-1.76545	-14.3755	0
0.5260	64.9968	-2.06194	-1.57766	16.1745	-5.97721	2.51651	55.5616	5.2499	-15.0053	0
0.5267	-30.4916	-2.06194	-2.21725	12.1825	-4.44936	3.74076	63.1923	4.01873	-15.0053	0
0.5273	-101	-2.68335	-1.57766	9.42939	-4.13966	4.35288	57.0859	0.371674	-14.6719	0.322404
0.5280	-119.031	-1.15808	1.44974	9.77353	-1.09427	8.00296	48.2377	-1.46347	-11.9302	0.322404
0.5287	-117.474	-1.15808	1.74821	8.53463	1.04266	10.7462	37.8559	-0.557512	-10.1147	0.322404
0.5293	-142.514	-6.0446	-2.51572	3.92318	-1.09427	7.70823	20.4662	0.371674	-12.2266	0
0.5300	-203.557	-9.99901	-6.77966	0.894759	-1.70335	5.25973	10.6978	1.8816	-11.6338	0
0.5307	-200.801	-9.68831	-8.91163	0	0.74328	4.35288	11.6179	7.08504	-9.18845	0
0.5313	-116.275	-8.16303	-9.50858	0.894759	3.17959	5.55446	11.9154	9.52416	-5.81688	0.644807
0.5320	-76.259	-6.63776	-9.84969	0.275311	5.01714	9.2272	9.17352	3.11277	-3.07517	-0.967211
0.5327	-113.819	-6.32706	-8.91163	-3.71669	5.62622	10.7462	-2.11911	-0.255526	-3.70502	-2.57923
0.5333	-141.256	-4.51933	-4.34922	-3.71669	6.2353	8.61508	-15.8562	5.85387	-5.22408	-0.967211
0.5340	-125.441	0.677899	3.28323	-1.85835	8.06253	6.48398	-18.598	11.0341	-5.22408	0.644807
0.5347	-110.764	4.34985	7.24869	-3.992	9.59038	6.16658	-15.2427	14.7044	-3.07517	0
0.5353	-143.113	6.46829	8.18676	-4.61145	12.3364	7.70823	-11.274	22.0217	3.92732	0.322404
0.5360	-165.997	10.7616	11.5126	-3.09724	14.1636	9.2272	-10.0565	28.4331	11.2633	0
0.5367	-100.401	12.8801	13.6446	-4.26731	13.5545	7.39083	-10.9673	29.0603	13.3751	0
0.5373	8.26688	10.7616	11.8537	-5.2309	13.5545	5.55446	-7.61207	29.3623	14.9312	0
0.5380	102.258	7.4004	9.38066	-4.61145	14.783	6.16658	-0.901552	25.692	17.3766	0.322404
0.5387	178.517	5.87513	9.67914	-6.12566	14.783	4.96501	6.12498	13.4964	17.673	0.322404
0.5393	256.992	8.30426	12.1522	-6.40097	16.3005	4.96501	16.4975	-2.06744	19.4884	0
0.5400	293.894	7.4004	10.0203	-6.40097	16.9096	4.64761	22.9013	-16.4234	20.4147	0.322404
0.5407	254.236	-0.53667	2.68628	-6.40097	15.3921	1.90439	23.5147	-30.4541	16.7467	0.322404
0.5413	216.976	-7.85233	-4.64769	-5.2309	15.6915	0.680138	19.546	-45.112	14.5978	0.322404
0.5420	188.641	-11.2136	-11.0436	-3.992	16.6102	1.29226	8.56009	-48.4571	14.3014	0
0.5427	142.813	-9.68831	-14.4121	-2.75311	19.0466	3.12863	0.325302	-35.3323	16.4503	0.322404
0.5433	121.787	-6.32706	-14.7106	-2.75311	22.1023	4.96501	0.929435	-17.9565	18.5622	0.644807
0.5440	95.5483	-7.25917	-14.4121	-5.50621	23.021	4.64761	1.84958	-4.83177	16.4503	0.322404
0.5447	2.15658	-8.47374	-13.1756	-6.40097	22.412	4.03548	0.632016	0.975645	14.005	0
0.5453	-100.401	-5.42319	-8.61315	-5.50621	22.412	4.03548	-0.288125	4.01873	11.8561	0.322404
0.5460	-140.357	-1.46878	-2.51572	-4.88676	23.3204	3.12863	-3.33667	7.38703	9.74421	0
0.5467	-126.04	1.58176	1.15126	-3.71669	25.158	3.74076	-5.47437	8.29299	10.337	0
0.5473	-79.6136	2.20317	0.255836	-3.71669	27.5943	4.96501	-6.39451	5.55189	11.8561	0
0.5480	-54.9328	-0.53667	-4.34922	-5.50621	27.2949	2.81124	-4.56353	-1.46347	11.8561	-0.322404
0.5487	-77.8165	-2.06194	-7.71773	-7.36456	26.3761	0.997536	3.68056	-10.012	12.7823	0
0.5493	-51.5781	0.367195	-8.31468	-7.63987	27.2949	3.74076	-20.7357	-12.4511	14.3014	0
0.5500	-0.299525	6.77899	-4.34922	-7.36456	28.5131	4.64761	-70.7858	-8.17684	14.3014	0
0.5507	0.299525	12.8801	0.554312	-7.02042	29.1221	3.12863	-78.1097	0.975645	13.0787	0
0.5513	27.4964	15.3375	0.554312	-7.36456	29.4318	2.51651	-58.2756	14.1004	11.2633	0.322404
0.5520	37.2609	15.9306	-0.980705	-9.49821	28.8124	1.58699	-47.2804	23.5549	11.2633	0
0.5527	-29.593	12.5694	-2.51572	-10.7371	28.2034	0.997536	-41.7874	21.4177	11.8561	0
0.5533	-103.156	4.63231	-3.41115	-11.0124	26.3761	1.29226	-39.9564	11.3593	11.5597	0
0.5540	-126.939	0.0564916	-0.0852787	-10.7371	25.4573	1.29226	-31.7216	4.64593	12.1895	0
0.5547	-110.165	0.677899	5.71368	-9.77353	25.158	0.997536	-10.9673	7.08504	14.005	0.322404
0.5553	-103.456	-0.53667	5.71368	-10.7371	23.6301	0.0680138	11.3112	8.89696	13.7086	0
0.5560	-111.663	-2.06194	2.04669	-10.7371	22.412	-0.54411	32.0655	4.94792	13.0787	0
0.5567	-131.851	-2.99405	-1.91877	-9.77353	21.1835	-2.06308	51.8996	-0.255526	13.3751	0.322404
0.5573	-139.758	-6.32706	-6.18271	-11.2877	18.1381	-4.80631	54.6415	-4.20457	10.9669	0.322404
0.5580	-94.8894	-8.16303	-6.77966	-11.0124	17.529	-3.58206	44.5757	-4.52978	8.1881	0
0.5587	-25.9388	-9.09515	-7.37661	-7.63987	17.2193	-0.226713	49.4552	-7.27088	7.29889	0
0.5593	29.8926	-10.6204	-9.2101	-5.85035	16.6102	0.680138	63.4897	-15.5174	5.77983	0.322404
0.5600	52.1772	-10.6204	-8.31468	-4.26731	18.1381	0.385411	68.6852	-20.0936	4.85358	0.322404
0.5607	36.9613	-12.4564	-9.84969	-6.74511	16.3005	-2.67521	59.8277	-23.7407	-0.963306	-1.61202
0.5613	21.9851	-12.7389	-12.2801	-10.1177	14.4733	-3.28733	36.0249	-24.3679	-5.22408	-2.90163
0.5620	-4.25325	-9.40585	-11.9817	-5.85035	17.8284	1.58699	13.4489	-15.5174	-0.0370502	-0.967211
0.5627	-51.2786	-9.40585	-13.8152	-1.58304	17.8284	2.81124	5.20484	-7.27088	1.18561	0.644807
0.5633	-86.9819	-10.3097	-14.7106	-1.58304	16.3005	1.29226	5.81826	-1.76545	-3.07517	0.322404
0.5640	-129.095	-8.78444	-13.5167	-2.4778	18.4375	0.0680138	3.06714	4.32071	-3.70502	0.322404
0.5647	-180.973	-5.7339	-10.4466	-4.26731	19.3563	-1.45096	-7.91879	8.59497	-4.29783	0.322404
0.5653	-204.156	0.0564916	-3.75226	-4.61145	21.7926	2.19911	-12.4916	11.3593	-2.48236	0
0.5660	-195.29	4.34985	1.74821	-4.61145	26.6755	9.83933	-6.39451	9.52416	2.70467	0
0.5667	-136.404	2.51388	1.15126	-8.60346	27.904	13.4894	-5.16766	1.27763	4.85358	0
0.5673	-39.6571	-0.225966	-1.91877	-12.2513	27.5943	12.8999	-7.61207	-3.29861	5.77983	0
0.5680	-12.8197	-0.53667	-2.8142	-14.0408	26.9852	10.4515	-3.64338	-3.6006	6.37264	0
0.5687	-16.1743	-1.46878	-3.11267	-16.7939	26.0664	9.52193	9.17352	-6.34169	7.29889	0
0.5693	63.1997	-0.53667	-0.383754	-17.1381	27.904	13.4894	28.7009	-6.9689	11.2633	0
0.5700	128.796	-0.847374	1.44974	-16.5186	28.8124	15.031	33.5898	-4.52978	14.005	0
0.5707	127.897	-3.89792	-1.57766	-17.4134	27.2949	11.3583	19.8527	-1.16148	13.3751	0
0.5713	108.668	-7.25917	-5.24464	-17.7575	26.3761	8.32035	13.4489	-0.859497	13.7086	0.322404
0.5720	24.7407	-12.1457	-9.2101	-18.6523	24.8483	5.55446	19.8527	-5.73772	12.1895	0
0.5727	-102.198	-13.9817	-11.0436	-18.9276	22.7113	4.64761	29.9278	-6.9689	11.2633	0
0.5733	-180.973	-12.4564	-10.1482	-16.7939	23.9295	6.16658	36.3316	-4.52978	13.0787	0
0.5740	-185.226	-13.3603	-13.5167	-16.1745	23.9295	4.96501	35.7275	-2.39265	13.3751	0
0.5747	-119.331	-11.2136	-15.9471	-16.1745	21.1835	2.51651	33.8965	5.2499	11.2633	0
0.5753	-53.6748	-4.80179	-13.5167	-14.385	18.1381	0.680138	27.1767	15.9355	7.59529	0
0.5760	-68.3515	-1.15808	-9.50858	-13.1461	15.0824	-1.76836	13.1422	24.4608	4.55718	0
0.5767	-108.608	5.25372	2.04669	-12.2513	15.3921	-2.67521	3.06714	32.1034	3.92732	0
0.5773	-137.602	15.3375	18.2496	-10.393	17.529	-1.76836	-3.02996	38.8167	4.55718	-0.322404
0.5780	-148.924	21.7493	27.7156	-8.87877	18.4375	-2.06308	-14.6293	43.393	3.00107	0
0.5787	-89.3781	22.9638	30.4445	-9.15408	17.8284	-1.45096	-33.8593	42.789	-0.0370502	0.322404
0.5793	-71.7062	21.7493	29.208	-9.15408	17.2193	-0.838837	-51.249	41.5578	-1.85251	0
0.5800	-145.868	20.8172	26.7775	-7.36456	16.6102	-1.15623	-55.8312	44.9261	-2.48236	0
0.5807	-182.171	17.1452	24.3471	-5.85035	15.6915	-0.226713	-52.7733	47.3653	-4.29783	0
0.5813	-127.837	9.23637	17.6101	-4.26731	16.0012	4.35288	-51.249	41.2559	-5.22408	0
0.5820	-24.3813	-0.225966	7.84564	-4.26731	16.6102	8.00296	-47.8938	23.8569	-4.00142	0
0.5827	19.2295	-8.47374	0.852787	-4.88676	14.783	6.16658	-42.0941	-2.39265	-4.63128	0
0.5833	-16.1743	-13.3603	-4.05074	-4.26731	12.9455	2.81124	-37.2146	-27.713	-6.44674	0
0.5840	-28.6945	-14.8855	-6.18271	-2.13366	12.3364	2.51651	-35.997	-46.9471	-6.74314	0
0.5847	5.51125	-13.0496	-4.05074	-1.2389	12.037	2.19911	-41.1833	-54.5665	-5.52048	0
0.5853	-8.5065	-7.85233	0.255836	-1.85835	11.4176	0.997536	-37.828	-47.5511	-4.29783	0
0.5860	-39.3575	-3.58722	2.68628	-3.09724	10.1995	-1.15623	-25.9219	-37.7946	-4.63128	0
0.5867	-8.86593	-1.46878	3.58171	-4.61145	8.37223	-2.06308	-16.1536	-31.3833	-4.00142	0
0.5873	41.8136	-1.46878	1.74821	-5.2309	7.76315	-0.226713	-2.42583	-27.411	-0.963306	0
0.5880	121.487	-3.27651	-1.57766	-6.40097	8.37223	2.81124	4.59141	-22.2308	2.11186	0
0.5887	218.234	-6.0446	-1.91877	-7.02042	8.6716	3.12863	-9.74977	-13.0551	3.00107	0
0.5893	276.222	-10.3097	-4.64769	-6.40097	8.37223	1.90439	-29.5839	-6.34169	3.00107	0.322404
0.5900	282.931	-14.5748	-10.7451	-7.02042	6.84437	-0.838837	-39.659	-7.87485	1.18561	-0.322404
0.5907	207.211	-13.9817	-13.8152	-9.49821	5.9256	-2.06308	-43.9251	-10.616	-0.333452	-2.90163
0.5913	106.511	-7.56987	-9.84969	-8.87877	7.15407	0.0680138	-44.2318	-6.66691	1.48201	-2.25683
0.5920	72.3651	-1.46878	-3.75226	-6.74511	7.15407	1.58699	-39.0456	-1.16148	3.92732	0.322404
0.5927	56.4903	2.82458	1.44974	-7.02042	4.70744	0.0680138	-32.335	3.41476	3.63092	0.322404
0.5933	-2.09667	8.61497	9.38066	-8.25932	3.78866	-1.45096	-23.4775	6.15586	2.11186	-0.322404
0.5940	-56.4304	15.3375	19.4436	-7.63987	3.78866	-1.15623	-6.69193	7.38703	2.70467	0
0.5947	-42.1132	16.2413	23.7501	-7.02042	4.09836	0.0680138	11.6179	7.991	4.22372	0.322404
0.5953	50.9791	12.5694	20.3816	-5.85035	3.78866	0.997536	29.6211	6.15586	4.55718	0
0.5960	114.478	11.6655	18.5481	-4.88676	2.27113	0.0680138	49.4552	4.01873	3.33452	0
0.5967	99.2025	8.61497	14.5827	-5.50621	-1.39365	-5.41843	50.0687	0.975645	-0.0370502	0.322404
0.5973	136.404	1.89247	6.65174	-4.88676	-4.44936	-8.77378	37.2518	-2.39265	-1.55611	0.322404
0.5980	165.397	-3.89792	1.44974	-3.09724	-4.74873	-8.47905	33.5898	-2.06744	-0.963306	0.322404
0.5987	77.8165	-9.09515	-1.57766	-2.13366	-5.05843	-9.3859	22.6039	-5.13375	-1.55611	0
0.5993	9.7645	-9.09515	1.15126	-0.619449	-4.74873	-8.47905	0.0185887	-10.616	-1.85251	0
0.6000	-13.1192	-6.94847	6.05479	-0.963587	-5.97721	-9.09118	-20.7357	-13.6823	-4.00142	0
0.6007	-14.9163	-6.94847	4.51977	-2.4778	-8.11414	-12.4465	-47.8938	-16.7253	-6.15034	-0.322404
0.6013	23.8422	-7.56987	0.255836	-1.85835	-8.41352	-13.6708	-76.8829	-21.3016	-5.22408	0
0.6020	42.1132	-9.09515	-5.24464	-0.963587	-8.72322	-12.7412	-89.0956	-22.8347	-4.00142	0.322404
0.6027	81.1712	-8.47374	-8.61315	0.275311	-9.63167	-11.517	-88.1755	-15.5174	-3.70502	0
0.6033	131.252	-7.25917	-8.91163	0.894759	-10.2511	-12.7412	-85.4337	-7.87485	-5.22408	-0.322404
0.6040	80.8716	-7.56987	-8.91163	-1.2389	-12.9971	-16.0966	-78.4164	-5.43574	-9.18845	0
0.6047	-21.9851	-5.42319	-7.37661	-2.75311	-13.6062	-14.8723	-57.9689	-3.90258	-7.9658	0.322404
0.6053	-1.1981	-1.46878	-3.41115	-2.4778	-10.5504	-9.7033	-30.5041	-2.06744	-5.52048	0
0.6060	127.897	4.03915	2.04669	-2.13366	-7.49474	-3.58206	-5.78109	1.57962	-4.63128	0.322404
0.6067	194.391	6.15758	4.51977	-2.4778	-6.88567	0.680138	17.715	1.57962	-4.00142	0.322404
0.6073	201.4	2.82458	1.44974	-4.26731	-7.80444	1.29226	50.0687	-5.13375	-5.22408	0.322404
0.6080	175.821	0.0564916	-1.57766	-4.26731	-7.19537	0.997536	83.6398	-9.70999	-5.81688	0
0.6087	106.511	-1.15808	-1.27918	-3.71669	-6.58629	2.19911	94.9232	-8.47882	-3.70502	0.322404
0.6093	53.1357	-2.37265	-0.383754	-3.992	-6.58629	3.12863	90.0436	-3.90258	-2.77877	0
0.6100	43.3712	-2.68335	-1.57766	-3.09724	-6.58629	3.74076	81.8089	0.371674	-2.77877	0
0.6107	52.4767	-4.80179	-4.34922	-4.61145	-7.49474	3.12863	66.5475	0.0464593	-2.77877	0.322404
0.6113	78.775	-5.42319	-6.18271	-7.36456	-9.0226	1.90439	49.4552	-2.06744	-2.18596	0.322404
0.6120	97.645	-2.06194	-5.54312	-8.60346	-8.72322	2.19911	39.3895	-1.76545	-0.963306	0
0.6127	56.4903	0.367195	-5.24464	-8.60346	-8.11414	2.81124	30.2345	0.371674	-0.963306	0
0.6133	-7.00888	0.0564916	-6.48118	-7.98401	-8.72322	1.90439	19.2393	3.41476	-1.55611	0
0.6140	-33.2472	0.367195	-5.88423	-7.98401	-9.63167	-0.54411	14.3598	8.59497	-0.963306	-0.322404
0.6147	-43.3113	3.10704	-2.21725	-9.15408	-10.2511	-2.38048	18.6352	13.7984	0.259352	0
0.6153	-58.2875	5.56442	0.852787	-10.393	-10.2511	-1.76836	27.4834	15.9355	2.70467	0.322404
0.6160	-40.8552	5.56442	0.255836	-11.6319	-9.94137	0.0680138	34.8073	13.7984	5.77983	0.322404
0.6167	0.958479	3.72845	-2.21725	-12.2513	-9.94137	1.29226	36.3316	10.4301	7.29889	0.322404
0.6173	36.9613	2.51388	-3.11267	-11.9072	-10.2511	2.19911	33.8965	8.59497	8.52155	0.322404
0.6180	81.1712	3.10704	-2.51572	-13.4214	-10.8601	0.997536	31.1454	7.38703	8.81795	0.322404
0.6187	121.787	3.10704	-3.11267	-15.2797	-12.6874	-1.76836	23.208	-0.557512	7.8917	0
0.6193	154.435	2.20317	-3.75226	-15.6239	-12.9971	-2.96994	8.86681	-13.3803	7.59529	0.322404
0.6200	172.766	1.58176	-3.41115	-14.0408	-12.9971	-3.89946	-8.82963	-19.7684	7.8917	0.644807
0.6207	141.016	1.58176	-4.34922	-14.385	-12.6874	-5.73583	-23.4775	-17.6313	7.29889	-1.93442
0.6213	72.6647	3.10704	-3.41115	-13.7655	-11.4692	-5.73583	-29.2772	-10.9179	5.44638	-3.22404
0.6220	4.61268	3.72845	-3.11267	-11.9072	-11.4692	-5.12371	-29.2772	-2.39265	5.14998	-0.322404
0.6227	-42.7122	1.58176	-5.54312	-11.6319	-12.9971	-4.80631	-26.8421	4.32071	5.44638	0.644807
0.6233	-48.2235	0.0564916	-7.37661	-12.2513	-13.9055	-3.89946	-22.5667	6.45784	6.07624	0
0.6240	-43.0117	1.29931	-7.07814	-12.2513	-13.6062	-1.76836	-23.7842	7.38703	7.8917	0.322404
0.6247	-36.0029	3.41774	-6.77966	-12.5266	-13.2965	-1.15623	-29.2772	11.9633	9.11435	0.322404
0.6253	1.85705	4.03915	-7.07814	-14.385	-13.9055	-3.58206	-27.1395	14.7044	7.8917	0
0.6260	3.95372	5.25372	-4.05074	-15.6239	-12.6874	-2.38048	-16.4603	13.4964	8.52155	0.322404
0.6267	-32.3487	8.61497	1.15126	-14.0408	-10.8601	1.58699	-7.30536	14.7044	10.9669	0.322404
0.6273	-13.7182	7.7111	2.04669	-13.7655	-10.5504	2.51651	-0.901552	13.1712	11.5597	0
0.6280	-0.599049	3.41774	-2.21725	-14.6603	-9.94137	1.58699	7.34254	4.64593	14.005	0
0.6287	-56.4304	0.988603	-6.77966	-14.6603	-9.3323	0.385411	13.1422	-0.859497	14.9312	0.322404
0.6293	-98.8431	1.89247	-7.71773	-15.2797	-9.63167	-0.54411	11.6179	4.94792	12.7823	0
0.6300	-134.546	3.41774	-6.77966	-15.2797	-9.0226	1.29226	3.06714	12.8692	12.4859	0.322404
0.6307	-217.275	1.58176	-9.84969	-15.0044	-10.8601	1.29226	-6.69193	13.4964	11.5597	0.322404
0.6313	-263.941	-2.06194	-13.5167	-14.0408	-14.2152	-0.54411	-7.91879	9.52416	9.74421	0
0.6320	-256.333	-4.20862	-13.8152	-12.2513	-15.4334	-2.67521	-0.288125	8.89696	9.74421	0
0.6327	-271.01	-3.89792	-11.9817	-11.6319	-17.2606	-6.34795	16.4975	11.9633	8.81795	0.322404
0.6333	-322.229	-0.53667	-6.77966	-11.2877	-19.0982	-9.09118	28.7009	14.1004	6.07624	0.322404
0.6340	-408.911	4.34985	0.255836	-10.393	-19.0982	-11.517	25.3457	15.0064	3.63092	0.322404
0.6347	-390.281	9.82954	8.18676	-9.15408	-17.5703	-13.0586	19.2393	17.1435	3.33452	0.322404
0.6353	-224.284	15.6199	15.8192	-7.63987	-15.1237	-13.6708	15.5773	19.8846	4.22372	0.322404
0.6360	-127.837	18.388	18.5481	-7.63987	-14.8243	-15.4845	11.9154	19.8846	2.70467	0
0.6367	-43.9103	17.4559	17.0131	-8.60346	-14.2152	-16.0966	7.34254	19.5826	2.11186	0
0.6373	57.0894	12.8801	11.8537	-9.15408	-12.9971	-13.6708	-3.64338	18.3747	2.40826	0
0.6380	9.46498	4.94301	2.68628	-10.7371	-12.6874	-11.8344	-14.936	10.7321	1.48201	0
0.6387	-71.1071	1.58176	-2.21725	-10.7371	-11.4692	-9.09118	-14.936	5.85387	2.70467	0
0.6393	-57.3889	3.10704	-0.980705	-9.49821	-11.1595	-5.41843	-9.44306	6.45784	3.33452	0.322404
0.6400	27.1968	1.58176	-1.91877	-9.77353	-13.2965	-3.28733	-5.78109	0.975645	-0.0370502	0.322404
0.6407	149.223	0.988603	-3.75226	-8.87877	-13.6062	-4.19418	2.76042	-6.03971	-2.48236	0.322404
0.6413	231.353	3.41774	-4.05074	-7.63987	-12.6874	-6.34795	8.56009	-2.06744	-4.29783	0.322404
0.6420	213.621	4.34985	-5.24464	-8.60346	-10.5504	-2.06308	-3.64338	4.01873	-3.70502	0
0.6427	137.961	6.46829	-4.94617	-8.60346	-8.11414	4.35288	-16.767	1.57962	-0.333452	0
0.6433	98.6035	6.77899	-5.24464	-8.25932	-10.2511	2.81124	-28.9705	-4.52978	-0.963306	0.322404
0.6440	109.866	4.34985	-8.61315	-9.49821	-12.0783	1.58699	-48.8139	-5.73772	-1.85251	0.322404
0.6447	116.874	1.29931	-13.1756	-11.2877	-12.9971	3.42336	-49.4181	-4.52978	-0.629854	0
0.6453	111.723	-1.75124	-15.3075	-11.2877	-12.9971	5.25973	-30.5041	-3.90258	-1.25971	0.322404
0.6460	117.533	-0.53667	-12.2801	-8.87877	-9.0226	8.61508	-4.25681	-2.39265	1.48201	0
0.6467	126.339	0.677899	-11.0436	-9.77353	-7.19537	8.93248	17.4083	-2.39265	6.66904	0
0.6473	98.304	-0.225966	-12.8771	-12.8708	-7.80444	6.16658	12.5288	-7.87485	9.11435	0.322404
0.6480	48.523	-1.75124	-13.5167	-13.4214	-6.88567	3.42336	-21.0424	-13.6823	10.337	0
0.6487	23.1832	-5.11249	-15.0091	-15.6239	-6.58629	2.51651	-55.8312	-15.5174	11.8561	0.322404
0.6493	7.66783	-5.11249	-15.6486	-17.1381	-5.66751	6.48398	-53.08	-12.4511	14.5978	0.322404
0.6500	-27.736	-2.37265	-15.0091	-15.8992	-3.84028	12.5826	-24.3977	-6.9689	14.9312	0
0.6507	-122.985	-2.68335	-17.141	-16.1745	-2.9215	17.1621	-11.5808	-2.69464	13.0787	0.322404
0.6513	-217.575	-5.7339	-20.808	-18.3082	-4.44936	17.7743	-23.4775	-0.557512	10.0406	-0.967211
0.6520	-223.984	-4.80179	-20.2111	-18.6523	-6.58629	13.4894	-33.8593	2.18359	5.14998	-3.22404
0.6527	-256.034	4.63231	-10.4466	-15.6239	-4.74873	10.7462	-11.8875	10.4301	5.44638	-1.93442
0.6533	-343.315	13.8122	-0.383754	-13.1461	-2.6118	10.7462	27.7901	19.5826	7.8917	0.322404
0.6540	-405.856	16.2413	4.2213	-12.5266	-2.9215	10.1341	49.1485	21.7197	6.66904	0
0.6547	-449.527	17.1452	6.95022	-12.2513	-3.84028	8.32035	48.8418	22.3469	4.85358	0
0.6553	-349.425	17.7666	7.54717	-12.8708	-4.44936	5.87186	38.776	24.1588	7.29889	0.322404
0.6560	-135.804	16.2413	5.4152	-11.6319	-4.13966	4.35288	24.4348	24.786	14.3014	0.322404
0.6567	-42.4127	12.5694	1.15126	-9.15408	-4.13966	3.12863	7.64925	20.2098	22.86	0
0.6573	26.8973	7.7111	-2.8142	-7.02042	-4.13966	1.29226	-4.25681	8.89696	30.4923	0
0.6580	152.877	4.03915	-6.18271	-3.09724	-4.44936	0.0680138	-17.3804	-1.16148	33.8268	0.322404
0.6587	216.377	1.58176	-10.7451	-1.58304	-6.27659	-2.96994	-37.2146	-6.66691	44.5344	0.322404
0.6593	252.978	2.20317	-10.4466	0.275311	-6.58629	-6.03056	-38.7388	-10.616	38.1247	0.322404
0.6600	303.658	5.25372	-4.94617	3.30373	-4.74873	-7.86693	-10.6606	-12.1491	-11.9302	0
0.6607	320.431	7.4004	-0.68223	4.54262	-3.84028	-9.3859	21.377	-8.17684	-64.7267	0
0.6613	259.748	9.23637	3.88018	5.16207	-4.13966	-9.09118	34.1939	-2.39265	-113.559	0.322404
0.6620	192.894	8.61497	8.48523	4.88676	-5.66751	-7.54953	29.3144	-4.52978	-180.101	0
0.6627	201.101	6.15758	9.38066	0.894759	-7.49474	-4.80631	21.6837	-8.47882	-245.384	0
0.6633	180.374	5.25372	7.24869	-9.49821	-8.11414	-1.15623	18.0217	-10.314	-216.41	0.322404
0.6640	86.3829	3.10704	4.2213	-21.6807	-9.63167	0.385411	16.1908	-19.4664	-53.13	0.322404
0.6647	10.064	0.367195	0.255836	-24.778	-11.7686	0.385411	14.6665	-27.411	133.64	0.322404
0.6653	-28.0355	-1.15808	-4.94617	-19.5471	-12.6874	-0.838837	11.6179	-25.5758	221.523	0.322404
0.6660	-20.7271	-2.68335	-10.7451	-13.4214	-12.6874	-3.28733	7.95596	-19.1645	169.653	0.322404
0.6667	14.3772	-5.11249	-15.3075	-3.37255	-11.1595	-5.12371	5.81826	-10.616	40.2365	0.322404
0.6673	-13.7182	-7.85233	-18.676	11.9072	-9.63167	-6.03056	3.68056	-3.29861	-97.368	0.322404
0.6680	-72.3052	-6.0446	-17.4821	20.7171	-6.27659	-4.80631	3.68056	0.371674	-146.83	0.322404
0.6687	-62.5407	2.82458	-9.84969	16.4498	-4.13966	-3.58206	3.06714	5.2499	-83.363	0.322404
0.6693	11.0225	12.5694	-0.383754	10.0488	-4.13966	-3.58206	0.929435	11.9633	-109.298	0
0.6700	101.359	16.552	2.68628	5.43738	-2.6118	-1.45096	0.929435	11.3593	-167.578	0
0.6707	182.231	12.2869	-2.21725	-11.0124	-3.84028	-1.15623	0.929435	3.71674	-16.8208	0
0.6713	245.97	6.46829	-8.31468	-30.5595	-7.49474	-2.06308	-0.901552	-2.99662	159.279	0.322404
0.6720	275.263	4.63231	-8.91163	-35.7215	-9.0226	-1.15623	-2.42583	-6.66691	170.542	0
0.6727	243.573	4.94301	-7.07814	-29.3206	-9.94137	-1.76836	-4.25681	-5.13375	111.966	0.322404
0.6733	143.772	5.87513	-5.88423	-15.2797	-11.4692	-3.89946	-4.25681	-2.06744	61.6145	0
0.6740	61.0431	7.4004	-5.24464	2.75311	-11.1595	-5.41843	-2.11911	-3.29861	23.4528	0
0.6747	77.8165	6.46829	-4.94617	13.0773	-10.5504	-6.93741	-2.11911	-7.87485	38.1247	0.322404
0.6753	111.423	6.46829	-1.27918	16.7251	-8.72322	-5.73583	-4.56353	-10.616	94.8856	0.322404
0.6760	79.0745	8.92567	2.68628	21.956	-7.49474	-3.28733	-5.78109	-8.17684	53.6858	0.322404
0.6767	43.6707	8.61497	-0.0852787	22.8508	-9.94137	-4.80631	-8.2255	-5.13375	-76.027	0.322404
0.6773	41.5141	7.08969	-4.34922	13.0773	-12.0783	-4.80631	-9.13634	-4.83177	-162.984	0
0.6780	32.9477	5.87513	-4.94617	1.51421	-12.6874	-3.58206	-7.61207	-7.87485	-112.966	0
0.6787	13.4187	3.41774	-5.24464	3.92318	-12.3777	-4.80631	-6.99864	-10.012	13.3751	0
0.6793	-5.81078	2.82458	-4.94617	14.9356	-10.2511	-6.34795	-7.30536	-6.66691	2.70467	0.644807
0.6800	-18.271	4.03915	-4.64769	21.956	-8.11414	-6.93741	-6.0878	-2.39265	-79.0652	0.644807
0.6807	-15.8748	3.72845	-5.88423	22.8508	-6.58629	-9.09118	-4.56353	-1.16148	-34.8272	-2.57923
0.6813	-15.8748	2.82458	-6.77966	9.42939	-3.53058	-9.7033	-3.64338	-2.06744	87.2533	-3.22404
0.6820	-10.9626	3.41774	-5.88423	-7.02042	-3.53058	-7.2548	-5.16766	-1.76545	215.114	0
0.6827	21.0865	4.63231	-4.34922	0.275311	-8.41352	-7.86693	-8.52292	0.371674	243.494	0.644807
0.6833	40.6155	4.03915	-4.34922	14.9356	-12.6874	-9.99803	-9.74977	0.975645	96.1083	0
0.6840	23.4827	3.72845	-5.24464	7.57104	-14.8243	-9.09118	-8.52292	1.8816	-105.63	0.322404
0.6847	1.258	4.03915	-5.24464	0.275311	-16.3522	-8.77378	-7.91879	3.71674	-249.978	0.322404
0.6853	-11.2621	5.25372	-4.05074	6.67628	-18.4891	-9.09118	-7.61207	4.64593	-200.849	0
0.6860	-16.7734	7.7111	-2.51572	9.42939	-20.9254	-8.47905	-6.0878	6.45784	-56.2052	0
0.6867	-19.8285	7.7111	-3.41115	19.2029	-20.626	-10.3154	-6.99864	6.15586	-53.4264	0
0.6873	-22.5842	7.08969	-4.34922	29.8712	-13.9055	-9.09118	-10.6606	2.81079	31.715	0
0.6880	-23.4827	8.92567	-2.8142	31.3854	-5.05843	-1.15623	-10.3539	1.27763	235.269	0.322404
0.6887	-21.0266	10.1402	-1.91877	53.6856	-0.175497	5.87186	-10.0565	0.975645	199.849	0.322404
0.6893	-21.0266	10.7616	-2.21725	59.8112	1.65173	6.77871	-13.105	0.0464593	54.2786	0
0.6900	-24.0818	10.4509	-2.51572	-18.3082	0.43358	5.25973	-17.6871	0.975645	39.0139	0
0.6907	-25.3398	8.92567	-2.21725	-94.638	-1.39365	3.74076	-20.7357	3.71674	39.6437	0
0.6913	-25.6393	7.99356	-2.8142	-72.682	-2.6118	1.58699	-21.9533	6.78306	20.1183	0
0.6920	-30.1921	6.46829	-4.64769	-51.2766	-3.84028	-0.54411	-22.26	6.15586	-1.25971	0
0.6927	-33.8463	4.94301	-5.88423	-87.2735	-3.84028	-1.45096	-16.767	4.01873	7.59529	0.322404
0.6933	-35.4038	5.87513	-6.48118	-87.2735	-3.2312	-2.06308	-10.0565	4.64593	111.04	0.322404
0.6940	-39.9566	5.25372	-7.37661	-41.5031	-5.36813	-5.12371	-9.74977	5.85387	198.33	0
0.6947	-43.6108	4.94301	-6.48118	-6.12566	-7.49474	-7.86693	-8.2255	7.38703	212.075	0
0.6953	-42.7122	4.63231	-5.24464	14.3161	-8.41352	-9.99803	-0.594838	6.78306	184.918	0.322404
0.6960	-39.058	4.63231	-4.34922	36.2722	-9.3323	-11.2223	6.12498	3.41476	112.262	0.322404
0.6967	-35.7033	6.46829	-3.11267	77.4999	-7.49474	-8.77378	9.48024	-0.859497	117.746	0.322404
0.6973	-35.7033	7.99356	-3.75226	133.939	-5.36813	-6.93741	7.64925	-7.27088	178.508	0
0.6980	-33.5468	10.4509	-2.51572	188.588	-6.88567	-6.93741	4.59141	-10.314	60.0955	-0.322404
0.6987	-26.2384	13.1908	0.554312	240.14	-10.2511	-9.7033	5.81826	-9.10602	-137.049	0
0.6993	-17.0729	14.0947	2.04669	295.684	-12.9971	-15.4845	6.72911	-8.47882	-186.177	0.322404
0.7000	-5.45135	12.2869	1.15126	348.819	-14.2152	-18.8398	4.29399	-6.34169	-172.469	0
0.7007	4.9122	7.08969	-2.21725	386.949	-14.8243	-18.2504	2.15629	-2.69464	-221.894	0
0.7013	12.2206	4.34985	-4.94617	415.925	-13.6062	-14.2829	2.463	-1.16148	-334.823	0.322404
0.7020	13.7182	4.63231	-5.88423	458.943	-12.0783	-10.6102	3.68056	-2.39265	-402.254	0.644807
0.7027	-3.05515	5.56442	-6.77966	511.114	-13.6062	-8.16165	4.29399	-2.39265	-365.315	0.322404
0.7033	-17.9715	6.46829	-6.18271	538.026	-15.7431	-5.12371	3.98728	2.5088	-213.335	0
0.7040	2.4561	5.87513	-4.64769	597.837	-16.3522	-5.73583	1.54286	7.38703	-4.00142	0
0.7047	18.0314	4.63231	-5.54312	714.706	-15.1237	-8.77378	0.325302	7.991	6.07624	0.322404
0.7053	-10.064	5.25372	-5.88423	637.206	-15.4334	-8.77378	0.929435	7.08504	-126.675	0
0.7060	-39.9566	7.99356	-1.27918	330.51	-15.1237	-3.28733	1.23615	7.38703	-102.888	0.322404
0.7067	-37.8	10.1402	1.74821	56.4387	-9.94137	2.51651	0.929435	7.68901	-60.466	0.322404
0.7073	-32.3487	10.1402	0.554312	-260.926	-5.97721	4.35288	-1.19897	7.08504	-126.675	0
0.7080	-34.8048	11.9762	1.74821	-580.768	-4.44936	4.03548	-3.02996	7.68901	-19.5625	0
0.7087	-0.898574	12.8801	3.28323	-541.123	-5.36813	-0.226713	-6.69193	8.89696	140.643	0
0.7093	63.1997	11.3548	2.68628	-211.232	-8.72322	-2.06308	-12.4916	10.1281	-36.3463	0.322404
0.7100	82.4292	11.0441	2.04669	33.2438	-9.63167	2.51651	-15.2427	5.55189	-333.6	-0.644807
0.7107	57.0894	10.4509	1.44974	92.1602	-6.27659	4.03548	-15.5494	-3.29861	-473.057	-3.54644
0.7113	45.4678	11.6655	3.88018	64.0785	-4.13966	8.00296	-14.3226	-1.76545	-497.177	-2.25683
0.7120	47.0254	15.6199	9.38066	-32.9684	-9.0226	17.7743	-10.9673	7.38703	-386.99	0.644807
0.7127	64.9968	16.8627	9.67914	-257.002	-13.9055	18.3864	-5.16766	11.3593	-245.384	0.322404
0.7133	118.132	15.3375	5.71368	-585.654	-9.0226	11.0636	-0.901552	11.0341	-79.0652	0
0.7140	118.732	15.0268	2.68628	-796.818	-2.9215	12.2878	0.632016	14.1004	266.095	0.322404
0.7147	30.5515	12.5694	-0.68223	-801.085	-10.2511	18.6811	-0.288125	15.0064	524.261	0.322404
0.7153	-43.0117	8.30426	-4.05074	-757.173	-22.1436	17.4569	-3.9501	7.991	479.689	0.322404
0.7160	-92.4333	7.4004	-3.75226	-672.308	-16.9612	14.4189	-8.2255	1.27763	244.124	0
0.7167	-140.058	7.4004	-4.05074	-484.34	-11.7686	10.1341	-13.4117	-0.557512	69.5433	0
0.7173	-173.005	8.30426	-4.05074	-274.966	-31.001	5.55446	-15.8562	0.0464593	235.565	0.322404
0.7180	-187.083	11.0441	-0.68223	-133.663	-56.6338	3.74076	-13.7185	2.5088	382.358	0.322404
0.7187	-173.305	14.0947	5.11672	-47.3534	-77.9928	-1.76836	-11.8875	6.45784	123.859	0.322404
0.7193	-174.563	18.9812	13.0476	33.5191	-103.326	-15.8019	-12.1849	11.0341	-164.207	0
0.7200	-156.232	22.9638	17.9512	102.209	-128.04	-33.8029	-9.44306	13.7984	-256.091	0
0.7207	-111.363	22.9638	17.0131	140.684	-143.608	-42.3499	1.84958	16.8415	-283.842	0
0.7213	-160.785	19.2919	11.5126	160.781	-150.927	-41.7378	13.7463	14.1004	-382.729	0.322404
0.7220	-272.208	13.1908	3.88018	167.526	-154.592	-38.9946	14.6665	4.01873	-547.232	0
0.7227	-273.107	7.4004	-1.91877	154.725	-155.201	-33.1907	10.3911	-3.29861	-361.981	0
0.7233	-125.441	3.10704	-4.94617	136.967	-150.628	-30.1301	7.03582	-9.10602	-6.44674	0
0.7240	8.86593	1.89247	-4.64769	153.486	-142.999	-31.3544	5.81826	-15.5174	-68.9875	0
0.7247	59.246	4.34985	-1.57766	115.975	-135.37	-31.3544	5.51155	-17.9565	-108.372	0.322404
0.7253	137.961	11.0441	3.58171	-80.3219	-114.001	-25.2558	3.68056	-13.0551	188.252	0.322404
0.7260	264.6	17.7666	6.95022	-191.96	-75.2468	-19.7693	1.84958	-3.90258	297.513	0.322404
0.7267	318.634	18.0773	5.11672	-79.9777	-45.6498	-17.933	2.463	3.71674	149.498	0.322404
0.7273	241.716	14.7161	0.554312	16.7251	-40.1578	-6.03056	5.81826	7.38703	-84.882	0.322404
0.7280	121.188	11.0441	-3.11267	10.3241	-45.6498	14.4189	9.17352	7.68901	-214.558	0
0.7287	57.3889	7.4004	-3.41115	-26.2922	-45.6498	27.5456	9.17352	8.29299	77.7684	0.322404
0.7293	46.4263	3.41774	-0.68223	-22.5755	-43.8122	31.5131	8.25338	8.59497	504.735	0.322404
0.7300	42.7122	0.988603	0.852787	25.6039	-52.36	28.1577	7.03582	11.6613	597.805	0
0.7307	39.3575	2.82458	1.74821	13.4214	-59.6895	19.9054	5.20484	21.1158	324.967	0
0.7313	35.1043	8.30426	4.51977	-54.9245	-55.715	14.1015	4.59141	17.1435	37.4948	0
0.7320	14.0777	12.5694	5.71368	-81.2166	-55.4157	13.4894	2.76042	-0.859497	87.8461	0
0.7327	-26.2384	12.8801	3.58171	-36.6163	-60.598	11.9704	0.325302	-7.57287	273.394	0
0.7333	-50.9791	14.0947	2.04669	54.305	-57.2429	7.39083	1.54286	-3.29861	268.207	0
0.7340	-40.2561	13.5015	0.255836	116.869	-45.9492	-1.45096	4.59141	2.81079	192.846	0
0.7347	-23.7823	10.4509	-1.27918	125.679	-36.493	-10.6102	9.17352	5.55189	205.666	0.322404
0.7353	-13.4187	8.30426	-0.0852787	161.401	-36.7924	-12.7412	11.0045	-0.557512	242.568	0
0.7360	-5.15182	5.87513	-0.0852787	181.567	-42.9038	-11.517	10.3911	-7.57287	254.794	0
0.7367	6.1103	4.63231	-1.27918	152.247	-43.8122	-11.8344	12.2221	-7.57287	252.645	0.322404
0.7373	49.4815	6.77899	0.554312	195.608	-41.3759	-12.4465	12.2221	-4.20457	107.075	0.322404
0.7380	108.668	10.1402	2.98476	305.457	-45.0407	-13.9655	8.86681	-0.859497	-164.836	0.322404
0.7387	117.533	12.2869	3.28323	406.152	-32.5288	-13.3534	4.59141	1.57962	-260.945	0
0.7393	98.6035	12.2869	2.3878	469.611	8.06253	-14.5776	-0.594838	2.81079	-216.41	0.322404
0.7400	116.275	10.7616	1.44974	488.883	22.1023	-26.1626	-5.16766	4.64593	-241.753	0.322404
0.7407	119.63	9.23637	-0.383754	529.147	11.7273	-1.76836	-10.9673	4.01873	-263.39	0
0.7413	90.9357	9.23637	-2.51572	611.878	80.0884	78.8053	-12.7983	0.0464593	-116.597	0
0.7420	97.3455	5.25372	-5.24464	624.336	189.34	129.158	-8.2255	-1.76545	57.9465	0
0.7427	98.903	-11.5243	-10.1482	517.24	202.461	123.354	-6.69193	-5.13375	-4.63128	0.322404
0.7433	29.2935	-28.613	-14.7106	442.768	149.668	105.965	-8.2255	-10.9179	-146.83	-1.61202
0.7440	-67.4529	-31.0704	-14.4121	441.529	88.6258	83.0902	-5.16766	-6.66691	-242.642	-3.54644
0.7447	-141.615	-24.3479	-11.9817	249.018	23.9295	53.7762	-2.11911	4.32071	-365.315	-1.28961
0.7453	-200.801	-24.0372	-8.91163	-196.847	-18.7885	29.9714	-0.594838	9.22217	-352.199	0.967211
0.7460	-246.569	-31.3528	-3.41115	-442.218	-52.969	12.8999	5.51155	10.1281	-238.974	0
0.7467	-262.443	-7.56987	4.81825	-347.924	-79.8304	-5.12371	10.0844	15.0064	-217.337	0
0.7473	-231.293	41.2671	13.6446	-266.432	-71.8917	-19.1572	7.95596	21.7197	-226.784	0
0.7480	-184.327	49.2042	16.4162	-179.503	-67.6179	-25.8679	5.81826	25.994	-208.482	0.322404
0.7487	-113.819	25.393	10.0203	-259.411	-90.2053	-26.7748	7.95596	25.088	-134.603	0.322404
0.7493	63.1997	11.0441	0.554312	-797.437	-101.798	-25.5732	3.37385	18.0727	-0.333452	0
0.7500	254.536	0.367195	-9.2101	-1166.7	-93.2507	-37.1582	-7.91879	7.38703	68.617	0
0.7507	337.564	-9.68831	-16.5441	-1006.47	-72.2014	-60.963	-13.105	-3.90258	-68.3947	0
0.7513	291.437	-8.16303	-18.9745	-731.844	-48.3958	-79.5761	-14.0252	-13.9843	-383.951	0
0.7520	114.778	-0.847374	-17.141	-522.195	-28.864	-84.1557	-14.936	-18.2585	-622.592	0
0.7527	-35.4038	1.89247	-12.2801	-379.653	-12.0783	-78.3519	-17.3804	-13.9843	-718.107	0
0.7533	-86.9819	2.82458	-6.18271	-324.454	-16.3522	-77.445	-21.0424	-2.99662	-720.256	0.322404
0.7540	-175.761	6.15758	0.554312	-375.111	-38.6299	-78.0572	-24.091	10.4301	-347.012	0.322404
0.7547	-357.632	11.6655	7.84564	-516.964	-47.7867	-55.7713	-23.4775	25.088	364.352	0.322404
0.7553	-559.093	14.7161	12.1522	-557.917	-40.4572	-28.3164	-18.9047	33.0093	774.201	0
0.7560	-602.703	13.5015	12.1522	-422.671	-39.5384	-22.8073	-14.936	28.4331	632.299	0
0.7567	-486.428	10.1402	10.9157	-266.432	-48.6952	-26.48	-15.8562	22.3469	334.749	0
0.7573	-373.807	8.92567	11.2142	-127.606	-50.8321	-28.6111	-18.598	18.9786	124.489	0
0.7580	-243.214	11.6655	12.1522	17.6887	-40.1578	-32.896	-20.7357	14.1004	-42.756	0.322404
0.7587	-42.1132	9.51883	12.1522	125.679	-30.0822	-35.9339	-23.1801	11.6613	-13.1528	0
0.7593	140.118	2.20317	11.8537	244.132	-28.864	-35.3218	-21.6465	14.1004	223.672	0.322404
0.7600	174.263	-5.7339	6.95022	319.154	-30.3919	-35.6392	-19.2114	8.59497	326.487	0
0.7607	140.118	-23.7265	-0.68223	315.506	-29.7725	-38.065	-22.26	-3.29861	327.116	0
0.7613	135.505	-50.5882	-6.18271	366.507	-32.2191	-39.9014	-26.5354	-7.57287	398.512	0
0.7620	97.3455	-73.1849	-12.5786	401.265	-34.3561	-32.2839	-30.5041	-13.6823	399.438	0
0.7627	75.0609	-62.4797	-18.676	427.213	-26.118	-11.2223	-30.1973	-26.807	330.784	0
0.7633	83.9268	-25.5624	-19.3156	567.622	-2.9215	10.1341	-20.7357	-29.8501	284.694	0
0.7640	59.845	-48.1591	-21.7461	733.014	31.2591	29.3593	-6.99864	-24.9719	153.758	0.322404
0.7647	39.6571	-130.241	-25.1146	833.434	57.501	54.7058	1.23615	-28.3169	-31.1592	0.322404
0.7653	-35.4038	-140.608	-18.0791	884.986	63.3027	70.5756	0.325302	-33.1952	-99.8133	0
0.7660	-241.656	-51.8028	-3.75226	808.105	55.9731	65.3839	-3.9501	-25.8778	-108.075	0
0.7667	-375.963	-21.8905	11.5126	512.697	65.1299	52.2573	-3.33667	-5.13375	-127.601	0
0.7673	-231.293	-87.5055	27.4171	83.0061	92.6003	43.4155	1.84958	20.2098	-91.5881	0
0.7680	43.3712	-83.2404	40.8059	-336.636	97.4833	38.8359	5.81826	38.5148	7.29889	0.322404
0.7687	195.649	-17.9361	46.6048	-600.934	80.3878	34.2563	9.17352	45.2281	136.678	0
0.7693	230.394	33.33	43.279	-701.629	62.3839	21.7417	11.3112	46.4361	220.93	0.322404
0.7700	273.166	123.349	31.3826	-659.231	35.8323	29.0646	8.86681	41.8598	190.401	0.322404
0.7707	359.489	149.307	16.4162	-510.563	5.31652	81.8659	4.59141	23.5549	167.8	-2.25683
0.7713	382.373	57.4519	3.28323	-396.723	-17.5703	119.999	-1.8124	3.41476	247.755	-3.22404
0.7720	332.053	10.7616	-8.31468	-326.587	-29.4731	111.452	-10.9673	-9.40801	377.171	-0.322404
0.7727	280.774	40.3632	-15.6486	-285.704	-30.3919	88.5766	-17.9846	-24.9719	470.241	0.322404
0.7733	217.575	56.5198	-14.7106	-182.806	-29.4731	53.4815	-19.5181	-36.5635	448.271	-0.322404
0.7740	176.42	42.171	-2.8142	83.0061	-40.1578	4.03548	-18.598	-28.9441	297.513	0
0.7747	173.964	13.1908	12.4507	253.905	-37.1021	-48.1538	-14.936	-10.9179	83.8817	0
0.7753	157.49	-27.3984	16.4162	119.622	7.45345	-83.2489	-6.99864	-1.46347	-102.259	0
0.7760	84.8254	-42.9619	11.5126	-56.1634	43.7709	-100.32	-1.8124	0.975645	-219.745	-0.322404
0.7767	-8.20697	5.25372	8.48523	23.4702	43.1619	-117.732	-4.56353	7.68901	-261.278	0
0.7773	-41.2146	72.0833	3.28323	231.33	30.9494	-126.574	-5.47437	12.5672	-285.694	0
0.7780	-14.3173	85.8107	-4.05074	393.625	26.6755	-125.667	-0.288125	6.45784	-312.519	0
0.7787	-31.0907	53.1586	-8.61315	527.633	10.8085	-121.699	3.68056	-2.69464	-271.949	0
0.7793	-50.6197	35.4767	-10.7451	590.197	-19.7072	-103.698	10.0844	-4.83177	-167.578	0.322404
0.7800	-47.265	42.171	-13.1756	598.112	12.037	-83.861	18.0217	-1.16148	-42.756	0.322404
0.7807	-99.5021	33.33	-16.8426	566.658	77.6418	-82.3194	24.1281	-0.255526	57.9465	0
0.7813	-12.8197	15.3375	-21.1065	392.731	82.2254	-85.9921	33.8965	-2.39265	68.9505	-0.322404
0.7820	156.891	9.23637	-26.3085	82.0425	52.9277	-77.1276	42.438	-3.29861	27.4172	0.322404
0.7827	142.214	5.56442	-31.212	-258.792	34.6141	-42.3499	47.6242	1.57962	13.0787	0.322404
0.7833	61.0431	1.29931	-33.9409	-479.178	23.9295	19.6106	52.5038	7.68901	-47.0167	0
0.7840	-26.2384	-2.37265	-33.9409	-419.023	3.78866	82.7728	50.3754	7.08504	-165.133	0.322404
0.7847	-239.56	-2.06194	-27.545	-207.24	-11.7686	115.419	44.5757	15.3083	-216.41	0.644807
0.7853	-563.945	4.94301	-12.5786	-144.676	4.70744	127.639	38.4693	32.7073	-163.317	0.322404
0.7860	-861.493	11.6655	2.04669	-219.767	12.037	135.257	26.2658	38.2128	-54.0563	0
0.7867	-1083.08	14.4054	11.5126	-239.864	-9.94137	125.191	9.48024	34.8445	43.6081	0.322404
0.7873	-1203.91	12.8801	13.3461	-208.479	-22.763	112.381	-2.11911	34.8445	72.9148	0
0.7880	-1158.14	7.99356	8.48523	-175.786	-16.0425	104.129	-2.42583	31.8014	4.55718	0
0.7887	-1016.23	5.87513	6.65174	-72.0625	-12.6874	67.8097	-2.11911	27.8291	-116.597	0.322404
0.7893	-872.156	8.30426	10.6172	51.8272	-8.72322	15.6432	-12.4916	23.8569	-150.165	0.322404
0.7900	-631.697	11.9762	18.5481	12.1825	36.7511	-23.1247	-27.4462	10.1281	-63.2077	0.322404
0.7907	-258.49	12.8801	25.8821	-191.066	96.2651	-59.7388	-31.1082	-3.29861	40.57	0.322404
0.7913	140.417	7.4004	23.409	-306.145	99.6202	-92.0907	-19.5181	-5.43574	134.529	0
0.7920	608.215	0.0564916	12.7492	-193.199	58.7191	-103.381	-8.82963	-1.46347	202.591	0
0.7927	1009.82	-5.11249	-0.68223	-36.341	37.9692	-99.7309	-2.42583	2.5088	172.098	0.322404
0.7933	1015.63	-14.8855	-19.9126	-8.60346	28.5131	-91.1838	12.8355	-2.69464	63.1336	0
0.7940	806.62	-23.444	-36.6699	-99.1806	-16.6515	-87.5111	31.4521	-10.012	-42.1631	0
0.7947	815.426	-24.0372	-39.7399	-247.848	-66.09	-88.1232	47.3175	-5.13375	-84.5856	0.322404
0.7953	904.265	-23.1333	-33.9409	-280.197	-83.4848	-56.9956	60.7479	-5.73772	-31.7891	0.322404
0.7960	629.002	-21.2973	-23.2811	-137.036	-75.5565	-2.38048	56.7792	-26.807	38.1247	0.322404
0.7967	109.267	-18.5575	-8.0162	-64.4227	-53.2787	15.9379	33.5898	-44.508	28.3434	0.322404
0.7973	-233.749	-14.8855	10.3187	-100.764	-40.1578	13.1947	9.48024	-35.0303	-11.3374	0.322404
0.7980	-300.603	-6.0446	32.875	-114.46	-39.8481	15.3258	-10.9673	-8.17684	-31.1592	0
0.7987	-255.734	4.94301	52.1053	-87.6176	-26.118	-0.226713	-30.5041	16.8415	-68.6911	0
0.7993	-280.115	14.4054	65.8352	18.3082	17.2193	-20.0641	-37.828	34.5425	-79.695	0.644807
0.8000	-293.235	22.9638	72.5722	160.162	68.485	-21.6057	-28.3664	41.2559	-9.81831	-0.644807
0.8007	-155.333	22.9638	64.0017	295.408	72.7589	-6.03056	-10.0565	35.4484	41.1628	-3.22404
0.8013	262.144	14.0947	42.6394	384.196	30.65	20.2228	10.3911	21.4177	53.0559	-1.61202
0.8020	815.126	-0.53667	15.4781	314.886	10.1995	45.5466	25.9591	-0.255526	93.9594	0.967211
0.8027	1001.61	-14.2641	-5.88423	193.75	25.158	64.4544	32.0655	-25.5758	106.779	0.644807
0.8033	821.836	-22.2012	-13.8152	192.236	16.3005	49.514	33.2831	-52.7313	98.85	0
0.8040	524.288	-27.7091	-18.676	116.525	-22.1436	3.12863	38.4693	-75.6357	155.907	0.322404
0.8047	157.49	-31.9742	-25.1146	-183.77	-31.6101	-32.2839	39.0827	-71.6635	201.998	0
0.8053	-114.119	-33.4995	-26.9054	-520.337	-14.2152	-46.3174	28.3942	-48.1551	118.079	0.322404
0.8060	-274.964	-34.4034	-26.3085	-786.493	-15.1237	-16.414	12.8355	-38.3986	-38.4952	0
0.8067	-434.55	-37.7646	-31.5105	-918.023	-22.1436	45.8413	-9.74977	-39.0026	-132.158	0
0.8073	-594.796	-39.0074	-36.6699	-801.429	-21.8442	57.1316	-34.166	-25.8778	-144.681	0.322404
0.8080	-771.456	-35.0248	-32.4059	-490.466	-24.5902	18.9985	-44.2318	-7.27088	-131.862	0.322404
0.8087	-769.658	-27.3984	-22.343	-183.77	-19.0982	5.87186	-38.7388	-0.255526	-108.965	0
0.8093	-586.23	-17.0322	-9.84969	4.88676	-4.44936	9.52193	-28.6731	10.4301	-97.9978	0
0.8100	-513.924	-6.32706	3.88018	138.55	12.9455	-3.58206	-19.2114	34.5425	-118.45	0
0.8107	-512.067	3.41774	20.3816	284.396	27.904	-6.93741	-11.5808	54.3806	-136.16	0.322404
0.8113	-393.995	12.2869	36.2435	430.586	27.904	9.52193	-9.13634	63.2311	-134.937	0.322404
0.8120	5.51125	14.7161	38.9724	525.499	15.6915	24.1902	-12.1849	69.9445	-116.301	0.322404
0.8127	502.662	2.82458	15.8192	566.107	-2.9215	23.2607	-14.0252	62.3019	-83.6594	0
0.8133	791.344	-24.6586	-27.545	567.897	-19.3975	8.61508	-15.2427	30.2682	-59.2433	0
0.8140	967.105	-47.227	-58.6718	475.117	17.529	-14.2829	-12.1849	5.2499	-41.5333	0.322404
0.8147	800.509	-53.3281	-64.7692	353.361	86.4992	-41.7378	-7.61207	-7.87485	-22.0078	0.322404
0.8153	111.124	-49.9668	-55.0048	322.87	104.803	-57.313	-9.74977	-20.9996	-16.5244	0
0.8160	-496.791	-34.1209	-30.274	331.061	100.838	-42.962	-12.1849	-12.4511	-25.0459	0
0.8167	-709.813	-9.40585	5.71368	335.328	93.8185	12.5826	-11.5808	12.5672	-27.4913	0.322404
0.8173	-816.923	18.0773	46.9459	347.235	63.3027	79.4174	-7.30536	28.4331	-24.7495	0
0.8180	-859.995	42.4817	83.232	288.388	39.1874	107.19	-0.594838	43.695	-25.3794	0
0.8187	-552.024	51.3509	94.233	6.67628	23.021	101.703	4.89812	69.6425	-19.5625	0.322404
0.8193	169.711	43.6962	76.2392	-463.898	3.78866	89.8009	11.3112	84.6024	-1.55611	0
0.8200	864.548	20.1957	38.077	-775.756	-9.94137	115.125	15.5773	68.4113	-3.07517	0
0.8207	1010.78	-13.3603	-10.4466	-733.703	-24.2805	181.642	14.3598	26.9232	-27.8247	0
0.8213	650.927	-44.4871	-54.7063	-511.183	-18.4891	211.251	9.17352	-20.3956	-46.4239	-0.322404
0.8220	203.856	-66.4624	-78.2006	-324.454	26.9852	186.539	-6.0878	-64.6481	-74.508	0
0.8227	-213.621	-67.9876	-69.9712	-222.795	72.7589	141.378	-20.429	-82.0239	-107.779	0
0.8233	-632.296	-46.9163	-35.476	-138.55	89.5446	84.6091	-17.0737	-62.511	-105.927	0
0.8240	-919.181	-9.68831	19.4436	-57.4023	91.9912	33.032	-7.61207	-27.713	-83.6594	0
0.8247	-1094.94	29.0649	73.7661	-11.9072	91.3822	9.2272	-1.19897	3.71674	-57.3908	0
0.8253	-1114.47	48.2721	99.0939	20.0977	90.7628	-15.4845	13.1422	28.1311	-13.7827	0
0.8260	-733.955	51.6333	99.435	87.2735	84.3623	-61.8699	36.0249	54.3806	24.379	0.322404
0.8267	12.8197	43.1031	83.8716	158.372	89.2452	-85.9921	50.3754	65.3682	32.6042	0.322404
0.8273	779.123	23.2745	55.4738	154.38	163.398	-94.8339	47.931	51.3375	45.757	0
0.8280	1161.2	6.77899	26.7775	111.983	233.586	-121.087	36.3316	32.7073	76.5457	0
0.8287	1220.38	-9.99901	0.554312	118.659	210.09	-163.188	25.3457	2.81079	84.1781	0
0.8293	1216.13	-28.3023	-18.9745	153.142	156.378	-223.924	25.3457	-39.9318	76.8792	0.322404
0.8300	1082.78	-41.7473	-33.6425	97.9417	100.838	-269.403	29.9278	-78.6788	82.3626	0.644807
0.8307	881.98	-55.4747	-52.5743	-37.8552	15.0824	-265.73	28.0968	-105.23	82.659	-2.25683
0.8313	736.711	-63.1011	-67.8392	-93.7432	-51.4412	-217.213	23.208	-96.9838	74.1375	-3.22404
0.8320	501.404	-64.9371	-73.9367	-81.2166	-93.2507	-143.963	18.0217	-68.9224	65.8753	-0.322404
0.8327	124.842	-64.3157	-76.0686	-90.0266	-146.963	-78.964	19.2393	-52.4293	47.5725	0.644807
0.8333	-290.179	-58.2146	-74.5336	-68.69	-177.479	-47.5416	36.3316	-30.1521	28.3434	0
0.8340	-643.319	-48.1591	-67.4981	-6.40097	-189.082	-42.3499	47.931	2.81079	17.0431	0.322404
0.8347	-782.478	-30.449	-46.7754	71.7184	-149.709	0.385411	33.8965	28.4331	1.18561	0.644807
0.8353	-658.235	-1.15808	-4.05074	162.64	-24.2805	110.545	7.34254	44.2989	-20.1924	0.322404
0.8360	-453.78	40.0525	57.6058	178.814	73.368	218.279	-13.4117	65.3682	-26.2686	0.322404
0.8367	-421.132	76.3484	109.498	54.5803	96.8742	266.183	-25.0111	89.4806	-16.5244	0.322404
0.8373	-372.908	87.336	125.061	-79.7024	93.2094	260.379	-23.4775	97.4019	-6.44674	0.322404
0.8380	51.5781	72.7047	106.726	-109.574	54.755	213.994	-5.78109	80.6301	9.41076	0.322404
0.8387	544.775	38.5273	64.6413	-68.9653	9.28068	132.831	10.3911	38.8167	22.2301	0.322404
0.8393	716.583	4.63231	27.7156	17.964	2.27113	62.3233	24.4348	-1.46347	26.1945	0
0.8400	824.891	-11.2136	13.3461	105.582	13.8642	30.5835	38.1626	-22.8347	20.7111	0.322404
0.8407	979.026	-18.8399	6.95022	138.55	36.142	-18.2504	35.7275	-39.6066	1.77841	0.322404
0.8413	965.607	-24.3479	0.852787	187.349	75.2055	-75.6087	25.3457	-53.3585	23.4528	0.322404
0.8420	845.678	-27.7091	-7.71773	277.1	113.35	-94.8339	15.884	-63.7189	82.0662	0.322404
0.8427	727.545	-31.0704	-18.0791	294.445	126.172	-103.993	-10.3539	-63.4169	112.559	0.322404
0.8433	595.994	-30.1383	-23.2811	251.427	92.6003	-121.994	-37.2146	-44.508	127.823	0.322404
0.8440	439.762	-28.0198	-25.1146	258.448	37.6699	-152.215	-32.6325	-27.713	127.527	0.644807
0.8447	328.099	-25.2517	-24.7735	278.89	5.01714	-156.794	-6.39451	-19.7684	98.2201	0.322404
0.8453	265.499	-20.3652	-21.1065	153.761	-23.6714	-105.217	18.3285	-10.616	74.1375	0
0.8460	172.766	-18.2468	-17.4821	-78.7388	-61.8161	-53.0281	33.2831	-6.03971	59.4656	0
0.8467	73.2637	-15.5069	-11.0436	-166.976	-81.3479	-38.065	32.9763	-3.6006	45.757	0.322404
0.8473	6.1103	-12.1457	-5.24464	-125.129	-78.6019	-51.8038	8.25338	4.01873	45.4236	0.322404
0.8480	-35.4038	-8.78444	-0.383754	-114.185	-73.7189	-55.4766	-16.1536	12.5672	53.9822	0.322404
0.8487	-23.4827	-6.32706	1.74821	-109.918	-90.2053	-31.3544	-20.429	17.4455	53.9822	0.322404
0.8493	-9.46498	-8.16303	-0.383754	-71.4431	-126.523	23.8728	-18.2913	18.9786	49.7214	0.322404
0.8500	-127.538	-9.68831	-1.91877	-13.4214	-125.903	111.769	-6.0878	16.8415	52.4631	0
0.8507	-299.644	-13.671	-5.88423	35.3774	-85.9314	181.03	14.6665	5.2499	52.4631	0
0.8513	-378.719	-19.1507	-12.5786	42.6731	-74.6377	224.672	30.5319	-10.314	52.4631	0.322404
0.8520	-333.551	-21.8905	-16.5441	-23.8144	-101.489	271.375	26.2658	-17.0273	57.0203	0.322404
0.8527	-206.912	-24.9693	-20.808	-127.262	-117.056	263.735	-2.11911	-17.0273	53.3523	0
0.8533	-143.412	-25.5624	-22.343	-134.283	-112.483	207.895	-31.7216	-17.3293	43.3117	0
0.8540	-167.195	-22.5119	-19.6141	-44.2562	-152.156	182.572	-39.9564	-10.616	39.0139	0
0.8547	-190.138	-19.7721	-15.3075	14.0408	-229.973	151.444	-24.7044	5.55189	38.1247	0.322404
0.8553	-166.296	-17.9361	-11.0436	16.1745	-250.423	93.7683	7.34254	19.5826	36.2722	0
0.8560	-103.755	-15.7894	-8.31468	-26.9116	-213.796	65.6786	31.1454	25.994	37.1984	0.322404
0.8567	-73.8628	-13.9817	-5.54312	-98.9053	-184.499	34.8684	23.5147	27.8291	35.383	0.322404
0.8573	-115.317	-12.7389	-2.8142	-117.833	-161.003	-34.415	15.2799	25.39	30.7887	0
0.8580	-146.468	-12.1457	-0.68223	-125.748	-119.503	-94.5392	31.7588	23.5549	35.9758	0.322404
0.8587	-78.7151	-16.1001	-4.05074	-173.377	-59.3798	-140.312	55.5616	20.5118	37.1984	0
0.8593	-7.00888	-22.8226	-11.3421	-171.243	-34.3561	-189.146	88.5194	6.45784	24.9718	0
0.8600	-61.9417	-24.6586	-14.1136	-141.923	-67.3185	-216.919	125.446	-5.13375	18.2658	0.644807
0.8607	-184.926	-26.777	-15.0091	-142.542	-66.6991	-201.343	114.767	-10.012	9.74421	-1.61202
0.8613	-216.377	-28.3023	-15.0091	-125.748	-15.1237	-121.994	45.1798	-14.8902	-11.3374	-4.19125
0.8620	-144.011	-25.5624	-14.4121	-93.3991	2.27113	22.6486	-38.1254	-10.314	-37.5689	-1.61202
0.8627	-79.0146	-25.8731	-16.8426	-75.7104	17.8284	130.065	-99.1614	1.57962	-57.3908	0.644807
0.8633	-42.7122	-28.613	-21.7461	-46.3898	91.3822	91.932	-111.681	11.3593	-61.0588	0
0.8640	-71.4067	-31.3528	-28.4405	-12.5266	172.864	-7.2548	-87.8688	16.2375	-52.5372	0
0.8647	-190.737	-32.8781	-37.3094	-18.9276	206.735	-31.3544	-52.4759	20.8138	-40.607	0.322404
0.8653	-283.47	-34.4034	-43.1084	-36.0657	190.868	4.96501	-13.105	27.2252	-30.5664	0.322404
0.8660	-308.81	-37.4822	-45.5388	1.17007	174.082	21.7417	3.68056	32.1034	-32.3819	0
0.8667	-389.681	-38.6967	-42.1703	74.7468	164.317	39.448	-17.9846	40.0247	-50.6847	0.322404
0.8673	-592.34	-35.3355	-30.8709	144.951	133.491	84.6091	-47.8938	48.2712	-72.9889	0.322404
0.8680	-826.089	-27.3984	-10.7451	197.742	113.041	100.479	-72.31	51.9415	-90.3655	0.322404
0.8687	-1072.36	-14.5748	13.6446	227.613	130.745	55.0005	-97.033	56.8197	-101.962	0.322404
0.8693	-1382.73	-2.68335	32.875	275.861	185.985	-0.226713	-100.992	65.9722	-106.223	0.322404
0.8700	-1560.64	5.87513	42.3409	315.231	234.195	-14.8723	-79.0206	66.5762	-106.223	0
0.8707	-1431.85	10.1402	42.0424	280.129	203.679	-26.1626	-58.573	56.8197	-108.668	0
0.8713	-1160.24	16.8627	39.612	240.484	123.116	-61.2577	-39.659	55.2866	-108.668	0.322404
0.8720	-856.281	17.4559	28.0141	246.541	57.2016	-121.994	-15.8562	46.7381	-106.853	0.322404
0.8727	-328.638	4.63231	2.98476	241.998	6.84437	-170.216	-3.02996	14.1004	-100.443	0
0.8733	352.78	2.20317	-8.31468	171.45	-14.8243	-160.762	0.0185887	-8.47882	-83.6594	0.322404
0.8740	613.127	6.77899	-4.05074	57.9529	-2.31243	-129.929	-3.33667	-10.9179	-75.3972	0.322404
0.8747	434.61	4.94301	4.2213	45.7704	24.5489	-107.961	-6.0878	-9.70999	-68.0983	0.322404
0.8753	509.971	6.15758	19.4436	157.478	69.4038	-92.9975	0.325302	-3.90258	-47.6466	0.322404
0.8760	809.675	5.87513	29.8476	173.033	103.584	-80.8004	5.51155	0.975645	-39.088	0.322404
0.8767	847.175	0.0564916	27.4171	11.2877	96.5645	-56.9956	10.0844	3.41476	-40.9405	0.322404
0.8773	788.888	-6.94847	20.9786	-116.594	87.1083	-29.8354	11.3112	11.0341	-31.7891	0
0.8780	832.559	-19.1507	12.4507	-121.825	87.1083	-20.9936	3.37385	10.4301	-21.0816	0
0.8787	787.69	-30.7597	0.852787	-130.36	72.1498	0.680138	-1.50568	-9.70999	-10.7075	0
0.8793	666.502	-32.5956	-8.91163	-137.655	57.2016	59.5801	5.51155	-33.5204	-2.18596	0
0.8800	596.653	-31.0704	-17.7806	-106.545	51.0902	100.774	20.1594	-50.2922	2.70467	0.322404
0.8807	516.081	-29.5451	-21.1065	-101.039	31.5584	98.6427	29.3144	-66.158	33.234	0.322404
0.8813	394.594	-23.1333	-15.0091	-107.165	6.53467	80.0296	35.4208	-81.4199	66.1717	0.322404
0.8820	252.08	-17.0322	-9.50858	-94.0186	-11.1595	53.7762	47.3175	-86.2982	45.1272	0
0.8827	77.8165	-13.0496	-5.54312	-86.9981	-51.7509	19.6106	55.2549	-71.6635	-1.25971	0
0.8833	-39.3575	-3.58722	3.58171	-93.3991	-115.528	1.29226	53.4239	-26.4818	7.8917	0.322404
0.8840	-88.4796	6.77899	9.08218	-94.638	-141.471	26.6161	47.0108	26.296	58.5764	0.322404
0.8847	-198.345	3.41774	1.15126	-81.8361	-128.649	60.8043	45.7933	41.5578	38.7175	0
0.8853	-243.813	-6.0446	-5.24464	-74.4715	-123.157	77.5811	61.0546	20.5118	-22.6006	0.322404
0.8860	-95.4884	-5.11249	2.3878	-79.083	-92.0325	126.71	79.0577	2.18359	-4.92768	0.322404
0.8867	24.1417	-1.15808	10.9157	-75.7104	-36.1833	226.826	70.5162	-5.43574	51.5369	0
