MR32 ASCII
Name	KneeFJC1
Frequency	1500
Date	03-09-2015 08:59:34
"Time,s"	"RT TIB.ANT.,uV"	"RT MED. GASTRO,uV"	"RT LAT. GASTRO,uV"	"RT BICEPS FEM.,uV"	"RT VMO,uV"	"RT VLO,uV"	"RT RECTUS FEM.,uV"	"RT SOLEUS,uV"	"RT SEMITEND.,uV"	"Channel 12,uV"
0.0000	6.10409	-19.5709	0.483057	-21.014	0.526965	-2.6901	1.12111	23.25	54.0613	-7985.88
0.0007	6.10409	44.8212	5.37008	-17.0422	-2.51772	-8.16812	-1.92191	7.38546	-9.71631	-10544.1
0.0013	6.45289	104.03	12.3838	-11.2463	-3.10324	-10.0023	-2.85084	-6.04264	-42.9791	-9599.65
0.0020	4.88327	94.2657	6.89454	-4.83527	0.234207	-5.74703	0.224223	-13.6773	-21.0111	-9780.82
0.0027	-1.22082	60.3831	-14.1655	-2.39605	2.69338	-0.855941	2.33833	-19.7753	-11.8509	-9889.27
0.0033	-3.66245	58.2492	-13.2496	-6.97229	2.34207	-0.562475	1.72972	-34.124	-13.9938	-9790.8
0.0040	-1.83123	60.0813	4.45416	-7.28529	-0.995378	-3.30149	-0.992988	-64.0257	6.15039	-9820.08
0.0047	-1.83123	58.2492	9.94344	-2.39605	-2.22496	-2.37218	-0.704701	-102.483	58.3387	-9821.37
0.0053	-2.09283	58.551	10.5582	-8.5049	0.819723	0.978218	1.72972	-134.828	80.3067	-9820.72
0.0060	-3.66245	30.7789	11.7753	-10.6419	1.75655	1.27168	1.72972	-141.846	39.1106	-9791.76
0.0067	-2.44164	-18.6548	8.72639	-6.36788	1.17103	-0.855941	0.51251	-113.772	11.0331	-9879.29
0.0073	-0.261604	-52.8392	-0.125469	-6.97229	-0.409861	-3.91287	-1.60159	-60.0596	18.0504	-9812.68
0.0080	-3.92406	-65.3512	-12.641	-5.75268	-0.995378	-3.91287	-2.85084	1.88962	26.8998	-9567.48
0.0087	-3.66245	-76.3329	-15.0814	-1.17644	0.526965	-1.14941	-0.384382	37.8963	31.7825	-10513.5
0.0093	-0.261604	-101.357	-7.14547	0.960579	1.17103	-0.244554	2.05004	66.5868	35.4465	-8425.76
0.0100	-1.83123	-111.121	-1.64992	-0.259032	0.526965	-1.14941	1.44143	101.68	32.3959	-1832.28
0.0107	-0.872013	-47.0412	3.53823	-2.39605	-1.9322	-3.91287	-2.2102	76.9624	19.2772	103.938
0.0113	1.83123	62.2151	13.6071	-2.69825	-3.10324	-4.81772	-3.45944	22.9454	-0.261719	-221.392
0.0120	0.610409	92.1211	18.7953	0.960579	-0.995378	-1.14941	0.224223	7.38546	-16.431	-39.2584
0.0127	-0.261604	47.5693	15.7401	3.702	1.46379	1.5896	2.05004	5.24665	-23.1457	68.8632
0.0133	1.83123	28.0415	12.6912	-0.874234	2.04931	0.978218	0.832828	7.69001	-20.0951	-29.9265
0.0140	2.44164	21.3275	5.67121	-8.1919	0.526965	-2.07871	-1.60159	8.90823	-13.0778	-0.965372
0.0147	1.56962	1.78897	-2.56585	-6.97229	-0.0585516	-2.6901	-1.92191	-2.38107	-6.96826	-0.321791
0.0153	0	-7.67316	-5.31362	-4.83527	1.75655	0.366832	0.51251	-16.4183	1.8811	-0.643581
0.0160	-4.27286	23.4613	-5.62102	-10.0267	2.04931	1.88307	2.05004	-12.7567	11.6465	-0.643581
0.0167	-5.14488	66.181	-2.56585	-10.0267	0.234207	-0.244554	0.51251	18.6747	14.6971	-0.643581
0.0173	-3.31365	57.6349	-0.432869	-3.31346	-1.9322	-3.30149	-2.85084	46.4446	13.4785	-0.643581
0.0180	-3.66245	26.813	-1.64992	-1.17644	-1.9322	-2.37218	-2.85084	42.4785	-2.39636	-0.643581
0.0187	-3.31365	17.3508	-1.34879	-1.79164	-0.70262	0.660297	0.51251	30.5732	-34.1297	-0.321791
0.0193	-3.31365	12.7814	-1.34879	-0.259032	-0.0585516	1.88307	1.72972	38.2078	-45.7272	-0.321791
0.0200	-2.09283	5.75487	-3.18065	0.0431721	-0.70262	0.366832	0.832828	25.6934	-22.8431	-0.643581
0.0207	1.56962	1.78897	-4.7051	1.56499	-2.51772	-2.98356	-2.2102	-23.4438	-6.96826	-0.643581
0.0213	2.79044	-0.0431077	-4.3977	10.1131	-3.45455	-3.30149	-3.13912	-41.4471	-12.767	-0.321791
0.0220	2.44164	-4.31077	-1.34879	27.8136	-0.409861	0.0489109	0.51251	-24.0529	-2.69897	0
0.0227	1.56962	-10.4105	2.31491	58.6385	2.04931	2.20099	2.33833	-18.2525	19.5798	-0.321791
0.0233	-0.610409	-8.27667	4.14676	79.6956	0.819723	1.5896	2.05004	-22.2187	21.4119	-1.93074
0.0240	-1.22082	-0.959146	5.06268	38.4987	-1.28814	-0.562475	0.224223	-18.2525	6.453	-2.25253
0.0247	0.610409	-1.56265	5.37008	-24.3706	-2.22496	-2.07871	-1.92191	-6.04264	-3.9176	-0.321791
0.0253	2.18003	-19.2691	6.27974	-33.5231	-0.70262	-1.14941	-0.704701	0.359928	-0.261719	0
0.0260	1.83123	-32.6972	8.41899	-15.2182	0.526965	0.978218	1.72972	-1.16285	5.53699	-0.321791
0.0267	1.56962	-15.605	8.72639	-6.97229	1.17103	1.27168	2.05004	0.359928	4.93176	0
0.0273	0	8.81552	4.14676	-4.53307	-0.70262	-2.07871	-1.31331	-3.91076	1.8811	0.321791
0.0280	-0.261604	19.1829	2.00751	6.15202	-1.58089	-2.98356	-3.45944	-18.5571	-2.69897	0
0.0287	0.959214	21.3275	4.45416	25.0722	1.17103	0.0489109	-0.384382	-25.2711	-10.9349	-0.321791
0.0293	0	18.2669	4.75528	33.3073	2.34207	1.88307	2.33833	-19.7753	-17.9604	-0.321791
0.0300	-0.610409	16.133	6.58714	28.4288	1.17103	0.978218	1.72972	-5.12898	-17.0444	0
0.0307	-0.610409	13.0832	10.5582	27.2092	-1.28814	-2.6901	-2.53052	9.51734	-13.683	0
0.0313	-0.610409	10.3351	13.2997	30.5658	-2.22496	-3.30149	-3.74773	2.80329	-9.71631	-0.321791
0.0320	0.348805	15.8313	12.3838	28.1158	-0.995378	-0.244554	-0.0960956	-6.04264	-3.9176	0
0.0327	-0.610409	19.1829	5.67121	29.9506	-0.0585516	1.27168	2.05004	4.63754	0.965088	0
0.0333	-3.92406	9.41903	-2.87325	31.7854	-0.0585516	-0.244554	1.12111	10.431	5.53699	0
0.0340	-5.75528	-1.2609	-12.9422	-1.79164	-1.58089	-2.98356	-1.60159	7.07398	2.48633	0
0.0347	-2.70324	-10.4105	-24.8429	-44.5104	-1.58089	-2.37218	-2.2102	7.69001	-4.22839	0
0.0353	-0.872013	-22.0065	-26.9822	-42.3734	0.526965	0.366832	0.51251	5.5512	-2.08557	0
0.0360	-1.48242	-20.4869	-13.8581	-18.877	1.75655	2.20099	2.33833	-3.30165	4.01575	0
0.0367	-1.83123	-9.49446	-2.87325	-3.61566	0.819723	1.5896	1.44143	-13.0682	5.53699	0
0.0373	-3.31365	-9.80699	-7.14547	-8.5049	-1.58089	-2.37218	-2.2102	-16.4183	1.57031	0
0.0380	-5.14488	-12.2426	-17.8292	-29.8643	-1.9322	-2.6901	-2.85084	-12.7567	0.654297	0
0.0387	-3.92406	-1.87518	-24.2344	-30.7817	-0.0585516	0.0489109	0.224223	-16.1137	2.79712	-0.321791
0.0393	-2.44164	6.36916	-22.4025	-14.3007	0.526965	0.978218	1.12111	-22.2187	-5.14441	-0.321791
0.0400	-1.48242	-5.2268	-10.8092	-7.8897	0.526965	0.0489109	0.224223	-6.04264	-14.599	0
0.0407	-3.05204	-23.8385	1.70638	-13.6855	-1.58089	-2.98356	-1.92191	18.3702	-10.3297	0
0.0413	-3.66245	-25.3689	5.67121	-20.7118	-2.22496	-4.20634	-3.13912	34.8508	0.965088	-0.321791
0.0420	-0.261604	-11.0248	7.19566	-20.0966	-0.0585516	-0.855941	-0.992988	46.7492	8.59582	-0.321791
0.0427	3.05204	-1.2609	3.83936	-15.2182	0.819723	1.5896	0.832828	35.1553	11.9491	0
0.0433	3.66245	-4.00901	-8.0614	-11.5485	1.17103	0.366832	1.12111	9.51734	13.1677	0
0.0440	2.79044	-9.80699	-7.754	-9.72451	-0.0585516	-1.76079	-0.992988	0.359928	6.76379	0
0.0447	2.79044	-10.4105	8.72639	-4.83527	-1.28814	-1.76079	-2.2102	-2.07651	-8.19507	0
0.0453	2.79044	-6.75713	18.1868	1.87799	0.234207	0.978218	0.832828	-6.65868	-14.599	0
0.0460	3.05204	-2.17694	15.439	3.702	1.46379	2.20099	2.65864	-3.30165	-10.9349	0
0.0467	4.01126	2.70501	12.6912	10.7283	0.819723	0.660297	0.51251	1.88962	-20.7085	-0.321791
0.0473	4.01126	4.23533	10.8594	30.868	-1.28814	-1.76079	-2.2102	2.19418	-36.2726	0
0.0480	2.44164	2.70501	6.58714	46.1294	-2.51772	-2.37218	-2.85084	10.7356	-25.8938	0
0.0487	2.79044	8.81552	2.00751	43.9923	0.234207	0.0489109	-0.384382	30.2686	-1.16956	0
0.0493	4.62167	17.6634	-1.04139	39.1031	1.75655	1.27168	1.72972	37.8963	2.79712	0
0.0500	3.66245	9.73156	0.483057	35.7465	0.234207	0.366832	1.12111	28.4413	-4.83362	-0.321791
0.0507	0.348805	-9.80699	6.27974	28.1158	-1.58089	-2.6901	-1.92191	21.4227	4.01575	-0.321791
0.0513	-0.610409	-19.2691	10.8594	24.7592	-2.22496	-3.30149	-3.45944	28.1367	20.4958	-0.321791
0.0520	0.959214	-15.2924	12.9986	35.4443	-0.995378	-0.562475	-0.704701	13.788	12.2517	-0.321791
0.0527	2.44164	-5.2268	14.8305	54.6666	1.17103	1.27168	1.72972	-28.9327	-5.14441	0
0.0533	4.01126	-7.36063	12.9986	60.1603	1.46379	0.660297	1.72972	-41.4471	4.31836	0
0.0540	2.79044	-49.7786	5.67121	58.6385	-0.70262	-2.37218	-0.992988	-13.0682	2.48633	-0.321791
0.0547	-0.872013	-89.7609	-6.83807	50.0904	-0.995378	-2.6901	-2.53052	23.5545	-32.2977	0
0.0553	-3.31365	-61.9888	-18.4377	-16.1356	0.526965	0.366832	0.224223	49.8016	-60.0726	0
0.0560	-3.92406	-12.2426	-22.7099	-84.7899	0.526965	0.660297	1.72972	52.5496	-53.3579	-0.321791
0.0567	-1.22082	3.31929	-21.1855	-62.211	0.234207	-0.562475	0.832828	35.1553	-30.1631	0
0.0573	2.79044	2.40325	-15.3825	-13.0811	-2.22496	-2.6901	-1.92191	41.5648	-30.4739	0
0.0580	2.44164	6.98344	-4.3977	2.18019	-3.45455	-3.59495	-4.06805	36.069	-27.415	0
0.0587	0.348805	17.6634	7.50306	3.3998	-0.70262	0.0489109	-1.31331	-60.0596	25.3785	0
0.0593	-1.22082	17.0491	12.0827	-31.0839	1.75655	2.81238	1.12111	-95.4641	64.7427	0
0.0600	-3.66245	5.45312	-0.733995	-84.4877	1.46379	1.5896	0.51251	-10.6248	39.724	0
0.0607	-2.70324	2.70501	-17.5218	-82.9659	-0.995378	-1.76079	-1.60159	22.0318	10.4197	0.321791
0.0613	-1.22082	17.6634	-15.3825	-40.5494	-2.51772	-2.6901	-2.85084	10.431	10.1171	0.321791
0.0620	-3.31365	15.217	-11.7251	-11.5485	0.234207	0.0489109	-0.0960956	35.1553	13.7811	0
0.0627	-5.75528	-14.6889	-19.9622	-2.39605	1.46379	1.88307	1.72972	79.7103	10.4197	0
0.0633	-6.36569	-26.2849	-12.0262	2.48239	-0.409861	0.366832	1.12111	87.338	6.15039	-0.643581
0.0640	-6.9761	-22.6207	10.8594	6.15202	-2.51772	-2.37218	-0.384382	30.5732	8.28503	-1.93074
0.0647	-4.88327	-21.403	17.572	-3.92866	-2.22496	-2.6901	-0.992988	-10.9294	12.8651	-0.965372
0.0653	-1.22082	-11.0248	5.67121	-11.8615	-0.995378	-1.14941	-0.0960956	-23.7484	11.3357	0.321791
0.0660	-2.09283	6.98344	-2.26472	-12.4659	-0.70262	-0.244554	-0.0960956	-48.1612	8.59582	0
0.0667	-2.44164	20.7132	2.31491	-21.014	0.234207	0.0489109	-0.0960956	-58.5368	5.23437	0
0.0673	3.05204	13.0832	3.83936	-29.8643	0.234207	-1.14941	-1.31331	-54.5707	-5.74963	0.321791
0.0680	6.7145	-14.6889	-0.733995	-32.6057	-0.0585516	0.0489109	-2.2102	-43.2745	-13.3804	-0.321791
0.0687	7.0633	-37.5791	-0.733995	-28.6447	2.04931	4.03515	0.51251	-24.3575	-10.9349	-0.321791
0.0693	6.45289	-40.9307	3.53823	-18.5748	3.27889	4.64653	2.33833	-8.79056	-9.11108	0
0.0700	5.84249	-45.2092	5.97861	-11.8615	1.46379	2.20099	1.44143	4.94209	-9.41369	0
0.0707	6.10409	-40.3272	5.37008	-11.2463	-1.9322	-1.46733	-1.60159	14.0926	-4.83362	-0.321791
0.0713	6.7145	8.20123	1.70638	-11.2463	-3.7473	-2.98356	-2.85084	5.85576	8.89843	-0.321791
0.0720	3.40085	44.5194	-7.45287	-7.8897	-1.58089	-0.244554	0.224223	-18.8616	23.2439	-0.321791
0.0727	-0.610409	27.4273	-18.4377	-4.53307	0.819723	1.5896	1.72972	-33.8194	25.0677	-0.321791
0.0733	0	1.18546	-18.1303	-3.92866	1.46379	0.366832	1.12111	-27.1054	17.4452	-0.321791
0.0740	0	-20.7887	-12.0262	-4.53307	-0.409861	-2.37218	-1.92191	-19.7753	8.28503	-0.321791
0.0747	-2.09283	-25.6706	-9.58585	-2.69825	-1.58089	-2.37218	-3.45944	-19.1662	2.48633	-0.321791
0.0753	-3.31365	-15.605	-5.92215	0.658374	-0.0585516	0.0489109	-0.384382	-27.1054	1.57031	-0.321791
0.0760	-2.70324	0.571177	1.39898	0.0431721	1.75655	0.978218	2.33833	-27.1054	2.18372	0
0.0767	-0.872013	38.4089	12.6912	-1.79164	0.819723	0.366832	1.44143	8.60367	3.40234	0
0.0773	-1.83123	49.7031	23.0675	-4.53307	-1.58089	-2.37218	-1.31331	33.3211	2.48633	-0.321791
0.0780	-2.70324	27.4273	27.0324	-5.14827	-2.81048	-3.91287	-3.45944	14.4041	0.351684	-0.321791
0.0787	-0.261604	15.8313	27.9483	-2.69825	-1.28814	-1.14941	-1.60159	0.0553736	0.965088	-0.321791
0.0793	2.79044	15.8313	26.1164	0.960579	0.819723	0.978218	1.12111	12.2653	2.48633	-0.321791
0.0800	4.01126	15.8313	14.5231	2.48239	1.17103	0.0489109	1.12111	19.893	0.965088	0
0.0807	3.40085	-5.52856	-1.95732	0.658374	-0.995378	-2.6901	-1.60159	-10.0157	-2.08557	0
0.0813	2.18003	-25.6706	-8.66992	0.0431721	-2.22496	-2.98356	-2.85084	-42.9699	-2.69897	-0.321791
0.0820	-1.83123	-14.6889	-10.1944	3.3998	-0.70262	-0.562475	-0.704701	-49.3794	0.351684	-0.321791
0.0827	-3.92406	-2.47869	-5.31362	4.015	0.234207	0.0489109	0.51251	-65.86	1.2677	0
0.0833	-5.49368	-3.39473	10.2508	9.19565	0.234207	-0.562475	0.51251	-73.4877	0.0490723	-0.965372
0.0840	-9.76654	-12.8569	15.1316	19.2655	-0.409861	-0.562475	-0.0960956	-39.3083	-1.48035	-2.25253
0.0847	-8.19692	-18.3531	2.00751	12.8653	-0.995378	-0.855941	-0.992988	-7.57234	-2.39636	-0.643581
0.0853	-3.31365	-9.19271	-12.3336	3.0976	-0.0585516	0.366832	-0.0960956	2.19418	-1.16956	0.321791
0.0860	-3.31365	3.31929	-23.927	4.015	0.819723	1.27168	1.44143	19.5884	0.654297	-0.321791
0.0867	-2.70324	7.2852	-29.1151	2.48239	0.819723	0.660297	1.72972	44.6104	1.57031	0
0.0873	0.959214	-2.17694	-21.1855	-4.23086	-1.28814	-2.6901	-1.60159	42.783	-0.261719	0
0.0880	3.40085	-12.8569	-8.97732	-7.58749	-2.51772	-4.20634	-4.06805	18.6747	-0.261719	0
0.0887	1.56962	-9.49446	-6.53695	-6.67008	-0.409861	-1.46733	-0.992988	2.80329	4.31836	0
0.0893	-3.66245	-4.92505	-6.83807	-5.14827	1.17103	1.27168	1.44143	10.7356	5.53699	0
0.0900	-5.49368	-11.9408	2.62231	-3.31346	0.819723	0.366832	0.51251	15.0132	1.57031	-0.321791
0.0907	-3.31365	-24.7546	9.94344	-2.09385	-1.28814	-2.98356	-2.85084	-3.30165	-3.31238	-0.321791
0.0913	-1.22082	-29.3348	7.19566	-1.47864	-2.51772	-3.30149	-3.45944	9.82189	-3.61499	-0.321791
0.0920	2.18003	-23.235	6.58714	0.658374	-0.70262	-0.244554	-0.0960956	19.893	-0.866943	-0.321791
0.0927	6.10409	-13.4711	5.97861	4.61941	1.17103	0.660297	2.05004	-4.82443	-1.16956	0
0.0933	4.88327	-9.49446	-0.432869	11.9479	0.819723	-0.562475	1.44143	-4.51987	-4.22839	0
0.0940	1.83123	-4.92505	-4.7051	15.9089	-0.995378	-0.855941	-0.992988	3.71695	-6.66565	0
0.0947	1.83123	20.0989	-2.26472	13.1675	-0.70262	-0.244554	-1.92191	-3.30165	-7.88427	0
0.0953	0.959214	39.325	2.31491	10.4153	0.819723	1.27168	0.51251	-6.04264	-11.8509	0
0.0960	-0.610409	24.9809	9.33491	10.1131	1.17103	1.5896	2.65864	-2.07651	-16.1284	0.321791
0.0967	1.83123	8.81552	19.1027	7.97604	0.526965	0.660297	1.72972	0.0553736	-15.515	0
0.0973	4.88327	6.0674	22.7601	3.702	-1.58089	-1.46733	-1.31331	-1.4674	-13.3804	0
0.0980	5.84249	10.0333	18.1868	2.79539	-2.81048	-2.6901	-2.53052	-2.68562	-15.2124	0.321791
0.0987	5.49368	9.73156	15.439	5.83902	-0.995378	-0.562475	0.224223	3.10784	-9.11108	0
0.0993	0.610409	2.70501	18.1868	5.23461	0.819723	2.20099	2.33833	6.16031	20.4958	0
0.1000	-7.58651	7.2852	9.94344	2.18019	1.17103	2.81238	1.44143	-6.65868	27.5132	0
0.1007	-10.6386	13.0832	-17.2144	3.3998	-0.409861	0.0489109	-1.60159	-4.82443	-10.9349	0
0.1013	-8.19692	2.40325	-35.834	7.67384	-1.9322	-3.30149	-3.74773	21.4227	-36.8778	0
0.1020	-3.92406	-14.9907	-38.8829	9.81085	-0.995378	-1.76079	-1.60159	52.245	-29.2471	0.321791
0.1027	-2.70324	-29.3348	-34.9181	8.28904	0.819723	0.0489109	0.224223	83.981	-19.7925	0
0.1033	-1.48242	-28.4187	-16.2985	7.67384	0.819723	-0.855941	0.51251	76.6578	-26.499	0
0.1040	5.23208	-11.9408	0.790456	3.0976	-2.22496	-3.30149	-1.92191	30.8777	-20.7085	0
0.1047	10.1153	4.23533	7.50306	-7.58749	-3.10324	-2.37218	-3.13912	0.359928	27.2106	0
0.1053	8.89453	18.2669	11.4679	-11.5485	-0.995378	1.5896	0.51251	-17.3389	58.6413	-0.321791
0.1060	4.88327	29.8736	3.83936	-6.67008	0.526965	4.03515	2.05004	-32.2897	34.8413	-0.321791
0.1067	1.22082	25.8969	-12.3336	-2.39605	1.46379	4.03515	1.44143	-14.2864	11.6465	0
0.1073	-1.83123	10.3351	-20.8781	-1.47864	-0.0585516	0.978218	-0.704701	7.38546	6.76379	0
0.1080	-2.70324	6.98344	-17.5218	-1.47864	-1.9322	-0.855941	-2.85084	-27.4099	-1.16956	0
0.1087	0	3.62104	-9.89325	2.48239	0.234207	1.88307	-0.992988	-63.4166	-13.0778	0
0.1093	2.79044	-14.6889	-2.56585	7.05863	2.34207	4.64653	2.05004	-26.8008	-21.6163	0
0.1100	2.79044	-22.9225	10.5582	7.97604	1.17103	4.32861	1.44143	33.3211	-28.9444	-0.321791
0.1107	2.18003	-7.36063	19.7112	4.92162	-1.58089	1.27168	-1.60159	19.5884	-33.2137	0
0.1113	-0.610409	3.93357	17.572	2.48239	-2.51772	-1.46733	-2.53052	-17.6434	-32.6085	0
0.1120	-4.88327	-8.57843	21.2357	4.015	-0.0585516	0.0489109	0.224223	20.5021	-37.1804	0
0.1127	-6.9761	-14.6889	26.1164	4.015	2.04931	2.20099	2.05004	74.2145	-35.6592	-0.321791
0.1133	-6.7145	-2.78044	24.2908	-0.561237	0.526965	0.366832	1.44143	54.0723	-13.0778	0
0.1140	-1.48242	7.2852	17.8794	-3.31346	-1.58089	-3.30149	-0.384382	-9.71115	-1.48035	0
0.1147	1.56962	6.67091	-0.733995	-1.17644	-1.28814	-3.91287	-1.92191	-35.6468	-23.7591	0
0.1153	-0.872013	1.48721	-22.4025	1.26278	0.819723	-1.14941	-0.0960956	-19.7753	-14.599	0
0.1160	0	8.50299	-30.947	0.658374	2.34207	-0.244554	1.72972	-6.04264	58.3387	0
0.1167	2.44164	6.67091	-24.2344	-0.561237	1.17103	-2.6901	1.72972	25.9979	90.3829	-0.321791
0.1173	1.83123	-18.0406	-8.97732	-1.79164	-1.9322	-6.35842	-1.31331	86.4244	41.5478	0
0.1180	1.56962	-22.9225	4.45416	-1.47864	-2.81048	-6.9698	-3.45944	92.2178	6.76379	0
0.1187	1.22082	-5.84109	9.64231	0.658374	-1.58089	-3.91287	-0.992988	55.2975	15.3024	0
0.1193	-0.872013	3.31929	8.72639	2.18019	0.234207	-1.76079	1.12111	58.959	20.7985	-0.321791
0.1200	-4.53447	5.15137	8.72639	2.48239	1.75655	-0.855941	1.44143	73.9099	25.0677	-0.321791
0.1207	-8.19692	-1.87518	3.83936	0.0431721	-0.0585516	-2.07871	-0.992988	72.3872	29.3452	0
0.1213	-6.9761	-20.7887	-13.5507	-0.874234	-0.70262	-2.37218	-2.53052	40.0351	19.2772	0
0.1220	-1.83123	-28.117	-23.927	0.345377	0.234207	-0.562475	-0.0960956	-26.1848	11.9491	0
0.1227	1.83123	-19.8726	-13.8581	0.960579	-0.0585516	0.660297	1.12111	-70.4352	10.4197	0
0.1233	3.40085	-22.6207	-0.733995	1.56499	-0.409861	-0.244554	0.832828	-71.0513	6.453	0
0.1240	2.44164	-28.7205	2.31491	-0.874234	-1.58089	-2.37218	-1.31331	-58.8414	3.40234	0
0.1247	0	-31.7811	-2.87325	-2.09385	-2.51772	-2.98356	-3.45944	-78.679	3.71313	-0.321791
0.1253	-1.22082	-36.3505	-10.1944	0.658374	-0.409861	-0.855941	-0.704701	-96.6823	5.84778	-0.321791
0.1260	0.348805	2.40325	-9.58585	1.87799	1.75655	0.978218	1.72972	-75.0174	10.4197	0
0.1267	0.610409	54.5851	2.62231	0.345377	1.46379	0.660297	0.832828	-54.2661	17.7478	-0.321791
0.1273	0	47.2676	12.6912	-1.47864	-1.28814	-1.76079	-1.31331	-49.684	18.3612	0
0.1280	0.610409	25.8969	5.67121	-2.39605	-2.51772	-2.98356	-2.2102	-36.5604	12.5625	0
0.1287	-1.48242	28.3433	-8.3688	-1.47864	-0.409861	-1.14941	-0.384382	-8.18145	8.28503	0
0.1293	-3.31365	23.7631	-17.2144	0.658374	0.819723	0.660297	1.44143	11.9607	3.71313	0
0.1300	-0.610409	-1.2609	-19.0462	2.18019	0.234207	0.660297	1.72972	22.6409	-8.19507	0
0.1307	3.05204	-18.6548	-8.3688	2.48239	-1.28814	-1.76079	-0.384382	24.1637	-22.8431	0
0.1313	2.79044	-23.235	2.31491	2.79539	-2.22496	-2.6901	-2.85084	0.97596	-27.7258	0
0.1320	2.18003	-36.9648	4.75528	3.0976	-1.58089	-1.14941	-1.31331	-5.43354	-17.0444	0
0.1327	3.66245	-31.7811	10.2508	3.3998	-0.409861	-0.244554	1.44143	11.047	-7.27905	0.321791
0.1333	4.62167	8.81552	14.8305	2.18019	0.234207	0.0489109	1.44143	9.82189	-14.2964	-0.321791
0.1340	3.66245	31.3932	13.6071	-2.09385	-1.58089	-1.46733	-1.31331	-6.65868	-11.2457	-0.321791
0.1347	1.56962	21.931	12.3838	-3.61566	-2.51772	-2.98356	-2.85084	-18.2525	11.9491	-0.321791
0.1353	-2.44164	16.133	10.5582	-1.79164	-0.995378	-0.244554	-0.384382	-14.8955	16.5292	0
0.1360	-4.88327	15.5295	3.83936	-0.561237	0.234207	1.88307	1.72972	-12.7567	1.8811	-0.321791
0.1367	-3.66245	13.3849	2.62231	10.7283	0.234207	0.978218	1.44143	-23.7484	-3.00159	-1.93074
0.1373	-0.610409	16.7473	8.11159	16.2219	-1.28814	-0.562475	-0.0960956	-31.6806	-2.08557	-1.93074
0.1380	0.348805	21.015	5.67121	10.1131	-2.81048	-1.76079	-1.60159	-31.6806	-4.83362	-1.28716
0.1387	-1.48242	24.3774	-1.04139	14.3871	-1.28814	-0.562475	0.224223	-28.3236	-4.531	-1.93074
0.1393	-0.610409	29.8736	-6.53695	10.1131	0.234207	1.27168	2.33833	-22.2187	3.40234	-0.965372
0.1400	0	20.4115	-10.8092	-3.92866	-0.0585516	0.366832	0.832828	-15.2001	9.81445	0
0.1407	-2.70324	-10.4105	-12.0262	-5.75268	-1.9322	-2.6901	-1.92191	2.80329	6.76379	0
0.1413	-3.05204	-26.5867	-7.14547	-5.75268	-3.10324	-4.52426	-4.06805	22.6409	-0.866943	0
0.1420	-0.872013	-12.2426	4.14676	-4.83527	-1.28814	-1.76079	-1.92191	10.7356	-4.83362	0
0.1427	-0.261604	2.70501	11.7753	-3.31346	1.17103	0.978218	0.832828	-11.5385	-7.58166	0
0.1433	-1.22082	0.269423	8.41899	-2.69825	1.17103	0.366832	0.832828	-1.4674	-14.2964	-0.321791
0.1440	-1.83123	-9.80699	-1.34879	9.19565	-1.58089	-2.07871	-0.704701	11.3516	-22.5323	-2.25253
0.1447	-0.261604	-12.2426	-5.62102	15.6067	-1.9322	-2.07871	-1.31331	4.02843	-17.0444	-1.93074
0.1453	0.959214	-8.57843	-3.78917	1.26278	0.234207	0.978218	0.51251	0.671405	11.3357	0
0.1460	0.348805	-6.14284	-1.04139	-6.67008	0.526965	1.88307	1.44143	4.02843	36.9759	0
0.1467	1.22082	-4.61252	0.790456	-3.92866	0.234207	0.978218	1.44143	9.21278	41.5478	0
0.1473	2.79044	-4.31077	1.39898	-4.23086	-1.58089	-2.07871	-1.60159	12.8744	35.7491	0
0.1480	3.05204	-5.2268	4.14676	-3.92866	-2.81048	-4.20634	-4.06805	18.9793	26.5972	-0.321791
0.1487	2.18003	-6.4446	7.81046	-1.17644	-0.0585516	-0.855941	-1.60159	22.9454	17.1344	-0.321791
0.1493	0.959214	-4.00901	5.97861	0.960579	2.34207	2.49446	1.44143	-1.4674	15.6132	0
0.1500	-0.261604	5.15137	0.483057	1.56499	2.04931	0.978218	1.12111	-20.0868	24.7651	0
0.1507	-2.44164	9.11727	-6.83807	-0.561237	-0.70262	-2.6901	-1.92191	6.16031	16.5292	-0.321791
0.1513	-2.70324	3.62104	-11.1103	-4.53307	-1.9322	-3.59495	-3.74773	36.3735	-19.7925	0
0.1520	-1.22082	1.78897	-12.9422	-6.36788	-0.0585516	-0.855941	-0.992988	45.2264	-42.0631	-0.321791
0.1527	-1.83123	-0.959146	-20.2696	-4.53307	0.526965	0.366832	1.12111	40.6442	-31.6925	0
0.1533	-3.92406	-11.0248	-19.0462	2.48239	-0.70262	-0.244554	1.12111	43.6967	-27.1124	0.321791
0.1540	-4.27286	-11.9408	-0.432869	7.97604	-1.9322	-1.46733	-1.31331	38.5123	-40.2392	0
0.1547	-2.09283	-2.47869	14.5231	11.0305	-3.10324	-2.07871	-2.53052	-6.96323	-31.0791	-0.321791
0.1553	1.56962	4.83884	21.8442	16.5241	-1.9322	-0.244554	-0.992988	-42.6654	-9.41369	-0.321791
0.1560	2.44164	8.81552	23.3749	21.1003	-0.0585516	1.5896	1.12111	-42.9699	-5.74963	0
0.1567	2.18003	10.9493	9.64231	25.0722	0.234207	1.5896	1.44143	-39.3083	-7.58166	0
0.1573	3.05204	12.1671	-6.22955	26.8962	-0.409861	-0.562475	-0.704701	-40.838	-6.66565	0
0.1580	2.18003	12.1671	-5.92215	22.6222	-1.28814	-2.07871	-2.53052	-61.5893	-7.58166	0
0.1587	-1.22082	4.53708	-4.0903	25.3744	-0.70262	-0.244554	-0.384382	-83.8633	-5.14441	0
0.1593	-2.70324	-8.89096	-8.3688	10.1131	0.234207	1.27168	2.05004	-72.8786	-6.66565	0
0.1600	-1.22082	-15.605	-12.9422	-49.7018	-0.0585516	1.5896	1.72972	-52.4319	-13.3804	0.321791
0.1607	-1.83123	-24.4528	-17.8292	-79.6093	-0.995378	0.0489109	-0.704701	-26.4893	-15.2124	0
0.1613	-3.92406	-36.3505	-20.8781	-50.9215	-1.9322	-1.46733	-2.85084	31.1823	-11.8509	-0.321791
0.1620	-3.66245	-50.0911	-18.4377	-26.2054	-0.409861	0.0489109	-0.992988	80.9285	-5.44702	-0.321791
0.1627	-1.22082	-57.4086	-13.8581	-17.6574	1.46379	0.978218	1.44143	78.1806	0.654297	-0.321791
0.1633	1.83123	-35.4345	-10.5018	-10.0267	1.17103	0.0489109	1.72972	56.8202	4.31836	0
0.1640	4.01126	-10.723	-3.78917	-6.05488	-1.58089	-2.07871	-0.704701	38.5123	-0.866943	0
0.1647	4.01126	-6.4446	7.81046	-5.45047	-1.9322	-2.07871	-1.92191	0.97596	-9.41369	0
0.1653	3.66245	-8.57843	14.2157	-6.05488	0.234207	0.660297	-0.0960956	-17.3389	-5.44702	-0.321791
0.1660	1.83123	-14.0747	14.8305	-4.23086	0.526965	0.978218	1.12111	14.0926	-5.14441	0
0.1667	-2.70324	9.11727	10.2508	-0.259032	-0.0585516	0.978218	1.72972	46.4446	-15.8258	0
0.1673	-2.09283	45.4355	2.92343	1.26278	-0.70262	-0.244554	-0.0960956	34.8508	-18.5657	0
0.1680	2.79044	39.325	4.75528	-0.874234	-1.58089	-1.14941	-2.53052	-5.12898	-13.3804	-0.321791
0.1687	5.23208	26.813	12.3838	-3.61566	-0.0585516	0.0489109	-0.704701	-25.8802	-7.58166	-0.321791
0.1693	5.23208	29.8736	13.6071	-6.05488	1.46379	1.5896	1.72972	-20.0868	-0.866943	-0.321791
0.1700	1.56962	27.729	9.02751	-5.14827	1.75655	1.27168	1.44143	-12.1476	1.2677	0
0.1707	-5.14488	20.7132	5.37008	-2.39605	-0.0585516	-1.14941	-0.992988	0.671405	-3.00159	0
0.1713	-7.93532	6.67091	-2.56585	-2.39605	-1.28814	-2.07871	-2.85084	42.4785	-3.9176	0
0.1720	-5.49368	0.269423	-21.1855	-5.45047	0.526965	0.366832	-0.704701	90.3905	-2.39636	0.321791
0.1727	-3.66245	9.11727	-29.1151	0.960579	0.819723	1.27168	1.72972	101.984	-8.49768	-0.643581
0.1733	-3.66245	12.1671	-16.9133	15.0023	0.234207	0.660297	2.97896	87.0335	-10.9349	-1.93074
0.1740	-2.70324	-7.36063	-5.31362	6.15202	-0.0585516	-0.562475	0.832828	74.2145	-3.00159	-0.643581
0.1747	0.959214	-25.6706	3.53823	-10.6419	-1.9322	-2.98356	-3.45944	64.7525	-1.78296	0.321791
0.1753	4.27286	-4.61252	14.8305	-8.1919	-0.995378	-1.46733	-2.53052	28.4413	-2.08557	0
0.1760	3.66245	23.7631	23.676	-3.31346	0.819723	1.88307	0.51251	-22.8278	6.15039	-0.321791
0.1767	4.01126	19.7972	31.612	-3.92866	-0.0585516	1.88307	0.51251	-34.124	9.20105	0
0.1773	7.32491	13.6975	33.7512	-4.23086	-2.22496	-1.14941	-1.92191	-21.305	-0.564331	0
0.1780	4.88327	20.4115	15.7401	-4.23086	-2.81048	-2.6901	-3.74773	-43.2745	-9.71631	-0.321791
0.1787	-3.92406	18.8812	-6.22955	-3.01125	-1.28814	-0.562475	-1.92191	-82.6451	-10.3297	-0.321791
0.1793	-7.58651	8.20123	-11.4177	-1.47864	-0.409861	0.660297	0.224223	-86.6112	-6.05224	0
0.1800	-4.27286	5.15137	-9.58585	-0.874234	0.234207	-0.244554	0.51251	-66.7737	-0.261719	0
0.1807	-1.22082	4.83884	-12.9422	-1.47864	-0.995378	-2.07871	-1.31331	-39.6129	-1.78296	0
0.1813	-0.872013	-9.49446	-14.4666	-2.39605	-1.9322	-3.30149	-3.45944	-1.16285	-6.05224	-0.321791
0.1820	0	-24.4528	-5.62102	-1.47864	-0.0585516	-0.855941	-1.31331	15.6223	5.23437	0
0.1827	2.18003	-20.7887	2.00751	-1.47864	0.526965	0.660297	1.44143	5.5512	13.7811	0
0.1833	2.44164	-6.75713	1.39898	-2.09385	0.234207	0.0489109	1.72972	-5.43354	-0.564331	-0.321791
0.1840	-1.83123	-0.646615	-2.56585	-3.92866	-1.28814	-2.07871	-0.992988	-13.9818	-16.7336	0
0.1847	-5.14488	-2.78044	-4.0903	-6.05488	-3.10324	-3.59495	-3.45944	-3.91076	-0.866943	0
0.1853	-4.88327	-0.0431077	2.00751	-5.75268	-1.28814	-1.76079	-0.992988	6.76942	35.1439	0
0.1860	-4.27286	0.269423	5.06268	-3.61566	0.819723	0.0489109	1.72972	-6.04264	39.1106	0
0.1867	-0.872013	-8.27667	1.09786	-0.259032	0.234207	0.366832	2.05004	-12.7567	19.2772	0
0.1873	4.01126	-11.6391	1.39898	-0.259032	-1.58089	-1.14941	-0.0960956	-4.51987	3.40234	-0.321791
0.1880	3.66245	-6.75713	3.83936	-3.92866	-3.7473	-3.30149	-3.13912	5.85576	-20.0951	-0.321791
0.1887	2.18003	0.269423	1.09786	-2.39605	-1.9322	-2.07871	-2.2102	10.7356	-35.3566	-0.321791
0.1893	2.44164	4.53708	-1.04139	2.79539	0.819723	0.660297	1.12111	-8.18145	-39.6258	-0.321791
0.1900	1.22082	8.50299	0.483057	3.702	0.819723	0.660297	1.72972	-36.5604	-44.2059	-0.321791
0.1907	-2.09283	6.98344	-0.432869	-0.561237	-1.28814	-2.07871	-0.704701	-35.3422	-29.2471	-0.321791
0.1913	-2.09283	-4.31077	-0.733995	-3.31346	-2.81048	-3.59495	-3.13912	-15.2001	-12.1617	-0.321791
0.1920	0.610409	-6.14284	2.92343	-0.561237	-0.995378	-0.562475	-0.704701	1.58507	-4.531	-0.321791
0.1927	0.348805	3.62104	-0.733995	0.658374	0.526965	1.27168	1.44143	15.3177	9.51184	0
0.1933	-3.92406	10.3351	-3.78917	-0.874234	0.234207	0.660297	1.12111	17.4496	30.8664	-0.321791
0.1940	-6.10409	11.8654	1.09786	-0.874234	-0.70262	-1.14941	-1.31331	5.85576	47.3465	-0.321791
0.1947	-3.92406	13.6975	-4.7051	1.26278	-1.28814	-2.07871	-2.85084	-3.60621	38.4972	0
0.1953	1.22082	18.2669	-9.58585	1.26278	0.526965	0.0489109	-0.384382	14.7086	13.7811	0
0.1960	3.05204	12.7814	-3.48177	-0.259032	1.17103	1.88307	2.05004	57.1248	-17.6497	0
0.1967	0	-8.89096	-7.14547	-1.17644	0.234207	1.27168	2.05004	81.8422	-47.5592	-0.321791
0.1973	-2.44164	-19.8726	-16.2985	-3.61566	-1.58089	-0.562475	-0.992988	65.0571	-56.4086	-0.321791
0.1980	-1.22082	-13.1586	-15.0814	9.50865	-2.51772	-2.37218	-3.13912	42.1739	-42.6765	0
0.1987	3.66245	-20.7887	-6.83807	43.0749	-1.9322	-1.46733	-0.992988	64.1434	13.4785	0
0.1993	8.28412	-43.9806	3.23083	62.2973	-0.995378	0.0489109	1.44143	53.7678	84.8868	-0.321791
0.2000	10.7258	-55.5766	12.3838	60.7755	-0.0585516	-0.244554	1.12111	-64.0257	90.9881	-0.321791
0.2007	7.0633	-64.7369	19.1027	61.0777	-0.70262	-2.07871	-1.60159	-132.696	52.54	0
0.2013	-0.261604	-74.5008	24.2908	66.5713	-1.9322	-2.6901	-3.45944	-80.8109	27.5132	-0.321791
0.2020	-1.83123	-75.7186	24.2908	70.2302	-0.995378	-0.855941	-1.31331	-56.398	0.965088	-0.321791
0.2027	-0.872013	-96.1732	13.2997	67.7909	0.234207	0.978218	0.832828	-69.5216	-21.9271	-0.321791
0.2033	-3.31365	-88.5431	-3.78917	69.6258	-0.70262	0.660297	1.72972	-49.3794	-6.66565	-1.60895
0.2040	-4.53447	-20.7887	-22.1014	75.7238	-2.22496	-1.14941	0.51251	-35.6468	14.3945	-1.60895
0.2047	-2.44164	-16.521	-29.4225	33.005	-3.10324	-2.98356	-2.2102	-47.5521	12.5625	0
0.2053	1.83123	-67.4851	-19.0462	-76.8571	-1.58089	-1.46733	-1.60159	-27.7145	3.40234	0
0.2060	5.23208	-69.6189	-7.754	-137.287	1.75655	2.20099	1.44143	23.5545	-3.31238	-0.321791
0.2067	4.01126	-58.3247	-5.62102	-91.8162	3.57165	4.03515	2.65864	43.0876	-4.531	-0.321791
0.2073	-0.261604	-45.8127	-12.641	-39.0168	2.34207	2.20099	0.224223	37.2872	-5.74963	0
0.2080	-3.05204	14.301	-17.5218	-21.9314	-0.70262	-1.14941	-2.2102	36.069	-10.3297	0
0.2087	-1.22082	125.389	-7.14547	-14.603	-0.995378	-2.07871	-1.60159	31.1823	-9.11108	0
0.2093	-1.22082	172.388	4.14676	-28.0295	0.234207	-0.855941	1.12111	22.6409	-2.69897	0
0.2100	-4.27286	113.492	3.83936	-36.8797	0.234207	-0.244554	1.12111	11.9607	0.0490723	0
0.2107	-4.27286	67.4096	-4.0903	-28.0295	-0.70262	-1.14941	-1.60159	-2.38107	-3.31238	0
0.2113	-1.48242	57.6349	-6.53695	-51.8389	-1.9322	-2.6901	-3.13912	-16.7298	-7.88427	0
0.2120	1.22082	43.9052	3.83936	-76.2527	-0.409861	-0.855941	-0.384382	-20.0868	-21.0111	0
0.2127	0.610409	39.9393	10.8594	-53.9759	2.34207	1.27168	2.65864	-10.3203	-42.0631	0
0.2133	-0.610409	49.7031	12.9986	-26.8099	1.75655	0.978218	2.05004	0.671405	-57.938	0
0.2140	-2.44164	34.7556	12.0827	-19.4922	-0.0585516	-1.14941	-0.0960956	6.76942	-67.7033	0.321791
0.2147	-6.7145	5.15137	4.45416	-17.9596	-1.28814	-2.98356	-2.85084	5.85576	-66.1739	0
0.2153	-7.32491	6.0674	1.70638	-14.603	-0.0585516	-0.855941	-1.31331	-2.38107	-50.6098	-0.321791
0.2160	-3.31365	16.7473	2.92343	-13.0811	0.819723	1.27168	1.72972	-14.5909	-8.49768	0
0.2167	-0.610409	18.2669	0.790456	-13.0811	0.234207	0.660297	1.44143	-22.5232	36.6651	0
0.2173	-0.872013	18.2669	-2.87325	-12.1637	-0.995378	-1.76079	-0.992988	-26.8008	25.3785	-0.321791
0.2180	-2.70324	14.6135	-5.00622	-10.9441	-1.9322	-2.98356	-2.53052	-25.2711	9.20105	-0.321791
0.2187	-3.31365	13.0832	-4.0903	-8.5049	-0.0585516	-0.244554	-0.384382	5.85576	11.9491	0
0.2193	-3.31365	12.7814	-2.56585	-5.75268	1.17103	2.20099	1.72972	33.6256	-2.69897	0
0.2200	-2.44164	12.4689	-3.18065	-6.05488	0.526965	0.660297	0.832828	14.0926	-11.5483	-0.321791
0.2207	-0.872013	12.7814	-3.48177	-7.28529	-1.58089	-3.30149	-1.60159	-13.6773	1.57031	0
0.2213	-0.610409	12.4689	-2.56585	-7.58749	-3.45455	-4.52426	-3.45944	-20.0868	44.2959	0
0.2220	-0.872013	17.0491	2.00751	-9.41151	-2.22496	-0.855941	-0.992988	-13.0682	80.0041	0.321791
0.2227	-1.83123	21.3275	9.33491	-3.31346	-0.409861	0.660297	1.72972	-4.82443	57.4227	-0.643581
0.2233	-1.83123	20.4115	12.3838	14.3871	0.234207	0.978218	2.33833	-4.82443	17.1344	-2.25253
0.2240	-2.09283	12.7814	2.92343	13.1675	-0.409861	0.366832	0.51251	-4.51987	1.2677	-0.965372
0.2247	-3.66245	-4.00901	-8.66992	-3.92866	-2.22496	-1.14941	-2.53052	-1.16285	1.2677	0.321791
0.2253	-1.22082	-13.7729	-5.62102	-4.83527	-0.70262	0.978218	-0.992988	-1.16285	1.57031	0
0.2260	4.27286	-11.9408	5.37008	0.345377	0.819723	4.03515	2.05004	4.94209	4.31836	-0.321791
0.2267	3.66245	-6.75713	10.5582	-0.259032	0.526965	4.32861	1.72972	15.9268	21.7145	-0.321791
0.2273	-0.872013	-1.2609	9.02751	-1.79164	-1.58089	2.49446	-0.704701	11.047	32.0933	-0.321791
0.2280	-1.83123	-4.61252	6.27974	-2.09385	-3.45455	1.27168	-1.92191	11.047	21.4119	0
0.2287	-0.610409	-8.89096	1.39898	0.345377	-1.9322	2.49446	-0.384382	25.9979	11.3357	0
0.2293	0.348805	-1.87518	-3.18065	2.48239	0.234207	4.03515	0.832828	22.0318	7.98242	-0.321791
0.2300	0.348805	8.81552	0.483057	7.37163	0.526965	3.71723	1.12111	6.16031	8.89843	-0.321791
0.2307	-0.610409	10.9493	1.70638	20.7981	-1.28814	0.366832	-0.384382	-4.51987	7.0664	0
0.2313	-1.22082	7.58695	-2.56585	35.4443	-3.10324	-1.76079	-2.2102	-13.9818	1.57031	0.321791
0.2320	-3.05204	6.67091	1.70638	43.3771	-2.22496	-1.76079	-0.992988	-14.5909	2.48633	0
0.2327	-5.14488	10.9493	8.11159	48.2664	-0.70262	-0.855941	0.832828	-6.65868	4.62097	-0.321791
0.2333	-3.31365	17.3508	1.70638	47.349	0.526965	-0.244554	1.44143	0.359928	-2.69897	-0.321791
0.2340	-1.48242	3.93357	-7.45287	38.4987	-0.0585516	-2.07871	0.224223	6.76942	-9.41369	0
0.2347	-3.05204	-14.0747	-6.53695	31.1702	-1.28814	-4.20634	-2.2102	12.8744	-0.564331	-0.321791
0.2353	-2.70324	-7.97492	3.83936	34.5269	-0.0585516	-4.20634	-0.384382	33.9302	7.36902	-0.321791
0.2360	2.18003	-4.00901	17.2708	42.1575	0.819723	-4.52426	2.65864	51.3244	1.8811	0.321791
0.2367	4.27286	-8.27667	21.8442	43.9923	-0.409861	-4.81772	2.05004	17.1451	-6.66565	0.321791
0.2373	1.22082	-2.17694	18.7953	46.1294	-1.9322	-5.74703	-0.992988	-31.3761	-13.3804	0
0.2380	-2.09283	8.81552	19.7112	18.6611	-2.51772	-6.35842	-2.2102	-35.9513	-13.9938	-0.321791
0.2387	-2.09283	20.7132	18.1868	-64.0458	-1.58089	-4.20634	-0.384382	-22.2187	-5.74963	0
0.2393	0.610409	22.2436	11.4679	-111.341	-0.995378	-2.37218	1.12111	-29.5418	-4.83362	0.321791
0.2400	2.79044	4.53708	3.83936	-73.5005	-0.995378	-2.6901	0.832828	-35.0377	-14.9098	0
0.2407	-0.872013	-13.4711	-12.0262	-28.9469	-1.28814	-3.30149	-1.31331	-24.3575	2.79712	-0.321791
0.2413	-7.58651	-19.5709	-29.4225	-12.7681	-1.58089	-3.59495	-2.85084	-31.0715	35.4465	0
0.2420	-9.41774	-22.9225	-22.7099	-3.01125	-0.409861	-1.14941	-0.704701	-45.4133	31.1772	0
0.2427	-5.49368	-25.0671	-5.00622	7.67384	1.46379	0.978218	2.33833	-25.5757	4.31836	-0.321791
0.2433	0.610409	-19.8726	1.70638	9.19565	0.526965	-0.244554	2.65864	26.9116	-4.83362	-1.60895
0.2440	4.88327	-19.5709	0.483057	-10.3289	-1.28814	-2.37218	0.51251	50.7153	1.8811	-2.57432
0.2447	5.23208	-25.0671	-21.1855	-25.8924	-2.51772	-3.30149	-0.992988	37.2872	-19.4817	-1.93074
0.2453	4.01126	-19.5709	-42.2392	-19.7944	-3.10324	-2.07871	0.224223	56.5157	-51.2232	-0.965372
0.2460	3.40085	-8.57843	-27.5907	-1.17644	-2.22496	-0.244554	2.05004	84.8947	-18.2631	-1.93074
0.2467	5.49368	-5.52856	-2.87325	10.4153	-0.995378	0.978218	2.05004	65.6731	41.5478	-1.93074
0.2473	7.0633	-8.27667	3.53823	-1.79164	-0.409861	0.660297	-0.704701	30.2686	49.792	0
0.2480	4.01126	-5.52856	2.00751	-10.6419	-0.995378	-1.46733	-2.53052	18.6747	30.5638	0.321791
0.2487	0.959214	1.78897	0.483057	-6.36788	0.526965	-0.855941	-0.0960956	9.21278	29.6478	0
0.2493	-3.05204	-4.92505	-10.5018	-10.6419	2.69338	2.20099	2.97896	-26.1848	31.1772	0
0.2500	-4.53447	-18.6548	-19.3536	-14.603	2.98613	2.20099	2.97896	-42.6654	21.7145	0
0.2507	-3.66245	-20.7887	-12.3336	-11.2463	1.75655	0.0489109	1.12111	-32.5943	14.9998	0.321791
0.2513	-5.75528	-12.8569	-5.31362	-13.6855	0.526965	-0.562475	-0.992988	-42.9699	17.1344	0.321791
0.2520	-3.31365	-9.80699	-1.64992	-14.3007	1.17103	0.978218	-0.0960956	-38.3947	33.3119	0
0.2527	5.23208	-23.235	1.70638	-9.41151	1.46379	1.5896	2.05004	31.1823	54.6747	0
0.2533	8.28412	-22.0065	1.39898	-7.8897	0.526965	0.978218	1.44143	74.8236	52.2292	0
0.2540	6.7145	5.45312	2.92343	-8.5049	-1.28814	-0.562475	-0.992988	27.2161	12.5625	-0.321791
0.2547	3.66245	20.4115	-0.733995	-10.3289	-3.7473	-2.07871	-3.13912	-28.019	-41.4579	-0.321791
0.2553	2.44164	12.7814	-5.31362	-7.58749	-1.58089	0.0489109	-1.31331	-29.2373	-67.3926	0
0.2560	0.959214	4.53708	3.53823	0.0431721	1.46379	3.10584	1.44143	-3.30165	-53.3579	0
0.2567	-3.31365	5.75487	10.5582	4.92162	1.17103	2.20099	1.72972	4.02843	-34.1297	0
0.2573	-5.75528	9.73156	9.94344	4.92162	-0.0585516	-0.244554	0.224223	2.80329	-23.1457	0
0.2580	-5.49368	13.3849	11.1668	5.53682	-0.70262	-1.14941	-1.60159	10.7356	-21.6163	0
0.2587	-2.44164	16.4456	8.41899	7.67384	0.819723	0.0489109	-0.704701	13.4835	-34.4405	0
0.2593	-0.610409	5.45312	-4.3977	4.015	2.04931	1.5896	1.44143	16.8405	-48.1726	0
0.2600	-1.83123	-14.3872	-15.0814	5.53682	1.17103	1.27168	2.05004	21.1181	-60.0726	0
0.2607	-1.22082	-15.9067	-14.4666	21.7156	-0.409861	-0.562475	-0.0960956	17.7611	-56.4086	0
0.2613	0.959214	-6.4446	-8.3688	32.7028	-2.81048	-2.6901	-2.53052	17.4496	-24.6752	0
0.2620	2.79044	-2.17694	-5.00622	32.3898	-2.51772	-0.855941	-0.384382	20.1975	0.654297	0
0.2627	3.66245	3.31929	-5.62102	31.1702	-0.0585516	1.5896	2.05004	18.9793	10.7305	0
0.2633	2.79044	8.81552	-6.53695	38.1857	-0.409861	0.660297	2.05004	25.3888	12.8651	-1.28716
0.2640	-0.872013	8.20123	-3.18065	48.8708	-2.51772	-2.07871	1.12111	47.3583	9.20105	-1.93074
0.2647	-6.10409	0.269423	-1.64992	43.9923	-2.51772	-2.98356	-0.704701	55.2975	-0.564331	-0.643581
0.2653	-9.15613	-5.52856	-8.97732	28.4288	-1.28814	-1.14941	-0.704701	39.426	-28.0284	0.321791
0.2660	-6.36569	-0.0431077	-11.4177	28.4288	0.234207	0.366832	0.832828	20.8066	-45.1219	0.321791
0.2667	-2.09283	6.67091	3.23083	13.1675	2.04931	0.366832	1.44143	-11.2339	-37.4912	0
0.2673	-0.872013	6.67091	14.8305	-54.8825	1.17103	-0.562475	-0.0960956	-50.6046	-21.3137	0
0.2680	0	10.0333	7.50306	-93.9532	0.234207	-0.562475	-0.992988	-57.6232	2.79712	0
0.2687	0.959214	18.2669	2.31491	-64.0458	1.17103	1.5896	0.51251	-26.8008	16.5292	0
0.2693	0.610409	21.6293	16.3549	-32.6057	1.75655	3.10584	2.05004	4.02843	21.7145	0
0.2700	1.22082	22.2436	31.3046	-12.1637	1.46379	2.49446	1.72972	21.7272	31.4798	0
0.2707	-0.261604	6.67091	23.3749	9.19565	-0.70262	-0.244554	-0.384382	49.4971	34.2279	0
0.2713	-6.36569	-22.9225	1.09786	26.8962	-2.22496	-2.37218	-2.2102	73.9099	26.5972	0
0.2720	-7.93532	-22.0065	-15.6899	45.2119	-0.0585516	-0.244554	-0.992988	48.5834	7.98242	0
0.2727	-6.9761	0.269423	-24.8429	61.0777	2.69338	1.5896	1.44143	-40.222	-6.36303	0.321791
0.2733	-8.54572	1.18546	-27.5907	73.5868	3.57165	1.88307	2.65864	-115.606	-1.78296	0.321791
0.2740	-3.66245	-6.75713	-19.3536	87.6285	2.04931	1.27168	1.12111	-115.302	3.71313	0
0.2747	5.23208	-0.646615	-1.95732	98.918	0.526965	-0.244554	-1.31331	-85.393	-4.22839	0
0.2753	7.93532	-0.646615	10.8594	90.3807	1.17103	0.366832	0.51251	-61.8939	3.40234	0
0.2760	7.32491	-8.89096	9.33491	22.32	1.75655	1.5896	2.65864	-42.3608	43.6907	0
0.2767	9.15613	-5.52856	3.53823	-70.4568	1.75655	2.20099	3.26725	-45.4133	47.3465	0
0.2773	7.67371	-8.57843	0.790456	-108.297	-0.409861	0.978218	1.44143	-62.8075	9.81445	-0.321791
0.2780	-0.261604	-29.033	-6.22955	-115.313	-3.45455	-1.14941	-1.31331	-58.2323	-1.78296	-0.321791
0.2787	-5.49368	-58.6372	-10.1944	-100.051	-2.81048	-0.562475	-0.384382	-35.3422	6.15039	0
0.2793	-3.92406	-112.651	-2.87325	-54.8825	0.234207	1.27168	2.05004	-17.948	10.4197	0
0.2800	1.56962	-156.599	4.45416	-28.9469	2.04931	1.5896	2.33833	-2.38107	-9.71631	0
0.2807	6.10409	-134.313	6.27974	-25.5902	2.34207	0.978218	0.832828	25.6934	-30.7765	0.321791
0.2813	4.88327	-78.7793	8.11159	-21.9314	1.46379	0.366832	-0.704701	60.4818	-10.3297	0
0.2820	2.18003	-40.9307	14.2157	-16.4378	1.17103	0.660297	0.832828	83.3719	9.51184	-0.321791
0.2827	0.959214	-3.39473	20.3197	-12.7681	1.17103	1.5896	2.97896	86.7289	6.453	0
0.2833	-0.610409	16.133	20.9283	-11.5485	0.234207	1.27168	2.65864	80.0149	0.351684	0
0.2840	-0.872013	-18.9566	11.7753	-11.8615	-0.995378	-0.244554	1.12111	69.0301	-4.83362	0
0.2847	-1.48242	-18.9566	0.790456	-12.4659	-1.58089	-1.76079	-0.704701	22.9454	-5.74963	0
0.2853	-1.22082	42.0731	-3.18065	-9.72451	-0.0585516	-0.244554	0.51251	-44.4996	-1.48035	0
0.2860	-0.872013	65.8793	2.00751	-7.28529	2.04931	1.88307	2.65864	-78.0699	1.8811	0
0.2867	-1.48242	48.7871	7.50306	-8.8071	2.04931	1.88307	3.58757	-95.1595	2.48633	0.321791
0.2873	-2.09283	30.4771	4.75528	-7.58749	-0.0585516	-0.562475	1.44143	-98.212	-0.261719	0
0.2880	-3.31365	39.0232	-0.733995	-2.69825	-1.9322	-2.98356	-0.992988	-41.4471	-3.9176	0
0.2887	-2.70324	82.3572	0.18193	1.56499	-0.0585516	-1.46733	0.224223	18.9793	-2.69897	0
0.2893	0.348805	88.7695	4.45416	2.79539	1.75655	0.978218	2.97896	25.0842	0.654297	0
0.2900	0.348805	43.6034	6.58714	3.0976	0.819723	0.978218	2.97896	30.5732	0.654297	0
0.2907	-1.22082	9.41903	7.50306	4.015	-0.995378	-1.14941	0.51251	35.7644	-0.866943	0
0.2913	-0.610409	-6.75713	6.27974	4.92162	-2.22496	-2.37218	-0.992988	15.3177	-2.69897	0
0.2920	1.22082	-15.605	0.483057	7.67384	-0.70262	-1.14941	1.12111	5.24665	-0.261719	0
0.2927	2.44164	-19.8726	-1.04139	11.9479	1.75655	1.27168	3.87585	9.82189	5.53699	0
0.2933	0.959214	-32.0829	2.31491	14.0849	1.75655	1.27168	2.97896	6.76942	7.98242	0
0.2940	-0.610409	-19.5709	1.39898	13.1675	-0.409861	-0.244554	0.224223	0.0553736	-6.66565	0
0.2947	-0.261604	43.6034	-1.34879	8.89345	-0.995378	-2.07871	-0.992988	3.10784	-34.1297	0
0.2953	0	79.0056	-1.95732	7.67384	0.526965	-0.855941	0.51251	13.788	-44.2059	0
0.2960	0.348805	55.8137	-0.432869	7.05863	2.04931	1.5896	2.65864	19.893	-35.0458	0
0.2967	0.959214	37.4929	2.92343	0.658374	2.04931	1.27168	2.65864	16.5359	-31.6925	-0.321791
0.2973	0	33.8395	1.39898	10.4153	-0.995378	-1.14941	0.51251	1.58507	-32.2977	-1.60895
0.2980	-1.22082	30.4771	-1.64992	27.5114	-2.81048	-2.37218	-0.704701	-14.2864	19.8824	-1.93074
0.2987	-0.610409	29.8736	0.483057	22.9352	-0.70262	0.0489109	0.51251	-12.7567	92.8202	0
0.2993	-0.261604	29.5611	2.62231	22.32	2.04931	1.88307	2.05004	-4.21532	84.8868	0
0.3000	0	27.1255	0.790456	32.3898	2.34207	1.88307	2.65864	-2.07651	32.3959	-0.321791
0.3007	0	21.6293	-1.04139	32.0876	0.526965	0.366832	1.12111	-2.38107	-0.261719	0
0.3013	-0.610409	13.6975	-1.34879	31.4724	-1.28814	-1.14941	-0.384382	-0.858291	-13.3804	0
0.3020	0	6.36916	-0.432869	35.7465	-0.409861	0.660297	0.832828	4.94209	-8.49768	-0.321791
0.3027	0.348805	5.15137	0.18193	31.7854	1.46379	2.49446	2.97896	11.6561	2.79712	0
0.3033	0	8.50299	-0.125469	34.8291	1.75655	2.20099	3.26725	14.4041	7.67981	0
0.3040	0	10.0333	-1.04139	23.5396	-0.0585516	-0.244554	0.832828	9.51734	3.40234	0
0.3047	0.610409	8.81552	-2.56585	-56.4151	-1.58089	-2.6901	-1.31331	10.1264	-2.69897	0
0.3053	-0.872013	6.36916	-2.56585	-116.23	-0.70262	-1.14941	0.51251	24.4751	-1.16956	0
0.3060	-3.66245	5.45312	-1.64992	-85.1029	0.819723	1.27168	3.26725	17.7611	1.2677	0
0.3067	-3.05204	4.83884	0.790456	-44.2082	0.819723	0.660297	3.58757	-5.73809	1.2677	0
0.3073	-0.872013	-1.87518	4.45416	-17.6574	-0.70262	-0.855941	1.72972	-3.91076	-1.48035	0.321791
0.3080	-1.48242	-4.31077	6.89454	9.19565	-0.995378	-0.855941	-0.704701	11.6561	-3.00159	0
0.3087	-0.872013	5.45312	7.81046	23.8526	0.819723	0.660297	-0.0960956	34.8508	1.2677	-0.321791
0.3093	-0.872013	3.93357	4.14676	33.3073	1.75655	1.5896	2.33833	50.1062	7.36902	0
0.3100	-1.83123	-6.4446	0.790456	40.6357	1.46379	0.978218	2.65864	40.6442	7.36902	0
0.3107	-0.610409	-3.69648	1.09786	40.6357	-0.409861	0.0489109	0.832828	47.9674	0.654297	-0.321791
0.3113	1.56962	13.3849	-4.3977	40.0205	-1.58089	-1.14941	-0.992988	69.9438	-2.69897	0
0.3120	4.62167	28.645	-4.3977	42.4597	0.234207	0.0489109	0.832828	70.5529	2.79712	0
0.3127	7.32491	30.7789	7.50306	53.447	2.04931	2.20099	2.97896	22.6409	10.1171	-0.321791
0.3133	5.49368	37.8054	13.2997	75.1194	2.34207	1.88307	3.87585	-58.2323	14.3945	0
0.3140	0.348805	50.9209	4.75528	60.1603	0.819723	-0.244554	1.72972	-85.0885	14.3945	0
0.3147	-2.70324	30.7789	-8.66992	-10.3289	-0.70262	-1.76079	-0.992988	-38.6992	8.28503	-0.321791
0.3153	-1.48242	-17.1245	-13.5507	-54.2781	0.526965	-0.244554	0.51251	-8.18145	1.2677	0
0.3160	0.610409	-37.5791	-7.14547	-38.0993	3.27889	2.20099	3.26725	-25.8802	-0.564331	0
0.3167	1.22082	-31.1668	-2.56585	2.48239	2.98613	3.10584	3.58757	-37.1765	-4.22839	0
0.3173	-0.872013	-25.3689	-10.5018	54.6666	-0.0585516	0.366832	1.44143	-36.5604	-18.5657	0
0.3180	-2.70324	-17.1245	-14.4666	116.014	-2.81048	-3.30149	-1.60159	-45.1087	-40.5419	0
0.3187	-2.09283	-4.61252	-0.432869	169.418	-2.51772	-2.6901	-1.31331	-45.7178	-50.0046	0.321791
0.3193	-3.31365	8.20123	9.33491	188.943	-0.409861	-0.562475	1.12111	-34.124	-25.5912	0
0.3200	-4.88327	11.8654	3.53823	186.816	0.234207	0.0489109	2.33833	-23.4438	1.57031	0
0.3207	-5.14488	-5.2268	-1.64992	136.456	-0.995378	-1.46733	0.832828	-19.7753	3.71313	0
0.3213	-5.14488	-23.5368	1.09786	4.92162	-2.22496	-3.30149	-1.60159	-23.1323	17.7478	0
0.3220	-1.22082	-18.0406	8.72639	-82.0485	-0.409861	-1.14941	-0.384382	-30.4624	38.1946	0
0.3227	2.18003	-8.57843	12.6912	-36.5775	2.04931	1.27168	2.33833	-28.019	36.6651	0.321791
0.3233	0.348805	-12.5551	2.92343	16.2219	2.34207	0.978218	2.97896	-3.91076	28.1266	0
0.3240	-1.48242	-15.9067	-7.45287	11.6457	0.234207	-1.46733	1.12111	8.29912	18.6638	0
0.3247	-0.261604	-7.97492	-6.22955	-4.53307	-2.22496	-3.91287	-1.60159	11.047	-2.08557	0
0.3253	2.18003	1.18546	-7.754	-123.245	-0.995378	-2.6901	-0.704701	18.9793	-24.6752	0
0.3260	2.18003	0.269423	-12.0262	-298.114	2.04931	0.978218	2.65864	20.5021	-37.7938	0
0.3267	-1.22082	-14.6889	-8.66992	-283.77	3.86441	5.55139	3.58757	36.3735	-49.6938	-0.321791
0.3273	-5.14488	-31.4686	-1.34879	-152.236	2.98613	5.86931	1.72972	50.4107	-44.5085	-0.321791
0.3280	-6.7145	-22.319	2.00751	-95.7772	-0.0585516	2.20099	-0.992988	29.0504	-11.2457	0
0.3287	-4.53447	-15.2924	-0.432869	-71.6764	-0.409861	1.88307	-0.0960956	4.63754	0.965088	0
0.3293	-0.261604	-48.5608	-3.48177	-40.8516	1.75655	3.42376	2.65864	11.9607	14.6971	0
0.3300	3.66245	-47.6447	-8.66992	-30.1665	2.69338	3.10584	2.65864	30.2686	65.0534	0.321791
0.3307	5.23208	1.78897	-14.4666	-30.1665	0.819723	0.660297	-0.0960956	23.8591	80.3067	-0.321791
0.3313	3.40085	0.571177	-11.1103	-16.74	-0.995378	-0.855941	-1.92191	10.431	52.54	-1.93074
0.3320	1.83123	-17.7388	-6.53695	-6.97229	-0.0585516	0.660297	0.51251	26.3025	37.5812	-1.93074
0.3327	-0.610409	7.2852	-8.66992	-16.1356	1.75655	1.88307	2.33833	20.5021	28.4292	-0.643581
0.3333	-2.44164	27.729	-4.3977	-11.2463	2.34207	1.27168	2.33833	-31.9852	11.9491	-1.93074
0.3340	-2.09283	14.301	7.50306	-16.4378	2.04931	0.978218	2.05004	-48.4658	-11.5483	-1.28716
0.3347	-3.66245	-5.84109	16.0475	-47.5648	-0.0585516	-0.562475	-0.704701	-14.5909	-35.6592	0.643581
0.3353	-7.32491	-5.2268	16.0475	-57.0195	-0.409861	0.366832	0.224223	11.9607	-35.9618	0
0.3360	-7.93532	-6.4446	5.37008	-47.867	1.17103	1.5896	3.26725	17.4496	-16.7336	-0.321791
0.3367	-5.14488	-4.31077	-2.87325	-38.0993	0.819723	0.660297	2.97896	-3.91076	11.0331	0
0.3373	-3.05204	25.5952	-5.00622	-28.6447	-0.995378	-0.855941	0.51251	-49.684	36.0599	0
0.3380	-2.09283	32.0074	-5.00622	-22.8488	-2.81048	-2.6901	-2.2102	-79.2881	28.7318	-0.321791
0.3387	-0.261604	11.2511	-2.26472	-15.2182	-0.0585516	-0.855941	-0.992988	-84.7839	6.453	0
0.3393	1.56962	4.23533	-1.04139	-6.05488	3.27889	2.20099	2.05004	-72.574	-4.531	0
0.3400	4.27286	3.62104	0.483057	-2.39605	2.69338	2.49446	2.65864	-14.5909	-6.36303	-0.321791
0.3407	6.10409	0.269423	2.31491	-2.69825	-0.409861	-0.562475	0.224223	33.9302	-4.22839	-0.321791
0.3413	4.88327	-2.78044	2.00751	0.345377	-2.51772	-3.30149	-2.85084	23.8591	-3.00159	-0.321791
0.3420	3.40085	-0.959146	2.00751	6.75643	-0.0585516	-1.46733	-1.31331	13.788	-3.9176	-0.321791
0.3427	1.83123	-0.344861	1.09786	10.7283	2.04931	0.978218	2.05004	10.431	-4.531	0
0.3433	0.610409	-4.92505	-1.64992	10.7283	1.46379	0.366832	2.65864	0.359928	-2.39636	0
0.3440	0	-11.0248	0.483057	5.23461	-0.0585516	-1.14941	1.12111	8.60367	-0.564331	0
0.3447	-1.22082	-28.7205	6.89454	-3.01125	-1.28814	-2.6901	-1.60159	19.893	-3.00159	0
0.3453	-1.22082	-29.033	9.33491	-0.874234	-0.70262	-1.46733	-0.992988	13.1789	-1.48035	0
0.3460	-1.83123	12.4689	6.27974	-2.09385	0.526965	0.660297	2.05004	11.047	5.84778	0
0.3467	-3.92406	29.2593	2.92343	-14.9052	0.234207	0.0489109	1.72972	21.7272	4.01575	-0.321791
0.3473	-3.66245	9.41903	-0.125469	-6.36788	-0.995378	-1.46733	-0.704701	29.0504	-6.36303	0
0.3480	-2.09283	7.58695	-5.31362	23.8526	-2.51772	-2.37218	-2.2102	25.6934	-5.44702	0
0.3487	-0.872013	15.5295	-8.0614	35.1421	-1.28814	-1.14941	-0.992988	12.8744	10.7305	-0.321791
0.3493	0.959214	8.50299	-6.83807	16.5241	1.75655	2.20099	2.33833	8.29912	20.4958	-0.321791
0.3500	2.44164	-4.92505	-5.92215	-1.17644	2.69338	3.71723	3.58757	19.5884	15.3024	-0.321791
0.3507	2.44164	-17.7388	-3.48177	0.658374	2.34207	1.5896	0.832828	18.0656	4.01575	-0.321791
0.3513	3.05204	-11.0248	5.37008	1.56499	0.819723	-0.855941	-2.53052	-0.249181	-5.14441	-0.321791
0.3520	4.88327	28.3433	13.2997	1.26278	1.17103	0.366832	-0.992988	-7.26779	-4.83362	-0.321791
0.3527	4.27286	51.2335	14.2157	8.89345	2.69338	3.71723	2.33833	-3.30165	-0.866943	-0.321791
0.3533	1.22082	35.0573	10.8594	19.8807	2.34207	4.94	3.26725	-3.91076	-0.564331	-0.321791
0.3540	-0.261604	6.36916	2.31491	34.8291	0.234207	3.42376	1.12111	-7.26779	-1.78296	-0.321791
0.3547	-0.610409	-12.8569	-1.34879	52.2274	-1.9322	0.978218	-1.60159	-0.249181	-2.69897	0
0.3553	-0.872013	-11.9408	4.14676	82.4371	-0.995378	1.88307	-0.384382	14.0926	-3.61499	0
0.3560	-0.610409	-7.05888	4.14676	123.332	1.17103	4.32861	2.97896	29.3549	-5.74963	0
0.3567	-0.261604	-7.97492	-4.0903	148.965	1.75655	4.32861	2.97896	54.6814	-7.58166	0.321791
0.3573	-0.261604	-20.1852	-7.45287	155.678	-0.0585516	2.20099	0.224223	75.1281	-11.2457	0.321791
0.3580	-0.610409	-39.0987	-4.0903	151.717	-2.22496	-0.562475	-2.2102	71.7711	-19.4817	-0.321791
0.3587	0.348805	-29.3348	-0.125469	156.909	-1.58089	-0.562475	-1.60159	46.1401	-23.4484	-0.321791
0.3593	1.56962	-0.0431077	0.18193	157.815	0.526965	1.5896	0.51251	35.1553	-16.1284	0
0.3600	1.83123	9.11727	2.31491	75.1194	1.46379	2.20099	2.05004	18.0656	-3.9176	0
0.3607	1.22082	4.83884	6.58714	-54.2781	0.526965	0.366832	1.12111	-70.7398	-2.39636	0.321791
0.3613	0.959214	9.41903	2.62231	-120.806	-0.995378	-2.98356	-1.92191	-118.659	-0.564331	0
0.3620	3.66245	12.7814	-0.733995	-121.724	-0.0585516	-3.59495	-0.704701	-55.7889	17.1344	0
0.3627	4.88327	-7.97492	0.483057	-95.1728	1.17103	-2.98356	2.05004	4.63754	22.0171	0
0.3633	-0.261604	-29.9491	-5.92215	-107.38	1.17103	-3.91287	2.33833	25.9979	20.7985	0
0.3640	-3.92406	-37.5791	-9.58585	-149.796	0.234207	-6.65188	0.224223	9.51734	34.5305	0
0.3647	-2.09283	-47.0412	2.31491	-125.685	-2.22496	-7.87465	-2.53052	-28.9327	23.8491	0
0.3653	0	-58.0229	11.4679	-61.6065	-1.58089	-4.81772	-0.992988	-29.2373	-6.96826	0
0.3660	-0.261604	-63.5191	11.7753	-31.6991	1.46379	-1.76079	1.72972	-6.35412	-4.531	0
0.3667	-1.83123	-12.2426	17.2708	-29.8643	1.75655	-0.244554	2.05004	-4.82443	6.76379	0
0.3673	-3.66245	83.8875	22.1516	-32.3035	-0.0585516	-0.855941	0.832828	-15.8092	-5.44702	-0.321791
0.3680	-3.92406	97.3156	22.7601	-32.0013	-1.9322	-2.6901	-1.60159	-17.948	-5.74963	0
0.3687	-5.14488	42.3856	20.0186	-29.8643	-1.58089	-2.6901	-1.60159	-6.35412	7.98242	0
0.3693	-8.19692	18.2669	12.0827	-17.0422	-0.70262	-0.855941	0.224223	11.9607	18.6638	-1.60895
0.3700	-6.10409	18.2669	5.67121	0.345377	-0.0585516	0.0489109	2.05004	35.1553	25.0677	-1.93074
0.3707	-1.48242	10.9493	-2.26472	-0.561237	-0.70262	-1.14941	1.44143	47.3583	3.71313	0
0.3713	-2.70324	3.93357	-14.1655	-7.8897	-2.81048	-3.59495	-2.53052	32.4074	-37.7938	0
0.3720	-3.05204	10.6476	-14.774	-2.69825	-1.58089	-1.76079	-1.92191	7.99457	-42.0631	-0.321791
0.3727	-0.610409	19.7972	-6.22955	4.92162	1.75655	0.978218	2.05004	-28.3236	-17.6497	0
0.3733	0.348805	21.6293	-6.22955	8.89345	2.04931	0.660297	2.05004	-62.8075	-11.2457	0
0.3740	0.959214	19.7972	-13.5507	12.2501	0.526965	-1.46733	-0.384382	-65.86	-16.1284	0
0.3747	2.18003	13.3849	-10.1944	10.4153	-1.28814	-3.59495	-2.53052	-63.1121	-15.8258	0
0.3753	3.66245	6.36916	-3.48177	0.0431721	-0.70262	-2.6901	-1.31331	-62.1984	-7.88427	0
0.3760	4.01126	7.58695	-14.4666	-6.97229	0.819723	-0.562475	0.51251	-46.6315	2.18372	0
0.3767	1.83123	15.217	-29.7299	-9.41151	1.17103	-0.562475	0.832828	-34.4285	8.89843	0
0.3773	-0.872013	8.50299	-27.5907	-23.151	-0.70262	-2.07871	-0.384382	-8.18145	7.98242	0
0.3780	-4.53447	-19.5709	-15.6899	-40.5494	-3.10324	-3.59495	-2.85084	58.6545	3.40234	0
0.3787	-6.9761	-28.4187	-7.14547	-40.2364	-2.22496	-2.37218	-1.92191	87.0335	4.93176	0
0.3793	-5.75528	-8.89096	-1.64992	-25.8924	-0.70262	-0.855941	0.832828	46.4446	11.0331	0
0.3800	-2.09283	-0.959146	8.41899	-5.45047	-0.409861	-0.562475	1.12111	17.4496	8.59582	0
0.3807	1.56962	-7.67316	15.439	13.4697	-0.70262	-1.14941	-0.384382	15.3177	-10.9349	0
0.3813	4.27286	-5.84109	10.8594	13.7719	-1.58089	-1.46733	-2.53052	-6.65868	-32.6085	-0.321791
0.3820	6.45289	-1.87518	-0.432869	6.15202	-0.0585516	0.978218	-1.60159	-28.9327	-34.1297	0
0.3827	4.01126	-4.31077	-11.1103	9.19565	2.04931	4.03515	1.12111	-0.249181	-26.1964	0
0.3833	-0.610409	-4.61252	-20.5707	22.32	1.46379	3.71723	2.05004	20.8066	-35.3566	-1.93074
0.3840	0	-2.78044	-23.927	30.868	-0.409861	1.5896	1.12111	-5.43354	-37.4912	-1.60895
0.3847	3.40085	-4.92505	-11.7251	21.4026	-2.22496	-0.562475	-1.92191	-22.2187	4.01575	0
0.3853	3.66245	-5.2268	3.83936	13.7719	-0.995378	-0.244554	-2.2102	-16.7298	35.7491	0
0.3860	0.959214	-1.2609	2.92343	16.8263	1.17103	1.5896	0.832828	-10.0157	18.0504	0.321791
0.3867	-2.70324	3.01754	-4.7051	16.8263	1.17103	1.27168	1.72972	-0.553736	2.18372	0.321791
0.3873	-4.53447	3.93357	-11.4177	9.81085	-0.409861	-0.244554	-0.384382	6.16031	11.3357	0
0.3880	-5.14488	-0.344861	-16.9133	4.61941	-2.22496	-2.98356	-3.13912	-0.553736	25.9838	0
0.3887	-4.27286	-0.646615	-11.7251	7.97604	-0.409861	-1.76079	-1.60159	-3.91076	47.3465	0
0.3893	-1.48242	3.93357	1.09786	9.19565	1.75655	0.978218	1.44143	5.5512	56.5067	0.321791
0.3900	-0.610409	6.98344	10.2508	6.45422	1.75655	0.660297	1.72972	6.46487	30.5638	0
0.3907	-2.44164	4.83884	6.89454	6.75643	-0.409861	-1.46733	-0.384382	-3.30165	-16.1284	0
0.3913	-3.31365	3.93357	-5.92215	6.15202	-2.51772	-3.30149	-3.13912	-4.21532	-42.0631	0.321791
0.3920	0.959214	10.9493	-12.3336	7.67384	-1.9322	-1.76079	-1.92191	6.46487	-26.1964	0
0.3927	2.79044	9.41903	-13.5507	11.3327	0.234207	0.978218	0.51251	9.21278	-22.2297	0
0.3933	0.610409	-1.87518	-10.8092	11.3327	1.17103	0.978218	0.51251	1.28051	-50.9206	-0.321791
0.3940	0.959214	-4.61252	0.483057	11.9479	0.526965	-0.244554	-0.0960956	-3.30165	-66.4847	-0.321791
0.3947	1.22082	-6.14284	6.89454	11.9479	-1.58089	-1.76079	-2.85084	-4.82443	-61.2912	-0.321791
0.3953	0.348805	-15.9067	1.70638	-5.14827	-1.58089	-1.14941	-2.85084	-1.4674	-38.0964	0
0.3960	0	-18.0406	-5.31362	-17.9596	-0.0585516	0.978218	0.51251	-3.60621	-19.7925	0
0.3967	0	-5.84109	-3.18065	-2.39605	0.819723	2.20099	1.44143	-24.0529	-3.31238	-0.321791
0.3973	2.44164	0.571177	7.81046	21.4026	-0.70262	0.660297	-0.384382	-38.3947	52.2292	0
0.3980	2.79044	1.78897	12.9986	44.9097	-2.81048	-2.37218	-3.45944	-17.948	84.2734	0
0.3987	0	8.20123	11.4679	46.4316	-0.995378	-1.14941	-2.85084	7.69001	53.456	-0.321791
0.3993	-2.70324	6.0674	10.2508	11.3327	1.46379	2.20099	0.51251	7.38546	15.6132	-0.321791
0.4000	-2.70324	-5.2268	5.67121	-17.0422	0.526965	2.20099	1.44143	6.76942	1.2677	-0.321791
0.4007	-1.48242	-10.1087	2.00751	-20.3988	-1.58089	-0.244554	-0.992988	11.047	-3.61499	-0.321791
0.4013	-1.22082	-2.78044	6.27974	-16.1356	-2.51772	-2.37218	-3.74773	11.9607	-13.3804	-0.321791
0.4020	0.348805	6.0674	11.1668	-9.10931	-0.995378	-1.46733	-2.53052	25.6934	-16.431	0
0.4027	3.66245	-4.00901	9.33491	-4.53307	0.819723	0.0489109	0.224223	28.4413	0.0490723	-0.321791
0.4033	4.01126	-13.4711	11.4679	-3.31346	0.526965	0.0489109	0.832828	11.9607	30.8664	-0.321791
0.4040	0.610409	-2.17694	16.9634	-3.31346	-0.995378	-1.76079	-0.384382	11.3516	42.1612	0
0.4047	-0.610409	-3.39473	12.6912	-3.92866	-2.81048	-3.91287	-2.85084	22.9454	23.5465	0
0.4053	0	-15.605	6.89454	-0.874234	-1.28814	-1.46733	-1.31331	29.964	17.1344	0
0.4060	0	-10.4105	3.23083	1.56499	1.75655	2.81238	1.72972	33.0165	27.8158	0
0.4067	1.22082	-1.87518	4.45416	1.56499	2.34207	3.42376	2.05004	26.607	26.2945	0
0.4073	2.79044	-2.17694	10.2508	4.31721	-0.0585516	0.366832	0.51251	7.38546	9.81445	0.321791
0.4080	-0.261604	-6.75713	0.18193	9.81085	-2.51772	-2.6901	-2.53052	-12.7567	-9.41369	0
0.4087	-3.92406	-10.723	-18.4377	13.7719	-1.9322	-1.46733	-2.2102	-14.8955	-16.1284	-0.321791
0.4093	-4.53447	-4.00901	-20.8781	11.6457	-0.0585516	0.978218	0.224223	-8.79056	-10.0271	-0.643581
0.4100	-3.31365	8.50299	-6.53695	8.28904	0.234207	1.27168	1.44143	-5.12898	-19.1791	-0.321791
0.4107	-3.05204	17.3508	9.94344	6.45422	-0.995378	0.0489109	-0.384382	3.4124	-25.5912	-0.321791
0.4113	-4.53447	21.931	9.94344	4.31721	-2.81048	-2.6901	-2.85084	12.5698	-5.14441	0
0.4120	-2.44164	8.50299	-9.58585	4.61941	-1.58089	-2.07871	-1.92191	4.33298	9.81445	0
0.4127	4.62167	-7.36063	-21.1855	5.83902	0.234207	0.660297	1.44143	-12.4521	15.9158	-0.321791
0.4133	7.67371	-8.27667	-15.0814	4.31721	0.234207	1.27168	2.33833	-19.1662	9.20105	-0.321791
0.4140	3.40085	-14.0747	-8.3688	1.26278	-0.995378	-0.562475	0.51251	-19.1662	-21.0111	-0.321791
0.4147	-1.83123	-17.1245	-9.89325	-1.17644	-2.81048	-2.6901	-2.2102	-9.71115	-20.7085	0
0.4153	-1.22082	-4.92505	-11.4177	0.960579	-1.58089	-1.46733	-1.31331	10.7356	9.20105	0.321791
0.4160	3.40085	6.36916	3.83936	5.53682	1.46379	1.5896	1.72972	28.4413	20.7985	0
0.4167	5.49368	5.75487	21.8442	5.53682	1.75655	1.5896	2.05004	35.1553	21.4119	0
0.4173	3.40085	-10.723	20.3197	2.18019	-0.409861	-0.562475	-0.384382	49.4971	14.6971	0
0.4180	-1.83123	-30.2508	7.50306	-0.259032	-2.81048	-3.59495	-3.13912	73.9099	-7.27905	0
0.4187	-4.88327	-24.1511	-9.58585	3.0976	-2.51772	-2.98356	-2.53052	61.0909	-21.6163	0
0.4193	-3.92406	1.18546	-22.7099	15.3045	-0.409861	0.660297	-0.0960956	19.5884	-17.0444	0
0.4200	-4.88327	11.2511	-18.7388	34.2247	-0.70262	0.660297	0.51251	-7.26779	-5.74963	-0.965372
0.4207	-4.88327	-0.0431077	-7.14547	49.486	-1.58089	-1.14941	-0.384382	-17.6434	4.62097	-2.25253
0.4213	-0.261604	-10.1087	2.92343	43.0749	-2.22496	-3.30149	-2.53052	-11.2339	10.7305	-0.965372
0.4220	3.40085	-12.2426	13.9145	29.3462	-1.58089	-2.6901	-2.2102	3.10784	10.7305	0.321791
0.4227	2.44164	-10.1087	12.3838	32.0876	-0.0585516	0.0489109	0.51251	16.2314	0.351684	-0.321791
0.4233	0.610409	-2.17694	0.18193	38.4987	0.526965	0.366832	1.12111	26.607	-20.7085	-0.321791
0.4240	1.56962	-0.344861	-2.56585	31.7854	0.234207	-1.14941	-0.704701	0.0553736	-35.9618	-0.321791
0.4247	1.83123	-9.49446	2.31491	34.2247	-0.70262	-2.07871	-3.13912	-41.1426	-30.4739	0
0.4253	-2.44164	-9.49446	2.62231	35.7465	-0.0585516	-0.562475	-1.60159	-36.8719	-24.0618	-0.321791
0.4260	-6.36569	3.01754	-1.95732	-33.2209	0.819723	0.978218	0.832828	-21.0004	-21.6163	-0.321791
0.4267	-4.27286	8.81552	-4.3977	-102.803	0.526965	1.5896	1.44143	-22.8278	4.62097	-0.321791
0.4273	0.959214	-1.2609	-3.48177	-77.7745	0.234207	0.660297	0.51251	-13.6773	25.0677	0
0.4280	1.56962	-19.8726	-5.00622	-35.0557	-1.58089	-1.76079	-2.2102	4.94209	8.89843	0
0.4287	-2.44164	-28.117	-10.5018	-23.4532	-2.51772	-2.6901	-2.2102	2.19418	-22.2297	0
0.4293	-5.75528	-28.4187	-15.3825	-14.3007	-0.70262	-0.244554	0.51251	-19.7753	-44.2059	0
0.4300	-6.7145	-35.747	-17.8292	-7.28529	0.819723	1.88307	2.05004	-27.1054	-22.8431	0
0.4307	-5.14488	-47.6447	-21.4866	-6.97229	0.526965	0.366832	0.51251	-11.843	14.0837	0
0.4313	-2.09283	-47.0412	-21.794	-8.5049	-0.409861	-2.37218	-3.13912	1.58507	1.8811	0
0.4320	2.18003	-29.6365	-9.89325	-4.83527	-0.409861	-1.76079	-2.2102	11.9607	-32.6085	0.321791
0.4327	4.88327	15.5295	4.45416	13.1675	0.526965	0.978218	1.12111	19.5884	-30.1631	0
0.4333	5.23208	75.9449	9.94344	43.6793	0.234207	2.20099	2.05004	-2.9971	10.4197	-0.321791
0.4340	4.62167	85.7196	11.4679	72.9824	-0.70262	0.0489109	0.224223	-13.9818	33.3119	0
0.4347	4.01126	42.6874	15.7401	105.027	-1.9322	-3.30149	-2.85084	24.1637	16.5292	0
0.4353	4.01126	5.75487	21.2357	135.539	-1.58089	-2.37218	-2.53052	36.6781	20.4958	-0.321791
0.4360	4.27286	2.1015	19.4038	142.565	0.819723	0.978218	1.12111	11.047	45.8253	-0.321791
0.4367	4.01126	10.6476	8.72639	137.071	1.46379	1.88307	2.97896	16.2314	28.1266	0
0.4373	1.22082	-12.8569	-0.733995	140.115	-0.409861	0.366832	0.832828	46.7492	-10.9349	0
0.4380	-1.48242	-40.629	-7.754	123.645	-3.7473	-2.98356	-3.45944	69.6392	-28.9444	0
0.4387	-1.83123	-15.605	-11.4177	67.4887	-3.7473	-2.6901	-2.85084	32.712	-36.2726	0
0.4393	-3.92406	18.8812	-6.83807	43.0749	-0.995378	-0.244554	0.51251	-40.5335	-31.9951	0.321791
0.4400	-8.54572	19.7972	0.18193	25.6766	-0.70262	0.978218	0.832828	-30.1579	2.48633	0
0.4407	-9.41774	12.1671	-2.26472	-132.096	-0.70262	1.27168	-0.0960956	-22.2187	44.6067	0.321791
0.4413	-5.14488	11.2511	-9.58585	-297.197	-0.409861	-1.14941	-2.53052	-101.258	46.7413	0.321791
0.4420	-2.44164	16.133	-8.3688	-243.49	-0.0585516	-1.46733	-2.2102	-121.704	19.2772	-0.321791
0.4427	-0.872013	13.6975	-1.64992	-96.0902	1.17103	0.978218	1.12111	-63.1121	3.71313	0
0.4433	0.959214	-0.0431077	2.92343	-19.1792	0.819723	1.88307	2.05004	-28.019	0.965088	-0.321791
0.4440	2.18003	-10.1087	5.67121	18.0459	-1.28814	-0.244554	0.224223	-26.8008	-9.41369	-1.93074
0.4447	2.18003	-16.521	4.45416	33.005	-2.81048	-2.6901	-2.2102	-25.8802	-17.6497	-1.60895
0.4453	0.610409	-18.6548	2.31491	22.6222	-1.58089	-1.76079	-1.31331	2.49873	-14.2964	0.321791
0.4460	-2.09283	-17.7388	5.06268	9.81085	0.819723	0.660297	0.832828	23.5545	-2.39636	0.321791
0.4467	-3.31365	-18.3531	8.41899	5.23461	1.17103	1.5896	1.12111	-11.2339	15.6132	-0.321791
0.4473	-2.09283	-25.3689	8.41899	-0.561237	-0.0585516	0.0489109	0.51251	-46.9361	20.1851	0
0.4480	-3.31365	-35.4345	4.75528	-59.7717	-2.51772	-2.6901	-2.2102	-49.3794	8.59582	0
0.4487	-5.14488	-6.4446	5.06268	-135.755	-1.9322	-2.37218	-3.13912	-37.7856	2.79712	0
0.4493	-4.53447	35.9733	14.8305	-133.628	0.526965	0.366832	0.224223	-15.5046	7.67981	0
0.4500	-2.70324	9.11727	20.3197	-78.9941	1.17103	1.27168	2.05004	-5.73809	10.4197	0.321791
0.4507	-0.261604	-37.2666	6.58714	-35.6601	0.526965	-0.562475	0.51251	-7.26779	4.93176	0
0.4513	1.83123	-38.1826	-15.6899	-23.7554	-0.995378	-2.98356	-2.2102	12.8744	-2.08557	0
0.4520	4.27286	-36.6631	-21.4866	-24.3706	-0.995378	-2.07871	-2.2102	32.1028	-7.58166	0
0.4527	7.93532	-47.343	-15.9973	-6.67008	0.526965	0.660297	0.832828	16.5359	-6.66565	0
0.4533	7.32491	-55.2748	-17.8292	23.2374	0.526965	0.978218	1.72972	-6.65868	2.79712	0
0.4540	2.79044	-43.3771	-16.9133	36.9661	-0.0585516	-0.244554	-0.0960956	-9.09512	7.67981	0
0.4547	1.83123	-4.92505	1.39898	24.1548	-0.995378	-1.46733	-2.2102	2.80329	7.0664	-0.321791
0.4553	2.18003	18.8812	15.439	10.1131	-0.995378	-0.562475	-1.60159	4.94209	10.4197	0
0.4560	-0.872013	-1.2609	6.58714	0.960579	0.819723	1.88307	1.72972	3.4124	12.5625	0
0.4567	-3.66245	-1.2609	6.89454	-40.5494	2.04931	2.20099	3.26725	13.788	11.3357	0.321791
0.4573	-4.53447	53.0655	15.7401	-84.1855	-0.0585516	-0.244554	0.832828	9.21278	7.36902	0
0.4580	-3.92406	75.0397	5.37008	-61.9087	-2.81048	-3.91287	-2.85084	15.6223	-10.0271	0
0.4587	-1.48242	51.5352	-3.78917	-23.7554	-2.51772	-3.30149	-2.2102	54.0723	-31.0791	0
0.4593	-1.22082	26.813	-4.3977	-39.0168	-0.0585516	-0.244554	0.832828	52.5496	-36.5752	0
0.4600	-3.66245	-0.959146	-7.14547	-67.0894	1.46379	1.88307	1.72972	16.5359	-31.9951	0
0.4607	-2.09283	-3.09298	-7.45287	-56.4151	0.819723	1.27168	0.51251	-5.43354	-31.3817	-0.321791
0.4613	1.22082	24.3774	-1.04139	-32.0013	-2.22496	-2.07871	-2.53052	-32.5943	-22.5323	0
0.4620	0.959214	30.1754	8.72639	-22.2336	-2.22496	-2.07871	-2.2102	-39.0038	9.51184	0.321791
0.4627	-3.05204	16.4456	10.2508	-21.3162	-0.70262	0.0489109	0.224223	-10.9294	38.808	0
0.4633	-6.36569	9.11727	2.00751	-19.4922	-0.70262	0.978218	0.832828	-10.9294	45.2119	-0.321791
0.4640	-3.31365	-0.959146	-3.18065	-12.7681	-0.70262	-0.244554	-0.0960956	-27.1054	34.5305	0
0.4647	-0.261604	1.78897	-5.00622	-19.1792	-1.58089	-2.6901	-1.92191	-13.3727	22.6305	0.321791
0.4653	-2.44164	28.3433	-4.3977	-38.4123	-1.28814	-1.46733	-2.2102	1.88962	21.4119	0
0.4660	-4.88327	39.6375	0.483057	-32.6057	1.17103	1.5896	0.51251	0.97596	18.9664	-0.321791
0.4667	-5.14488	31.0914	2.62231	-4.53307	1.75655	1.5896	2.33833	-1.4674	12.2517	-0.321791
0.4673	-2.44164	28.3433	4.14676	14.0849	-0.0585516	-0.562475	1.12111	-7.57234	1.57031	0.321791
0.4680	-0.872013	28.9576	11.1668	19.8807	-2.22496	-2.6901	-2.2102	-11.2339	-20.7085	0
0.4687	-1.48242	31.0914	12.9986	19.8807	-1.58089	-1.76079	-2.85084	5.24665	-43.8951	0
0.4693	0	36.8894	6.89454	16.8263	1.75655	1.88307	1.12111	21.7272	-54.2739	-0.321791
0.4700	3.05204	34.443	3.23083	13.1675	2.04931	2.49446	2.65864	1.28051	-54.8873	-0.321791
0.4707	3.66245	17.9651	1.09786	9.50865	-0.409861	-0.855941	0.224223	-26.1848	-49.0886	0
0.4713	2.18003	-6.14284	-1.64992	6.75643	-2.51772	-3.91287	-2.53052	-18.8616	-49.3912	0
0.4720	1.83123	-23.8385	-1.95732	5.23461	-2.22496	-2.98356	-2.2102	2.80329	-35.0458	0
0.4727	0.610409	-29.3348	-5.31362	10.4153	-0.995378	0.0489109	0.224223	9.21278	20.4958	0
0.4733	-2.70324	-23.8385	-7.14547	27.2092	-0.995378	0.660297	1.72972	-1.4674	53.456	0
0.4740	-2.09283	-18.3531	-2.26472	41.2401	-1.9322	-1.46733	1.72972	-10.9294	41.2452	0
0.4747	2.18003	-26.8992	-3.48177	43.0749	-3.45455	-4.20634	-1.60159	-20.3913	40.6318	-0.321791
0.4753	4.01126	-54.057	-6.53695	43.6793	-1.28814	-2.07871	-1.92191	-38.6992	45.2119	-0.321791
0.4760	2.79044	-78.165	-2.56585	45.2119	1.75655	1.5896	1.12111	-57.0071	35.4465	-0.321791
0.4767	1.22082	-42.4611	1.39898	44.5967	1.46379	2.20099	1.44143	-74.0968	26.5972	-0.321791
0.4773	1.56962	29.8736	3.53823	39.1031	-0.409861	1.5896	-0.0960956	-71.0513	18.0504	0
0.4780	2.18003	51.5352	4.75528	30.2528	-1.9322	0.366832	-1.92191	-44.4996	-1.16956	0
0.4787	1.56962	36.2751	4.45416	30.868	-1.58089	1.5896	-1.92191	-17.0343	-18.2631	0
0.4793	1.83123	29.2593	3.83936	4.61941	-0.409861	4.32861	0.51251	25.9979	-19.1791	0
0.4800	1.56962	27.729	0.483057	-66.7872	0.234207	4.64653	1.72972	58.0385	-13.9938	0
0.4807	0	22.5453	-3.78917	-90.8988	-0.409861	3.71723	0.224223	51.0199	-14.2964	0
0.4813	-0.610409	13.6975	-4.0903	-44.2082	-1.9322	1.5896	-2.53052	39.1215	-17.6497	0
0.4820	-0.872013	6.36916	-1.95732	-5.75268	-1.28814	0.978218	-2.53052	32.4074	-16.7336	0
0.4827	-2.44164	4.23533	-0.125469	6.75643	0.526965	0.660297	-0.0960956	25.0842	-9.11108	0
0.4833	-3.31365	7.58695	0.790456	13.1675	0.819723	-0.244554	0.832828	23.5545	10.7305	0
0.4840	-1.83123	9.41903	0.790456	8.28904	-0.70262	-1.46733	-0.704701	25.6934	42.1612	0
0.4847	-0.872013	10.0333	-3.78917	3.0976	-2.81048	-4.20634	-3.45944	23.5545	66.5747	-0.643581
0.4853	-0.610409	9.73156	-7.45287	20.7981	-1.9322	-4.20634	-2.53052	15.6223	72.9868	-1.93074
0.4860	-0.610409	-0.0431077	-6.53695	29.0332	2.04931	-1.46733	1.72972	12.2653	61.3894	-1.28716
0.4867	-0.261604	-5.84109	-4.0903	13.7719	2.69338	-1.46733	2.65864	22.3363	14.9998	0.321791
0.4873	0.959214	2.70501	-1.64992	7.05863	-0.409861	-4.81772	0.832828	25.9979	-51.5259	0.321791
0.4880	1.22082	14.301	-1.95732	-11.8615	-2.22496	-6.65188	-1.92191	12.2653	-73.1913	0
0.4887	1.83123	21.6293	-1.95732	-35.0557	-0.409861	-4.52426	-1.31331	5.85576	-47.5592	0
0.4893	2.18003	11.5529	-0.733995	-20.0966	1.75655	-1.76079	1.44143	11.6561	-31.6925	0
0.4900	0.348805	-3.39473	-6.83807	6.45422	1.75655	-0.855941	2.05004	15.3177	-34.1297	0
0.4907	-1.22082	-11.6391	-12.3336	11.0305	1.17103	-0.562475	1.12111	14.0926	-28.9444	0
0.4913	-1.48242	-27.5027	-5.31362	4.31721	-1.58089	-2.37218	-1.60159	12.8744	-16.1284	0
0.4920	-1.83123	-35.1327	4.14676	5.53682	-2.22496	-2.37218	-1.92191	14.0926	-5.14441	0.321791
0.4927	-0.610409	-22.6207	5.97861	12.8653	0.526965	0.366832	1.12111	10.7356	5.84778	0
0.4933	0.610409	-11.3265	7.50306	12.2501	1.17103	0.978218	2.33833	-2.38107	7.98242	0
0.4940	-0.610409	-8.89096	9.64231	6.75643	-0.0585516	-0.562475	0.832828	-11.5385	-8.49768	0
0.4947	-2.44164	-11.6391	5.97861	3.0976	-1.9322	-2.37218	-2.2102	-5.43354	-23.4484	0
0.4953	-1.48242	-26.8992	1.70638	4.92162	-1.28814	-1.76079	-1.92191	12.2653	-18.8765	0
0.4960	-0.261604	-36.0488	-0.125469	8.59124	0.234207	0.0489109	0.832828	31.4937	-22.8431	0
0.4967	-0.261604	-15.605	-3.18065	10.1131	1.46379	0.660297	2.33833	38.5123	-35.0458	0
0.4973	-0.872013	-10.723	-8.3688	8.89345	0.819723	0.0489109	1.12111	40.3397	-22.5323	0.321791
0.4980	-2.70324	-58.0229	-9.58585	5.53682	-1.9322	-2.37218	-2.2102	37.8963	-3.31238	0
0.4987	-4.53447	-119.053	-5.00622	4.92162	-1.58089	-2.6901	-2.53052	18.6747	-5.44702	0
0.4993	-8.19692	-147.439	-4.3977	6.45422	0.819723	0.978218	0.224223	0.359928	-21.3137	-0.321791
0.5000	-10.6386	-155.985	-8.66992	5.53682	0.526965	1.88307	1.72972	-0.858291	3.40234	0
0.5007	-5.49368	-130.659	-8.97732	3.702	-1.58089	-1.46733	0.832828	10.431	57.7253	0
0.5013	0.959214	-13.1586	-1.34879	5.23461	-4.04006	-4.20634	-2.53052	44.9218	40.9426	-0.321791
0.5020	0.959214	75.6432	4.14676	10.4153	-2.81048	-2.6901	-2.53052	69.3347	-18.8765	0
0.5027	-0.610409	78.693	-2.87325	16.5241	-0.0585516	0.0489109	0.51251	45.2264	-35.6592	-0.321791
0.5033	3.40085	104.03	-2.87325	27.2092	0.819723	1.5896	1.44143	4.63754	-17.0444	-2.25253
0.5040	10.7258	119.893	16.0475	25.3744	0.526965	1.5896	1.72972	-17.6434	-16.1284	-1.60895
0.5047	12.2082	97.6173	25.8153	5.23461	-1.9322	-0.855941	-0.704701	-20.6959	-35.6592	0.321791
0.5053	6.7145	78.0895	18.4879	-2.39605	-2.22496	-0.562475	-1.60159	-27.4099	-1.48035	0.321791
0.5060	2.79044	69.8452	6.58714	1.56499	0.234207	1.88307	1.12111	-38.3947	59.2547	-0.321791
0.5067	0.959214	70.7612	-10.1944	5.83902	1.75655	1.88307	2.05004	-32.8988	57.4227	-0.321791
0.5073	-2.70324	58.551	-21.1855	11.0305	0.234207	0.366832	1.12111	-10.3203	28.4292	0
0.5080	-5.14488	27.1255	-17.8292	1.56499	-2.51772	-2.98356	-2.53052	14.4041	18.6638	0.321791
0.5087	-1.22082	9.73156	-10.5018	-5.75268	-2.81048	-3.59495	-3.74773	25.0842	6.15039	-0.643581
0.5093	4.62167	8.50299	-4.0903	10.7283	-0.70262	-0.562475	0.51251	21.1181	5.23437	-1.93074
0.5100	5.84249	-2.78044	4.45416	18.0459	0.819723	2.20099	3.58757	29.6595	20.4958	-0.965372
0.5107	1.83123	-14.0747	11.1668	3.3998	-1.28814	0.978218	1.72972	46.1401	1.57031	0.321791
0.5113	-0.610409	-10.4105	7.81046	-2.69825	-3.45455	-2.07871	-1.60159	-16.4183	-20.3977	0
0.5120	2.18003	-7.67316	4.75528	0.345377	-1.9322	-1.14941	-0.992988	-113.163	-4.22839	0
0.5127	5.49368	-12.8569	3.53823	1.56499	0.526965	1.27168	1.44143	-96.0732	5.53699	0
0.5133	4.88327	-18.6548	-0.733995	2.18019	1.17103	0.978218	1.44143	-12.1476	-1.16956	0
0.5140	1.22082	-27.5027	1.09786	0.345377	-0.70262	-1.14941	-0.384382	10.431	-13.0778	-0.321791
0.5147	1.56962	-29.033	9.64231	1.26278	-2.22496	-2.98356	-3.13912	-18.8616	-21.6163	-0.321791
0.5153	5.23208	-14.6889	10.8594	12.2501	-1.28814	-1.14941	-2.2102	-18.5571	-13.683	0
0.5160	3.05204	-6.4446	0.18193	23.2374	0.234207	1.88307	0.832828	11.9607	-3.31238	0
0.5167	-2.44164	-7.97492	-9.58585	29.9506	0.234207	2.20099	1.44143	7.38546	-0.564331	0
0.5173	-4.27286	16.7473	-10.8092	35.1421	-0.409861	0.366832	-0.0960956	-21.0004	-0.564331	0
0.5180	-4.27286	40.5535	-12.0262	36.6639	-2.22496	-2.37218	-3.13912	-21.6096	-3.61499	0
0.5187	-5.14488	29.5611	-12.641	36.6639	-2.51772	-2.37218	-2.53052	-10.3203	-0.866943	0
0.5193	-6.9761	20.7132	-4.7051	37.5813	-1.28814	0.366832	-0.0960956	-17.6434	7.0664	0
0.5200	-4.88327	23.1596	1.70638	38.8009	-0.0585516	0.978218	0.224223	-23.7484	6.76379	0
0.5207	0.610409	21.015	2.62231	35.4443	-0.0585516	-0.562475	-0.704701	-18.5571	1.2677	-0.321791
0.5213	1.56962	16.133	-2.56585	34.8291	-2.22496	-2.37218	-2.85084	-13.6773	-2.69897	-0.321791
0.5220	-1.83123	11.2511	-25.4577	15.0023	-1.9322	-2.37218	-2.85084	-13.0682	-3.31238	0
0.5227	-4.88327	2.1015	-40.7148	-67.0894	1.17103	0.660297	0.224223	-13.9818	1.57031	0
0.5233	-5.14488	-10.723	-21.1855	-126.904	1.46379	2.20099	1.44143	14.7086	5.23437	0
0.5240	-6.36569	-26.2849	-0.432869	-89.9814	-0.0585516	0.366832	0.224223	48.888	2.48633	-0.321791
0.5247	-11.5978	-43.0646	9.64231	-40.5494	-2.51772	-2.37218	-2.85084	51.6359	-1.48035	0
0.5253	-13.6906	-43.3771	30.3887	-24.0684	-2.51772	-1.76079	-2.53052	61.0909	-0.866943	0
0.5260	-8.80733	-33.3007	41.0724	-15.8226	-0.0585516	0.978218	0.224223	59.5682	1.57031	0
0.5267	-0.261604	-29.6365	36.4927	-10.0267	0.819723	1.5896	1.44143	20.5021	2.48633	0
0.5273	7.32491	-23.5368	35.8842	-8.8071	0.526965	0.366832	1.12111	-8.48601	4.93176	0.321791
0.5280	10.9874	-17.4371	25.5079	-10.3289	-1.28814	-2.07871	-1.31331	-9.71115	4.93176	0.321791
0.5287	11.5978	-17.1245	-4.7051	-9.72451	-0.995378	-1.76079	-1.60159	-13.9818	4.93176	0
0.5293	9.50494	-4.00901	-28.1992	-7.8897	1.46379	1.27168	2.05004	-25.2711	9.81445	0
0.5300	7.32491	13.9992	-22.4025	-7.28529	2.04931	1.88307	3.26725	-16.1137	16.2184	0
0.5307	2.18003	-2.47869	-13.2496	-7.28529	0.819723	-0.244554	0.832828	1.28051	8.89843	0
0.5313	-3.05204	-51.0071	-13.2496	-7.8897	-1.58089	-2.98356	-2.53052	-7.26779	-9.71631	0
0.5320	0	-92.2073	-7.14547	-7.8897	-1.9322	-2.37218	-2.2102	-20.3913	-10.9349	0
0.5327	-1.48242	-106.239	-16.2985	-5.14827	-0.0585516	0.0489109	1.44143	-9.71115	-10.0271	0.321791
0.5333	-10.6386	-110.205	-41.0222	9.50865	0.526965	0.978218	2.05004	7.38546	-29.5579	-0.965372
0.5340	-4.88327	-111.121	-39.7988	21.1003	0.526965	1.27168	1.12111	17.1451	-39.9285	-1.93074
0.5347	9.76654	-123.029	-21.1855	5.83902	-0.409861	-0.244554	-0.992988	29.0504	-32.9111	-0.321791
0.5353	10.9874	-124.851	-7.14547	-8.5049	-1.28814	-0.855941	-2.2102	54.3769	-24.0618	0.321791
0.5360	8.28412	8.50299	12.6912	-5.75268	0.526965	1.27168	0.832828	58.6545	-0.261719	0
0.5367	10.377	200.16	25.2068	-4.53307	1.46379	2.49446	2.65864	11.3516	29.3452	0.321791
0.5373	8.28412	203.21	17.2708	-5.75268	-0.70262	0.366832	0.832828	-27.7145	32.3959	0
0.5380	0.959214	99.7511	3.83936	-6.36788	-2.81048	-2.98356	-2.85084	-23.1323	17.4452	0
0.5387	-4.88327	65.5775	-4.0903	-3.61566	-1.9322	-2.37218	-3.13912	-13.0682	7.98242	0
0.5393	-7.58651	57.6349	-2.56585	0.960579	0.819723	0.660297	0.224223	-9.71115	5.23437	0
0.5400	-7.93532	38.1072	1.70638	1.87799	2.34207	1.27168	2.05004	-0.553736	4.31836	0
0.5407	-4.53447	25.8969	2.92343	0.960579	1.46379	0.0489109	1.12111	9.51734	3.09973	0.321791
0.5413	0.959214	20.0989	2.62231	-0.259032	-1.28814	-2.6901	-1.60159	-6.96323	0.0490723	0.321791
0.5420	3.66245	14.301	-0.733995	0.0431721	-1.9322	-2.6901	-2.2102	-39.9174	-0.564331	0
0.5427	2.18003	6.98344	-3.18065	2.79539	-0.0585516	0.366832	0.832828	-42.3608	2.79712	0
0.5433	0	4.53708	-0.733995	3.702	0.819723	1.5896	2.33833	-26.1848	4.31836	0
0.5440	-0.261604	3.93357	1.70638	2.48239	0.234207	0.366832	1.12111	-23.1323	2.79712	0
0.5447	-1.48242	-4.31077	-0.125469	-0.874234	-1.9322	-2.37218	-1.92191	-25.8802	-0.261719	0
0.5453	-2.09283	-1.2609	0.790456	-0.874234	-2.22496	-2.6901	-2.53052	-21.6096	-0.564331	0
0.5460	0.610409	24.9809	6.58714	2.79539	-0.0585516	0.660297	0.51251	-17.6434	1.8811	0
0.5467	1.83123	41.4696	7.81046	4.31721	0.819723	1.88307	2.33833	-22.8278	4.93176	0
0.5473	-1.22082	31.0914	7.19566	2.79539	-0.0585516	0.0489109	0.832828	-23.1323	6.76379	-0.321791
0.5480	-3.66245	19.7972	8.41899	0.0431721	-1.9322	-2.6901	-2.2102	-12.7567	4.31836	-0.321791
0.5487	-2.09283	21.015	6.89454	0.658374	-1.9322	-2.07871	-2.85084	-4.51987	0.654297	0
0.5493	-1.48242	25.5952	5.37008	0.960579	0.526965	0.978218	0.224223	-12.7567	-2.39636	0
0.5500	-3.92406	22.8471	2.31491	-0.874234	1.75655	1.5896	1.72972	-15.8092	-4.22839	0
0.5507	-4.53447	12.4689	-8.0614	-1.17644	0.526965	0.0489109	0.224223	17.7611	-4.531	0
0.5513	-3.31365	4.53708	-17.8292	-1.79164	-1.58089	-2.07871	-2.53052	33.0165	-13.0778	0
0.5520	-1.22082	5.75487	-18.1303	-2.39605	-1.9322	-2.07871	-2.85084	10.7356	-18.5657	0
0.5527	2.18003	16.133	-9.89325	-2.39605	0.526965	0.660297	0.224223	6.76942	2.79712	0
0.5533	0.959214	17.9651	-1.64992	-3.01125	1.75655	1.88307	2.33833	9.82189	22.3279	0
0.5540	-3.66245	1.48721	-0.733995	-3.61566	1.17103	0.978218	1.44143	8.60367	16.2184	0
0.5547	-4.53447	-8.57843	-4.7051	-5.75268	-0.995378	-1.76079	-0.992988	14.4041	5.53699	0.321791
0.5553	-3.31365	0.269423	-0.432869	-5.14827	-1.58089	-2.07871	-1.60159	16.2314	5.53699	0
0.5560	-2.44164	5.45312	12.6912	-2.09385	0.526965	0.978218	0.51251	12.8744	14.3945	-0.321791
0.5567	-0.610409	-3.39473	19.1027	-1.17644	1.75655	2.49446	2.05004	11.9607	24.4625	0
0.5573	1.22082	-11.0248	17.572	0.345377	0.819723	0.0489109	0.832828	15.3177	30.8664	0
0.5580	-0.610409	-29.9491	16.656	3.702	-1.9322	-3.59495	-3.13912	1.88962	22.0171	0
0.5587	-1.83123	-53.141	14.2157	6.15202	-2.22496	-2.6901	-3.45944	-38.6992	2.79712	0
0.5593	-1.83123	-44.5949	7.50306	6.75643	0.234207	0.660297	0.224223	-48.1612	-7.88427	0.321791
0.5600	-3.05204	-13.1586	2.31491	6.75643	0.819723	1.27168	1.72972	-8.48601	-15.2124	0
0.5607	-0.261604	-0.646615	3.23083	3.702	-0.70262	-0.562475	0.51251	3.71695	-28.0284	-0.321791
0.5613	4.62167	-4.31077	-1.34879	-0.259032	-2.51772	-3.59495	-2.53052	-2.68562	-43.2899	-0.321791
0.5620	4.88327	17.0491	-12.9422	2.79539	-1.58089	-3.30149	-2.85084	19.893	-48.1726	0
0.5627	2.79044	40.8553	-10.5018	6.15202	0.234207	0.0489109	0.224223	31.1823	-34.1297	-0.321791
0.5633	1.22082	32.0074	2.92343	3.0976	0.234207	-0.244554	1.44143	8.60367	-18.8765	-0.321791
0.5640	-1.22082	13.9992	5.06268	-1.47864	-1.58089	-2.07871	0.51251	29.3549	-10.9349	0
0.5647	-5.49368	9.41903	-10.8092	-3.92866	-3.7473	-3.91287	-2.2102	92.2178	-12.767	0
0.5653	-7.58651	13.6975	-21.794	-2.39605	-2.22496	-2.6901	-1.92191	60.4818	-17.0444	0
0.5660	-8.19692	3.62104	-5.00622	-0.874234	1.17103	1.5896	1.12111	-25.8802	8.28503	0
0.5667	-9.76654	-20.7887	4.14676	0.345377	3.27889	4.03515	2.97896	-36.5604	33.6145	0
0.5673	-4.88327	-39.0987	-18.7388	2.18019	2.34207	2.81238	2.05004	1.88962	25.9838	0
0.5680	3.40085	-51.3089	-19.3536	0.658374	-1.58089	-0.562475	-0.992988	36.069	9.81445	-0.321791
0.5687	7.0633	-50.3929	16.0475	-1.79164	-3.45455	-2.07871	-1.92191	52.5496	11.3357	-0.321791
0.5693	7.67371	-31.1668	30.0875	-3.01125	-1.28814	-0.562475	0.51251	51.9404	31.7825	0.321791
0.5700	7.67371	-25.3689	9.94344	-4.23086	0.526965	1.5896	2.05004	63.8388	41.8586	0
0.5707	4.01126	-28.7205	-9.27845	-5.45047	0.526965	1.5896	1.44143	95.5749	34.5305	0
0.5713	-3.31365	-23.5368	-9.27845	-7.28529	-2.22496	-1.14941	-0.992988	104.428	28.4292	0
0.5720	-9.15613	-16.8228	1.39898	-7.28529	-2.51772	-1.46733	-1.92191	72.6917	18.6638	0
0.5727	-9.41774	5.15137	10.8594	0.345377	-0.0585516	1.88307	0.51251	33.6256	-8.49768	-0.321791
0.5733	-3.92406	6.36916	16.3549	19.5785	0.526965	2.49446	2.33833	-20.0868	-36.5752	-1.60895
0.5740	1.22082	-31.7811	14.5231	26.2918	-0.0585516	1.27168	1.72972	-100.648	-43.2899	-1.60895
0.5747	0.610409	-53.4427	6.89454	15.0023	-1.9322	-0.855941	-2.2102	-147.038	-39.0124	-1.28716
0.5753	0.348805	-48.5608	-0.733995	15.9089	-1.58089	0.0489109	-2.85084	-136.967	-36.2726	-1.93074
0.5760	2.18003	-54.9731	-13.8581	13.1675	1.46379	4.03515	0.51251	-88.4455	-34.7432	-0.643581
0.5767	-1.83123	-81.8291	-27.2896	3.0976	1.46379	4.32861	0.51251	-15.2001	-38.7098	0.321791
0.5773	-6.9761	-121.801	-36.7499	2.79539	0.526965	3.10584	-1.31331	20.1975	-29.5579	0
0.5780	-6.36569	-101.659	-43.4625	0.345377	-1.58089	1.88307	-3.45944	3.71695	-3.00159	0
0.5787	-1.22082	5.75487	-26.6748	-2.09385	-2.51772	1.88307	-3.74773	-10.3203	10.1171	0
0.5793	1.56962	72.2916	1.70638	0.345377	-0.70262	4.64653	-0.704701	-26.8008	22.0171	0
0.5800	0.959214	74.7271	18.1868	1.26278	1.17103	5.86931	1.44143	-69.5216	38.808	0
0.5807	5.23208	68.0131	29.1716	0.960579	1.17103	3.42376	1.44143	-84.1679	24.1599	-0.321791
0.5813	9.15613	43.6034	29.1716	0.345377	-1.58089	0.366832	-0.992988	-52.1273	-6.66565	0
0.5820	7.0633	8.20123	23.676	0.960579	-1.28814	1.5896	-1.31331	-30.1579	-6.05224	0.321791
0.5827	2.79044	-19.2691	24.8994	2.79539	-0.0585516	4.32861	0.51251	-17.0343	19.8824	0
0.5833	-1.83123	-20.4869	21.2357	2.48239	-0.995378	3.71723	0.832828	4.33298	26.8998	0
0.5840	0.348805	-17.1245	9.33491	3.0976	-1.28814	1.5896	0.51251	6.46487	13.7811	0
0.5847	3.40085	-32.9989	-5.00622	4.61941	-1.9322	-2.07871	-0.992988	-21.0004	6.76379	-0.321791
0.5853	2.79044	-40.0147	-15.0814	4.015	-1.58089	-3.30149	-0.992988	-47.2475	4.62097	0
0.5860	0.348805	-29.9491	-12.0262	0.345377	-0.0585516	-2.07871	1.72972	-54.2661	-7.58166	0
0.5867	-2.70324	-31.1668	-3.18065	-3.92866	-0.0585516	-2.37218	1.44143	-45.7178	-29.5579	0
0.5873	-1.83123	-37.2666	-1.04139	-0.874234	-0.409861	-3.91287	-0.0960956	-28.3236	-46.0379	0
0.5880	-0.261604	-30.8651	-5.31362	4.92162	-2.22496	-7.26327	-2.53052	-14.5909	-46.9458	0
0.5887	0	-2.78044	-11.1103	0.960579	-2.22496	-9.39089	-2.85084	-1.16285	-39.0124	0
0.5893	0	62.5169	-11.7251	-1.17644	0.819723	-7.58119	0.832828	15.0132	-24.6752	0
0.5900	0.348805	107.079	-7.754	6.45422	2.69338	-5.13564	2.65864	18.9793	31.4798	0
0.5907	-0.261604	89.0712	-7.14547	15.0023	1.75655	-4.52426	1.44143	9.82189	90.0721	0
0.5913	0.348805	48.7871	-7.754	31.7854	-1.28814	-7.58119	-0.0960956	7.07398	71.1548	0
0.5920	2.79044	17.6634	-7.754	45.8164	-1.28814	-8.48604	0.832828	15.0132	28.1266	0.321791
0.5927	1.22082	13.0832	-7.754	46.7338	0.819723	-4.20634	2.97896	24.4751	2.48633	-0.643581
0.5933	-4.53447	28.9576	0.790456	64.1321	1.46379	-0.244554	3.26725	24.1637	-22.8431	-2.25253
0.5940	-7.32491	37.1911	11.1668	88.2437	1.75655	0.366832	2.33833	11.9607	-40.5419	-1.28716
0.5947	-6.10409	32.611	9.94344	98.918	-0.409861	-1.46733	-1.60159	10.1264	-37.7938	0
0.5953	-3.66245	25.5952	6.58714	103.494	-0.995378	-1.46733	-3.45944	24.1637	0.0490723	0
0.5960	-0.261604	13.6975	8.11159	58.3363	1.75655	2.20099	-1.31331	34.5393	34.8413	-0.321791
0.5967	2.79044	7.89948	7.19566	-26.8099	3.27889	4.32861	1.12111	35.4599	33.3119	-0.321791
0.5973	2.79044	13.3849	0.483057	-78.3897	2.34207	3.71723	1.12111	33.6256	32.0933	-0.321791
0.5980	1.56962	14.9153	-5.31362	-91.201	-0.995378	0.0489109	-2.2102	26.9116	42.1612	0
0.5987	2.79044	4.53708	-4.7051	-65.8698	-2.51772	-0.855941	-2.85084	9.82189	32.6985	0
0.5993	4.27286	-24.7546	0.483057	-37.4949	-1.28814	0.978218	-0.384382	-16.1137	7.0664	0
0.6000	1.83123	-1.87518	5.67121	-58.8543	-0.409861	0.366832	0.51251	-31.6806	-0.866943	0
0.6007	0.610409	73.8111	8.11159	-92.4206	0.526965	-1.46733	0.832828	-32.5943	5.23437	0
0.6013	1.83123	68.3257	8.41899	-101.886	-1.58089	-3.59495	-1.60159	-42.6654	4.01575	0
0.6020	1.22082	3.01754	6.58714	-88.1466	-3.7473	-4.20634	-3.45944	-38.3947	-2.39636	0
0.6027	0.610409	-26.2849	6.89454	-59.4695	-1.58089	-1.14941	-0.384382	2.49873	14.3945	0
0.6033	4.62167	-9.19271	14.5231	-37.7971	0.819723	1.27168	1.44143	29.964	38.808	0
0.6040	7.67371	-7.97492	16.3549	-25.8924	2.34207	0.366832	0.832828	17.7611	11.0331	0
0.6047	6.10409	-71.7527	-0.125469	-18.5748	0.234207	-2.07871	-1.92191	-11.5385	-26.499	-0.321791
0.6053	3.05204	-91.8948	-9.89325	-14.9052	-2.22496	-2.98356	-3.74773	-26.8008	-16.7336	0
0.6060	0	-24.7546	5.06268	-9.72451	-0.409861	-0.562475	-0.704701	-31.9852	-8.49768	0
0.6067	-5.49368	7.89948	11.1668	-4.53307	2.04931	0.978218	1.12111	-35.3422	-26.1964	0
0.6073	-10.0281	24.3774	-8.3688	-5.14827	2.04931	-0.244554	-0.0960956	1.58507	-33.2137	0
0.6080	-10.9874	56.1154	-23.6259	-11.5485	0.234207	-3.59495	-2.85084	42.1739	-14.9098	0
0.6087	-13.0802	21.015	-21.1855	-17.0422	-0.70262	-4.81772	-4.06805	29.3549	-9.11108	0
0.6093	-15.8706	-32.6972	-13.8581	-17.3552	0.526965	-2.37218	-1.31331	15.3177	-15.2124	0
0.6100	-13.0802	-43.0646	-6.83807	-13.9985	1.17103	-0.855941	1.44143	6.76942	8.89843	0
0.6107	-6.9761	-41.545	3.53823	-12.7681	-0.0585516	-2.07871	0.832828	-24.9666	36.0599	0
0.6113	-2.70324	-32.9989	5.37008	-16.1356	-2.51772	-4.52426	-2.85084	-9.09512	29.0426	0
0.6120	0.959214	-15.605	3.23083	-16.4378	-2.51772	-2.98356	-3.74773	43.6967	13.4785	-0.321791
0.6127	6.10409	-11.9408	7.81046	-11.5485	0.234207	1.5896	-0.384382	31.1823	17.1344	0
0.6133	7.0633	-11.6391	1.09786	-6.97229	1.46379	4.03515	1.72972	-4.51987	15.3024	0
0.6140	1.83123	4.23533	-15.6899	-8.1919	0.819723	3.42376	0.832828	13.1789	-1.16956	-0.321791
0.6147	-2.09283	-2.17694	-20.8781	-12.1637	-1.58089	0.660297	-2.85084	42.4785	-10.9349	0
0.6153	-1.83123	-6.14284	-8.66992	-10.0267	-2.51772	-0.244554	-4.35633	38.8169	-10.9349	-0.321791
0.6160	-1.22082	47.8711	2.00751	-2.39605	-0.995378	1.88307	-1.60159	18.3702	-23.7591	-0.321791
0.6167	0.959214	97.003	-12.3336	7.97604	0.819723	3.10584	0.832828	6.46487	-44.8111	0
0.6173	4.62167	89.0712	-48.6507	14.6893	1.17103	0.978218	1.12111	5.85576	-36.5752	0
0.6180	3.05204	53.0655	-77.333	11.6457	-0.409861	-2.98356	-1.31331	7.07398	-14.9098	0
0.6187	0.959214	7.89948	-77.6404	9.50865	-0.0585516	-2.6901	-1.92191	8.60367	-10.6323	-0.643581
0.6193	2.44164	-35.747	-65.4322	14.6893	1.17103	0.366832	0.224223	0.97596	-16.7336	-0.643581
0.6200	3.40085	-63.2066	-63.2992	22.6222	0.819723	0.978218	0.832828	-11.5385	-19.7925	-0.321791
0.6207	5.23208	-87.6271	-61.4674	29.0332	0.234207	0.978218	-0.0960956	-2.38107	-17.347	0
0.6213	5.84249	-107.769	-64.5163	28.1158	-1.58089	-1.14941	-3.13912	16.2314	-12.4644	0
0.6220	5.23208	-134.625	-62.0759	34.2247	-2.22496	-1.76079	-5.89386	22.0318	-11.5483	-0.965372
0.6227	8.54572	-202.369	2.31491	38.1857	-0.0585516	2.81238	-2.2102	38.2078	-18.8765	-1.28716
0.6233	10.1153	-165.135	87.4583	13.1675	1.46379	6.48069	0.832828	70.8575	-20.0951	0.321791
0.6240	7.0633	20.7132	74.0331	-6.67008	1.46379	5.25792	-0.704701	62.0115	-11.2457	0.321791
0.6247	3.05204	60.6956	-7.754	-2.69825	-0.0585516	1.88307	-2.2102	7.07398	-13.0778	-0.321791
0.6253	4.27286	-5.52856	-43.1551	-0.259032	-1.58089	0.0489109	-1.31331	-17.0343	-25.8938	0
0.6260	7.32491	60.0813	-21.4866	1.26278	-1.58089	0.978218	1.12111	-19.1662	-37.4912	-0.321791
0.6267	2.18003	147.051	22.1516	7.97604	-1.9322	2.20099	3.26725	-45.1087	-15.8258	-1.93074
0.6273	-6.10409	146.749	44.4287	-3.01125	-0.995378	2.81238	4.19617	-44.8042	35.4465	-1.93074
0.6280	-9.41774	102.499	26.7312	-29.2491	-2.22496	-1.14941	1.44143	-9.39967	40.0266	0
0.6287	-10.377	68.0131	9.33491	-33.5231	-3.45455	-4.20634	1.12111	11.047	-1.48035	0.321791
0.6293	-11.5978	57.3332	7.19566	-16.4378	-0.70262	-1.14941	6.31028	26.607	-24.3644	-0.321791
0.6300	-14.0394	52.1495	8.72639	-4.83527	0.819723	2.49446	9.06502	31.4937	-21.0111	0
0.6307	-11.8594	50.0049	20.6271	-0.874234	-0.995378	2.81238	5.70167	5.24665	-19.4817	-0.321791
0.6313	-5.49368	48.4853	31.612	-1.47864	-3.45455	0.978218	-0.992988	-15.8092	-19.7925	-0.321791
0.6320	-0.261604	44.2069	27.3397	-3.31346	-4.04006	-0.562475	-3.45944	-12.4521	7.67981	-0.321791
0.6327	3.40085	41.4696	18.4879	-2.39605	-1.28814	-2.37218	-0.0960956	-5.43354	42.1612	-0.321791
0.6333	5.23208	35.9733	20.9283	-0.874234	0.234207	-3.59495	1.72972	-10.6248	38.4972	-0.321791
0.6340	4.27286	25.5952	27.3397	-0.259032	-0.70262	-2.6901	0.224223	-11.5385	18.0504	-0.321791
0.6347	-0.610409	11.5529	21.2357	-0.561237	-2.81048	-3.59495	-2.85084	7.99457	8.28503	-0.321791
0.6353	-6.36569	1.78897	15.7401	-0.874234	-2.81048	-3.30149	-4.67665	22.6409	6.76379	0
0.6360	-5.75528	8.81552	19.7112	1.26278	-0.0585516	0.978218	-1.60159	13.4835	8.59582	0.321791
0.6367	-1.48242	23.4613	22.7601	3.3998	1.75655	4.64653	1.44143	-2.38107	7.36902	0
0.6373	1.83123	24.0649	19.4038	2.48239	0.234207	2.20099	1.44143	-8.79056	4.93176	-0.321791
0.6380	3.40085	10.6476	13.9145	-1.17644	-2.81048	-2.98356	0.51251	-10.6248	3.09973	-0.321791
0.6387	1.22082	-0.646615	12.9986	-3.01125	-3.7473	-5.42911	2.05004	-4.82443	-0.866943	0
0.6393	0.348805	0.87293	13.6071	-0.259032	-1.58089	-3.59495	5.70167	7.69001	-3.00159	0
0.6400	3.05204	1.48721	12.6912	3.702	0.819723	0.0489109	5.70167	6.16031	0.654297	-0.321791
0.6407	4.88327	-20.4869	9.94344	4.31721	0.819723	2.81238	2.97896	5.85576	5.84778	-0.321791
0.6413	2.79044	-47.0412	-3.78917	2.79539	-1.58089	2.49446	-1.31331	21.4227	-4.22839	0
0.6420	1.83123	-43.9806	-15.6899	4.92162	-0.995378	0.0489109	-2.2102	30.8777	-27.7258	0
0.6427	-0.261604	-29.6365	-11.7251	7.97604	1.75655	-1.14941	0.224223	22.6409	-32.9111	-0.321791
0.6433	-5.14488	-44.8966	-7.754	6.75643	2.34207	-0.562475	1.44143	6.46487	-32.9111	0
0.6440	-2.44164	-90.677	-8.66992	5.83902	2.34207	0.366832	2.05004	-3.30165	-55.4925	0
0.6447	2.44164	-110.205	-12.3336	1.56499	-0.0585516	-0.855941	-0.384382	6.16031	-37.4912	0
0.6453	4.01126	-56.1908	-9.58585	-4.23086	-2.22496	-0.562475	-2.2102	30.2686	35.7491	0.321791
0.6460	4.88327	-31.7811	-3.18065	-3.01125	-0.409861	2.20099	0.51251	42.1739	53.456	0
0.6467	1.83123	-81.8291	0.483057	1.26278	1.75655	1.88307	1.12111	27.8322	-1.78296	0
0.6473	-3.31365	-54.057	34.6672	0.0431721	1.17103	0.660297	-0.704701	19.2839	-29.2471	0
0.6480	-5.49368	15.8313	68.5376	4.015	-1.58089	-1.14941	-4.06805	-7.26779	-15.515	0
0.6487	-4.88327	-2.17694	47.1764	29.9506	-2.22496	-2.07871	-5.28526	-96.3778	-21.3137	0
0.6493	0.348805	-5.2268	17.572	53.1448	0.526965	0.0489109	-2.85084	-136.662	-10.0271	-0.321791
0.6500	6.7145	21.3275	9.33491	55.584	2.69338	3.10584	-0.384382	-62.503	54.0613	-0.643581
0.6507	5.84249	-7.36063	-6.53695	53.76	2.04931	0.660297	0.224223	5.24665	84.2734	-0.321791
0.6513	1.56962	12.7814	-33.0862	51.31	-0.409861	-10.3202	-1.31331	-1.77196	50.0946	0
0.6520	0.348805	94.5674	-42.2392	47.349	-1.58089	-17.9503	-2.2102	-26.8008	29.6478	0
0.6527	0	98.5333	-34.0022	46.1294	0.234207	-16.1161	-0.0960956	-17.948	33.9253	-0.321791
0.6533	-2.70324	52.4513	-25.1503	45.8164	1.46379	-13.6706	1.72972	11.3516	27.2106	-0.321791
0.6540	-7.58651	25.5952	-23.6259	42.4597	0.526965	-14.5999	1.72972	37.5918	10.1171	-0.321791
0.6547	-14.0394	3.31929	-19.6548	-11.5485	-1.9322	-15.7982	-1.60159	69.6392	-6.36303	-0.321791
0.6553	-13.429	3.01754	8.72639	-114.697	-2.81048	-12.7657	-4.35633	73.9099	-10.9349	-0.321791
0.6560	-9.76654	20.7132	32.5279	-139.424	-0.0585516	-6.9698	-1.92191	30.5732	-8.80029	-0.643581
0.6567	-10.377	26.2095	20.0186	-71.6764	2.69338	-1.46733	0.832828	-2.68562	-13.9938	-0.321791
0.6573	-7.58651	25.2934	-6.22955	-23.4532	2.04931	0.978218	-0.384382	-27.4099	-20.7085	0
0.6580	-1.48242	25.2934	-20.8781	-14.603	-0.70262	-0.562475	-3.45944	-74.4083	-24.9778	0
0.6587	3.66245	33.8395	-14.1655	-9.72451	-1.9322	-0.855941	-3.74773	-100.648	-17.347	0
0.6593	7.93532	50.9209	5.67121	-7.28529	-0.0585516	-0.562475	2.33833	-68.6079	17.4452	0
0.6600	9.76654	38.4089	17.8794	-15.8226	0.234207	-1.76079	6.31028	-14.2864	38.1946	0
0.6607	10.9874	-31.1668	17.2708	-22.5358	-0.70262	-1.14941	5.41338	3.71695	12.2517	-0.321791
0.6613	10.9874	-134.927	13.6071	-18.2618	-1.9322	-0.244554	2.65864	-4.51987	-20.3977	-0.321791
0.6620	6.10409	-186.505	12.9986	-9.41151	-1.58089	1.5896	1.72972	-3.60621	-33.2137	0
0.6627	-0.872013	-150.791	13.2997	4.92162	-0.0585516	6.48069	2.97896	0.359928	-31.6925	0
0.6633	-4.88327	-129.743	10.8594	22.9352	0.234207	12.2766	2.65864	-7.26779	-32.2977	-0.321791
0.6640	-4.53447	-168.497	4.75528	27.8136	0.234207	15.9205	1.12111	-1.16285	-6.66565	0
0.6647	-2.09283	-143.171	5.06268	25.9788	-1.28814	13.1815	-1.92191	37.2872	52.8426	-0.643581
0.6653	3.66245	42.0731	19.7112	38.1857	-3.10324	10.1246	-2.85084	61.7	69.3227	-2.25253
0.6660	5.84249	208.393	26.1164	42.7727	-1.58089	11.3473	0.224223	58.0385	40.3292	-1.28716
0.6667	-1.48242	178.487	12.3838	32.3898	0.234207	12.2766	0.832828	34.5393	21.4119	0.321791
0.6673	-6.9761	84.491	-5.92215	27.8136	1.46379	10.4425	-0.992988	8.60367	12.8651	-0.321791
0.6680	-6.7145	48.4853	-12.9422	24.1548	-0.0585516	6.77416	-3.13912	8.90823	8.89843	0
0.6687	-4.53447	32.0074	-1.04139	21.7156	-1.28814	5.55139	-3.74773	-13.9818	15.3024	0.321791
0.6693	-3.31365	-0.0431077	9.33491	-13.9985	0.819723	7.67901	-0.704701	-67.3828	26.2945	0
0.6700	-1.48242	-30.5526	5.67121	-82.9659	2.69338	9.2197	2.05004	-72.574	30.5638	0
0.6707	1.83123	-42.4611	2.31491	-92.1184	1.46379	7.99693	1.72972	-34.4285	20.4958	-0.321791
0.6713	1.56962	-60.1567	4.14676	-47.2626	-0.70262	4.32861	-1.60159	-7.8769	-2.69897	0
0.6720	2.79044	-82.1309	16.656	-20.3988	-2.22496	3.10584	-2.53052	-4.21532	-24.0618	0
0.6727	7.32491	-111.121	21.2357	-11.8615	-2.51772	5.55139	-0.704701	-16.4183	-31.0791	0
0.6733	4.88327	-145.909	3.23083	-5.75268	-1.9322	6.77416	0.832828	-12.7567	-24.0618	-0.321791
0.6740	-1.48242	-152.321	-13.2496	-3.31346	-0.70262	5.25792	-0.0960956	9.51734	-30.4739	-0.321791
0.6747	-0.872013	-176.127	-27.8981	-3.61566	-1.28814	1.27168	-3.74773	11.6561	-62.5099	0
0.6753	7.0633	-154.767	-47.12	-3.31346	-2.22496	-1.14941	-4.67665	4.63754	-76.5527	0
0.6760	9.50494	3.62104	-61.4674	-2.39605	-0.70262	-0.562475	-1.31331	13.788	-49.6938	-0.321791
0.6767	1.83123	127.523	-71.2289	-3.01125	0.234207	-1.14941	0.224223	27.8322	-35.6592	-0.321791
0.6773	-0.872013	171.472	-67.8726	-3.01125	-0.995378	-5.13564	-0.384382	37.5918	-46.3406	-0.321791
0.6780	2.44164	207.175	-52.9229	-6.05488	-3.45455	-9.70881	-1.92191	44.3058	-3.9176	0
0.6787	1.56962	148.581	-17.2144	-10.6419	-4.68413	-10.9316	-2.53052	40.0351	69.3227	0.321791
0.6793	-1.48242	31.3932	33.1364	-8.1919	-2.81048	-6.65188	-0.0960956	-10.0157	81.5254	0
0.6800	-2.70324	-11.3265	53.889	-1.47864	-0.995378	-2.98356	2.05004	-68.3033	58.0279	0
0.6807	-1.83123	19.4954	49.3094	0.960579	-0.0585516	-4.20634	1.72972	-64.3372	38.4972	0
0.6813	-2.70324	40.5535	23.676	2.18019	-0.995378	-7.87465	-0.0960956	-46.0224	14.0837	-0.321791
0.6820	-4.53447	27.729	-12.0262	3.702	-1.58089	-7.26327	-1.31331	-39.3083	-4.531	0
0.6827	-3.92406	18.2669	-14.774	7.37163	-0.409861	-2.07871	1.72972	-18.8616	-25.2804	-0.643581
0.6833	-1.83123	35.6716	-1.64992	16.5241	0.526965	1.27168	4.80478	-7.8769	-58.5432	-2.25253
0.6840	1.83123	64.0472	0.483057	13.4697	0.234207	1.88307	4.80478	-8.18145	-53.6605	-1.28716
0.6847	5.23208	73.2076	1.70638	-6.97229	-2.22496	-2.07871	0.51251	4.02843	0.351684	0.321791
0.6853	4.88327	91.5176	4.45416	-16.74	-3.10324	-5.13564	-2.85084	18.6747	45.8253	0
0.6860	1.83123	104.946	4.45416	-13.6855	-1.28814	-2.6901	-1.60159	27.5207	72.676	0
0.6867	-1.83123	69.2309	4.14676	-11.2463	1.75655	0.366832	-0.704701	58.0385	91.2989	0
0.6873	-2.70324	40.241	10.8594	-8.8071	2.98613	1.5896	-1.60159	75.7442	74.2054	0
0.6880	-2.09283	41.7713	23.676	-6.05488	-0.0585516	0.366832	-5.28526	38.8169	27.8158	-0.321791
0.6887	-3.05204	47.5693	27.6471	0.658374	-2.51772	-0.855941	-4.96494	0.0553736	-18.8765	-0.321791
0.6893	-0.610409	55.1994	21.8442	11.0305	0.234207	1.27168	0.832828	-15.8092	-52.4419	0
0.6900	2.79044	54.8976	19.7112	17.7437	2.34207	3.10584	3.26725	-18.5571	-51.5259	0
0.6907	1.22082	40.8553	16.3549	17.7437	0.819723	4.03515	1.12111	-9.71115	-22.8431	0
0.6913	-1.48242	26.813	7.81046	11.3327	-1.9322	5.55139	-3.45944	-6.35412	-4.83362	0
0.6920	-0.610409	12.1671	2.92343	5.53682	-3.10324	5.55139	-4.96494	-15.5046	3.40234	0
0.6927	-0.872013	-12.8569	-0.125469	7.37163	-1.9322	4.94	-2.2102	-25.8802	13.1677	-0.321791
0.6933	-2.70324	-26.5867	-3.48177	12.5523	-0.409861	4.03515	2.33833	-23.4438	15.6132	-0.321791
0.6940	-1.83123	-26.5867	-0.733995	13.7719	0.819723	-0.562475	7.2392	-13.9818	8.28503	0
0.6947	-2.70324	-21.7047	5.97861	10.4153	-0.409861	-5.74703	8.45641	-17.3389	-2.39636	0
0.6953	-4.88327	18.2669	11.4679	8.89345	-0.409861	-3.91287	6.31028	-31.6806	-15.515	0
0.6960	-3.05204	52.1495	12.0827	7.67384	1.75655	4.32861	6.63059	-32.5943	-32.6085	0
0.6967	-2.09283	38.4089	10.2508	-0.874234	2.69338	11.6652	5.70167	-17.3389	-45.4245	0
0.6973	-3.31365	20.7132	9.94344	-10.0267	2.04931	13.1815	2.33833	-5.12898	-38.0964	0
0.6980	-2.44164	12.1671	4.45416	-10.6419	0.234207	8.60832	-1.31331	-2.38107	-6.36303	-0.321791
0.6987	-0.872013	11.5529	-4.3977	-10.0267	-1.28814	5.25792	-2.85084	-3.60621	17.4452	-0.321791
0.6993	-1.48242	24.9809	-6.53695	-10.6419	0.526965	5.86931	-0.992988	-4.21532	16.8318	0
0.7000	-2.44164	35.0573	-5.31362	-6.97229	2.34207	6.77416	-1.31331	-2.07651	23.2439	0
0.7007	-2.44164	33.2252	-5.92215	-1.79164	1.17103	7.06762	-3.74773	1.58507	40.3292	0
0.7013	-4.27286	21.3275	-10.1944	-1.47864	-1.9322	4.64653	-6.18215	10.431	48.5733	-0.321791
0.7020	-6.36569	0.87293	-17.5218	1.26278	-3.45455	-3.59495	-5.89386	19.2839	45.8253	0
0.7027	-6.36569	-8.89096	-16.6059	7.37163	-1.58089	-15.5048	-0.0960956	10.7356	26.2945	0
0.7033	-3.66245	3.93357	-6.22955	6.75643	0.234207	-24.0397	4.48446	-9.09512	-18.5657	-0.321791
0.7040	1.83123	23.4613	1.39898	2.18019	-1.28814	-27.4146	5.09307	-21.0004	-61.602	-0.321791
0.7047	4.01126	22.8471	5.67121	0.0431721	-4.33282	-27.0966	2.65864	-19.1662	-72.8886	0
0.7053	1.56962	-9.19271	17.8794	-0.259032	-4.97689	-23.7462	-0.0960956	-16.1137	-49.3912	0
0.7060	-0.872013	-43.9806	31.3046	1.26278	-2.51772	-20.0779	0.51251	-6.96323	-11.8509	0
0.7067	-0.872013	-52.2249	28.2557	1.26278	-0.70262	-14.282	0.51251	27.2161	6.76379	0
0.7073	0.348805	-48.5608	16.656	-0.259032	0.526965	-6.65188	-0.384382	48.2789	3.71313	0.321791
0.7080	0.610409	-58.3247	5.37008	-1.79164	-0.409861	-0.855941	-3.74773	37.5918	-2.39636	0
0.7087	1.56962	-80.2988	-6.83807	-2.09385	-1.28814	4.32861	-6.18215	23.25	-7.27905	-0.321791
0.7093	2.44164	-92.2073	-18.1303	-0.561237	0.234207	11.0539	-4.67665	0.359928	-12.4644	0
0.7100	0.610409	-52.5267	-29.4225	-0.259032	0.819723	15.9205	-2.85084	-24.0529	-15.8258	0
0.7107	0.348805	20.4115	-31.2544	4.61941	-0.70262	13.7929	-3.45944	-14.8955	-10.0271	-0.321791
0.7113	0.348805	41.4696	-26.0662	16.2219	-3.10324	7.06762	-6.50247	22.3363	0.965088	-0.321791
0.7120	-0.872013	22.8471	-27.2896	19.8807	-3.10324	2.49446	-6.79075	29.964	3.09973	0
0.7127	1.22082	12.7814	-23.3185	15.0023	-0.0585516	-0.244554	-3.74773	3.71695	18.0504	0
0.7133	4.01126	-0.344861	-9.27845	24.7592	0.526965	-2.37218	-0.992988	3.71695	54.6747	-1.60895
0.7140	2.79044	-10.4105	-1.95732	36.6639	-0.70262	-3.59495	0.832828	33.6256	57.7253	-1.93074
0.7147	1.56962	-5.84109	-7.45287	28.1158	-2.22496	-6.04049	-0.0960956	53.4632	2.79712	-0.321791
0.7153	4.62167	-6.4446	-5.92215	21.7156	-3.10324	-8.16812	-0.0960956	43.6967	-39.9285	0
0.7160	7.67371	-15.605	7.81046	28.731	-0.70262	-5.13564	2.97896	-2.68562	-19.1791	-0.321791
0.7167	7.93532	-17.1245	12.0827	37.8835	2.34207	-1.76079	4.19617	-51.2137	-1.78296	0
0.7173	7.67371	-17.4371	5.97861	42.1575	2.69338	-2.07871	2.65864	-75.0174	-26.499	0
0.7180	4.62167	-32.9989	-3.78917	44.9097	1.17103	-3.91287	1.44143	-79.2881	-43.5925	0
0.7187	-3.05204	-56.4926	-13.8581	47.349	0.526965	-4.81772	2.33833	-55.4844	-30.7765	0
0.7193	-10.377	-61.9888	-18.4377	39.1031	2.04931	-2.37218	4.48446	-44.8042	-5.74963	0
0.7200	-12.8186	-40.0147	-13.5507	34.8291	2.98613	-0.244554	3.87585	-34.124	-2.08557	0
0.7207	-8.80733	-12.5551	-9.89325	30.5658	2.69338	0.0489109	-0.384382	24.7797	-24.3644	0.321791
0.7213	-1.22082	-8.57843	-8.0614	-27.4251	0.526965	-0.562475	-6.50247	66.2822	-23.1457	0
0.7220	1.22082	-3.09298	10.8594	-98.5295	-0.0585516	0.0489109	-8.6486	62.6206	9.20105	-0.321791
0.7227	-0.872013	8.20123	25.5079	-103.106	2.69338	2.81238	-4.35633	62.9252	11.9491	0
0.7233	-2.44164	-7.67316	18.7953	-71.6764	3.27889	2.81238	-0.0960956	82.4582	-11.8509	0.321791
0.7240	-5.75528	-32.3846	13.2997	-43.906	1.17103	-0.855941	1.12111	66.2822	-8.80029	0
0.7247	-8.19692	-54.6605	11.1668	-25.5902	-2.51772	-4.52426	-1.60159	6.16031	3.40234	0
0.7253	-4.88327	-48.8625	5.37008	-16.4378	-3.7473	-4.20634	-4.06805	-23.7484	-0.564331	0
0.7260	-0.872013	9.41903	-10.1944	-10.0267	-1.28814	-1.14941	-1.92191	-35.0377	-14.2964	0
0.7267	0.959214	51.837	-24.5418	-7.28529	-0.0585516	0.660297	-0.0960956	-28.9327	-23.4484	0
0.7273	1.22082	36.8894	-23.3185	-9.41151	-0.0585516	0.978218	0.51251	11.047	-19.1791	0
0.7280	-0.610409	5.75487	-22.4025	-14.3007	-1.28814	-2.6901	0.51251	20.8066	-9.11108	0
0.7287	0	-15.9067	-27.8981	-17.3552	-1.58089	-6.65188	1.12111	2.19418	12.5625	0
0.7293	5.49368	-40.0147	-28.5066	-15.8226	-0.409861	-5.74703	3.26725	-13.6773	33.3119	-0.321791
0.7300	7.93532	-74.5008	-25.4577	-12.4659	-0.409861	-4.52426	4.19617	-10.3203	31.1772	0
0.7307	4.88327	-108.373	-29.7299	-10.9441	-1.58089	-5.13564	3.87585	25.3888	20.1851	0
0.7313	0.959214	-124.549	-59.027	-10.9441	-2.51772	-6.35842	2.65864	35.7644	7.67981	0
0.7320	-0.872013	-144.077	-99.9174	-8.1919	-1.58089	-5.74703	1.72972	8.29912	-4.83362	0
0.7327	0.348805	-160.253	-99.3089	-2.69825	0.526965	-1.46733	2.33833	-3.60621	-11.5483	0
0.7333	4.62167	-51.3089	-47.7348	0.345377	0.819723	0.660297	2.33833	1.88962	-15.2124	0
0.7340	6.10409	108.599	-2.56585	1.56499	0.526965	-0.244554	0.224223	5.85576	-18.8765	-0.321791
0.7347	3.40085	112.263	-6.22955	1.56499	0.526965	-2.07871	-3.74773	7.69001	-18.8765	0
0.7353	0.348805	69.8452	-30.6459	-0.259032	0.234207	-2.98356	-6.50247	5.24665	-9.41369	0
0.7360	-3.92406	90.9033	-46.5115	-0.259032	2.04931	-0.855941	-4.35633	-0.553736	-3.61499	0
0.7367	-5.75528	79.9216	-26.6748	0.345377	2.98613	0.978218	-1.92191	-1.16285	0.0490723	-0.321791
0.7373	0	50.0049	59.3846	-1.47864	1.17103	1.27168	-0.704701	0.97596	22.0171	0
0.7380	4.01126	42.0731	122.251	-4.83527	-1.28814	-1.14941	-2.85084	-5.43354	33.3119	0
0.7387	2.79044	27.4273	83.4935	-6.97229	-1.9322	-2.6901	-5.89386	-11.2339	15.6132	0
0.7393	0.348805	13.9992	37.1075	-4.53307	-0.0585516	0.978218	-4.06805	-4.21532	-4.531	0.321791
0.7400	-2.44164	11.2511	37.7161	1.26278	2.34207	4.03515	-1.31331	9.21278	-16.7336	0
0.7407	-4.53447	5.45312	25.8153	3.702	3.27889	3.42376	-1.31331	19.2839	-15.2124	0
0.7413	-6.36569	-21.1012	3.53823	-0.561237	0.234207	0.660297	-4.67665	17.7611	-5.44702	-0.321791
0.7420	-5.14488	-42.1485	8.41899	-3.61566	-2.81048	-0.562475	-6.79075	7.07398	-5.44702	0
0.7427	-2.70324	-8.27667	24.8994	-0.874234	-1.28814	2.49446	-3.45944	1.58507	-14.599	0
0.7433	-3.92406	22.2436	37.1075	0.345377	-0.0585516	5.25792	-0.384382	0.359928	-6.36303	-0.321791
0.7440	-1.22082	-22.9225	45.0372	-0.874234	-1.28814	4.03515	-0.992988	1.28051	19.2772	0
0.7447	0.348805	-83.6612	40.4638	-3.31346	-3.7473	0.978218	-4.35633	12.2653	25.9838	0
0.7453	-2.09283	-87.3146	27.9483	-4.23086	-4.68413	-0.562475	-5.89386	25.0842	10.1171	0.321791
0.7460	-2.70324	-93.4251	20.3197	7.97604	-2.51772	0.0489109	-1.92191	27.2161	-8.19507	-0.965372
0.7467	-3.66245	-116.003	19.4038	27.5114	0.819723	-1.14941	3.58757	14.4041	-13.9938	-2.25253
0.7473	-4.53447	-53.141	17.572	22.9352	2.34207	-3.91287	6.02199	18.0656	-27.415	-0.965372
0.7480	-4.27286	13.9992	8.11159	3.0976	-1.58089	-6.04049	2.97896	41.5648	-64.0393	0.321791
0.7487	-4.53447	-29.6365	-3.78917	-1.17644	-4.68413	-4.52426	-1.60159	16.5359	-109.513	0
0.7493	-4.27286	-37.2666	-8.0614	2.18019	-2.22496	0.978218	-0.992988	-40.838	-135.145	-0.321791
0.7500	-0.872013	86.0213	-4.3977	1.26278	1.46379	3.10584	1.44143	-55.7889	-108.597	-0.321791
0.7507	3.05204	178.487	0.18193	-0.874234	2.34207	0.366832	2.33833	-32.8988	-15.8258	-0.321791
0.7513	4.62167	157.742	-0.733995	-3.92866	0.234207	-3.30149	2.05004	-12.1476	77.2561	0
0.7520	5.23208	104.633	1.39898	-6.97229	-1.28814	-2.37218	3.26725	-6.04264	107.166	0
0.7527	3.66245	71.3755	9.94344	-4.23086	-0.409861	7.67901	6.02199	-1.4674	119.066	0
0.7533	0.610409	51.837	15.7401	1.56499	0.234207	16.5319	5.70167	23.8591	110.519	0
0.7540	-0.610409	32.0074	14.5231	2.48239	-0.995378	18.366	3.87585	50.1062	68.1041	0.321791
0.7547	0.959214	7.58695	6.58714	-2.39605	-3.7473	18.0726	0.224223	47.6628	35.7491	0
0.7553	1.83123	-9.19271	-1.64992	-4.53307	-4.68413	20.2002	-2.85084	44.0013	18.6638	-0.321791
0.7560	3.05204	-11.0248	-2.56585	-0.561237	-0.70262	25.3848	-0.384382	61.0909	15.9158	0
0.7567	2.18003	-10.1087	-1.04139	1.26278	1.75655	25.9961	1.44143	54.3769	22.9331	0.321791
0.7573	-0.261604	-23.5368	-1.34879	-0.259032	0.526965	23.5506	0.224223	-14.8955	24.1599	0
0.7580	3.66245	-41.2325	0.790456	-0.561237	-1.58089	20.2002	-1.31331	-76.5402	11.0331	0
0.7587	7.67371	-13.7729	5.37008	0.658374	-2.51772	12.5701	-2.85084	-72.8786	-5.74963	0
0.7593	3.40085	34.7556	5.97861	2.48239	-0.0585516	-0.244554	-1.31331	-51.2137	-11.8509	-0.321791
0.7600	-4.27286	46.3515	2.62231	2.79539	2.34207	-15.7982	1.44143	-37.7856	-13.9938	-0.321791
0.7607	-8.19692	32.9235	2.92343	2.79539	2.98613	-29.5422	2.33833	-21.305	-8.19507	0
0.7613	-6.9761	10.0333	7.19566	0.658374	0.819723	-36.8544	-0.0960956	-11.843	22.3279	0
0.7620	-4.53447	-17.1245	11.7753	-4.23086	-1.28814	-32.8926	-1.31331	-15.2001	58.944	-0.321791
0.7627	-3.31365	-40.629	11.4679	-4.83527	0.234207	-27.0966	1.12111	-13.3727	65.3561	0
0.7633	-2.44164	-65.3512	8.11159	-4.53307	1.75655	-27.708	1.44143	-3.30165	45.2119	0.321791
0.7640	-0.872013	-75.1151	9.94344	-6.05488	2.34207	-24.3576	1.72972	7.99457	7.98242	0
0.7647	0.610409	-29.033	12.3838	-6.05488	1.75655	-14.8934	2.05004	15.9268	-25.8938	0
0.7653	2.44164	32.611	10.2508	-0.874234	0.819723	-5.42911	-0.0960956	11.9607	-18.5657	0
0.7660	6.7145	32.0074	9.02751	6.15202	2.04931	2.20099	-0.992988	-1.77196	8.59582	-0.321791
0.7667	8.54572	17.9651	9.64231	7.37163	2.34207	4.64653	-0.704701	-10.6248	23.8491	-0.321791
0.7673	4.88327	45.7372	6.89454	3.702	0.526965	2.20099	-0.384382	-11.2339	33.0093	0
0.7680	-0.872013	57.6349	4.75528	-0.874234	-2.22496	-4.81772	0.224223	-15.8092	38.808	0
0.7687	-3.92406	41.7713	4.75528	-4.23086	-3.10324	-12.7657	2.65864	-21.0004	17.7478	0
0.7693	-3.31365	36.8894	0.483057	-4.83527	-0.70262	-13.0592	5.09307	-17.3389	-26.8098	0
0.7700	-2.44164	39.6375	-7.14547	-4.23086	0.819723	-6.9698	3.58757	-17.0343	-42.0631	0
0.7707	-2.70324	33.527	-13.2496	-3.92866	0.526965	-2.07871	-0.992988	-22.8278	-29.8605	0
0.7713	-3.92406	10.6476	-18.1303	-2.09385	-1.58089	-2.07871	-4.96494	-27.1054	-31.6925	0
0.7720	-3.66245	-29.6365	-17.5218	-0.259032	-2.81048	-2.37218	-7.39936	-24.662	-36.8778	0.321791
0.7727	-0.261604	-70.8367	-10.5018	4.015	-1.58089	-1.14941	-6.18215	-13.6773	-25.8938	0
0.7733	1.56962	-92.8108	-3.78917	20.1829	-0.0585516	0.0489109	-4.35633	-8.79056	-15.8258	-1.93074
0.7740	2.18003	-93.4251	2.00751	30.5658	0.819723	1.88307	-3.45944	-10.0157	-13.683	-1.93074
0.7747	2.18003	-102.273	2.00751	18.9633	-0.70262	0.660297	-4.67665	-8.79056	-10.0271	0
0.7753	0.959214	-90.9787	-3.78917	14.6893	-2.51772	-1.76079	-6.18215	-8.79056	-7.58166	0.321791
0.7760	1.22082	13.3849	-5.92215	23.8526	-0.995378	0.978218	-3.74773	-9.09512	-3.61499	-0.321791
0.7767	3.66245	125.389	-8.0614	26.8962	0.234207	3.71723	-2.53052	-9.71115	1.57031	-0.321791
0.7773	2.44164	128.741	-15.0814	27.2092	-0.0585516	1.88307	-2.2102	-5.43354	-0.866943	0
0.7780	-2.70324	70.1469	-23.3185	28.4288	-1.9322	-2.07871	-1.60159	3.10784	-3.9176	0
0.7787	-5.14488	24.3774	-26.9822	25.6766	-4.04006	-3.59495	-1.60159	2.49873	-2.69897	-0.321791
0.7793	-3.66245	4.83884	-24.2344	23.5396	-1.58089	0.660297	-0.704701	-5.12898	-2.08557	0
0.7800	-4.27286	-7.97492	-19.3536	27.5114	0.819723	4.64653	-0.0960956	-11.5385	-7.88427	0
0.7807	-5.14488	-44.8966	-11.1103	5.23461	0.234207	3.42376	-0.0960956	-21.6096	-12.767	0
0.7813	-5.75528	-93.1126	-12.9422	-54.8825	-1.58089	-1.76079	-1.92191	-28.6282	-4.22839	0
0.7820	-4.27286	-112.339	-25.4577	-73.5005	-1.9322	-3.30149	-3.45944	-15.5046	11.3357	0.321791
0.7827	2.44164	-130.659	-18.1303	-40.8516	-0.0585516	-0.562475	1.44143	4.33298	36.0599	0
0.7833	7.32491	-148.053	5.06268	-23.7554	1.46379	-0.244554	5.41338	12.5698	66.2721	0
0.7840	4.88327	-130.347	13.9145	-22.5358	1.46379	-3.91287	5.41338	51.3244	57.4227	-0.321791
0.7847	2.18003	-96.1732	10.8594	-21.9314	-0.995378	-9.09743	4.80478	96.4954	17.7478	-0.643581
0.7853	4.27286	3.31929	9.64231	-22.2336	-4.04006	-9.70881	4.48446	70.5529	7.98242	-0.321791
0.7860	6.10409	97.003	12.0827	-16.74	-2.81048	-3.91287	4.80478	43.6967	9.81445	0
0.7867	2.44164	84.8036	15.7401	-6.97229	-0.70262	0.660297	4.19617	39.7306	-13.683	0
0.7873	-1.22082	61.9134	12.9986	-0.561237	-0.70262	1.5896	2.33833	-17.6434	-34.7432	0
0.7880	-1.83123	47.8711	6.89454	-1.47864	-3.10324	-0.855941	-0.384382	-71.9649	-25.8938	0
0.7887	-2.44164	7.89948	8.41899	-3.61566	-3.45455	-0.562475	-3.13912	-47.2475	-1.48035	0
0.7893	-2.70324	-22.0065	6.89454	0.0431721	1.17103	5.86931	-3.13912	-2.07651	5.84778	0
0.7900	-2.70324	22.2436	-14.1655	1.56499	5.73806	13.1815	-2.2102	0.0553736	-14.2964	0
0.7907	-0.872013	72.2916	-42.5466	-2.09385	6.03082	16.5319	-4.96494	-16.7298	-38.0964	0
0.7913	-0.261604	25.2934	-66.6555	-3.92866	2.04931	14.4043	-10.4744	-17.0343	-41.1553	-0.321791
0.7920	-1.83123	-49.4768	-82.22	-2.09385	-1.28814	11.6652	-14.4464	-12.1476	-29.2471	0
0.7927	-0.261604	-81.5166	-79.1648	0.345377	-0.995378	12.5701	-13.5174	-27.4099	-19.4817	0
0.7933	2.44164	-44.5949	-59.9429	2.79539	0.819723	13.7929	-10.7627	-23.4438	-17.6497	0
0.7940	2.44164	41.4696	-34.3033	2.79539	1.46379	10.7359	-8.00796	15.0132	-21.6163	0
0.7947	2.18003	90.6015	-7.754	-0.259032	0.526965	4.64653	-5.28526	24.7797	-23.4484	0
0.7953	4.01126	86.0213	-5.92215	-0.561237	-0.70262	3.42376	-4.96494	21.1181	-22.8431	-0.321791
0.7960	3.66245	42.3856	-11.1103	1.26278	-0.70262	5.86931	-2.85084	18.0656	-15.8258	-0.643581
0.7967	4.01126	-14.3872	9.64231	0.345377	-2.51772	-1.46733	3.58757	2.80329	-7.88427	0
0.7973	6.10409	-13.4711	34.3598	-2.69825	-6.20647	-17.3389	12.108	4.63754	0.654297	0
0.7980	3.05204	44.2069	43.8201	-7.58749	-9.54392	-24.969	16.08	8.29912	27.2106	0
0.7987	-1.83123	91.205	34.6672	-8.5049	-9.83668	-20.3958	14.2542	0.671405	31.1772	-0.321791
0.7993	-3.31365	101.583	21.2357	-4.53307	-6.20647	-13.6706	13.9339	4.63754	-14.2964	0
0.8000	-5.14488	91.8193	14.8305	-1.79164	-2.51772	-12.4478	11.8198	16.8405	-32.2977	0
0.8007	-7.32491	79.3073	9.02751	-0.561237	-0.70262	-12.1544	5.70167	13.788	-7.88427	0
0.8013	-5.14488	61.9134	7.81046	0.0431721	-0.995378	-6.9698	-2.85084	-2.07651	-2.39636	-0.321791
0.8020	-1.48242	39.0232	12.3838	0.0431721	-0.409861	-3.30149	-7.11107	-10.9294	-6.96826	0
0.8027	-2.70324	18.5794	14.5231	0.960579	1.75655	-6.04049	-1.60159	-23.7484	-0.866943	0
0.8033	-6.9761	9.73156	13.2997	1.26278	2.04931	-11.225	6.31028	-35.3422	3.40234	0
0.8040	-6.36569	17.0491	13.6071	-0.874234	1.17103	-10.3202	11.8198	-25.5757	4.93176	0
0.8047	-3.05204	22.2436	12.0827	-3.92866	0.526965	-6.35842	10.8908	-17.3389	6.76379	0
0.8053	-1.48242	8.50299	5.06268	-6.05488	1.46379	-6.65188	6.91888	-8.18145	1.57031	-0.321791
0.8060	-0.610409	-12.2426	-1.04139	-4.23086	4.50848	-5.42911	8.77673	14.0926	-13.3804	-0.321791
0.8067	-0.261604	-15.2924	-1.95732	9.50865	5.73806	0.660297	10.6025	23.8591	-25.2804	-1.60895
0.8073	2.18003	-2.17694	2.00751	19.5785	5.73806	5.55139	5.41338	13.1789	-24.9778	-1.60895
0.8080	4.01126	-5.84109	1.09786	8.28904	3.86441	1.88307	-3.45944	0.671405	-26.8098	-0.321791
0.8087	2.18003	-38.4951	-2.56585	-0.561237	1.17103	-4.81772	-9.86581	-2.07651	-34.7432	-0.321791
0.8093	1.22082	-78.165	10.5582	3.0976	1.75655	-6.35842	-10.1541	3.10784	-24.6752	0
0.8100	2.18003	-113.869	27.0324	4.92162	3.27889	-5.74703	-7.11107	3.71695	-1.48035	0.321791
0.8107	2.18003	-139.507	24.8994	4.015	2.69338	-4.81772	-5.28526	-2.07651	-0.564331	0
0.8113	0.959214	-152.623	16.656	2.48239	0.234207	-3.91287	-6.50247	-6.04264	-25.8938	-0.321791
0.8120	-1.22082	-159.035	12.0827	1.56499	-0.995378	-2.07871	-7.39936	-5.12898	-37.1804	0
0.8127	-2.09283	-100.743	10.5582	1.87799	-0.70262	2.20099	-5.28526	-0.249181	-5.74963	0
0.8133	-3.31365	28.9576	12.0827	-0.874234	-0.409861	4.32861	-2.53052	6.46487	47.9599	0
0.8140	-5.49368	125.691	13.2997	-4.83527	-1.58089	4.32861	-2.85084	10.431	65.9695	0
0.8147	-4.53447	147.665	8.41899	-6.97229	-4.33282	4.32861	-5.89386	10.1264	52.8426	0
0.8153	-5.49368	104.331	-0.432869	-7.28529	-5.85516	5.86931	-8.32828	3.71695	65.6587	-0.321791
0.8160	-8.80733	44.5194	-2.56585	-5.14827	-3.10324	12.888	-6.50247	-2.9971	75.1214	-0.321791
0.8167	-12.2082	26.2095	-0.733995	0.0431721	-1.28814	20.2002	-3.13912	-5.43354	42.7746	0
0.8173	-15.2602	27.1255	-0.125469	4.31721	-1.58089	23.8685	-2.53052	-5.12898	18.0504	0
0.8180	-15.2602	19.7972	-1.64992	5.83902	-2.22496	23.8685	-6.18215	-4.82443	9.51184	-0.321791
0.8187	-10.9874	10.6476	-1.04139	5.23461	-1.28814	21.423	-8.00796	-6.04264	-11.8509	-0.321791
0.8193	-3.05204	0.269423	6.27974	4.015	1.17103	18.684	-3.45944	-5.12898	-28.0284	0
0.8200	3.05204	-5.52856	10.5582	12.2501	1.46379	14.6977	-0.704701	-6.04264	-27.1124	-1.60895
0.8207	4.62167	2.70501	9.02751	18.9633	1.17103	9.51317	2.05004	-6.96323	-22.8431	-2.25253
0.8213	4.62167	3.31929	4.45416	3.702	-1.28814	-0.562475	6.31028	-3.30165	-42.9791	-0.321791
0.8220	3.66245	-16.521	-1.34879	-10.3289	-4.68413	-11.225	7.84781	-0.553736	-68.3086	0.321791
0.8227	3.66245	-6.75713	-0.733995	-9.10931	-3.10324	-11.8364	9.38533	2.19418	-21.6163	0
0.8233	6.10409	51.837	4.75528	1.56499	-0.0585516	-8.48604	11.2112	0.359928	57.1119	-1.28716
0.8240	6.7145	68.3257	6.58714	11.0305	0.526965	-6.9698	10.2822	-2.07651	67.4907	-1.28716
0.8247	2.79044	19.7972	2.62231	4.31721	-0.70262	-6.9698	3.26725	1.28051	24.1599	0
0.8253	0.348805	-4.31077	-0.125469	-0.561237	-2.51772	-5.13564	-2.85084	3.10784	-11.5483	0.321791
0.8260	-0.261604	5.75487	1.39898	3.3998	-0.995378	0.0489109	-1.92191	5.24665	-31.0791	0
0.8267	0.348805	8.50299	4.14676	2.48239	1.17103	2.81238	-0.992988	7.69001	-58.854	0
0.8273	3.40085	3.01754	6.58714	-1.47864	2.04931	0.660297	-1.92191	6.46487	-57.938	0
0.8280	5.23208	-5.84109	5.97861	-3.01125	0.819723	-2.07871	-4.06805	2.49873	-28.6418	0
0.8287	5.49368	-14.3872	4.75528	-1.79164	-0.70262	-0.244554	-7.11107	-1.77196	-21.9271	0
0.8293	6.10409	-19.5709	5.97861	1.56499	0.819723	6.77416	-5.28526	-2.38107	-9.71631	0
0.8300	7.0633	-15.9067	9.64231	4.31721	1.75655	11.3473	-0.704701	0.97596	-0.866943	-0.321791
0.8307	7.32491	3.62104	13.6071	2.48239	-0.0585516	4.64653	2.65864	3.10784	-19.1791	-0.321791
0.8313	6.7145	20.0989	13.6071	-2.39605	-3.7473	-7.26327	2.05004	0.671405	-37.4912	-0.321791
0.8320	5.23208	21.3275	4.14676	-6.05488	-5.26965	-13.9885	0.51251	-0.553736	-35.6592	0
0.8327	2.18003	16.133	-12.641	-7.8897	-2.22496	-13.6706	3.87585	4.63754	23.5465	-0.321791
0.8333	0	5.75487	-23.927	-8.1919	1.17103	-9.70881	6.63059	9.82189	96.4842	-0.643581
0.8340	1.83123	-2.17694	-21.4866	-7.58749	2.69338	-2.37218	5.09307	9.21278	88.8535	0
0.8347	3.66245	-4.31077	-16.2985	-6.36788	1.17103	1.5896	0.832828	4.94209	43.3799	-0.321791
0.8353	0	-3.39473	-24.8429	6.15202	-0.0585516	1.88307	-4.35633	2.19418	23.8491	-1.93074
0.8360	-5.75528	-7.36063	-48.9518	16.8263	3.86441	6.77416	-2.85084	5.24665	11.3357	-1.60895
0.8367	-6.9761	-16.2085	-72.1448	5.53682	5.38675	10.1246	-1.31331	4.02843	-10.0271	0.321791
0.8373	-4.88327	-9.80699	-85.8774	-3.31346	2.69338	5.86931	-3.13912	-5.43354	-28.9444	0.321791
0.8380	-2.70324	6.0674	-92.2889	-0.259032	-0.0585516	1.5896	-6.79075	-11.2339	-37.4912	0
0.8387	-0.261604	14.6135	-84.0518	2.79539	-0.409861	1.88307	-10.1541	-8.79056	-41.4579	0.321791
0.8393	2.79044	10.3351	-74.8926	7.05863	2.04931	5.86931	-8.6486	-0.553736	-34.4405	0
0.8400	4.01126	-30.8651	-82.22	8.89345	3.86441	8.2904	-5.28526	4.63754	-18.8765	-0.321791
0.8407	3.05204	-114.785	-65.1311	5.23461	2.34207	7.67901	-5.57354	0.671405	8.59582	-0.321791
0.8413	2.18003	-171.849	8.11159	-0.259032	-0.409861	4.64653	-8.00796	-3.91076	56.1959	0
0.8420	2.18003	-192.303	68.845	-3.01125	-0.70262	2.49446	-9.25721	-1.16285	53.1452	0
0.8427	3.40085	-242.039	69.4535	-0.259032	0.526965	4.32861	-7.11107	9.51734	-7.27905	0
0.8433	3.40085	-245.703	61.5176	0.960579	0.819723	5.25792	-4.35633	16.5359	-28.6418	-0.321791
0.8440	3.66245	-177.043	77.082	-1.47864	-0.409861	1.5896	-3.13912	11.3516	-18.2631	-0.321791
0.8447	7.93532	-94.9446	83.4935	-6.67008	-3.10324	-3.91287	-1.92191	4.33298	-21.0111	-0.321791
0.8453	9.15613	70.4595	67.9291	-13.0811	-5.26965	-7.58119	1.12111	8.60367	11.9491	0
0.8460	3.05204	187.648	52.9731	-13.0811	-5.26965	-6.35842	6.63059	7.99457	76.6427	-0.321791
0.8467	-1.83123	130.271	45.0372	-7.8897	-4.97689	-4.52426	8.77673	-4.82443	79.3907	-0.321791
0.8473	-3.66245	61.9134	38.632	-5.14827	-4.33282	-4.81772	6.02199	-7.8769	38.4972	-0.321791
0.8480	-8.54572	13.6975	23.676	-3.92866	-3.10324	-5.74703	3.58757	-0.858291	18.0504	-0.321791
0.8487	-13.429	-19.5709	5.97861	-2.69825	-2.51772	-4.81772	0.51251	1.58507	11.3357	0
0.8493	-12.8186	15.217	4.45416	0.960579	-0.0585516	-0.562475	0.224223	4.33298	11.6465	0
0.8500	-6.36569	26.813	5.67121	5.23461	2.98613	4.94	2.33833	8.29912	18.6638	0
0.8507	0	3.01754	-3.18065	5.83902	2.04931	10.1246	0.832828	8.60367	28.1266	-0.321791
0.8513	-1.83123	22.5453	-12.9422	2.79539	-1.58089	10.4425	-4.96494	8.90823	29.0426	0
0.8520	-6.7145	38.4089	-16.6059	0.960579	-4.04006	8.2904	-8.93689	6.16031	15.9158	0
0.8527	-4.53447	29.8736	-20.8781	2.48239	-1.9322	11.9587	-8.6486	0.0553736	11.3357	0
0.8533	-1.83123	57.9475	-21.794	2.48239	0.526965	16.2384	-6.79075	-9.39967	0.654297	0
0.8540	-3.66245	103.717	-7.45287	0.658374	-0.409861	16.5319	-3.74773	-13.9818	-29.8605	-0.321791
0.8547	-5.49368	104.331	-2.26472	-0.874234	-2.51772	10.1246	-0.0960956	-10.0157	-28.9444	0
0.8553	-5.14488	60.6956	-10.5018	-1.47864	-3.10324	2.49446	3.87585	-11.5385	-0.564331	0
0.8560	-6.36569	11.2511	-7.14547	-0.259032	-1.58089	7.06762	7.2392	-17.948	12.2517	-0.321791
0.8567	-8.19692	-19.2691	11.4679	0.658374	0.234207	18.684	8.77673	-1.77196	13.1677	-0.321791
0.8573	-5.49368	-22.0065	42.5968	-1.17644	2.04931	25.9961	9.38533	37.5918	-10.0271	-0.321791
0.8580	-1.83123	-29.9491	59.0772	-6.36788	1.46379	27.2189	6.63059	48.888	-37.7938	-0.321791
0.8587	-1.22082	-24.7546	40.1564	-10.0267	-0.0585516	23.8685	4.19617	29.3549	-20.3977	-0.321791
0.8593	-0.610409	59.1653	16.656	-7.58749	-0.70262	14.4043	9.67362	19.5884	6.453	0
0.8600	-0.261604	111.347	4.14676	-1.79164	-0.0585516	-0.855941	12.108	23.25	-0.261719	-0.321791
0.8607	0.610409	50.0049	-10.5018	0.960579	1.17103	-15.1868	5.70167	20.8066	-13.3804	0
0.8613	1.83123	-14.3872	-21.1855	-0.259032	0.234207	-27.0966	-1.31331	3.10784	-9.11108	-0.321791
0.8620	-3.66245	-23.8385	-22.7099	-2.39605	-0.409861	-36.2674	-4.35633	4.02843	-8.80029	-0.321791
0.8627	-13.429	-12.8569	-28.1992	-3.31346	2.34207	-36.8544	-2.2102	43.0876	-20.3977	-0.321791
0.8633	-13.429	-27.5027	-34.6107	5.83902	3.57165	-33.504	2.05004	69.3347	-10.9349	-1.93074
0.8640	-3.92406	-29.3348	-28.814	16.8263	2.34207	-30.447	2.65864	54.0723	6.453	-2.25253
0.8647	1.56962	0.87293	-15.6899	7.67384	0.234207	-26.1918	-1.31331	40.9488	-7.88427	-0.643581
0.8653	4.88327	-1.87518	-0.432869	-1.47864	-1.58089	-21.3007	-4.67665	40.6442	-26.499	0
0.8660	12.8186	-2.78044	13.2997	1.56499	-0.0585516	-12.7657	-3.74773	15.0132	-12.4644	-0.321791
0.8667	16.481	23.1596	23.9834	1.26278	1.46379	-6.04049	-2.53052	-17.0343	8.89843	-0.321791
0.8673	15.609	33.2252	27.9483	-3.92866	1.75655	-4.20634	-2.53052	-16.7298	12.2517	0
0.8680	17.0914	33.8395	14.5231	-8.5049	0.819723	-3.91287	-4.06805	-13.0682	20.1851	0
0.8687	13.7778	46.6533	-2.87325	-9.10931	0.234207	-3.91287	-7.71968	-24.0529	29.9586	-0.321791
0.8693	5.23208	62.2151	-8.66992	-3.31346	2.98613	-2.37218	-6.79075	-48.1612	10.1171	0
0.8700	0.610409	48.4853	-14.774	1.87799	5.38675	-0.244554	-4.35633	-81.4269	-22.8431	0
0.8707	-1.22082	24.0649	-17.5218	2.48239	4.50848	-0.855941	-4.06805	-72.574	-32.9111	0
0.8713	-2.44164	14.301	-8.66992	0.345377	0.819723	-4.52426	-5.28526	-20.3913	-25.8938	-0.321791
0.8720	-1.83123	-1.56265	-1.34879	-1.17644	-1.9322	-6.04049	-6.18215	11.047	-23.4484	-0.321791
0.8727	3.05204	-21.1012	-0.125469	1.26278	-1.28814	-3.59495	-3.45944	-0.858291	-19.7925	-0.321791
0.8733	7.0633	-38.4951	1.70638	2.48239	-0.0585516	-2.6901	1.44143	-20.3913	-12.767	-0.321791
0.8740	4.88327	-30.5526	3.53823	0.960579	0.234207	-4.20634	4.80478	-14.5909	-12.4644	0
0.8747	-3.66245	9.73156	-0.733995	-2.69825	-0.70262	-8.48604	2.65864	-2.9971	-10.0271	0
0.8753	-10.6386	18.2669	-5.92215	-6.05488	-0.0585516	-15.5048	2.97896	-9.39967	2.48633	-0.321791
0.8760	-8.19692	-7.36063	-4.0903	-6.67008	5.09399	-20.3958	12.4284	-17.0343	16.2184	-0.321791
0.8767	-4.88327	-22.9225	-1.34879	-5.14827	7.84592	-18.5617	17.0089	-19.4707	16.5292	0
0.8773	-5.75528	-35.4345	-1.64992	-2.39605	6.32358	-10.6137	9.67362	-30.1579	7.98242	-0.321791
0.8780	-4.53447	-48.8625	0.18193	-0.561237	4.80123	-2.37218	-0.0960956	-40.222	5.23437	-0.321791
0.8787	-5.49368	-39.0987	3.83936	0.658374	2.04931	4.94	-7.11107	-37.1765	5.23437	0
0.8793	-6.9761	12.7814	5.06268	3.3998	0.526965	13.4994	-8.6486	-23.1323	9.20105	-0.321791
