MR32 ASCII
Name	TBAS15_fast
Frequency	1500
Date	03-09-2015 11:48:10
"Time,s"	"RT TIB.ANT.,uV"	"RT MED. GASTRO,uV"	"RT LAT. GASTRO,uV"	"RT BICEPS FEM.,uV"	"RT VMO,uV"	"RT VLO,uV"	"RT RECTUS FEM.,uV"	"RT SOLEUS,uV"	"RT SEMITEND.,uV"	"Channel 12,uV"
0.0000	-149.417	6.32042	-5.62004	183.447	-15.3829	12.2776	2.5941	7.96656	-194.613	-9434.88
0.0007	-17.5546	5.38837	-6.55186	150.795	-15.3829	12.8888	3.81273	8.89139	-116.822	-10296.2
0.0013	0.761037	5.70876	-6.23155	-20.1289	-13.551	12.59	4.11437	11.3252	-157.696	-9527.7
0.0020	-52.6637	5.38837	-5.00853	-207.179	-15.3829	6.79073	0.458492	12.5421	6.47146	-9874.87
0.0027	-81.025	5.38837	-3.17401	-160.802	-12.0346	0.991446	-2.29246	8.89139	255.203	-9838.9
0.0033	-107.611	7.54372	-1.33949	-72.9101	-3.17849	0.991446	0.458492	0.957285	203.331	-9790.72
0.0040	-111.568	9.96121	2.62074	-244.749	1.09185	0.991446	3.81273	-2.7096	59.5844	-9815.77
0.0047	-87.7729	10.2816	5.06677	-386.967	-0.436739	-2.06438	3.81273	-2.10927	117.257	-9815.13
0.0053	-71.2838	8.7379	2.62074	-258.473	-2.8752	-7.25249	1.06177	-3.01788	189.282	-9808.71
0.0060	-50.2284	6.93207	-1.6598	-104.933	-2.57191	-13.6494	-1.07384	-6.37649	-29.5407	-9790.08
0.0067	-43.4806	2.6505	-6.23155	-45.7475	-1.6499	-17.9275	-1.37548	-8.51821	-415.28	-9909.87
0.0073	-29.1731	-1.63107	-10.8033	24.4177	-0.74003	-21.2821	-1.07384	-1.18444	-584.946	-9677.03
0.0080	-9.94421	-3.46603	-12.9581	111.109	1.39514	-27.0814	-2.29246	7.96656	-504.371	-9752.83
0.0087	-13.5972	-2.53399	-10.1918	164.805	-1.6499	-31.9707	-5.04342	11.0169	-410.988	-10523.3
0.0093	33.0797	2.33011	-3.17401	223.419	-7.75211	-35.013	-5.04342	13.7589	-322.802	-6600.69
0.0100	120.396	9.34956	5.35796	294.843	-12.0346	-41.4234	-5.04342	18.0424	-146.094	-375.109
0.0107	177.727	16.369	13.9191	345.451	-9.88728	-43.2569	-5.04342	20.4762	66.8941	109.835
0.0113	214.663	20.6506	18.1705	353.114	-0.436739	-38.9788	-4.12643	16.8255	186.23	-286.791
0.0120	237.545	19.136	16.0448	230.11	5.05889	-36.2353	-6.56368	8.89139	133.755	61.0194
0.0127	221.107	16.0777	11.7642	76.3411	2.92372	-29.2137	-8.08395	1.86589	-113.77	24.0866
0.0133	160.68	13.6311	9.02701	107.164	-3.78507	-22.8168	-5.6467	-8.20993	-334.102	-23.7654
0.0140	84.0692	13.3399	9.92971	131.524	-15.6862	-22.8168	-3.51109	-17.6692	-331.05	1.92693
0.0147	26.687	16.369	15.1421	-102.532	-25.7555	-20.9833	-1.07384	-16.144	-186.096	-0.642309
0.0153	5.32726	15.1748	13.9191	-320.747	-28.8126	-16.4064	1.67712	-10.952	4.05724	-0.963464
0.0160	14.4597	10.2816	7.5128	-234.342	-30.9478	-13.3506	2.29246	-8.81026	143.814	-0.642309
0.0167	20.5987	9.96121	7.19248	-60.1008	-37.3533	-11.2183	0.760132	-1.49272	266.503	-0.321155
0.0173	12.9376	11.7962	9.3182	-127.521	-41.3204	-4.49546	-0.156853	7.35	386.41	-0.642309
0.0180	36.7834	10.5729	7.5128	-363.464	-29.1159	5.88077	0.458492	8.89139	368.404	-0.642309
0.0187	94.7237	7.22333	2.62074	-409.84	-7.14553	11.0689	1.06177	3.69934	206.081	-0.642309
0.0193	124.962	3.26215	-2.27131	-213.298	-8.37083	9.23539	1.67712	-3.92649	3.42015	-0.321155
0.0200	115.779	1.13593	-3.17401	-5.4897	-19.9687	5.5684	2.89574	-10.0434	-212.016	-0.321155
0.0207	100.863	-0.087379	-3.49432	64.7327	-2.57191	1.9014	3.81273	-15.8358	-393.619	-0.321155
0.0213	81.6339	-2.24273	-5.94035	3.6598	17.2633	-2.36317	3.81273	-21.3361	-459.842	-0.321155
0.0220	50.7865	-1.31069	-5.62004	-22.5878	12.993	-6.03016	4.11437	-20.103	-433.889	-0.321155
0.0227	18.4678	0.815537	-3.49432	46.7196	4.7556	-7.86366	5.33299	-9.7351	-302.65	-0.321155
0.0233	-9.6398	0.815537	-3.17401	89.4364	1.39514	-3.27313	7.16696	-2.10927	-46.9097	-0.321155
0.0240	-31.304	-1.31069	-2.5625	68.6784	-5.61695	-1.75201	9.30257	-2.7096	231.397	0
0.0247	-40.132	-2.85438	-1.33949	-16.755	-16.3049	-9.38478	11.4382	-5.1596	433.722	-0.321155
0.0253	-19.3811	-1.31069	-0.116477	-47.5774	-20.8785	-6.64133	13.5738	-2.7096	488.042	-0.321155
0.0260	15.3729	2.6505	2.30043	79.3719	-17.5181	6.17956	12.9705	3.69934	337.589	-0.321155
0.0267	11.72	6.32042	5.06677	181.618	-13.2477	9.84655	8.08395	8.58311	149.917	-0.321155
0.0273	-9.03097	7.54372	3.84376	229.824	-12.0346	6.79073	3.51109	16.8255	72.3932	0
0.0280	19.0767	3.55341	-2.5625	333.271	-15.6862	1.60261	0.144787	25.3599	-37.1522	0
0.0287	54.1351	-0.407769	-9.28908	451.985	-16.9115	-5.71779	-3.20945	14.9921	-147.938	0
0.0293	-26.1289	-1.92234	-13.5696	591.744	-16.9115	-15.4829	-4.12643	1.24934	-66.1564	0
0.0300	-186.911	-1.01942	-12.9581	743.111	-20.272	-25.8591	-4.72971	5.53278	101.699	-0.321155
0.0307	-280.315	3.55341	-5.62004	831.289	-8.37083	-30.436	-5.6467	12.8503	91.3046	-0.321155
0.0313	-298.935	7.54372	2.91194	910.032	6.28419	-17.9275	-8.08395	14.6838	-30.7478	0
0.0320	-243.075	11.5049	9.92971	902.141	-0.74003	9.53418	-10.5333	15.3003	-53.6494	0
0.0327	-94.7744	14.8544	13.5987	611.873	-6.53895	35.7871	-4.42807	13.7589	-122.287	0
0.0333	3.50077	14.5632	12.9872	374.786	-8.05541	47.9833	3.81273	13.1586	-269.991	0
0.0340	-20.5987	13.0195	13.5987	480.978	-24.5423	47.0733	2.29246	13.1586	-272.74	-0.642309
0.0347	14.1553	11.1845	12.9872	537.133	-48.0413	42.7952	-2.89574	6.13311	-281.29	-0.642309
0.0353	161.289	9.66994	9.92971	355.229	-57.504	42.7952	-1.67712	-3.92649	-362.771	0
0.0360	180.822	9.66994	11.473	178.53	-59.0204	39.7529	1.67712	-10.0434	-131.441	0
0.0367	72.1463	10.5729	16.9475	30.2505	-45.6028	29.3767	0.760132	-14.6189	267.409	0
0.0373	48.96	10.8933	20.3253	-310.626	36.7952	16.257	-1.67712	-20.7195	279.312	0
0.0380	91.984	6.93207	14.2103	-887.444	153.987	2.82494	-4.12643	-22.8613	14.1165	-0.321155
0.0387	111.213	1.13593	3.52344	-1441.33	209.222	-4.19667	-5.34506	-17.3609	-137.879	-0.321155
0.0393	104.82	-0.699032	-2.5625	-1632.96	208.919	-1.75201	-3.20945	-8.51821	-186.096	-0.321155
0.0400	77.9809	-0.699032	-4.10583	-1361.96	182.678	1.60261	-4.12643	-4.54305	-250.174	-0.321155
0.0407	41.0452	-1.01942	-2.5625	-896.308	127.127	-1.14084	-4.42807	-6.68477	-314.553	0
0.0413	55.3527	-0.087379	0.786223	-507.511	66.7119	-15.1841	-1.67712	-8.51821	-362.167	0
0.0420	119.483	-0.407769	1.39773	-310.34	9.94794	-36.5477	-0.156853	-6.68477	-366.124	0
0.0427	117.656	-1.63107	0.46591	-316.744	-55.3688	-54.8555	0.144787	-3.63444	-264.525	0
0.0433	51.3953	-2.53399	0.46591	-312.455	-113.649	-70.4198	-3.81273	-1.49272	-53.3476	0
0.0440	8.67582	-3.7573	0.174716	-159.888	-160.647	-82.3172	-11.7519	-1.18444	176.171	0
0.0447	-12.9884	-5.88352	-2.27131	-12.1803	-188.72	-79.2749	-16.3247	-1.80099	300.068	0
0.0453	-19.0767	-7.10683	-4.71734	17.4412	-167.671	-59.1336	-16.0231	-2.40132	283.571	0
0.0460	-16.6413	-5.59226	-5.00853	28.7066	-124.034	-33.4919	-16.6384	-3.32616	211.546	0
0.0467	-38.3055	-5.59226	-5.94035	70.2224	-101.445	-14.8717	-21.8267	-5.45166	219.191	0.321155
0.0473	-60.2741	-8.03887	-8.96877	-91.8381	-83.4414	-5.10663	-24.8792	-7.59338	286.622	0
0.0480	-59.6653	-8.65052	-11.1236	-437.918	-49.5699	0.991446	-20.596	-5.1596	238.103	-0.321155
0.0487	-59.9697	-6.81556	-11.7351	-564.581	-15.3829	5.88077	-17.2417	0.340728	116.956	0
0.0493	-62.7094	-5.59226	-12.6378	-415.959	-2.57191	8.31185	-18.1587	3.69934	79.4346	0
0.0500	-37.6967	-4.36895	-11.4148	-226.736	-15.0796	4.34606	-19.691	6.74967	138.617	-0.321155
0.0507	-5.98682	-1.92234	-6.84305	-99.4436	-31.8698	-1.75201	-18.7741	8.58311	265.263	0
0.0513	-23.034	-1.92234	-4.71734	-30.4793	-43.7709	-2.06438	-16.6384	6.13311	348.587	0
0.0520	-46.8799	-2.53399	-5.32885	-8.23455	-53.2215	0.380281	-14.5028	6.44139	326.624	0.321155
0.0527	-10.8575	0.524274	-2.88282	-28.6494	-45.9061	3.12373	-13.2721	12.5421	249.704	0.321155
0.0533	14.1553	2.33011	0.46591	-35.969	-23.9357	8.31185	-14.8045	13.4669	129.161	0
0.0540	-14.8148	0.203884	0.786223	36.3121	-16.9115	8.62422	-16.9401	8.89139	43.0872	0
0.0547	-41.0452	0.203884	2.62074	67.1345	-26.6775	5.2696	-19.9927	4.00762	37.6216	0
0.0553	-42.2629	2.03884	6.90129	26.5907	-32.1731	7.08952	-23.3469	3.08278	48.5862	0
0.0560	-37.3923	3.26215	12.0845	88.8073	-28.5093	11.0689	-21.2113	6.44139	74.2374	0
0.0567	-42.2629	4.48546	19.1023	206.607	-20.272	9.84655	-18.1587	10.4166	122.153	0
0.0573	-52.6637	3.8738	23.3829	285.064	-14.1698	5.5684	-15.4078	13.1586	136.806	-0.321155
0.0580	-50.5328	-0.087379	19.3935	341.791	-18.4401	1.60261	-9.91792	13.4669	109.311	0
0.0587	-28.5642	-4.68934	9.02701	337.216	-29.7346	-4.49546	-6.56368	5.2245	86.1408	0
0.0593	12.9376	-7.71848	-2.88282	273.456	-38.8819	-4.80783	-2.29246	-9.11854	32.7261	-0.321155
0.0600	53.5262	-10.7767	-14.7926	214.556	-41.9391	2.21378	3.81273	-21.9364	-70.1131	0
0.0607	57.5344	-14.1263	-22.1016	218.502	-36.7467	4.65844	6.24998	-28.3454	-134.526	0
0.0613	23.9473	-18.7282	-24.2273	288.095	-34.9148	-0.230885	6.24998	-27.745	-126.579	0
0.0620	-45.3578	-20.2428	-23.9361	312.227	-40.4105	-4.49546	7.16696	-21.3361	-92.4111	0
0.0627	-123.44	-15.0583	-19.0441	304.907	-36.4434	1.60261	6.86532	-14.6189	-70.1131	-0.642309
0.0633	-171.69	-6.20391	-8.67757	426.367	-21.4851	13.8123	5.94834	-6.37649	-55.4601	-0.963464
0.0640	-191.832	-0.407769	-0.436791	575.904	-9.2807	20.5216	5.03135	4.00762	-50.2963	-0.321155
0.0647	-129.275	1.42719	3.84376	526.154	-6.84224	21.7439	6.24998	13.7589	-61.8645	0
0.0653	-74.0235	4.48546	7.19248	372.957	-6.84224	23.265	11.7519	20.7844	-65.8546	-0.321155
0.0660	-133.232	8.15537	7.80399	274.371	-8.37083	24.7997	20.2943	26.2848	-15.1895	-0.321155
0.0667	-186.302	6.00003	1.68892	101.331	-3.48178	23.8762	26.7012	27.8099	126.411	0
0.0673	-220.498	-3.14564	-11.1236	-150.452	16.3534	22.9662	25.4825	21.401	203.633	0
0.0680	-240.031	-13.2234	-23.0043	-296.615	26.1194	29.6755	14.4908	10.7086	116.352	0
0.0687	-197.311	-15.67	-22.7131	-404.637	16.3534	40.9752	5.33299	2.17417	33.9332	0
0.0693	-147.59	-11.0971	-12.6378	-420.191	-3.48178	39.4405	10.2196	2.17417	-7.24267	0
0.0700	-138.103	-4.36895	1.39773	-122.031	-19.9687	25.0985	21.2113	9.18344	-85.0678	-0.321155
0.0707	-126.18	0.524274	15.7245	238.974	-18.1368	13.2012	21.8146	12.8503	-151.593	-0.321155
0.0713	33.6886	-0.699032	17.559	284.435	-17.5181	3.12373	12.0535	8.58311	-197.664	0
0.0720	257.687	-7.71848	5.06677	124.548	-27.284	-2.97434	9.00093	-3.01788	-257.182	0
0.0727	274.481	-14.1263	-7.16337	108.993	-40.4105	0.991446	14.1891	-11.2603	-281.592	-0.321155
0.0733	154.541	-14.4467	-10.1918	272.541	-59.0204	10.7565	15.7094	-4.54305	-249.269	0.321155
0.0740	25.1649	-9.87383	-8.06607	413.557	-64.516	19.9104	11.7519	8.27483	-219.359	0.321155
0.0747	-162.811	-7.42722	-6.23155	576.476	-59.6391	15.6458	3.81273	12.5421	-195.854	0
0.0753	-359.362	-9.26218	-7.45456	845.986	-67.8765	0.380281	-7.48067	13.7589	-134.191	-0.321155
0.0760	-443.583	-10.7767	-9.58027	870.06	-78.249	-6.64133	-21.2113	19.8758	10.1599	0
0.0767	-372.198	-8.03887	-5.94035	418.704	-78.249	-5.10663	-29.7537	28.102	189.584	0
0.0773	-293.456	0.524274	9.02701	-82.9745	-71.237	-1.14084	-20.2943	43.0616	262.211	-0.321155
0.0780	-370.98	13.3399	28.2458	-401.606	-57.2007	2.82494	-0.458492	54.6626	279.01	0
0.0787	-466.465	20.0389	41.3786	-676.262	-37.6687	5.88077	10.8349	48.5619	316.23	0
0.0793	-207.357	17.9127	41.6698	-779.08	-19.9687	16.257	15.1061	35.4358	284.811	0
0.0800	227.195	12.7282	31.5945	-655.79	-17.8214	26.932	12.0535	29.0268	185.627	0
0.0807	241.553	7.22333	19.7138	-512.658	-17.5181	32.4325	2.89574	31.1685	77.2887	0
0.0813	27.2958	2.33011	12.0845	-560.578	-2.26862	39.7529	1.67712	27.1934	-23.1363	0
0.0820	152.715	1.13593	11.7642	-791.317	12.993	43.7187	3.19738	2.7745	-82.3183	0
0.0827	468.291	3.26215	18.4908	-958.525	20.3205	44.6286	4.42807	-29.5623	-100.626	0
0.0833	608.982	2.94176	21.228	-982.37	25.5128	44.3299	11.4382	-51.8394	-116.822	0.321155
0.0840	616.288	0.815537	15.7245	-881.326	33.1315	40.9752	12.0535	-48.1887	-152.834	0
0.0847	490.869	-0.087379	9.3182	-574.303	47.1799	40.0517	4.72971	-24.6785	-222.712	0
0.0853	301.371	-1.01942	5.96947	-142.218	54.8107	43.4063	-2.29246	-3.32616	-266.637	0
0.0860	208.27	-3.14564	3.23225	192.254	44.1228	43.4063	-13.2721	11.9417	-236.728	0
0.0867	114.257	-2.24273	5.96947	338.131	29.1645	27.2444	-24.8792	21.401	-211.412	0
0.0873	-54.7946	0.203884	10.5412	351.284	24.8941	0.0814887	-27.3165	21.401	-177.848	0
0.0880	-167.428	-3.7573	4.74646	344.536	29.4799	-13.9617	-22.1283	9.8	-60.6573	-0.321155
0.0887	-163.42	-6.20391	-0.727984	396.745	24.8941	-18.8375	-13.5859	-3.63444	77.2887	0
0.0893	-188.179	-1.01942	6.58098	477.947	4.45231	-39.2911	-5.94834	-8.51821	170.974	0
0.0900	-201.878	6.00003	19.1023	557.262	-3.48178	-61.8771	-1.99082	-12.1689	239.343	-0.642309
0.0907	-49.3152	9.34956	25.5086	623.481	8.41935	-64.9193	6.24998	-21.9364	287.561	-0.642309
0.0913	130.137	6.32042	20.6165	507.225	12.3864	-59.7312	14.1891	-29.2702	255.203	0
0.0920	218.62	-0.407769	10.8615	170.638	15.7469	-46.6115	11.1365	-34.7543	184.386	0
0.0927	253.73	-8.33013	-1.0483	-65.5905	22.7589	-26.4702	6.86532	-45.1384	173.422	0
0.0933	176.51	-17.5049	-13.8608	-6.97649	28.2546	18.0769	3.19738	-56.1228	177.68	0.321155
0.0940	-96.9053	-20.2428	-15.0838	101.96	56.6305	84.3001	-0.156853	-53.9811	161.518	-0.642309
0.0947	-382.852	-14.1263	-5.62004	24.1318	82.8833	114.818	1.97876	-35.6791	140.159	-0.963464
0.0953	-371.893	-7.71848	1.68892	-46.3765	69.7569	115.741	8.38558	-15.5275	88.5886	0
0.0960	-142.365	-4.07769	3.23225	36.3121	44.7293	107.497	27.6181	-3.01788	30.8819	0.321155
0.0967	162.202	-5.88352	-3.17401	18.3562	26.4227	77.292	55.6948	4.29967	12.5741	-0.321155
0.0973	476.206	-14.4467	-16.9184	-191.339	-6.84224	44.941	67.2898	9.8	12.5741	-0.321155
0.0980	493.304	-26.9419	-35.8459	-277.058	-52.0083	26.6332	54.1624	12.8503	-9.69042	0
0.0987	210.706	-41.3011	-56.8993	-48.4924	-71.8435	16.5558	29.1384	2.17417	-50.8999	0
0.0993	-38.9143	-48.9322	-65.7515	324.407	-58.7171	14.1111	10.2196	-11.8606	-70.7166	0
0.1000	-222.324	-43.7478	-56.8993	560.007	-42.2424	2.21378	-1.99082	-5.1596	-70.4148	0
0.1007	-399.037	-32.4467	-42.5434	443.122	-33.083	-23.7268	-16.9401	8.58311	-70.7166	0.321155
0.1013	-417.657	-22.369	-30.0512	218.502	-11.7192	-45.0904	-33.4217	9.8	-78.6634	0
0.1020	-324.557	-11.3884	-13.8608	197.458	24.8941	-66.454	-38.2962	8.27483	-88.4209	0
0.1027	-417.657	9.05829	15.7245	199.002	47.7865	-89.6512	-16.3247	18.951	-96.9713	0
0.1033	-590.97	29.505	45.9504	188.308	91.7273	-117.113	10.8349	31.1685	-118.934	0
0.1040	-558.347	33.7866	54.8027	324.121	180.543	-143.352	13.5738	32.9858	-136.337	0.321155
0.1047	-427.703	27.67	47.7849	423.622	225.709	-145.186	4.11437	40.3195	-130.234	0
0.1053	-408.169	20.6506	38.3211	156.571	183.891	-132.365	-5.94834	55.5712	-109.78	-0.321155
0.1060	-438.712	19.7477	36.4866	-386.967	132.016	-107.348	-16.3247	65.647	-87.8174	-0.321155
0.1067	-156.723	21.2622	36.1954	-822.712	103.628	-78.9626	-23.0453	68.0808	-72.259	0
0.1073	312.938	10.2816	20.9368	-1012.85	81.0515	-63.7106	-27.0149	61.3798	-45.099	0.321155
0.1080	468.9	-6.49517	1.07742	-984.2	120.722	-47.8339	-30.0675	44.895	4.35901	0
0.1087	471.031	-17.1845	-9.58027	-849.874	193.961	-34.103	-30.9724	14.0672	42.4836	-0.321155
0.1093	462.457	-20.5341	-10.1918	-680.208	194.276	-31.6584	-26.3995	-18.8861	40.3712	0
0.1100	305.937	-15.67	-1.6598	-423.279	153.684	-25.8591	-15.1061	-33.5374	6.47146	0
0.1107	72.1463	-5.88352	12.3757	-235.6	122.857	-16.7052	-9.61628	-27.4368	-19.7497	0
0.1113	-85.5913	5.38837	25.7998	-227.937	82.8833	-14.8717	-7.17903	-13.0937	-10.5958	0
0.1120	-97.8186	11.1845	31.0121	-169.666	15.7469	-20.0598	-1.99082	-0.275828	-9.38864	0
0.1127	-116.743	12.1166	30.6918	-6.40465	-58.7171	-24.9491	0.144787	5.82483	-34.7045	-0.321155
0.1133	-248.91	15.4661	31.9148	62.9028	-98.0843	-29.2137	5.03135	1.86589	-50.2963	0
0.1140	-264.13	14.5632	29.4688	47.9205	-124.64	-44.4793	10.2196	-10.6437	-69.8113	0
0.1147	121.005	11.5049	27.0228	31.7373	-160.344	-65.5305	12.3552	-16.7444	-96.3677	0
0.1153	630.037	9.66994	20.6165	14.9823	-171.638	-78.0526	10.8349	-14.9272	-100.928	0
0.1160	833.589	-1.31069	3.23225	15.8973	-138.373	-71.9409	4.42807	-36.2795	-87.8174	0
0.1167	790.26	-10.1651	-2.27131	52.8384	-68.7864	-53.9455	9.30257	-63.7487	-67.0617	0
0.1173	680.062	-11.7088	2.91194	111.109	-14.7763	-31.9707	14.4908	-64.057	-52.4088	0
0.1180	527.804	-18.4078	-5.94035	105.62	-0.121316	19.9104	2.29246	-52.7642	-40.2035	-0.321155
0.1187	299.493	-27.5535	-20.5874	39.686	9.64465	58.3595	-7.78231	-41.7798	-14.2842	0
0.1193	97.5142	-36.7283	-32.1769	3.37388	27.648	34.2524	-5.34506	-40.855	4.35901	0
0.1200	-33.4349	-38.8545	-35.8459	-64.6755	27.0293	9.23539	5.03135	-39.3298	15.0218	0
0.1207	-119.787	-29.0972	-26.3822	-234.971	-7.44882	-0.230885	14.4908	-15.5275	35.4757	0
0.1213	21.2076	-15.0583	-12.6378	-366.781	-46.816	-1.75201	21.5129	3.39106	53.18	-0.321155
0.1220	293.405	1.42719	6.90129	-354.886	-61.1677	13.8123	38.2962	0.957285	61.0933	0
0.1227	315.374	16.0777	31.3033	-315.2	-54.4468	13.5	44.4014	-6.06821	62.6357	-0.642309
0.1233	149.671	22.7768	43.8247	-319.832	-59.3358	22.6539	36.1606	-7.59338	79.4346	-0.963464
0.1240	180.518	14.5632	27.6343	-290.211	-80.3842	46.1634	37.6929	-12.4772	113.603	0
0.1247	234.501	-15.3496	-14.1811	-199.859	-97.1744	33.6413	31.5877	-39.3298	111.758	0.321155
0.1253	6.2405	-44.6507	-52.3275	-109.565	-97.4777	4.34606	17.2417	-58.8649	81.8489	0
0.1260	-191.223	-54.7284	-66.6542	-57.3559	-82.8348	-28.005	5.33299	-47.2639	77.5904	0.321155
0.1267	-239.118	-45.874	-56.5789	-32.9382	-67.2699	-38.9788	-5.94834	-24.6785	94.993	0
0.1273	-276.662	-24.204	-29.7309	3.6598	-42.2424	0.0814887	-0.458492	2.17417	112.362	-0.321155
0.1280	-353.273	-8.03887	-7.16337	60.158	-23.9357	28.7655	15.4078	27.1934	117.559	0
0.1287	-538.205	2.33011	5.67828	150.452	-16.9115	29.0643	30.6707	50.0871	115.111	0.321155
0.1293	-765.248	8.7379	10.5412	261.847	3.84573	19.0005	41.6504	70.2225	112.999	0
0.1300	-1099.39	9.96121	14.2103	311.312	16.3534	10.4577	36.1606	75.1063	109.948	-0.321155
0.1307	-1340.49	24.3205	37.4184	374.443	20.3205	50.4279	31.274	76.6315	118.498	0
0.1313	-923.036	41.7089	63.3346	465.424	33.4469	84.9112	26.0858	76.9397	123.662	0
0.1320	-90.817	40.806	63.9461	344.879	46.2579	77.292	4.11437	70.8391	108.405	0
0.1327	395.029	23.0972	40.1556	67.4776	47.1799	67.8258	-13.8875	57.0964	91.0028	0
0.1333	593.101	-0.407769	9.92971	-52.1522	35.5821	39.1417	-16.9401	29.6434	73.9356	-0.321155
0.1340	844.243	-12.6117	-2.27131	-9.1495	25.5128	7.40189	-11.1365	-3.63444	55.3259	-0.321155
0.1347	931.864	-14.4467	2.00924	57.4131	16.3534	-3.5855	-6.56368	-37.4964	35.1739	0
0.1353	868.952	-15.0583	5.35796	123.004	-9.88728	-21.8933	-11.4502	-61.0066	15.3236	0
0.1360	828.667	-12.6117	6.28978	156.857	-33.7017	-44.4793	-15.7215	-64.9656	6.47146	0
0.1367	728.921	-14.4467	2.00924	152.282	-26.9808	-61.2659	-19.691	-61.2987	-2.68247	-0.321155
0.1373	561.949	-15.3496	-1.6598	162.346	-16.9115	-76.2191	-14.1891	-44.8301	-11.5346	0
0.1380	404.212	-9.55344	0.174716	140.731	-19.35	-87.8177	0.760132	-20.7195	-9.08687	0
0.1387	344.699	-9.26218	-0.436791	41.8018	-24.8456	-89.3388	3.19738	-11.2603	-7.54445	0
0.1393	315.678	-10.4855	-2.88282	5.4897	-38.8819	-72.5521	0.760132	-9.7351	-8.48331	0
0.1400	226.89	-10.7767	-5.32885	72.3382	-46.2094	-54.5431	-4.42807	-7.2851	-15.1895	-0.321155
0.1407	161.289	-12.903	-6.55186	90.9803	-50.1764	-8.16245	-7.17903	-8.20993	-23.1363	0
0.1413	173.161	-12.0001	-4.71734	14.0674	-69.1018	67.8258	-3.20945	-9.42682	-18.8444	0
0.1420	244.597	-13.835	-7.16337	-81.1446	-76.1139	102.621	-11.1365	-12.7854	-13.0435	0
0.1427	276.611	-15.0583	-9.58027	-167.55	-63.9095	109.018	-23.3469	-14.9272	-3.88958	0
0.1433	185.997	-15.67	-10.5121	-207.179	-65.1348	112.998	-28.5351	-17.6692	2.81659	0
0.1440	59.0564	-17.7962	-13.5696	-141.874	-72.4501	106.587	-27.3165	-21.0278	-4.79491	0
0.1447	-18.7722	-16.8933	-13.5696	-54.897	-69.1018	100.177	-20.596	-13.402	-9.38864	0
0.1453	-84.3736	-17.7962	-13.8608	-26.8195	-78.249	91.9328	-6.86532	-2.10927	-6.63911	0
0.1460	-158.854	-16.5729	-10.1918	-14.9251	-87.4084	80.3343	19.9927	7.05795	2.51482	0
0.1467	-169.559	-12.903	-5.94035	-4.57475	-82.2161	79.4243	22.4299	12.8503	11.0652	0
0.1473	-99.3407	-15.0583	-8.96877	-9.1495	-71.237	56.5396	-14.8045	11.0169	7.41032	0
0.1480	-40.7408	-16.8933	-11.7351	-7.60552	-47.738	-19.4486	-40.7455	9.8	2.81659	0
0.1487	-34.6525	-18.4078	-14.7926	3.6598	-26.6775	-103.993	-38.2962	7.96656	1.3077	0
0.1493	-92.0347	-22.0778	-19.3644	12.8093	-20.272	-157.694	-20.9097	1.86589	-2.07891	0
0.1500	-134.754	-22.9807	-20.5874	14.0674	-17.5181	-178.447	-2.29246	-0.584106	-2.98425	0
0.1507	-83.1559	-25.4273	-24.2273	8.86358	-10.506	-193.712	12.3552	-0.876159	0.972395	0
0.1513	-1.9787	-30.3205	-30.6336	9.77853	-18.4401	-189.746	23.3469	-0.876159	4.35901	0
0.1520	65.7536	-31.8351	-33.0796	16.8122	-32.4764	-120.169	24.8672	3.08278	4.35901	-0.321155
0.1527	28.8179	-31.8351	-32.4681	24.4177	-32.7797	-50.8897	21.2113	3.08278	2.81659	-0.963464
0.1533	-152.461	-32.738	-34.0114	34.4822	-27.5873	-58.5225	19.9927	-0.275828	0.972395	-0.642309
0.1540	-322.73	-32.4467	-34.3026	39.9719	-18.1368	-101.236	23.0332	0.957285	1.3077	0
0.1547	-432.624	-27.5535	-26.3822	32.9954	-6.84224	-102.16	23.9502	4.91622	5.56612	0
0.1553	-548.555	-19.6312	-12.6378	21.6729	10.8578	-69.8087	10.8349	11.0169	5.8679	0
0.1560	-601.676	-11.7088	-3.78552	12.2375	40.459	-63.7106	5.33299	20.4762	0.972395	0
0.1567	-512.837	-9.26218	-5.00853	6.11873	58.1591	-44.4793	11.7519	27.8099	-6.33733	0
0.1573	-375.851	-8.03887	-6.23155	7.03368	63.3514	21.1327	5.33299	32.3854	-13.6471	0.321155
0.1580	-287.621	-1.92234	-2.27131	11.6084	98.4482	54.3937	2.29246	37.8695	-16.6984	0
0.1587	-305.937	-0.407769	-4.39703	18.6421	139.029	44.3299	4.42807	41.5364	-18.5426	0
0.1593	-352.969	-5.27187	-8.35726	21.387	102.415	45.851	-5.04342	39.3947	-17.0002	0
0.1600	-292.238	-5.27187	-1.6598	21.387	10.5545	29.9878	-23.3469	33.294	-11.8364	-0.321155
0.1607	-163.724	-1.63107	8.09519	27.5057	-43.4676	-39.2911	-44.7151	27.8099	-14.5859	-0.321155
0.1613	31.8621	-2.85438	8.09519	37.227	-41.6358	-97.2704	-55.9964	21.7093	-23.1363	-0.321155
0.1620	216.185	-10.1651	-0.116477	52.8384	-21.7884	-92.0822	-53.2575	15.9007	-32.592	0
0.1627	172.248	-12.903	-4.10583	61.9879	-12.3379	-60.0436	-46.537	14.9921	-38.3928	0
0.1633	-19.6855	-14.1263	-5.32885	53.1243	-32.1731	-31.0472	-41.0471	9.8	-40.5053	0
0.1640	-198.834	-16.8933	-8.06607	44.5466	-37.05	-2.97434	-22.1283	-3.92649	-36.2469	0
0.1647	-330.391	-16.2816	-7.74575	38.142	7.81277	-16.7052	12.9705	-16.7444	-25.5505	0.321155
0.1653	-270.27	-15.9612	-8.06607	29.3356	38.0205	-57.3001	43.1827	-12.4772	-19.1461	0
0.1660	-54.7946	-14.1263	-7.74575	37.8561	49.0118	-32.2695	52.6422	5.53278	-20.9903	-0.321155
0.1667	33.6886	-15.3496	-11.1236	53.7533	84.4119	36.0859	25.7842	-4.54305	-36.2469	0.321155
0.1673	-62.405	-18.1166	-16.3068	60.158	108.517	111.463	-13.8875	-28.3454	-52.4088	0.321155
0.1680	-175.343	-16.8933	-16.598	66.8485	106.686	209.738	-31.2861	-19.1944	-57.3043	0
0.1687	-307.459	-17.1845	-15.9865	67.4776	112.485	258.251	-30.9724	4.00762	-58.8131	0
0.1693	-400.255	-9.87383	-5.62004	65.9336	133.23	220.115	-18.1587	29.3351	-56.3989	0.321155
0.1700	-367.885	3.26215	9.63851	68.9644	143.614	134.049	-2.5941	57.0964	-52.4088	0
0.1707	-358.448	6.32042	16.0448	68.3925	129.881	42.4964	6.24998	62.905	-48.7539	-0.321155
0.1713	-323.948	3.8738	20.3253	72.9673	97.5262	-23.7268	15.1061	48.5619	-36.8504	0
0.1720	-120.396	4.16507	26.1201	70.2224	61.8228	-69.1975	13.8875	37.8695	-26.7912	0
0.1727	141.147	7.22333	29.1776	25.3327	36.1887	-87.8177	-1.99082	33.6023	-29.2389	0
0.1733	294.318	8.15537	26.1201	-32.6523	25.8161	-84.7618	-19.0757	25.6682	-33.1956	0
0.1740	342.872	1.13593	15.1421	-47.2915	46.2579	-99.4162	-26.0979	5.53278	-27.6965	0
0.1747	387.114	-9.26218	3.84376	-10.3504	62.7448	-151.284	-12.0535	-22.2447	-15.1895	0
0.1753	436.531	-15.67	-0.436791	19.843	51.4503	-195.546	1.37548	-40.855	-3.88958	0
0.1760	499.697	-17.1845	-0.436791	1.54398	68.5437	-190.656	-5.6467	-48.497	3.11837	0
0.1767	533.284	-17.1845	-0.116477	-22.2447	94.7845	-161.66	-8.39765	-53.0725	4.96257	0
0.1773	464.943	-15.9612	2.30043	-20.1289	67.6217	-124.746	-2.5941	-50.9308	0.972395	0.321155
0.1780	339.473	-12.903	6.58098	-6.97649	43.5162	-81.706	-3.81273	-45.1384	-7.54445	0.321155
0.1787	210.097	-12.0001	8.4155	2.17301	67.0152	-39.9023	-11.7519	-46.047	-17.6372	0
0.1793	140.538	-13.835	7.80399	2.17301	75.5558	-4.80783	-23.0453	-46.3553	-20.6885	0
0.1800	158.194	-16.2816	5.67828	-5.14659	55.7206	1.9014	-24.8792	-39.6381	-15.793	0
0.1807	161.289	-16.8933	4.45526	-12.8093	49.9217	-0.230885	-15.1061	-33.2291	-9.38864	0.321155
0.1813	104.516	-16.8933	3.23225	-19.214	53.2821	0.380281	-4.12643	-29.2702	-2.68247	0
0.1820	58.752	-13.835	2.62074	-25.3327	40.459	-14.8717	4.42807	-22.8613	10.1599	0
0.1827	24.5561	-8.94179	4.13495	-21.6729	1.69843	-19.1498	6.56368	-16.4523	21.4262	-0.642309
0.1833	-20.2943	-10.4855	2.62074	-6.69057	-42.5456	-15.1841	6.56368	-19.1944	18.0731	-0.963464
0.1840	-43.4806	-12.2913	1.07742	6.40465	-66.6512	-20.3722	20.2943	-21.9364	14.1165	-0.321155
0.1847	-44.6982	-9.26218	2.62074	-0.571844	-71.237	-38.68	49.5896	-17.9775	23.2704	0.321155
0.1853	-35.8702	-8.03887	2.62074	-23.7887	-71.237	-79.2749	77.0509	-16.144	33.6315	0
0.1860	12.0244	-5.59226	4.74646	-29.9074	-81.0029	-103.681	89.2612	-12.1689	39.1305	0
0.1867	73.0595	-2.85438	7.5128	-17.3841	-100.219	-98.4927	93.5325	-5.1596	34.8721	0
0.1873	66.3624	-8.33013	3.52344	-15.8401	-96.2524	-80.7961	94.7511	-7.2851	23.5722	0
0.1880	16.9457	-14.4467	-0.727984	-19.4999	-52.0083	-27.0814	81.0204	-11.5685	18.6767	-0.321155
0.1887	-6.59565	-15.9612	-1.951	-5.4897	2.31714	55.0049	45.0167	-14.6189	2.21304	-0.321155
0.1893	-13.9016	-15.67	-1.951	24.1318	29.4799	101.399	-4.72971	-22.553	-33.1956	0
0.1900	-22.7296	-14.4467	-0.727984	44.2607	15.7469	135.271	-45.0167	-23.1533	-51.5034	0.321155
0.1907	-26.7378	-12.0001	1.39773	41.8018	5.36218	205.46	-62.4153	-13.694	-39.9017	0
0.1913	-33.1305	-12.2913	0.46591	30.8224	14.5216	225.601	-55.0915	-9.42682	-27.0929	-0.642309
0.1920	-43.4806	-14.4467	-1.6598	25.6758	3.22702	161.212	-29.7537	-9.11854	-24.6452	-0.642309
0.1927	-49.3152	-13.2234	-0.436791	21.387	-8.67412	110.553	-17.8571	-4.23477	-17.0002	0.321155
0.1933	-52.6637	-11.7088	0.46591	12.2375	2.62043	105.664	-15.4078	-0.876159	-7.84622	0.321155
0.1940	-56.0123	-12.0001	-1.0483	4.91786	-6.53895	83.0913	1.37548	-0.584106	-2.07891	0
0.1947	-58.4476	-11.3884	-1.33949	5.83281	-43.1522	29.9878	6.24998	-1.18444	0.670617	-0.321155
0.1953	-63.0138	-10.1651	-1.0483	15.2682	-48.3446	17.7781	-16.6384	-1.18444	-4.79491	-0.321155
0.1960	-67.6308	-9.26218	-1.0483	20.1861	22.7589	50.7403	-44.7151	-0.275828	-9.69042	0
0.1967	-68.544	-8.65052	-0.436791	19.2711	82.2767	41.274	-55.9964	-0.876159	-7.54445	0
0.1973	-69.7617	-8.94179	-0.727984	23.5028	67.6217	0.0814887	-44.4014	-1.80099	-6.33733	0
0.1980	-71.8926	-9.87383	-2.27131	22.9309	87.1537	4.65844	-29.1505	-1.18444	-5.13022	-0.321155
0.1987	-72.197	-9.26218	-2.27131	14.0674	129.263	30.599	-20.2943	1.86589	1.60948	-0.321155
0.1993	-71.2838	-5.88352	0.46591	3.08796	102.112	23.5774	12.0535	5.2245	13.2112	0
0.2000	-70.3705	-4.36895	0.786223	-6.06154	40.459	-0.230885	55.3931	4.91622	19.6156	0.321155
0.2007	-69.4573	-7.10683	-2.27131	-12.8093	10.2512	7.40189	63.9356	0.957285	14.4183	0
0.2013	-66.1087	-8.33013	-3.49432	-14.6392	21.8491	31.509	43.4844	-1.80099	7.41032	-0.321155
0.2020	-62.405	-5.59226	-1.0483	-4.23164	22.7589	33.3425	17.845	-0.876159	-2.38069	0
0.2027	-63.0138	-5.27187	-1.951	14.0674	5.05889	30.599	-14.5028	-0.876159	-20.085	0
0.2033	-62.7094	-3.7573	-1.33949	32.6523	21.5458	44.0175	-46.8507	1.24934	-29.2389	0
0.2040	-59.3609	-1.31069	1.07742	45.4616	56.0239	39.1417	-64.2372	4.91622	-27.6965	0
0.2047	-59.3609	-4.36895	-1.0483	50.0935	68.5437	27.842	-62.4153	2.48245	-28.3001	0
0.2053	-58.1432	-6.20391	-2.27131	47.3487	56.0239	78.5008	-39.5269	-0.275828	-23.1363	0
0.2060	-56.0123	-5.88352	-2.5625	39.0569	27.648	157.545	-16.0231	-0.275828	-13.9488	0.321155
0.2067	-55.4035	-6.49517	-3.78552	32.3664	4.7556	199.05	-8.69929	-0.275828	-6.63911	0.321155
0.2073	-53.8814	-4.68934	-1.951	33.9103	-5.61695	212.482	-1.67712	1.24934	2.51482	0
0.2080	-52.3593	-0.699032	0.174716	38.142	-6.53895	228.345	11.4382	2.48245	9.22099	0
0.2087	-51.7505	0.203884	0.46591	33.2813	-10.506	239.943	18.4604	-0.275828	10.4616	0
0.2093	-50.2284	-1.63107	0.786223	22.5878	-19.35	214.003	13.2721	-1.49272	12.5741	-0.321155
0.2100	-48.7063	0.203884	3.84376	17.0981	-14.7763	161.511	0.144787	-0.584106	12.8759	0
0.2107	-47.4887	5.38837	6.28978	8.57766	-1.34661	123.985	-10.5333	1.55762	9.52277	0
0.2113	-46.5754	2.6505	0.46591	-28.9925	2.62043	105.664	-19.3773	6.74967	6.47146	0.321155
0.2120	-45.6622	-7.42722	-6.84305	-61.9307	-10.506	63.86	-38.9115	7.35	-0.536494	-0.321155
0.2127	-43.1761	-11.3884	-5.94035	-26.5336	-10.506	-13.6494	-59.6643	0.649007	-13.0435	-1.28462
0.2133	-38.9143	-6.81556	-4.39703	22.5878	15.1281	-82.9283	-58.4457	-3.32616	-18.5426	-0.963464
0.2140	-34.0437	-3.14564	-4.71734	6.40465	24.5908	-135.122	-41.3488	-6.68477	-10.294	0
0.2147	-31.6084	-5.27187	-3.78552	-27.4485	-11.7192	-170.827	-33.108	-11.2603	-0.838272	0
0.2153	-29.4775	-4.07769	2.30043	-24.0746	-83.7447	-156.784	-31.5877	-11.2603	2.51482	0
0.2160	-26.4333	9.66994	9.92971	-6.40465	-129.214	-110.39	-22.4299	-17.3609	9.52277	0
0.2167	-25.2157	21.2622	8.4155	0.91495	-133.484	-93.3046	-9.00093	-25.295	14.4183	0
0.2173	-23.3385	14.5632	1.68892	-22.5878	-129.214	-98.4927	5.94834	-20.103	16.5643	-0.321155
0.2180	-21.2076	0.524274	-0.116477	-68.3353	-120.37	-85.9842	26.3995	-9.11854	22.6669	0
0.2187	-23.3385	-7.10683	-3.78552	-89.7223	-112.739	-67.364	40.4318	-1.80099	21.4262	0.321155
0.2193	-24.2517	-12.6117	-7.74575	-117.171	-109.985	-49.6674	51.1098	4.00762	18.9785	0
0.2200	-22.1208	-15.3496	-8.06607	-129.98	-94.1172	-54.2443	64.2372	7.35	20.5209	-0.321155
0.2207	-20.5987	-10.4855	-8.67757	-79.0288	-60.2457	-93.3046	56.6118	13.1586	15.0218	0
0.2213	-17.859	-1.63107	-7.45456	-33.2241	-26.0709	-114.981	23.3469	22.3096	5.56612	0.321155
0.2220	-14.5104	5.38837	-6.55186	-14.2961	4.7556	-117.724	-14.5028	13.7589	-5.73378	0.321155
0.2227	-10.2486	9.05829	-1.0483	-2.74485	29.7832	-115.279	-25.4825	-3.32616	-12.1382	0
0.2233	-5.68241	13.3399	13.3076	-6.06154	44.1228	-92.0822	0.760132	-0.275828	-8.48331	-0.321155
0.2240	-6.29124	1.71845	15.1421	9.77853	61.8228	-88.7276	27.9198	16.5172	-13.6471	0
0.2247	-7.20448	-28.1652	3.23225	56.1551	76.4778	-97.5827	31.274	11.9417	-24.947	0
0.2253	-5.68241	-39.1749	-3.49432	94.297	63.6547	-74.3856	24.5655	13.1586	-25.2487	0.321155
0.2260	-10.553	-19.9224	1.07742	100.702	33.4469	-57.9113	13.5738	48.5619	-24.947	0
0.2267	-15.4237	20.3593	11.473	88.5214	21.2304	-49.9662	4.42807	31.7689	-24.6452	0
0.2273	-10.8575	65.2139	24.2856	68.9644	32.8282	-16.7052	-2.29246	-10.6437	-19.4479	0.321155
0.2280	-15.4237	103.981	37.0981	26.2476	42.8975	14.7223	-15.4078	-3.01788	-17.3355	0.321155
0.2287	-32.2172	160.719	25.7998	-1.20087	53.8887	29.9878	-24.5655	16.5172	-19.4479	0
0.2293	-34.3481	199.778	-23.9361	27.7916	65.7899	44.3299	-22.4299	44.5868	-21.5939	0
0.2300	-22.7296	126.234	-79.4668	78.7429	58.4623	63.2488	-22.7436	87.0156	-23.4381	0
0.2307	-13.5972	-27.2623	-102.966	107.164	47.7865	99.8644	-24.2639	127.286	-24.0416	0
0.2313	-3.80518	-121.253	-96.5598	60.4439	45.0448	129.472	-14.5028	146.513	-20.085	0
0.2320	10.5023	-138.35	-78.2438	-2.74485	37.1107	113.296	-5.04342	135.529	-15.4913	0
0.2327	23.3385	-137.418	-49.27	53.1243	30.0865	78.8132	-3.20945	78.4649	-15.4913	-0.321155
0.2333	32.1665	-106.923	-3.17401	174.584	24.2875	57.1507	-2.29246	-16.7444	-17.3355	-0.321155
0.2340	39.2188	-48.0002	46.2707	265.85	16.0502	45.2398	-1.67712	-71.9911	-17.0002	0
0.2347	39.8276	-8.65052	63.0434	280.489	10.5545	34.2524	-1.67712	-78.4	-14.5859	-0.321155
0.2353	30.34	2.03884	47.1734	125.463	5.36218	22.0563	-1.07384	-55.8146	-6.03556	0
0.2360	20.5987	6.61168	33.7494	-40.8868	-0.121316	16.257	-0.156853	-38.1129	5.56612	0
0.2367	16.3369	0.203884	31.3033	16.8122	-5.31366	7.70068	-1.67712	-76.2583	5.8679	-0.321155
0.2373	11.72	-16.8933	28.2458	128.779	-9.88728	-3.88429	-2.29246	-119.596	6.16968	0
0.2380	9.28465	-20.5341	25.7998	137.643	-12.6412	-1.75201	1.97876	-122.646	15.9272	0
0.2387	10.5023	-10.4855	23.3829	179.788	-7.14553	3.7349	3.81273	-107.086	12.8759	0
0.2393	10.5023	-8.65052	23.3829	262.19	5.05889	0.991446	2.89574	-86.9344	-0.838272	0
0.2400	11.4156	-18.1166	29.4688	172.468	9.02594	0.991446	5.03135	-69.249	-0.234716	0
0.2407	12.6332	2.6505	32.5263	-108.936	-0.121316	-2.97434	5.94834	-56.7232	11.6687	-0.321155
0.2413	13.5465	53.6216	26.7316	-283.806	-7.44882	-16.094	6.86532	-45.7387	21.4262	-0.321155
0.2420	15.0685	59.709	8.70669	-291.126	-3.48178	-24.6368	9.30257	-53.6728	21.728	-0.321155
0.2427	12.3288	16.6894	-17.5299	-348.482	0.485265	-28.6161	7.48067	-88.7679	7.7121	-0.963464
0.2433	8.98023	0.815537	-28.8282	-450.098	0.181975	-28.005	5.03135	-107.086	-5.13022	-0.963464
0.2440	9.89348	6.93207	-27.2849	-465.081	-1.04332	-21.5945	8.38558	-93.3434	1.91126	0
0.2447	12.0244	-14.4467	-19.6556	-353.056	-5.31366	0.0814887	12.6568	-75.6417	3.72193	0.321155
0.2453	11.4156	-20.5341	-0.116477	-193.169	-10.8093	37.0095	13.8875	-39.9464	-13.3453	0
0.2460	8.06699	4.16507	13.9191	-117.171	-16.6082	53.4838	13.2721	27.5017	-14.2842	0
0.2467	10.1979	4.77672	15.4333	-118.372	-17.5181	52.2614	13.2721	79.0815	5.8679	0.321155
0.2473	19.0767	-18.1166	12.0845	-143.133	-14.473	58.0607	10.8349	91.5911	13.2112	0
0.2480	24.8605	-35.7963	6.90129	-172.411	-18.4401	57.4495	2.5941	85.1821	4.35901	-0.321155
0.2487	26.9914	-39.1749	12.3757	-149.194	-23.0137	50.1291	-0.458492	84.5656	-0.536494	0
0.2493	26.9914	-37.9516	29.4688	-90.6372	-19.0467	49.518	2.89574	72.056	-0.234716	0.321155
0.2500	23.9473	-40.6895	37.4184	-69.8793	-14.473	44.941	3.81273	-2.10927	-4.49314	0.321155
0.2507	23.9473	-8.65052	35.8751	-65.3046	-8.97741	33.0301	9.30257	-85.1172	-5.73378	0
0.2513	25.7738	46.6021	25.1883	-35.969	-2.57191	13.8123	15.7094	-96.3937	-3.88958	0
0.2520	27.9047	63.0877	9.92971	-2.40174	-6.23566	-18.2399	9.91792	-64.3652	-6.33733	0
0.2527	32.1665	49.0488	10.5412	19.2711	-9.58399	-48.1462	8.08395	-26.5119	-2.07891	-0.321155
0.2533	26.687	40.1943	5.35796	32.9954	-7.75211	-67.9752	10.5212	14.0672	4.96257	0
0.2540	11.72	55.7478	-19.6556	39.686	-11.7192	-92.0822	4.72971	59.5464	2.51482	-0.321155
0.2547	6.2405	81.6994	-28.8282	44.2607	-12.3379	-106.125	5.33299	80.2983	0.36884	-0.321155
0.2553	8.67582	78.0295	-16.598	46.0906	-4.70707	-82.9283	11.4382	39.3947	3.11837	-0.321155
0.2560	7.76257	43.8351	-18.4326	37.8561	2.31714	-46.0004	6.86532	-14.6189	6.77324	0
0.2567	4.41401	15.1748	-26.9937	41.8018	9.02594	-24.6368	1.67712	-44.5219	8.91921	0
0.2573	2.58752	-0.407769	-25.7706	27.1626	12.3864	-21.8933	0.144787	-47.8805	4.96257	-0.321155
0.2580	3.80518	-26.3302	-34.6229	-88.4642	10.5545	-23.7268	-6.56368	-39.9464	0.972395	0
0.2587	8.3714	-57.4663	-42.2522	-184.305	12.3864	-14.8717	-14.5028	-37.2043	0.0670617	0.321155
0.2593	13.8509	-68.1556	-17.5299	-122.66	14.8249	-5.419	-18.7741	0.340728	-5.13022	0
0.2600	17.859	-78.2333	16.6563	-36.598	13.6117	-6.32896	-16.9401	27.5017	-8.48331	0
0.2607	20.5987	-96.8451	21.228	-18.928	9.32923	-15.7952	-9.61628	-16.7444	-6.63911	0
0.2613	23.034	-78.5246	7.5128	-18.5849	1.69843	-27.3938	1.06177	-41.7798	-5.73378	0
0.2620	25.7738	-16.2816	9.3182	-14.0102	-2.8752	-33.7906	13.5738	2.17417	-4.49314	0
0.2627	29.7312	16.0777	21.5483	-11.2653	-4.70707	-30.436	19.0757	14.0672	-2.38069	0.321155
0.2633	31.2532	6.00003	22.7713	-6.06154	-5.31366	-20.3722	16.0231	-10.0434	0.670617	0
0.2640	28.2091	31.9516	17.559	0.629028	-4.40378	-8.77362	10.8349	-3.92649	1.91126	0
0.2647	25.1649	76.1945	10.8615	8.57766	-8.97741	-2.97434	8.38558	-12.7854	0.972395	0
0.2653	20.5987	75.5828	4.13495	50.3794	-16.0016	-2.67555	11.7519	-29.8705	3.11837	0.321155
0.2660	13.242	53.0099	-1.33949	107.164	-12.6412	1.30382	12.6568	-3.92649	7.10854	0.321155
0.2667	6.54492	14.2428	-8.06607	108.65	-8.67412	6.49193	7.16696	20.1679	6.47146	0
0.2673	4.71843	-40.3691	-5.32885	72.6242	-15.6862	10.1453	3.51109	6.13311	2.81659	0
0.2680	9.28465	-72.7285	5.35796	51.5803	-25.1489	13.8123	2.5941	-13.402	0.670617	0
0.2687	12.3288	-94.3985	5.96947	39.686	-29.1159	11.9788	0.144787	-11.2603	0.0670617	-0.321155
0.2693	11.1111	-95.0101	8.09519	29.6215	-24.8456	5.2696	-0.156853	-0.876159	-0.234716	0
0.2700	13.5465	-15.3496	27.0228	24.7608	-18.1368	-4.80783	1.67712	-8.81026	0.0670617	0
0.2707	19.3811	60.3206	44.7274	17.4412	-19.0467	-13.3506	0.458492	-25.6033	-2.98425	-0.321155
0.2713	23.6429	21.8739	42.8928	10.9794	-20.272	-15.4829	0.760132	-17.6692	-6.03556	-0.321155
0.2720	23.034	-81.8741	28.8573	16.1832	-17.2148	-16.7052	3.51109	13.4669	-0.536494	0
0.2727	16.0325	-149.331	11.7642	25.9617	-15.0796	-12.1282	1.06177	26.2848	2.81659	0
0.2733	5.02284	-120.03	-3.78552	29.9074	-16.0016	-7.55129	-2.89574	21.0927	-4.79491	0
0.2740	-2.58752	-95.6218	-11.1236	25.9617	-16.3049	-13.3506	-5.94834	39.1026	-8.48331	0
0.2747	-0.456622	-65.0974	-7.74575	24.4177	-11.4159	-15.4829	-6.86532	35.4358	-0.536494	0.321155
0.2753	6.2405	51.175	-2.27131	42.7167	-2.8752	-8.46124	-1.99082	-4.23477	6.47146	0
0.2760	6.2405	96.9616	-0.116477	61.0729	2.01385	-2.97434	3.81273	5.82483	1.60948	0
0.2767	1.67428	52.6895	-9.90059	75.369	-1.04332	0.692654	2.5941	22.3096	-6.33733	0
0.2773	1.67428	58.8061	-26.6733	115.684	-7.14553	4.65844	-1.67712	-27.1285	-4.19136	0
0.2780	10.1979	103.049	-17.2095	146.506	-9.2807	8.01306	-3.20945	-65.8904	-2.07891	0
0.2787	20.9031	36.8157	22.1598	151.081	-8.37083	9.23539	-2.89574	-54.906	-6.03556	-0.642309
0.2793	20.2943	-103.865	50.2309	161.146	-5.01037	6.49193	-4.42807	-23.7699	-9.9922	-0.963464
0.2800	9.28465	-118.806	37.4184	160.517	2.92372	8.31185	-9.31464	30.8603	-10.8975	0.321155
0.2807	2.28311	-11.0971	1.07742	151.081	10.8578	14.7223	-10.2196	66.2636	-5.73378	0.321155
0.2813	5.02284	53.9129	-19.6556	121.803	11.1611	15.3335	-7.78231	50.6874	1.3077	-0.321155
0.2820	10.5023	47.8254	-18.4326	1.25806	10.5545	15.0347	-5.94834	34.5109	9.52277	-0.321155
0.2827	10.8067	-2.85438	-20.8786	-115.627	14.8249	19.2992	-3.51109	59.2381	12.5741	0
0.2833	5.02284	-95.0101	-25.1591	-82.6886	12.993	15.6458	-4.12643	90.9745	2.81659	0
0.2840	5.63167	-35.1846	-13.5696	-36.3121	5.67761	6.49193	-6.56368	38.7944	-0.536494	0
0.2847	14.7641	190.632	1.07742	-76.5699	2.92372	3.12373	-3.81273	-36.5877	4.96257	0
0.2853	13.242	287.681	5.06677	-77.1989	0.485265	3.43611	1.06177	-43.6132	1.91126	0
0.2860	0.761037	224.826	7.19248	-68.9644	-1.6499	7.70068	5.94834	-66.4907	-2.07891	0
0.2867	-5.37799	166.515	10.8615	-122.66	-1.6499	11.9788	6.56368	-94.8685	-5.432	0
0.2873	-2.89194	131.127	8.09519	-130.266	0.485265	4.34606	0.760132	-66.1824	-15.1895	0
0.2880	1.9787	81.379	-5.62004	-72.2811	5.36218	-7.55129	-4.42807	-20.103	-21.5939	0
0.2887	7.15374	-25.136	-11.7351	-32.0233	5.9809	-12.4406	-7.17903	20.4762	-22.1974	0
0.2893	17.2502	-136.195	-2.5625	-18.5849	4.7556	-15.7952	-8.08395	36.9609	-19.1461	0.321155
0.2900	24.8605	-116.068	13.3076	-3.31669	6.89077	-16.4064	-4.12643	38.1778	-9.9922	0
0.2907	17.5546	-5.27187	19.3935	11.3225	5.36218	-9.07241	-3.20945	57.7129	-9.9922	0
0.2913	8.98023	54.8449	-1.6598	15.8973	0.181975	-2.06438	-8.08395	71.4394	-18.5426	0
0.2920	8.06699	57.5828	-19.9759	21.101	-1.34661	0.380281	-11.7519	47.6371	-20.6885	0
0.2927	3.19635	65.5051	-17.5299	29.3356	1.39514	4.95723	-11.7519	28.102	-19.4479	0
0.2933	1.06545	49.6313	-11.7351	35.7402	4.7556	11.3677	-9.91792	18.0424	-12.1382	-0.642309
0.2940	4.71843	15.7573	-15.0838	44.2607	4.14902	11.9788	-9.00093	-4.54305	0.36884	-0.642309
0.2947	0.152207	9.34956	-22.7131	60.7298	-0.121316	4.04727	-9.91792	-11.5685	-2.98425	0.321155
0.2953	-9.94421	-48.0002	-18.4326	77.2561	-4.08836	-2.67555	-8.69929	-20.103	-21.8957	0.321155
0.2960	-15.4237	-124.923	-16.3068	17.4412	-6.53895	-4.80783	-5.04342	-34.7543	-27.0929	0
0.2967	-13.9016	-136.195	-15.0838	-100.359	-6.23566	-1.45322	1.37548	-24.6785	-9.08687	0
0.2973	-9.03097	-107.534	2.00924	-80.5728	-3.17849	9.84655	12.6568	-33.2291	-6.94089	0
0.2980	-4.41401	-8.03887	10.5412	42.7167	-1.6499	26.932	18.762	-65.8904	-42.0477	0.321155
0.2987	1.67428	30.1166	5.35796	70.7943	-3.17849	47.3857	12.6568	-69.249	-21.8957	0
0.2993	7.15374	-30.3205	-4.10583	27.5057	-3.78507	60.193	3.19738	-58.5566	58.9808	0
0.3000	7.15374	48.4371	-17.2095	0.629028	-1.04332	62.0265	-3.51109	-51.8394	56.8348	0
0.3007	2.28311	142.107	-23.9361	7.3196	1.69843	63.86	-1.67712	-37.2043	-2.68247	-0.321155
0.3013	2.28311	139.981	-31.5654	42.1449	-0.121316	60.8042	3.19738	-7.59338	-10.294	0
0.3020	8.06699	148.836	-48.3382	93.7252	-4.70707	47.9833	2.29246	51.9205	20.2191	0.321155
0.3027	13.5465	100.311	-36.4575	137.071	-7.14553	37.3082	3.51109	105.934	45.2331	-0.963464
0.3033	15.3729	42.3206	12.9872	132.153	-6.84224	33.6413	5.94834	92.4997	46.7756	-0.963464
0.3040	10.5023	46.2818	42.2813	116.599	-4.70707	29.0643	4.42807	27.1934	17.7714	0
0.3047	8.06699	56.3595	27.3431	145.591	-1.6499	18.6881	9.30257	-19.5026	-18.5426	0.321155
0.3053	10.1979	33.1749	7.19248	195.628	-2.26862	2.21378	12.3552	-21.0278	-28.3001	-0.321155
0.3060	8.67582	-17.1845	16.336	216.386	-5.31366	-16.4064	7.48067	-19.1944	-16.6984	0
0.3067	5.93609	-45.5827	32.5263	202.947	-2.57191	-31.9707	5.33299	-28.3454	-2.07891	0
0.3073	2.89194	-24.8156	32.8175	218.845	3.53031	-58.5225	3.51109	-35.3709	8.61743	0
0.3080	5.02284	-4.9806	36.4866	293.013	5.05889	-95.4369	2.89574	-23.4616	11.0652	-0.321155
0.3087	8.67582	-9.55344	43.5043	393.371	2.31714	-103.681	7.48067	-3.01788	11.9705	0
0.3093	3.19635	16.0777	33.1378	460.22	-1.95319	-80.1849	6.56368	-17.3609	11.0652	0
0.3100	2.28311	16.6894	11.7642	282.891	-3.17849	-51.7997	-2.5941	-24.3864	17.7714	0
0.3107	7.76257	-63.8741	-1.0483	-143.133	-2.57191	-30.436	-11.4502	-10.952	30.5802	0.321155
0.3113	7.15374	-134.971	-5.62004	-403.436	-1.95319	-11.2183	-20.2943	-21.9364	29.0713	0.321155
0.3120	3.19635	-160.923	-19.6556	-420.82	2.31714	16.5558	-24.2639	-39.9464	22.0298	0
0.3127	0.152207	-58.3983	-37.6805	-426.31	9.02594	29.9878	-17.8571	-39.6381	17.1678	0
0.3133	-0.152207	138.146	-44.0867	-367.124	9.02594	12.59	-11.4502	-41.7798	4.96257	0
0.3140	4.41401	167.739	-45.6009	-238.001	5.36218	-3.5855	-11.1365	-59.7735	-2.07891	0
0.3147	7.76257	91.748	-46.5036	-202.604	4.7556	-3.5855	-10.8349	-111.662	-0.234716	0
0.3153	5.32726	57.2624	-46.2124	-270.368	5.67761	-0.230885	-6.86532	-163.842	-0.234716	0
0.3160	5.02284	-30.3205	-38.5832	-282.891	4.7556	0.991446	-1.07384	-133.939	-3.28603	0
0.3167	8.98023	-125.214	-24.8388	-176.357	0.788556	-2.06438	-1.07384	-63.4404	-8.48331	-0.321155
0.3173	6.84933	-145.661	-20.8786	-67.4204	-3.17849	-6.32896	-4.72971	-4.85132	-10.294	-0.642309
0.3180	0.152207	-141.991	-27.6052	-25.9045	-4.70707	-7.86366	-6.56368	50.0871	-7.84622	0
0.3187	0.456622	-81.5829	-15.6953	-21.6729	-4.70707	-7.25249	-5.94834	71.1473	-9.08687	0
0.3193	4.41401	-6.81556	22.1598	-26.5336	-2.57191	-4.19667	-2.29246	65.647	-12.44	0
0.3200	-3.50077	-22.9807	50.5221	-72.2811	-1.04332	-2.67555	0.760132	69.606	-12.1382	0.321155
0.3207	-17.5546	7.22333	48.6876	-109.222	-1.95319	-6.32896	0.760132	67.7887	-10.5958	0
0.3213	-19.0767	137.243	36.4866	-21.6729	-2.8752	-13.0518	0.144787	62.5967	-10.5958	0
0.3220	-13.5972	163.166	21.228	47.0056	-5.01037	-19.4486	-1.07384	53.1374	-8.18153	0
0.3227	-16.0325	84.1169	1.39773	-7.3196	-5.31366	-17.3164	-1.67712	-1.18444	3.72193	0
0.3233	-19.9899	30.4079	-2.88282	-10.6363	-0.121316	-7.25249	-6.86532	-56.1228	17.4696	0
0.3240	-16.3369	-18.1166	4.13495	-14.0102	2.62043	-4.49546	-14.1891	-50.6225	21.728	0.321155
0.3247	-11.1619	-44.3594	11.1527	-95.4979	0.485265	-9.07241	-10.2196	-50.6225	25.0811	0
0.3253	-7.81331	-1.92234	27.3431	-62.5597	2.01385	-9.99595	-1.07384	-54.906	29.0713	0
0.3260	-2.28311	36.204	38.0299	78.7429	5.05889	-6.64133	-1.37548	-15.8358	26.9253	0.321155
0.3267	5.93609	0.524274	27.0228	146.506	6.89077	0.991446	-0.760132	14.3755	28.4677	0.321155
0.3273	13.8509	-56.5634	12.0845	84.2326	6.28419	8.62422	7.48067	44.895	32.1226	0
0.3280	21.8164	-56.5634	8.4155	-107.392	2.01385	8.31185	5.94834	84.8738	27.5288	0
0.3287	28.2091	-26.6506	12.0845	-279.517	1.09185	8.92301	-1.07384	73.2728	16.5643	0.321155
0.3293	29.7312	-49.8352	18.1705	-217.872	1.69843	11.68	-3.81273	50.3954	-5.432	0.321155
0.3300	27.9047	-100.515	22.1598	-45.4616	0.181975	10.7565	-3.81273	63.5053	-30.1443	0
0.3307	23.3385	-65.0974	16.336	13.4383	1.39514	5.2696	-2.29246	36.9609	-36.8504	-0.321155
0.3313	14.7641	38.6507	8.70669	-4.86067	2.01385	-5.71779	-5.04342	-23.1533	-32.592	0
0.3320	6.54492	92.68	1.39773	-13.3811	4.7556	-12.1282	-8.08395	-19.5026	-26.7912	-0.321155
0.3327	-1.67428	74.0683	-18.1414	-11.2653	12.0831	-7.55129	-6.26204	7.65828	-17.6372	-0.963464
0.3333	-5.98682	37.4273	-32.4681	-12.1803	16.3534	0.692654	-2.89574	5.82483	-8.18153	-0.321155
0.3340	1.67428	13.9515	-17.2095	-14.2961	19.7139	4.34606	0.458492	16.5172	-2.38069	0.321155
0.3347	10.5023	-26.0389	11.7642	2.74485	19.7139	1.9014	0.760132	44.2785	-4.49314	0
0.3353	11.1111	-57.4663	27.0228	45.1757	13.915	0.0814887	-2.5941	46.1119	-8.78509	0
0.3360	8.06699	-61.1362	23.9652	79.6578	10.5545	1.9014	-2.89574	1.55762	-7.24267	0
0.3367	6.54492	-114.233	15.7245	90.6372	8.41935	3.7349	-1.07384	-40.5467	-4.79491	0
0.3373	6.2405	-128.884	23.3829	94.0111	5.05889	5.5684	0.144787	-64.3652	-2.38069	0
0.3380	4.41401	-17.5049	28.8573	95.212	3.22702	6.79073	0.144787	-93.3434	0.36884	0.321155
0.3387	1.36987	-3.7573	18.1705	85.7766	1.39514	7.08952	-1.67712	-79.0003	0.670617	0.321155
0.3393	1.06545	-119.738	25.5086	70.2224	-0.74003	8.62422	-1.67712	-28.3454	1.91126	0.321155
0.3400	3.50077	-123.7	42.8928	61.9879	-1.04332	9.53418	-1.37548	-3.32616	3.72193	0
0.3407	1.9787	-71.5052	23.0625	43.3458	-1.34661	10.1453	-2.29246	23.5265	4.05724	0
0.3413	-1.36987	-50.1556	-24.5476	-27.4485	-0.74003	13.8123	-2.29246	101.651	4.35901	0.321155
0.3420	-4.41401	2.33011	-62.9852	-119.916	2.01385	15.9446	-0.458492	193.518	3.11837	0.321155
0.3427	-8.72655	30.7283	-79.7871	-113.797	3.53031	10.7565	2.29246	199.926	-2.68247	0
0.3433	-8.11772	70.3984	-73.0605	-10.0645	2.92372	5.5684	3.51109	114.469	-7.24267	0
0.3440	-4.76916	79.544	-52.939	65.0186	1.69843	5.88077	1.37548	16.2089	-5.432	0.321155
0.3447	-2.58752	4.48546	-32.7884	83.9467	0.181975	7.40189	-1.99082	-43.6132	-5.432	0.321155
0.3453	-0.152207	116.797	-4.39703	86.6915	-0.436739	4.95723	-1.67712	-50.9308	-8.18153	0
0.3460	3.19635	210.176	34.9724	78.171	-1.04332	0.0814887	-1.67712	-54.5977	-6.63911	0
0.3467	7.15374	-40.9808	71.5754	69.3075	-1.95319	0.0814887	-4.42807	-55.198	-5.73378	0
0.3473	5.63167	-128.272	83.4852	101.96	-1.95319	2.51257	-3.51109	-29.2702	-9.9922	0
0.3480	-2.28311	95.1266	54.1912	160.517	-1.04332	1.30382	0.458492	-14.9272	-12.44	0
0.3487	-4.76916	184.836	12.3757	134.898	-4.70707	-3.27313	3.19738	-16.4523	-6.33733	0
0.3493	1.06545	146.069	-5.32885	14.6392	-10.8093	-3.88429	4.11437	-16.7444	0.36884	0
0.3500	4.71843	154.632	-5.32885	-73.5391	-11.7192	-0.529677	1.97876	3.08278	0.972395	0
0.3507	-0.152207	155.535	-12.0263	-65.3046	-6.84224	-0.230885	1.67712	29.3351	3.72193	0
0.3513	-9.03097	117.7	-19.9759	-19.4999	-1.95319	-6.64133	1.97876	11.6334	4.96257	0
0.3520	-9.6398	104.272	-9.28908	7.94863	-1.6499	-10.6071	1.67712	-5.75993	-0.234716	0
0.3527	-5.07358	92.0684	-4.10583	71.1374	-2.8752	-2.67555	4.72971	-4.23477	-5.13022	0.321155
0.3533	-5.98682	3.8738	-18.1414	108.078	-7.75211	7.08952	6.56368	-9.11854	-5.73378	-0.321155
0.3540	-5.07358	-121.544	-16.598	-44.8326	-13.8543	10.4577	6.56368	15.5924	2.81659	-0.321155
0.3547	2.28311	-163.981	4.74646	-211.754	-13.2477	10.7565	7.16696	31.1685	10.7634	0
0.3553	4.71843	-144.438	12.696	-187.336	-9.2807	6.49193	8.08395	11.6334	7.41032	0
0.3560	2.89194	-156.35	4.13495	-106.191	-5.61695	1.30382	11.7519	27.5017	4.96257	0
0.3567	5.32726	-66.0294	-1.0483	-71.7092	-3.78507	-1.14084	12.0535	59.8546	6.77324	0
0.3573	5.63167	107.331	-8.06607	-52.7812	-4.40378	-0.529677	9.61628	53.7377	5.56612	0
0.3580	2.89194	64.2818	-25.1591	-38.4279	5.67761	4.65844	8.38558	44.5868	4.05724	0
0.3587	7.15374	-71.8256	-34.0114	-19.843	23.3777	7.70068	1.97876	43.9864	0.36884	0
0.3593	9.28465	-48.6119	-22.4219	-0.285922	27.3447	7.70068	-5.04342	9.49172	-2.68247	-0.321155
0.3600	5.02284	2.33011	-9.58027	8.23455	18.1853	13.5	-8.69929	-36.5877	-1.44183	0
0.3607	2.58752	-31.5438	-19.6556	12.5234	5.9809	16.8682	-9.61628	-41.4715	-1.44183	0.321155
0.3613	-0.761037	-52.8934	-39.4859	17.0981	-4.40378	7.40189	-4.12643	-9.7351	0.0670617	0
0.3620	2.89194	37.1361	-36.7486	18.6421	-11.1126	-8.46124	3.51109	25.3599	3.42015	0
0.3627	14.4597	111.292	11.7642	19.2711	-13.8543	-12.1282	5.94834	15.3003	2.81659	-0.321155
0.3633	12.9376	60.3206	56.6372	16.8122	-5.01037	0.991446	7.16696	-17.3609	3.72193	-0.642309
0.3640	5.63167	-1.92234	24.5767	9.49261	4.14902	15.3335	8.69929	0.340728	5.8679	0.321155
0.3647	11.1111	-48.0002	-23.9361	7.3196	-0.121316	15.3335	5.33299	29.9354	0.670617	0.321155
0.3653	17.5546	-62.9711	-23.6158	9.77853	-7.14553	6.49193	1.06177	36.6526	-7.84622	0
0.3660	12.9376	38.039	-10.8033	7.94863	-12.6412	2.51257	-2.29246	55.8795	-10.8975	0
0.3667	8.3714	154.632	-3.49432	6.74776	-14.473	5.2696	1.06177	65.9553	-7.24267	0
0.3673	15.3729	157.078	13.9191	9.49261	-5.01037	6.17956	8.69929	62.905	-2.38069	0
0.3680	22.4252	98.7674	36.1954	8.57766	4.14902	5.2696	8.08395	51.9205	-0.536494	0.321155
0.3687	12.6332	46.6021	56.0257	3.6598	6.89077	6.49193	0.760132	13.1586	-1.74361	0.321155
0.3693	-1.06545	-19.3108	75.5648	4.28883	13.2963	10.4577	-6.26204	-18.2695	-3.28603	0
0.3700	2.28311	-73.9518	77.3702	10.6935	21.5458	11.68	-9.31464	-18.5778	-2.68247	0
0.3707	11.1111	-40.3691	52.3566	16.1832	24.5908	9.53418	-3.81273	-30.1788	-0.838272	0.321155
0.3713	14.7641	-36.1167	39.2238	17.0981	23.0622	7.70068	6.86532	-45.4305	0.0670617	0
0.3720	10.1979	-183.205	27.6343	17.4412	20.3205	6.49193	12.0535	-18.5778	-0.234716	0
0.3727	-3.80518	-303.759	-23.6158	25.0468	18.4886	5.5684	12.0535	7.35	-1.44183	-0.321155
0.3733	-5.98682	-297.351	-61.471	36.9411	19.7139	3.7349	12.9705	-27.745	-3.88958	-0.321155
0.3740	11.1111	-286.05	-28.8282	43.6317	19.3985	2.82494	15.7094	-88.7679	-4.19136	0
0.3747	26.9914	-300.992	20.005	46.4337	17.882	5.2696	18.762	-93.3434	-1.14005	0.321155
0.3753	30.0356	-144.146	26.4113	51.2944	14.5216	6.79073	18.1587	-30.1788	0.972395	0.321155
0.3760	26.3826	177.205	-1.0483	48.8355	9.32923	4.65844	12.0535	54.6626	-2.07891	0.321155
0.3767	23.9473	276.089	-55.6762	32.6523	8.41935	2.82494	6.56368	107.151	-6.63911	0
0.3773	18.4678	184.544	-119.768	30.2505	11.1611	10.1453	5.94834	98	-7.24267	0
0.3780	8.98023	169.574	-152.731	28.9925	11.4644	24.1886	5.94834	79.0815	-4.79491	0
0.3787	1.06545	74.9712	-142.044	-30.1934	9.02594	30.599	3.51109	87.0156	-2.38069	0
0.3793	-4.76916	-150.845	-125.854	-80.5728	5.67761	26.932	-1.99082	78.7732	-1.74361	0.321155
0.3800	-11.7707	-311.39	-85.2615	-48.2064	5.05889	25.7097	-10.5333	18.951	-3.88958	0
0.3807	-21.8164	-350.128	33.429	-19.843	9.64465	35.176	-15.1061	-42.9967	-2.68247	0
0.3813	-31.304	-381.264	122.243	-26.5336	12.0831	43.4063	-16.3247	-65.2738	2.21304	0
0.3820	-35.2614	-338.244	111.556	-25.3327	8.72265	40.0517	-16.0231	-75.3497	5.26435	0.321155
0.3827	-32.826	92.68	96.0066	-19.843	4.45231	33.3425	-12.0535	-88.7679	4.66079	0.321155
0.3833	-24.9113	554.099	81.0392	-10.0645	1.09185	25.4109	-9.00093	-100.061	2.21304	0.321155
0.3840	-18.1634	491.536	31.9148	15.5542	-1.04332	17.167	-5.34506	-90.293	2.81659	0.321155
0.3847	-8.42214	322.166	1.07742	47.9205	-2.26862	11.68	1.06177	-46.047	7.7121	0.321155
0.3853	9.28465	350.244	20.3253	50.0935	-1.95319	5.2696	1.06177	4.60795	12.5741	0.321155
0.3860	7.76257	284.011	31.9148	22.016	-1.95319	-10.2947	-5.04342	18.3507	12.2723	0.321155
0.3867	-12.9884	136.02	2.62074	5.83281	-3.78507	-37.4576	-5.94834	18.3507	8.31566	0.321155
0.3873	-17.2502	59.4177	-10.5121	6.11873	-3.17849	-46.0004	-1.99082	-4.85132	6.16968	0.321155
0.3880	-7.5089	15.7573	14.5306	7.03368	-0.74003	-36.5477	-0.760132	-48.7891	5.26435	0.321155
0.3887	1.67428	-9.87383	45.9504	4.91786	-1.04332	-22.8168	-1.07384	-25.295	4.35901	0.321155
0.3893	3.19635	-37.9516	53.9	-1.8299	-4.08836	32.7313	1.37548	-30.7954	2.81659	0
0.3900	-7.81331	-111.496	36.4866	-10.9794	-10.8093	90.0993	6.24998	-91.5262	-4.19136	0.321155
0.3907	-10.2486	-162.146	11.1527	-12.1803	-15.6862	90.7105	10.8349	-50.6225	-8.48331	0.321155
0.3913	-5.07358	-152.389	-24.5476	-9.72134	-18.7434	76.6809	14.4908	32.0772	-4.79491	0
0.3920	-3.50077	-149.01	-54.4532	-11.8944	-17.5181	66.6034	14.8045	68.3891	-0.536494	0
0.3927	0.761037	-105.699	-53.8417	-10.3504	-11.1126	48.2956	12.6568	98	2.21304	-0.963464
0.3933	2.58752	88.3984	-34.0114	5.4897	-14.7763	22.6539	9.61628	113.56	2.21304	-0.642309
0.3940	2.89194	278.535	-11.7351	36.3121	-26.6775	-1.14084	2.89574	88.8328	-0.234716	0
0.3947	1.06545	265.72	-5.94035	71.7092	-25.7555	-7.55129	-5.04342	77.8483	-1.14005	-0.321155
0.3953	-6.59565	138.437	1.07742	119.344	-14.473	-11.5171	-9.00093	112.035	-1.74361	-0.321155
0.3960	-6.59565	19.4273	16.9475	161.432	-4.08836	-25.8591	-7.48067	61.6719	-2.07891	-0.642309
0.3967	9.58906	-59.01	18.1705	149.537	2.01385	-24.0256	-4.72971	-75.95	3.72193	-0.321155
0.3973	22.7296	-74.243	21.5483	78.7429	2.92372	-16.094	-5.04342	-100.369	9.22099	0.321155
0.3980	18.1634	-121.544	29.7891	0.91495	9.64465	-28.005	-9.61628	-47.8805	8.31566	0
0.3987	10.5023	-217.079	34.6521	-28.6494	17.882	-22.8168	-16.6384	-53.9811	4.05724	0
0.3993	14.4597	-171.904	50.2309	-17.3841	20.3205	12.8888	-21.2113	-26.8202	1.3077	0
0.4000	28.2091	-13.2234	58.4717	8.86358	24.5908	37.0095	-22.1283	43.6781	0.972395	0
0.4007	33.0797	58.1944	25.1883	-19.4999	30.9963	37.9194	-19.3773	44.895	0.36884	0
0.4013	21.512	51.175	-18.7529	-98.5287	35.5821	25.0985	-15.1061	19.2593	0.972395	0
0.4020	17.859	4.77672	-16.3068	-102.818	32.8282	-1.75201	-13.2721	33.9106	2.51482	0
0.4027	28.2091	-54.1167	0.174716	-39.3429	29.1645	-32.8807	-8.69929	30.552	1.60948	0.321155
0.4033	34.9062	-0.699032	0.786223	7.03368	31.9183	-60.3424	3.81273	3.08278	3.42015	0.321155
0.4040	29.4268	112.195	9.3182	31.4514	29.7832	-86.283	9.30257	24.7596	5.56612	0
0.4047	15.0685	113.418	8.09519	67.1345	20.6238	-96.048	1.37548	39.3947	1.3077	0
0.4053	-2.89194	7.83499	-30.9539	92.8102	12.993	-89.04	-3.20945	-25.9116	0.972395	0
0.4060	-20.2943	-51.3789	-75.5065	86.4056	8.72265	-90.2487	-3.81273	-70.7742	6.16968	0
0.4067	-27.651	17.5923	-100.229	89.4364	10.5545	-85.373	-4.72971	-28.3454	8.91921	0
0.4073	-21.512	42.641	-120.059	116.599	14.8249	-55.4666	-1.07384	17.7341	8.91921	0
0.4080	-5.68241	-113.01	-133.804	161.432	14.2183	-31.9707	0.760132	28.4103	5.8679	0
0.4087	11.1111	-263.768	-160.972	171.21	9.94794	-27.6926	-0.458492	31.4606	3.42015	-0.321155
0.4093	20.9031	-246.671	-210.999	91.8953	6.28419	-29.5261	-1.37548	23.8348	5.56612	0
0.4100	26.0782	-153.292	-253.717	63.1887	4.45231	-33.1931	-3.20945	13.7589	6.47146	0.321155
0.4107	27.9047	-35.505	-167.058	131.867	5.36218	-29.8249	-1.37548	13.1586	3.42015	0.321155
0.4113	22.4252	99.3791	111.265	11.6084	6.28419	-18.8375	3.51109	46.1119	4.96257	0
0.4120	4.41401	138.146	270.868	-260.589	6.58748	-10.6071	3.81273	96.7669	8.31566	0.321155
0.4127	-13.2928	79.544	135.376	-252.984	4.7556	-9.99595	-1.37548	88.2324	-0.536494	0.321155
0.4133	-30.6951	-32.1555	-18.4326	-90.2941	1.09185	-13.3506	-6.86532	53.4457	-8.78509	0
0.4140	-51.4461	-183.816	-30.0512	-96.6988	0.485265	-10.6071	-5.94834	20.1679	-2.38069	0
0.4147	-55.0991	-196.02	-11.7351	-143.133	-0.121316	-6.64133	-4.42807	-48.1887	0.0670617	0.321155
0.4153	-43.4806	-134.68	-78.5641	-179.101	-3.48178	-9.07241	-5.6467	-104.036	-4.19136	0.321155
0.4160	-29.1731	-200.302	-177.133	-209.352	-7.14553	-11.5171	-3.51109	-101.894	-4.49314	0
0.4167	-5.07358	-25.7186	-196.061	-151.024	-11.7192	-11.8294	-3.81273	-56.1228	-6.63911	0
0.4173	23.3385	383.507	-128.911	-87.5493	-12.6412	-9.68357	-6.86532	4.29967	-6.33733	0
0.4180	30.6444	417.089	-72.449	-75.998	-9.2807	-2.06438	-4.72971	76.0149	-0.838272	0
0.4187	10.8067	189.117	-63.917	-68.0494	-8.67412	9.23539	-3.20945	144.68	2.51482	0
0.4193	-4.41401	107.01	33.7494	-47.2915	-10.2027	24.4874	-5.34506	101.651	2.51482	0
0.4200	-0.152207	117.408	150.023	-29.9074	-11.1126	34.5648	-5.6467	-34.446	0.972395	0
0.4207	3.80518	90.5247	94.4632	-24.4177	-12.3379	29.0643	-1.99082	-81.4503	-0.234716	0
0.4213	0.152207	35.6215	50.8424	-22.5878	-10.506	23.265	2.89574	-37.2043	0.972395	0
0.4220	0.152207	28.6021	156.109	-20.1289	-5.01037	22.9662	3.51109	-36.2795	0.670617	0
0.4227	-4.41401	78.6411	236.391	-18.0131	-4.08836	13.8123	4.11437	-93.9599	-0.536494	-0.963464
0.4233	-25.8245	90.845	246.146	-17.67	-6.84224	0.991446	11.1365	-127.838	1.3077	-0.321155
0.4240	-37.0879	82.9227	213.183	-22.5878	-7.44882	-5.10663	20.2943	-106.778	5.26435	0.321155
0.4247	-20.9031	174.146	142.685	-27.1626	-7.75211	-5.71779	25.1809	-85.1172	9.22099	-0.321155
0.4253	-2.89194	152.797	79.2047	-25.6186	-4.40378	-4.49546	26.7012	-83.592	13.8147	0
0.4260	3.50077	-102.321	34.9724	-20.4148	5.67761	-1.75201	31.274	-71.3745	15.6254	0
0.4267	-2.89194	-268.341	28.2458	-13.0952	10.5545	4.04727	30.6707	-39.6381	11.6687	0
0.4273	-25.5201	-289.72	7.5128	-6.06154	6.89077	15.6458	20.596	-6.99305	6.16968	0.321155
0.4280	-39.2188	-368.448	-95.0456	0	8.41935	28.1543	6.86532	10.7086	1.3077	0
0.4287	-31.304	-337.021	-202.147	8.23455	14.2183	29.3767	-7.48067	-9.11854	-1.74361	0.321155
0.4293	-23.3385	-10.7767	-261.346	16.8122	17.882	20.8339	-18.1587	-66.1824	-4.49314	0.321155
0.4300	-28.5642	266.943	-287.903	19.5571	21.2304	15.9446	-21.5129	-112.57	-8.78509	0
0.4307	-40.132	269.972	-297.367	19.5571	28.2546	17.7781	-20.596	-141.565	-11.5346	0
0.4313	-49.3152	111	-390.462	21.101	33.4469	20.8339	-17.8571	-133.322	-10.8975	0.321155
0.4320	-47.1843	-24.204	-487.196	21.6729	30.0865	20.2228	-11.4502	-85.1172	-6.03556	0.321155
0.4327	-37.6967	44.7672	-295.853	19.843	22.4557	17.167	-5.6467	-74.4248	-0.536494	0
0.4333	-39.5232	108.845	106.693	15.8973	15.7469	13.8123	-4.72971	-50.0222	0.0670617	0
0.4340	-42.5673	11.5049	348.675	14.3533	10.8578	12.59	-5.04342	45.5116	-0.536494	0.321155
0.4347	-18.7722	-68.4469	355.402	14.0674	6.89077	11.9788	-5.94834	109.293	-1.14005	0
0.4353	19.9899	-85.8644	287.03	12.8093	5.9809	12.2776	-2.29246	111.418	-0.234716	0.321155
0.4360	40.4364	-72.4372	231.79	11.8944	8.41935	13.2012	6.86532	72.056	3.42015	0.321155
0.4367	28.5135	40.1943	150.635	11.8944	8.41935	12.8888	11.4382	8.89139	4.05724	0
0.4373	5.32726	169.574	9.3182	11.3225	5.36218	11.3677	12.0535	-17.0526	2.21304	0
0.4380	5.32726	175.981	-81.6216	10.4076	2.31714	9.23539	10.5212	-12.7854	0.670617	0.321155
0.4387	21.512	171.409	-111.818	11.3225	2.01385	8.92301	8.38558	9.49172	0.670617	0
0.4393	21.2076	154.632	-215.28	16.1832	4.7556	11.68	10.2196	49.4705	2.21304	-0.321155
0.4400	7.45816	6.93207	-344.686	19.2711	5.05889	12.2776	11.4382	29.9354	2.21304	0
0.4407	2.28311	-66.9323	-323.604	17.0981	5.05889	10.1453	9.30257	-24.0781	0.972395	0.321155
0.4413	4.71843	38.971	-60.248	11.6084	9.02594	5.88077	5.6467	-21.9364	0.0670617	0
0.4420	5.32726	20.971	214.406	7.3196	13.6117	0.991446	4.42807	-32.6126	2.51482	0
0.4427	1.06545	-120.35	221.133	6.74776	15.1281	0.0814887	8.08395	-58.5566	8.31566	0.321155
0.4433	-15.1193	-111.496	146.965	4.91786	13.2963	-0.529677	5.94834	-40.855	8.31566	0.321155
0.4440	-29.7819	-93.7868	181.152	5.83281	9.64465	0.692654	-5.04342	-78.7083	3.42015	0
0.4447	-26.7378	-190.224	243.7	13.7243	9.94794	4.65844	-15.4078	-173.918	0.670617	0
0.4453	-19.3811	-228.38	243.7	19.2711	9.94794	8.01306	-23.0453	-159.266	-1.44183	0
0.4460	-8.11772	-189.321	170.465	19.5571	8.72265	12.2776	-26.0979	-23.7699	-1.14005	0
0.4467	11.72	-173.127	137.502	18.6421	17.882	14.4235	-21.2113	106.843	0.36884	0
0.4473	29.1223	-160.632	139.627	14.9823	27.9513	11.9788	-15.1061	231.663	-0.838272	0
0.4480	39.5232	-21.7574	49.6194	11.6084	28.5579	11.3677	-13.5859	376.927	-2.07891	0
0.4487	42.2629	126.234	-78.5641	10.6935	24.2875	11.3677	-9.61628	422.698	-1.44183	0.321155
0.4493	40.132	118.311	-90.1536	10.0645	13.2963	5.5684	-0.156853	332.064	0.36884	0.321155
0.4500	33.993	89.6217	-2.88282	9.1495	-1.6499	3.7349	8.08395	203.885	4.05724	0.321155
0.4507	12.6332	77.7091	25.7998	6.11873	-10.2027	12.59	6.24998	89.1411	4.05724	0
0.4513	-18.4678	29.505	-20.2671	3.6598	-10.2027	21.4451	0.144787	-1.18444	2.21304	0.321155
0.4520	-30.6951	-18.1166	-11.4148	3.08796	-11.4159	20.8339	-3.51109	-71.9911	2.81659	0
0.4527	-25.2157	-32.4467	90.2118	3.08796	-17.2148	12.59	-3.81273	-118.979	3.42015	-0.642309
0.4533	-11.4663	-13.835	227.83	6.74776	-15.0796	4.34606	-0.760132	-127.222	3.42015	-0.642309
0.4540	11.1111	-12.2913	269.937	10.4076	-12.6412	-0.84205	0.144787	-98.5354	1.60948	0.321155
0.4547	18.4678	-46.1652	123.175	9.1495	-14.7763	-11.8294	1.06177	-62.2235	-0.234716	0
0.4553	8.3714	-113.01	-53.5505	7.03368	-5.92024	-22.2057	2.89574	-39.6381	0.972395	-0.321155
0.4560	3.19635	-123.379	-103.578	6.11873	4.7556	-17.9275	0.760132	-7.90166	2.51482	0
0.4567	-2.89194	-36.4079	-85.873	6.40465	1.09185	-9.07241	1.97876	39.1026	4.96257	0
0.4573	-13.2928	-13.835	-98.7147	4.91786	-10.8093	-0.84205	8.69929	103.792	8.01388	0
0.4580	-18.7722	-81.8741	-119.768	1.25806	-19.0467	4.95723	6.56368	114.176	4.96257	0
0.4587	-28.8687	-160.311	-80.6898	2.45893	-21.7884	-2.67555	-2.89574	-11.2603	-0.234716	0
0.4593	-36.1746	-184.719	-2.5625	5.83281	-26.9808	-13.0518	-2.89574	-125.388	-0.234716	-0.321155
0.4600	-24.5561	-203.651	72.1869	7.66271	-27.284	-7.25249	3.19738	-94.8685	1.91126	0
0.4607	-9.94421	-402.322	76.4675	8.86358	-17.5181	0.0814887	4.42807	-17.6692	4.05724	0
0.4613	7.15374	-420.031	5.06677	5.20378	-16.9115	-9.07241	1.37548	1.86589	2.81659	0
0.4620	38.3055	-23.9127	-36.4575	1.8299	-25.1489	-16.4064	-1.37548	-31.704	1.91126	0
0.4627	45.6115	227.564	-81.3013	2.45893	-27.5873	-7.55129	0.458492	-49.4056	7.41032	0
0.4633	14.7641	347.506	-164.612	1.8299	-23.6203	-4.19667	2.89574	-46.3553	8.91921	0
0.4640	-16.3369	455.216	-129.232	2.17301	-12.6412	-0.84205	3.81273	-39.3298	7.10854	0
0.4647	-30.9996	183.001	-25.4503	1.25806	-2.8752	23.5774	4.42807	32.6937	7.41032	-0.321155
0.4653	-34.6525	-143.535	-44.0867	-4.23164	-2.57191	40.0517	4.42807	56.496	6.77324	0
0.4660	-34.3481	-144.758	-52.6187	-8.23455	-3.48178	26.3209	6.86532	-27.745	6.77324	0.321155
0.4667	-44.6982	-132.234	-32.4681	-9.43542	-0.74003	13.5	8.69929	-15.5275	9.22099	0
0.4673	-52.0549	-139.573	-93.2111	-6.06154	3.84573	18.6881	7.16696	87.9242	9.52277	0
0.4680	-20.9031	141.816	-39.8062	2.74485	13.2963	32.1201	4.42807	113.56	8.91921	0
0.4687	18.1634	526.633	131.998	7.94863	14.8249	47.0733	-1.07384	98.9086	9.82455	0
0.4693	36.479	535.167	163.127	6.11873	8.41935	53.4838	-6.26204	111.726	10.1599	0
0.4700	32.7753	226.952	20.005	5.20378	6.58748	41.8852	-7.17903	80.8987	5.26435	0
0.4707	12.9376	73.1362	-87.4164	4.91786	2.31714	15.6458	-4.12643	-8.51821	-2.07891	0
0.4713	22.4252	119.214	-105.732	4.28883	-7.14553	-8.16245	-2.5941	-72.8997	-3.88958	0
0.4720	51.0909	91.4567	-108.149	3.08796	-13.551	-21.8933	-1.67712	-34.7543	0.0670617	0
0.4727	57.5344	-6.81556	34.6521	1.25806	-13.8543	-31.0472	-0.156853	110.818	2.51482	0
0.4733	59.3609	-35.505	237.294	0.91495	-14.7763	-31.3596	-0.760132	227.996	2.21304	0
0.4740	69.4065	-27.2623	301.065	0.629028	-20.8785	-25.8591	-2.89574	199.926	0.670617	0
0.4747	60.5785	-33.67	292.824	-1.48679	-23.6203	-20.0598	-4.42807	125.161	-0.838272	0
0.4753	29.1223	-57.7867	226.316	-0.91495	-17.5181	-9.68357	-4.72971	65.0305	0.670617	0.321155
0.4760	12.0244	15.7573	127.426	1.25806	-8.37083	-2.67555	-4.72971	-18.8861	2.21304	0
0.4767	13.242	226.661	59.3744	1.25806	-5.61695	-3.5855	-5.34506	-54.906	2.51482	0
0.4773	11.1111	289.516	-3.17401	-0.571844	-5.92024	-4.49546	-5.34506	-30.1788	1.3077	0
0.4780	10.5023	223.283	-40.0974	-2.40174	-6.53895	-2.67555	-4.72971	-33.5374	0.670617	0
0.4787	3.50077	168.35	-91.0854	-1.48679	-7.44882	1.30382	-3.81273	-57.9563	1.60948	0
0.4793	-10.2486	38.6507	-281.817	0.629028	-8.05541	5.5684	-4.12643	-20.4113	0.670617	0
0.4800	-1.36987	-82.8062	-476.509	1.54398	-8.05541	5.88077	-3.20945	23.2344	-0.234716	0
0.4807	29.4268	-165.496	-451.496	-0.571844	-8.05541	0.0814887	0.458492	-24.0781	-0.536494	0.321155
0.4813	46.8291	-266.826	-371.214	-3.03077	-8.05541	-2.97434	2.5941	-97.0103	-2.38069	0.321155
0.4820	22.1208	-378.817	-442.644	-2.74485	-6.84224	1.9014	-0.156853	-75.0414	-2.98425	0
0.4827	-13.9016	-493.866	-581.805	-2.40174	-5.01037	6.17956	-1.99082	-0.584106	-1.74361	-0.642309
0.4833	0.456622	-573.818	-568.672	-3.03077	-6.84224	5.5684	-1.67712	-27.4368	0.670617	-0.642309
0.4840	35.8195	-544.546	-347.714	-4.57475	-11.4159	4.04727	-4.72971	-93.3434	4.35901	0
0.4847	48.96	-264.38	-182.316	-6.40465	-8.37083	1.30382	-8.08395	-62.2235	5.8679	0.321155
0.4853	55.6572	99.0878	-181.093	-5.4897	2.62043	-0.84205	-6.26204	54.9709	5.26435	-0.321155
0.4860	53.8307	99.9907	-120.059	-3.94572	8.11606	0.0814887	-2.29246	136.746	5.56612	-0.642309
0.4867	42.8717	-151.457	15.1421	-2.74485	5.9809	-2.06438	0.458492	61.9801	6.77324	-0.321155
0.4873	34.2974	-183.496	187.238	-3.6598	2.01385	-7.55129	3.19738	-57.648	6.77324	0.321155
0.4880	27.2958	-71.5052	458.252	-6.06154	-4.08836	-5.419	5.03135	-52.456	4.96257	0
0.4887	6.54492	-21.4661	568.73	-6.97649	-8.67412	2.51257	4.42807	24.4513	4.35901	-0.321155
0.4893	-21.2076	123.816	439.935	-5.4897	-9.2807	7.70068	5.6467	55.5712	3.72193	0
0.4900	-31.9128	284.943	338.629	-4.23164	-9.2807	11.68	7.48067	13.7589	4.66079	0
0.4907	-30.0863	316.662	323.371	-4.57475	-13.2477	10.7565	7.16696	-50.0222	5.26435	0
0.4913	-17.2502	322.487	302.609	-6.06154	-17.8214	3.7349	7.48067	-64.9656	3.42015	0
0.4920	-2.28311	218.098	221.133	-5.14659	-16.0016	0.0814887	9.00093	-66.4907	2.51482	0
0.4927	-8.42214	-55.9517	131.707	-4.23164	-11.7192	2.21378	9.61628	-75.95	3.42015	0
0.4933	-20.2943	-204.554	123.175	-5.14659	-11.1126	4.34606	9.91792	-29.5623	4.35901	0
0.4940	-26.7378	-155.127	157.332	-4.86067	-13.2477	2.82494	9.00093	11.9417	6.16968	-0.321155
0.4947	-42.5673	-172.224	200.37	-3.94572	-17.2148	-2.36317	3.19738	-13.694	4.96257	-0.321155
0.4953	-48.7063	-60.2041	182.666	-3.31669	-19.0467	-4.19667	-1.99082	-40.5467	2.21304	-0.321155
0.4960	-34.957	258.38	8.70669	-1.48679	-13.551	2.21378	-2.5941	-36.5877	1.91126	0
0.4967	-23.3385	294.409	-234.498	-0.285922	-7.14553	7.70068	-5.6467	-11.5685	0.36884	-0.321155
0.4973	-7.5089	71.9129	-384.638	0.91495	-7.44882	7.40189	-9.31464	70.2225	-0.234716	0
0.4980	5.02284	-3.7573	-335.834	1.8299	-10.2027	2.82494	-6.86532	156.281	1.3077	0
0.4987	1.67428	54.2332	-149.965	0.629028	-9.88728	-3.5855	-3.81273	129.12	0.36884	0
0.4993	9.58906	28.8933	-27.2849	1.25806	-6.53895	-3.27313	-3.20945	62.5967	-1.74361	0
0.5000	37.0879	-2.85438	-10.8033	1.54398	-7.14553	-1.14084	-2.29246	98	-4.19136	-0.321155
0.5007	48.0468	6.32042	-5.94035	1.25806	-7.44882	0.0814887	0.144787	184.058	-5.432	-0.321155
0.5013	23.9473	-82.4858	96.0066	1.25806	-1.6499	3.43611	1.06177	221.587	-3.28603	0
0.5020	-12.0751	-117.583	294.368	-2.40174	1.09185	4.34606	-1.07384	205.119	-1.14005	0
0.5027	-37.0879	-78.5246	395.383	-4.23164	-1.04332	2.21378	-1.07384	67.1722	1.3077	0
0.5033	-31.9128	-65.709	382.25	-3.94572	-5.31366	-0.84205	0.144787	-196.195	2.21304	0
0.5040	-9.33538	142.107	363.322	-5.4897	-8.67412	-3.27313	-1.67712	-327.424	0.972395	0
0.5047	-7.20448	400.283	285.515	-5.77562	-8.37083	-2.06438	-5.04342	-250.517	0.36884	0
0.5053	-24.2517	480.235	161.321	-4.23164	-6.84224	0.380281	-4.12643	-163.842	0.972395	0
0.5060	-34.6525	451.866	35.2636	-2.11582	-7.44882	0.0814887	1.06177	-96.702	0.0670617	0
0.5067	-35.5658	247.69	-131.649	-1.8299	-9.2807	2.51257	1.37548	17.1175	-2.98425	0
0.5073	-40.7408	-66.6119	-264.113	-5.14659	-8.05541	10.1453	-5.94834	91.5911	-3.88958	0.321155
0.5080	-25.8245	-343.429	-212.222	-9.1495	-5.01037	14.4235	-10.5333	59.8546	-1.14005	0
0.5087	11.1111	-488.682	-44.6982	-8.52047	-4.40378	12.8888	-6.56368	50.0871	0.0670617	0
0.5093	23.9473	-493.866	56.9284	-5.14659	-3.78507	12.2776	-1.37548	69.0056	-2.98425	0
0.5100	15.0685	-463.953	87.4455	-4.57475	-3.17849	11.9788	-0.458492	-14.0023	-3.5878	0
0.5107	-0.152207	-394.982	115.546	-5.14659	-4.70707	9.53418	-0.156853	-109.212	-0.838272	0
0.5113	-17.2502	-266.506	112.779	-3.6598	-5.92024	6.49193	-0.760132	-84.8089	0.972395	0
0.5120	-14.206	-105.088	-50.7842	-3.6598	-7.14553	3.43611	-2.29246	-33.2291	2.81659	-0.321155
0.5127	-10.8575	171.729	-333.388	-6.06154	-8.67412	0.380281	-1.99082	-6.99305	6.47146	-0.963464
0.5133	-15.4237	466.808	-552.511	-6.06154	-7.44882	-0.230885	-0.156853	2.48245	8.31566	-0.321155
0.5140	1.9787	445.167	-609.556	-5.14659	-5.61695	1.30382	-1.37548	-22.2447	7.41032	0.321155
0.5147	23.034	235.486	-399.896	-5.77562	-6.23566	1.30382	-2.5941	-27.1285	0.670617	0
0.5153	25.7738	188.506	-40.0974	-4.57475	-6.23566	2.21378	-0.458492	-30.4871	-9.08687	-0.321155
0.5160	18.7722	226.341	127.135	-1.8299	-4.40378	4.65844	2.29246	-53.6728	-15.1895	0
0.5167	5.02284	213.816	73.7302	-0.285922	-3.48178	4.65844	3.19738	-86.0258	-18.8444	0
0.5173	-6.59565	195.816	-11.7351	-1.20087	-3.17849	3.7349	2.29246	-137.606	-19.7497	0
0.5180	-9.33538	161.04	-34.3026	-3.6598	-4.08836	3.12373	0.760132	-169.342	-16.3966	0
0.5187	-7.5089	95.4179	55.0939	-3.94572	-4.40378	2.51257	-1.07384	-143.09	-13.3453	0
0.5193	-7.81331	2.6505	216.24	-2.11582	-2.8752	2.51257	-1.37548	-70.1576	-8.18153	0
0.5200	-12.6839	-54.408	315.421	-1.8299	-2.26862	2.82494	-0.156853	-3.32616	-0.536494	0
0.5207	-15.7281	-12.6117	217.755	-3.31669	-4.08836	1.30382	-0.760132	35.1275	1.60948	0
0.5213	-19.3811	68.8838	53.9	-2.11582	-3.78507	1.60261	-1.07384	72.6725	0.972395	0
0.5220	-25.8245	129.292	-81.6216	-0.285922	-1.6499	3.7349	1.06177	105.934	4.96257	0
0.5227	-24.2517	94.515	-313.237	-2.11582	-1.6499	4.95723	2.89574	116.919	14.4183	0
0.5233	-17.5546	-2.85438	-449.953	-3.6598	-2.8752	4.34606	2.89574	97.6917	19.9173	0
0.5240	-5.07358	-109.049	-364.516	-3.94572	-4.08836	2.51257	0.760132	73.8894	13.2112	0
0.5247	4.71843	-184.428	-214.988	-2.74485	-4.08836	1.30382	-0.458492	45.8036	7.10854	0.321155
0.5253	-7.5089	-194.185	-52.6187	-2.11582	-4.08836	0.991446	0.458492	-47.2639	8.61743	0.321155
0.5260	-12.0751	-293.972	103.636	-2.40174	-5.31366	-1.75201	-0.760132	-112.878	10.1599	0
0.5267	6.2405	-424.283	312.684	-0.285922	-5.61695	-3.88429	-2.89574	-19.7947	10.4616	0
0.5273	-0.456622	-372.118	505.862	0.343106	-5.01037	-7.25249	-4.72971	95.8583	10.7634	0.321155
0.5280	-16.6413	-306.496	509.21	-1.20087	-5.61695	-11.5171	-7.78231	115.085	11.0652	0
0.5287	-2.89194	-312.584	450.011	-1.48679	-6.23566	-13.0518	-8.39765	149.872	11.0652	0
0.5293	-6.59565	-151.777	376.776	-0.91495	-5.92024	-9.07241	-7.48067	184.058	8.91921	0
0.5300	-24.5561	100.311	168.019	-0.285922	-5.31366	2.82494	-7.17903	140.721	5.8679	0
0.5307	-4.1096	198.875	-69.7118	0.343106	-4.70707	17.4657	-7.78231	18.951	2.81659	0
0.5313	15.6774	142.107	-224.743	0	-4.70707	25.0985	-9.31464	-144.923	-2.98425	-0.321155
0.5320	6.2405	9.05829	-369.991	2.45893	-2.57191	28.1543	-9.00093	-200.77	-6.33733	0
0.5327	0.761037	-28.1652	-478.024	5.83281	-1.6499	31.509	-8.08395	-187.952	-8.48331	0
0.5333	8.06699	54.8449	-359.333	7.3196	-1.95319	32.4325	-9.31464	-182.76	-9.9922	0
0.5340	8.67582	114.962	-66.3631	9.1495	0.181975	33.9536	-8.39765	-123.863	-9.38864	0
0.5347	-1.06545	170.185	75.856	8.86358	2.62043	33.9536	-8.69929	-86.9344	-9.69042	0.321155
0.5353	-0.456622	179.331	14.5306	7.94863	4.14902	25.0985	-9.31464	-89.0762	-11.2328	0
0.5360	4.71843	112.515	-48.6585	9.49261	3.53031	12.2776	-8.69929	-64.057	-12.7417	-0.321155
0.5367	-5.68241	102.146	-85.873	8.86358	1.09185	3.7349	-9.91792	-61.0066	-13.9488	0
0.5373	-12.3795	180.554	-105.121	8.23455	2.92372	-6.94012	-6.86532	-100.061	-10.5958	0.321155
0.5380	-7.81331	131.738	-63.917	7.3196	4.7556	-37.1589	1.06177	-118.687	-6.63911	0.321155
0.5387	-12.9884	15.4661	55.0939	3.37388	3.22702	-70.1075	8.08395	-82.9755	-3.5878	0.321155
0.5393	-25.5201	108.233	267.52	-0.91495	3.53031	-71.3298	11.7519	-38.4212	0.0670617	0
0.5400	-32.2172	218.418	473.801	-3.31669	4.7556	-48.445	9.91792	-28.0371	1.3077	0
0.5407	-32.826	216.875	529.361	-2.74485	7.81277	-22.2057	9.00093	-16.4523	2.81659	0
0.5413	-18.4678	239.768	407.584	-1.20087	9.94794	-7.25249	9.61628	-6.99305	4.35901	0
0.5420	-17.2502	246.496	190.295	-2.11582	4.14902	-6.64133	6.24998	5.2245	1.91126	0
0.5427	-41.0452	210.787	16.9475	-3.6598	-5.92024	-10.2947	4.42807	5.2245	-1.74361	-0.321155
0.5433	-42.8717	214.428	-49.27	-2.74485	-8.05541	-11.2183	6.86532	-46.6636	-2.98425	-0.642309
0.5440	-22.7296	203.447	-63.3055	-1.20087	-3.48178	-6.64133	8.38558	8.27483	-2.07891	0
0.5447	-7.5089	79.2528	-30.9539	0.91495	0.181975	-3.5855	7.78231	177.649	-1.14005	0
0.5453	-0.761037	-34.8934	6.28978	0.91495	2.01385	-6.03016	8.08395	148.347	-0.536494	0
0.5460	-13.2928	-59.01	-15.9865	-1.8299	1.69843	-8.16245	7.78231	3.39106	0.0670617	0
0.5467	-27.0422	-108.117	-61.1798	-3.6598	1.39514	-9.38478	7.48067	-44.2136	1.91126	0
0.5473	-25.5201	-118.195	-79.7871	-5.14659	1.39514	-11.2183	10.8349	-94.2682	3.42015	0
0.5480	-24.2517	-20.8545	-17.5299	-5.14659	2.31714	-11.2183	15.1061	-88.7679	5.26435	0
0.5487	-28.8687	41.7089	114.002	-3.94572	3.53031	-9.99595	15.4078	-50.6225	5.56612	0
0.5493	-42.8717	48.4371	188.781	-3.03077	3.53031	-10.6071	9.61628	-51.8394	1.60948	-0.321155
0.5500	-59.6653	29.1846	139.627	-1.8299	5.36218	-11.5171	4.72971	56.1877	-1.74361	0
0.5507	-50.2284	6.00003	19.3935	-1.48679	6.58748	-14.2605	1.97876	191.992	-3.88958	0.321155
0.5513	-14.206	23.7088	-26.0618	-1.20087	9.64465	-13.6494	0.458492	206.027	-3.88958	0
0.5520	10.1979	21.2622	100.87	0.343106	15.7469	-8.77362	1.37548	222.82	-1.44183	-0.321155
0.5527	-0.761037	-37.9516	192.13	0.343106	16.96	-10.2947	-2.29246	258.516	-3.88958	0
0.5533	-11.4663	-84.9324	153.372	0.91495	16.0502	-11.8294	-5.94834	205.719	-7.54445	-0.321155
0.5540	3.80518	-87.9907	218.075	1.8299	15.7469	-6.32896	-3.51109	110.201	-8.48331	0
0.5547	7.15374	-104.767	312.975	2.17301	13.2963	4.04727	-2.29246	41.2281	-9.9922	0.321155
0.5553	-15.4237	-99.2917	227.218	4.00291	12.993	12.59	-2.89574	-6.37649	-9.69042	0
0.5560	-29.1731	-45.874	85.3198	3.6598	11.4644	9.23539	-1.07384	-107.086	-9.08687	-0.642309
0.5567	-5.68241	-39.4662	34.9724	0.629028	5.67761	4.65844	2.89574	-267.91	-7.84622	-0.642309
0.5573	26.3826	-56.5634	12.696	0	-0.121316	6.17956	2.89574	-340.242	-6.63911	0
0.5580	33.993	-5.88352	-30.3424	-0.571844	-0.436739	5.88077	-1.99082	-234.032	-6.94089	0
0.5587	24.8605	42.9322	-93.2111	0.343106	2.31714	5.88077	-3.81273	-65.8904	-5.432	0.321155
0.5593	8.98023	4.16507	-189.334	0	2.01385	5.88077	-4.12643	-8.20993	-5.13022	-0.321155
0.5600	3.80518	-58.6896	-280.594	-2.11582	1.09185	4.34606	-6.56368	-64.6573	-6.63911	-0.321155
0.5607	3.19635	-78.2333	-277.216	-2.40174	2.31714	3.12373	-6.86532	-66.1824	-6.33733	0
0.5613	0.761037	-55.9517	-148.742	-3.6598	2.62043	1.30382	-4.12643	32.3854	-4.79491	0
0.5620	12.0244	-30.3205	-68.1976	-4.57475	4.7556	1.9014	5.33299	40.3195	-0.536494	0
0.5627	22.1208	-29.0972	-140.821	-3.6598	6.28419	1.9014	9.00093	-42.9967	0.36884	0
0.5633	13.8509	-1.01942	-254.329	-2.11582	5.36218	0.380281	-0.156853	-50.0222	-4.49314	0
0.5640	2.58752	32.8545	-282.108	0.343106	5.36218	0.991446	-7.17903	-37.8046	-7.54445	0
0.5647	2.89194	19.4273	-161.875	1.54398	2.92372	0.380281	-11.7519	-61.9152	-10.294	0
0.5653	14.7641	15.7573	2.00924	3.6598	1.69843	0.380281	-14.1891	-19.7947	-11.2328	0
0.5660	37.0879	35.9128	118.283	5.83281	2.92372	-0.230885	-12.6689	59.5464	-9.08687	0
0.5667	50.1777	25.2234	187.238	6.40465	1.39514	-2.97434	-15.1061	76.9397	-11.2328	0
0.5673	32.4709	-34.2817	146.965	7.94863	1.09185	-5.10663	-17.5554	51.9205	-14.2842	-0.321155
0.5680	-2.89194	-96.8451	5.35796	8.57766	1.09185	-7.55129	-16.3247	-1.49272	-16.0948	0
0.5687	-23.034	-49.8352	-105.412	9.49261	2.92372	-7.55129	-11.4502	-61.6069	-15.1895	0
0.5693	-25.2157	50.2429	-94.7253	10.4076	5.36218	-8.77362	-4.42807	-71.3745	-11.8364	0
0.5700	-30.0863	29.7962	-21.4901	7.3196	5.05889	-13.6494	4.11437	-30.7954	-9.69042	-0.321155
0.5707	-28.2598	-18.1166	7.19248	4.28883	6.89077	-10.2947	12.3552	29.9354	-6.94089	-0.321155
0.5713	-16.6413	-20.8545	-23.6158	2.17301	8.72265	-1.14084	12.0535	105.626	-5.432	0.321155
0.5720	-11.4663	-62.6508	-50.7842	-1.20087	11.7798	7.70068	11.1365	178.558	-2.68247	0
0.5727	-3.80518	-110.272	-43.1549	-1.8299	18.4886	13.2012	16.3247	185.892	1.60948	-0.963464
0.5733	12.9376	-96.8451	-21.1989	-0.91495	20.6238	13.8123	16.0231	130.045	0.0670617	-0.642309
0.5740	24.8605	-44.039	1.39773	0.91495	19.7139	14.4235	9.91792	71.7477	-2.07891	0.321155
0.5747	24.5561	-19.9224	11.473	2.17301	16.6567	11.0689	6.86532	29.6434	-5.13022	0.321155
0.5753	24.8605	-25.136	21.8395	4.00291	14.2183	7.70068	7.78231	-14.3106	-8.48331	0
0.5760	32.4709	-22.6894	46.5619	7.66271	16.3534	10.7565	13.5738	-64.6573	-6.63911	-0.321155
0.5767	39.5232	-12.903	65.1692	7.03368	16.6567	11.68	17.5434	-137.297	-4.79491	0
0.5773	32.4709	8.7379	81.0392	2.17301	15.7469	10.7565	17.5434	-216.947	-2.98425	0
0.5780	6.2405	12.4078	81.0392	-2.11582	15.1281	9.84655	16.6264	-228.548	-0.234716	0
0.5787	-17.2502	-30.9322	54.4823	-4.23164	14.2183	9.23539	16.0231	-162.317	1.60948	0
0.5793	-15.1193	-54.408	34.0405	-4.23164	16.0502	12.2776	17.5434	-69.5411	6.16968	0
0.5800	-1.67428	-9.55344	10.8615	-6.06154	15.7469	11.9788	15.4078	-21.0278	8.31566	0
0.5807	10.8067	26.4467	-43.4752	-6.40465	14.5216	8.92301	11.7519	-11.2603	7.10854	0
0.5813	20.9031	2.6505	-112.43	-6.06154	13.915	7.40189	9.00093	-5.1596	4.96257	0
0.5820	13.242	-29.0972	-176.522	-5.77562	14.2183	6.79073	5.6467	-14.0023	3.11837	0
0.5827	-4.76916	-26.9419	-213.154	-1.8299	16.0502	7.40189	5.33299	-29.2702	3.72193	0.321155
0.5833	-5.07358	2.03884	-164.321	1.54398	14.8249	3.7349	1.37548	-10.3354	-0.234716	0.321155
0.5840	19.0767	13.6311	-56.5789	1.8299	12.0831	0.0814887	-2.5941	55.2629	-4.49314	0
0.5847	35.515	-10.4855	5.06677	1.54398	10.5545	-0.84205	-2.5941	119.06	-5.13022	0
0.5853	23.9473	-46.4856	65.7807	1.54398	9.02594	-3.88429	-4.42807	165.432	-7.54445	0
0.5860	9.89348	-54.1167	142.073	4.91786	11.4644	-3.27313	-2.29246	166.665	-6.63911	0
0.5867	5.93609	-36.4079	131.707	5.4897	12.3864	-1.75201	1.97876	112.651	-4.79491	0
0.5873	2.58752	-27.8739	89.8915	3.08796	10.8578	-0.84205	3.81273	69.0056	-5.13022	0
0.5880	-1.36987	-12.903	76.7878	1.8299	10.8578	0.0814887	5.33299	-19.7947	-5.13022	0
0.5887	-3.80518	10.2816	38.9326	-0.91495	11.1611	1.60261	4.72971	-154.999	-3.88958	0
0.5893	-5.68241	-0.699032	-22.7131	-3.03077	14.2183	7.40189	8.38558	-192.528	2.51482	0
0.5900	-5.98682	-34.8934	-69.3915	-3.03077	17.2633	10.7565	13.2721	-122.646	7.41032	0
0.5907	-8.11772	-33.0584	-67.5861	-4.86067	16.96	10.7565	12.3552	-55.5063	7.41032	0
0.5913	-8.72655	-9.87383	-44.0867	-7.3196	15.7469	10.7565	9.91792	-49.7139	7.10854	-0.321155
0.5920	0.761037	-9.26218	-56.5789	-8.52047	14.2183	10.4577	9.61628	-35.0626	6.47146	-0.321155
0.5927	7.15374	-12.2913	-70.9348	-6.69057	16.3534	13.2012	14.1891	-0.876159	10.1599	0.321155
0.5933	0.152207	-4.9806	-54.7444	-6.06154	16.3534	11.9788	13.5738	-10.6437	10.7634	0.321155
0.5940	-2.89194	8.44664	-46.824	-4.86067	12.993	5.88077	7.16696	-20.7195	5.26435	0
0.5947	3.50077	27.0584	-52.0072	-0.91495	12.3864	2.51257	4.11437	-6.06821	1.91126	0
0.5953	4.41401	32.2429	-54.7444	0.343106	10.8578	-0.84205	0.144787	0.340728	-1.44183	0
0.5960	-2.89194	9.34956	-70.6145	1.8299	11.4644	-0.84205	-1.07384	1.55762	-2.68247	-0.321155
0.5967	-13.2928	-18.1166	-93.5023	3.37388	13.2963	0.991446	1.06177	-6.99305	0.0670617	0
0.5973	-22.7296	-28.1652	-68.1976	1.54398	11.7798	-1.45322	2.29246	-35.6791	-0.838272	0.321155
0.5980	-22.4252	-38.2429	8.4155	0	9.32923	-4.80783	7.16696	-68.3242	-2.98425	0
0.5987	-11.7707	-40.0778	62.4319	-0.285922	7.81277	-6.94012	9.61628	-64.3652	-3.88958	-0.321155
0.5993	3.19635	-11.0971	67.324	1.8299	9.02594	-5.419	7.48067	-28.3454	-2.68247	0
0.6000	16.9457	13.9515	54.4823	5.20378	11.4644	-2.67555	5.6467	1.86589	-0.536494	0
0.6007	18.7722	12.7282	43.5043	5.4897	10.8578	-4.80783	-2.29246	44.5868	-2.98425	0
0.6013	4.1096	9.34956	19.1023	4.28883	8.41935	-7.86366	-12.9705	83.3487	-7.54445	-0.321155
0.6020	-12.0751	3.26215	-12.9581	4.28883	5.36218	-10.2947	-19.3773	99.2169	-10.8975	-0.642309
0.6027	-18.7722	-4.68934	-16.9184	7.94863	7.81277	-9.07241	-22.4299	91.5911	-10.5958	0
0.6033	-19.3811	13.9515	-24.5476	10.6935	10.5545	-8.16245	-25.1809	38.1778	-9.9922	0
0.6040	-21.8164	31.9516	-41.0292	9.49261	7.19406	-11.8294	-28.8368	-19.7947	-13.6471	-0.321155
0.6047	-27.3466	-0.407769	-35.5256	9.1495	5.9809	-13.6494	-27.9198	-43.9053	-16.3966	0
0.6053	-29.4775	-27.8739	-48.9497	9.77853	6.89077	-13.3506	-26.3995	-44.2136	-16.3966	0
0.6060	-21.512	-3.14564	-62.9852	9.49261	7.49735	-12.1282	-22.7436	-27.4368	-13.6471	-0.963464
0.6067	-4.1096	22.4855	-29.4397	10.0645	7.81277	-10.9059	-13.2721	5.53278	-9.38864	-0.963464
0.6073	5.02284	14.8544	-3.17401	9.49261	5.67761	-12.7394	-11.7519	36.0523	-11.2328	-0.321155
0.6080	4.41401	-8.03887	-3.17401	8.86358	3.84573	-15.1841	-17.8571	65.9553	-14.5859	0.321155
0.6087	12.9376	-17.5049	13.5987	10.0645	2.92372	-17.9275	-20.2943	90.6662	-16.6984	0
0.6093	18.4678	-6.81556	24.8971	12.2375	4.7556	-17.0176	-14.5028	70.5308	-14.8877	-0.321155
0.6100	12.9376	8.15537	12.696	14.3533	7.81277	-13.6494	-2.5941	40.0113	-9.38864	-0.321155
0.6107	3.80518	13.3399	-4.10583	11.3225	5.9809	-13.9617	7.16696	27.8099	-8.78509	0
0.6113	-5.37799	15.4661	-10.5121	6.11873	3.53031	-12.1282	16.0231	5.2245	-6.94089	0
0.6120	-4.1096	17.301	-0.116477	3.37388	3.53031	-7.55129	20.2943	-10.6437	-3.28603	0
0.6127	6.84933	18.204	11.473	1.54398	5.67761	-2.06438	21.2113	-9.7351	0.0670617	-0.321155
0.6133	16.3369	20.0389	13.5987	3.08796	8.72265	2.82494	21.5129	-2.7096	4.96257	-0.321155
0.6140	14.4597	16.0777	11.473	2.74485	6.28419	-0.84205	4.11437	14.0672	2.81659	0
0.6147	8.98023	10.5729	15.4333	3.08796	3.84573	-3.88429	-14.1891	29.6434	-1.74361	0
0.6153	5.93609	10.2816	20.005	4.28883	4.7556	-2.36317	-19.691	30.2437	-2.07891	0.321155
0.6160	0.456622	8.44664	13.9191	2.45893	5.05889	-1.75201	-31.5877	20.1679	-1.14005	0
0.6167	2.28311	9.34956	16.336	2.45893	7.49735	2.21378	-37.0776	11.0169	4.05724	0
0.6173	13.5465	11.5049	27.6343	0	8.11606	4.34606	-30.9724	3.39106	7.41032	0
0.6180	15.0685	8.15537	25.7998	-3.31669	6.58748	4.04727	-25.1809	-3.01788	6.77324	0
0.6187	5.93609	2.6505	13.9191	-3.6598	5.9809	3.7349	-17.5554	-6.37649	7.10854	0
0.6193	-0.456622	0.524274	5.96947	-0.91495	6.58748	2.51257	-12.0535	-5.45166	5.8679	-0.321155
0.6200	-1.9787	3.55341	5.96947	4.00291	9.94794	3.43611	-7.78231	-3.92649	5.8679	-0.321155
0.6207	-2.58752	2.6505	4.13495	2.45893	9.32923	2.21378	1.37548	-5.45166	6.77324	0
0.6213	-3.50077	-1.01942	1.07742	-3.31669	6.58748	0.380281	16.6264	-5.75993	7.7121	0
0.6220	-3.19635	0.524274	3.84376	-5.77562	7.49735	2.82494	34.9419	-4.54305	10.1599	0
0.6227	-2.28311	4.16507	5.35796	-5.14659	8.72265	5.2696	58.132	-4.54305	13.5129	-0.321155
0.6233	-2.28311	6.61168	2.91194	-3.03077	10.8578	6.49193	83.7714	-6.37649	16.866	-0.321155
0.6240	-2.58752	6.93207	-0.436791	-2.11582	10.8578	5.2696	92.0122	-2.10927	15.0218	0
0.6247	-1.9787	5.70876	-3.17401	-3.03077	7.49735	3.43611	76.4476	17.7341	9.22099	-0.321155
0.6253	-3.50077	5.38837	-4.39703	-3.31669	6.28419	4.34606	46.2353	28.102	6.47146	-0.321155
0.6260	-5.07358	7.22333	-2.5625	-1.8299	8.11606	9.53418	12.3552	18.6427	8.61743	0
0.6267	-5.37799	7.83499	-1.6598	-0.571844	9.64465	11.9788	-10.5333	11.6334	11.0652	0
0.6273	-9.33538	5.09711	-5.62004	-3.6598	7.49735	9.84655	-20.2943	7.65828	11.0652	-0.321155
0.6280	-12.9884	4.48546	-6.55186	-6.97649	6.28419	8.62422	-25.1809	6.13311	10.7634	-0.321155
0.6287	-13.5972	6.61168	-5.32885	-8.52047	5.9809	5.2696	-23.3469	12.8503	10.1599	0
0.6293	-13.9016	7.22333	-7.74575	-8.23455	5.05889	0.991446	-12.9705	18.951	8.61743	0
0.6300	-11.1619	8.7379	-9.90059	-4.57475	4.45231	-1.75201	1.67712	25.3599	6.16968	0.321155
0.6307	-6.29124	10.5729	-6.55186	-0.91495	2.62043	-6.32896	14.4908	30.552	1.91126	0
0.6313	-5.07358	10.8933	-0.727984	1.25806	1.69843	-9.68357	26.0858	21.7093	-0.838272	0
0.6320	-8.11772	8.7379	3.23225	1.25806	1.09185	-11.8294	27.0028	9.8	-2.38069	0
0.6327	-6.59565	6.32042	6.28978	2.17301	0.788556	-12.7394	26.3995	3.39106	-3.28603	-0.963464
0.6333	-1.9787	5.70876	8.4155	4.91786	2.92372	-10.9059	48.9742	-3.32616	-1.44183	-0.963464
0.6340	-3.50077	3.55341	5.67828	4.00291	3.53031	-12.4406	70.3424	-8.20993	-1.44183	0.321155
0.6347	-7.81331	2.33011	2.91194	1.25806	0.788556	-18.2399	64.2372	-4.54305	-4.49314	0.321155
0.6353	-11.4663	3.26215	1.68892	1.25806	-1.04332	-20.671	49.2879	0.957285	-6.33733	0
0.6360	-13.9016	6.00003	-0.727984	4.00291	0.788556	-17.3164	41.6504	3.69934	-4.49314	0
0.6367	-15.1193	8.15537	-3.78552	5.83281	1.69843	-15.1841	32.8063	5.82483	-3.5878	0
0.6373	-12.9884	9.96121	-1.33949	5.83281	1.39514	-15.7952	16.3247	7.96656	-5.13022	0
0.6380	-5.07358	13.0195	5.06677	6.74776	2.31714	-15.4829	6.86532	15.5924	-3.5878	-0.321155
0.6387	0.456622	9.96121	2.62074	5.4897	1.09185	-17.3164	-1.67712	21.401	-5.73378	-0.321155
0.6393	-1.36987	7.54372	-0.436791	4.57475	2.01385	-14.8717	-38.9115	18.3507	-7.24267	0
0.6400	-2.58752	9.96121	2.62074	5.4897	5.67761	-9.38478	-83.1681	10.4166	-3.88958	0
0.6407	-5.98682	7.54372	-1.0483	3.08796	3.84573	-7.86366	-96.2834	0.957285	-4.49314	-0.321155
0.6413	-9.03097	4.77672	-5.32885	1.8299	2.62043	-5.71779	-87.1256	-0.876159	-5.13022	0
0.6420	-3.19635	5.09711	-0.436791	3.37388	3.22702	-5.10663	-77.9799	0.957285	-5.432	0
0.6427	6.54492	6.93207	8.4155	4.57475	3.53031	-6.03016	-81.6358	3.69934	-6.03556	0
0.6433	8.98023	10.8933	13.5987	5.20378	3.84573	-5.10663	-75.8322	10.4166	-4.19136	0
0.6440	4.41401	9.34956	9.63851	2.45893	0.181975	-9.07241	-40.4318	11.9417	-6.63911	0
0.6447	0.456622	8.15537	5.67828	0.343106	-2.26862	-13.3506	6.56368	8.89139	-8.18153	0
0.6453	-1.67428	9.96121	6.28978	0.629028	-1.95319	-13.9617	42.5674	7.05795	-7.24267	0
0.6460	-1.67428	10.5729	7.80399	1.54398	-1.34661	-12.4406	67.9051	8.58311	-6.63911	0
0.6467	-1.06545	12.1166	9.92971	1.8299	0.181975	-10.6071	85.6054	11.6334	-4.79491	0
0.6473	-0.152207	11.5049	9.63851	-0.285922	-0.436739	-12.1282	79.1865	11.9417	-5.432	-0.321155
0.6480	1.67428	9.34956	8.70669	-1.48679	-1.95319	-13.6494	50.5066	11.0169	-6.33733	-0.321155
0.6487	-1.67428	8.7379	8.70669	-2.11582	-3.17849	-13.6494	26.0858	9.8	-6.33733	0.321155
0.6493	-4.76916	9.05829	10.25	-2.11582	-3.78507	-14.5729	12.0535	6.44139	-6.94089	0
0.6500	-1.36987	9.66994	12.0845	-1.20087	-4.08836	-16.094	12.0535	4.00762	-6.94089	0
0.6507	1.67428	9.34956	10.5412	-1.20087	-5.31366	-19.1498	28.5351	4.60795	-6.94089	0
0.6513	4.71843	7.54372	7.80399	-0.285922	-5.31366	-20.9833	46.2353	5.53278	-7.84622	0
0.6520	9.89348	6.93207	6.28978	1.25806	-4.08836	-20.3722	45.62	7.05795	-8.48331	-0.321155
0.6527	15.3729	8.44664	5.96947	4.28883	-1.6499	-18.2399	21.8146	10.4166	-6.33733	0
0.6533	19.9899	9.05829	4.74646	6.11873	-0.121316	-16.7052	-4.72971	11.9417	-3.88958	0.321155
0.6540	20.9031	6.93207	1.39773	5.4897	-0.74003	-16.7052	-24.2639	11.0169	-4.79491	0
0.6547	21.2076	4.48546	-1.0483	5.4897	-1.34661	-17.9275	-41.0471	9.18344	-7.24267	-0.321155
0.6553	23.3385	2.33011	-2.5625	5.83281	-2.26862	-20.0598	-51.4235	8.58311	-9.9922	0
0.6560	28.2091	6.00003	0.46591	7.66271	-0.121316	-16.094	-55.0915	14.0672	-8.48331	0
0.6567	31.5577	11.5049	6.58098	9.1495	2.01385	-13.0518	-52.0389	20.7844	-6.03556	0.321155
0.6573	26.3826	12.1166	8.4155	6.11873	0.181975	-15.1841	-43.4844	22.9262	-6.94089	0.321155
0.6580	16.3369	14.8544	12.3757	3.6598	1.09185	-14.2605	-31.8894	26.8851	-4.79491	0
0.6587	-6.90007	16.369	15.4333	0.629028	0.181975	-15.7952	-31.2861	29.6434	-5.13022	0
0.6593	-36.479	15.4661	15.7245	-0.285922	-1.04332	-16.4064	-62.7169	30.2437	-6.33733	-0.321155
0.6600	-45.0026	16.9807	17.559	4.00291	2.31714	-11.8294	-104.524	32.3854	-3.88958	-0.321155
0.6607	-34.3481	13.0195	13.9191	4.00291	0.485265	-16.094	-123.443	30.2437	-6.03556	0
0.6613	-27.9554	9.05829	11.1527	2.45893	-1.34661	-19.761	-126.194	27.5017	-8.18153	0
0.6620	-34.6525	9.96121	14.2103	3.6598	1.39514	-14.2605	-117.338	25.6682	-4.79491	0
0.6627	-49.924	7.54372	14.2103	-0.571844	0.181975	-15.1841	-99.9513	17.7341	-4.19136	-0.321155
0.6633	-60.8829	3.55341	12.0845	-4.86067	-1.6499	-19.761	-68.2068	8.58311	-2.07891	-0.963464
0.6640	-53.2726	1.71845	9.63851	-5.14659	-2.26862	-20.3722	-22.7436	5.2245	0.0670617	-0.321155
0.6647	-42.8717	2.33011	8.70669	-5.4897	-3.78507	-18.8375	6.56368	5.53278	-2.38069	0.321155
0.6653	-30.3907	7.54372	14.8218	-5.4897	-3.78507	-17.6287	21.2113	8.27483	-3.28603	-0.963464
0.6660	48.3512	11.1845	18.782	-4.57475	-2.26862	-17.3164	57.5287	12.5421	-1.74361	-0.963464
0.6667	174.988	12.4078	19.1023	-1.48679	2.01385	-14.5729	128.016	20.4762	1.60948	0
0.6673	218.316	10.2816	16.9475	1.25806	3.22702	-16.094	179.596	24.4513	1.3077	0.321155
0.6680	126.789	3.8738	9.92971	2.17301	1.39514	-21.8933	178.064	20.7844	-2.38069	0
0.6687	-32.2172	-5.59226	-0.727984	1.8299	1.69843	-23.428	144.799	11.3252	-2.07891	0.321155
0.6693	-184.78	-16.8933	-12.0263	-0.285922	1.09185	-21.2821	88.9596	-2.10927	-1.14005	0.321155
0.6700	-315.729	-26.3302	-20.2671	0	0.485265	-16.4064	37.6929	-9.42682	-1.74361	0
0.6707	-378.59	-29.3885	-23.9361	2.45893	0.181975	-14.8717	-3.51109	-6.06821	-2.07891	-0.321155
0.6713	-384.374	-25.4273	-21.1989	3.08796	-1.6499	-19.1498	-56.3101	5.53278	-2.98425	0
0.6720	-389.854	-15.9612	-12.6378	4.00291	-2.57191	-19.1498	-74.6136	17.1175	-4.19136	0
0.6727	-386.81	-8.03887	-4.10583	2.45893	-3.48178	-15.1841	-51.7252	18.0424	-4.49314	0
0.6733	-360.275	1.42719	5.96947	0.343106	-3.17849	-9.68357	-48.9863	16.8255	-4.79491	-0.321155
0.6740	-240.944	15.7573	21.8395	0.629028	1.69843	-2.36317	-81.6358	24.143	-2.98425	0
0.6747	-23.9473	28.2817	34.3609	0.343106	7.49735	1.30382	-129.85	35.1275	-1.14005	0.321155
0.6753	175.597	34.3982	39.5441	-0.571844	11.1611	0.380281	-156.708	43.9864	-3.5878	0
0.6760	247.337	30.4079	35.8751	-0.91495	12.993	-3.27313	-137.174	48.854	-5.73378	-0.321155
0.6767	188.433	16.0777	20.9368	-2.74485	13.915	-4.19667	-94.7631	44.2785	-2.38069	0.321155
0.6773	88.6354	3.26215	7.19248	-2.40174	14.8249	0.0814887	-40.7455	30.552	2.81659	0.321155
0.6780	-64.5359	-5.27187	-0.116477	-2.40174	12.3864	0.0814887	30.9724	14.0672	2.21304	0
0.6787	-230.29	-12.0001	-2.88282	-3.03077	10.8578	-1.75201	87.4273	1.55762	0.0670617	0
0.6793	-245.51	-14.4467	-0.116477	-0.91495	13.2963	0.0814887	92.6155	-5.75993	0.670617	0
0.6800	-99.9495	-14.1263	2.91194	-1.20087	12.993	-3.27313	64.2372	-7.90166	-2.38069	0
0.6807	80.4162	-6.81556	10.8615	-0.285922	16.0502	-7.25249	51.4235	1.24934	-3.28603	0
0.6813	223.542	3.55341	20.005	3.6598	21.2304	-9.38478	61.4862	14.3755	-3.88958	0
0.6820	336.733	0.815537	14.8218	3.08796	23.3777	-12.1282	70.3424	15.9007	-9.69042	0
0.6827	369.407	-6.20391	4.74646	3.6598	31.615	-3.88429	83.7714	11.0169	-7.54445	0
0.6833	323.339	-8.65052	-1.33949	4.28883	40.7623	4.65844	87.741	8.58311	-1.44183	0
0.6840	322.73	-11.0971	-6.55186	0	43.5162	7.40189	59.966	3.08278	-1.44183	0
0.6847	396.551	-9.26218	-6.23155	-0.571844	46.2579	18.0769	30.9724	-10.6437	2.21304	0
0.6853	377.018	-6.81556	-2.5625	-1.48679	47.1799	25.0985	17.845	-30.4871	3.11837	0.321155
0.6860	165.855	-5.27187	3.84376	-4.86067	45.6513	23.5774	17.845	-46.3553	-0.838272	0.321155
0.6867	-42.2629	2.94176	18.782	-3.94572	48.6964	26.3209	28.5351	-49.7139	0.972395	0.321155
0.6873	-109.437	12.7282	36.1954	-1.8299	53.8887	32.4325	30.6707	-44.5219	4.66079	0.642309
0.6880	-86.8597	15.7573	44.7274	-3.03077	54.8107	33.0301	30.357	-40.5467	3.42015	0.321155
0.6887	-34.957	13.9515	45.0477	-4.57475	54.4953	29.9878	44.703	-30.7954	1.91126	0.321155
0.6893	-0.152207	9.05829	39.2238	-3.31669	54.192	26.932	53.8608	-13.694	2.51482	0.321155
0.6900	25.1649	2.03884	29.4688	-2.11582	53.8887	23.8762	44.4014	-3.63444	1.3077	0
0.6907	57.8388	-4.9806	20.3253	-2.11582	53.5854	22.6539	32.191	-4.54305	-0.838272	0
0.6913	105.429	-10.4855	13.9191	-1.8299	53.5854	23.8762	25.4825	-14.9272	-0.536494	0.321155
0.6920	157.585	-13.2234	8.70669	-2.11582	52.3601	22.3551	22.1283	-31.0874	-0.838272	0
0.6927	151.193	-14.4467	2.30043	-3.03077	49.0118	16.8682	20.8976	-41.4715	-3.5878	-0.963464
0.6933	71.8419	-16.2816	-3.78552	-1.48679	47.7865	15.3335	19.9927	-40.5467	-3.28603	-0.642309
0.6940	16.0325	-18.7282	-8.06607	-0.91495	46.5612	15.9446	19.679	-33.2291	-1.14005	0.321155
0.6947	22.7296	-18.1166	-9.58027	-3.03077	41.9876	12.8888	20.8976	-24.3864	-2.07891	0.321155
0.6953	-35.2614	-11.7088	-3.78552	-2.11582	39.8524	12.59	22.7316	-15.2192	-1.14005	0
0.6960	-159.767	-7.10683	1.39773	-0.571844	38.9304	13.2012	20.2943	-11.2603	-0.536494	0
0.6967	-179.3	-6.81556	2.00924	-0.91495	35.5821	10.7565	11.7519	-7.59338	-2.98425	0
0.6973	-139.929	-2.85438	7.80399	-0.91495	33.4469	10.1453	0.144787	-0.876159	-2.98425	0
0.6980	-150.939	3.26215	16.9475	-1.20087	32.2216	9.23539	-10.2196	-0.275828	-3.88958	0
0.6987	-125.571	8.15537	24.2856	-0.91495	31.615	8.62422	-11.1365	-3.01788	-5.13022	0
0.6993	-104.211	10.5729	27.6343	0.91495	32.8282	11.68	-7.78231	-3.01788	-2.38069	0
0.7000	-84.0692	8.44664	25.7998	0	31.615	11.3677	-11.4502	-6.99305	-0.838272	0
0.7007	109.995	6.00003	23.674	-0.571844	29.4799	9.23539	-9.91792	-13.402	-0.234716	-0.321155
0.7013	327.601	5.38837	22.1598	-0.571844	26.726	6.79073	1.97876	-13.694	0.670617	-0.321155
0.7020	349.265	5.09711	21.228	-2.40174	23.3777	4.34606	10.5212	-9.7351	-0.536494	0.321155
0.7027	222.933	11.5049	29.1776	-0.571844	23.3777	6.49193	10.8349	-5.1596	0.670617	0
0.7033	96.5502	16.0777	34.9724	1.54398	23.9842	5.88077	5.94834	-11.8606	1.91126	-0.963464
0.7040	100.254	9.34956	27.9546	0.91495	22.1524	2.82494	-2.5941	-25.6033	0.670617	-0.321155
0.7047	173.466	1.71845	18.782	1.8299	20.9271	3.7349	-10.2196	-28.3454	0.0670617	0.321155
0.7053	208.27	-5.88352	9.63851	0.91495	16.96	1.30382	-13.5859	-28.6536	-2.07891	0
0.7060	188.737	-11.0971	2.62074	-0.91495	14.2183	-0.529677	-10.5333	-30.7954	-2.68247	0
0.7067	107.56	-8.94179	3.52344	0.629028	16.0502	4.34606	-4.12643	-28.0371	1.60948	0.321155
0.7073	16.3369	-6.81556	4.13495	0.91495	14.8249	4.04727	-1.37548	-24.9868	2.21304	0.321155
0.7080	-34.3481	-7.10683	2.91194	-1.20087	10.2512	-1.14084	-4.72971	-25.6033	-2.38069	0
0.7087	-72.5014	-2.85438	6.90129	-0.571844	10.5545	-1.14084	-3.51109	-30.4871	-1.74361	0
0.7093	-94.7744	1.71845	10.5412	-0.285922	9.94794	-1.45322	-2.29246	-36.5877	-2.07891	0
0.7100	-84.3736	6.00003	13.5987	-0.285922	8.11606	-2.67555	-4.72971	-33.8457	-3.5878	0
0.7107	-67.022	12.1166	18.782	2.74485	9.94794	0.692654	-1.99082	-17.6692	0.670617	-0.321155
0.7113	-71.2838	12.7282	17.559	2.74485	8.41935	-1.45322	-4.12643	-2.40132	0.670617	0
0.7120	-104.211	9.66994	13.9191	0.343106	4.14902	-6.64133	-11.4502	4.91622	-4.49314	0
0.7127	-117.961	12.1166	15.7245	2.74485	5.9809	-4.49546	-9.91792	10.7086	-3.5878	0
0.7133	-108.524	11.7962	14.5306	4.57475	7.19406	-3.88429	-9.91792	9.8	-2.98425	0
0.7140	-118.874	5.38837	8.09519	3.08796	5.05889	-5.71779	-13.8875	0.649007	-5.13022	0
0.7147	-90.817	1.71845	3.84376	2.74485	5.05889	-5.10663	-11.4502	-5.75993	-3.5878	0
0.7153	6.84933	-2.24273	-1.0483	1.8299	2.62043	-7.55129	-10.2196	-8.81026	-4.79491	0.321155
0.7160	105.733	-7.71848	-7.16337	0.629028	0.181975	-9.68357	-12.3672	-14.6189	-6.94089	0.321155
0.7167	146.626	-10.4855	-9.58027	0.629028	-0.121316	-9.99595	-12.9705	-20.7195	-6.63911	0.321155
0.7173	124.353	-8.33013	-7.74575	1.8299	0.788556	-9.38478	-10.8349	-17.9775	-4.49314	0.321155
0.7180	62.1006	-4.68934	-6.23155	3.37388	2.01385	-6.94012	-7.48067	-11.5685	-0.234716	0
0.7187	12.0244	-5.88352	-8.06607	1.54398	0.485265	-8.46124	-8.08395	-11.2603	0.670617	0
0.7193	23.034	-8.03887	-9.90059	-0.91495	-2.26862	-10.2947	-10.2196	-11.5685	-1.14005	0
0.7200	28.5135	-7.71848	-9.90059	-1.20087	-2.8752	-9.07241	-9.91792	-8.51821	-0.536494	0.321155
0.7207	-12.0751	-6.81556	-8.96877	-1.8299	-4.08836	-9.38478	-9.00093	-5.75993	0.36884	0.321155
0.7213	-67.3264	-2.85438	-5.32885	-2.40174	-4.40378	-9.38478	-3.20945	-0.876159	1.60948	0
0.7220	-134.754	0.815537	-3.78552	-2.11582	-4.08836	-9.99595	3.51109	2.7745	3.72193	-0.642309
0.7227	-182.953	0.524274	-4.71734	-2.11582	-6.23566	-13.9617	2.5941	-3.32616	3.11837	-0.963464
0.7233	-178.996	2.33011	-0.727984	-1.20087	-5.31366	-13.6494	-0.760132	-8.20993	3.11837	-0.321155
0.7240	-145.713	4.48546	2.91194	-1.8299	-4.08836	-11.2183	-5.6467	-6.06821	3.72193	0.321155
0.7247	-59.0564	2.33011	1.68892	-3.6598	-6.53895	-12.4406	-12.9705	-5.1596	1.60948	0
0.7253	121.918	6.32042	5.67828	-2.40174	-5.92024	-10.6071	-11.4502	-2.7096	2.21304	0
0.7260	265.957	13.3399	12.3757	-0.571844	-4.08836	-8.46124	-6.86532	-0.584106	4.35901	0
0.7267	252.512	12.4078	12.696	-1.8299	-5.61695	-11.2183	-10.2196	-6.99305	2.21304	0
0.7273	146.018	11.1845	13.3076	-0.91495	-5.01037	-9.68357	-14.5028	-13.402	0.972395	-0.321155
0.7280	26.0782	11.1845	14.2103	-0.285922	-4.40378	-6.64133	-20.2943	-14.3106	0.972395	0
0.7287	-69.4573	12.1166	14.5306	0	-5.01037	-6.32896	-23.6486	-11.5685	0.670617	0
0.7293	-139.016	13.9515	15.7245	1.8299	-3.17849	-4.49546	-9.31464	-3.01788	3.72193	0
0.7300	-210.148	8.44664	9.92971	1.54398	-4.40378	-5.10663	13.2721	2.48245	3.72193	0
0.7307	-269.052	-0.087379	0.46591	-0.571844	-7.75211	-6.94012	22.1283	-6.37649	0.670617	0
0.7313	-260.173	-3.7573	-2.5625	-0.91495	-8.05541	-5.10663	15.1061	-21.0278	1.3077	0
0.7320	-221.411	-4.9806	-3.17401	-1.8299	-8.97741	-5.10663	8.38558	-25.9116	1.91126	0
0.7327	-227.195	-3.7573	-3.49432	-1.48679	-8.97741	-6.03016	11.7519	-21.9364	4.05724	0.321155
0.7333	-219.889	-1.92234	-3.49432	0.91495	-6.84224	-2.97434	15.7094	-13.0937	7.10854	0.321155
0.7340	-161.898	-4.36895	-5.94035	-0.571844	-7.75211	-2.67555	7.78231	-1.49272	5.56612	0
0.7347	-99.3407	-2.53399	-2.88282	-3.03077	-9.88728	-3.88429	-20.2943	8.27483	2.81659	-0.321155
0.7353	8.3714	5.70876	5.06677	-2.40174	-10.8093	-5.419	-68.5084	15.3003	1.60948	0
0.7360	151.497	11.5049	10.25	-1.8299	-11.1126	-7.25249	-112.765	21.0927	0.36884	0
0.7367	186.302	13.6311	12.696	-0.285922	-9.88728	-5.10663	-127.714	20.1679	1.91126	0
0.7373	95.9414	13.3399	12.696	0.343106	-10.506	-4.49546	-120.704	7.35	2.51482	0
0.7380	-53.8814	11.1845	10.25	-0.91495	-12.6412	-7.55129	-104.524	-8.51821	-0.234716	0
0.7387	-169.863	7.83499	6.28978	0.343106	-13.2477	-7.55129	-86.5223	-21.6281	-1.44183	0
0.7393	-137.19	1.13593	-0.727984	1.8299	-15.0796	-8.16245	-78.2815	-32.6126	-3.28603	0
0.7400	-23.034	-3.7573	-7.16337	3.37388	-16.0016	-8.77362	-71.2594	-33.8457	-3.88958	0
0.7407	42.8717	-4.9806	-10.5121	6.11873	-15.0796	-6.94012	-52.3405	-23.7699	-1.14005	0
0.7413	117.961	-6.81556	-14.4723	5.20378	-17.2148	-9.38478	-24.5655	-15.2192	-2.68247	0
0.7420	232.065	-8.33013	-17.2095	2.45893	-19.6532	-10.6071	15.7094	-13.0937	-5.73378	0.321155
0.7427	255.861	-8.03887	-17.5299	2.74485	-19.0467	-5.71779	63.6219	-11.8606	-3.88958	0
0.7433	192.999	-9.55344	-18.4326	0.91495	-19.35	-2.36317	97.2004	-11.8606	-3.5878	0
0.7440	149.975	-7.10683	-14.4723	0.343106	-18.4401	3.7349	109.399	-9.7351	-2.38069	0
0.7447	142.973	-1.31069	-8.67757	2.74485	-14.7763	9.23539	104.524	-3.92649	1.60948	-0.321155
0.7453	109.082	-3.7573	-10.5121	2.45893	-15.6862	5.2696	82.8544	-1.80099	-1.74361	-0.321155
0.7460	19.0767	-8.03887	-12.6378	1.8299	-16.6082	3.7349	59.6643	-3.32616	-6.33733	0
0.7467	-81.3295	-6.81556	-11.4148	2.74485	-13.8543	10.7565	49.5896	-4.23477	-5.13022	0
0.7473	-159.463	-6.20391	-11.7351	1.25806	-13.8543	11.9788	44.703	-4.23477	-5.73378	0
0.7480	-184.78	-4.07769	-8.67757	0.91495	-13.8543	11.3677	46.2353	-0.584106	-4.49314	0
0.7487	-168.341	1.13593	-3.49432	3.6598	-10.8093	15.0347	48.9742	4.00762	0.36884	0
0.7493	-130.492	2.33011	-2.88282	3.08796	-12.0346	14.1111	37.6929	4.91622	-1.44183	0
0.7500	-59.9697	6.32042	2.30043	1.54398	-12.9445	14.7223	22.1283	8.58311	-3.5878	0
0.7507	-52.6637	13.6311	10.8615	1.54398	-12.0346	17.7781	12.9705	10.7086	-1.74361	0
0.7513	-90.817	13.9515	13.9191	1.25806	-14.1698	15.3335	11.4382	3.08278	-2.07891	0
0.7520	-50.2284	17.301	21.8395	1.8299	-12.6412	15.6458	18.4604	1.24934	1.60948	-0.321155
0.7527	-0.152207	25.2234	31.0121	1.54398	-11.7192	16.5558	24.5655	5.2245	4.66079	-0.963464
0.7533	23.3385	24.3205	29.4688	-0.91495	-14.473	13.5	23.9502	1.55762	2.21304	-0.963464
0.7540	34.6018	16.369	22.1598	-3.6598	-13.2477	15.6458	21.5129	-6.37649	4.35901	0.321155
0.7547	30.0356	6.32042	11.473	-5.14659	-11.7192	17.167	21.2113	-13.402	6.47146	0.321155
0.7553	72.7551	-0.087379	3.23225	-5.4897	-12.3379	15.6458	25.7842	-12.4772	7.10854	-0.321155
0.7560	127.093	-0.087379	0.786223	-3.94572	-10.8093	17.167	34.6403	-2.10927	11.367	0
0.7567	121.614	-1.31069	-4.10583	-5.14659	-11.1126	16.5558	38.2962	6.13311	13.5129	0.321155
0.7573	25.4694	-6.20391	-10.8033	-9.43542	-13.2477	13.5	28.5351	6.13311	11.6687	0.321155
0.7580	-120.396	-11.3884	-14.4723	-12.8093	-14.1698	13.2012	14.8045	3.39106	9.52277	0
0.7587	-185.084	-13.5146	-14.1811	-14.2961	-14.1698	13.5	9.61628	0.649007	7.41032	0
0.7593	-159.158	-8.94179	-6.55186	-14.0102	-11.4159	15.3335	7.48067	-3.32616	7.7121	0
0.7600	-108.219	-0.699032	4.45526	-12.1803	-7.44882	18.6881	3.19738	-3.63444	10.1599	0
0.7607	-64.8403	1.42719	7.19248	-12.1803	-7.44882	18.3893	-1.07384	-3.63444	8.91921	0.321155
0.7613	-113.394	0.815537	6.90129	-12.4662	-8.05541	17.7781	-7.17903	-4.54305	6.77324	0
0.7620	-155.201	3.55341	10.8615	-11.5512	-8.97741	16.8682	-14.1891	2.17417	4.66079	0
0.7627	-27.0422	3.8738	12.696	-9.72134	-11.7192	13.5	-18.1587	7.65828	1.3077	0
0.7633	154.541	1.42719	10.5412	-5.77562	-11.1126	14.1111	-14.5028	8.89139	1.60948	0
0.7640	254.947	0.524274	7.5128	-4.23164	-10.8093	15.0347	-9.91792	11.3252	2.51482	0
0.7647	202.182	0.524274	7.19248	-5.4897	-12.0346	12.59	-8.69929	8.89139	1.3077	0.321155
0.7653	23.3385	2.94176	12.3757	-4.86067	-10.8093	12.59	-6.26204	4.00762	1.60948	0
0.7660	-70.9794	7.54372	19.7138	-4.23164	-9.58399	13.8123	-7.78231	4.91622	1.3077	-0.321155
0.7667	5.63167	13.3399	27.6343	-1.8299	-8.05541	15.3335	-8.08395	10.1083	1.60948	0
0.7673	94.1149	18.5244	33.7494	2.45893	-5.61695	15.6458	-2.89574	12.8503	2.51482	0
0.7680	128.311	16.369	31.0121	2.17301	-7.14553	13.2012	-1.37548	5.82483	1.60948	0
0.7687	161.289	8.44664	21.228	0	-9.58399	11.3677	-1.99082	-5.45166	0.972395	0
0.7693	156.368	-0.407769	11.473	-0.285922	-11.7192	10.4577	-2.89574	-16.7444	0.670617	0
0.7700	117.656	-8.65052	3.84376	0	-12.6412	9.53418	-4.42807	-29.2702	0.36884	-0.321155
0.7707	109.082	-12.0001	1.39773	1.25806	-9.88728	11.68	-0.760132	-35.3709	4.05724	0
0.7713	115.779	-12.903	-0.436791	2.74485	-9.58399	11.68	1.67712	-36.5877	5.8679	0
0.7720	105.429	-13.5146	-3.49432	4.28883	-11.4159	8.62422	-1.07384	-34.446	3.11837	0.321155
0.7727	81.3295	-10.7767	-3.17401	6.74776	-12.0346	6.17956	-2.5941	-25.295	-0.234716	-0.321155
0.7733	52.613	-8.03887	-1.6598	6.40465	-13.551	2.82494	-3.81273	-17.3609	-2.68247	-0.321155
0.7740	34.2974	-8.03887	-1.0483	5.4897	-13.2477	3.43611	-4.42807	-18.5778	-2.68247	0
0.7747	25.7738	-7.71848	-0.727984	4.57475	-9.88728	7.40189	-2.89574	-20.103	2.21304	0.321155
0.7753	10.8067	-8.33013	-2.27131	1.54398	-9.58399	7.08952	-3.20945	-14.9272	5.26435	0.321155
0.7760	-0.761037	-9.87383	-3.78552	-1.48679	-11.7192	4.34606	-4.72971	-7.90166	4.05724	0
0.7767	-6.59565	-8.33013	-1.33949	-2.11582	-12.3379	4.65844	-4.42807	-3.01788	3.11837	0
0.7773	-16.6413	-5.27187	1.07742	-2.74485	-12.3379	5.5684	-3.81273	0.957285	2.81659	0
0.7780	-26.1289	-0.699032	5.67828	-2.11582	-10.2027	6.79073	-2.89574	7.35	2.81659	-0.321155
0.7787	-23.6429	5.38837	12.0845	-0.91495	-8.05541	8.01306	-2.29246	13.7589	3.42015	0
0.7793	18.4678	6.93207	12.696	-2.11582	-8.05541	7.08952	-4.42807	13.4669	2.21304	0
0.7800	74.886	4.77672	9.3182	-3.31669	-7.14553	6.49193	-6.26204	8.27483	1.3077	0
0.7807	67.5801	1.42719	6.58098	-4.57475	-6.84224	5.88077	-7.78231	1.86589	0.670617	0
0.7813	24.5561	-2.85438	2.62074	-5.4897	-7.44882	4.95723	-9.31464	-2.7096	0.36884	0
0.7820	12.9376	-4.07769	0.174716	-4.57475	-5.31366	6.49193	-9.00093	-1.80099	2.81659	0.321155
0.7827	18.4678	-3.46603	-0.436791	-3.31669	-3.48178	6.79073	-8.39765	-2.7096	4.96257	-0.642309
0.7833	2.58752	-3.14564	1.39773	-2.40174	-2.8752	5.5684	-8.39765	-10.3354	5.8679	-0.963464
0.7840	-34.6525	-3.46603	3.23225	-3.03077	-1.04332	6.17956	-7.17903	-18.8861	7.41032	0
0.7847	-56.3167	-6.49517	-0.436791	-5.77562	-1.6499	4.65844	-7.78231	-25.6033	5.8679	0.321155
0.7853	-67.3264	-8.03887	-4.39703	-6.06154	-1.95319	3.43611	-7.78231	-23.7699	4.35901	0
0.7860	-113.09	-5.27187	-3.49432	-4.57475	-0.121316	4.04727	-5.6467	-12.1689	6.47146	0
0.7867	-166.16	-5.59226	-4.71734	-4.86067	-0.436739	2.51257	-7.78231	-1.49272	5.56612	0
0.7873	-192.745	-7.42722	-6.84305	-5.77562	-1.04332	1.9014	-12.3672	4.60795	3.72193	-0.321155
0.7880	-221.107	-8.03887	-8.35726	-7.3196	-0.74003	2.51257	-14.5028	6.44139	4.66079	-0.321155
0.7887	-243.38	-8.65052	-8.06607	-8.80639	-1.34661	0.380281	-17.8571	4.29967	4.66079	0
0.7893	-223.237	-7.10683	-5.32885	-6.69057	0.181975	0.380281	-16.0231	4.00762	4.96257	0
0.7900	-164.029	-4.07769	-3.78552	-3.31669	1.69843	0.692654	-11.1365	3.69934	5.56612	0
0.7907	-108.828	-3.14564	-3.78552	-3.31669	0.485265	-1.45322	-11.1365	-0.584106	3.11837	-0.321155
0.7913	-89.9038	-3.7573	-3.78552	-3.6598	-0.74003	-2.06438	-11.4502	-7.90166	1.60948	0
0.7920	-57.8388	-4.68934	-4.71734	-2.74485	-1.95319	-2.36317	-11.4502	-13.0937	0.36884	0.321155
0.7927	47.7424	-3.46603	-4.39703	-1.20087	-1.95319	-3.27313	-12.6689	-9.7351	-1.74361	0
0.7933	134.095	2.03884	1.07742	0.91495	0.788556	-2.06438	-10.2196	-0.275828	-1.44183	-0.321155
0.7940	124.658	5.09711	3.84376	0.91495	1.39514	-2.36317	-5.34506	4.91622	-1.44183	0
0.7947	92.5928	2.33011	0.46591	-0.91495	0.181975	-4.49546	2.5941	5.53278	-2.98425	0.321155
0.7953	68.1889	-0.407769	-1.6598	-1.20087	0.485265	-3.88429	9.00093	6.74967	-2.68247	0
0.7960	23.034	-2.24273	-3.17401	-1.8299	2.01385	-2.36317	10.8349	3.39106	-0.536494	0
0.7967	-34.0437	-4.68934	-5.32885	-2.11582	3.22702	-0.529677	13.5738	-2.10927	1.3077	0.321155
0.7973	-72.5014	-6.81556	-8.67757	-1.8299	3.53031	0.991446	14.4908	-3.01788	2.51482	0
0.7980	-81.025	-8.94179	-12.9581	-2.74485	2.01385	-0.230885	10.2196	-3.92649	0.670617	-0.321155
0.7987	-61.7962	-8.03887	-12.0263	-3.31669	0.788556	-1.45322	6.56368	-4.85132	0.36884	0
0.7993	-14.5104	-2.53399	-5.00853	-2.74485	2.01385	-1.14084	4.42807	-3.92649	1.3077	0.321155
0.8000	24.2517	2.94176	3.23225	-2.11582	4.14902	0.692654	2.89574	-3.32616	0.972395	0
0.8007	29.4268	6.61168	7.80399	-1.20087	7.19406	4.95723	4.72971	-1.49272	4.05724	0
0.8013	9.89348	6.61168	5.96947	-3.31669	9.32923	8.01306	8.08395	0.649007	8.01388	0.321155
0.8020	-34.6525	1.71845	1.07742	-6.06154	8.72265	7.70068	9.00093	1.24934	7.7121	0
0.8027	-70.6749	-2.24273	-2.27131	-6.06154	7.49735	6.49193	9.00093	3.69934	7.41032	-0.321155
0.8033	-67.022	-3.14564	-3.78552	-4.86067	5.67761	4.34606	8.08395	3.39106	6.47146	0
0.8040	-34.0437	-1.31069	-2.27131	-3.03077	4.7556	2.21378	7.16696	-0.584106	4.96257	0
0.8047	38.0011	1.13593	0.786223	-0.571844	4.7556	2.21378	7.48067	-4.23477	5.56612	0
0.8053	100.254	0.524274	-0.727984	-0.285922	3.53031	1.30382	5.33299	-7.59338	4.96257	0
0.8060	78.5897	-1.31069	-4.71734	-0.91495	2.92372	0.991446	2.89574	-7.2851	4.05724	0.321155
0.8067	15.6774	-2.53399	-8.06607	-1.20087	2.31714	0.380281	1.37548	-4.23477	4.05724	0.321155
0.8073	-39.2188	-4.68934	-10.5121	-1.20087	0.485265	-0.84205	-0.156853	-2.10927	2.21304	0
0.8080	-69.7617	-4.68934	-9.90059	0	0.485265	-0.84205	-0.156853	3.39106	0.972395	-0.321155
0.8087	-97.8186	-1.63107	-5.32885	0.91495	0.181975	-1.45322	-1.07384	7.05795	0.36884	-0.321155
0.8093	-135.972	-0.407769	0.46591	0.343106	-1.04332	-2.67555	-4.12643	0.340728	-2.07891	0
0.8100	-80.1118	-0.087379	3.84376	0	-1.6499	-2.36317	-4.42807	-4.23477	-2.38069	0
0.8107	48.3512	-0.407769	3.84376	-1.20087	-2.26862	-2.67555	-4.12643	-1.49272	-2.68247	0
0.8113	77.3721	0.524274	3.84376	-1.8299	-2.26862	-2.67555	-3.81273	3.39106	-2.38069	0
0.8120	6.84933	3.8738	5.67828	-1.20087	-1.34661	-0.529677	-0.760132	7.05795	0.36884	0
0.8127	-65.4492	2.33011	4.45526	0	-1.34661	-0.529677	2.29246	2.48245	1.91126	-0.642309
0.8133	-102.385	-1.31069	1.07742	0.343106	-1.34661	-0.230885	4.11437	-6.99305	2.51482	-0.321155
0.8140	-91.4259	-3.46603	-2.5625	-2.74485	-1.95319	-0.230885	2.5941	-9.7351	2.51482	0
0.8147	-54.4902	-4.07769	-4.71734	-5.4897	-2.8752	-2.36317	0.144787	-7.2851	0.972395	0
0.8153	0.456622	0.524274	-1.0483	-3.31669	-1.04332	0.0814887	2.29246	-1.18444	2.21304	0
0.8160	81.6339	4.77672	1.39773	-1.48679	1.39514	2.51257	4.11437	6.44139	4.96257	0
0.8167	116.997	2.94176	-2.88282	-2.40174	1.39514	1.30382	3.19738	7.05795	5.56612	0
0.8173	88.6354	-1.63107	-8.06607	-3.31669	1.09185	0.991446	2.89574	-0.584106	5.56612	0
0.8180	57.8388	-5.27187	-10.8033	-5.14659	-1.04332	-1.14084	0.458492	-6.68477	3.72193	0.321155
0.8187	34.9062	-7.10683	-11.4148	-6.06154	-1.95319	-1.75201	-2.29246	-6.99305	2.51482	0.321155
0.8193	16.9457	-4.9806	-9.58027	-5.14659	0.181975	1.60261	0.458492	-3.63444	5.8679	0
0.8200	-24.2517	-2.85438	-8.06607	-4.86067	1.09185	2.82494	2.29246	0.957285	7.41032	0
0.8207	-71.2838	-3.14564	-6.55186	-6.69057	0.788556	2.21378	1.06177	5.2245	6.77324	0.321155
0.8213	-83.4604	-3.46603	-3.49432	-9.43542	-0.436739	1.30382	0.458492	9.18344	7.10854	0
0.8220	-103.602	-2.24273	0.786223	-10.0645	-1.6499	0.380281	-0.458492	12.8503	6.47146	-0.321155
0.8227	-140.538	0.524274	4.74646	-6.97649	-0.74003	1.60261	-0.760132	15.9007	6.77324	-0.321155
0.8233	-174.734	0.815537	4.45526	-3.94572	0.485265	2.51257	-1.07384	15.9007	6.47146	0
0.8240	-196.094	-1.01942	2.30043	-3.94572	0.181975	1.60261	-2.5941	14.0672	4.66079	-0.321155
0.8247	-185.389	-0.407769	2.91194	-4.86067	-1.95319	0.692654	-2.5941	14.0672	3.42015	0
0.8253	-145.409	-0.087379	3.52344	-5.77562	-4.40378	-0.529677	-1.67712	15.5924	2.21304	0.321155
0.8260	-109.133	-2.24273	1.39773	-5.77562	-4.70707	-0.529677	-2.29246	10.4166	2.21304	0.321155
0.8267	-118.265	-2.85438	-0.436791	-3.94572	-4.70707	-0.529677	-3.20945	0.649007	2.51482	0.321155
0.8273	-93.2524	0.524274	2.62074	-1.8299	-5.61695	-2.06438	-5.6467	-4.54305	0.670617	-0.321155
0.8280	-4.41401	3.55341	5.67828	-0.571844	-7.44882	-3.27313	-8.39765	-9.11854	-2.07891	-0.321155
0.8287	54.1351	1.71845	4.13495	-0.285922	-9.2807	-5.10663	-9.91792	-16.7444	-3.88958	0
0.8293	127.398	-0.407769	1.68892	-0.91495	-9.58399	-6.64133	-8.69929	-19.5026	-3.5878	0.321155
0.8300	188.737	2.03884	3.23225	0.343106	-6.84224	-4.49546	-4.42807	-14.6189	-0.536494	0
0.8307	146.931	4.77672	5.67828	2.74485	-3.78507	-2.36317	-1.07384	-9.11854	2.21304	-0.321155
0.8313	108.169	4.16507	5.67828	2.74485	-3.78507	-2.97434	-0.760132	-5.45166	2.51482	0
0.8320	153.628	1.13593	4.13495	1.54398	-5.31366	-4.49546	-1.99082	-4.23477	1.3077	-0.321155
0.8327	240.335	-2.24273	1.07742	0	-6.23566	-4.80783	-3.20945	-8.51821	0.972395	-0.321155
0.8333	287.012	-4.07769	-1.33949	-0.571844	-5.61695	-2.97434	-2.29246	-13.0937	3.11837	0
0.8340	255.252	-3.46603	-1.0483	-0.571844	-4.40378	-0.529677	-0.458492	-11.8606	5.8679	0
0.8347	216.794	-3.7573	-1.33949	-1.8299	-3.17849	0.0814887	-1.07384	-8.81026	6.77324	0
0.8353	212.837	-5.59226	-3.78552	-3.94572	-3.17849	-0.230885	-1.07384	-9.42682	7.10854	0
0.8360	182.344	-8.94179	-7.45456	-5.14659	-4.08836	-0.529677	0.458492	-11.5685	6.47146	0
0.8367	101.167	-10.1651	-9.28908	-5.14659	-3.78507	-0.230885	1.37548	-7.90166	5.56612	0
0.8373	21.512	-6.49517	-6.23155	-3.94572	-2.57191	1.9014	1.97876	-1.49272	5.56612	0
0.8380	-6.90007	-1.31069	-1.33949	-3.03077	-2.8752	2.51257	1.67712	0.340728	5.8679	0
0.8387	49.5689	-0.699032	-0.727984	-3.31669	-5.01037	0.692654	0.144787	-2.10927	5.26435	0
0.8393	111.822	-2.24273	-2.5625	-3.31669	-6.84224	-1.45322	-2.5941	-5.1596	3.11837	-0.321155
0.8400	52.0042	-1.63107	-1.6598	-2.11582	-7.75211	-2.06438	-4.42807	-5.45166	1.91126	0
0.8407	-63.3183	2.03884	1.39773	-0.285922	-6.84224	-1.45322	-4.12643	-2.7096	1.3077	0
0.8413	-83.4604	7.83499	8.4155	0.91495	-6.53895	-0.84205	-3.51109	1.86589	0.0670617	0
0.8420	-12.3795	13.3399	15.1421	0.91495	-6.84224	-1.14084	-4.72971	5.82483	-1.14005	0.321155
0.8427	66.3624	13.3399	15.4333	0.343106	-7.44882	-2.97434	-5.94834	4.91622	-2.68247	-0.642309
0.8433	98.123	7.22333	9.63851	0	-8.05541	-4.49546	-7.78231	0.340728	-2.98425	-0.963464
0.8440	74.2772	2.33011	3.84376	0.629028	-6.53895	-1.75201	-6.86532	-1.18444	-0.234716	0
0.8447	30.34	-1.92234	-2.5625	1.25806	-6.23566	-0.230885	-4.72971	-2.7096	0.0670617	0.321155
0.8453	-38.3055	-6.81556	-9.58027	2.17301	-7.75211	-2.67555	-5.6467	-3.92649	-2.07891	0
0.8460	-130.492	-8.94179	-12.3466	2.74485	-8.05541	-3.88429	-6.86532	-1.49272	-1.44183	0
0.8467	-209.539	-8.33013	-11.1236	2.45893	-8.37083	-3.88429	-7.17903	0.957285	-0.838272	-0.321155
0.8473	-269.965	-4.9806	-6.84305	1.8299	-8.37083	-3.88429	-5.6467	4.29967	-0.234716	0
0.8480	-299.24	-2.24273	-4.10583	0.343106	-7.14553	-2.06438	-2.5941	10.4166	3.11837	0
0.8487	-241.249	-1.63107	-2.88282	-2.40174	-5.92024	0.692654	-0.760132	13.1586	6.77324	0
0.8493	-90.2082	1.13593	2.00924	-4.23164	-5.31366	1.60261	-0.156853	13.7589	9.82455	0
0.8500	43.4806	3.26215	4.74646	-5.77562	-7.44882	0.380281	0.144787	15.3003	10.7634	0
0.8507	107.255	1.71845	0.46591	-6.97649	-8.05541	0.692654	1.06177	13.4669	11.9705	-0.321155
0.8513	151.193	-0.699032	-3.78552	-8.23455	-5.61695	2.82494	2.29246	4.91622	15.0218	-0.321155
0.8520	191.477	-2.53399	-5.94035	-8.52047	-3.48178	4.95723	3.81273	-1.18444	17.7714	0
0.8527	230.848	-3.7573	-7.74575	-8.23455	-1.95319	6.49193	6.24998	0.340728	18.9785	0
0.8533	212.837	-4.9806	-8.35726	-10.3504	-3.17849	6.17956	6.24998	1.86589	17.1678	0
0.8540	91.6796	-4.36895	-5.94035	-11.8944	-3.48178	5.5684	5.33299	2.17417	15.9272	0
0.8547	-23.034	1.13593	-2.27131	-10.9794	-1.04332	7.70068	7.16696	3.08278	17.7714	0
0.8553	-85.9464	9.34956	5.67828	-10.3504	1.09185	9.84655	8.08395	7.35	18.3749	0
0.8560	-157.332	17.5923	16.336	-9.1495	3.53031	11.9788	8.38558	15.9007	18.0731	0
0.8567	-180.213	19.136	18.782	-9.43542	4.45231	12.59	9.61628	18.6427	17.7714	0
0.8573	-144.495	15.1748	15.4333	-11.5512	4.45231	11.9788	9.61628	14.9921	17.1678	0
0.8580	-104.516	12.1166	13.9191	-11.8944	3.53031	11.0689	7.48067	11.0169	16.5643	0
0.8587	-52.9682	10.2816	12.9872	-11.2653	2.31714	9.84655	4.11437	7.96656	14.4183	-0.321155
0.8593	-1.9787	9.66994	12.3757	-9.43542	1.39514	8.92301	2.5941	2.7745	12.5741	-0.321155
0.8600	65.1447	7.54372	9.92971	-6.69057	0.181975	8.31185	2.29246	-6.99305	11.9705	0
0.8607	135.617	1.71845	3.84376	-4.86067	-0.74003	6.49193	1.67712	-11.8606	11.0652	0.321155
0.8613	135.921	-4.68934	-2.88282	-5.4897	-1.34661	4.95723	1.37548	-11.5685	9.52277	0
0.8620	92.2884	-6.81556	-7.74575	-6.40465	-1.6499	4.95723	1.97876	-12.4772	10.1599	0
0.8627	62.7094	-5.88352	-9.28908	-6.06154	-1.95319	5.88077	2.29246	-13.694	11.6687	0
0.8633	44.0894	-3.7573	-6.55186	-4.23164	-1.95319	6.17956	2.5941	-14.3106	11.6687	0
0.8640	34.2974	-2.24273	-3.49432	-2.40174	-3.17849	4.34606	1.97876	-12.7854	9.82455	0
0.8647	33.3841	-2.53399	-3.49432	-2.11582	-6.84224	0.692654	-1.99082	-9.11854	6.16968	0
0.8653	25.7738	-0.699032	-2.88282	-1.20087	-8.05541	-0.230885	-4.12643	-5.75993	4.96257	0
0.8660	5.32726	-0.087379	-3.17401	-0.91495	-9.88728	-1.75201	-5.94834	-7.59338	3.42015	0
0.8667	-4.76916	-1.92234	-4.10583	-1.20087	-12.0346	-3.27313	-8.39765	-11.2603	1.3077	0
0.8673	11.72	-0.407769	-2.5625	1.25806	-11.1126	-1.45322	-5.34506	-10.952	2.81659	0
0.8680	25.4694	0.815537	-1.33949	3.08796	-10.8093	-2.36317	-2.29246	-7.59338	3.42015	0
0.8687	22.7296	1.42719	-0.436791	3.37388	-12.0346	-4.80783	-3.51109	-1.80099	1.91126	0.321155
0.8693	19.0767	2.33011	1.07742	2.74485	-13.8543	-6.64133	-5.34506	3.69934	0.36884	0
0.8700	12.3288	2.33011	2.30043	1.8299	-15.0796	-7.86366	-6.86532	5.53278	-1.44183	0
0.8707	4.41401	5.09711	4.74646	3.08796	-13.551	-5.71779	-6.56368	6.44139	-0.234716	0
0.8713	-3.80518	7.22333	5.96947	4.00291	-12.9445	-4.49546	-6.56368	7.65828	0.0670617	-0.321155
0.8720	-31.6084	6.61168	5.96947	3.08796	-13.551	-5.419	-7.48067	7.65828	-0.838272	0
0.8727	-67.022	7.83499	6.90129	2.74485	-12.6412	-4.49546	-6.56368	7.96656	-0.234716	0.321155
0.8733	-84.3736	6.61168	5.96947	1.8299	-12.3379	-5.10663	-8.08395	4.29967	-0.838272	-0.642309
0.8740	-81.3295	4.77672	2.91194	2.74485	-11.1126	-5.10663	-6.86532	0.0324503	0.0670617	-0.963464
0.8747	-62.1006	4.48546	-0.116477	4.28883	-7.75211	-1.75201	-0.760132	3.69934	4.35901	0.321155
0.8753	-34.957	2.03884	-3.78552	2.45893	-7.14553	-0.529677	0.144787	6.13311	5.8679	0.321155
0.8760	-7.5089	-1.31069	-6.84305	0.629028	-8.37083	-1.45322	-1.67712	-0.584106	4.96257	-0.321155
0.8767	1.36987	-1.92234	-6.84305	0	-8.97741	-2.06438	-1.99082	-7.90166	4.96257	0
0.8773	-19.0767	-0.087379	-5.00853	-0.571844	-8.97741	-2.67555	-2.5941	-7.90166	4.96257	0.321155
0.8780	-39.8276	0.815537	-4.10583	-0.91495	-8.67412	-1.75201	-2.29246	-5.45166	4.66079	0
0.8787	-35.2614	-0.699032	-4.71734	-1.48679	-6.84224	0.380281	0.458492	-4.85132	6.16968	-0.321155
0.8793	-18.7722	-1.31069	-5.32885	-3.03077	-6.23566	1.9014	2.29246	-2.40132	8.31566	0
0.8800	-12.6839	-1.63107	-5.94035	-4.86067	-6.53895	1.60261	1.06177	-0.275828	8.31566	-0.321155
0.8807	-14.206	-2.53399	-6.55186	-4.86067	-7.14553	0.991446	-1.67712	-0.584106	6.47146	-0.321155
0.8813	-7.81331	-1.31069	-6.23155	-3.6598	-7.14553	0.991446	-2.89574	0.0324503	5.26435	-0.321155
0.8820	0.456622	2.03884	-4.39703	-1.8299	-6.53895	1.60261	-3.20945	3.69934	5.8679	0
0.8827	-5.37799	2.33011	-4.10583	-0.571844	-7.44882	0.991446	-5.04342	3.69934	4.96257	0
0.8833	-9.33538	-1.31069	-7.16337	-1.20087	-9.2807	-1.14084	-6.86532	-3.01788	3.72193	0
0.8840	5.93609	-3.7573	-9.90059	-2.11582	-10.8093	-2.97434	-7.78231	-8.20993	3.11837	0
0.8847	9.89348	-1.01942	-7.74575	-1.48679	-11.1126	-4.19667	-8.69929	-6.68477	2.21304	0.321155
0.8853	-18.4678	4.48546	-1.951	0.629028	-9.58399	-3.27313	-7.48067	-4.85132	1.91126	0.321155
0.8860	-34.0437	6.93207	0.786223	2.17301	-9.58399	-2.97434	-5.04342	-6.06821	1.91126	0.321155
0.8867	-20.5987	5.38837	-2.88282	1.8299	-11.1126	-4.19667	-2.29246	-6.99305	0.972395	0.321155
0.8873	-30.9996	4.16507	-6.84305	1.54398	-11.1126	-4.80783	-0.760132	-2.40132	0.0670617	-0.321155
0.8880	-71.2838	2.94176	-9.58027	1.54398	-11.4159	-5.419	-1.07384	3.69934	0.0670617	-0.321155
0.8887	-96.9053	1.42719	-11.7351	1.8299	-11.1126	-4.80783	-0.458492	6.13311	2.21304	0
0.8893	-89.5994	0.815537	-13.5696	2.17301	-10.2027	-3.27313	0.144787	6.44139	4.05724	0
0.8900	-54.4902	-0.699032	-16.598	2.45893	-10.8093	-3.88429	-2.5941	5.2245	2.81659	0
0.8907	-27.0422	-1.63107	-17.5299	2.74485	-11.7192	-5.419	-5.34506	5.2245	0.0670617	0
0.8913	-50.2284	-0.699032	-15.6953	2.17301	-12.9445	-6.64133	-6.86532	7.65828	-1.44183	0
0.8920	-106.038	2.6505	-12.6378	1.25806	-12.3379	-6.03016	-6.26204	11.6334	-0.234716	0.321155
0.8927	-107.306	7.83499	-6.55186	2.17301	-9.58399	-2.97434	-1.67712	17.7341	2.81659	0
0.8933	-74.6323	13.0195	1.68892	2.17301	-8.67412	-2.67555	0.458492	22.9262	2.81659	0.321155
0.8940	-174.43	15.1748	9.63851	0.91495	-9.2807	-4.19667	-0.458492	23.8348	0.0670617	0.321155
0.8947	-368.494	14.5632	13.5987	0.629028	-9.88728	-5.10663	-0.760132	21.401	-2.07891	0
0.8953	-451.498	14.2428	14.5306	0.629028	-8.37083	-4.19667	-1.67712	18.951	-2.07891	0
0.8960	-400.559	14.8544	13.3076	0.91495	-5.31366	-0.230885	0.144787	17.7341	0.972395	0
0.8967	-298.022	10.8933	7.19248	-1.48679	-4.08836	1.30382	2.29246	11.0169	2.21304	0
