MR32 ASCII
Name	CORE30_slow
Frequency	1500
Date	03-09-2015 10:47:20
"Time,s"	"RT TIB.ANT.,uV"	"RT MED. GASTRO,uV"	"RT LAT. GASTRO,uV"	"RT BICEPS FEM.,uV"	"RT VMO,uV"	"RT VLO,uV"	"RT RECTUS FEM.,uV"	"RT SOLEUS,uV"	"RT SEMITEND.,uV"	"Channel 12,uV"
0.0000	-30.761	6.8515	9.87633	-3.56358	2.76344	6.01385	28.3389	11.4286	1.36639	-9874.06
0.0007	-67.3869	5.01843	8.34379	-4.4916	-0.278879	-0.697258	20.712	6.53517	-1.06013	-10147.7
0.0013	-91.8041	2.28383	5.58523	-3.26662	-1.81271	-1.00231	0.567883	1.052	-1.36639	-9545.2
0.0020	-132.38	-0.781312	1.94121	-2.63557	-3.6381	1.13304	-14.3864	1.6577	-0.753871	-9899.43
0.0027	-154.962	-3.2154	-1.73687	-3.26662	-6.38887	3.8785	-14.694	5.62662	-1.06013	-9821.1
0.0033	-147.661	-5.04848	-5.07439	-3.26662	-6.99733	8.75931	-13.4714	5.02093	-0.447611	-9796.04
0.0040	-179.1	-7.78307	-9.36548	-3.26662	-7.91002	9.36941	-13.1638	-2.31122	-1.06013	-9817.29
0.0047	-244.093	-10.8482	-12.3965	-2.96965	-10.3566	7.84416	-14.3864	-11.1576	-3.20395	-9816.66
0.0053	-288.938	-10.2472	-11.7835	-2.96965	-10.6608	9.36941	-19.8759	-13.8992	-3.51021	-9805.24
0.0060	-277.048	-5.64949	-9.05897	-4.4916	-10.0523	10.8947	-22.6286	-8.41603	-2.28517	-9798.58
0.0067	-246.527	-0.180303	-6.30041	-6.31051	-9.74809	11.1997	-19.8759	-1.08388	-0.753871	-9915.92
0.0073	-252.95	1.65278	-5.6874	-7.23853	-8.83539	13.3351	-18.3537	-0.781033	1.06013	-9621.62
0.0080	-214.489	0.751261	-5.6874	-7.53549	-5.7804	16.6906	-12.5565	-2.00837	3.81647	-9881.98
0.0087	-61.2826	1.05177	-5.38089	-9.05744	-3.94234	17.6058	10.0326	5.62662	4.73525	-10391.3
0.0093	91.6046	5.31893	-2.04338	-10.2824	-3.94234	16.3856	30.784	18.1391	4.12273	-5724.14
0.0100	113.588	11.4192	4.08676	-9.65137	-3.33387	14.8603	30.784	20.8807	3.81647	62.474
0.0107	40.9348	13.2523	7.73078	-9.05744	-2.72541	13.3351	28.0313	13.2616	1.97891	109.092
0.0113	-52.4253	13.2523	8.6503	-8.12942	-3.02964	13.9452	29.8691	7.15681	0.753871	-269.875
0.0120	-137.567	16.6179	11.4089	-5.71658	-2.11695	16.0805	26.8167	8.36821	1.97891	84.6728
0.0127	-202.879	18.451	12.3284	-4.15751	-1.20425	16.6906	23.7643	11.4286	3.51021	6.02541
0.0133	-186.72	12.9517	6.50475	-6.60748	-2.42118	14.2502	21.6269	12.0343	3.51021	-19.0276
0.0140	-93.6394	7.45251	1.02169	-8.46351	-3.94234	13.6401	21.3193	12.64	3.20395	2.21989
0.0147	-63.437	6.8515	1.3282	-6.31051	-3.02964	14.8603	21.9345	10.8069	3.81647	-2.85414
0.0153	-115.623	6.8515	1.6347	-3.86055	-2.11695	13.9452	18.2669	5.92947	3.51021	-3.48839
0.0160	-190.391	4.71792	0.408676	-3.86055	-0.900019	16.3856	19.1818	-2.91692	4.73525	-0.634253
0.0167	-208.065	4.71792	2.55422	-3.56358	0.938048	20.0462	26.2015	-12.6878	6.57281	0.317127
0.0173	-83.5853	6.551	6.19825	-1.41059	1.85074	20.0462	25.5942	-17.5653	6.26655	-0.317127
0.0180	176.147	2.88484	4.39326	-1.74467	-0.278879	16.6906	19.4894	-30.0777	3.20395	-0.317127
0.0187	413.857	-1.98333	1.02169	-1.74467	-1.20425	14.5553	18.5745	-42.5902	2.28517	-0.317127
0.0193	437.995	-0.180303	2.24772	2.22724	0.938048	15.4704	20.4044	-35.274	5.65403	-0.317127
0.0200	318.98	-0.480807	1.02169	3.15526	-0.278879	13.3351	17.9672	-24.5946	5.04151	0
0.0207	226.817	-5.64949	-4.76788	1.93027	-2.42118	10.2846	13.9999	-23.9729	1.97891	0
0.0213	172.796	-6.58105	-8.13945	3.74919	-0.278879	11.1997	12.7774	-21.837	2.89769	-0.317127
0.0220	133.098	-7.18206	-11.1705	4.08327	0.633816	10.5896	9.41739	-16.0351	2.28517	0
0.0227	109.598	-9.31564	-13.929	1.93027	-1.20425	8.45426	5.1425	-12.0821	-1.36639	0.317127
0.0233	89.4502	-9.31564	-14.2355	1.00226	-1.20425	8.75931	6.06531	-10.2491	-1.67265	0
0.0240	65.6713	-8.11362	-14.2355	0.705293	-0.278879	8.45426	6.36502	-5.35565	-1.36639	0
0.0247	50.1113	-6.58105	-13.929	0.111362	-0.900019	6.3189	4.53518	2.2634	-2.59143	0.317127
0.0253	41.254	-3.81641	-10.898	1.33634	-2.11695	6.3189	5.7577	6.23232	-4.12273	0
0.0260	37.2643	1.35227	-3.23535	4.97417	-0.595787	9.67446	-0.954359	9.89839	-2.28517	-0.317127
0.0267	29.6438	5.01843	1.3282	4.38024	-1.20425	9.06436	-26.8956	12.0343	-2.89769	0.317127
0.0273	0.0398975	1.98333	-1.12386	1.00226	-6.08463	4.4886	-47.9546	8.36821	-8.08056	0.317127
0.0280	-43.608	1.05177	-3.54185	1.63331	-5.7804	5.40375	-56.4965	8.67106	-8.08056	0
0.0287	-94.2379	5.61944	0.715182	2.85829	-3.33387	7.23405	-65.0463	12.0343	-4.73525	0
0.0293	-135.452	6.8515	4.08676	-0.222724	-5.17194	4.18355	-74.5031	13.2616	-5.04151	0
0.0300	-167.49	4.41742	1.94121	-1.41059	-5.47617	3.57345	-73.2806	16.3061	-3.81647	-0.317127
0.0307	-230.647	2.28383	-2.9629	-1.74467	-4.5508	6.3189	-57.1117	18.4419	0.164909	0
0.0313	-285.586	-0.480807	-9.05897	-4.78857	-6.99733	5.40375	-46.4323	15.0787	1.06013	0.317127
0.0320	-263.922	-2.61439	-11.1705	-7.83246	-8.83539	2.96335	-39.7124	9.59555	1.67265	0
0.0327	-199.527	-1.08182	-6.91343	-7.53549	-5.47617	5.7088	-17.1311	1.35485	8.69308	0
0.0333	-159.231	-0.480807	-3.84836	-8.46351	-3.6381	5.0987	24.979	-11.4605	13.287	0.317127
0.0340	-137.567	-3.5159	-4.46137	-12.1013	-6.38887	0.827994	62.8221	-25.806	10.2244	0.317127
0.0347	-100.342	-4.14696	-2.65639	-11.2104	-5.7804	2.96335	73.2017	-36.4854	9.3056	0
0.0353	-50.3107	-1.98333	0.102169	-8.46351	-2.72541	7.84416	69.2344	-38.0156	11.4494	0
0.0360	-19.47	-1.68283	0.715182	-11.8044	-3.33387	6.62395	71.0642	-29.472	10.2244	0
0.0367	17.4352	-1.68283	0.408676	-14.5513	-4.5508	2.35325	68.9268	-17.2624	6.87907	-1.58563
0.0373	113.269	-1.08182	0.408676	-11.5074	-2.11695	2.6583	57.9398	-8.71888	6.57281	-1.26851
0.0380	189.274	-1.68283	-0.510844	-10.8764	-1.50848	4.79365	51.2278	-5.35565	8.08056	0.634253
0.0387	183.449	-3.81641	-2.9629	-11.8044	-3.33387	4.18355	52.75	-5.6585	7.16178	0.317127
0.0393	125.478	-2.61439	-1.12386	-7.53549	0.0253526	8.45426	58.555	-4.14426	8.08056	0
0.0400	36.985	1.65278	4.97222	-4.78857	2.76344	10.8947	58.555	-1.38673	8.99934	0
0.0407	-6.98206	3.48585	8.6503	-7.53549	0.329584	5.40375	47.2605	2.88504	5.04151	0
0.0413	38.8203	5.01843	10.1828	-6.90444	0.938048	2.6583	33.5288	10.2012	3.20395	0.317127
0.0420	80.9121	5.94999	10.4893	-3.56358	4.29727	4.4886	25.9018	13.2616	4.73525	0.317127
0.0427	73.2917	2.58434	7.11777	-2.96965	3.3719	2.96335	21.9345	6.83802	3.20395	0
0.0433	71.4564	0.751261	5.89174	-3.56358	2.45921	1.13304	18.2669	0.127516	1.97891	0.634253
0.0440	63.5168	2.58434	10.1828	-3.26662	4.29727	2.0482	13.3847	-5.0528	4.12273	-0.317127
0.0447	33.9129	1.35227	10.7958	-3.86055	5.20997	0.522944	4.84278	-16.0351	4.42899	-2.53701
0.0453	18.9912	-1.68283	7.42427	-3.26662	5.5142	1.13304	-1.56957	-22.4587	4.12273	-1.58563
0.0460	-1.15703	-2.31389	5.89174	-1.41059	6.42689	6.01385	-0.954359	-18.171	6.87907	0.634253
0.0467	-31.9978	-2.91489	3.47374	-1.41059	6.42689	6.62395	0.26028	-11.4605	8.08056	0.634253
0.0473	-43.2888	-6.88155	-1.12386	-2.3386	3.68881	1.74315	-2.17688	-5.97729	4.42899	0.317127
0.0480	-46.9594	-8.41413	-1.73687	-0.222724	3.06767	1.4381	-2.48449	-1.70552	2.28517	0.317127
0.0487	-45.1241	-5.94999	1.02169	4.97417	4.90574	3.57345	-0.34704	1.96055	4.42899	0.317127
0.0493	-42.9696	-5.94999	-0.510844	7.7211	4.29727	1.13304	-1.26196	2.2634	3.81647	0.634253
0.0500	-39.299	-8.11362	-3.84836	8.64911	3.3719	-2.54209	-1.86928	-0.781033	1.06013	0.317127
0.0507	3.71047	-9.9467	-5.6874	9.54001	2.15497	-3.76229	-1.26196	-2.31122	0.164909	0
0.0513	86.0988	-9.9467	-5.38089	9.24304	0.633816	-5.28754	-2.17688	-0.781033	-0.141351	0.317127
0.0520	144.708	-9.9467	-4.46137	6.8302	-0.900019	-7.42289	-5.22926	0.749154	-1.67265	0.634253
0.0527	152.049	-8.11362	-2.34988	7.7211	0.329584	-4.98249	-3.70701	5.62662	1.67265	0.634253
0.0533	181.933	-4.74797	-2.34988	8.64911	1.24228	-2.23704	0.567883	12.9428	4.73525	0.317127
0.0540	180.097	-7.48256	-7.83295	4.6772	-2.42118	-5.89764	-4.00673	15.7004	1.97891	0.317127
0.0547	48.276	-10.8482	-9.97849	1.93027	-4.24657	-7.42289	-9.19655	16.0032	1.06013	0.95138
0.0553	-88.1336	-6.88155	-3.23535	3.15526	-1.81271	-4.98249	-7.3667	16.3061	3.20395	0.634253
0.0560	-118.655	0.450757	5.27873	3.15526	-0.900019	-5.59259	-7.67431	15.3975	1.67265	0
0.0567	-61.6017	5.94999	12.6008	2.22724	-1.81271	-8.033	-11.0264	11.7314	-1.67265	0.317127
0.0573	-11.8496	11.1187	19.0375	2.85829	-0.278879	-6.20269	-9.50415	8.36821	-1.67265	0.634253
0.0580	-38.1021	15.7164	21.149	2.85829	1.24228	-4.67744	-6.45178	7.45966	-0.753871	0.317127
0.0587	-94.2379	19.9836	22.988	0.111362	0.633816	-5.89764	-9.19655	8.98985	-1.97891	0.317127
0.0593	-134.854	20.5846	24.5205	-0.519689	0.938048	-3.76229	-12.2489	9.89839	-1.36639	0.317127
0.0600	-103.694	12.9517	18.1179	0.408327	1.24228	-1.30736	-12.8562	6.53517	0.164909	0.317127
0.0607	11.6501	3.18535	8.34379	-2.04164	-1.50848	-3.45724	-15.6089	4.39929	-2.28517	0
0.0613	121.807	0.150252	6.19825	-3.26662	-2.11695	-2.54209	-14.694	3.79359	-2.59143	0
0.0620	126.714	-2.31389	6.19825	-1.74467	-0.595787	0.522944	-10.1115	-8.41603	1.67265	0.317127
0.0627	30.5615	-8.11362	2.55422	-2.3386	-1.50848	-0.392208	-8.58923	-22.1399	2.59143	0.634253
0.0633	-16.7171	-9.9467	1.02169	-4.78857	-1.81271	-1.61241	-10.1115	-18.171	1.36639	0.634253
0.0640	6.14421	-8.41413	2.86073	-4.78857	0.633816	-0.392208	-13.4714	-9.02173	1.36639	0.634253
0.0647	-10.0143	-7.48256	3.78025	-4.78857	2.15497	-0.0871573	-18.0461	-8.11318	1.97891	0.634253
0.0653	-22.5421	-5.94999	4.08676	-5.3825	1.24228	-1.30736	-23.2359	-8.41603	1.97891	0.317127
0.0660	-14.004	-2.31389	7.42427	-2.63557	2.76344	0.827994	-21.0984	-6.88584	4.73525	0.634253
0.0667	-68.3045	-0.781312	8.03729	-0.519689	5.5142	3.2684	-14.0788	-7.18869	7.7743	0.634253
0.0673	-157.116	-4.14696	3.16724	-3.56358	5.5142	1.13304	-12.2489	-6.28014	4.42899	0.317127
0.0680	-209.302	-4.14696	1.3282	-2.63557	6.12266	0.827994	-11.0264	-2.61407	1.36639	0.317127
0.0687	-206.549	-0.480807	2.86073	1.93027	8.56919	3.57345	-6.75939	-3.84141	2.59143	0
0.0693	-113.468	0.450757	0.715182	3.15526	7.96073	1.13304	-5.22926	-12.0821	1.67265	0
0.0700	15.9191	0.751261	-3.23535	2.5242	7.64382	-1.61241	-5.53686	-12.3849	0.164909	0.634253
0.0707	51.6274	3.18535	-5.07439	2.22724	9.48189	-0.0871573	-2.79209	-0.781033	1.97891	0.317127
0.0713	31.4791	2.58434	-7.83295	-1.11362	9.17766	-0.697258	-0.954359	5.62662	2.89769	0
0.0720	-0.558565	1.35227	-9.36548	-3.56358	8.56919	-2.54209	2.39773	4.39929	3.20395	0.317127
0.0727	-78.3587	2.58434	-5.99391	-1.74467	11.3073	-0.697258	11.2472	3.49074	4.12273	0
0.0733	-128.749	5.01843	0.102169	-0.222724	12.5369	0.522944	15.2145	2.56625	2.59143	0.317127
0.0740	-68.903	7.45251	6.19825	-0.519689	11.3073	-1.00231	10.0326	2.88504	-0.447611	0.634253
0.0747	-2.39385	8.08357	9.56982	-1.11362	11.6115	-2.54209	7.58755	3.49074	-1.97891	-1.90276
0.0753	-42.3711	9.28559	11.1024	1.00226	13.7538	-1.61241	12.4698	3.49074	-1.67265	-2.53701
0.0760	-103.414	8.68458	11.7154	3.15526	14.058	-0.697258	15.2145	5.02093	-1.67265	0
0.0767	-79.5955	4.11691	8.95681	3.15526	12.8411	-1.61241	12.7774	6.23232	-3.51021	0.95138
0.0773	-17.9539	-0.480807	4.39326	3.15526	12.5369	-1.00231	9.10979	4.39929	-4.42899	0.317127
0.0780	6.78257	-4.74797	-1.43036	1.93027	13.4496	1.4381	6.98023	-1.08388	-3.81647	0.317127
0.0787	51.6274	-8.11362	-7.21993	-0.816655	14.058	2.6583	5.7577	-7.81033	-2.89769	0.317127
0.0793	139.841	-9.01514	-7.83295	-2.63557	14.9707	2.96335	3.92786	-11.7633	-0.753871	0.317127
0.0800	163.939	-9.31564	-8.13945	-2.63557	14.6665	2.0482	1.1752	-11.1576	0.753871	0.317127
0.0807	100.741	-9.61615	-9.05897	-2.3386	12.5369	-0.0871573	-3.39941	-10.5519	-0.753871	0.317127
0.0813	35.1497	-6.58105	-4.76788	-0.222724	12.8411	0.522944	-4.92165	-10.5519	-1.36639	0
0.0820	-10.0143	-4.44747	-1.12386	2.85829	15.275	2.0482	-3.70701	-9.62742	-1.06013	0.317127
0.0827	-48.1563	-6.28055	-1.12386	3.45222	16.2003	0.827994	-3.39941	-12.6878	-2.28517	0.317127
0.0833	-47.877	-5.04848	0.102169	3.74919	16.5046	0.217893	-3.39941	-18.7926	-2.28517	0.317127
0.0840	-18.8715	-2.91489	-0.510844	2.5242	16.2003	-0.0871573	-6.14418	-21.2313	-2.59143	0.317127
0.0847	-28.008	-2.61439	-3.84836	1.00226	14.9707	-0.697258	-10.4191	-18.171	-3.51021	0.317127
0.0853	-69.8206	-1.98333	-6.60692	1.33634	14.3623	-0.392208	-10.1115	-11.4605	-3.20395	0.317127
0.0860	-46.6402	-2.31389	-9.05897	1.93027	14.9707	1.13304	-6.75939	-4.14426	-1.06013	0.317127
0.0867	51.0289	-5.34898	-13.6225	0.111362	13.7538	0.522944	-8.58923	-2.31122	-0.753871	0.317127
0.0873	62.9183	-9.01514	-17.9136	-2.04164	11.6115	-0.392208	-11.334	-6.88584	-1.06013	0.317127
0.0880	-40.5359	-9.61615	-16.0746	-1.41059	12.8411	0.827994	-7.97402	-9.62742	0.753871	0.317127
0.0887	-72.2943	-6.58105	-11.477	-1.11362	14.058	1.4381	-3.09181	-8.41603	1.97891	0.317127
0.0893	-24.9758	-4.44747	-8.44596	-1.41059	14.058	2.0482	-2.79209	-7.18869	1.06013	0
0.0900	-32.2771	-5.34898	-8.13945	-1.41059	14.9707	3.57345	-6.75939	-5.35565	1.97891	0
0.0907	-86.2983	-8.41413	-10.285	-2.04164	14.6665	2.6583	-12.2489	-1.38673	2.28517	0.317127
0.0913	-117.139	-8.41413	-8.75247	-2.3386	14.058	0.827994	-13.7712	1.96055	1.06013	0.317127
0.0920	-9.09663	-5.04848	-4.15487	-0.816655	14.6665	1.74315	-11.0264	4.09644	1.06013	0.317127
0.0927	192.306	-2.91489	-3.84836	-0.519689	14.3623	2.0482	-9.80387	5.92947	1.06013	0.317127
0.0933	238.108	-3.5159	-5.38089	-1.11362	13.1453	1.13304	-10.4191	4.09644	1.36639	0.317127
0.0940	143.791	-5.64949	-6.30041	-2.04164	12.8411	0.522944	-7.67431	-1.38673	1.06013	0.317127
0.0947	59.8861	-5.64949	-4.76788	-1.74467	12.8411	-0.392208	-1.26196	-5.6585	-0.141351	0.317127
0.0953	-17.3554	-1.08182	1.94121	0.111362	12.5369	-0.697258	5.1425	-6.58299	-0.753871	0
0.0960	-84.7822	5.31893	9.56982	2.22724	12.2326	0.217893	7.89515	-2.91692	-0.447611	0
0.0967	-129.348	8.08357	13.2138	3.15526	11.3073	-1.61241	6.98023	-1.08388	-0.447611	0
0.0973	-153.446	7.45251	12.9073	3.45222	9.48189	-4.67744	5.7577	-2.61407	-1.97891	0.317127
0.0980	-124.161	5.94999	8.95681	4.08327	8.26496	-6.50774	7.89515	-1.08388	-2.59143	0
0.0987	-65.8708	1.05177	1.02169	3.74919	6.73113	-8.6431	9.41739	-0.781033	-2.89769	0
0.0993	-15.5201	-3.5159	-4.15487	3.15526	7.03536	-7.72795	9.725	-3.52262	-2.28517	0
0.1000	35.1497	-3.81641	-5.07439	3.15526	8.56919	-5.59259	11.8624	-6.58299	-0.447611	0
0.1007	71.4564	-4.14696	-5.99391	2.22724	8.87342	-5.28754	12.1622	-9.94621	0.164909	0.317127
0.1013	99.8634	-3.5159	-5.07439	1.63331	8.26496	-4.67744	10.3323	-11.1576	-0.141351	0.317127
0.1020	89.7694	-1.98333	-2.34988	1.33634	8.26496	-2.84714	11.2472	-8.41603	1.06013	0.317127
0.1027	34.5512	-2.91489	-2.04338	0.408327	8.26496	-1.93199	11.2472	-11.7633	1.06013	0.317127
0.1033	52.545	-4.44747	-3.23535	-0.816655	7.96073	-1.00231	3.92786	-19.3983	0.753871	0.317127
0.1040	107.484	-2.61439	-2.04338	-0.816655	8.87342	0.827994	-4.00673	-14.8237	2.28517	0
0.1047	34.5512	0.150252	0.102169	-0.816655	10.3946	2.0482	-5.83658	-3.52262	3.81647	-0.317127
0.1053	-96.0732	-0.180303	-1.12386	-2.3386	9.17766	0.827994	-5.53686	0.749154	3.51021	0.634253
0.1060	-120.81	-3.2154	-4.46137	-3.86055	7.64382	-1.00231	-5.22926	-2.00837	2.59143	-0.317127
0.1067	-67.3869	-3.2154	-2.65639	-4.4916	8.26496	-1.30736	-3.39941	-5.0528	3.20395	-2.85414
0.1073	-45.4033	-0.781312	1.3282	-5.08553	8.26496	-1.00231	-1.86928	-4.4471	3.81647	-1.58563
0.1080	-50.9092	0.751261	1.3282	-3.86055	6.73113	0.522944	-1.26196	-1.38673	5.04151	0.634253
0.1087	-17.0362	2.58434	1.6347	-2.3386	7.33959	2.6583	-0.34704	3.49074	6.87907	0
0.1093	28.7262	0.150252	0.102169	-4.78857	5.5142	1.13304	-2.48449	7.15681	5.65403	-0.317127
0.1100	19.869	-5.34898	-5.38089	-6.90444	2.45921	-1.30736	-5.83658	4.70214	2.89769	0
0.1107	-14.2833	-6.58105	-6.91343	-4.78857	3.06767	-0.0871573	-5.53686	0.430365	4.12273	0.317127
0.1113	-26.2127	-6.58105	-4.76788	-3.56358	2.15497	-1.30736	-7.3667	-2.00837	3.81647	0
0.1120	13.4854	-7.48256	-3.84836	-4.15751	0.329584	-4.37239	-12.2489	-2.31122	1.06013	0
0.1127	109.319	-3.81641	1.02169	-2.63557	2.45921	-2.23704	-13.1638	1.96055	2.89769	0
0.1133	159.949	1.65278	7.73078	-0.816655	3.3719	-0.697258	-13.4714	8.36821	4.73525	0.317127
0.1140	115.104	3.78636	9.26331	-1.11362	1.54651	-3.15219	-17.1311	11.1257	1.06013	0
0.1147	57.4125	7.78307	11.7154	0.111362	0.938048	-2.54209	-18.0461	12.0343	-0.141351	0.317127
0.1153	10.134	11.4192	15.3594	1.63331	1.85074	0.217893	-18.3537	11.4286	1.67265	0.634253
0.1160	-39.299	8.68458	13.2138	1.33634	0.329584	-1.30736	-22.9283	5.92947	0.164909	0.634253
0.1167	-45.7225	3.78636	8.34379	1.93027	-0.278879	-3.45724	-23.5435	1.052	-1.06013	0.317127
0.1173	-27.4096	0.450757	3.78025	2.85829	0.329584	-3.76229	-19.5762	-0.781033	0.164909	0.317127
0.1180	-29.8433	-3.2154	-0.817351	1.93027	-0.900019	-5.59259	-15.9086	-3.84141	0.753871	0.317127
0.1187	-27.7288	-6.28055	-5.07439	1.33634	-2.11695	-5.59259	-10.4191	-8.11318	-0.447611	0
0.1193	-38.3814	-5.04848	-5.07439	3.15526	-2.11695	-3.15219	-6.14418	-9.32457	0.471169	0.317127
0.1200	-115.623	-1.38232	-2.34988	1.93027	-1.50848	-4.06734	-12.5565	-5.35565	1.97891	0.317127
0.1207	-178.461	1.65278	0.102169	-1.11362	-1.81271	-4.37239	-22.0134	1.35485	1.06013	0.317127
0.1213	-93.9586	2.28383	0.408676	-1.74467	-1.20425	-1.61241	-19.8759	4.09644	1.67265	0
0.1220	46.7599	-0.180303	-3.54185	-2.96965	-0.900019	-0.392208	-14.694	2.88504	3.51021	0
0.1227	78.1592	-3.81641	-9.05897	-5.3825	-1.20425	1.13304	-14.0788	4.39929	3.51021	0
0.1233	39.0995	-4.74797	-10.898	-5.71658	-0.278879	4.4886	-14.694	7.15681	3.81647	0
0.1240	-2.99231	-5.04848	-12.09	-5.08553	0.633816	5.40375	-14.9937	5.92947	5.04151	0.317127
0.1247	-21.3053	-7.18206	-15.7681	-5.71658	0.0253526	3.8785	-11.6416	1.35485	5.96029	0.317127
0.1253	24.7763	-7.18206	-18.2201	-5.71658	-0.278879	4.18355	-7.67431	1.6577	6.87907	0
0.1260	89.4502	-5.34898	-16.6876	-4.78857	0.633816	4.79365	-4.00673	6.83802	6.87907	0
0.1267	119.972	-3.81641	-12.09	-5.71658	0.938048	4.18355	18.2669	9.89839	6.26655	0.317127
0.1273	112.351	0.150252	-4.46137	-7.53549	0.938048	4.18355	46.038	13.8673	6.87907	0.317127
0.1280	35.7482	5.94999	3.16724	-8.12942	1.54651	6.929	53.0576	18.4419	7.7743	0.317127
0.1287	-43.8872	12.3507	13.8269	-8.46351	3.3719	9.97951	51.5354	20.8807	8.99934	0
0.1293	-17.0362	22.4176	31.5361	-8.76048	4.90574	9.97951	42.3783	23.941	9.91812	0
0.1300	63.5168	31.2525	45.2608	-9.98546	5.5142	8.14921	24.3716	25.7741	10.2244	0.317127
0.1307	58.9685	28.8184	42.5363	-11.8044	5.5142	8.45426	15.2145	16.9118	10.5306	0.317127
0.1313	-16.7171	15.3858	25.1335	-11.5074	4.90574	10.2846	12.7774	1.052	10.8369	0
0.1320	-48.7946	1.65278	6.19825	-12.1013	3.68881	9.36941	7.89515	-6.28014	10.2244	0.317127
0.1327	-62.7987	-5.04848	-6.30041	-12.7324	4.90574	9.97951	5.7577	-5.35565	11.7557	0.317127
0.1333	-57.9312	-8.71463	-13.0095	-10.5794	5.81843	12.4199	4.22757	-11.4605	14.1822	0.634253
0.1340	-32.2771	-13.9134	-19.7186	-12.1013	2.76344	9.06436	-0.654643	-26.4117	12.3682	-0.317127
0.1347	-102.497	-15.7164	-22.4772	-13.9574	0.938048	3.8785	-4.00673	-32.5165	9.61186	-2.85414
0.1353	-176.626	-9.31564	-15.4616	-11.8044	3.3719	4.4886	-3.70701	-22.1399	11.7557	-1.26851
0.1360	-157.116	-2.91489	-7.83295	-12.7324	1.85074	4.4886	-4.92165	-13.2935	12.6745	0.634253
0.1367	-94.5571	0.450757	-2.65639	-14.5513	-0.278879	2.6583	-4.92165	-10.5519	11.1432	0.317127
0.1373	75.4462	5.01843	1.94121	-12.3983	0.938048	4.18355	-0.34704	1.052	12.0619	0
0.1380	249.679	7.45251	0.715182	-11.8044	1.24228	6.01385	2.70533	13.5645	13.287	0.95138
0.1387	244.173	3.48585	-6.30041	-12.3983	0.633816	5.7088	3.31265	8.67106	12.3682	0.317127
0.1393	163.021	-2.61439	-11.477	-10.8764	1.24228	4.4886	4.53518	-9.32457	11.1432	-2.21989
0.1400	106.247	-7.18206	-13.929	-9.35441	1.24228	3.2684	5.4501	-22.1399	10.8369	-1.26851
0.1407	75.4462	-8.11362	-13.929	-8.46351	-0.278879	2.0482	5.4501	-24.8974	10.5306	0.634253
0.1413	106.247	-2.31389	-8.13945	-5.71658	0.329584	2.35325	7.58755	-20.004	11.1432	0
0.1420	176.427	3.48585	-3.84836	-2.63557	-0.900019	0.827994	9.10979	-12.0821	8.99934	0
0.1427	201.163	3.48585	-4.46137	1.00226	-3.6381	-2.84714	7.27994	-6.88584	4.12273	0.317127
0.1433	139.841	4.11691	-2.04338	5.60522	-4.24657	-3.15219	5.7577	-2.31122	0.753871	0
0.1440	53.1435	5.01843	0.408676	8.35215	-5.47617	-4.67744	3.01293	3.18789	-2.89769	0
0.1447	3.39129	4.71792	-0.817351	11.396	-7.30156	-7.42289	-1.56957	6.83802	-5.96029	0.317127
0.1453	-17.3554	5.01843	-1.43036	15.6649	-7.60579	-7.11784	-4.00673	7.15681	-7.16178	0.317127
0.1460	-19.47	6.25049	-0.510844	17.4838	-7.60579	-6.20269	-4.31433	5.92947	-7.7743	0.317127
0.1467	-11.2511	5.31893	-0.510844	15.6649	-9.74809	-7.42289	-7.0591	1.6577	-9.61186	0.317127
0.1473	-1.47621	2.88484	-2.34988	13.5119	-10.6608	-7.72795	-9.50415	-2.61407	-10.2244	0
0.1480	5.54575	0.751261	-5.07439	11.99	-9.74809	-7.11784	-9.80387	-2.00837	-8.99934	0
0.1487	9.21632	-0.781312	-6.60692	10.468	-9.74809	-7.11784	-9.50415	-0.175334	-8.08056	0.317127
0.1493	15.9191	1.65278	-4.76788	10.1711	-8.21426	-5.59259	-5.83658	1.6577	-5.96029	0.634253
0.1500	17.4352	4.71792	-3.84836	9.54001	-7.91002	-4.37239	-3.39941	1.052	-4.73525	0
0.1507	3.112	2.88484	-5.99391	7.12717	-9.74809	-5.59259	-5.22926	-4.4471	-4.42899	0
0.1513	-10.6127	1.35227	-7.52644	5.90218	-8.83539	-4.67744	-4.31433	-8.41603	-0.141351	0.317127
0.1520	-11.2511	1.05177	-6.91343	5.60522	-7.30156	-2.54209	-2.48449	-7.49154	3.20395	0.317127
0.1527	-7.58052	0.751261	-6.60692	3.74919	-8.51849	-2.84714	-3.39941	-3.84141	1.06013	0.317127
0.1533	0.0398975	1.65278	-5.99391	2.85829	-8.83539	-2.84714	-3.70701	0.127516	-0.753871	0.317127
0.1540	7.70022	1.98333	-5.99391	2.85829	-7.60579	-1.93199	-3.09181	-0.175334	1.06013	0
0.1547	-6.06442	0.450757	-7.83295	1.93027	-8.21426	-2.23704	-3.39941	-4.14426	2.28517	0
0.1553	-39.9374	-1.38232	-9.67199	0.705293	-8.51849	-1.93199	-4.31433	-5.0528	1.67265	0.317127
0.1560	-53.9813	-0.480807	-9.67199	-0.222724	-7.60579	-0.697258	-4.00673	-2.31122	2.59143	0.317127
0.1567	-44.4857	0.150252	-9.36548	-1.74467	-6.99733	-0.697258	-3.39941	-1.38673	3.51021	0.317127
0.1573	-39.299	-0.480807	-9.67199	-2.3386	-6.99733	-0.392208	-3.39941	-1.08388	2.28517	0.317127
0.1580	-43.8872	-0.480807	-10.5915	-2.96965	-6.99733	0.522944	-2.79209	-1.08388	1.36639	0.317127
0.1587	-58.2503	-0.480807	-11.1705	-3.26662	-6.38887	1.13304	-3.09181	-1.08388	0.164909	0
0.1593	-75.6456	0.150252	-10.898	-3.56358	-6.38887	1.13304	-3.09181	0.127516	0.164909	0
0.1600	-80.8323	0.751261	-11.1705	-5.3825	-6.99733	0.827994	-3.70701	1.6577	2.59143	0.317127
0.1607	-45.4033	1.65278	-11.1705	-6.60748	-6.99733	1.13304	-3.70701	3.18789	2.59143	0.317127
0.1613	6.78257	4.41742	-9.36548	-6.01355	-5.7804	2.35325	-1.86928	5.62662	5.34777	0.317127
0.1620	0.0398975	5.94999	-7.21993	-5.71658	-5.47617	2.96335	-0.654643	8.06536	11.4494	0
0.1627	-26.4919	5.31893	-6.91343	-5.08553	-6.6931	2.35325	-1.56957	9.2927	11.7557	-0.317127
0.1633	-23.1405	5.61944	-5.38089	-4.4916	-6.99733	2.96335	-1.86928	11.7314	6.87907	0.634253
0.1640	-31.9978	6.8515	-2.34988	-7.53549	-7.60579	2.0482	-3.39941	13.5645	2.59143	0.634253
0.1647	-26.2127	7.78307	1.6347	-10.8764	-8.21426	-0.392208	-6.14418	10.8069	9.61186	-1.90276
0.1653	13.4854	9.5861	4.39326	-7.53549	-5.7804	1.74315	-4.31433	8.06536	28.2231	-2.21989
0.1660	5.86493	9.5861	2.24772	-3.26662	-5.7804	3.8785	-1.86928	7.45966	38.3061	0.317127
0.1667	-52.7445	6.551	-2.65639	-2.3386	-8.21426	2.35325	-2.17688	4.70214	29.7544	0.634253
0.1673	-98.8261	4.11691	-6.60692	-0.519689	-7.60579	2.0482	-1.26196	-0.175334	20.5901	0
0.1680	-122.326	1.05177	-10.5915	1.63331	-9.13963	0.217893	-2.48449	-4.74995	14.4885	0.317127
0.1687	-116.541	-1.38232	-12.3965	4.38024	-11.8777	-2.23704	-4.62194	-6.28014	-15.4072	0.317127
0.1693	-107.683	-1.08182	-11.477	7.7211	-10.965	-1.93199	-3.70701	-4.74995	-42.8764	0.317127
0.1700	-121.727	1.05177	-9.36548	9.24304	-10.965	-2.84714	-4.00673	-1.70552	-34.631	0.634253
0.1707	-147.062	4.11691	-6.30041	10.765	-10.6608	-4.98249	-4.92165	2.56625	-32.7934	0.634253
0.1713	-147.661	8.68458	-1.12386	13.215	-8.51849	-4.06734	-4.00673	8.36821	-52.9359	0.317127
0.1720	-30.4817	12.9517	4.69977	12.918	-7.91002	-3.76229	-2.48449	12.9428	-60.8751	0
0.1727	125.158	12.0502	4.39326	8.64911	-9.44386	-5.59259	-2.48449	12.3371	-61.1814	0.317127
0.1733	144.708	7.78307	-0.510844	6.49612	-9.74809	-5.89764	-2.48449	7.15681	-74.6097	0.317127
0.1740	122.725	5.31893	-2.34988	6.8302	-9.74809	-4.98249	-2.17688	0.127516	-66.6705	0.317127
0.1747	143.192	4.11691	-2.34988	5.60522	-9.74809	-4.06734	-1.86928	-4.74995	-3.20395	0.317127
0.1753	120.889	2.88484	-3.84836	4.6772	-8.51849	-2.54209	-0.954359	-6.58299	59.6736	0.317127
0.1760	65.0728	2.58434	-4.15487	7.12717	-7.30156	-1.30736	-0.954359	-4.74995	61.4876	0.317127
0.1767	30.5615	2.88484	-3.23535	9.87409	-8.51849	-2.54209	-4.92165	-1.70552	3.81647	0
0.1773	14.0838	4.41742	-1.73687	9.24304	-9.44386	-1.93199	-8.28163	1.96055	-56.3048	0
0.1780	6.14421	6.8515	0.408676	7.42413	-8.21426	1.13304	-7.97402	2.2634	-17.2448	0.317127
0.1787	15.0015	7.45251	0.102169	7.7211	-8.83539	1.4381	-7.67431	-2.00837	32.817	0.317127
0.1793	43.0893	6.8515	-0.817351	5.90218	-7.91002	2.35325	-7.67431	-5.0528	13.287	0.317127
0.1800	69.3418	7.45251	-0.204338	-1.11362	-5.47617	4.79365	-5.53686	-6.28014	15.7135	0.634253
0.1807	73.6109	5.94999	-1.43036	-8.76048	-6.6931	3.57345	-5.83658	-9.32457	22.1214	0.317127
0.1813	61.0831	3.78636	-2.65639	-10.5794	-7.91002	2.0482	-7.3667	-10.5519	23.6527	0
0.1820	45.8422	4.41742	-2.34988	-12.3983	-7.30156	4.18355	-5.53686	-7.18869	-16.326	0.317127
0.1827	31.1599	4.11691	-3.23535	-20.9732	-9.13963	4.18355	-5.83658	-4.74995	-80.0988	0.317127
0.1833	19.5897	3.78636	-3.54185	-28.8799	-10.3566	3.2684	-6.45178	-3.21977	8.38682	0.317127
0.1840	11.9692	5.61944	-1.43036	-22.4951	-8.51849	4.18355	-2.79209	-1.70552	143.895	0.634253
0.1847	8.89714	4.71792	-2.65639	-4.4916	-9.44386	1.74315	-1.56957	-2.31122	121.915	0.317127
0.1853	12.5677	2.58434	-4.46137	14.143	-8.83539	-1.30736	-1.86928	-3.21977	25.184	0.317127
0.1860	18.672	5.31893	-1.43036	22.6807	-2.42118	0.827994	3.31265	-1.38673	-13.5697	0.634253
0.1867	24.7763	6.551	0.102169	22.0868	-0.278879	1.4381	7.89515	1.052	-7.7743	0.317127
0.1873	31.7983	5.61944	-1.12386	23.2747	-3.6381	-0.697258	6.98023	2.56625	-38.6123	0.317127
0.1880	38.5011	5.94999	-1.73687	25.7246	-5.47617	-0.0871573	5.1425	3.18789	-130.161	0.317127
0.1887	47.3583	3.78636	-4.15487	22.6807	-7.60579	-0.392208	2.09801	2.56625	-192.402	0
0.1893	51.6274	0.150252	-7.83295	18.4118	-9.13963	-2.54209	-2.48449	1.96055	-197.915	0
0.1900	45.523	0.450757	-7.52644	19.3399	-8.83539	-1.93199	-3.70701	1.35485	-238.789	0.317127
0.1907	25.0955	3.78636	-3.54185	21.1588	-9.74809	-2.23704	-4.00673	2.56625	-187.525	0.317127
0.1913	-7.26134	9.91665	3.47374	19.9338	-9.44386	-3.76229	-4.00673	5.92947	46.5515	0.317127
0.1920	-27.4096	17.2189	11.4089	2.22724	-4.24657	-1.61241	1.1752	8.98985	171.364	0.634253
0.1927	-31.0801	21.1856	14.7464	-27.3579	-0.900019	-0.0871573	6.36502	8.98985	76.7535	0.317127
0.1933	-50.59	18.7515	12.0219	-37.4547	-4.5508	-0.697258	5.7577	6.53517	63.9377	0.634253
0.1940	-91.2057	14.4843	8.34379	-34.3737	-7.30156	4.18355	4.22757	5.32377	186.913	0.95138
0.1947	-111.354	10.2172	3.47374	-35.5987	-7.30156	7.23405	1.79041	3.79359	153.648	-1.58563
0.1953	-95.4747	4.11691	-2.9629	-35.5987	-9.74809	3.57345	-2.79209	-0.478183	48.6718	-3.17127
0.1960	-79.9147	1.98333	-5.6874	-31.6268	-12.1819	4.18355	-2.48449	-0.175334	75.5285	-0.634253
0.1967	-101.579	3.78636	-4.46137	-24.611	-13.7158	5.7088	-1.26196	5.62662	88.9568	0.634253
0.1973	-109.199	5.61944	-3.54185	-12.3983	-13.4115	0.827994	-4.62194	8.36821	32.5107	0
0.1980	-33.8331	8.38408	-1.12386	-0.519689	-10.0523	-1.93199	-4.31433	6.53517	9.61186	0.317127
0.1987	40.6555	13.8833	5.27873	4.08327	-6.38887	-1.00231	0.567883	7.45966	18.1636	0.634253
0.1993	11.3309	16.3174	9.87633	2.22724	-6.38887	-2.54209	1.1752	8.36821	15.101	0.317127
0.2000	-75.6456	15.7164	11.7154	2.5242	-5.7804	-3.45724	0.875486	4.70214	14.4885	0.317127
0.2007	-119.892	15.0853	13.5203	5.90218	-3.94234	-1.30736	2.70533	1.052	31.5919	0.317127
0.2013	-109.199	10.5177	8.95681	5.90218	-6.6931	-2.84714	0.567883	-1.08388	48.0593	0.317127
0.2020	-74.0896	4.11691	0.408676	8.01806	-9.44386	-5.59259	-1.56957	-3.21977	41.0389	0.317127
0.2027	-33.8331	2.28383	-2.9629	13.846	-8.21426	-4.98249	1.79041	-3.52262	18.7761	0
0.2033	-25.295	2.58434	-2.65639	13.846	-9.13963	-6.81279	4.84278	-5.0528	-17.5511	0
0.2040	-46.321	3.48585	-1.12386	10.468	-9.74809	-8.33805	7.27994	-6.88584	-85.3052	0
0.2047	-42.9696	5.61944	1.02169	7.12717	-6.38887	-5.89764	9.725	-3.21977	-151.222	0
0.2053	19.2705	5.61944	-0.817351	-1.74467	-5.47617	-4.67744	9.41739	1.96055	-182.343	0.317127
0.2060	86.418	5.31893	-1.12386	-13.9574	-6.99733	-4.37239	6.06531	3.49074	-118.57	0.317127
0.2067	70.5388	7.78307	2.24772	-19.7482	-5.7804	-2.54209	3.31265	4.39929	47.753	0
0.2073	15.0015	8.68458	2.86073	-14.2543	-6.38887	-5.28754	1.79041	6.23232	148.465	0
0.2080	-10.6127	7.45251	1.02169	-2.63557	-8.21426	-8.033	-0.0394363	5.92947	152.753	0.317127
0.2087	-37.1845	6.8515	1.6347	14.4399	-5.47617	-5.28754	0.567883	1.96055	138.1	0
0.2093	-47.877	7.45251	2.55422	29.9935	-2.72541	-3.76229	2.39773	-1.38673	80.7113	0.317127
0.2100	-6.66288	6.551	1.3282	32.7404	-3.94234	-6.20269	0.567883	-2.91692	27.6105	0.634253
0.2107	9.21632	5.61944	1.02169	27.2466	-4.24657	-5.59259	-0.0394363	-2.91692	3.20395	0.317127
0.2113	-25.5743	6.551	2.55422	19.9338	-3.33387	-3.76229	0.875486	-3.52262	-56.3048	0.317127
0.2120	-26.2127	7.45251	3.47374	6.49612	-1.50848	-3.76229	-0.954359	-6.28014	-85.6115	0.317127
0.2127	35.1497	8.98509	5.58523	-11.8044	1.85074	-2.23704	-0.954359	-8.11318	-85.3052	0.317127
0.2133	80.3137	10.5177	7.42427	-25.539	1.24228	-2.23704	0.567883	-7.49154	-189.057	0
0.2140	54.9787	8.68458	4.39326	-31.6268	-3.02964	-5.28754	-0.34704	-6.28014	-262.913	0.317127
0.2147	14.0838	5.31893	-2.04338	-31.0329	-4.86771	-3.15219	-0.654643	-4.4471	-78.8973	0.634253
0.2153	-14.9217	2.88484	-5.6874	-15.4793	-4.5508	-1.00231	-0.654643	-0.175334	84.6927	0
0.2160	-39.299	-0.480807	-7.52644	6.19915	-6.38887	-5.28754	-4.92165	1.35485	-58.4486	0.317127
0.2167	-49.9916	0.150252	-7.21993	21.7527	-8.51849	-6.81279	-8.28163	1.96055	-186.913	0.317127
0.2173	-71.3766	5.31893	-2.65639	29.3996	-8.51849	-3.45724	-7.0591	5.02093	-7.46804	0.317127
0.2180	-79.9147	9.5861	1.02169	29.6965	-8.83539	-2.23704	-6.45178	8.06536	239.707	0.317127
0.2187	-5.74524	12.9517	3.78025	37.0093	-8.21426	-0.392208	-6.14418	12.0343	246.422	0
0.2193	105.649	16.3174	8.95681	50.7439	-5.17194	3.8785	-2.79209	17.8362	93.8334	0.317127
0.2200	157.236	15.7164	11.4089	46.1781	-4.24657	2.96335	-2.48449	19.3505	-14.7947	0.317127
0.2207	131.901	12.9517	9.87633	20.8618	-6.6931	-3.15219	-1.26196	17.5334	-25.184	0.317127
0.2213	59.2478	11.4192	8.34379	8.94608	-10.0523	-0.392208	2.39773	14.7759	22.1214	0.317127
0.2220	16.8367	8.68458	7.11777	21.4557	-11.5735	8.75931	3.01293	6.83802	117.345	0
0.2227	49.4729	4.71792	4.69977	30.9215	-14.02	8.45426	3.31265	-8.41603	173.485	0
0.2233	95.2752	2.88484	2.24772	25.1307	-16.7581	5.7088	5.4501	-20.6256	74.3034	0.634253
0.2240	98.9458	1.98333	-0.204338	18.4118	-19.5089	8.45426	4.84278	-20.9285	47.1405	0.317127
0.2247	83.9842	-0.480807	-2.65639	24.4996	-21.0427	9.97951	0.875486	-18.7926	131.079	-2.53701
0.2253	74.8078	1.05177	-0.817351	7.12717	-14.9327	13.03	-0.954359	-16.3539	32.2044	-2.53701
0.2260	62.9183	4.11691	2.55422	-63.365	-10.965	17.9108	-2.17688	-10.5519	-110.937	0
0.2267	48.276	3.18535	0.408676	-96.3281	-13.7158	17.9108	-5.53686	-5.35565	-81.3239	0.634253
0.2273	43.3686	1.35227	-2.04338	-49.9644	-9.74809	17.6058	-5.83658	-2.31122	-81.9364	0.317127
0.2280	46.7599	0.751261	-2.34988	-12.3983	-6.6931	18.826	-3.70701	0.430365	-253.442	0.317127
0.2287	47.0391	1.98333	-0.817351	-13.9574	-10.965	19.131	0.26028	2.2634	-398.397	0.317127
0.2293	43.0893	4.11691	-0.510844	-19.4512	-17.9877	16.0805	3.31265	4.70214	-325.154	0.317127
0.2300	36.3865	6.551	-0.204338	-22.7921	-24.085	10.5896	3.92786	8.06536	-132.893	0.634253
0.2307	21.425	7.15201	0.715182	-34.3737	-31.1077	6.01385	4.53518	9.89839	30.0606	0.317127
0.2313	-0.558565	5.31893	0.715182	-49.9644	-36.9008	1.74315	5.7577	8.67106	317.545	0.317127
0.2320	-14.004	4.41742	0.715182	-50.2614	-20.4216	-0.392208	10.6399	6.23232	644.065	0.317127
0.2327	-21.3053	4.71792	-0.510844	-31.3298	5.81843	-3.45724	16.7447	5.32377	522.927	0
0.2333	-25.5743	4.71792	-2.65639	-14.8483	12.5369	-10.7785	14.2996	4.39929	30.3669	0
0.2340	-16.1186	5.01843	-2.9629	-8.76048	8.87342	-12.9138	13.6923	1.96055	-260.462	0
0.2347	-0.877745	6.551	-2.34988	-3.26662	1.54651	-10.4734	19.4894	1.35485	-221.709	0.317127
0.2353	0.95754	6.551	-3.54185	3.74919	-14.6285	-10.7785	17.352	2.56625	-135.65	0
0.2360	-4.22913	5.61944	-2.34988	18.4118	-32.9331	-9.55825	10.0326	1.96055	-131.998	0
0.2367	11.0516	6.25049	1.3282	34.8934	-43.315	-5.89764	5.1425	-2.61407	-149.078	0.317127
0.2373	32.0776	6.25049	2.55422	39.4593	-46.6742	-4.67744	2.70533	-4.74995	-130.161	0.317127
0.2380	31.7983	5.61944	1.3282	40.9812	-47.2827	-1.93199	2.70533	-0.478183	-94.1397	0.317127
0.2387	25.694	6.25049	1.3282	46.1781	-46.0657	8.45426	4.84278	5.32377	-76.7535	0.317127
0.2393	18.9912	6.25049	0.715182	43.1342	-47.5869	16.6906	3.62025	6.53517	-164.956	0.317127
0.2400	6.78257	3.18535	-2.9629	25.1307	-51.5546	15.7755	-0.954359	3.49074	-292.196	0.317127
0.2407	-2.07467	1.35227	-5.07439	-6.90444	-52.1631	17.9108	-3.09181	1.96055	-88.6505	0.317127
0.2413	-9.69509	1.65278	-4.76788	-19.7482	-52.1631	19.4361	-2.79209	3.79359	287.625	0.317127
0.2420	-17.3554	1.98333	-4.15487	9.24304	-57.6519	5.0987	-2.48449	6.83802	264.444	0.317127
0.2427	-22.8214	2.58434	-4.46137	36.7123	-66.8169	-14.4391	-2.48449	6.83802	7.7743	0.317127
0.2433	-28.3272	2.88484	-5.07439	29.3996	-64.9788	-19.0148	-1.56957	4.70214	-132.281	0.317127
0.2440	-31.9978	2.88484	-5.6874	11.693	-44.8361	-14.134	-0.654643	3.79359	-285.482	0
0.2447	-25.295	4.41742	-3.84836	4.38024	-19.2046	-8.94815	-0.954359	2.88504	-453.948	0
0.2453	5.22657	6.8515	-1.43036	-3.56358	0.633816	-3.76229	-2.48449	8.36821	-364.214	0.317127
0.2460	42.4908	6.8515	0.715182	-11.5074	18.33	1.4381	-4.00673	14.473	8.99934	0.317127
0.2467	56.2156	6.8515	3.16724	-11.2104	28.0907	6.3189	-3.70701	0.749154	224.465	0.317127
0.2473	62.0007	6.25049	2.24772	-13.3263	23.8188	8.14921	-4.62194	-16.3539	120.078	0
0.2480	71.7756	4.11691	-1.73687	-3.56358	15.275	2.6583	-5.83658	-14.8237	110.324	0.317127
0.2487	76.9623	1.65278	-4.46137	32.1465	1.54651	-7.72795	-6.75939	-7.81033	259.237	0.317127
0.2493	71.1771	0.450757	-6.30041	74.5754	-20.4216	-16.2694	-8.28163	-2.91692	242.464	0
0.2500	34.5512	1.98333	-6.91343	118.192	-40.5642	-19.0148	-6.45178	3.79359	82.8551	0.317127
0.2507	-23.739	3.78636	-5.6874	157.874	-53.6842	-16.8795	-0.654643	6.53517	-15.4072	0.317127
0.2513	-78.0794	4.41742	-4.15487	138.052	-58.5773	-12.9138	1.1752	3.18789	-34.631	0.317127
0.2520	-119.254	6.8515	-0.510844	84.3381	-55.2181	-9.2532	0.567883	2.88504	-46.8342	0.317127
0.2527	-143.671	10.2172	4.08676	73.9444	-52.4673	-9.55825	1.79041	6.83802	-34.0184	0
0.2533	-154.044	10.8182	4.69977	38.2343	-50.0334	-14.4391	2.39773	8.06536	30.9794	0
0.2540	-143.072	11.7497	5.27873	-2.96965	-39.0431	-15.0492	2.39773	8.67106	19.0824	0.634253
0.2547	-98.2276	10.2172	3.47374	22.3838	-29.8908	-16.5744	3.01293	6.23232	-109.099	-0.95138
0.2553	-6.98206	6.551	-0.817351	62.3627	-30.8035	-21.1502	2.70533	-2.31122	-209.199	-2.85414
0.2560	93.1208	6.25049	-1.73687	106.908	-33.2373	-20.8451	5.7577	-3.21977	-265.645	-1.26851
0.2567	107.484	3.18535	-3.54185	135.305	-30.8035	-23.5906	8.19487	1.96055	-345.909	0.634253
0.2573	54.3803	-2.31389	-6.30041	124.317	-25.3146	-20.8451	4.84278	-0.781033	-407.255	0
0.2580	27.8086	-1.68283	-5.07439	107.836	-24.085	1.13304	0.567883	-4.74995	-261.994	0
0.2587	26.2924	1.65278	-2.34988	91.6509	-9.74809	22.7916	-3.09181	-3.21977	91.1006	0.317127
0.2593	20.1881	2.58434	-1.12386	66.9286	24.7442	38.3637	-7.97402	-1.38673	187.525	0.317127
0.2600	12.5677	1.65278	-0.510844	44.3592	50.9842	53.6163	-12.8562	-2.00837	-56.3048	0
0.2607	7.38104	1.65278	-0.204338	-4.4916	56.473	56.9718	-16.5238	-0.781033	-205.524	0
0.2613	9.21632	2.28383	1.02169	-116.485	48.8545	51.4809	-17.4387	1.35485	-172.872	0.317127
0.2620	14.6823	4.41742	2.24772	-220.534	43.9615	50.5658	-16.8235	3.18789	-62.7127	0.634253
0.2627	18.3528	7.15201	1.3282	-250.75	43.9615	44.1597	-18.0461	7.15681	138.712	0.317127
0.2633	22.3426	8.38408	-0.204338	-221.462	33.5922	27.6724	-19.5762	11.4286	307.768	0
0.2640	19.5897	5.94999	-1.12386	-138.757	18.6342	15.7755	-15.9086	10.8069	330.973	0.317127
0.2647	3.112	2.28383	-2.65639	-59.0961	7.64382	11.1997	-9.50415	5.02093	301.36	0.634253
0.2653	-12.7672	1.35227	-3.84836	-10.8764	-3.6381	8.45426	-5.83658	0.749154	248.259	0.317127
0.2660	-19.7892	1.65278	-3.84836	58.0938	-16.7581	-1.93199	-4.62194	1.35485	202.179	0
0.2667	-26.2127	0.150252	-5.6874	125.839	-24.3892	-19.0148	-7.0591	1.35485	232.404	0.317127
0.2673	-31.6786	0.751261	-6.60692	177.697	-17.6835	-33.3522	-10.1115	-1.38673	247.647	0.317127
0.2680	-31.3993	3.48585	-3.54185	248.523	-3.6381	-44.3485	-7.3667	-4.74995	195.465	0
0.2687	-23.739	1.98333	-2.34988	292.14	2.45921	-52.8899	-2.79209	-6.88584	141.751	0
0.2693	-9.09663	-1.38232	-2.65639	259.176	-1.81271	-56.2455	-1.86928	-6.28014	87.7318	0
0.2700	5.22657	-2.91489	-2.04338	190.206	-8.51849	-53.8051	-4.00673	-7.49154	43.1827	0.317127
0.2707	15.0015	-5.34898	-1.73687	130.702	-8.83539	-44.9586	-8.58923	-7.49154	99.0398	0.317127
0.2713	24.1779	-3.81641	0.408676	117.895	4.90574	-27.8613	-9.19655	-2.61407	165.263	0
0.2720	24.4572	0.150252	4.08676	171.312	17.7215	-13.829	-7.97402	1.052	87.1192	0
0.2727	15.3206	1.98333	5.58523	246.073	8.26496	-12.6088	-9.50415	3.18789	5.65403	0.317127
0.2733	14.6823	1.65278	4.97222	282.377	3.3719	-13.5239	-9.50415	5.92947	19.0824	0.317127
0.2740	15.5999	-0.480807	1.94121	287.574	31.4499	-12.9138	-7.97402	5.62662	-16.9385	0.317127
0.2747	-5.14678	-1.08182	0.715182	275.658	53.1265	-14.4391	-5.22926	4.70214	-105.141	0.317127
0.2753	-42.3711	1.35227	1.94121	146.293	50.9842	-8.033	-1.56957	4.39929	-112.751	0.317127
0.2760	-68.6237	2.28383	1.3282	-104.866	36.6472	0.827994	-2.48449	3.79359	-81.3239	0.634253
0.2767	-71.6559	1.98333	0.102169	-279.147	21.385	-0.0871573	-4.31433	3.18789	-108.793	0.317127
0.2773	-58.2503	1.35227	1.3282	-332.527	53.4307	-3.15219	-1.26196	1.96055	-144.508	0.317127
0.2780	-41.4535	-0.480807	0.408676	-322.764	105.911	-1.61241	2.70533	1.6577	-160.669	0
0.2787	-22.2229	-1.08182	0.715182	-220.237	112.629	3.8785	8.81007	3.49074	-244.301	0.317127
0.2793	-1.47621	0.450757	4.69977	-103.678	85.1595	11.1997	12.7774	5.92947	-325.46	0.317127
0.2800	15.9191	-2.31389	3.47374	-27.989	45.7995	14.5553	9.725	2.88504	-288.544	0.317127
0.2807	50.3905	-6.58105	-1.12386	75.7633	12.2326	13.6401	7.27994	-2.31122	-218.34	0
0.2813	67.5066	-6.28055	-0.817351	175.878	-15.2369	14.8603	10.0326	-1.08388	-181.73	0
0.2820	14.6823	-6.88155	-0.204338	124.911	-47.2827	13.3351	9.41739	0.430365	-94.4459	0.317127
0.2827	-48.7946	-6.28055	-0.510844	-26.764	-53.38	4.4886	4.53518	-0.175334	109.712	0.317127
0.2833	-66.4692	0.751261	1.94121	-44.7675	-30.8035	35.3132	3.01293	5.32377	204.629	0.317127
0.2840	-51.2284	2.88484	1.02169	-16.7043	-28.9654	115.571	4.53518	10.5041	55.6922	0
0.2847	-31.6786	-0.781312	0.408676	-115.557	-35.0754	154.937	6.36502	7.15681	-93.5271	-2.85414
0.2853	-67.3869	-0.781312	3.16724	-137.532	-11.5735	147.92	10.6399	7.15681	-159.75	-2.53701
0.2860	-148.259	-0.781312	1.94121	24.4996	4.90574	142.43	13.9999	13.5645	-208.587	0.317127
0.2867	-208.983	-3.81641	-2.9629	192.953	-8.51849	118.926	13.3847	13.8673	-237.281	0.317127
0.2873	-233.4	-6.28055	-8.13945	283.602	-31.4119	74.6793	9.41739	6.23232	-297.402	0
0.2880	-233.121	-9.01514	-13.0095	322.356	-51.8588	31.333	4.22757	4.09644	-320.89	0.317127
0.2887	-286.504	-11.4492	-16.3811	329.706	-53.0758	-2.54209	-0.954359	9.2927	-177.772	0.317127
0.2893	-399.135	-12.9818	-17.9136	345.259	-40.8685	-25.1158	-5.83658	12.64	3.51021	0
0.2900	-441.226	-11.7497	-13.6225	313.818	-39.3473	-34.2673	-10.7267	9.2927	143.589	0.317127
0.2907	-401.249	-5.34898	-1.43036	191.431	-50.6419	-29.0815	-17.1311	9.2927	316.626	0.317127
0.2913	-310.004	5.61944	15.0529	180.444	-50.9461	-25.1158	-22.0134	21.5023	443.582	0.317127
0.2920	-151.61	15.3858	28.7776	330.894	-32.6288	-27.2512	-20.7908	41.0281	433.806	0.317127
0.2927	-5.74524	16.9184	31.5361	432.53	-22.8681	-26.6411	-21.406	47.4358	337.075	0.317127
0.2933	99.5443	13.8833	26.6661	421.839	3.06767	-33.6572	-22.9283	32.1817	251.322	0
0.2940	205.113	11.7497	22.6815	265.895	66.2465	-50.4495	-9.50415	16.6089	221.403	0
0.2947	304.019	8.68458	16.5854	-148.817	106.228	-56.8556	13.0771	8.06536	218.67	0
0.2953	396.461	-0.180303	3.78025	-680.459	80.5834	-38.8576	24.6792	-2.00837	221.096	0
0.2960	464.207	-7.78307	-5.6874	-1000.25	28.4076	-14.134	25.5942	-6.58299	229.342	0
0.2967	438.274	-10.2472	-7.83295	-1063.73	-2.72541	-5.28754	19.4894	-7.81033	200.954	0.317127
0.2973	325.963	-11.7497	-8.44596	-1024.68	-10.965	-9.55825	8.19487	-12.3849	134.425	0.317127
0.2980	213.691	-12.9818	-7.83295	-845.237	-12.4862	-16.2694	-4.92165	-13.5963	86.5303	0.317127
0.2987	138.604	-11.4492	-4.76788	-540.996	-14.3242	-15.6593	-16.5238	-12.3849	47.753	0.317127
0.2993	101.06	-7.48256	1.3282	-299.601	-15.2369	-6.50774	-25.0657	-8.11318	3.81647	0.317127
0.3000	86.7372	-2.31389	9.56982	-180.258	-23.4765	2.6583	-29.9479	-5.0528	-25.7965	0.317127
0.3007	38.5011	4.11691	17.5049	-151.267	-37.5219	7.84416	-33.0003	-2.91692	-38.9186	0.317127
0.3013	-50.59	10.5177	22.0685	-147.592	-33.8585	1.4381	-28.7254	5.62662	-39.2249	0.634253
0.3020	-84.7822	11.7497	19.957	-99.075	-28.3569	-11.9987	-20.4911	14.7759	-35.856	0.317127
0.3027	-61.6017	6.25049	9.87633	3.74919	-44.2277	-18.4047	-17.7385	19.0476	-34.9372	0
0.3033	-8.49817	-2.61439	-4.15487	109.357	-49.1081	-32.437	-11.334	14.7759	-37.9998	0.317127
0.3040	64.1552	-8.71463	-12.3965	81.5912	-29.5865	-40.993	3.01293	-0.478183	-33.4059	0
0.3047	93.7591	-11.7497	-14.8485	-69.4899	-13.4115	-3.15219	15.5221	-23.6701	-15.4072	0
0.3053	101.06	-15.7164	-18.7991	-149.448	-33.8585	44.7698	19.797	-41.9845	-3.51021	0.317127
0.3060	114.785	-16.3474	-19.4121	-164.704	-76.5777	60.0223	19.4894	-42.893	16.9385	0.317127
0.3067	111.154	-13.2823	-13.0095	-216.265	-90.6103	51.4809	24.3716	-29.7749	41.3451	0
0.3073	83.0666	-7.48256	-2.04338	-223.912	-81.7623	19.7411	30.4764	-10.5519	23.6527	0.317127
0.3080	59.2478	2.58434	13.5203	-173.242	-71.393	-19.93	29.2539	9.2927	-2.59143	0.317127
0.3087	97.3898	8.38408	21.4555	-152.789	-73.8269	-54.7202	26.8167	22.7137	-2.89769	0.317127
0.3093	203.916	5.31893	12.6008	-128.697	-101.296	-85.8499	28.0313	25.4553	-14.4885	0.317127
0.3100	231.366	-2.61439	0.102169	-96.6251	-131.821	-89.2055	26.8167	22.108	-43.4889	0.317127
0.3107	16.2383	-16.9485	-9.36548	-31.6268	-135.472	-69.0576	17.9672	15.7004	-67.283	0.317127
0.3113	-317.943	-31.9136	-15.7681	206.688	-106.481	-47.7041	6.06531	8.67106	-72.4659	0.317127
0.3120	-520.583	-33.4161	-13.316	477.706	-71.393	-6.81279	-1.56957	5.02093	-47.1405	0
0.3127	-563.911	-26.1138	-2.9629	536.282	-50.3377	36.8385	-9.80387	0.430365	-12.3682	0
0.3133	-570.335	-25.1823	12.6008	465.493	-36.9008	56.9718	-19.8759	-0.175334	5.65403	0
0.3140	-591.081	-22.7482	30.0036	408.439	-26.5315	67.0385	-19.8759	8.98985	30.0606	0.317127
0.3147	-516.593	9.91665	39.7778	290.618	2.76344	58.8021	-10.7267	16.9118	71.8769	0.317127
0.3153	-220.912	51.7168	38.5517	139.574	50.0715	34.7031	2.70533	20.5778	84.3865	0
0.3160	261.887	48.6517	26.6661	136.827	54.0392	18.2159	14.9148	24.2439	54.1609	0.317127
0.3167	638.799	18.7515	8.6503	262.554	15.8961	4.4886	26.8167	19.9721	17.5511	0.634253
0.3173	546.316	4.71792	-4.15487	400.495	-4.24657	-3.45724	39.3259	1.35485	-0.753871	-1.58563
0.3180	210.938	1.98333	-6.91343	347.709	-1.20425	5.7088	41.1557	-19.3983	-1.06013	-2.85414
0.3187	109.319	-15.1154	-8.44596	-7.23853	-1.81271	16.3856	30.4764	-32.5165	0.753871	-0.317127
0.3193	147.461	-47.7802	-13.0095	-381.378	-3.94234	10.5896	16.4371	-41.6816	-2.28517	0.634253
0.3200	101.659	-71.5802	-18.7991	-548.012	0.0253526	-4.67744	4.22757	-42.893	-11.4494	0.317127
0.3207	38.5011	-78.9125	-21.8641	-503.764	-0.900019	-13.2189	-1.26196	-36.7882	-18.1636	0.317127
0.3213	6.46339	-76.1479	-20.9446	-272.725	-3.02964	-25.4209	1.1752	-32.5165	-6.85552	0.317127
0.3220	-69.5413	-70.6486	-19.7186	-56.0522	0.329584	-25.4209	2.09801	-27.0333	17.2448	0.317127
0.3227	-171.759	-74.3148	-20.6381	-85.6745	-6.08463	18.2159	3.01293	-16.0351	42.2639	0.317127
0.3233	-216.005	-60.8822	-19.4121	-214.743	-8.51849	61.2425	6.06531	-1.38673	66.694	0.317127
0.3240	-294.763	19.9836	-9.36548	-139.351	7.03536	67.6486	3.62025	17.5334	73.9972	0.317127
0.3247	-436.359	95.9511	6.81126	159.099	12.8411	62.7678	-5.83658	38.5894	58.1423	0
0.3253	-374.398	83.4501	18.731	400.792	13.7538	68.8688	-19.5762	51.1019	44.4077	0.317127
0.3260	-43.608	52.3178	26.3596	329.372	31.1457	76.2045	-30.8629	56.585	51.7344	0.634253
0.3267	237.789	50.1843	34.6012	49.853	68.6803	68.2587	-30.8629	64.22	72.1832	0.317127
0.3273	276.25	47.4497	34.6012	-239.465	108.966	56.6668	-27.2032	73.3693	85.3052	0.317127
0.3280	216.723	33.0856	18.731	-421.357	114.771	46.295	-29.6403	70.022	73.1019	0
0.3287	213.97	16.0169	-4.46137	-389.321	83.6384	40.194	-29.033	43.4669	48.9781	0
0.3293	221.91	2.28383	-19.7186	-273.654	53.4307	46.295	-20.7908	5.02093	24.2652	0
0.3300	209.103	-1.38232	-17.9136	-206.205	41.2234	42.3294	-14.694	-23.3672	-8.69308	0.317127
0.3307	231.086	5.31893	-0.510844	-107.613	32.6796	16.6906	-14.3864	-32.2136	-33.0997	0.317127
0.3313	243.893	14.1838	19.344	7.12717	22.9061	-5.28754	-13.7712	-27.3361	-46.2217	0
0.3320	236.273	16.6179	28.4711	20.2308	13.1453	-15.6593	-15.3013	-19.7012	-51.4281	0
0.3327	328.715	11.1187	20.2635	-11.5074	0.633816	-24.8108	-16.8235	-16.3539	-46.8342	0.317127
0.3333	436.439	0.450757	3.47374	64.8127	-5.47617	-33.6572	-8.28163	-16.0351	-76.7535	0
0.3340	352.215	-9.31564	-8.13945	215.857	0.329584	-34.5724	1.1752	-12.6878	-146.934	0
0.3347	59.2478	-16.3474	-18.7991	347.709	14.058	-20.5401	6.67263	-13.5963	-193.015	0.317127
0.3353	-299.949	-21.2156	-28.5732	439.249	28.4076	-6.20269	18.5745	-20.004	-197.608	0.317127
0.3360	-553.538	-18.1805	-24.9292	391.623	61.0618	-6.81279	31.9986	-17.8681	-176.241	0.317127
0.3367	-718.314	-9.31564	-14.542	176.806	115.684	-12.6088	36.2735	-9.94621	-110.937	0.317127
0.3373	-775.687	-3.2154	-8.75247	-32.5548	125.749	-15.6593	35.3586	-6.88584	-15.101	0.317127
0.3380	-672.552	3.78636	0.408676	-116.782	87.3018	-24.2007	30.784	0.127516	41.3451	0.317127
0.3387	-406.156	14.4843	12.3284	-49.6303	61.0618	-47.094	25.2866	16.6089	4.12273	0.317127
0.3393	-94.2379	16.6179	12.0219	121.57	40.298	-79.1388	28.0313	22.108	-66.3642	0
0.3400	94.956	7.15201	2.55422	284.827	12.2326	-102.628	29.2539	14.1702	-91.1006	0.317127
0.3407	269.228	0.150252	1.6347	420.614	2.45921	-99.8822	14.6072	20.275	-114.282	0.317127
0.3413	427.302	-1.68283	5.58523	468.537	-4.86771	-81.8843	-4.62194	14.7759	-137.794	0
0.3420	503.905	-8.41413	3.47374	369.054	-19.2046	-69.9728	-7.3667	-24.5946	-128.936	0.317127
0.3427	508.494	-19.3825	-4.76788	174.356	-7.60579	-55.9404	2.70533	-57.2385	-134.118	0.317127
0.3433	478.89	-29.1489	-15.1551	-137.235	13.1453	-37.0273	11.5548	-61.5103	-136.875	0.317127
0.3440	397.698	-33.4161	-23.3967	-350.53	3.68881	-26.031	16.7447	-52.9668	-98.7336	0
0.3447	155.68	-31.9136	-25.2357	-177.214	-19.2046	-17.4896	26.5091	-38.9241	-76.7535	0
0.3453	-92.4026	-23.9803	-16.0746	69.3785	-16.7581	-7.72795	41.4633	-14.218	-61.7939	0.317127
0.3460	-247.763	-11.7497	3.16724	-28.5829	6.42689	-1.00231	52.75	14.1702	1.36639	0.317127
0.3467	-431.452	0.150252	19.344	-283.713	22.6019	10.5896	58.8548	33.3931	61.7939	0.317127
0.3473	-446.732	5.31893	20.2635	-386.24	24.1357	30.1128	53.0576	38.5894	96.5897	0.317127
0.3480	-218.758	2.88484	11.4089	-444.557	17.7215	54.2264	29.8691	28.2128	135.037	0
0.3487	-112.87	1.05177	6.81126	-592.26	23.2103	83.5257	5.7577	19.0476	171.977	0.317127
0.3493	-178.461	2.28383	6.81126	-660.005	41.8319	107.639	-1.56957	17.2146	214.076	0.317127
0.3500	-183.369	-2.91489	0.408676	-551.056	51.5926	103.964	-3.39941	-0.175334	235.137	-2.21989
0.3507	6.78257	-8.11362	-4.76788	-446.376	49.463	57.887	-7.67431	-17.8681	215.301	-2.85414
0.3513	338.171	-5.94999	-1.43036	-366.121	46.1038	4.79365	-7.67431	-13.2935	186.3	0
0.3520	465.763	-7.48256	-2.65639	-197.036	43.6572	-14.4391	-11.9413	-3.21977	162.2	0.634253
0.3527	290.893	-15.1154	-14.542	-24.0171	37.5599	-19.3199	-21.0984	-1.08388	155.18	0.317127
0.3533	99.2251	-22.1472	-25.8487	74.8724	33.288	-18.7098	-24.7581	-4.4471	159.75	0
0.3540	-65.2723	-24.5813	-31.6383	109.951	32.0584	-9.55825	-21.0984	-2.61407	146.322	0
0.3547	-252.95	-22.1472	-33.1708	106.611	23.2103	-18.0997	-11.0264	7.15681	129.242	0.317127
0.3553	-443.381	-14.8149	-26.7342	88.904	13.1453	-43.7384	-5.53686	15.3975	148.159	-1.58563
0.3560	-643.267	-3.81641	-14.2355	44.0251	8.87342	-53.195	-7.3667	20.5778	161.588	-3.17127
0.3567	-668.881	4.11691	-4.76788	15.0339	1.24228	-40.6879	-10.7267	33.0903	111.549	-0.634253
0.3573	-668.283	14.1838	9.87633	20.8618	0.633816	-23.8956	-14.3864	57.2067	48.6718	0.634253
0.3580	-848.34	33.4161	41.0038	3.74919	49.463	-25.7259	-13.1638	81.61	11.1432	0
0.3587	-649.651	45.6166	65.4221	-19.1171	131.859	-51.0596	-14.0788	79.4741	-25.4903	0.317127
0.3593	19.869	38.8853	64.5026	0.705293	160.546	-60.2112	-28.4257	52.0104	-52.3469	0.317127
0.3600	480.685	22.1171	50.4714	-15.1452	130.325	-43.7384	-39.4127	22.108	-62.7127	0
0.3607	642.749	5.01843	34.9077	-110.991	102.868	-26.6411	-32.393	-7.18869	-48.6718	0
0.3613	703.193	-7.48256	21.149	-101.228	63.7999	9.06436	-16.8235	-28.8663	-7.16178	0.317127
0.3620	573.487	-13.5828	13.5203	70.6035	17.7215	46.295	-3.09181	-38.3184	21.2026	0
0.3627	459.34	-16.3474	10.4893	210.066	1.85074	42.9395	3.01293	-48.0893	17.8573	0
0.3633	543.883	-19.082	4.08676	239.651	-21.9554	26.4522	-2.79209	-51.7554	-13.2634	0.317127
0.3640	608.556	-21.8467	-3.54185	201.528	-40.5642	6.01385	-15.3013	-51.1337	-39.2249	0.317127
0.3647	512.124	-24.8818	-9.36548	138.943	-23.1723	-39.4677	-22.0134	-65.1764	-41.0389	0.634253
0.3653	323.848	-28.5479	-16.6876	112.104	-35.9881	-59.296	-21.0984	-77.386	-63.9377	0.317127
0.3660	213.053	-27.9469	-22.4772	136.53	-68.9465	-26.336	-17.1311	-66.0849	-101.16	0.317127
0.3667	283.551	-23.0487	-22.7837	168.565	-60.0984	-1.30736	-3.70701	-41.06	-109.099	0.317127
0.3673	281.716	-17.5495	-20.6381	152.974	-43.0108	-0.697258	21.6269	-18.4898	-97.2023	0.317127
0.3680	74.2093	-14.2139	-18.5266	87.382	-58.5773	-12.9138	52.1427	-5.6585	-83.4677	0.317127
0.3687	-44.4857	-10.5477	-12.703	37.9373	-94.2738	-29.6916	68.9268	0.749154	-65.1627	0
0.3693	-39.6182	-4.14696	-2.65639	61.7317	-138.223	-49.8394	56.11	4.70214	-49.5906	0
0.3700	-16.1186	-1.98333	2.24772	73.6474	-170.877	-51.9748	36.8808	0.430365	-46.8342	0
0.3707	22.0234	-8.11362	-3.54185	-9.05744	-163.55	0.522944	33.8364	-9.32457	-59.3438	0.317127
0.3713	-22.8214	-13.9134	-7.83295	-60.618	-121.743	42.6344	31.9986	-10.5519	-67.283	0.317127
0.3720	-26.4919	-13.9134	-2.9629	-47.5144	-98.5457	36.5334	23.7643	-7.18869	-50.8156	0.634253
0.3727	35.7482	-10.5477	3.78025	-147.592	-89.3934	19.131	20.4044	-8.11318	-26.0792	0.317127
0.3733	-73.8104	-9.01514	4.97222	-345.371	-34.7711	-15.3542	23.1491	-9.32457	-7.7743	0
0.3740	-268.789	-13.5828	-2.65639	-338.355	23.8188	-50.4495	23.4567	-9.02173	-4.73525	0.634253
0.3747	-346.629	-21.8467	-15.4616	-98.1841	16.5046	-42.8233	9.41739	-10.8548	-17.8573	-0.317127
0.3753	-314.592	-27.3159	-27.6537	60.5067	-10.3566	-22.0653	-13.4714	-8.71888	-16.9385	-2.85414
0.3760	-251.115	-26.1138	-30.4123	64.8127	1.54651	-17.1845	-22.9283	5.62662	5.65403	-1.26851
0.3767	-154.363	-23.0487	-26.7342	66.0005	26.5696	5.0987	-25.673	16.9118	15.101	0.95138
0.3773	-54.899	-21.8467	-25.2357	133.783	22.6019	35.6183	-29.033	18.7448	5.96029	0
0.3780	-52.7445	-20.9151	-23.3967	223.8	-0.595787	54.5314	-26.5959	22.4109	3.20395	0
0.3787	31.4791	-16.9485	-18.2201	259.176	7.33959	78.0348	-22.9283	29.1214	8.69308	0.317127
0.3793	289.057	-11.1487	-13.0095	214.632	40.9192	81.3904	-22.321	33.696	16.0198	0.317127
0.3800	325.045	-5.04848	-5.38089	111.176	36.9515	57.2769	-26.8956	31.2572	21.2026	0.317127
0.3807	157.834	6.551	11.1024	-7.83246	2.76344	47.8203	-32.393	21.5023	23.6527	0.634253
0.3813	300.947	15.3858	25.7466	-60.9521	-9.44386	50.8708	-28.7254	13.8673	27.6105	0.634253
0.3820	564.629	13.2523	29.0841	-124.094	-24.085	37.1435	-10.4191	17.2146	32.2044	0.634253
0.3827	477.653	5.94999	23.2945	-264.782	-52.1631	13.03	15.2145	13.8673	33.7122	0
0.3833	267.393	-6.28055	4.39326	-280.966	-65.2831	22.4866	25.2866	-8.11318	25.7965	-0.317127
0.3840	180.416	-24.2808	-23.3967	-169.27	-76.5777	33.1633	5.7577	-32.5165	7.7743	0.317127
0.3847	103.215	-36.4813	-41.4125	-105.497	-77.4903	7.23405	-17.7385	-47.1648	-5.65403	0.317127
0.3853	19.2705	-36.4813	-43.2174	-81.9995	-69.8592	-6.50774	-21.0984	-48.9979	-6.85552	0
0.3860	-104.93	-30.982	-38.0409	-66.1119	-93.0569	-25.1158	-14.694	-38.0156	-0.753871	0
0.3867	-231.286	-24.2808	-29.7993	-51.1894	-118.08	-77.6136	-11.334	-22.7615	1.67265	0.317127
0.3873	-199.847	-16.3474	-20.0251	-36.8237	-86.3384	-126.131	1.1752	-9.62742	4.12273	0
0.3880	-287.102	-9.01514	-12.703	-51.1894	-28.6612	-144.754	22.5418	-0.781033	10.5306	0
0.3887	-672.871	-6.28055	-9.97849	-74.0557	4.6015	-149.329	28.9463	5.92947	12.9807	0.317127
0.3893	-1063.19	-8.41413	-15.1551	-63.6991	29.0161	-162.752	21.9345	15.0787	12.9807	0.317127
0.3900	-1292.36	-11.7497	-21.8641	-36.2298	21.9934	-146.889	8.81007	30.0459	11.1432	0
0.3907	-1307.32	-10.5477	-16.0746	-11.5074	-15.8454	-116.98	-14.3864	50.799	1.97891	0
0.3913	-991.173	-5.34898	-3.23535	7.42413	3.06767	-139.858	-29.3406	65.4474	-6.54926	0
0.3920	-411.622	-1.08182	5.27873	16.8899	55.2561	-157.566	-16.8235	63.2955	-6.85552	0.317127
0.3927	-77.1618	-2.91489	1.6347	22.3838	86.0849	-101.407	9.10979	54.752	-5.34777	0.317127
0.3933	-23.4597	-9.61615	-10.285	19.3399	106.532	-24.8108	28.3389	52.0104	-10.2244	0.317127
0.3940	182.531	-10.8482	-16.0746	15.9619	109.27	11.8098	39.9332	50.4802	-18.4698	0.317127
0.3947	378.787	-5.94999	-14.2355	18.7088	104.389	17.9108	46.3456	47.1329	-20.8964	0.317127
0.3953	356.803	-1.38232	-9.36548	21.4557	97.671	13.9452	30.784	41.331	-26.998	0
0.3960	178.581	0.450757	-1.73687	35.4874	81.1918	25.5371	-11.6416	30.9544	-45.3265	0
0.3967	29.6438	-1.98333	4.97222	55.9408	74.1818	48.7354	-57.719	16.3061	-64.8565	0
0.3973	109.598	-0.781312	15.0529	76.3943	75.0945	42.3294	-87.9351	3.18789	-80.0988	0.317127
0.3980	217.322	8.98509	30.9231	101.711	75.0945	22.7916	-94.0398	-3.52262	-86.5067	0
0.3987	322.332	16.0169	38.8582	128.586	73.5734	6.62395	-71.151	-12.3849	-79.7925	0.317127
0.3993	615.898	12.0502	30.6166	158.468	50.0715	-37.6374	-38.4977	-20.004	-67.283	0.317127
0.4000	731.241	1.35227	13.8269	184.415	18.33	-86.46	-12.8562	-20.004	-58.1423	0
0.4007	452.637	-9.31564	0.102169	208.544	26.2653	-77.6136	4.22757	-25.806	-60.2626	0
0.4013	186.202	-17.5495	-8.44596	213.704	42.4403	-57.1606	1.79041	-41.9845	-71.5706	0.317127
0.4020	160.587	-22.1472	-14.8485	149.93	30.233	-79.4439	-13.1638	-58.7687	-81.3239	0.317127
0.4027	300.947	-20.9151	-14.542	89.4979	28.7119	-93.4762	-21.7057	-62.4348	-89.8756	0
0.4033	492.295	-16.9485	-7.52644	94.3978	43.9615	-78.8338	-24.1508	-57.2385	-94.4459	0.317127
0.4040	534.706	-16.0469	-4.15487	95.6228	57.7026	-53.8051	-27.2032	-51.4366	-84.999	-0.317127
0.4047	437.995	-16.3474	-6.91343	57.1658	60.4407	-33.6572	-25.9806	-40.4543	-47.753	-2.85414
0.4053	322.013	-13.2823	-5.07439	-4.15751	56.473	-35.4875	-10.1115	-24.2758	7.16178	-2.53701
0.4060	166.373	-10.2472	0.102169	-32.5548	53.1265	-49.2293	8.81007	-8.11318	35.2435	0.317127
0.4067	-9.41581	-9.01514	-0.204338	-22.1982	16.8088	-48.9243	13.3847	1.96055	27.9168	0.634253
0.4073	-116.221	-10.5477	-4.46137	-51.7833	-29.5865	-14.4391	2.70533	3.49074	5.65403	0
0.4080	-89.6896	-12.9818	-6.91343	-88.7184	-25.9231	45.0748	-8.28163	3.18789	-15.4072	0.317127
0.4087	10.4132	-10.8482	-5.6874	-50.2614	-5.7804	90.2368	-14.694	2.56625	-32.2044	0.317127
0.4093	86.7372	-8.41413	-2.9629	-8.76048	-20.1173	101.829	-23.8432	-0.478183	-33.4059	0.317127
0.4100	84.2635	-8.11362	-0.817351	-41.7236	-45.7615	101.524	-33.9152	-1.70552	8.08056	0
0.4107	71.7756	-4.44747	2.86073	-75.8746	-43.9235	96.3378	-30.2555	2.56625	42.8764	0
0.4113	128.55	-2.61439	5.89174	-33.4828	-37.8261	74.3742	-18.3537	3.18789	30.9794	0.317127
0.4120	173.395	-2.31389	7.42427	61.4347	-42.4023	48.1253	-7.0591	-0.781033	23.0402	0.317127
0.4127	101.06	1.05177	7.73078	139.871	-1.50848	35.6183	10.6399	-0.781033	53.2657	0
0.4133	-32.9154	-4.14696	-0.817351	161.846	52.5053	23.4017	27.424	-2.31122	81.3239	0.317127
0.4140	-88.4527	-15.4159	-13.6225	167.34	46.7122	2.35325	39.0183	-9.32457	56.611	0.317127
0.4147	-79.5955	-16.648	-14.8485	154.83	42.4403	-20.235	42.0707	-10.8548	21.2026	0.317127
0.4153	-73.8104	-11.4492	-9.05897	109.357	72.3438	-33.3522	19.4894	-5.97729	8.08056	0.317127
0.4160	-71.6559	-12.0803	-9.36548	59.6158	79.9749	-20.5401	-7.3667	-2.61407	-11.1432	0.317127
0.4167	-79.2763	-14.8149	-12.3965	-41.3895	79.9749	-0.0871573	-4.00673	1.052	-23.3464	0
0.4173	-91.2057	-14.5144	-11.477	-122.572	71.1268	-1.93199	10.3323	4.39929	-16.9385	0
0.4180	-93.9586	-16.3474	-13.316	-78.9556	28.4076	-16.2694	7.89515	3.79359	-8.69308	0.317127
0.4187	-93.6394	-18.7815	-16.6876	-21.2701	3.3719	-31.2168	5.7577	1.35485	-8.08056	0.634253
0.4193	-94.8762	-16.9485	-13.316	-40.7956	9.17766	-53.195	17.352	-1.38673	29.1418	0.317127
0.4200	-98.2276	-16.0469	-9.67199	-110.36	11.003	-70.2778	33.5288	-3.21977	101.773	0
0.4207	-103.095	-15.7164	-9.36548	-159.211	14.3623	-72.1081	45.4306	-2.61407	104.529	0
0.4213	-104.93	-12.3808	-9.36548	-132.669	11.6115	-53.5	44.2081	-6.58299	52.6532	0.317127
0.4220	-107.683	-9.61615	-9.67199	-78.0276	-23.7808	-8.033	34.7513	0.127516	36.1623	0.317127
0.4227	-107.963	-9.01514	-9.67199	-42.9486	-71.393	41.4142	30.784	17.2146	42.2639	0.317127
0.4233	-100.063	-10.2472	-9.67199	-28.5829	-90.6103	75.2894	26.2015	2.56625	49.2843	0.317127
0.4240	-88.1336	-9.31564	-7.83295	-25.242	-83.6003	108.249	23.7643	-20.004	53.2657	0.317127
0.4247	-80.194	-7.78307	-5.07439	-26.1329	-85.7299	127.468	35.6662	-10.8548	50.5094	0
0.4253	-78.3587	-9.31564	-6.30041	-29.214	-78.0988	126.857	42.9856	-3.21977	34.0184	0.317127
0.4260	-77.4809	-11.7497	-9.05897	-31.6268	-42.4023	122.892	32.6138	-8.71888	-1.67265	0.317127
0.4267	-76.2441	-12.3808	-9.36548	-32.8518	-30.4992	108.554	15.5221	-5.6585	-16.326	0
0.4273	-76.5633	-10.5477	-7.21993	-29.5109	-60.0984	95.4227	-2.17688	5.02093	-7.7743	0
0.4280	-79.2763	-8.71463	-5.99391	-21.8641	-62.8492	76.2045	-11.334	6.23232	-14.1822	0
0.4287	-83.5853	-9.9467	-6.91343	-8.46351	-22.8681	36.5334	-9.50415	-1.70552	-27.9168	0
0.4293	-86.2983	-11.4492	-7.52644	0.408327	-12.1819	-1.93199	-9.50415	-5.0528	-25.7965	0.317127
0.4300	-85.6998	-9.9467	-5.6874	2.22724	-26.2273	-16.8795	-8.88895	-2.00837	-16.326	0.317127
0.4307	-83.8645	-7.48256	-3.84836	11.0991	-35.6838	1.4381	-0.0394363	1.6577	-17.2448	0.317127
0.4313	-85.1014	-10.5477	-6.91343	15.9619	-78.0988	16.0805	2.39773	-0.478183	-26.6917	0.317127
0.4320	-84.1837	-10.5477	-6.30041	18.7088	-112.895	-1.61241	-12.2489	-1.08388	-27.3043	0.634253
0.4327	-80.5131	-6.58105	-1.73687	28.7685	-79.6326	-53.8051	-30.8629	1.35485	-22.4277	0.317127
0.4333	-80.8323	-9.31564	-4.15487	30.3276	-28.0527	-126.436	-32.393	-1.38673	-21.8151	0.317127
0.4340	-80.5131	-11.1487	-5.99391	17.4838	7.96073	-138.028	-14.694	-3.21977	-17.8573	0.95138
0.4347	-76.2441	-9.01514	-3.23535	12.2869	39.0811	-73.3428	1.48281	-2.61407	-11.7557	-0.95138
0.4353	-72.8927	-9.61615	-2.65639	40.6842	62.583	-17.7946	7.27994	-3.84141	-9.3056	-2.85414
0.4360	-70.1398	-8.71463	-1.73687	51.672	66.5507	-10.7785	19.1818	-2.00837	-1.67265	-0.634253
0.4367	-68.3045	-7.78307	-1.73687	9.24304	70.5184	-25.7259	43.2932	-0.781033	14.4885	0.634253
0.4373	-66.1899	-8.11362	-2.65639	-14.5513	111.412	-11.0835	68.3195	-1.08388	30.9794	0
0.4380	-62.7987	-7.18206	-1.73687	16.8899	155.969	12.4199	77.4766	-0.478183	37.9998	0.317127
0.4387	-60.6841	-6.88155	-0.817351	55.0128	189.536	9.36941	67.4046	-0.781033	32.5107	0.317127
0.4393	-58.2503	-5.64949	0.715182	65.1096	226.158	5.40375	45.7382	-0.175334	19.0824	0
0.4400	-54.5798	-4.74797	1.6347	63.8847	242.029	8.14921	7.89515	-0.478183	1.67265	0
0.4407	-52.7445	-5.04848	1.6347	69.0815	217.31	4.4886	-33.3079	-1.70552	-11.7557	0.317127
0.4413	-52.146	-5.34898	3.16724	75.7633	163.905	-33.3522	-43.38	-2.00837	-16.6323	0.317127
0.4420	-50.59	-5.64949	4.69977	74.2413	99.2049	-87.9853	-24.7581	-1.38673	-15.101	0.317127
0.4427	-47.5578	-6.88155	4.97222	70.3065	27.7865	-89.8156	-5.22926	1.052	-8.69308	0.317127
0.4433	-45.7225	-8.71463	3.78025	55.6439	-36.2923	-29.0815	4.22757	1.35485	-3.20395	0.317127
0.4440	-45.1241	-7.18206	1.94121	-7.83246	-87.8723	44.1597	-3.70701	-0.478183	-1.06013	0.317127
0.4447	-44.4857	-2.91489	-0.817351	-65.518	-112.591	93.5924	-31.7778	-0.478183	-4.73525	0.317127
0.4453	-43.2888	-1.98333	-6.30041	-35.8957	-95.5034	121.672	-69.0136	-0.781033	-20.5901	0.317127
0.4460	-41.7727	-1.68283	-6.30041	18.1149	-34.4669	138.144	-90.0726	-1.08388	-35.5497	0
0.4467	-39.9374	-0.480807	1.02169	31.5154	34.5049	129.298	-68.706	2.56625	-36.7748	0
0.4473	-35.3492	0.450757	4.69977	27.5807	68.0718	101.219	-24.4584	8.36821	-27.6105	0.317127
0.4480	-29.8433	3.48585	6.19825	22.3838	76.9199	98.4732	0.26028	8.67106	-16.9385	0.317127
0.4487	-28.008	5.61944	10.1828	14.7369	73.2691	124.417	-0.34704	2.56625	-14.1822	0.317127
0.4493	-27.7288	5.94999	12.6008	13.5119	52.5053	129.908	-8.28163	-2.31122	-14.4885	0
0.4500	-24.3774	2.88484	8.95681	2.22724	14.3623	97.8631	-14.3864	0.127516	-10.8369	0.317127
0.4507	-20.1083	-1.98333	3.47374	-35.0048	-22.8681	87.4914	-10.4191	2.88504	-3.81647	0.634253
0.4513	-17.0362	-4.14696	3.16724	-49.9644	-41.1727	95.4227	0.875486	2.88504	1.36639	0.317127
0.4520	-12.1687	-3.2154	4.69977	-24.908	-35.0754	46.295	9.10979	7.15681	1.06013	0
0.4527	-6.66288	-0.781312	2.86073	-9.05744	-20.4216	2.35325	10.6399	5.02093	0.164909	0
0.4533	-3.59077	0.751261	0.408676	-12.3983	-24.9977	18.826	7.58755	-3.84141	3.20395	0.317127
0.4540	0.0398975	-5.34898	-0.510844	-14.8483	-24.9977	22.4866	7.89515	-3.21977	7.7743	0.634253
0.4547	1.87518	-15.1154	-0.510844	-14.5513	-5.47617	-6.50774	3.62025	2.2634	8.38682	0.317127
0.4553	1.27672	-12.6813	1.94121	-7.83246	-1.50848	-30.3017	-11.9413	2.2634	2.59143	0.634253
0.4560	2.47364	-4.14696	5.58523	4.6772	-13.1073	-48.9243	-16.8235	-1.38673	-3.81647	0.317127
0.4567	3.39129	-0.781312	7.11777	12.2869	-3.6381	-75.1732	-15.9086	-6.58299	-8.38682	0.317127
0.4573	3.112	3.18535	7.73078	16.5929	9.48189	-74.8681	-27.8105	-9.62742	-12.3682	0.634253
0.4580	4.02965	7.45251	8.34379	19.9338	-2.72541	-30.9118	-38.7975	-13.2935	-16.6323	0.317127
0.4587	4.30893	5.61944	7.42427	15.6649	-5.7804	5.0987	-37.5749	-14.218	-17.8573	0.317127
0.4593	4.02965	2.58434	6.50475	9.54001	12.5369	8.75931	-29.3406	-5.35565	-14.1822	0.317127
0.4600	4.94729	1.65278	5.89174	10.468	14.6665	14.8603	-17.4387	0.430365	-15.4072	0
0.4607	5.22657	-0.781312	4.69977	13.846	12.2326	35.0082	-6.45178	-1.08388	-18.4698	0.317127
0.4613	4.02965	-6.28055	2.24772	13.215	18.6342	45.0748	-4.62194	-2.91692	-18.1636	0.634253
0.4620	4.94729	-8.41413	1.94121	13.846	8.26496	34.093	-10.1115	-3.21977	-14.4885	0.317127
0.4627	6.14421	-6.28055	4.08676	19.6368	-13.4115	9.67446	-12.5565	-0.175334	-9.91812	0
0.4633	5.54575	-4.44747	5.27873	22.6807	-33.2373	-18.4047	-13.1638	3.49074	-7.7743	0.317127
0.4640	5.86493	-3.5159	5.89174	20.8618	-52.4673	-43.7384	-14.694	3.49074	-7.16178	0.317127
0.4647	5.54575	-1.98333	6.50475	17.7808	-59.49	-67.8374	-16.8235	-0.781033	-8.99934	-2.21989
0.4653	6.78257	1.35227	5.58523	16.8899	-52.7715	-92.8661	-21.0984	0.749154	-8.38682	-1.90276
0.4660	9.21632	5.61944	3.47374	17.7808	-41.7938	-116.369	-25.3733	7.45966	-1.97891	0.634253
0.4667	9.4956	2.88484	4.39326	17.1869	-35.9881	-138.943	-26.8956	4.70214	1.06013	0.634253
0.4673	9.4956	-1.38232	7.73078	18.1149	-35.6838	-143.839	-22.321	-3.21977	4.73525	0
0.4680	10.4132	1.65278	8.95681	25.4277	-40.5642	-117.59	-2.48449	-2.91692	13.8759	0.317127
0.4687	11.3309	3.18535	8.03729	46.772	-59.49	-78.5287	21.9345	10.8069	17.5511	0.317127
0.4693	13.1662	8.08357	5.27873	62.3627	-75.665	-36.4027	39.3259	24.5467	14.7947	0.317127
0.4700	16.8367	25.4828	4.69977	29.1026	-77.7946	8.45426	46.038	24.5467	15.7135	0.317127
0.4707	21.1058	32.785	12.3284	-16.7043	-78.4157	27.6724	39.3259	35.2262	16.9385	0.634253
0.4713	21.7042	26.0838	13.8269	-17.5952	-74.448	13.3351	31.6989	50.1774	8.69308	0.317127
0.4720	18.672	26.9853	9.26331	10.1711	-64.0661	12.4199	39.3259	45.6027	2.28517	0.317127
0.4727	17.1559	25.4828	12.0219	32.7404	-57.9688	21.5714	62.8221	57.8124	13.5932	0.317127
0.4733	14.403	13.8833	10.1828	35.1904	-46.37	-3.15219	81.7436	79.1712	21.8151	0.317127
0.4740	10.4132	13.5528	4.97222	32.4435	-30.4992	-34.5724	77.169	47.4358	18.7761	0
0.4747	8.89714	0.150252	-7.52644	21.7527	-35.6838	-22.9805	56.11	-6.88584	21.2026	0
0.4753	5.54575	-40.4479	-30.1058	-23.7201	-46.37	24.0118	28.9463	-16.0351	18.1636	0.317127
0.4760	4.30893	-53.8805	-23.3967	-89.3123	-42.0981	52.3961	5.4501	-20.9285	9.91812	0
0.4767	6.14421	-30.982	0.102169	-130.516	-38.7388	35.3132	-4.00673	-48.9979	11.7557	0.317127
0.4773	4.02965	-9.01514	4.39326	-98.1841	-32.3246	9.67446	-8.58923	-45.6506	10.2244	0.317127
0.4780	4.94729	-1.38232	3.16724	-6.01355	-10.0523	19.131	-10.4191	-25.5031	-5.04151	0
0.4787	11.3309	3.78636	4.69977	41.9092	9.78612	46.6001	1.1752	-19.7012	-16.9385	0
0.4793	12.8869	12.0502	3.78025	-20.0452	12.8411	62.4627	9.10979	-3.52262	-19.3886	0.317127
0.4800	10.4132	12.0502	-1.12386	-111.288	19.8511	71.9338	-2.17688	16.6089	-23.0402	0.317127
0.4807	9.81478	8.08357	-2.04338	-130.516	31.4499	70.7136	-14.0788	12.0343	-21.8151	0
0.4813	6.78257	16.6179	8.6503	-100.003	33.288	46.295	-18.3537	-12.6878	-12.9572	0
0.4820	4.62811	33.0856	20.2635	-49.6303	36.0261	16.0805	-24.7581	-27.0333	-21.8151	0
0.4827	12.2485	38.5848	32.4557	9.24304	40.9192	-10.4734	-26.8956	-28.2447	-39.2249	0.317127
0.4833	20.1881	33.0856	41.6168	42.5032	33.288	-51.3647	-23.5435	-67.3123	-41.3451	0.634253
0.4840	17.1559	23.9502	23.9075	54.4189	13.7538	-68.1425	-19.2686	-140.554	-34.631	0.317127
0.4847	12.2485	12.3507	-16.6876	68.1535	-5.47617	-47.094	-8.58923	-154.294	-26.6917	0.317127
0.4853	11.9692	5.94999	-46.589	87.0851	-16.4539	-47.7041	5.4501	-75.8558	-17.2448	0
0.4860	13.4854	-8.11362	-44.4435	92.5789	-7.60579	-58.991	9.10979	-1.08388	-8.99934	0
0.4867	16.5176	-29.78	-22.1706	73.0535	2.45921	-45.8738	9.10979	34.3176	-1.97891	0.317127
0.4873	19.869	-26.1138	4.08676	55.9408	-5.17194	-29.6916	17.6596	67.8861	6.87907	0
0.4880	19.2705	-8.11362	23.601	40.3873	0.938048	-17.4896	17.352	69.7191	13.287	0.317127
0.4887	15.0015	-1.68283	27.5856	26.3557	31.7542	-4.67744	5.4501	44.3754	14.4885	0.317127
0.4893	20.7866	0.150252	28.7776	-22.4951	40.6149	-7.42289	13.6923	15.3975	17.5511	0
0.4900	36.0673	5.61944	37.3257	-152.789	6.73113	-26.336	30.1688	-26.4117	19.0824	0
0.4907	41.254	11.1187	49.5519	-198.261	-32.9331	-38.5526	20.712	-46.862	9.61186	0.317127
0.4913	32.0776	12.6512	44.9543	-99.7061	-47.5869	-33.0471	2.09801	-40.7572	-1.06013	0.317127
0.4920	22.0234	9.5861	14.1334	-19.4512	-35.3796	-25.7259	-7.0591	-38.6213	-4.73525	0.317127
0.4927	23.2602	5.31893	-7.83295	-8.76048	-11.5735	-29.9966	-16.5238	-33.7438	-5.34777	0
0.4933	28.7262	7.45251	-2.34988	-10.5794	-3.33387	-37.9425	-26.2882	-23.6701	-5.96029	0.317127
0.4940	27.2101	14.1838	5.27873	13.846	-5.47617	-35.7926	-18.961	20.275	-4.12273	0.634253
0.4947	22.0234	19.3525	11.1024	34.8934	22.9061	-20.8451	6.98023	75.5051	-1.97891	-0.317127
0.4953	19.5897	27.9169	26.9726	36.1184	58.9195	-14.7441	37.4961	49.5717	-0.141351	-2.53701
0.4960	24.1779	34.9186	35.2142	43.1342	57.7026	-16.5744	64.3522	14.7759	9.61186	-1.58563
0.4967	29.0454	33.0856	24.214	18.4118	30.233	-9.55825	60.0773	41.331	15.7135	0.634253
0.4973	25.9733	31.8835	15.3594	-44.4706	-0.900019	14.2502	18.5745	38.5894	8.69308	0.634253
0.4980	22.3426	28.5179	20.2635	-60.3211	-25.6188	43.2445	-24.4584	0.749154	1.36639	0.317127
0.4987	22.9411	6.25049	27.5856	-32.2579	1.85074	53.0062	-58.3342	11.4286	-5.04151	0.317127
0.4993	23.5395	-26.7149	26.3596	-18.2262	88.5187	50.8708	-82.4377	48.3443	-14.4885	0
0.5000	22.9411	-40.1474	15.9724	-18.2262	128.804	43.5496	-84.8827	59.9482	-16.6323	0.317127
0.5007	22.9411	-27.9469	4.08676	-13.9574	107.749	25.8421	-71.151	43.4669	-10.5306	0.317127
0.5013	21.1058	-13.5828	2.24772	-23.7201	100.422	4.4886	-53.7517	-6.28014	-8.08056	0.317127
0.5020	15.3206	-3.5159	8.34379	-74.3527	100.726	-12.9138	-30.8629	-56.0271	-5.96029	0
0.5027	11.9692	8.38408	16.5854	-99.7061	83.9426	-15.6593	-4.31433	-67.918	1.06013	0.317127
0.5033	11.9692	21.1856	21.149	-58.7991	48.8545	-11.3886	5.4501	-56.9357	1.67265	0.317127
0.5040	9.4956	27.6164	12.6008	-26.1329	6.42689	-8.6431	2.39773	-51.1337	-1.97891	0.317127
0.5047	5.54575	24.5512	-4.15487	-23.0891	-8.51849	2.96335	3.31265	-47.7865	0.164909	0.317127
0.5053	3.71047	16.0169	-7.52644	-13.9574	-0.900019	12.1149	-1.56957	-32.8193	1.36639	0
0.5060	3.112	8.38408	-3.54185	-3.56358	-1.20425	10.8947	-11.334	-19.0955	-1.67265	0
0.5067	4.94729	9.28559	-10.898	-1.11362	-5.47617	3.8785	-14.3864	-14.8237	-4.42899	0.317127
0.5073	9.21632	2.28383	-19.1056	7.42413	-12.1819	-8.6431	-15.6089	18.1391	-6.243	0.317127
0.5080	7.9795	-21.5161	-24.9292	29.6965	-17.6835	-11.3886	-15.9086	85.276	-5.04151	0.634253
0.5087	3.71047	-32.2141	-35.2823	47.7	-14.02	1.4381	-12.5565	122.813	0.164909	0.317127
0.5093	6.78257	-36.1807	-38.0409	35.4874	-12.1819	13.6401	-5.22926	98.3942	5.34777	0.317127
0.5100	11.6501	-43.5131	-34.3628	14.143	-20.4216	16.0805	5.1425	21.8052	6.57281	0.317127
0.5107	11.0516	-21.5161	-36.5083	19.3399	-32.3246	14.5553	10.9475	-61.2075	8.08056	0.634253
0.5113	11.0516	13.8833	-31.6383	34.8934	-50.0334	16.0805	10.6399	-88.974	11.4494	0.317127
0.5120	10.4132	15.3858	-16.9941	43.7281	-68.0338	30.1128	7.27994	-65.4792	7.7743	0
0.5127	0.95754	-3.5159	-16.3811	42.5032	-72.61	49.6506	2.70533	-48.9979	-0.753871	0.317127
0.5133	-7.8997	-12.3808	-19.4121	36.4154	-64.3704	51.4809	1.48281	-48.9979	-1.97891	0.317127
0.5140	-6.66288	-12.9818	-2.65639	30.9215	-46.9784	37.1435	1.48281	-9.62742	1.97891	0.317127
0.5147	-5.74524	-5.94999	8.34379	-13.6233	-30.8035	35.9233	3.01293	52.0104	4.12273	0.317127
0.5153	-5.14678	5.01843	-3.54185	-76.2087	-23.4765	52.3961	9.41739	23.941	5.34777	0.317127
0.5160	1.27672	4.71792	-16.6876	-81.3685	-18.2919	58.192	13.3847	-86.2324	5.04151	0.317127
0.5167	8.57796	-7.48256	-9.05897	-48.1084	-11.5735	50.5658	18.5745	-113.999	3.51021	0.634253
0.5173	15.9191	-15.7164	7.11777	-24.908	-5.17194	53.3112	25.9018	-56.9357	4.73525	0.317127
0.5180	19.5897	-21.5161	10.7958	-12.1013	-3.33387	64.293	31.3913	-33.1381	9.61186	0
0.5187	20.5073	-31.9136	6.81126	7.7211	0.329584	80.1702	23.7643	-23.3672	6.26655	0.317127
0.5193	26.8909	-11.1487	0.102169	27.5807	7.64382	105.199	-1.26196	1.96055	-6.54926	0.317127
0.5200	30.8807	26.0838	-7.83295	38.5684	11.9284	110.995	-14.3864	5.32377	-11.7557	0.317127
0.5207	25.694	34.0171	-14.2355	57.7597	21.385	77.1197	-8.88895	-15.4294	-9.3056	0.317127
0.5213	18.3528	34.3176	-12.3965	83.7071	30.233	25.8421	-6.14418	-8.71888	-8.38682	0.317127
0.5220	11.6501	37.6833	6.50475	103.567	30.5373	-21.7603	-6.75939	21.8052	-9.3056	0.317127
0.5227	8.57796	36.4512	23.601	120.939	33.5922	-71.498	-1.26196	10.5041	-8.38682	0.317127
0.5233	12.2485	30.0505	18.4245	135.305	27.178	-114.844	0.567883	-23.6701	-8.99934	0.634253
0.5240	16.8367	-1.98333	1.94121	134.674	10.6988	-111.489	-8.88895	-22.1399	-13.2634	0.317127
0.5247	17.4352	-34.3477	-12.3965	118.489	3.68881	-79.1388	-10.7267	7.45966	-13.2634	-2.21989
0.5253	18.3528	-18.7815	-16.3811	112.401	2.76344	-58.3809	2.70533	16.6089	-7.7743	-1.58563
0.5260	20.1881	8.98509	-3.23535	105.089	-5.7804	-40.993	5.4501	-22.1399	-8.08056	0.634253
0.5267	17.1559	15.0853	12.9073	90.4259	-14.3242	-22.3704	-3.70701	-55.1027	-11.7557	0.317127
0.5273	8.89714	21.1856	16.5854	118.489	-13.7158	-2.54209	-0.954359	-40.1515	-8.38682	0
0.5280	-1.47621	10.2172	13.5203	113.626	-16.4539	17.6058	7.58755	-11.1576	-4.73525	0.317127
0.5287	-12.7672	-14.2139	5.58523	-90.5373	-11.5735	24.3169	9.41739	3.18789	2.28517	0.317127
0.5293	-20.7068	-24.2808	-18.7991	-306.283	-9.44386	18.5209	10.3323	1.052	12.3682	0.317127
0.5300	-19.1907	-35.8802	-45.976	-257.766	-39.3473	19.4361	8.19487	-2.61407	10.5306	0.317127
0.5307	-15.7994	-64.5484	-52.6851	-112.81	-58.5773	34.7031	6.06531	-6.88584	4.42899	0.317127
0.5313	-16.1186	-88.0478	-65.5243	-50.8553	-52.4673	53.0062	8.50247	-26.1088	6.26655	0.317127
0.5320	-12.448	-39.2158	-92.3607	-26.1329	-51.8588	62.4627	9.725	-20.3069	9.3056	0.317127
0.5327	-0.877745	70.9491	-71.9269	-31.6268	-46.0657	58.192	10.0326	16.6089	8.69308	0.317127
0.5333	9.21632	114.883	-19.1056	-91.4653	-36.2923	42.9395	11.5548	33.0903	7.46804	0.317127
0.5340	9.81478	67.5835	-1.43036	-154.311	-28.3569	25.5371	15.2145	39.8008	6.57281	0.317127
0.5347	10.4132	38.5848	-1.73687	-137.235	-17.3792	13.6401	14.6072	49.2688	4.73525	0.317127
0.5353	15.0015	38.8853	10.1828	-77.7307	-6.08463	2.96335	5.7577	49.2688	-0.447611	0.317127
0.5360	23.8587	26.0838	24.5205	-45.3614	2.15497	-11.3886	-3.39941	30.9544	-4.42899	0.317127
0.5367	31.7983	-1.38232	28.1646	-31.6268	10.3946	-26.9461	-9.19655	1.35485	-5.04151	0.317127
0.5373	28.4469	-31.9136	29.0841	-17.8922	24.4399	-37.6374	-14.0788	-23.3672	-3.51021	0.317127
0.5380	25.694	-33.4161	37.0192	3.74919	32.9838	-59.9061	-17.1311	-40.4543	-2.28517	0.317127
0.5387	31.1599	-36.7818	39.1647	30.3276	40.298	-103.848	-19.5762	-27.639	-3.20395	0.317127
0.5393	33.9129	-77.0794	24.827	59.3188	57.0941	-109.963	-21.0984	4.39929	-2.59143	0.317127
0.5400	27.2101	-101.781	2.86073	84.0041	65.3338	-64.1768	-13.7712	16.3061	2.28517	0.317127
0.5407	14.0838	-97.5137	-13.6225	90.129	51.5926	-33.3522	1.48281	24.2439	6.87907	0
0.5413	0.0398975	-105.147	-26.1552	80.9602	25.0484	-22.0653	9.725	34.3176	9.61186	0.317127
0.5420	-9.09663	-131.381	-40.1864	69.3785	-0.595787	-10.1683	10.0326	22.4109	15.4072	0.317127
0.5427	-10.9319	-79.213	-36.5083	59.6158	-23.1723	-3.45724	4.22757	19.3505	16.6323	0.317127
0.5433	-5.42606	53.5499	-12.3965	51.9689	-38.4346	-2.84714	-3.70701	33.0903	11.1432	0.634253
0.5440	4.62811	66.3514	-2.04338	49.519	-37.205	-4.37239	-5.22926	14.473	8.99934	0.634253
0.5447	7.9795	28.5179	-20.9446	53.4909	-22.5639	-2.23704	-3.70701	-36.7882	7.16178	0.317127
0.5453	-3.59077	83.1496	-41.4125	29.6965	-6.99733	2.0482	-7.67431	-73.1142	0.753871	0
0.5460	-19.1907	116.716	-36.5083	-73.7588	0.938048	3.2684	-13.1638	-67.6151	-1.97891	0
0.5467	-17.9539	92.916	-9.97849	-179.033	5.81843	1.4381	-9.19655	-56.6328	-0.141351	0
0.5473	0.0398975	72.7822	28.1646	-199.189	18.6342	-10.1683	3.31265	-67.6151	-0.753871	0.317127
0.5480	19.5897	61.1827	61.1311	-176.917	30.233	-16.2694	11.2472	-44.4232	-1.97891	0.634253
0.5487	27.2101	31.8835	62.3571	-117.079	31.4499	-6.50774	11.5548	17.2146	-1.36639	0.317127
0.5493	23.5395	14.1838	38.5517	-51.4864	39.3853	-5.89764	8.50247	57.2067	-1.97891	0
0.5500	23.5395	11.7497	12.9073	-31.9609	49.463	-14.134	2.70533	75.5051	-5.65403	0.317127
0.5507	36.6658	-22.1472	11.7154	-6.60748	46.408	-12.3037	-3.39941	97.4856	-6.243	0.317127
0.5513	42.1716	-65.1794	23.9075	39.7562	40.298	-4.67744	-4.00673	100.53	-1.36639	0.317127
0.5520	21.1058	-102.712	14.4399	40.3873	36.3303	-1.30736	-3.09181	50.1774	0.164909	0.317127
0.5527	3.71047	-74.0143	6.19825	11.0991	27.4823	0.827994	-5.53686	-4.14426	-3.20395	0.317127
0.5533	10.4132	64.2178	25.7466	4.08327	19.5469	6.3189	-5.83658	-22.1399	-3.81647	0.317127
0.5540	21.1058	110.015	43.4558	6.19915	21.385	8.14921	-1.26196	-43.1959	-1.97891	0.634253
0.5547	21.425	14.4843	41.6168	3.15526	20.168	3.8785	-1.56957	-69.1453	-3.81647	-0.95138
0.5553	17.4352	-66.3815	41.6168	3.45222	14.058	5.40375	-4.31433	-68.5396	-4.42899	-2.53701
0.5560	12.5677	-150.012	48.6324	5.90218	16.2003	12.1149	-4.00673	-52.6639	-0.447611	-0.634253
0.5567	4.94729	-265.977	49.2454	3.15526	15.8961	9.97951	-7.3667	-48.3922	-1.97891	0.634253
0.5573	5.22657	-331.276	52.2764	1.63331	5.20997	10.2846	-10.1115	-50.2252	-3.20395	0.317127
0.5580	15.3206	-249.509	55.648	0.705293	-5.17194	20.9613	-6.14418	-38.6213	2.28517	0.317127
0.5587	20.1881	-92.315	49.5519	-4.78857	-12.1819	27.9775	-3.70701	-16.6567	4.73525	0.317127
0.5593	11.6501	29.1189	34.2947	-6.90444	-17.3792	27.9775	-5.22926	1.35485	1.36639	0.317127
0.5600	-5.74524	108.482	-10.285	4.6772	-18.2919	27.6724	-6.75939	12.64	-1.97891	0.317127
0.5607	-17.6347	175.014	-53.2981	15.6649	-14.3242	22.4866	-3.09181	40.7253	-2.59143	0
0.5613	-16.1186	212.246	-49.6541	16.2588	-5.17194	7.84416	6.67263	81.61	-1.36639	0.317127
0.5620	-8.49817	157.014	-38.3474	15.9619	2.76344	1.13304	14.6072	97.1828	2.59143	0.317127
0.5627	-4.50842	85.8842	-44.137	8.94608	3.68881	5.40375	15.8297	93.5167	8.69308	0.317127
0.5633	-4.50842	83.4501	-31.3318	-1.41059	-1.20425	5.0987	11.5548	77.0353	7.7743	0.317127
0.5640	-6.3437	101.15	1.02169	0.705293	-3.33387	8.75931	6.98023	27.2883	3.81647	0.317127
0.5647	-11.2511	101.751	7.73078	8.64911	-2.11695	16.9957	3.62025	-33.7438	3.20395	0.317127
0.5653	-14.2833	95.0496	1.94121	12.621	-5.7804	6.3189	-4.00673	-39.8486	1.67265	0.317127
0.5660	-10.9319	113.651	8.34379	15.0339	-14.02	-23.2855	-13.1638	19.9721	-1.97891	0.317127
0.5667	-7.58052	170.747	3.16724	19.0058	-16.4539	-37.3324	-14.0788	20.8807	-0.141351	0.317127
0.5673	-6.98206	159.448	-10.898	20.8618	-14.02	-20.235	-10.4191	-63.0405	3.51021	0
0.5680	-5.74524	63.0158	-16.3811	17.7808	-14.9327	-3.15219	-9.19655	-96.9118	1.06013	0.317127
0.5687	-2.39385	9.5861	-8.44596	12.918	-17.6835	-1.93199	-5.22926	-60.9046	-1.06013	0.317127
0.5693	2.19436	15.0853	14.7464	19.3399	-17.3792	-5.89764	3.92786	-21.837	-1.36639	0.317127
0.5700	5.22657	28.8184	17.5049	34.5965	-16.7581	-13.829	10.3323	-9.32457	-5.34777	0
0.5707	0.95754	26.3843	-10.898	37.3434	-16.7581	-22.3704	19.4894	-15.4294	-4.73525	0
0.5713	-9.09663	34.9186	-26.7342	31.5154	-8.83539	-24.5057	35.6662	-21.837	4.42899	0.317127
0.5720	-8.81735	60.2512	-20.3316	27.8776	-4.24657	-20.8451	40.5484	-27.0333	8.08056	0.317127
0.5727	5.54575	32.4845	-15.1551	27.5807	-14.02	-14.4391	29.8691	-20.6256	2.28517	0.317127
0.5733	15.5999	-1.68283	-18.2201	42.2062	-19.8131	-1.00231	18.8821	-2.00837	-3.51021	0.317127
0.5740	11.9692	19.9836	-18.2201	58.6878	-17.9877	9.97951	8.81007	3.79359	-6.54926	0.634253
0.5747	2.47364	41.3494	-11.1705	58.6878	-14.9327	9.36941	-1.56957	-25.2003	-8.99934	0.317127
0.5753	-1.79539	41.3494	1.02169	62.3627	-12.1819	10.5896	-5.22926	-52.3611	-7.46804	0.317127
0.5760	4.94729	34.6181	22.0685	48.6281	-12.7904	13.3351	-2.17688	-27.3361	-1.67265	0.634253
0.5767	10.4132	31.8835	19.957	-2.3386	-14.02	3.57345	2.39773	31.5601	-3.20395	0.634253
0.5773	0.95754	26.3843	-15.7681	-12.3983	-14.9327	-7.11784	3.92786	77.3382	-6.243	0.317127
0.5780	-7.26134	-0.180303	-24.9292	41.3153	-13.4115	-6.81279	3.01293	78.8684	1.06013	0.317127
0.5787	-4.50842	-22.7482	-4.46137	65.7036	-2.72541	-5.59259	0.875486	78.5655	8.69308	0
0.5793	-3.90995	-13.9134	6.81126	47.7	7.33959	-8.033	-2.48449	128.918	8.99934	0.317127
0.5800	-3.59077	4.71792	12.3284	11.99	12.2326	-2.23704	-1.56957	122.813	10.5306	0.317127
0.5807	-0.239385	8.38408	13.2138	-61.5461	17.113	13.9452	2.70533	-15.7322	13.287	0
0.5813	0.0398975	-0.180303	7.42427	-86.2684	16.2003	18.2159	0.567883	-128.647	9.61186	0.317127
0.5820	0.95754	-4.44747	7.73078	-39.2737	11.6115	9.06436	-5.53686	-135.677	4.42899	0.317127
0.5827	-0.558565	8.98509	11.1024	-44.4706	7.33959	4.79365	-8.88895	-137.51	5.96029	0.317127
0.5833	-9.69509	19.052	2.24772	-85.6745	-1.20425	3.2684	-11.6416	-143.917	5.04151	0.317127
0.5840	-15.7994	0.450757	-11.1705	-77.4337	-6.99733	4.79365	-11.0264	-84.3994	0.164909	0.634253
0.5847	-14.2833	-35.2492	-18.5266	-50.5583	-6.08463	6.929	-6.75939	27.91	-1.97891	-1.26851
0.5853	-12.7672	-70.6486	-20.9446	-31.9609	-4.24657	3.8785	-4.62194	109.695	-5.65403	-2.53701
0.5860	-13.0864	-89.8809	-21.8641	-14.8483	-3.6381	2.6583	-4.00673	120.98	-8.99934	-0.317127
0.5867	-8.81735	-114.011	-18.2201	-12.3983	-4.5508	2.96335	-3.39941	77.0353	-6.85552	0.95138
0.5873	2.79282	-141.778	-6.91343	-17.0013	-6.6931	1.74315	-3.70701	21.1835	-3.81647	0.317127
0.5880	6.46339	-65.7804	-0.204338	-15.7763	-10.6608	1.13304	-3.70701	-4.74995	-3.20395	0.634253
0.5887	0.0398975	53.2494	2.24772	-10.8764	-11.5735	4.18355	-0.34704	-37.107	-1.06013	0.317127
0.5893	-3.90995	32.785	4.08676	-3.56358	-9.44386	6.62395	3.31265	-64.2678	1.36639	0.317127
0.5900	-5.74524	-12.3808	1.94121	4.38024	-10.965	3.2684	1.1752	-29.472	-2.89769	0.317127
0.5907	-5.42606	43.483	2.24772	9.54001	-10.6608	2.0482	-0.34704	0.127516	-6.243	0
0.5913	-3.90995	48.9522	3.16724	12.2869	-7.91002	4.4886	1.48281	-5.35565	-6.85552	0.317127
0.5920	-5.74524	-25.1823	0.715182	13.5119	-8.21426	3.2684	0.875486	-11.7633	-9.3056	0.634253
0.5927	-2.07467	-74.9458	1.02169	14.143	-9.13963	1.74315	-0.654643	-25.806	-10.8369	0.317127
0.5933	7.70022	-138.412	4.08676	15.0339	-7.91002	2.6583	0.26028	-34.3495	-8.69308	0.317127
0.5940	6.78257	-195.478	3.47374	13.5119	-7.91002	1.4381	-0.954359	-40.1515	-9.61186	0.317127
0.5947	-1.15703	-224.176	-3.84836	7.7211	-10.0523	-1.00231	-4.00673	-43.5147	-11.4494	0
0.5953	-4.22913	-246.744	-13.316	9.54001	-9.74809	0.827994	-3.39941	12.0343	-8.99934	0.317127
0.5960	-6.3437	-189.077	-23.7032	13.846	-9.44386	1.4381	-2.48449	60.2511	-7.7743	0.317127
0.5967	-9.41581	-116.446	-39.5734	-14.5513	-10.0523	-0.392208	-3.70701	26.3798	-6.85552	0.317127
0.5973	-4.50842	-99.9478	-47.5085	-35.5987	-9.13963	1.13304	-3.09181	19.9721	-1.67265	0.317127
0.5980	5.22657	-135.047	-37.1214	-4.15751	-7.91002	1.4381	-1.26196	64.22	4.12273	0.317127
0.5987	7.70022	-179.612	-13.929	20.8618	-8.83539	-1.61241	-0.954359	67.8861	11.1432	0
0.5993	6.78257	-47.7802	5.58523	23.2747	-8.51849	-2.84714	-1.26196	20.8807	18.4698	0
0.6000	-2.39385	115.183	-1.12386	35.8214	-8.51849	-1.93199	-1.26196	-20.9285	16.9385	0
0.6007	-21.9037	65.1494	-23.0902	53.825	-9.44386	-3.45724	-3.39941	-42.2873	10.5306	0
0.6013	-35.9476	47.4497	-32.5578	67.2255	-8.21426	-3.76229	-3.39941	-84.7022	7.46804	0
0.6020	-33.1947	89.8509	-29.7993	76.6913	-5.7804	-1.61241	1.1752	-135.979	7.7743	0.317127
0.6027	-19.47	-18.481	-24.3162	76.0974	-5.47617	-2.54209	4.22757	-131.708	6.26655	0.317127
0.6033	-14.004	-26.1138	-16.3811	74.5754	-6.08463	-4.06734	3.31265	-79.8247	3.51021	0.317127
0.6040	-19.7892	174.383	-15.7681	68.4505	-4.86771	-1.30736	2.09801	-27.639	2.59143	0
0.6047	-23.739	288.214	-15.7681	4.38024	-5.17194	0.217893	0.26028	45.6027	3.51021	0.317127
0.6053	-21.3053	253.115	-4.46137	-70.0838	-6.38887	-0.392208	0.26028	127.691	6.26655	0.317127
0.6060	-17.3554	188.116	1.94121	-50.8553	-5.47617	0.217893	1.79041	135.629	7.46804	0.317127
0.6067	-12.448	98.1147	4.69977	-7.53549	-3.94234	1.13304	2.09801	113.967	7.16178	0.317127
0.6073	-4.50842	-12.6813	13.5203	-61.2491	-4.86771	1.4381	0.26028	109.998	8.69308	0.317127
0.6080	6.14421	-81.3466	31.8426	-135.713	-3.94234	4.18355	0.26028	54.4491	12.6745	0.317127
0.6087	15.5999	-95.9812	56.874	-101.822	-1.50848	5.40375	1.1752	-23.6701	11.1432	0.317127
0.6093	18.9912	-63.3464	59.905	-27.6549	-1.81271	2.0482	-0.34704	-74.3256	4.42899	0.317127
0.6100	21.425	-49.6133	32.7622	-2.96965	-1.50848	-1.00231	-0.34704	-101.184	6.26655	0
0.6107	25.3748	-132.613	1.02169	8.01806	0.0253526	-3.45724	1.1752	-107.288	11.7557	0
0.6113	23.8587	-162.813	-12.703	30.3276	-0.900019	-5.89764	1.1752	-119.801	11.7557	0.317127
0.6120	18.9912	-2.91489	-5.6874	46.1781	-2.42118	-6.50774	0.567883	-127.739	10.2244	0.317127
0.6127	15.3206	142.049	1.3282	49.853	-3.02964	-6.50774	-0.0394363	-91.7315	10.5306	-0.317127
0.6133	12.2485	122.215	-3.54185	51.672	-3.02964	-6.50774	-1.26196	-42.893	10.5306	0.317127
0.6140	5.86493	68.8155	-13.316	66.0005	-2.11695	-5.59259	-2.17688	-4.14426	7.7743	0.317127
0.6147	-4.22913	37.3828	-11.1705	86.751	-0.595787	-5.28754	-0.954359	59.9482	3.20395	-1.90276
0.6153	-6.66288	4.71792	12.6008	73.6474	1.54651	-4.37239	1.48281	96.8799	1.06013	-1.90276
0.6160	-6.3437	45.6166	16.5854	26.3557	1.54651	-1.61241	3.01293	92.6082	-0.753871	0.634253
0.6167	-9.41581	116.115	-18.5266	8.01806	1.54651	1.13304	2.70533	121.283	-8.08056	0.634253
0.6173	-4.50842	109.684	-31.9448	14.7369	2.45921	2.35325	3.01293	127.691	-15.4072	0
0.6180	-0.239385	88.3483	-1.43036	-2.3386	3.3719	2.6583	3.92786	45.6027	-12.9572	0.317127
0.6187	-3.31149	46.5181	29.3906	-6.31051	3.68881	2.35325	3.92786	-53.8913	-5.04151	0.317127
0.6193	2.19436	-68.8456	14.7464	26.6526	3.3719	1.4381	3.01293	-96.3061	-2.59143	0.317127
0.6200	5.86493	-180.213	-24.3162	55.3469	3.06767	0.827994	2.70533	-89.2768	-5.04151	0
0.6207	-10.6127	-233.943	-13.929	46.4751	2.45921	0.827994	1.1752	-55.7084	-7.7743	0.317127
0.6213	-26.4919	-224.777	29.3906	-49.6303	1.85074	1.74315	0.26028	2.56625	-3.51021	0.317127
0.6220	-24.9758	-188.146	31.8426	-186.049	2.45921	2.35325	2.09801	72.4607	5.34777	0.317127
0.6227	-17.0362	-155.511	5.27873	-205.277	3.68881	1.74315	4.22757	120.375	8.38682	0.317127
0.6233	-18.8715	48.6517	1.94121	-124.428	3.3719	2.96335	4.53518	127.994	7.16178	0.317127
0.6240	-38.7006	277.847	7.11777	-71.9398	3.06767	3.8785	3.92786	70.6277	5.65403	0.317127
0.6247	-58.5296	213.448	-6.30041	-53.3053	2.76344	-1.61241	0.875486	-52.6639	3.20395	0
0.6253	-53.6621	81.016	-27.6537	-36.5267	2.15497	-7.42289	-2.48449	-154.597	-0.141351	0
0.6260	-35.9476	50.7853	-39.8799	-25.836	3.06767	-7.42289	-2.48449	-181.136	-1.97891	0
0.6267	-29.2449	69.4166	-36.2018	-23.0891	3.99304	-6.50774	-1.56957	-155.202	-4.12273	0
0.6273	-29.8433	115.183	-23.3967	-37.4547	5.5142	-6.20269	-0.0394363	-80.1276	-3.81647	0
0.6280	-13.3657	113.35	-17.9136	-58.7991	6.12266	-4.98249	2.70533	27.2883	-0.447611	0.317127
0.6287	18.9912	86.8158	-24.0097	-51.1894	6.12266	-2.54209	3.92786	95.6526	1.06013	0.317127
0.6293	32.7159	88.9493	-15.4616	-31.3298	5.20997	-0.392208	2.39773	80.3986	-1.36639	0
0.6300	28.7262	81.016	7.73078	-23.7201	4.29727	-0.392208	1.1752	30.9544	-3.81647	0
0.6307	25.9733	53.8504	8.95681	-15.4793	5.5142	-0.697258	3.62025	-10.5519	-2.28517	0.317127
0.6313	23.8587	51.1158	-2.65639	-7.53549	6.12266	1.13304	3.92786	-38.0156	-1.06013	0.317127
0.6320	27.5293	69.4166	3.78025	-4.4916	4.6015	4.18355	0.567883	-27.0333	-1.97891	0
0.6327	35.1497	56.585	20.8425	-5.3825	3.06767	7.84416	-2.17688	15.3975	-1.36639	0
0.6333	34.5512	-3.2154	32.7622	-8.12942	1.85074	12.4199	-5.83658	35.8319	-0.141351	0.317127
0.6340	28.7262	-66.3815	34.9077	-7.53549	0.633816	17.9108	-9.19655	18.4419	-0.141351	0.317127
0.6347	23.8587	-92.9461	34.9077	0.408327	2.76344	20.9613	-8.28163	3.49074	1.67265	0
0.6353	24.4572	-59.0792	43.4558	9.87409	3.99304	16.9957	-4.92165	12.0343	3.51021	-0.317127
0.6360	29.3646	-23.0487	50.7779	12.918	0.633816	5.7088	0.26028	15.7004	2.89769	0.317127
0.6367	26.8909	-19.082	44.3413	11.0991	-0.278879	-3.45724	9.10979	-5.0528	3.20395	0.317127
0.6373	17.1559	42.5514	32.7622	8.01806	1.85074	-1.93199	16.4371	-23.0644	5.34777	0
0.6380	7.06186	112.148	31.8426	5.27113	1.24228	5.40375	13.9999	-4.74995	4.12273	0.317127
0.6387	1.87518	80.415	29.0841	7.12717	2.76344	15.1654	7.58755	13.2616	2.59143	0.317127
0.6393	3.71047	4.71792	1.3282	10.765	3.99304	20.0462	1.48281	-14.5208	3.20395	0
0.6400	3.112	-41.3795	-36.5083	11.396	0.938048	15.4704	-3.39941	-15.1265	-0.141351	0
0.6407	-2.39385	-40.1474	-38.3474	13.215	0.633816	9.06436	-1.26196	41.6338	-1.67265	0.317127
0.6413	-3.90995	-38.6148	-0.510844	15.368	5.5142	5.7088	3.31265	75.808	-0.141351	0.317127
0.6420	-1.47621	-55.413	24.5205	15.368	9.17766	2.0482	1.79041	82.2316	-0.753871	0.317127
0.6427	-2.39385	33.7166	18.4245	14.4399	10.6988	0.522944	-1.26196	57.5095	-1.36639	0.317127
0.6433	-12.1687	144.783	-6.91343	13.5119	10.3946	9.36941	-0.954359	1.96055	0.753871	0.317127
0.6440	-26.4919	69.7171	-40.4929	12.621	8.56919	24.6219	-0.954359	-14.5208	1.67265	0.634253
0.6447	-35.3492	-61.5133	-61.2332	11.99	4.6015	29.1977	-2.79209	3.18789	-1.36639	-0.317127
0.6453	-31.9978	-98.7458	-62.4592	14.143	3.06767	27.6724	-2.48449	-10.2491	-3.20395	-2.85414
0.6460	-25.5743	-113.08	-49.3476	16.2588	4.90574	29.1977	2.70533	-34.0467	-0.447611	-1.58563
0.6467	-22.8214	-141.478	-27.3472	13.215	3.06767	29.5027	6.06531	-29.472	1.06013	0.95138
0.6473	-19.47	-147.578	-10.898	11.396	1.54651	29.8078	5.4501	-32.5165	1.36639	0.317127
0.6480	-15.7994	-77.9809	1.3282	12.918	2.45921	32.2482	4.53518	-19.7012	2.89769	0
0.6487	-5.42606	51.1158	19.0375	12.2869	1.54651	31.028	2.39773	54.4491	0.753871	0.634253
0.6493	7.38104	118.85	35.8272	12.2869	1.85074	28.2825	1.48281	98.697	-1.06013	0.634253
0.6500	5.22657	114.582	38.5517	14.4399	3.99304	25.232	3.01293	93.8196	-0.141351	0.317127
0.6507	-6.66288	76.1178	22.375	14.7369	4.29727	18.2159	2.39773	122.511	-0.141351	0.634253
0.6513	-9.41581	25.1522	13.8269	12.2869	3.3719	2.6583	-0.34704	137.159	-1.06013	0.95138
0.6520	2.47364	13.2523	11.4089	9.87409	3.06767	-23.8956	-3.70701	111.831	-2.59143	-1.26851
0.6527	5.22657	22.1171	-16.3811	10.1711	3.3719	-47.7041	-6.75939	76.7325	-2.89769	-1.90276
0.6533	-5.74524	8.38408	-32.5578	10.468	3.06767	-55.3303	-8.88895	19.6693	-1.36639	0.317127
0.6540	2.79282	-0.781312	-1.73687	11.0991	3.06767	-53.5	-8.88895	-41.9845	0.164909	0.634253
0.6547	25.0955	9.5861	22.0685	12.2869	4.29727	-44.9586	-5.53686	-89.8985	1.67265	0
0.6553	30.5615	2.58434	7.73078	11.99	3.68881	-31.2168	-1.86928	-109.121	1.97891	0.634253
0.6560	24.1779	-24.2808	-11.477	11.396	2.76344	-20.235	0.875486	-95.7004	1.36639	0.634253
0.6567	21.1058	-53.8805	1.02169	10.765	2.45921	-13.829	1.48281	-69.1453	0.471169	0.317127
0.6573	21.7042	-63.6469	37.9387	9.87409	3.06767	-9.8633	2.39773	-27.639	-0.141351	0.317127
0.6580	12.8869	-119.481	37.0192	6.19915	3.99304	-9.2532	2.09801	17.8362	-0.141351	0.317127
0.6587	-0.877745	-268.11	0.102169	1.33634	4.90574	-8.94815	1.79041	66.3559	2.28517	0.317127
0.6593	2.47364	-283.676	-13.6225	-6.01355	5.5142	-7.72795	3.92786	126.479	5.65403	0
0.6600	7.70022	-138.412	-20.3316	-20.6391	4.29727	-6.20269	4.84278	169.803	5.34777	0.317127
0.6607	-0.877745	-121.614	-37.4279	-27.061	2.76344	-2.84714	3.62025	185.981	3.81647	0.317127
0.6613	-2.71303	-200.977	-41.4125	-15.4793	3.06767	1.74315	2.70533	122.208	2.89769	0
0.6620	-4.22913	-190.911	-34.3628	-4.4916	1.85074	2.0482	-0.0394363	-9.02173	-1.06013	0.317127
0.6627	-7.58052	-219.879	-15.4616	0.111362	1.85074	1.74315	-1.26196	-35.5768	-3.51021	0.634253
0.6633	4.62811	-407.574	12.9073	5.60522	4.29727	5.40375	-0.954359	27.5912	-1.06013	0.317127
0.6640	10.7324	-486.607	39.4712	9.87409	4.29727	5.0987	-2.48449	42.2395	0.471169	0.317127
0.6647	1.5959	-132.913	66.9547	13.5119	3.06767	2.35325	-4.31433	27.5912	0.164909	0.634253
0.6653	1.27672	377.043	65.4221	23.2747	3.06767	3.2684	-3.70701	29.1214	2.28517	0.634253
0.6660	-1.47621	458.209	3.16724	34.5965	1.24228	1.13304	-5.53686	-15.4294	2.28517	0.317127
0.6667	-15.2009	164.947	-73.4254	36.4154	-0.278879	-1.30736	-7.3667	-103.925	0.164909	0.317127
0.6673	-13.3657	-111.247	-112.215	28.4715	3.3719	3.8785	-3.09181	-140.857	2.59143	0.317127
0.6680	0.0398975	-288.875	-110.989	11.693	6.12266	7.23405	1.48281	-131.708	1.97891	0.317127
0.6687	-2.39385	-374.909	-86.8776	-2.96965	4.90574	6.62395	3.31265	-103.319	-1.06013	0.634253
0.6693	-12.448	-291.309	-74.9579	-5.71658	3.68881	7.5391	4.53518	-40.4543	1.06013	0.317127
0.6700	-17.3554	-182.647	-49.3476	5.27113	2.76344	6.3189	3.01293	30.3487	1.67265	0.317127
0.6707	-13.6848	-77.0794	37.3257	33.3715	2.15497	3.8785	1.48281	66.3559	-1.36639	0.317127
0.6713	5.22657	235.746	106.29	58.9847	3.68881	6.01385	3.62025	93.8196	-1.67265	0.317127
0.6720	16.8367	299.513	76.3883	53.4909	4.6015	8.75931	4.53518	150.58	-1.36639	0.317127
0.6727	5.86493	-20.0136	14.4399	33.6684	3.06767	8.14921	0.875486	185.073	-3.81647	0.317127
0.6733	-2.39385	-53.8805	7.73078	32.4435	2.76344	7.5391	-1.56957	117.314	-5.34777	0.634253
0.6740	-4.22913	173.481	20.5359	41.6123	3.3719	8.14921	-0.654643	29.1214	-3.20395	0.317127
0.6747	-3.59077	212.246	7.11777	47.4031	3.99304	9.06436	0.26028	-2.31122	-0.141351	0.317127
0.6753	0.678257	149.05	-20.3316	44.9531	5.5142	11.8098	2.39773	-38.3184	2.28517	0.95138
0.6760	-2.71303	64.8489	-55.7502	43.7281	4.90574	12.725	3.62025	-92.3372	1.97891	-0.317127
0.6767	-2.99231	-118.88	-62.7658	43.1342	2.76344	9.06436	1.79041	-176.561	0.164909	-2.85414
0.6773	5.54575	-95.9812	-29.7993	-40.7956	3.3719	9.67446	3.01293	-213.493	5.34777	-1.90276
0.6780	-0.877745	81.016	-5.07439	-158.282	3.3719	11.1997	2.70533	-146.962	11.4494	0.95138
0.6787	-18.8715	40.1174	-9.05897	-147.592	1.24228	9.06436	-1.26196	-101.184	10.5306	0.634253
0.6793	-32.5963	119.15	-34.0904	-78.3246	1.85074	9.36941	-2.17688	-101.486	9.91812	0.317127
0.6800	-46.9594	428.91	-60.3137	-53.0083	3.99304	10.2846	-0.954359	-76.4615	10.2244	0.317127
0.6807	-50.3107	459.742	-26.4617	-41.7236	3.99304	8.75931	-1.26196	-36.4854	8.69308	0.317127
0.6813	-36.586	271.746	25.1335	-31.0329	4.90574	7.84416	-2.79209	-23.9729	7.7743	0.317127
0.6820	-22.5421	218.647	11.7154	-27.6549	7.03536	9.06436	-4.31433	-23.0644	7.7743	0
0.6827	-23.1405	195.749	-10.898	-28.2859	8.87342	10.8947	-4.92165	-76.7644	6.87907	0
0.6833	-28.6464	113.981	16.8919	-28.5829	11.003	13.3351	-4.62194	-152.158	5.96029	0.634253
0.6840	-6.98206	103.884	61.7441	-27.3579	12.8411	15.1654	-3.70701	-99.3506	4.42899	0.317127
0.6847	25.694	142.65	71.8247	-20.9732	12.8411	14.2502	-4.92165	-0.781033	0.753871	0
0.6853	32.0776	154.85	69.6792	-8.46351	9.17766	11.5048	-7.3667	7.15681	-2.89769	0
0.6860	27.5293	175.915	90.726	1.93027	1.24228	8.75931	-7.67431	-24.2758	-5.04151	0.317127
0.6867	27.5293	196.38	85.8559	8.35215	-4.24657	6.62395	-4.92165	-11.4605	-6.243	0.317127
0.6873	25.0955	144.483	33.9882	16.2588	-3.33387	4.18355	0.567883	38.2865	-6.243	0.317127
0.6880	23.2602	46.2176	-0.817351	22.3838	-4.5508	0.522944	4.22757	65.1286	-5.34777	0.317127
0.6887	29.963	-20.6146	25.1335	24.2027	-6.99733	-2.84714	2.39773	74.5966	-5.65403	0
0.6893	37.5834	-45.9471	65.7286	27.2466	-3.6381	-2.84714	-1.26196	71.855	-6.85552	0
0.6900	33.3144	-49.6133	80.3729	43.7281	-1.20425	-6.20269	-3.39941	4.09644	-8.08056	0.317127
0.6907	20.7866	-46.2477	63.8896	56.8689	-1.20425	-8.33805	-4.31433	-75.553	-7.16178	0.317127
0.6913	11.9692	-39.8469	4.97222	27.8776	1.54651	2.35325	-3.70701	-51.1337	-3.81647	0
0.6920	12.2485	-10.5477	-50.5395	21.7527	4.29727	15.4704	-1.26196	16.0032	-1.97891	0
0.6927	11.0516	63.0158	-64.6048	67.2255	7.03536	18.2159	1.79041	12.64	-3.51021	0
0.6933	4.30893	181.415	-40.7994	22.6807	9.78612	15.7755	2.70533	-34.9711	-2.59143	0
0.6940	-2.99231	226.28	-11.1705	-61.2491	10.6988	9.67446	0.567883	-52.6639	-0.447611	0.317127
0.6947	-6.98206	74.6153	-32.5578	-17.0013	14.3623	2.35325	-0.654643	-7.18869	-1.06013	0
0.6953	-4.8276	-112.479	-64.2983	70.6035	14.9707	1.4381	1.79041	66.0531	-1.36639	0
0.6960	6.78257	-113.38	-57.8616	101.117	11.3073	0.522944	2.09801	81.9128	0.164909	0.317127
0.6967	20.1881	-18.481	-63.6853	107.204	11.003	-2.23704	2.09801	47.7386	2.59143	0.317127
0.6973	19.869	12.9517	-101.215	126.433	10.3946	-2.23704	4.22757	37.3621	4.42899	0.317127
0.6980	13.1662	6.8515	-127.779	157.874	7.96073	-7.42289	3.62025	28.8185	1.67265	0.317127
0.6987	15.3206	-13.9134	-89.0232	174.95	10.6988	-20.5401	2.39773	49.5717	-1.67265	0.317127
0.6993	24.7763	-89.8809	5.27873	198.15	12.2326	-30.6067	3.62025	121.283	0.164909	0.317127
0.7000	29.963	-167.411	85.8559	165.818	6.42689	-24.2007	4.53518	148.141	2.28517	0.317127
0.7007	28.7262	-196.079	125.225	-17.8922	1.24228	1.13304	3.01293	125.858	2.28517	0.634253
0.7013	25.694	-212.577	133.773	-192.174	-0.900019	29.5027	-0.0394363	65.1286	5.34777	0.317127
0.7020	17.7544	-258.344	119.742	-204.386	-4.5508	42.9395	-2.79209	-2.00837	6.57281	0.317127
0.7027	6.78257	-419.775	70.9052	-143.954	-8.83539	42.0243	-4.31433	41.9367	-0.447611	0.317127
0.7033	8.89714	-518.34	18.4245	-89.0153	-7.91002	35.6183	-1.56957	117.314	-1.67265	0.634253
0.7040	27.5293	-355.377	30.0036	-95.7342	-4.5508	28.2825	0.567883	118.239	5.34777	0.634253
0.7047	35.4689	-202.811	73.9703	-170.495	-3.02964	24.6219	-0.0394363	84.0487	9.61186	-1.90276
0.7053	20.7866	-139.644	91.952	-179.33	-1.50848	26.4522	2.09801	14.473	12.0619	-2.53701
0.7060	4.02965	26.9853	91.0325	-121.682	-1.81271	26.7573	3.31265	-83.188	12.3682	0
0.7067	-7.58052	185.381	74.5833	-98.1841	-4.5508	23.0967	1.1752	-169.851	7.46804	0.634253
0.7073	-17.6347	195.749	40.3908	-83.2245	-2.42118	15.1654	3.31265	-139.327	5.34777	0
0.7080	-24.9758	112.449	-8.75247	-57.2772	-0.278879	-12.3037	7.58755	36.1507	5.65403	0
0.7087	-36.586	14.4843	-79.862	-42.9486	-2.72541	-56.5505	9.10979	183.846	2.89769	0.317127
0.7093	-51.2284	14.7848	-145.454	-32.5548	1.24228	-73.0378	8.50247	248.544	1.06013	0.317127
0.7100	-51.8268	73.0827	-144.841	-25.242	21.9934	-41.298	5.4501	277.84	0.164909	0
0.7107	-37.5036	64.5183	-64.9113	-21.2701	43.0488	1.13304	-1.86928	236.637	-4.42899	0
0.7113	-16.7171	48.6517	23.9075	-15.4793	44.5826	26.1472	-7.0591	131.963	-8.38682	0.317127
0.7120	8.57796	40.4179	37.0192	-9.05744	34.2007	42.3294	-4.62194	12.9428	-7.7743	0
0.7127	26.6116	29.4494	-0.817351	-5.3825	18.6342	54.2264	-3.09181	-94.1702	-7.46804	0.317127
0.7133	36.3865	134.115	-8.75247	-1.74467	5.81843	57.5819	-3.09181	-170.759	-6.85552	0.317127
0.7140	39.7379	164.015	-2.34988	4.6772	0.938048	53.3112	0.875486	-186.332	-5.04151	0
0.7147	29.3646	-1.08182	-20.3316	6.8302	-0.900019	41.7193	2.09801	-128.647	-7.7743	0.317127
0.7153	11.0516	-94.7791	-49.3476	8.64911	0.633816	31.9431	-0.34704	-63.0405	-9.3056	0.634253
0.7160	-0.239385	-193.645	-60.6202	15.0339	-2.42118	25.5371	1.79041	-69.4482	-5.96029	0.317127
0.7167	-6.66288	-314.809	-34.6693	8.01806	-9.44386	10.8947	6.06531	-151.839	-2.28517	0.317127
0.7173	-10.9319	-243.078	-14.8485	-9.35441	-6.99733	-10.7785	9.725	-197.617	4.42899	0.317127
0.7180	-4.50842	-116.746	-42.0255	-13.6233	0.329584	-33.3522	11.5548	-139.948	12.9807	0.317127
0.7187	2.19436	-156.713	-86.2646	-7.83246	5.5142	-68.7526	8.81007	-105.758	15.101	0.317127
0.7193	-13.3657	-331.577	-99.6828	4.08327	14.058	-108.743	6.98023	-86.2324	12.3682	0.634253
0.7200	-26.2127	-274.511	-63.9918	28.7685	21.6892	-112.404	10.3323	42.5583	11.4494	0.317127
0.7207	-10.3335	96.5822	-43.8305	54.7159	15.8961	-83.4095	10.6399	159.123	12.9807	0.317127
0.7213	4.02965	232.08	-57.8616	59.6158	0.633816	-58.991	3.92786	207.037	13.287	0.317127
0.7220	2.47364	52.0173	-67.6358	38.8653	-11.8777	-39.1627	-2.48449	291.883	13.8759	0.317127
0.7227	8.57796	52.6184	-97.2307	28.1746	-16.1496	-25.1158	-4.00673	296.458	13.287	0.317127
0.7233	12.2485	241.215	-162.244	47.7	-9.44386	-16.5744	-2.48449	167.986	8.08056	0.317127
0.7240	-19.7892	239.081	-206.177	50.7439	7.96073	0.522944	4.22757	49.8745	7.16178	0.317127
0.7247	-68.3045	123.417	-201.92	32.1465	18.0257	22.7916	7.89515	14.1702	11.1432	0.317127
0.7253	-91.8041	101.751	-210.161	53.4909	11.003	47.2102	0.26028	75.808	12.0619	0.634253
0.7260	-91.8041	-49.6133	-169.873	51.672	14.058	72.2389	-9.50415	120.678	12.9807	0.317127
0.7267	-75.6456	-188.446	-74.9579	3.74919	30.5373	82.9156	-14.9937	90.7751	9.3056	0.317127
0.7273	-33.1947	20.8851	-18.7991	35.8214	32.0584	72.2389	-15.6089	88.9421	-3.81647	0.317127
0.7280	-1.79539	198.213	66.3417	120.642	24.7442	61.8526	-7.0591	44.0726	-11.7557	0.317127
0.7287	-7.8997	146.917	220.446	166.115	18.0257	56.9718	2.09801	-91.7315	-10.2244	0.317127
0.7293	-23.4597	168.283	301.909	183.822	7.64382	42.9395	1.79041	-189.074	-10.5306	0.317127
0.7300	-36.586	215.582	224.397	179.553	-1.20425	33.788	1.79041	-265.679	-14.4885	0.634253
0.7307	-36.2668	143.281	116.983	187.793	6.12266	25.5371	3.92786	-322.136	-12.6745	0.634253
0.7313	-26.8111	97.1832	30.9231	180.147	21.0807	-10.4734	-4.92165	-260.482	-8.99934	0.317127
0.7320	-32.9154	118.249	-36.2018	19.0058	26.5696	-51.3647	-13.4714	-183.591	-4.42899	0.317127
0.7327	-37.7829	55.984	-24.0097	-135.082	26.5696	-72.4277	-7.97402	-192.74	1.36639	0
0.7333	-27.0904	-73.1128	-19.7186	-164.407	8.87342	-76.0883	-2.48449	-254.696	3.20395	0.634253
0.7340	-14.2833	-174.413	-119.844	-223.281	-18.2919	-55.9404	-1.26196	-335.557	2.89769	-0.317127
0.7347	-2.39385	-282.745	-241.902	-213.518	-24.9977	-33.0471	-0.34704	-355.705	0.753871	-2.85414
0.7353	8.89714	-324.274	-237.338	-135.713	-22.8681	-30.6067	-11.0264	-276.055	-7.46804	-1.58563
0.7360	27.8086	-167.411	-90.8281	-121.682	-26.5315	5.0987	-27.8105	-171.078	-15.7135	0.634253
0.7367	39.0995	16.9184	-12.09	-111.919	-33.8585	71.3237	-33.0003	-46.862	-12.3682	0.634253
0.7373	10.7324	-3.5159	-101.215	-106.091	-43.9235	93.2873	-30.2555	132.266	-4.12273	0.634253
0.7380	-29.8433	-31.2825	-201	-111.585	-51.5546	81.3904	-27.2032	250.68	-1.36639	0.317127
0.7387	-44.4857	139.314	-205.598	-84.7465	-59.49	64.9031	-17.1311	293.413	0.471169	0.317127
0.7393	-40.2167	240.915	-96.6518	-55.7552	-65.5873	38.9738	-3.39941	287.914	2.89769	0.317127
0.7400	-32.2771	253.115	70.2922	-48.7394	-52.7715	9.06436	1.79041	178.362	4.12273	0.317127
0.7407	-16.7171	367.277	175.288	-45.3614	-26.8358	-12.6088	11.2472	68.4918	7.7743	0.317127
0.7413	-10.6127	331.877	198.174	-38.6426	-9.13963	-37.6374	27.424	-4.4471	6.87907	0.317127
0.7420	-21.6244	45.9171	172.836	-30.1049	-3.33387	-64.4819	28.6465	-30.0777	-0.753871	0.317127
0.7427	-17.3554	-147.578	159.418	-20.6391	-6.99733	-69.0576	20.712	2.2634	-3.51021	0.317127
0.7433	1.27672	-204.013	195.415	-14.8483	-10.0523	-68.4475	13.6923	-59.3744	-0.447611	0.317127
0.7440	16.2383	-333.109	225.316	-11.8044	-10.3566	-89.8156	1.48281	-184.196	0.753871	0.317127
0.7447	21.425	-434.139	209.753	-4.15751	-10.965	-82.7994	-8.28163	-220.506	-0.753871	0.634253
0.7453	27.8086	-341.343	177.093	4.38024	-6.99733	-26.336	-17.7385	-187.241	-7.46804	0.634253
0.7460	46.1215	-132.913	186.56	4.6772	4.29727	1.74315	-30.8629	-146.659	-14.1822	0.317127
0.7467	51.9465	-22.4477	202.737	3.15526	21.6892	-3.76229	-32.393	-85.9295	-14.1822	0
0.7473	26.2924	64.2178	106.596	5.60522	34.2007	-0.0871573	-21.406	7.76251	-12.3682	0.317127
0.7480	-2.07467	299.513	-18.2201	7.7211	30.8415	8.14921	-11.334	84.0487	-10.8369	0.317127
0.7487	4.94729	373.076	-36.5083	1.00226	26.8738	16.3856	1.1752	99.6215	-3.20395	0.317127
0.7493	26.6116	48.3512	-13.929	-14.2543	30.5373	13.6401	30.4764	86.5034	7.7743	0
0.7500	32.7159	-399.942	-24.3162	-20.3421	22.6019	-5.89764	58.8548	93.2139	11.1432	0.634253
0.7507	38.5011	-638.302	-94.1997	-12.7324	4.29727	-16.2694	62.5223	98.3942	10.8369	0.634253
0.7513	45.2039	-595.57	-145.148	-5.3825	-5.17194	-8.94815	51.8351	51.1019	12.6745	0.317127
0.7520	42.4908	-421.608	-139.358	-1.11362	-4.24657	-0.0871573	37.4961	-12.6878	8.99934	0.317127
0.7527	44.6054	-108.212	-213.226	2.5242	-0.900019	5.40375	20.712	-25.806	2.59143	0.317127
0.7533	43.0893	269.613	-322.173	4.38024	0.0253526	8.75931	10.0326	13.2616	3.81647	0.317127
0.7540	20.7866	419.745	-364.573	3.15526	-7.30156	11.1997	3.92786	44.3754	9.3056	0.317127
0.7547	-0.239385	339.18	-336.204	1.33634	-13.1073	16.6906	-0.954359	54.1463	15.4072	0.634253
0.7553	3.71047	184.149	-123.488	2.22724	11.003	27.0623	-4.62194	82.8373	20.0011	-1.26851
0.7560	8.89714	45.3161	196.641	5.90218	39.9938	45.99	-7.97402	131.66	21.5089	-1.90276
0.7567	-10.6127	-41.3795	279.023	8.35215	44.5826	69.7985	-17.1311	216.808	23.3464	0.317127
0.7573	-30.1625	-5.94999	151.482	9.87409	49.1588	75.5944	-28.4257	261.056	25.4903	0.317127
0.7580	-37.5036	118.85	53.8089	8.01806	47.6249	64.293	-30.2555	136.234	25.4903	0.317127
0.7587	-41.4535	165.548	-22.7837	4.08327	23.5146	52.3961	-25.673	-46.5591	26.409	0.317127
0.7593	-14.9217	117.617	-37.4279	2.22724	2.76344	35.0082	-12.8562	-87.7626	29.4481	0.317127
0.7600	20.7866	78.8824	33.0687	0.705293	0.329584	18.5209	9.725	-16.9596	31.2857	0.317127
0.7607	25.694	26.6848	120.048	2.22724	2.76344	14.5553	17.0444	8.98985	24.5715	0.317127
0.7613	19.869	-3.5159	219.833	8.01806	-3.02964	16.6906	5.1425	-11.1576	14.7947	0.317127
0.7620	-4.22913	120.983	241.8	11.0991	-20.1173	19.7411	-5.53686	-18.7926	9.61186	0.634253
0.7627	-30.4817	200.346	156.965	11.0991	-36.5965	10.8947	-13.1638	-30.0777	6.26655	0.317127
0.7633	-24.9758	30.351	71.8247	16.2588	-42.7065	-25.1158	-20.1835	-11.4605	4.12273	0.95138
0.7640	-12.1687	-83.7807	13.8269	22.0868	-38.4346	-65.7021	-21.0984	35.8319	2.59143	-0.317127
0.7647	11.9692	32.4845	-50.233	21.7527	-17.9877	-67.5324	-19.5762	95.0469	-0.447611	-2.85414
0.7653	40.6555	-10.5477	-97.2307	18.7088	5.81843	-32.437	-16.8235	219.853	1.36639	-1.26851
0.7660	35.7482	-183.278	-62.7658	13.5119	6.42689	-3.45724	-13.4714	315.984	6.26655	0.95138
0.7667	8.89714	-159.478	36.7127	6.19915	-5.47617	2.0482	-9.50415	261.359	4.73525	0.634253
0.7673	-14.9217	-131.08	56.261	1.00226	-12.7904	-0.392208	-4.62194	223.216	-1.97891	0.317127
0.7680	-27.4096	-163.144	17.1984	0.111362	-16.1496	2.35325	-0.0394363	152.716	-5.34777	0.317127
0.7687	-29.8433	-110.015	87.0819	-1.11362	-16.4539	8.14921	3.31265	-98.7449	-5.04151	0.317127
0.7693	-28.9257	-96.2817	163.675	0.111362	-15.8454	8.45426	4.53518	-219.901	-4.42899	0.317127
0.7700	-35.9476	-178.38	126.451	14.7369	-14.9327	6.62395	2.09801	-117.665	-5.96029	0.317127
0.7707	-39.9374	-34.9487	54.422	33.9654	-13.4115	4.79365	-3.39941	-28.5475	-10.2244	0.317127
0.7713	-22.5421	312.945	11.4089	39.7562	-12.7904	1.13304	-7.97402	13.5645	-12.9572	0.317127
0.7720	-8.49817	337.346	-46.2825	37.6403	-11.2692	0.827994	-6.75939	38.5894	-10.2244	0.317127
0.7727	-2.71303	66.3514	-165.309	41.3153	-9.13963	2.6583	-3.09181	-3.21977	-5.96029	0.317127
0.7733	18.9912	-63.9474	-271.803	47.997	-10.0523	0.522944	-2.79209	-43.5147	-3.81647	0.317127
0.7740	49.1936	99.3168	-333.752	50.447	-10.6608	-2.84714	-0.654643	-21.837	-1.97891	0
0.7747	68.7035	281.513	-384.121	43.1342	-9.13963	-3.76229	3.31265	-58.163	6.26655	0
0.7753	63.5168	148.449	-334.671	40.0903	-9.44386	-2.23704	2.70533	-154.9	16.0198	0.317127
0.7760	40.0172	-41.9805	-188.808	44.9531	-8.21426	-2.23704	1.1752	-162.216	15.4072	0.634253
0.7767	21.1058	-118.579	-78.023	-3.56358	-5.47617	-5.28754	-0.654643	-86.2324	10.2244	0.317127
0.7773	10.134	-161.311	3.16724	-69.4899	-7.91002	-12.3037	-3.70701	-41.9845	7.16178	0.317127
0.7780	6.78257	14.1838	63.5831	-53.6022	-9.74809	-14.7441	-4.31433	-73.7199	4.73525	0.317127
0.7787	18.672	133.514	157.885	-16.0732	-7.60579	-11.0835	-3.70701	-97.5175	5.65403	0.317127
0.7793	31.4791	-198.543	330.925	-13.3263	-8.83539	-11.0835	-4.92165	-75.8558	8.38682	0.317127
0.7800	20.5073	-576.037	327.247	-12.7324	-11.8777	-11.0835	-5.22926	-121.028	7.16178	0.317127
0.7807	-6.06442	-682.236	120.968	-10.2824	-12.7904	-4.06734	-3.70701	-178.697	5.96029	0.317127
0.7813	-13.3657	-878.164	6.19825	-11.5074	-12.7904	4.79365	-4.31433	-138.418	5.04151	0.317127
0.7820	9.4956	-951.698	-79.249	-9.65137	-11.2692	8.75931	-4.62194	-60.2989	1.97891	0.634253
0.7827	46.7599	-182.647	-158.6	-4.78857	-10.6608	9.36941	-3.39941	9.89839	1.36639	0.317127
0.7833	56.4949	601.039	25.7466	0.111362	-13.4115	13.3351	-3.70701	66.0531	0.164909	0.317127
0.7840	25.0955	465.542	271.701	4.08327	-14.02	13.03	-3.09181	49.5717	-3.81647	0.317127
0.7847	-10.6127	243.98	239.961	6.19915	-14.02	6.62395	-1.56957	-39.8486	-6.243	0
0.7853	-26.8111	435.611	116.983	8.64911	-16.7581	1.4381	-1.86928	-65.4792	-8.99934	0
0.7860	-25.5743	569.606	149.95	10.468	-19.8131	-4.06734	-2.79209	-37.4099	-16.9385	0.317127
0.7867	-20.9861	464.009	275.379	9.54001	-21.0427	-8.033	-3.39941	-43.5147	-19.6713	0.634253
0.7873	-23.4597	343.146	268.67	11.396	-17.9877	-4.06734	0.26028	-27.3361	-11.7557	0.317127
0.7880	-22.5421	248.247	73.0508	15.6649	-14.02	-1.93199	3.92786	20.5778	-8.38682	0
0.7887	-14.9217	74.9158	-140.891	16.2588	-14.3242	-3.45724	3.31265	38.8922	-17.2448	0.317127
0.7893	-22.8214	37.9838	-276.673	15.0339	-13.7158	1.13304	2.09801	28.2128	-17.2448	0.634253
0.7900	-36.586	207.649	-264.788	14.143	-11.8777	7.5391	2.09801	30.0459	-1.67265	0.317127
0.7907	-14.9217	197.281	-125.634	13.5119	-12.4862	9.97951	1.1752	32.1817	2.59143	0.317127
0.7913	29.3646	-0.480807	-13.0095	15.368	-10.6608	11.5048	1.79041	38.2865	-6.85552	0.634253
0.7920	33.3144	29.75	110.581	15.6649	-6.08463	12.4199	2.39773	83.443	-10.5306	0.634253
0.7927	-14.6025	163.114	215.27	9.24304	-8.21426	7.84416	-0.34704	123.116	-9.91812	0.317127
0.7933	-44.4857	201.849	211.592	2.22724	-12.1819	4.18355	-2.17688	81.61	-5.65403	0.634253
0.7940	-38.3814	342.846	143.547	-2.96965	-11.5735	5.7088	-1.26196	-16.3539	0.753871	0.317127
0.7947	-49.9916	442.643	-2.04338	-4.15751	-10.6608	1.74315	-1.56957	7.15681	-1.36639	-2.21989
0.7953	-64.6339	291.279	-72.8464	3.15526	-6.6931	-2.23704	1.48281	142.339	0.471169	-2.53701
0.7960	-52.7445	104.816	-2.65639	8.64911	-2.72541	0.827994	5.7577	170.122	8.08056	0.317127
0.7967	-17.6347	45.9171	18.1179	4.6772	-5.7804	-1.61241	2.70533	138.067	2.89769	0.317127
0.7973	22.3426	18.451	-35.2823	-2.04164	-8.21426	-4.37239	-0.954359	179.271	-0.753871	0.317127
0.7980	37.5834	4.41742	-57.8616	-3.26662	-6.38887	-1.61241	1.1752	176.832	7.16178	0.634253
0.7987	51.0289	119.451	-20.9446	-2.3386	-6.38887	-1.00231	3.62025	87.4119	14.7947	0.317127
0.7993	65.6713	277.246	-10.5915	-6.01355	-9.13963	-2.84714	2.09801	31.8629	17.8573	0.317127
0.8000	40.9348	283.346	-85.6516	-9.35441	-11.8777	-5.28754	-0.954359	1.35485	17.2448	0.634253
0.8007	4.02965	133.815	-179.953	-7.53549	-12.1819	-6.20269	-1.56957	-51.1337	13.5932	0.634253
0.8013	-20.1083	-57.8471	-193.985	-3.26662	-12.7904	-4.67744	-0.0394363	-57.8442	7.16178	0.634253
0.8020	-48.4755	-182.346	-167.421	-1.74467	-9.13963	-4.06734	0.26028	-23.6701	3.20395	0.634253
0.8027	-62.5194	-286.11	-167.114	-2.04164	8.87342	-2.54209	0.26028	46.2085	4.12273	0.634253
0.8033	-37.7829	-391.107	-56.3632	-2.3386	25.0484	0.827994	3.01293	175.605	7.46804	0.317127
0.8040	15.5999	-256.511	235.397	-1.74467	25.0484	1.74315	3.62025	178.665	8.38682	0.317127
0.8047	61.4022	-57.2461	463.676	-0.519689	18.6342	1.13304	1.79041	67.8861	5.65403	0.317127
0.8053	57.4125	-161.912	340.086	0.705293	11.6115	0.522944	1.79041	75.2023	2.89769	0.634253
0.8060	23.5395	-265.045	41.6168	2.85829	2.76344	-2.54209	1.1752	123.116	-1.67265	0.317127
0.8067	17.7544	-173.211	-128.358	6.49612	-3.33387	-3.15219	2.09801	67.5832	-4.12273	0.317127
0.8073	32.0776	-91.4135	-152.164	8.64911	-6.38887	-2.23704	3.31265	3.49074	-4.42899	0
0.8080	30.2822	-24.5813	-38.6539	8.94608	-9.74809	-3.15219	2.39773	-36.4854	-5.34777	0.317127
0.8087	17.4352	-43.5131	67.8401	9.87409	-11.5735	-1.61241	2.70533	-128.647	-6.243	0.317127
0.8093	11.6501	-165.879	36.0997	9.24304	-13.1073	0.217893	2.70533	-210.433	-8.99934	0.317127
0.8100	10.134	-163.444	54.422	7.42413	-15.2369	-1.30736	1.1752	-230.277	-11.1432	0.317127
0.8107	0.0398975	-94.4786	196.641	7.42413	-12.7904	-0.697258	1.48281	-216.234	-8.38682	0.317127
0.8113	-17.6347	-212.577	230.834	7.42413	-9.74809	2.0482	4.84278	-161.61	-5.04151	0
0.8120	-19.1907	-320.308	145.965	5.27113	-10.3566	1.74315	5.7577	-54.7998	-5.04151	0.317127
0.8127	-7.58052	-198.543	110.887	3.45222	-8.83539	0.217893	5.4501	93.8196	-6.243	0.634253
0.8133	-1.15703	-56.014	58.1	2.85829	-9.13963	-0.0871573	5.7577	254.346	-5.65403	0.317127
0.8140	-1.79539	13.8833	-28.8797	3.45222	-11.2692	-0.392208	6.36502	307.743	-2.89769	0.317127
0.8147	-0.239385	64.8489	-95.4257	3.74919	-10.0523	-3.15219	6.98023	127.994	-0.753871	0.317127
0.8153	12.8869	111.217	-180.566	3.45222	-10.0523	-4.37239	7.27994	-80.1276	-0.753871	0.317127
0.8160	23.5395	181.715	-250.45	1.63331	-10.0523	-3.15219	5.1425	-135.055	-2.59143	0.317127
0.8167	14.403	175.314	-273.029	-1.41059	-7.60579	-3.45724	1.79041	-147.265	-3.51021	0.317127
0.8173	4.94729	129.848	-202.533	-1.74467	-2.42118	-1.93199	1.1752	-176.561	-2.28517	0.317127
0.8180	11.0516	128.015	-92.0542	-0.816655	2.76344	6.62395	3.31265	-226.914	-0.141351	0.317127
0.8187	-3.59077	111.217	-95.1192	-0.816655	3.68881	13.6401	3.62025	-238.518	0.471169	0.317127
0.8193	-43.2888	207.048	-84.119	-2.04164	1.85074	12.725	2.70533	-173.214	-0.141351	0
0.8200	-65.5516	284.548	57.487	-3.26662	1.54651	8.14921	3.31265	-139.645	0.471169	0.317127
0.8207	-59.7664	172.88	132.547	-4.4916	2.76344	0.217893	5.4501	-125.906	-0.141351	0.634253
0.8213	-33.5139	-11.7497	98.0821	-4.78857	3.68881	-2.54209	5.7577	-9.32457	-2.59143	0.634253
0.8220	-1.47621	-221.111	133.467	-2.63557	4.6015	5.7088	4.84278	115.481	-2.28517	0.317127
0.8227	15.5999	-269.012	138.643	-1.11362	3.06767	8.45426	3.62025	107.559	-2.89769	0.317127
0.8233	28.7262	-135.047	-0.204338	-1.41059	-0.278879	4.4886	2.70533	61.7813	-5.04151	0.317127
0.8240	29.6438	68.1845	-71.3139	0.705293	-1.20425	5.0987	5.4501	56.585	-3.81647	0.317127
0.8247	-8.49817	242.447	-52.9916	2.22724	13.1453	4.79365	6.98023	43.164	-4.42899	0.317127
0.8253	-37.5036	212.847	-24.9292	2.85829	43.353	2.35325	5.4501	24.2439	-7.16178	0.317127
0.8260	-29.564	134.115	67.5336	5.60522	55.8645	2.35325	4.84278	29.4242	-6.54926	0.634253
0.8267	-22.8214	158.216	124.305	5.27113	43.0488	-4.06734	1.1752	97.4856	-8.69308	-0.634253
0.8273	-14.004	173.481	46.4868	3.74919	29.6246	-10.1683	-3.09181	195.449	-11.7557	-2.85414
0.8280	0.0398975	114.582	-53.6046	6.19915	21.6892	-5.59259	0.875486	211.309	-8.69308	-0.95138
0.8287	21.425	32.4845	-51.1526	7.42413	8.26496	-1.00231	4.84278	102.363	-6.54926	0.634253
0.8293	51.3082	-33.4161	42.8428	5.60522	-9.74809	-1.30736	2.70533	-32.2136	-8.08056	0.317127
0.8300	38.8203	-53.2795	145.08	5.60522	-21.3469	-0.697258	1.79041	-43.8175	-7.16178	0.317127
0.8307	-6.3437	9.91665	148.417	5.60522	-24.9977	-0.0871573	2.09801	3.18789	-6.243	0.634253
0.8313	-15.7994	61.4832	87.0819	3.74919	-25.9231	-1.30736	1.1752	-9.02173	-7.46804	0.317127
0.8320	-0.877745	36.1507	117.29	2.85829	-23.4765	-0.392208	1.48281	-42.5902	-7.7743	0
0.8327	5.86493	13.2523	174.981	3.45222	-22.5639	2.0482	4.22757	-103.017	-5.34777	0
0.8333	26.6116	17.5194	140.789	1.63331	-23.1723	1.74315	6.06531	-179	-3.81647	0.317127
0.8340	54.9787	19.9836	95.3236	0.111362	-18.9004	6.929	3.62025	-202.192	-2.89769	0.634253
0.8347	49.4729	40.4179	76.3883	0.705293	-14.6285	15.7755	-0.0394363	-153.066	-2.59143	0.317127
0.8353	17.7544	63.6168	65.7286	0.408327	-15.8454	17.6058	-1.56957	-76.1587	-3.51021	0.317127
0.8360	-8.49817	21.5161	48.6324	-2.3386	-15.8454	15.7755	-2.17688	-27.639	-4.12273	0.317127
0.8367	-17.9539	-99.3468	-42.6044	-2.3386	-15.8454	16.6906	-0.34704	6.23232	-1.97891	0.317127
0.8373	-16.1186	-215.913	-155.535	-0.816655	-16.7581	14.8603	5.1425	16.6089	0.753871	0.317127
0.8380	-7.58052	-265.376	-182.984	-2.63557	-15.5412	10.8947	6.06531	-54.1941	1.36639	0.317127
0.8387	9.21632	-237.278	-171.405	-4.78857	-11.8777	13.03	4.53518	-134.146	1.36639	0.317127
0.8393	38.1819	-74.3148	-131.73	-4.15751	-6.99733	17.9108	4.84278	-113.393	1.67265	0.317127
0.8400	61.0831	179.882	-50.233	-3.86055	-2.72541	16.0805	3.31265	-54.497	-1.06013	0.317127
0.8407	41.8525	308.378	1.94121	-3.86055	3.06767	7.5391	4.22757	-5.0528	-2.89769	0.317127
0.8413	-4.8276	200.346	84.3234	-1.11362	6.42689	-1.93199	8.19487	36.1507	-2.89769	-0.317127
0.8420	-30.1625	29.75	154.207	3.45222	7.03536	-13.2189	6.06531	82.2316	-5.04151	0
0.8427	-31.0801	-62.4148	74.5833	5.90218	11.6115	-34.5724	-0.34704	172.258	-8.99934	0.317127
0.8433	-17.3554	-136.279	19.0375	7.12717	19.8511	-49.2293	-5.22926	184.148	-14.1822	0.317127
0.8440	8.89714	-120.112	101.113	6.49612	23.2103	-35.4875	-8.58923	59.0238	-16.326	0.317127
0.8447	22.3426	-7.48256	122.16	5.27113	20.7765	-12.9138	-7.97402	-65.1764	-12.0619	0.634253
0.8453	10.134	25.1522	15.3594	5.27113	18.6342	-1.93199	-4.00673	-173.517	-5.65403	0.634253
0.8460	-11.8496	-42.882	-41.4125	2.22724	16.5046	0.522944	-2.79209	-240.351	-4.42899	0.317127
0.8467	-27.0904	-107.881	-10.5915	-1.41059	13.7538	2.35325	-4.00673	-194.27	-5.34777	0.317127
0.8473	-33.5139	-81.9476	3.47374	-0.816655	13.1453	4.79365	-1.86928	-56.0271	-3.51021	0.317127
0.8480	-44.8049	-35.8802	-4.76788	0.111362	12.5369	2.6583	-0.654643	136.234	-2.28517	0.317127
0.8487	-49.6724	-64.2479	-8.75247	1.00226	11.3073	-0.0871573	-0.34704	219.247	-1.36639	0.317127
0.8493	-26.2127	-107.881	4.39326	1.33634	11.3073	0.827994	1.48281	193.314	1.36639	0.317127
0.8500	3.39129	-133.514	19.6505	-0.222724	8.87342	-0.0871573	0.567883	219.55	0.753871	0.317127
0.8507	5.22657	-111.547	-4.15487	-1.11362	5.81843	-2.23704	-0.34704	217.717	-1.36639	0.317127
0.8513	-9.69509	-15.4159	-59.0877	-0.816655	5.5142	-2.54209	2.09801	122.208	-0.753871	0.634253
0.8520	-18.8715	80.0845	-101.215	-0.816655	6.42689	-3.76229	2.70533	36.4535	-1.36639	0.317127
0.8527	-31.6786	57.5166	-117.392	0.111362	8.26496	-4.67744	2.39773	-19.7012	-2.59143	0
0.8533	-54.5798	-59.9807	-137.519	1.00226	9.17766	-2.54209	3.01293	-35.5768	-0.753871	0.317127
0.8540	-69.2222	-115.514	-135.101	0.111362	16.5046	1.13304	4.53518	21.8052	-0.753871	0
0.8547	-57.0135	-68.8456	-62.4592	-2.04164	31.1457	0.217893	6.67263	29.7271	-3.51021	-2.53701
0.8553	-11.5304	-5.64949	68.7597	-2.04164	39.0811	0.522944	10.0326	-47.7865	-1.97891	-1.90276
0.8560	33.9129	6.25049	146.578	-3.26662	37.8642	3.57345	13.0771	-50.8309	1.97891	0.95138
0.8567	36.3865	-5.34898	59.905	-6.31051	34.2007	0.217893	10.9475	56.585	-0.753871	-0.95138
0.8573	21.1058	-28.2474	-41.4125	-3.26662	32.0584	-0.697258	8.50247	171.939	-1.36639	-2.21989
0.8580	14.6823	-115.814	-61.2332	0.408327	30.233	4.79365	9.725	181.71	3.20395	0.317127
0.8587	6.78257	-184.48	-110.683	-1.41059	22.6019	2.6583	8.19487	83.443	1.97891	0.317127
0.8593	9.81478	-118.279	-173.244	-2.96965	11.003	-2.23704	3.31265	47.1329	-1.36639	-0.317127
0.8600	20.5073	-11.4492	-158.6	-2.63557	4.29727	3.57345	0.26028	107.257	0.164909	0.317127
0.8607	17.7544	22.7181	-58.1682	-2.96965	0.633816	16.6906	-0.0394363	85.276	3.51021	0.317127
0.8613	9.21632	29.4494	37.6322	-2.96965	-3.6381	24.6219	0.26028	-23.9729	5.04151	0.317127
0.8620	4.62811	47.4497	44.6478	-1.74467	-4.86771	22.1815	3.01293	-51.1337	5.65403	0.317127
0.8627	-2.39385	60.2512	9.26331	-2.3386	-4.5508	13.9452	3.01293	-110.03	3.20395	0.317127
0.8633	-14.004	61.4832	9.26331	-3.26662	-0.900019	6.01385	-1.56957	-288.871	-1.67265	0.317127
0.8640	-12.448	46.5181	26.9726	-1.11362	7.64382	3.57345	-2.48449	-355.099	-0.753871	0.317127
0.8647	14.403	27.9169	49.5519	0.111362	10.0904	2.6583	-1.56957	-234.852	2.28517	0.317127
0.8653	33.9129	21.8166	84.3234	-1.11362	5.81843	-0.697258	1.48281	-89.2768	1.97891	0.317127
0.8660	15.5999	43.7835	106.596	-0.816655	2.15497	-1.30736	4.22757	-0.781033	0.753871	0
0.8667	-9.69509	58.7186	118.516	0.111362	0.329584	1.4381	1.1752	33.9988	-0.753871	0.317127
0.8673	-8.49817	21.8166	86.4689	-1.11362	0.633816	1.74315	-3.39941	10.2012	-2.89769	0.317127
0.8680	4.02965	-16.648	-0.817351	-0.816655	3.3719	2.0482	-2.17688	-0.478183	-3.20395	0.317127
0.8687	11.6501	-24.2808	-54.8306	0.408327	6.42689	4.4886	1.1752	48.6472	-1.36639	0.634253
0.8693	13.1662	-38.0138	-61.8462	-0.222724	7.03536	2.96335	1.79041	91.3808	-1.97891	0.634253
0.8700	3.112	-49.6133	-98.7633	-0.222724	6.73113	2.35325	1.48281	91.3808	-2.59143	0.317127
0.8707	-9.41581	-35.5797	-117.699	1.00226	8.87342	4.4886	2.70533	38.2865	-1.97891	0.317127
0.8713	-10.6127	-30.982	-82.28	0.705293	11.3073	3.2684	1.48281	-31.3051	-3.81647	0.317127
0.8720	0.678257	-11.4492	-80.475	0.705293	12.5369	1.4381	-0.0394363	-70.9783	-4.42899	0.317127
0.8727	16.5176	47.4497	-74.9579	1.63331	11.003	0.827994	-1.56957	-118.271	-3.81647	0.317127
