MR32 ASCII
Name	KneeFJC2
Frequency	1500
Date	03-09-2015 09:00:21
"Time,s"	"RT TIB.ANT.,uV"	"RT MED. GASTRO,uV"	"RT LAT. GASTRO,uV"	"RT BICEPS FEM.,uV"	"RT VMO,uV"	"RT VLO,uV"	"RT RECTUS FEM.,uV"	"RT SOLEUS,uV"	"RT SEMITEND.,uV"	"Channel 12,uV"
0.0000	-1.79806	-13.6103	5.74228	21.2473	-0.671605	-2.23869	-2.37299	-3.60646	-3.81853	-7888.3
0.0007	-3.04888	-4.75955	9.40513	14.8427	1.1833	-1.92297	0.0578778	0.359264	-1.68751	-10548.7
0.0013	-1.79806	0.425321	6.65799	-26.6657	1.1833	-4.67828	0.665594	1.27815	-1.9904	-9608.06
0.0020	0	0.425321	0.553243	-69.3795	0.255849	-8.35202	-0.549839	1.88614	-3.81853	-9773.54
0.0027	0	-1.41774	-5.85675	-61.7573	-1.56708	-9.55747	-3.58842	5.24388	-7.18274	-9891.68
0.0033	-0.547235	-1.11394	-7.06816	-44.662	-0.671605	-3.15712	-2.69132	4.93988	-4.73801	-9790.6
0.0040	-2.11076	0.729122	-3.72008	-42.2268	1.47113	2.95621	-0.231511	1.27815	-0.162261	-9818.93
0.0047	-3.90882	1.64052	-2.80437	-29.7097	1.1833	2.03778	-0.868167	0.663257	-0.768034	-9820.54
0.0053	-2.73617	0.12152	-4.33056	-15.9751	-0.351793	-1.00454	-2.69132	4.021	-3.51565	-9820.86
0.0060	-1.48535	-3.84814	-8.28911	-5.90542	-0.959435	-2.84141	-3.58842	17.452	-5.65749	-9791.56
0.0067	-2.73617	-3.84814	-10.731	8.43805	-0.351793	-0.717528	-1.15756	35.1526	-4.73801	-9876.55
0.0073	-4.53423	0.12152	-3.72008	18.2033	-0.0319812	-1.00454	0.665594	30.876	-2.90987	-9818.93
0.0080	-4.53423	3.76713	3.91086	49.3255	-0.351793	-7.11787	-0.231511	18.3639	-1.38462	-9562.35
0.0087	-0.859941	5.00259	1.46896	101.817	-0.351793	-13.5182	-1.47588	8.60162	0.45433	-10501.7
0.0093	1.56353	2.85573	-1.88866	96.9341	-1.56708	-15.6708	-2.0836	-9.40305	2.88824	-8512.21
0.0100	-0.547235	1.33672	4.52133	45.6604	-0.959435	-12.6285	-1.76527	-13.9837	4.41349	-1929.98
0.0107	-3.28341	4.09118	12.4575	14.2339	0.255849	-6.83086	-1.47588	-10.9299	2.58535	103.984
0.0113	-2.73617	4.69879	8.79466	6.90386	0.255849	-4.67828	0.0578778	-11.5379	1.0601	-213.441
0.0120	-0.547235	-3.24054	-3.72008	-10.1792	-1.27925	-6.83086	-1.15756	-10.0179	-0.162261	-46.0363
0.0127	0.625411	-7.21021	-13.1729	-47.7182	-2.78236	-5.59671	-4.22508	-7.87618	-1.68751	71.147
0.0133	0.625411	-2.02534	-15.3096	-36.7353	-1.27925	-1.63596	-2.69132	-1.77559	-0.768034	-29.9397
0.0140	-1.79806	1.64052	-11.3415	6.90386	0.575661	0.51662	1.27331	2.19013	3.19113	-1.28773
0.0147	-6.33229	1.94433	-2.80437	5.68625	1.1833	1.43506	2.48874	2.19013	6.25244	0
0.0153	-6.33229	-1.11394	7.57371	-9.87483	-0.0319812	1.72207	0.0578778	12.5673	3.80772	-0.643864
0.0160	-2.42347	-4.45575	19.478	-8.04841	-1.56708	0.51662	-2.37299	19.2828	-0.465147	-0.965796
0.0167	-0.859941	1.94433	23.7513	-3.47019	-1.27925	2.32479	0.0578778	-2.99848	-0.465147	-0.965796
0.0173	-1.79806	11.0989	19.7832	-0.718391	-0.0319812	6.31424	1.59164	-28.9346	1.0601	-0.643864
0.0180	-0.547235	15.3723	10.9313	0.194818	-0.0319812	9.67227	0.665594	-33.8192	1.97958	-0.643864
0.0187	3.67429	16.8913	-0.36247	-0.109585	-1.88689	10.8777	-1.47588	-28.9346	0.45433	-0.643864
0.0193	6.17594	12.3141	-4.6358	-0.718391	-3.39	10.8777	-4.22508	-28.3266	-2.90987	-0.643864
0.0200	2.50165	4.69879	-2.19389	0.194818	-2.17472	12.7146	-2.69132	-16.7265	-1.38462	-0.321932
0.0207	-2.42347	-0.810136	-1.88866	1.41243	-0.351793	12.3989	0.376206	10.4325	1.66588	-0.321932
0.0213	-1.48535	-5.995	-5.55151	1.41243	-0.351793	6.60125	0.376206	10.1285	1.66588	-0.643864
0.0220	0	-10.2685	-7.37339	0.194818	-1.56708	-0.114804	-2.37299	-7.26819	-1.08174	-0.643864
0.0227	-3.04888	-11.4837	-5.85675	-1.3272	-3.39	-3.15712	-4.83279	29.66	-2.90987	-0.321932
0.0233	-7.89582	-9.03301	-10.731	-0.718391	-2.78236	-1.92297	-3.90675	76.0466	-1.38462	-0.321932
0.0240	-9.14664	-1.72154	-18.9724	0.499221	-0.671605	0.803631	-1.76527	56.515	1.0601	-0.321932
0.0247	-3.90882	3.15953	-13.4781	0.194818	1.1833	2.32479	-0.868167	16.5331	1.97958	-0.321932
0.0253	-0.859941	-4.15194	-0.667707	-1.936	-0.0319812	0.200908	-2.37299	-1.77559	1.0601	0
0.0260	-0.547235	-12.6989	6.96323	-2.86139	-2.17472	-3.15712	-3.90675	-4.52535	-1.08174	-0.321932
0.0267	-2.73617	-9.33681	7.26847	-1.3272	-1.88689	-2.23869	-1.47588	-8.49107	0.45433	-0.321932
0.0273	-6.09776	0.12152	2.07943	2.32564	-1.27925	-0.401815	2.48874	-14.5917	1.97958	0
0.0280	-3.04888	3.15953	1.77419	8.74245	-0.351793	-1.32025	4.63022	-13.6797	-0.162261	-0.321932
0.0287	0.312706	-1.41774	2.07943	10.8733	-0.671605	-2.5544	3.1254	-13.9837	-3.21276	-0.321932
0.0293	1.56353	-4.45575	-1.88866	9.04685	-2.17472	-1.92297	0.376206	-13.9837	-4.73801	0
0.0300	2.81435	-1.11394	-0.667707	9.35126	-0.959435	0.803631	0.665594	-14.2877	-2.90987	0
0.0307	1.56353	2.55193	2.68991	9.04685	1.1833	2.6405	2.80707	-13.3688	-0.162261	-0.321932
0.0313	-0.234529	2.24813	3.60562	6.29505	1.47113	2.6405	3.1254	6.15586	1.0601	0
0.0320	-0.234529	-0.486081	4.21609	1.71683	-0.671605	0.803631	0.376206	21.1137	-1.08174	-0.321932
0.0327	-0.234529	-1.11394	3.60562	-1.6316	-2.17472	-0.401815	-3.29903	11.0405	-3.51565	-0.321932
0.0333	-0.859941	2.24813	4.52133	0.194818	-0.351793	2.03778	-2.69132	2.80503	-1.68751	0
0.0340	-2.42347	5.61019	5.43704	3.25102	1.1833	4.79308	-0.868167	3.717	0.140626	0
0.0347	-3.04888	6.52159	4.52133	3.25102	0.575661	5.39581	-0.868167	4.63589	0.140626	-0.321932
0.0353	-2.11076	4.69879	2.68991	2.32564	-1.27925	4.16166	-1.15756	4.32499	-0.768034	0
0.0360	-0.859941	0.729122	1.46896	2.94662	-2.49453	2.03778	-2.37299	-0.856707	-2.90987	0
0.0367	-0.547235	0.729122	4.21609	5.07744	-0.959435	2.32479	-1.76527	-5.13333	-2.29328	-0.321932
0.0373	-4.53423	2.85573	6.96323	4.46864	-0.0319812	3.55894	-1.47588	-10.9299	0.45433	-0.321932
0.0380	-6.9577	0.729122	4.21609	5.68625	-0.351793	2.95621	-2.0836	-15.2066	1.0601	0
0.0387	-2.11076	-5.995	1.16372	11.1777	-0.351793	0.803631	-1.15756	-6.35622	-0.768034	-0.321932
0.0393	-0.547235	-9.66087	-1.58342	17.5945	-1.56708	-0.401815	-2.0836	14.3982	-4.13224	-2.25352
0.0400	-3.90882	-5.6912	-6.76292	25.2167	-0.959435	-1.92297	-0.231511	24.1674	-2.90987	-2.25352
0.0407	-5.15964	1.03292	-6.76292	26.7509	0.863491	-6.51515	4.94855	-1.4716	1.36299	-0.321932
0.0413	-2.42347	3.76713	-0.667707	24.9123	1.47113	-8.03631	7.69774	-27.1037	3.19113	0.321932
0.0420	-0.859941	2.24813	2.07943	22.1727	0.575661	-6.83086	5.23794	-22.53	1.97958	0
0.0427	-2.73617	-0.18228	0.248006	16.9857	-0.671605	-4.99399	0.983922	-19.1723	-1.38462	0
0.0433	-3.04888	0.12152	-0.057232	16.9857	0.863491	-1.00454	1.27331	-19.7803	-1.9904	0
0.0440	-3.59611	1.03292	0.248006	23.9991	1.47113	1.11934	2.48874	11.0405	0.140626	0
0.0447	-3.90882	-0.18228	-1.88866	32.5468	0.255849	1.11934	1.27331	39.7263	0.757216	0
0.0453	-1.48535	-2.32914	-4.6358	18.2033	-0.671605	0.200908	-1.47588	26.6063	-0.465147	-0.321932
0.0460	-0.234529	-4.15194	-2.80437	-20.8577	-1.27925	0.200908	-3.58842	11.3445	-1.38462	-0.321932
0.0467	-1.48535	-1.72154	6.65799	-28.4921	0.255849	2.32479	-2.69132	16.5331	-0.162261	0.321932
0.0473	-3.90882	4.39499	14.8994	-4.68781	1.47113	3.24322	-2.0836	23.8565	0.140626	0.321932
0.0480	-4.53423	5.61019	10.9313	5.07744	1.47113	2.6405	-3.58842	20.8097	-0.162261	0
0.0487	-2.73617	-0.18228	-0.057232	-0.109585	-0.0319812	0.51662	-5.12218	9.5136	-1.68751	0
0.0493	-1.17265	-5.6912	-11.952	-8.65722	-1.56708	-2.23869	-6.33762	5.54787	-2.90987	0
0.0500	-2.11076	-4.45575	-19.2777	-21.7831	-0.671605	-1.00454	-4.51447	11.9594	-0.465147	0
0.0507	-1.48535	-0.486081	-11.6467	-42.8356	1.47113	1.72207	-1.47588	15.9251	1.0601	-0.321932
0.0513	0.625411	4.09118	2.38467	-50.47	1.47113	2.32479	-0.549839	16.8371	-2.29328	-0.321932
0.0520	0.625411	8.0406	7.87894	-26.0447	-0.0319812	0.200908	-2.0836	25.3834	-5.65749	-0.321932
0.0527	-0.859941	6.82539	5.13181	9.65566	-1.27925	-1.63596	-3.58842	36.0646	-6.56615	0
0.0533	-0.547235	5.61019	-0.972945	33.46	-0.351793	-0.717528	-1.47588	39.7263	-3.51565	-0.321932
0.0540	0.312706	6.82539	-5.55151	42.6164	0.255849	0.803631	0.665594	24.1674	0.757216	-0.321932
0.0547	-0.547235	8.3444	-5.55151	47.1946	-0.351793	0.803631	0.665594	-6.9642	2.28247	0
0.0553	-0.547235	7.12919	-7.37339	52.3817	-2.17472	-1.32025	-1.76527	-28.6306	-0.465147	0
0.0560	0	3.15953	-12.5624	49.021	-3.39	-3.15712	-4.22508	-29.5495	-2.90987	0
0.0567	0.312706	1.03292	-9.8153	57.2643	-1.56708	-3.15712	-1.47588	-18.8683	-0.768034	-0.321932
0.0573	-0.859941	4.39499	2.38467	87.7776	0.255849	-3.15712	1.88103	-10.0179	1.36299	-0.321932
0.0580	-5.47235	11.4027	10.3208	66.4207	-0.671605	-3.75984	0.376206	-6.9642	1.36299	-0.321932
0.0587	-7.89582	12.3141	11.2366	-12.931	-1.56708	-2.84141	-2.37299	-5.74132	1.0601	0
0.0593	-4.53423	1.03292	9.71037	-56.2658	-0.671605	-0.114804	-2.98071	-8.49107	0.757216	0
0.0600	-1.48535	-5.995	3.30038	-38.8662	0.575661	2.32479	-1.47588	-11.8488	0.140626	0
0.0607	-1.17265	-3.84814	-5.55151	-3.7746	0.255849	1.72207	-0.549839	-6.9642	-1.68751	0
0.0613	0.312706	-4.45575	-9.8153	23.3903	-0.0319812	0.51662	-0.549839	0.0552714	-2.60699	-0.321932
0.0620	3.36159	-5.995	-8.59435	44.4428	-0.959435	-1.63596	-1.47588	2.19013	-2.90987	0
0.0627	2.18894	-3.24054	-5.24627	13.9295	-2.49453	-3.15712	-2.69132	2.49412	-2.60699	0
0.0633	-3.28341	7.73679	-0.972945	-98.9918	-1.56708	-1.00454	-0.868167	4.021	1.66588	0
0.0640	-7.89582	13.8533	6.96323	-168.566	-0.671605	0.803631	0.665594	-5.74132	5.03008	0
0.0647	-8.52123	-1.41774	16.1204	-120.958	-0.671605	-0.114804	0.983922	-21.0031	3.50483	0
0.0653	-3.90882	-12.6989	13.6785	-65.7267	-0.959435	-1.63596	-0.231511	-23.442	-0.162261	0
0.0660	0.625411	-7.21021	5.74228	-48.6314	-2.49453	-2.84141	-2.98071	-16.7265	-1.68751	0
0.0667	2.81435	0.12152	0.858481	-30.3185	-2.17472	-1.00454	-1.47588	-6.04531	-0.465147	0
0.0673	3.12706	11.0989	-8.28911	-18.1181	0.255849	1.43506	1.27331	5.85186	-0.465147	-0.321932
0.0680	2.50165	16.8913	-11.3415	-19.0313	2.07878	2.32479	1.88103	15.0062	-0.768034	-0.321932
0.0687	1.25082	3.46333	-8.59435	-24.2183	0.863491	0.51662	0.376206	36.0646	-1.08174	0
0.0693	1.25082	-10.5723	-6.76292	-25.4359	-1.88689	-3.47283	-2.37299	69.3311	-4.13224	0
0.0700	2.18894	-2.32914	3.91086	-17.2049	-1.56708	-2.84141	-1.15756	64.7505	-3.81853	0.321932
0.0707	0.312706	12.3141	13.6785	4.16423	0.255849	0.803631	1.59164	18.0599	-0.465147	0
0.0713	-4.53423	5.00259	11.2366	27.0553	0.575661	1.11934	1.59164	-13.3688	2.28247	0
0.0720	-5.47235	-17.2761	4.82657	22.4771	-1.56708	-1.00454	-0.868167	-17.9494	1.66588	-0.321932
0.0727	-2.11076	-23.6965	-1.88866	1.71683	-3.10217	-1.00454	-4.22508	-34.7312	-2.29328	-2.25352
0.0733	-1.17265	-11.1799	-9.51006	-5.60101	-0.959435	2.03778	-2.37299	-59.7622	-0.465147	-1.93159
0.0740	-3.59611	-2.63294	-13.4781	-5.60101	0.575661	2.32479	0.983922	-58.2354	3.19113	0
0.0747	-5.15964	-3.84814	-11.952	-4.079	0.863491	1.43506	0.983922	-39.3118	2.28247	0
0.0753	-3.28341	-3.54434	-7.37339	-2.24041	-0.0319812	0.200908	-0.231511	-25.8878	-0.162261	0
0.0760	-1.48535	-0.18228	-1.58342	-3.7746	-2.49453	-2.23869	-2.98071	-15.5105	-2.90987	0
0.0767	-3.04888	2.24813	4.21609	-3.47019	-1.56708	-1.00454	-2.37299	-6.04531	-1.68751	-0.321932
0.0773	-3.04888	-1.72154	12.1523	0.499221	1.79095	1.11934	1.59164	-0.248721	2.58535	-0.321932
0.0780	-0.547235	-6.6026	15.5099	2.64222	2.07878	1.11934	2.48874	2.80503	3.19113	0
0.0787	0.938117	-9.96467	6.65799	1.71683	-0.351793	-1.32025	-0.231511	8.60162	0.140626	0.321932
0.0793	1.87623	-14.8457	-5.55151	1.10803	-2.49453	-3.75984	-3.58842	13.7902	-2.90987	0
0.0800	-1.17265	-12.0913	-10.731	1.10803	-2.78236	-2.5544	-2.98071	5.54787	-1.68751	0
0.0807	-4.84694	-4.15194	-7.98387	3.25102	-0.671605	0.200908	0.0578778	-11.2339	1.97958	0
0.0813	-3.28341	-1.11394	-3.41485	6.59946	0.863491	1.11934	1.59164	-23.746	2.88824	0
0.0820	-1.79806	-1.72154	-4.02532	6.29505	-0.671605	-0.717528	-0.549839	-26.1918	0.140626	0
0.0827	-2.42347	-0.486081	-5.55151	2.94662	-3.10217	-2.84141	-4.22508	-21.3071	-3.21276	0
0.0833	-1.48535	4.69879	-0.972945	-1.3272	-2.17472	-1.63596	-3.29903	-14.2877	-0.465147	0
0.0840	-0.234529	6.21779	5.43704	-2.86139	-0.671605	1.11934	-0.549839	-13.0648	5.33297	0
0.0847	-0.547235	1.94433	8.79466	6.90386	-0.959435	1.72207	-0.549839	-21.3071	8.38347	-0.321932
0.0853	0.938117	-1.11394	10.6261	22.7815	-1.88689	0.200908	-2.37299	-25.8878	6.25244	-0.321932
0.0860	0.625411	-4.75955	9.71037	33.46	-2.78236	-0.717528	-4.22508	-16.7265	2.88824	0
0.0867	-5.78505	-5.3874	7.26847	39.8646	-3.10217	1.11934	-4.22508	-6.66021	2.88824	0
0.0873	-7.89582	0.425321	4.82657	37.4294	-2.17472	3.55894	-3.29903	-13.3688	3.19113	-0.643864
0.0880	-3.28341	4.39499	-0.057232	33.46	0.575661	6.31424	-1.15756	-0.248721	3.19113	-1.93159
0.0887	-3.59611	0.729122	-9.20482	38.3426	0.575661	3.24322	-0.549839	35.4566	1.66588	-0.643864
0.0893	-5.78505	-5.3874	-12.8677	54.2081	-2.49453	-3.15712	-2.69132	31.7949	-4.73801	0
0.0900	-4.53423	-3.84814	-3.10961	71.6077	-0.959435	-3.15712	-0.549839	12.2633	-10.839	-0.321932
0.0907	-2.73617	1.94433	5.43704	25.8255	2.39859	-1.00454	5.23794	13.7902	-10.2332	0
0.0913	-0.547235	5.00259	6.96323	-72.7401	1.79095	0.200908	7.09003	13.1753	-5.0409	0
0.0920	1.25082	3.76713	6.35276	-88.9222	-0.671605	-1.63596	4.02251	-5.74132	-4.73801	0
0.0927	0.312706	-1.41774	-3.10961	-31.8527	-2.49453	-7.11787	0.0578778	-22.53	-9.01087	0
0.0933	-0.234529	-0.18228	-11.3415	-6.51422	-1.56708	-6.83086	0.665594	-13.6797	-6.26326	0
0.0940	0.312706	5.61019	-8.59435	-5.29661	0.255849	-2.23869	3.41479	1.58214	-1.08174	0
0.0947	-0.859941	5.00259	-6.16198	1.41243	1.1833	0.200908	3.41479	3.717	-0.162261	-0.321932
0.0953	-1.79806	1.94433	-7.67863	-13.2354	0.255849	-0.401815	0.983922	0.663257	-1.08174	0
0.0960	-2.11076	-0.18228	-8.28911	-50.7744	-1.56708	-3.47283	-1.47588	-2.69448	-2.29328	0
0.0967	-3.28341	-3.54434	-6.16198	-58.3967	-1.56708	-4.99399	-1.47588	-4.82934	-2.60699	-0.321932
0.0973	-3.04888	-3.84814	-1.27818	-37.6486	-0.0319812	-3.75984	-0.868167	-8.18708	-2.29328	-0.321932
0.0980	-3.04888	1.33672	0.553243	-30.6229	-0.671605	-2.23869	-1.15756	-12.7608	-1.38462	-0.321932
0.0987	-3.04888	1.33672	-0.36247	-30.9273	-3.39	-4.36257	-0.868167	-10.9299	-1.38462	-0.321932
0.0993	-1.79806	-2.32914	1.16372	-27.5789	-4.63727	-5.59671	-0.231511	-8.49107	-2.60699	0
0.1000	-3.90882	-0.18228	3.30038	-28.1877	-4.02963	-2.23869	1.27331	-10.0179	-0.768034	0
0.1007	-5.78505	3.76713	1.16372	-23.6095	-2.78236	1.11934	3.41479	-11.5379	1.66588	0
0.1013	-2.11076	2.85573	-2.19389	-4.99221	-0.959435	2.6405	4.94855	-2.38358	0.45433	0
0.1020	-0.234529	-1.72154	-4.94103	9.35126	-1.27925	2.6405	1.59164	19.2828	-3.51565	0
0.1027	-1.17265	-2.32914	-6.16198	15.1471	-2.49453	3.24322	-2.98071	22.3366	-5.65749	-0.321932
0.1033	-1.17265	4.09118	-3.10961	43.834	-0.959435	6.60125	-2.0836	4.021	-3.81853	0.321932
0.1040	-2.73617	7.73679	1.16372	73.7386	-0.0319812	7.8354	0.0578778	-2.38358	-1.68751	-0.321932
0.1047	-3.28341	10.1875	3.60562	44.4428	0.255849	9.35656	1.27331	2.49412	1.36299	-2.25352
0.1053	-1.48535	11.7065	5.74228	-8.35282	0.255849	11.7962	0.665594	0.663257	3.50483	-1.60966
0.1060	-2.11076	9.88365	5.43704	-15.0619	-0.959435	10.275	-2.69132	-3.91045	0.140626	0
0.1067	-7.58311	14.4609	1.16372	5.68625	-1.56708	7.51969	-3.90675	-3.60646	-1.68751	-0.321932
0.1073	-11.2574	13.5495	-6.45768	18.8121	-1.27925	6.60125	-2.0836	-1.16761	0.45433	-0.321932
0.1080	-10.0066	5.91399	-12.8677	17.2901	-0.0319812	6.60125	-0.868167	1.27815	2.28247	0
0.1087	-6.64499	3.46333	-13.7834	-3.16579	1.1833	5.39581	-1.15756	8.90561	2.58535	0
0.1093	-3.90882	-3.24054	-13.1729	14.2339	-0.0319812	-0.401815	-2.69132	14.3982	0.45433	0
0.1100	-2.73617	-14.8457	-10.731	70.9989	-0.351793	-5.59671	-3.90675	18.3639	-1.68751	0
0.1107	-1.48535	-21.5496	-7.67863	53.9037	1.79095	-6.19944	-3.90675	8.90561	-0.768034	-0.321932
0.1113	-0.547235	-18.4913	-8.59435	-11.0924	2.68642	-7.11787	-2.98071	-30.7655	0.45433	0
0.1120	-0.547235	-9.96467	-6.16198	-23.6095	0.255849	-12.6285	-4.22508	-54.2627	-1.38462	0
0.1127	1.56353	-8.12161	-0.057232	-9.57043	-1.88689	-15.9578	-6.33762	-42.0616	-4.43512	-0.321932
0.1133	2.81435	-5.6912	-1.27818	-3.47019	-0.0319812	-12.6285	-4.51447	-22.834	-3.21276	0
0.1140	1.25082	1.64052	-0.057232	2.02124	1.47113	-7.43359	-1.47588	-0.856707	-1.08174	0.321932
0.1147	2.50165	0.425321	10.6261	3.25102	1.1833	-4.36257	-1.47588	20.8097	-0.768034	0
0.1153	4.61241	-6.2988	17.3413	-4.68781	0.255849	-8.95474	-2.37299	32.4029	-1.68751	0
0.1160	4.61241	-8.12161	14.5942	-12.0178	-1.27925	-17.7947	-3.29903	30.572	-2.90987	0
0.1167	2.81435	-4.45575	6.35276	-11.0924	-0.671605	-19.3158	-0.549839	23.5525	-0.768034	0
0.1173	1.25082	0.425321	1.46896	-6.20982	0.863491	-16.8762	3.73312	13.4862	1.97958	0
0.1180	-0.234529	5.61019	1.77419	-2.24041	0.863491	-15.0681	4.02251	2.49412	2.28247	0
0.1187	-3.59611	5.30639	0.248006	-2.86139	-0.351793	-13.8339	0.665594	4.93988	0.45433	-0.321932
0.1193	-7.58311	2.85573	1.46896	-3.7746	-2.49453	-13.5182	-3.58842	7.98672	-2.60699	0
0.1200	-10.0066	8.0406	5.74228	0.194818	-1.88689	-10.4759	-3.29903	-3.60646	-2.29328	0
0.1207	-9.69387	9.27605	10.3208	2.94662	0.255849	-5.91243	-0.231511	-0.248721	0.45433	0
0.1213	-6.09776	7.43299	12.7627	0.803624	0.863491	-3.47283	0.0578778	17.148	1.66588	-0.321932
0.1220	-0.234529	8.97225	3.30038	-1.6316	-0.0319812	-3.47283	-1.76527	28.1332	-0.465147	0
0.1227	4.2997	-4.75955	-11.6467	-0.413988	-0.959435	-4.07556	-4.22508	37.5915	-2.90987	0.321932
0.1233	5.55053	-17.8837	-15.0043	6.59946	-0.0319812	-1.32025	-3.90675	47.6647	-1.38462	0
0.1240	3.67429	-15.4533	-8.59435	14.8427	1.79095	3.87465	-2.0836	65.0614	1.66588	-0.321932
0.1247	-0.234529	-16.9723	-2.49913	19.7253	1.47113	7.23268	-1.47588	66.2774	1.97958	0
0.1253	-2.73617	-14.8457	0.858481	22.7815	-0.351793	6.91697	-2.69132	31.4909	0.140626	0
0.1260	-1.79806	-7.51401	2.07943	20.3341	-2.17472	6.91697	-4.51447	-6.35622	-2.60699	-0.321932
0.1267	0	-5.3874	-0.36247	20.6385	-1.56708	11.7962	-2.0836	-16.1185	-2.60699	0
0.1273	-2.11076	-0.810136	-0.667707	24.9123	-1.27925	17.5938	2.48874	-2.69448	0.45433	0
0.1280	-3.04888	2.55193	4.52133	23.0859	-1.27925	17.5938	3.41479	-10.0179	1.36299	0
0.1287	-0.859941	1.94433	5.13181	18.8121	-1.88689	12.3989	1.27331	-35.6501	-0.768034	-0.321932
0.1293	-1.79806	2.55193	2.38467	0.803624	-3.39	7.51969	0.0578778	-39.6158	-0.465147	-0.321932
0.1300	-4.84694	1.03292	9.09989	-23.9139	-1.88689	4.79308	1.88103	-27.7186	2.88824	-0.321932
0.1307	-7.58311	-4.45575	12.7627	-26.9701	-1.27925	4.16166	2.80707	-12.1528	3.50483	0
0.1313	-7.58311	-1.72154	1.46896	-31.5483	-0.351793	4.79308	2.19936	4.021	1.97958	0
0.1320	-6.09776	1.64052	-13.7834	-48.0226	-0.351793	3.24322	-1.15756	8.60162	-0.465147	0.321932
0.1327	-5.47235	-6.6026	-23.2457	-45.2708	-2.78236	2.32479	-6.65594	4.32499	-4.43512	-0.321932
0.1333	-2.42347	-12.0913	-26.6034	-27.8833	-2.17472	7.51969	-7.26366	3.41301	-3.21276	-2.25352
0.1340	1.56353	-8.42541	-24.1615	-7.43961	1.47113	9.95928	-2.37299	0.0552714	1.0601	-1.28773
0.1347	2.50165	-1.11394	-13.4781	26.1299	2.39859	6.31424	0.0578778	-14.8957	0.140626	0
0.1353	2.81435	2.85573	-1.27818	60.3205	0.575661	3.24322	-1.76527	-39.6158	-4.43512	0
0.1360	2.18894	1.03292	2.99514	78.6212	-1.27925	1.11934	-4.51447	-46.9393	-7.78851	-0.321932
0.1367	0.938117	0.12152	4.82657	83.5038	-1.27925	1.72207	-3.58842	-17.6454	-6.56615	0
0.1373	-0.234529	0.425321	5.13181	87.1688	-0.351793	3.24322	-0.231511	15.6211	-2.60699	0
0.1380	-1.79806	1.03292	-0.36247	103.655	-0.0319812	0.51662	3.1254	7.68273	-1.38462	0
0.1387	-2.11076	1.33672	-2.19389	112.191	-0.351793	-4.07556	4.34083	-17.3414	-2.60699	0
0.1393	-2.73617	-0.810136	4.52133	110.06	-1.56708	-5.59671	1.27331	-12.4568	-5.65749	0
0.1400	-2.42347	-0.486081	15.2046	109.451	-0.671605	-2.84141	-0.231511	4.63589	-5.3546	0
0.1407	-2.11076	0.729122	22.5303	19.1165	1.47113	1.43506	0.665594	25.0794	0.45433	0
0.1413	-1.48535	-1.11394	20.0884	-136.519	0.575661	2.03778	0.665594	49.4956	3.50483	0
0.1420	-0.234529	-2.32914	9.71037	-158.192	-0.959435	-0.717528	-0.549839	57.731	-1.68751	-0.321932
0.1427	-0.547235	-3.54434	1.16372	-72.4357	-2.17472	-2.5544	-2.37299	47.6647	-6.87985	-0.321932
0.1433	-2.42347	-4.75955	-5.85675	-31.8527	-2.17472	-1.32025	-2.37299	40.0303	-5.96037	0.321932
0.1440	-3.28341	-2.63294	-17.7515	-31.8527	-0.351793	1.43506	0.0578778	24.1674	-1.9904	0.321932
0.1447	-0.547235	-0.810136	-21.7196	-54.1228	0.575661	2.6405	0.983922	-28.0226	1.0601	0
0.1453	1.56353	0.425321	-10.1205	-125.231	-0.671605	-0.401815	-0.549839	-63.728	1.36299	-0.321932
0.1460	-0.859941	5.61019	-0.057232	-174.058	-1.88689	-3.15712	-2.0836	-35.6501	0.140626	0
0.1467	-5.78505	9.57985	2.07943	-129.81	-1.56708	-1.92297	-1.47588	-9.40305	0.757216	0
0.1473	-5.78505	10.4913	4.52133	-54.4272	-1.27925	0.200908	-0.231511	-24.05	1.66588	0
0.1480	1.25082	8.66845	5.74228	2.94662	0.575661	0.51662	0.665594	-27.7186	0.140626	0
0.1487	5.23782	5.91399	2.68991	35.8952	-0.0319812	-1.32025	-0.231511	-23.746	-2.29328	0
0.1493	3.12706	8.0406	-4.33056	69.1603	-2.49453	-3.47283	-2.69132	-30.1575	-3.81853	0
0.1500	0.312706	6.21779	-14.6991	132.647	-1.56708	-2.23869	-2.0836	-10.6259	-1.9904	0
0.1507	-6.33229	-5.995	-18.3619	150.339	-1.27925	0.803631	-0.868167	18.3639	3.80772	0
0.1513	-10.9447	-10.8761	-7.37339	97.2385	-0.351793	2.03778	-0.868167	17.452	7.1611	-0.321932
0.1520	-6.9577	-4.45575	5.74228	64.2777	0.255849	0.200908	-1.15756	-8.49107	3.80772	0
0.1527	-3.04888	-5.995	8.18418	53.2949	-1.88689	-2.5544	-2.98071	-40.2307	-1.08174	0.321932
0.1533	-2.42347	-9.03301	2.99514	33.7644	-1.56708	-1.63596	-2.0836	-49.689	-1.38462	0
0.1540	-2.73617	-2.63294	3.30038	12.4075	0.575661	0.803631	0.665594	-28.6306	0.45433	0
0.1547	-1.48535	2.85573	9.40513	-89.8354	1.1833	1.72207	1.27331	-7.57219	3.50483	0.321932
0.1553	1.87623	2.24813	10.3208	-214.348	0.575661	-0.114804	0.0578778	-5.43733	5.63585	0
0.1560	4.61241	0.12152	5.74228	-184.127	-0.959435	-2.23869	-2.0836	-8.49107	3.19113	-0.321932
0.1567	0	1.33672	1.16372	-85.2572	-2.78236	-1.63596	-2.37299	-9.09906	1.97958	0
0.1573	-5.47235	4.09118	-0.972945	-45.5752	-2.49453	-0.401815	-1.47588	-5.74132	3.19113	0.321932
0.1580	-2.42347	5.00259	1.46896	-36.1265	-0.0319812	0.51662	0.665594	5.24388	3.19113	0
0.1587	1.25082	2.55193	3.91086	-34.2879	-0.351793	-1.63596	0.983922	9.8245	0.45433	0
0.1593	1.56353	-2.63294	4.21609	-37.953	-3.10217	-4.07556	-3.58842	4.32499	-5.3546	-1.28773
0.1600	3.36159	-1.72154	7.26847	-27.5789	-1.88689	-0.401815	-3.29903	2.49412	-4.73801	-1.93159
0.1607	3.67429	1.33672	7.87894	-1.02279	0.575661	1.11934	1.27331	-10.0179	0.140626	-0.321932
0.1613	0.625411	0.425321	4.82657	24.3035	0.575661	-0.114804	1.59164	-37.7849	0.140626	0.321932
0.1620	-0.547235	2.55193	5.74228	40.7778	-0.959435	-1.92297	0.0578778	-37.4809	-2.60699	0
0.1627	-0.547235	6.82539	9.09989	49.3255	-3.10217	-4.67828	-2.37299	-17.6454	-3.81853	0.321932
0.1633	-1.48535	10.1875	12.1523	56.6555	-2.17472	-3.47283	-1.76527	-10.3219	-0.465147	0
0.1640	-2.73617	10.4913	14.8994	60.9293	-0.959435	0.200908	1.27331	-10.0179	2.58535	0
0.1647	-4.53423	11.4027	16.7308	54.5125	-0.351793	2.03778	1.27331	6.77075	2.88824	0
0.1653	-4.22153	6.21779	10.9313	72.8254	-0.671605	0.200908	-0.868167	30.572	1.66588	0
0.1660	-2.73617	-11.7875	-2.49913	100.295	-2.17472	-2.84141	-2.69132	21.7217	0.757216	0
0.1667	-1.48535	-19.1192	-9.51006	-4.079	-1.27925	-1.00454	-1.76527	0.663257	6.55533	0
0.1673	-1.48535	-8.42541	-10.731	-175.896	0.255849	2.32479	1.59164	-5.13333	13.2621	0.321932
0.1680	-4.22153	-0.486081	-12.2572	-191.762	-0.959435	2.03778	2.19936	-0.248721	9.60583	0.321932
0.1687	-3.90882	0.425321	-11.3415	-90.1398	-2.17472	-0.114804	0.376206	-3.30247	2.28247	0
0.1693	0	-0.810136	-9.51006	-18.4225	-3.10217	-1.00454	-1.15756	-10.6259	-2.29328	0
0.1700	0.625411	-0.18228	-5.55151	-0.109585	-3.10217	-0.717528	-0.231511	-8.18708	-5.0409	0.321932
0.1707	-4.22153	1.03292	-3.10961	-0.109585	-2.78236	-0.114804	0.665594	-4.82934	-5.0409	0.321932
0.1713	-4.84694	-0.18228	-3.41485	9.96006	-0.0319812	0.51662	1.59164	7.98672	-1.68751	-0.321932
0.1720	-1.79806	-3.54434	-4.02532	21.5517	0.575661	-0.114804	1.27331	19.8908	-0.162261	-0.321932
0.1727	-1.17265	-6.6026	-3.10961	27.6641	-1.56708	-2.84141	-1.47588	18.0599	-2.29328	0
0.1733	-1.79806	-4.45575	0.248006	36.8206	-0.959435	-1.63596	-1.76527	14.3982	-1.9904	0
0.1740	-2.42347	3.76713	4.52133	44.1384	0.863491	1.11934	0.376206	6.77075	0.140626	0
0.1747	-0.547235	9.57985	4.52133	46.8902	1.79095	0.803631	1.27331	3.10902	-0.465147	0
0.1753	2.18894	7.73679	-1.27818	40.169	1.1833	-1.00454	0.0578778	6.77075	-1.68751	0
0.1760	1.25082	9.57985	-7.98387	26.1299	-0.351793	-1.63596	-2.0836	8.90561	-1.38462	0
0.1767	-1.17265	17.5192	-9.51006	26.7509	-0.0319812	0.200908	-0.868167	7.68273	-0.162261	0
0.1773	-4.22153	16.2837	-8.89958	8.74245	-0.351793	0.803631	0.376206	3.10902	-1.08174	0
0.1780	-6.33229	10.4913	-5.24627	-61.7573	-0.959435	-0.114804	-0.549839	-1.77559	-1.68751	0.321932
0.1787	-2.73617	5.00259	3.30038	-101.123	-0.671605	-1.00454	-0.868167	-1.77559	-0.465147	0
0.1793	0.312706	-1.72154	4.52133	-67.2487	-0.959435	-2.84141	-2.69132	-2.07959	-1.38462	-0.321932
0.1800	-0.859941	-3.54434	7.87894	-26.0447	-0.351793	-1.63596	-3.90675	-6.04531	-1.9904	0
0.1807	-0.859941	-3.84814	22.2251	-8.04841	1.79095	1.43506	-1.76527	-9.09906	-0.768034	0
0.1813	-0.547235	-2.63294	26.4984	-2.55698	1.79095	1.72207	-0.549839	4.32499	0.140626	0
0.1820	-0.547235	-1.11394	13.3732	-0.718391	-0.959435	-1.63596	-2.37299	26.9103	-2.29328	0
0.1827	1.25082	-8.12161	-8.59435	5.07744	-1.88689	-4.07556	-4.22508	26.6063	-5.65749	0
0.1833	0	-15.4533	-22.9405	10.2645	-0.959435	-3.47283	-2.69132	13.7902	-4.43512	0
0.1840	-7.89582	-9.66087	-19.5829	7.82924	-1.88689	-2.5544	-1.76527	1.27815	-2.60699	0.321932
0.1847	-10.9447	4.39499	-9.20482	8.43805	-1.88689	-2.23869	-1.15756	-6.35622	-2.29328	0.321932
0.1853	-5.78505	9.88365	-7.67863	9.96006	-1.27925	-2.23869	-0.549839	0.974159	-2.29328	0
0.1860	-1.79806	6.21779	-11.952	-0.413988	-2.17472	-2.84141	-2.0836	7.07474	-3.51565	0
0.1867	0.938117	6.21779	-3.10961	-10.788	-1.27925	-0.717528	-1.47588	3.10902	-1.68751	0
0.1873	4.2997	4.39499	8.48942	-13.8442	0.863491	2.32479	0.665594	22.0257	3.19113	0.321932
0.1880	3.67429	-5.995	5.43704	-4.3834	1.1833	2.6405	1.27331	73.6008	7.1611	0
0.1887	0	-16.0609	0.553243	8.13365	-0.351793	0.200908	-0.868167	87.6398	6.85822	0
0.1893	-0.234529	-20.0306	0.553243	6.90386	-2.78236	-2.84141	-3.29903	51.6304	2.88824	0.321932
0.1900	-0.859941	-13.0027	2.38467	7.20826	-2.17472	-1.92297	-2.0836	31.4909	2.58535	0.321932
0.1907	-3.59611	1.94433	6.04752	27.0553	0.575661	0.803631	0.376206	15.9251	5.33297	0
0.1913	-4.53423	11.7065	8.18418	67.0295	1.47113	1.43506	1.27331	-31.3804	5.93874	-0.321932
0.1920	-4.22153	14.7647	4.82657	88.9952	0.255849	-0.114804	-0.868167	-72.2743	5.33297	-0.321932
0.1927	-6.33229	15.6761	-1.27818	59.6995	-1.88689	-2.5544	-2.98071	-69.8286	4.1106	-0.321932
0.1933	-9.69387	13.8533	-2.19389	32.2424	-1.88689	-1.32025	-1.15756	-33.2112	3.80772	0
0.1940	-10.9447	3.76713	-5.24627	24.9123	-0.959435	1.72207	0.983922	-0.856707	0.45433	0.321932
0.1947	-10.0066	-9.66087	-14.6991	-23.6095	-0.959435	3.87465	2.19936	-4.52535	-2.60699	0
0.1953	-6.33229	-22.7648	-17.4462	-84.0274	-0.959435	3.24322	1.88103	-9.70705	-3.81853	0.321932
0.1960	-1.48535	-29.7927	-13.1729	-82.5054	-1.88689	1.72207	-2.0836	9.5136	-8.4051	-0.321932
0.1967	1.25082	-20.0306	-8.89958	-38.2574	-1.56708	5.0801	-2.69132	25.3834	-10.839	-1.93159
0.1973	2.50165	-4.15194	-6.76292	-6.51422	0.255849	6.91697	-0.231511	8.90561	-7.18274	-1.60966
0.1980	2.81435	4.09118	-6.76292	-8.35282	0.255849	2.6405	0.665594	-29.5495	-2.90987	0
0.1987	3.12706	2.85573	-3.41485	-15.6707	-1.88689	-1.32025	-1.47588	-43.8924	-3.21276	0.321932
0.1993	2.81435	-3.24054	3.60562	-3.16579	-3.70982	-2.5544	-4.51447	-30.1575	-7.18274	0
0.2000	0.625411	-5.6912	6.35276	13.9295	-2.49453	-0.401815	-3.58842	-9.09906	-6.87985	0
0.2007	0.625411	-2.63294	7.87894	20.0297	-0.0319812	2.03778	0.376206	3.10902	-2.90987	0
0.2013	1.56353	0.425321	8.18418	23.6947	0.255849	1.11934	2.80707	-2.69448	-2.90987	0
0.2020	1.25082	-0.486081	3.60562	28.5773	-1.27925	-2.5544	2.80707	-6.9642	-4.43512	0.321932
0.2027	1.56353	-3.24054	-0.057232	32.2424	-1.88689	-6.51515	0.983922	-2.99848	-5.65749	0.321932
0.2033	1.87623	-0.810136	0.248006	41.3988	-0.351793	-3.47283	1.27331	0.359264	-4.73801	0
0.2040	-0.234529	2.85573	1.16372	50.5431	0.255849	3.24322	3.41479	0.974159	-1.9904	0
0.2047	-2.42347	3.46333	2.07943	5.07744	-0.0319812	6.60125	3.1254	0.663257	0.140626	0
0.2053	-1.48535	2.55193	2.68991	-73.6533	-0.959435	7.51969	1.27331	1.58214	1.36299	0
0.2060	-1.17265	-3.84814	4.21609	-55.3526	-2.17472	8.15111	-2.0836	4.32499	-0.162261	0
0.2067	-2.11076	-9.03301	6.35276	5.68625	-1.88689	8.75384	-3.58842	3.10902	1.0601	0
0.2073	-1.48535	-3.54434	5.13181	-4.079	0.575661	7.23268	-0.549839	-2.69448	5.03008	0
0.2080	0.312706	3.15953	2.99514	-21.1621	1.79095	3.55894	2.19936	-4.82934	5.03008	0
0.2087	0	6.52159	-0.057232	-14.4531	1.47113	-0.717528	2.19936	-6.66021	2.28247	0
0.2093	-1.17265	7.43299	-8.89958	-11.3968	-0.671605	-4.67828	-0.231511	-10.6259	-1.38462	0.321932
0.2100	-1.17265	8.97225	-16.8358	-6.51422	-0.959435	-6.51515	0.376206	-10.0179	-1.08174	0.321932
0.2107	-3.28341	8.97225	-14.6991	-0.413988	1.1833	-6.83086	2.48874	-2.07959	1.36299	0.321932
0.2113	-6.33229	3.46333	-6.76292	2.64222	1.47113	-7.11787	1.59164	4.93988	0.45433	0
0.2120	-5.78505	-4.45575	-2.49913	1.71683	0.255849	-9.27046	-1.47588	4.32499	-2.29328	0.321932
0.2127	-3.04888	-10.8761	-3.72008	0.803624	-0.959435	-13.5182	-3.58842	2.80503	-4.13224	0.321932
0.2133	0	-7.81781	0.553243	8.74245	0.863491	-14.1496	-1.15756	5.24388	-2.90987	0.321932
0.2140	1.25082	-0.486081	5.43704	15.4515	2.68642	-7.7206	0.983922	3.717	-0.465147	0.321932
0.2147	-2.73617	0.729122	3.30038	20.0297	0.255849	-2.5544	-2.0836	-4.21445	-1.38462	0.643864
0.2153	-2.11076	-2.32914	2.99514	47.499	-1.88689	-2.84141	-4.83279	-6.35622	-4.43512	0.321932
0.2160	0.938117	-4.15194	3.30038	66.1163	-2.17472	-3.75984	-5.12218	-5.43733	-5.65749	-0.321932
0.2167	-0.547235	-1.72154	1.77419	47.8034	-1.56708	-2.23869	-3.58842	-8.79507	-2.60699	0
0.2173	-2.11076	1.33672	2.07943	42.9208	0.255849	-0.401815	-1.47588	-12.1528	0.45433	0.321932
0.2180	-2.11076	1.64052	1.16372	67.6383	0.863491	0.200908	-1.15756	-11.8488	1.97958	0
0.2187	-1.79806	-0.18228	-3.41485	88.082	-0.671605	-1.32025	-2.69132	-7.26819	1.66588	0
0.2193	-1.79806	-3.24054	-7.37339	88.3864	-2.78236	-4.07556	-5.12218	-2.07959	-1.9904	0
0.2200	-2.11076	-2.32914	-5.55151	90.5294	-3.10217	-4.07556	-5.12218	-0.552714	-3.81853	-1.28773
0.2207	-0.859941	1.64052	-0.36247	94.8032	-0.959435	-5.91243	-2.98071	2.19013	-1.9904	-2.25352
0.2213	0.938117	3.15953	3.30038	15.7559	0.863491	-9.27046	-1.15756	8.29762	3.50483	-0.643864
0.2220	0.625411	1.64052	3.30038	-123.709	0.575661	-10.1602	-0.868167	8.60162	8.68635	0.321932
0.2227	0.312706	-0.810136	1.77419	-153.005	-0.351793	-10.1602	-1.76527	4.93988	6.25244	0.321932
0.2233	0.312706	2.24813	1.77419	-97.762	0.575661	-9.27046	-0.868167	3.10902	1.36299	0
0.2240	-1.48535	6.52159	0.553243	-89.8354	1.1833	-7.11787	0.0578778	-1.16761	1.36299	-0.321932
0.2247	-3.90882	6.52159	-1.27818	-86.1704	0.255849	-5.281	-0.231511	-4.52535	2.28247	0
0.2253	-3.59611	1.33672	-0.667707	-48.6314	-0.0319812	-6.19944	-2.0836	-3.60646	-0.162261	-0.321932
0.2260	-1.48535	-5.995	-1.58342	-24.5227	-1.27925	-8.95474	-3.90675	-1.4716	-3.21276	0
0.2267	-0.547235	-6.90641	-0.36247	-13.2354	-1.27925	-7.11787	-2.69132	7.07474	-3.21276	0.321932
0.2273	-3.90882	-3.24054	5.43704	-4.99221	-1.88689	-2.23869	-1.47588	16.2291	-1.68751	0
0.2280	-6.09776	-3.54434	8.48942	-4.68781	-1.56708	0.200908	-1.15756	11.6554	-0.162261	0
0.2287	-1.17265	-5.995	3.60562	-5.60101	-0.671605	0.51662	-0.549839	2.49412	-2.29328	0
0.2293	0.312706	-5.3874	-5.55151	-6.20982	-2.17472	0.200908	-2.37299	1.27815	-7.18274	0
0.2300	-2.11076	1.03292	-8.89958	-5.60101	-2.49453	2.6405	-2.0836	1.58214	-5.96037	0
0.2307	-2.73617	5.30639	-7.98387	-2.24041	0.255849	8.15111	1.59164	0.359264	-0.768034	0
0.2313	-3.04888	2.55193	-13.4781	-1.02279	0.255849	13.0303	1.88103	0.974159	0.45433	0
0.2320	-3.28341	1.33672	-17.4462	-0.718391	-1.27925	16.0726	-0.549839	-0.248721	-1.9904	0
0.2327	-2.73617	5.30639	-7.06816	0.499221	-1.56708	15.4699	-2.37299	-1.16761	-4.43512	0.321932
0.2333	-3.59611	9.27605	5.43704	0.803624	-0.959435	13.9487	-1.15756	-0.248721	-2.90987	0
0.2340	-4.84694	11.4027	6.35276	-1.936	0.575661	12.3989	1.59164	0.0552714	1.0601	0
0.2347	-3.04888	16.2837	3.60562	-5.29661	1.47113	10.5907	2.19936	-2.38358	2.58535	0
0.2353	-1.48535	19.342	1.46896	-8.65722	0.863491	7.23268	0.0578778	-10.6259	1.0601	0
0.2360	-1.79806	6.52159	-0.057232	-9.87483	-2.17472	3.55894	-2.98071	-10.0179	-1.9904	-0.321932
0.2367	-0.859941	-8.72921	2.68991	-4.68781	-1.88689	4.79308	-2.69132	0.359264	-1.08174	-0.321932
0.2373	-0.234529	-6.90641	5.74228	1.10803	0.255849	6.91697	-0.549839	0.663257	1.0601	-0.321932
0.2380	0	0.12152	5.74228	4.46864	0.863491	6.31424	-0.231511	-2.99848	1.36299	-0.321932
0.2387	1.25082	-5.995	5.43704	8.43805	-0.671605	4.16166	-0.868167	2.49412	0.757216	0
0.2393	1.87623	-17.8837	2.68991	12.4075	-2.49453	1.11934	-2.98071	8.29762	-0.768034	0
0.2400	0.938117	-14.2381	-0.667707	13.0163	-1.27925	0.803631	-1.76527	3.10902	0.757216	0
0.2407	-0.859941	-5.6912	-0.667707	12.7119	0.255849	2.95621	0.665594	-3.30247	2.88824	0.321932
0.2413	-2.42347	-5.3874	2.38467	14.8427	0.863491	4.47737	1.27331	-2.69448	1.66588	0
0.2420	-3.04888	-2.32914	4.82657	16.6691	0.255849	2.95621	0.0578778	3.41301	-0.465147	-0.321932
0.2427	-4.22153	-1.72154	2.07943	21.2473	-1.88689	-0.114804	-2.37299	7.68273	-1.68751	0
0.2433	-4.22153	-9.33681	0.248006	25.2167	-2.17472	1.11934	-0.868167	22.3366	-0.465147	0
0.2440	-1.79806	-10.8761	4.21609	19.1165	-0.671605	2.6405	2.19936	37.5915	1.66588	0
0.2447	-0.859941	-2.32914	7.57371	13.0163	-0.0319812	-0.401815	3.73312	29.0451	1.97958	-0.321932
0.2453	-1.48535	0.729122	4.82657	20.3341	-1.56708	-4.99399	2.48874	24.1674	-1.08174	-0.643864
0.2460	-2.11076	-1.41774	-5.55151	35.2864	-3.39	-6.83086	-0.868167	32.7069	-6.56615	-0.321932
0.2467	-3.59611	2.55193	-12.8677	27.3597	-1.88689	-2.84141	-1.15756	22.0257	-5.65749	0
0.2473	-6.09776	10.4913	-11.6467	-2.24041	-0.351793	1.43506	-0.231511	-2.69448	-0.768034	0
0.2480	-3.90882	17.823	-16.5305	-11.3968	-0.959435	1.43506	-2.37299	-28.3266	1.0601	0
0.2487	3.12706	18.1268	-24.1615	-13.8442	-1.27925	-0.717528	-3.29903	-49.385	-0.465147	0
0.2493	4.92511	0.729122	-15.3096	-40.0838	-2.17472	-2.84141	-3.90675	-15.8145	-5.3546	0
0.2500	0.938117	-17.5799	3.60562	-56.8746	-2.49453	-1.92297	-2.69132	42.1721	-6.56615	0.321932
0.2507	0.312706	-17.2761	12.4575	-37.3442	-1.27925	-0.401815	-0.549839	32.0989	-4.13224	0
0.2513	2.81435	-8.42541	12.4575	-9.87483	-0.351793	0.200908	-0.549839	7.07474	-5.96037	-0.321932
0.2520	3.36159	-3.24054	9.09989	1.41243	-0.671605	-0.717528	-2.98071	21.1137	-9.31376	-0.321932
0.2527	2.50165	-0.810136	5.13181	-8.04841	-2.17472	-2.5544	-3.58842	12.8713	-8.4051	0
0.2533	1.87623	4.69879	2.38467	-15.9751	-1.27925	-0.717528	-0.868167	-13.3688	-3.81853	0
0.2540	-0.547235	10.7951	0.553243	3.25102	0.863491	2.32479	1.59164	-23.138	2.58535	0
0.2547	-3.28341	14.4609	3.60562	27.3597	0.575661	2.95621	1.88103	-37.4809	4.41349	-0.965796
0.2553	-1.17265	8.0406	6.96323	39.8646	-0.959435	3.24322	-0.868167	-40.8387	-0.465147	-2.57546
0.2560	2.18894	-8.72921	1.16372	45.0516	-2.17472	0.51662	-2.98071	-21.0031	-4.73801	-1.28773
0.2567	-0.547235	-17.2761	-2.49913	64.5821	-2.17472	-1.92297	-1.15756	-2.07959	-4.43512	0
0.2573	-6.33229	-13.9141	1.16372	109.451	-0.351793	0.803631	1.88103	7.37874	-0.162261	0
0.2580	-8.83393	-6.6026	5.13181	77.4036	1.1833	3.24322	2.48874	14.3982	8.38347	0
0.2587	-8.20852	1.03292	3.60562	-51.992	0.575661	2.32479	-0.549839	18.3639	9.60583	-0.321932
0.2593	-6.33229	6.52159	-4.6358	-113.944	-1.56708	-1.63596	-4.22508	12.5673	1.0601	-0.321932
0.2600	-6.09776	13.5495	-12.5624	-78.536	-0.959435	-3.15712	-3.58842	-0.856707	-1.08174	-0.321932
0.2607	-8.20852	20.861	-14.0886	-41.0092	-0.0319812	-1.63596	-1.47588	-7.87618	1.97958	-0.321932
0.2613	-6.09776	21.4686	-7.67863	-24.5227	0.863491	-0.114804	0.0578778	-11.2339	2.58535	-0.321932
0.2620	-1.79806	16.2837	-3.72008	-18.7269	1.1833	-0.717528	0.376206	-18.5574	0.757216	0
0.2627	-3.59611	3.76713	-7.98387	-8.96162	-1.27925	-3.47283	-2.69132	-8.79507	-2.29328	0
0.2633	-5.15964	-19.7268	-5.55151	16.3647	-0.351793	-2.5544	-2.69132	10.7365	-0.465147	0
0.2640	-2.11076	-25.8231	1.16372	25.5211	3.00623	0.200908	1.27331	-2.38358	4.1106	0.321932
0.2647	-3.59611	-5.6912	-0.36247	7.52484	1.79095	-0.717528	1.88103	-30.4615	4.71638	0
0.2653	-5.15964	7.43299	-3.10961	-4.3834	-0.959435	-2.5544	-0.868167	-20.6992	1.97958	-0.321932
0.2660	-0.859941	1.03292	-1.58342	-4.68781	-1.88689	-3.15712	-3.29903	2.49412	-1.08174	-0.321932
0.2667	0	-9.03301	0.553243	-3.16579	-0.671605	-1.63596	-2.0836	-3.30247	-0.768034	0
0.2673	-0.547235	-10.2685	2.99514	-1.3272	0.863491	0.51662	0.665594	-18.8683	1.0601	-0.321932
0.2680	-1.48535	-10.8761	5.74228	-2.24041	0.575661	0.51662	1.27331	-27.4077	1.0601	-0.321932
0.2687	-2.42347	-10.8761	4.21609	-5.90542	-0.351793	-1.32025	0.376206	-33.2112	-0.465147	-0.321932
0.2693	0.312706	-2.32914	-0.36247	-8.04841	-1.56708	-3.15712	-1.15756	-33.5152	-3.21276	-0.321932
0.2700	2.50165	5.61019	-3.41485	-7.12303	-1.88689	-2.5544	-1.47588	-23.138	-3.21276	0
0.2707	-0.547235	4.39499	-3.41485	-4.079	-0.351793	-0.114804	-0.549839	-1.4716	-0.162261	0
0.2713	-2.42347	-5.3874	-2.80437	-1.02279	0.575661	-0.114804	0.0578778	23.5525	1.0601	0
0.2720	-0.859941	-17.5799	-0.972945	-1.936	-0.671605	-1.92297	-0.868167	33.0178	-1.08174	0
0.2727	-0.859941	-22.461	2.38467	-4.68781	-2.49453	-3.47283	-3.29903	29.964	-3.21276	0
0.2733	-1.79806	-14.5419	1.77419	-6.20982	-1.56708	-2.23869	-1.47588	39.4224	-0.768034	-0.321932
0.2740	-6.9577	0.425321	-4.6358	-1.6316	-0.959435	-0.717528	0.376206	37.2875	2.28247	-0.321932
0.2747	-11.2574	10.4913	-7.06816	23.0859	-1.27925	-1.00454	-0.231511	-2.69448	2.28247	0
0.2753	-6.9577	10.1875	1.77419	53.9037	-0.959435	-1.63596	0.665594	-39.0078	0.45433	0
0.2760	-3.04888	10.4913	2.07943	68.8559	-1.88689	-3.75984	0.0578778	-33.8192	-2.90987	0
0.2767	-1.79806	8.3444	-18.9724	77.0992	-1.27925	-4.07556	0.665594	-1.4716	-3.21276	0
0.2773	-2.73617	-7.51401	-33.3186	81.0686	-0.671605	-2.84141	1.88103	4.93988	-1.38462	0
0.2780	-6.09776	-16.6685	-26.2981	78.3168	-1.27925	-1.92297	0.376206	-25.2729	-0.768034	0
0.2787	-4.22153	-13.0027	-6.45768	72.2166	-1.56708	-2.23869	-1.15756	-17.9494	-1.9904	0
0.2793	-2.73617	-15.1495	14.5942	65.2031	-3.39	-3.15712	-3.29903	36.9835	-5.3546	-1.28773
0.2800	-3.90882	-16.0609	25.2775	46.5858	-3.70982	0.200908	-3.58842	57.731	-4.73801	-2.25352
0.2807	-3.28341	-7.21021	29.856	-35.81	-1.56708	2.6405	-1.15756	14.7022	0.45433	-0.965796
0.2813	-1.48535	4.09118	26.1932	-151.166	0.575661	2.32479	0.665594	-32.9003	5.63585	0.321932
0.2820	-0.547235	9.27605	5.13181	-165.206	0.863491	0.803631	-1.15756	-32.9003	5.93874	0
0.2827	-1.17265	8.66845	-11.0362	-89.2266	-0.959435	-2.23869	-5.12218	-4.52535	2.28247	0
0.2833	-1.17265	16.2837	-6.76292	-41.9224	-0.959435	-1.32025	-4.83279	15.9251	1.0601	0
0.2840	-0.859941	12.3141	0.248006	-37.953	0.863491	2.32479	-1.15756	26.3023	1.97958	0
0.2847	1.25082	-9.33681	1.16372	-32.7659	1.79095	2.95621	0.665594	7.37874	2.28247	0
0.2853	2.50165	-10.5723	2.68991	-15.3663	0.575661	0.803631	-0.549839	-36.569	0.140626	0
0.2860	2.81435	1.33672	6.35276	16.9857	-0.959435	-1.92297	-2.69132	-42.6695	-3.81853	0
0.2867	1.87623	8.66845	8.48942	60.9293	-1.27925	-1.63596	-1.15756	-20.3883	-4.43512	0.321932
0.2873	-0.234529	15.0685	6.65799	96.0209	-0.351793	0.200908	1.88103	-9.70705	-2.90987	0.321932
0.2880	2.50165	13.2457	7.57371	127.764	1.47113	3.24322	4.34083	-0.248721	-5.65749	0
0.2887	3.67429	2.55193	6.35276	147.599	0.863491	3.24322	3.41479	6.77075	-12.678	0
0.2893	0	-10.2685	-0.057232	123.186	-1.88689	-1.32025	-0.868167	6.77075	-16.9508	0
0.2900	-2.73617	-13.9141	1.16372	102.121	-1.56708	-2.5544	-0.549839	4.63589	-11.7585	0
0.2907	-3.59611	-6.2988	4.21609	144.847	-0.0319812	-0.717528	1.88103	-3.60646	-5.96037	0
0.2913	-1.79806	1.33672	-0.36247	186.964	-0.671605	-0.114804	2.19936	-10.3219	-2.60699	0
0.2920	2.50165	1.33672	-4.33056	147.294	-2.17472	-1.63596	0.665594	-7.57219	-0.465147	0
0.2927	3.987	-2.02534	-3.10961	13.6251	-3.39	-2.84141	-2.0836	-8.79507	0.45433	-0.321932
0.2933	3.12706	-1.11394	-0.057232	-221.057	-1.88689	-0.401815	-0.868167	-9.40305	9.30294	-0.321932
0.2940	2.18894	1.94433	1.16372	-373.344	0.575661	2.03778	2.48874	-2.69448	18.4544	0
0.2947	2.18894	3.15953	0.858481	-279.344	1.1833	2.32479	4.34083	-0.248721	15.4039	0
0.2953	2.18894	1.94433	0.858481	-137.748	0.255849	1.43506	4.02251	-3.30247	8.68635	0
0.2960	0.625411	1.33672	0.553243	-86.7792	-1.56708	-0.717528	1.27331	-6.04531	2.88824	-0.321932
0.2967	-0.859941	1.33672	-0.36247	-66.0311	-1.56708	-0.717528	-1.76527	-5.43733	-0.768034	-0.321932
0.2973	-3.04888	-0.810136	-1.88866	-53.8184	-0.351793	0.51662	-2.69132	-4.52535	-0.162261	0
0.2980	-5.47235	-0.18228	-0.667707	-50.1534	-0.0319812	1.11934	-2.37299	-3.60646	1.36299	0
0.2987	-4.84694	2.55193	1.77419	-45.5752	-1.27925	1.43506	-2.69132	-0.856707	0.140626	-0.321932
0.2993	-1.79806	1.33672	1.77419	-41.3136	-2.49453	-1.00454	-4.51447	-4.82934	-1.68751	-0.321932
0.3000	-2.42347	1.33672	1.77419	-35.81	-2.17472	-4.67828	-3.58842	-15.8145	-3.51565	-0.321932
0.3007	-9.14664	6.52159	1.46896	-10.788	-2.49453	-4.67828	-2.98071	-11.5379	-7.18274	0
0.3013	-10.632	9.57985	3.91086	39.8646	-1.56708	-1.92297	-2.98071	2.19013	-8.70799	0
0.3020	-3.59611	8.97225	10.6261	83.1994	-0.0319812	-0.717528	-1.76527	-6.9642	-8.0914	0
0.3027	-0.234529	5.30639	8.48942	96.3253	-1.56708	-2.23869	-3.29903	-26.7997	-9.61665	0
0.3033	-0.859941	0.425321	-0.36247	105.482	-2.17472	-0.717528	-2.98071	-38.7038	-6.26326	0
0.3040	1.56353	-3.24054	-4.94103	131.417	-0.671605	3.55894	0.665594	-33.5152	0.140626	-0.321932
0.3047	4.2997	-5.06335	-4.02532	149.73	-0.0319812	6.31424	1.88103	-2.38358	3.80772	0
0.3053	3.12706	-5.995	2.68991	135.082	-1.56708	4.79308	0.0578778	17.148	3.50483	0
0.3060	1.87623	-6.2988	6.35276	109.756	-3.10217	0.200908	-3.29903	33.3218	-0.162261	0
0.3067	0.938117	-0.18228	9.40513	116.465	-2.17472	0.200908	-2.98071	55.5962	-1.08174	0
0.3073	-2.73617	14.1571	14.5942	27.3597	-0.959435	2.6405	-1.15756	20.5057	2.28247	-0.321932
0.3080	-5.15964	20.2534	6.04752	-213.423	-0.671605	2.95621	-1.15756	-24.05	7.77769	-0.321932
0.3087	-4.53423	12.9419	-5.85675	-287.588	-0.959435	0.200908	-2.0836	-20.0843	8.68635	0.321932
0.3093	-5.15964	2.55193	-11.0362	-127.983	-2.49453	-3.15712	-3.90675	8.29762	-0.162261	-0.643864
0.3100	-4.53423	1.33672	-16.8358	26.4343	-1.27925	0.51662	-2.0836	60.1768	-6.87985	-2.25352
0.3107	-2.73617	3.76713	-17.4462	60.3205	2.68642	5.39581	3.1254	87.3358	-1.38462	-1.28773
0.3113	-2.11076	-3.54434	-9.8153	-60.2352	4.22151	3.55894	4.34083	62.0076	7.46399	0.321932
0.3120	2.81435	-9.96467	-3.10961	-158.801	1.79095	-1.63596	1.59164	54.6842	6.55533	0
0.3127	7.03588	-2.93674	-3.10961	-114.857	-0.671605	-7.11787	-2.0836	44.003	-0.162261	-0.321932
0.3133	4.92511	10.7951	2.38467	-54.1228	-0.0319812	-7.43359	-1.76527	-25.5769	-1.68751	0
0.3140	1.56353	11.0989	15.2046	-35.2012	1.1833	-2.84141	0.665594	-70.7474	0.757216	0
0.3147	-1.48535	-5.995	21.9199	-37.0397	1.47113	0.803631	2.19936	-43.2775	1.0601	0
0.3153	-3.59611	-16.0609	18.5623	-40.0838	1.47113	-1.32025	2.80707	-11.8488	-2.60699	0
0.3160	-1.48535	-12.0913	12.4575	-28.1877	-0.351793	-6.51515	0.983922	-8.49107	-5.96037	0
0.3167	-0.234529	-5.995	3.60562	-16.9004	-0.671605	-6.83086	-0.231511	-10.9299	-2.29328	0
0.3173	-6.9577	-0.810136	-12.5624	-16.2795	-0.671605	-2.5544	-1.47588	-9.40305	3.50483	0
0.3180	-10.3193	1.94433	-26.2981	-16.9004	-0.959435	2.32479	-3.29903	-14.8957	4.71638	-1.28773
0.3187	-4.84694	1.64052	-24.4667	-17.2049	-0.351793	3.55894	-3.29903	-15.5105	3.19113	-0.965796
0.3193	-2.11076	-0.810136	-18.9724	-20.8577	-1.27925	-1.00454	-3.90675	0.663257	0.140626	0.321932
0.3200	-3.90882	-0.18228	-17.141	-24.5227	-1.56708	-1.92297	-3.29903	5.24388	0.140626	-0.321932
0.3207	-5.47235	3.15953	-8.59435	-24.5227	0.863491	0.200908	0.0578778	-3.91045	2.58535	0
0.3213	-3.90882	-1.72154	-2.19389	-17.2049	1.47113	-0.114804	0.376206	-7.57219	1.36299	-0.321932
0.3220	-0.234529	-12.6989	-4.94103	-4.99221	0.255849	0.803631	-2.69132	-6.66021	-1.9904	-1.93159
0.3227	2.50165	-15.1495	-1.27818	10.2645	-0.959435	1.11934	-4.22508	0.663257	-5.0409	-1.93159
0.3233	1.56353	-5.995	7.26847	29.4906	-0.671605	0.51662	-2.37299	4.93988	-6.56615	0
0.3240	-1.17265	1.64052	9.40513	44.7472	0.575661	1.11934	-0.549839	-0.248721	-5.96037	0.321932
0.3247	-3.04888	2.85573	10.6261	60.0039	1.79095	1.72207	0.0578778	10.7365	-3.51565	0
0.3253	-5.15964	3.46333	4.52133	74.9684	0.255849	-0.401815	-1.15756	30.876	-3.51565	0
0.3260	-6.09776	5.00259	-15.92	69.4647	-2.49453	-3.15712	-4.22508	36.6795	-5.3546	-0.321932
0.3267	-4.22153	9.27605	-32.7081	66.7251	-1.27925	-1.92297	-3.29903	36.0646	-2.60699	-0.321932
0.3273	-3.28341	15.0685	-28.4348	84.7336	0.255849	1.11934	-0.549839	27.8292	0.757216	0
0.3280	-3.04888	25.4383	-10.4258	95.4121	-0.351793	2.03778	0.665594	19.8908	0.757216	0
0.3287	-0.234529	25.4383	3.30038	101.512	-1.27925	-0.114804	-0.549839	19.8908	-1.38462	0
0.3293	0	0.12152	5.43704	80.1554	-2.78236	-3.15712	-2.98071	-4.21445	-4.13224	0
0.3300	-0.547235	-6.2988	2.07943	2.32564	-2.78236	-2.84141	-2.0836	-48.1621	-1.9904	0
0.3307	-1.79806	9.88365	2.07943	-54.1228	-2.49453	-0.401815	-0.868167	-67.3897	1.66588	0
0.3313	-6.9577	-1.41774	1.77419	-17.5093	-1.56708	-0.114804	-0.549839	-50.9119	1.0601	0
0.3320	-5.47235	-23.3927	1.46896	48.7166	-0.671605	-1.92297	0.665594	-17.0374	-3.51565	-0.321932
0.3327	1.25082	-27.0383	4.21609	17.2901	-2.49453	-4.67828	-1.15756	3.41301	-5.65749	0
0.3333	4.61241	-15.4533	7.57371	-85.2572	-2.49453	-3.75984	-0.231511	-2.69448	-1.38462	0
0.3340	3.36159	-2.63294	6.96323	-98.0664	-0.351793	-0.717528	3.41479	-9.70705	1.97958	0
0.3347	-0.859941	3.76713	5.13181	-28.7965	-0.671605	-0.401815	2.80707	-2.99848	0.140626	0
0.3353	-2.42347	6.82539	5.13181	11.4821	-1.88689	-0.401815	0.665594	-5.74132	-1.38462	0
0.3360	0	3.76713	-0.667707	21.2473	-3.10217	-1.00454	-1.76527	-23.746	-2.60699	0
0.3367	0.625411	0.12152	-6.76292	23.0859	-2.49453	-0.114804	-2.37299	-28.6306	-1.08174	0
0.3373	0.625411	-1.72154	-3.72008	28.2729	0.255849	2.6405	0.0578778	-10.9299	0.45433	0
0.3380	-0.547235	-7.21021	0.858481	13.6251	1.47113	2.6405	1.27331	10.4325	-0.768034	-0.321932
0.3387	-2.42347	-10.2685	2.38467	-70.6093	1.47113	-0.114804	1.59164	16.8371	-0.162261	0
0.3393	-2.11076	-11.7875	1.16372	-128.592	-0.0319812	-2.23869	-0.231511	0.974159	0.757216	-0.643864
0.3400	-3.59611	-10.8761	-1.88866	-80.0701	-0.351793	1.72207	-1.76527	-14.5917	2.28247	-2.25352
0.3407	-7.58311	-6.6026	-0.667707	-23.6095	0.863491	5.0801	1.27331	-2.69448	6.85822	-1.60966
0.3413	-8.52123	-3.24054	5.43704	-3.47019	1.79095	3.55894	3.1254	4.93988	9.90872	0
0.3420	-2.73617	-2.63294	11.847	11.7865	1.47113	2.03778	0.665594	7.07474	6.85822	0.321932
0.3427	2.81435	-3.54434	13.3732	14.8427	-1.27925	-0.114804	-3.58842	35.7606	-0.465147	0
0.3433	3.36159	0.425321	16.4256	1.71683	-1.88689	0.51662	-2.37299	47.0498	-0.465147	0
0.3440	2.81435	7.43299	23.1408	-3.16579	-0.0319812	2.95621	0.376206	37.5915	1.97958	-0.321932
0.3447	1.56353	11.0989	25.888	12.0909	-0.959435	2.32479	-1.15756	51.6304	0.45433	0
0.3453	3.67429	15.6761	24.9722	4.46864	-1.56708	1.72207	-1.76527	65.9734	-0.162261	0
0.3460	3.987	14.7647	13.3732	-44.0532	-2.78236	-0.114804	-2.98071	55.2922	-2.90987	0
0.3467	-1.48535	4.39499	-12.8677	-70.0005	-2.78236	-1.32025	-2.69132	41.8612	-6.87985	0
0.3473	-6.64499	-2.93674	-33.6238	-46.805	-0.351793	0.200908	0.376206	18.9788	-6.56615	-0.321932
0.3480	-7.27041	3.46333	-29.3505	-11.7012	-0.0319812	1.11934	0.665594	-39.3118	-5.96037	0
0.3487	-5.15964	3.76713	-11.3415	12.0909	-0.959435	-0.401815	-1.76527	-78.3749	-6.87985	0
0.3493	-3.59611	-16.0609	1.46896	17.2901	-2.78236	-2.84141	-3.58842	-67.6937	-6.87985	-0.321932
0.3500	-4.84694	-18.8154	7.87894	9.96006	-2.49453	-1.63596	-3.29903	-51.2159	-3.51565	-0.321932
0.3507	-6.33229	-1.72154	6.04752	11.4821	0.575661	-4.99399	-0.868167	-29.2386	1.36299	0
0.3513	-3.28341	2.85573	-0.36247	18.8121	2.39859	-16.2735	2.19936	-9.09906	4.1106	0
0.3520	-1.79806	-3.24054	0.553243	-19.3357	2.07878	-21.7841	1.88103	-17.9494	5.33297	0
0.3527	-1.17265	-9.96467	0.858481	-77.6227	0.863491	-19.3158	-1.76527	-32.9003	4.41349	-0.321932
0.3533	0.312706	-7.81781	-5.55151	-67.2487	0.575661	-16.5892	-2.37299	-46.9393	3.50483	-0.321932
0.3540	-0.234529	1.33672	-4.94103	-0.413988	1.1833	-14.1496	-0.231511	-59.7622	5.03008	-0.321932
0.3547	-0.859941	5.00259	0.858481	54.8169	2.39859	-11.71	1.88103	-35.9541	7.1611	0
0.3553	-0.859941	0.729122	-0.667707	57.8731	1.1833	-11.9971	1.88103	-11.2339	4.71638	0.321932
0.3560	-0.547235	-5.995	-8.89958	31.938	-1.27925	-11.3943	-0.231511	-18.5574	-2.60699	0.321932
0.3567	-0.859941	-8.12161	-17.4462	19.7253	-0.0319812	-5.281	0.0578778	-4.82934	-5.0409	0
0.3573	-3.04888	-4.45575	-21.7196	18.2033	1.47113	2.6405	0.983922	46.1378	-3.21276	-0.321932
0.3580	-3.59611	-0.486081	-17.4462	21.2473	1.1833	7.23268	0.376206	67.8042	-2.90987	-0.321932
0.3587	-1.17265	-2.93674	-11.3415	26.7509	-0.0319812	5.39581	-1.76527	36.6795	-3.21276	0
0.3593	1.25082	-7.21021	-8.28911	23.0859	-1.88689	2.6405	-4.83279	9.5136	-5.0409	0
0.3600	0.312706	-2.93674	-4.6358	20.3341	-1.27925	4.79308	-4.22508	5.54787	-5.3546	-0.321932
0.3607	-2.11076	3.46333	-0.057232	17.2901	-0.0319812	8.15111	-1.47588	4.021	-3.81853	-0.321932
0.3613	-3.59611	4.39499	2.07943	-26.6657	-1.27925	11.1934	-2.0836	1.88614	-2.60699	-0.321932
0.3620	-1.17265	0.425321	2.07943	-83.1142	-1.56708	15.1542	-2.98071	2.80503	-4.13224	0
0.3627	1.25082	-4.75955	2.38467	-81.2878	-2.17472	17.5938	-3.90675	-0.248721	-6.87985	0
0.3633	0.625411	-5.06335	4.21609	-46.5006	-1.56708	18.8279	-3.29903	-4.52535	-5.0409	0
0.3640	-0.859941	-2.32914	5.43704	-23.3051	-0.0319812	16.9911	-0.868167	-6.9642	-2.60699	-0.321932
0.3647	-2.73617	-1.41774	6.04752	-8.04841	-0.0319812	11.4804	0.983922	-10.0179	-2.29328	0
0.3653	-3.04888	-2.93674	6.65799	2.02124	-1.27925	6.31424	1.27331	-9.40305	-3.21276	0
0.3660	-2.11076	-2.93674	3.91086	2.02124	-3.10217	2.6405	-0.868167	-6.04531	-5.3546	-0.321932
0.3667	-1.17265	0.12152	2.68991	9.96006	-2.17472	3.24322	-0.231511	-0.248721	-4.43512	0
0.3673	-2.42347	1.64052	2.68991	57.2643	-0.671605	5.39581	2.19936	1.27815	0.45433	0
0.3680	-3.28341	4.69879	2.38467	100.599	-0.959435	5.99853	1.59164	-2.07959	4.1106	0
0.3687	0.938117	2.24813	-0.36247	70.9989	-0.351793	5.68282	0.665594	2.80503	2.88824	-0.321932
0.3693	5.55053	-5.995	-2.49913	23.3903	-1.88689	2.95621	-1.76527	6.77075	-3.21276	-0.321932
0.3700	3.987	0.12152	1.77419	13.0163	-2.78236	1.72207	-1.76527	1.58214	-4.43512	0.321932
0.3707	0.312706	17.823	3.60562	6.90386	-0.671605	3.55894	0.665594	2.80503	-0.465147	-0.643864
0.3713	-1.17265	30.9472	0.858481	-3.7746	-0.0319812	5.99853	1.27331	14.7022	2.28247	-2.57546
0.3720	-1.79806	35.2004	-3.10961	-6.81863	-0.959435	5.68282	-0.231511	25.0794	1.66588	-1.60966
0.3727	-2.11076	27.2813	-7.67863	-4.3834	-2.49453	1.43506	-3.29903	28.1332	-1.68751	0
0.3733	-2.73617	22.4002	-4.6358	1.41243	-1.88689	0.803631	-3.29903	32.7069	-1.68751	0
0.3740	-4.22153	13.8533	4.52133	6.29505	-0.351793	1.43506	-0.549839	25.6874	0.45433	0
0.3747	-6.33229	-19.423	6.96323	8.43805	-0.671605	-0.114804	-0.549839	-6.04531	0.45433	0
0.3753	-4.53423	-43.2207	2.07943	9.65566	-1.88689	-3.15712	-1.76527	-22.53	-1.08174	-0.321932
0.3760	-1.79806	-33.7624	-4.6358	7.52484	-3.10217	-7.43359	-3.90675	-17.3414	-2.29328	-0.321932
0.3767	-2.73617	-15.1495	-9.8153	2.32564	-1.88689	-6.83086	-3.58842	-17.3414	1.97958	-0.321932
0.3773	-4.84694	-5.06335	-12.8677	-1.02279	-0.671605	-2.84141	-1.47588	-19.7803	5.63585	-0.321932
0.3780	-5.47235	-1.72154	-8.89958	-1.02279	-0.959435	-1.00454	-1.76527	-21.9151	5.93874	-0.321932
0.3787	-4.84694	-2.02534	-0.972945	-1.02279	-0.671605	-1.63596	-2.98071	-17.0374	5.03008	0
0.3793	-5.47235	-7.21021	3.91086	-3.16579	-2.17472	-4.07556	-4.83279	-5.74132	1.66588	0
0.3800	-5.15964	-7.51401	8.79466	-2.24041	-1.27925	-3.15712	-3.58842	-3.91045	1.0601	-0.321932
0.3807	-5.78505	-0.810136	8.48942	0.194818	0.255849	-0.717528	-1.47588	-13.9837	3.19113	-0.321932
0.3813	-5.78505	2.55193	2.99514	1.10803	-0.0319812	-1.00454	-0.868167	-22.834	3.50483	0
0.3820	0.625411	0.12152	-0.667707	7.20826	0.575661	-2.23869	0.665594	-22.2191	-0.465147	0
0.3827	3.987	-4.45575	-8.89958	14.2339	-0.351793	-3.75984	0.376206	11.0405	-7.78851	-0.321932
0.3833	1.56353	-2.32914	-11.0362	13.6251	-1.27925	-3.75984	0.665594	44.611	-8.4051	0
0.3840	-0.859941	5.30639	-0.667707	10.2645	-0.0319812	-1.63596	2.48874	21.4177	-3.51565	0
0.3847	-0.234529	8.66845	5.74228	9.96006	1.1833	0.803631	2.80707	-7.26819	-1.68751	0
0.3853	1.25082	10.7951	5.74228	8.74245	0.255849	0.803631	1.27331	-8.49107	-2.29328	0
0.3860	2.18894	12.3141	2.68991	9.35126	-1.88689	-2.23869	-2.37299	-4.82934	-5.3546	-0.321932
0.3867	1.87623	8.0406	1.77419	13.3207	-2.17472	-1.00454	-2.69132	7.07474	-5.65749	-0.321932
0.3873	-0.234529	5.61019	4.52133	14.2339	0.255849	2.6405	1.88103	18.3639	-2.29328	0
0.3880	-0.547235	0.729122	1.16372	16.6691	1.1833	1.72207	3.73312	12.2633	-0.465147	0
0.3887	0.312706	-14.2381	-4.6358	21.8683	-0.351793	-0.717528	1.27331	6.15586	-1.68751	0
0.3893	-0.547235	-22.461	-4.33056	24.6079	-2.17472	-2.84141	-2.37299	7.07474	-5.0409	-0.321932
0.3900	-2.73617	-15.1495	-0.057232	27.9685	-2.78236	-2.5544	-3.29903	4.32499	-4.43512	-0.321932
0.3907	-2.42347	-7.21021	4.82657	29.795	-0.959435	-0.114804	-1.15756	6.77075	-0.162261	0
0.3913	0	-2.93674	3.91086	30.4038	0.575661	0.200908	0.0578778	9.8245	2.58535	-0.321932
0.3920	0.938117	-0.18228	-0.972945	30.7082	-1.27925	-1.92297	-1.47588	3.717	2.88824	0
0.3927	1.56353	-1.11394	-3.10961	28.2729	-4.31746	-4.36257	-4.51447	0.663257	-0.465147	0.321932
0.3933	2.18894	0.425321	0.248006	42.9208	-3.39	-3.15712	-3.90675	7.37874	-1.08174	0
0.3940	0.938117	4.09118	2.68991	52.6861	-0.671605	-0.401815	-1.15756	11.6554	0.140626	0
0.3947	-1.17265	2.24813	0.858481	37.4294	-0.959435	0.200908	-1.15756	11.0405	-0.768034	0
0.3953	-0.547235	-4.75955	-0.36247	35.8952	-1.56708	-1.92297	-1.76527	13.7902	-1.38462	-0.321932
0.3960	0.625411	-7.51401	-2.49913	35.2864	-1.88689	-4.99399	-2.69132	14.0942	-0.768034	0
0.3967	-1.17265	-1.11394	-7.06816	26.1299	-0.671605	-3.47283	-1.76527	9.5136	1.36299	0
0.3973	-4.22153	6.21779	-8.89958	39.2558	0.863491	-0.114804	1.27331	9.8245	0.757216	0
0.3980	-7.58311	7.73679	-8.89958	37.125	0.575661	0.803631	1.59164	-4.21445	-2.60699	-0.321932
0.3987	-8.20852	7.43299	-8.59435	-1.3272	0.575661	-0.114804	1.27331	-36.873	-2.29328	0.321932
0.3993	-5.78505	12.3141	-7.67863	-41.9224	-0.351793	-2.84141	-0.868167	-46.0273	-1.68751	-0.321932
0.4000	-4.53423	20.2534	-0.972945	-109.366	-1.88689	-2.5544	-2.37299	-33.2112	-0.465147	-2.25352
0.4007	-6.9577	15.3723	9.09989	-159.714	-1.88689	-0.401815	-1.47588	-23.442	1.97958	-1.60966
0.4013	-8.52123	0.729122	14.2889	-117.914	-0.959435	-1.63596	-0.231511	-13.3688	1.0601	0
0.4020	-4.84694	-12.0913	14.8994	-56.2658	-0.671605	-3.47283	-0.549839	-4.21445	-1.08174	0.321932
0.4027	-1.79806	-22.7648	10.9313	-35.81	-1.56708	-3.75984	-3.90675	-7.57219	-3.81853	0
0.4033	-3.04888	-20.3344	3.30038	-29.7097	-0.671605	-0.114804	-5.44051	-18.8683	-5.0409	-0.321932
0.4040	-7.58311	-9.66087	-3.72008	-26.9701	0.255849	4.16166	-3.58842	-24.05	-3.51565	-0.321932
0.4047	-8.83393	-3.84814	-2.49913	-25.7403	-0.0319812	3.87465	-1.76527	-16.1185	-2.29328	0
0.4053	-3.28341	-1.72154	2.07943	-23.3051	0.255849	0.51662	-0.231511	-5.74132	-3.51565	-0.321932
0.4060	1.25082	-2.63294	-2.19389	-26.6657	-1.56708	-1.00454	-1.76527	-5.43733	-3.81853	0
0.4067	3.67429	-4.45575	-5.55151	-27.5789	-1.88689	-0.114804	-2.98071	-1.77559	-1.9904	0
0.4073	4.61241	-0.18228	-4.02532	-19.6401	0.255849	0.803631	-0.549839	11.0405	0.140626	0
0.4080	3.12706	4.69879	-4.6358	-12.0178	0.255849	0.803631	0.665594	18.9788	3.50483	-0.321932
0.4087	-0.234529	3.15953	-6.16198	1.10803	-0.671605	1.11934	-0.868167	27.2143	4.41349	-0.321932
0.4093	-1.17265	-2.93674	-3.72008	38.3426	-2.17472	0.51662	-2.98071	39.7263	-1.08174	-0.321932
0.4100	0.312706	-3.54434	5.74228	62.7557	-1.88689	-0.717528	-1.76527	46.1378	-0.768034	-0.321932
0.4107	1.56353	0.729122	12.4575	32.8512	0.575661	-0.717528	2.19936	42.1721	5.93874	0
0.4113	0.938117	2.24813	12.1523	-2.86139	1.47113	0.803631	3.41479	32.4029	7.46399	0
0.4120	0.625411	0.12152	10.9313	-6.81863	-0.0319812	1.43506	1.27331	22.0257	3.19113	0
0.4127	0.625411	1.03292	10.9313	-1.02279	-2.17472	-0.401815	-0.549839	7.07474	-0.768034	0
0.4133	-0.547235	6.82539	11.2366	4.16423	-2.17472	-0.114804	1.88103	-13.6797	0.140626	0
0.4140	-4.53423	5.91399	10.6261	6.90386	-0.0319812	2.95621	4.94855	-20.6992	2.58535	0
0.4147	-7.27041	1.94433	10.0156	7.52484	0.575661	4.47737	4.94855	-13.3688	2.58535	0
0.4153	-3.90882	4.69879	6.35276	8.43805	-0.351793	3.24322	2.48874	-12.4568	0.140626	0
0.4160	-0.547235	6.21779	-0.667707	11.1777	-1.56708	0.200908	-0.549839	-17.3414	-3.21276	0
0.4167	-2.11076	1.94433	-3.10961	16.6691	-1.56708	-0.717528	-0.868167	2.49412	-3.51565	0
0.4173	-5.47235	-6.2988	-1.88866	14.8427	-1.88689	-0.401815	-0.549839	16.5331	-3.81853	0
0.4180	-4.22153	-11.1799	2.99514	8.74245	-1.27925	-0.114804	-1.76527	-17.9494	-4.13224	-0.321932
0.4187	1.87623	-5.6912	6.65799	-4.079	0.255849	-0.717528	-1.76527	-46.3313	-2.60699	-0.321932
0.4193	5.86323	3.15953	2.68991	-26.0447	-0.959435	-3.75984	-2.37299	-39.6158	-1.9904	0
0.4200	5.23782	6.52159	-0.667707	-32.4615	-2.49453	-4.99399	-2.98071	-33.5152	-1.9904	0
0.4207	-0.859941	8.97225	-2.80437	-22.3919	-2.78236	-4.36257	-4.83279	-35.3461	-1.9904	-0.321932
0.4213	-5.15964	10.7951	-11.3415	-13.2354	-1.88689	-5.59671	-5.12218	-24.05	-1.68751	-0.321932
0.4220	-2.73617	2.24813	-20.1934	-7.74401	-0.671605	-7.43359	-3.29903	1.27815	-2.29328	-0.321932
0.4227	-3.28341	-12.3951	-23.2457	3.25102	-2.17472	-9.27046	-5.12218	22.6406	-6.26326	-0.321932
0.4233	-7.58311	-13.9141	-18.0567	33.7644	-1.88689	-6.51515	-4.22508	39.4224	-7.48562	0
0.4240	-8.52123	-6.6026	-7.06816	67.3339	0.863491	-0.717528	0.0578778	47.9687	-3.51565	0
0.4247	-3.90882	-2.93674	-1.27818	86.8644	1.79095	2.03778	1.88103	39.1184	-1.08174	0
0.4253	0.625411	-1.72154	0.248006	109.147	0.575661	1.11934	0.665594	12.8713	-0.768034	0
0.4260	1.25082	-3.24054	1.46896	123.186	-1.27925	-1.00454	-1.76527	-8.18708	-1.38462	0
0.4267	-0.234529	-2.32914	2.38467	108.221	-0.959435	-1.00454	-1.47588	-1.4716	0.45433	0
0.4273	-3.90882	2.85573	3.30038	92.3559	0.255849	0.200908	-0.231511	4.021	2.28247	0
0.4280	-7.27041	5.30639	2.99514	88.3864	0.255849	-0.114804	-1.15756	-20.6992	1.36299	0
0.4287	-4.22153	1.64052	0.553243	90.8338	-0.351793	-0.717528	-2.0836	-39.3118	-0.768034	-0.321932
0.4293	0.625411	-2.02534	-1.88866	71.6077	-1.56708	-1.00454	-4.22508	-26.4957	-3.51565	-2.25352
0.4300	1.56353	0.12152	-0.057232	-41.9224	-0.351793	1.11934	-3.90675	-13.6797	-0.768034	-2.25352
0.4307	0.938117	4.69879	2.38467	-175.592	1.79095	1.72207	0.376206	-20.6992	4.41349	-0.321932
0.4313	-1.17265	6.21779	0.858481	-171.622	1.47113	-0.114804	1.27331	-24.3609	5.03008	0
0.4320	-0.859941	6.21779	0.553243	-81.2878	0.575661	-1.63596	-0.231511	-13.3688	2.28247	-0.321932
0.4327	0.625411	3.15953	0.553243	-34.8968	-0.671605	-3.47283	-2.69132	-4.21445	-1.08174	0
0.4333	0.625411	-1.11394	-0.36247	-20.8577	-0.959435	-1.63596	-2.37299	2.19013	-0.768034	0
0.4340	-2.73617	-2.32914	-0.057232	13.0163	0.255849	1.11934	0.376206	5.85186	-0.465147	-0.321932
0.4347	-5.15964	-0.810136	1.77419	55.1213	0.863491	0.51662	1.27331	8.60162	-2.60699	-0.321932
0.4353	-1.79806	-0.18228	3.30038	69.7691	0.255849	-2.23869	1.59164	5.24388	-4.13224	0
0.4360	2.18894	-2.32914	1.46896	47.499	-1.88689	-4.67828	0.376206	-11.2339	-7.48562	0
0.4367	1.87623	-0.810136	-0.057232	41.3988	-1.27925	-2.84141	1.59164	-14.2877	-8.70799	0
0.4373	1.56353	2.55193	2.38467	70.9989	0.863491	-0.401815	4.94855	-5.43733	-7.48562	0
0.4380	1.56353	3.46333	4.21609	87.7776	1.1833	-0.114804	5.55627	-6.04531	-8.0914	0
0.4387	0.625411	2.55193	0.858481	77.0992	0.575661	1.43506	2.80707	-5.43733	-6.26326	-0.321932
0.4393	0.312706	-2.93674	-4.02532	54.2081	-0.671605	1.43506	-0.868167	-3.30247	-3.21276	0
0.4400	-1.79806	-3.24054	-3.10961	-71.5225	-0.959435	2.6405	-2.0836	-8.49107	2.58535	0
0.4407	-7.89582	1.64052	-0.667707	-279.04	-0.959435	5.99853	-2.0836	-6.35622	12.9592	0
0.4413	-10.0066	1.33672	-1.58342	-301.931	-0.0319812	7.23268	-1.76527	9.2096	13.5758	0
0.4420	-4.84694	-1.41774	-1.88866	-158.801	0.863491	2.95621	0.0578778	13.1753	5.03008	0
0.4427	0	-2.02534	-3.10961	-71.8269	-1.27925	-3.75984	-0.549839	4.32499	-0.465147	0
0.4433	1.25082	0.12152	-3.72008	-46.5006	-1.88689	-4.36257	-0.868167	-7.57219	-0.162261	0
0.4440	-0.547235	1.33672	-5.24627	-31.2439	-0.351793	0.200908	0.665594	-20.3883	2.58535	0
0.4447	-4.22153	0.425321	-12.5624	-12.6266	0.575661	2.32479	0.376206	-20.3883	3.50483	-0.321932
0.4453	-3.90882	-0.486081	-18.3619	-1.02279	0.255849	1.11934	-0.868167	-10.3219	2.58535	-0.321932
0.4460	-0.859941	-3.84814	-12.8677	-9.57043	-1.56708	-0.717528	-2.37299	-9.70705	-0.162261	0
0.4467	-2.11076	-5.6912	-1.58342	-8.04841	-1.88689	-0.717528	-2.37299	7.37874	-1.68751	-0.321932
0.4473	-5.15964	-2.93674	6.96323	-5.29661	-0.351793	0.803631	-0.231511	51.0224	-0.768034	0
0.4480	-2.73617	1.94433	11.5418	-20.2489	0.575661	2.03778	1.27331	70.858	-0.162261	0
0.4487	0.312706	4.09118	9.09989	-25.1315	0.255849	1.11934	0.376206	49.4956	-0.162261	0
0.4493	0.938117	2.24813	3.30038	-7.74401	-1.27925	-2.23869	-2.0836	12.5673	-1.9904	0
0.4500	3.12706	2.85573	5.74228	15.7559	-0.959435	-1.92297	-1.76527	-7.26819	-1.68751	0.321932
0.4507	4.2997	7.43299	12.7627	30.4038	0.255849	0.200908	1.59164	-8.79507	1.0601	0.321932
0.4513	3.12706	9.57985	16.1204	39.8646	0.255849	-1.00454	2.19936	-9.70705	1.66588	0
0.4520	1.25082	8.66845	12.7627	21.8683	-0.671605	-2.23869	0.376206	-10.6259	1.36299	0
0.4527	-1.48535	3.15953	1.16372	-19.9445	-1.27925	-1.63596	-2.0836	-16.7265	0.757216	0
0.4533	-5.15964	3.76713	-2.80437	-26.9701	-1.27925	0.51662	-2.37299	-24.05	1.0601	-0.321932
0.4540	-5.15964	13.8533	1.16372	-25.4359	-0.351793	3.55894	0.0578778	-26.4957	3.50483	0
0.4547	-3.28341	8.97225	-2.80437	-40.3882	0.255849	4.16166	1.27331	-20.3883	5.03008	0
0.4553	-1.48535	-6.2988	-11.0362	-36.4309	-0.671605	2.03778	0.376206	3.41301	2.88824	0
0.4560	1.25082	-8.12161	-17.141	-23.9139	-2.17472	-0.401815	-1.47588	21.4177	-1.38462	0
0.4567	0.312706	-3.54434	-15.3096	-11.7012	-1.88689	0.200908	-1.15756	26.3023	-1.9904	0
0.4573	-4.22153	2.24813	-8.89958	12.0909	-1.27925	2.03778	0.0578778	25.3834	1.0601	-0.321932
0.4580	-8.83393	1.33672	-8.59435	35.8952	-1.88689	1.72207	-0.231511	11.6554	2.28247	0
0.4587	-7.27041	-12.3951	-9.51006	48.1078	-2.49453	-1.63596	-0.549839	-3.30247	0.140626	0.321932
0.4593	-2.42347	-17.5799	-9.20482	52.0773	-3.70982	-4.67828	-2.98071	-14.2877	-4.13224	-1.60966
0.4600	-0.234529	-12.3951	-8.59435	51.4684	-3.10217	-2.23869	-2.98071	-18.8683	-3.51565	-2.57546
0.4607	0.312706	-9.96467	-1.58342	47.8034	-0.0319812	1.11934	1.27331	-13.0648	2.58535	-0.643864
0.4613	-0.547235	-6.2988	7.26847	41.3988	0.575661	0.200908	1.27331	-9.70705	4.1106	0.321932
0.4620	0	-2.93674	8.18418	34.6776	-0.671605	-1.92297	-0.549839	-11.8488	1.36299	0
0.4627	0.938117	-4.75955	2.68991	32.2424	-2.49453	-4.36257	-1.76527	7.98672	-1.68751	0
0.4633	0	-3.84814	0.858481	-11.7012	-2.17472	-3.47283	-1.15756	30.572	-0.465147	0
0.4640	-1.48535	0.729122	0.553243	-105.396	-0.351793	0.51662	0.376206	16.5331	3.50483	0
0.4647	-4.22153	2.24813	-0.972945	-123.101	-1.56708	1.43506	-1.15756	-2.69448	2.88824	0
0.4653	-3.04888	3.15953	-0.36247	-52.9052	-2.78236	-0.401815	-2.37299	-6.66021	-1.9904	-0.321932
0.4660	1.25082	-0.18228	-0.667707	-8.35282	-2.49453	-1.63596	-3.58842	8.29762	-6.26326	0
0.4667	1.56353	-4.15194	-3.41485	-2.55698	-1.27925	0.200908	-4.22508	48.2727	-5.0409	0
0.4673	-1.17265	1.03292	-4.02532	-1.936	0.255849	1.72207	-2.37299	60.7848	-1.68751	0
0.4680	-3.04888	5.00259	-0.667707	-5.90542	1.79095	2.32479	-0.231511	27.2143	-1.08174	0
0.4687	-1.48535	0.12152	3.30038	-15.3663	2.07878	1.72207	-0.868167	-6.35622	-1.38462	-0.321932
0.4693	2.50165	-5.3874	4.52133	-15.0619	-0.0319812	-1.92297	-3.90675	-27.7186	-2.29328	0
0.4700	3.36159	-3.84814	5.13181	-7.12303	-0.351793	-3.15712	-2.98071	-55.7896	-0.465147	0.321932
0.4707	-2.11076	0.729122	4.52133	-5.29661	0.255849	-1.00454	0.0578778	-68.3017	4.71638	0
0.4713	-6.33229	1.33672	3.91086	-4.3834	0.863491	0.803631	0.983922	-39.3118	8.38347	0
0.4720	-3.28341	-0.486081	3.60562	-1.6316	0.863491	0.51662	0.665594	-2.38358	8.98924	0.321932
0.4727	-0.547235	-4.15194	1.46896	1.41243	-1.56708	-2.5544	-2.0836	23.2485	4.1106	0.321932
0.4733	-0.234529	-2.63294	0.553243	15.4515	-1.56708	-2.23869	-1.76527	46.4418	0.757216	0
0.4740	-1.17265	3.76713	0.248006	26.1299	0.863491	0.200908	2.19936	56.515	3.50483	0
0.4747	-3.28341	3.46333	0.553243	20.6385	1.1833	-0.114804	3.41479	50.7115	7.1611	0
0.4753	-2.11076	-2.02534	2.07943	42.6164	0.255849	-0.401815	1.59164	44.307	5.03008	0
0.4760	0.625411	-2.32914	2.07943	90.225	-1.27925	-0.401815	-1.47588	40.6452	-2.90987	0
0.4767	1.87623	3.76713	3.30038	95.7165	-0.351793	0.803631	-2.0836	19.8908	-6.56615	0
0.4773	0.938117	12.9419	8.18418	76.186	1.79095	2.95621	0.0578778	-20.6992	-7.48562	0
0.4780	-2.11076	19.0382	14.2889	89.6162	1.1833	3.24322	0.0578778	-39.6158	-12.3643	0.321932
0.4787	-2.73617	16.5875	13.6785	84.7336	0.255849	1.43506	-1.15756	-29.8535	-13.8895	0
0.4793	-1.48535	12.9419	3.91086	19.1165	-0.351793	-0.401815	-2.98071	-22.834	-12.0614	-0.321932
0.4800	-3.04888	4.69879	-8.28911	-10.4836	-0.959435	0.200908	-3.90675	-20.0843	-11.7585	-0.321932
0.4807	-6.33229	-16.6685	-16.5305	24.9123	-1.27925	2.03778	-3.58842	-11.8488	-12.678	-0.321932
0.4813	-5.47235	-23.6965	-16.5305	-5.90542	-0.0319812	2.03778	-2.37299	-4.21445	-10.839	0
0.4820	-1.17265	-12.0913	-8.59435	-111.801	0.575661	1.43506	-0.549839	-0.248721	-5.3546	0
0.4827	0.625411	-9.33681	-1.27818	-118.522	-1.27925	-4.07556	-0.231511	5.85186	-4.43512	0
0.4833	1.87623	-9.03301	2.68991	-38.2574	-1.27925	-11.71	0.0578778	16.5331	-5.3546	0
0.4840	1.56353	0.425321	4.21609	-39.475	0.575661	-13.8339	2.19936	26.3023	-0.465147	0
0.4847	0	7.73679	6.04752	-43.4444	0.255849	-11.71	2.80707	29.66	5.03008	-0.321932
0.4853	-0.547235	0.729122	9.40513	33.7644	-0.671605	-11.0786	0.983922	24.4714	8.38347	-0.321932
0.4860	-1.48535	-12.6989	9.09989	44.4428	-2.49453	-11.9971	-2.0836	14.3982	7.77769	0
0.4867	-3.04888	-13.0027	6.65799	-15.9751	-2.17472	-8.35202	-2.98071	-7.87618	4.41349	0
0.4873	-3.59611	-4.75955	0.248006	-36.7353	-0.0319812	-5.281	-0.549839	-33.2112	2.88824	-0.321932
0.4880	-4.22153	-0.810136	-6.76292	-30.0141	0.255849	-6.19944	2.19936	-37.7849	3.19113	0
0.4887	-3.04888	1.33672	1.16372	-20.5533	-0.959435	-6.19944	2.19936	-34.4272	1.66588	0
0.4893	-3.04888	-0.18228	8.18418	-12.3222	-1.88689	-6.19944	-0.231511	-36.569	-2.29328	0.321932
0.4900	-6.9577	-1.11394	1.16372	-11.3968	-1.88689	-4.99399	0.665594	-30.1575	-2.29328	0
0.4907	-7.58311	4.69879	-1.88866	-9.26602	-1.88689	-1.92297	3.41479	-19.4763	0.45433	0
0.4913	-3.59611	1.03292	1.16372	-4.079	-1.88689	1.43506	2.19936	-2.38358	2.28247	0.321932
0.4920	-2.11076	-12.0913	1.16372	-6.51422	-1.56708	3.87465	-1.76527	28.4372	1.0601	-0.643864
0.4927	-2.11076	-11.7875	-2.80437	-12.3222	-2.17472	6.31424	-5.44051	31.1869	-1.68751	-2.25352
0.4933	-1.48535	1.94433	-7.37339	-8.35282	-0.959435	9.95928	-5.12218	4.021	-2.29328	-0.965796
0.4940	-1.48535	9.88365	-10.1205	0.499221	0.255849	13.9487	-2.69132	-15.5105	-1.68751	0.321932
0.4947	1.25082	8.97225	-16.8358	4.77304	1.47113	16.9911	-0.231511	-29.5495	-1.38462	0.321932
0.4953	4.2997	4.69879	-21.4143	1.10803	1.79095	16.9911	0.983922	-26.7997	-1.08174	0
0.4960	2.50165	1.64052	-14.3939	-5.29661	0.255849	13.3173	-1.76527	-6.9642	-2.60699	0
0.4967	0.938117	5.00259	-3.10961	-4.079	0.255849	11.1934	-1.76527	1.88614	-1.9904	0
0.4973	-0.234529	6.21779	-0.667707	0.803624	1.79095	10.5907	1.27331	5.24388	0.45433	0
0.4980	-0.547235	2.24813	-8.89958	2.32564	1.79095	9.04085	1.27331	14.0942	0.45433	0
0.4987	0.625411	0.425321	-8.59435	5.38184	0.255849	5.39581	0.0578778	20.1948	-1.9904	0
0.4993	1.87623	-2.32914	0.858481	9.65566	-1.27925	0.200908	-1.15756	30.876	-5.65749	0
0.5000	2.18894	-0.810136	5.74228	10.8733	-1.56708	-0.401815	-0.868167	43.0841	-5.96037	0
0.5007	0.625411	10.7951	3.60562	9.96006	-0.351793	2.6405	0.665594	38.8144	-2.60699	0
0.5013	-3.28341	19.0382	-1.27818	9.65566	0.575661	3.55894	0.983922	11.0405	-0.768034	0
0.5020	-7.27041	6.52159	-4.94103	7.52484	-0.351793	2.32479	-1.15756	-22.53	-1.38462	0
0.5027	-6.09776	-14.5419	-6.16198	4.46864	-2.49453	-0.717528	-4.51447	-26.1918	-4.13224	0
0.5033	-2.73617	-9.03301	-5.24627	9.35126	-1.88689	-1.63596	-3.58842	0.663257	-3.81853	0
0.5040	-5.47235	9.88365	-8.28911	17.8989	0.575661	0.803631	0.376206	16.5331	-0.465147	0
0.5047	-14.3063	14.7647	-13.7834	19.4209	0.575661	1.11934	0.983922	19.2828	0.45433	0
0.5053	-17.9806	12.0103	-11.952	17.2901	-0.351793	-0.401815	0.0578778	37.8955	0.757216	0.321932
0.5060	-10.632	6.21779	-15.6148	13.3207	-1.56708	-2.84141	-2.0836	44.307	1.0601	0.321932
0.5067	-3.59611	-8.12161	-22.0248	9.35126	-1.88689	-3.15712	-2.37299	15.6211	2.88824	0
0.5073	-3.04888	-27.0383	-8.28911	6.29505	-0.959435	-0.114804	-1.47588	-39.6158	6.25244	0
0.5080	-0.547235	-27.6661	11.2366	3.85983	-0.351793	1.43506	-1.47588	-86.3063	6.85822	0
0.5087	7.03588	-12.6989	16.1204	8.74245	-0.351793	0.803631	-2.0836	-71.3554	5.03008	-0.321932
0.5093	10.3975	-6.2988	13.3732	-5.60101	-1.88689	-1.00454	-5.12218	-31.3804	0.140626	-0.321932
0.5100	7.03588	-3.84814	11.2366	-43.4444	-2.17472	-0.401815	-4.83279	-12.4568	-2.60699	0
0.5107	1.87623	0.12152	8.18418	-49.5446	-1.27925	1.11934	-1.76527	-5.74132	-0.465147	0
0.5113	-0.547235	-0.486081	4.21609	-25.7403	-0.351793	2.03778	-0.868167	-7.57219	0.757216	-0.643864
0.5120	1.25082	-0.18228	3.91086	-11.7012	-0.351793	2.95621	-2.0836	-14.8957	-2.90987	-1.93159
0.5127	1.56353	-1.11394	2.68991	-7.12303	-1.56708	0.803631	-4.22508	-17.0374	-10.2332	-0.965796
0.5133	-1.17265	-2.93674	-0.057232	3.85983	-1.56708	-0.114804	-1.76527	-12.7608	-12.0614	0.321932
0.5140	-2.42347	0.12152	3.60562	26.1299	0.575661	2.6405	2.48874	-10.9299	-6.56615	0
0.5147	-2.11076	4.09118	8.48942	44.1384	1.1833	0.51662	4.94855	-11.8488	-2.29328	0.321932
0.5153	-0.859941	4.39499	3.30038	54.8169	-0.0319812	-3.75984	5.23794	-8.79507	-1.38462	0
0.5160	0.938117	1.03292	-6.45768	60.3205	-2.17472	-2.23869	2.19936	-6.9642	-2.60699	-1.28773
0.5167	0.938117	0.425321	-8.59435	68.5515	-2.49453	1.72207	1.27331	-11.8488	-0.465147	-1.28773
0.5173	-3.28341	5.61019	-3.72008	102.121	-1.88689	2.32479	2.19936	-17.9494	2.28247	0
0.5180	-4.22153	9.57985	2.38467	130.504	-0.959435	1.43506	0.983922	-16.1185	3.19113	0
0.5187	0.625411	1.03292	5.43704	107.004	-0.671605	0.200908	-0.868167	-11.8488	2.28247	-0.321932
0.5193	3.12706	-11.4837	5.13181	54.5125	-2.17472	-3.75984	-3.90675	-10.3219	-0.465147	-0.321932
0.5200	2.81435	-12.3951	5.13181	-37.0397	-1.27925	-4.07556	-3.90675	-1.77559	0.45433	0
0.5207	-0.859941	-8.12161	2.68991	-132.257	-0.0319812	-1.00454	-2.0836	4.32499	1.97958	0
0.5213	-6.9577	-4.45575	-1.27818	-127.374	-0.351793	-0.114804	-2.0836	-1.4716	-1.08174	-0.321932
0.5220	-6.33229	-1.11394	-3.10961	-76.7095	1.1833	-2.84141	-1.47588	-1.4716	-2.60699	0
0.5227	-2.11076	-1.11394	-2.80437	-53.8184	0.575661	-6.51515	-3.29903	9.5136	-4.13224	0.321932
0.5233	-2.42347	1.64052	0.248006	-30.9273	-0.959435	-6.51515	-5.12218	17.148	-5.3546	0
0.5240	-6.33229	9.57985	5.13181	-14.7575	-0.351793	-2.5544	-2.37299	13.1753	-1.08174	-0.321932
0.5247	-6.64499	12.6179	10.3208	-16.5839	0.255849	-1.00454	-0.868167	2.49412	3.19113	-0.321932
0.5253	-3.59611	9.27605	10.6261	-19.0313	-1.27925	-2.5544	-2.69132	-0.552714	0.757216	-0.643864
0.5260	-0.234529	2.24813	1.16372	-15.9751	-2.78236	-2.23869	-5.12218	0.359264	-4.73801	-2.25352
0.5267	1.56353	-2.63294	-8.59435	-10.1792	-0.959435	-0.401815	-3.90675	-4.52535	-4.43512	-1.93159
0.5273	-0.547235	1.94433	-14.0886	-5.60101	0.863491	-0.401815	-0.549839	-16.1185	-0.465147	-0.321932
0.5280	-3.28341	1.94433	-12.2572	-1.936	1.1833	-0.717528	0.0578778	-26.4957	0.140626	0
0.5287	-1.79806	-10.5723	2.99514	-1.02279	0.863491	-0.401815	-0.868167	-20.3883	-1.38462	-0.321932
0.5293	0.938117	-18.1875	14.5942	-5.90542	-1.56708	-1.92297	-3.29903	-14.2877	-3.51565	0
0.5300	1.25082	-9.66087	9.71037	-10.1792	-1.27925	-0.717528	-3.58842	-19.1723	-2.29328	0
0.5307	0.625411	0.12152	6.35276	-11.0924	1.47113	3.55894	-0.868167	-11.8488	1.36299	-0.321932
0.5313	-0.859941	1.03292	10.3208	-11.3968	1.47113	3.87465	0.376206	1.58214	2.28247	0
0.5320	-1.79806	-1.11394	8.48942	-6.20982	-0.0319812	1.72207	-1.47588	11.3445	0.45433	0
0.5327	-0.234529	-2.93674	1.46896	0.194818	-2.17472	-0.401815	-4.83279	28.4372	-2.60699	0
0.5333	-0.859941	-0.810136	-1.58342	4.16423	-1.88689	0.200908	-3.58842	39.7263	-2.60699	0
0.5340	-3.04888	4.69879	-1.88866	4.46864	-0.0319812	2.32479	0.376206	25.9983	-0.162261	-0.321932
0.5347	-5.47235	7.12919	-3.10961	-0.109585	-0.351793	2.03778	2.19936	1.58214	1.36299	-0.321932
0.5353	-4.53423	4.09118	-1.58342	-1.3272	-1.27925	1.11934	1.59164	-2.07959	0.757216	0
0.5360	-0.234529	-1.11394	0.858481	-2.24041	-2.17472	-0.114804	-0.868167	18.0599	-1.9904	0.321932
0.5367	0.938117	-2.02534	0.858481	-6.51422	-1.88689	-0.401815	-1.15756	35.1526	-2.60699	0
0.5373	-4.84694	-2.32914	-3.10961	-11.0924	-4.02963	-3.47283	-2.37299	35.1526	-2.29328	0
0.5380	-5.78505	-4.75955	-7.37339	-9.87483	-4.9251	-5.91243	-2.69132	36.0646	-1.9904	0
0.5387	2.50165	-2.63294	-6.76292	-4.079	-2.17472	-6.83086	0.983922	36.0646	-1.68751	-0.321932
0.5393	4.2997	1.94433	-5.85675	2.32564	-1.56708	-9.55747	-0.868167	8.29762	-4.43512	-0.321932
0.5400	0.625411	5.91399	-7.06816	16.9857	-1.88689	-9.55747	-2.98071	-25.2729	-4.43512	0
0.5407	-2.42347	7.43299	-5.55151	34.982	-1.56708	-8.03631	-1.15756	-44.1964	-1.08174	0
0.5413	-2.11076	5.30639	0.858481	49.3255	-0.671605	-6.83086	0.665594	-42.0616	-0.162261	-0.321932
0.5420	0.938117	2.24813	2.99514	64.8865	0.255849	-4.99399	0.983922	-16.1185	-2.60699	-0.321932
0.5427	1.25082	1.94433	-2.19389	78.0124	-1.88689	-4.99399	-1.15756	-1.4716	-4.43512	-0.321932
0.5433	-0.859941	-1.41774	-6.45768	99.9903	-2.78236	-4.36257	-0.549839	-5.13333	-0.465147	0
0.5440	-3.90882	-9.03301	-7.98387	133.56	-1.56708	-2.5544	2.19936	-14.8957	5.03008	-0.321932
0.5447	-6.09776	-3.54434	-2.80437	141.182	-0.671605	-1.00454	3.1254	-22.53	7.1611	-0.321932
0.5453	-3.90882	6.52159	9.71037	128.373	-0.351793	-0.114804	3.1254	-17.9494	5.93874	0
0.5460	-0.234529	4.69879	13.068	95.7165	-2.17472	-0.401815	-0.231511	-23.442	2.58535	0
0.5467	1.56353	5.30639	6.96323	13.0163	-1.88689	1.11934	-2.0836	-28.9346	3.50483	-0.321932
0.5473	0	9.88365	3.30038	-47.7182	0.575661	3.24322	0.665594	24.4714	4.41349	-0.321932
0.5480	-4.84694	11.4027	0.248006	-66.3355	-0.351793	1.72207	0.665594	73.2968	0.757216	0.321932
0.5487	-6.9577	12.6179	-7.06816	-92.8794	-1.56708	-0.401815	-1.15756	41.5572	-1.9904	0
0.5493	-5.78505	4.09118	-9.8153	-98.9918	-1.56708	-0.401815	-2.69132	0.0552714	-5.0409	-1.60966
0.5500	-4.53423	-6.90641	-2.19389	-109.975	-0.0319812	2.32479	-0.868167	-10.3219	-3.81853	-2.25352
0.5507	-2.73617	-5.06335	3.60562	-134.997	2.68642	3.55894	4.02251	-8.79507	2.28247	-0.643864
0.5513	-0.859941	0.12152	2.99514	-106.31	3.00623	1.11934	4.94855	0.663257	4.1106	0.321932
0.5520	-0.547235	-5.3874	2.07943	-60.5397	0.863491	-1.32025	0.665594	9.5136	1.0601	0
0.5527	-0.234529	-18.4913	-2.49913	-37.6486	-1.27925	-3.75984	-3.58842	7.07474	-2.90987	0
0.5533	-0.234529	-20.0306	-10.4258	-8.65722	-0.671605	-4.07556	-2.98071	5.54787	-3.51565	0.321932
0.5540	-1.48535	-9.33681	-12.5624	9.96006	-0.351793	-1.63596	-0.868167	8.90561	-1.68751	0.321932
0.5547	-2.11076	-0.18228	-1.88866	9.96006	-1.56708	0.803631	-1.15756	5.85186	-2.29328	0
0.5553	1.25082	1.33672	8.79466	15.7559	-1.27925	1.11934	-0.231511	4.63589	-4.13224	0
0.5560	1.87623	-2.32914	5.74228	20.3341	-2.78236	-1.32025	-0.868167	5.54787	-7.18274	0
0.5567	-1.79806	-1.41774	0.248006	14.8427	-4.02963	-1.63596	-2.69132	2.80503	-6.87985	0
0.5573	-3.28341	4.09118	0.248006	14.2339	-3.10217	-0.401815	-2.0836	-0.552714	-3.51565	0
0.5580	-3.90882	4.69879	0.553243	22.4771	-2.49453	-1.00454	-0.231511	-3.30247	-1.9904	-0.321932
0.5587	-2.42347	-0.486081	1.77419	28.8818	-2.17472	-3.15712	0.665594	-3.60646	-2.90987	-0.321932
0.5593	1.87623	-3.54434	5.13181	29.795	-3.39	-5.281	-0.549839	-6.66021	-4.43512	-0.321932
0.5600	1.25082	-0.810136	10.3208	-16.5839	-3.39	-3.75984	-1.15756	-15.8145	-2.29328	-0.321932
0.5607	-1.17265	1.94433	13.9837	-101.731	-1.27925	0.803631	0.0578778	-21.3071	3.80772	-0.321932
0.5613	-2.42347	1.64052	13.9837	-119.74	-0.0319812	2.95621	0.665594	-15.8145	5.93874	-0.321932
0.5620	-2.11076	-0.18228	15.8151	-67.5531	-0.959435	2.03778	0.0578778	-8.18708	4.41349	-0.321932
0.5627	1.25082	-2.63294	22.2251	-9.57043	-2.78236	0.200908	-1.76527	-6.35622	3.50483	0
0.5633	2.50165	-1.11394	21.3094	11.7865	-3.39	1.43506	-1.76527	11.9594	5.03008	0
0.5640	-3.59611	3.46333	-4.33056	-6.20982	-3.10217	3.87465	-1.15756	37.2875	6.55533	-0.321932
0.5647	-9.45935	5.30639	-31.1819	-10.4836	-1.88689	5.39581	-1.15756	27.2143	4.1106	-0.321932
0.5653	-4.84694	5.00259	-29.961	0.499221	-0.959435	4.47737	-0.231511	3.10902	1.0601	0
0.5660	0.938117	5.00259	-22.33	-8.65722	-1.27925	1.43506	-2.0836	-0.248721	-1.9904	0
0.5667	-0.547235	1.94433	-25.0772	-8.35282	-0.351793	0.51662	-2.37299	4.32499	-3.21276	0.321932
0.5673	-5.15964	0.12152	-17.141	24.3035	2.07878	2.32479	0.983922	5.85186	-0.162261	0
0.5680	-3.59611	1.94433	-0.972945	60.0039	3.93368	2.03778	3.41479	11.9594	1.36299	-0.321932
0.5687	2.18894	-4.45575	1.77419	84.7336	3.93368	0.200908	3.1254	16.5331	-0.768034	0
0.5693	4.2997	-16.9723	-4.6358	96.9341	1.79095	-1.92297	0.376206	10.1285	-4.13224	0
0.5700	1.56353	-13.9141	-5.55151	98.1517	0.255849	-3.75984	-0.868167	2.49412	-4.43512	-0.321932
0.5707	-2.42347	-2.93674	-1.88866	95.4121	0.863491	-2.5544	0.983922	-1.77559	-0.162261	0
0.5713	-3.90882	0.729122	2.07943	78.6212	1.79095	-1.32025	1.88103	-4.82934	2.28247	0.321932
0.5720	-2.11076	0.12152	3.60562	51.7729	1.1833	-1.32025	0.983922	-8.49107	0.45433	-0.321932
0.5727	-0.859941	-2.02534	0.553243	54.5125	-1.27925	-1.92297	-2.69132	-9.40305	-3.21276	-0.321932
0.5733	-1.48535	-2.93674	-0.972945	39.5602	-1.56708	-0.114804	-4.83279	2.49412	-1.9904	0
0.5740	-0.547235	-0.486081	1.46896	-99.905	0.575661	2.6405	-2.69132	12.2633	5.33297	-0.321932
0.5747	0	2.85573	1.77419	-237.836	1.79095	2.95621	-0.231511	1.27815	11.434	-0.321932
0.5753	-1.17265	5.00259	0.858481	-221.666	2.07878	2.32479	1.27331	-15.2066	11.1311	-0.321932
0.5760	-0.547235	2.55193	2.38467	-138.662	1.1833	1.11934	-0.231511	-20.3883	6.85822	-0.321932
0.5767	0.625411	-0.810136	2.68991	-65.4223	1.47113	1.11934	-0.868167	-17.3414	3.19113	0
0.5773	-1.79806	0.425321	-2.19389	-16.5839	2.07878	2.95621	-0.231511	-20.3883	1.66588	-0.321932
0.5780	-5.15964	-0.810136	-11.6467	-2.86139	2.39859	2.32479	-0.231511	-14.8957	-0.162261	0
0.5787	-3.90882	-4.15194	-16.8358	-5.29661	1.79095	1.11934	-0.868167	18.0599	-4.13224	-0.321932
0.5793	-2.11076	-6.2988	-12.8677	-14.1486	-0.351793	2.95621	-5.44051	32.0989	-8.0914	-2.25352
0.5800	-1.79806	-7.21021	-6.16198	-20.8577	-0.351793	5.39581	-7.26366	21.4177	-6.56615	-1.93159
0.5807	-5.47235	-3.84814	2.99514	-17.5093	-0.0319812	4.16166	-4.51447	17.7559	-2.60699	0
0.5813	-9.69387	-2.02534	15.2046	-9.87483	-0.959435	1.72207	-3.58842	10.7365	-1.68751	-0.321932
0.5820	-6.09776	-3.84814	18.8675	-1.936	-0.671605	0.200908	-3.29903	5.54787	-2.29328	-0.321932
0.5827	0.312706	-6.6026	16.4256	-4.99221	-1.56708	-1.32025	-4.22508	5.54787	-3.21276	0
0.5833	2.81435	-4.15194	15.2046	-13.2354	-2.17472	-3.15712	-5.44051	2.19013	-1.38462	-0.321932
0.5840	2.81435	3.46333	9.71037	-12.6266	0.255849	-6.83086	-2.98071	5.85186	4.1106	0
0.5847	3.987	-0.18228	-2.80437	-7.74401	2.39859	-12.3128	-0.231511	18.9788	6.55533	0
0.5853	4.2997	-9.66087	-15.6148	-1.3272	1.79095	-15.6708	-1.47588	25.3834	3.80772	-0.321932
0.5860	3.36159	-6.90641	-15.3096	7.20826	-0.351793	-17.192	-3.58842	23.8565	-1.68751	0
0.5867	1.87623	1.03292	-5.55151	11.1777	-1.27925	-16.8762	-1.15756	19.5868	-3.81853	0.321932
0.5873	-3.04888	3.76713	-0.667707	9.96006	-1.27925	-13.8339	2.48874	6.46676	-1.68751	-0.321932
0.5880	-6.33229	6.21779	0.248006	10.8733	-0.671605	-10.7916	3.1254	-16.1185	0.757216	-0.321932
0.5887	-4.53423	11.0989	2.38467	14.5383	-0.0319812	-8.95474	4.02251	-28.6306	1.97958	0
0.5893	-2.73617	10.7951	1.16372	14.2339	-1.27925	-9.27046	2.48874	-21.0031	-2.60699	-0.321932
0.5900	-5.15964	9.88365	-2.19389	20.3341	-1.88689	-9.27046	1.27331	-11.8488	-8.4051	-0.321932
0.5907	-6.09776	9.88365	-2.19389	44.1384	0.255849	-6.51515	4.02251	-2.07959	-7.18274	0
0.5913	-4.53423	6.82539	-5.24627	70.9989	0.863491	-3.15712	3.73312	22.0257	-5.0409	0
0.5920	-2.73617	4.39499	-12.2572	83.1994	-0.671605	-0.717528	0.0578778	28.7411	-5.96037	0
0.5927	-1.17265	-5.06335	-13.1729	76.186	-2.49453	0.51662	-3.90675	6.46676	-7.78851	0
0.5933	-0.859941	-9.66087	-7.98387	59.0907	-2.17472	4.16166	-4.51447	-12.7608	-5.96037	0
0.5940	-1.48535	-0.810136	-4.94103	59.3951	-0.671605	10.5907	-2.37299	-18.2534	-2.90987	-0.321932
0.5947	-1.79806	1.94433	2.68991	69.4647	-0.351793	16.0726	-2.37299	-17.3414	-1.9904	0
0.5953	-0.859941	-1.41774	13.3732	47.1946	-0.351793	20.6361	-2.0836	-15.8145	-1.08174	0
0.5960	0.938117	-5.06335	11.2366	31.938	-1.27925	20.3491	-2.37299	-17.3414	-2.29328	0
0.5967	0.625411	-5.06335	7.26847	20.0297	-1.88689	17.5938	-2.69132	-17.6454	-3.21276	0
0.5973	-2.73617	0.729122	5.13181	-77.6227	-1.56708	14.5515	-1.76527	-18.5574	0.45433	0
0.5980	-3.90882	5.00259	-3.10961	-159.105	-0.959435	11.1934	-1.47588	-21.6111	1.36299	0
0.5987	-2.11076	5.30639	-7.06816	-115.162	-0.351793	7.51969	-1.76527	-17.6454	-1.68751	0
0.5993	-1.79806	3.46333	-3.41485	-49.5446	-2.17472	4.16166	-3.90675	-13.3688	-4.13224	-0.643864
0.6000	-1.48535	3.15953	2.38467	-24.8271	-2.49453	4.16166	-4.22508	-12.1528	-2.60699	-1.28773
0.6007	-1.48535	0.12152	3.60562	-12.931	-0.959435	5.0801	-0.549839	-11.8488	1.97958	0
0.6013	-2.42347	-6.2988	1.46896	-8.65722	-0.351793	3.87465	0.376206	-17.6454	3.19113	0
0.6020	-1.48535	-3.84814	4.21609	-6.51422	-0.959435	2.32479	-1.47588	-23.442	1.0601	-0.321932
0.6027	0.312706	-1.72154	7.87894	-7.12303	-2.49453	-1.00454	-2.69132	-18.8683	-2.60699	-0.321932
0.6033	-0.547235	-4.75955	6.35276	-5.60101	-2.78236	-1.92297	-2.0836	-18.2534	-4.73801	-0.321932
0.6040	-3.59611	0.729122	1.46896	33.7644	-0.959435	0.803631	0.665594	-12.7608	-3.81853	0
0.6047	-6.09776	12.0103	-2.80437	91.747	-0.671605	2.03778	0.983922	22.6406	-2.90987	0
0.6053	-6.33229	12.3141	-3.72008	114.943	-1.88689	1.11934	-0.549839	50.7115	-1.08174	0
0.6060	-2.11076	-2.02534	-5.24627	118.608	-2.78236	-0.717528	-2.37299	49.7996	-1.08174	0
0.6067	2.81435	-10.2685	-11.0362	120.738	-2.17472	-0.717528	-1.76527	37.8955	-3.51565	0
0.6073	2.18894	-7.81781	-17.4462	118.303	-0.351793	1.11934	1.88103	22.0257	-3.81853	0
0.6080	-3.90882	-8.42541	-19.2777	117.073	-0.351793	1.11934	2.19936	27.2143	-4.73801	0
0.6087	-7.27041	-6.6026	-14.0886	111.886	-1.88689	-0.717528	0.0578778	56.515	-7.48562	-0.321932
0.6093	-2.42347	1.33672	-4.33056	117.378	-2.78236	-2.84141	-2.69132	61.7036	-9.31376	-0.321932
0.6100	2.81435	7.73679	5.13181	64.2777	-2.17472	-2.5544	-2.98071	27.5183	-7.48562	0
0.6107	2.18894	8.3444	8.79466	-187.792	-0.671605	-0.114804	0.0578778	-24.3609	3.19113	-0.643864
0.6113	-1.48535	1.03292	6.35276	-398.975	-0.671605	2.03778	-0.549839	-75.6251	12.3534	-2.25352
0.6120	-3.90882	-9.03301	7.57371	-288.501	-0.671605	2.03778	-2.37299	-76.848	5.93874	-1.93159
0.6127	-5.15964	-9.03301	7.87894	-110.583	-1.88689	-2.5544	-3.58842	-45.7233	-5.96037	-0.321932
0.6133	-4.53423	0.12152	0.858481	-52.9052	-2.17472	-3.47283	-3.29903	-43.8924	-6.87985	0
0.6140	-2.42347	6.21779	-6.16198	8.43805	-0.0319812	1.11934	-0.549839	-46.9393	-2.29328	0.321932
0.6147	-2.42347	7.73679	-5.85675	74.9684	1.1833	4.47737	0.983922	-42.6695	2.28247	0.321932
0.6153	-1.17265	9.88365	-3.72008	58.7863	0.575661	5.99853	-0.231511	-35.6501	6.55533	0.321932
0.6160	1.25082	3.15953	-7.06816	1.10803	-0.351793	5.0801	-2.69132	-17.6454	5.33297	0
0.6167	1.25082	-9.66087	-5.85675	-21.7831	-0.0319812	5.39581	-2.69132	7.98672	3.19113	0
0.6173	-0.234529	-4.75955	1.77419	-14.7575	0.863491	7.51969	-0.549839	24.4714	4.41349	0.321932
0.6180	0	8.66845	15.2046	-5.90542	0.255849	5.68282	0.376206	15.6211	4.41349	0
0.6187	4.61241	12.0103	25.888	-2.24041	-0.351793	-0.401815	0.376206	31.4909	2.28247	-0.321932
0.6193	7.03588	9.27605	20.0884	-4.079	-1.88689	-4.99399	-1.76527	90.6935	-1.38462	-0.321932
0.6200	4.2997	1.94433	12.1523	-26.3491	-2.49453	-4.07556	-3.58842	127.311	-2.60699	-0.321932
0.6207	1.25082	1.03292	11.5418	-48.9358	-0.351793	-0.401815	-1.76527	100.152	0.45433	0
0.6213	-0.234529	5.61019	10.3208	-39.1706	0.575661	-0.401815	-0.868167	59.8728	2.88824	0
0.6220	-0.234529	7.12919	5.13181	-19.6401	-0.0319812	-3.75984	-0.868167	56.211	2.28247	0
0.6227	0	1.64052	-10.4258	-12.931	-2.17472	-8.35202	-2.69132	20.1948	-0.768034	-0.321932
0.6233	-0.547235	-13.9141	-19.8881	-9.57043	-3.10217	-10.1602	-3.58842	-62.2011	-1.38462	-0.321932
0.6240	-0.859941	-24.9117	-6.16198	-5.60101	-1.56708	-10.4759	-0.549839	-85.3944	1.36299	-0.321932
0.6247	-1.79806	-24.6079	6.65799	-4.079	-1.27925	-11.9971	1.88103	-64.032	1.66588	-0.321932
0.6253	-4.84694	-13.0027	9.40513	-4.079	-2.17472	-11.0786	0.376206	-61.5931	-0.768034	0
0.6260	-3.59611	-0.18228	13.068	-2.55698	-2.49453	-7.7206	-2.98071	-51.5199	-3.21276	0
0.6267	-0.234529	6.52159	11.5418	0.194818	-2.17472	-4.07556	-3.58842	-43.8924	-2.90987	0
0.6273	-0.234529	7.43299	4.21609	1.71683	-0.351793	0.803631	-1.76527	-52.7428	-0.162261	-0.321932
0.6280	-1.48535	4.69879	3.91086	1.71683	0.575661	3.55894	0.665594	-57.0125	2.58535	0
0.6287	-3.90882	3.76713	3.60562	-0.109585	-0.959435	0.200908	2.19936	-64.032	3.19113	-0.321932
0.6293	-5.47235	-2.02534	-9.8153	-1.3272	-2.49453	-4.07556	1.59164	-59.1473	-0.768034	-0.321932
0.6300	-4.22153	-9.33681	-23.2457	-1.02279	-1.56708	-1.32025	2.19936	-6.35622	-3.21276	0
0.6307	-3.59611	-3.84814	-18.6672	0.803624	0.575661	3.87465	6.7717	45.5298	-0.768034	0
0.6313	-3.28341	7.43299	-6.16198	2.02124	1.1833	3.24322	9.52089	31.1869	1.0601	0
0.6320	-3.59611	7.43299	1.16372	1.10803	0.575661	-3.47283	7.37942	-1.77559	-0.465147	-0.321932
0.6327	-3.28341	-5.06335	8.18418	0.194818	-0.671605	-9.87318	3.41479	-9.09906	-2.60699	0
0.6333	-2.11076	-10.8761	20.6989	2.94662	-0.959435	-8.63903	1.27331	-11.2339	-3.81853	0
0.6340	-2.42347	-9.33681	23.4461	8.13365	0.575661	-1.32025	1.59164	-17.0374	-2.60699	0
0.6347	-2.42347	-15.4533	7.57371	12.7119	1.47113	3.87465	1.27331	-17.6454	1.97958	0
0.6353	-0.547235	-16.3647	-7.06816	11.7865	0.863491	5.0801	0.665594	-16.1185	3.80772	0
0.6360	-1.79806	-6.90641	-12.5624	3.25102	-0.671605	3.24322	-0.868167	-6.35622	-1.08174	0
0.6367	-6.33229	-1.72154	-15.0043	-3.47019	-1.27925	3.24322	-1.15756	18.3639	-3.21276	0
0.6373	-8.52123	0.729122	-15.3096	-5.29661	0.575661	3.55894	0.376206	18.6679	-0.465147	0
0.6380	-6.9577	3.76713	-15.92	-11.3968	1.47113	2.03778	1.27331	-8.49107	1.97958	0
0.6387	-3.90882	3.76713	-15.3096	-11.7012	-0.0319812	1.11934	-1.76527	-25.8878	1.0601	-0.321932
0.6393	1.25082	1.03292	-8.89958	6.29505	-1.27925	-2.23869	-7.26366	-35.6501	-2.29328	0
0.6400	2.50165	-2.63294	4.52133	26.7509	-1.56708	-4.67828	-8.1897	-21.0031	-2.90987	0
0.6407	-2.11076	-3.54434	12.7627	40.7778	-0.959435	-2.84141	-5.12218	21.4177	-1.38462	-0.321932
0.6413	-3.28341	-3.24054	6.96323	44.4428	0.575661	-0.401815	-2.69132	36.6795	-0.465147	-0.321932
0.6420	-0.859941	-6.6026	-5.85675	26.4343	-0.0319812	0.200908	-2.37299	16.2291	1.97958	-0.643864
0.6427	0.312706	-10.8761	-12.5624	24.9123	-2.17472	-0.114804	-5.7299	-1.77559	0.45433	-2.25352
0.6433	1.56353	-8.42541	-4.02532	76.186	-0.959435	1.72207	-5.44051	-8.18708	-3.81853	-1.28773
0.6440	-0.859941	-2.63294	2.07943	132.951	0.255849	2.6405	-1.76527	-12.4568	-5.96037	0.321932
0.6447	-4.22153	-3.54434	-2.80437	131.721	0.255849	0.803631	0.983922	-6.04531	-4.13224	0
0.6453	-2.73617	-12.6989	-5.24627	34.3732	0.575661	-1.63596	2.80707	12.8713	1.36299	-0.321932
0.6460	-5.78505	-23.3927	-7.37339	-101.427	-1.27925	-4.99399	1.59164	23.8565	2.88824	-0.321932
0.6467	-11.5701	-29.1851	-13.1729	-127.058	-2.17472	-4.07556	-1.15756	14.3982	-1.08174	-1.60966
0.6473	-9.69387	-22.461	-16.2253	-59.3099	-0.0319812	0.51662	0.0578778	-11.2339	-1.08174	-2.25352
0.6480	-4.22153	-8.72921	-11.3415	-18.1181	1.79095	1.11934	2.19936	-26.1918	1.66588	-0.965796
0.6487	-2.11076	-14.5419	-6.16198	-11.3968	0.575661	-0.114804	-0.231511	-9.40305	0.45433	0.321932
0.6493	1.56353	-22.1572	-6.76292	-9.26602	-1.88689	-1.32025	-4.22508	24.7754	-4.13224	0
0.6500	5.55053	0.12152	-7.67863	-5.90542	-1.56708	-3.47283	-3.58842	70.858	-4.43512	-0.321932
0.6507	1.56353	17.1951	-5.55151	-2.86139	0.575661	-3.15712	-1.47588	100.767	-0.465147	-0.321932
0.6513	-3.04888	9.88365	0.858481	-2.86139	1.47113	0.803631	-1.15756	58.0419	1.66588	0
0.6520	1.56353	5.00259	13.9837	-4.3834	0.575661	2.6405	-2.37299	-1.4716	0.45433	0
0.6527	6.72317	1.33672	16.1204	-4.68781	-1.56708	1.43506	-5.12218	-1.16761	-3.81853	0
0.6533	6.41047	-5.3874	9.71037	-0.413988	-1.56708	3.24322	-5.44051	0.359264	-5.0409	0
0.6540	4.61241	-3.84814	11.847	2.64222	0.255849	5.39581	-2.37299	-36.2581	-1.9904	-0.321932
0.6547	3.12706	11.4027	15.2046	0.803624	0.575661	2.6405	0.376206	-53.9587	0.45433	0
0.6553	0.312706	27.5851	12.1523	-0.109585	-0.0319812	-1.92297	0.665594	-35.9541	-0.162261	0
0.6560	-2.73617	25.4383	6.65799	-0.109585	-2.17472	-3.75984	-2.37299	-10.3219	-3.21276	0
0.6567	-4.53423	19.0382	2.99514	-0.109585	-1.88689	-3.15712	-4.22508	6.46676	-4.13224	0
0.6573	-4.84694	23.0078	1.46896	0.194818	-0.0319812	-1.00454	-2.0836	7.68273	-1.08174	0
0.6580	-7.58311	23.6154	-2.80437	-0.718391	-1.56708	-0.401815	-1.76527	5.54787	0.45433	-0.321932
0.6587	-8.83393	12.3141	-5.55151	-0.718391	-1.56708	-1.92297	-0.868167	16.5331	0.140626	-0.321932
0.6593	-3.90882	-8.42541	-9.20482	-1.02279	-0.671605	-4.67828	0.376206	33.9298	-1.9904	-0.321932
0.6600	0.938117	-24.6079	-11.952	-1.02279	-0.959435	-4.36257	1.27331	43.699	-3.21276	0.321932
0.6607	1.25082	-16.0609	-7.06816	1.10803	-0.671605	-1.32025	3.1254	36.3686	-0.768034	0
0.6613	-3.59611	-15.7571	-3.10961	6.59946	-1.88689	-0.717528	2.48874	16.5331	0.45433	-0.321932
0.6620	-4.84694	-56.0411	4.21609	15.1471	-1.88689	-1.00454	1.59164	0.974159	0.45433	-0.321932
0.6627	-1.48535	-69.7729	8.79466	22.1727	-1.56708	-2.84141	1.88103	-8.18708	-1.68751	0
0.6633	-1.79806	-2.93674	4.52133	26.4343	-0.959435	-3.47283	2.80707	-17.3414	-1.9904	0
0.6640	-4.84694	50.4714	3.30038	29.795	0.575661	0.51662	2.48874	-23.746	-0.162261	0
0.6647	-10.0066	21.7724	-4.94103	31.317	-0.671605	3.24322	-1.15756	-27.4077	-0.768034	0
0.6653	-6.64499	-7.81781	-16.2253	31.938	-0.959435	1.72207	-2.69132	-21.3071	-1.9904	0
0.6660	3.67429	-4.75955	-7.67863	31.6336	-0.671605	-2.5544	-2.98071	1.27815	-3.51565	0.321932
0.6667	5.86323	-5.995	2.99514	36.2118	-1.27925	-2.5544	-3.58842	7.68273	-3.81853	-0.321932
0.6673	3.12706	8.0406	-0.667707	18.8121	0.863491	0.803631	-1.47588	-13.6797	-0.768034	-0.643864
0.6680	3.987	31.5548	-0.36247	-39.1706	3.00623	2.03778	0.665594	-20.3883	1.66588	-0.321932
0.6687	4.2997	12.3141	9.09989	-63.8881	2.07878	0.803631	-0.549839	-0.856707	-0.162261	0
0.6693	-0.859941	-28.2737	10.3208	-33.6791	-1.56708	0.803631	-5.12218	21.1137	-5.3546	-1.28773
0.6700	-1.79806	-42.6131	9.09989	-1.02279	-2.49453	2.95621	-7.26366	25.0794	-5.65749	-2.25352
0.6707	1.25082	-33.7624	6.04752	27.0553	-0.671605	2.95621	-3.90675	18.0599	-1.9904	-0.643864
0.6713	-0.859941	-14.8457	-7.67863	52.0773	-0.351793	1.43506	-2.37299	19.8908	-1.38462	0.321932
0.6720	-2.11076	1.33672	-12.8677	66.7251	-1.56708	-0.114804	-2.98071	6.46676	-3.51565	0
0.6727	0.938117	5.91399	-5.55151	71.9121	-3.10217	-2.84141	-5.12218	-25.5769	-5.96037	0
0.6733	3.67429	4.39499	0.248006	71.9121	-3.10217	-2.23869	-6.33762	-46.3313	-5.3546	0
0.6740	3.12706	5.61019	3.91086	69.1603	-0.959435	0.51662	-3.58842	-55.7896	-1.08174	-0.321932
0.6747	-0.859941	12.6179	2.99514	68.5515	-0.671605	-3.15712	-2.69132	-60.0662	2.58535	-0.321932
0.6753	-3.59611	13.5495	-1.88866	72.2166	-1.88689	-11.3943	-3.29903	-59.7622	2.88824	-0.321932
0.6760	-2.73617	15.9799	-6.76292	44.7472	-3.39	-17.7947	-2.69132	-44.5004	-0.162261	0
0.6767	-2.42347	43.1397	-10.1205	-58.0923	-3.39	-18.4261	0.0578778	-1.16761	-0.768034	0
0.6773	-5.15964	55.3525	-12.5624	-163.075	-3.10217	-15.3551	2.19936	27.8292	2.88824	-0.321932
0.6780	-9.45935	27.5851	-14.6991	-131.94	-4.9251	-12.3128	-0.231511	12.5673	6.85822	-0.321932
0.6787	-6.9577	-0.810136	-11.3415	-26.6657	-4.31746	-10.4759	0.0578778	5.85186	13.5758	0
0.6793	2.50165	-22.461	-5.24627	-4.3834	-2.49453	-9.87318	3.41479	21.1137	19.3739	0
0.6800	4.61241	-46.8866	-3.41485	-30.6229	-2.78236	-6.19944	3.1254	21.7217	20.5855	0
0.6807	2.50165	-78.3199	4.52133	-33.0703	-0.959435	-2.23869	3.73312	11.6554	19.6768	-0.321932
0.6813	4.61241	-100.902	18.5623	-39.1706	0.575661	-1.32025	4.02251	8.60162	15.7068	-0.321932
0.6820	7.97399	-80.4465	17.9518	-66.6399	-0.671605	1.72207	0.983922	9.8245	11.7369	0
0.6827	8.2867	-63.9805	6.65799	-101.123	-1.56708	5.99853	-3.29903	17.452	9.90872	0
0.6833	6.41047	-91.444	4.82657	-105.092	0.575661	9.67227	-2.69132	33.0178	10.5145	0
0.6840	1.56353	-113.419	3.91086	-69.6961	1.1833	11.7962	-0.868167	37.8955	7.46399	0
0.6847	-3.59611	-113.115	-4.94103	-39.7794	-0.671605	12.7146	-2.37299	33.6258	-2.60699	0
0.6853	-1.79806	-137.824	-9.8153	-22.6963	-0.671605	13.633	-0.549839	18.9788	-11.4556	0.321932
0.6860	0.625411	-190.321	-0.972945	-1.936	-1.56708	12.1119	-0.231511	-14.2877	-17.8595	0
0.6867	0.625411	-139.971	17.9518	20.9429	-2.17472	7.8354	0.376206	-31.6844	-21.2237	0
0.6873	-0.547235	69.9957	28.0246	34.6776	-0.671605	2.95621	6.16398	-21.6111	-18.4761	0
0.6880	-4.84694	180.782	22.2251	35.5908	0.255849	-0.717528	10.1286	-8.18708	-13.8895	0
0.6887	-8.83393	68.1729	12.7627	38.0382	1.47113	-0.717528	10.4469	-0.856707	-9.61665	0
0.6893	-9.69387	-48.1018	5.74228	42.9208	1.47113	-0.114804	10.4469	4.021	-8.4051	0
0.6900	-6.09776	-20.3344	5.74228	45.0516	1.1833	1.72207	10.1286	5.24388	-7.18274	0
0.6907	-0.859941	100.821	13.3732	49.3255	1.47113	6.60125	8.59485	-5.74132	-3.21276	-0.321932
0.6913	1.56353	134.077	16.4256	53.2949	1.47113	11.1934	4.94855	-17.9494	-1.9904	0
0.6920	3.12706	54.4411	16.1204	47.1946	1.1833	10.5907	-0.868167	-12.4568	-3.21276	0
0.6927	4.61241	12.9419	13.068	42.0076	-0.959435	4.16166	-6.94533	-2.38358	-6.56615	0
0.6933	1.87623	6.52159	-7.06816	29.1862	-0.671605	1.43506	-8.1897	0.359264	-8.4051	-0.321932
0.6940	-2.73617	-13.0027	-23.2457	-46.5006	2.68642	1.72207	-2.98071	6.77075	-4.43512	0
0.6947	-7.27041	-24.9117	-11.952	-121.262	4.22151	-1.00454	0.665594	13.1753	-0.162261	0
0.6953	-11.5701	-9.03301	3.91086	-93.8048	3.93368	-1.32025	-0.549839	5.54787	-1.38462	0
0.6960	-8.52123	65.4184	2.99514	-37.3442	2.07878	1.43506	-4.22508	-14.5917	-6.56615	0
0.6967	-4.84694	144.164	-4.02532	-20.5533	1.47113	3.55894	-5.12218	-22.53	-7.48562	-0.321932
0.6973	-10.0066	146.898	-10.1205	-6.20982	2.07878	5.68282	-3.29903	-14.5917	-3.81853	0
0.6980	-14.9317	117.308	-17.7515	13.9295	1.1833	5.99853	-4.83279	-14.5917	-1.38462	0.321932
0.6987	-9.45935	93.1858	-19.2777	24.6079	0.863491	3.55894	-7.26366	-10.0179	-1.68751	0
0.6993	-1.17265	47.717	-12.2572	26.4343	-0.351793	-0.401815	-9.40514	4.93988	-2.29328	-0.321932
0.7000	0.938117	-4.75955	-5.85675	24.9123	-1.88689	-0.717528	-10.0129	11.3445	-0.162261	-0.321932
0.7007	0	-22.461	-5.85675	22.7815	0.255849	2.95621	-6.94533	11.0405	2.28247	0
0.7013	0	-5.3874	-7.37339	19.1165	1.1833	5.0801	-4.83279	7.37874	1.66588	0
0.7020	2.18894	-0.486081	-2.49913	15.1471	-0.0319812	3.55894	-4.51447	4.63589	-0.162261	0
0.7027	2.50165	-24.3041	1.46896	23.3903	-2.49453	0.200908	-6.04823	12.5673	-3.51565	0
0.7033	0	-32.2434	-0.057232	50.8596	-2.49453	0.51662	-6.33762	25.0794	-5.3546	0
0.7040	-3.28341	-49.6208	-1.27818	56.6555	0.575661	3.55894	-3.58842	29.964	-2.90987	0
0.7047	-6.9577	-97.5403	-1.58342	24.6079	1.1833	1.72207	-3.29903	24.4714	-3.21276	-0.321932
0.7053	-4.84694	-61.226	-1.58342	9.04685	-0.0319812	-0.717528	-3.90675	22.3366	-4.73801	0
0.7060	0	44.0511	-2.19389	31.0126	-0.959435	-0.401815	-3.90675	25.6874	-6.56615	0
0.7067	1.87623	79.454	-2.19389	64.5821	-0.671605	1.11934	-3.29903	15.6211	-5.65749	0
0.7073	0.625411	39.4739	-1.58342	81.0686	-0.351793	1.72207	-0.549839	-10.3219	-0.465147	0
0.7080	-3.04888	-6.2988	2.07943	78.9256	-2.49453	-0.717528	1.27331	-32.2923	1.0601	0
0.7087	-1.79806	-19.1192	13.068	94.1944	-2.78236	0.200908	3.73312	-37.1769	-0.768034	-0.321932
0.7093	0.312706	2.55193	21.0042	47.499	-3.39	4.16166	1.88103	-24.05	-1.68751	0
0.7100	-3.59611	14.4609	17.0361	-113.944	-4.9251	5.0801	-1.76527	-11.8488	1.97958	0
0.7107	-7.89582	-16.6685	8.79466	-179.853	-2.78236	8.75384	-1.76527	-14.5917	6.25244	-1.60966
0.7113	-6.9577	-29.1851	2.07943	-88.3012	-0.671605	14.2357	-1.15756	-0.552714	5.63585	-1.93159
0.7120	-5.15964	-6.90641	-8.59435	-8.96162	0.255849	13.633	-1.47588	22.9446	1.97958	-0.643864
0.7127	-4.53423	-37.4283	-16.5305	-24.2183	-1.56708	10.5907	-3.90675	25.6874	-0.768034	0
0.7133	0.312706	-74.3502	-7.98387	-106.614	-2.17472	11.1934	-4.83279	16.5331	0.45433	0
0.7140	4.2997	-65.1957	3.60562	-128.896	0.255849	12.7146	-0.868167	-10.0179	2.88824	0.321932
0.7147	5.23782	-55.1297	7.87894	-65.7267	1.1833	12.7146	4.34083	-22.834	3.50483	0
0.7153	5.23782	-9.66087	10.0156	-26.9701	-0.671605	13.9487	7.09003	-0.856707	3.19113	0
0.7160	4.61241	24.2231	9.09989	-16.9004	-2.49453	15.7569	4.63022	7.07474	1.36299	0
0.7167	4.61241	-29.1851	-0.667707	10.8733	-2.17472	18.1965	1.88103	-4.21445	-0.465147	-0.321932
0.7173	1.87623	-94.7859	-11.6467	51.7729	0.255849	21.5545	2.80707	-8.18708	0.45433	-0.321932
0.7180	-4.53423	-131.12	-7.98387	76.7948	0.255849	19.7464	3.73312	-2.07959	0.757216	0
0.7187	-7.27041	-202.514	2.07943	81.0686	-1.27925	10.5907	4.63022	16.8371	-1.08174	0.321932
0.7193	-3.59611	-235.79	5.74228	81.9818	-1.27925	-5.91243	3.41479	24.7754	-4.43512	0
0.7200	-2.73617	-67.3223	4.82657	67.6383	-0.351793	-24.2237	0.665594	18.3639	-6.26326	0
0.7207	-1.79806	103.576	0.553243	36.2118	1.1833	-34.9005	0.983922	18.6679	-6.26326	-0.321932
0.7213	0	96.8517	-6.16198	30.7082	1.47113	-36.4217	0.376206	4.93988	-8.70799	-0.321932
0.7220	-2.42347	93.4896	-18.3619	26.1299	-0.0319812	-33.6664	-3.29903	-2.99848	-11.1527	0
0.7227	-3.28341	139.586	-36.9814	-20.5533	-1.27925	-30.9398	-6.65594	15.6211	-12.3643	0
0.7233	-5.47235	145.379	-51.0224	-93.4882	-0.671605	-26.0319	-5.44051	25.9983	-8.70799	-0.321932
0.7240	-8.20852	119.738	-47.6648	-163.988	1.47113	-16.5892	-1.76527	15.9251	2.88824	0
0.7247	-7.89582	88.001	-27.5191	-155.136	2.07878	-9.55747	-0.868167	0.359264	8.38347	0
0.7253	-5.15964	59.626	-7.37339	-80.3745	0.863491	-7.43359	-2.98071	-4.21445	3.80772	0
0.7260	0.312706	56.8715	-2.49913	-37.0397	-1.56708	-5.281	-6.04823	-2.69448	-1.68751	0.321932
0.7267	3.987	62.0564	6.04752	-25.1315	-1.56708	-1.63596	-6.33762	-15.5105	-2.60699	0
0.7273	3.12706	56.2639	33.5189	-15.0619	-0.0319812	0.51662	-4.22508	-36.569	-1.9904	-0.643864
0.7280	0.938117	39.1701	42.9717	-11.0924	0.863491	-0.717528	-2.37299	-25.2729	-1.38462	0
0.7287	1.87623	-49.0132	22.2251	-10.788	0.863491	-3.15712	0.376206	19.2828	-1.38462	0.321932
0.7293	6.17594	-182.078	6.65799	-10.4836	-2.17472	-4.67828	-0.231511	38.1995	-5.0409	-1.93159
0.7300	9.77205	-177.197	3.91086	-7.74401	-4.31746	-3.47283	-0.549839	55.5962	-2.29328	-2.25352
0.7307	7.97399	-48.1018	2.68991	-6.51422	-2.17472	-3.47283	3.73312	93.7473	7.1611	0
0.7313	3.36159	19.6458	3.91086	-1.3272	-0.0319812	-6.19944	8.59485	85.2009	9.30294	0.321932
0.7320	2.18894	-20.0306	7.87894	30.7082	-0.0319812	-8.03631	11.0547	40.6452	4.41349	0
0.7327	2.18894	-121.642	13.3732	66.4207	-1.27925	-11.9971	7.98713	30.268	-0.162261	0
0.7333	-3.59611	-125.308	17.9518	78.3168	-1.27925	-16.2735	1.88103	33.9298	-0.162261	0
0.7340	-14.3063	-3.84814	6.96323	84.1126	-0.0319812	-13.2312	-0.868167	-20.3883	2.28247	0
0.7347	-17.3552	43.4435	-5.85675	89.9206	-0.0319812	-6.19944	-2.0836	-81.7326	1.97958	-0.321932
0.7353	-10.3193	0.729122	0.858481	88.6908	-1.27925	-6.51515	-4.83279	-70.4434	-0.768034	-0.643864
0.7360	-1.79806	-44.1321	14.5942	88.3864	-2.17472	-15.9578	-6.94533	-35.9541	-4.73801	0
0.7367	2.18894	-18.4913	22.5303	96.3253	-2.17472	-21.7841	-5.7299	-31.9883	-6.87985	0
0.7373	4.92511	104.183	20.6989	132.951	-0.671605	-19.6316	-2.0836	-49.689	-5.3546	0
0.7380	8.59941	169.784	8.18418	128.068	1.79095	-15.0681	-1.47588	-64.336	-2.29328	0
0.7387	7.34858	130.128	-3.10961	-45.2708	2.07878	-11.9971	-3.29903	-66.4708	3.80772	-0.321932
0.7393	3.67429	113.034	-9.20482	-191.457	-0.959435	-13.2312	-4.51447	-45.1084	7.1611	0
0.7400	-1.48535	122.796	-15.92	-105.701	-1.56708	-12.9155	-3.29903	-6.66021	6.85822	0
0.7407	-6.9577	102.037	-21.1091	18.2033	-0.959435	-8.03631	-1.47588	6.77075	6.85822	0
0.7413	-9.45935	75.7882	-23.551	54.8169	-3.70982	-4.99399	-2.37299	4.021	5.93874	-0.321932
0.7420	-5.78505	62.6842	-17.7515	82.895	-4.9251	-3.15712	-4.83279	4.63589	2.58535	0
0.7427	-2.42347	26.9775	-6.45768	51.4684	-4.63727	-4.36257	-6.65594	-8.79507	-0.465147	0
0.7433	-3.28341	-39.5549	-0.057232	-123.101	-2.78236	-6.19944	-2.69132	-19.4763	4.41349	0
0.7440	-3.04888	-88.3858	1.77419	-265.61	-0.0319812	-2.84141	3.41479	-23.138	11.7369	0
0.7447	-7.89582	-113.419	0.248006	-201.223	-1.56708	1.72207	3.41479	-19.1723	12.0506	0
0.7453	-9.45935	-97.5403	-0.36247	-72.4357	-1.27925	4.79308	6.48231	-13.3688	6.25244	0.321932
0.7460	-2.11076	17.823	0.858481	-32.1571	0.575661	9.95928	10.1286	-21.0031	-0.768034	0
0.7467	-0.234529	126.462	1.77419	-26.3491	0.863491	20.9518	7.09003	-4.82934	-5.3546	-0.321932
0.7473	-4.22153	112.73	-1.27818	-8.96162	1.1833	28.5863	2.80707	15.6211	-6.87985	0
0.7480	-7.89582	104.183	-9.20482	-8.04841	0.863491	24.6255	-1.15756	-6.35622	-6.26326	0
0.7487	-4.53423	157.288	-13.4781	-16.2795	0.575661	17.9095	-4.22508	-29.2386	-4.73801	-0.321932
0.7493	-1.79806	142.321	-11.3415	-15.9751	-0.0319812	11.1934	-6.33762	-32.5963	-5.0409	-0.321932
0.7500	-4.22153	79.454	-7.98387	-10.4836	-0.959435	6.31424	-5.44051	-33.2112	-3.21276	0
0.7507	-6.64499	49.2562	-4.33056	-4.99221	-0.351793	6.91697	-1.76527	-26.4957	0.757216	0
0.7513	-8.83393	38.5625	-3.10961	-3.47019	0.575661	8.43812	-2.0836	-11.2339	0.757216	-0.321932
0.7520	-7.27041	27.8889	-3.41485	-2.55698	1.47113	8.15111	-4.83279	0.0552714	-1.38462	-0.321932
0.7527	-3.28341	19.342	-4.02532	-3.47019	-0.0319812	6.91697	-7.87138	-4.52535	-4.73801	-0.321932
0.7533	1.87623	54.1373	-1.88866	-4.99221	-1.27925	6.31424	-7.87138	-12.4568	-5.96037	0
0.7540	5.23782	92.5782	3.60562	4.16423	-0.351793	8.75384	-4.22508	-25.5769	-2.29328	0
0.7547	2.81435	60.2336	6.65799	18.5077	0.255849	12.7146	-2.98071	-34.7312	0.757216	-0.321932
0.7553	1.25082	45.5904	3.30038	24.3035	-0.351793	12.3989	-4.22508	-21.6111	-0.465147	0
0.7560	0.625411	72.4464	-4.02532	30.7082	-2.17472	4.79308	-8.47909	-4.82934	-5.0409	0
0.7567	-2.11076	43.1397	-5.55151	40.7778	-2.49453	0.51662	-10.0129	14.7022	-8.4051	0
0.7573	-6.64499	-27.6661	0.248006	44.4428	-0.0319812	0.51662	-5.7299	33.3218	-6.56615	0
0.7580	-12.5082	-78.0161	1.16372	39.5602	-0.959435	-3.15712	-2.98071	29.66	-4.43512	-0.321932
0.7587	-10.9447	-102.421	0.248006	35.8952	-2.17472	-9.87318	0.376206	27.2143	-3.51565	0.321932
0.7593	-6.33229	-124.093	-1.88866	38.3426	-2.17472	-13.8339	4.02251	16.8371	-4.73801	0.321932
0.7600	-5.78505	-136.609	-5.85675	3.55543	-2.17472	-9.27046	1.27331	-13.6797	-6.26326	-1.93159
0.7607	-2.11076	-156.133	-4.02532	-99.905	-0.351793	-2.84141	1.59164	-24.05	-1.08174	-2.25352
0.7613	-2.11076	-186.048	-6.45768	-167.044	-1.56708	-3.75984	4.94855	0.663257	3.80772	-0.643864
0.7620	-3.04888	-111.272	-8.28911	-108.453	-3.10217	-2.5544	4.94855	31.7949	2.28247	-2.25352
0.7627	3.36159	-2.02534	4.52133	4.16423	-3.10217	3.87465	3.1254	29.0451	1.36299	-1.93159
0.7633	6.72317	-35.889	13.6785	54.2081	-3.70982	9.67227	5.84566	1.27815	3.80772	0.321932
0.7640	2.81435	-105.48	9.09989	19.4209	-4.31746	12.7146	11.9518	-20.0843	7.1611	0
0.7647	-1.17265	-99.991	3.30038	-17.5093	-4.63727	16.6753	13.4855	-26.7997	9.90872	0
0.7653	0.625411	-82.5933	2.07943	-15.9751	-4.02963	24.9126	10.7363	-21.0031	9.60583	0
0.7660	6.72317	-32.2434	2.38467	-8.35282	-3.70982	29.5047	7.09003	-9.09906	5.63585	-0.321932
0.7667	7.66129	50.1676	2.07943	2.64222	-4.9251	30.1075	1.27331	3.717	3.19113	0
0.7673	2.81435	73.3578	-0.972945	54.2081	-5.24491	30.7102	-5.12218	8.90561	3.50483	0
0.7680	1.56353	58.4108	-4.02532	104.873	-1.88689	27.3521	-6.94533	2.19013	-1.68751	-0.321932
0.7687	0.938117	18.1268	-6.45768	76.4904	0.863491	19.4306	-6.04823	-6.35622	-7.18274	-0.321932
0.7693	-3.90882	-29.7927	-9.51006	25.8255	-1.56708	12.3989	-9.08681	-6.9642	-5.0409	-0.321932
0.7700	-7.89582	2.24813	-7.37339	9.04685	-2.78236	9.04085	-8.79742	3.41301	-0.162261	-0.321932
0.7707	-6.09776	98.9986	-1.88866	8.74245	0.863491	2.6405	-2.69132	18.9788	2.58535	0
0.7713	-1.17265	149.045	-4.94103	20.6385	3.61387	-12.9155	-0.231511	30.876	3.19113	0
0.7720	0.938117	128.893	-12.2572	32.2424	3.00623	-29.7056	-2.69132	38.5104	2.28247	0
0.7727	-0.547235	106.918	-9.51006	34.6776	1.79095	-39.177	-6.65594	35.7606	-0.768034	0
0.7733	-2.73617	81.6009	3.91086	42.0076	1.47113	-38.2586	-8.1897	23.8565	-4.13224	0
0.7740	-6.64499	43.7473	10.6261	45.0516	1.47113	-30.3084	-6.04823	13.4862	-4.43512	0
0.7747	-13.3682	26.6737	4.21609	34.3732	3.00623	-25.7449	-4.22508	0.0552714	-2.60699	0
0.7753	-13.3682	23.9193	-0.972945	34.0688	6.97189	-22.3869	-0.549839	-5.74132	-1.68751	0
0.7760	-6.33229	17.823	-1.58342	16.0603	6.65208	-17.5077	0.983922	-4.82934	-3.21276	-0.321932
0.7767	-1.48535	3.76713	-1.88866	-47.1094	4.54133	-11.9971	0.376206	-7.26819	-1.68751	-0.321932
0.7773	-2.11076	-6.90641	-3.72008	-72.7401	5.75661	-6.19944	4.63022	-5.13333	1.66588	0
0.7780	-5.15964	11.0989	-4.02532	-39.475	6.04444	-4.07556	6.16398	0.359264	1.36299	-0.321932
0.7787	-3.28341	23.3116	-0.667707	-15.6707	3.00623	-4.07556	3.73312	12.2633	-0.162261	-0.321932
0.7793	2.18894	9.88365	-0.667707	-9.87483	-0.959435	-3.15712	1.27331	29.0451	-1.68751	0
0.7800	4.61241	16.8913	-1.88866	-3.16579	-1.88689	-1.63596	-0.868167	29.0451	-1.9904	0
0.7807	3.67429	19.342	0.248006	2.94662	-0.959435	0.51662	-2.69132	11.6554	-2.90987	-0.321932
0.7813	2.81435	-6.90641	4.52133	7.20826	-1.27925	3.24322	-4.83279	-6.35622	-4.13224	0
0.7820	2.50165	-39.8587	7.57371	7.82924	-2.17472	3.55894	-4.83279	-18.2534	-1.9904	0.321932
0.7827	2.50165	-83.8085	4.52133	3.55543	-2.49453	-0.114804	-4.83279	-22.834	0.140626	0
0.7833	1.87623	-82.5933	7.26847	0.194818	-2.49453	-3.47283	-5.12218	-22.834	1.97958	-0.321932
0.7840	0.312706	0.425321	16.7308	-0.413988	-2.49453	-4.07556	-3.90675	-23.442	7.1611	-0.321932
0.7847	1.25082	102.037	21.6146	-0.109585	-0.959435	-3.47283	-2.0836	-16.1185	11.434	-0.321932
0.7853	0.938117	135.617	22.5303	0.803624	1.47113	-3.75984	3.1254	1.88614	10.8282	-0.321932
0.7860	-3.59611	83.7275	21.0042	-0.109585	1.47113	-5.281	3.73312	15.6211	1.36299	-0.321932
0.7867	-5.47235	42.8359	18.257	0.194818	0.575661	-4.99399	0.376206	22.3366	-7.78851	0
0.7873	-5.15964	37.3472	14.5942	2.32564	1.79095	-4.36257	1.88103	29.3491	-3.81853	0
0.7880	-3.28341	27.2813	8.18418	4.46864	3.32604	-7.43359	5.84566	21.7217	2.88824	0
0.7887	0.938117	18.1268	-0.36247	6.90386	1.79095	-10.1602	6.16398	-10.9299	-2.60699	0
0.7893	0	7.12919	-18.9724	5.99065	-1.88689	-7.7206	-0.549839	-12.4568	-14.5061	-1.60966
0.7900	-6.33229	-21.5496	-35.7605	4.77304	-2.49453	-0.401815	-3.90675	26.9103	-15.1119	-2.25352
0.7907	-9.69387	-67.3223	-29.3505	5.99065	-0.351793	2.03778	0.376206	27.2143	-6.56615	-0.321932
0.7913	-10.9447	-106.695	-10.731	6.59946	-0.351793	0.200908	1.59164	-3.60646	-3.81853	0
0.7920	-10.632	-133.247	-4.94103	6.90386	-1.56708	-0.114804	-1.76527	-11.8488	-8.0914	-0.321932
0.7927	-8.20852	-149.43	-13.7834	5.68625	-3.70982	-1.32025	-5.12218	-12.4568	-11.4556	0
0.7933	-7.27041	-147.283	-15.3096	4.46864	-3.70982	0.200908	-5.12218	-19.7803	-3.21276	-0.321932
0.7940	-9.14664	-123.789	-4.33056	5.07744	-1.56708	5.39581	-3.90675	-13.9837	6.55533	-0.321932
0.7947	-11.2574	-88.6896	2.07943	5.68625	-0.671605	7.51969	-4.22508	18.9788	5.33297	0
0.7953	-11.5701	-55.1297	-2.19389	5.99065	1.1833	7.23268	-3.29903	62.6156	3.19113	0
0.7960	-10.9447	10.7951	-6.16198	4.77304	0.863491	5.68282	-5.12218	89.1666	0.757216	0
0.7967	-3.28341	59.9298	-3.41485	3.55543	0.863491	4.79308	-6.04823	92.5244	-0.768034	0
0.7973	7.03588	-13.9141	-2.49913	4.46864	2.68642	7.8354	-1.47588	60.1768	1.36299	0
0.7980	7.03588	-137.521	-6.45768	5.07744	2.68642	9.95928	0.983922	32.4029	1.36299	-0.321932
0.7987	5.23782	-193.663	-5.24627	4.77304	0.575661	9.35656	0.0578778	35.7606	-1.38462	-0.321932
0.7993	9.22482	-248.61	3.60562	3.55543	-1.88689	7.23268	-2.69132	34.2337	-5.96037	0
0.8000	13.4463	-304.145	12.1523	2.94662	-1.88689	3.87465	-2.69132	26.6063	-7.78851	0
0.8007	12.2737	-219	18.5623	4.16423	-1.56708	2.6405	-1.15756	-27.4077	-5.96037	-0.321932
0.8013	8.91211	-83.5047	18.5623	5.68625	-1.88689	5.68282	-3.58842	-89.3601	-4.13224	-0.321932
0.8020	6.41047	33.3776	9.40513	6.29505	-1.27925	8.15111	-5.44051	-64.9439	-2.90987	0
0.8027	4.92511	200.002	0.858481	4.46864	-3.39	6.31424	-6.65594	-38.3998	-3.81853	0
0.8033	5.55053	269.593	-12.5624	2.94662	-4.02963	3.87465	-5.44051	-61.5931	-2.60699	0
0.8040	1.87623	181.693	-33.9291	2.64222	-0.959435	1.11934	2.48874	-67.0857	5.63585	0.321932
0.8047	-6.09776	92.5782	-38.8129	1.10803	-0.671605	-2.5544	7.98713	-50.601	11.7369	0.321932
0.8053	-9.69387	60.5374	-28.1295	0.499221	-1.88689	-1.63596	7.69774	-44.5004	13.2621	-0.321932
0.8060	-10.632	46.5018	-26.9086	-0.109585	0.575661	-3.75984	7.37942	-35.3461	12.6563	-0.321932
0.8067	-12.1955	20.861	-30.8767	-2.86139	3.00623	-11.0786	8.91318	-1.77559	12.9592	0
0.8073	-10.0066	-25.2155	-11.952	-3.47019	3.61387	-11.71	8.59485	24.1674	16.6263	-0.321932
0.8080	-3.90882	-80.7503	15.8151	-0.718391	1.79095	-8.95474	5.23794	17.148	13.5758	-0.321932
0.8087	2.18894	-95.1099	14.8994	2.64222	-1.27925	-13.5182	2.80707	16.8371	-14.2032	0
0.8093	7.66129	-48.1018	-11.0362	3.55543	-3.70982	-22.6739	1.59164	50.4076	-47.4666	-0.321932
0.8100	5.55053	-20.6382	-40.0338	3.25102	-2.78236	-25.4292	0.376206	92.5244	-52.9619	-0.643864
0.8107	3.67429	-15.7571	-56.8123	4.77304	0.575661	-21.7841	-0.231511	107.779	-44.1024	-0.321932
0.8113	4.92511	38.2587	-62.9171	5.07744	1.1833	-19.6316	-0.549839	81.2352	-36.7791	0
0.8120	5.23782	57.7829	-71.4637	2.64222	0.255849	-18.7131	0.376206	56.211	-35.8704	0
0.8127	8.2867	4.69879	-76.0423	1.41243	-0.351793	-15.9578	-0.549839	34.8486	-51.4258	0
0.8133	9.53752	-36.8207	-77.2633	-0.718391	-0.351793	-10.7916	-1.15756	-43.8924	-35.5567	0
0.8140	4.2997	-79.5351	-74.8214	-3.16579	1.1833	-6.83086	1.59164	-121.1	25.4749	-0.321932
0.8147	-1.48535	-49.6208	-24.7719	-2.24041	2.07878	-10.1602	7.09003	-116.83	54.4655	0
0.8153	-5.78505	131.343	50.6027	2.32564	0.863491	-14.4367	12.5595	-73.4903	32.1925	0
0.8160	-8.20852	240.894	62.2017	4.46864	-1.27925	-11.9971	9.20257	-38.0889	7.77769	-0.321932
0.8167	-6.09776	174.361	34.7398	2.64222	-0.959435	-4.67828	0.0578778	-17.6454	0.757216	-0.321932
0.8173	-5.15964	122.492	40.5394	1.41243	-0.351793	4.16166	-6.65594	-6.66021	3.80772	0.321932
0.8180	-9.14664	127.07	56.7074	0.194818	-0.671605	12.3989	-11.5466	-6.04531	10.5145	0
0.8187	-7.89582	110.887	43.5822	0.194818	0.575661	18.1965	-12.1543	0.359264	16.9292	0
0.8193	-1.48535	66.026	19.7832	-0.413988	0.255849	19.1149	-12.4437	22.9446	12.0506	0
0.8200	1.87623	16.2837	17.0361	7.52484	0.255849	21.2675	-12.762	21.1137	3.50483	0
0.8207	-3.28341	-15.1495	23.1408	25.8255	0.575661	23.7071	-12.762	-14.2877	5.63585	0
0.8213	-8.20852	-24.0003	20.6989	39.5602	-0.959435	19.4306	-13.6592	-36.873	10.5145	-0.321932
0.8220	-0.547235	-24.9117	23.4461	45.977	-0.351793	13.9487	-8.1897	-36.569	12.0506	-0.321932
0.8227	6.41047	-27.6661	25.5827	45.6604	-0.959435	7.51969	-1.76527	-35.9541	10.5145	0
0.8233	3.67429	-37.7321	19.1727	42.6164	-1.88689	5.39581	1.27331	-28.9346	10.2116	-0.643864
0.8240	-2.11076	-76.173	17.3413	38.3426	-0.671605	6.91697	4.02251	-14.2877	15.4039	-2.25352
0.8247	-3.04888	-100.295	22.2251	27.9685	-0.671605	3.87465	5.55627	-11.2339	21.2021	-1.28773
0.8253	3.987	-49.0132	25.888	24.3035	-1.56708	0.200908	7.98713	-19.4763	19.6768	0
0.8260	7.97399	7.43299	22.2251	14.2339	-1.88689	0.803631	5.55627	-26.1918	14.1816	-0.321932
0.8267	3.67429	9.88365	17.6465	-40.6926	-0.0319812	5.39581	1.59164	-18.2534	13.8787	0
0.8273	-3.04888	19.342	17.3413	-95.0224	3.00623	9.95928	1.59164	-4.21445	8.08058	0
0.8280	-6.09776	34.8966	16.1204	-89.531	3.93368	9.35656	0.376206	-6.9642	-8.0914	-0.321932
0.8287	-5.15964	16.5875	13.068	-52.9052	2.68642	6.60125	-1.47588	-25.2729	-19.0819	-0.321932
0.8293	-2.73617	16.2837	10.6261	-27.5789	-0.351793	2.95621	-3.29903	-33.8192	-31.2947	0
0.8300	-0.547235	61.7526	10.6261	-16.9004	-1.56708	1.43506	-4.51447	-23.442	-40.7491	0
0.8307	-1.79806	79.7578	11.2366	-12.931	0.575661	4.47737	-3.90675	-12.7608	-27.0218	0
0.8313	-4.84694	48.9524	9.40513	-11.7012	1.79095	6.60125	-3.58842	-10.9299	-9.93035	-0.321932
0.8320	-5.47235	32.77	7.26847	-12.931	0.863491	4.79308	-4.51447	-8.49107	1.0601	0
0.8327	-3.90882	30.9472	5.13181	-16.5839	-1.27925	-2.84141	-7.26366	-7.26819	11.1311	0
0.8333	-3.59611	32.1624	4.52133	-15.3663	-1.27925	-1.32025	-7.58199	-9.09906	2.58535	0
0.8340	-5.15964	72.4464	6.04752	-11.0924	1.79095	16.3883	-4.83279	-6.9642	-6.87985	0
0.8347	-11.5701	103.272	5.43704	-12.0178	1.79095	29.5047	-6.33762	-8.18708	8.38347	0
0.8353	-20.0913	63.8994	5.13181	-11.3968	0.575661	28.902	-7.58199	-9.70705	16.9292	0
0.8360	-27.7526	15.9799	3.91086	-6.81863	-0.671605	17.9095	-6.04823	-5.13333	1.66588	0
0.8367	-31.4269	2.85573	1.77419	-1.936	-2.49453	6.60125	-2.98071	0.0552714	-8.70799	0
0.8373	-28.378	3.76713	2.07943	2.02124	-0.671605	2.32479	3.73312	4.93988	-5.96037	0.321932
0.8380	-27.4399	8.3444	1.77419	2.32564	0.255849	-2.84141	4.63022	5.54787	5.93874	0
0.8387	-23.7656	10.1875	0.858481	1.41243	0.575661	-4.99399	0.665594	3.717	18.4544	0
0.8393	-14.619	5.00259	0.553243	0.803624	3.00623	-3.15712	3.41479	7.98672	12.6563	0.321932
0.8400	-23.4529	1.33672	1.46896	-0.109585	5.14897	1.11934	12.5595	13.4862	-1.68751	0.321932
0.8407	-26.1891	4.69879	2.99514	0.194818	6.36425	9.67227	18.3762	10.7365	-7.18274	0
0.8413	15.6353	7.73679	2.68991	0.499221	5.75661	12.3989	15.627	6.15586	-8.0914	0
0.8420	40.6517	6.82539	1.77419	0.803624	3.00623	2.03778	8.91318	5.85186	-6.56615	0
0.8427	1.56353	4.39499	0.553243	2.02124	-0.351793	-14.7524	0.376206	7.07474	-3.81853	0
0.8433	-23.1402	2.24813	-0.36247	4.46864	-2.78236	-28.1845	-7.58199	9.2096	-1.9904	0
0.8440	-4.22153	2.55193	-1.27818	5.68625	-3.10217	-32.1452	-10.6206	8.29762	7.77769	0
0.8447	-7.89582	1.94433	-1.27818	5.07744	-0.0319812	-26.0319	-10.3022	2.19013	16.6263	0
0.8453	-34.7885	-8.42541	0.553243	5.68625	3.32604	-14.7524	-10.0129	2.49412	10.5145	0
0.8460	-43.9351	-26.4307	1.77419	3.85983	2.07878	-5.91243	-13.0514	6.46676	-1.38462	0.321932
0.8467	-36.5866	-38.3397	3.30038	2.02124	0.863491	-2.5544	-14.2958	4.021	-15.7285	0
0.8473	-22.2021	-38.9473	4.21609	4.77304	1.47113	-0.401815	-12.1543	-1.77559	-33.1228	0
0.8480	-10.3193	-34.0662	2.99514	6.59946	1.79095	0.803631	-10.9389	-5.74132	-40.7491	0
0.8487	-6.9577	-37.1245	3.91086	5.07744	1.47113	1.43506	-11.5466	-5.43733	-39.2238	0
0.8493	15.0099	-48.1018	5.13181	2.02124	-2.49453	2.32479	-12.4437	-3.91045	-34.0315	0
0.8500	60.7431	-34.9776	4.21609	0.499221	-4.02963	6.91697	-8.47909	-4.52535	-24.2742	0
0.8507	77.551	-2.02534	1.16372	-0.413988	-2.17472	9.35656	-0.549839	-1.77559	-14.5061	0
0.8513	50.971	13.8533	-2.80437	-5.29661	-5.24491	7.23268	4.02251	10.4325	7.46399	-0.321932
0.8520	27.2054	9.57985	-2.80437	-8.35282	-6.4602	7.23268	10.4469	18.6679	42.2635	0
0.8527	21.4203	-1.72154	-2.80437	-6.81863	-4.02963	9.67227	14.4116	9.8245	37.6769	0.321932
0.8533	21.4203	-1.72154	-4.6358	-5.60101	-1.27925	16.6753	13.1961	0.0552714	14.1816	-1.93159
0.8540	21.733	5.91399	-3.10961	-2.55698	3.61387	23.9941	17.4501	5.54787	20.8992	-2.25352
0.8547	17.746	5.91399	-1.27818	-0.718391	4.82916	23.7071	21.1254	9.8245	27.9196	-0.321932
0.8553	14.0718	5.30639	-2.19389	-1.3272	4.22151	23.3914	17.4501	8.29762	27.0002	0
0.8560	12.8209	1.03292	-2.49913	-1.3272	3.00623	21.8702	8.91318	10.7365	26.0807	-0.321932
0.8567	9.22482	-5.995	-1.27818	0.194818	-0.959435	18.1965	-0.868167	11.0405	21.8078	-0.321932
0.8573	5.55053	-3.24054	-0.057232	1.41243	-3.10217	17.9095	-5.7299	6.15586	31.8788	0
0.8580	5.86323	3.76713	0.248006	1.41243	-0.671605	9.35656	-4.22508	2.80503	36.4546	0.321932
0.8587	9.22482	-1.11394	-1.58342	1.71683	1.47113	-13.8339	0.376206	8.29762	2.88824	0
0.8593	10.3975	-11.4837	-3.10961	1.10803	1.1833	-32.4609	0.0578778	13.4862	-31.9004	0
0.8600	9.22482	-24.6079	-1.27818	-1.936	2.39859	-33.9821	1.59164	11.0405	-30.0723	-0.321932
0.8607	5.86323	-59.707	1.46896	-5.60101	3.61387	-35.1875	7.37942	14.3982	-11.4556	0
0.8613	1.87623	-95.4137	1.77419	-5.29661	2.39859	-41.9036	6.7717	24.4714	1.36299	0
0.8620	2.50165	-130.796	1.16372	-2.24041	1.79095	-42.535	2.48874	12.5673	2.88824	0
0.8627	3.67429	-177.197	0.248006	-0.718391	-1.27925	-40.9852	-2.98071	-11.5379	-2.60699	0
0.8633	2.18894	-162.554	2.99514	2.02124	-3.39	-35.1875	-6.65594	-9.40305	-3.51565	-0.321932
0.8640	1.56353	-120.73	7.87894	4.77304	-0.671605	-21.1527	-4.51447	3.717	4.1106	0
0.8647	6.17594	-136.001	7.26847	3.25102	2.39859	-6.51515	-3.29903	3.41301	7.1611	0
0.8653	11.6483	-110.361	2.38467	1.41243	2.39859	2.03778	-6.33762	-2.69448	12.3534	-0.321932
0.8660	17.4333	-76.7806	-1.88866	-0.109585	-1.88689	2.95621	-11.5466	-2.38358	19.0602	0
0.8667	21.4203	-114.027	-4.02532	-1.02279	-4.9251	1.11934	-13.6592	2.49412	10.8282	-0.321932
0.8673	22.2803	-44.7397	-1.88866	1.41243	-2.49453	2.03778	-10.3022	8.60162	-2.29328	-0.321932
0.8680	11.961	142.321	-0.36247	1.10803	-1.27925	4.16166	-7.58199	9.2096	-15.1119	0
0.8687	-5.78505	215.273	-3.72008	-1.3272	-3.10217	2.95621	-7.87138	4.32499	-34.9509	-0.321932
0.8693	-16.1043	140.802	-7.37339	-1.3272	-5.85255	0.51662	-8.79742	3.717	-40.7491	-0.321932
0.8700	-34.4758	57.1753	-7.67863	-0.718391	-5.85255	1.11934	-8.47909	5.54787	-13.2837	0
0.8707	-64.0265	19.6458	-5.24627	1.10803	-2.78236	2.03778	-6.04823	6.46676	17.2321	0
0.8713	-89.3556	7.43299	-4.6358	2.94662	-0.351793	0.51662	-4.51447	4.63589	22.1215	0
0.8720	-100.691	-0.18228	-5.55151	1.71683	-0.351793	-4.36257	0.0578778	4.021	14.4845	-0.321932
0.8727	-103.115	-24.0003	-7.98387	-2.55698	-2.17472	-14.4367	8.59485	5.85186	5.33297	0
0.8733	-97.0169	-16.9723	-9.20482	-4.99221	-1.27925	-22.3869	15.3087	6.77075	0.45433	0
0.8740	-50.0329	77.935	-6.16198	-6.20982	2.68642	-28.4715	18.9839	4.93988	2.88824	0
0.8747	-2.11076	138.979	-4.94103	-7.74401	3.93368	-29.3899	16.8424	0.663257	5.33297	0
