MR32 ASCII
Name	USMC30_slow
Frequency	1500
Date	03-09-2015 09:50:35
"Time,s"	"RT TIB.ANT.,uV"	"RT MED. GASTRO,uV"	"RT LAT. GASTRO,uV"	"RT BICEPS FEM.,uV"	"RT VMO,uV"	"RT VLO,uV"	"RT RECTUS FEM.,uV"	"RT SOLEUS,uV"	"RT SEMITEND.,uV"	"Channel 12,uV"
0.0000	-103.276	-3.13936	-0.628922	3.17976	-10.64	-9.16982	-22.0991	8.20241	-6.91746	-10036
0.0007	-139.865	5.71065	9.43383	4.74518	-8.50421	-6.11775	-23.0223	17.0558	-4.48396	-10075.3
0.0013	-129.193	11.212	14.0018	4.74518	-7.28514	-5.50462	-29.4261	21.6344	-3.26721	-9560.4
0.0020	-108.144	14.2617	14.9286	6.84871	-6.97306	-7.03065	-36.7532	21.0268	-3.26721	-9906.57
0.0027	-111.193	22.5137	24.6935	9.00116	-4.2326	-5.80437	-40.4167	21.0268	-0.202792	-9813.9
0.0033	-44.9986	28.3141	37.5036	3.17976	-3.61819	-6.73089	-54.4521	21.0268	1.01396	-9797.25
0.0040	101.8	31.6627	46.6726	0.146758	-4.2326	-7.94354	-64.215	23.1534	0.721039	-9816.73
0.0047	146.651	33.7855	52.1674	0.440274	-4.2326	-7.03065	-58.1156	25.6054	3.44747	-9816.73
0.0053	41.0643	30.1379	49.089	-0.440274	-4.2326	-6.73089	-52.0065	24.0864	5.58805	-9802.28
0.0060	-54.7361	23.7396	39.9531	-0.146758	-4.2326	-7.03065	-42.5481	17.9672	4.68675	-9802.91
0.0067	-59.949	17.9392	30.4862	2.59273	-1.78471	-5.50462	-25.7626	11.8696	5.9035	-9914.74
0.0073	-17.8027	8.16235	18.9008	3.52219	-1.18006	-5.20486	-16.6087	2.40864	6.8048	-9597.78
0.0080	-39.1955	-6.48802	5.16378	4.74518	-4.83726	-7.94354	-13.5541	-15.9057	3.15454	-9948.67
0.0087	-124.914	-13.5142	-1.85367	10.5177	-6.05632	-5.80437	0.176792	-29.9453	2.54617	-10293.3
0.0093	-179.552	-12.2884	0.264809	8.07169	-5.45167	-5.20486	11.1576	-37.8656	3.76292	-5306.69
0.0100	-144.143	-12.2884	1.78746	1.07623	-7.8898	-8.25692	14.2122	-45.5039	1.01396	109.947
0.0107	-31.2286	-11.0625	0.264809	1.36974	-6.97306	-5.80437	33.7477	-41.5328	1.32941	109.947
0.0113	49.3264	-6.18903	2.11847	4.74518	-2.39912	0.599513	45.3374	-25.6705	8.94538	-253.821
0.0120	54.1951	-6.48802	1.78746	2.29921	-3.01353	0.286131	16.9623	-11.3271	9.86922	92.0417
0.0127	32.2122	-12.5874	-4.60106	-2.29921	-7.28514	-4.89148	-14.163	-4.60029	4.07837	-0.628271
0.0133	-9.2948	-13.5142	-7.97738	-1.36974	-6.05632	-3.97858	-35.8398	-1.86616	4.3713	-16.0209
0.0140	-53.2115	-11.0625	-7.05055	1.36974	-3.92052	-1.2399	-62.9971	-1.25857	7.72863	2.19895
0.0147	-64.1784	-13.8132	-9.79794	-1.07623	-6.67073	-4.89148	-80.3915	-6.74855	4.3713	-0.628271
0.0153	-58.4245	-14.7401	-11.3206	-1.36974	-8.20188	-5.80437	-77.3369	-11.9347	2.23071	-0.628271
0.0160	-57.195	-7.086	-4.30315	2.88624	-5.14934	0.899269	-56.5834	-5.53337	7.43571	-0.628271
0.0167	-66.0472	-1.91352	0.893731	3.17976	-5.754	0.286131	-35.221	1.49727	6.51188	-0.314135
0.0173	-79.178	0.23919	2.41638	-0.146758	-9.42095	-4.59172	-19.3588	0.282094	-0.518246	-0.314135
0.0180	-57.195	6.9365	6.05751	1.07623	-8.20188	-1.83941	13.2987	-0.650985	0.0901298	-0.314135
0.0187	-0.44261	13.0358	8.80491	2.59273	-6.36841	1.21265	65.7864	1.49727	4.07837	0
0.0193	20.3109	10.913	6.68644	-1.66326	-10.0256	-0.92652	94.7804	2.71244	1.01396	-0.314135
0.0200	25.2288	7.23549	3.64113	-3.22868	-12.1614	0.899269	85.931	6.37965	0.0901298	-0.314135
0.0207	71.3093	5.41167	1.19164	1.95677	-9.10887	6.0905	76.4726	12.4772	5.58805	-0.314135
0.0213	100.571	-1.28564	-4.60106	3.17976	-8.20188	5.47737	76.777	11.8696	5.29513	0
0.0220	76.7682	-7.41488	-8.5732	0.782709	-8.80654	1.51241	70.3634	6.37965	1.01396	0
0.0227	49.9165	-6.18903	-6.45473	-0.146758	-8.80654	0.286131	54.5012	2.71244	-1.41954	0
0.0233	49.9165	2.06301	0.893731	0.782709	-8.20188	2.12554	41.6837	2.10485	-1.12662	-0.314135
0.0240	39.2447	9.98617	8.507	0.440274	-7.58747	3.03844	32.8343	1.49727	-0.811168	0
0.0247	19.1306	12.7369	11.5523	0.146758	-6.36841	4.26471	22.1482	-0.347192	-0.811168	0
0.0253	38.0153	11.212	10.6586	1.66326	-5.45167	6.70364	13.6032	-1.25857	-0.518246	-0.314135
0.0260	37.4251	4.51471	4.53486	1.36974	-6.67073	3.95133	2.9269	-5.53337	-3.56013	-0.314135
0.0267	-11.1144	-6.18903	-6.75264	-0.440274	-9.42095	-0.0136253	-8.0637	-14.9944	-6.91746	0
0.0273	-62.0637	-17.4608	-18.636	-2.00569	-12.4735	-1.83941	-9.89056	-26.5819	-6.91746	0
0.0280	-142.029	-25.4139	-28.4008	-4.10922	-14.6093	-2.75231	-7.75923	-35.4353	-5.09233	0
0.0287	-225.042	-27.5367	-30.8503	-5.03869	-14.9116	-2.45255	-8.0637	-36.0429	-3.87558	0
0.0293	-252.189	-22.6632	-26.2823	-2.59273	-14.2972	-0.313382	-6.54132	-25.3667	-1.41954	0
0.0300	-250.37	-18.9857	-24.7597	-2.00569	-14.9116	-0.313382	-5.00912	-14.9944	0.0901298	0
0.0307	-195.142	-17.1619	-23.8328	-2.88624	-16.433	-2.45255	-4.40017	-8.26751	-2.02792	0
0.0313	-41.6053	-7.41488	-14.3659	-2.88624	-17.0474	-3.67883	-1.96436	3.32002	-3.26721	0
0.0320	103.325	1.76402	-4.30315	-2.59273	-17.3498	-5.50462	-1.04111	13.0848	-4.1685	-0.314135
0.0327	127.767	1.76402	-1.55575	3.52219	-18.2665	-7.03065	-1.96436	17.9672	-6.60201	-0.942406
0.0333	47.5068	2.95997	0.264809	8.70764	-16.433	-4.89148	-1.34559	26.213	-6.91746	-0.628271
0.0340	-71.8503	8.76032	3.01221	5.62572	-12.1614	-0.626763	2.30812	34.7626	-3.56013	0.314135
0.0347	-99.5872	11.511	6.05751	1.95677	-10.64	-0.626763	1.09022	31.0954	-4.1685	0
0.0353	-14.1635	15.7865	14.0018	1.95677	-8.80654	0.599513	-1.65988	21.0268	-5.38526	0
0.0360	20.9502	22.5137	22.244	1.66326	-4.83726	4.26471	0.481268	21.6344	-0.518246	0
0.0367	17.9011	20.6899	21.6482	0.146758	-4.2326	4.56447	1.69917	23.1534	1.32941	0
0.0373	63.6866	13.3647	16.7492	-0.440274	-5.45167	3.65158	2.6126	10.0469	1.01396	0
0.0380	68.8504	9.3882	15.2265	0.440274	-3.61819	6.0905	6.88508	-4.90409	4.3713	0
0.0387	18.1962	8.46134	16.1534	0.146758	-0.877728	8.22967	15.4301	-8.5713	8.33701	0
0.0393	9.04891	5.11268	13.7039	-3.81571	-0.877728	6.39026	23.6705	-9.17889	9.26084	0
0.0400	31.9171	4.18582	13.075	-6.55519	0.955749	7.91629	28.8663	-10.4158	11.086	0
0.0407	28.868	6.33853	15.5244	-5.03869	4.31062	10.6686	31.6066	-9.17889	14.1278	0
0.0413	-14.1635	-0.0896961	10.6586	-3.81571	2.4869	6.0905	28.2475	-15.6019	12.3027	0
0.0420	-40.7201	-11.3615	0.56272	-3.81571	-2.0968	-0.626763	25.8117	-27.4933	8.33701	0
0.0427	28.5729	-14.1122	-3.07841	-1.07623	-2.39912	-0.92652	25.8117	-28.7084	9.86922	0
0.0433	145.127	-11.0625	-2.48259	0.440274	-1.78471	-0.626763	24.5938	-21.6995	11.4014	0
0.0440	196.42	-10.4646	-3.70733	-0.782709	-3.92052	-2.45255	23.0616	-19.2475	8.65246	-0.314135
0.0447	153.684	-8.31184	-4.60106	0.440274	-3.31586	-0.0136253	-9.89056	-17.4247	9.26084	0
0.0453	71.3093	-5.56116	-4.89897	2.29921	-1.78471	2.73868	-59.638	-17.4247	11.086	0.314135
0.0460	-8.06533	-7.71387	-6.45473	-0.782709	-3.92052	0.899269	-71.542	-25.3667	6.8048	0
0.0467	-70.6208	-9.2387	-4.60106	-3.22868	-6.36841	-0.0136253	-63.606	-27.7971	2.54617	0
0.0473	-76.719	-6.48802	0.56272	-0.782709	-4.2326	3.03844	-56.8879	-17.7285	4.07837	0
0.0480	-21.7862	-2.51149	4.53486	0.146758	-3.01353	3.95133	-49.5706	-7.05234	5.29513	0
0.0487	8.11451	1.43514	7.91118	-1.66326	-3.92052	2.73868	-41.9391	-2.16995	5.29513	0
0.0493	-50.4575	5.71065	10.9565	-2.59273	-2.70145	3.65158	-23.3268	2.71244	7.12026	0.314135
0.0500	-133.766	8.16235	13.406	-3.81571	-2.70145	4.86423	7.50386	7.89862	8.33701	0
0.0507	-139.865	7.56437	12.4791	-5.33221	-5.754	4.86423	41.3793	6.68345	6.51188	-0.314135
0.0513	-24.2452	5.11268	10.0297	-4.74518	-7.8898	6.0905	67.0142	3.01623	5.9035	0
0.0520	107.308	7.86336	13.7039	-1.66326	-7.8898	8.52943	76.4726	3.62382	8.33701	0.314135
0.0527	112.472	7.23549	15.5244	-2.88624	-10.0256	4.26471	59.9916	-3.99271	5.58805	0
0.0533	40.1791	0.837164	10.6586	-5.03869	-11.5568	-0.626763	30.0842	-21.6995	2.83909	-0.314135
0.0540	15.4422	-4.33531	7.28226	-2.59273	-10.9423	1.81216	19.0936	-34.2201	5.9035	0.314135
0.0547	73.129	-8.01286	6.98435	-2.29921	-12.1614	3.03844	17.5712	-36.9543	5.58805	0
0.0553	142.078	-8.93972	8.80491	-5.03869	-13.6926	-0.313382	11.1576	-27.1895	3.15454	-0.314135
0.0560	172.913	-4.33531	12.777	-4.74518	-13.3902	-0.626763	14.2122	-11.9347	5.29513	0
0.0567	208.027	-0.388683	15.2265	-2.88624	-13.6926	1.81216	22.4526	-8.8751	6.51188	0.314135
0.0573	249.189	-3.43835	12.4791	-4.45166	-17.3498	-0.92652	17.8757	-11.9347	1.93779	0
0.0580	211.666	-4.96319	10.9565	-5.03869	-18.8809	-2.75231	6.58061	-9.48268	0.405584	-0.314135
0.0587	99.6855	0.23919	14.6307	-2.59273	-17.0474	0.286131	3.84033	-5.53337	3.44747	0
0.0593	26.114	-0.68767	14.9286	-3.52219	-18.5688	-0.626763	4.44928	-4.90409	1.01396	0
0.0600	3.2458	-7.71387	9.13592	-6.26168	-21.9335	-3.36545	2.30812	-3.68892	-3.56013	0
0.0607	-17.2126	-8.93972	7.28226	-4.74518	-21.6214	-0.92652	2.9269	-0.650985	-1.735	0
0.0613	-21.1961	-9.2387	5.7596	-4.45166	-21.6214	-0.92652	1.69917	-2.77754	-1.735	0
0.0620	-11.9996	-12.5874	0.56272	-8.41413	-22.8502	-3.67883	-3.48674	-5.22958	-5.70071	0.314135
0.0627	-24.8353	-12.5874	-1.85367	-10.2241	-21.6214	-3.36545	-4.70464	-1.25857	-5.38526	0
0.0633	-44.9986	-11.9894	-3.37632	-5.03869	-19.7976	-2.1528	-3.48674	3.62382	-2.95175	-0.628271
0.0640	-30.9335	-12.5874	-5.8258	-2.00569	-17.9642	-0.626763	-2.26884	6.68345	-2.02792	-0.628271
0.0647	-5.90146	-12.2884	-7.05055	-8.41413	-15.8284	0.286131	-1.65988	9.11379	-1.41954	0.314135
0.0653	-4.67199	-10.7635	-6.45473	-11.7406	-15.214	0.899269	-0.127683	11.5658	0.0901298	0
0.0660	-8.3604	-10.1357	-6.12372	-12.6701	-17.0474	0.899269	-0.432159	13.3886	-0.811168	-0.314135
0.0667	6.29489	-6.78701	-2.7805	-14.1866	-17.9642	0.599513	-1.65988	16.4482	-2.02792	0
0.0673	31.0319	2.06301	5.7596	-11.7406	-14.6093	3.95133	1.09022	22.242	1.62234	0
0.0680	42.2938	7.56437	10.6586	-10.2241	-12.4735	6.70364	2.9269	22.5458	4.68675	0
0.0687	50.5559	9.68718	15.8224	-12.3766	-12.7758	4.56447	0.481268	15.2331	2.83909	0
0.0693	49.9165	15.7865	26.514	-10.8601	-10.9423	3.3382	1.3947	8.81	2.83909	0
0.0700	-33.3924	19.4641	31.7109	-7.48466	-7.8898	4.86423	5.97166	5.46827	6.8048	0.314135
0.0707	-136.816	15.7865	26.514	-9.63711	-8.20188	3.03844	4.75375	-1.56236	7.12026	0
0.0713	-157.569	11.8399	18.9008	-11.7406	-7.28514	3.65158	3.53585	-8.26751	6.8048	0
0.0720	-128.603	9.98617	15.2265	-9.29467	-3.31586	7.91629	7.80833	-10.7196	10.4776	0
0.0727	-29.1139	6.63751	11.8833	-8.41413	-2.0968	7.91629	8.72176	-13.7575	11.6943	0.314135
0.0733	39.884	2.362	8.20909	-9.29467	-2.39912	7.0034	8.72176	-18.9437	11.4014	0
0.0740	-38.2611	4.51471	8.80491	-6.84871	0.0390101	10.6686	14.2122	-16.5133	14.4433	0
0.0747	-113.652	6.63751	9.73174	-3.52219	1.57016	11.2817	15.4301	-10.112	13.5195	0
0.0753	-61.7686	2.66099	6.98435	-2.00569	-0.263318	5.79075	9.02624	-14.3651	7.12026	0
0.0760	68.2602	-0.388683	5.16378	1.36974	-1.48239	1.81216	4.75375	-25.6705	2.23071	0
0.0767	157.667	-3.13936	4.86587	4.74518	-0.877728	-0.0136253	2.00365	-35.7391	-0.518246	0.314135
0.0773	147.881	-7.41488	1.48955	6.55519	-0.565647	-1.83941	-0.432159	-37.8656	-2.6363	0
0.0780	88.0793	-10.4646	-4.60106	8.07169	0.0390101	-2.1528	1.69917	-32.3757	-2.6363	0
0.0787	28.868	-10.1357	-7.64637	7.48466	2.17482	0.599513	6.88508	-28.4046	1.93779	0.314135
0.0793	-28.4746	-10.1357	-8.87111	1.66326	1.57016	-0.0136253	6.27613	-24.1515	3.76292	0.314135
0.0800	-69.0963	-11.6605	-11.9495	-3.52219	-1.18006	-2.45255	1.69917	-12.2385	0.721039	0.314135
0.0807	-74.5551	-9.53769	-12.8433	-3.81571	-0.565647	0.286131	2.00365	-0.347192	3.44747	0.314135
0.0813	-69.3914	-7.086	-11.6185	-3.22868	1.26783	3.03844	4.44928	4.86069	8.65246	0.314135
0.0820	-70.9159	-8.61083	-13.4722	-5.03869	1.26783	1.21265	2.9269	4.5352	8.04409	0.314135
0.0827	-60.5392	-9.53769	-15.5906	-5.96816	0.955749	0.286131	1.3947	2.40864	5.9035	0
0.0833	-41.6053	-7.71387	-14.9948	-4.45166	0.65342	0.899269	2.30812	2.40864	4.97967	-0.314135
0.0840	-36.1465	-7.71387	-13.1412	-5.03869	-2.0968	-3.67883	-1.34559	1.49727	1.01396	0
0.0847	18.7863	-4.6642	-8.27529	-4.74518	-3.61819	-5.80437	-5.00912	1.49727	-1.41954	0.628271
0.0853	124.373	3.58785	-0.0331012	-1.07623	-1.78471	-1.83941	-1.96436	7.29103	1.01396	0.314135
0.0860	90.194	6.9365	4.23695	1.07623	-1.48239	-1.53966	-0.432159	9.74308	-0.518246	0
0.0867	-72.4405	6.9365	5.46169	1.66326	-2.39912	-3.67883	-2.87779	7.29103	-4.77688	0
0.0873	-161.257	9.98617	7.91118	4.40274	-0.565647	-0.92652	-1.65988	7.89862	-3.87558	0
0.0880	-196.027	9.68718	5.16378	4.74518	0.351091	-1.2399	-2.26884	11.262	-3.56013	0.314135
0.0887	-279.336	5.11268	-0.0331012	1.66326	-1.18006	-5.20486	-6.54132	12.4772	-8.13422	0.314135
0.0893	-395.644	3.88683	-0.628922	1.36974	-0.565647	-4.59172	-6.23685	12.4772	-8.74259	0
0.0900	-459.724	3.88683	-1.25784	2.59273	0.65342	-2.1528	-3.18226	8.20241	-6.60201	0
0.0907	-315.384	3.28886	-1.55575	2.29921	0.351091	-2.75231	-4.40017	-0.650985	-8.44967	0
0.0913	-59.949	8.16235	3.01221	1.66326	1.26783	-2.45255	-5.3136	-2.77754	-9.66642	0
0.0920	54.1951	13.9627	6.05751	2.29921	4.31062	0.286131	-2.57331	3.92761	-6.30909	0.314135
0.0927	89.8989	9.98617	1.19164	2.29921	4.31062	-0.313382	-2.57331	4.86069	-6.30909	-0.628271
0.0933	111.882	3.58785	-2.15158	2.88624	2.78923	-0.92652	-3.79122	-1.86616	-6.30909	-0.942406
0.0940	119.505	5.71065	1.78746	1.07623	4.31062	1.81216	-0.432159	-3.38512	-1.41954	0
0.0947	191.207	8.16235	3.93904	-2.59273	4.00829	0.599513	-0.127683	-0.0216995	-0.518246	0
0.0953	293.745	6.03954	2.11847	-5.62572	1.57016	-2.75231	-3.18226	3.32002	-2.34338	0
0.0960	312.679	6.63751	1.48955	-5.33221	2.78923	-0.626763	-1.04111	7.29103	0.721039	0
0.0967	231.829	2.362	-4.60106	-4.10922	4.31062	1.81216	2.00365	1.80106	4.07837	0
0.0973	133.57	-9.83668	-16.8154	-6.84871	1.26783	-1.83941	-2.57331	-11.6309	1.32941	0
0.0980	71.6044	-14.1122	-20.7875	-6.84871	0.65342	-1.53966	-5.00912	-19.8767	2.23071	0.314135
0.0987	46.5724	-9.83668	-15.5906	-3.22868	3.40364	1.81216	-1.96436	-20.4843	8.04409	0.314135
0.0993	46.2773	-7.71387	-11.0227	-5.62572	2.78923	0.286131	-4.40017	-19.8767	7.72863	-0.314135
0.1000	52.0804	-4.03633	-4.00524	-8.41413	1.87249	-0.92652	-8.67265	-22.9147	6.19642	-0.314135
0.1007	21.2453	1.43514	4.53486	-5.96816	4.00829	1.21265	-7.15027	-27.4933	10.1621	0.314135
0.1013	-26.3599	1.43514	5.16378	-5.96816	4.31062	0.899269	-7.15027	-27.7971	10.793	0.314135
0.1020	-60.2441	-0.388683	2.11847	-8.41413	3.09155	-0.92652	-8.97713	-23.8261	9.55376	0
0.1027	-116.996	-1.91352	-1.55575	-8.07169	4.6227	0.599513	-5.93237	-20.7881	12.6182	0
0.1033	-174.044	-6.78701	-6.75264	-9.29467	4.92503	1.21265	-4.70464	-21.3957	12.9111	0.314135
0.1040	-200.305	-13.8132	-11.6185	-12.6701	3.40364	-1.2399	-6.54132	-20.7881	9.55376	0
0.1047	-180.191	-13.1853	-9.50003	-11.4471	5.22736	0.599513	-3.79122	-12.5423	9.55376	0.314135
0.1053	-56.5557	-3.73734	0.264809	-5.33221	8.89431	4.56447	1.3947	-2.16995	10.1621	0.314135
0.1060	54.4902	1.76402	6.05751	-2.59273	7.97757	1.81216	1.09022	1.49727	5.29513	0
0.1067	14.852	2.66099	5.46169	-0.440274	6.44643	-1.53966	-0.736635	0.88968	0.721039	0
0.1073	-41.6053	2.95997	4.53486	4.40274	6.44643	-0.626763	0.785744	0.282094	0.405584	0
0.1080	-54.441	-0.986658	1.19164	5.62572	4.6227	-2.45255	0.176792	-2.16995	-1.41954	0
0.1087	-79.178	-8.01286	-3.70733	3.52219	2.4869	-5.80437	-2.26884	-3.99271	-5.70071	0.314135
0.1093	-77.6534	-8.31184	-3.70733	4.10922	2.4869	-5.20486	-1.04111	-1.86616	-5.99363	0.314135
0.1100	-67.8668	-4.33531	0.264809	5.96816	2.4869	-4.59172	2.00365	-0.650985	-4.1685	0
0.1107	-80.3582	-2.81048	3.64113	5.03869	2.17482	-4.59172	2.00365	-1.25857	-3.87558	0
0.1113	-72.1454	-0.388683	7.28226	3.52219	3.40364	-2.1528	1.3947	-0.347192	-2.02792	0
0.1120	-15.6881	1.76402	9.13592	1.66326	4.31062	-1.53966	-0.127683	1.19347	-0.811168	0.314135
0.1127	62.1621	-0.388683	6.38852	-2.88624	3.09155	-4.27834	-3.48674	1.80106	-2.34338	0.314135
0.1133	177.486	-0.68767	5.16378	-4.74518	3.70596	-3.67883	-3.48674	3.32002	-1.735	0
0.1140	284.598	2.362	6.68644	-2.59273	7.36316	0.286131	1.3947	3.92761	3.15454	0
0.1147	289.811	-2.51149	0.893731	-3.52219	7.97757	1.21265	2.9269	-4.60029	4.3713	0.314135
0.1153	261.435	-9.2387	-6.12372	-4.74518	7.36316	1.51241	1.3947	-15.2982	3.76292	0.314135
0.1160	253.173	-7.71387	-2.7805	-4.10922	7.97757	2.4253	0.481268	-16.5133	3.76292	0
0.1167	217.174	-4.03633	3.31012	-6.84871	7.36316	0.599513	-1.34559	-13.7575	1.62234	0
0.1173	146.061	-2.81048	6.68644	-10.2241	7.36316	0.599513	-1.04111	-9.80818	0.405584	0
0.1180	89.3088	0.538177	10.3607	-9.29467	10.1134	3.95133	2.30812	-3.99271	3.44747	0
0.1187	85.9646	3.28886	11.8833	-8.07169	12.5515	6.0905	4.44928	-1.25857	6.8048	0.314135
0.1193	101.21	-0.0896961	9.13592	-9.29467	11.9469	5.47737	3.84033	-2.47374	8.04409	0.314135
0.1200	60.6375	-4.6642	4.53486	-11.1536	10.7278	4.56447	3.23137	-5.83717	8.94538	-0.314135
0.1207	-27.2943	-9.2387	-1.25784	-12.3766	10.1134	3.95133	2.30812	-12.2385	8.94538	0
0.1213	-87.3908	-13.8132	-5.8258	-12.9636	9.49897	3.65158	1.09022	-18.6399	8.94538	0.314135
0.1220	-120.98	-14.7401	-4.89897	-13.5996	9.81105	3.95133	0.176792	-16.2095	9.55376	0.314135
0.1227	-158.799	-9.83668	-0.0331012	-11.7406	11.0301	4.56447	1.09022	-7.05234	9.86922	-0.628271
0.1233	-192.093	-4.6642	4.53486	-8.70764	11.3324	5.47737	2.6126	-1.56236	9.86922	-0.628271
0.1240	-189.929	-3.13936	5.16378	-9.63711	11.0301	5.79075	2.30812	1.49727	9.55376	0.314135
0.1247	-169.175	-3.73734	3.64113	-12.0831	10.1134	4.26471	1.09022	4.5352	8.65246	0.314135
0.1253	-173.749	-3.73734	3.64113	-12.3766	8.89431	2.73868	0.176792	5.77207	7.72863	0.314135
0.1260	-134.406	-2.51149	4.23695	-12.3766	7.67525	1.81216	-1.96436	6.37965	7.12026	0
0.1267	-60.5392	-1.61453	4.23695	-11.7406	7.06084	1.51241	-2.57331	6.98724	7.72863	0
0.1273	-11.1144	1.13615	7.61327	-10.2241	9.19664	3.95133	0.481268	6.37965	10.793	0
0.1280	56.654	3.58785	10.6586	-9.63711	9.49897	4.86423	1.09022	5.46827	12.0098	-0.314135
0.1287	70.67	2.362	8.507	-10.5177	6.75851	2.73868	-1.34559	6.07586	9.26084	0
0.1293	24.5894	-0.68767	6.05751	-10.8601	5.84177	1.51241	-2.26884	5.46827	6.19642	0
0.1300	6.58997	-3.43835	4.86587	-11.7406	4.6227	0.899269	-3.48674	1.80106	4.3713	0
0.1307	29.8024	-4.33531	2.7143	-12.6701	3.40364	-0.0136253	-3.79122	-1.25857	3.76292	0
0.1313	154.323	-1.28564	3.64113	-10.5177	4.6227	1.21265	-1.65988	-0.650985	5.29513	0
0.1320	266.008	1.76402	4.53486	-7.77818	5.84177	3.3382	0.785744	3.01623	7.43571	0
0.1327	209.551	-0.388683	1.48955	-9.29467	4.31062	1.21265	-1.65988	4.86069	4.3713	0
0.1333	152.799	-1.28564	0.893731	-10.5177	1.87249	-2.1528	-5.61807	4.2314	0.0901298	0
0.1340	150.045	1.76402	4.23695	-8.07169	0.351091	-2.75231	-6.54132	5.77207	0.0901298	0.314135
0.1347	71.8995	2.362	6.38852	-7.48466	-0.877728	-4.27834	-8.0637	6.07586	-1.735	0
0.1353	4.77035	4.18582	9.43383	-6.55519	-0.877728	-4.59172	-8.0637	4.86069	-2.6363	0
0.1360	25.5238	9.08921	15.2265	-2.59273	0.955749	-1.83941	-3.48674	6.68345	1.01396	0
0.1367	35.2612	9.98617	16.4513	-3.22868	0.0390101	-3.67883	-2.87779	8.81	0.721039	0
0.1373	9.34398	10.614	17.0471	-5.03869	-1.18006	-5.80437	-5.00912	10.3507	-1.41954	0.314135
0.1380	-19.0322	13.6637	19.7945	-4.10922	0.0390101	-3.97858	-3.18226	13.0848	0.721039	0
0.1387	-37.671	10.614	14.6307	-5.62572	-0.877728	-4.27834	-2.87779	10.3507	1.62234	0.314135
0.1393	-12.639	2.95997	5.16378	-7.77818	-2.0968	-4.89148	-4.09569	3.01623	0.721039	0.314135
0.1400	37.7202	1.43514	2.41638	-6.55519	0.0390101	-2.1528	-1.96436	-2.47374	2.54617	0
0.1407	41.4086	-0.0896961	0.56272	-6.26168	0.65342	-1.2399	-1.34559	-7.96372	3.44747	0
0.1413	13.6225	-3.43835	-3.07841	-6.84871	-0.263318	-2.45255	-4.40017	-11.0233	1.62234	-0.314135
0.1420	13.9176	-3.13936	-3.70733	-5.96816	-0.263318	-1.53966	-6.23685	-6.14096	0.721039	-0.314135
0.1427	24.2944	-3.13936	-4.30315	-6.26168	-0.877728	-2.75231	-8.0637	-1.56236	-2.02792	0.314135
0.1433	9.93413	-4.96319	-5.8258	-7.48466	-2.0968	-5.20486	-11.1183	-1.56236	-3.56013	0.314135
0.1440	-17.2126	-2.51149	-4.00524	-6.26168	-0.565647	-3.36545	-9.2816	-0.650985	-1.12662	0.314135
0.1447	-39.1955	-0.0896961	-2.48259	-4.45166	1.26783	-1.2399	-5.61807	-0.0216995	1.32941	0.314135
0.1453	-45.2937	-3.43835	-6.45473	-5.03869	0.351091	-2.45255	-5.93237	-1.86616	0.721039	0.314135
0.1460	-42.2446	-7.41488	-10.0959	-6.55519	-1.48239	-3.36545	-7.75923	-3.99271	-1.41954	0
0.1467	-45.8839	-7.41488	-9.79794	-6.84871	-2.0968	-3.36545	-8.0637	-5.53337	-2.95175	0
0.1473	-44.6544	-5.26217	-8.5732	-7.19114	-1.48239	-2.1528	-6.8458	-3.99271	-1.41954	0.314135
0.1480	-32.458	-2.81048	-8.27529	-6.84871	-0.263318	-0.92652	-4.40017	3.32002	1.01396	0.314135
0.1487	-6.19654	2.06301	-4.30315	-6.26168	1.57016	0.286131	-0.432159	13.0848	3.76292	0.314135
0.1493	33.7367	7.56437	1.48955	-7.77818	2.78923	1.21265	4.1448	18.5748	6.19642	0.314135
0.1500	22.4747	10.2852	5.7596	-11.7406	1.87249	0.599513	5.66718	18.271	6.51188	0.314135
0.1507	-41.0152	16.4144	12.1812	-12.9636	2.17482	3.3382	8.11281	17.9672	8.65246	0
0.1513	-63.8833	19.4641	15.5244	-14.4801	3.70596	5.79075	9.02624	13.6924	9.55376	0
0.1520	-48.933	15.7865	11.5523	-15.4096	4.31062	6.39026	6.88508	7.59483	8.65246	0
0.1527	-58.4245	11.511	5.7596	-13.5996	4.31062	7.31678	6.88508	4.86069	9.26084	0
0.1533	-71.8503	7.86336	0.893731	-12.0831	2.17482	5.47737	3.53585	1.80106	7.12026	0
0.1540	-24.8353	3.88683	-2.7805	-12.3766	0.0390101	2.73868	-1.04111	-3.68892	3.76292	0
0.1547	43.5233	-0.0896961	-6.45473	-12.3766	-0.877728	1.21265	-2.57331	-14.0613	2.83909	0
0.1553	81.391	-1.28564	-8.87111	-9.29467	-2.0968	-0.626763	-5.3136	-22.3071	3.76292	-0.942406
0.1560	115.57	1.43514	-5.8258	-7.19114	-3.01353	-2.75231	-8.36818	-16.5133	2.54617	-0.314135
0.1567	114.341	4.51471	-0.628922	-8.07169	-3.31586	-3.67883	-8.67265	-3.08133	-1.41954	0.628271
0.1573	63.0473	7.56437	1.48955	-6.84871	-2.0968	-1.2399	-5.3136	6.07586	-1.735	0.314135
0.1580	16.9667	6.33853	-3.07841	-6.55519	-1.78471	-0.313382	-2.57331	6.68345	1.01396	0
0.1587	2.01633	1.43514	-9.20212	-9.00116	-2.39912	-1.2399	-2.87779	0.585887	1.32941	0
0.1593	13.6225	0.837164	-11.0227	-9.93063	-2.70145	-0.313382	-2.57331	-4.60029	-5.38526	0
0.1600	31.9171	0.837164	-11.0227	-10.8601	-3.31586	-1.2399	-4.09569	-9.80818	-9.95934	0.314135
0.1607	58.1786	0.837164	-10.0959	-9.29467	-3.61819	-3.06569	-6.23685	-12.8461	-2.6363	0.314135
0.1613	87.1449	3.28886	-7.97738	-5.03869	-3.01353	-3.06569	-4.09569	-9.80818	-1.735	0
0.1620	81.391	4.18582	-7.34846	-3.52219	-2.39912	-2.45255	2.6126	-3.38512	-6.60201	-0.314135
0.1627	40.4742	2.95997	-7.34846	-5.62572	-2.0968	-2.1528	8.41729	-0.347192	-0.202792	0
0.1633	8.75384	1.43514	-7.34846	-8.41413	-2.0968	-1.53966	10.8531	-0.650985	10.1621	0.314135
0.1640	-2.5573	1.13615	-7.97738	-9.63711	-0.877728	-0.313382	11.1576	0.282094	15.0517	0
0.1647	-15.9831	4.51471	-5.52789	-6.84871	1.26783	0.286131	9.33071	3.01623	16.2684	0
0.1653	-24.5402	9.98617	-1.25784	-1.66326	2.17482	0.286131	5.97166	6.68345	14.7588	0
0.1660	-20.5568	10.2852	-0.959934	0.782709	1.87249	-0.313382	4.1448	6.68345	12.0098	0.314135
0.1667	-46.5232	4.51471	-6.45473	-2.00569	0.0390101	-2.1528	1.69917	-0.0216995	10.4776	0.314135
0.1673	-92.2595	-0.68767	-12.2474	-5.96816	-2.0968	-2.75231	-1.04111	-6.14096	9.55376	-0.314135
0.1680	-97.1774	-3.43835	-14.6638	-7.77818	-2.70145	-1.83941	-1.34559	-4.60029	10.793	0
0.1687	-85.8663	-4.6642	-15.5906	-9.00116	-2.70145	-1.2399	0.176792	-1.25857	4.97967	0.314135
0.1693	-101.751	-4.33531	-15.5906	-9.29467	-2.70145	-0.0136253	0.481268	0.88968	-11.4916	0.314135
0.1700	-118.521	-1.61453	-13.4722	-6.26168	-0.263318	1.51241	0.481268	3.62382	-21.2706	0
0.1707	-125.849	0.538177	-10.7248	-3.22868	1.57016	0.599513	-0.127683	5.77207	-37.1335	0.314135
0.1713	-142.029	0.837164	-8.87111	-2.29921	0.65342	-0.92652	-3.18226	7.29103	-59.711	0
0.1720	-166.126	3.58785	-5.8258	-3.52219	0.351091	-0.92652	-4.40017	10.0469	-60.3194	0
0.1727	-184.126	8.16235	-2.15158	-7.77818	0.65342	-0.626763	-3.79122	10.9582	-54.8215	0.314135
0.1733	-124.914	12.1389	1.78746	-12.9636	0.65342	0.286131	-3.48674	12.1734	-51.1712	0.314135
0.1740	-37.671	15.4875	3.93904	-16.9261	1.57016	1.21265	-2.87779	13.9962	7.72863	0
0.1747	-48.3428	13.9627	0.264809	-18.4915	0.955749	-0.0136253	-2.87779	12.4772	74.267	-0.314135
0.1753	-61.1293	6.63751	-7.97738	-16.6326	-1.78471	-3.06569	-4.40017	5.77207	49.8418	0
0.1760	-46.5232	1.13615	-12.8433	-12.3766	-3.61819	-4.89148	-5.3136	-1.56236	16.5839	0.314135
0.1767	-67.2767	-0.68767	-13.4722	-8.07169	-3.92052	-5.80437	-5.3136	-5.83717	19.0174	0
0.1773	-28.8188	-0.986658	-12.2474	-2.00569	-3.31586	-6.11775	-4.09569	-5.53337	12.0098	0
0.1780	77.1124	2.362	-8.27529	1.95677	-1.48239	-3.36545	0.176792	0.282094	47.0928	0.314135
0.1787	117.095	6.63751	-4.60106	3.52219	-0.565647	-0.92652	2.30812	4.86069	105.091	0.314135
0.1793	79.2271	5.11268	-4.30315	8.36521	-1.78471	-2.45255	-1.65988	0.282094	73.0277	0.314135
0.1800	40.4742	3.88683	-3.37632	14.7736	-3.61819	-4.59172	-5.61807	-7.05234	-17.5978	0
0.1807	17.9011	7.56437	-0.0331012	17.562	-3.61819	-3.97858	-4.40017	-5.83717	-36.5251	0
0.1813	13.3275	9.3882	-0.331012	16.3391	-4.2326	-3.06569	-2.57331	0.88968	8.65246	0.314135
0.1820	41.9987	8.16235	-2.7805	26.71	-4.83726	-3.67883	-1.34559	3.01623	1.93779	0
0.1827	87.7843	8.16235	-4.60106	48.6747	-4.2326	-4.27834	-0.127683	0.88968	-45.6733	-0.942406
0.1833	105.489	5.11268	-7.05055	49.2618	-3.61819	-4.89148	-0.432159	-4.90409	-51.4641	-0.628271
0.1840	83.8008	0.23919	-9.50003	28.8135	-4.2326	-5.20486	-1.04111	-11.3271	-45.0649	0.628271
0.1847	45.638	-0.68767	-9.20212	38.3038	-4.2326	-4.59172	-0.736635	-10.7196	4.97967	0.628271
0.1853	16.3766	1.76402	-6.75264	88.3483	-3.61819	-3.67883	0.176792	-4.2965	81.59	0.314135
0.1860	16.6716	4.51471	-4.60106	138.686	-2.39912	-2.1528	1.3947	0.585887	-36.818	0
0.1867	30.3925	6.9365	-3.07841	162.217	-1.48239	-0.0136253	3.23137	3.01623	-237.334	0
0.1873	32.8515	7.23549	-2.7805	170.141	-2.39912	-0.313382	2.6126	3.32002	-260.205	0.314135
0.1880	19.1306	3.88683	-5.22998	197.292	-6.36841	-3.97858	-1.96436	0.282094	-244.95	0
0.1887	-16.5733	3.88683	-5.52789	239.411	-8.20188	-4.27834	-4.70464	-0.650985	-255.022	-0.314135
0.1893	-60.5392	7.56437	-2.48259	197.292	-6.67073	-2.75231	-4.09569	1.19347	-11.807	0
0.1900	-86.4564	9.08921	-0.331012	75.5315	-6.67073	-3.97858	-4.09569	0.585887	329.379	0.314135
0.1907	-70.3258	10.614	1.19164	60.2686	-5.45167	-4.27834	-4.09569	-0.954778	306.194	0.314135
0.1913	-18.4421	11.511	1.19164	130.468	-3.01353	-3.06569	-3.18226	-0.347192	78.8411	0
0.1920	0.196715	7.23549	-2.48259	86.4894	-3.92052	-5.50462	-5.61807	-0.0216995	-27.6699	0
0.1927	-24.2452	3.88683	-5.22998	-49.3107	-4.2326	-7.03065	-6.54132	-0.0216995	-13.0238	0
0.1933	-32.7531	5.41167	-4.00524	-153.656	-1.18006	-3.06569	-1.65988	1.19347	36.4124	0
0.1940	-7.13093	6.9365	-2.15158	-242.787	0.0390101	-0.626763	1.69917	0.585887	25.7321	0
0.1947	48.392	7.86336	-0.628922	-317.829	-1.48239	-0.626763	3.23137	-0.347192	24.1999	0
0.1953	97.2266	9.68718	0.264809	-306.578	-1.48239	0.599513	5.36271	0.88968	113.631	0
0.1960	90.5383	6.33853	-2.7805	-234.519	-3.31586	-2.75231	1.69917	-0.0216995	109.958	0
0.1967	55.1295	3.58785	-4.30315	-157.031	-6.05632	-6.73089	-3.18226	-0.0216995	2.23071	0.314135
0.1973	39.5398	8.16235	-0.628922	-81.3529	-6.05632	-5.20486	-1.04111	3.01623	23.9069	0.314135
0.1980	37.4251	9.68718	1.19164	-30.3789	-6.67073	-3.36545	0.481268	3.01623	123.703	0
0.1987	33.1465	8.16235	-0.0331012	-0.146758	-6.97306	-4.59172	-1.65988	2.40864	133.167	0
0.1993	34.6711	9.08921	0.264809	31.2595	-5.754	-6.73089	-3.18226	4.2314	52.2753	0
0.2000	32.2122	8.76032	-0.0331012	39.2333	-5.754	-9.16982	-3.79122	4.86069	12.0098	0
0.2007	20.6551	6.03954	-1.85367	39.2333	-6.05632	-10.3825	-5.00912	4.86069	77.3088	0.314135
0.2013	18.7863	6.63751	-1.25784	70.933	-2.70145	-8.85644	-3.79122	6.37965	85.5557	0.314135
0.2020	21.2453	7.86336	-0.959934	61.1981	0.955749	-6.11775	-1.96436	7.29103	-44.7495	0
0.2027	17.9011	4.81369	-4.60106	7.48466	1.57016	-6.73089	-3.48674	5.16448	-222.373	0.314135
0.2033	26.7533	4.18582	-6.12372	-10.2241	0.65342	-5.50462	-2.57331	4.5352	-269.668	0.314135
0.2040	44.7528	6.9365	-4.00524	11.4471	0.0390101	-1.2399	1.3947	6.98724	-174.469	0
0.2047	59.4081	5.71065	-4.60106	25.7805	-3.01353	-0.92652	0.176792	6.07586	-141.797	0
0.2053	71.0143	3.28886	-6.75264	-82.2334	-4.83726	-0.0136253	-1.34559	3.32002	-61.5361	0
0.2060	57.8835	3.58785	-7.05055	-205.853	-3.92052	1.51241	-0.432159	1.80106	190.827	0
0.2067	21.2453	3.28886	-7.05055	-149.987	-5.754	-2.1528	-2.57331	0.585887	332.444	0.314135
0.2073	-14.7537	5.71065	-3.37632	-40.7498	-7.28514	-2.1528	-3.79122	-0.0216995	226.541	0.314135
0.2080	-51.687	10.913	2.11847	25.487	-5.754	3.95133	-1.34559	-1.25857	71.2026	0.314135
0.2087	-77.0141	11.212	3.01221	90.1583	-3.01353	7.0034	-1.04111	-0.650985	6.19642	-0.314135
0.2093	-82.8172	12.1389	5.16378	94.4632	2.4869	7.31678	-1.34559	1.80106	6.19642	-0.942406
0.2100	-82.8172	17.0124	9.43383	8.36521	7.67525	7.61654	-0.432159	3.92761	32.7622	0
0.2107	-52.6214	14.8896	6.38852	-59.0456	7.67525	6.70364	0.176792	4.2314	30.3062	0.628271
0.2113	18.1962	8.76032	-0.628922	-58.4586	5.53944	7.31678	1.09022	6.07586	-17.5978	0
0.2120	103.03	6.03954	-5.22998	-24.264	5.84177	8.52943	2.6126	8.50621	-64.8935	0
0.2127	134.16	4.51471	-5.8258	31.8954	4.92503	6.0905	0.785744	6.98724	-109.756	0
0.2133	57.8835	3.28886	-4.89897	50.8272	1.26783	-0.0136253	-2.87779	2.40864	-100.607	0.314135
0.2140	-34.6219	3.88683	-3.70733	-14.8226	0.65342	-3.36545	-3.18226	-1.86616	-56.6691	0
0.2147	-47.7035	5.11268	-2.15158	-136.583	4.92503	-2.45255	-2.26884	-3.99271	-89.927	-0.942406
0.2153	-16.5733	7.23549	1.19164	-214.413	7.97757	-0.92652	-1.34559	-1.56236	-116.786	-0.628271
0.2160	9.63906	10.2852	4.53486	-181.735	7.06084	-1.53966	-0.432159	-0.650985	68.1607	0.314135
0.2167	25.5238	9.98617	4.53486	-125.282	3.40364	-4.89148	-1.04111	-0.954778	309.235	0.314135
0.2173	28.868	9.68718	5.46169	-95.6862	-0.877728	-6.73089	-0.736635	3.01623	247.902	0
0.2180	18.7863	13.0358	9.43383	-66.3835	-2.0968	-3.06569	1.69917	8.50621	-3.26721	0.314135
0.2187	5.06542	13.0358	10.0297	-50.1912	-1.48239	-0.313382	2.30812	10.0469	-109.147	0.314135
0.2193	-5.01624	8.16235	6.05751	-48.6747	-3.01353	-3.36545	-1.04111	7.59483	17.4852	0
0.2200	-10.8193	5.71065	3.64113	-35.5644	-4.83726	-6.11775	-1.96436	4.2314	80.9816	0
0.2207	-23.9009	7.23549	3.31012	-16.0455	-4.2326	-5.80437	0.176792	2.10485	-78.9312	0.314135
0.2213	-48.3428	7.56437	0.893731	-11.7406	-3.31586	-4.89148	0.176792	1.80106	-113.113	0
0.2220	-60.2441	8.46134	0.264809	-16.9261	2.17482	-1.2399	1.09022	2.10485	-12.0999	0
0.2227	-51.0968	8.76032	0.893731	-5.03869	7.67525	1.51241	2.00365	-2.16995	-36.2097	0
0.2233	-50.4575	3.88683	-3.07841	13.5996	3.70596	-1.83941	-2.87779	-8.8751	-92.9689	0.314135
0.2240	-51.0968	1.13615	-5.22998	10.2241	-1.18006	-3.97858	-5.61807	-8.26751	-34.9929	0
0.2247	-29.9991	5.11268	-3.07841	2.29921	0.351091	-3.97858	-1.96436	-3.99271	49.2334	0
0.2253	-11.9996	6.9365	-2.15158	7.19114	-0.565647	-11.9085	-1.04111	-3.08133	-0.518246	0
0.2260	-26.95	5.71065	-4.00524	23.628	-2.39912	-19.2389	-3.48674	-0.650985	-33.4607	0.314135
0.2267	-80.9976	6.63751	-4.60106	47.1582	9.49897	-18.9391	-4.40017	2.10485	90.4227	0.314135
0.2273	-132.881	7.23549	-4.30315	59.6816	25.9808	-18.326	-4.40017	0.88968	129.201	0
0.2280	-138.684	6.9365	-3.70733	74.8955	33.0026	-14.9606	-4.09569	0.282094	31.8384	0
0.2287	-109.669	7.56437	-3.70733	116.722	32.3882	-4.27834	-2.57331	-0.954778	-9.35097	0
0.2293	-45.2937	8.16235	-2.7805	146.954	28.4189	3.03844	-2.26884	-3.38512	31.23	0
0.2300	44.4577	9.68718	-0.331012	150.916	23.2403	8.22967	-3.18226	-2.16995	90.4227	0
0.2307	100.571	10.2852	2.41638	147.247	14.6873	14.3338	-4.40017	-0.347192	65.0963	0
0.2313	107.013	11.511	6.38852	50.4848	4.6227	20.1245	-5.61807	0.88968	-52.9963	0
0.2320	98.7511	15.4875	11.8833	-115.205	-2.70145	24.7026	-5.00912	5.77207	-165.906	0
0.2327	136.275	15.4875	11.5523	-160.994	-9.10887	24.7026	-5.3136	8.20241	-329.492	0
0.2333	212.305	12.7369	7.28226	-97.7898	-12.1614	24.7026	-5.00912	5.77207	-512.906	0.314135
0.2340	218.698	13.0358	5.46169	-48.6747	-13.3902	27.455	-2.26884	5.16448	-482.69	0.314135
0.2347	152.454	12.4379	3.93904	-16.3391	-16.1307	25.6292	-0.736635	6.37965	-112.82	0
0.2353	85.9646	9.68718	0.56272	9.93063	-18.8809	21.6506	0.176792	4.5352	337.919	0.314135
0.2360	50.5559	6.03954	-2.15158	27.0035	-21.0167	16.7727	0.481268	-3.08133	419.712	0.314135
0.2367	46.8674	3.58785	-4.30315	43.7828	-20.7144	11.5815	0.481268	-12.2385	288.798	0.314135
0.2373	46.8674	3.58785	-5.8258	54.4472	-15.8284	8.84281	0.785744	-16.2095	291.547	0
0.2380	29.5073	3.28886	-6.45473	58.1162	-12.1614	6.70364	0.481268	-14.6906	199.074	0
0.2387	2.95073	3.58785	-4.89897	54.1537	-12.7758	6.0905	-0.432159	-10.4158	-0.202792	0
0.2393	-19.9666	3.88683	-2.48259	23.041	-13.9949	3.03844	0.481268	-6.44475	9.26084	0.314135
0.2400	-47.7035	3.28886	-1.85367	-14.4801	-12.4735	-8.25692	0.785744	-3.08133	73.6586	0
0.2407	-71.5061	6.03954	-0.0331012	-12.0831	-9.42095	-17.4131	1.3947	-0.347192	-2.02792	0
0.2413	-61.1293	9.68718	2.7143	9.93063	-10.3377	-20.1518	2.6126	-1.86616	-103.041	0
0.2420	-36.4415	9.68718	2.7143	-8.07169	-13.0782	-22.9041	1.3947	-7.96372	-196.438	-0.314135
0.2427	-51.687	8.76032	3.01221	-75.5315	-13.3902	-28.0953	-2.57331	-5.83717	-219.331	-0.942406
0.2433	-29.9991	8.16235	2.41638	-111.83	-9.42095	-29.6077	-5.93237	7.59483	4.3713	-0.314135
0.2440	51.4411	8.16235	1.48955	-73.379	-3.01353	-23.5172	-5.3136	6.07586	246.685	0.314135
0.2447	70.3749	10.2852	3.01221	-19.3721	3.40364	-15.5737	-1.04111	-7.35613	135.285	0
0.2453	52.9656	9.3882	2.7143	15.1161	5.84177	-12.835	1.69917	-4.60029	-115.254	0
0.2460	12.9832	4.18582	-1.85367	28.8135	2.17482	-12.835	-0.127683	3.62382	-201.305	0
0.2467	-67.8668	2.66099	-5.22998	32.8249	-2.0968	-11.9085	-2.26884	6.98724	-191.548	0
0.2473	-131.652	2.06301	-6.12372	61.4916	-6.67073	-13.7479	-5.3136	7.59483	-176.294	0
0.2480	-175.273	2.66099	-5.22998	121.907	-8.80654	-15.5737	-9.58608	8.50621	-157.367	-0.314135
0.2487	-138.34	7.86336	-0.331012	173.81	-3.92052	-8.25692	-7.15027	12.4772	-106.105	0
0.2493	20.0158	9.68718	1.48955	178.653	-4.53493	-4.59172	-4.70464	10.0469	-0.518246	0
0.2500	128.996	5.41167	-1.85367	149.693	-8.50421	-10.6959	-5.93237	2.40864	45.2677	0
0.2507	98.161	2.95997	-4.30315	121.613	-0.877728	-16.8	-1.34559	-0.954778	-2.02792	0
0.2513	41.9987	0.837164	-7.64637	100.529	5.53944	-21.6778	5.66718	-4.90409	5.58805	0
0.2520	34.0809	-0.388683	-10.7248	97.2027	10.7278	-16.8	7.50386	-7.65992	44.9522	0
0.2527	68.2602	2.95997	-6.75264	118.58	19.271	-1.53966	9.02624	-0.650985	61.7389	0.314135
0.2533	75.5879	5.41167	-1.85367	143.285	13.7706	5.17761	10.8531	6.68345	136.817	0.314135
0.2540	9.34398	4.51471	0.264809	156.395	-1.18006	2.4253	10.2441	4.86069	240.264	0
0.2547	-63.2932	7.23549	4.86587	106.938	-9.10887	-0.0136253	7.19938	1.49727	249.434	0
0.2553	-85.8663	12.7369	10.3607	-7.19114	-12.4735	0.599513	4.75375	3.62382	103.559	0
0.2560	-51.3919	13.3647	10.0297	-59.0456	-13.9949	4.26471	4.44928	3.62382	-146.393	0
0.2567	38.6546	10.913	5.7596	-24.8999	-13.0782	10.0555	6.27613	1.19347	-326.428	0
0.2573	108.538	10.2852	3.64113	50.8272	-12.7758	17.0725	11.4719	2.10485	-333.142	0.314135
0.2580	77.1124	8.46134	2.11847	167.696	-12.7758	19.8248	14.8211	-6.14096	-280.664	0.314135
0.2587	7.22929	2.66099	-3.70733	239.411	-13.6926	13.7207	12.6898	-16.5133	-190.94	0
0.2593	-8.65548	0.538177	-7.64637	217.446	-16.1307	4.56447	11.4719	-9.48268	-29.495	0
0.2600	17.9011	3.58785	-5.8258	132.571	-13.6926	0.599513	15.4301	-9.17889	45.2677	0
0.2607	52.6706	5.11268	-4.30315	60.2686	0.65342	-1.53966	18.4846	-21.3957	-45.0649	0
0.2613	91.7186	5.41167	-4.30315	130.761	37.8886	-2.45255	17.8757	-18.0323	-99.0752	0
0.2620	104.259	6.03954	-3.37632	273.263	74.8117	1.51241	15.4301	-5.83717	37.6292	0
0.2627	63.0473	4.81369	-5.52789	347.132	71.4568	0.899269	8.72176	-2.47374	177.105	0.314135
0.2633	8.40958	2.66099	-8.5732	377.021	48.5676	-7.64379	-1.96436	-2.16995	109.958	0
0.2640	-25.4255	2.06301	-8.5732	301.686	30.8668	-15.8871	-11.1183	-0.347192	-123.185	0
0.2647	-44.3593	3.28886	-6.12372	83.1629	14.6873	-19.852	-15.6952	7.29103	-267.235	0
0.2653	-55.3754	3.88683	-3.07841	-77.6839	5.84177	-26.2559	-16.6087	18.271	-178.119	-0.314135
0.2660	-60.5392	4.51471	-0.0331012	-73.7215	2.4869	-37.851	-16.9131	17.3596	-25.2363	0
0.2667	-54.7361	7.86336	2.41638	3.81571	-3.01353	-39.3771	-15.6952	6.98724	91.0536	0.314135
0.2673	-35.2121	9.08921	2.7143	81.6464	-12.1614	-28.0953	-13.5541	-0.347192	187.177	0.314135
0.2680	0.786862	8.46134	2.7143	106.351	-28.3409	-18.6258	-13.2496	-5.83717	218.61	0.314135
0.2687	59.4081	8.76032	1.48955	-19.3721	-44.2082	-15.2739	-16.3042	-17.7285	212.504	0
0.2693	103.03	8.46134	-0.959934	-277.568	-48.1775	-10.3825	-19.0543	-28.1009	198.466	0.314135
0.2700	93.8824	6.9365	-3.07841	-355.986	-44.5106	-3.06569	-18.7498	-23.2185	145.965	0.314135
0.2707	59.9982	6.03954	-2.15158	-129.538	-40.8534	2.12554	-14.4773	-12.2385	60.2292	0
0.2713	30.3925	8.16235	0.893731	48.6747	-31.6957	7.31678	-6.23685	-3.38512	-22.1719	0
0.2720	0.491789	7.56437	0.56272	10.8112	-10.3377	19.8248	-1.65988	4.86069	-38.0573	0
0.2727	-15.0487	3.88683	-0.959934	-84.3859	5.84177	36.9109	-3.48674	3.01623	-18.5217	-0.942406
0.2733	-6.54079	1.43514	-1.25784	-83.1629	6.44643	44.5411	-2.26884	-4.2965	-22.1719	-0.942406
0.2740	2.31141	0.23919	-2.15158	57.2356	6.1441	40.8759	2.6126	-10.7196	-11.1986	0.314135
0.2747	-0.44261	-0.0896961	-2.48259	210.402	3.40364	38.7503	5.66718	-18.6399	4.3713	0.314135
0.2753	-8.95055	1.43514	-0.959934	267.491	-7.58747	38.1372	8.72176	-22.3071	-37.7419	0
0.2760	-16.2782	2.95997	-0.628922	202.771	-23.7572	33.5591	9.02624	-21.3957	-92.676	0.314135
0.2767	-18.7371	1.13615	-3.07841	65.4541	-36.2697	28.0681	5.66718	-23.8261	-110.071	0
0.2773	-20.2617	-0.388683	-3.37632	-74.015	-34.1339	28.981	5.05823	-22.6109	-121.044	-0.314135
0.2780	-23.6059	0.23919	-0.331012	-218.963	-24.986	30.507	9.93967	-13.7575	-145.47	0
0.2787	-31.8679	1.13615	1.48955	-308.388	-18.5688	22.8769	12.6898	-7.35613	-201.936	0.314135
0.2793	-44.3593	1.13615	-0.0331012	-294.641	-17.9642	15.2467	13.9077	-1.25857	-219.939	0
0.2800	-52.9164	-0.68767	-2.48259	-208.299	-24.3716	14.0204	13.6032	7.89862	-95.4249	0
0.2807	-66.3423	-2.2125	-2.48259	-125.282	-24.0693	15.2467	9.33071	6.68345	22.6902	0.314135
0.2813	-111.193	-3.73734	-4.00524	-170.729	-11.8591	8.22967	2.30812	-2.77754	6.8048	0
0.2820	-168.29	-7.41488	-7.97738	-348.648	0.0390101	-12.2219	-5.93237	-6.14096	59.9138	0
0.2827	-174.978	-6.78701	-6.45473	-468.011	4.6227	-32.3601	-14.163	-4.2965	225.325	0.314135
0.2833	-115.177	-3.13936	-1.25784	-411.216	3.09155	-40.9031	-21.7946	0.282094	276.901	0
0.2840	-35.2121	-0.986658	2.11847	-243.374	10.7278	-43.342	-28.2082	6.68345	233.571	-0.314135
0.2847	47.1625	-0.0896961	3.31012	-66.6771	28.731	-42.7425	-30.3396	8.50621	204.865	0
0.2853	124.718	-0.986658	0.893731	41.6304	38.4933	-35.7119	-28.8172	4.5352	131.319	0
0.2860	135.389	-1.61453	-1.85367	86.4894	29.0333	-25.343	-29.7306	-0.650985	40.0852	0
0.2867	98.7511	-0.986658	-1.25784	143.872	14.0827	-19.2389	-33.3941	-3.38512	8.04409	0
0.2873	88.0793	-0.68767	-0.959934	242.444	1.26783	-19.2389	-34.3076	2.10485	-0.811168	0.314135
0.2880	39.2447	-1.61453	-2.48259	320.275	-6.36841	-18.326	-31.8718	6.07586	17.4852	0.314135
0.2887	-78.5386	-2.51149	-2.7805	334.315	19.8757	-13.4345	-26.9805	5.46827	16.5839	0
0.2893	-147.832	-3.43835	-3.07841	345.322	62.6015	-11.9085	-22.4035	9.74308	-81.0718	0
0.2900	-129.193	-3.13936	-3.37632	394.437	75.4164	-14.9606	-18.7498	0.282094	-179.651	0
0.2907	-106.915	-0.388683	0.56272	337.984	67.4875	-11.309	-14.7818	-18.9437	-202.544	0
0.2913	-118.521	3.58785	6.05751	-4.45166	49.4844	5.79075	-10.5093	-18.0323	-183.617	0
0.2920	-115.472	4.18582	7.61327	-451.526	16.2185	20.4379	-8.36818	-9.80818	-158.583	0
0.2927	-42.8348	-0.0896961	3.93904	-607.48	-23.4548	18.2988	-8.36818	-11.9347	-141.188	0
0.2933	58.7687	-4.33531	-1.85367	-456.075	-59.7733	20.4379	-6.54132	-14.9944	-92.0676	0
0.2940	86.5548	-4.96319	-7.05055	-321.791	-75.6407	36.2978	-2.26884	-14.3651	-9.05805	0
0.2947	51.7853	-4.96319	-9.79794	-350.507	-70.4523	51.8715	1.3947	-10.4158	44.3439	0
0.2953	-4.08184	-5.89005	-10.0959	-350.507	-76.2551	60.1011	3.53585	-1.86616	60.2292	-0.314135
0.2960	-71.8503	-4.96319	-7.34846	-242.787	-88.4555	61.6272	7.50386	6.98724	78.5256	-0.314135
0.2967	-87.3908	-6.18903	-7.34846	-159.135	-75.6407	57.0491	9.63519	8.81	117.597	0
0.2973	-105.685	-10.4646	-10.7248	-85.3153	-48.7822	51.2583	3.84033	6.37965	160.003	0
0.2980	-189.929	-9.2387	-10.7248	-2.59273	-25.893	47.2934	-0.432159	9.43928	171.607	0
0.2987	-228.977	-5.89005	-8.87111	46.5223	-11.8591	36.6111	2.00365	12.1734	83.4151	0
0.2993	-165.536	-8.31184	-11.3206	81.3039	-5.754	19.8248	4.1448	6.37965	-105.181	0
0.3000	-73.6699	-10.7635	-14.6638	74.3085	8.2799	11.2817	11.7763	8.20241	-266.018	0.314135
0.3007	-12.3439	-10.1357	-15.2927	11.4471	22.6259	9.44232	23.975	20.4192	-301.417	0.314135
0.3013	71.3093	-10.1357	-13.4722	-1.36974	15.6041	9.14257	25.5072	27.732	-230.304	0
0.3020	157.028	-8.01286	-9.50003	82.8694	-0.263318	7.61654	16.3533	31.703	-148.511	0
0.3027	146.061	-8.93972	-6.45473	106.938	-18.2665	1.81216	6.58061	34.155	-72.8474	-0.942406
0.3033	77.9977	-14.1122	-3.37632	-9.63711	-40.239	-5.20486	1.09022	28.665	67.8452	-0.628271
0.3040	-37.9661	-8.61083	7.61327	-96.6157	-42.9892	-8.85644	0.785744	22.242	228.975	0
0.3047	-200.601	8.76032	24.3956	27.297	-24.0693	-4.89148	2.9269	25.3016	284.517	0
0.3053	-253.124	19.7631	31.413	294.054	-20.1	1.51241	1.3947	28.0358	194.793	0
0.3060	-137.75	16.4144	20.1255	412.732	-49.3966	0.286131	0.176792	23.4572	70.5942	0
0.3067	-16.5733	5.71065	-0.0331012	308.681	-82.3504	-2.75231	-1.04111	10.0469	30.0132	0
0.3073	-38.5562	-5.56116	-18.0401	250.369	-93.6439	-7.3304	-7.45475	-18.6399	52.9062	0
0.3080	-130.422	-11.9894	-25.6534	362.982	-86.0174	-14.6608	-10.8138	-41.5328	60.2292	0.314135
0.3087	-83.1123	-13.8132	-25.9844	503.674	-78.3909	3.3382	-8.36818	-47.9342	21.7663	0.314135
0.3093	50.2608	-13.8132	-22.906	528.084	-80.829	53.997	-5.3136	-42.4442	-8.13422	-0.942406
0.3100	83.5057	-11.6605	-15.2927	354.763	-77.7765	88.4826	-3.48674	-29.0339	9.26084	-0.628271
0.3107	109.423	-7.71387	-4.89897	108.161	-54.2826	85.7439	-4.40017	-12.5423	4.68675	0.314135
0.3113	98.7511	0.538177	7.61327	-136.876	-27.7265	64.6792	-7.75923	8.20241	-51.7796	0
0.3120	-26.0648	9.68718	20.4234	-414.591	-15.8284	40.5761	-11.4228	24.9978	-63.9922	0
0.3127	-149.061	16.0855	30.4862	-471.631	-3.92052	19.2117	-12.6407	25.6054	0.721039	0.314135
0.3133	-258.582	21.2879	36.9078	-273.899	14.6873	-1.53966	-6.54132	18.5748	27.2643	0
0.3140	-309.237	21.5869	33.5315	-158.254	24.7617	-34.1858	2.00365	19.8116	9.86922	0
0.3147	-280.565	12.1389	17.9739	-198.515	28.731	-72.9498	0.176792	22.242	47.0928	0
0.3153	-242.747	-1.28564	0.56272	-210.109	38.1909	-94.0009	-7.45475	11.262	60.2292	0
0.3160	-134.701	-11.3615	-10.0959	-137.463	48.5676	-90.0359	-8.97713	-4.60029	-19.423	0
0.3167	61.5227	-15.0391	-11.6185	-101.459	52.2248	-76.0018	-1.04111	-14.3651	-89.3186	0.314135
0.3173	184.224	-11.6605	-7.97738	-117.358	46.7342	-67.4588	13.2987	-22.6109	-108.854	0
0.3180	174.437	-8.31184	-5.8258	-140.545	36.0551	-48.8467	19.0936	-31.1605	-91.7522	0
0.3187	130.176	-7.71387	-4.30315	-231.193	22.0115	-15.8871	18.4846	-29.6415	-35.9167	0
0.3193	96.3414	-6.48802	0.56272	-319.394	0.0390101	1.51241	19.7025	-18.0323	16.8768	0
0.3200	121.324	-6.78701	3.01221	-306.235	-13.9949	-3.06569	13.2987	-10.7196	67.2368	0
0.3207	209.551	-8.93972	2.7143	-213.484	-20.7144	-15.2739	3.23137	-11.0233	122.486	0
0.3213	191.552	-7.086	4.86587	-97.7898	-35.3627	-23.817	5.05823	-7.05234	152.072	0
0.3220	28.5729	-4.03633	5.7596	5.33221	-32.3102	-21.9912	12.6898	-2.77754	160.003	0
0.3227	-79.473	-4.96319	2.11847	161.874	-9.72328	-21.3781	18.1802	-4.60029	145.357	0
0.3233	-88.3252	-12.5874	-5.22998	340.136	-2.39912	-27.782	16.9623	-10.4158	100.81	0
0.3240	-97.1774	-18.3877	-10.7248	439.589	3.70596	-25.6428	13.6032	-15.2982	52.2753	0
0.3247	-44.0643	-14.1122	-7.64637	485.671	22.3236	-12.835	13.6032	-11.6309	22.9831	0
0.3253	5.99982	-6.48802	-1.85367	511.598	20.4901	4.56447	12.9942	0.585887	12.3027	0
0.3260	-90.735	-4.6642	-0.0331012	540.021	-2.0968	11.8949	8.41729	9.11379	-9.95934	0.314135
0.3267	-85.5712	-7.71387	-1.85367	550.685	-18.2665	21.0511	-0.432159	5.46827	-33.7761	0.314135
0.3273	96.9315	-11.9894	-4.89897	538.455	-27.4241	76.8875	-9.89056	-3.99271	-13.0238	0
0.3280	200.994	-15.0391	-8.5732	547.946	-37.4985	129.386	-14.7818	-7.65992	9.86922	0
0.3287	239.747	-14.1122	-8.5732	535.129	-37.8008	118.39	-13.5541	-5.53337	3.44747	0
0.3293	249.534	-11.6605	-7.05055	418.26	-31.0813	79.9396	-8.0637	-6.74855	-9.35097	0
0.3300	193.076	-15.338	-10.7248	179.289	-20.4023	42.7153	-3.79122	-12.2385	-8.13422	0.314135
0.3307	152.159	-18.9857	-13.7701	-173.174	4.6227	13.4209	2.30812	-14.9944	16.2684	0.314135
0.3313	175.372	-14.7401	-7.64637	-456.075	19.271	-12.835	11.4719	-5.53337	49.2334	0.314135
0.3320	210.141	-10.1357	0.56272	-408.77	11.9469	-41.2165	9.63519	16.1444	78.5256	0.314135
0.3327	180.536	-10.4646	3.93904	-259.86	4.6227	-68.0719	1.09022	31.0954	109.958	-0.628271
0.3333	83.5057	-11.6605	0.893731	-312.986	1.57016	-89.4228	0.176792	32.6144	126.745	-0.942406
0.3340	-5.90146	-15.0391	-7.64637	-388.028	1.26783	-106.822	-0.127683	33.8512	82.4913	0
0.3347	-52.2771	-18.9857	-15.2927	-381.913	7.97757	-114.752	-3.79122	38.4298	13.8349	0
0.3353	-23.9009	-18.0887	-17.7422	-462.483	4.92503	-110.487	0.176792	39.645	-3.26721	0
0.3360	104.849	-15.338	-17.4112	-698.421	20.4901	-104.383	5.05823	40.8602	11.4014	0
0.3367	240.681	-13.1853	-17.4112	-786.281	120.892	-89.4228	2.6126	41.4678	-3.87558	0
0.3373	199.469	-11.6605	-17.7422	-493.645	225.566	-73.8627	-0.432159	30.4878	-42.9243	0
0.3380	-32.7531	-10.4646	-11.6185	-99.0127	240.215	-72.9498	-5.3136	15.5368	-66.7411	0
0.3387	-187.175	-2.81048	5.7596	136.876	221.295	-68.0719	-13.2496	14.3217	-74.6726	0
0.3393	-232.665	13.3647	31.082	199.738	217.94	-48.5333	-18.4355	23.761	-70.3914	0
0.3400	-481.363	29.8389	54.2859	169.212	201.76	-16.1868	-18.1311	32.0068	-57.8859	0
0.3407	-724.011	39.9148	64.3487	89.2778	147.137	22.8769	-9.2816	37.1929	-47.2055	0.314135
0.3413	-684.914	38.6889	56.7354	-34.3414	77.5522	42.7153	7.80833	39.3412	-39.567	0.314135
0.3420	-742.011	17.3114	25.2893	-62.7146	11.3324	24.7026	24.2893	24.3902	-40.7837	0
0.3427	-810.074	-15.338	-15.8886	32.4824	-56.4184	-3.36545	27.6386	-4.90409	-46.89	-0.314135
0.3433	-622.358	-31.2143	-35.7493	118.238	-98.2275	-3.67883	17.2667	-18.0323	-43.5327	0
0.3440	-405.086	-27.8357	-33.2998	211.332	-99.4466	15.5465	8.72176	-14.6906	-27.0615	0
0.3447	-242.747	-23.5901	-28.7318	215.001	-88.7676	30.8068	-0.736635	-15.9057	-0.518246	0
0.3453	-17.5077	-19.3146	-21.3834	-99.3552	-78.3909	36.2978	-19.0543	-16.2095	27.5572	0.314135
0.3460	315.433	-9.2387	-4.60106	-362.688	-58.5542	21.6506	-34.3076	-2.47374	34.2719	0.314135
0.3467	500.395	-0.0896961	13.7039	-214.413	-31.3934	-7.64379	-37.9711	14.6255	13.2266	0
0.3473	350.842	6.33853	28.6656	14.4801	-4.53493	-15.5737	-36.4487	24.3902	-6.91746	0
0.3480	119.21	16.4144	44.819	140.545	19.8757	-4.27834	-30.0351	38.1043	-13.6321	0
0.3487	167.749	23.4107	54.2859	157.912	34.2216	3.03844	-20.5767	48.4984	-23.3887	0
0.3493	515.64	20.6899	50.9427	12.3766	18.9589	18.2988	-17.8266	39.645	-46.89	0
0.3500	721.011	12.4379	41.4758	-54.4961	-16.7451	31.7197	-15.9997	21.6344	-80.1705	0.314135
0.3507	544.607	3.58785	27.143	91.0878	-45.7296	25.016	-0.736635	0.282094	-101.531	0.314135
0.3513	274.566	-10.1357	6.38852	244.89	-62.8258	21.6506	12.3853	-33.287	-98.1739	0
0.3520	178.126	-22.9622	-7.97738	315.089	-51.8347	17.999	16.0488	-70.5234	-75.8893	-0.314135
0.3527	213.83	-24.1881	-8.27529	373.059	-11.5568	-16.8	22.1482	-84.8668	-42.3159	-0.314135
0.3533	230.895	-21.7364	-6.45473	341.946	16.2185	-57.0763	20.0168	-75.7096	-10.8832	0
0.3540	199.174	-19.6136	-5.22998	127.728	19.8757	-68.3717	8.41729	-57.0914	12.6182	0
0.3547	172.028	-13.8132	-0.959934	-126.212	30.8668	-58.3026	7.50386	-37.258	32.7622	0
0.3553	80.7517	-14.7401	-3.70733	-304.425	26.2831	-36.6384	10.8531	-21.3957	43.1271	0
0.3560	-69.9815	-19.3146	-12.2474	-438.073	-12.1614	-15.2739	11.7763	-7.05234	38.2376	0
0.3567	-192.093	-16.2649	-13.4722	-595.251	-26.8097	-10.3825	17.2667	9.43928	30.0132	0
0.3573	-283.91	-16.8629	-14.9948	-659.971	-8.80654	-19.2389	20.3213	15.8406	23.9069	0
0.3580	-304.663	-22.3642	-19.5628	-471.338	-2.70145	-33.2729	25.2027	10.3507	22.6902	0
0.3587	-286.368	-20.8394	-19.2649	-239.705	-17.0474	-43.9552	34.3567	12.781	37.9447	0
0.3593	-300.384	-22.3642	-22.3102	-147.247	-40.239	-42.1294	29.1708	17.6634	60.8376	0
0.3600	-266.205	-29.3605	-31.1482	-110.313	-59.471	-31.7469	25.8117	14.3217	77.9172	-0.314135
0.3607	-63.5883	-24.786	-31.1482	-62.1276	-65.8784	-11.9085	43.5106	17.6634	90.1298	0
0.3613	222.682	-20.8394	-29.3276	-6.84871	-68.3165	4.26471	43.2061	22.5458	81.8829	0.314135
0.3620	487.559	-23.2612	-29.6255	43.7828	-76.2551	15.5465	20.3213	16.752	56.8719	0
0.3627	739.65	-13.5142	-15.8886	117.651	-71.0667	33.2457	11.7763	16.752	48.3096	-1.25654
0.3633	796.402	-0.0896961	4.23695	215.93	-43.9059	22.8769	10.5486	29.8802	56.5565	-0.628271
0.3640	550.705	9.08921	21.9461	225.371	-29.5599	-13.1348	1.09022	43.3122	61.1305	0
0.3647	303.237	28.3141	45.7458	82.8694	-31.3934	-33.8861	-4.70464	62.8418	55.9481	0
0.3653	266.303	42.6356	61.6013	-118.58	-8.80654	-54.0243	-10.2049	81.4599	33.9789	0
0.3660	163.175	35.9383	53.988	-183.545	31.7835	-69.2846	-21.1856	79.3117	3.15454	0
0.3667	-128.308	23.4107	35.3851	-34.6349	43.9839	-50.9722	-24.2402	69.2431	-14.8489	0
0.3673	-436.512	10.2852	13.7039	103.611	22.9282	-40.6034	-14.7818	58.2632	-19.1301	0
0.3680	-683.389	-6.18903	-6.12372	125.282	2.78923	-50.9722	7.19938	32.3106	-22.1719	-0.314135
0.3687	-730.995	-14.1122	-14.9948	146.611	-2.70145	-30.5343	31.3021	3.01623	-16.0656	0
0.3693	-575.688	-18.9857	-22.0123	192.693	5.22736	7.61654	31.6066	-21.0919	-6.60201	0
0.3700	-388.611	-30.8854	-35.1203	216.223	34.8361	34.472	7.50386	-43.6811	-16.3811	0
0.3707	-95.9479	-37.9116	-44.8852	166.473	69.6234	56.1362	-17.5221	-55.5724	-28.5937	0
0.3713	223.272	-41.2901	-51.6047	123.766	68.7066	57.3625	-36.7532	-59.8472	-31.3426	0
0.3720	250.763	-48.2864	-57.0995	197.879	48.5676	37.8238	-42.2436	-57.7207	-30.1034	0
0.3727	42.9331	-47.0606	-53.4253	276.639	52.8392	32.6462	-33.3941	-35.4353	-18.5217	0
0.3733	-317.499	-33.6361	-35.7493	284.564	66.8731	49.4325	-28.2082	-6.14096	-5.38526	0
0.3740	-816.762	-18.6867	-11.6185	279.085	71.4568	63.4666	-20.8812	11.8696	2.83909	0
0.3747	-1117.69	-4.33531	9.43383	136.24	76.3331	60.7143	-3.18226	25.9092	20.8425	0.314135
0.3753	-970.25	4.81369	18.2718	-153.949	74.5094	58.2753	3.84033	43.0084	34.5873	0
0.3760	-522.87	7.86336	19.1987	-245.233	64.7373	71.7099	-3.48674	58.8708	26.9488	0
0.3767	-26.3599	13.0358	24.0645	-108.21	46.7342	91.2349	-2.57331	68.6355	14.1278	0
0.3773	231.829	13.6637	23.4687	-31.8954	8.2799	94.9001	0.176792	75.6445	6.19642	0
0.3780	238.517	4.81369	11.5523	-95.0503	-29.2576	86.3571	-7.45475	68.6355	2.83909	0.314135
0.3787	398.447	-8.31184	-3.70733	-231.486	-48.7822	81.1658	-11.1183	28.0358	1.62234	0
0.3793	627.621	-23.5901	-18.0401	-280.601	-69.5356	74.4486	-8.97713	-20.7881	-6.91746	0
0.3800	565.36	-36.0877	-28.7318	-174.104	-98.5299	61.0277	-9.58608	-40.6215	-18.8146	0
0.3807	448.511	-32.4401	-26.2823	-50.1912	-115.012	42.4019	-7.75923	-26.8857	-18.8146	0
0.3813	461.003	-20.8394	-17.4112	-1.07623	-131.181	45.454	-2.87779	-1.86616	-11.4916	0
0.3820	408.234	-21.1384	-17.1133	16.3391	-153.154	123.282	0.785744	2.71244	-11.1986	0
0.3827	297.434	-22.9622	-19.2649	-9.29467	-149.497	229.79	0.176792	-6.74855	-13.3167	0.314135
0.3833	227.255	-22.9622	-22.0123	-143.578	-136.984	241.685	-14.163	-10.7196	-10.2748	0.314135
0.3840	111.587	-26.3109	-26.5802	-243.374	-114.095	166.923	-24.2402	-12.2385	-1.12662	0.314135
0.3847	8.11451	-21.7364	-23.8328	-215.294	-77.4741	91.5347	-9.2816	-4.2965	16.8768	0.314135
0.3853	73.424	-11.3615	-16.2196	-152.433	-72.2858	10.3688	21.2347	14.9293	38.2376	0
0.3860	73.7191	-8.61083	-12.8433	-82.5759	-94.2583	-93.7011	62.7417	25.9092	49.8418	0
0.3867	-354.137	-6.48802	-6.45473	-36.4938	-98.8322	-181.598	96.9117	30.4878	53.8075	0
0.3873	-944.627	1.43514	3.64113	-34.9284	-70.7546	-195.318	89.29	35.674	48.0167	0
0.3880	-1011.76	3.88683	6.05751	-18.785	-38.7176	-130.626	44.424	32.3106	22.6902	0
0.3887	-557.688	3.58785	4.86587	36.7873	-17.6618	-69.8977	4.44928	27.1244	2.23071	0
0.3893	-278.106	4.51471	1.48955	77.048	11.6348	-36.6384	-11.7272	21.0268	0.0901298	0
0.3900	-450.577	-0.68767	-3.70733	33.4119	20.1877	7.0034	-26.0671	11.262	-1.41954	0
0.3907	-658.702	-0.388683	6.05751	-47.1582	5.84177	56.7493	-41.9391	17.0558	2.23071	0
0.3913	-501.231	11.511	26.8119	-53.2732	15.6041	66.8184	-34.9165	37.4967	10.1621	0
0.3920	-57.7852	13.9627	32.9357	-51.1207	39.1077	14.9469	-1.96436	46.6539	8.04409	0
0.3927	393.234	3.28886	21.3172	-153.949	53.756	-30.2209	26.7251	36.5854	12.0098	-0.628271
0.3933	774.124	-9.53769	6.05751	-232.709	62.6015	35.6982	26.4207	13.0848	15.3671	-0.628271
0.3940	999.954	-22.6632	-10.3938	-143.872	73.2806	172.714	8.11281	-13.1499	-5.09233	0.314135
0.3947	825.369	-28.4636	-22.906	17.2196	100.441	216.356	-12.3362	-29.9453	-24.628	0.314135
0.3953	350.203	-27.8357	-29.6255	137.463	145.001	144.646	-32.4807	-47.9342	-27.9853	-0.314135
0.3960	23.9993	-36.0877	-39.6883	150.623	169.411	61.0277	-44.6892	-67.4855	-34.3845	0
0.3967	-102.636	-40.6623	-44.8852	33.9989	153.846	1.51241	-32.4807	-60.7586	-33.7761	0
0.3973	-134.111	-33.0381	-39.6883	-60.9046	112.954	-77.5279	-6.54132	-41.2291	-19.7384	0.314135
0.3980	-22.7206	-29.6894	-34.8224	-42.5598	77.5522	-175.793	-2.87779	-36.9543	-20.6623	0.314135
0.3987	116.16	-26.6398	-26.8781	5.33221	104.713	-210.892	-14.163	-32.9832	-31.3426	0.314135
0.3993	225.731	-14.4112	-12.2474	61.7851	149.887	-193.792	-15.6952	-12.5423	-38.3502	0.314135
0.4000	206.207	-8.01286	-2.48259	113.346	145.303	-187.702	-26.0671	3.92761	-50.2474	0
0.4007	-11.4095	-7.71387	1.78746	120.097	149.887	-184.65	-41.0257	5.16448	-51.7796	0
0.4013	-154.815	-3.43835	7.61327	112.172	170.64	-148.325	-35.221	8.81	-39.2741	0
0.4020	-18.4421	-0.986658	14.2997	112.172	151.71	-100.718	-21.7946	19.2041	-40.1754	0.314135
0.4027	147.291	-7.41488	12.1812	135.017	104.411	-96.4534	-9.58608	24.3902	-53.6047	0.314135
0.4033	134.75	-15.936	1.19164	166.766	64.7373	-75.7021	15.7444	23.1534	-64.8935	0
0.4040	150.635	-20.5105	-11.6185	193.916	33.0026	-10.3825	39.8471	16.752	-84.1362	0
0.4047	226.026	-24.1881	-21.3834	280.601	16.2185	41.1892	34.9656	11.262	-92.9689	0
0.4053	164.356	-23.2612	-22.3102	400.552	24.7617	66.8184	3.84033	15.5368	-69.4901	0.314135
0.4060	20.6551	-19.3146	-16.2196	449.08	26.2831	79.9396	-26.0671	13.9962	-45.0649	0
0.4067	-52.6214	-18.0887	-11.0227	406.667	13.1659	97.3391	-42.2436	1.80106	-36.818	-0.314135
0.4073	-58.0802	-14.7401	-3.07841	325.167	16.5208	88.4826	-48.6572	-7.96372	-32.2439	0
0.4080	-28.8188	-7.41488	6.68644	272.676	13.1659	30.8068	-42.2436	-10.112	-25.5293	0
0.4087	19.1306	-4.96319	6.38852	298.897	-17.9642	-60.4418	-20.5767	-3.68892	-28.8866	0
0.4093	57.2442	-10.7635	-4.00524	404.514	-32.9148	-150.464	3.84033	-7.05234	-44.1411	0
0.4100	78.9321	-18.0887	-9.20212	399.329	-26.5074	-173.355	15.4301	-30.2491	-47.2055	0.314135
0.4107	111.882	-22.9622	-9.50003	206.733	-21.9335	-152.903	13.9077	-46.4152	-38.3502	0
0.4113	183.29	-25.1149	-13.7701	99.3063	-24.986	-135.517	0.481268	-38.4949	-35.6013	0
0.4120	240.386	-27.8357	-21.7144	14.7736	-45.4273	-115.365	-14.163	-22.3071	-28.2782	-0.314135
0.4127	164.7	-28.4636	-25.6534	-133.501	-71.0667	-130.626	-12.6407	-9.48268	2.54617	-0.628271
0.4133	-89.2104	-27.5367	-25.6534	-117.945	-87.5388	-174.881	-8.67265	0.282094	32.4467	0
0.4140	-345.875	-30.2874	-26.5802	5.96816	-102.187	-201.736	-8.67265	-1.25857	26.9488	0.314135
0.4147	-515.542	-28.7626	-22.3102	139.616	-117.147	-217.296	10.5486	-8.8751	3.44747	0
0.4153	-654.423	-18.0887	-10.3938	275.122	-123.555	-215.77	48.0876	-3.38512	-33.7761	0.314135
0.4160	-629.686	-2.2125	5.7596	355.986	-119.888	-177.619	71.2768	13.6924	-86.8851	0
0.4167	-518.296	13.0358	23.1708	312.056	-108.604	-116.278	68.5366	23.4572	-104.573	-0.314135
0.4173	-397.168	20.062	31.413	41.9728	-78.3909	-46.3941	45.6517	23.1534	-64.6005	0
0.4180	4.1802	17.0124	26.2161	-338.913	-41.7701	17.6856	8.11281	21.3306	-23.7041	0
0.4187	452.79	9.08921	11.5523	-622.107	-31.3934	54.3104	-20.2722	11.262	-21.879	0
0.4193	557.737	-1.91352	-3.07841	-626.363	-38.1032	57.3625	-30.3396	-11.6309	-38.6657	0
0.4200	512.886	-21.4374	-8.27529	-308.094	-32.9148	43.015	-34.3076	-26.5819	-49.639	0
0.4207	434.151	-33.6361	-8.27529	-21.5245	-20.4023	32.3328	-35.5255	-19.573	-37.1335	0
0.4213	273.336	-31.2143	-13.4722	15.1161	-14.6093	24.1031	-38.8845	-12.8461	-13.9476	0.314135
0.4220	209.256	-27.8357	-18.338	-111.243	-15.214	15.8598	-37.9711	-17.1209	3.44747	0.314135
0.4227	279.139	-22.0354	-14.9948	-292.538	-25.893	-7.03065	-18.1311	-21.6995	29.6978	-0.628271
0.4233	293.45	-21.4374	-13.1412	-371.249	-38.7176	-38.4642	2.00365	-26.8857	50.7656	-0.314135
0.4240	216.879	-26.9387	-13.7701	-313.573	-44.5106	-32.9732	-2.57331	-25.0629	45.8761	0.314135
0.4247	135.684	-22.6632	-7.64637	-296.5	-42.6869	4.86423	-17.2176	-13.4537	28.7965	0
0.4253	59.9982	-16.8629	-4.00524	-327.319	-19.1832	35.3849	-26.0671	-6.74855	12.6182	0
0.4260	-7.42601	-19.9125	-7.97738	-262.306	15.3017	45.7673	-23.3268	-9.17889	15.6601	0
0.4267	-21.4912	-19.3146	-8.5732	-174.74	34.2216	55.8364	-6.54132	-7.96372	41.302	-0.314135
0.4273	-26.6549	-13.5142	-4.89897	-198.808	52.2248	78.4135	14.5166	1.19347	55.6326	-0.314135
0.4280	-89.2104	-13.8132	-3.70733	-256.191	69.321	89.7089	28.5618	16.1444	53.8075	0
0.4287	-136.225	-13.5142	-1.55575	-231.193	48.87	85.1308	34.9656	28.3396	73.6586	0
0.4293	-73.6699	-9.2387	2.11847	-167.989	5.84177	57.9756	40.1515	22.242	102.951	-0.314135
0.4300	5.06542	-11.3615	0.56272	-122.543	-20.1	28.6676	45.9562	9.43928	75.1683	0
0.4307	-73.3748	-15.936	-3.07841	-102.682	-18.8809	51.2583	60.905	5.77207	9.26084	0
0.4313	-223.813	-17.7897	-6.45473	-100.578	-0.877728	102.217	76.1681	6.98724	18.409	0.314135
0.4320	-235.124	-13.5142	-4.00524	-86.5383	12.8636	132.124	74.3314	10.9582	63.5866	0.314135
0.4327	-214.666	-7.71387	3.31012	-66.9706	35.743	152.876	60.2961	12.781	37.0208	0.314135
0.4333	-252.484	-7.086	3.01221	-56.5997	62.2992	193.166	38.0202	12.781	5.9035	0
0.4340	-200.01	-4.6642	0.264809	-41.0433	44.9007	199.57	30.0842	13.9962	21.4734	0
0.4347	-71.211	-0.986658	2.7143	-27.0035	-18.8809	131.212	39.5426	9.74308	40.3782	0.314135
0.4353	34.376	-4.03633	1.78746	-20.8886	-75.943	53.6973	30.9976	1.19347	36.7279	0.314135
0.4360	126.537	-5.26217	0.264809	-7.77818	-101.582	2.12554	18.4846	-2.47374	19.6258	0.314135
0.4367	178.421	-2.51149	2.11847	1.36974	-118.367	-31.1338	27.6386	-4.90409	29.6978	0.314135
0.4373	135.389	-4.6642	0.56272	-1.36974	-89.0699	-43.0423	47.4786	-11.6309	56.2635	0
0.4380	79.8173	-7.71387	-2.7805	-0.146758	-20.7144	-47.0072	58.1549	-17.4247	44.0509	0
0.4387	66.0964	-9.53769	-4.60106	4.40274	4.92503	-69.8977	50.5332	-21.6995	16.2684	0
0.4393	49.0313	-12.5874	-7.97738	4.74518	-6.97306	-104.996	26.7251	-27.4933	16.8768	0
0.4400	34.0809	-11.6605	-7.64637	14.1866	-13.3902	-114.752	-5.93237	-30.8567	19.9412	0
0.4407	41.0643	-8.93972	-2.7805	36.4449	-3.01353	-106.209	-39.798	-25.9743	8.94538	0
0.4413	54.1951	-8.31184	1.48955	47.4518	8.89431	-98.5789	-65.1284	-14.3651	4.3713	0.314135
0.4420	56.0147	-1.28564	7.91118	50.1912	14.0827	-66.2325	-60.2469	0.585887	15.0517	0
0.4427	34.9662	4.51471	8.80491	52.3437	23.2403	-15.8871	-37.6666	5.16448	14.7588	0
0.4433	-8.95055	-2.2125	1.19164	46.8158	38.7956	30.8068	-45.2982	-5.53337	-5.70071	0
0.4440	-51.0968	-3.13936	-0.331012	45.9353	68.7066	69.8705	-64.5194	-13.1499	-14.8489	0
0.4447	-63.2932	1.43514	1.78746	45.2993	93.1172	69.5707	-54.7566	-13.7575	-8.13422	0
0.4453	-52.2771	-0.388683	-1.85367	39.2333	84.574	31.4199	-28.8172	-17.4247	-4.48396	0.314135
0.4460	-45.8839	-4.33531	-4.30315	40.4074	56.4964	48.506	-12.3362	-20.7881	-7.52584	0.314135
0.4467	-47.4084	-5.89005	-1.85367	49.2618	16.2185	127.247	-20.8812	-13.4537	-13.0238	0.314135
0.4473	-47.1133	-7.71387	1.48955	60.5621	29.0333	162.345	-44.9937	0.88968	-19.1301	0.314135
0.4480	-48.6379	-11.0625	4.86587	64.8671	107.161	154.102	-56.8879	14.6255	-29.2021	0
0.4487	-50.4575	-11.0625	8.80491	70.0525	130.05	134.877	-55.3655	34.7626	-38.9586	-0.314135
0.4493	-47.4084	-6.48802	9.43383	84.6794	111.13	88.4826	-65.1284	51.2325	-45.0649	0
0.4500	-43.4741	-0.986658	4.23695	92.0173	130.655	25.9289	-66.0516	48.8022	-58.7872	0.314135
0.4507	-38.5562	5.11268	0.56272	82.2334	147.137	-32.6598	-20.5767	21.9382	-72.8474	0
0.4513	-25.4255	5.11268	3.01221	62.0786	136.76	-63.7936	36.7925	-21.0919	-72.2165	0
0.4520	-8.06533	0.538177	6.98435	48.9683	111.432	-61.0413	60.6005	-42.748	-83.2123	0
0.4527	0.786862	-0.0896961	7.61327	56.3062	79.0833	-46.0943	49.6099	-43.9849	-107.007	-0.628271
0.4533	-0.0983577	2.06301	8.20909	73.379	93.1172	-19.852	21.2347	-34.2201	-111.603	-0.942406
0.4540	-2.85237	2.95997	10.3607	69.4165	134.624	70.1839	4.44928	-14.6906	-81.3872	0
0.4547	-5.01624	0.23919	10.0297	45.9353	142.865	202.008	9.02624	-4.2965	1.01396	0
0.4553	-9.2948	-3.13936	7.28226	34.3414	134.926	236.494	9.33071	-5.53337	65.0963	0
0.4560	-14.7537	1.43514	6.05751	36.7873	118.454	170.275	1.3947	-11.6309	39.1614	0
0.4567	-16.2782	7.23549	9.43383	31.8954	91.8981	96.7259	0.176792	-19.8767	36.4124	0
0.4573	-13.5242	12.4379	15.5244	29.4494	76.3331	26.2287	-2.57331	-21.0919	84.339	0
0.4580	-12.3439	20.9889	13.406	49.8977	61.3825	-32.0603	-6.23685	-22.6109	70.3013	0.314135
0.4587	-16.2782	16.7134	1.19164	78.271	29.3356	-54.3376	2.00365	-33.5908	34.2719	0
0.4593	-22.7206	2.362	-4.60106	97.7898	-32.6125	-61.3547	9.02624	-35.7391	41.9104	0
0.4600	-22.7206	-0.388683	0.56272	108.797	-100.968	-82.106	-9.58608	-24.4553	69.9858	0
0.4607	-20.5568	-6.78701	1.78746	99.0127	-122.024	-113.839	-39.189	-6.14096	87.9892	0
0.4613	-23.0157	-20.5105	-2.7805	74.8955	-100.051	-134.291	-41.0257	17.6634	62.6628	-0.314135
0.4620	-21.4912	-14.4112	-0.331012	71.2755	-72.5881	-126.361	-18.7498	16.752	27.8726	0
0.4627	-18.0978	-0.986658	0.893731	81.6464	-49.3966	-114.752	-1.65988	-17.1209	12.9111	0.314135
0.4633	-19.6224	-0.68767	-9.20212	74.602	-12.7758	-122.995	8.41729	-38.1694	-16.0656	0
0.4640	-18.7371	-3.73734	-14.068	75.825	16.8231	-120.856	16.3533	-36.6505	-49.9544	0
0.4647	-15.9831	-8.01286	-7.05055	97.7898	14.9994	-89.7361	12.9942	-26.5819	-54.5285	0
0.4653	-15.0487	-12.8863	2.41638	28.8135	13.4683	-47.3206	2.6126	-10.4158	-26.4531	0
0.4660	-14.4586	-12.2884	9.73174	-103.611	8.89431	-24.1168	-7.45475	-1.25857	3.76292	0
0.4667	-14.7537	-6.48802	14.9286	-112.466	-1.18006	-30.5343	-15.0863	-0.347192	10.4776	-0.314135
0.4673	-16.5733	2.66099	15.8224	-47.4518	7.67525	-46.3941	-15.6952	4.2314	-7.23292	0
0.4680	-18.0978	8.46134	13.075	-28.2265	17.4375	-47.0072	-11.1183	14.9293	-48.1068	0.314135
0.4687	-15.393	10.2852	6.38852	-27.0035	6.44643	-10.0827	-5.93237	23.4572	-78.9312	0
0.4693	-11.4095	8.16235	-4.00524	-22.7475	-8.20188	36.9109	-7.75923	15.5368	-40.7837	-0.314135
0.4700	-8.3604	6.33853	-4.30315	-15.4096	-4.53493	51.2583	-15.0863	8.50621	50.4502	0
0.4707	-5.31132	13.0358	5.16378	-4.45166	-2.70145	47.5931	-17.8266	30.184	91.0536	0.314135
0.4713	-3.4917	19.1352	11.8833	8.07169	-21.9335	45.1542	-14.163	37.4967	54.123	-0.314135
0.4720	-3.78677	15.4875	10.3607	33.7054	-47.5631	47.9065	-4.09569	14.3217	3.44747	0
0.4727	-8.65548	8.16235	-2.48259	61.1981	-75.6407	51.2583	0.176792	19.5079	-27.6699	0.314135
0.4733	-13.8684	1.13615	-16.2196	70.346	-96.3941	26.8418	-2.57331	12.781	-52.9963	0
0.4740	-10.8193	-10.4646	-18.338	68.4871	-95.4773	-6.41751	1.69917	-21.0919	-61.5361	-0.314135
0.4747	-3.4917	-15.637	-12.2474	66.6771	-83.8816	-10.0827	8.41729	-4.90409	-16.0656	0.314135
0.4753	-0.737683	-2.2125	-7.05055	65.1606	-73.8072	-14.3611	9.02624	10.3507	11.6943	0.314135
0.4760	-3.14745	11.8399	-7.64637	62.7146	-67.3998	-42.1294	8.41729	-8.8751	-10.8832	-0.314135
0.4767	-3.4917	17.0124	-3.70733	52.3437	-51.5324	-68.6714	9.93967	5.46827	16.5839	0.314135
0.4773	-2.85237	22.8127	0.893731	32.1889	-29.5599	-62.8807	6.27613	40.5564	87.3809	0.314135
0.4780	-1.96715	20.9889	-8.27529	25.487	-18.5688	-34.1858	-1.34559	44.2236	86.457	-0.314135
0.4787	3.83595	15.1885	0.264809	16.3391	-17.0474	-8.55668	-5.93237	46.9577	-49.639	0
0.4793	9.93413	21.8859	35.3851	-73.7215	-19.7976	5.47737	-4.70464	62.538	-194.906	0
0.4800	12.3931	25.8624	38.4305	-162.51	-24.3716	4.86423	-2.57331	22.242	-206.194	0
0.4807	16.3766	17.0124	6.05751	-126.212	-26.2051	9.44232	4.1448	-42.748	-135.398	0.314135
0.4813	18.4912	19.4641	-21.7144	-81.6464	-29.8623	23.7898	12.9942	-61.0624	-55.7453	0.628271
0.4820	12.3931	40.8117	-26.5802	-88.6418	-40.239	47.2934	6.88508	-76.3172	60.5222	0
0.4827	5.70475	51.8145	-9.20212	-74.9444	-45.125	66.8184	-7.15027	-78.1616	206.397	-1.25654
0.4833	3.54088	7.86336	-10.0959	-50.8272	-42.0724	40.5761	-10.5093	-21.0919	215.861	-0.628271
0.4840	1.42619	-40.9612	-29.0297	-38.3038	-44.5106	6.39026	-4.40017	37.8005	87.3809	0.314135
0.4847	4.1802	-25.1149	-15.5906	-32.4824	-58.8566	27.7547	8.11281	58.567	37.3363	0
0.4853	13.3275	-7.086	17.676	-19.3721	-66.7951	75.3615	24.8983	40.2526	66.9439	0
0.4860	17.606	-32.1112	29.2614	9.00116	-60.69	108.934	30.0842	-1.25857	46.4845	0.314135
0.4867	18.1962	-39.1374	25.5872	34.9284	-56.4184	140.368	23.0616	-12.2385	1.93779	0
0.4873	20.6551	-12.2884	26.8119	45.9353	-50.918	166.31	20.0168	-5.22958	8.04409	0
0.4880	18.1962	-3.13936	26.2161	38.8909	-44.8227	162.345	19.0936	-13.1499	21.158	0
0.4887	13.9176	-4.33531	21.6482	37.3744	-46.0417	148.911	18.4846	-34.2201	-8.74259	0
0.4893	15.7372	13.3647	27.143	58.1162	-50.918	151.663	16.0488	-63.8182	-34.3845	0
0.4900	19.1306	25.5634	36.5768	23.3345	-57.9398	141.594	4.75375	-87.015	-23.9971	0
0.4907	16.0815	21.2879	29.5593	-62.1276	-65.264	98.8651	-9.2816	-119.977	-14.556	0.314135
0.4913	13.9176	17.3114	12.777	-71.8625	-74.1193	38.4369	-10.8138	-132.172	-14.556	0
0.4920	19.1306	3.88683	4.53486	-29.1559	-68.0142	-29.0082	-1.65988	-89.7491	-5.38526	0
0.4927	22.7698	-8.61083	-3.37632	-16.3391	-41.1557	-107.435	-2.57331	-39.4063	-0.518246	0
0.4933	21.5403	-0.388683	-12.5453	-16.9261	-13.3902	-194.406	-6.8458	-4.90409	-6.30909	0
0.4940	20.9502	15.4875	-7.05055	-8.70764	16.2185	-232.257	9.33071	12.1734	-9.95934	0
0.4947	17.606	16.4144	-3.07841	0.146758	48.87	-203.262	29.1708	13.0848	-18.2062	0
0.4953	10.2784	-5.26217	-11.0227	2.88624	69.321	-160.533	36.488	-6.14096	-34.3845	0.314135
0.4960	9.63906	-22.3642	-8.27529	0.782709	69.321	-117.504	31.911	-48.2597	-43.2398	0.314135
0.4967	17.2618	-11.0625	4.86587	-2.00569	58.3299	-72.3366	17.8757	-82.7402	-49.9544	0
0.4973	21.5403	14.2617	15.2265	0.782709	48.87	-43.342	4.44928	-85.7781	-61.8516	0
0.4980	19.1306	39.9148	27.4409	6.26168	47.6509	-35.1124	-4.70464	-55.8762	-58.1788	0
0.4987	15.4422	55.7611	31.082	12.6701	54.6727	-32.3601	-8.97713	-0.650985	-15.1643	0
0.4993	12.098	39.2869	5.7596	21.5245	59.2467	-25.9562	-12.3362	37.8005	18.409	0
0.5000	14.852	10.913	-11.6185	28.2265	56.4964	-18.6258	-12.6407	12.4772	-3.26721	0
0.5007	16.9667	-6.18903	-0.959934	27.297	47.3486	-6.11775	-5.00912	-29.6415	-12.7083	0
0.5013	11.1636	-26.3109	-10.7248	20.3015	33.6072	9.44232	-0.127683	-42.1404	29.4049	0.314135
0.5020	9.34398	-46.1636	-41.542	12.3766	18.6566	17.6856	2.00365	-46.4152	32.7622	0.314135
0.5027	11.1636	-39.7354	-50.0821	5.62572	5.22736	11.5815	4.1448	10.9582	-27.9853	0
0.5033	10.8685	-12.5874	-36.9409	2.29921	-10.64	2.4253	-1.04111	150.421	-35.6013	0.314135
0.5040	10.8685	-0.0896961	-25.9844	0.782709	-23.7572	6.0905	-10.5093	184.598	11.086	0
0.5047	10.5735	0.23919	-17.4112	1.36974	-25.5907	15.8598	-14.163	65.8797	19.0174	0
0.5053	11.8029	6.03954	-6.45473	0.440274	-19.4856	15.5465	-10.2049	24.0864	8.94538	0
0.5060	13.9176	5.71065	7.91118	-2.88624	-1.48239	7.91629	-4.70464	56.4187	5.58805	0
0.5067	16.9667	-2.51149	24.6935	-4.45166	27.1998	-0.92652	-4.09569	8.50621	-2.34338	0
0.5073	20.3109	-3.73734	38.7284	-6.26168	53.756	-28.0953	-0.736635	-56.4838	-5.99363	0.314135
0.5080	17.606	-2.81048	48.1953	-11.4471	71.4568	-71.7235	12.6898	-61.9738	2.54617	0
0.5087	7.22929	-6.18903	47.8974	-14.4801	71.4568	-76.3016	20.3213	-35.7391	18.409	0
0.5093	-2.5573	-1.91352	34.4583	-11.4471	53.1416	-45.7946	17.5712	-16.5133	26.6559	0.314135
0.5100	-4.67199	9.3882	16.4513	-8.07169	30.8668	-32.9732	15.1256	-26.5819	21.7663	0.314135
0.5107	-0.0983577	17.9392	-3.37632	-4.74518	14.6873	-28.0953	9.63519	-39.7101	21.7663	0
0.5113	7.52436	20.6899	-15.5906	2.88624	11.0301	-13.4345	3.23137	-32.6795	26.3404	0.314135
0.5120	15.4422	15.4875	-19.8607	13.2571	23.2403	-5.50462	-1.65988	-28.4046	17.1923	0.314135
0.5127	12.9832	3.88683	-39.6883	18.4426	38.1909	-9.16982	-7.45475	-26.8857	-3.26721	-0.628271
0.5133	4.77035	-2.2125	-58.9201	19.6656	35.4407	-6.73089	-10.5093	-20.4843	-23.7041	-0.628271
0.5140	8.11451	-1.91352	-49.4531	22.1115	14.0827	-1.83941	-9.89056	-4.60029	-35.6013	0
0.5147	17.2618	2.06301	-21.0854	22.7475	-17.0474	-1.2399	-5.93237	27.732	-27.6699	0
0.5153	20.9502	4.81369	3.31012	18.785	-46.9585	5.79075	-1.96436	33.8512	-13.6321	0
0.5160	21.8354	-4.6642	18.9008	16.6326	-56.1063	20.7377	0.785744	-10.7196	-10.2748	0.314135
0.5167	24.2944	-19.9125	25.5872	15.4096	-43.9059	26.5421	0.176792	-47.9342	1.01396	0.314135
0.5173	21.5403	-32.1112	14.9286	12.9636	-33.2171	25.6292	-6.8458	-46.1114	11.4014	0
0.5180	13.9176	-57.1364	-3.07841	12.3766	-29.8623	27.1416	-10.2049	-13.7575	-15.1643	0
0.5187	8.75384	-84.9123	-27.5071	10.2241	-21.6214	18.2988	-3.48674	10.6545	-41.3921	0
0.5193	3.2458	-71.4878	-62.5943	5.03869	-11.5568	39.963	7.50386	-16.2095	-43.8482	0
0.5200	2.31141	-34.2639	-68.387	0.146758	-7.28514	118.09	16.9623	-21.3957	-41.3921	0
0.5207	18.1962	-31.8122	-27.1761	-1.36974	-0.565647	179.431	20.0168	22.8496	4.07837	0
0.5213	30.0975	-70.8899	9.13592	-1.66326	1.87249	187.062	10.5486	15.8406	61.1305	0
0.5220	24.2944	-105.064	15.2265	-1.66326	-0.263318	157.454	-5.00912	-43.9849	57.7732	0
0.5227	19.7207	-108.114	15.8224	2.29921	6.75851	108.634	-14.163	-55.8762	41.5949	0.314135
0.5233	26.114	-84.3144	27.7388	4.74518	15.3017	47.9065	-16.6087	-7.05234	41.302	0.314135
0.5240	42.2938	-52.263	56.7354	5.03869	16.8231	-7.64379	-17.2176	26.213	10.793	0.314135
0.5247	49.9165	-71.4878	74.1135	16.9261	14.385	-26.5693	-14.163	33.5474	-42.6314	0.314135
0.5253	34.9662	-91.0117	57.3312	33.7054	5.53944	-34.799	-7.45475	40.8602	-65.5018	0.314135
0.5260	9.63906	-22.9622	32.6377	39.8203	-8.50421	-52.8116	-5.61807	21.0268	-70.9998	0
0.5267	-5.31132	46.3131	23.4687	38.5974	-12.7758	-64.4067	-8.0637	-21.6995	-102.14	0
0.5273	-5.90146	68.5877	25.5872	32.8249	-6.36841	-89.7361	-2.87779	-32.9832	-107.007	0
0.5280	-5.01624	71.9363	19.4966	21.5245	-1.48239	-137.343	12.3853	-23.8261	-33.4607	0
0.5287	-3.4917	88.7394	3.64113	12.9636	-4.83726	-161.446	22.7571	-36.6505	80.3507	0.314135
0.5293	1.42619	176.014	0.893731	11.7406	-10.0256	-116.891	21.5392	-56.4838	160.634	0.314135
0.5300	-0.0983577	235.811	1.19164	13.8931	-10.3377	-40.9031	10.2441	-49.1711	146.889	0
0.5307	-6.19654	190.365	-21.0854	12.3766	-8.20188	3.65158	-4.40017	-29.3377	82.8068	0
0.5313	-3.14745	124.139	-48.5594	-23.677	-5.754	16.1596	-11.4228	-35.7391	41.5949	0
0.5320	7.22929	93.9119	-39.6883	-73.379	-2.70145	17.6856	-12.6407	-40.9253	6.8048	0
0.5327	12.098	96.3636	-5.22998	-71.569	-2.0968	17.999	-12.6407	-11.3271	-39.2741	0
0.5333	9.04891	89.0384	2.7143	-38.3038	-4.53493	21.0511	-11.7272	29.5764	-82.604	0
0.5340	2.95073	42.9645	-14.6638	-15.4096	-4.2326	25.9289	-9.2816	55.8111	-85.3529	0
0.5347	-3.78677	-2.51149	-22.3102	-11.1536	-4.83726	24.4029	-9.89056	79.6155	-42.3159	0
0.5353	-6.83586	5.71065	-14.6638	-20.3015	-8.50421	14.9469	-10.8138	121.43	3.44747	0
0.5360	-4.37692	32.8886	-13.4722	-23.677	-10.3377	8.84281	-6.23685	158.059	27.8726	0
0.5367	-0.737683	20.6899	-32.3729	-15.7031	-13.3902	5.47737	-3.48674	173.922	5.9035	0.314135
0.5373	3.2458	30.1379	-48.5594	-8.70764	-17.6618	-1.83941	-3.18226	146.146	-42.023	0.314135
0.5380	9.34398	54.8641	-33.2998	-5.62572	-16.7451	-4.89148	2.6126	68.9393	-49.639	0
0.5387	14.5569	-4.96319	-9.20212	-4.45166	-13.9949	-4.27834	5.66718	8.50621	-29.495	0
0.5393	17.606	-176.462	3.93904	-6.26168	-15.526	-10.0827	-1.65988	27.1244	-37.1335	0
0.5400	23.0649	-386.112	25.5872	-7.19114	-16.7451	-15.2739	-7.75923	67.4204	-23.7041	0
0.5407	27.9828	-508.487	50.9427	-5.03869	-17.6618	-24.4301	-8.36818	9.11379	34.8802	0
0.5413	23.36	-479.516	53.988	-3.22868	-19.4856	-32.0603	-8.36818	-85.7781	48.0167	0.314135
0.5420	12.9832	-295.19	38.4305	-3.22868	-18.5688	-20.7649	-5.61807	-98.2988	11.4014	0
0.5427	7.81944	-81.5637	25.2893	0.440274	-14.2972	1.51241	0.176792	-68.7006	-10.2748	-0.942406
0.5433	7.52436	116.485	21.3172	0.782709	-11.5568	15.8598	2.9269	-29.9453	0.405584	-0.314135
0.5440	6.29489	318.541	24.6935	-7.19114	-14.9116	21.0511	-0.127683	6.37965	32.4467	0.628271
0.5447	2.01633	332.264	14.9286	-8.70764	-15.8284	32.033	-3.18226	-34.8277	44.3439	0
0.5453	-6.83586	210.188	-18.967	-8.07169	-13.0782	48.2063	-5.3136	-85.1705	26.6559	0.314135
0.5460	-11.9996	188.511	-40.0193	-11.1536	-11.2447	54.3104	-4.70464	-49.1711	40.9865	0.314135
0.5467	-6.54079	200.112	-32.6708	-12.0831	-10.3377	37.8238	-0.127683	-24.4553	71.2026	-0.314135
0.5473	1.08193	154.038	-24.4287	-9.63711	-8.80654	7.0034	1.3947	-48.2597	47.0928	0
0.5480	1.08193	108.861	-25.3555	-6.55519	-9.10887	-25.6428	-0.432159	-64.122	6.19642	0
0.5487	0.196715	95.4367	-21.7144	-4.45166	-12.4735	-54.9508	-1.65988	-44.2887	0.0901298	-0.314135
0.5493	4.1802	92.686	-1.25784	-4.10922	-14.2972	-74.4758	1.09022	-3.38512	11.086	0
0.5500	0.491789	67.0628	24.3956	-3.22868	-16.433	-85.4578	3.53585	12.781	7.43571	0.314135
0.5507	-7.13093	21.2879	30.7841	0.146758	-20.1	-85.158	4.1448	7.59483	-9.05805	0
0.5513	-5.60639	-2.2125	38.0994	5.62572	-21.319	-68.0719	9.63519	4.5352	-4.48396	0
0.5520	-1.96715	17.0124	75.9672	7.19114	-24.0693	-44.8681	15.1256	-0.954778	16.2684	0
0.5527	3.2458	80.7863	95.7948	4.74518	-26.5074	-29.6077	11.7763	-40.6215	10.4776	0.314135
0.5533	8.75384	153.739	57.6622	3.17976	-17.6618	-5.20486	7.19938	-84.8668	-9.66642	0.314135
0.5540	10.5735	142.736	19.7945	-2.00569	-5.45167	39.3498	2.9269	-66.2486	-6.60201	0.314135
0.5547	16.3766	75.6138	18.5698	-9.93063	-2.39912	58.5751	-2.57331	-25.0629	0.721039	0.314135
0.5553	24.5894	41.1107	21.6482	-9.63711	-3.31586	35.0851	-3.79122	-1.86616	-2.02792	0.314135
0.5560	26.114	23.4107	21.6482	-4.45166	-0.565647	13.4209	-3.48674	20.723	12.3027	0
0.5567	19.1306	-0.68767	20.7213	-3.22868	-0.263318	7.31678	-7.45475	28.3396	27.5572	0
0.5573	10.5735	12.4379	12.4791	-4.10922	-0.565647	3.65158	-12.0317	22.8496	13.8349	0.314135
0.5580	8.11451	55.7611	3.31012	0.146758	7.67525	2.4253	-10.5093	28.9688	-9.35097	0.314135
0.5587	8.11451	25.8624	-5.8258	3.81571	14.9994	-1.53966	-5.61807	56.4187	-23.9971	0
0.5593	6.29489	-76.9892	-13.4722	-0.440274	12.2492	-3.97858	-1.04111	92.1361	-23.7041	0
0.5600	4.47528	-150.54	-14.3659	-6.84871	3.09155	1.21265	2.9269	71.6952	-5.99363	0.314135
0.5607	3.83595	-164.264	-11.3206	-10.8601	-6.36841	5.47737	5.97166	-12.8461	6.8048	0.314135
0.5613	-1.32783	-167.313	-22.906	-12.0831	-12.1614	4.86423	6.88508	-55.8762	2.83909	0
0.5620	-8.95055	-203.64	-34.2266	-10.2241	-12.7758	7.0034	4.75375	-24.7591	-3.56013	0.314135
0.5627	0.196715	-217.364	-10.0959	-7.19114	-13.9949	9.14257	0.176792	10.0469	-3.56013	0
0.5633	22.7698	-288.762	14.2997	-8.41413	-17.9642	0.599513	-2.57331	22.242	-7.52584	0
0.5640	30.6876	-454.191	-1.55575	-9.93063	-13.9949	-8.55668	1.69917	44.8312	-11.1986	0
0.5647	22.7698	-288.762	-18.967	-5.62572	-5.14934	-5.20486	7.19938	75.9483	-2.34338	0
0.5653	12.6881	155.563	-6.45473	-3.22868	-2.39912	-3.06569	7.80833	67.4204	10.4776	0
0.5660	1.08193	320.664	8.20909	-5.96816	3.70596	-3.67883	5.97166	57.0263	18.7245	0
0.5667	-12.639	255.036	11.8833	-6.26168	12.2492	3.95133	4.75375	75.0369	26.3404	0.314135
0.5673	-15.9831	222.716	16.7492	-3.52219	15.6041	10.0555	5.36271	41.7715	21.7663	0.314135
0.5680	-3.4917	174.788	10.3607	-1.66326	13.4683	8.84281	4.1448	-10.7196	2.23071	0
0.5687	4.1802	54.2363	-6.12372	0.146758	10.4157	9.14257	-1.34559	2.40864	-2.34338	0
0.5693	-0.737683	-51.0371	-3.37632	4.40274	13.4683	11.2817	-5.61807	73.2141	-0.202792	0.314135
0.5700	-6.19654	-120.312	-2.15158	6.26168	13.1659	6.70364	-6.8458	112.577	-14.556	0.314135
0.5707	-4.67199	-140.165	-29.3276	5.62572	7.36316	1.81216	-8.0637	44.8312	-25.8447	0.314135
0.5713	-1.6229	-44.0109	-52.8295	4.40274	7.06084	0.599513	-7.75923	13.6924	-27.6699	0
0.5720	-4.08184	35.3104	-53.7563	-0.146758	10.1134	-2.75231	-9.2816	89.3803	-26.4531	-0.314135
0.5727	0.196715	46.9111	-40.3172	-3.22868	15.3017	-3.67883	-11.7272	121.127	-17.3049	-0.942406
0.5733	10.2784	116.814	-19.5628	-1.66326	20.1877	1.21265	-9.89056	63.1456	-6.91746	-0.628271
0.5740	9.93413	167.463	-12.5453	-2.88624	17.7399	5.79075	-6.23685	-25.3667	-2.95175	0
0.5747	2.65566	89.6363	-18.0401	-7.77818	12.2492	7.91629	-6.54132	-59.8472	-8.13422	0.314135
0.5753	1.08193	-24.1881	-18.636	-9.63711	9.49897	9.14257	-7.75923	-36.3467	-18.5217	0
0.5760	14.5569	-101.686	-21.3834	-6.55519	8.59198	8.52943	-7.75923	-35.4353	-27.3544	0
0.5767	32.8515	-166.087	-16.2196	-5.33221	6.44643	7.0034	-8.36818	-69.3082	-31.3426	0
0.5773	38.0153	-122.764	9.13592	-3.81571	5.22736	7.61654	-7.15027	-104.093	-27.0615	-0.314135
0.5780	33.1465	45.6852	22.8729	3.52219	8.89431	9.14257	-0.432159	-104.093	-15.7727	0
0.5787	22.4747	107.037	10.9565	8.07169	11.6348	7.31678	5.97166	-75.102	-6.30909	0.314135
0.5793	6.58997	79.5605	8.80491	6.55519	10.7278	3.65158	4.44928	-39.1025	-5.09233	0.314135
0.5800	-5.01624	88.4105	22.244	5.62572	8.89431	1.81216	0.785744	-5.22958	-4.77688	0
0.5807	-11.4095	50.5886	24.9914	4.40274	7.06084	1.81216	0.785744	24.694	-0.518246	0
0.5813	-16.9175	-17.7897	26.8119	2.29921	5.53944	4.26471	2.00365	53.3808	2.83909	0
0.5820	-14.4586	-82.7895	36.9078	2.88624	6.1441	7.91629	1.09022	28.665	9.55376	-0.314135
0.5827	-0.737683	-137.713	29.2614	4.10922	8.2799	10.6686	-0.432159	-46.1114	15.0517	0
0.5833	9.34398	-157.237	-7.97738	0.146758	7.36316	8.84281	-1.96436	-84.563	1.93779	0.314135
0.5840	1.72126	-124.588	-47.6326	-4.45166	2.17482	5.47737	-3.79122	-79.9844	-4.77688	0.314135
0.5847	-12.3439	-14.7401	-72.6571	-5.96816	0.0390101	7.0034	-3.48674	-85.7781	17.8006	0
0.5853	-11.9996	57.2859	-102.878	-5.96816	2.78923	10.3688	-3.18226	-91.2898	48.625	0
0.5860	-7.42601	-18.0887	-145.281	-5.33221	3.70596	11.8949	-2.87779	-44.5925	73.6586	0
0.5867	-8.3604	-109.938	-169.114	-5.03869	1.87249	10.9684	-1.96436	7.59483	80.3507	0
0.5873	-2.85237	-47.3895	-157.793	-2.88624	0.0390101	9.44232	-1.65988	2.10485	48.625	0
0.5880	-4.67199	68.5877	-144.387	-0.146758	-2.0968	3.95133	-3.18226	-44.2887	-6.30909	0
0.5887	-23.9009	74.986	-128.83	0.146758	-1.18006	0.899269	-3.18226	-67.7892	-44.7495	0
0.5893	-34.6219	60.6645	-21.0854	-0.146758	2.17482	3.3382	1.3947	-11.6309	-52.388	0
0.5900	-17.5077	73.79	121.746	-1.66326	2.17482	-0.0136253	4.1448	55.5073	-36.5251	0.314135
0.5907	12.098	-10.1357	169.643	-3.22868	-0.565647	-4.27834	3.23137	29.2726	-15.1643	0
0.5913	26.4582	-227.739	195.297	-2.00569	-0.263318	-0.313382	3.23137	-63.8182	-1.41954	0
0.5920	23.0649	-340.337	203.208	-2.00569	-0.565647	-0.0136253	1.69917	-115.072	0.721039	-0.314135
0.5927	14.2127	-139.238	139.124	-4.45166	-2.70145	-7.03065	-3.18226	-125.467	-4.48396	-0.314135
0.5933	3.83595	127.488	50.9427	-4.74518	-2.0968	-7.94354	-2.57331	-140.721	-3.87558	-0.314135
0.5940	-8.06533	210.188	-34.2266	-3.22868	1.57016	-0.626763	2.30812	-86.4074	1.62234	0
0.5947	-22.0813	189.438	-82.4219	-3.22868	3.40364	5.47737	3.53585	19.8116	3.15454	0
0.5953	-27.2943	150.69	-75.7024	-4.45166	2.17482	4.56447	1.3947	35.3702	-0.202792	0
0.5960	-9.2948	23.7396	-34.5245	-4.10922	1.57016	1.51241	1.09022	-10.112	-0.811168	0
0.5967	7.52436	-150.839	16.1534	-5.33221	2.4869	-1.83941	0.481268	-23.8261	-0.518246	0
0.5973	-0.44261	-222.536	39.0263	-6.55519	2.17482	-3.36545	-1.96436	-26.5819	-2.34338	0
0.5980	-8.06533	-186.538	34.4583	-3.81571	4.00829	0.899269	0.481268	-31.4643	-0.518246	0
0.5987	-2.85237	-157.865	38.7284	-0.440274	5.22736	4.56447	3.53585	-23.5223	1.62234	0
0.5993	4.47528	-93.4634	52.7633	0.440274	3.70596	1.21265	1.3947	-11.6309	-1.12662	0
0.6000	10.5735	39.5859	62.826	0.440274	3.09155	-1.83941	-0.736635	4.2314	-1.735	0
0.6007	6.58997	30.1379	61.9323	2.29921	4.6227	-0.313382	-0.432159	47.8908	3.44747	0
0.6013	-9.58988	-89.7858	51.8364	1.95677	4.6227	-2.1528	-1.65988	97.6261	11.4014	0.314135
0.6020	-22.0813	-139.537	65.5734	-1.36974	1.57016	-1.83941	-3.48674	122.646	24.5153	-0.314135
0.6027	-24.5402	-164.563	104.633	-1.36974	-1.48239	6.70364	1.3947	117.156	35.5111	-0.628271
0.6033	-24.5402	-128.863	97.3174	-2.29921	-6.05632	6.0905	7.19938	71.3697	32.1538	0
0.6040	-24.8353	71.9363	11.5523	-5.96816	-8.50421	-4.89148	5.05823	32.0068	22.6902	0.314135
0.6047	-20.8518	229.413	-86.0961	-6.84871	-5.14934	-7.94354	3.23137	33.8512	-8.13422	-0.314135
0.6053	-8.65548	196.464	-146.506	-9.29467	-1.48239	-7.03065	4.44928	47.2615	-40.1754	0
0.6060	-3.4917	108.263	-155.675	-13.8931	-1.48239	-7.3304	4.75375	41.7715	-27.6699	0
0.6067	-6.83586	86.5867	-140.713	-12.9636	-1.78471	-4.59172	5.36271	4.2314	-8.44967	0
0.6073	-4.37692	98.7854	-166.035	-8.07169	-1.18006	-0.92652	4.44928	-40.3177	-10.2748	0
0.6080	-4.08184	1.76402	-191.689	-6.55519	-2.0968	-1.2399	-0.127683	-74.7982	-13.9476	0.314135
0.6087	-9.58988	-146.862	-105.626	-6.26168	-3.92052	-2.45255	-4.09569	-96.1722	-8.74259	0.628271
0.6093	-7.42601	-147.49	70.7703	-1.07623	-3.61819	-1.53966	-3.48674	-51.9052	2.23071	0.314135
0.6100	0.491789	161.961	183.083	3.17976	-5.754	-2.1528	-6.23685	39.0374	-0.811168	0
0.6107	2.31141	492.163	165.373	5.96816	-8.50421	-3.06569	-9.58608	79.9193	-12.7083	0.314135
0.6113	-11.9996	381.388	104.964	12.6701	-5.45167	-4.27834	-4.09569	128.136	-10.8832	0.314135
0.6120	-39.7857	116.186	58.258	16.3391	-4.83726	-9.16982	-0.432159	214.5	-5.38526	-0.314135
0.6127	-55.0311	69.5145	-24.4287	13.5996	-7.8898	-13.7479	-0.736635	220.619	-4.77688	-0.314135
0.6133	-51.982	97.8884	-166.366	9.93063	-6.05632	-11.6087	5.97166	165.676	2.23071	0
0.6140	-41.9004	82.939	-328.099	9.58819	-3.61819	-4.59172	10.2441	128.136	7.72863	0
0.6147	-21.1961	87.5135	-441.305	9.93063	-3.92052	3.95133	4.75375	90.5954	3.15454	0.314135
0.6153	2.65566	109.489	-505.091	0.146758	-4.2326	10.6686	-0.127683	23.4572	0.0901298	0
0.6160	26.7533	114.064	-549.943	-16.3391	-6.05632	9.44232	1.09022	-43.0518	0.721039	0
0.6167	47.1625	111.911	-520.648	-17.2685	-10.3377	3.03844	0.481268	-43.9849	-4.1685	-0.314135
0.6173	50.8509	98.1874	-381.491	-8.07169	-10.64	0.599513	0.481268	-5.83717	-8.13422	-0.628271
0.6180	47.8018	88.1115	-108.373	-10.5177	-8.80654	1.21265	6.58061	-17.4247	-3.26721	0
0.6187	37.13	97.5894	207.809	-14.4801	-7.58747	-0.626763	9.63519	-101.966	-2.34338	0
0.6193	22.4747	96.6625	385.099	-9.63711	-3.61819	-4.27834	9.33071	-162.985	-9.35097	-0.314135
0.6200	23.0649	95.7357	438.822	-7.19114	-0.565647	-2.45255	8.11281	-140.721	-16.9895	0
0.6207	30.0975	101.865	387.548	-4.10922	-1.48239	10.0555	4.1448	-101.358	-19.7384	0.314135
0.6213	21.5403	88.7394	222.142	9.00116	-1.78471	15.8598	1.3947	-72.9754	-18.8146	0
0.6220	1.72126	13.9627	64.0508	30.9659	0.351091	3.95133	2.9269	-49.7787	-20.0314	0
0.6227	-4.37692	-203.311	-18.338	33.9989	3.70596	-3.36545	7.80833	-47.0228	-5.99363	0
0.6233	8.40958	-354.987	-21.3834	11.4471	4.31062	3.3382	9.02624	-34.8277	26.3404	0
0.6240	30.0975	-237.515	34.4583	12.0342	3.40364	10.3688	3.53585	17.6634	36.1195	0
0.6247	44.1134	-108.712	103.408	30.6724	2.4869	13.1075	-2.57331	43.616	19.9412	0
0.6253	41.0643	-91.0117	218.468	29.743	1.26783	17.0725	-2.87779	25.6054	7.43571	0.314135
0.6260	27.9828	-17.7897	278.281	26.4164	6.1441	26.2287	-0.127683	52.4477	3.44747	0.314135
0.6267	17.9011	46.3131	169.941	22.1115	16.5208	34.1722	1.69917	68.9393	4.97967	0
0.6273	8.40958	-47.0606	58.8539	4.74518	21.4068	35.6982	0.176792	19.2041	6.51188	0
0.6280	-5.60639	-57.1364	27.143	-5.03869	24.1473	35.3849	-4.40017	0.88968	2.54617	0.314135
0.6287	-7.13093	57.9138	22.5419	-46.5223	24.7617	23.1766	-9.58608	32.3106	1.32941	0
0.6293	7.81944	101.536	23.7666	-116.428	18.9589	-2.1528	-12.3362	75.0369	4.97967	0
0.6300	22.7698	202.265	12.4791	-110.949	15.6041	-14.0477	-15.0863	96.7147	3.44747	0
0.6307	30.3925	223.911	-7.05055	-56.0126	21.7091	-2.75231	-13.5541	93.0475	2.23071	0.314135
0.6313	32.5564	82.939	-49.7841	-29.4494	26.2831	11.8949	-8.0637	78.7041	7.72863	0.314135
0.6320	27.0484	17.9392	-119.363	-23.3345	19.8757	18.9119	-7.75923	57.3518	7.72863	0.314135
0.6327	14.5569	-1.28564	-142.865	-21.231	8.89431	15.8598	-8.0637	71.999	5.58805	-0.628271
0.6333	6.88504	-42.4861	-90.6641	-18.785	0.65342	6.70364	-3.79122	78.4003	5.58805	-0.942406
0.6340	2.65566	-118.19	5.16378	-19.6656	-6.97306	1.81216	-1.04111	15.5368	1.01396	0
0.6347	-12.3439	-167.014	116.847	-22.1115	-13.9949	2.4253	0.481268	-10.112	0.0901298	0.314135
0.6353	-26.3599	-63.5647	76.2651	-19.0785	-16.1307	-9.46957	9.33071	56.7225	8.65246	0
0.6360	-27.8844	29.5399	-117.211	-19.3721	-18.8809	-47.6204	18.7891	86.6461	12.0098	0
0.6367	-26.0648	-9.83668	-228.597	-23.3345	-21.319	-70.8106	17.2667	5.16448	7.12026	0
0.6373	-21.4912	-54.7146	-276.527	-22.454	-17.9642	-54.9508	11.1576	-73.2792	4.97967	0
0.6380	-15.6881	-92.5365	-340.611	-15.7031	-12.7758	-41.816	6.88508	-63.2107	2.54617	0.314135
0.6387	-13.8684	-132.84	-318.93	-7.19114	-6.05632	-40.9031	1.09022	-36.6505	-1.12662	0.314135
0.6393	-3.4917	-149.912	-180.997	-1.07623	2.4869	-30.834	-4.09569	-42.748	-2.02792	0.314135
0.6400	9.93413	-164.264	-48.5594	-1.36974	4.00829	-19.2389	-6.54132	-60.151	-3.56013	0.314135
0.6407	9.34398	-122.465	-37.5698	-6.55519	1.87249	-12.5216	-4.09569	-91.5936	-3.87558	0
0.6413	5.06542	-52.5619	-57.3974	-8.70764	4.31062	-1.2399	2.6126	-112.338	0.0901298	0
0.6420	3.54088	13.6637	54.2859	-7.77818	-0.877728	5.47737	7.19938	-104.7	1.01396	0.314135
0.6427	5.06542	94.2108	213.9	-5.33221	-16.7451	14.3338	6.27613	-74.4944	-2.02792	0.314135
0.6433	17.9011	63.7142	394.566	-1.07623	-18.8809	41.8024	0.785744	-5.22958	-2.95175	0.314135
0.6440	28.2778	-5.26217	559.046	2.59273	-0.565647	65.2924	-0.432159	73.5179	-0.811168	0.314135
0.6447	19.7207	79.2615	506.249	2.29921	10.7278	65.2924	3.84033	120.215	-1.12662	0.314135
0.6453	-1.03276	126.89	270.039	1.95677	10.1134	57.6622	3.84033	123.861	-3.87558	0
0.6460	-15.0487	-1.91352	34.1604	3.52219	14.6873	51.5581	3.23137	69.8507	-4.1685	0
0.6467	-11.9996	-109.639	-55.5769	2.29921	14.9994	42.1021	9.93967	-3.38512	-2.95175	0.314135
0.6473	-5.01624	-122.136	3.93904	1.36974	-0.877728	35.998	15.1256	-4.2965	-0.202792	0
0.6480	-3.4917	-61.7109	-32.3729	3.81571	-17.0474	26.2287	12.9942	39.9488	2.83909	0
0.6487	1.42619	38.9879	-266.464	4.10922	-29.5599	0.286131	11.4719	0.585887	3.76292	0
0.6493	9.34398	106.111	-478.841	-0.146758	-38.1032	-32.9732	11.1576	-64.7296	3.44747	0
0.6500	14.2127	142.736	-558.814	-3.52219	-36.2697	-69.8977	8.11281	15.5368	4.07837	0
0.6507	19.7207	132.063	-522.8	-4.74518	-39.3222	-96.7532	6.27613	131.803	3.15454	0.314135
0.6513	21.2453	-8.61083	-375.996	-6.26168	-28.3409	-86.3707	7.80833	160.793	2.23071	0.314135
0.6520	9.93413	-231.386	-271.628	-4.45166	10.1134	-51.8987	10.8531	241.667	3.76292	0
0.6527	0.196715	-341.862	-118.436	3.52219	28.1166	-29.6077	10.5486	353.659	3.76292	0
0.6533	-4.37692	-313.488	320.088	5.03869	17.4375	-17.4131	1.69917	342.375	-0.518246	0
0.6540	-10.8193	-327.54	675.628	1.36974	14.385	5.17761	-6.54132	197.726	-5.09233	0.314135
0.6547	-9.2948	-293.336	584.997	4.40274	17.4375	13.1075	-5.00912	0.282094	-6.91746	0.314135
0.6553	-3.4917	-55.9106	338.724	11.1536	14.9994	-12.835	-3.48674	-180.084	-10.5903	0
0.6560	9.93413	121.389	231.278	17.2196	11.9469	-42.7425	-3.48674	-267.056	-15.1643	0.314135
0.6567	29.5073	128.714	217.243	18.1491	21.0947	-49.4462	-1.65988	-265.841	-13.9476	0.314135
0.6573	24.8845	197.062	188.246	12.3766	40.9314	-33.2729	-5.00912	-265.233	-11.1986	0
0.6580	11.4587	323.414	143.096	7.48466	56.1941	-21.6778	-8.97713	-215.476	-15.7727	0.314135
0.6587	18.4912	275.188	133.034	6.55519	52.5369	-16.8	-8.97713	-101.966	-21.2706	0
0.6593	21.8354	146.115	122.971	7.19114	26.8975	-6.11775	-12.3362	-69.3082	-18.5217	-0.314135
0.6600	9.04891	141.212	55.2127	7.48466	10.4157	-2.45255	-12.9451	-131.26	-13.9476	0.314135
0.6607	-3.14745	133.886	6.98435	7.19114	20.4901	-2.1528	-11.4228	-166.348	-13.0238	0
0.6613	-17.2126	24.9355	38.0994	2.29921	18.3543	-1.83941	-13.5541	-145.907	-5.38526	0
0.6620	-36.1465	-115.14	75.9672	-7.19114	-0.263318	-6.73089	-15.3908	-128.201	5.29513	0
0.6627	-50.7526	-163.965	63.4549	-5.96816	4.92503	-7.94354	-11.7272	-142.24	10.793	-0.942406
0.6633	-51.3919	-100.49	1.48955	2.59273	14.385	-10.0827	-10.2049	-97.0836	18.7245	-0.628271
0.6640	-37.9661	-37.0146	-89.4393	3.81571	7.67525	-16.1868	-16.3042	-23.8261	25.1237	0.314135
0.6647	-37.9661	25.5634	-176.131	3.81571	10.1134	-15.5737	-23.3268	-38.4949	21.4734	0.314135
0.6653	-50.7526	56.9869	-217.607	5.33221	20.1877	-12.5216	-28.8172	-69.612	16.2684	0
0.6660	-37.671	22.5137	-207.544	1.66326	18.0519	-9.16982	-33.3941	-46.719	12.9111	0.314135
0.6667	-3.4917	-20.2115	-167.889	-3.22868	-1.78471	-0.626763	-29.1216	36.2816	10.793	0.314135
0.6673	13.6225	-121.538	-8.5732	-4.45166	-21.0167	16.1596	-19.0543	111.666	12.9111	0
0.6680	29.5073	-207.288	266.398	-5.96816	-16.433	30.8068	-13.5541	162.942	12.9111	0.314135
0.6687	55.4246	-199.664	375.334	-6.84871	-3.61819	29.8939	-8.97713	307.894	10.1621	0.314135
0.6693	58.4737	-164.862	282.552	-1.07623	-10.0256	24.4029	-5.3136	433.925	8.04409	0
0.6700	36.1956	-41.2901	196.82	1.36974	-27.4241	21.6506	-9.89056	357.933	2.54617	0
0.6707	9.04891	50.8876	98.5422	-2.00569	-29.5599	17.999	-15.9997	166.283	-0.811168	0
0.6713	-13.8684	-166.386	-46.4078	-1.07623	-18.5688	10.9684	-14.7818	13.0848	1.32941	0
0.6720	-16.2782	-453.264	-118.138	2.88624	-10.3377	7.61654	-12.9451	-3.99271	2.54617	0
0.6727	-4.67199	-534.739	-108.373	5.03869	-6.05632	38.7503	-17.2176	52.1439	4.07837	0
0.6733	4.47528	-468.513	-72.3591	3.17976	-6.97306	88.1829	-19.9677	-10.4158	8.04409	0.314135
0.6740	7.81944	-170.662	-34.8224	-2.00569	-20.4023	92.4612	-15.3908	-131.26	7.72863	0
0.6747	5.06542	176.313	-41.244	-4.10922	-32.9148	59.5016	-10.2049	-117.828	1.62234	0
0.6753	3.83595	315.79	-33.8956	-2.59273	-26.8097	37.524	3.84033	-35.7391	2.23071	0
0.6760	11.8029	379.863	14.9286	-4.74518	-9.10887	25.6292	32.52	-6.74855	8.65246	0
0.6767	21.5403	439.69	71.995	-6.84871	-1.48239	33.8588	47.4786	-10.7196	8.33701	0
0.6773	14.5569	451.291	176.959	-2.59273	-4.2326	66.2053	41.065	14.9293	5.58805	0.314135
0.6780	-7.13093	397.264	221.513	1.07623	-2.0968	81.779	31.6066	37.4967	3.44747	0.314135
0.6787	-21.7862	302.037	75.6362	1.07623	-5.45167	79.0267	16.6578	3.32002	-4.77688	0.314135
0.6793	-24.8353	218.111	-77.556	4.10922	-17.6618	77.5006	5.05823	-24.1515	-9.66642	0
0.6800	-26.0648	134.215	-88.8435	6.84871	-25.5907	45.454	0.176792	-21.6995	-8.74259	0
0.6807	-32.163	12.1389	-84.8714	8.70764	-21.319	-30.2209	-5.93237	-0.954778	-10.8832	0
0.6813	-34.917	-83.0885	-82.7198	15.4096	6.1441	-91.2622	-4.09569	17.6634	-9.95934	0
0.6820	-26.3599	-30.8854	-22.906	16.6326	49.4844	-72.3366	1.3947	-13.7575	-3.56013	0
0.6827	-14.7537	71.6373	-32.6708	9.58819	76.3331	-10.3825	-1.96436	-47.9342	-0.811168	0
0.6833	-11.7046	83.238	-145.612	7.48466	71.7592	5.79075	-13.2496	-77.8578	-2.95175	0
0.6840	-9.58988	108.263	-243.856	9.58819	53.4439	-30.834	-18.7498	-134.928	-0.202792	0.314135
0.6847	2.01633	155.563	-289.635	8.07169	34.524	-78.4408	-12.6407	-157.495	7.72863	0.314135
0.6853	3.54088	27.0882	-260.043	6.55519	24.4594	-102.558	-7.15027	-157.191	10.4776	0.314135
0.6860	-8.95055	-144.74	-146.837	6.84871	25.9808	-88.2101	-5.93237	-124.533	8.65246	0
0.6867	-10.8193	-79.7399	34.7562	2.59273	18.9589	-56.4632	-9.89056	-40.6215	5.9035	0
0.6873	-1.96715	11.8399	254.184	-3.81571	4.92503	-33.5863	-15.9997	-13.4537	3.44747	0
0.6880	0.491789	-45.5357	291.092	-6.55519	-0.877728	-22.5907	-10.5093	-45.2001	1.01396	0
0.6887	-6.83586	-58.3623	68.9497	-7.77818	-5.45167	-19.852	1.09022	-77.8578	-1.41954	0
0.6893	-26.6549	-44.6388	-131.246	-8.41413	-9.10887	-28.6949	6.88508	-106.241	4.68675	0.314135
0.6900	-48.3428	-138.939	-223.731	-5.96816	-6.97306	-3.67883	12.6898	-116.613	15.0517	0
0.6907	-48.933	-277.789	-292.383	-0.440274	-6.36841	72.6228	13.9077	-128.808	10.793	-0.314135
0.6913	-30.3434	-286.938	-267.656	3.17976	-6.36841	119.003	9.93967	-95.5429	1.01396	0
0.6920	-21.4912	-76.9892	-115.391	2.29921	-5.754	117.477	11.1576	-3.68892	5.58805	0.314135
0.6927	-17.8027	114.961	118.999	5.33221	-6.67073	105.269	13.2987	42.3791	10.1621	-0.314135
0.6933	-3.14745	169.914	298.109	11.1536	-2.39912	81.1658	11.1576	62.8418	7.43571	-0.628271
0.6940	-4.37692	205.314	274.309	7.19114	2.78923	52.7844	11.4719	89.3803	9.55376	0
0.6947	-28.8188	169.914	166.896	0.782709	4.00829	30.8068	12.0808	65.2721	10.4776	0.314135
0.6953	-53.8508	67.0628	157.131	-1.36974	5.53944	2.73868	4.1448	18.271	4.07837	0
0.6960	-65.1128	-13.1853	217.872	-2.88624	8.89431	-26.2559	-6.23685	-27.1895	-0.811168	0
0.6967	-57.195	-59.5881	232.503	0.440274	16.2185	-57.9892	-9.58608	-75.102	-1.41954	0.314135
0.6973	-46.8183	-51.3361	133.927	6.84871	16.8231	-94.9274	-9.2816	-70.8272	-3.56013	0.628271
0.6980	-41.3102	-20.8394	-33.2998	9.29467	10.1134	-119.33	-8.67265	-69.0044	-2.6363	0.314135
0.6987	-29.704	-57.4354	-165.142	7.19114	13.4683	-117.504	-7.45475	-114.161	3.15454	0
0.6993	-13.8684	-115.738	-264.611	2.29921	11.9469	-73.8627	-5.00912	-105.004	4.97967	0.314135
0.7000	10.8685	-68.7371	-303.372	-4.10922	-7.28514	-10.3825	-2.87779	-55.2686	2.83909	0.314135
0.7007	31.3269	34.4134	-169.71	-3.81571	-19.1832	33.2457	-0.127683	-1.86616	3.76292	0.628271
0.7013	17.9011	-44.6388	1.48955	-0.782709	-21.0167	49.4325	1.3947	93.0475	5.29513	0.628271
0.7020	-18.0978	-270.763	-7.34846	-1.66326	-27.4241	44.5411	2.30812	250.521	2.54617	0.314135
0.7027	-46.5232	-454.789	-96.4568	0.146758	-28.9455	26.8418	4.1448	344.827	2.54617	0
0.7033	-56.5557	-470.965	-116.317	0.782709	-21.6214	6.39026	6.88508	233.725	5.9035	0
0.7040	-53.5066	-201.487	-91.8888	-7.77818	-14.2972	-0.626763	8.72176	52.4477	7.72863	0
0.7047	-35.8022	160.437	-85.7982	-13.8931	0.65342	14.6336	12.6898	-51.6014	12.9111	0.314135
0.7053	-15.393	361.565	-180.07	-11.1536	21.4068	25.6292	20.9303	-19.2475	19.6258	0.628271
0.7060	-10.8193	338.065	-296.653	-7.19114	28.731	30.507	27.3341	97.0185	20.2341	0.314135
0.7067	-15.0487	224.539	-244.187	-0.440274	30.2524	60.1011	27.6386	99.7526	15.9755	0.314135
0.7073	-16.2782	134.215	-134.92	7.77818	37.5765	53.3975	21.2347	-7.65992	10.793	0.314135
0.7080	-16.9175	-12.5874	-182.818	7.19114	38.1909	-33.2729	14.2122	-69.3082	4.68675	0.314135
0.7087	-15.393	-98.0379	-233.496	-1.07623	30.2524	-70.8106	15.4301	-85.1705	1.32941	0
0.7093	2.01633	-54.7146	-16.8154	-6.26168	25.9808	-16.4866	23.3661	-112.035	3.15454	0
0.7100	17.606	-71.7868	304.233	-9.93063	25.064	14.3338	24.8983	-170.319	4.07837	0.314135
0.7107	4.77035	-55.9106	358.85	-19.6656	11.9469	-10.6959	21.8437	-163.31	9.86922	0
0.7113	-13.8684	101.865	249.914	-27.6394	-6.97306	-42.4291	23.0616	-17.7285	19.9412	0
0.7120	-14.7537	213.866	183.976	-23.677	-14.2972	-63.7936	23.3661	76.8813	19.6258	0.314135
0.7127	-27.8844	208.962	75.0403	-10.5177	-19.1832	-84.2451	17.8757	36.8892	10.1621	0.314135
0.7133	-57.195	153.44	-43.0646	4.10922	-24.0693	-83.0189	0.785744	-35.4353	2.23071	0
0.7140	-66.6373	84.4639	-113.57	8.70764	-18.2665	-53.1114	-30.644	-58.0245	-3.26721	0
0.7147	-37.9661	90.2642	-183.447	6.26168	-5.754	-46.7075	-52.3109	-34.2201	-7.23292	0.314135
0.7153	20.0158	118.937	-173.384	14.4801	6.75851	-58.9157	-51.093	-48.8673	-8.44967	0.314135
0.7160	52.6706	93.6129	-36.3451	24.5575	10.1134	-35.4121	-46.8205	-83.044	-11.1986	0
0.7167	38.0153	112.539	121.415	21.5245	-0.565647	4.86423	-44.9937	-80.2882	-13.3167	0
0.7173	30.3925	97.5894	216.349	14.1866	-9.72328	23.1766	-35.5255	-41.2291	-10.5903	0
0.7180	61.8178	39.5859	246.868	10.8112	-14.2972	19.525	-23.0223	48.4984	-8.13422	0.314135
0.7187	73.129	54.5353	257.858	7.48466	-21.6214	7.31678	-13.8586	159.882	-6.91746	0.314135
0.7193	33.7367	46.6121	241.043	2.88624	-22.8502	-2.45255	-5.3136	212.677	-2.02792	0.628271
0.7200	-5.60639	-28.7626	159.879	2.59273	-18.2665	-4.59172	1.09022	160.49	3.15454	0
0.7207	-16.9175	-50.4391	96.3906	4.74518	-17.3498	-3.36545	-1.04111	32.9181	3.15454	-0.942406
0.7213	-10.8193	-0.986658	56.4375	2.59273	-19.1832	-0.313382	-4.70464	-87.6226	4.3713	0
0.7220	-6.83586	43.2634	-43.6604	3.81571	-17.6618	4.86423	-6.54132	-99.5139	6.8048	0.628271
0.7227	-3.78677	-10.4646	-175.204	5.33221	-15.526	3.3382	-12.0317	-14.6906	3.76292	0.314135
0.7233	6.88504	-167.014	-238.361	2.29921	-15.214	-3.97858	-17.5221	79.0079	-0.811168	0.314135
0.7240	4.47528	-268.939	-174.907	2.59273	-11.8591	-2.75231	-16.3042	163.853	0.405584	0
0.7247	-5.60639	-311.664	-107.446	4.10922	-9.42095	3.65158	-11.4228	179.108	2.54617	0
0.7253	0.786862	-406.563	-188.941	1.95677	-10.0256	6.0905	-8.0637	218.471	2.54617	0
0.7260	-2.26223	-318.362	-302.147	1.66326	-9.72328	7.0034	-6.23685	393.651	1.62234	0
0.7267	-13.2291	-51.665	-217.011	2.29921	-10.3377	8.84281	-6.23685	452.543	-2.34338	0.314135
0.7273	-9.88495	-2.51149	-29.0297	-1.36974	-17.6618	10.0555	-5.61807	281.334	-6.30909	0.628271
0.7280	-16.9175	-183.488	-16.8154	0.782709	-23.1525	11.5815	-1.34559	131.195	-3.56013	-0.314135
0.7287	-23.9009	-418.163	-90.6641	9.58819	-19.1832	14.6336	3.53585	85.4092	1.32941	-1.25654
0.7293	3.2458	-390.089	-73.5839	8.70764	-17.9642	13.7207	10.2441	-40.6215	1.93779	0
0.7300	27.3434	-206.062	-125.453	0.782709	-22.8502	5.17761	22.1482	-220.358	2.23071	0.314135
0.7307	18.7863	-184.714	-206.022	-4.45166	-29.2576	-3.67883	28.5618	-278.361	4.07837	0
0.7313	11.1636	53.0104	-15.8886	-8.41413	-30.1743	-5.20486	29.7797	-257.291	5.58805	0.314135
0.7320	13.6225	385.962	357.029	-7.48466	-15.214	-7.3304	34.9656	-199.918	6.19642	0.628271
0.7327	-3.78677	399.716	589.863	-1.36974	1.26783	-9.78296	35.8791	-130.045	7.72863	0.314135
0.7333	-24.8353	377.411	565.765	3.81571	5.84177	-5.20486	30.0842	-119.977	8.65246	0
0.7340	-16.5733	344.164	332.303	1.66326	8.59198	4.56447	27.0296	-97.6912	7.12026	0
0.7347	-1.32783	122.286	118.072	-4.10922	4.92503	17.6856	23.3661	-15.9057	6.8048	0
0.7353	-0.44261	-68.4382	87.5526	-7.48466	-14.2972	22.5771	18.7891	37.1929	7.72863	0.314135
0.7360	5.70475	-155.414	39.6552	-7.77818	-30.1743	12.4944	21.5392	17.9672	5.29513	0.314135
0.7367	15.4422	-216.138	-145.281	-5.96816	-30.4767	7.61654	20.0168	21.9382	4.07837	0.314135
0.7373	25.2288	-143.813	-260.97	-3.81571	-24.3716	17.6856	3.23137	74.7331	7.72863	0.314135
0.7380	43.2282	17.3114	-259.745	-5.62572	-21.6214	27.7547	-15.0863	85.1055	10.1621	0.314135
0.7387	59.9982	27.9852	-281.724	-9.63711	-17.0474	35.998	-22.0991	68.3317	10.1621	0
0.7393	63.0473	-133.737	-375.996	-7.77818	-5.45167	45.454	-26.3715	32.6144	9.86922	0.314135
0.7400	57.2442	-131.315	-578.344	-2.59273	5.53944	48.8194	-41.9391	-37.8656	4.97967	0.314135
0.7407	57.2442	84.4639	-625.645	2.29921	17.1352	25.3158	-54.4521	-80.592	0.721039	0.314135
0.7413	62.1621	212.311	-220.354	4.74518	23.845	-24.1168	-44.6892	-88.8378	-1.41954	0
0.7420	61.8178	217.214	174.542	3.81571	16.8231	-47.9201	-29.7306	-143.152	-3.26721	0
0.7427	45.9822	302.665	242.896	0.440274	4.92503	-33.5863	-22.4035	-200.829	-2.34338	0.314135
0.7433	-1.03276	360.339	283.776	-4.10922	-9.10887	-11.9085	-9.89056	-110.516	-0.202792	0.314135
0.7440	-51.3919	169.287	291.721	-5.96816	-16.433	3.95133	1.3947	51.5363	-0.811168	0
0.7447	-58.0802	47.24	245.015	-5.62572	-11.2447	18.9119	-3.18226	151.636	-1.12662	-0.314135
0.7453	-13.2291	123.512	317.97	-5.03869	-5.45167	36.9109	-6.8458	196.814	3.15454	0
0.7460	30.0975	133.587	425.681	-5.03869	-3.92052	50.3454	1.69917	105.872	9.55376	0
0.7467	8.75384	64.3121	412.275	-7.19114	-4.2326	43.3284	9.02624	-94.9353	10.1621	0
0.7473	-34.917	-42.1871	293.839	-8.41413	-9.42095	25.3158	10.8531	-201.133	5.9035	0
0.7480	-44.9986	-185.611	153.788	-4.45166	-12.7758	38.4369	11.4719	-177.025	7.12026	0
0.7487	-43.4741	-302.186	40.251	-0.146758	-10.3377	97.0393	6.27613	-49.4749	11.086	0.314135
0.7493	-41.0152	-372.687	-95.5631	-1.36974	-10.3377	137.615	-5.00912	86.0168	7.43571	0
0.7500	-34.2777	-467.915	-261.565	-2.59273	-12.4735	99.778	-12.0317	23.1534	-0.202792	0
0.7507	-15.6881	-394.663	-316.513	1.95677	-14.6093	27.7547	-9.58608	-110.516	-4.77688	0
0.7513	27.0484	-105.961	-199.6	5.96816	-12.4735	-24.7299	-5.3136	-97.6912	-8.13422	0.314135
0.7520	46.5724	-66.2854	-39.6883	3.81571	-3.92052	-52.1985	-6.54132	-49.7787	-9.66642	0.314135
0.7527	20.3109	-94.3902	-9.50003	7.77818	7.36316	-45.1814	-2.26884	-46.4152	-5.38526	-0.628271
0.7533	5.06542	72.5642	-54.3521	12.0342	18.9589	-28.3951	5.36271	-4.60029	-1.41954	-0.942406
0.7540	7.81944	159.839	7.61327	2.29921	19.8757	-30.5343	7.80833	43.9198	-1.12662	0.314135
0.7547	12.9832	230.938	144.023	-6.55519	14.9994	-24.1168	13.9077	15.8406	2.54617	0.314135
0.7553	18.1962	321.262	241.043	-1.36974	25.064	-25.343	21.8437	23.4572	6.8048	0
0.7560	-2.26223	349.665	238.924	5.33221	43.077	-63.7936	20.6258	130.891	5.9035	0
0.7567	-16.5733	366.738	81.131	7.77818	46.1197	-86.3707	14.2122	199.245	2.83909	0
0.7573	0.786862	342.639	-123.931	6.26168	36.6598	-56.4632	4.75375	186.117	-1.41954	0
0.7580	9.93413	309.063	-196.555	0.782709	27.5119	-17.0997	-5.00912	136.685	-5.09233	0.314135
0.7587	-4.08184	293.815	-201.454	-4.45166	17.4375	-5.50462	-8.97713	83.2827	-2.34338	0
0.7593	-15.0487	267.265	-136.443	-6.26168	1.57016	-13.7479	-6.54132	67.7242	4.3713	0.314135
0.7600	-6.54079	155.264	70.1745	-7.19114	-13.9949	-25.0433	-3.48674	7.29103	7.72863	0.314135
0.7607	-5.31132	-48.9143	107.38	-5.33221	-21.9335	-36.9382	-2.87779	-111.427	6.51188	0
0.7613	-12.934	-160.586	-160.872	-2.00569	-23.7572	-47.0072	-4.40017	-82.7402	5.29513	0
0.7620	6.29489	-134.365	-341.207	-0.782709	-28.6432	-44.2686	-6.8458	-12.5423	4.97967	0.314135
0.7627	41.9987	-63.8637	-329.919	-1.07623	-37.1864	-31.1338	-9.2816	-65.641	3.76292	0.314135
0.7633	62.7522	65.538	-319.261	-1.66326	-36.5818	-15.5737	-12.9451	-50.9938	-0.202792	0
0.7640	66.7357	201.039	-245.71	0.440274	-29.8623	1.51241	-10.8138	11.262	-2.02792	0
0.7647	57.8835	179.063	-27.805	2.29921	-30.4767	10.3688	-5.93237	61.6049	-3.87558	0.314135
0.7653	40.1791	21.2879	219.395	1.66326	-31.6957	7.91629	-4.09569	187.657	-7.84129	0.314135
0.7660	28.5729	-159.689	292.945	0.146758	-28.9455	5.79075	-2.87779	236.177	-8.74259	0
0.7667	17.606	-311.963	118.668	-2.00569	-28.9455	4.26471	-5.00912	106.783	-7.84129	-0.314135
0.7673	-9.2948	-449.916	-29.6255	-2.00569	-31.9981	3.03844	-5.3136	32.0068	-6.30909	-0.314135
0.7680	-28.4746	-476.765	24.9914	-1.07623	-33.2171	6.39026	2.30812	92.4399	-0.811168	0.314135
0.7687	-22.3764	-228.964	153.159	-3.22868	-28.6432	7.91629	8.41729	55.2035	4.07837	0.314135
0.7693	-24.8353	21.8859	317.672	-4.10922	-18.8809	6.0905	5.66718	-99.8177	4.68675	0
0.7700	-46.1789	-1.28564	382.054	-2.29921	-11.8591	4.56447	-0.127683	-163.918	1.01396	0.314135
0.7707	-43.7692	-12.5874	252.363	-1.36974	-5.14934	7.61654	-0.736635	-98.2988	-2.02792	0.314135
0.7713	12.098	186.09	147.366	0.146758	-2.70145	21.3508	2.6126	-22.6109	-0.518246	0.314135
0.7720	69.7848	334.387	117.145	2.59273	-5.14934	32.6462	3.53585	-3.08133	-0.811168	0
0.7727	65.8013	286.489	43.9252	5.62572	-3.01353	36.2978	6.88508	24.0864	-2.95175	0
0.7733	26.4582	136.637	-44.8852	6.26168	-1.48239	50.9586	11.1576	108.91	-5.38526	0
0.7740	-5.01624	-29.6894	-42.4357	1.66326	7.97757	76.288	7.19938	93.0475	-9.95934	0
0.7747	-20.5568	-130.986	75.3382	-0.146758	30.5644	98.2519	5.97166	-72.064	-8.44967	0.314135
0.7753	-18.0978	-164.264	278.281	1.95677	43.077	110.46	12.0808	-209.379	-0.518246	0.314135
0.7760	-9.88495	-182.263	397.611	1.07623	33.6072	109.847	12.9942	-257.291	2.54617	0
0.7767	-16.2782	-171.888	291.092	-1.07623	17.4375	102.83	7.50386	-264.018	0.405584	0
0.7773	-26.6549	-132.212	170.57	-1.07623	9.49897	89.4091	4.44928	-228.3	-1.12662	0
0.7780	-17.2126	-55.0136	120.521	-1.66326	-2.0968	61.9406	3.84033	-130.653	-1.41954	0
0.7787	-14.4586	-44.3398	80.2372	-4.45166	-16.7451	24.4029	0.785744	-31.7681	-0.202792	0.314135
0.7793	-26.0648	-164.563	105.56	-5.03869	-20.7144	-28.6949	-0.432159	-1.86616	4.3713	0.314135
0.7800	-16.5733	-223.164	62.2302	-5.03869	-26.8097	-100.105	4.1448	-21.0919	6.19642	0
0.7807	-14.4586	-215.54	-78.4498	-7.48466	-38.1032	-141.608	6.58061	-34.5239	3.76292	0.314135
0.7813	-30.6384	-205.165	-117.84	-5.62572	-30.1743	-115.066	4.44928	-26.8857	4.97967	0.314135
0.7820	-9.58988	30.4369	-79.9724	-4.45166	-7.8898	-60.4418	1.09022	-5.22958	8.04409	0.314135
0.7827	49.3264	302.366	-49.7841	-7.48466	10.1134	-19.852	-1.96436	-12.2385	6.51188	-0.314135
0.7833	75.2436	159.211	5.16378	-1.07623	27.1998	2.12554	-1.04111	-53.1421	4.68675	-0.942406
0.7840	38.3595	-89.1879	-16.5175	7.19114	29.0333	-1.2399	3.84033	-45.5039	3.44747	-0.314135
0.7847	-4.37692	-11.0625	-155.046	3.81571	11.0301	-25.343	8.11281	10.0469	1.01396	0.314135
0.7853	-20.5568	164.114	-291.489	-2.88624	-10.64	-45.7946	11.7763	45.4388	2.83909	0.314135
0.7860	-31.8679	199.215	-345.179	-3.22868	-25.2883	-53.7245	15.4301	67.7242	8.04409	0.628271
0.7867	-25.1304	244.99	-225.551	1.66326	-26.8097	-64.7065	14.8211	86.0168	9.26084	0.314135
0.7873	0.786862	156.789	-43.0646	3.81571	-20.4023	-78.141	12.6898	35.674	6.51188	0.314135
0.7880	12.9832	-212.49	9.73174	-1.36974	-8.80654	-76.3016	13.2987	-91.5936	6.51188	0.314135
0.7887	15.7372	-427.312	-20.4896	-9.29467	-0.263318	-56.7766	20.3213	-172.771	9.55376	0.314135
0.7893	29.8024	-345.539	-123.004	-15.1161	-4.83726	-34.1858	30.0842	-127.593	9.55376	0
0.7900	45.9822	-133.139	-316.513	-16.0455	-10.9423	-22.9041	33.4432	15.5368	8.33701	0
0.7907	53.9	226.662	-353.719	-11.7406	-13.9949	-7.03065	39.5426	214.803	10.793	0.314135
0.7913	51.4411	539.164	-170.008	-5.96816	-11.8591	16.1596	45.9562	392.414	11.086	0.314135
0.7920	44.7528	569.391	24.0645	1.36974	-4.83726	31.1202	26.1162	429.954	4.68675	0.314135
0.7927	36.1956	400.015	256.931	7.19114	-11.5568	48.506	-2.87779	316.444	-0.202792	0.314135
0.7933	14.5569	192.787	404.331	5.96816	-21.9335	66.2053	-13.2496	134.862	-4.48396	0
0.7940	-12.639	84.1649	266.696	5.33221	-14.2972	100.691	-20.5767	-21.6995	-10.8832	0
0.7947	-27.8844	97.2605	120.521	12.6701	1.87249	137.016	-34.3076	-78.7692	-12.4154	0.314135
0.7953	-23.3108	85.3608	122.64	12.9636	5.22736	90.0086	-43.157	-134.32	-10.2748	0.314135
0.7960	-8.65548	-28.4636	79.0125	5.96816	-4.53493	-25.343	-48.0384	-203.585	-10.8832	0
0.7967	-5.01624	-82.7895	-12.2474	13.8931	-7.28514	-121.469	-48.9617	-103.485	-14.8489	0
0.7973	-13.8684	13.9627	-114.166	23.628	5.84177	-133.378	-44.9937	71.6952	-16.674	0.314135
0.7980	-17.8027	-5.26217	-255.475	15.7031	19.271	-74.1761	-39.189	36.8892	-11.4916	0.314135
0.7987	-6.54079	-80.9358	-347	6.26168	17.7399	-28.6949	-26.0671	-102.27	-3.56013	0.314135
0.7993	18.7863	2.66099	-324.127	5.62572	11.0301	-15.2739	-7.15027	-55.8762	1.93779	0
0.8000	51.146	33.7855	-170.008	5.33221	6.1441	-12.5216	0.785744	103.116	0.721039	0.314135
0.8007	55.7196	-21.1384	62.826	4.40274	2.17482	-14.0477	-4.09569	184.294	-3.87558	0.314135
0.8013	21.2453	-62.9368	185.532	3.52219	4.31062	-11.309	-8.67265	126.617	-5.70071	0.314135
0.8020	11.4587	-69.0361	214.496	2.88624	8.2799	-5.50462	-12.6407	7.89862	-5.99363	0.314135
0.8027	30.3925	-24.1881	314.593	5.03869	14.0827	3.65158	-12.3362	-50.69	-5.38526	0
0.8033	10.5735	78.3645	318.268	6.55519	23.5426	18.9119	-5.61807	-88.534	-3.56013	0.314135
0.8040	-40.3758	116.186	170.57	4.74518	27.5119	24.4029	0.481268	-119.347	-2.02792	0.314135
0.8047	-69.0963	-36.3867	97.6153	-0.146758	20.4901	23.1766	1.3947	-90.6605	-3.26721	0
0.8053	-56.2606	-143.215	87.8505	-2.00569	18.9589	30.507	-2.26884	-61.0624	-5.09233	0.314135
0.8060	-33.0974	-76.6902	-2.48259	7.19114	27.5119	26.8418	-6.54132	-40.0139	-6.91746	0
0.8067	-19.9666	-64.1626	-159.018	14.1866	29.3356	13.7207	-8.0637	8.50621	-9.35097	-0.314135
0.8073	-8.06533	-150.211	-183.745	12.9636	25.9808	10.3688	-7.15027	59.7821	-9.66642	0
0.8080	-9.2948	-177.09	-82.4219	13.2571	24.4594	11.8949	-5.3136	103.42	-8.44967	0.314135
0.8087	-14.7537	-146.862	-142.534	12.9636	18.0519	11.8949	-4.70464	81.4599	-8.13422	0.314135
0.8093	6.29489	-115.439	-130.65	8.36521	8.89431	7.91629	-3.18226	25.3016	-9.95934	0.314135
0.8100	38.3595	-81.8627	229.159	5.62572	4.31062	-1.53966	1.09022	49.7136	-11.1986	0
0.8107	49.0313	-63.5647	371.991	4.40274	2.78923	-1.53966	4.44928	49.7136	-9.95934	0
0.8113	47.5068	-38.2106	114.398	2.59273	1.87249	17.3859	6.88508	-57.7207	-10.2748	0.314135
0.8120	39.2447	23.7396	-14.6638	3.81571	0.351091	34.472	13.2987	-116.917	-8.74259	0
0.8127	11.4587	40.5128	63.4549	9.93063	5.53944	39.963	18.7891	-179.477	-3.26721	-1.25654
0.8133	-11.9996	15.7865	65.5734	9.58819	17.1352	40.5761	16.9623	-303.685	-0.811168	-0.628271
0.8140	-25.4255	64.3121	-3.07841	1.66326	22.9282	46.3805	16.0488	-230.145	0.721039	0.628271
0.8147	-45.8839	121.987	-26.5802	-0.782709	22.0115	62.2403	23.6705	-61.3662	4.07837	0.314135
0.8153	-55.3754	54.8641	-91.5909	-1.07623	17.7399	78.1138	26.7251	-18.6399	3.44747	0
0.8160	-53.5066	-94.3902	-251.801	-2.88624	11.9469	83.6048	20.3213	45.4388	0.721039	0
0.8167	-58.0802	-177.389	-351.601	-2.59273	8.59198	72.9225	20.0168	75.9483	2.83909	0
0.8173	-55.6705	-229.861	-174.278	-2.59273	2.4869	50.9586	21.8437	24.9978	3.44747	0.314135
0.8180	-20.8518	-276.862	154.682	-1.36974	-7.58747	7.61654	15.7444	55.5073	1.32941	0.314135
0.8187	23.9993	-183.787	310.323	-0.146758	-10.3377	-36.6384	4.1448	83.5865	-0.202792	0
0.8193	29.1631	-60.1861	328.033	-1.36974	-6.36841	-11.9085	-8.67265	4.2314	-3.56013	0
0.8200	22.1797	-55.0136	299.334	-4.10922	-5.45167	44.5411	-16.3042	-90.6605	-6.30909	0
0.8207	42.9331	31.0648	213.271	-4.10922	-6.36841	49.4325	-14.4773	-106.545	-3.26721	0
0.8213	52.6706	221.789	163.553	-0.146758	-8.20188	15.8598	-8.97713	-52.8166	0.721039	0
0.8220	23.0649	231.566	118.072	-1.07623	-8.50421	3.65158	-6.54132	-30.8567	1.62234	0.314135
0.8227	-7.42601	89.6363	15.5244	2.59273	-6.36841	23.7898	-8.97713	-25.9743	0.0901298	0
0.8233	-9.58988	24.9355	-56.8016	15.4096	-8.50421	49.1192	-10.8138	28.0358	-4.1685	0
0.8240	2.01633	70.4115	-81.5282	15.4096	-8.20188	59.8014	-9.58608	138.508	-8.13422	0.314135
0.8247	-3.14745	124.438	-72.955	5.96816	0.351091	49.4325	-2.87779	253.559	-5.70071	0
0.8253	-39.1955	139.687	-57.0995	3.17976	4.92503	27.455	9.33071	237.393	0.721039	0
0.8260	-63.2932	125.036	-138.595	1.36974	1.26783	-1.53966	10.2441	189.784	3.44747	0.314135
0.8267	-40.3758	71.9363	-211.814	-0.440274	0.351091	-28.6949	-8.67265	205.972	-1.41954	0.314135
0.8273	-5.01624	1.76402	-137.668	1.36974	12.8636	-44.5683	-21.1856	89.0765	-6.91746	0
0.8280	17.606	-31.2143	-28.4008	3.81571	27.8142	-61.0413	-16.9131	-91.5936	-8.44967	0
0.8287	27.0484	-46.1636	13.406	3.81571	30.5644	-75.3887	-13.2496	-179.477	-9.05805	0.314135
0.8293	14.5569	-72.4147	1.78746	4.74518	27.5119	-71.4238	-9.89056	-278.361	-5.99363	0
0.8300	-0.737683	-62.6378	24.9914	7.19114	25.3761	-69.598	-4.70464	-359.214	-1.12662	0
0.8307	-6.83586	-50.1401	59.1849	5.33221	18.9589	-98.2792	-4.70464	-323.822	-2.34338	0.314135
0.8313	-15.9831	-34.5629	28.3346	1.95677	13.1659	-128.486	-5.3136	-236.242	-3.26721	0
0.8320	-21.7862	17.3114	15.2265	1.95677	12.8636	-107.136	-1.04111	-180.084	1.32941	0
0.8327	-24.8353	37.1641	25.9182	0.782709	12.5515	-57.6895	-1.04111	-137.054	0.721039	0
0.8333	-10.8193	84.7629	-7.97738	1.07623	12.8636	-30.2209	-2.87779	-15.6019	-1.735	0
0.8340	26.114	182.412	-56.8016	5.33221	16.5208	-20.7649	1.69917	93.6551	1.93779	0
0.8347	30.6876	143.962	-98.9063	5.96816	16.8231	-19.5387	3.53585	58.567	1.01396	0
0.8353	4.77035	-1.91352	-153.854	2.88624	15.3017	-16.8	2.9269	7.59483	-3.87558	0.314135
0.8360	-13.2291	-108.413	-155.675	2.29921	18.0519	-8.55668	8.41729	-37.5618	-1.735	0.314135
0.8367	-22.0813	-198.737	-28.4008	-3.52219	18.3543	-22.291	10.2441	-96.476	-0.811168	0.314135
0.8373	-15.9831	-197.212	81.131	-11.7406	16.2185	-44.8681	5.97166	-15.9057	-2.34338	0
0.8380	9.63906	-53.7878	118.072	-10.8601	19.5733	-41.816	10.5486	130.284	3.76292	-0.314135
0.8387	42.9331	45.6852	185.83	-10.5177	21.0947	-34.4992	19.7025	191.932	7.43571	0
0.8393	61.5227	47.539	179.706	-14.8226	17.4375	-34.4992	18.4846	180.323	4.68675	0.314135
0.8400	58.1786	48.1369	45.15	-13.8931	14.385	-28.0953	5.66718	103.42	3.44747	0
0.8407	47.5068	32.8886	-45.1831	-11.4471	12.5515	-21.3781	-7.15027	25.9092	0.721039	0
0.8413	42.2938	18.5372	-90.962	-5.03869	10.7278	-18.6258	-12.3362	-22.3071	-1.12662	0
0.8420	37.4251	28.3141	-170.305	9.93063	12.2492	-12.5216	-6.23685	-78.7692	2.23071	0.314135
0.8427	24.2944	-1.91352	-167.26	18.4426	12.5515	-8.25692	1.69917	-110.516	1.62234	-0.628271
0.8433	18.1962	-32.4401	-107.446	13.8931	8.89431	-4.89148	-8.0637	-73.8868	-2.95175	-0.628271
0.8440	14.2127	-24.786	-105.626	4.10922	7.06084	-3.67883	-17.8266	1.49727	-2.02792	0.314135
0.8447	2.65566	-39.7354	-75.7024	-5.03869	6.1441	-0.92652	-15.9997	46.0463	-1.12662	0.314135
0.8453	-1.32783	-62.6378	10.3607	-8.41413	5.84177	33.5591	-13.8586	46.3501	-1.735	0
0.8460	-16.9175	-44.6388	27.7388	-2.29921	8.2799	75.6748	-8.36818	26.5168	1.32941	0
0.8467	-46.5232	-26.3109	-29.3276	4.40274	7.97757	70.1839	-2.26884	2.40864	1.32941	0
0.8473	-38.8513	-25.1149	-91.5909	3.52219	2.17482	37.2243	1.09022	-1.25857	-2.95175	0.314135
0.8480	-8.95055	-6.78701	-159.349	1.36974	0.0390101	21.3508	9.33071	43.9198	-0.518246	0.314135
0.8487	-9.88495	9.3882	-213.668	3.17976	0.351091	16.1596	10.5486	86.9499	1.01396	0
0.8493	-28.4746	9.98617	-222.506	7.77818	-2.70145	9.7557	3.53585	105.872	-3.56013	0
0.8500	-25.7697	32.5896	-153.523	10.8112	-2.39912	10.6686	5.05823	123.557	-3.26721	0.314135
0.8507	10.8685	61.5615	-43.0646	9.29467	-0.877728	12.8078	7.80833	102.812	-0.811168	0.314135
0.8513	39.5398	78.9625	-2.7805	5.96816	-1.48239	11.5815	3.53585	65.2721	-2.6363	0.314135
0.8520	14.5569	100.938	-55.2789	5.03869	-0.565647	11.8949	1.69917	23.1534	-3.87558	0
0.8527	-26.0648	50.5886	-112.014	4.40274	0.65342	11.2817	2.30812	-43.6811	-2.95175	-0.314135
0.8533	-31.5728	-38.2106	-52.8295	1.95677	0.955749	9.14257	-1.96436	-34.8277	-3.56013	0.314135
0.8540	-24.2452	5.41167	76.563	2.88624	5.22736	15.8598	-5.00912	13.0848	-0.811168	0.628271
0.8547	-15.393	99.7122	155.906	7.19114	9.49897	32.6462	-4.09569	-83.9554	1.93779	0.314135
0.8553	1.08193	76.2118	210.225	8.36521	6.44643	39.0501	-5.3136	-275.302	-2.02792	0
0.8560	-0.44261	-11.9894	243.194	5.62572	3.70596	30.8068	-1.65988	-342.744	-2.34338	0.314135
0.8567	-15.6881	-94.0614	191.325	1.07623	4.00829	21.964	6.88508	-204.496	1.93779	0.314135
0.8573	-17.5077	-153.889	41.4758	-2.88624	3.40364	17.6856	12.3853	12.1734	3.76292	0.628271
0.8580	-8.95055	-146.862	-89.4393	-3.52219	4.31062	18.9119	16.9623	169.951	7.43571	0.628271
0.8587	-5.90146	-90.7127	-88.2146	-2.88624	7.06084	21.6506	19.3981	206.579	11.6943	0.314135
0.8593	-14.7537	-41.2901	-24.4287	-5.03869	6.1441	19.525	16.9623	133.951	8.33701	0
0.8600	-21.1961	-19.9125	19.4966	-7.48466	3.09155	16.473	13.6032	-13.7575	2.83909	-0.314135
0.8607	-4.08184	-35.1609	46.3416	-7.19114	1.57016	14.6336	12.0808	-129.416	2.23071	0
0.8613	20.0158	-63.2358	54.5838	-8.41413	0.65342	12.8078	10.8531	-41.2291	2.23071	0.314135
0.8620	22.4747	-57.4354	32.9357	-7.48466	1.57016	11.8949	10.8531	97.6261	1.93779	0.314135
0.8627	17.2618	-31.8122	-42.7667	3.52219	2.78923	13.4209	12.3853	102.508	4.07837	0
0.8633	16.3766	-23.2612	-150.18	13.2571	0.955749	10.6686	8.11281	87.8613	0.721039	0
0.8640	10.8685	-15.0391	-197.482	12.3766	-2.39912	3.95133	-1.96436	69.5469	-6.30909	0.314135
0.8647	9.04891	14.5607	-167.26	7.48466	-2.39912	10.0555	-7.45475	-22.9147	-6.60201	0.314135
0.8653	18.7863	43.8614	-88.5456	4.10922	-2.0968	30.8068	-8.97713	-100.122	-4.77688	0
0.8660	18.7863	67.9897	-46.1099	3.52219	-1.78471	43.6282	-8.67265	-119.977	-4.1685	0
0.8667	5.3605	83.836	-84.8714	5.03869	-0.565647	46.3805	-3.48674	-130.956	-1.41954	0
0.8673	-1.32783	51.1866	-39.6883	4.10922	-2.0968	45.7673	-0.127683	-86.7112	-1.735	0.314135
0.8680	-16.2782	1.76402	19.1987	0.782709	-4.53493	45.454	0.481268	4.2314	-5.70071	0
0.8687	-38.5562	9.68718	-109.598	1.36974	-3.92052	57.3625	2.00365	95.8033	-5.70071	0
0.8693	-39.1955	35.9383	-223.102	0.440274	-3.31586	77.5006	-0.127683	171.773	-3.87558	0
0.8700	-19.9666	27.3872	-126.678	-1.07623	-2.39912	90.6218	1.69917	196.207	-2.02792	0
0.8707	-6.54079	5.11268	42.4026	3.81571	0.0390101	94.287	9.02624	165.676	0.405584	0
0.8713	-14.4586	-40.9612	129.988	4.40274	-0.263318	56.7493	12.9942	79.6155	-1.12662	0
0.8720	-21.1961	-103.24	116.847	1.07623	-3.92052	-26.5693	10.5486	52.4477	-5.99363	-0.314135
0.8727	-14.4586	-102.911	24.6935	6.55519	-5.754	-63.1805	4.75375	118.371	-8.74259	-0.942406
0.8733	-7.13093	-39.4364	-57.0995	10.2241	-3.31586	-45.1814	2.6126	94.5664	-8.13422	-0.942406
0.8740	4.1802	-12.2884	-54.65	2.29921	-2.39912	-48.8467	5.97166	28.0358	-7.84129	0
0.8747	4.47528	-41.2901	-40.0193	3.52219	-1.48239	-56.4632	12.3853	21.6344	-5.09233	0.314135
0.8753	-3.4917	-71.4878	-32.3729	13.8931	0.0390101	-43.6554	14.8211	11.5658	-4.1685	0.314135
0.8760	9.34398	-55.0136	61.3034	14.1866	-0.565647	-25.6428	10.5486	-14.6906	-7.23292	0.314135
0.8767	27.3434	5.71065	157.429	5.96816	0.0390101	-5.50462	6.27613	-98.6025	-5.99363	0.314135
0.8773	31.3269	39.9148	142.798	0.440274	1.87249	10.9684	2.6126	-219.143	-3.87558	0.314135
0.8780	24.5894	31.0648	100.065	1.95677	1.57016	18.9119	0.481268	-259.439	-5.09233	0.314135
0.8787	9.34398	7.56437	69.5455	7.48466	1.26783	16.1596	3.84033	-210.919	-4.77688	0.314135
0.8793	-6.19654	-13.5142	31.7109	9.00116	2.4869	-7.64379	0.176792	-161.77	-5.09233	0
0.8800	-19.3273	-14.7401	6.68644	7.77818	3.40364	-47.6204	-16.3042	-145.604	-10.2748	0
0.8807	-27.2943	-2.51149	13.406	8.70764	2.78923	-79.6671	-27.2948	-119.347	-13.6321	0.314135
0.8813	-18.4421	5.11268	34.4583	8.07169	1.57016	-91.8753	-34.0031	-61.3662	-11.4916	0
0.8820	3.2458	4.51471	27.143	5.03869	0.351091	-87.8967	-48.3429	-5.22958	-8.44967	0
0.8827	16.6716	2.362	15.8224	4.10922	2.4869	-63.4938	-57.8111	13.3886	-4.77688	0
0.8833	12.3931	1.13615	28.0367	2.88624	6.44643	-33.5863	-56.8879	18.271	-1.735	0
0.8840	0.491789	-6.48802	36.9078	-2.59273	5.53944	-21.9912	-57.5067	7.89862	-2.6363	0.314135
0.8847	3.2458	-14.7401	54.2859	-5.96816	3.70596	-16.4866	-55.061	-16.5133	-2.34338	0.314135
0.8853	23.7042	-10.4646	75.6362	-6.55519	3.70596	-10.3825	-45.9071	-20.7881	-0.202792	0
0.8860	39.884	1.13615	58.556	-5.62572	5.22736	-10.6959	-35.221	-39.4063	0.721039	0
0.8867	34.6711	10.913	23.7666	-3.52219	6.44643	-10.6959	-16.9131	-63.5144	5.58805	0
0.8873	13.6225	8.76032	5.16378	1.07623	5.84177	-14.9606	10.5486	-53.7497	8.65246	0
0.8880	1.72126	0.837164	4.86587	6.26168	4.31062	-22.291	42.9016	-23.2185	4.68675	0
0.8887	5.06542	3.28886	17.3781	10.2241	5.53944	-20.1518	81.963	15.5368	2.83909	0.314135
0.8893	3.83595	5.11268	18.9008	17.8556	6.44643	-14.9606	107.902	31.0954	3.44747	0.314135
0.8900	-3.14745	0.538177	8.80491	19.3721	7.67525	-9.78296	100.575	20.4192	4.3713	0.314135
0.8907	-3.78677	3.88683	4.86587	12.0342	12.5515	0.899269	52.969	23.761	8.94538	0
0.8913	2.31141	6.03954	1.48955	5.96816	14.9994	9.44232	-25.4581	20.1154	10.4776	0
