MR32 ASCII
Name	CYRE30_fast
Frequency	1500
Date	05-09-2015 14:45:47
"Time,s"	"RT TIB.ANT.,uV"	"RT MED. GASTRO,uV"	"RT LAT. GASTRO,uV"	"RT BICEPS FEM.,uV"	"RT VMO,uV"	"RT VLO,uV"	"RT RECTUS FEM.,uV"	"RT SOLEUS,uV"	"RT SEMITEND.,uV"	"Channel 12,uV"
0.0000	148.001	-98.7913	5.87122	13.3097	15.8887	4.71487	1.66882	1.04914	-3.25137	-8499.87
0.0007	133.966	-61.2805	7.7026	14.2329	17.0955	5.01906	2.88835	4.11151	-24.3146	-10486.3
0.0013	82.0978	-43.5585	6.49066	12.0973	16.1703	4.41069	1.98058	4.42342	-19.7344	-9555.59
0.0020	19.8086	-30.4297	2.82788	13.6129	14.9636	4.1065	0.751888	3.20414	22.9858	-9812.27
0.0027	-13.1432	26.6021	1.91218	29.7885	16.1703	5.01906	1.06365	2.58033	62.6525	-9869.6
0.0033	-22.5781	23.8845	0.377051	41.3897	16.8139	6.2358	1.98058	2.26842	91.0383	-9785.86
0.0040	-34.7825	-63.4239	-4.49767	8.12914	14.9636	5.93161	1.98058	-2.29678	110.886	-9815.49
0.0047	-44.2643	-86.007	-7.54101	-60.2383	13.1534	6.84417	1.66882	-8.70506	111.48	-9816.13
0.0053	-51.5869	-45.0896	-5.11711	-96.5577	11.3031	8.36509	1.66882	-7.48579	107.521	-9813.88
0.0060	-54.3094	6.77492	-0.215457	-74.2783	9.49301	7.75672	0.14671	-5.04723	38.8468	-9785.54
0.0067	-41.2132	59.9025	0.996491	-29.7196	9.17121	4.71487	-1.68716	-5.9546	-99.6898	-9887.31
0.0073	-37.5519	28.7456	-1.45434	-3.77523	10.378	1.67302	-2.6041	-7.79769	-162.257	-9768.79
0.0080	-50.0379	-0.229658	-1.75059	-0.730245	11.9065	0.760463	-2.90669	-8.70506	-117.7	-9604.54
0.0087	-54.638	50.7162	-1.13115	-5.60773	10.0964	-0.152093	-4.4288	-6.57842	-47.4983	-10553
0.0093	-55.8585	56.5342	0.0807965	-15.0734	8.84942	-1.9772	-5.64833	-4.73533	1.92255	-7890.52
0.0100	-50.9767	-12.4398	1.61593	-19.0415	9.77458	-2.33209	-5.96008	-5.64269	26.6612	-1310.47
0.0107	-31.7314	-76.5145	-0.538644	-12.3177	8.24605	-2.94046	-7.78479	-6.57842	42.8333	109.501
0.0113	-18.3066	-58.8308	-2.66629	-1.63961	7.96447	-4.46138	-8.70172	-4.13987	19.0276	-259.26
0.0120	-10.0921	22.6596	-0.215457	20.6398	10.0964	-4.76557	-7.17961	-2.92059	-76.5061	-1.93237
0.0127	-1.22044	67.8257	2.20844	50.2353	8.56784	-4.46138	-6.56526	-6.57842	-148.206	55.0726
0.0133	0.281639	91.3274	2.20844	65.5016	7.96447	-4.76557	-6.87702	-10.8317	-95.7316	-28.6635
0.0140	-1.83066	101.394	-1.45434	68.8497	7.96447	-5.67812	-7.4822	-12.3629	5.90901	0.644124
0.0147	-3.98989	59.9025	-5.70962	65.1985	7.03931	-6.59068	-7.4822	-10.5482	41.9002	-0.322062
0.0153	-0.610218	26.6021	-5.11711	40.4666	9.17121	-4.76557	-4.4288	-7.17388	-7.52056	-0.322062
0.0160	3.66131	19.5975	-2.66629	20.0197	10.378	-1.67302	-2.29234	-5.64269	-67.3457	-0.322062
0.0167	-0.328579	15.6168	-2.66629	34.0597	10.0964	-0.760463	-2.6041	-5.9546	-46.9045	-0.322062
0.0173	1.22044	16.5354	-3.28573	35.8922	9.49301	-1.06465	-3.20928	-7.17388	21.77	-0.322062
0.0180	17.0861	13.8178	-2.96254	13.3097	8.24605	-1.9772	-4.12621	-7.48579	34.8886	-0.322062
0.0187	29.5721	7.38734	-1.75059	9.34163	7.03931	-1.06465	-3.82362	-6.86197	80.0685	-0.322062
0.0193	30.7926	2.22003	-1.75059	4.16102	5.83257	0.152093	-3.20928	-6.86197	163.36	-0.322062
0.0200	30.1823	1.91382	-2.37003	-34.9002	3.98224	-0.456278	-2.90669	-5.9546	55.0188	0
0.0207	32.9518	9.83703	-3.58198	-78.8527	0.643594	-1.06465	-2.90669	-4.13987	-137.83	-0.322062
0.0213	31.1211	20.5161	-2.37003	-74.2783	-1.20674	-3.54883	-2.6041	-1.0775	-198.56	0
0.0220	14.3167	20.8223	-0.215457	-9.57585	-0.603369	-9.63253	-3.20928	0.453684	-182.388	-0.322062
0.0227	-7.32262	0.0765527	-0.215457	57.8685	1.85033	-14.1953	-4.74056	-1.98487	-136.925	-2.5765
0.0233	-12.5329	-29.8556	0.996491	66.1078	6.11414	-14.1953	-4.4288	-1.98487	-58.8074	-1.93237
0.0240	-19.527	-44.4771	1.91218	45.9641	9.77458	-15.412	-4.4288	1.36105	39.7798	0.322062
0.0247	-47.9256	-22.5065	0.377051	62.746	9.49301	-20.6339	-9.01348	0.141776	124.004	-0.322062
0.0253	-70.7853	19.5975	-0.538644	72.2116	7.03931	-23.3716	-13.8916	-3.20414	159.402	-2.5765
0.0260	-72.616	25.4155	1.29274	26.7435	8.24605	-18.5046	-13.2864	-2.29678	187.166	-1.93237
0.0267	-69.2833	4.93765	1.91218	-31.5521	10.378	-8.71997	-7.17961	1.04914	169.156	0
0.0273	-70.5037	-2.37314	0.700237	-102.661	8.84942	3.80231	-0.155879	1.04914	60.843	0
0.0280	-67.124	-3.59798	-0.538644	-152.704	4.9074	15.7162	3.80528	-0.765592	-54.2272	0
0.0287	-57.9708	-4.51661	-1.45434	-143.238	1.24696	18.7581	4.41963	-1.38941	-176.592	0.322062
0.0293	-52.4788	-4.2104	-1.13115	-125.244	0.925166	12.6237	1.36623	-1.98487	-286.149	0
0.0300	-48.2073	-5.12903	-0.538644	-73.3552	3.05707	3.80231	-3.20928	-2.29678	-258.074	0
0.0307	-39.054	-6.9663	-0.538644	13.916	5.83257	-3.85301	-6.56526	-1.38941	-132.967	0.322062
0.0313	-29.6191	-9.0715	-0.834898	61.8366	7.32088	-8.1116	-8.39914	-0.765592	-25.8413	0.322062
0.0320	-22.5781	-11.5212	-0.538644	68.8497	7.03931	-9.32835	-9.31607	-0.765592	41.9002	0.322062
0.0327	-14.6452	-11.5212	1.61593	63.9722	7.64268	-9.02416	-9.61866	-0.170131	87.0801	0
0.0333	-9.76349	-10.9088	3.44732	54.2035	9.77458	-9.93672	-8.70172	1.04914	105.373	0
0.0340	-12.8146	-11.8274	3.44732	35.5891	9.77458	-10.5451	-7.4822	0.765592	84.6204	0
0.0347	-16.1943	-13.3585	1.61593	12.0973	7.32088	-10.5451	-8.70172	-1.38941	57.7896	0.322062
0.0353	-15.584	-13.9709	0.377051	-16.9059	5.51077	-11.4576	-10.233	-2.60868	48.6292	0.322062
0.0360	-13.7534	-13.3585	1.29274	-37.0358	5.51077	-11.7618	-9.92125	-1.0775	47.6962	0.322062
0.0367	-11.3125	-11.8274	2.82788	-24.2221	7.96447	-12.066	-9.31607	0.765592	-5.7111	0
0.0373	-9.76349	-9.37771	3.44732	2.93476	11.3031	-12.6744	-8.70172	0.141776	-74.3574	0
0.0380	-9.76349	-8.45908	0.996491	20.9429	10.378	-13.2828	-7.78479	-1.70131	-26.746	0.322062
0.0387	-8.87164	-4.82282	-0.834898	28.576	7.64268	-10.5451	-4.4288	-2.92059	83.4047	0.322062
0.0393	-6.43076	1.3014	0.377051	6.59976	9.49301	-5.67812	0.751888	-1.38941	163.982	0
0.0400	-4.60011	-29.5494	2.53163	-55.3471	12.2283	-1.67302	5.02481	2.26842	196.948	0.322062
0.0407	-3.37967	-101.241	4.03983	-95.9377	13.435	0.760463	8.38997	4.11151	123.693	0
0.0413	-1.54902	-146.101	4.36301	-69.0839	11.3031	1.9772	10.2147	2.89224	-53.2942	0
0.0420	-0.938798	-160.148	3.74357	-27.2809	9.17121	1.9772	8.99514	1.98487	-193.98	0.322062
0.0427	-0.328579	-167.153	4.65927	-6.53087	10.6997	1.67302	7.47303	1.67296	-220.556	0.322062
0.0433	1.83066	-107.365	8.02579	11.4772	10.9813	1.06465	7.16127	1.04914	-213.827	0
0.0440	4.55317	16.5354	11.0691	20.9429	10.6997	0.760463	6.85868	-0.453684	-195.506	0.322062
0.0447	7.32262	88.8777	11.3654	22.4723	13.1534	1.36883	5.94175	-1.70131	-125.022	0
0.0453	7.60426	52.8597	6.78691	39.5572	13.1534	0.760463	4.72222	-1.70131	-42.3243	0
0.0460	5.49197	-38.085	-0.215457	73.4379	12.2283	-0.152093	2.28317	-1.70131	-9.04729	0.322062
0.0467	4.27153	-93.3178	-4.79393	81.9803	12.5099	0.456278	-0.467637	-2.60868	-53.2942	-0.322062
0.0473	3.66131	-17.9516	-4.20142	26.7435	11.3031	1.36883	-0.155879	-4.42342	-87.787	-2.25444
0.0480	4.88175	123.365	0.996491	-34.294	10.0964	4.71487	2.88835	-3.51605	-27.057	-1.61031
0.0487	6.38382	135.269	2.53163	-31.8552	9.77458	5.93161	4.72222	-1.0775	36.7263	0.322062
0.0493	4.88175	49.4913	-2.04685	-12.9377	9.49301	1.36883	1.98058	-2.29678	31.5241	0
0.0500	3.33273	9.83703	-5.11711	-29.7196	10.378	-2.33209	0.14671	-4.42342	-0.81991	0
0.0507	3.94295	7.38734	-6.03281	-40.3977	10.0964	-4.76557	-1.68716	-5.04723	1.92255	0.322062
0.0513	3.94295	4.32523	-6.62532	-12.9377	11.3031	-5.98231	-2.6041	-4.73533	83.0937	0.322062
0.0520	3.94295	8.61218	-5.11711	27.956	15.2854	-5.06975	-1.38457	-3.20414	125.531	0
0.0527	3.66131	15.6168	-3.58198	57.5654	16.1703	-5.06975	-1.68716	-2.60868	19.6213	0
0.0533	4.55317	16.2292	-2.96254	80.451	16.1703	-6.28649	-2.90669	-2.29678	-92.0562	0
0.0540	6.38382	11.9805	-3.87823	93.8847	14.9636	-8.41579	-4.4288	-3.20414	-68.5615	0
0.0547	7.32262	6.46871	-5.11711	78.6185	11.9065	-10.5451	-5.96008	-5.35914	20.5543	0.322062
0.0553	8.21448	6.77492	-3.58198	46.8872	11.6249	-7.50323	-3.20928	-4.73533	69.6924	0.644124
0.0560	10.9839	11.6743	-2.37003	20.9429	11.9065	-4.1572	-0.770226	-2.60868	6.81374	0
0.0567	13.4248	15.0426	-3.28573	1.72228	10.378	-1.9772	-0.155879	-2.29678	-227.568	-0.322062
0.0573	14.3167	10.4494	-3.58198	-16.2858	9.17121	1.36883	1.98058	-2.29678	-452.477	0
0.0580	14.3167	3.75108	-3.28573	-23.6158	7.96447	2.88976	1.66882	-3.51605	-430.51	0
0.0587	13.4248	1.60761	-3.87823	-9.27273	8.24605	3.49813	0.449299	-4.73533	-217.191	0
0.0593	11.8758	-4.82282	-2.66629	5.67662	12.5099	2.28139	-0.467637	-2.92059	-29.2058	0
0.0600	10.9839	-11.5212	-1.13115	-3.16899	16.4921	-1.06465	-3.20928	-1.0775	43.116	0
0.0607	10.6554	-6.04767	-1.45434	-27.8871	16.8139	-5.67812	-5.96008	-2.29678	66.3279	0.322062
0.0613	9.43492	6.77492	-1.45434	-31.249	17.0955	-9.63253	-9.01348	-3.20414	106.306	0.322062
0.0620	7.32262	23.5782	-1.13115	10.5679	16.8139	-12.066	-10.8382	-1.98487	218.916	0
0.0627	6.38382	32.4201	-0.215457	73.4379	17.4173	-13.8911	-10.5356	-1.38941	355.021	0
0.0633	6.38382	16.5354	1.61593	108.531	19.8307	-15.1079	-8.39914	-2.29678	374.869	0
0.0640	6.10218	-12.4398	1.29274	74.0441	18.3424	-14.1953	-5.96008	-3.82796	301.303	0.322062
0.0647	5.77361	-30.4297	0.0807965	9.34163	16.8139	-11.1535	-3.51187	-5.04723	218.916	0
0.0653	5.77361	-24.0376	-0.834898	-5.00149	16.1703	-8.71997	-1.98975	-4.42342	153.606	0
0.0660	5.49197	-1.76071	-1.75059	15.7485	12.5099	-7.50323	-0.770226	-3.20414	111.791	0.322062
0.0667	4.88175	7.69355	-0.834898	33.7566	9.77458	-1.67302	3.5027	-3.20414	38.2531	0.644124
0.0673	4.55317	-1.4545	-1.75059	73.4379	7.96447	0.456278	5.63916	-3.51605	-21.5721	0.322062
0.0680	4.55317	-5.74146	-3.87823	132.946	6.11414	-6.28649	1.66882	-3.82796	110.575	0.322062
0.0687	4.88175	-2.67935	-3.28573	128.978	6.71751	-11.4576	-2.90669	-3.82796	322.366	0.322062
0.0693	4.27153	-1.4545	-2.66629	28.8791	7.32088	-9.93672	-2.6041	-1.70131	294.291	0.322062
0.0700	5.49197	-0.535869	-1.75059	-51.999	8.84942	-6.89486	0.449299	2.58033	13.8254	0.322062
0.0707	8.54306	0.0765527	0.0807965	-95.6345	7.64268	-6.59068	1.06365	5.64269	-268.45	0
0.0713	8.8247	-0.84208	0.377051	-131.954	3.05707	-8.41579	-1.07282	3.4877	-364.888	-0.322062
0.0720	7.32262	-3.29177	-0.834898	-93.4989	1.24696	-11.7618	-3.82362	-1.38941	-328.869	0.322062
0.0727	7.60426	-6.66009	-2.04685	-78.8527	2.1319	-15.7162	-6.26267	-4.13987	-303.254	0.322062
0.0733	8.8247	-7.54044	-0.538644	-160.64	3.98224	-14.8037	-6.26267	-5.04723	-291.662	0
0.0740	9.76349	-5.43524	1.29274	-149.039	4.9074	-9.93672	-3.51187	-5.35914	-259.912	0.322062
0.0747	9.15328	-2.37314	0.700237	14.536	4.30403	-5.06975	-1.38457	-4.42342	-178.118	0.322062
0.0753	8.54306	-2.98556	-1.13115	150.031	3.05707	1.36883	0.449299	-2.29678	-24.3146	0
0.0760	9.43492	-13.0522	-1.75059	156.741	1.24696	5.32324	1.98058	-0.453684	116.682	0
0.0767	12.2044	-21.2817	1.29274	70.9853	3.66044	4.41069	2.88835	-1.70131	251.26	0.322062
0.0773	14.6452	-23.1189	4.65927	-43.7596	9.17121	1.9772	1.98058	-4.13987	410.549	0
0.0780	14.035	-22.5065	3.74357	-126.76	10.6997	-1.67302	-1.68716	-6.26651	391.634	-2.25444
0.0787	12.8146	-14.2771	3.12413	-158.505	9.49301	-4.1572	-3.51187	-5.64269	132.854	-1.61031
0.0793	14.3167	-7.84666	4.03983	-151.795	7.64268	-4.46138	-1.68716	-1.70131	-103.365	0.322062
0.0800	15.8657	-23.4251	4.65927	-93.4989	5.18898	-1.06465	1.06365	0.453684	-230.31	0
0.0807	14.9269	-50.2952	6.1944	-36.1265	3.66044	5.93161	6.2535	1.04914	-327.653	0
0.0813	12.8146	-64.9167	5.87122	-32.4615	-1.20674	9.27765	9.29773	0.141776	-286.46	0.322062
0.0820	10.9839	-69.2037	2.82788	-28.7965	-8.84942	5.32324	4.72222	-3.51605	-87.476	0.322062
0.0827	10.3737	-70.4285	1.61593	-21.4802	-14.32	3.80231	1.36623	-4.42342	-25.8413	0.322062
0.0833	9.76349	-45.3958	1.91218	-40.7008	-16.1703	5.01906	1.98058	-1.98487	-112.215	0.322062
0.0840	10.3737	41.2619	4.95552	-67.5546	-13.3948	3.19394	1.66882	0.765592	-74.9794	0
0.0847	12.8146	113.604	8.6183	-59.6183	-10.378	-1.67302	1.06365	1.98487	33.3619	0
0.0853	12.8146	74.5241	5.87122	14.2329	-12.5099	-6.28649	-1.98975	-1.38941	157.875	0.322062
0.0860	9.76349	13.2053	0.377051	83.8128	-13.7166	-6.28649	-4.12621	-3.20414	286.969	0.322062
0.0867	8.21448	11.6743	-1.45434	104.563	-13.3948	-4.1572	-3.51187	-1.38941	209.134	0
0.0873	7.60426	23.272	-0.538644	109.44	-14.6418	-2.94046	-1.68716	0.453684	24.5125	0.322062
0.0880	6.38382	22.6596	2.82788	36.1954	-12.7914	-1.9772	1.66882	1.98487	28.188	0.644124
0.0887	5.77361	18.3727	4.95552	-70.9164	-12.5099	-1.06465	2.58576	1.67296	159.091	0.322062
0.0893	5.49197	8.30597	3.12413	-45.8952	-16.7737	0.760463	0.449299	-0.453684	214.93	0
0.0900	0.610218	-1.76071	1.91218	70.6822	-20.1123	2.88976	0.14671	-1.98487	124.598	0
0.0907	-7.93284	-9.99013	1.91218	149.728	-19.8307	1.67302	1.06365	-1.70131	-46.5935	0.322062
0.0913	-10.7023	-16.4206	2.53163	172.917	-16.1703	-0.760463	1.36623	0.765592	-118.322	0.644124
0.0920	-12.2044	-15.1957	4.03983	170.175	-14.9233	-2.33209	0.449299	1.67296	-42.6353	0
0.0927	-16.1943	-18.564	1.91218	193.666	-20.7559	-3.85301	-2.29234	-0.453684	-11.7897	-0.322062
0.0933	-17.6963	-25.5686	-0.834898	231.212	-24.0945	-3.85301	-2.90669	-1.70131	-85.6665	0.322062
0.0940	-21.3576	-34.1042	-0.215457	188.183	-24.0945	-2.33209	-0.770226	-1.38941	-150.044	0.322062
0.0947	-31.1211	-69.2037	0.996491	89.5997	-24.4163	1.36883	1.66882	0.141776	-152.192	0
0.0953	-32.9518	-83.5573	1.29274	35.5891	-23.7727	3.80231	2.88835	1.36105	-89.9357	0
0.0960	-15.584	-28.9369	-0.215457	26.4404	-26.2264	1.67302	1.06365	-0.170131	-48.4313	0
0.0967	4.88175	13.2053	-0.834898	22.4723	-28.3584	-0.760463	-1.68716	-1.0775	-98.1631	0.322062
0.0973	10.3737	16.5354	-0.215457	-6.21397	-25.9449	-1.36883	-2.90669	0.141776	-170.202	0.322062
0.0980	12.2044	39.1185	-2.04685	-95.9377	-23.1694	-0.456278	-3.82362	1.04914	-206.504	0
0.0987	18.3066	65.0698	-4.79393	-208.547	-21.3593	1.06465	-3.20928	1.67296	-185.13	0
0.0993	17.0861	63.5388	-5.11711	-255.544	-21.0375	1.36883	-2.6041	1.36105	-132.656	0
0.1000	6.99404	46.7737	-3.58198	-229.297	-22.2442	0.456278	-3.51187	0.141776	-95.7316	0.322062
0.1007	0.281639	32.7263	-2.04685	-159.717	-20.7559	-1.06465	-4.4288	1.04914	-50.2407	0
0.1013	5.49197	23.8845	-1.45434	-67.8715	-17.9804	-2.63627	-5.34574	3.20414	3.44928	-0.322062
0.1020	25.019	19.2913	-0.538644	2.0254	-17.9804	-3.24464	-6.87702	2.26842	45.2647	0
0.1027	38.4438	18.0664	1.61593	2.0254	-18.5838	-3.24464	-7.4822	0.453684	71.5018	0
0.1033	32.3416	15.3105	2.53163	-30.3258	-18.3022	-1.36883	-5.64833	0.453684	70.5971	0
0.1040	39.6642	9.83703	0.0807965	-33.3846	-18.3022	0.760463	-4.4288	1.36105	87.9849	0
0.1047	62.8525	5.24386	-3.58198	-10.1821	-20.4341	0.152093	-3.82362	0.765592	90.7273	0.322062
0.1053	54.3094	2.22003	-6.9485	23.6847	-25.3013	0.152093	-3.82362	-1.98487	8.96247	0.966187
0.1060	1.50208	0.382764	-8.77989	48.0997	-28.6802	2.58557	-4.12621	-3.51605	-88.72	0
0.1067	-45.1562	1.3014	-8.16045	69.4697	-28.0768	5.62743	-1.98975	-1.0775	-152.192	-1.61031
0.1073	-42.1051	1.91382	-7.54101	103.943	-27.1516	7.75672	-0.155879	2.58033	-114.957	-0.322062
0.1080	-13.4248	-0.535869	-8.77989	112.196	-27.1516	9.58183	-0.155879	4.11151	29.9974	0.644124
0.1087	5.16339	-4.2104	-10.2881	82.8897	-29.2835	11.1028	-1.68716	2.58033	116.682	0.322062
0.1093	21.0291	-3.59798	-9.07615	48.706	-31.7372	11.1028	-4.4288	-1.0775	61.4367	0
0.1100	58.581	-1.76071	-5.11711	29.7885	-28.9617	10.4944	-4.4288	-2.29678	-44.7558	0.322062
0.1107	113.219	-1.14829	-2.04685	35.5891	-27.1516	8.06091	-3.20928	-0.453684	-58.1854	0
0.1113	122.982	1.91382	2.53163	68.5466	-31.0936	2.58557	-4.74056	3.20414	62.6525	0.322062
0.1120	111.999	8.61218	9.53399	98.156	-36.9262	-5.06975	-8.70172	7.45743	202.433	0
0.1127	173.959	16.8416	16.8595	73.4379	-40.8682	-12.6744	-12.6721	10.8317	258.894	-1.93237
0.1133	231.93	23.8845	24.5083	25.2141	-38.7363	-16.0204	-12.0577	17.8355	252.165	-1.61031
0.1140	187.994	25.7217	27.2554	25.8204	-34.1507	-16.933	-9.61866	27.3061	231.413	0
0.1147	78.7182	21.4348	22.3537	62.4428	-33.8691	-17.5413	-9.01348	30.3685	205.798	0
0.1153	-46.7052	13.5116	13.1968	58.1716	-38.7363	-14.8037	-8.09655	29.7447	147.188	0
0.1160	-182.502	3.13866	1.91218	-15.6796	-43.6437	-9.32835	-6.56526	26.0868	99.5767	0.322062
0.1167	-337.826	-4.82282	-6.32906	-93.802	-46.379	-4.46138	-5.34574	20.274	98.361	0.322062
0.1173	-446.774	-4.51661	-6.9485	-114.249	-48.1891	-3.54883	-3.51187	16.0207	62.0587	0.322062
0.1180	-411.991	1.91382	-2.66629	-79.762	-51.568	-1.36883	-3.51187	14.4895	-3.56237	0.322062
0.1187	-253.616	5.55007	-1.45434	-24.5252	-55.51	2.88976	-5.34574	12.051	-37.4332	0.322062
0.1193	-51.5869	4.93765	-2.66629	-15.6796	-57.3603	9.27765	-6.26267	6.23815	-55.7539	0.322062
0.1200	101.625	4.01902	-1.13115	-63.2833	-45.7756	20.8874	-6.87702	0.765592	-49.958	0.322062
0.1207	125.423	5.55007	3.12413	-46.1983	-19.2274	34.6264	-5.96008	-2.92059	2.85555	0.322062
0.1213	119.321	11.3681	6.78691	35.8922	2.1319	45.3236	-3.20928	-2.60868	94.7138	0.322062
0.1220	207.193	15.3105	8.32204	51.7647	11.3031	47.1487	-5.64833	2.26842	174.358	0.322062
0.1227	331.396	11.6743	9.85718	27.956	19.8307	40.7101	-12.9746	5.9546	128.585	0
0.1233	346.98	2.83245	11.6886	14.536	40.3051	37.3641	-16.945	6.86197	-14.8432	0.322062
0.1240	233.15	-5.43524	12.2811	-4.07835	61.9459	43.1436	-16.945	5.9546	-87.476	0.322062
0.1247	130.305	-9.0715	13.1968	-10.1821	61.3425	63.017	-14.5059	3.20414	-90.5294	0.322062
0.1253	81.4876	-9.0715	15.0282	-4.38147	36.9262	81.9272	-8.39914	0.453684	-60.3341	0.322062
0.1260	46.3766	-9.99013	12.2811	5.07038	6.11414	79.4937	-4.4288	-5.9546	19.3386	0.644124
0.1267	17.0861	-13.9709	5.27871	1.10226	-2.41348	77.3644	-4.4288	-16.3326	41.3065	0.322062
0.1273	-5.49197	-16.4206	1.29274	-10.8021	5.18898	85.2732	-2.29234	-24.584	-19.1124	0
0.1280	-5.21033	-17.3392	-0.538644	-34.9002	-6.07392	84.9691	0.14671	-30.6804	-94.5159	0
0.1287	0.610218	-19.1382	-5.11711	-87.092	-31.7372	84.9691	3.20011	-35.5575	-174.754	0
0.1293	-11.9227	-23.1189	-10.2881	-86.4858	-54.625	88.0109	9.91208	-37.0887	-185.441	0.322062
0.1300	-54.0278	-25.8748	-12.4427	-25.4483	-73.8524	80.1021	16.9266	-36.4648	-107.945	-0.322062
0.1307	-104.066	-25.5686	-12.4427	3.541	-86.3623	70.3175	20.897	-35.8694	-58.4964	-0.322062
0.1313	-152.883	-24.9562	-12.1195	14.2329	-90.9479	73.6635	25.1699	-34.0263	-31.0152	0.322062
0.1320	-249.626	-25.5686	-11.8232	36.8154	-95.4932	80.4063	29.7454	-30.3685	53.2094	0.322062
0.1327	-324.402	-24.3438	-11.2038	33.1504	-103.136	74.5761	34.6327	-28.5537	152.701	0
0.1333	-313.136	-21.2817	-10.2881	9.0385	-111.06	54.7533	39.8225	-30.6804	240.573	0
0.1340	-296.942	-18.564	-11.2038	41.3897	-111.664	32.4971	42.5642	-27.618	353.495	0
0.1347	-283.188	-17.6454	-12.7389	78.3153	-100.682	42.231	42.2616	-16.0207	389.514	-0.322062
0.1353	-222.166	-20.363	-15.486	48.706	-92.758	67.5798	35.8522	-7.48579	204.865	0
0.1360	-151.053	-24.3438	-19.1488	19.4135	-64.0778	41.9269	26.692	-4.13987	-25.2193	0.322062
0.1367	-8.87164	-21.2817	-16.4017	-14.7702	-5.47055	-32.1929	23.336	-1.98487	-138.452	0.322062
0.1373	204.752	-13.0522	-9.07615	-50.7727	26.87	-75.5393	20.897	-0.170131	-242.524	-1.61031
0.1380	198.368	-3.59798	-2.04685	-8.96961	38.4547	-55.4124	17.541	10.5198	-308.117	-1.93237
0.1387	34.5008	5.85628	4.95552	22.4723	51.8898	-15.412	13.5707	30.9639	-292.878	-0.322062
0.1393	31.1211	11.6743	10.1534	-41.9271	39.7017	16.933	7.47303	51.72	-253.494	0.322062
0.1400	156.544	13.5116	15.3513	-50.4696	8.24605	30.9762	6.85868	66.0677	-228.161	0
0.1407	221.556	14.124	18.0984	58.7778	-25.0197	26.0585	9.60949	71.2567	-264.492	0.322062
0.1413	190.717	14.124	17.1827	116.77	-56.1536	17.5413	5.02481	71.5686	-266.019	0.322062
0.1420	218.787	12.2867	15.9439	76.1797	-82.9834	21.1916	-4.12621	59.9714	-170.796	0
0.1427	243.524	7.08113	11.6886	34.9829	-111.06	22.1041	-15.7255	32.4951	-91.4624	0
0.1433	185.225	1.91382	4.03983	20.6398	-125.42	-30.672	-25.1882	6.55006	-62.1436	0
0.1440	162.365	-0.535869	-0.538644	38.6479	-118.984	-163.145	-23.3544	-6.86197	-43.2291	0
0.1447	155.042	-1.76071	-0.538644	52.371	-111.06	-286.745	-15.4229	-9.32888	-39.8646	0.322062
0.1453	199.87	-2.67935	-0.834898	-24.2221	-97.6251	-264.742	-11.7551	-7.48579	-74.9794	0.322062
0.1460	280.466	-5.12903	-5.41337	-113.036	-79.9263	-108.797	-12.3695	-6.86197	-104.27	0.322062
0.1467	261.831	-7.84666	-10.6113	-118.823	-72.9272	51.7115	-13.8916	-11.7674	-83.2068	0.322062
0.1473	206.911	-7.84666	-10.6113	-114.855	-31.0936	144.184	-14.8085	-20.9262	-79.8423	0
0.1480	133.966	-6.35388	-9.3724	-126.153	55.2686	189.659	-19.9984	-26.7106	-128.076	0
0.1487	-25.3475	-6.35388	-9.99184	-110.584	115.364	216.174	-33.1197	-29.773	-157.988	0
0.1493	-152.883	-6.04767	-9.3724	-57.1796	129.403	248.57	-43.1877	-29.4611	-121.969	0
0.1500	-128.474	-3.59798	-6.32906	6.90288	119.346	293.082	-43.802	-21.2097	-21.2611	0.322062
0.1507	-22.2964	-0.229658	-2.04685	33.4535	92.4764	329.128	-40.7486	-12.3629	96.5233	0.644124
0.1513	89.4205	3.13866	2.20844	22.7754	62.2677	358.736	-35.5588	-9.92434	165.198	0.322062
0.1520	183.112	8.30597	6.78691	12.7035	32.3808	345.301	-31.9002	-7.17388	167.036	0.322062
0.1527	177.902	15.0426	11.6886	20.9429	-1.52854	285.782	-37.3927	-0.170131	137.123	0.644124
0.1533	81.159	19.5975	14.4356	4.46414	-30.2087	235.743	-42.5825	10.5198	121.262	0.322062
0.1540	28.3517	20.2099	15.9439	-50.7727	-43.6437	173.791	-33.7249	19.6785	91.3493	0
0.1547	59.5198	22.0472	19.3104	-86.7889	-47.9075	97.1872	-9.92125	26.0868	37.6311	0
0.1553	75.9957	23.5782	23.8888	-98.3764	-25.0197	23.0167	17.8436	33.0906	55.6408	0.322062
0.1560	-60.13	18.6789	23.5926	-87.092	36.0413	-85.6281	35.8522	36.4648	159.402	0.322062
0.1567	-310.085	10.7557	17.479	-51.999	82.7018	-209.533	35.2379	31.5877	213.714	0.322062
0.1573	-428.186	6.1625	13.1968	-43.7596	99.7973	-287.658	24.5555	23.0245	137.123	0
0.1580	-379.04	1.60761	10.4497	-62.6771	108.968	-304.439	15.1019	15.3969	51.0606	0
0.1587	-346.98	-8.45908	3.74357	-65.4189	102.854	-279.698	4.41963	11.1436	50.1559	0
0.1593	-346.698	-19.1382	-6.32906	-52.6052	82.4202	-201.269	-1.98975	6.55006	28.7817	0
0.1600	-291.45	-24.0376	-14.8666	-37.3527	47.6259	-129.583	6.85868	-11.1436	-20.3564	0.322062
0.1607	-220.946	-25.2624	-20.0645	-8.66649	7.64268	-145.451	23.336	-36.4648	5.90901	0.322062
0.1613	-188.323	-25.8748	-22.4884	33.7566	-10.6595	-195.49	24.253	-52.0319	28.7817	0.322062
0.1620	-117.819	-24.3438	-20.657	56.9591	8.56784	-232.093	7.47303	-55.6897	-56.3476	0.322062
0.1627	36.0029	-20.9755	-17.3174	53.9003	79.685	-263.222	-5.64833	-48.0621	-142.099	0.322062
0.1633	205.972	-17.3392	-15.486	49.326	167.254	-281.828	-15.7255	-34.6501	-127.171	0
0.1640	296.331	-15.5019	-11.2038	33.7566	199.916	-262.917	-25.4908	-23.0528	-151.881	0
0.1647	276.194	-14.5833	-4.20142	4.46414	184.953	-203.703	-22.1348	-6.26651	-272.125	0
0.1653	196.537	-13.6647	-1.13115	2.32852	149.555	-157.01	-13.589	13.5822	-297.458	0
0.1660	93.692	-6.35388	2.53163	44.4347	97.062	-132.016	-16.6424	31.5877	-175.998	0.644124
0.1667	-12.5329	2.83245	8.02579	81.3603	44.2471	-106.059	-22.74	49.8769	-60.9278	0
0.1673	-87.5898	8.30597	10.7729	67.6372	6.71751	-70.064	-17.2476	64.5365	-27.99	-2.25444
0.1680	-51.2584	17.454	14.4356	45.0547	-28.9617	28.1878	-9.31607	71.2567	-19.4234	-1.28825
0.1687	223.387	22.9658	14.1125	24.911	-69.2668	135.616	-6.56526	52.3154	3.44928	0.644124
0.1693	550.511	19.5975	9.23774	-41.9271	-62.5493	177.441	8.99514	17.5519	7.71847	0.322062
0.1700	513.616	15.923	2.82788	-121.276	-17.0955	219.267	34.3209	4.42342	-28.8948	0.322062
0.1707	177.902	8.91839	-7.54101	-146.6	-7.32088	261.346	43.4811	0.141776	-56.6586	0.322062
0.1713	-91.8613	-2.06692	-17.3174	-115.172	-22.8878	279.698	33.1014	-15.4253	-45.6888	0.322062
0.1720	-242.632	-7.84666	-20.3607	-71.8258	-25.6231	294.654	1.98058	-27.3345	-43.5401	0.322062
0.1727	-356.743	-9.37771	-20.657	-47.4246	-29.8869	271.739	-26.096	-27.618	-52.3895	0
0.1733	-401.618	-13.0522	-22.1921	-39.4883	-48.5109	215.566	-17.8619	-23.3647	-14.8432	0.322062
0.1740	-397.018	-18.564	-25.2355	-40.7008	-66.5315	203.398	3.20011	-19.9904	49.5339	0.322062
0.1747	-362.235	-20.9755	-24.0235	-45.2752	-70.192	276.606	12.0485	-14.5179	76.393	0
0.1753	-217.613	-11.5212	-11.2038	-48.334	-74.4558	356.86	19.98	-1.70131	66.9217	0
0.1760	-90.3593	7.38734	9.53399	-48.6371	-70.192	304.692	28.8285	12.9583	61.4367	0.322062
0.1767	-170.298	21.741	27.2554	-48.6371	-20.7559	169.482	40.4277	24.2437	92.2541	0.322062
0.1773	-322.289	26.9083	35.1734	-55.3471	23.813	110.622	58.1246	36.1529	145.068	0
0.1780	-383.593	27.5207	35.7929	-60.2383	22.8878	44.0562	61.4897	38.9034	169.467	0.322062
0.1787	-397.956	27.5207	34.554	-33.6877	11.9065	-152.447	52.9439	23.9602	130.422	0.322062
0.1793	-388.193	27.2145	31.2144	23.3816	-4.86718	-336.479	45.9202	6.23815	68.7594	0.322062
0.1800	-261.549	22.6596	23.2694	68.5466	-37.5296	-360.561	32.7988	3.7996	50.4669	0.322062
0.1807	6.99404	13.2053	11.3654	75.8766	-74.7373	-268.443	17.541	12.9583	18.4056	0
0.1813	279.527	3.13866	-1.45434	66.7141	-99.1537	-176.275	17.2384	14.4895	-52.7005	0
0.1820	364.066	-6.35388	-13.3584	55.7328	-98.2687	-164.666	45.315	1.98487	-73.7637	0.322062
0.1827	353.363	-14.8895	-21.8959	28.576	-88.4942	-196.098	79.801	-13.8941	-43.2291	0.322062
0.1833	494.981	-17.033	-22.4884	0.496015	-83.3052	-240.661	79.4892	-28.2418	-20.3564	0.322062
0.1840	532.533	-10.2963	-13.3584	-3.77523	-80.8515	-341.651	63.0119	-35.5575	3.76028	0.322062
0.1847	337.498	0.688975	-3.28573	4.16102	-82.9834	-366.695	61.7923	-29.4611	29.4037	0.644124
0.1853	309.428	0.382764	-1.13115	-8.66649	-65.8879	-232.397	57.822	-23.9602	21.148	0.322062
0.1860	377.819	-16.4206	-3.28573	-39.1714	-15.5669	-122.232	28.5259	-25.4914	-5.4001	0.322062
0.1867	296.613	-26.181	-3.28573	-38.5652	78.1564	-81.3695	-1.98975	-26.7106	-2.65764	0.644124
0.1873	246.857	-17.9516	0.377051	-8.04647	241.71	-85.6281	-7.4822	-25.8033	35.1996	0.644124
0.1880	139.787	-9.0715	4.03983	5.67662	379.64	-174.754	-14.1942	-23.6483	80.6622	0.322062
0.1887	-112.609	-4.51661	5.87122	-4.07835	419.623	-183.272	-35.5588	-20.9262	100.51	0
0.1893	-202.029	-1.76071	6.1944	-15.6796	423.284	-60.8877	-31.2859	-14.8014	83.7157	0.322062
0.1900	-162.365	-3.29177	4.03983	-26.3577	386.357	20.8874	18.1553	-8.70506	63.2745	0.322062
0.1907	-172.129	-4.51661	0.996491	-39.1714	304.581	36.7557	61.4897	-9.32888	54.1141	0
0.1913	-198.978	-5.12903	-2.96254	-49.8633	278.033	35.2348	64.8457	-14.5179	31.5241	0.322062
0.1920	-170.298	-7.84666	-6.9485	-46.8046	312.223	-5.67812	57.5194	-19.395	4.66501	0.644124
0.1927	111.67	-4.82282	-3.28573	-34.9002	301.242	-63.3212	54.7686	-21.5216	-10.263	0
0.1933	478.505	2.83245	4.95552	-34.294	280.164	-27.326	48.0566	-20.9262	-35.0017	0
0.1940	388.474	7.08113	10.1534	-35.8233	259.127	133.487	40.4277	-18.1757	-83.8288	0.322062
0.1947	29.9007	11.9805	16.5633	-27.584	172.121	278.127	36.4574	-10.8317	-131.44	0.322062
0.1953	-28.3986	19.2913	23.5926	-16.589	48.2293	330.041	27.6089	-2.60868	-132.345	0
0.1960	112.28	19.9037	22.0575	-4.07835	-71.7205	292.778	5.94175	0.765592	-81.991	0.644124
0.1967	85.1489	11.3681	11.6886	12.4004	-137.005	102.662	-25.7934	-0.170131	-28.5838	0.322062
0.1973	-85.4775	0.0765527	0.996491	22.4723	-147.061	-113.715	-60.582	-6.57842	-5.4001	-1.61031
0.1980	-215.454	-6.04767	-2.37003	17.2779	-151.969	-113.106	-81.644	-14.5179	-15.1542	-1.93237
0.1987	-320.459	-6.66009	-0.538644	1.40538	-156.836	55.9701	-89.5755	-11.7674	-42.6353	0
0.1993	-399.505	-7.27251	-0.215457	-13.544	-163.553	197.568	-93.5458	-7.79769	-56.0649	0.322062
0.2000	-368.947	-7.54044	0.700237	-14.7702	-177.913	257.696	-86.5221	-14.5179	-49.647	0
0.2007	-206.911	-7.54044	1.91218	-12.0146	-187.97	283.957	-75.8398	-28.5537	-49.025	0.322062
0.2013	-50.0379	-14.8895	-2.66629	-20.874	-201.405	327.607	-72.7956	-37.0887	-53.2942	0.322062
0.2020	-47.9256	-27.4059	-9.99184	-28.7965	-244.123	409.687	-85.9169	-29.4611	-51.4847	0.322062
0.2027	-105.896	-38.085	-17.3174	-30.0227	-297.22	496.329	-121.925	-18.4593	-49.958	0.322062
0.2033	-78.4365	-44.1709	-21.2764	-21.1771	-338.731	462.463	-146.646	-21.2097	-46.2825	0
0.2040	22.2495	-42.6399	-19.445	10.2648	-365.883	278.431	-139.622	-27.0226	-34.3797	0
0.2047	166.308	-31.6546	-13.9509	26.1235	-261.219	119.748	-107.272	-20.6143	-28.5838	0
0.2053	274.974	-13.6647	-6.03281	-1.33649	9.49301	-36.5022	-46.8554	-15.4253	-33.164	0
0.2060	187.994	0.688975	-2.37003	-27.584	277.711	-273.006	0.14671	-24.8676	-34.3797	0.322062
0.2067	-50.0379	8.61218	0.700237	-29.7196	470.306	-360.257	3.80528	-30.9923	-28.8948	0.322062
0.2073	-242.632	17.7602	10.7729	-27.2809	535.309	-291.612	12.9655	-26.1152	-23.0989	0.644124
0.2080	-369.886	23.272	18.0984	-33.6877	506.307	-255.921	44.0955	-20.6143	-20.6391	0.322062
0.2087	-407.72	22.9658	19.9298	-38.8683	501.722	-226.618	56.9051	-12.6748	-16.3699	-1.28825
0.2093	-213.952	22.3534	20.2261	-32.1583	481.891	-185.705	49.2761	3.4877	-1.41364	-1.28825
0.2100	53.089	17.7602	15.0282	-16.9059	455.946	-128.062	23.336	19.9904	16.5678	0.322062
0.2107	79.0468	6.77492	3.74357	-1.94273	415.038	-20.0255	-16.6424	24.8676	26.0392	0.322062
0.2113	-23.5169	-4.51661	-6.62532	-4.69837	293.599	88.6193	-26.4078	22.1171	26.0392	0.322062
0.2120	-42.1051	-9.99013	-11.527	-26.6608	154.422	208.265	2.58576	23.3364	15.3521	0.644124
0.2127	-96.1329	-12.1336	-14.5703	-45.2752	115.083	469.206	47.1397	25.7749	2.54455	0.322062
0.2133	-223.997	-15.1957	-19.1488	-52.3021	156.876	753.923	88.3376	24.5556	-2.94037	0.322062
0.2140	-277.696	-16.4206	-19.7682	-54.4377	134.913	767.662	99.9369	17.8355	-5.0891	0.322062
0.2147	-202.358	-9.37771	-10.9075	-51.0758	-16.1703	540.284	78.5723	2.26842	-0.50891	0.322062
0.2153	0.891858	6.46871	3.44732	-41.624	-195.009	266.568	54.7686	-11.1436	13.2317	0
0.2160	224.607	22.0472	14.7319	-24.8283	-256.03	106.009	55.3829	-19.6785	27.255	0.322062
0.2167	457.758	30.5828	21.1418	4.76726	-228.556	140.534	70.6408	-27.618	38.8468	0.644124
0.2173	794.082	28.4393	21.438	36.1954	-209.047	225.046	83.7621	-26.3987	48.6292	0
0.2180	885.896	24.1907	21.438	50.8554	-198.348	228.697	102.376	-14.8014	56.2628	0.322062
0.2187	620.404	27.8269	24.8045	56.036	-151.043	82.8398	124.657	-2.92059	62.6525	0.322062
0.2193	384.203	22.0472	17.7752	65.1985	-34.7943	-226.618	125.272	1.04914	69.0704	0.322062
0.2200	201.701	1.60761	-1.13115	73.1209	14.682	-496.379	104.21	-5.35914	68.7594	0.322062
0.2207	-16.8045	-12.746	-13.6546	87.1609	-87.569	-577.85	73.9967	-18.4593	64.4902	0
0.2213	-114.158	-13.6647	-10.6113	99.3684	-233.464	-473.819	32.4962	-33.1189	65.1122	0
0.2220	-117.491	-10.2963	-3.58198	91.7491	-378.715	-268.139	-14.1942	-42.5896	66.3279	0
0.2227	-166.637	-9.68392	-2.37003	79.8447	-524.569	-275.744	-46.8554	-44.7162	69.6924	0
0.2233	-193.205	-8.15287	1.91218	71.9085	-620.424	-450.6	-56.309	-40.151	71.5018	0.322062
0.2240	-113.548	-2.98556	12.6043	65.5016	-624.085	-371.258	-58.4455	-32.2116	67.8547	0.644124
0.2247	28.6803	-2.98556	15.9439	62.746	-563.949	-99.3672	-79.8101	-32.2116	65.1122	0.322062
0.2253	49.1461	-9.0715	11.6886	56.6422	-484.304	110.622	-99.6435	-35.5575	58.3833	0
0.2260	-58.9095	-12.1336	10.1534	49.9322	-403.131	229.001	-69.7422	-38.3079	48.0072	0
0.2267	-98.5737	-13.0522	8.32204	52.371	-331.692	295.567	-13.8916	-41.0584	42.8333	0.644124
0.2273	-89.4205	-13.9709	4.95552	52.6741	-263.672	326.391	6.2535	-33.1189	37.9421	-0.644124
0.2280	-89.1388	-11.8274	8.02579	56.036	-186.16	211.307	-8.39914	-15.4253	36.1043	-1.61031
0.2287	-94.9124	-6.35388	16.267	69.4697	-126.346	-41.065	-29.7637	-5.04723	39.7798	-0.644124
0.2293	-131.244	-4.51661	22.6769	67.0172	-102.211	-330.041	-47.158	-6.26651	37.6311	0.322062
0.2300	-183.394	-8.15287	24.1851	56.036	-82.9834	-717.928	-47.7632	1.36105	31.8351	0
0.2307	-250.847	-11.5212	17.479	59.701	-69.2668	-999.907	-38.3096	0.765592	34.8886	0.322062
0.2313	-304.264	-14.8895	6.78691	55.4297	-62.5493	-876.966	-42.8851	-23.3647	39.4688	0.644124
0.2320	-296.66	-15.8081	2.53163	38.6479	-22.2442	-618.763	-50.514	-35.2456	40.0908	-0.644124
0.2327	-256.057	-10.6026	2.53163	34.3629	36.6446	-551.64	-42.8851	-27.9299	43.116	-1.93237
0.2333	-182.784	-0.84208	3.74357	42.9191	64.3996	-530.245	-30.9833	-19.0831	50.1559	-0.322062
0.2340	-61.9606	7.99976	8.32204	45.0547	62.8711	-437.469	-27.9299	-24.584	51.3716	0.966187
0.2347	50.9767	12.5929	11.9848	34.9829	49.1545	-340.738	-28.2325	-48.0621	43.427	0.322062
0.2353	96.1329	11.0619	13.8162	29.1822	29.0019	-234.223	-30.0663	-54.1869	41.3065	0.322062
0.2360	64.4015	3.44487	11.6886	27.6529	6.11414	-127.149	-37.0901	-28.8373	42.8333	0.322062
0.2367	13.7064	-2.37314	9.53399	19.1104	-17.6988	-61.8003	-35.2562	5.33079	37.3201	0
0.2373	-38.1621	-8.45908	9.85718	1.10226	-43.0001	-23.3716	-19.0814	34.0263	32.4571	0
0.2380	-96.7431	-19.1382	2.82788	-23.0096	-63.4744	16.3246	-11.4525	42.8731	28.188	0.322062
0.2387	-106.225	-23.4251	-6.32906	-34.5971	-76.5877	51.1031	-17.5502	32.1832	19.3386	0
0.2393	-67.4526	-14.2771	-5.41337	-24.8283	-82.38	77.6686	-7.78479	19.0547	12.6097	0.322062
0.2400	-29.9007	-1.76071	-2.37003	-13.544	-50.0394	120.052	17.541	8.08125	9.2452	0.644124
0.2407	0	2.83245	-5.11711	-13.8471	20.1525	175.92	23.6478	1.67296	6.50274	0.322062
0.2413	17.978	-4.82282	-12.4427	-19.6477	75.3809	177.137	16.6241	-9.92434	4.66501	0.322062
0.2420	19.8086	-16.1144	-20.657	-17.8152	109.894	88.3151	17.2384	-28.5537	3.76028	0.322062
0.2427	16.4759	-20.9755	-25.8549	2.93476	141.631	-78.277	12.3511	-26.1152	5.59801	0
0.2433	6.10218	-18.832	-27.39	27.3497	175.5	-245.832	1.98058	-2.60868	10.7719	0.322062
0.2440	-5.49197	-11.215	-24.6429	31.621	196.256	-260.18	-8.70172	1.98487	13.8254	0.322062
0.2447	-6.10218	2.83245	-16.1054	30.4085	191.952	-131.104	-19.384	-6.57842	13.2317	0
0.2453	-5.21033	14.124	-7.24476	43.5254	174.575	-21.2423	-16.945	-2.92059	12.6097	0
0.2460	-3.66131	12.2867	-6.03281	47.4935	138.252	-20.6339	-9.31607	1.04914	10.1782	0.322062
0.2467	-0.610218	4.32523	-11.527	30.4085	84.5521	-33.1055	-8.39914	-0.765592	5.90901	0.322062
0.2473	-3.37967	-5.12903	-21.5727	26.4404	42.7588	18.7581	-14.8085	-0.453684	12.6097	0
0.2480	-4.88175	-13.3585	-27.9825	45.9641	31.4556	28.7962	-28.5442	3.20414	27.255	0.322062
0.2487	-1.22044	-12.4398	-24.9392	54.5066	28.7204	30.0636	-34.3393	12.9583	27.566	0.644124
0.2493	-0.610218	-3.90419	-20.3607	17.581	10.9813	87.4025	-27.0129	23.6483	9.8672	0.644124
0.2500	-3.66131	6.46871	-17.3174	-54.7408	61.061	131.966	-28.2325	30.652	-4.4671	0.322062
0.2507	-5.49197	11.0619	-15.7823	-90.7571	173.368	138.049	-49.8997	27.3061	-4.7781	0.322062
0.2513	-7.32262	7.38734	-19.7682	-57.7996	209.651	110.014	-66.6888	-1.0775	-6.30483	0.322062
0.2520	-4.60011	5.55007	-20.0645	-18.1183	191.952	64.2338	-58.7573	-32.2116	-7.83156	0.322062
0.2527	2.11229	6.77492	-17.3174	-14.7702	176.425	-11.4576	-47.158	-37.0887	14.4474	0.322062
0.2533	4.55317	4.93765	-17.9368	-37.3527	137.97	-127.758	-41.3538	-20.6143	51.3716	0.644124
0.2540	3.94295	3.13866	-15.7823	-51.0758	83.3454	-179.621	-33.4223	6.86197	87.0801	0.322062
0.2547	3.33273	4.32523	-11.2038	-40.7008	30.8523	-103.93	-30.9833	28.8373	119.424	0.322062
0.2553	3.33273	3.13866	-12.1195	-40.3977	-25.3013	-22.7632	-31.2859	33.7144	109.67	0.644124
0.2560	2.72251	0.382764	-14.5703	-54.4377	-78.1162	-0.152093	-19.9984	30.9639	59.599	0.644124
0.2567	2.44087	-0.84208	-13.3584	-57.7996	-96.0966	27.2753	-5.34574	30.0566	6.50274	0.322062
0.2573	2.44087	-1.4545	-12.1195	-68.4777	-78.3978	86.7942	4.11704	31.5877	-87.476	-0.644124
0.2580	1.50208	-2.67935	-12.1195	-79.762	-41.4716	144.184	13.8824	30.3685	-208.936	-0.966187
0.2587	-0.328579	-3.29177	-11.527	-54.4377	3.05707	195.135	15.4045	26.0868	-237.011	0
0.2593	-2.44087	-2.98556	-10.2881	-9.87897	31.1339	239.394	5.02481	27.3061	-141.505	0.322062
0.2600	-3.66131	-2.67935	-9.07615	18.5041	39.0581	196.656	-5.04315	33.0906	-50.2407	0
0.2607	-3.66131	-2.98556	-7.54101	27.956	44.2471	140.229	0.14671	35.2456	-57.2806	0
0.2613	-3.66131	-4.51661	-6.32906	1.40538	41.2302	178.354	17.541	32.4951	-77.0999	0.322062
0.2620	-4.27153	-6.35388	-6.32906	-45.8952	22.6062	216.833	25.1699	25.7749	-44.4448	0.322062
0.2627	-3.98989	-7.27251	-7.24476	-40.7008	9.49301	242.436	28.5259	18.7712	-20.0454	0
0.2633	-2.76945	-6.35388	-6.03281	8.73538	21.6811	273.564	40.4277	19.6785	-30.4215	0.322062
0.2640	-1.22044	-5.43524	-3.28573	22.4723	36.9262	255.262	54.1634	23.0245	-58.4964	0.644124
0.2647	-2.44087	-7.27251	-3.58198	1.10226	29.9271	248.266	56.2999	18.1474	-80.4643	0.322062
0.2653	-4.27153	-9.37771	-5.11711	0.496015	65.3248	309.559	46.5345	13.2703	-67.0347	0.322062
0.2660	-4.27153	-9.99013	-4.20142	13.916	161.14	389.56	34.3209	14.8014	-41.1086	0.322062
0.2667	-3.66131	-10.9088	-2.66629	11.1741	209.651	429.509	21.8139	17.8355	-29.2058	0.322062
0.2673	-2.76945	-10.6026	-0.538644	6.29664	181.896	306.517	12.3511	20.274	-15.1542	0.322062
0.2680	-1.83066	-8.45908	1.61593	15.1423	133.063	10.1902	14.185	21.4933	0.395819	0.322062
0.2687	-2.15923	-7.84666	0.996491	27.0466	87.8908	-185.097	19.6775	19.3666	2.23355	0.322062
0.2693	-2.76945	-9.0715	-2.37003	33.7566	45.7756	-135.667	12.6537	14.1776	-0.50891	0.322062
0.2700	-3.37967	-9.0715	-2.96254	37.7247	10.378	-64.2338	3.80528	12.051	8.02947	0.322062
0.2707	-3.37967	-8.15287	-1.45434	39.8604	-12.7914	-164.057	6.2535	12.051	38.8468	0.322062
0.2713	-3.37967	-7.84666	-1.45434	42.2991	-21.0375	-312.652	7.77562	11.4272	91.3493	0.644124
0.2720	-3.05109	-7.54044	-2.37003	42.2991	-22.566	-355.085	0.449299	9.61243	124.909	0.322062
0.2727	-2.15923	-7.54044	-1.75059	34.6797	-15.5669	-305.351	-13.8916	8.67671	118.208	0.322062
0.2733	-1.22044	-6.66009	-1.13115	20.3366	24.7381	-222.968	-30.0663	9.30052	119.735	0.322062
0.2740	-0.328579	-4.82282	0.377051	6.90288	87.2874	-148.189	-39.5291	11.4272	123.693	0.322062
0.2747	0.610218	-2.37314	2.82788	-3.47211	123.61	-102.409	-39.2265	14.1776	29.9974	0.322062
0.2753	1.50208	-2.06692	1.91218	-12.3177	110.779	-80.7612	-39.2265	13.2703	-127.454	0
0.2760	1.22044	-2.98556	-1.13115	-12.0146	127.592	-54.1957	-43.1877	10.8317	-199.493	0
0.2767	0.610218	-2.67935	-1.75059	-7.13711	194.406	-38.0231	-42.2708	10.2079	-172.012	0.322062
0.2773	0.610218	-1.76071	-0.215457	-4.38147	222.482	-55.4124	-32.5054	11.1436	-111.282	0.322062
0.2780	1.22044	-0.84208	2.20844	1.40538	225.218	-53.5873	-14.5059	13.8657	-53.2942	0.322062
0.2787	1.22044	-0.229658	3.12413	2.32852	200.801	-27.9343	-5.64833	13.8657	-30.7325	0
0.2793	0.891858	-1.14829	1.61593	-9.27273	127.874	-16.6288	-9.01348	10.5198	-41.7023	0
0.2800	1.50208	-1.4545	2.20844	-19.0415	57.6821	2.58557	2.58576	10.2079	-65.819	0.322062
0.2807	1.83066	-2.06692	1.61593	-21.7833	-3.94201	46.8445	27.6089	11.1436	-96.3253	0.322062
0.2813	1.50208	-2.37314	0.996491	-15.0734	-46.379	114.881	44.0955	13.2703	-100.906	0.322062
0.2820	2.44087	-1.76071	3.12413	1.40538	-34.7943	163.398	47.1397	16.0207	-62.4546	0.322062
0.2827	1.83066	-2.37314	-2.04685	16.6716	-21.6408	149.355	43.1785	14.4895	-15.7762	0
0.2833	1.22044	-2.06692	-8.16045	33.1504	-46.6606	105.096	49.5879	16.9281	29.9974	0
0.2840	3.05109	2.83245	-6.03281	45.0547	-77.5128	59.9245	53.8608	19.9904	75.1773	0.322062
0.2847	3.94295	7.99976	-2.66629	38.951	-97.3436	70.0133	42.2616	14.1776	124.004	0.644124
0.2853	3.66131	2.22003	-1.45434	34.3629	-107.722	146.313	34.0183	10.5198	194.177	0.322062
0.2860	3.66131	-0.229658	0.0807965	49.326	-116.571	124.969	29.1402	16.0207	233.872	0
0.2867	4.88175	10.7557	4.65927	64.2753	-124.817	2.28139	21.1996	18.7712	193.273	0.322062
0.2873	5.16339	15.6168	7.40635	63.366	-120.231	-59.3668	11.746	19.0547	104.157	-0.322062
0.2880	5.49197	11.0619	3.44732	61.2304	-119.91	-116.756	1.98058	26.6823	23.6078	-1.28825
0.2887	7.32262	-6.04767	-2.66629	59.3979	-123.288	-220.838	-2.6041	39.4989	-31.0152	-0.322062
0.2893	6.7124	-25.2624	-9.3724	52.991	-114.721	-244.616	-5.34574	42.2493	-86.8822	0.644124
0.2900	3.94295	-28.6307	-10.9075	38.0279	-104.986	-168.924	-10.233	32.807	-136.303	0.322062
0.2907	2.72251	-31.0421	-0.834898	10.5679	-87.569	-97.8462	-11.4525	27.9016	-190.643	0.322062
0.2913	6.10218	-17.9516	9.85718	-3.16899	-72.3239	-67.6305	-8.09655	30.3685	-233.363	0.644124
0.2920	8.54306	4.93765	8.02579	17.8841	-70.4735	-48.6696	-7.78479	22.1171	-148.206	0.644124
0.2927	5.77361	-15.1957	1.61593	37.1185	-44.5286	-29.1511	-12.0577	4.73533	31.8351	-0.644124
0.2933	1.50208	-34.1042	2.53163	4.46414	7.03931	-15.412	-13.8916	-10.8317	134.691	-1.28825
0.2940	-2.44087	-4.51661	8.32204	-31.5521	37.248	-6.59068	-10.5356	-18.4593	154.2	0
0.2947	-9.15328	26.9083	7.7026	-22.0865	42.437	1.06465	-9.01348	-15.7372	133.758	0.644124
0.2953	-14.9738	32.7263	1.61593	-23.919	37.8514	8.36509	-8.70172	-5.04723	15.6631	0.322062
0.2960	-18.0249	27.5207	3.74357	-55.3471	18.624	13.5869	-4.74056	9.30052	-134.494	0.644124
0.2967	-19.527	29.0518	15.6476	-64.2065	-8.52762	16.3246	-1.98975	22.429	-167.742	-0.322062
0.2973	-21.9679	20.5161	22.0575	-53.5146	-11.9065	25.7543	-1.98975	52.0319	-116.173	-1.61031
0.2980	-25.9578	-12.4398	16.8595	-65.7221	55.872	46.2361	2.88835	122.211	-88.72	-1.28825
0.2987	-24.4087	-44.1709	0.377051	-77.9295	135.195	51.7115	8.38997	189.952	-85.0445	-0.966187
0.2993	-15.8657	-57.9121	-26.7706	-59.0121	142.838	8.06091	7.16127	217.116	-49.958	0
0.3000	-2.44087	-39.9223	-41.4217	-34.294	123.932	-41.065	7.47303	229.649	11.3939	0.322062
0.3007	14.6452	-14.2771	-32.2648	-20.874	102.573	-31.8887	6.85868	198.203	44.9537	0
0.3013	26.8496	-6.9663	-18.5293	-12.0146	62.2677	-0.456278	3.5027	107.268	65.7059	0.322062
0.3020	30.1823	12.8991	0.996491	-6.21397	22.6062	19.6706	5.33657	24.5556	93.7808	0.322062
0.3027	28.3517	30.2766	18.6909	-3.47211	-23.4912	38.2766	9.29773	-55.4062	107.832	0.322062
0.3033	22.2495	10.1432	14.4356	6.29664	-69.8702	47.7571	12.9655	-158.846	147.499	0.644124
0.3040	17.0861	-2.98556	8.94148	21.8522	-87.8908	52.624	19.3749	-225.679	235.682	0.322062
0.3047	13.4248	16.5354	15.3513	29.1822	-101.286	62.1045	24.5555	-216.521	330.905	0.322062
0.3053	6.7124	30.2766	19.9298	24.911	-120.231	45.3236	23.336	-167.097	393.161	0.322062
0.3060	-2.76945	26.0279	19.9298	17.8841	-117.496	13.2321	18.7605	-112.173	418.805	0.322062
0.3067	-10.9839	17.1478	12.2811	17.2779	-109.853	-3.54883	13.5707	-72.1925	407.495	0.322062
0.3073	-16.1943	7.69355	4.65927	20.6398	-110.457	-38.9357	8.69255	-48.3741	308.937	0.322062
0.3080	-20.1372	-1.4545	2.20844	15.7485	-72.3239	-61.8003	5.33657	-22.7409	211.593	0
0.3087	-23.7985	-13.6647	-13.0352	-8.96961	-8.52762	-43.8027	2.28317	-4.73533	211.282	0.322062
0.3093	-23.5169	-43.8647	-35.9275	-45.8952	19.5492	-34.0687	1.36623	-1.98487	84.9314	0.322062
0.3100	-20.1372	-60.3618	-46.2964	-70.9164	8.56784	-20.3297	0.449299	-4.73533	-275.773	0
0.3107	-11.3125	-34.1042	-48.7472	-75.4908	8.56784	-10.8493	-1.38457	0.453684	-568.452	0.322062
0.3113	5.16339	-10.6026	-44.465	-64.8127	57.0787	-34.6771	-4.74056	24.8676	-538.54	0
0.3120	21.9679	8.61218	-25.2355	-47.1077	89.7411	-47.4529	-9.61866	32.807	-302.943	-0.644124
0.3127	35.111	37.0133	10.7729	-34.9002	60.4576	-27.0218	-12.6721	-9.01697	-94.2049	0
0.3133	40.2744	45.2427	42.499	-36.1265	22.0029	0.760463	-13.589	-71.2567	-14.5605	0.322062
0.3140	34.1722	41.5681	48.2894	-47.1077	5.18898	14.4995	-12.6721	-120.396	-78.3439	0
0.3147	21.9679	39.7309	34.554	-55.0439	-5.47055	12.9279	-8.39914	-125.585	-175.376	0
0.3153	11.2656	28.7456	23.5926	-56.8764	-29.6053	8.66928	-5.04315	-82.854	-180.578	0
0.3160	6.10218	21.741	20.5223	-54.1346	-58.567	10.4944	-1.68716	-37.996	-161.042	0.322062
0.3167	8.21448	28.1331	17.479	-36.7327	-79.9263	21.4958	5.02481	-12.6748	-198.56	0
0.3173	10.6554	24.8031	15.6476	-7.74335	-101.286	34.3222	8.99514	-13.8941	-245.86	-0.644124
0.3180	8.21448	7.08113	8.6183	11.4772	-111.985	36.1473	8.07821	-35.2456	-238.848	-0.644124
0.3187	3.05109	0.0765527	-3.58198	19.1104	-105.268	19.6706	7.47303	-39.2153	-165.311	0
0.3193	-1.83066	16.5354	-6.32906	35.8922	-104.664	-3.85301	5.02481	-22.429	-70.9929	0.322062
0.3200	-2.44087	30.889	-1.75059	34.9829	-105.59	-8.41579	2.58576	-5.35914	-21.5721	0.322062
0.3207	0.610218	17.454	2.82788	-0.427124	-92.758	9.88602	4.41963	-0.453684	-36.5284	0.322062
0.3213	1.50208	-3.90419	4.95552	-0.427124	-71.3987	29.1511	1.66882	-14.206	-51.1737	0.322062
0.3220	1.22044	-2.06692	6.49066	36.5122	-52.4931	34.018	-4.4288	-31.8997	-21.5721	0
0.3227	-0.328579	15.3105	14.7319	59.3979	-43.9253	27.2753	-7.17961	-30.0566	38.8468	0.322062
0.3233	-4.60011	20.8223	18.0984	69.1528	-42.1152	18.7581	-7.17961	2.26842	98.672	0.322062
0.3240	-8.87164	0.0765527	4.03983	61.2304	-37.2078	14.4995	-3.51187	51.0962	93.7808	0
0.3247	-10.9839	-31.6546	-15.1898	38.0279	-30.4903	12.0153	-2.29234	81.9183	44.9537	0
0.3253	-9.48186	-35.0229	-24.6429	29.1822	-26.8298	10.4944	-6.56526	85.888	46.4804	0.322062
0.3260	-8.54306	-21.8941	-24.3198	34.3629	-23.4912	5.62743	-7.4822	81.3229	69.6924	0.322062
0.3267	-8.54306	-21.2817	-20.657	31.3179	-17.9804	-5.37394	-5.04315	68.1944	40.6845	0
0.3273	-6.43076	-22.8127	-17.0211	27.6529	-7.60245	-8.71997	-3.20928	42.5612	22.3638	0
0.3280	-2.44087	-20.0568	-22.8116	28.576	1.24696	1.36883	0.14671	29.7447	46.4804	0
0.3287	3.05109	-2.98556	-37.7589	20.9429	-0.603369	7.45254	-0.467637	7.17388	38.5641	0
0.3293	9.15328	26.0279	-35.3081	13.6129	3.05707	7.14835	-4.4288	-67.5989	12.6097	0.322062
0.3300	14.9269	40.0371	-14.5703	10.871	18.0206	7.14835	-5.04315	-119.177	15.9741	0.322062
0.3307	19.1984	42.4868	2.20844	-3.47211	23.813	7.45254	-5.34574	-89.8861	25.1345	0.644124
0.3313	18.9168	53.1659	17.479	-16.9059	26.5482	8.36509	-4.12621	-53.2512	-0.197909	0.322062
0.3320	15.8657	72.0744	28.4673	-8.04647	30.5305	9.88602	-0.467637	-49.9052	-53.2942	0
0.3327	13.0962	72.993	15.6476	2.63164	27.4734	7.75672	-1.98975	-38.9318	-92.3671	0
0.3333	10.3737	47.9986	-4.79393	-6.21397	24.7381	6.84417	-4.12621	-6.86197	-96.9473	0.322062
0.3340	9.15328	27.2145	-8.16045	-15.0734	25.0197	10.7986	-2.6041	18.7712	-54.8209	0.644124
0.3347	10.6554	8.30597	-4.79393	-7.13711	18.624	14.4995	-2.29234	15.7088	-1.72464	0.644124
0.3353	12.2044	-14.2771	-2.04685	-4.07835	11.9065	18.7581	-2.90669	1.98487	19.3386	0.322062
0.3360	11.2656	4.01902	4.36301	-15.9827	8.24605	22.7125	-1.07282	-0.453684	10.1782	0.322062
0.3367	6.99404	28.1331	5.57496	-18.4215	-0.281572	22.1041	-0.770226	-5.35914	28.4707	0.322062
0.3373	1.50208	-12.746	-0.215457	-7.13711	-7.60245	18.7581	-1.38457	-14.5179	135.596	0
0.3380	0	-50.2952	-3.58198	2.93476	-9.45278	16.3246	-1.98975	-16.3326	185.639	0
0.3387	3.33273	-32.5732	2.20844	7.81224	-7.92425	16.3246	-2.29234	-10.8317	138.339	0.322062
0.3393	7.32262	-24.3438	9.85718	13.0066	-3.05707	13.5869	-1.98975	1.98487	161.24	0.322062
0.3400	6.38382	-38.6974	6.78691	16.0654	-0.884942	8.06091	-4.12621	1.36105	217.983	0
0.3407	1.22044	-38.3912	-2.37003	8.73538	0	6.53998	-6.26267	-24.2721	235.088	0.322062
0.3413	-2.44087	-28.3245	-3.28573	-2.86587	4.30403	8.97346	-5.04315	-41.3703	189.908	0.322062
0.3420	-3.98989	-28.6307	0.377051	-10.1821	7.03931	10.4944	-3.20928	-30.9923	5.90901	0
0.3427	-6.7124	-31.0421	0.996491	-10.4852	7.96447	12.6237	-1.38457	-15.4253	-189.117	0
0.3433	-7.32262	-1.4545	3.44732	2.0254	8.56784	15.7162	1.06365	-1.0775	-189.428	0.322062
0.3440	-6.43076	52.2472	5.27871	20.0197	7.32088	15.1079	1.66882	28.5254	-78.3439	0.322062
0.3447	-5.82055	65.0698	2.82788	33.1504	7.03931	10.4944	1.06365	56.909	-7.52056	0.322062
0.3453	-2.76945	38.506	1.61593	51.1585	5.18898	5.62743	0.751888	67.5989	42.2113	0
0.3460	0.891858	22.0472	5.27871	78.3153	7.32088	4.71487	1.66882	68.1944	90.1336	0.322062
0.3467	2.44087	3.75108	7.7026	96.3234	26.2667	5.01906	2.88835	58.1283	98.361	0.322062
0.3473	2.11229	-12.746	7.7026	91.1291	45.494	2.88976	0.751888	32.1832	35.1996	-0.966187
0.3480	-1.54902	3.13866	9.85718	72.8178	47.6259	1.9772	-1.68716	-9.01697	-62.4546	-1.28825
0.3487	-10.0921	17.7602	6.49066	43.8285	38.1732	3.49813	-1.07282	-44.7162	-74.9794	0.322062
0.3493	-12.5329	11.3681	0.996491	-1.03337	26.5482	4.71487	-1.98975	-59.064	-79.5596	0.644124
0.3500	-1.54902	11.3681	8.94148	-25.4483	17.6988	9.58183	-1.07282	-44.7162	-190.954	0
0.3507	12.486	31.5015	21.438	-6.53087	6.71751	16.0204	2.58576	3.20414	-220.839	0.322062
0.3513	18.9168	45.2427	22.9732	27.0466	-6.07392	15.1079	1.36623	46.531	-106.419	0.322062
0.3520	11.8758	18.3727	15.0282	64.2753	-13.3948	9.58183	-1.38457	41.03	-19.4234	0.322062
0.3527	0.281639	-11.5212	4.03983	78.9216	-19.2274	5.93161	-1.98975	3.4877	2.23355	0.322062
0.3533	-2.15923	-15.5019	-4.20142	29.4854	-21.9626	7.14835	-1.38457	-14.5179	31.2414	0.322062
0.3540	-3.98989	-28.0183	-5.41337	-50.7727	-19.5089	11.7111	2.58576	-15.1133	87.6739	0.322062
0.3547	-11.3125	-48.7641	-8.45671	-88.6214	-21.6408	12.6237	5.02481	-26.7106	166.725	0.644124
0.3553	-13.1432	-37.1664	-21.5727	-68.7808	-23.1694	7.75672	1.66882	-24.2721	229.292	0
0.3560	-10.0921	12.5929	-26.4743	-36.7327	-16.7737	3.49813	-1.07282	-4.42342	192.368	0
0.3567	-10.9839	40.0371	-10.9075	-37.3527	-13.1132	1.36883	-1.68716	-9.92434	80.3512	0.322062
0.3573	-11.9227	24.8031	2.82788	-45.8952	-10.378	2.58557	-0.467637	-30.9923	-15.7762	0
0.3580	-10.7023	19.5975	3.44732	-26.0546	-6.71751	4.71487	1.98058	-26.1152	-57.2806	0
0.3587	-10.3737	36.0946	-0.215457	-1.63961	-7.32088	3.80231	1.36623	0.141776	-41.1086	0.644124
0.3593	-5.49197	32.7263	1.61593	-7.13711	-6.71751	4.71487	1.06365	20.5859	-10.263	0.644124
0.3600	1.22044	-26.7935	8.6183	-43.4565	-5.18898	7.45254	0.751888	29.4327	0.706819	0.322062
0.3607	0.891858	-116.207	13.1968	-49.8633	-4.26381	8.97346	0.449299	27.3061	33.6729	0
0.3613	0.281639	-164.435	20.8455	4.16102	-0.603369	12.3195	4.11704	18.1474	102.036	0.322062
0.3620	2.44087	-185.487	26.6359	20.3366	0	14.1953	6.2535	10.5198	132.543	0.322062
0.3627	1.83066	-236.433	24.8045	-43.1396	-3.05707	13.2321	4.41963	8.67671	102.941	0.322062
0.3633	0.610218	-276.126	23.2694	-74.2783	-4.54538	12.0153	3.5027	17.24	84.0267	0.322062
0.3640	4.27153	-222.386	20.2261	-48.334	-6.39571	9.27765	2.58576	30.9639	66.6389	0.322062
0.3647	8.8247	-120.456	13.8162	-40.0946	-5.79234	8.36509	3.20011	50.8126	-11.7897	0.322062
0.3653	7.32262	-56.6873	-0.215457	-41.9271	-3.66044	8.06091	5.02481	70.321	-79.2486	0.322062
0.3660	4.88175	17.7602	-15.1898	-27.584	-4.54538	5.93161	3.80528	64.8484	-55.4429	0.322062
0.3667	11.5942	127.652	-13.6546	-12.3177	-5.18898	5.01906	3.5027	53.5631	-12.7227	0
0.3673	17.978	184.99	-6.32906	-9.87897	-6.07392	4.71487	4.41963	54.1585	-24.9366	0.322062
0.3680	15.2555	164.856	-9.69559	-10.8021	-7.92425	2.88976	2.58576	35.841	-37.7442	0.322062
0.3687	8.8247	119.078	-12.4427	-5.91085	-6.07392	2.88976	3.5027	11.1436	1.61155	0.322062
0.3693	0.891858	89.1839	-11.8232	-3.77523	-4.26381	4.1065	5.63916	-2.92059	38.5641	0.322062
0.3700	-5.21033	95.2699	-11.527	-9.27273	-5.18898	4.41069	5.02481	-13.5822	15.0411	0.644124
0.3707	-6.10218	116.934	-7.24476	-15.0734	-5.47055	4.71487	5.02481	-0.170131	-49.958	0.322062
0.3713	-7.93284	119.078	-6.32906	-18.7246	-6.99908	3.80231	4.11704	7.45743	-98.4741	0
0.3720	-9.48186	112.686	-8.77989	-18.1183	-6.71751	2.28139	2.28317	-16.9564	-90.5294	0
0.3727	-8.26142	106.561	-4.49767	-11.4084	-3.05707	1.36883	2.88835	-13.5822	-51.4847	0.322062
0.3733	-8.87164	78.5048	-1.13115	-2.24585	-3.05707	0.456278	2.88835	7.17388	-14.5605	0.644124
0.3740	-8.26142	47.0799	-2.96254	4.16102	-4.54538	0.760463	1.66882	-5.35914	29.0927	0
0.3747	-4.60011	33.3387	-7.24476	3.8579	-5.18898	1.36883	1.98058	-16.6445	66.9217	0
0.3753	-2.76945	23.272	-14.5703	0.192895	-6.39571	1.36883	1.06365	-2.92059	91.3493	0
0.3760	-2.76945	4.93765	-16.1054	1.72228	-3.94201	2.28139	1.66882	7.76934	123.693	0
0.3767	-0.938798	-16.1144	-9.07615	5.3735	-1.81011	4.1065	5.02481	13.8657	140.798	0.322062
0.3773	0.610218	-18.832	-2.66629	4.16102	-4.54538	3.80231	4.41963	28.5254	84.6204	-0.322062
0.3780	-1.54902	-5.12903	-6.03281	0.192895	-7.32088	3.49813	1.06365	44.9998	-47.2155	-1.61031
0.3787	-4.60011	9.22461	-16.1054	3.541	-9.13099	3.19394	-0.155879	56.5971	-112.215	-0.644124
0.3793	-2.76945	0.995186	-9.07615	18.201	-7.92425	1.9772	1.66882	64.8484	-27.368	0.644124
0.3800	1.83066	-55.7687	8.32204	29.7885	-3.94201	1.67302	3.80528	68.1944	43.427	0
0.3807	1.83066	-142.158	8.32204	26.4404	-3.33864	1.9772	3.5027	67.8825	55.9518	0
0.3813	1.22044	-237.658	4.36301	15.4454	-5.47055	3.80231	2.88835	64.5365	72.4348	0.322062
0.3820	5.49197	-340.507	14.7319	5.67662	-7.92425	3.19394	2.28317	40.7181	-48.4313	0.322062
0.3827	8.54306	-407.337	29.0598	0.496015	-9.13099	0.760463	0.751888	-9.01697	-219.623	0
0.3833	8.21448	-392.677	36.7086	7.81224	-7.60245	0.760463	1.98058	-39.5272	-164.689	0.322062
0.3840	7.60426	-334.689	33.342	19.1104	-6.71751	-0.760463	3.20011	-22.1454	-2.34664	0.322062
0.3847	5.77361	-330.746	24.1851	18.8073	-8.20582	-3.85301	1.06365	16.6162	81.2842	0.322062
0.3853	3.66131	-313.943	18.3947	8.12914	-10.378	-5.06975	0.14671	38.5915	110.886	0.322062
0.3860	2.72251	-43.8647	19.6066	-5.00149	-13.7166	-4.46138	-0.467637	30.652	37.6311	0
0.3867	-0.610218	332.086	22.0575	-18.1183	-14.0384	-2.33209	0.449299	40.7181	-86.2602	0
0.3873	-9.15328	393.443	8.94148	-31.249	-10.378	-0.456278	3.5027	90.7935	-97.2583	0.322062
0.3880	-13.4248	262.538	-18.2331	-33.6877	-9.13099	-1.9772	2.58576	112.457	-46.9045	0.322062
0.3887	-12.2044	249.715	-37.4627	-21.7833	-10.0562	-3.54883	0.449299	74.2907	-17.8967	0.322062
0.3893	-11.9227	264.03	-34.0961	-10.8021	-11.2629	-4.1572	-0.155879	32.1832	13.5144	0
0.3900	-12.2044	201.793	-22.4884	-2.56275	-12.7914	-5.06975	-1.07282	20.8978	61.7477	0.322062
0.3907	-11.9227	142.579	-18.5293	7.81224	-10.9813	-3.54883	-0.467637	29.7447	130.705	0.322062
0.3913	-8.87164	94.9637	-11.527	12.4004	-8.20582	-1.36883	1.98058	32.807	172.52	0.322062
0.3920	-1.83066	20.2099	4.36301	4.76726	-7.92425	-0.760463	1.66882	-16.6445	164.293	0.322062
0.3927	2.44087	-42.6399	17.7752	-5.30461	-9.13099	-0.152093	0.14671	-92.0128	129.8	0.322062
0.3933	3.05109	-75.0217	18.6909	-4.07835	-11.5847	0.760463	-0.155879	-113.081	70.5971	0.322062
0.3940	6.10218	-83.8635	10.7729	0.496015	-11.9065	1.36883	1.06365	-84.3852	-33.475	0.322062
0.3947	6.7124	-22.8127	5.27871	-9.57585	-9.45278	3.49813	2.58576	-39.8391	-231.215	0.322062
0.3953	3.05109	100.475	8.02579	-24.2221	-10.6595	4.71487	3.20011	14.8014	-381.06	0
0.3960	4.27153	203.018	19.9298	-26.9777	-13.3948	4.41069	1.98058	63.0054	-317.277	0.322062
0.3967	9.15328	261.619	21.1418	-18.4215	-13.3948	4.1065	0.14671	63.9127	-154.935	0.322062
0.3973	10.6554	265.255	-6.03281	-2.24585	-11.9065	1.67302	-1.07282	8.08125	-27.99	0
0.3980	10.6554	203.324	-29.5177	18.201	-8.84942	-1.06465	-1.07282	-48.9979	63.5855	0.322062
0.3987	13.0962	137.718	-18.8525	34.3629	-7.60245	-2.33209	-2.29234	-72.1925	139.272	0.644124
0.3993	17.0861	103.538	9.23774	39.8604	-6.71751	-2.63627	-3.20928	-74.3191	168.873	0.644124
0.4000	16.4759	58.6777	19.3104	41.0866	-5.47055	-3.24464	-3.51187	-78.2888	174.047	0.322062
0.4007	10.3737	-21.5879	2.53163	40.4666	-5.18898	-4.76557	-4.74056	-84.6971	152.39	0.322062
0.4013	4.88175	-99.4037	-12.7389	27.3497	-3.94201	-3.24464	-3.82362	-76.7577	22.6748	0.644124
0.4020	3.94295	-128.111	-4.79393	13.0066	-3.33864	0.456278	-2.6041	-52.3438	-118.011	0.644124
0.4027	5.49197	-123.824	11.9848	18.8073	-4.54538	3.49813	-1.38457	-29.1492	-146.085	0.322062
0.4033	6.7124	-146.101	11.6886	31.621	-6.71751	4.71487	-0.770226	-12.051	-146.679	0.322062
0.4040	5.77361	-137.871	0.377051	30.7116	-9.45278	5.93161	-0.770226	0.141776	-140.572	0.322062
0.4047	6.7124	-9.99013	3.74357	6.90288	-9.73436	5.32324	-0.467637	6.23815	-84.4225	0
0.4053	9.15328	100.782	11.9848	-25.4483	-8.84942	1.67302	-1.98975	12.9583	-37.7442	0
0.4060	6.10218	78.8111	-2.66629	-26.3577	-8.20582	0.456278	-3.20928	5.33079	-9.04729	0
0.4067	-2.15923	25.4155	-29.5177	-6.83399	-7.32088	-0.152093	-3.82362	-19.395	29.0927	0.644124
0.4073	-7.04098	31.1952	-42.6336	2.63164	-6.99908	-1.67302	-5.96008	-30.0566	66.3279	-0.322062
0.4080	-5.82055	89.1839	-32.8842	5.07038	-5.79234	-0.456278	-6.56526	-24.8676	40.9955	-2.25444
0.4087	-4.60011	174.004	-16.4017	-2.24585	-5.18898	1.9772	-3.20928	-19.395	-67.3457	-0.644124
0.4093	-8.87164	180.435	-12.7389	-12.0146	-6.39571	1.06465	-1.68716	-16.9564	-127.171	0.644124
0.4100	-12.5329	33.0325	-9.99184	-10.8021	-6.39571	-0.152093	-3.20928	-20.6143	-82.302	0
0.4107	-9.76349	-108.896	2.20844	-5.60773	-6.71751	-0.456278	-4.4288	-19.6785	-49.336	0.322062
0.4113	-3.66131	-125.968	3.44732	1.10226	-7.32088	-0.152093	-5.34574	-9.01697	-56.3476	0.322062
0.4120	-1.54902	-73.1844	-6.9485	15.7485	-6.07392	0.456278	-4.74056	-3.82796	-46.5935	-0.322062
0.4127	-4.60011	-45.3958	-9.69559	23.6847	-4.26381	0.456278	-2.90669	-1.70131	-28.5838	0.644124
0.4133	-5.21033	-110.083	-3.28573	17.581	-3.94201	-1.36883	-3.82362	3.4877	-10.885	0
0.4140	0.891858	-128.111	-2.37003	13.3097	-5.18898	-3.85301	-6.26267	5.64269	35.5106	-1.28825
0.4147	10.3737	-18.832	3.44732	13.0066	-4.26381	-3.54883	-5.04315	10.5198	96.8343	-0.322062
0.4153	16.4759	-102.16	16.8595	10.2648	-4.86718	-3.54883	-3.82362	23.0245	112.724	0.644124
0.4160	16.4759	-391.452	20.8455	7.81224	-4.54538	-3.85301	-5.34574	28.8373	64.8012	0.322062
0.4167	14.035	-426.246	25.424	7.206	-3.05707	-1.67302	-4.74056	12.3629	-21.5721	0.322062
0.4173	12.486	-152.838	33.9615	5.07038	-5.18898	-0.760463	-5.04315	-11.1436	-113.43	0.322062
0.4180	12.2044	142.273	36.3854	2.32852	-6.99908	-1.36883	-6.56526	-18.1757	-144.87	0
0.4187	10.0451	287.838	37.6243	-7.44023	-5.18898	-2.33209	-6.26267	-16.0207	-54.5382	0
0.4193	5.16339	223.457	34.2577	-25.4483	-4.26381	-2.33209	-5.96008	-11.4555	108.143	0.322062
0.4200	-1.54902	68.7444	19.9298	-35.5202	-2.1319	-1.06465	-5.04315	-0.170131	202.122	0.644124
0.4207	-6.10218	-8.15287	4.03983	-24.5252	0.321797	-0.456278	-3.51187	8.67671	176.79	0.322062
0.4213	-6.7124	-27.4059	-5.11711	-4.07835	-0.884942	-0.152093	-3.82362	9.61243	129.489	0
0.4220	-3.66131	-70.4285	1.29274	-0.110226	-3.05707	2.88976	-4.74056	16.6162	68.4484	0.322062
0.4227	0.281639	-153.756	18.3947	-12.6346	-3.33864	6.84417	-3.20928	30.9639	-52.3895	0.644124
0.4233	2.44087	-246.806	25.424	-14.4533	-1.81011	7.45254	-2.6041	37.0603	-77.7219	0.644124
0.4240	4.55317	-255.074	21.1418	2.63164	0.321797	5.32324	-2.90669	36.1529	48.3182	0.322062
0.4247	8.21448	-140.934	20.5223	24.3048	0.321797	3.19394	-3.51187	37.0603	91.0383	0.322062
0.4253	9.43492	-25.5686	24.5083	34.9829	0	3.19394	-4.74056	39.2153	11.0829	0.322062
0.4260	7.60426	-53.9314	19.0141	31.621	0.925166	5.62743	-3.82362	42.2493	0.706819	0
0.4267	5.49197	-185.794	9.23774	24.6079	-1.52854	7.75672	-3.51187	36.1529	59.3163	0
0.4273	8.21448	-181.813	13.8162	22.7754	-3.33864	8.66928	-2.90669	10.2079	54.1141	0.322062
0.4280	21.0291	45.2427	28.7636	22.4723	-2.1319	7.75672	-1.68716	-22.1454	-35.0017	0.322062
0.4287	32.6702	271.379	38.8362	16.6716	-3.33864	5.93161	-2.90669	-45.0281	-103.959	0.322062
0.4293	29.9007	260.394	32.4263	9.34163	-5.79234	5.62743	-2.6041	-48.3741	-86.5712	0.322062
0.4300	18.5882	110.542	8.94148	5.07038	-6.71751	3.49813	-2.6041	-33.7427	-21.8831	0.322062
0.4307	12.2044	94.3513	-13.0352	1.10226	-6.07392	-0.456278	-5.04315	-17.5519	26.6612	0.322062
0.4313	8.8247	233.524	-23.7273	2.63164	-4.26381	-1.06465	-4.74056	-8.1096	38.8468	0.644124
0.4320	1.22044	324.163	-31.6453	20.3366	-4.26381	0.456278	-3.51187	-4.73533	34.8886	0.322062
0.4327	-6.43076	281.752	-34.0961	34.6797	-5.47055	0.760463	-4.12621	-10.5482	16.8788	0
0.4333	-5.49197	184.683	-20.657	26.4404	-6.39571	-0.456278	-4.74056	-27.3345	-53.2942	0.322062
0.4340	-5.21033	121.834	-15.486	20.0197	-7.32088	-2.63627	-5.64833	-37.0887	-150.948	0.322062
0.4347	-10.0921	113.91	-41.1254	29.4854	-6.39571	-3.54883	-5.96008	-28.5537	-153.408	0.322062
0.4353	-11.3125	69.3568	-53.0295	35.5891	-5.79234	-3.85301	-5.64833	-18.1757	-70.0882	0.322062
0.4360	-8.87164	7.69355	-32.8842	28.8791	-5.47055	-5.06975	-5.34574	-10.5482	-16.3699	0.322062
0.4367	-3.98989	11.6743	-36.2238	13.0066	-6.39571	-7.50323	-6.26267	-9.61243	-15.7762	0.322062
0.4373	3.66131	29.9704	-63.3984	-1.33649	-7.60245	-7.80742	-8.09655	-18.7712	-28.8948	-0.966187
0.4380	13.0962	8.61218	-57.2848	-6.53087	-6.39571	-5.37394	-7.17961	-16.9564	3.13828	-2.25444
0.4387	22.5781	-71.0409	-15.486	-7.13711	-4.86718	-4.1572	-5.04315	-1.0775	138.961	-0.322062
0.4393	26.2394	-168.99	26.6359	-11.7115	-3.66044	-3.85301	-4.74056	9.30052	300.087	0.644124
0.4400	26.521	-230.347	34.554	-30.3258	-1.81011	-1.67302	-5.04315	8.39315	224.401	0.322062
0.4407	29.5721	-301.12	0.0807965	-51.0758	-0.884942	2.28139	-5.04315	6.55006	-91.7452	0.322062
0.4413	34.7825	-383.223	-24.6429	-53.8315	0	6.53998	-3.20928	6.55006	-267.856	0.644124
0.4420	36.6131	-438.762	-19.7682	-38.8683	1.24696	7.75672	-2.6041	0.141776	-168.675	0.322062
0.4427	31.7314	-440.906	-9.07615	-23.3127	2.4537	5.93161	-2.90669	-1.70131	-9.35829	0.322062
0.4433	24.0802	-267.858	1.61593	-24.5252	3.05707	5.32324	-2.29234	9.89598	87.9849	0.322062
0.4440	15.8657	12.5929	16.8595	-30.0227	2.7755	4.1065	-3.20928	15.085	143.824	0.322062
0.4447	6.99404	172.818	42.2027	-22.6927	3.66044	1.67302	-4.74056	16.3043	160.618	0.322062
0.4453	-4.27153	194.482	62.9405	-13.2409	3.37887	2.28139	-2.6041	19.6785	101.414	0.644124
0.4460	-18.3066	203.324	70.8855	-13.2409	1.52854	4.41069	-0.155879	14.4895	-31.9482	0.322062
0.4467	-31.4497	251.246	58.362	-23.919	-2.1319	4.71487	0.14671	11.7391	-163.162	0.322062
0.4473	-41.2132	200.874	23.2694	-31.249	-4.26381	5.62743	0.14671	17.24	-214.732	0.322062
0.4480	-47.3154	100.782	-13.9509	-25.1452	-2.1319	5.62743	1.06365	17.5519	-168.364	0.322062
0.4487	-52.4788	102.313	-55.7766	-17.8152	-0.281572	3.49813	-0.770226	25.463	-67.3457	0.322062
0.4493	-56.7503	98.6382	-91.1654	-13.2409	1.85033	3.49813	-1.98975	49.5933	15.0411	0.322062
0.4500	-52.1971	58.6777	-88.4184	-2.86587	5.18898	5.62743	-1.38457	51.0962	29.0927	0.322062
0.4507	-39.9928	5.85628	-61.2707	5.67662	4.9074	6.53998	-2.29234	19.0547	-5.0891	0.322062
0.4513	-25.9578	-110.083	-38.6746	8.43226	3.05707	6.53998	-3.20928	-5.04723	-5.7111	0.322062
0.4520	-14.6452	-269.695	-30.1371	12.0973	3.05707	6.2358	-2.90669	-0.170131	40.6845	0.322062
0.4527	-8.26142	-378.056	-28.8982	13.0066	3.66044	5.93161	-2.6041	19.3666	63.5855	0.322062
0.4533	-0.938798	-412.237	-17.6136	10.5679	4.9074	6.2358	-1.38457	49.8769	65.3949	0.322062
0.4540	4.88175	-349.042	-13.6546	11.4772	4.58561	6.2358	-1.38457	86.5119	99.5767	0
0.4547	7.93284	-135.422	-12.4427	12.4004	3.66044	5.01906	-2.6041	101.767	121.573	0
0.4553	17.6963	14.7364	11.9848	11.1741	3.66044	4.71487	-2.90669	93.8275	87.0801	0.322062
0.4560	27.7415	-1.76071	23.8888	10.2648	1.52854	3.80231	-3.51187	60.2549	45.8867	0.644124
0.4567	29.5721	42.1806	7.1101	12.0973	2.1319	2.28139	-3.51187	-2.60868	19.0276	0.644124
0.4573	30.5109	187.439	10.7729	17.581	6.71751	1.67302	-1.98975	-51.7483	15.3521	0.322062
0.4580	22.8597	204.549	45.5423	20.6398	9.49301	1.36883	-2.29234	-58.4402	76.082	0.322062
0.4587	2.11229	65.9885	64.4756	18.5041	10.6997	3.19394	-1.38457	-36.1813	163.671	0.322062
0.4593	-16.8045	-76.5145	29.9755	13.3097	10.6997	5.62743	-0.467637	-5.04723	163.671	0.322062
0.4600	-30.2293	-213.85	-45.3807	5.99352	10.0964	7.14835	-2.29234	8.98861	105.684	0.322062
0.4607	-38.1621	-337.138	-129.625	-12.9377	10.9813	8.97346	-1.68716	-0.765592	79.7575	0.322062
0.4613	-35.7212	-315.474	-171.127	-40.7008	10.6997	10.1902	-0.155879	-1.98487	0.113091	0.322062
0.4620	-25.019	-42.3337	-156.476	-37.3527	7.64268	8.97346	-1.38457	11.1436	-144.248	0.322062
0.4627	-24.1271	374.534	-146.107	-9.27273	4.58561	7.14835	-1.07282	29.1492	-205.289	0.322062
0.4633	-45.4847	615.905	-129.301	3.23788	2.4537	6.53998	0.14671	63.3173	-180.578	0.322062
0.4640	-57.9708	634.239	-31.0528	9.64475	2.1319	6.84417	1.36623	91.0771	-155.84	0.322062
0.4647	-29.2905	705.012	127.335	31.3179	2.1319	5.01906	1.66882	83.1376	-96.6363	0.322062
0.4653	11.5942	657.435	222.244	55.4297	2.7755	1.67302	-0.467637	56.2852	45.5757	0
0.4660	25.019	326.306	184.701	61.5335	5.18898	0.152093	-1.38457	49.8769	185.95	0.322062
0.4667	19.1984	83.3659	88.2837	52.371	6.11414	-0.456278	0.14671	28.5254	228.981	0.644124
0.4673	23.7985	71.5003	36.7086	45.9641	7.64268	-0.456278	1.66882	-48.686	257.678	-1.61031
0.4680	39.054	102.007	41.287	41.3897	11.3031	1.06465	3.5027	-89.2623	320.217	-2.25444
0.4687	38.4438	69.3568	47.6969	27.3497	12.5099	2.88976	6.55609	-66.3796	215.552	0
0.4693	14.3167	-12.746	41.8795	13.6129	10.378	4.71487	7.16127	-64.8484	-15.7762	0.322062
0.4700	-14.9738	-129.336	42.7952	11.4772	9.17121	5.62743	6.2535	-75.5384	-81.991	0
0.4707	-30.8395	-218.443	40.3713	5.67662	8.24605	3.80231	6.2535	-58.7521	-126.549	0.322062
0.4713	-36.6131	-226.673	20.8455	0.799136	8.56784	-0.152093	6.85868	-28.8373	-276.395	0.644124
0.4720	-43.3255	-162.292	2.20844	9.0385	10.0964	-0.456278	5.63916	-1.0775	-232.148	0.322062
0.4727	-44.2643	-45.702	7.7026	21.8522	11.3031	2.28139	3.80528	42.8731	17.1898	0.322062
0.4733	-31.7314	-31.9608	24.5083	45.3579	13.1534	1.36883	0.751888	105.113	225.306	0
0.4740	-6.43076	-109.47	54.403	35.286	17.4173	-5.37394	-3.20928	145.406	283.915	0.322062
0.4747	24.0802	-58.8308	92.2427	-56.2702	21.6811	-9.02416	-5.04315	134.12	135.907	0.644124
0.4753	34.1722	55.9218	78.5073	-149.962	21.6811	-2.94046	-5.04315	77.9769	-68.8725	0.322062
0.4760	31.4028	-28.0183	11.6886	-167.047	17.6988	6.84417	-2.90669	40.4346	-121.658	0.322062
0.4767	43.6541	-277.657	-39.5903	-139.27	13.7568	14.4995	1.06365	63.3173	-157.366	0.322062
0.4773	63.1811	-441.824	-45.0845	-81.8977	11.6249	18.4539	4.11704	74.0072	-245.266	0
0.4780	72.3344	-340.813	-24.6429	4.76726	13.1534	17.5413	5.33657	24.2437	-212.611	0.322062
0.4787	68.0628	32.4201	-2.04685	43.2222	17.0955	12.0153	2.88835	-36.7768	-103.648	0.322062
0.4793	58.9095	304.948	16.8595	9.64475	19.2274	5.32324	-0.467637	-97.5137	-54.8209	0
0.4800	49.7563	125.814	34.554	-34.9002	18.3424	1.67302	-1.68716	-177.475	-34.6907	0.322062
0.4807	30.5109	-211.094	45.2461	-55.3471	16.8139	1.9772	-1.38457	-235.462	69.3814	0.644124
0.4813	9.15328	-229.735	21.438	-49.2433	16.8139	6.2358	0.751888	-219.583	183.208	0.322062
0.4820	1.50208	-92.7054	-35.6313	-38.5652	18.0206	9.88602	2.88835	-154.281	176.479	0.322062
0.4827	2.72251	-123.212	-75.5986	-33.6877	15.5669	9.27765	3.20011	-78.2888	196.948	0.322062
0.4833	8.21448	-137.871	-75.8949	-25.4483	10.6997	5.01906	1.36623	-6.57842	250.044	0.322062
0.4840	13.7064	16.2292	-54.5377	-18.4215	8.56784	1.9772	1.06365	19.6785	56.8565	0.322062
0.4847	14.3167	208.185	-21.2764	-20.5571	7.32088	-0.456278	2.88835	-2.29678	-347.812	0.322062
0.4853	14.6452	398.916	33.0458	-19.9508	6.71751	-3.85301	4.41963	-5.35914	-520.53	0.322062
0.4860	21.6393	447.145	94.3704	-3.16899	7.96447	-6.28649	4.11704	44.9998	-329.802	0
0.4867	33.2804	206.999	120.925	13.916	7.96447	-5.98231	2.28317	99.9239	-150.044	0
0.4873	41.8234	51.6348	113.007	17.581	8.24605	-2.33209	2.28317	95.0468	-138.141	0.322062
0.4880	41.2132	210.635	104.766	17.8841	9.77458	-0.152093	3.20011	43.185	-144.559	0.322062
0.4887	37.5519	356.2	74.252	17.8841	9.49301	0.456278	1.98058	0.765592	-112.808	0.322062
0.4893	34.1722	336.067	-1.75059	14.2329	9.77458	2.88976	1.98058	-18.1757	-55.1319	0.322062
0.4900	24.4087	220.395	-73.471	8.12914	10.6997	5.01906	1.98058	-28.5537	-17.8967	0
0.4907	6.7124	51.941	-86.587	5.3735	10.9813	5.01906	0.14671	-46.2474	-39.5819	0.322062
0.4913	-9.76349	-77.4331	-69.485	9.0385	13.435	5.32324	-0.155879	-55.4062	-69.4945	0.644124
0.4920	-23.1883	-111.92	-82.3047	16.9748	14.9636	2.88976	-0.770226	-43.497	-92.6782	0.644124
0.4927	-32.6702	-61.2805	-106.436	29.7885	15.5669	0.456278	-2.29234	-32.5235	-100.001	0
0.4933	-31.1211	-31.3483	-120.764	44.4347	15.8887	0.456278	-1.98975	-27.618	-24.9366	0.322062
0.4940	-22.9067	-106.753	-141.205	45.661	13.435	-0.456278	-1.38457	-25.8033	98.983	0.322062
0.4947	-6.43076	-148.244	-155.264	27.0466	10.0964	0.152093	-1.68716	-9.01697	197.542	0.322062
0.4953	16.1473	-125.049	-150.686	10.2648	8.84942	3.80231	-0.467637	53.8466	272.012	0
0.4960	17.978	-220.587	-100.619	8.43226	8.24605	6.84417	1.98058	141.436	288.184	0.644124
0.4967	1.50208	-395.433	-2.04685	-2.86587	6.71751	8.97346	2.88835	204.3	134.974	-0.322062
0.4973	1.50208	-482.397	105.682	-23.3127	5.18898	10.7986	2.28317	209.489	-114.646	-2.5765
0.4980	24.0802	-479.373	184.701	-30.0227	5.83257	11.1028	3.80528	158.534	-207.126	-1.61031
0.4987	52.4788	-283.437	180.446	-22.3896	4.9074	7.14835	3.5027	99.6403	-154.002	0.322062
0.4993	60.7402	36.707	114.516	-12.3177	2.7755	0.760463	-1.38457	58.7237	-68.8725	0.322062
0.5000	42.4337	136.494	58.0658	-23.3127	4.9074	-1.06465	-4.12621	45.3117	74.2443	0.322062
0.5007	18.9168	172.512	23.8888	-40.7008	6.71751	1.06465	-2.6041	54.4704	163.077	0.322062
0.5013	-3.05109	371.166	-3.28573	-35.5202	4.30403	3.49813	-1.38457	32.4951	138.65	0
0.5020	-13.1432	468.503	-18.8525	-24.2221	0.643594	3.80231	-1.98975	-10.8317	138.339	0.322062
0.5027	-2.44087	404.428	-37.1395	-18.4215	-3.94201	1.06465	-5.04315	1.04914	176.196	0
0.5033	5.77361	252.739	-74.0635	-8.66649	-5.18898	-0.760463	-8.09655	29.4327	162.766	0
0.5040	13.0962	-1.4545	-78.642	3.23788	-1.52854	1.06465	-6.87702	-13.8941	78.2308	0.322062
0.5047	14.035	-113.145	-67.3574	8.43226	-2.1319	4.1065	-5.64833	-109.111	-33.164	0.322062
0.5053	-7.04098	-62.1991	-80.4734	9.0385	-4.54538	9.88602	-4.12621	-176.852	-114.646	0.322062
0.5060	-13.7534	6.46871	-79.8809	-12.3177	-4.54538	13.2321	-1.68716	-171.975	-165.905	0.322062
0.5067	8.8247	121.527	-59.4393	-44.9721	-3.05707	11.1028	-1.07282	-132.306	-158.582	0
0.5073	20.7474	88.5715	-17.0211	-32.7646	-0.281572	9.58183	0.449299	-107.58	-68.2505	0.322062
0.5080	20.1372	-61.5867	56.8538	-1.63961	0.643594	10.1902	1.66882	-101.172	17.5008	0.322062
0.5087	23.1883	-78.9641	104.766	4.16102	0.321797	11.1028	0.14671	-85.6045	36.7263	0.322062
0.5093	13.7064	-47.5393	66.307	7.50912	1.24696	13.5869	-0.770226	-69.7539	22.081	0
0.5100	-7.32262	66.9071	0.0807965	16.0654	0	15.1079	-0.770226	-58.7521	23.6078	0
0.5107	-23.5169	251.552	-18.2331	20.6398	-0.884942	15.1079	-0.155879	-27.3345	26.0392	0
0.5113	-38.4438	227.744	-28.8982	16.0654	0.643594	14.8037	2.58576	0.765592	-12.4117	0
0.5120	-41.8234	80.6483	-50.8749	10.5679	1.52854	12.3195	3.20011	-10.8317	-32.853	0
0.5127	-31.1211	65.6823	-37.4627	19.4135	0.925166	9.58183	0.751888	-38.9318	34.8886	0.322062
0.5133	-39.054	127.652	-7.8642	22.7754	-0.603369	8.06091	-1.38457	-46.2474	97.4563	0.322062
0.5140	-70.1751	3.13866	-4.79393	6.29664	-3.05707	8.06091	-1.98975	-24.8676	-18.8297	0
0.5147	-90.0307	-209.908	5.57496	-10.4852	-2.73527	8.66928	0.751888	13.5822	-235.795	0
0.5153	-82.7081	-295.647	47.6969	-15.9827	-2.73527	7.45254	1.98058	51.4081	-291.945	0.322062
0.5160	-69.8935	-374.994	94.9898	-10.8021	-5.18898	2.58557	0.14671	70.9448	-179.645	0.644124
0.5167	-63.7913	-325.234	151.44	2.63164	-5.47055	-3.54883	-2.29234	75.2265	-80.4643	-0.644124
0.5173	-44.8745	-161.067	198.14	13.916	-3.66044	-6.28649	-4.12621	69.4137	-37.4332	-1.93237
0.5180	-26.568	-134.197	218.582	18.5041	-1.81011	-5.67812	-2.90669	26.6823	22.9858	0
0.5187	-15.2555	-230.041	245.433	13.6129	-2.1319	-5.06975	-2.29234	-8.39315	86.4581	0.966187
0.5193	3.94295	-331.359	244.517	-3.16899	-2.73527	-4.46138	-3.82362	48.9695	104.157	0.322062
0.5200	5.77361	-346.593	138.943	-14.4533	-2.41348	-2.33209	-4.12621	149.999	104.157	0.322062
0.5207	-5.21033	-431.757	-64.6103	-16.2858	-2.41348	-0.152093	-2.6041	193.326	138.028	0.322062
0.5213	4.88175	-675.578	-243.44	-28.4933	-1.52854	2.58557	0.449299	167.069	160.929	0.322062
0.5220	27.4598	-702.754	-277.321	-39.1714	-1.20674	5.93161	4.11704	122.835	59.91	0.322062
0.5227	46.095	-313.943	-193.696	-37.6558	-3.94201	7.45254	7.47303	117.929	-89.6247	0.322062
0.5233	43.9357	-104.609	-71.9359	-29.7196	-7.92425	6.2358	8.99514	101.767	-132.967	0
0.5240	30.7926	-265.14	77.9148	-9.27273	-13.1132	5.62743	8.99514	43.7805	-108.85	0
0.5247	34.5008	-190.655	212.172	10.871	-18.3022	4.41069	8.07821	43.185	-93.5829	0.322062
0.5253	37.2233	-13.3585	241.474	15.7485	-20.4341	1.67302	7.16127	41.6539	-77.0999	0.322062
0.5260	20.4188	171.287	191.111	14.8391	-20.4341	-0.456278	6.55609	-41.0584	-54.8209	0.644124
0.5267	-6.43076	709.606	87.9605	14.2329	-19.8307	-3.85301	5.33657	-124.366	-29.7995	0.322062
0.5273	-30.5109	950.402	-104.281	16.3685	-19.5089	-6.89486	4.41963	-165.254	-12.4117	-1.93237
0.5280	-43.0439	638.488	-268.46	21.5491	-18.5838	-5.37394	4.11704	-185.103	-7.52056	-2.25444
0.5287	-41.8234	510.339	-292.591	27.3497	-17.0955	-2.33209	1.66882	-164.347	3.44928	0
0.5293	-26.568	639.713	-262.993	29.4854	-17.0955	-3.24464	-6.26267	-74.631	8.65147	0.644124
0.5300	-15.2555	781.642	-287.393	27.0466	-16.7737	-5.06975	-14.1942	7.76934	2.23355	0
0.5307	-43.0439	818.846	-382.006	22.7754	-16.1703	-7.50323	-18.1645	19.0547	1.61155	0.322062
0.5313	-86.0877	551.218	-499.807	17.581	-15.8485	-9.32835	-18.4671	-1.70131	-0.50891	0.322062
0.5320	-90.0307	152.952	-569.077	13.3097	-13.1132	-7.80742	-15.4229	-12.6748	-9.04729	0
0.5327	-62.5709	7.08113	-525.124	11.1741	-10.6595	-7.80742	-10.5356	1.67296	-8.73629	0.322062
0.5333	-35.7212	7.69355	-364.608	9.64475	-11.9065	-9.63253	-7.4822	18.4593	-3.25137	0.322062
0.5340	-14.3636	-28.6307	-114.677	9.0385	-12.7914	-8.41579	-3.82362	-12.3629	-1.13091	0
0.5347	2.72251	-44.7834	176.163	8.73538	-11.5847	-5.67812	1.98058	-44.4043	-1.13091	0.322062
0.5353	18.9168	-46.0082	376.35	10.871	-9.13099	-4.46138	5.02481	14.1776	2.85555	0.322062
0.5360	27.1313	-18.564	405.06	16.6716	-6.71751	-2.63627	5.63916	101.143	15.6631	0.322062
0.5367	18.3066	60.2087	319.308	21.8522	-6.71751	0.456278	5.33657	83.1376	34.5776	0.322062
0.5373	16.4759	211.553	236.895	23.3816	-8.52762	2.58557	5.33657	-14.5179	52.2764	0.322062
0.5380	24.6904	321.1	200.268	17.581	-9.13099	3.49813	5.94175	-92.6366	59.3163	0.644124
0.5387	11.2656	173.698	159.385	8.12914	-6.39571	2.58557	7.16127	-106.049	55.6408	0.322062
0.5393	-7.32262	-63.9981	95.2861	3.23788	-2.1319	1.06465	8.69255	-45.9355	56.5455	0.322062
0.5400	3.33273	-166.847	45.5423	0.496015	-1.20674	-2.33209	8.07821	69.4137	60.532	0.322062
0.5407	17.978	-273.676	42.2027	-8.04647	-3.33864	-6.59068	3.80528	216.521	58.0723	0.322062
0.5413	4.55317	-380.161	72.4206	-26.6608	-5.79234	-9.02416	0.14671	272.664	53.8031	0
0.5420	-21.9679	-370.707	89.7919	-39.4883	-7.60245	-9.63253	-1.98975	184.763	59.91	0
0.5427	-46.3766	-357.884	81.8738	-32.7646	-7.60245	-8.41579	-1.68716	94.7349	86.7691	0
0.5433	-63.7913	-207.458	70.5892	-22.3896	-7.92425	-7.50323	0.14671	44.6879	108.143	0.322062
0.5440	-59.5198	21.741	37.6243	-20.874	-9.73436	-9.63253	-0.155879	12.3629	91.6603	0.322062
0.5447	-40.2744	-100.935	-2.04685	-19.9508	-11.9065	-12.066	-1.38457	54.1585	57.7896	0.322062
0.5453	-32.3416	-353.329	-0.215457	-18.1183	-14.6418	-12.066	-1.68716	125.273	42.5223	0.322062
0.5460	-18.0249	-467.469	-23.4041	-17.209	-17.377	-10.2409	0.449299	90.7935	41.9002	0.322062
0.5467	21.6393	-580.078	-69.8082	-12.9377	-20.1123	-8.71997	2.88835	2.58033	40.0908	0.322062
0.5473	43.6541	-708.84	-51.4943	-8.34959	-23.7727	-8.41579	1.36623	-37.6841	37.0373	0.322062
0.5480	20.7474	-763.193	-16.4017	-6.83399	-26.8298	-8.41579	-0.770226	-50.8126	27.255	0.322062
0.5487	-3.98989	-460.12	34.8772	-6.21397	-29.2835	-6.59068	-0.467637	6.55006	16.8788	0.322062
0.5493	18.9168	172.205	133.126	-2.56275	-30.2087	-5.06975	2.28317	123.43	13.8254	0.322062
0.5500	58.9095	544.826	202.719	0.799136	-28.0768	-1.67302	3.5027	120.396	2.23355	0.322062
0.5507	68.3445	431.911	215.538	-2.24585	-26.8298	-0.456278	-0.467637	2.26842	-25.8413	0
0.5513	67.4526	180.741	215.242	-5.00149	-27.4332	-0.760463	-5.04315	-24.584	-48.7423	0
0.5520	72.0058	176.454	198.436	1.40538	-26.2264	0.456278	-5.34574	12.6464	-53.6052	0.322062
0.5527	53.4176	445.001	159.088	11.1741	-22.566	2.58557	-5.04315	-15.7372	-48.7423	0.322062
0.5533	13.7064	577.169	162.751	18.8073	-17.0955	5.32324	-3.82362	-48.9979	-42.0133	0.322062
0.5540	1.83066	474.933	194.774	22.7754	-14.6418	6.53998	-1.38457	-81.9467	-40.4866	0.644124
0.5547	19.1984	421.499	174.036	21.246	-16.1703	3.49813	-3.20928	-193.326	-45.9715	0.644124
0.5553	10.9839	408.409	89.1994	19.7166	-17.377	-0.456278	-6.56526	-296.171	-49.025	0
0.5560	-18.6351	316.239	-8.16045	23.3816	-17.6988	-2.33209	-6.87702	-297.106	-47.8093	0.644124
0.5567	-30.8395	141.967	-31.9685	25.2141	-18.9056	-4.46138	-6.26267	-232.088	-48.1203	-0.322062
0.5573	-39.6642	62.9264	22.6769	24.911	-20.7559	-6.89486	-7.4822	-121.02	-42.9181	-2.89856
0.5580	-57.0789	164.244	102.612	24.6079	-25.6231	-10.2409	-9.01348	-14.206	-28.8948	-1.61031
0.5587	-65.9036	68.7444	161.216	23.0785	-29.8869	-13.8911	-9.61866	60.5668	-13.3165	0.966187
0.5593	-63.7913	-304.182	149.931	23.9879	-31.4154	-16.6288	-8.39914	148.752	4.38228	0.644124
0.5600	-60.13	-586.471	69.6736	24.911	-31.7372	-17.2372	-6.56526	206.738	24.8235	0
0.5607	-47.3154	-638.986	-11.527	23.9879	-30.4903	-14.4995	-2.90669	161.285	45.5757	0
0.5613	-15.584	-593.82	-47.8316	22.7754	-31.4154	-11.7618	-0.770226	70.321	59.599	0.322062
0.5620	-5.21033	-600.824	-80.4734	9.64475	-34.1507	-11.4576	-1.68716	27.618	59.599	0.322062
0.5627	-19.527	-427.777	-146.403	-5.00149	-35.3977	-10.5451	-1.38457	-15.4253	55.9518	0
0.5633	-4.60011	7.69355	-269.376	1.40538	-37.5296	-10.8493	-1.68716	-37.0887	57.1675	0
0.5640	23.7985	383.682	-474.76	6.59976	-40.2648	-11.4576	-2.90669	61.1906	54.4251	0.322062
0.5647	34.1722	432.217	-671.608	-8.34959	-40.8682	-9.32835	-1.98975	166.757	46.7914	0.322062
0.5653	53.6992	145.642	-712.814	-22.6927	-41.4716	-8.71997	-3.82362	131.058	43.427	0.322062
0.5660	98.5737	44.6302	-573.655	-22.3896	-43.9253	-9.32835	-6.56526	-21.8335	46.4804	0
0.5667	126.315	219.783	-307.539	-21.1771	-47.3041	-9.02416	-6.87702	-152.126	49.5339	-0.322062
0.5673	94.3022	484.694	-2.04685	-24.5252	-48.8327	-8.41579	-5.04315	-109.111	48.6292	0
0.5680	35.111	697.702	174.332	-24.5252	-45.7756	-5.37394	-1.68716	85.888	46.4804	0.322062
0.5687	15.5371	390.687	177.995	-25.1452	-44.5286	-2.63627	-1.38457	180.51	40.3735	0
0.5693	46.3766	22.0472	132.21	-26.9777	-46.6606	-1.9772	-2.90669	115.207	29.4037	0
0.5700	99.7942	145.335	84.0015	-21.1771	-49.4361	0.152093	-2.6041	94.7349	19.0276	0.322062
0.5707	151.381	303.111	15.6476	-13.544	-51.2462	4.1065	-2.6041	64.2246	17.1898	0.322062
0.5713	157.155	191.726	-57.2848	-19.0415	-49.7176	8.66928	-0.467637	-54.4704	17.5008	0
0.5720	105.568	-13.3585	-94.532	-37.6558	-48.1891	13.2321	1.66882	-108.799	7.43574	0
0.5727	46.7052	-103.691	-65.8492	-44.9721	-48.1891	16.3246	1.98058	-145.122	-3.56237	0.322062
0.5733	-7.93284	-37.7788	-11.2038	-11.4084	-48.8327	18.4539	0.751888	-253.156	-9.98029	0
0.5740	-60.13	51.3286	-16.698	30.7116	-52.1713	19.0623	-1.38457	-350.187	-16.3699	0
0.5747	-74.4466	41.8743	-77.43	39.5572	-54.3032	19.6706	-2.29234	-366.378	-22.4769	0.322062
0.5753	-41.2132	-38.3912	-110.691	42.9191	-52.7747	22.7125	-1.38457	-294.668	-28.8948	0.322062
0.5760	3.66131	-177.832	-94.8282	43.8285	-53.0965	25.146	-0.155879	-219.583	-31.6372	0.322062
0.5767	44.2643	-385.06	-37.4627	25.8204	-55.8318	24.5376	-1.38457	-146.937	-28.2728	0.322062
0.5773	72.616	-478.148	37.3011	26.7435	-57.6821	23.0167	-4.4288	-78.8843	-18.8297	0.322062
0.5780	49.1461	-384.754	91.0308	44.4347	-57.0385	22.1041	-6.56526	-90.7935	-12.1007	0.322062
0.5787	0	-274.288	146.269	22.1691	-53.3781	22.7125	-7.17961	-94.1678	-8.73629	0
0.5793	-26.2394	-168.99	214.003	-45.5921	-49.7176	21.4958	-7.4822	-49.9052	25.7282	0.322062
0.5800	-36.9417	-111.308	238.727	-96.2408	-50.321	16.3246	-8.09655	-33.7427	86.1471	0.322062
0.5807	-44.8745	-207.764	156.018	-95.0283	-52.7747	11.1028	-7.4822	-19.395	120.951	0.322062
0.5813	-58.2993	-357.884	1.61593	-73.9614	-54.3032	8.36509	-5.34574	13.5822	115.749	0.322062
0.5820	-70.1751	-411.624	-84.1361	-55.664	-53.0965	8.97346	-1.07282	80.1036	47.6962	0.322062
0.5827	-57.3605	-321.598	-50.2824	-43.7596	-49.7176	12.0153	4.41963	173.477	-100.312	0.322062
0.5833	-26.8496	-252.012	7.1101	-47.1077	-46.9823	12.9279	6.85868	251.313	-197.966	0.322062
0.5840	-14.3636	-329.827	-3.58198	-52.9083	-44.5286	11.4069	5.94175	368.788	-152.786	0.322062
0.5847	-19.2453	-195.248	-15.1898	-47.4246	-42.3967	9.27765	4.41963	401.142	-88.409	0.322062
0.5853	-7.04098	324.469	89.7919	-40.7008	-39.0581	5.93161	3.80528	234.214	-75.5731	0
0.5860	38.1621	671.138	244.221	-30.629	-32.944	4.1065	4.72222	90.1697	-71.6149	0.322062
0.5867	90.0307	611.044	266.817	-9.57585	-29.2835	3.80231	6.2535	39.8108	-72.8307	0.322062
0.5873	75.0569	276.241	164.583	6.90288	-27.1516	2.58557	5.02481	-10.8317	-85.9492	-1.93237
0.5880	30.7926	-115.901	114.516	16.0654	-23.1694	4.1065	4.72222	-29.1492	-100.595	-2.25444
0.5887	58.9095	-101.853	144.114	26.7435	-20.1123	8.36509	7.77562	-13.5822	-103.959	0
0.5893	82.3795	138.025	203.634	20.9429	-17.0955	8.36509	10.829	-63.0337	-95.1096	0.644124
0.5900	40.8846	296.412	266.817	2.93476	-13.3948	5.62743	10.2147	-174.101	-85.3555	0.322062
0.5907	28.6803	463.642	225.611	1.72228	-10.378	3.19394	7.16127	-211.955	-77.7219	0.644124
0.5913	44.2643	447.757	70.2661	10.871	-5.79234	2.28139	5.33657	-188.449	-66.13	0.644124
0.5920	19.1984	279.609	-109.183	19.7166	0.643594	-0.760463	5.02481	-215.613	-47.4983	0.644124
0.5927	-9.15328	294.269	-235.522	29.7885	4.58561	-5.98231	4.41963	-248.279	-33.475	0.322062
0.5933	-9.15328	369.941	-263.585	33.4535	5.51077	-10.8493	3.5027	-223.553	-27.057	0.322062
0.5940	-13.1432	336.985	-253.836	35.5891	7.96447	-16.6288	1.66882	-174.101	-23.6926	0.322062
0.5947	-15.8657	258.557	-235.522	39.5572	13.435	-24.8925	-1.38457	-110.954	-31.0152	0.322062
0.5953	-10.9839	170.062	-107.944	42.9191	19.5492	-34.3729	-5.64833	-62.098	-40.7976	0.322062
0.5960	-7.32262	71.5003	121.249	48.0997	25.3415	-41.065	-9.01348	-50.5291	-34.3797	0.322062
0.5967	8.21448	-101.547	266.198	53.5972	32.9842	-41.6734	-7.17961	-62.4099	-16.0872	0.322062
0.5973	18.5882	-236.739	248.18	56.6422	36.0413	-41.9776	-4.4288	-65.4723	-2.34664	0
0.5980	9.76349	-144.57	181.038	56.9591	32.3808	-45.3236	-6.26267	-1.70131	1.01782	0
0.5987	-0.938798	-43.5585	153.594	56.3391	33.8691	-44.7152	-5.34574	96.8899	4.97601	0
0.5993	-12.2044	-139.709	136.196	55.7328	39.9833	-41.3692	-0.155879	160.349	11.7049	0.322062
0.6000	-19.8556	-210.214	58.362	53.9003	41.8336	-40.1524	3.20011	159.753	12.9207	0.322062
0.6007	-17.0861	-198.616	-38.6746	51.1585	40.9084	-39.5441	3.20011	111.521	12.2987	0.322062
0.6013	-14.9738	-284.661	-18.5293	46.2672	38.4547	-37.719	1.06365	95.0468	12.9207	0
0.6020	-18.6351	-474.78	68.1384	41.6929	37.248	-36.198	0.751888	98.7046	12.9207	0
0.6027	-18.9168	-623.713	103.231	38.331	39.0581	-33.7646	1.36623	61.7861	12.2987	0.322062
0.6033	-16.4759	-599.293	106.894	34.3629	42.1152	-28.8469	2.88835	-16.3326	13.2317	0.322062
0.6040	-24.1271	-492.502	81.2544	31.621	43.6437	-23.3716	6.2535	-24.2721	14.1364	0.644124
0.6047	-43.3255	-228.816	-14.5703	28.2591	39.7017	-20.6339	7.16127	133.213	8.96247	0.644124
0.6053	-53.6992	301.273	-139.374	25.2141	30.8523	-21.8506	5.02481	304.394	2.23355	0.644124
0.6060	-36.9417	571.658	-201.345	24.3048	23.2096	-22.1548	4.41963	396.577	-0.50891	0.644124
0.6067	3.33273	299.436	-214.165	23.0785	17.4173	-20.0255	5.94175	478.353	-0.81991	0.322062
0.6073	60.7402	46.4675	-178.749	21.5491	14.3602	-16.933	6.2535	512.238	1.01782	0.322062
0.6080	114.439	99.8631	-49.0435	17.581	12.5099	-12.9786	7.16127	441.123	1.32882	0.322062
0.6087	124.813	105.949	109.345	11.1741	7.64268	-9.93672	7.16127	259.252	1.01782	0.322062
0.6093	112.28	58.0653	217.073	6.90288	2.1319	-6.59068	7.47303	-40.7465	4.66501	0.322062
0.6100	96.7431	182.272	249.096	4.16102	-4.26381	-3.54883	8.69255	-323.959	7.71847	0.322062
0.6107	58.2993	317.77	192.35	0.192895	-7.32088	-1.06465	8.69255	-442.37	6.19174	0.322062
0.6113	20.1372	331.473	66.0108	-2.56275	-4.26381	2.28139	8.99514	-448.779	6.19174	0.644124
0.6120	-6.43076	290.288	-84.7556	-4.07835	-0.884942	3.49813	8.07821	-413.363	7.71847	0.322062
0.6127	-40.603	185.296	-211.094	-7.13711	0.925166	4.1065	6.85868	-327.928	8.65147	0.322062
0.6133	-67.124	22.3534	-245.891	-10.1821	2.1319	5.62743	7.77562	-224.148	9.8672	0.322062
0.6140	-73.8364	-77.1269	-190.357	-12.3177	2.4537	7.14835	8.38997	-124.678	11.3939	0.322062
0.6147	-75.6671	-74.7155	-102.773	-13.544	3.66044	8.97346	8.99514	-19.9904	14.4474	0.322062
0.6153	-72.3344	-31.3483	-29.5177	-15.3765	3.98224	9.58183	9.29773	32.1832	17.8118	0.322062
0.6160	-62.2423	-31.9608	-33.7999	-17.209	3.98224	9.88602	8.69255	71.2567	19.9323	0.322062
0.6167	-53.089	-149.775	-63.1021	-18.1183	4.30403	10.1902	7.77562	124.65	20.8653	0
0.6173	-23.7985	-310.919	-25.8549	-17.5121	3.37887	9.88602	5.94175	124.65	22.081	0.322062
0.6180	20.7474	-394.515	-4.49767	-16.2858	5.51077	12.3195	7.47303	113.676	24.5125	0.644124
0.6187	41.8234	-366.764	-66.1454	-17.5121	7.96447	14.1953	8.99514	43.7805	24.5125	0
0.6193	43.6541	-259.935	-118.933	-18.1183	7.03931	12.3195	8.07821	-140.245	19.6213	-1.61031
0.6200	39.054	-278.843	-94.2088	-17.209	3.37887	10.4944	7.77562	-289.167	12.6097	-0.644124
0.6207	25.9108	-371.931	-49.0435	-18.1183	-1.52854	8.66928	6.55609	-323.051	4.66501	0.644124
0.6213	24.6904	-205.314	-46.9159	-18.7246	-2.73527	8.97346	6.55609	-293.137	-0.50891	0
0.6220	43.9357	15.923	-41.4217	-16.9059	-2.73527	10.7986	8.69255	-165.878	-0.50891	0
0.6227	70.5037	91.3274	66.9265	-16.589	-5.47055	11.1028	8.38997	17.8355	-5.0891	0.644124
0.6233	92.7532	231.687	189.279	-16.9059	-6.07392	12.0153	6.55609	77.0412	-13.0337	0.644124
0.6240	91.8613	324.163	192.026	-17.8152	-4.54538	13.2321	6.55609	57.2209	-15.4652	0.644124
0.6247	57.0789	272.604	170.077	-19.6477	-3.05707	12.9279	6.2535	54.1585	-13.9385	-0.966187
0.6253	-4.27153	259.782	153.89	-18.7246	0.321797	13.8911	5.94175	1.98487	-10.574	-2.5765
0.6260	-68.3445	194.482	34.8772	-16.2858	3.05707	15.412	7.16127	-37.6841	-4.7781	-0.966187
0.6267	-104.676	20.8223	-128.386	-16.2858	2.1319	14.8037	7.47303	-26.3987	-0.50891	0.644124
0.6273	-105.615	-95.1551	-154.941	-16.589	1.52854	13.5869	7.16127	-46.8429	0.113091	0
0.6280	-94.0206	-107.978	-64.6103	-15.0734	2.7755	13.2321	8.07821	-49.5933	1.01782	-0.322062
0.6287	-84.5387	-82.0263	-19.7682	-13.544	3.98224	13.8911	8.07821	-22.1454	2.85555	0
0.6293	-75.0569	-88.7246	-52.7063	-12.3177	4.9074	13.5869	8.07821	-78.2888	3.76028	0.322062
0.6300	-63.7913	-75.5958	-79.5577	-12.3177	6.11414	12.3195	7.77562	-116.427	4.38228	-0.322062
0.6307	-45.4847	-20.363	-43.8725	-12.3177	8.56784	11.1028	6.85868	11.7391	5.28701	0.322062
0.6313	-20.7474	-0.535869	4.03983	-12.3177	10.0964	10.4944	6.85868	178.071	5.59801	0.644124
0.6320	-5.49197	4.63144	1.61593	-11.4084	12.8317	11.1028	7.16127	224.744	6.81374	0.322062
0.6327	1.50208	47.9986	-24.3198	-9.57585	16.4921	11.4069	8.07821	106.956	8.34047	0
0.6333	14.3167	99.8631	-44.1688	-9.87897	16.4921	10.1902	7.16127	-67.287	7.43574	0.322062
0.6340	21.6393	84.5908	-46.6196	-10.1821	17.4173	8.97346	5.63916	-124.678	7.43574	0.644124
0.6347	23.1883	35.7884	-13.9509	-9.57585	21.3593	8.36509	5.33657	-112.769	8.65147	0.644124
0.6353	29.9007	9.83703	21.438	-9.57585	25.9449	8.66928	5.63916	-139.621	8.96247	0.322062
0.6360	27.7415	-28.6307	49.8245	-8.34959	31.7372	9.27765	6.55609	-127.712	9.8672	0
0.6367	10.6554	-22.8127	87.0448	-8.04647	33.2658	7.75672	5.02481	-47.7786	9.5562	0.322062
0.6373	-1.54902	44.0178	108.429	-8.34959	32.9842	6.53998	3.5027	1.04914	8.65147	0.322062
0.6380	-2.15923	44.324	95.9055	-7.74335	35.1161	5.62743	3.80528	-20.6143	8.65147	0.322062
0.6387	0.610218	-31.9608	59.6009	-6.83399	38.1732	4.41069	2.88835	-64.8484	8.96247	0.322062
0.6393	1.83066	-40.8409	33.342	-5.60773	43.6437	4.71487	3.80528	-56.0016	9.5562	0.322062
0.6400	2.11229	34.8698	8.6183	-5.30461	47.3041	4.41069	4.41963	22.7409	9.2452	0.322062
0.6407	-6.43076	44.0178	-43.2531	-5.91085	49.1545	3.19394	2.58576	62.6935	8.34047	0.322062
0.6413	-29.2905	-37.4726	-92.3774	-6.21397	52.2116	3.19394	2.88835	34.0263	7.71847	0.322062
0.6420	-51.2584	-87.806	-157.095	-6.21397	54.3435	2.58557	2.88835	44.9998	7.43574	0.322062
0.6427	-45.4847	-73.4906	-240.1	-5.00149	59.2106	2.88976	2.58576	108.799	8.65147	0.644124
0.6433	-15.2555	-115.901	-245.271	-3.77523	62.8711	2.88976	2.58576	174.413	8.96247	0.322062
0.6440	5.16339	-182.731	-165.633	-5.00149	63.1929	1.67302	1.36623	198.827	7.43574	0.322062
0.6447	4.88175	-138.484	-52.1138	-4.69837	64.3996	0.456278	0.751888	140.841	7.71847	0.322062
0.6453	-0.610218	-110.389	61.1091	-3.77523	66.2499	0.152093	1.06365	55.0659	8.34047	0.644124
0.6460	3.05109	-121.681	119.714	-2.56275	70.5137	1.9772	2.28317	-15.7372	9.2452	0.322062
0.6467	13.4248	-13.6647	115.135	-2.24585	72.0423	2.58557	2.58576	-64.5649	9.8672	0
0.6473	11.2656	106.561	83.7052	-3.47211	69.9104	0.760463	0.449299	-33.4308	9.2452	0.322062
0.6480	-3.05109	76.9738	40.3713	-3.16899	68.9852	-0.152093	-1.07282	19.6785	9.5562	0.322062
0.6487	-11.3125	9.53082	-9.99184	-2.24585	69.5886	-0.760463	-1.68716	35.2456	10.1782	0.322062
0.6493	-12.5329	-24.3438	-37.1395	-0.427124	72.0423	-1.06465	-0.770226	93.8275	11.7049	0.644124
0.6500	-14.035	-56.9935	-18.2331	0.799136	71.7205	-2.94046	-1.38457	117.022	11.3939	-0.644124
0.6507	-12.8146	-43.2523	27.2554	1.40538	68.0601	-4.46138	-3.51187	9.30052	8.02947	-2.5765
0.6513	-7.32262	-3.29177	56.8538	1.10226	66.2499	-4.1572	-3.82362	-110.33	7.12474	-0.966187
0.6520	-5.82055	5.85628	56.8538	0.799136	66.5315	-4.1572	-3.20928	-193.95	8.65147	0.966187
0.6527	-13.1432	-3.29177	33.0458	2.63164	68.0601	-3.85301	-1.68716	-242.466	9.5562	0.322062
0.6533	-25.3475	-22.5065	1.29274	3.541	67.1349	-4.46138	-1.38457	-201.889	9.2452	0.322062
0.6540	-27.4598	-43.5585	-13.9509	2.63164	63.7962	-5.37394	-4.4288	-113.676	8.02947	0.322062
0.6547	-13.7534	-41.415	-8.77989	2.0254	61.3425	-4.46138	-2.90669	-39.2153	6.50274	0
0.6553	-9.15328	-26.4872	13.1968	0.496015	60.4576	-2.63627	4.41963	5.01888	4.66501	0.322062
0.6560	-28.6803	-20.363	40.9638	0.496015	62.2677	-0.456278	12.0485	-2.29678	5.28701	0.322062
0.6567	-39.3826	-18.2578	40.9638	0.496015	62.5895	-0.152093	14.7902	-38.3079	5.90901	0
0.6573	-32.3416	-9.0715	3.44732	-0.110226	60.7392	-2.33209	12.6537	-54.4704	4.66501	0.322062
0.6580	-29.2905	-4.2104	-36.547	-0.730245	57.6821	-2.94046	9.60949	-44.7162	3.44928	0.644124
0.6587	-34.1722	-7.27251	-71.9359	-1.03337	56.1536	-2.63627	7.77562	-32.807	2.85555	0.322062
0.6593	-47.3154	-11.8274	-128.386	0.192895	58.0039	-1.9772	7.77562	-33.1189	3.44928	0
0.6600	-54.0278	-25.2624	-179.368	1.72228	57.6821	-2.33209	7.47303	-21.5216	5.28701	0.322062
0.6607	-40.8846	-33.798	-167.168	2.32852	55.872	-4.1572	5.94175	16.9281	6.19174	0.644124
0.6613	-27.4598	-35.6353	-107.352	2.63164	53.0965	-5.06975	5.94175	50.8126	5.90901	0.322062
0.6620	-18.6351	-54.5438	-68.8925	2.32852	50.0796	-4.1572	5.02481	40.7181	4.66501	0.322062
0.6627	0.281639	-70.1223	-42.6336	2.32852	52.4931	0.152093	6.85868	19.6785	5.28701	0.322062
0.6633	22.2495	-44.7834	11.0691	2.0254	54.3435	4.71487	10.829	26.3987	5.59801	0.322062
0.6640	30.7926	0.688975	68.1384	-0.730245	50.3612	6.84417	11.1316	8.08125	2.54455	0.322062
0.6647	21.0291	42.1806	87.0448	-4.07835	46.0974	6.84417	8.07821	-31.5877	-1.41364	0.322062
0.6653	5.77361	65.376	53.1911	-6.21397	44.2471	5.93161	0.449299	-28.2418	-3.25137	0.644124
0.6660	4.88175	47.6924	15.6476	-4.69837	47.0226	8.06091	-4.4288	13.5822	-1.72464	0.644124
0.6667	12.8146	11.9805	15.0282	-2.86587	48.5511	10.1902	-3.82362	55.3778	0.113091	0.322062
0.6673	22.8597	-28.3245	26.3397	-4.07835	45.7756	8.66928	-4.4288	97.4853	-1.13091	0.322062
0.6680	39.9928	-55.1563	31.2144	-5.30461	42.437	7.45254	-2.29234	126.181	-3.25137	0.322062
0.6687	43.0439	-36.2477	36.7086	-5.00149	39.7017	6.53998	1.98058	90.4816	-3.25137	0.644124
0.6693	24.6904	-3.59798	40.6676	-3.77523	40.5866	5.62743	3.20011	6.86197	-1.41364	0.644124
0.6700	11.5942	16.2292	48.6126	-3.77523	42.1152	5.32324	5.02481	-65.1604	-1.13091	0
0.6707	11.5942	22.3534	65.0951	-5.30461	41.2302	5.93161	8.99514	-73.6953	-2.65764	0.322062
0.6713	12.2044	13.5116	69.9698	-6.53087	39.3799	6.84417	13.5707	-37.6841	-3.87337	0.322062
0.6720	10.3737	9.22461	67.519	-7.13711	37.5698	6.2358	16.0189	-22.7409	-5.0891	0.322062
0.6727	11.5942	1.60761	80.3387	-6.53087	37.248	5.93161	14.4876	-31.2758	-4.7781	0.644124
0.6733	14.035	-13.0522	84.2977	-5.30461	37.8514	4.71487	11.4342	-40.4346	-3.56237	0.322062
0.6740	3.33273	-17.9516	52.8679	-4.38147	37.248	2.88976	7.16127	-41.3703	-2.34664	0.322062
0.6747	-15.2555	-5.12903	6.1944	-4.38147	36.0413	2.58557	1.36623	-38.3079	-2.34664	0.322062
0.6753	-30.5109	14.124	-26.1511	-4.69837	35.7195	3.19394	-2.6041	-36.7768	-3.25137	0.322062
0.6760	-44.2643	10.4494	-50.8749	-3.77523	39.3799	4.41069	-5.64833	-31.5877	-2.03564	0.322062
0.6767	-54.638	-19.7506	-86.587	-3.77523	39.3799	3.80231	-12.3695	-18.4593	-2.34664	0.644124
0.6773	-53.4176	-62.1991	-96.9559	-5.00149	35.1161	0.760463	-17.8619	-0.170131	-5.7111	-0.644124
0.6780	-38.4438	-85.3946	-64.0178	-3.77523	34.1909	-1.67302	-20.9153	27.618	-6.92683	-2.25444
0.6787	-21.076	-58.8308	-33.1804	-1.63961	35.3977	-0.456278	-24.5739	48.9695	-3.87337	-0.644124
0.6793	-4.27153	-14.5833	-17.0211	0.192895	37.8514	1.36883	-25.1882	67.8825	-0.50891	0.644124
0.6800	11.2656	-6.04767	4.03983	1.10226	40.5866	3.19394	-21.8231	111.833	0.395819	0.644124
0.6807	12.8146	-18.564	25.1008	0.192895	39.9833	5.01906	-19.384	135.34	-0.50891	0.644124
0.6813	0.891858	-13.6647	27.8479	-0.110226	38.1732	5.93161	-13.8916	89.8578	-1.72464	0.644124
0.6820	-5.82055	-8.15287	19.6066	0.799136	37.8514	6.2358	-2.29234	16.0207	-2.03564	0.644124
0.6827	-6.7124	-3.29177	8.6183	1.72228	38.4547	6.84417	9.60949	-33.1189	-2.03564	0.322062
0.6833	-12.2044	15.0426	-12.1195	2.32852	36.3228	4.41069	14.185	-48.9979	-2.03564	0.322062
0.6840	-14.9738	28.4393	-23.4041	2.32852	33.2658	-1.36883	13.5707	-44.7162	-1.41364	0.322062
0.6847	-8.26142	29.358	-12.4427	3.23788	31.7372	-6.59068	15.7071	-37.996	0.706819	0.322062
0.6853	-0.610218	23.5782	2.82788	6.29664	33.5876	-9.32835	22.1165	-33.7427	4.07128	0.322062
0.6860	7.32262	13.8178	3.74357	8.12914	34.7943	-10.5451	23.336	-25.1795	6.81374	0.322062
0.6867	11.8758	4.93765	-3.58198	8.12914	32.3808	-12.9786	14.185	2.26842	7.12474	0.322062
0.6873	4.88175	-1.4545	-4.49767	7.81224	29.6053	-15.1079	8.07821	26.6823	7.43574	0
0.6880	0.281639	-5.12903	-2.66629	7.206	27.4734	-14.4995	10.829	20.274	7.71847	0
0.6887	3.05109	0.995186	-1.75059	7.206	29.0019	-11.7618	17.8436	17.24	7.71847	0.322062
0.6893	5.49197	10.1432	-0.538644	7.206	31.4556	-9.32835	25.7842	26.6823	7.43574	0.322062
0.6900	13.7064	8.30597	3.44732	4.16102	29.3237	-5.67812	30.0572	31.8713	3.76028	0.322062
0.6907	21.9679	2.83245	11.0691	2.32852	28.7204	-2.63627	24.253	34.9337	1.61155	0.322062
0.6913	14.9269	0.688975	9.53399	2.0254	27.7952	-5.37394	15.4045	22.7409	1.61155	0.322062
0.6920	-5.21033	-1.4545	-5.41337	2.32852	29.9271	-7.50323	10.2147	0.765592	2.23355	0.322062
0.6927	-23.1883	1.60761	-14.8666	4.16102	32.6624	-6.28649	-7.4822	-15.7372	2.23355	0.322062
0.6933	-24.7373	7.99976	-13.9509	4.76726	29.3237	-6.59068	-31.9002	-33.7427	-0.50891	0.322062
0.6940	-17.6963	11.3681	-9.99184	5.3735	29.3237	-3.85301	-40.1343	-37.4006	-1.13091	0.322062
0.6947	-20.4658	7.99976	-10.2881	6.59976	29.6053	-0.760463	-41.0512	-28.2418	-0.197909	0.322062
0.6953	-26.568	0.688975	-12.7389	7.50912	27.4734	1.9772	-36.4757	-15.1133	-0.197909	0.322062
0.6960	-25.9578	-2.67935	-9.99184	8.43226	29.6053	7.75672	-20.6036	12.051	0.113091	0.322062
0.6967	-23.5169	-1.76071	-8.16045	5.3735	27.7952	12.0153	-5.34574	32.1832	-4.4671	0.322062
0.6973	-18.0249	0.382764	-6.62532	-0.427124	22.6062	13.5869	2.88835	40.7181	-10.885	0
0.6980	-9.76349	3.75108	-1.45434	-5.60773	21.0777	14.4995	7.47303	36.7768	-15.4652	0.322062
0.6987	-1.54902	7.38734	2.82788	-8.66649	20.4743	14.4995	16.0189	12.9583	-18.8297	0.322062
0.6993	8.8247	7.99976	2.82788	-9.27273	19.5492	14.1953	24.5555	-0.765592	-20.0454	0.322062
0.7000	17.978	3.44487	-0.834898	-9.57585	16.8139	12.0153	24.5555	2.89224	-20.3564	0.322062
0.7007	22.5781	-0.229658	-2.37003	-9.87897	13.7568	7.75672	26.3894	7.17388	-19.7344	0.322062
0.7013	23.4699	-1.4545	-0.215457	-8.66649	10.6997	1.36883	32.7988	11.4272	-17.6139	0
0.7020	25.019	-2.37314	1.91218	-6.83399	8.56784	-3.54883	37.3743	14.8014	-14.5605	0.322062
0.7027	27.4598	-1.76071	2.20844	-6.83399	7.32088	-5.67812	43.1785	18.1474	-13.6275	0.644124
0.7033	26.521	-0.535869	2.53163	-7.74335	6.43594	-7.80742	40.7303	19.3666	-12.4117	0.322062
0.7040	21.3576	1.60761	3.74357	-5.60773	5.83257	-9.32835	19.6775	18.7712	-8.73629	0.322062
0.7047	16.1473	3.13866	3.12413	-3.77523	3.05707	-10.2409	-4.74056	16.9281	-6.30483	0.644124
0.7053	14.035	1.3014	1.61593	-2.56275	0.925166	-12.066	-18.7789	13.8657	-4.7781	0.322062
0.7060	13.4248	0.382764	0.700237	-0.110226	0.643594	-12.6744	-28.2325	13.2703	-0.81991	0.644124
0.7067	10.6554	0.688975	-0.834898	1.40538	-0.884942	-12.9786	-33.7249	14.4895	1.01782	0.322062
0.7073	7.32262	0.995186	-1.13115	0.496015	-1.52854	-15.412	-31.2859	13.2703	-1.13091	-1.93237
0.7080	6.99404	4.01902	1.91218	0.799136	-0.884942	-14.8037	-29.1494	12.6464	-1.41364	-2.25444
0.7087	7.60426	7.08113	4.95552	3.541	2.1319	-11.1535	-23.9595	17.24	2.54455	0
0.7093	5.16339	7.38734	3.74357	5.07038	3.66044	-10.5451	-18.4671	20.274	5.28701	0.644124
0.7100	4.55317	6.77492	1.91218	5.3735	2.1319	-9.63253	-24.8765	20.5859	6.50274	0.322062
0.7107	9.43492	6.77492	3.12413	5.07038	0.643594	-5.37394	-32.5054	22.1171	7.12474	0.322062
0.7113	13.0962	7.69355	5.57496	2.32852	1.24696	-0.456278	-30.0663	22.1171	5.59801	0.322062
0.7120	12.8146	7.99976	7.7026	0.799136	5.83257	6.84417	-22.4374	21.2097	4.38228	0
0.7127	10.9839	6.46871	8.02579	-1.33649	7.32088	13.8911	-19.9984	16.6162	2.54455	0
0.7133	8.8247	4.63144	6.1944	-4.07835	3.98224	16.0204	-18.7789	10.5198	-1.41364	0
0.7140	7.60426	5.85628	6.1944	-3.77523	3.98224	14.1953	-8.70172	10.5198	-2.34664	0.322062
0.7147	7.93284	6.46871	5.27871	-2.86587	3.66044	10.1902	-3.20928	11.1436	-2.34664	0.322062
0.7153	9.43492	5.85628	4.03983	-2.24585	1.85033	5.01906	-10.233	10.5198	-2.34664	0.322062
0.7160	5.16339	6.1625	3.74357	0.192895	1.85033	-1.67302	-18.1645	11.4272	0.113091	0.322062
0.7167	-9.48186	4.63144	0.0807965	3.23788	-0.884942	-9.63253	-24.2713	9.30052	1.61155	0.644124
0.7173	-22.2964	2.22003	-4.49767	5.3735	-3.66044	-13.2828	-27.0129	7.45743	3.44928	0.322062
0.7180	-28.3986	2.83245	-5.70962	5.99352	-4.26381	-15.1079	-27.0129	8.39315	5.59801	0.322062
0.7187	-31.1211	6.46871	-3.58198	6.90288	-6.07392	-16.0204	-24.2713	8.39315	6.81374	0
0.7193	-29.6191	7.99976	-2.96254	7.50912	-10.0562	-16.3246	-20.301	6.86197	7.71847	0.644124
0.7200	-27.7884	7.08113	-7.8642	7.206	-12.7914	-16.933	-17.2476	6.86197	8.34047	0.644124
0.7207	-27.4598	8.30597	-11.527	7.81224	-13.1132	-18.2004	-14.1942	9.30052	8.34047	-1.28825
0.7213	-22.2964	11.9805	-4.20142	9.64475	-13.1132	-17.5413	-11.1499	11.4272	9.2452	-1.61031
0.7220	-3.66131	13.8178	7.1101	11.1741	-11.2629	-14.1953	-6.87702	14.8014	11.9877	0.322062
0.7227	19.527	10.4494	8.32204	8.73538	-10.9813	-12.066	-3.20928	16.9281	11.0829	0.644124
0.7233	31.1211	6.46871	4.95552	4.46414	-14.32	-9.63253	-1.98975	16.3043	6.50274	0.322062
0.7240	40.2744	5.85628	4.65927	1.40538	-16.7737	-6.28649	1.66882	15.3969	2.23355	0.322062
0.7247	56.1401	5.24386	4.03983	-0.730245	-17.9804	-5.98231	8.07821	14.8014	-0.81991	0.322062
0.7253	75.6671	7.38734	9.53399	0.496015	-14.6418	-6.89486	12.6537	18.1474	0.706819	0.644124
0.7260	72.9446	9.53082	13.1968	2.63164	-12.7914	-9.63253	12.6537	21.8052	3.76028	0.644124
0.7267	37.2233	7.38734	6.78691	2.0254	-16.4519	-13.8911	7.77562	21.8052	3.13828	0.322062
0.7273	14.6452	8.61218	5.57496	3.23788	-14.0384	-13.5869	3.5027	23.3364	4.97601	0.322062
0.7280	9.76349	11.6743	6.49066	2.32852	-14.6418	-11.7618	-6.87702	22.1171	5.90901	0.644124
0.7287	4.88175	12.2867	2.53163	-0.730245	-18.5838	-9.93672	-19.9984	19.6785	2.85555	0.644124
0.7293	33.562	10.4494	0.700237	-0.427124	-16.4519	-6.89486	-21.2179	23.6483	2.85555	0.322062
0.7300	70.7853	4.63144	-2.66629	-1.63961	-19.8307	-8.71997	-36.4757	26.0868	2.54455	0.322062
0.7307	72.616	4.32523	-1.75059	-3.16899	-22.8878	-10.5451	-63.938	23.6483	1.92255	0.322062
0.7313	84.5387	9.83703	5.87122	-2.86587	-22.566	-11.7618	-52.3479	21.2097	2.85555	0.644124
0.7320	141.899	13.2053	8.94148	-3.16899	-24.0945	-14.8037	-6.87702	21.4933	2.54455	0.644124
0.7327	188.886	15.0426	7.1101	-3.47211	-28.0768	-18.2004	34.6327	23.6483	2.85555	0.322062
0.7333	152.602	19.2913	4.95552	-2.86587	-34.1507	-22.459	68.2017	26.3987	3.13828	0.322062
0.7340	44.2643	22.9658	4.36301	-1.94273	-37.2078	-25.805	88.035	32.4951	4.07128	0.322062
0.7347	-72.3344	25.4155	5.57496	-1.33649	-39.9833	-26.7176	93.2249	37.3722	4.07128	0.322062
0.7353	-135.187	27.5207	9.53399	-1.03337	-43.6437	-27.6302	110.619	37.6841	3.76028	0.322062
0.7360	-133.075	26.9083	12.9005	0.496015	-43.9253	-28.8469	143.271	38.2796	5.90901	0.322062
0.7367	-89.4205	26.0279	11.3654	2.63164	-45.4538	-29.7594	156.393	39.2153	6.81374	0.322062
0.7373	-27.1782	28.7456	9.85718	3.23788	-48.8327	-30.3678	139.915	40.1227	5.28701	0.322062
0.7380	-7.93284	29.6642	9.53399	0.496015	-50.6428	-28.8469	119.468	40.4346	1.32882	0
0.7387	-57.0789	29.9704	11.3654	-2.86587	-45.7756	-25.1967	112.141	38.9034	-3.25137	0
0.7393	-105.615	34.8698	19.6066	-1.63961	-34.4725	-19.4172	136.257	40.1227	-2.03564	0.644124
0.7400	-61.0218	39.1185	25.424	-1.33649	-36.6044	-16.0204	171.348	39.4989	-1.41364	0
0.7407	67.124	41.5681	28.4673	-2.86587	-42.7185	-17.2372	169.514	33.7144	-5.7111	-1.93237
0.7413	200.199	45.5489	33.9615	-5.00149	-40.5866	-16.0204	137.174	30.9639	-9.35829	-1.61031
0.7420	285.958	47.0799	33.9615	-10.8021	-44.8504	-13.8911	97.4978	28.8373	-13.9385	0.322062
0.7427	305.766	42.793	28.1711	-16.589	-46.379	-8.1116	60.261	23.0245	-20.0454	0.644124
0.7433	285.958	34.8698	22.0575	-21.1771	-40.5866	4.71487	34.0183	16.6162	-25.2193	0.322062
0.7440	219.115	26.0279	14.1125	-26.6608	-43.6437	16.3246	6.2535	10.5198	-31.3262	0
0.7447	81.4876	18.9851	6.49066	-29.1134	-47.3041	21.7999	-41.6656	5.33079	-34.6907	0.322062
0.7453	-84.2571	14.124	3.74357	-27.584	-42.3967	23.3209	-68.2109	3.4877	-33.475	0.322062
0.7460	-212.121	7.99976	0.377051	-23.919	-41.4716	24.2334	-62.1133	-1.38941	-30.4215	0.322062
0.7467	-262.159	0.995186	-4.20142	-19.9508	-41.7934	29.4553	-69.1278	-8.70506	-25.2193	0
0.7473	-269.482	-4.82282	-9.69559	-17.209	-37.8111	35.8432	-84.6974	-12.9867	-20.0454	0.322062
0.7480	-276.194	-10.6026	-17.9368	-17.209	-32.944	38.2766	-100.258	-17.24	-19.7344	0.322062
0.7487	-263.051	-14.8895	-23.1078	-17.5121	-25.6231	39.1892	-133.524	-20.9262	-19.7344	0.322062
0.7493	-231.648	-13.9709	-22.1921	-16.9059	-21.9626	40.1017	-173.191	-18.7712	-17.6139	0.322062
0.7500	-213.013	-9.99013	-17.6136	-13.544	-20.4341	40.7101	-189.063	-13.8941	-14.5605	0
0.7507	-177.292	-6.04767	-13.9509	-9.87897	-17.9804	43.1436	-172.888	-12.051	-12.4117	0
0.7513	2.72251	0.0765527	-9.69559	-9.87897	-20.1123	46.5403	-144.812	-10.8317	-11.7897	0.322062
0.7520	319.801	10.4494	-0.538644	-9.87897	-24.6979	44.6645	-121.622	-6.86197	-9.35829	0.322062
0.7527	519.39	19.9037	9.23774	-6.53087	-28.0768	34.3222	-105.136	-2.60868	-4.18437	0
0.7533	500.473	24.8031	15.3513	-2.86587	-30.4903	21.4958	-92.6289	-0.765592	1.01782	0
0.7540	386.034	24.8031	16.5633	0.496015	-28.9617	15.7162	-81.644	-1.38941	6.19174	0
0.7547	255.118	20.5161	11.6886	2.93476	-26.8298	15.1079	-77.6737	-3.82796	9.8672	0.322062
0.7553	159.314	14.124	4.36301	3.8579	-28.3584	12.0153	-86.2195	-5.04723	11.7049	0.322062
0.7560	116.88	8.30597	-1.45434	3.541	-28.3584	8.36509	-88.9611	-5.35914	12.2987	0.322062
0.7567	127.864	4.93765	-5.70962	2.93476	-27.1516	5.01906	-81.3322	-4.42342	12.2987	0
0.7573	161.426	4.93765	-4.49767	3.8579	-25.9449	3.19394	-73.7033	0.453684	14.1364	0.322062
0.7580	148.33	4.01902	-4.49767	4.76726	-25.9449	1.9772	-69.1278	2.89224	16.2851	0.644124
0.7587	90.6409	-0.84208	-9.69559	3.23788	-28.0768	-1.67302	-67.2939	0.141776	16.2851	0.322062
0.7593	-7.32262	-4.82282	-12.1195	3.541	-25.0197	-2.94046	-61.1963	-4.42342	16.8788	0
0.7600	-116.88	-7.54044	-12.7389	3.23788	-23.1694	-3.85301	-52.6505	-12.3629	17.5008	0.322062
0.7607	-152.883	-9.68392	-13.6546	2.32852	-24.6979	-5.98231	-46.2411	-21.2097	17.1898	0.322062
0.7613	-115.988	-6.9663	-9.69559	3.8579	-21.9626	-4.46138	-33.7249	-25.1795	19.3386	0.322062
0.7620	-60.4116	-3.59798	-4.20142	4.16102	-18.9056	-1.67302	-16.945	-26.7106	21.148	0.322062
0.7627	30.7926	-2.98556	-2.96254	1.72228	-20.7559	-1.67302	-5.96008	-30.6804	19.3386	0
0.7633	127.254	0.688975	1.61593	1.40538	-21.6408	-0.760463	4.11704	-29.4611	19.3386	0
0.7640	136.689	4.32523	6.49066	1.40538	-21.0375	0.152093	12.0485	-23.6483	20.8653	0
0.7647	78.7182	5.24386	6.49066	-0.730245	-21.9626	-0.760463	12.3511	-19.0831	19.3386	0
0.7653	-3.05109	6.77492	8.94148	-0.427124	-18.5838	0.456278	12.0485	-14.206	18.7166	0
0.7660	-82.0978	6.46871	10.1534	-1.03337	-17.6988	-0.456278	10.5173	-11.7674	18.0946	0.644124
0.7667	-98.2921	3.75108	9.23774	-4.69837	-20.4341	-2.94046	5.94175	-10.5482	14.4474	0
0.7673	-50.9767	3.75108	11.6886	-5.60773	-19.5089	-3.85301	2.28317	-8.39315	11.9877	-2.5765
0.7680	-20.1372	5.24386	14.4356	-3.47211	-15.5669	-3.85301	4.11704	-7.48579	14.7584	-2.25444
0.7687	-94.9124	4.32523	13.8162	-1.03337	-11.5847	-3.85301	10.829	-11.4555	20.2433	0.322062
0.7693	-256.949	1.60761	12.9005	0.192895	-9.13099	-5.67812	14.185	-19.395	23.2968	0.644124
0.7700	-340.877	-1.14829	11.9848	0.799136	-6.99908	-8.1116	13.5707	-27.9299	23.8905	0
0.7707	-282.296	-2.98556	11.3654	1.10226	-3.66044	-9.93672	12.6537	-33.4308	24.5125	0.322062
0.7713	-150.161	-2.67935	14.1125	1.10226	-1.52854	-12.6744	11.746	-35.2456	25.1345	0
0.7720	18.5882	-2.67935	16.267	0.799136	-0.281572	-15.412	10.5173	-36.7768	25.1345	0
0.7727	120.823	-4.82282	15.3513	1.40538	4.30403	-15.1079	13.8824	-37.6841	26.3502	0.322062
0.7733	121.152	-8.76529	12.2811	1.72228	7.32088	-15.1079	19.0631	-37.996	27.566	0.322062
0.7740	113.829	-15.1957	6.1944	1.72228	8.24605	-15.7162	23.0334	-40.4346	28.188	0
0.7747	108.337	-24.3438	-1.45434	2.63164	11.6249	-14.1953	26.692	-44.1208	29.0927	0.322062
0.7753	87.5898	-32.8794	-9.07615	2.63164	13.7568	-14.4995	27.0038	-46.2474	29.4037	0.644124
0.7760	62.2423	-37.7788	-13.9509	2.32852	14.9636	-14.4995	25.4725	-44.4043	28.4707	0.322062
0.7767	56.7503	-41.1471	-15.486	2.63164	18.9458	-11.4576	28.5259	-38.9318	28.188	0
0.7773	58.9095	-43.8647	-17.6136	0.799136	20.4743	-9.93672	30.9649	-35.2456	26.0392	0.322062
0.7780	40.603	-46.3144	-20.657	-2.56275	20.4743	-11.7618	28.2233	-31.8997	22.081	0.322062
0.7787	38.1621	-46.0082	-20.657	-3.77523	23.5314	-11.4576	25.1699	-24.584	19.6213	0
0.7793	62.2423	-43.2523	-19.7682	-4.07835	23.5314	-8.1116	26.692	-15.4253	18.4056	0
0.7800	50.9767	-41.1471	-18.8525	-4.69837	23.5314	-3.85301	31.8819	-4.73533	15.9741	0
0.7807	-55.5299	-40.5347	-18.5293	-5.60773	25.0197	-0.456278	34.9353	5.9546	12.9207	0
0.7813	-210.572	-40.2285	-19.7682	-5.91085	22.8878	-1.9772	31.2767	12.6464	10.4892	0.322062
0.7820	-303.372	-37.7788	-17.9368	-4.38147	22.0029	-5.06975	26.0868	17.24	11.0829	0
0.7827	-300.321	-31.0421	-10.2881	-2.56275	22.2844	-6.59068	23.0334	21.8052	12.9207	0.322062
0.7833	-259.39	-17.6454	4.36301	-1.03337	20.4743	-6.59068	22.4191	26.3987	14.4474	0.322062
0.7840	-200.809	-1.14829	22.0575	1.72228	24.1348	-4.76557	25.1699	35.5575	17.1898	0.322062
0.7847	-73.2262	10.1432	31.8069	3.8579	26.5482	-4.76557	24.8673	45.6236	20.5543	0.322062
0.7853	92.7532	14.124	33.342	3.541	21.0777	-6.28649	21.1996	46.531	21.459	0.322062
0.7860	183.394	17.454	36.0891	3.541	17.6988	-5.67812	19.3749	41.9658	22.081	0.322062
0.7867	138.238	24.1907	42.2027	2.63164	14.9636	-6.28649	16.3215	37.996	22.9858	0.322062
0.7873	45.4847	32.4201	49.2051	2.32852	15.2854	-6.59068	14.4876	35.841	25.4172	0.322062
0.7880	2.44087	39.4247	56.8538	3.8579	24.4163	-3.24464	16.9266	37.6841	27.566	0.322062
0.7887	-30.2293	40.0371	57.4463	2.0254	29.6053	-2.33209	16.0189	35.2456	24.8235	0
0.7893	-89.1388	34.5636	52.2754	-2.24585	30.5305	-2.63627	12.9655	24.8676	20.8653	0.322062
0.7900	-178.231	27.5207	47.0775	-3.16899	35.7195	-0.152093	14.4876	14.4895	19.9323	0.322062
0.7907	-229.818	15.6168	37.6243	-2.24585	35.7195	-1.36883	13.8824	1.67296	19.0276	0.322062
0.7913	-151.381	0.995186	26.0165	-1.63961	33.8691	-4.46138	11.1316	-17.24	19.6213	0.322062
0.7920	-53.6992	-11.8274	17.7752	-0.110226	35.3977	-3.85301	12.0485	-37.996	20.5543	0.322062
0.7927	-65.0117	-23.7313	8.6183	0.192895	30.2087	-5.37394	10.829	-64.253	19.6213	0.322062
0.7933	-109.886	-36.5539	-1.45434	-0.110226	22.8878	-9.02416	6.85868	-88.3549	18.0946	0.322062
0.7940	-126.362	-44.4771	-7.54101	1.10226	21.0777	-8.71997	7.77562	-96.8899	17.5008	0.322062
0.7947	-137.346	-48.4579	-12.7389	-1.03337	16.4921	-8.1116	10.5173	-96.8899	13.8254	0.322062
0.7953	-133.685	-50.9076	-16.698	-3.16899	12.2283	-7.80742	13.5707	-96.2944	10.1782	0.322062
0.7960	-105.286	-51.2138	-16.4017	-1.33649	12.8317	-6.89486	17.8436	-92.9485	10.7719	0
0.7967	-71.3956	-50.2952	-17.3174	-1.03337	6.43594	-8.1116	18.1553	-86.5402	10.1782	0.644124
0.7973	-43.0439	-48.7641	-19.1488	-2.56275	-3.05707	-9.32835	15.4045	-79.82	8.02947	-0.644124
0.7980	-26.568	-46.6206	-17.9368	-2.86587	-7.60245	-9.32835	14.4876	-75.2265	5.90901	-2.5765
0.7987	-19.527	-42.0275	-15.7823	-1.33649	-11.2629	-7.80742	15.1019	-65.4723	6.50274	-1.28825
0.7993	-14.6452	-37.4726	-13.3584	1.10226	-13.1132	-4.76557	18.4579	-51.4364	9.8672	0.644124
0.8000	-13.1432	-34.4105	-11.527	3.541	-14.0384	-3.85301	19.98	-40.7465	12.6097	0
0.8007	-9.15328	-33.798	-13.9509	2.93476	-21.9626	-5.06975	16.0189	-36.4648	11.3939	0
0.8013	-0.328579	-33.798	-16.4017	-0.110226	-29.2835	-3.24464	14.7902	-36.1813	7.43574	0.322062
0.8020	5.16339	-32.8794	-17.3174	-2.86587	-31.4154	-0.152093	20.5944	-34.0263	3.13828	0.322062
0.8027	2.44087	-31.0421	-16.698	-3.16899	-30.4903	3.19394	28.2233	-27.618	1.92255	0.322062
0.8033	-6.7124	-28.3245	-13.9509	-0.730245	-28.6802	6.53998	32.7988	-20.6143	2.85555	0.322062
0.8040	-12.5329	-27.0997	-14.2741	-0.110226	-30.8121	6.53998	30.0572	-16.0207	2.54455	0
0.8047	-6.10218	-27.7121	-17.0211	-2.56275	-34.1507	4.41069	22.4191	-12.9867	-0.197909	0
0.8053	6.7124	-27.0997	-17.9368	-4.69837	-34.1507	4.71487	18.1553	-9.61243	-2.65764	0.322062
0.8060	7.93284	-25.8748	-17.9368	-5.00149	-33.2658	6.53998	19.0631	-6.57842	-3.87337	0.322062
0.8067	-17.6963	-24.9562	-17.6136	-4.07835	-31.7372	8.97346	22.4191	-2.29678	-4.18437	0.322062
0.8073	-35.111	-24.0376	-16.698	-2.86587	-30.2087	9.88602	23.9504	2.26842	-3.56237	0
0.8080	-15.8657	-22.2003	-15.7823	-2.56275	-32.6222	8.66928	20.5944	5.64269	-4.18437	0.322062
0.8087	15.8657	-20.0568	-14.2741	-3.47211	-36.2826	7.75672	15.4045	8.39315	-5.7111	0.322062
0.8093	32.3416	-17.9516	-11.527	-4.38147	-36.001	7.45254	13.8824	10.8317	-6.30483	0
0.8100	22.5781	-15.5019	-9.3724	-4.07835	-37.5296	6.53998	12.9655	12.6464	-5.99383	0.322062
0.8107	-21.6862	-10.9088	-5.41337	-2.24585	-38.7363	6.84417	11.746	14.8014	-5.7111	0
0.8113	-97.3533	-6.04767	-0.538644	-0.730245	-39.3397	5.93161	10.5173	17.8355	-4.7781	0
0.8120	-167.857	-4.82282	0.0807965	-0.427124	-42.3967	3.19394	6.85868	19.3666	-4.18437	0
0.8127	-181.892	-5.43524	-0.538644	0.799136	-42.7185	1.9772	5.02481	19.6785	-2.65764	0.322062
0.8133	-120.542	-5.43524	0.996491	1.40538	-41.7934	1.9772	5.33657	20.274	-1.72464	0.322062
0.8140	-18.6351	-3.29177	3.44732	2.0254	-41.4716	2.58557	4.72222	21.2097	-1.41364	0
0.8147	57.3605	-1.4545	5.87122	2.93476	-39.9833	2.88976	4.11704	22.429	-1.13091	0
0.8153	69.2833	-4.51661	3.74357	2.93476	-41.4716	2.58557	2.58576	20.8978	-2.03564	0.322062
0.8160	34.5008	-9.99013	-1.45434	2.32852	-43.6437	2.58557	0.449299	18.4593	-3.56237	0.322062
0.8167	23.4699	-13.3585	-4.79393	1.40538	-43.6437	2.88976	-1.07282	20.8978	-3.56237	0.322062
0.8173	83.9285	-16.4206	-8.16045	1.40538	-44.5286	1.9772	-2.6041	23.6483	-3.25137	0.322062
0.8180	138.52	-19.7506	-12.1195	2.0254	-44.8504	0.760463	-4.4288	22.7409	-3.25137	0.322062
0.8187	133.638	-21.2817	-12.7389	3.541	-43.0001	0.456278	-4.12621	21.8052	-2.34664	0.322062
0.8193	129.366	-19.1382	-8.77989	4.76726	-41.4716	-0.152093	-2.90669	21.2097	-0.197909	0
0.8200	142.228	-15.5019	-4.20142	5.99352	-39.0581	-0.152093	-2.29234	18.4593	1.32882	-0.322062
0.8207	136.079	-12.4398	-0.215457	6.59976	-38.1329	0.152093	0.751888	14.4895	0.706819	0
0.8213	97.3533	-6.66009	6.1944	6.29664	-38.7363	-0.760463	3.5027	14.4895	-0.50891	0
0.8220	39.6642	-0.535869	12.2811	7.206	-37.2078	0.456278	5.94175	17.5519	-0.197909	0.322062
0.8227	-5.21033	-0.229658	11.6886	7.81224	-36.001	1.67302	7.77562	17.24	0.113091	0.322062
0.8233	-46.3766	-6.04767	4.36301	5.99352	-37.2078	1.36883	7.16127	12.9583	-2.34664	0.322062
0.8240	-86.3694	-13.3585	-3.87823	5.07038	-36.6044	2.28139	8.38997	11.1436	-4.7781	0.322062
0.8247	-100.733	-20.0568	-10.6113	4.76726	-34.7943	2.28139	8.69255	12.6464	-5.4001	0.322062
0.8253	-81.4876	-24.9562	-16.4017	5.07038	-32.944	1.36883	7.16127	12.9583	-5.4001	0.322062
0.8260	-16.8045	-28.0183	-19.1488	6.59976	-29.2835	2.58557	8.07821	13.2703	-4.7781	0.322062
0.8267	63.1811	-30.1235	-20.3607	5.99352	-26.8298	3.49813	9.29773	13.8657	-5.4001	0.644124
0.8273	118.993	-31.0421	-22.1921	4.16102	-28.3584	1.36883	6.85868	15.085	-7.52056	0.322062
0.8280	162.036	-30.1235	-23.1078	3.23788	-28.9617	0.456278	4.41963	19.3666	-8.14256	0.644124
0.8287	151.991	-29.2431	-23.4041	2.32852	-29.2835	0.152093	3.20011	23.3364	-9.04729	0
0.8293	74.7752	-27.0997	-20.3607	2.32852	-28.6802	-0.760463	1.36623	23.9602	-9.98029	-2.25444
0.8300	3.66131	-17.033	-7.8642	4.46414	-23.1694	1.9772	4.72222	29.4327	-7.83156	-2.25444
0.8307	-13.1432	-4.82282	3.44732	4.76726	-21.0375	4.41069	8.69255	37.0603	-5.7111	0
0.8313	61.0218	0.995186	6.1944	3.541	-22.2442	4.1065	7.47303	38.2796	-6.61583	0.322062
0.8320	163.257	6.1625	9.23774	3.541	-21.0375	4.41069	6.2535	40.4346	-6.30483	0
0.8327	149.222	9.53082	11.6886	3.8579	-18.5838	4.1065	5.63916	44.0924	-4.7781	0.322062
0.8333	72.0058	9.83703	11.6886	3.8579	-17.377	3.80231	5.33657	44.0924	-3.25137	0
0.8340	3.94295	11.0619	12.9005	4.76726	-17.0955	3.80231	5.94175	43.185	-1.72464	0
0.8347	-117.819	10.4494	10.1534	5.3735	-17.377	3.19394	4.72222	40.1227	-1.72464	0.322062
0.8353	-231.038	4.63144	3.44732	5.07038	-16.1703	2.88976	3.80528	37.996	-2.94037	0
0.8360	-260.61	2.83245	2.53163	5.67662	-14.9233	3.49813	4.72222	38.5915	-2.94037	0
0.8367	-252.396	6.46871	6.78691	6.59976	-14.0384	3.80231	4.72222	36.4648	-1.13091	0
0.8373	-223.997	8.91839	11.0691	7.50912	-10.9813	4.71487	5.63916	30.9639	0.395819	0
0.8380	-146.499	9.83703	14.1125	7.50912	-10.378	5.01906	5.94175	25.463	0.113091	0
0.8387	-59.8014	11.9805	17.1827	7.206	-13.1132	3.49813	2.88835	17.8355	-2.03564	0.322062
0.8393	4.55317	15.3105	21.1418	6.90288	-14.0384	3.49813	-0.155879	11.4272	-4.18437	0.322062
0.8400	89.0919	18.0664	24.1851	6.90288	-13.1132	3.49813	0.751888	8.98861	-4.7781	0
0.8407	201.701	18.0664	24.8045	8.12914	-11.2629	3.19394	1.98058	8.39315	-3.87337	0
0.8413	281.076	16.8416	24.8045	9.64475	-8.52762	4.41069	2.88835	8.39315	-2.34664	0.322062
0.8420	210.244	14.4302	21.1418	9.64475	-7.92425	3.49813	2.88835	7.17388	-2.34664	0
0.8427	44.2643	10.7557	15.9439	9.0385	-9.13099	2.28139	1.66882	3.20414	-4.4671	0
0.8433	-28.6803	10.4494	14.7319	7.81224	-10.378	1.36883	-0.155879	-1.38941	-5.99383	0
0.8440	-8.26142	10.7557	15.0282	7.206	-10.9813	0.152093	-2.29234	-3.51605	-5.99383	0.322062
0.8447	28.6803	7.69355	11.6886	7.50912	-10.0562	-0.152093	-3.82362	-5.35914	-5.99383	0
0.8453	27.7415	-0.84208	3.44732	7.50912	-9.73436	-0.760463	-4.12621	-12.9867	-6.61583	0
0.8460	-42.4337	-11.8274	-7.24476	6.90288	-11.5847	-1.67302	-4.74056	-22.7409	-6.92683	0.322062
0.8467	-128.474	-19.1382	-15.1898	6.59976	-11.9065	-1.67302	-4.74056	-29.4611	-7.23783	0
0.8473	-178.841	-21.8941	-17.0211	6.90288	-10.378	-1.06465	-4.74056	-36.4648	-6.61583	0
0.8480	-156.873	-21.2817	-16.1054	6.29664	-9.73436	-0.456278	-5.04315	-39.8391	-6.30483	0.322062
0.8487	-61.3504	-18.2578	-13.6546	6.29664	-8.20582	1.36883	-3.20928	-38.3079	-6.92683	0
0.8493	4.27153	-16.7268	-13.0352	5.99352	-8.20582	1.06465	-3.51187	-37.0887	-7.83156	0
0.8500	-10.7023	-17.3392	-14.5703	5.07038	-9.13099	-0.760463	-5.04315	-35.2456	-8.73629	0.322062
0.8507	-29.6191	-16.4206	-14.8666	5.07038	-7.92425	-0.456278	-4.4288	-30.0566	-8.73629	0.322062
0.8513	-31.1211	-15.1957	-15.1898	4.76726	-8.52762	0.152093	-3.51187	-27.0226	-8.73629	0
0.8520	-46.9868	-14.8895	-15.486	4.76726	-9.13099	0.456278	-1.98975	-26.7106	-7.52056	0.322062
0.8527	-53.4176	-13.9709	-14.8666	5.67662	-6.39571	1.67302	1.98058	-24.584	-5.99383	0.322062
0.8533	-32.9518	-12.4398	-14.5703	4.76726	-5.79234	3.49813	6.55609	-21.2097	-6.61583	0.322062
0.8540	-12.2044	-10.2963	-13.6546	2.32852	-5.47055	5.93161	8.99514	-18.7712	-8.45356	0.322062
0.8547	-14.9738	-8.45908	-13.0352	0.496015	-4.54538	6.53998	8.69255	-16.0207	-10.263	0.322062
0.8553	-47.9256	-6.9663	-14.5703	-0.110226	-6.99908	4.41069	5.63916	-12.3629	-11.7897	0.322062
0.8560	-85.1489	-4.51661	-13.9509	1.10226	-6.39571	2.88976	3.80528	-6.57842	-9.66929	0
0.8567	-97.9635	-0.229658	-10.2881	2.63164	-2.41348	4.41069	5.63916	1.36105	-6.30483	0.644124
0.8573	-85.4775	1.91382	-8.45671	2.0254	-3.94201	3.19394	4.72222	4.42342	-6.30483	0.322062
0.8580	-39.3826	3.44487	-7.24476	2.63164	-6.07392	-0.760463	1.66882	-0.453684	-5.99383	-1.93237
0.8587	19.1984	7.69355	-3.87823	4.16102	-7.60245	-2.33209	-1.38457	-0.765592	-2.94037	-1.28825
0.8593	26.8496	12.5929	-1.13115	4.16102	-9.13099	-1.9772	-3.51187	8.39315	0.113091	0.644124
0.8600	15.2555	16.8416	1.29274	5.67662	-7.32088	-1.06465	-1.98975	18.7712	2.85555	0
0.8607	39.9928	20.2099	3.44732	7.50912	-6.39571	-0.456278	-0.155879	24.2437	4.97601	0
0.8613	53.4176	22.3534	4.36301	6.90288	-8.20582	-0.760463	-1.68716	26.3987	6.19174	0.322062
0.8620	42.1051	23.5782	4.03983	5.99352	-10.6595	-0.760463	-2.6041	26.6823	6.50274	0.322062
0.8627	32.0599	23.272	1.29274	4.46414	-13.7166	-0.760463	-1.98975	24.2437	4.38228	0
0.8633	13.4248	22.0472	0.700237	4.16102	-13.3948	1.36883	1.06365	23.9602	3.13828	0
0.8640	-8.87164	21.1286	0.700237	5.07038	-11.2629	2.88976	3.80528	24.8676	4.97601	0.322062
0.8647	-15.2555	18.6789	-2.37003	5.67662	-13.3948	1.9772	2.88835	19.3666	5.59801	0.322062
0.8653	-14.6452	16.5354	-4.49767	5.99352	-14.32	2.28139	2.28317	12.3629	5.59801	0.322062
0.8660	-21.9679	15.6168	-5.70962	5.3735	-13.7166	1.9772	2.28317	9.30052	5.28701	0.322062
0.8667	-32.9518	13.8178	-7.8642	4.16102	-14.0384	1.67302	1.98058	4.73533	3.76028	0.322062
0.8673	-37.5519	13.8178	-7.8642	4.46414	-12.7914	3.80231	4.11704	0.765592	2.54455	0.322062
0.8680	-35.7212	15.6168	-6.62532	4.16102	-12.1881	5.32324	5.94175	0.765592	1.61155	0.322062
0.8687	-36.0029	16.2292	-6.03281	2.63164	-11.2629	5.32324	5.33657	1.67296	-1.72464	0.644124
0.8693	-37.8335	17.1478	-5.70962	0.496015	-11.2629	5.32324	5.63916	2.26842	-5.7111	0.322062
0.8700	-29.6191	17.7602	-6.03281	-0.730245	-13.3948	5.62743	5.94175	4.42342	-7.52056	0.322062
0.8707	-13.7534	19.5975	-4.49767	-0.730245	-11.5847	6.2358	5.63916	8.39315	-8.14256	0.322062
0.8713	-7.93284	20.5161	-2.37003	-0.427124	-9.13099	6.2358	4.41963	12.051	-8.14256	0.322062
0.8720	-15.2555	20.2099	-2.66629	0.192895	-9.73436	5.01906	2.28317	12.3629	-5.7111	0.322062
0.8727	-19.2453	20.8223	-3.87823	1.10226	-9.45278	4.1065	1.06365	12.3629	-2.94037	0.322062
0.8733	-15.8657	20.8223	-4.49767	1.40538	-10.0562	3.19394	0.14671	11.7391	-1.41364	0.644124
0.8740	-18.3066	20.5161	-4.79393	1.40538	-11.9065	1.9772	-1.38457	11.4272	-0.197909	0.966187
0.8747	-17.0861	21.1286	-3.28573	1.40538	-11.9065	2.28139	-1.98975	12.9583	-0.197909	0.322062
0.8753	20.4188	22.3534	-1.75059	0.496015	-11.9065	3.80231	-1.68716	15.085	-0.50891	0.322062
