MR32 ASCII
Name	USMC15_fast
Frequency	1500
Date	05-09-2015 09:56:58
"Time,s"	"RT TIB.ANT.,uV"	"RT MED. GASTRO,uV"	"RT LAT. GASTRO,uV"	"RT BICEPS FEM.,uV"	"RT VMO,uV"	"RT VLO,uV"	"RT RECTUS FEM.,uV"	"RT SOLEUS,uV"	"RT SEMITEND.,uV"	"Channel 12,uV"
0.0000	2.33256	-81.3628	7.18353	-51.3016	-6.77782	12.4336	2.64669	34.2347	2.16287	-9344.45
0.0007	4.45306	-61.2478	9.63373	-36.0533	-7.10755	22.2074	1.12645	40.9463	8.87524	-10321.5
0.0013	8.73649	-73.1526	8.10236	-4.91048	-7.69374	24.9313	-0.402957	14.6922	13.1264	-9528.74
0.0020	12.0869	-62.7667	3.2298	18.5712	-9.23249	18.5222	-2.5368	-19.1759	12.5298	-9870.63
0.0027	15.7342	48.3168	2.92353	24.3863	-9.85531	13.6513	-3.75483	-15.51	11.0008	-9842.97
0.0033	16.9641	155.747	7.48981	28.6506	-9.85531	11.5043	-2.83901	18.3581	7.94297	-9791.19
0.0040	16.0734	153.9	6.26471	31.0874	-10.4415	10.2866	-1.62099	38.4929	3.05786	-9817.56
0.0047	17.6002	116.995	-0.751765	26.2138	-9.85531	11.2159	0.210637	26.5925	12.5298	-9816.59
0.0053	18.1939	79.4334	-2.58941	17.6667	-8.93939	10.2866	1.73088	3.41219	31.4363	-9810.8
0.0060	16.3703	21.4696	4.42706	3.93208	-8.02347	3.58908	1.12645	5.24518	46.0916	-9790.22
0.0067	16.3703	-20.3612	11.7498	-1.56914	-7.40064	-5.57589	2.64669	24.1673	52.804	-9909.22
0.0073	16.9641	-28.5714	19.9914	3.32288	-8.31657	-13.8115	5.7055	33.6143	37.2536	-9688.59
0.0080	15.7342	-29.5156	25.8106	6.07349	-8.31657	-18.6824	6.92353	42.4691	3.99013	-9733.94
0.0087	11.1539	-43.8423	23.0541	10.6517	-8.93939	-20.5411	8.75515	56.5126	-41.1692	-10538.6
0.0093	9.96638	-45.0738	13.2812	34.1518	-10.7712	-20.8295	9.36875	67.1722	-75.9616	-6752.16
0.0100	12.0869	-30.706	-8.07451	66.1807	-9.52558	-19.2913	8.45294	71.1484	-38.1486	-464.424
0.0107	13.0199	-28.8998	-25.7828	69.5405	-6.48472	-16.8559	9.05737	60.1786	30.2057	108.387
0.0113	14.2074	-24.0147	-15.7035	75.3371	-5.5688	-15.0293	8.45294	49.4909	54.3329	-287.531
0.0120	12.0869	-22.1675	3.2298	119.587	-5.27571	-13.2027	5.09191	48.5603	67.4593	55.3192
0.0127	11.1539	-38.0541	11.1651	143.696	-5.5688	-8.33179	2.34448	19.8809	73.575	27.0164
0.0133	16.9641	-44.7454	16.6502	123.26	-4.35979	2.37136	3.26029	-33.5297	55.2652	-24.4434
0.0140	18.7877	-34.9753	21.5228	85.1027	-2.82104	18.5222	5.7055	-41.1437	41.8031	1.60812
0.0147	17.6002	-18.5139	16.6502	58.2612	-3.73696	45.6967	6.30994	4.00439	14.6553	-0.643247
0.0153	20.6537	-31.0344	8.10236	54.2922	-4.06669	71.0125	7.22575	29.0459	-23.195	-0.321624
0.0160	21.2475	-78.0376	9.94	-2.4737	-3.44386	64.315	9.05737	12.2388	-7.60735	-0.321624
0.0167	14.2074	-99.6714	15.1188	-109.6	-3.73696	38.0699	9.36875	-8.79837	61.6419	-0.643247
0.0173	6.61598	-74.6715	12.6686	-128.817	-3.44386	20.3808	8.45294	-14.2974	121.457	-0.321624
0.0180	3.22317	-52.3809	4.12079	-69.9282	-2.52794	11.8247	6.92353	-4.85039	137.044	-0.321624
0.0187	0.805792	-72.2084	1.39216	-43.6774	-2.23485	9.6777	4.47832	4.00439	110.791	-0.643247
0.0193	0.169641	-67.9391	8.10236	-42.1452	-2.82104	12.1131	3.26029	7.07818	32.9652	-0.643247
0.0200	0.805792	19.3349	12.9749	-37.567	-4.35979	15.7984	2.64669	9.81357	-41.1692	-0.321624
0.0207	-1.95087	108.744	10.5526	-35.1302	-5.8619	16.6956	2.95807	-21.6293	-43.3321	-0.321624
0.0213	-3.18076	98.3578	3.81451	-21.7095	-6.48472	14.5806	2.95807	-91.1985	-34.1585	-0.321624
0.0220	2.03569	62.0689	-4.70549	14.916	-5.8619	6.31293	2.04226	-117.763	-41.5048	-0.643247
0.0227	3.56245	90.1476	-15.3973	46.0404	-3.73696	-2.81999	2.95807	-76.5628	-19.5032	-1.28649
0.0233	-5.59814	55.6239	-30.6553	13.3838	-2.23485	-1.92272	4.1761	-32.5991	12.5298	-1.28649
0.0240	-14.165	-92.6517	-37.0592	-42.459	-2.52794	5.70407	2.04226	-0.253799	6.11571	0
0.0247	-12.6382	-213.218	-29.7365	-45.2097	-2.23485	12.722	-0.402957	40.0157	-48.5155	0
0.0253	-6.23429	-241.584	-23.6388	-27.8014	-0.6961	17.3045	-1.9232	56.5126	-92.1459	-0.321624
0.0260	0.508922	-222.085	-14.1722	-22.9279	-0.403005	14.869	-4.36842	28.7357	-66.2287	0
0.0267	5.68296	-175.082	9.63373	-17.4267	-0.6961	7.5627	-7.11585	-8.48818	4.58678	0
0.0273	3.85932	-117.693	21.829	-20.7865	-0.989195	4.8068	-6.81363	-32.3171	61.9775	0
0.0280	0.169641	-120.156	7.48981	-37.8809	-2.52794	5.70407	-4.0662	-27.7205	101.319	0
0.0287	5.38609	-78.325	-3.20196	-44.8958	-3.44386	3.26863	-1.31877	18.0479	130.332	0
0.0293	15.7342	142.939	9.02118	-35.7394	-2.23485	-1.60227	0.210637	47.0375	60.4486	0
0.0300	19.127	329.064	14.2	-26.2877	-0.403005	-2.21113	1.73088	19.8809	-82.3757	0
0.0307	15.1404	277.216	-0.44549	-12.2393	-0.989195	3.26863	2.64669	-6.37318	-130.593	-0.321624
0.0313	10.857	127.955	-5.62432	19.8081	-2.52794	6.63339	2.64669	-1.77659	-88.1931	0
0.0320	9.96638	44.3349	4.12079	58.2612	-2.82104	6.95384	3.56251	30.5687	-56.4585	0
0.0327	11.79	-43.2265	11.4714	71.9773	-1.61202	6.95384	4.1761	51.0136	-46.9866	0
0.0333	12.3838	-220.854	16.0377	60.698	-1.61202	5.41566	2.34448	9.19317	-36.3214	0
0.0340	9.33023	-376.19	21.2165	53.3692	-1.90512	3.58908	-1.31877	-54.877	-28.0801	0
0.0347	6.61598	-424.096	19.1004	54.2922	-0.989195	3.26863	-1.00739	-67.0876	-16.4826	0
0.0353	5.97983	-424.384	8.40863	59.775	-0.403005	4.48635	1.12645	-35.9549	24.7239	0
0.0360	4.45306	-432.019	-8.68706	69.5405	0.219821	3.87749	0.815072	-29.8637	64.1031	0
0.0367	4.15619	-401.806	-22.4137	78.0877	0.219821	2.0509	-0.402957	-28.9331	51.5734	0
0.0373	13.0199	-204.679	-9.29961	70.4636	-1.31893	0.544771	-2.23458	23.8571	10.0686	0
0.0380	28.5844	217.98	23.0541	17.0575	-2.23485	-1.60227	-3.75483	94.9491	-17.3776	0
0.0387	39.8655	597.043	37.6996	-23.5371	-3.73696	-4.64658	-4.67064	115.704	-0.298327	0
0.0393	36.5151	555.541	22.4416	15.8391	-4.35979	-6.18475	-4.0662	81.2158	50.3801	0
0.0400	21.2475	277.832	-5.93059	30.1828	-4.06669	-2.81999	-2.83901	43.9919	65.3337	0
0.0407	8.14274	160.016	-20.2698	-19.8635	-3.15077	1.76249	-1.00739	14.382	54.3329	0
0.0413	2.03569	155.418	-15.3973	-29.3337	-2.23485	3.26863	-0.402957	-15.8202	85.7691	0
0.0420	0.508922	143.842	-9.29961	-17.4267	-1.90512	2.37136	-1.62099	-22.8419	71.4121	0
0.0427	1.69641	159.113	-4.09294	-56.8028	-1.61202	3.26863	-1.00739	-13.9872	-49.1122	0
0.0433	2.62943	189.614	4.12079	-108.068	-1.31893	6.02453	-0.0915811	-37.4777	-114.446	0.321624
0.0440	2.33256	174.343	9.02118	-127.599	-0.6961	7.5627	-0.0915811	-61.3066	-69.2493	0
0.0447	3.22317	102.955	8.7149	-117.833	-0.6961	8.17156	-0.402957	-8.20618	-17.3776	0
0.0453	5.08922	21.7569	3.2298	-88.2225	-0.989195	7.24225	-0.0915811	76.027	-0.298327	0
0.0460	5.97983	-34.688	-5.93059	-61.9902	-0.403005	5.09521	1.73088	120.893	-7.0107	0
0.0467	7.80346	-72.2084	-6.23687	-51.3016	0.512916	5.09521	2.95807	124.869	-17.3776	0
0.0473	9.33023	-105.501	5.65216	-33.9119	1.42884	6.63339	-0.402957	91.0011	-20.7338	0
0.0480	12.3838	-120.731	20.2977	-1.25531	1.13574	8.78043	-3.75483	25.0697	-19.8388	0.321624
0.0487	17.2609	-90.5171	27.9267	14.6207	-0.403005	7.85111	-4.0662	-44.8097	-14.3197	0
0.0493	13.0199	5.58291	23.9729	7.90108	-2.52794	2.98022	-4.36842	-87.8427	-8.53962	-0.321624
0.0500	3.56245	95.32	20.6039	0.572274	-4.06669	1.44204	-1.9232	-81.1312	-4.88511	-0.321624
0.0507	1.69641	99.302	18.1816	-2.78753	-4.65288	0.544771	0.815072	-32.0069	-0.596655	0
0.0513	0.805792	82.5122	4.42706	2.71369	-4.98261	-2.21113	1.12645	-4.85039	2.16287	0.321624
0.0520	-1.35712	64.8193	-14.7847	12.1654	-4.98261	-3.42885	2.04226	-15.1998	1.2306	0.321624
0.0527	-1.654	1.02627	-23.0263	14.6207	-4.98261	-5.8643	2.64669	-5.44258	-0.596655	-0.964871
0.0533	-3.47763	-106.404	-16.3161	26.823	-3.73696	-6.47316	2.95807	22.3343	0.633946	-1.28649
0.0540	0.508922	-165.312	-9.29961	36.2748	-3.44386	-1.60227	2.34448	33.6143	3.05786	-0.321624
0.0547	12.0869	-82.3069	-8.68706	14.0115	-2.23485	2.65976	0.815072	36.3497	-0.894982	0
0.0553	13.3168	8.33332	-8.68706	-10.0979	1.75857	8.17156	2.64669	47.3477	-7.60735	0
0.0560	2.62943	6.52708	-6.84941	-0.959944	2.96759	14.5806	3.56251	50.7034	-4.88511	0.321624
0.0567	-0.12723	-5.70607	2.92353	28.9645	2.05166	8.45997	0.512854	45.5147	6.71237	-0.321624
0.0573	1.10266	8.94908	9.02118	56.1198	2.34476	-6.18475	-1.00739	91.5933	12.5298	-0.321624
0.0580	-1.654	70.6074	1.69843	63.1348	2.05166	-12.8822	-2.5368	166.972	8.2413	0
0.0587	3.85932	128.9	-1.97686	35.9794	1.42884	-10.7672	-4.36842	136.149	3.35618	0
0.0593	10.5601	106.322	7.18353	-3.0829	1.75857	-3.74931	-3.75483	17.7377	2.4612	0
0.0600	11.1539	69.3759	16.0377	-14.0669	2.34476	2.37136	-3.45261	-54.2848	3.99013	0
0.0607	9.96638	64.8193	13.8937	14.0115	2.96759	6.02453	-1.62099	-77.7754	6.11571	0
0.0613	2.33256	65.1066	4.42706	59.775	2.05166	6.63339	-0.705175	-83.5846	5.51906	0
0.0620	-11.4083	32.1428	-7.15569	65.8854	0.842648	5.41566	-1.62099	-58.543	0.932273	-0.321624
0.0627	-24.5131	-20.3612	-19.9635	22.854	0.842648	4.48635	-1.00739	-56.71	-6.41404	0
0.0633	-29.7295	-5.70607	-27.2863	-17.4267	0.512916	3.26863	-1.00739	-86.6301	-6.41404	0
0.0640	-23.6224	15.0657	-24.5577	-43.0682	1.13574	2.37136	-0.0915811	-75.04	13.4247	0
0.0647	-12.3413	-51.4777	-19.3788	-52.2246	1.42884	1.44204	1.73088	-42.6665	35.4264	0
0.0653	-7.42177	-124.097	-16.9286	-36.3486	-0.0732737	-0.993406	0.512854	-43.9073	36.9553	0
0.0660	-10.8146	-101.231	-4.70549	-21.7095	-0.6961	-3.74931	-0.402957	-59.1634	25.3578	-0.321624
0.0667	-15.0556	24.8358	12.3624	-29.3337	-0.0732737	-5.57589	2.95807	-65.5648	-7.60735	-0.321624
0.0673	-20.8658	121.88	11.1651	-50.0832	1.42884	-4.64658	7.53713	-66.7774	-56.4585	0
0.0680	-25.7429	113.916	0.473334	-63.504	2.34476	0.224317	8.14156	-62.8294	-63.1708	0.321624
0.0687	-28.7965	83.1279	-1.67059	-54.9752	2.34476	5.41566	3.87388	-54.5668	-26.2155	0.321624
0.0693	-31.2563	114.532	2.61726	-33.9119	4.1766	10.2866	0.210637	-49.9985	9.17357	0.321624
0.0700	-31.5531	188.998	8.40863	-17.4267	6.33818	10.8954	-0.705175	-34.7423	21.0694	0
0.0707	-33.0799	147.208	10.2463	-10.7255	7.2541	4.19794	-0.0915811	-5.44258	-5.78009	0
0.0713	-37.024	-32.8407	12.0561	-6.75653	9.08594	1.15363	1.73088	19.2605	-28.3784	0
0.0720	-37.3633	-189.121	16.6502	8.80564	9.37903	4.19794	0.815072	52.2262	-16.4826	0
0.0727	-33.6736	-292.569	12.6686	10.9471	10.588	3.58908	-1.9232	87.9273	8.53962	0
0.0733	-27.9059	-401.806	3.2298	-16.5221	14.8746	1.15363	-1.62099	88.5477	40.6098	-0.321624
0.0740	-15.6917	-438.751	11.1651	-34.8164	17.3292	-0.384544	1.12645	88.5477	39.9759	-0.643247
0.0747	1.69641	-394.786	35.862	-32.0843	14.8746	-1.31386	1.73088	142.269	4.28846	-0.321624
0.0753	14.5467	-307.84	51.7326	-29.629	9.37903	-4.03771	-1.31877	186.514	0.335618	0.321624
0.0760	20.0176	-25.5336	53.5702	-18.3497	6.00844	-12.5938	-2.5368	152.336	23.8289	0
0.0767	16.3703	305.87	32.2145	22.2449	6.00844	-23.8738	2.04226	84.5715	49.1495	0
0.0773	7.20972	273.234	-14.1722	59.1658	6.00844	-21.7588	6.30994	32.0915	82.1146	0.321624
0.0780	4.15619	8.33332	-41.6533	37.4932	2.67449	-8.01134	6.62131	-14.6076	106.205	0.321624
0.0787	3.22317	-41.0919	-35.5279	-13.7715	-1.90512	0.544771	4.1761	-49.9985	105.608	0
0.0793	-1.35712	115.763	-29.4302	-33.9119	-4.98261	2.37136	1.12645	-56.1178	63.1708	0
0.0800	-5.89501	188.998	-35.2216	-31.4751	-5.8619	2.0509	-0.402957	-61.3066	-43.9287	0.321624
0.0807	-11.7052	159.729	-35.2216	-15.2853	-6.19163	1.76249	-1.00739	-75.9424	-151.364	0
0.0813	-16.2855	200	-23.0263	14.916	-5.8619	3.26863	-1.00739	-87.5325	-150.133	-0.321624
0.0820	-15.3949	282.389	-13.2533	21.0265	-5.5688	5.09521	-0.402957	-96.6975	-77.4906	0.321624
0.0827	-15.3949	247.29	-12.3345	0.572274	-4.65288	1.15363	-0.705175	-72.2764	-36.6197	-0.321624
0.0833	-19.339	131.65	-16.3161	-9.48867	-1.61202	-3.74931	0.512854	-39.6209	-23.7916	-0.643247
0.0840	-17.2185	82.5122	-23.3326	-8.27028	0.842648	-3.42885	1.73088	-39.9311	-13.7231	-0.643247
0.0847	-2.88389	74.8767	-27.8988	-3.39672	-0.6961	-0.993406	0.815072	-21.6293	-10.3669	0
0.0853	11.4931	30.6239	-22.72	-1.86451	-2.23485	-0.384544	-1.62099	32.9939	-3.65451	0
0.0860	16.0734	-18.5139	-12.9471	0.572274	-1.31893	-0.704998	-1.31877	103.494	6.11571	0
0.0867	15.7342	-57.2659	-13.5596	28.0414	-1.61202	-0.0640907	1.12645	133.104	8.53962	0
0.0873	18.4908	-126.231	-23.9451	34.4472	-0.989195	1.15363	2.04226	77.2678	7.64464	0
0.0880	25.1916	-226.929	-27.8988	-7.36572	1.75857	3.26863	3.56251	-4.54019	19.8388	0
0.0887	27.9483	-317.898	-19.3788	-22.6141	4.50633	8.17156	6.30994	-72.5866	54.9295	0
0.0893	22.4774	-361.206	-5.01177	27.7276	6.63127	9.38929	7.53713	-113.787	83.9419	0.321624
0.0900	16.6672	-378.612	12.3624	90.2901	6.33818	3.87749	6.30994	-100.956	92.4815	0
0.0907	13.0199	-332.553	27.6204	115.618	5.09252	-0.384544	4.1761	-60.0658	88.827	-0.321624
0.0913	6.91285	-107.307	26.1169	107.994	3.88351	-1.60227	2.34448	-44.4995	35.4264	-0.321624
0.0920	5.08922	165.517	14.2	108.307	2.34476	-1.92272	-0.402957	-60.0658	-53.6989	0
0.0927	13.3168	217.98	22.1353	116.541	2.34476	-6.79361	-1.31877	-57.0202	-89.722	0.321624
0.0933	18.4908	69.9917	39.231	95.7913	2.67449	-13.8115	0.815072	-28.0307	-70.4799	0
0.0940	14.5467	-73.1526	31.2957	68.9313	2.34476	-11.0556	0.512854	-7.58578	-61.3436	0
0.0947	10.2633	-86.8636	16.9565	56.1198	3.26068	-4.03771	-0.705175	38.8031	-66.2287	0.321624
0.0953	10.5601	25.1231	9.63373	36.884	4.79943	1.44204	-1.9232	122.726	-57.6518	0.321624
0.0960	9.33023	127.955	-11.722	20.1034	6.92437	9.99815	-3.15039	173.683	-31.1006	0.321624
0.0967	6.91285	108.456	-23.3326	21.3218	10.0019	17.9134	-1.9232	147.457	-3.05786	0.321624
0.0973	8.14274	58.0869	-9.60589	9.43329	10.9178	18.8427	-1.9232	57.7252	11.0008	0
0.0980	3.22317	109.975	0.167059	-39.3946	10.0019	13.6513	-2.5368	-16.7507	7.34631	0
0.0987	-7.1249	222.865	2.00471	-83.6628	9.08594	8.17156	-2.23458	-19.4861	-13.7231	0
0.0993	-13.232	250.656	3.81451	-72.6604	6.92437	4.19794	-2.23458	-7.89598	-27.4461	0
0.1000	-10.1784	174.959	16.3439	-30.2567	4.50633	1.44204	-1.62099	5.52718	-7.30902	0
0.1007	2.03569	116.379	29.1518	-18.6451	2.67449	0.224317	-0.705175	18.9785	27.4834	-0.321624
0.1013	9.03336	98.0704	16.0377	-35.7394	2.05166	-0.993406	-0.402957	-18.2735	42.7354	0
0.1020	2.9263	70.279	7.18353	-25.3647	1.13574	-0.993406	-1.00739	-62.5192	31.7346	0
0.1027	-4.07137	28.1609	16.0377	3.32288	-0.0732737	-0.0640907	-1.62099	-72.2764	11.8958	0
0.1033	-2.54461	-58.4974	8.40863	10.6517	0.842648	-0.993406	-1.62099	-49.4063	10.4042	0
0.1040	4.45306	-187.561	-3.20196	14.916	2.67449	-1.60227	-0.0915811	15.0024	27.1851	0
0.1047	11.1539	-204.967	9.94	32.915	2.05166	-1.92272	1.42867	63.2242	56.7568	0.321624
0.1053	19.127	-107.923	34.6647	39.0254	1.75857	-3.14044	0.815072	36.3497	104.079	0
0.1060	23.6649	-124.425	42.8784	-14.6761	2.34476	-1.60227	-0.402957	-20.1065	158.71	0
0.1067	19.127	-200.41	32.8271	-83.6628	1.75857	0.544771	0.210637	-45.4301	188.916	0.321624
0.1073	15.7342	-132.635	19.9914	-73.2696	1.13574	-1.92272	-0.0915811	-44.4995	169.375	0
0.1080	13.9105	-110.057	12.0561	-38.4901	1.42884	-4.03771	-1.62099	-53.9746	142.228	0
0.1087	9.03336	-294.376	9.02118	-59.2396	-0.0732737	-1.92272	-1.9232	-81.1312	111.09	0
0.1093	11.1539	-367.651	12.6686	-82.4259	-3.73696	1.76249	-2.83901	-106.455	21.0694	-0.321624
0.1100	16.0734	-250.123	22.4416	-67.473	-7.69374	5.09521	-2.83901	-103.099	-72.6054	0
0.1107	6.61598	-192.446	16.0377	-47.3326	-9.23249	5.09521	-1.00739	-77.7754	-80.5484	0.321624
0.1113	-6.82803	-159.524	-20.2698	-27.5061	-6.48472	3.26863	-0.402957	-48.1655	-31.7346	0
0.1120	-13.5288	-129.31	-64.5404	-8.87948	-2.82104	1.76249	-1.9232	22.3343	-10.0686	0
0.1127	-13.232	-77.0935	-83.4459	-14.6761	-2.52794	0.833179	-4.98201	107.47	-61.9402	-0.643247
0.1133	6.91285	118.514	-70.6381	-31.7704	-2.52794	2.65976	-3.75483	133.414	-124.179	-0.964871
0.1140	39.5686	301.026	-42.5722	-39.0992	-1.61202	5.41566	-0.402957	149.29	-126.342	0
0.1147	53.2671	355.008	-13.8659	-46.428	-0.6961	6.63339	0.210637	189.87	-111.388	0
0.1153	46.8632	295.197	8.7149	-66.5684	-0.403005	5.09521	-0.402957	208.482	-92.7798	0
0.1160	43.2159	104.187	27.0079	-83.349	-1.61202	1.44204	-2.23458	192.916	-66.8254	0.321624
0.1167	43.5128	-86.5762	45.0224	-61.381	-0.6961	0.833179	-1.9232	160.881	-52.17	0.321624
0.1173	38.0419	-136.001	69.1345	-25.3647	1.13574	3.26863	0.512854	101.351	-42.1015	0
0.1180	29.475	-55.4597	98.7318	-23.5371	2.05166	4.19794	2.04226	0.958797	-42.3998	0
0.1187	18.1939	98.9736	117.971	-24.4416	1.75857	3.87749	1.73088	-78.0856	-50.3428	0
0.1193	0.169641	231.116	106.973	-2.4737	-0.6961	3.26863	0.512854	-84.487	-44.861	0
0.1200	-20.5689	211.289	62.1181	10.3379	-2.52794	3.58908	-0.0915811	-49.0961	-32.6296	-0.321624
0.1207	-16.9216	60.8373	23.9729	14.3069	-0.989195	3.26863	0.512854	5.83738	-32.6296	0
0.1213	16.6672	-138.136	22.4416	30.1828	1.13574	-0.993406	1.12645	56.2024	-37.813	0
0.1220	49.6199	-146.387	30.6831	53.9784	2.34476	-5.57589	-0.705175	90.3807	-34.1585	0.321624
0.1227	54.7939	67.2413	21.829	77.1832	1.75857	-7.72293	-1.31877	147.739	-29.2734	0.321624
0.1233	30.7049	104.762	0.473334	83.2751	-0.0732737	-8.33179	-0.705175	198.415	-35.9858	0.321624
0.1240	6.61598	-12.3974	-35.5279	69.5405	-1.90512	-7.40248	0.815072	172.471	-46.0543	0.321624
0.1247	4.45306	8.66173	-88.04	54.2922	-3.44386	-7.40248	0.512854	98.6151	-45.1593	0.321624
0.1253	10.857	211.576	-128.914	41.776	-3.73696	-8.01134	-1.31877	40.3259	-39.0436	0
0.1260	10.857	396.838	-145.703	39.6346	-3.15077	-7.72293	0.210637	-19.7963	-31.7346	0
0.1267	5.68296	383.415	-144.784	46.3542	-3.15077	-8.6202	1.73088	-100.364	-27.1478	0
0.1273	3.85932	270.812	-126.798	25.9	-1.61202	-8.01134	1.73088	-138.518	-24.0899	0
0.1280	2.33256	163.67	-99.0102	-16.8175	1.42884	-5.57589	2.04226	-104.311	-17.3776	0
0.1287	-11.1115	38.8751	-80.411	-34.5211	4.50633	-2.53158	2.04226	-79.2982	-8.53962	0.321624
0.1293	-28.2027	-134.195	-63.9279	-29.629	7.54719	0.833179	4.1761	-114.999	-0.894982	0.321624
0.1300	-30.9594	-385.632	-3.20196	-31.1613	10.0019	3.58908	5.7055	-110.741	1.52893	-0.321624
0.1307	-30.9594	-643.8	85.3114	-33.9119	10.0019	3.87749	4.1761	-13.677	0	-0.321624
0.1313	-30.0264	-777.79	106.361	-25.6785	8.46311	2.98022	2.95807	69.0052	-1.82726	0
0.1320	-13.5288	-752.749	78.2949	-17.1313	5.71535	-0.0640907	1.73088	103.183	-2.72224	0
0.1327	15.7342	-724.999	126.826	-15.2853	2.34476	-3.42885	1.12645	145.624	-3.65451	0.321624
0.1333	45.9726	-920.934	210.439	-22.6141	-2.52794	-6.18475	1.12645	194.749	-3.65451	0.321624
0.1340	60.9009	-949.013	160.989	-29.0198	-6.77782	-8.6202	2.04226	221.595	-1.82726	0
0.1347	56.9568	-261.453	22.7479	-22.3187	-9.85531	-9.83792	2.95807	212.74	3.6918	0
0.1353	47.2025	389.49	-64.5404	-7.66109	-12.2733	-10.7672	2.64669	195.059	10.7025	0.321624
0.1360	35.879	368.431	-115.187	6.07349	-12.6031	-10.7672	2.04226	204.196	15.5876	0.321624
0.1367	24.0041	418.513	-139.912	13.6977	-11.3574	-10.4468	1.73088	193.846	18.9438	0
0.1373	5.08922	709.646	-124.654	14.916	-11.3574	-10.1584	2.34448	108.09	20.1371	0.321624
0.1380	-13.5288	755.705	-92.6063	16.4483	-11.9803	-9.83792	2.95807	-32.3171	21.0694	0.321624
0.1387	-16.5824	629.063	-52.6236	16.4483	-11.9803	-11.6645	2.04226	-171.145	18.9438	0
0.1393	-15.0556	481.978	-32.493	10.3379	-11.3574	-12.2734	1.42867	-225.797	15.8859	0
0.1400	-15.0556	313.834	-40.122	7.58725	-8.93939	-8.94065	2.95807	-157.13	25.6562	0.321624
0.1407	-11.1115	241.502	-48.0573	14.0115	-5.8619	-5.25544	5.09191	-78.0856	41.5048	0
0.1413	-10.4753	286.042	-54.1549	25.2908	-3.73696	-4.03771	4.47832	-80.2288	51.275	0.321624
0.1420	-17.2185	302.545	-61.4777	22.5402	-2.52794	-5.57589	2.04226	-140.041	60.7469	0
0.1427	-18.7453	200.615	-59.3337	-0.646116	-0.989195	-6.79361	2.34448	-195.566	72.0461	-0.643247
0.1433	-3.47763	33.3743	-26.089	-8.87948	0.219821	-6.47316	2.95807	-187.022	78.4601	-0.321624
0.1440	16.3703	-51.7651	27.0079	3.00905	0.512916	-5.8643	2.34448	-135.134	75.7006	0.321624
0.1447	22.1805	-61.8636	57.5518	9.72866	0.219821	-7.40248	2.64669	-103.099	58.2857	0.321624
0.1453	16.3703	-90.8455	62.1181	12.4793	-2.82104	-8.33179	0.512854	-95.4849	35.0908	0
0.1460	5.68296	-149.138	56.633	3.00905	-5.8619	-4.96703	-1.00739	-93.0315	52.804	0.321624
0.1467	-9.88156	-174.466	38.3122	-6.14733	-7.10755	-0.704998	2.04226	-103.409	114.148	0.321624
0.1473	-10.8146	-62.7667	-5.31804	24.9955	-5.5688	0.544771	5.09191	-107.075	144.353	0
0.1480	1.69641	117.898	-66.0439	33.2288	-3.15077	1.15363	6.00772	-76.5628	132.756	0
0.1487	-5.0044	138.341	-118.25	-16.8175	-1.61202	1.44204	4.47832	-25.2953	99.1939	0
0.1493	-18.1091	-123.809	-126.491	-38.4901	-0.989195	2.65976	2.34448	15.9048	-2.12558	0
0.1500	-21.1627	-354.515	-90.7687	-28.1153	0.512916	8.78043	3.56251	19.8809	-92.1459	0
0.1507	-29.4326	-83.4974	-53.2361	-64.1132	3.88351	16.6956	5.7055	-22.8419	-55.5262	0.321624
0.1513	-27.9059	297.66	3.53608	-133.709	6.33818	19.1311	7.22575	-55.8076	8.53962	0.321624
0.1520	-14.7587	65.394	87.1491	-131.863	6.63127	17.6249	8.45294	0.958797	-6.07842	0.321624
0.1527	-6.53116	-290.106	132.923	-59.5534	5.09252	13.9718	7.83934	109.303	-53.1023	0.321624
0.1533	2.33256	-154.639	129.554	-9.48867	4.1766	7.85111	5.7055	165.139	-76.2972	0
0.1540	4.45306	143.226	117.971	11.5562	4.1766	5.09521	3.87388	180.395	-71.4121	0.321624
0.1547	-7.76105	306.198	89.5714	29.5737	4.79943	6.63339	3.56251	213.361	-57.6518	0.321624
0.1553	-30.6201	168.555	38.3122	35.9794	6.63127	8.45997	2.95807	233.806	-39.0436	0
0.1560	-57.1689	-74.9588	10.8588	35.9794	6.63127	8.78043	3.56251	203.603	3.35618	0
0.1567	-58.6956	19.3349	-1.67059	42.6806	6.33818	9.6777	4.78969	141.028	24.7239	0
0.1573	-38.8901	-5.70607	-39.2032	49.1048	8.46311	11.8247	5.39413	138.292	11.2992	0
0.1580	-18.7453	-479.638	-51.0922	53.9784	10.588	12.722	4.47832	215.194	47.0239	0
0.1587	0.169641	-706.074	0.167059	47.8864	11.2109	11.8247	3.87388	229.237	57.0924	-0.321624
0.1593	-5.89501	-533.332	1.39216	-0.646116	11.504	10.2866	5.39413	143.791	-48.8138	0
0.1600	-29.4326	-367.651	-79.7985	-51.6154	9.67213	8.17156	5.39413	30.5687	-111.388	0
0.1607	-32.4862	-245.279	-118.25	-39.3946	4.1766	4.48635	4.1761	-100.956	-55.2279	0.321624
0.1613	-10.4753	-212.931	-92.6063	-12.5531	-1.61202	-0.384544	3.56251	-205.944	-1.52893	0
0.1620	14.5467	-34.4006	-51.3984	-19.8635	-5.5688	-3.42885	2.95807	-221.51	10.7025	-0.321624
0.1627	13.3168	505.172	13.2812	-24.4416	-7.10755	-3.14044	3.56251	-186.43	6.41404	0
0.1633	10.5601	776.477	122.538	-14.6761	-7.40064	-2.21113	4.47832	-144.299	-6.71237	0
0.1640	42.6222	458.784	208.907	-6.14733	-6.48472	-1.92272	5.39413	-16.1304	-6.71237	0
0.1647	77.1016	254.926	192.73	6.68269	-4.65288	-2.21113	5.09191	204.816	20.1371	0
0.1653	75.5748	297.044	99.0381	7.58725	-3.44386	-3.74931	3.56251	294.238	86.3658	-0.321624
0.1660	38.9325	95.6074	-8.07451	4.54127	-1.90512	-4.96703	2.64669	127.605	189.513	0
0.1667	-6.82803	-106.116	-71.5569	17.6667	0.219821	-3.74931	3.87388	-127.83	254.511	0.321624
0.1673	-34.6067	40.0656	-77.3483	1.79066	1.13574	-1.92272	4.78969	-244.719	236.201	0.321624
0.1680	-37.6602	294.909	-52.3173	-20.4911	1.13574	-0.0640907	3.56251	-211.753	143.458	0
0.1687	-30.6201	323.275	-13.5596	1.79066	2.05166	1.15363	4.47832	-165.364	-27.7445	0
0.1693	-26.9728	194.212	10.2463	20.1034	3.59041	-0.993406	6.00772	-134.232	-170.904	0
0.1700	-11.4083	93.8012	-40.4282	11.5562	6.00844	-3.42885	3.26029	-105.552	-143.123	0
0.1707	8.73649	-9.64695	-150.297	1.4953	8.46311	-4.03771	2.95807	-118.355	-27.4461	0
0.1713	2.62943	-111.001	-252.816	11.8701	9.08594	-5.57589	3.87388	-195.566	5.51906	0.321624
0.1720	-18.1091	-221.757	-326.99	49.4002	9.08594	-5.57589	2.04226	-265.446	-43.9287	0
0.1727	-36.1334	-239.778	-339.185	60.698	10.295	0.544771	2.04226	-247.764	-90.9153	-0.643247
0.1733	-40.4169	-32.8407	-287.62	24.0724	11.8337	6.02453	3.26029	-179.098	-97.6277	-1.28649
0.1740	-24.2162	117.611	-215.589	17.6667	10.9178	5.41566	2.64669	-131.496	-80.2501	-0.321624
0.1747	-15.6917	105.706	-97.1726	42.6806	6.63127	1.15363	1.42867	-87.8427	-69.5849	0.321624
0.1753	-12.0021	22.9885	73.3945	2.39986	2.96759	-3.14044	-0.402957	-36.8855	-62.2386	-0.321624
0.1760	14.5467	-230.624	218.986	-68.0822	0.512916	-6.47316	-2.23458	-20.3885	-61.6419	0
0.1767	39.5686	-443.308	289.179	-68.396	-1.31893	-10.4468	-1.9232	2.17139	-82.3757	0
0.1773	36.812	-267.528	287.035	-30.5521	-2.52794	-13.2027	-1.9232	56.5126	-99.4922	0
0.1780	32.2317	101.108	233.938	-12.5531	-2.52794	-13.5231	-3.75483	75.1246	-95.5021	0.321624
0.1787	33.7585	301.929	159.764	-6.75653	-2.82104	-14.7409	-4.98201	32.0915	-83.3079	0.321624
0.1793	7.80346	377.011	87.7616	-3.0829	-2.23485	-15.3497	-5.28423	-0.874197	-69.8832	0
0.1800	-37.6602	366.912	31.602	6.07349	-0.403005	-15.0293	-4.36842	32.9939	-57.6518	0
0.1807	-55.6421	332.142	35.2494	22.5402	1.42884	-14.4204	-3.75483	71.1484	-49.4105	0.321624
0.1813	-44.6579	362.643	88.6804	26.5092	3.59041	-15.0293	-1.9232	99.5457	-44.5254	0
0.1820	-49.5774	303.448	79.2138	12.7746	3.88351	-17.7852	0.210637	160.881	-43.0337	0
0.1827	-73.3695	198.481	-11.1373	2.39986	3.88351	-17.7852	-0.705175	177.659	-42.1015	0
0.1833	-95.0411	189.901	-102.379	2.10449	4.50633	-14.7409	-3.15039	109.613	-38.1486	0
0.1840	-119.13	188.998	-157.926	2.71369	4.79943	-13.2027	-4.67064	72.6712	-32.3312	0
0.1847	-136.221	91.6665	-190.252	5.15047	6.33818	-12.5938	-5.89782	69.3154	-26.2155	0
0.1853	-121.887	-122.578	-200.638	11.5562	8.17002	-12.2734	-6.20004	16.8354	-17.3776	0
0.1860	-84.6506	-289.819	-154.251	15.5252	9.37903	-11.985	-6.50226	35.4473	-7.60735	0.321624
0.1867	-51.4011	-280.049	-65.4592	14.916	11.2109	-10.7672	-6.50226	213.05	-0.298327	0
0.1873	-38.5508	-234.893	2.31098	13.0885	12.7496	-9.83792	-6.81363	383.039	4.88511	0
0.1880	-41.3075	-246.469	53.5702	11.5562	13.6655	-8.6202	-7.11585	395.56	8.2413	0
0.1887	-34.3098	-292.569	92.9404	10.9471	15.4974	-7.40248	-7.72945	273.173	11.0008	0.321624
0.1893	4.15619	-342.61	103.326	10.3379	16.7064	-6.18475	-8.03166	138.292	15.8859	0.321624
0.1900	64.5906	-277.627	108.198	9.11947	16.7064	-4.03771	-6.81363	36.9701	20.1371	0
0.1907	99.0701	-184.236	112.458	7.90108	16.4133	-2.21113	-5.58645	-67.3978	23.4933	0
0.1913	94.7866	-262.643	115.827	5.75966	15.1677	-1.60227	-5.28423	-117.763	24.7239	0.321624
0.1920	99.0701	-361.535	139.021	3.00905	13.9586	-1.92272	-4.0662	-57.0202	22.8966	0.321624
0.1927	128.672	-197.331	198.215	1.4953	12.4199	-2.21113	-4.0662	39.1133	20.4727	0
0.1933	132.616	144.129	230.569	1.4953	9.67213	-2.81999	-5.28423	-19.7963	17.4149	0
0.1940	74.345	189.901	160.989	2.71369	6.00844	-4.35817	-4.0662	-264.543	14.0587	0
0.1947	1.69641	5.58291	50.2012	4.2459	3.26068	-5.57589	-3.75483	-463.522	12.2314	0.321624
0.1953	-29.0933	79.4334	1.69843	3.32288	2.05166	-4.64658	-4.98201	-519.048	11.8958	0.321624
0.1960	-32.783	315.024	22.1353	1.79066	2.34476	-3.42885	-4.36842	-519.358	12.2314	0
0.1967	-40.0776	392.569	60.2804	0.886102	3.26068	-2.81999	-4.0662	-436.366	12.5298	-0.321624
0.1973	-52.9278	289.121	78.6012	0.886102	2.67449	-2.21113	-3.75483	-250.19	12.5298	-0.321624
0.1980	-64.5058	228.982	65.1808	1.18147	0.842648	-2.21113	-4.98201	-106.765	12.5298	0
0.1987	-68.4924	295.525	46.5537	-0.646116	0.219821	-1.60227	-6.20004	-64.6624	12.5298	0
0.1993	-61.4523	258.908	42.8784	-5.51968	2.05166	-0.0640907	-4.98201	-57.3304	13.1264	0
0.2000	-57.1689	127.381	49.6165	-8.27028	3.88351	2.0509	-3.45261	-86.6301	14.9537	0
0.2007	-53.5216	105.993	61.1992	-6.4427	4.50633	3.87749	-3.15039	-104.311	17.1165	0.321624
0.2013	-23.9193	150.862	63.9557	-2.78753	4.79943	4.19794	-3.75483	0.338399	17.7132	0
0.2020	8.14274	138.957	44.1035	-0.332288	3.88351	3.26863	-4.98201	155.071	16.4826	0
0.2027	6.61598	111.781	-1.97686	1.4953	2.34476	3.58908	-4.0662	224.048	15.5876	0
0.2033	-12.6382	125.533	-39.5094	2.39986	1.75857	4.19794	-1.9232	199.317	14.6553	-0.643247
0.2040	-17.2185	73.0294	-6.23687	3.61825	2.34476	4.48635	-1.31877	104.114	15.252	-1.28649
0.2047	-9.88156	-44.7454	53.5702	6.36886	2.05166	4.48635	-1.31877	-40.2413	18.0115	0.321624
0.2053	-19.9752	-54.2282	44.7161	8.51027	0.512916	3.58908	-0.705175	-178.787	18.9438	0.643247
0.2060	-39.187	7.10179	5.65216	7.58725	1.13574	3.26863	-1.00739	-227.32	18.9438	0
0.2067	-47.7114	8.04596	-18.1537	7.29188	2.34476	4.19794	0.210637	-175.432	20.4727	0.321624
0.2073	-53.8185	-26.1494	-58.7212	7.58725	2.05166	4.8068	1.12645	-80.2288	20.7711	0.321624
0.2080	-57.805	-63.0541	-127.104	6.36886	2.05166	3.87749	-0.705175	20.8115	18.6455	0
0.2087	-64.2089	-85.0573	-230.848	5.75966	1.42884	2.65976	-1.00739	90.0705	15.8859	0
0.2093	-74.2601	-72.8242	-342.554	5.46429	0.219821	1.44204	-0.705175	173.993	14.0587	0
0.2100	-79.1373	-67.036	-376.105	4.2459	0.842648	-0.704998	0.210637	285.693	13.4247	0
0.2107	-83.4207	-70.4022	-294.024	3.32288	1.75857	-0.704998	1.73088	311.327	14.0587	0
0.2113	-77.6529	-54.2282	-168.284	2.10449	1.13574	1.44204	1.73088	232.903	14.0587	0
0.2120	-70.6129	-66.4202	-73.673	1.4953	1.75857	2.98022	-0.0915811	133.724	14.357	0
0.2127	-81.0033	-186.371	-29.7365	1.18147	3.26068	3.26863	-1.31877	158.427	14.357	0
0.2133	-77.6529	-334.687	-28.8177	1.4953	3.88351	3.58908	-0.402957	372.352	14.9537	0
0.2140	-44.6579	-328.858	-63.3153	1.4953	4.50633	4.19794	2.64669	591.775	15.8859	0
0.2147	-0.12723	-210.18	-99.9291	0.886102	5.09252	3.26863	3.26029	744.675	15.252	0
0.2153	45.9726	-141.174	-95.0565	-0.646116	5.09252	2.65976	1.12645	804.797	13.4247	0
0.2160	79.8583	-127.175	-45.9133	-1.25531	4.50633	3.87749	1.12645	586.897	12.2314	0
0.2167	99.0701	-79.8439	29.458	-0.959944	3.88351	4.19794	2.64669	162.714	11.2992	0
0.2173	119.512	38.8751	96.5879	-0.0369209	5.42225	4.19794	5.39413	-253.856	11.0008	0.321624
0.2180	137.197	153.9	148.181	-0.646116	7.2541	5.70407	6.62131	-585.599	11.0008	0.321624
0.2187	124.389	167.036	203.728	-2.17833	5.71535	7.5627	3.26029	-787.906	9.4719	0.321624
0.2193	81.6819	76.3956	210.439	-3.0829	3.88351	7.85111	-0.0915811	-780.292	7.34631	0.321624
0.2200	48.0931	-15.1478	133.536	-3.69209	3.26068	6.31293	-1.31877	-642.958	5.18344	0
0.2207	36.812	1.31363	74.0071	-4.00592	3.88351	10.8954	2.04226	-584.979	4.58678	-0.321624
0.2213	26.4215	71.839	88.6804	-4.00592	4.1766	19.772	6.30994	-538.59	5.18344	0.321624
0.2220	3.56245	86.1657	94.7781	-4.91048	2.67449	23.1047	3.26029	-359.464	3.35618	0.321624
0.2227	-26.676	70.8948	62.4243	-5.8335	2.67449	24.9313	0.512854	-186.43	1.82726	0
0.2233	-41.6043	46.4695	28.8455	-5.8335	3.88351	25.8606	2.64669	-119.878	2.16287	0
0.2240	-19.339	-16.0919	17.569	-5.8335	4.79943	24.6429	3.26029	-43.5971	2.16287	0.321624
0.2247	28.5844	-92.3644	59.6679	-5.51968	6.00844	27.0783	4.1761	128.535	2.16287	0.321624
0.2253	71.8852	-138.136	83.1675	-7.05189	6.00844	27.3988	5.7055	294.548	1.52893	0
0.2260	104.541	-132.019	-5.62432	-8.27028	5.71535	17.6249	5.09191	279.574	0	0
0.2267	124.092	-122.29	-86.8149	-8.87948	6.33818	3.58908	4.47832	142.269	-0.596655	0
0.2273	113.998	-109.442	-88.04	-9.48867	6.33818	-5.25544	4.1761	41.8487	-1.19331	0.321624
0.2280	70.3584	-52.0935	-94.444	-10.0979	6.00844	-6.47316	4.47832	-24.0545	-1.82726	0
0.2287	15.1404	-7.84071	-92.3	-10.4117	5.09252	-4.64658	4.1761	-97.3179	-3.35618	0
0.2293	-19.6359	87.6846	-34.9153	-10.7255	4.50633	-4.64658	2.34448	-102.507	-4.54949	0
0.2300	-35.4973	259.195	29.458	-10.4117	3.88351	-10.7672	2.95807	-23.7443	-4.25117	0
0.2307	-57.1689	299.794	63.9557	-8.27028	2.96759	-28.1679	3.56251	-36.2651	-4.25117	0
0.2313	-69.0861	215.558	102.713	-5.8335	2.96759	-44.3187	5.39413	-126.9	-3.65451	0.321624
0.2320	-56.872	97.1673	156.117	-5.51968	2.96759	-43.7099	7.53713	-103.719	-3.35618	0
0.2327	-58.6956	-108.538	163.746	-4.61511	1.42884	-39.4478	5.7055	-29.2433	-3.35618	-0.964871
0.2333	-74.5994	-265.106	120.7	-0.646116	-0.0732737	-33.9681	4.78969	-46.6427	-1.52893	-0.643247
0.2340	-55.9814	-253.489	86.2302	0.276907	-0.6961	-26.3092	5.7055	-27.1283	-0.298327	0
0.2347	-15.9886	-171.387	59.3616	-3.69209	-0.0732737	-22.0472	6.30994	144.694	-1.82726	-0.964871
0.2353	2.9263	-103.038	14.5063	-6.14733	0.512916	-16.5674	8.75515	229.237	-2.12558	-1.28649
0.2360	-14.4619	-77.4219	-57.5239	-8.58411	-0.403005	-11.3761	8.45294	96.7821	-3.05786	-0.321624
0.2367	-48.9413	-52.0935	-121.285	-9.48867	-0.6961	-5.25544	6.00772	32.7119	-3.95284	0.321624
0.2373	-63.9121	-43.8423	-142.975	-6.75653	-0.989195	2.0509	5.7055	130.96	-2.72224	0
0.2380	-56.872	-81.9785	-163.105	-5.51968	-2.52794	7.85111	4.1761	168.184	-1.52893	0
0.2387	-50.4681	-66.4202	-191.171	-4.30129	-2.52794	9.38929	3.26029	151.716	-0.894982	0
0.2393	-27.2697	1.31363	-176.219	3.32288	-2.82104	0.224317	4.1761	227.714	1.52893	0
0.2400	35.2852	23.8916	-98.704	9.11947	-4.06669	2.65976	3.26029	328.416	3.6918	0
0.2407	90.8425	-2.62725	-1.05804	5.15047	-3.73696	40.2169	2.04226	262.203	2.75953	0.321624
0.2413	79.2221	-39.2857	49.9228	-0.0369209	-3.15077	79.8891	1.42867	-27.4103	0.633946	0
0.2420	23.0711	-68.2675	55.1016	0.886102	-3.73696	74.6977	-0.0915811	-301.767	0.335618	0
0.2427	-17.8123	-82.3069	55.7141	4.54127	-4.98261	29.5138	-1.62099	-342.967	0.932273	0
0.2433	-30.9594	-67.036	62.7306	4.2459	-6.77782	-13.5231	-3.45261	-261.808	0.633946	0
0.2440	-37.024	-25.5336	80.4389	2.39986	-8.31657	-34.2565	-1.9232	-180	-0.596655	0.321624
0.2447	-41.9436	11.0837	43.491	1.4953	-8.93939	-37.0124	0.210637	-100.053	-0.894982	0
0.2453	-38.5508	12.3153	-103.298	0.886102	-9.85531	-29.3856	-1.31877	-88.4631	-0.894982	0
0.2460	-36.7272	19.6223	-251.591	0.572274	-9.85531	-21.1499	-1.00739	-150.418	-0.894982	0.321624
0.2467	-39.4838	48.0295	-269.911	0.886102	-9.23249	-15.6381	-1.00739	-207.157	-1.52893	0
0.2473	-26.0398	20.8538	-193.621	0.276907	-9.23249	-13.2027	-1.62099	-141.874	-2.42391	0
0.2480	-15.3949	-31.9376	-140.524	-0.959944	-9.52558	-12.2734	0.210637	6.76798	-2.42391	0
0.2487	-18.7453	-5.70607	-81.0236	-0.646116	-8.93939	-11.6645	0.210637	29.0459	-2.12558	0
0.2493	-12.3413	52.2988	16.3439	0.276907	-8.31657	-10.7672	-0.0915811	32.9939	-1.82726	0
0.2500	-15.6917	-50.5746	65.1808	0.886102	-8.60966	-10.1584	0.512854	153.549	-1.19331	0
0.2507	-5.30127	-228.489	51.12	0.886102	-10.1484	-9.83792	0.210637	216.716	-1.52893	0
0.2513	45.3364	-167.118	51.4263	-0.0369209	-11.3574	-8.94065	0.815072	167.902	-1.82726	0.321624
0.2520	84.3962	32.7586	100.876	-0.959944	-12.2733	-8.6202	-0.705175	86.4045	-2.42391	0
0.2527	103.353	97.1673	135.652	-0.646116	-12.2733	-4.03771	-1.31877	-2.08679	-2.72224	0
0.2533	107.934	52.9145	123.15	-0.0369209	-11.6872	5.41566	0.815072	-67.0876	-2.12558	0
0.2540	84.0993	32.1428	86.8428	-1.25531	-11.0643	11.5043	-0.402957	-53.9746	-3.05786	-0.321624
0.2547	61.2402	53.4892	15.1188	-1.25531	-11.3574	12.4336	-2.23458	18.0479	-4.25117	0
0.2553	45.6757	40.0656	-89.8498	-0.959944	-12.8962	9.38929	-2.5368	-5.75278	-5.18344	0.321624
0.2560	23.6649	2.83251	-164.024	-3.39672	-13.1893	6.63339	-3.45261	-174.501	-6.71237	0
0.2567	15.7342	26.642	-170.428	-5.51968	-11.6872	9.06883	-1.00739	-292.01	-8.2413	0
0.2573	17.8971	76.3956	-144.172	-5.51968	-11.9803	8.78043	1.73088	-240.122	-8.2413	0.321624
0.2580	20.3145	90.1476	-103.911	-5.22431	-12.6031	6.63339	1.73088	-137.587	-7.0107	0
0.2587	27.0577	70.8948	-21.8012	-4.91048	-12.2733	7.85111	2.34448	-83.8666	-6.07842	-0.321624
0.2593	25.1916	65.394	109.117	-4.30129	-12.6031	6.02453	1.42867	-81.7516	-5.48177	-0.321624
0.2600	28.5844	92.857	212.861	-3.0829	-12.2733	5.09521	-1.62099	-44.8097	-4.25117	0
0.2607	53.2671	97.4547	200.359	-1.56914	-11.9803	10.2866	-4.67064	63.2242	-2.72224	0
0.2613	66.4143	77.9145	74.3134	-1.25531	-11.9803	13.6513	-8.33388	104.424	-2.72224	0
0.2620	48.39	53.2019	-97.4789	-0.959944	-12.2733	15.1895	-8.94747	22.0241	-2.72224	0.321624
0.2627	13.3168	17.4877	-207.96	-0.0369209	-12.8962	17.0161	-10.1655	-75.6322	-3.35618	-0.321624
0.2633	-26.676	17.2003	-200.944	1.18147	-11.9803	20.9897	-11.6949	-103.409	-3.65451	-0.964871
0.2640	-57.5081	47.0853	-117.944	1.4953	-10.7712	30.1226	-8.33388	-90.8883	-2.42391	0
0.2647	-71.8428	67.2413	9.94	0.276907	-11.0643	40.8258	-5.58645	-49.0961	-3.05786	0.321624
0.2653	-80.0703	84.6468	146.65	0.572274	-10.4415	49.6703	-5.58645	16.8354	-4.25117	0
0.2660	-88.934	35.1806	193.955	0.572274	-10.4415	56.9766	-1.62099	54.0592	-3.95284	0
0.2667	-67.2625	-98.7683	155.81	0.572274	-8.93939	61.5591	3.56251	112.969	-3.05786	0
0.2673	-14.4619	-154.31	123.763	1.79066	-6.77782	64.315	6.00772	211.217	-1.52893	0
0.2680	12.6806	-110.386	82.5549	2.10449	-9.23249	62.168	5.7055	235.639	-0.596655	0.321624
0.2687	13.0199	-74.0557	12.6686	1.4953	-12.8962	31.9492	4.47832	172.471	-0.894982	0
0.2693	23.0711	-24.9179	-2.58941	1.18147	-13.519	-10.4468	3.26029	78.1702	-0.894982	-0.321624
0.2700	36.812	24.22	50.8137	1.18147	-12.6031	-37.3008	3.56251	-38.4083	0.335618	0
0.2707	33.4616	30.0082	78.2949	2.39986	-10.7712	-55.6307	4.47832	-134.232	2.16287	0
0.2713	6.2767	16.8719	83.4738	3.00905	-9.85531	-58.0662	1.12645	-146.442	2.75953	0
0.2720	-28.2027	-3.24302	103.326	2.39986	-10.4415	-45.5364	-1.00739	-107.695	2.4612	0.321624
0.2727	-40.0776	-39.8604	75.8447	2.39986	-10.4415	-39.7683	0.815072	-70.4434	2.16287	0.321624
0.2733	-30.9594	-68.5549	4.12079	4.8551	-10.7712	-48.9012	1.42867	1.269	2.4612	0.321624
0.2740	-32.783	-51.7651	-30.6553	7.90108	-11.0643	-56.528	1.42867	113.279	3.6918	0.321624
0.2747	-53.2247	-15.4762	-57.5239	7.90108	-10.1484	-49.5101	-0.705175	213.981	3.99013	0.321624
0.2753	-63.2759	1.31363	-120.06	5.46429	-10.1484	-37.0124	-4.36842	246.016	2.16287	0
0.2760	-52.5886	10.7964	-152.107	7.29188	-10.1484	-27.8474	-5.28423	202.391	1.52893	0
0.2767	-42.8342	-18.8013	-141.137	10.3379	-9.52558	-23.5854	-7.41807	162.714	2.16287	0
0.2773	-38.8901	-66.4202	-113.349	8.80564	-8.31657	-19.9322	-9.55191	152.026	2.4612	0
0.2780	-17.8123	-31.6502	-51.3984	6.36886	-6.77782	-16.5674	-8.94747	118.75	0.335618	0
0.2787	5.08922	18.4318	-13.5596	4.2459	-6.77782	-14.7409	-9.24969	42.4691	-2.42391	-0.321624
0.2793	2.62943	1.64203	-17.5412	2.39986	-7.10755	-12.8822	-10.1655	-64.9444	-3.05786	0
0.2800	-6.82803	-31.0344	27.0079	1.18147	-7.10755	-10.7672	-9.86329	-192.211	-3.65451	0
0.2807	-4.41065	-33.7848	120.7	-0.332288	-6.48472	-6.79361	-7.72945	-336.256	-5.48177	0
0.2813	4.15619	8.33332	186.02	-2.78753	-5.27571	-2.53158	-6.20004	-409.209	-7.90568	0.321624
0.2820	22.4774	53.2019	183.57	-4.00592	-5.5688	-1.92272	-7.11585	-323.735	-8.53962	0.321624
0.2827	48.0931	76.1083	145.118	-2.17833	-5.5688	-3.42885	-8.33388	-181.523	-6.41404	0
0.2833	58.4836	93.1854	121.619	-0.646116	-4.06669	-4.03771	-9.86329	-146.752	-4.88511	0
0.2840	48.0931	84.0311	85.6177	-1.25531	-3.44386	-3.14044	-9.86329	-196.497	-5.18344	0
0.2847	24.8947	43.7602	4.42706	-1.56914	-4.06669	-2.21113	-7.72945	-191.308	-4.88511	0
0.2853	-2.24774	10.1806	-73.0883	-1.56914	-4.65288	-4.03771	-10.1655	-134.542	-4.88511	0
0.2860	-17.2185	-6.32183	-102.073	-0.959944	-4.35979	-5.8643	-13.2152	-94.2441	-4.54949	0
0.2867	-13.8681	-18.8013	-88.04	-0.0369209	-3.73696	-6.18475	-11.9971	-60.376	-2.12558	0.321624
0.2873	-7.42177	-18.2266	-45.9133	1.18147	-3.73696	-6.79361	-11.9971	-24.3647	0	0.321624
0.2880	-5.89501	-2.05254	8.40863	2.71369	-2.52794	-5.8643	-11.0813	0.958797	1.2306	0.321624
0.2887	1.69641	14.1215	45.0224	2.71369	-2.82104	-4.96703	-8.33388	18.3581	1.2306	0
0.2893	15.4373	25.4515	63.3432	1.4953	-3.44386	-4.96703	-8.03166	23.8571	0.335618	0
0.2900	24.301	29.7208	76.4573	0.886102	-2.23485	-4.03771	-8.33388	10.1238	0.932273	0
0.2907	19.127	23.8916	61.1992	0.886102	-0.989195	-2.53158	-7.41807	-5.44258	1.2306	0
0.2913	1.39953	13.2184	16.9565	1.4953	-0.0732737	-1.60227	-7.72945	2.48159	0.335618	0.321624
0.2920	-16.2855	4.39244	-20.8824	1.4953	-1.31893	-2.81999	-8.64526	30.8789	-1.19331	0
0.2927	-31.85	-1.43678	-46.8322	0.886102	-2.82104	-4.35817	-6.50226	53.4388	-3.65451	-0.643247
0.2933	-51.4011	-8.45647	-68.1879	1.4953	-0.989195	-2.81999	-2.83901	47.6579	-4.25117	-0.643247
0.2940	-64.5058	-23.399	-65.7655	1.4953	0.842648	-0.704998	-1.31877	19.2605	-4.88511	0.321624
0.2947	-48.9413	-32.266	-38.5906	0.886102	1.42884	1.76249	0.210637	-3.29939	-5.78009	0.321624
0.2953	-19.6359	-28.284	-11.722	-0.332288	2.05166	3.87749	2.34448	-2.08679	-7.60735	0.321624
0.2960	-6.82803	-24.6305	3.81451	-2.4737	2.34476	4.8068	2.34448	18.3581	-9.77022	0.321624
0.2967	1.69641	-10.5911	16.0377	-2.78753	2.34476	5.41566	1.73088	46.7273	-10.0686	0.321624
0.2973	16.9641	17.8161	39.8435	-1.86451	2.96759	5.09521	1.12645	67.4824	-8.83795	0
0.2980	34.3522	41.0098	63.0369	-0.959944	4.1766	4.48635	0.210637	84.5715	-7.60735	0.321624
0.2987	40.4593	28.7766	45.0224	-1.25531	4.1766	4.19794	-0.0915811	102.281	-7.30902	0.321624
0.2993	22.4774	-12.3974	5.34588	-2.17833	3.88351	3.87749	2.64669	97.4025	-8.53962	0.321624
0.3000	7.20972	-27.9556	-2.89569	-2.17833	4.79943	3.87749	5.39413	79.693	-8.83795	0.321624
0.3007	15.4373	-12.11	3.2298	-1.56914	4.79943	3.87749	4.78969	66.8902	-8.53962	0.321624
0.3013	14.8435	-3.85878	-3.81451	-0.0369209	4.50633	3.87749	3.56251	65.3392	-7.90568	0
0.3020	0.169641	-8.45647	-13.8659	1.4953	3.88351	1.76249	2.34448	66.8902	-5.78009	0
0.3027	1.10266	-8.12807	-22.4137	3.61825	4.50633	-1.92272	-1.00739	44.3021	-3.05786	0.321624
0.3033	7.50659	-7.84071	-28.5114	6.07349	5.09252	-4.64658	-2.83901	24.7595	-0.298327	0.321624
0.3040	2.33256	-12.7258	-29.1239	7.29188	5.09252	-6.18475	-1.00739	33.9245	1.2306	0.321624
0.3047	-7.1249	-13.6289	-29.7365	7.58725	5.09252	-7.11407	-0.705175	43.3715	2.16287	0
0.3053	-8.94854	-8.45647	-30.0428	7.58725	5.09252	-7.72293	-4.0662	40.3259	2.16287	0
0.3060	-2.88389	-0.49261	-20.2698	5.75966	4.79943	-6.47316	-4.67064	46.4453	0.335618	0.321624
0.3067	-1.654	5.91132	-2.28314	2.71369	5.42225	-1.92272	-2.5368	52.8466	-1.82726	0
0.3073	-11.1115	6.52708	4.42706	0.276907	4.79943	3.58908	-4.36842	40.0157	-3.95284	-0.321624
0.3080	-15.9886	4.39244	-9.91216	-2.17833	4.50633	6.95384	-7.11585	24.1673	-5.78009	0
0.3087	-9.88156	5.29556	-18.46	-4.00592	3.88351	6.95384	-8.33388	7.67038	-6.71237	0
0.3093	-0.424101	6.81444	-9.60589	-4.30129	2.05166	3.26863	-9.86329	-9.72897	-7.60735	0
0.3100	11.79	7.10179	-1.67059	-2.78753	2.05166	-0.0640907	-10.4677	-15.51	-6.07842	0
0.3107	27.9483	9.56485	13.5875	-0.959944	3.26068	-0.993406	-8.64526	-11.844	-2.42391	0
0.3113	35.2852	14.7373	44.1035	0.572274	3.88351	-1.31386	-8.64526	-0.874197	0	0
0.3120	31.638	18.1034	59.9741	1.79066	4.1766	-3.14044	-13.5265	5.83738	1.52893	0.321624
0.3127	28.2451	15.6814	52.9577	3.00905	3.88351	-6.18475	-16.8784	0.958797	3.35618	0
0.3133	22.4774	8.04596	32.5208	4.54127	3.88351	-8.01134	-15.0468	1.88939	5.81739	0.321624
0.3140	8.14274	-1.72414	-5.31804	4.54127	4.1766	-6.47316	-9.86329	11.9568	6.41404	0.321624
0.3147	-4.07137	-8.45647	-37.6718	1.4953	4.50633	-0.993406	-4.67064	15.9048	4.28846	0
0.3153	-4.07137	-8.74383	-42.8506	-1.25531	4.79943	3.87749	0.815072	7.07818	3.05786	0.321624
0.3160	-2.24774	-9.97535	-32.1867	-3.0829	4.1766	4.48635	5.39413	-1.77659	2.75953	0.321624
0.3167	-6.23429	-13.9162	-10.2184	-4.00592	4.50633	3.87749	6.30994	-3.29939	2.75953	0
0.3173	-8.05792	-13.9162	13.8937	-3.0829	5.42225	1.76249	4.47832	-1.1844	3.35618	0
0.3180	-3.7745	-8.45647	27.6204	-0.0369209	6.33818	-3.14044	2.34448	4.93499	5.51906	0
0.3187	1.69641	-1.72414	36.4745	4.2459	6.92437	-8.01134	0.815072	8.60098	8.87524	-0.321624
0.3193	5.68296	1.31363	35.2494	7.90108	6.92437	-11.0556	1.12645	9.50337	12.2314	0
0.3200	11.1539	0.697864	22.1353	10.3379	8.46311	-10.1584	8.45294	13.1694	14.9537	0.321624
0.3207	16.9641	0.0821017	13.5875	8.80564	10.0019	-6.18475	20.9629	15.6228	13.7604	0
0.3213	20.6537	1.64203	13.8937	4.8551	12.4199	1.44204	29.8097	16.5252	8.87524	0
0.3220	16.3703	1.31363	8.40863	1.18147	14.5815	8.17156	31.9435	15.3126	3.35618	0.321624
0.3227	7.80346	-2.62725	-7.76824	-2.4737	16.4133	10.2866	28.2894	12.2388	-3.35618	-0.643247
0.3233	4.45306	-4.7619	-23.3326	-5.51968	18.2452	11.8247	19.1313	13.4796	-9.13628	-0.643247
0.3240	3.22317	-4.18719	-35.5279	-7.05189	19.4542	13.6513	4.47832	17.4275	-13.4247	0.321624
0.3247	-1.654	-3.24302	-45.9133	-6.14733	20.077	16.0868	-8.64526	25.6901	-14.3197	0
0.3253	-9.28782	-5.70607	-51.7047	-6.75653	20.6632	18.8427	-15.6604	32.7119	-16.7809	0
0.3260	-9.88156	-6.60918	-46.8322	-10.4117	21.5791	22.4958	-17.7942	31.1609	-21.0321	0
0.3267	-0.424101	-2.95566	-33.7181	-12.8485	22.495	24.9313	-12.6107	20.8115	-22.561	0
0.3273	4.74993	-1.72414	-21.8012	-13.4577	21.5791	24.3224	1.73088	10.1238	-21.9644	0
0.3280	5.97983	-0.205254	-8.38079	-14.3807	22.495	24.9313	22.1809	14.0718	-21.3677	0.321624
0.3287	6.2767	1.02627	-0.44549	-15.9129	23.1179	23.1047	36.5225	21.4037	-23.7916	0.321624
0.3293	7.20972	2.54515	-1.36431	-16.5221	21.9088	19.4515	38.3542	20.8115	-26.5511	0
0.3300	11.79	8.66173	-3.50824	-15.2853	22.495	20.0604	36.8339	19.5707	-26.5511	0
0.3307	10.5601	10.468	-11.1373	-15.5991	22.2019	20.6693	36.2203	16.215	-28.9751	0.321624
0.3313	1.69641	7.71756	-19.9635	-16.2083	20.9929	21.887	42.0174	22.0241	-30.504	0
0.3320	-4.70752	4.06403	-23.3326	-16.2083	20.3701	22.4958	56.0568	32.0915	-31.1006	0
0.3327	-5.59814	1.02627	-23.3326	-16.2083	19.4542	18.2338	65.5171	27.8051	-31.1006	0
0.3333	0.508922	-0.821017	-16.6224	-12.2393	21.9088	14.5806	63.0719	19.2605	-25.3205	0.321624
0.3340	7.80346	-1.43678	-7.76824	-10.0979	24.3269	11.8247	49.9483	13.4796	-21.666	0.321624
0.3347	11.4931	2.83251	1.08588	-10.7255	25.5359	10.8954	31.9435	13.4796	-21.666	0
0.3353	12.3838	6.19868	7.79608	-11.3347	25.5359	12.4336	9.67097	20.8115	-20.4354	0
0.3360	10.5601	2.83251	5.03961	-12.8485	23.704	13.0425	-18.1056	23.5469	-20.4354	0.321624
0.3367	8.14274	-1.72414	1.08588	-13.1623	24.0338	14.869	-37.3285	23.2367	-19.5032	0
0.3373	9.03336	-4.47454	3.2298	-11.9439	24.3269	15.1895	-50.452	21.0935	-17.0792	0
0.3380	12.3838	-3.57142	6.87726	-10.4117	23.4109	10.607	-59.601	22.3343	-14.9537	0
0.3387	13.9105	-0.821017	5.95843	-9.19331	23.704	5.41566	-56.8627	30.5687	-13.7231	0
0.3393	13.6137	0.410508	3.53608	-9.8025	22.7881	2.0509	-50.452	31.7813	-14.9537	0.321624
0.3400	14.2074	2.54515	3.81451	-10.7255	20.9929	1.15363	-45.5708	26.9027	-16.147	0
0.3407	15.1404	4.06403	3.81451	-10.4117	20.9929	1.76249	-37.0262	28.1153	-15.252	0
0.3413	14.8435	3.77668	2.92353	-9.8025	20.6632	1.76249	-24.8185	34.5167	-13.7231	0
0.3420	12.0869	3.44827	1.69843	-10.7255	17.9154	0.224317	-9.55191	36.6599	-14.618	0
0.3427	9.6271	3.16091	1.39216	-11.0209	14.8746	-0.0640907	15.1658	35.4473	-15.8486	0.321624
0.3433	7.80346	2.2578	1.39216	-9.19331	12.4199	-2.21113	58.8042	34.5167	-14.0214	0
0.3440	5.97983	0.697864	-0.139216	-6.4427	10.588	-8.94065	101.829	34.2347	-10.0686	-0.321624
0.3447	8.43962	1.02627	1.08588	-4.00592	11.2109	-12.8822	127.16	32.9939	-6.71237	0
0.3453	13.6137	3.77668	3.81451	-2.4737	10.588	-13.2027	146.081	22.9265	-4.88511	0
0.3460	16.0734	4.96715	4.12079	-2.78753	9.67213	-13.8115	156.457	9.81357	-3.65451	0.321624
0.3467	17.2609	4.39244	1.69843	-2.17833	11.2109	-12.8822	148.526	5.83738	-2.42391	0
0.3473	19.127	4.39244	-0.44549	-0.959944	14.5815	-10.4468	121.363	4.62479	-2.12558	0
0.3480	20.0176	6.19868	2.00471	-0.646116	20.077	-5.25544	78.6407	6.76798	-1.52893	0
0.3487	18.4908	9.27749	6.26471	-0.646116	23.704	-0.993406	35.9181	12.2388	0	0
0.3493	16.3703	11.0837	8.40863	0.886102	23.4109	0.224317	12.4184	14.6922	1.82726	0.321624
0.3500	15.4373	10.1806	5.65216	3.00905	24.0338	0.544771	-7.11585	15.3126	3.99013	0.321624
0.3507	15.4373	8.33332	2.61726	4.54127	25.5359	-1.92272	-45.873	16.5252	7.34631	0.321624
0.3513	15.4373	8.04596	2.92353	6.36886	24.62	-5.8643	-78.2194	18.6683	11.2992	0.321624
0.3520	13.9105	8.04596	2.92353	6.68269	22.2019	-9.54951	-95.6198	18.0479	12.5298	0
0.3527	10.2633	7.71756	2.31098	5.46429	19.7473	-11.985	-116.977	16.8354	11.8958	-0.643247
0.3533	9.03336	8.33332	2.00471	4.54127	17.3292	-12.5938	-138.031	17.4275	11.5975	-0.964871
0.3540	10.2633	8.33332	0.779608	2.10449	13.3358	-11.6645	-150.852	15.6228	9.17357	0
0.3547	13.0199	10.1806	2.00471	-1.25531	12.1268	-5.25544	-153.298	15.0024	6.71237	0.321624
0.3553	16.6672	10.468	1.39216	-3.0829	14.8746	1.44204	-155.129	15.6228	4.88511	0.321624
0.3560	22.1805	7.10179	-3.50824	-2.78753	16.4133	0.544771	-152.382	13.7898	4.28846	0
0.3567	30.4081	7.10179	-3.81451	1.79066	15.4974	-3.42885	-124.917	16.5252	9.77022	0.321624
0.3573	38.3388	8.66173	-2.58941	5.46429	11.504	-7.11407	-86.1595	18.6683	14.357	0.321624
0.3580	45.9726	8.33332	-2.58941	6.36886	6.92437	-8.01134	-43.7391	15.6228	14.6553	0
0.3587	51.7828	8.33332	-1.36431	6.07349	5.09252	-8.33179	-8.94747	14.382	13.1264	0.321624
0.3593	55.7269	6.52708	-2.89569	3.00905	2.96759	-11.6645	4.1761	12.549	8.87524	0.321624
0.3600	60.3072	5.91132	-3.81451	0.572274	1.42884	-12.5938	15.4681	11.3364	6.71237	0.321624
0.3607	62.767	7.10179	-2.28314	0.572274	3.59041	-8.33179	26.4578	11.9568	7.04799	0.321624
0.3613	61.2402	6.81444	-2.58941	-1.86451	6.00844	-0.704998	23.399	12.549	4.88511	0
0.3620	58.7804	4.96715	-4.09294	-6.14733	4.79943	4.8068	-2.23458	10.716	0.335618	0.321624
0.3627	58.4836	4.39244	-4.70549	-6.4427	1.13574	5.41566	-37.9421	8.88297	-0.596655	0
0.3633	62.767	5.58291	-4.09294	-1.25531	-0.6961	1.76249	-72.4223	9.50337	4.58678	0
0.3640	69.4678	7.4302	-2.89569	2.39986	-0.6961	-1.60227	-97.1401	11.0262	8.53962	0
0.3647	68.8316	9.56485	-0.139216	4.2459	0.842648	-4.03771	-89.5114	13.7898	11.0008	0
0.3653	65.4812	12.3153	3.81451	5.75966	3.88351	-5.57589	-60.8282	16.8354	12.8281	0.321624
0.3660	75.8717	13.5468	5.34588	3.61825	5.42225	-4.64658	-43.7391	16.8354	10.0686	0.321624
0.3667	92.963	13.5468	2.92353	1.4953	6.63127	-0.993406	-36.7149	18.3581	6.71237	0
0.3673	93.896	12.3153	-1.05804	0.276907	7.84029	1.15363	-26.3387	20.5013	3.99013	0.321624
0.3680	80.452	9.27749	-5.01177	-1.86451	7.84029	-0.384544	-19.6258	20.1911	0.335618	0.321624
0.3687	62.1308	8.94908	-4.70549	-3.69209	7.2541	0.544771	-14.131	18.6683	-3.05786	0
0.3693	34.0553	8.94908	-4.39922	-5.51968	3.88351	3.58908	-4.36842	18.9785	-6.71237	0
0.3700	7.50659	6.81444	-8.07451	-7.36572	0.842648	4.8068	-1.62099	18.9785	-10.3669	-0.321624
0.3707	-4.07137	4.06403	-12.3345	-7.97492	0.219821	3.58908	-1.62099	15.3126	-11.8958	0
0.3713	-17.8123	1.64203	-15.091	-7.05189	-1.90512	0.544771	4.78969	12.8592	-11.2619	0.321624
0.3720	-35.4973	0.410508	-14.7847	-4.61511	-2.23485	-2.53158	8.75515	15.9048	-9.43461	0.321624
0.3727	-30.0264	1.02627	-11.1373	-4.61511	-0.403005	-4.64658	7.22575	17.4275	-9.43461	0
0.3733	-12.0021	4.96715	-3.81451	-6.14733	-0.403005	-5.25544	5.09191	18.0479	-10.3669	-0.321624
0.3740	-8.65167	12.3153	5.65216	-7.05189	-0.0732737	-3.74931	1.42867	24.1673	-8.83795	0
0.3747	-15.3949	18.4318	12.6686	-7.97492	-0.989195	-4.64658	-8.94747	28.4255	-7.60735	0.321624
0.3753	-11.4083	22.9885	17.8753	-7.66109	-2.82104	-6.18475	-20.2394	29.6381	-7.30902	0
0.3760	27.6514	27.5862	23.3604	-6.14733	-4.65288	-7.11407	-24.5071	32.7119	-5.18344	0
0.3767	44.4458	29.105	25.198	-5.51968	-6.48472	-9.22906	-28.4817	34.8269	-3.65451	0
0.3773	-2.88389	28.1609	23.3604	-4.30129	-5.5688	-7.11407	-30.9178	36.0677	-2.12558	-0.321624
0.3780	-19.339	25.1231	20.2977	-2.4737	-3.15077	-3.14044	-20.5416	37.5905	0.633946	-0.321624
0.3787	-7.1249	18.7192	12.3624	-3.69209	-3.44386	-4.96703	-2.5368	33.9245	0	0.321624
0.3793	-50.7649	11.4121	4.12079	-6.14733	-4.98261	-8.6202	2.64669	27.2129	-2.72224	0.321624
0.3800	-95.338	6.81444	-0.751765	-6.75653	-5.8619	-9.54951	-7.41807	22.9265	-3.35618	0
0.3807	-64.8027	2.2578	-6.23687	-7.36572	-8.02347	-9.54951	-18.4078	17.7377	-2.72224	0
0.3813	-26.0398	-0.821017	-8.38079	-9.19331	-8.93939	-6.79361	-30.9178	11.9568	-2.72224	0.321624
0.3820	-62.0884	-0.49261	-5.31804	-10.7255	-9.85531	-4.96703	-30.6156	5.52718	-3.95284	0.321624
0.3827	-88.2979	4.39244	2.61726	-10.4117	-11.6872	-8.33179	-18.4078	-0.563998	-3.35618	0
0.3833	-3.7745	14.7373	15.7314	-8.87948	-13.1893	-13.2027	-15.9626	-5.13238	-0.596655	-0.321624
0.3840	120.445	25.7389	28.233	-6.4427	-13.1893	-15.9586	-14.7446	-4.85039	2.16287	0
0.3847	160.692	32.4712	35.862	-4.00592	-12.2733	-17.7852	-0.705175	2.48159	5.81739	0.321624
0.3853	121.039	33.3743	36.7808	-3.39672	-12.2733	-20.8295	18.5177	8.60098	7.94297	0
0.3860	69.1709	30.9113	33.1333	-4.91048	-13.519	-22.6561	36.5225	10.1238	6.11571	-0.321624
0.3867	4.45306	27.2578	29.458	-5.8335	-14.4349	-20.8295	57.5862	10.1238	4.88511	-0.643247
0.3873	-52.5886	21.1412	22.1353	-4.91048	-14.728	-21.1499	81.0768	4.00439	6.11571	0
0.3880	-102.039	10.7964	10.2463	-3.39672	-13.8121	-25.0915	101.225	-7.27558	7.94297	0.321624
0.3887	-170.998	-1.72414	-3.20196	-3.39672	-11.9803	-27.2385	114.037	-19.1759	6.71237	0
0.3893	-187.198	-13.9162	-16.9286	-5.8335	-9.85531	-26.3092	118.011	-31.6967	3.35618	0
0.3900	-119.766	-22.4959	-27.5926	-6.4427	-5.8619	-24.8031	112.819	-42.9767	1.52893	0.321624
0.3907	-33.6736	-26.4367	-32.493	-4.91048	-2.52794	-22.0472	97.5614	-51.5212	2.4612	0.321624
0.3913	29.7719	-27.0525	-31.8804	-4.61511	-2.23485	-15.0293	76.5069	-57.6406	3.05786	0.321624
0.3920	68.2379	-26.4367	-28.8177	-5.51968	0.842648	-4.03771	50.5619	-60.0658	2.4612	0.321624
0.3927	110.987	-24.9179	-26.3953	-7.66109	5.71535	3.58908	16.6861	-62.5192	-0.894982	0.321624
0.3933	178.419	-20.9359	-21.8012	-9.48867	7.2541	7.5627	-7.41807	-63.1396	-3.05786	0.321624
0.3940	203.145	-16.0919	-16.0098	-8.58411	6.00844	12.1131	-19.6258	-59.7556	-2.42391	0.321624
0.3947	123.795	-16.0919	-16.6224	-8.27028	2.67449	13.0425	-37.6307	-58.8532	-3.35618	0.321624
0.3953	13.9105	-17.2824	-18.1537	-8.58411	1.75857	11.2159	-52.8881	-59.4736	-3.65451	0.321624
0.3960	-62.6822	-13.6289	-12.9471	-8.27028	4.50633	10.8954	-58.383	-54.2848	-1.82726	0.321624
0.3967	-98.9852	-8.74383	-5.62432	-9.19331	4.79943	7.5627	-63.2642	-47.2631	-1.82726	0.321624
0.3973	-79.4766	-1.72414	5.03961	-8.87948	2.96759	5.09521	-66.323	-40.5515	-0.298327	0
0.3980	-76.1262	6.81444	18.7941	-8.27028	2.05166	4.8068	-67.5411	-33.2195	2.4612	0
0.3987	-130.114	10.468	26.1169	-9.48867	-0.6961	2.98022	-68.7591	-32.5991	2.4612	0.321624
0.3993	-171.634	13.5468	30.3769	-9.48867	0.842648	2.65976	-63.5756	-32.3171	3.05786	0
0.4000	-120.063	17.8161	33.4396	-8.87948	5.42225	3.58908	-55.6355	-21.3191	5.18344	0
0.4007	38.6356	17.4877	29.458	-8.58411	3.88351	1.76249	-51.0565	-11.562	6.11571	0
0.4013	105.771	11.9868	21.2165	-7.36572	0.219821	-0.993406	-47.4024	-13.0848	8.2413	0
0.4020	-19.6359	4.39244	12.3624	-6.75653	-1.90512	-2.53158	-41.2939	-20.1065	10.0686	0.321624
0.4027	-128.588	-2.05254	4.73334	-7.05189	-4.35979	-4.64658	-35.1946	-25.5773	9.77022	0
0.4033	-144.152	-7.5123	0.167059	-6.75653	-4.98261	-6.47316	-30.002	-33.2195	10.7025	-0.321624
0.4040	-154.839	-10.8785	-0.751765	-4.61511	-4.06669	-6.79361	-21.7597	-41.7641	14.0587	0
0.4047	-159.42	-9.97535	2.61726	-2.78753	-3.73696	-6.79361	-14.4423	-42.3845	17.7132	0.321624
0.4053	-151.192	-8.74383	5.34588	-2.17833	-4.98261	-8.94065	-11.3835	-39.6209	19.5404	0.321624
0.4060	-157.299	-8.74383	6.26471	-2.17833	-5.5688	-10.4468	-8.94747	-39.9311	19.8388	0.321624
0.4067	-146.612	-6.89654	9.32745	-1.56914	-4.65288	-9.83792	-4.67064	-37.7879	20.4727	0
0.4073	-55.3452	-3.85878	12.9749	-1.56914	-5.27571	-9.83792	-1.9232	-31.3865	21.0694	-0.321624
0.4080	64.5906	-1.43678	16.0377	-1.86451	-6.48472	-11.0556	-1.9232	-25.8875	22.0017	0
0.4087	89.3157	-0.821017	15.7314	-1.56914	-5.5688	-10.4468	1.12645	-22.8419	23.8289	0
0.4093	38.6356	-5.99342	8.40863	-1.56914	-7.10755	-11.3761	2.95807	-21.0089	25.0222	0
0.4100	31.638	-16.0919	-2.89569	-2.4737	-9.85531	-13.5231	0.512854	-19.7963	25.0222	0.321624
0.4107	115.864	-23.6863	-11.722	-1.86451	-9.23249	-12.2734	3.26029	-22.2215	25.9545	0.321624
0.4113	183.593	-31.6502	-20.8824	-1.86451	-9.23249	-11.6645	7.22575	-28.0307	26.5511	0
0.4120	146.654	-38.6699	-29.4302	-2.78753	-11.0643	-13.8115	5.7055	-27.7205	27.1851	0
0.4127	89.9095	-39.573	-30.349	-1.56914	-11.3574	-15.6381	9.36875	-20.1065	29.3107	-0.643247
0.4133	83.5055	-36.8226	-26.3953	0.276907	-11.6872	-17.1763	17.6019	-12.7746	31.1379	-0.643247
0.4140	84.3962	-32.5533	-20.8824	1.18147	-12.2733	-18.0736	21.5674	-5.75278	32.6669	0
0.4147	41.986	-27.6683	-15.091	2.10449	-11.6872	-18.394	21.8787	0.958797	35.0908	0.321624
0.4153	-10.1784	-20.6486	-7.76824	3.32288	-11.0643	-18.6824	12.7206	10.716	36.6197	0.321624
0.4160	13.3168	-7.84071	6.87726	4.8551	-10.1484	-17.4647	-3.45261	26.9027	38.447	0
0.4167	141.777	7.10179	24.5855	6.36886	-9.23249	-16.247	-13.5265	41.8487	40.9082	0
0.4173	312.69	22.7011	41.6812	7.90108	-7.69374	-16.247	-12.2993	51.0136	42.4371	0
0.4180	433.219	37.931	58.4428	9.43329	-6.19163	-15.3497	-4.0662	61.7014	43.3321	0
0.4187	443.907	48.0295	70.3596	9.43329	-6.19163	-15.6381	-1.31877	70.246	42.4371	0.321624
0.4193	330.672	51.0672	72.5036	10.0425	-5.5688	-15.9586	-3.15039	71.4586	41.8031	0
0.4200	100.3	46.798	68.2157	11.8701	-4.35979	-15.0293	2.34448	67.4824	43.6677	0
0.4207	-142.922	37.931	59.6679	11.5562	-5.5688	-14.7409	6.62131	54.0592	42.1388	0.321624
0.4213	-285.759	28.1609	49.3102	10.9471	-5.8619	-12.5938	3.87388	32.7119	39.3792	0
0.4220	-398.358	17.2003	38.0059	10.6517	-5.27571	-8.94065	2.64669	8.29078	36.9553	-0.321624
0.4227	-510.363	4.96715	24.2792	8.51027	-6.48472	-8.94065	2.04226	-15.51	32.3685	-0.321624
0.4233	-543.019	-4.7619	14.2	7.58725	-5.8619	-8.6202	6.92353	-28.6511	29.3107	0.321624
0.4240	-518.591	-13.6289	8.40863	8.80564	-4.35979	-8.33179	13.0228	-37.1957	28.714	0
0.4247	-464.9	-21.5517	2.61726	9.11947	-4.35979	-10.4468	9.67097	-52.762	26.5511	0
0.4253	-371.81	-25.5336	0.167059	9.72866	-4.06669	-10.1584	6.30994	-65.875	25.0222	0.321624
0.4260	-285.463	-27.9556	-0.139216	9.43329	-3.15077	-8.6202	6.92353	-72.8968	23.195	0
0.4267	-214.977	-31.3218	-3.20196	7.90108	-2.82104	-9.83792	7.83934	-81.1312	20.1371	0
0.4273	-146.909	-31.3218	-3.20196	8.80564	-0.6961	-9.83792	16.6861	-88.1529	20.1371	0
0.4280	-113.659	-30.706	-2.28314	10.0425	1.13574	-7.40248	24.6262	-96.6975	20.7711	0
0.4287	-111.199	-33.1691	-5.01177	8.19644	-0.403005	-5.25544	20.0471	-104.932	17.7132	0.321624
0.4293	-107.552	-33.4564	-5.93059	8.19644	-0.6961	-3.42885	17.9133	-103.099	15.5876	0.643247
0.4300	-88.6372	-31.6502	-4.09294	9.11947	-0.6961	-3.14044	20.6515	-96.3873	15.5876	0
0.4307	-58.1019	-30.706	-3.81451	7.58725	-1.61202	-1.60227	18.5177	-92.4111	13.4247	0
0.4313	-31.85	-29.8029	-4.09294	6.07349	-2.52794	2.98022	16.6861	-88.1529	10.7025	0.321624
0.4320	-17.5154	-28.5714	-4.70549	4.8551	-4.35979	6.02453	15.4681	-81.4414	8.2413	0.321624
0.4327	-11.1115	-28.284	-5.62432	3.00905	-5.27571	6.63339	13.0228	-72.8968	5.18344	0
0.4333	-7.42177	-27.0525	-5.93059	2.71369	-5.27571	8.17156	12.4184	-66.4954	3.35618	0
0.4340	-5.59814	-25.5336	-4.70549	1.79066	-3.73696	11.2159	13.6364	-61.8988	0.335618	0
0.4347	-1.35712	-24.0147	-2.28314	-0.332288	-0.989195	17.0161	16.9975	-56.71	-5.18344	0
0.4353	4.15619	-23.1116	-1.67059	-3.39672	-1.61202	18.8427	18.2155	-50.9291	-9.43461	0.321624
0.4360	4.45306	-22.1675	-1.97686	-5.22431	-4.98261	16.0868	19.7449	-45.1199	-12.4925	0.321624
0.4367	2.9263	-20.3612	-1.05804	-5.8335	-6.19163	14.2602	24.6262	-36.8855	-13.7231	0
0.4373	2.62943	-19.417	-1.36431	-6.4427	-7.69374	12.722	27.6758	-30.4841	-14.618	-0.321624
0.4380	3.56245	-19.1297	-2.28314	-5.8335	-9.23249	12.4336	32.2549	-25.5773	-15.5503	0
0.4387	3.85932	-18.8013	-2.89569	-4.00592	-8.93939	12.1131	35.6067	-20.1065	-14.9537	0
0.4393	2.62943	-19.7455	-5.31804	-1.86451	-9.85531	9.06883	32.8593	-17.0327	-14.3197	0
0.4400	9.6271	-20.0328	-6.23687	0.276907	-10.1484	6.31293	30.7255	-14.6076	-12.4925	0
0.4407	24.5979	-19.7455	-5.62432	2.71369	-10.1484	5.09521	32.5571	-10.9416	-10.3669	0
0.4413	41.3923	-19.417	-5.62432	3.93208	-11.9803	4.19794	34.3887	-7.58578	-10.3669	0.321624
0.4420	53.6064	-18.2266	-4.70549	3.61825	-12.6031	5.70407	35.0023	-3.01739	-10.9635	0
0.4427	53.9033	-17.6108	-4.39922	3.00905	-12.8962	6.95384	32.2549	-0.563998	-12.1941	-0.643247
0.4433	52.0796	-17.6108	-4.70549	2.71369	-13.8121	6.95384	26.1464	-0.253799	-12.7908	-0.643247
0.4440	57.5505	-15.7635	-4.39922	3.00905	-13.519	7.24225	23.7104	4.31459	-11.5975	-0.321624
0.4447	59.0773	-14.8604	-4.09294	3.61825	-12.2733	6.02453	19.1313	8.29078	-10.9635	0
0.4453	56.6599	-14.532	-3.20196	4.54127	-11.9803	4.8068	10.2754	9.19317	-10.6652	0.321624
0.4460	55.43	-12.7258	-0.751765	5.46429	-11.3574	4.8068	6.00772	13.1694	-10.0686	0.321624
0.4467	51.4435	-9.97535	0.779608	5.46429	-10.4415	3.58908	2.04226	17.4275	-10.9635	0.321624
0.4473	37.745	-6.89654	3.53608	5.46429	-9.23249	2.37136	-5.58645	19.2605	-11.8958	0.321624
0.4480	20.3145	-2.95566	7.79608	5.75966	-8.93939	3.58908	-9.24969	22.6163	-11.5975	0
0.4487	5.38609	-1.43678	9.32745	6.36886	-9.23249	5.09521	-11.3835	25.6901	-11.5975	0.321624
0.4493	-10.4753	-0.49261	9.94	7.58725	-8.31657	6.31293	-16.8784	27.5231	-11.2619	0.321624
0.4500	-30.0264	0.410508	11.1651	8.51027	-7.69374	6.02453	-19.6258	28.4255	-9.77022	0
0.4507	-61.7491	-1.43678	8.40863	7.90108	-8.60966	5.41566	-18.71	26.2823	-11.2619	-0.321624
0.4513	-86.1774	-3.85878	5.95843	7.58725	-9.52558	5.70407	-15.9626	23.8571	-13.4247	0
0.4520	-52.5886	-2.62725	6.87726	8.51027	-9.85531	6.02453	-11.3835	17.7377	-12.7908	0
0.4527	20.0176	-1.10837	7.79608	9.11947	-10.7712	6.02453	-6.81363	15.0024	-12.4925	0
0.4533	43.5128	-2.3399	8.10236	9.43329	-10.1484	6.31293	-1.9232	20.5013	-12.4925	0
0.4540	11.1539	-4.7619	5.34588	8.51027	-9.52558	5.70407	1.73088	20.8115	-13.4247	0
0.4547	-6.82803	-7.84071	1.69843	7.29188	-9.85531	4.8068	3.87388	18.3581	-14.9537	0
0.4553	1.10266	-9.97535	-0.44549	7.58725	-10.7712	3.26863	5.39413	18.9785	-14.618	0
0.4560	7.50659	-11.7816	-1.97686	8.19644	-10.4415	2.65976	2.34448	17.7377	-14.3197	0
0.4567	16.3703	-12.3974	-1.67059	8.51027	-8.93939	4.48635	-1.31877	18.3581	-14.0214	0.321624
0.4573	33.7585	-12.3974	-0.751765	8.51027	-9.52558	5.09521	-3.15039	19.2605	-13.4247	0.321624
0.4580	49.9167	-12.7258	-0.751765	8.19644	-11.3574	4.19794	-6.20004	19.2605	-14.618	0
0.4587	59.3742	-12.7258	-0.44549	7.90108	-11.6872	4.8068	-11.6949	18.3581	-15.252	0
0.4593	66.7111	-11.7816	0.779608	7.90108	-11.6872	6.31293	-18.1056	16.5252	-14.618	0
0.4600	75.278	-10.8785	1.69843	7.90108	-11.9803	7.24225	-21.4575	16.5252	-14.618	0
0.4607	76.1686	-10.8785	1.69843	6.97805	-10.7712	8.78043	-18.4078	17.1455	-14.9537	0.321624
0.4613	66.4143	-12.3974	-0.139216	5.46429	-9.85531	10.8954	-14.131	15.6228	-15.5503	0
0.4620	54.2001	-13.9162	-2.89569	4.54127	-9.85531	11.8247	-11.6949	15.0024	-17.0792	0
0.4627	40.1624	-14.2446	-4.70549	3.61825	-9.85531	10.607	-10.4677	17.4275	-17.0792	0.321624
0.4633	24.8947	-13.6289	-4.09294	4.54127	-10.4415	9.06883	-9.24969	19.8809	-15.5503	0
0.4640	13.6137	-14.2446	-3.50824	6.07349	-10.1484	8.17156	-6.20004	18.0479	-13.1264	0
0.4647	5.97983	-15.1478	-3.20196	6.36886	-9.23249	7.85111	-2.23458	14.382	-11.8958	0.321624
0.4653	-0.12723	-14.8604	-3.81451	6.07349	-10.1484	7.85111	-0.0915811	13.1694	-13.4247	0.321624
0.4660	-12.6382	-14.2446	-5.31804	4.2459	-12.6031	8.17156	-0.0915811	13.7898	-14.9537	-0.321624
0.4667	-39.7807	-12.3974	-4.70549	3.00905	-11.6872	9.06883	-0.0915811	17.1455	-15.5503	0
0.4673	-81.3002	-9.97535	-2.89569	3.61825	-10.1484	9.99815	1.12645	20.5013	-14.618	0
0.4680	-123.413	-9.07224	-3.50824	5.75966	-10.1484	9.6777	2.95807	20.1911	-11.2619	-0.321624
0.4687	-149.962	-9.35959	-5.01177	7.58725	-9.23249	8.78043	1.73088	18.3581	-8.2413	0
0.4693	-160.65	-10.8785	-7.46196	6.97805	-9.52558	8.17156	-1.00739	18.3581	-7.90568	0
0.4700	-156.069	-11.4942	-8.99334	5.15047	-11.3574	7.5627	-2.5368	21.4037	-8.83795	0.321624
0.4707	-142.922	-9.07224	-8.07451	4.54127	-11.3574	7.5627	-2.83901	27.5231	-9.43461	0.321624
0.4713	-131.344	-6.89654	-7.46196	4.54127	-11.3574	7.24225	-1.9232	32.9939	-8.2413	0.321624
0.4720	-104.795	-5.0903	-5.31804	3.93208	-11.0643	7.5627	-1.00739	36.0677	-7.60735	0.321624
0.4727	-61.1554	-1.43678	-1.97686	3.61825	-11.3574	8.17156	-1.31877	35.1371	-8.2413	-0.643247
0.4733	-27.9059	1.64203	0.473334	3.00905	-11.9803	7.5627	-1.62099	30.8789	-8.83795	-1.28649
0.4740	-15.9886	1.92939	1.69843	3.32288	-11.6872	7.24225	0.512854	29.6381	-7.90568	-0.321624
0.4747	17.2609	0.0821017	-0.751765	3.00905	-11.3574	6.95384	2.95807	31.1609	-6.71237	0.321624
0.4753	99.9607	-1.10837	-3.50824	2.71369	-10.7712	6.95384	2.64669	31.4711	-7.0107	0
0.4760	197.928	-1.43678	-4.09294	3.32288	-10.1484	6.95384	1.73088	32.4017	-7.60735	0
0.4767	266.59	0.410508	-2.89569	2.71369	-10.4415	7.24225	3.56251	32.9939	-7.90568	0
0.4773	263.24	5.58291	-0.139216	0.572274	-10.7712	9.38929	11.1912	32.9939	-9.77022	0.321624
0.4780	215.656	10.7964	2.92353	-1.25531	-9.23249	11.5043	18.2155	36.9701	-11.5975	0.321624
0.4787	179.31	13.5468	4.42706	-2.78753	-7.10755	12.722	19.4335	41.2565	-12.1941	0
0.4793	150.344	15.0657	6.26471	-3.39672	-6.48472	14.5806	20.0471	39.7055	-12.4925	0
0.4800	130.199	14.4499	7.48981	-3.39672	-5.8619	16.4072	21.5674	31.4711	-12.1941	0
0.4807	113.702	11.9868	6.26471	-4.00592	-7.10755	15.7984	21.2651	20.1911	-12.7908	0
0.4813	87.789	9.27749	3.81451	-5.22431	-8.93939	15.7984	20.9629	14.0718	-14.0214	0
0.4820	54.497	7.10179	2.61726	-5.8335	-8.93939	16.0868	20.6515	11.6466	-14.0214	0.321624
0.4827	-4.41065	6.81444	2.31098	-5.51968	-8.93939	15.1895	19.4335	7.98058	-13.4247	0
0.4833	-68.1531	9.27749	3.81451	-4.00592	-8.31657	14.5806	19.1313	5.24518	-11.2619	0
0.4840	-85.8805	11.0837	4.12079	-3.69209	-7.10755	14.869	19.7449	3.41219	-9.77022	0.321624
0.4847	-78.8404	9.27749	1.08588	-4.91048	-8.02347	13.9718	17.9133	-0.874197	-10.0686	0.321624
0.4853	-91.0545	7.4302	-1.36431	-5.22431	-8.31657	13.3629	16.3839	-3.91979	-10.6652	0
0.4860	-121.293	5.91132	-3.20196	-3.39672	-8.02347	12.722	15.7703	-5.44258	-8.2413	0
0.4867	-153.016	4.96715	-5.01177	-0.646116	-9.52558	9.38929	12.7206	-9.41877	-3.65451	0
0.4873	-167.053	6.19868	-2.89569	3.00905	-9.85531	7.24225	11.8048	-13.395	1.52893	0
0.4880	-154.839	7.71756	-0.139216	5.15047	-9.52558	5.70407	11.5026	-18.2735	4.88511	0
0.4887	-136.857	7.10179	-0.751765	5.46429	-10.1484	3.26863	8.45294	-26.5079	6.11571	0
0.4893	-128.884	6.19868	-1.97686	6.97805	-11.3574	2.37136	7.53713	-33.5297	7.94297	0
0.4900	-110.902	6.52708	-2.28314	8.80564	-10.4415	2.37136	6.92353	-36.2651	10.0686	0.321624
0.4907	-63.2759	6.81444	-2.28314	9.11947	-8.31657	1.15363	5.09191	-35.6729	11.0008	0.321624
0.4913	-7.1249	8.94908	-0.751765	9.11947	-7.69374	1.44204	7.53713	-33.2195	11.8958	0
0.4920	23.6649	10.7964	-0.44549	8.80564	-8.02347	2.37136	8.45294	-30.1739	11.2992	0
0.4927	27.9483	10.7964	-1.67059	7.29188	-8.02347	2.65976	5.7055	-25.2953	10.7025	0
0.4933	21.8412	11.4121	-2.28314	6.07349	-8.93939	2.0509	3.87388	-19.1759	11.2992	0
0.4940	11.79	12.3153	-2.89569	6.97805	-10.1484	0.833179	2.34448	-14.2974	11.8958	0
0.4947	1.69641	13.5468	-2.28314	8.51027	-8.93939	0.833179	2.95807	-8.79837	13.7604	0
0.4953	-5.30127	14.4499	-1.67059	8.80564	-8.93939	1.15363	4.1761	-3.60959	15.252	0
0.4960	-11.7052	14.4499	-2.89569	8.51027	-11.0643	-0.0640907	2.64669	-2.08679	15.252	0
0.4967	-12.0021	14.1215	-4.09294	9.43329	-10.7712	-0.704998	1.12645	-3.91979	16.1843	0
0.4973	-6.23429	14.1215	-4.39922	10.0425	-9.52558	-0.0640907	-0.0915811	-6.37318	17.4149	0
0.4980	-5.59814	14.1215	-3.81451	9.72866	-9.52558	0.544771	0.210637	-7.89598	17.4149	0.321624
0.4987	-15.0556	15.6814	-2.89569	9.11947	-8.60966	2.0509	4.1761	-7.27558	17.1165	0
0.4993	-25.7429	16.2561	-3.20196	7.58725	-8.02347	3.87749	7.22575	-6.37318	15.5876	0
0.5000	-27.2697	16.5845	-3.81451	5.46429	-7.10755	4.8068	6.92353	-5.75278	13.7604	0.321624
0.5007	-25.4461	17.8161	-3.20196	4.2459	-6.77782	5.09521	6.00772	-4.54019	12.5298	0
0.5013	-23.9193	18.4318	-3.20196	4.2459	-6.19163	4.8068	3.87388	-3.01739	12.2314	0
0.5020	-16.5824	18.4318	-3.50824	3.61825	-6.19163	4.8068	3.87388	-0.563998	12.5298	0
0.5027	-19.6359	19.0065	-3.81451	3.00905	-6.19163	5.41566	4.78969	1.5792	12.2314	-0.643247
0.5033	-46.8208	20.2381	-3.50824	3.93208	-5.5688	5.70407	4.1761	3.69419	12.5298	-0.643247
0.5040	-64.5058	20.8538	-3.81451	4.54127	-5.5688	5.70407	2.95807	6.76798	13.7604	0
0.5047	-25.7429	21.4696	-3.81451	3.32288	-5.8619	5.70407	1.73088	8.60098	13.1264	0
0.5053	56.3206	21.7569	-3.81451	2.10449	-5.5688	5.41566	-0.0915811	10.1238	11.8958	-0.321624
0.5060	98.137	22.3727	-2.89569	1.4953	-4.98261	5.41566	0.210637	11.9568	11.2992	-0.321624
0.5067	71.8852	23.8916	-1.05804	2.10449	-4.65288	5.09521	1.12645	12.549	13.1264	0
0.5073	41.6892	25.1231	0.167059	3.32288	-4.98261	3.87749	-1.00739	12.2388	15.5876	0
0.5080	23.0711	26.0262	1.08588	4.54127	-4.65288	3.26863	-2.83901	12.8592	16.4826	0
0.5087	-31.5531	26.642	1.39216	4.2459	-4.65288	2.37136	-3.75483	14.382	16.7809	0.321624
0.5093	-98.6884	26.0262	0.779608	3.61825	-4.65288	1.76249	-4.0662	15.3126	16.1843	0
0.5100	-91.3514	26.9704	2.00471	3.61825	-4.06669	2.65976	-3.15039	18.0479	17.4149	0
0.5107	-16.9216	28.4893	3.81451	4.8551	-4.06669	1.76249	-2.83901	21.4037	19.2421	0
0.5113	35.5821	28.1609	3.2298	6.36886	-4.35979	0.224317	-4.36842	22.0241	21.0694	0
0.5120	53.2671	26.3546	1.69843	7.29188	-4.35979	-0.704998	-5.28423	19.8809	21.666	-0.321624
0.5127	67.3049	24.8358	0.473334	7.90108	-4.06669	-0.704998	-4.98201	18.0479	21.666	-0.321624
0.5133	69.7647	25.1231	1.08588	8.80564	-2.23485	0.544771	-2.23458	17.7377	22.8966	0
0.5140	79.2221	25.4515	2.31098	8.80564	-1.90512	1.15363	1.42867	15.0024	23.4933	0.321624
0.5147	91.4362	26.3546	3.53608	7.90108	-2.52794	0.833179	2.64669	10.1238	22.3	0
0.5153	45.9726	26.642	4.42706	6.97805	-1.61202	1.76249	2.34448	5.52718	20.4727	0
0.5160	-6.53116	25.4515	3.53608	5.75966	-1.31893	1.76249	2.04226	3.10199	19.5404	0.321624
0.5167	28.2451	25.1231	3.2298	5.15047	-1.31893	2.37136	3.87388	4.00439	19.2421	0
0.5173	85.9229	26.0262	3.81451	5.46429	-0.0732737	4.19794	5.7055	7.07818	19.2421	0
0.5180	81.0458	25.1231	3.2298	3.93208	-0.0732737	4.8068	3.87388	8.29078	17.7132	0
0.5187	50.8497	24.22	1.39216	1.18147	-0.0732737	4.48635	1.42867	7.36018	15.252	0
0.5193	30.7049	23.6042	-0.751765	-0.0369209	0.219821	4.48635	-0.402957	6.45778	13.4247	0
0.5200	7.50659	21.7569	-2.28314	-0.646116	1.13574	5.09521	-2.83901	7.67038	12.5298	0
0.5207	-8.3548	18.7192	-3.20196	-1.56914	2.67449	6.31293	-1.9232	7.67038	12.5298	0
0.5213	-15.0556	15.6814	-5.62432	-1.86451	2.96759	5.70407	-0.705175	2.79179	12.5298	0
0.5220	-20.272	13.5468	-6.84941	-2.17833	1.42884	4.48635	-2.23458	-2.70719	11.8958	0
0.5227	16.9641	13.8341	-5.31804	-3.39672	1.13574	4.19794	-1.62099	-4.54019	11.0008	0
0.5233	81.9788	15.353	-3.50824	-4.30129	1.75857	4.48635	-1.31877	-3.60959	9.77022	0
0.5240	89.6126	17.4877	-1.67059	-4.30129	2.34476	6.02453	-1.00739	-1.4664	9.4719	0
0.5247	42.6222	18.4318	0.167059	-3.69209	2.96759	6.31293	0.512854	0.0563998	10.4042	-0.321624
0.5253	5.08922	17.8161	0.167059	-3.69209	2.96759	4.48635	0.210637	0.0563998	10.4042	0
0.5260	-8.3548	17.2003	-0.751765	-4.30129	2.96759	3.58908	-1.00739	0.0563998	9.77022	0.321624
0.5267	-24.5131	15.9688	-0.751765	-4.00592	3.26068	2.98022	-1.62099	-0.563998	9.77022	0
0.5273	-45.5909	16.5845	0.473334	-3.0829	3.26068	2.65976	-1.31877	0.338399	11.0008	-0.321624
0.5280	-55.3452	18.1034	2.61726	-2.78753	3.88351	3.87749	-0.0915811	2.48159	11.2992	0
0.5287	-62.0884	17.4877	3.53608	-4.00592	3.59041	4.8068	0.815072	2.48159	9.17357	0
0.5293	-63.6152	16.5845	3.2298	-4.91048	2.34476	3.87749	-0.402957	4.31459	8.2413	0
0.5300	-53.2247	16.2561	2.92353	-4.30129	2.05166	2.65976	-2.83901	6.45778	8.87524	0
0.5307	-32.783	14.7373	2.61726	-4.30129	2.05166	2.37136	-3.75483	5.52718	9.17357	0
0.5313	0.169641	14.1215	3.2298	-4.30129	2.34476	4.19794	-1.00739	5.83738	8.87524	0
0.5320	25.8278	13.2184	2.31098	-4.91048	2.05166	6.02453	1.42867	5.83738	7.04799	0
0.5327	29.7719	9.8522	-0.751765	-7.05189	0.842648	6.63339	2.34448	1.5792	3.99013	0
0.5333	21.8412	7.4302	-3.50824	-8.87948	0.219821	6.63339	2.95807	-2.08679	1.2306	-0.643247
0.5340	1.10266	6.19868	-5.01177	-8.87948	0.219821	6.02453	1.73088	-4.22999	0.335618	-1.28649
0.5347	-14.7587	5.91132	-4.09294	-7.36572	1.42884	5.70407	1.73088	-3.60959	1.82726	-0.321624
0.5353	-17.5154	6.19868	-3.81451	-6.14733	2.34476	5.70407	3.56251	-2.70719	3.05786	0
0.5360	-44.361	4.39244	-5.62432	-7.36572	0.842648	5.09521	3.56251	-2.70719	1.52893	0
0.5367	-84.9475	3.16091	-5.93059	-9.19331	0.512916	5.09521	3.56251	-2.08679	-0.596655	-0.321624
0.5373	-100.512	2.83251	-5.62432	-9.8025	0.512916	6.63339	2.95807	-1.4664	-3.35618	-0.321624
0.5380	-101.148	2.83251	-5.31804	-10.4117	0.219821	7.5627	2.95807	0.0563998	-3.65451	0
0.5387	-94.7018	3.77668	-3.81451	-10.4117	0.842648	6.63339	2.95807	2.79179	-2.42391	0
0.5393	-87.4073	3.16091	-4.09294	-10.0979	1.13574	5.70407	1.73088	2.17139	-3.05786	-0.321624
0.5400	-102.039	1.64203	-5.01177	-11.0209	0.842648	6.63339	2.04226	1.5792	-5.48177	0
0.5407	-109.376	0.410508	-4.70549	-12.8485	0.219821	7.85111	4.47832	2.79179	-7.60735	0.321624
0.5413	-34.3098	1.64203	-3.81451	-13.1623	-0.0732737	7.85111	5.39413	6.14758	-8.2413	0
0.5420	97.2464	3.77668	-1.67059	-10.7255	0.512916	7.24225	4.1761	11.3364	-6.41404	0
0.5427	170.149	4.6798	-0.139216	-10.0979	0.842648	7.5627	3.56251	14.382	-5.78009	0
0.5433	169.853	4.6798	-0.751765	-10.7255	0.219821	6.95384	4.78969	16.5252	-6.71237	0
0.5440	137.536	4.96715	-0.751765	-9.48867	-0.6961	5.70407	4.78969	17.7377	-6.07842	0.321624
0.5447	89.3157	4.96715	-0.139216	-8.27028	-0.989195	5.09521	3.26029	16.8354	-4.25117	0
0.5453	49.0261	4.96715	1.08588	-7.97492	-0.6961	5.70407	3.56251	16.215	-3.35618	-0.321624
0.5460	20.9506	4.6798	0.779608	-7.66109	-0.403005	5.41566	4.47832	15.3126	-2.42391	-0.321624
0.5467	18.7877	4.96715	1.39216	-6.75653	-0.6961	3.87749	4.47832	14.6922	-1.82726	0
0.5473	49.6199	8.04596	4.73334	-6.4427	-0.6961	3.87749	2.95807	16.5252	-1.19331	0.321624
0.5480	84.7354	10.1806	7.48981	-6.14733	-0.6961	4.19794	2.04226	19.2605	-1.19331	0.321624
0.5487	90.8425	9.56485	8.10236	-5.22431	0.219821	3.26863	2.34448	18.6683	-0.894982	0
0.5493	62.767	7.4302	6.57098	-4.91048	0.842648	2.37136	2.04226	13.1694	-0.596655	0
0.5500	39.2294	4.6798	3.53608	-5.51968	0.219821	1.76249	0.512854	6.14758	-0.894982	-0.321624
0.5507	31.0018	1.02627	0.167059	-5.8335	0.512916	1.15363	-1.62099	1.88939	-1.19331	0
0.5513	20.6537	-2.3399	-2.58941	-6.4427	0.512916	1.15363	-1.00739	-0.563998	-1.52893	0
0.5520	15.7342	-3.85878	-4.70549	-6.14733	-0.403005	0.833179	-1.31877	-3.60959	-2.12558	0
0.5527	17.6002	-5.37766	-5.62432	-5.22431	-0.403005	0.544771	-2.5368	-7.58578	-1.82726	0
0.5533	15.1404	-6.89654	-5.93059	-5.22431	-0.403005	-0.0640907	-1.62099	-11.844	-1.82726	0
0.5540	12.6806	-8.12807	-6.54314	-5.8335	-0.403005	-0.384544	-1.31877	-15.1998	-3.35618	0
0.5547	14.5467	-8.45647	-6.84941	-6.14733	-1.31893	-0.384544	-1.00739	-17.6531	-4.54949	0
0.5553	13.3168	-8.45647	-6.23687	-6.75653	-1.61202	-0.0640907	0.210637	-18.2735	-4.54949	0
0.5560	5.97983	-7.5123	-4.70549	-7.05189	-0.6961	1.76249	1.73088	-16.1304	-5.48177	0
0.5567	-4.07137	-6.60918	-4.09294	-8.27028	0.219821	4.19794	3.87388	-13.0848	-7.60735	0
0.5573	-9.58469	-6.89654	-4.39922	-10.0979	-0.0732737	5.09521	3.26029	-11.2518	-10.0686	0
0.5580	-10.1784	-7.84071	-5.31804	-10.4117	-0.0732737	4.8068	3.26029	-10.3212	-11.5975	-0.321624
0.5587	-9.58469	-8.45647	-6.23687	-8.87948	-0.403005	3.26863	3.87388	-10.9416	-10.0686	0
0.5593	-7.76105	-8.12807	-5.62432	-6.75653	-0.6961	1.76249	2.64669	-11.2518	-7.30902	0
0.5600	-4.07137	-6.89654	-2.89569	-3.69209	-0.403005	0.833179	2.95807	-10.3212	-4.25117	0.321624
0.5607	-17.2185	-6.89654	-2.28314	-2.4737	-0.403005	-0.704998	2.64669	-11.562	-2.12558	0.321624
0.5613	-51.0618	-7.5123	-3.20196	-3.0829	-1.31893	-1.31386	1.42867	-13.9872	-2.42391	0
0.5620	-74.8963	-7.22495	-2.58941	-2.4737	-1.90512	-0.384544	3.87388	-13.677	-3.05786	0.321624
0.5627	-77.9498	-7.84071	-2.58941	-2.78753	-2.23485	-0.993406	4.1761	-15.1998	-3.65451	-0.321624
0.5633	-70.9097	-8.74383	-2.89569	-1.86451	-1.61202	-2.21113	1.73088	-17.6531	-2.72224	-0.964871
0.5640	-59.0349	-9.07224	-2.58941	-0.0369209	-0.403005	-1.31386	1.73088	-16.1304	-0.596655	-0.321624
0.5647	-48.6444	-9.97535	-3.81451	-1.25531	-1.31893	-1.60227	1.12645	-15.1998	-1.82726	0
0.5653	-37.3633	-11.2069	-4.70549	-2.4737	-1.61202	-2.81999	0.210637	-14.6076	-4.25117	0
0.5660	0.508922	-11.2069	-4.39922	-2.4737	-1.31893	-2.21113	0.210637	-12.4644	-4.88511	0.321624
0.5667	63.6576	-10.8785	-4.39922	-3.0829	-0.989195	-1.92272	0.210637	-10.9416	-3.95284	0.321624
0.5673	98.137	-9.64695	-2.89569	-3.39672	-0.6961	-0.993406	2.04226	-8.20618	-3.65451	0.321624
0.5680	82.5725	-8.74383	-1.36431	-3.39672	-0.989195	-0.704998	2.95807	-5.75278	-4.54949	0
0.5687	57.5505	-8.12807	-1.05804	-3.69209	-1.31893	-0.704998	0.512854	-4.54019	-4.88511	0
0.5693	39.2294	-7.84071	-0.44549	-3.39672	-1.61202	-1.60227	-0.402957	-3.29939	-4.25117	0
0.5700	24.8947	-8.45647	-1.05804	-3.69209	-2.82104	-2.53158	-0.705175	-3.01739	-4.88511	0
0.5707	19.4238	-8.45647	-1.05804	-4.30129	-3.15077	-2.21113	-0.705175	-2.08679	-5.78009	-0.321624
0.5713	0.169641	-6.89654	0.473334	-3.39672	-1.61202	-1.92272	1.42867	0.958797	-4.88511	0
0.5720	-35.4973	-5.99342	1.39216	-2.17833	-1.31893	-2.81999	2.04226	3.10199	-3.95284	0.321624
0.5727	-53.2247	-5.37766	1.39216	-2.4737	-1.90512	-2.21113	2.64669	4.93499	-4.88511	0.321624
0.5733	-51.0618	-5.0903	1.69843	-3.0829	-1.61202	-0.704998	4.47832	7.67038	-6.71237	0.321624
0.5740	-39.187	-5.37766	2.61726	-2.78753	-0.989195	-0.993406	3.26029	8.88297	-6.41404	0.321624
0.5747	-23.3256	-5.0903	2.61726	-1.56914	-0.6961	-2.21113	1.73088	9.81357	-4.54949	0
0.5753	-19.0421	-4.47454	2.61726	0.276907	-0.989195	-2.21113	3.56251	11.3364	-3.35618	0
0.5760	-16.9216	-5.0903	2.00471	0.572274	-2.23485	-1.92272	5.7055	11.6466	-3.05786	0.321624
0.5767	4.45306	-6.32183	0.473334	-0.0369209	-1.90512	-1.92272	6.62131	10.716	-3.65451	0.321624
0.5773	38.6356	-6.89654	-0.751765	0.276907	-1.61202	-1.92272	6.62131	10.716	-4.88511	0
0.5780	53.6064	-7.22495	-1.05804	0.886102	-1.61202	-1.60227	6.92353	11.3364	-5.48177	0
0.5787	38.9325	-8.74383	-2.58941	-0.0369209	-1.61202	-1.60227	6.30994	10.716	-7.30902	0
0.5793	20.3145	-10.5911	-5.01177	-2.17833	-1.31893	-1.60227	4.78969	8.88297	-10.9635	0
0.5800	22.7742	-11.2069	-5.31804	-3.39672	-0.6961	-1.31386	5.39413	8.60098	-13.1264	0
0.5807	41.6892	-10.2627	-4.09294	-3.0829	-0.6961	-1.60227	6.62131	8.60098	-13.4247	0
0.5813	51.1466	-9.64695	-3.50824	-2.78753	-0.403005	-1.92272	5.39413	8.88297	-13.7231	0
0.5820	42.919	-8.12807	-2.58941	-2.17833	-0.403005	-1.92272	6.00772	11.0262	-13.1264	0.321624
0.5827	31.638	-5.37766	-0.139216	-1.56914	-0.403005	-3.42885	5.7055	14.6922	-11.8958	0
0.5833	16.9641	-2.05254	3.53608	-0.959944	0.219821	-3.74931	2.95807	17.7377	-10.9635	0
0.5840	2.9263	0.0821017	5.34588	-1.25531	0.219821	-2.53158	2.64669	18.0479	-11.8958	0
0.5847	5.38609	-0.205254	5.65216	-2.4737	-0.0732737	-2.21113	2.95807	15.3126	-13.1264	-0.643247
0.5853	16.3703	0.410508	6.57098	-1.86451	0.219821	-2.21113	3.26029	13.7898	-13.1264	-0.321624
0.5860	17.6002	1.02627	6.57098	-0.646116	0.219821	-2.81999	2.64669	13.1694	-12.1941	0.321624
0.5867	7.20972	0.410508	5.65216	-0.646116	-0.0732737	-4.35817	1.12645	11.3364	-10.9635	0
0.5873	-3.47763	-1.10837	4.12079	0.572274	-0.403005	-5.57589	-1.31877	7.67038	-9.13628	0
0.5880	-8.3548	-2.95566	2.00471	2.39986	-0.0732737	-5.57589	-1.62099	4.93499	-7.0107	0
0.5887	-12.6382	-4.47454	0.473334	3.00905	-0.0732737	-4.64658	1.12645	3.69419	-5.78009	0
0.5893	-17.2185	-5.37766	-0.751765	3.32288	-0.6961	-5.57589	2.04226	0.958797	-6.07842	0.321624
0.5900	-19.9752	-5.0903	-0.751765	4.54127	-0.403005	-6.79361	0.512854	-0.874197	-5.48177	0.321624
0.5907	-22.9863	-5.0903	-0.139216	4.2459	0.219821	-7.11407	-0.402957	-1.4664	-5.48177	0
0.5913	-22.0957	-5.70607	-1.05804	2.10449	-0.6961	-6.79361	0.512854	-3.29939	-8.2413	0
0.5920	-19.6359	-6.32183	-1.97686	-0.0369209	-1.61202	-5.25544	3.26029	-3.91979	-11.2619	0
0.5927	-19.0421	-6.89654	-1.97686	-4.91048	-1.61202	-3.42885	5.39413	-3.01739	-14.9537	0.321624
0.5933	-15.6917	-6.32183	-1.97686	-8.87948	-0.0732737	-2.21113	6.30994	-2.08679	-17.0792	-0.321624
0.5940	-12.0021	-5.37766	-1.36431	-2.78753	2.05166	-3.14044	7.22575	-1.4664	-14.9537	-0.964871
0.5947	-12.0021	-5.99342	-1.97686	5.46429	1.75857	-5.57589	6.62131	-1.77659	-12.7908	0
0.5953	-11.7052	-6.32183	-2.89569	6.07349	0.512916	-6.47316	5.09191	-2.39699	-13.4247	0.321624
0.5960	-12.3413	-6.32183	-3.50824	6.07349	0.512916	-4.64658	5.7055	-3.01739	-14.9537	0.321624
0.5967	-15.3949	-6.60918	-4.70549	6.07349	1.13574	-2.81999	7.22575	-5.13238	-17.3776	0.321624
0.5973	-15.0556	-5.99342	-3.81451	0.276907	1.75857	0.224317	8.75515	-6.65518	-19.8388	0
0.5980	-25.7429	-4.47454	-1.97686	-2.4737	1.75857	2.98022	9.97318	-5.13238	-19.5032	-0.321624
0.5987	-59.6286	-4.7619	-2.89569	14.3069	1.13574	1.15363	9.67097	-3.60959	-13.7231	0
0.5993	-85.5836	-4.47454	-3.20196	38.1024	0.842648	-3.14044	6.92353	-2.39699	-3.95284	0
0.6000	-88.2979	-4.47454	-3.20196	48.791	0.842648	-6.47316	2.64669	-1.77659	3.35618	-0.321624
0.6007	-85.8805	-4.7619	-4.39922	44.2128	0.219821	-8.33179	1.42867	-1.4664	8.53962	0
0.6013	-76.423	-3.85878	-4.39922	24.6816	-0.0732737	-8.33179	3.87388	0.0563998	18.9438	0
0.6020	-60.5617	-3.24302	-3.81451	13.0885	-0.0732737	-8.94065	3.26029	1.269	21.3677	0
0.6027	-40.7137	-3.57142	-3.81451	34.1518	0.219821	-10.1584	-0.705175	0.958797	-0.894982	0
0.6033	19.7207	-3.24302	-3.50824	45.1358	1.13574	-10.1584	-1.00739	0.338399	-27.4461	0
0.6040	99.3669	-2.62725	-2.89569	16.1344	1.42884	-9.22906	1.12645	-0.253799	-29.2734	0
0.6047	113.998	-2.05254	-1.97686	-3.39672	0.842648	-8.01134	0.512854	1.5792	-26.8495	0
0.6053	75.278	-1.10837	-0.751765	23.1494	2.34476	-6.18475	-1.00739	4.31459	-41.5048	0
0.6060	34.6915	-0.821017	-1.36431	21.931	4.1766	-3.74931	-1.31877	4.93499	-54.6312	0.321624
0.6067	4.45306	-1.72414	-2.89569	-56.1936	6.00844	0.224317	0.210637	4.00439	-52.7667	0.321624
0.6073	-2.54461	-2.05254	-2.89569	-90.9731	7.84029	3.87749	2.34448	3.69419	-21.9644	0.321624
0.6080	0.508922	-1.72414	-1.97686	-37.567	9.37903	2.65976	1.42867	3.69419	36.6197	0
0.6087	-2.54461	-2.3399	-2.28314	12.1654	10.9178	-1.92272	-1.62099	3.41219	109.262	0
0.6093	-5.0044	-3.24302	-2.89569	29.2598	12.4199	-5.25544	-2.83901	2.48159	187.089	0
0.6100	-2.54461	-3.57142	-3.20196	35.0564	13.9586	-6.18475	-2.5368	2.17139	245.673	0
0.6107	2.62943	-4.18719	-3.81451	27.1184	13.3358	-7.11407	-3.75483	1.269	232.546	0.321624
0.6113	7.50659	-4.18719	-3.50824	4.54127	9.67213	-7.40248	-3.15039	0.648598	81.4807	0
0.6120	9.96638	-3.57142	-2.89569	-15.2853	6.33818	-6.79361	0.210637	0.958797	-156.846	0
0.6127	9.96638	-2.62725	-3.20196	-19.2543	4.79943	-7.11407	0.210637	1.269	-318.576	0.321624
0.6133	9.6271	-2.05254	-3.50824	2.10449	2.34476	-7.72293	-1.62099	1.269	-332.635	0
0.6140	8.73649	-1.43678	-3.81451	41.1668	-1.90512	-8.94065	-1.62099	1.269	-239.557	0
0.6147	6.61598	-0.205254	-4.39922	66.4946	-2.82104	-8.6202	-0.0915811	1.269	-88.1931	0
0.6153	5.68296	1.02627	-4.39922	79.3061	1.42884	-7.11407	2.04226	2.17139	57.0924	0
0.6160	5.68296	0.697864	-4.09294	100.665	6.00844	-8.01134	2.04226	2.48159	189.513	0
0.6167	5.68296	1.02627	-3.20196	92.7453	9.08594	-8.6202	3.26029	2.48159	335.693	0
0.6173	5.68296	0.410508	-3.20196	35.9794	10.295	-7.72293	6.00772	2.17139	442.196	0
0.6180	5.08922	-0.821017	-3.20196	-21.7095	10.588	-7.11407	4.1761	1.5792	487.393	0
0.6187	4.45306	-0.205254	-2.89569	-51.3016	10.295	-4.96703	2.04226	1.5792	426.049	0
0.6193	4.74993	0.410508	-3.20196	-71.7558	7.84029	-1.92272	3.26029	0.958797	166.653	0.321624
0.6200	5.08922	0.697864	-3.20196	-131.254	5.42225	2.37136	6.62131	2.17139	-173.03	-0.321624
0.6207	4.15619	1.64203	-2.58941	-206.942	2.67449	9.6777	9.97318	4.00439	-410.76	-0.321624
0.6213	2.9263	2.2578	-3.20196	-206.333	-2.23485	15.1895	10.5868	4.00439	-525.206	0
0.6220	2.03569	2.83251	-3.50824	-113.255	-5.8619	13.3629	8.75515	4.31459	-497.125	0
0.6227	1.10266	3.44827	-3.81451	-15.5991	-6.19163	5.41566	2.95807	3.41219	-355.83	-0.643247
0.6233	0.508922	3.44827	-4.70549	40.2438	-2.82104	-2.81999	-4.36842	1.5792	-216.959	-1.28649
0.6240	0.805792	4.6798	-4.39922	79.0107	3.88351	-7.11407	-5.58645	2.79179	-129.996	-0.643247
0.6247	0.805792	4.96715	-4.09294	97.3235	8.75621	-10.4468	-2.5368	3.69419	-100.984	0
0.6253	0.805792	3.77668	-4.39922	104.339	11.504	-13.8115	-3.45261	2.79179	-76.5956	0
0.6260	1.69641	2.83251	-3.81451	137.9	14.5815	-15.9586	-4.98201	2.79179	7.04799	0
0.6267	2.33256	1.92939	-4.09294	166.587	14.8746	-17.1763	-3.75483	2.48159	106.205	0
0.6273	2.33256	1.31363	-4.39922	149.197	14.2517	-17.1763	-1.9232	1.269	187.984	0
0.6280	2.33256	1.64203	-3.81451	123.556	13.9586	-14.7409	0.815072	0.958797	284.754	-0.321624
0.6287	2.33256	1.92939	-3.20196	106.775	10.0019	-11.0556	2.34448	1.88939	399.199	0
0.6293	2.62943	2.2578	-2.89569	59.775	5.42225	-6.47316	2.95807	2.48159	369.59	0
0.6300	2.33256	2.83251	-2.89569	-2.17833	2.34476	-3.14044	5.39413	3.10199	57.3907	-0.321624
0.6307	0.805792	3.77668	-4.39922	-7.05189	-1.61202	-1.92272	6.62131	2.79179	-245.337	0
0.6313	-0.720972	5.29556	-5.01177	49.4002	-4.65288	-0.993406	5.7055	3.41219	-273.715	0
0.6320	-1.01784	7.10179	-5.01177	97.9327	-3.44386	-0.704998	5.39413	4.93499	-162.961	0
0.6327	-1.01784	7.71756	-4.70549	118.978	2.67449	-4.35817	3.87388	4.93499	-28.9751	0
0.6333	-0.720972	6.19868	-4.70549	142.182	10.295	-11.985	-1.31877	4.31459	137.044	0.321624
0.6340	-0.12723	4.6798	-5.31804	140.964	16.7064	-16.8559	-7.72945	4.00439	309.477	0
0.6347	0.169641	4.6798	-4.39922	89.0717	21.5791	-12.8822	-8.33388	3.69419	364.071	0
0.6353	1.39953	4.39244	-2.58941	-9.8025	23.4109	-5.57589	-5.28423	4.31459	292.995	0
0.6360	2.62943	3.44827	-2.28314	-111.427	22.2019	0.544771	-5.58645	3.69419	264.616	0
0.6367	2.9263	3.16091	-2.28314	-170.021	20.3701	6.95384	-5.58645	3.10199	176.386	0
0.6373	3.56245	3.16091	-1.97686	-193.207	17.3292	10.607	-3.15039	2.48159	-111.09	0
0.6380	3.22317	3.16091	-2.28314	-204.505	11.8337	10.607	-0.0915811	2.79179	-398.566	-0.321624
0.6387	2.9263	4.06403	-2.28314	-224.331	7.2541	10.607	1.42867	4.00439	-531.62	0
0.6393	2.9263	5.29556	-1.97686	-204.505	4.1766	8.78043	-0.402957	4.31459	-479.711	0.321624
0.6400	2.03569	5.91132	-2.58941	-121.488	-0.403005	7.5627	-1.31877	4.31459	-332.635	0.321624
0.6407	1.10266	6.81444	-3.50824	-36.9578	-6.19163	6.02453	0.815072	4.93499	-182.502	0
0.6413	1.10266	8.66173	-3.50824	21.3218	-7.40064	2.0509	0.512854	4.93499	-35.6874	0
0.6420	0.805792	9.56485	-2.89569	55.806	-5.5688	-1.92272	-2.83901	5.24518	29.609	-0.321624
0.6427	1.39953	8.94908	-2.89569	54.9014	-4.98261	-3.74931	-4.36842	5.52718	50.9767	-0.321624
0.6433	1.69641	8.66173	-2.58941	11.8701	-2.82104	-6.18475	-3.75483	5.52718	38.7826	0
0.6440	1.10266	8.66173	-2.89569	-16.5221	-0.0732737	-10.4468	-6.20004	4.62479	-56.7568	0
0.6447	1.10266	9.56485	-3.50824	12.7746	2.96759	-13.5231	-9.24969	4.00439	-105.272	0
0.6453	1.69641	10.7964	-2.58941	27.4322	6.92437	-11.6645	-5.89782	4.31459	-40.8709	0.321624
0.6460	2.03569	11.0837	-1.97686	-13.4577	8.75621	-8.33179	-2.83901	4.62479	-1.82726	0
0.6467	2.9263	10.7964	-1.05804	-68.6914	7.54719	-4.35817	-1.9232	4.31459	-87.8947	0
0.6473	3.56245	10.1806	-0.44549	-123.63	5.09252	-1.31386	0.815072	4.31459	-168.741	0
0.6480	2.9263	10.468	-0.44549	-150.49	2.34476	-3.42885	1.12645	3.41219	-138.536	0
0.6487	2.9263	8.94908	-0.139216	-112.646	2.05166	-5.8643	-1.31877	3.10199	-96.136	0
0.6493	2.62943	3.77668	-0.751765	-53.1292	2.05166	-7.40248	-2.23458	2.79179	-76.5956	0
0.6500	2.03569	0.697864	-1.97686	-22.6141	1.13574	-8.01134	-1.9232	1.269	-16.4826	0
0.6507	1.39953	1.02627	-1.36431	3.61825	2.05166	-7.40248	-1.9232	2.48159	82.1146	0
0.6513	1.10266	2.83251	-1.05804	15.2299	1.75857	-6.79361	-1.62099	3.41219	122.687	0
0.6520	1.69641	4.39244	-1.05804	-7.36572	-1.61202	-6.18475	-1.00739	1.5792	78.4601	0
0.6527	1.39953	5.58291	-1.05804	-8.27028	-2.82104	-4.96703	-2.5368	1.88939	86.6641	-0.643247
0.6533	0.508922	4.96715	-2.28314	12.4793	-1.90512	-4.03771	-5.28423	2.17139	104.676	-1.28649
0.6540	-0.12723	2.83251	-2.89569	23.4632	-2.82104	-2.21113	-4.67064	2.48159	29.3107	-0.321624
0.6547	-0.424101	2.2578	-1.67059	78.6969	-4.35979	-0.0640907	-2.5368	4.31459	-26.5511	0
0.6553	0.169641	1.64203	-1.05804	140.336	-2.23485	-1.60227	-3.75483	3.69419	-6.71237	0
0.6560	0.508922	-0.49261	-1.97686	100.979	2.05166	-3.14044	-6.20004	1.88939	71.4121	-0.321624
0.6567	1.39953	-3.85878	-2.28314	58.5566	5.09252	-4.03771	-6.81363	2.17139	236.835	-0.321624
0.6573	2.03569	-4.47454	-2.28314	113.495	7.2541	-6.47316	-6.50226	1.5792	469.978	0
0.6580	2.03569	2.54515	-1.67059	166.292	10.295	-8.6202	-7.41807	1.5792	515.137	0.321624
0.6587	2.9263	11.6995	-1.05804	185.823	11.8337	-10.7672	-7.41807	0.958797	215.765	0
0.6593	4.15619	16.2561	-0.44549	183.682	12.1268	-13.8115	-7.11585	-1.1844	-134.583	0
0.6600	4.74993	15.353	0.167059	136.995	11.504	-12.8822	-6.50226	-0.563998	-251.751	0
0.6607	3.85932	7.10179	-0.139216	91.5085	9.37903	-10.4468	-4.98201	-0.563998	-164.49	0
0.6613	2.33256	1.31363	-1.36431	52.76	6.63127	-8.6202	-5.28423	-1.1844	-27.1478	0
0.6620	2.03569	1.02627	-1.36431	10.0425	3.88351	-6.18475	-5.89782	0.648598	57.0924	0
0.6627	2.03569	0.0821017	-1.05804	-53.443	2.34476	-7.11407	-4.67064	0.338399	94.0104	0
0.6633	1.39953	-1.43678	-1.05804	-161.16	4.1766	-8.94065	-6.20004	-0.253799	191.041	0.321624
0.6640	1.10266	-1.43678	-1.05804	-154.459	7.84029	-6.18475	-7.72945	-0.253799	409.566	0.321624
0.6647	-0.424101	-0.821017	-1.36431	-43.9728	9.67213	-3.14044	-6.50226	-0.253799	569.47	0.321624
0.6653	-1.95087	-0.49261	-0.751765	-90.9731	11.8337	-2.21113	-5.58645	0.958797	413.519	0
0.6660	-1.95087	1.31363	-0.751765	-194.426	11.2109	0.224317	-6.20004	1.269	-19.2048	0
0.6667	-1.35712	5.29556	-1.36431	-149.567	4.50633	6.95384	-5.28423	0.0563998	-408.634	0
0.6673	-1.654	4.39244	-1.05804	-76.334	-1.90512	14.2602	-1.9232	-0.253799	-561.825	-0.321624
0.6680	-2.54461	-2.05254	-0.751765	-51.6154	-5.5688	15.4779	-0.402957	0.338399	-516.666	-0.643247
0.6687	-2.88389	-6.32183	-0.751765	-22.6141	-8.93939	13.3629	-0.402957	1.5792	-373.506	0
0.6693	-2.88389	-6.60918	-0.139216	13.0885	-8.93939	10.8954	-1.9232	3.41219	-188.879	0
0.6700	-2.88389	-5.0903	0.167059	36.5886	-5.8619	3.87749	-4.98201	3.69419	0.932273	0
0.6707	-1.35712	4.06403	0.167059	40.853	-4.35979	-4.03771	-6.50226	3.10199	83.6436	0.321624
0.6713	-0.12723	32.1428	1.08588	42.3852	-5.8619	-6.18475	-8.33388	2.48159	36.3214	0.321624
0.6720	0.169641	55.6239	1.39216	56.1198	-6.48472	-4.35817	-10.4677	1.88939	-45.1593	0
0.6727	0.169641	46.4695	1.08588	64.667	-5.5688	-3.42885	-9.55191	1.269	-96.4344	0
0.6733	2.33256	25.4515	2.31098	28.9645	-2.82104	-3.42885	-8.94747	3.69419	-90.617	0
0.6740	5.97983	12.931	2.92353	-82.1306	0.219821	-4.96703	-11.3835	7.36018	-68.9509	0
0.6747	9.6271	4.96715	2.31098	-206.333	2.05166	-5.8643	-12.9129	8.88297	-16.7809	-0.321624
0.6753	11.1539	-6.32183	2.61726	-240.521	4.50633	-4.64658	-11.9971	10.434	103.482	-0.321624
0.6760	11.1539	-16.995	2.61726	-182.537	6.63127	-3.42885	-11.6949	12.549	170.009	0
0.6767	10.2633	-14.8604	3.2298	-71.7558	7.54719	-0.993406	-10.1655	13.4796	101.319	0
0.6773	8.73649	-1.43678	4.12079	14.0115	7.84029	2.37136	-7.72945	12.8592	-32.6296	0
0.6780	6.61598	12.6026	3.81451	-5.22431	5.71535	3.87749	-9.24969	11.0262	-173.328	0
0.6787	5.38609	19.0065	3.53608	-54.0522	2.96759	2.98022	-10.7791	9.81357	-286.842	0
0.6793	4.74993	16.8719	2.92353	-54.0522	0.219821	0.224317	-11.9971	9.19317	-336.29	0
0.6800	4.15619	9.8522	2.61726	-47.0372	-2.82104	0.544771	-12.9129	9.50337	-289.303	0
0.6807	3.85932	2.54515	4.42706	-36.9578	-2.23485	2.37136	-11.6949	10.716	-103.147	0.321624
0.6813	3.85932	-1.72414	4.73334	9.72866	1.42884	-0.993406	-10.1655	9.81357	121.792	0.321624
0.6820	4.45306	-5.0903	3.81451	75.3371	4.1766	-7.11407	-10.7791	7.36018	238.364	-0.321624
0.6827	4.74993	-9.97535	3.53608	120.805	7.54719	-11.3761	-11.9971	6.14758	270.993	-0.643247
0.6833	4.45306	-17.2824	3.81451	132.103	9.37903	-16.247	-15.6604	3.41219	268.868	-0.964871
0.6840	5.08922	-30.0903	2.92353	156.822	8.75621	-17.1763	-17.1898	0.338399	260.626	-0.321624
0.6847	6.61598	-31.6502	2.92353	214.51	7.54719	-15.0293	-14.131	-0.253799	293.293	0.643247
0.6853	8.14274	-3.85878	4.73334	246.539	2.96759	-14.4204	-13.8287	-2.39699	340.578	0
0.6860	7.80346	22.9885	5.03961	278.291	-0.989195	-15.0293	-15.9626	-3.91979	432.463	-0.321624
0.6867	6.91285	20.5665	3.81451	361.899	0.842648	-15.3497	-16.5762	-3.01739	643.008	0
0.6873	5.97983	16.8719	2.31098	405.244	4.79943	-12.5938	-17.492	-3.91979	778.224	0.321624
0.6880	3.56245	15.0657	2.92353	319.79	8.46311	-5.25544	-16.8784	-5.75278	645.469	-0.321624
0.6887	-1.654	-3.85878	3.53608	180.026	9.08594	0.544771	-14.7446	-7.58578	331.74	-0.321624
0.6893	-11.1115	-20.3612	1.69843	70.7589	4.1766	1.76249	-15.9626	-10.3212	-95.2038	0
0.6900	-17.2185	-18.5139	0.167059	-61.9902	-0.989195	4.48635	-17.492	-13.0848	-589.57	0
0.6907	-16.2855	-7.84071	-0.44549	-209.692	-4.98261	9.99815	-14.7446	-13.9872	-876.151	0
0.6913	-14.165	3.77668	-0.44549	-221.285	-9.85531	12.4336	-10.7791	-14.2974	-730.268	0
0.6920	-14.7587	12.3153	-0.44549	-133.1	-9.23249	10.607	-8.33388	-13.677	-321.336	0
0.6927	-17.8123	18.7192	-1.05804	-63.504	-0.989195	6.95384	-8.33388	-12.4644	95.241	0
0.6933	-25.1492	21.4696	-2.58941	-42.1452	7.84029	2.65976	-8.94747	-10.9416	397.037	0
0.6940	-34.6067	20.5665	-3.81451	-91.8961	12.7496	-0.704998	-7.11585	-9.41877	530.389	0
0.6947	-27.2697	17.2003	-3.20196	-91.287	13.9586	-2.81999	-5.28423	-8.79837	484.335	0
0.6953	2.03569	13.2184	-2.28314	5.75966	11.504	-4.03771	-3.15039	-7.89598	283.523	0.321624
0.6960	21.5443	12.3153	-0.751765	73.5095	6.33818	-3.42885	0.815072	-6.65518	45.7933	0
0.6967	17.6002	11.9868	-0.44549	77.1832	1.75857	0.224317	6.30994	-7.27558	-121.158	0
0.6973	9.6271	6.52708	-1.97686	43.6036	-2.23485	7.24225	10.5868	-8.20618	-198.947	0
0.6980	-1.95087	-0.821017	-3.81451	3.61825	-9.23249	13.9718	13.6364	-6.65518	-226.132	-0.321624
0.6987	-23.3256	-5.99342	-5.62432	-12.5531	-16.5599	16.0868	16.3839	-4.54019	-204.168	0
0.6993	-18.4484	-7.22495	-5.01177	30.792	-16.5599	14.2602	16.0816	-1.77659	-94.9054	0.321624
0.7000	42.6222	-3.85878	-1.97686	129.962	-9.23249	13.0425	13.9386	1.269	19.2421	0
0.7007	119.512	0.0821017	-0.44549	134.244	-1.90512	12.722	8.14156	2.17139	51.5734	0
0.7013	142.413	-1.10837	-1.05804	-45.505	3.59041	11.2159	3.56251	3.41219	64.6998	0
0.7020	105.771	-5.99342	-2.28314	-206.333	5.71535	12.1131	11.1912	4.31459	151.998	0
0.7027	58.1867	-7.5123	-1.05804	-192.912	7.84029	17.0161	18.2155	3.41219	223.708	0
0.7033	21.5443	-9.35959	4.42706	-128.817	11.8337	20.9897	15.1658	1.269	133.39	0.321624
0.7040	0.508922	-13.0131	8.7149	-122.725	12.4199	20.9897	8.45294	-3.01739	-31.1006	0.321624
0.7047	-5.89501	-14.2446	8.40863	-146.521	9.67213	20.9897	3.87388	-5.44258	-156.846	0
0.7053	-12.3413	-14.8604	5.65216	-135.223	7.2541	19.4515	2.64669	-9.41877	-257.867	0
0.7060	-23.6224	-16.0919	2.61726	-56.1936	4.1766	18.5222	0.512854	-15.8202	-283.784	0
0.7067	-36.4303	-14.2446	1.69843	22.854	-1.90512	22.4958	0.512854	-18.2735	-214.535	0
0.7073	-48.0507	-11.2069	2.31098	33.838	-1.61202	22.8163	2.34448	-19.4861	-162.327	0.321624
0.7080	-52.9278	-9.64695	1.39216	23.1494	11.8337	19.4515	2.04226	-20.1065	-138.834	0.321624
0.7087	-46.1846	-9.35959	-0.751765	38.4162	23.704	21.5986	2.34448	-18.5837	-104.974	0.321624
0.7093	-24.8523	-10.5911	-4.09294	57.0243	26.4518	25.5401	3.87388	-18.8657	-109.225	-0.321624
0.7100	-9.88156	-11.2069	-5.93059	60.9933	23.4109	28.296	4.78969	-19.1759	-165.684	0
0.7107	-18.7453	-12.3974	-8.68706	79.6199	16.0836	29.8342	6.92353	-18.5837	-207.524	0.321624
0.7113	-28.2027	-13.9162	-14.1722	88.1671	9.67213	33.199	8.75515	-17.3429	-176.983	0.321624
0.7120	-25.4461	-14.2446	-17.5412	-8.58411	6.00844	36.5317	10.889	-12.4644	-144.652	0
0.7127	-24.2162	-14.2446	-18.7663	-108.677	3.59041	34.0963	12.107	-10.0392	-194.062	-0.643247
0.7133	-31.85	-13.9162	-18.46	-85.1765	7.84029	28.296	12.4184	-8.79837	-246.568	-0.964871
0.7140	-31.5531	-13.0131	-16.6224	-39.3946	20.3701	23.1047	12.4184	-3.29939	-235.902	0
0.7147	-14.7587	-12.3974	-14.1722	8.51027	31.6542	19.4515	9.97318	3.69419	-216.064	0
0.7153	-9.28782	-10.5911	-11.4435	55.5106	36.2338	16.6956	6.62131	8.60098	-199.879	-0.321624
0.7160	-38.8901	-8.74383	-8.68706	35.6656	36.8567	12.4336	5.09191	11.9568	-179.742	-0.321624
0.7167	-50.4681	-7.84071	-5.01177	19.8081	33.193	5.41566	4.78969	15.9048	-172.732	0.321624
0.7173	2.03569	-5.37766	0.779608	54.5876	27.3677	-4.35817	6.00772	23.2367	-149.835	0.321624
0.7180	29.475	-2.05254	6.26471	77.1832	22.2019	-12.8822	6.92353	30.5687	-108.032	0
0.7187	-32.783	-1.10837	8.10236	63.1348	15.4974	-11.3761	6.30994	34.2347	-78.1245	0
0.7193	-132.871	-2.3399	6.26471	49.1048	8.17002	2.98022	6.00772	36.9701	-57.3535	0
0.7200	-181.388	-2.95566	4.42706	55.1968	1.13574	16.0868	6.92353	41.2565	-35.0908	0
0.7207	-81.0033	0.0821017	6.87726	67.713	-8.02347	16.4072	8.14156	48.5603	-15.8486	0
0.7213	135.076	6.52708	13.8937	61.6025	-15.3508	2.98022	8.45294	55.8922	-5.78009	0
0.7220	291.018	11.9868	21.2165	40.853	-17.1827	-22.3677	4.78969	57.1048	11.5975	0
0.7227	348.696	15.6814	26.7294	39.0254	-9.52558	-39.1274	0.815072	55.8922	46.3899	0.321624
0.7233	367.314	16.2561	28.8455	57.0243	5.71535	-26.3092	-0.705175	55.582	82.7113	0.321624
0.7240	321.85	14.4499	27.3141	43.6036	16.9995	-7.72293	-0.705175	52.5364	138.275	0
0.7247	215.316	13.8341	27.0079	-39.3946	26.7815	-4.03771	1.42867	52.2262	201.744	0
0.7253	96.6103	15.0657	29.458	-112.646	41.1065	-1.60227	2.95807	57.415	178.251	0
0.7260	-25.4461	14.7373	29.458	-104.412	43.2681	-1.31386	1.12645	54.3694	89.4237	0
0.7267	-156.069	9.56485	23.9729	-72.6604	27.6975	-11.3761	-0.0915811	41.5385	57.3907	0
0.7273	-252.51	1.02627	14.2	-36.9578	24.0338	-21.7588	1.73088	27.2129	75.7006	0
0.7280	-258.914	-6.32183	4.12079	-14.0669	48.4339	-23.2649	5.09191	14.0718	59.218	0
0.7287	-199.709	-13.6289	-3.50824	-58.6304	70.7091	-19.9322	4.78969	-1.4664	-26.8495	0
0.7293	-77.6529	-21.2643	-11.1373	-96.7697	69.207	-19.9322	-2.83901	-19.7963	-70.7782	0
0.7300	157.638	-25.821	-16.6224	-60.7718	53.3066	-26.3092	-12.6107	-29.8637	64.6998	0
0.7307	392.336	-24.9179	-15.3973	-15.9129	33.4861	-32.7183	-16.8784	-28.6511	275.282	0
0.7313	450.947	-21.2643	-9.29961	-29.9429	9.67213	-30.6033	-16.5762	-25.8875	328.086	0.321624
0.7320	322.741	-19.7455	-6.23687	-84.5674	-20.5166	-23.2649	-16.8784	-28.0307	146.18	0
0.7327	145.764	-18.8013	-5.62432	-115.692	-51.0351	-10.1584	-17.1898	-28.9331	-119.294	0
0.7333	57.5505	-15.4762	-2.28314	-96.7697	-69.6467	12.1131	-16.5762	-24.3647	-231.614	0
0.7340	1.39953	-11.2069	2.61726	-53.1292	-69.0605	30.7315	-18.4078	-17.3429	-163.856	0
0.7347	-142.032	-7.5123	5.03961	-19.8635	-58.9853	42.9408	-20.8439	-10.9416	-19.2048	0
0.7353	-306.201	-4.47454	5.34588	-9.19331	-47.3714	48.741	-21.1552	-7.58578	130.63	0
0.7360	-322.063	-2.3399	5.34588	-27.1923	-37.626	43.2612	-17.492	-6.37318	114.744	0
0.7367	-221.975	1.02627	8.10236	-54.9752	-39.1282	50.888	-11.6949	-4.22999	-65.5948	0
0.7373	-110.606	3.77668	9.94	-45.8189	-44.9534	77.742	-11.3835	-0.874197	-136.41	0
0.7380	2.03569	1.31363	4.42706	6.68269	-44.0375	100.943	-13.2152	0.958797	-34.4568	0.321624
0.7387	27.6514	-1.43678	-3.81451	68.0268	-44.6237	116.805	-10.7791	1.269	64.4014	0
0.7393	-64.5058	-1.43678	-9.29961	96.0867	-55.6147	136.641	-6.81363	4.00439	103.781	0
0.7400	-149.962	0.697864	-11.722	87.5579	-62.0262	163.495	0.210637	11.0262	124.216	0
0.7407	-101.148	5.29556	-8.07451	71.3681	-52.2808	185.767	9.05737	22.0241	77.5279	0
0.7413	-14.7587	9.8522	0.779608	57.9474	-39.1282	205.315	14.8545	31.7813	-10.9635	0.321624
0.7420	19.4238	14.1215	12.6686	51.837	-33.9624	222.074	20.3493	36.3497	-25.0222	0.321624
0.7427	31.0018	19.3349	24.8918	50.0094	-33.0464	215.665	26.1464	40.0157	3.35618	-0.643247
0.7433	-16.2855	26.3546	37.3933	42.9944	-27.5509	194.932	28.2894	48.2501	-2.12558	-1.28649
0.7440	63.6576	37.3152	51.7326	39.3392	-19.3076	195.541	28.8938	56.5126	8.2413	-0.321624
0.7447	324.607	45.5664	63.0369	46.3542	-13.519	204.097	28.5916	56.5126	56.7568	0
0.7453	449.42	43.1444	59.6679	52.4462	-10.7712	196.758	21.5674	47.9681	28.3784	0
0.7460	331.605	30.6239	42.8784	56.729	-7.69374	174.487	13.9386	39.1133	6.71237	0
0.7467	82.5725	11.0837	23.9729	38.73	-4.06669	132.059	15.1658	38.8031	127.274	0.321624
0.7473	-146.315	-6.60918	9.02118	-21.1003	-4.98261	72.2623	19.7449	37.2803	165.423	0
0.7480	-246.403	-12.3974	4.12079	-54.9752	-11.9803	-15.0293	24.9284	19.2605	76.5956	0
0.7487	-290.34	-7.84071	11.4714	-26.5831	-15.0211	-131.001	26.4578	-13.9872	84.5386	0
0.7493	-328.466	-3.85878	19.1004	7.90108	-11.6872	-226.817	26.4578	-46.0223	101.021	0
0.7500	-300.094	-6.60918	17.8753	20.1034	-15.3508	-260.401	29.5074	-64.9444	-27.1478	0
0.7507	-212.814	-15.7635	11.4714	3.00905	-26.3419	-255.818	28.2894	-81.4414	-157.144	0
0.7513	-144.449	-27.3809	1.69843	-32.9888	-25.7191	-275.975	25.542	-95.7669	-140.363	0
0.7520	-126.467	-36.5352	-9.29961	-56.1936	-18.3917	-281.743	24.9284	-101.266	-72.3071	0
0.7527	-127.061	-38.3415	-13.5596	-69.319	-16.5599	-228.035	23.7104	-107.695	-98.5599	0
0.7533	-105.389	-29.8029	-8.38079	-74.1926	-12.6031	-161.22	25.542	-104.622	-228.556	0
0.7540	-33.6736	-18.8013	-1.05804	-69.319	-10.4415	-112.992	31.3391	-76.8448	-331.703	0
0.7547	35.2852	-16.3793	0.167059	-73.2696	-22.6782	-83.9909	36.5225	-57.6406	-324.991	-0.321624
0.7553	22.1805	-22.1675	-4.09294	-82.1306	-37.2963	-75.4668	40.1858	-67.0876	-236.797	0
0.7560	-19.339	-27.0525	-9.91216	-75.7248	-38.8351	-93.1558	42.3196	-75.322	-79.9518	0
0.7567	-46.1846	-26.4367	-13.8659	-54.3476	-31.5077	-113.921	39.27	-67.708	41.5048	0
0.7573	-77.6529	-24.6305	-17.8475	-33.598	-23.8872	-113.921	34.3887	-55.8076	15.5876	0
0.7580	-47.4145	-25.2463	-20.2698	-6.75653	8.46311	-113.921	30.1119	-43.9073	-44.227	0
0.7587	40.1624	-24.3021	-18.46	47.8864	60.634	-141.672	24.3148	-34.7423	5.81739	0
0.7593	146.993	-21.2643	-15.3973	100.056	95.1459	-162.438	15.1658	-40.2413	104.079	-0.321624
0.7600	278.21	-19.1297	-15.091	110.43	123.833	-149.299	4.1761	-51.8314	175.789	0
0.7607	268.456	-21.2643	-18.7663	95.1821	150.065	-128.854	-0.705175	-60.0658	290.534	0
0.7613	70.0615	-24.9179	-24.5577	72.2911	151.603	-94.0851	-1.9232	-66.7774	414.451	0
0.7620	-106.025	-24.0147	-27.5926	29.5737	125.335	-48.6128	-4.36842	-68.0182	332.971	-0.321624
0.7627	-229.905	-17.8982	-26.7016	-23.5371	82.323	3.58908	-4.98201	-62.8294	101.319	0
0.7633	-355.354	-5.99342	-18.46	-54.0522	40.5204	83.8306	-4.0662	-59.4736	-14.618	0
0.7640	-335.803	8.33332	-4.09294	-54.9752	4.1766	146.415	-3.15039	-55.4974	-51.5734	0
0.7647	-94.4049	18.7192	7.18353	-37.2717	-35.1714	148.53	-2.5368	-38.7185	-63.4692	-0.321624
0.7653	231.517	23.6042	12.0561	-11.6301	-68.1445	126.868	-3.45261	-12.1542	35.4264	-0.321624
0.7660	471.982	25.1231	15.7314	3.32288	-81.2605	108.57	-4.36842	15.0024	169.674	0
0.7667	495.478	24.8358	20.2977	-5.22431	-86.1332	96.0399	-1.62099	35.4473	220.054	0
0.7673	387.459	22.9885	23.0541	-21.7095	-91.9219	82.9334	3.56251	45.5147	214.236	0.321624
0.7680	250.135	15.353	16.0377	-21.3957	-98.3333	58.8032	3.87388	45.2045	219.122	0
0.7687	6.61598	1.92939	2.31098	-28.7245	-101.081	49.0614	1.42867	34.2347	140.699	0.321624
0.7693	-301.918	-10.2627	-8.99334	-65.6454	-95.2924	40.8258	8.75515	18.6683	-74.4327	0.321624
0.7700	-567.448	-16.6666	-16.3161	-101.348	-83.7152	15.1895	25.8442	10.716	-219.718	0.321624
0.7707	-671.819	-17.2824	-17.8475	-112.646	-77.5969	-19.6118	33.4729	10.1238	-203.236	0
0.7713	-592.173	-16.3793	-17.2349	-102.88	-90.7128	-40.986	42.3196	0.958797	-157.144	0
0.7720	-487.504	-20.0328	-21.1886	-74.5064	-109.031	52.7146	67.0465	-14.2974	-129.698	0
0.7727	-382.497	-26.4367	-27.2863	-50.0832	-85.8401	209.577	61.2403	-17.3429	-122.053	-0.643247
0.7733	-253.401	-27.9556	-27.2863	-37.2717	-20.5166	281.582	25.542	-10.0392	-128.169	-0.964871
0.7740	-146.315	-19.417	-16.0098	-15.9129	33.4861	305.104	-0.402957	8.88297	-123.88	-0.321624
0.7747	66.4143	-4.47454	2.61726	12.1654	65.2136	292.286	-23.9027	44.6123	-153.191	0
0.7753	308.11	6.52708	18.7941	40.853	71.3319	184.87	-47.4024	79.3828	-182.166	0
0.7760	382.285	10.468	27.6204	64.9623	62.4658	59.7325	-63.5756	92.8059	-118.995	0
0.7767	473.212	14.4499	33.1333	69.8544	64.9205	10.8954	-68.1547	84.8818	10.4042	0
0.7773	573.597	28.1609	48.0851	58.2612	70.416	4.8068	-63.2642	71.4586	138.275	0
0.7780	547.388	48.9326	69.4408	45.1358	64.6274	3.26863	-53.8039	69.6256	192.57	0
0.7787	505.274	55.3365	72.5036	30.4782	36.5269	11.5043	-40.0759	72.9814	192.272	0.321624
0.7793	434.746	43.1444	58.1365	-2.4737	0.512916	21.5986	-29.6998	67.4824	209.65	0
0.7800	370.961	29.105	45.3286	-51.3016	-21.1395	30.4431	-21.1552	60.1786	146.479	0
0.7807	419.182	18.4318	36.4745	-80.5984	0.842648	54.8616	-8.64526	46.4453	-58.8824	0
0.7813	360.274	4.06403	20.2977	-87.9272	49.3498	46.9144	-6.81363	16.215	-273.715	0.321624
0.7820	45.9726	-17.2824	-8.07451	-92.1915	65.5433	-32.4299	-16.8784	-13.395	-383.91	0
0.7827	-345.558	-37.7257	-37.3655	-65.0362	74.0797	-104.436	-20.5416	-34.1219	-371.679	-0.321624
0.7833	-606.804	-50.2462	-56.6051	-8.87948	96.9777	-143.499	-20.8439	-50.6189	-276.773	0
0.7840	-600.103	-56.9786	-65.153	15.2299	92.9843	-156.317	-23.9027	-62.209	-179.444	0
0.7847	-430.42	-57.5943	-66.9628	0.572274	62.4658	-83.382	-20.5416	-74.4196	-112.283	0
0.7853	-300.73	-49.9589	-62.3965	-25.0508	35.611	73.1595	-12.2993	-89.9859	-81.4807	0.321624
0.7860	-189.319	-35.3037	-47.4447	-53.1292	27.0746	226.657	-10.4677	-95.7669	-105.869	0.321624
0.7867	41.3923	-19.7455	-25.7828	-74.5064	30.4452	321.255	-10.4677	-83.8666	-143.421	0.321624
0.7873	341.698	-8.45647	-8.38079	-87.6133	14.5815	380.795	-3.15039	-61.3066	-151.961	0
0.7880	424.398	-0.821017	2.92353	-83.9582	-19.3076	389.639	2.95807	-35.0525	-119.928	0
0.7887	243.392	6.52708	11.7498	-64.1132	-52.5739	293.792	2.64669	-12.4644	-50.3428	0
0.7893	11.1539	13.2184	19.1004	-40.0223	-78.5128	192.176	-2.23458	-1.1844	21.666	-0.321624
0.7900	-227.149	19.3349	26.4231	-4.30129	-98.9561	222.683	-11.3835	5.83738	81.8163	-0.643247
0.7907	-451.456	17.2003	24.5855	19.1989	-121.231	322.793	-16.8784	8.29078	125.447	0
0.7913	-515.877	6.81444	12.3624	-5.22431	-140.759	410.982	-14.131	4.31459	102.848	0
0.7920	-434.704	0.410508	5.95843	-38.1762	-159.37	483.308	-10.1655	2.17139	-6.07842	0
0.7927	-353.192	-1.10837	4.42706	-32.6935	-164.28	513.527	-9.86329	0.338399	-152.259	0
0.7933	-199.412	-2.62725	2.92353	10.3379	-135.263	492.793	-10.4677	-2.39699	-226.132	0
0.7940	88.0858	-1.10837	6.26471	51.5416	-80.0515	361.247	-10.4677	-2.70719	-127.237	0
0.7947	226.64	2.83251	12.0561	62.2117	23.704	-29.9944	-15.6604	-3.91979	29.0123	0
0.7953	210.778	4.06403	14.8126	61.6025	134.494	-642.157	-25.7343	-4.54019	81.8163	0
0.7960	276.981	3.77668	13.8937	63.1348	149.771	-1011.45	-24.5071	-2.39699	106.503	0
0.7967	287.032	3.44827	11.1651	57.652	104.891	-843.594	-11.3835	-3.60959	155.951	0
0.7973	206.198	-1.43678	4.12079	29.2598	66.7523	-486.833	2.64669	-10.6314	118.436	0
0.7980	167.138	-9.07224	-4.70549	-11.3347	31.6542	-314.397	20.3493	-17.3429	-18.9065	0
0.7987	59.3742	-16.3793	-12.6408	-34.5211	-8.31657	-295.17	36.5225	-25.8875	-126.043	0.321624
0.7993	-161.243	-23.6863	-19.0726	-32.6935	-65.067	-263.765	42.9332	-38.0981	-125.708	0
0.8000	-242.416	-25.5336	-19.0726	-18.6451	-60.8172	-188.074	47.5123	-47.2631	-109.859	0
0.8007	-33.0799	-20.6486	-11.722	5.75966	25.5359	-106.903	50.8642	-48.7859	-164.49	0
0.8013	132.023	-14.2446	-3.81451	25.6047	76.2047	-57.7457	46.5965	-44.4995	-180.637	0
0.8020	66.4143	-11.7816	-1.36431	0.886102	62.1727	-88.5733	39.5814	-41.7641	-102.513	0
0.8027	98.7732	-11.7816	-4.09294	-38.7854	28.2836	-160.9	35.0023	-36.8855	-41.8031	-0.643247
0.8033	248.905	-10.2627	-3.81451	-39.0992	19.7473	-245.756	37.1361	-25.2953	-35.9858	-0.964871
0.8040	298.058	-7.84071	-1.36431	-31.7704	26.4518	-308.597	43.2354	-13.677	-26.5511	-0.321624
0.8047	251.959	-7.22495	-2.28314	-33.9119	-19.9304	-287.863	32.8593	-12.1542	20.7711	0.321624
0.8053	141.48	-8.12807	-7.15569	-26.2877	-72.3944	-213.71	1.73088	-21.6293	65.632	0
0.8060	-18.7453	-10.8785	-11.722	-36.3486	-43.4147	-99.2765	-18.4078	-30.1739	75.0667	0
0.8067	-191.142	-16.0919	-18.1537	-61.381	13.9586	17.6249	-10.4677	-34.4321	71.7105	0
0.8073	-301.324	-20.3612	-23.9451	-55.2706	30.7383	43.8701	4.1761	-35.3627	66.8626	0
0.8080	-304.971	-21.2643	-23.6388	-22.0049	18.5382	4.8068	7.53713	-33.2195	64.4014	0
0.8087	-263.197	-22.7832	-22.4137	-0.0369209	6.63127	-24.8031	6.30994	-37.4777	32.0702	0
0.8093	-214.977	-24.0147	-20.2698	-1.86451	11.2109	-66.3018	5.09191	-45.4301	-34.7924	0
0.8100	-128.588	-21.5517	-14.7847	-9.19331	13.3358	-118.183	-1.62099	-42.3845	-44.5254	-0.321624
0.8107	-13.5288	-17.8982	-10.831	-8.27028	-7.10755	-99.8854	-8.33388	-29.2433	26.8495	-0.321624
0.8113	37.4057	-13.9162	-8.07451	-18.0359	-22.0554	12.722	-11.0813	-14.9178	99.1939	-0.321624
0.8120	51.7828	-11.2069	-6.23687	-47.0372	-2.52794	134.815	-13.2152	-6.06298	103.147	-0.321624
0.8127	143.304	-9.97535	-4.70549	-60.458	26.4518	160.451	-11.9971	-1.1844	73.575	0
0.8133	204.332	-10.8785	-5.01177	-23.8324	24.3269	84.7599	-10.4677	3.69419	66.2287	0.321624
0.8140	198.267	-13.3415	-8.07451	53.3692	-8.93939	63.9946	-21.1552	3.41219	22.3	0.321624
0.8147	204.332	-13.6289	-8.07451	102.806	-24.5101	187.593	-39.1601	3.69419	-48.5155	0
0.8153	99.9607	-13.3415	-7.76824	94.8683	-7.40064	282.512	-55.3333	11.3364	-60.4113	0
0.8160	-46.5239	-12.11	-7.76824	82.3706	-2.82104	224.221	-56.2491	25.3799	-21.3677	0
0.8167	-23.3256	-6.32183	-0.44549	84.1981	-35.4645	82.3245	-42.512	42.7793	22.0017	0.321624
0.8173	70.6977	-1.10837	7.18353	84.4935	-72.7242	-56.8484	-42.512	46.1351	51.909	0
0.8180	79.8583	1.92939	12.9749	92.1361	-82.7993	-96.809	-54.7197	39.1133	70.5172	0
0.8187	15.1404	3.77668	16.0377	94.8683	-89.7969	-49.2217	-61.4326	34.8269	69.8832	0
0.8193	-92.8782	0.410508	11.7498	60.3842	-87.9651	-31.2122	-64.7936	26.5925	44.2643	0
0.8200	-176.808	-3.24302	7.18353	19.8081	-40.96	-67.84	-62.962	17.1455	14.357	0
0.8207	-148.435	-4.7619	6.57098	19.1989	1.75857	-116.966	-53.1995	12.8592	0.932273	0
0.8213	-63.6152	-2.62725	10.2463	27.1184	29.5293	-161.829	-37.9421	14.0718	-1.82726	0
0.8220	-42.8342	1.64203	16.3439	32.3058	81.4071	-220.728	-29.3884	17.1455	2.75953	0
0.8227	-46.5239	3.44827	17.8753	35.9794	108.848	-275.975	-36.4127	16.215	18.9438	0
0.8233	32.5286	3.16091	16.6502	-0.332288	89.6504	-266.81	-47.091	17.7377	29.609	0
0.8240	130.496	0.697864	13.5875	-38.4901	48.7636	-185.318	-51.9723	23.2367	24.1272	0.321624
0.8247	157.045	-5.0903	5.65216	-25.9739	-1.31893	-89.5027	-52.8881	28.7357	15.8859	0
0.8253	150.047	-13.9162	-4.39922	-9.48867	-31.8374	-31.5006	-53.1995	27.2129	9.4719	0
0.8260	90.2063	-22.4959	-13.2533	-14.9899	-44.9534	-26.6297	-50.7543	21.4037	3.99013	0.321624
0.8267	-53.5216	-29.1871	-19.6573	-14.0669	-65.3968	-36.6919	-49.2248	18.3581	1.82726	0.321624
0.8273	-226.258	-32.8407	-22.4137	1.4953	-85.5471	-34.2565	-52.8881	14.382	6.11571	0
0.8280	-378.553	-27.6683	-16.9286	19.4942	-95.9153	-43.4214	-60.2146	13.4796	16.4826	-0.321624
0.8287	-478.344	-14.2446	-2.58941	31.4012	-95.9153	-65.0841	-68.7591	21.4037	25.9545	0
0.8293	-541.492	1.02627	12.6686	39.9484	-77.3038	-114.53	-74.254	31.1609	33.2635	0
0.8300	-454.212	12.6026	22.1353	43.6036	-38.8351	-175.544	-75.7834	35.1371	34.4941	0
0.8307	-53.8185	17.4877	27.0079	41.4622	2.34476	-188.971	-70.2885	36.0677	28.714	0
0.8313	444.84	24.8358	34.9431	42.3852	18.2452	-154.811	-51.3678	43.3715	28.714	0
0.8320	728.352	34.8932	45.9412	45.4312	6.92437	-133.437	-25.1207	54.0592	48.2172	0
0.8327	714.611	38.5467	49.9228	56.1198	0.842648	-163.335	-7.11585	59.248	94.0104	-0.643247
0.8333	471.685	33.9901	43.7973	59.775	-4.06669	-187.465	5.09191	59.248	148.642	-0.964871
0.8340	187.241	25.4515	32.8271	26.2138	-26.0122	-148.402	16.0816	54.3694	196.225	-0.321624
0.8347	-27.5666	15.6814	22.4416	-6.14733	-12.8962	-69.0577	14.8545	43.9919	242.018	0
0.8353	-203.993	4.39244	12.6686	-4.91048	44.4771	0.544771	9.36875	29.6381	249.029	0
0.8360	-327.576	-9.97535	1.08588	-8.87948	66.4593	27.0783	16.9975	6.45778	141.631	0.321624
0.8367	-348.018	-22.4959	-9.60589	-29.3337	31.9473	43.2612	29.8097	-19.7963	-29.2734	0
0.8373	-263.791	-28.5714	-14.7847	-60.458	5.71535	71.0125	38.6655	-44.2175	-122.352	0
0.8380	-152.719	-31.3218	-17.2349	-97.0835	50.2658	135.424	43.849	-65.2546	-81.779	0
0.8387	-91.0545	-31.9376	-19.6573	-84.8812	103.975	224.542	49.9483	-73.489	66.2287	0
0.8393	-69.6798	-27.6683	-17.8475	-32.0843	74.9956	199.803	58.8042	-67.3978	250.856	0
0.8400	-60.8585	-21.8801	-14.4784	-3.0829	32.2771	89.022	60.3245	-59.4736	442.83	0
0.8407	-58.1019	-21.8801	-16.6224	5.75966	55.7613	70.1152	51.1755	-56.3998	548.736	0
0.8413	-53.2247	-24.9179	-19.6573	-0.959944	65.5433	146.095	40.7994	-51.8314	369.59	0
0.8420	-46.1846	-24.3021	-19.3788	-34.2072	16.4133	224.221	35.0023	-39.6209	-61.6419	0
0.8427	-42.2405	-20.3612	-17.2349	-73.5834	-27.2578	292.286	37.7497	-23.1521	-449.207	0
0.8433	-37.3633	-15.7635	-13.8659	-95.5513	-46.7853	374.674	49.6461	-11.562	-560.296	0.321624
0.8440	-28.7965	-11.4942	-10.2184	-91.287	-58.3625	442.739	53.6116	-5.44258	-400.393	0.321624
0.8447	-21.4595	-5.99342	-7.15569	-64.1132	-75.1422	491.544	52.6958	0.648598	-179.444	0.321624
0.8453	-22.3925	-3.85878	-7.15569	-35.4441	-101.411	512.021	64.6013	-1.1844	-71.7105	0.321624
0.8460	-26.9728	-6.89654	-8.38079	-26.5831	-121.524	477.219	75.2797	-9.10857	-86.9625	-0.321624
0.8467	-25.7429	-9.35959	-6.23687	-27.8014	-116.066	407.04	65.2149	-9.10857	-124.514	-0.321624
0.8473	-25.1492	-11.2069	-6.23687	-18.9589	-83.3855	267.547	44.7648	-0.563998	-85.1352	0
0.8480	-26.676	-12.7258	-7.76824	-6.75653	-59.9013	82.6129	27.978	11.6466	-25.0222	0
0.8487	-24.2162	-12.7258	-6.54314	8.51027	-66.6058	-124.913	11.1912	21.4037	-45.756	0
0.8493	-21.4595	-11.7816	-6.84941	27.4322	-83.3855	-387.973	-9.24969	22.6163	-96.4344	0.321624
0.8500	-19.339	-9.64695	-7.46196	30.792	-95.5855	-646.13	-27.8681	20.8115	-111.686	0
0.8507	-12.3413	-5.0903	-5.62432	25.6047	-102.913	-803.601	-27.8681	21.7139	-97.3293	0
0.8513	0.805792	0.697864	-2.28314	22.5402	-85.2173	-709.933	-7.72945	27.5231	-59.1807	0
0.8520	10.2633	2.2578	-1.67059	14.0115	-42.7918	-430.978	13.6364	31.7813	-25.6189	0.321624
0.8527	9.03336	-1.43678	-3.50824	15.5252	-2.23485	-235.053	24.9284	29.0459	-10.0686	0.321624
0.8533	4.15619	-2.95566	-5.01177	29.5737	34.6951	-98.956	25.542	24.7595	-1.82726	0
0.8540	3.56245	-2.3399	-5.93059	37.4932	63.3818	107.031	16.9975	21.0935	-5.78009	0
0.8547	3.56245	-3.24302	-6.54314	39.9484	75.6185	261.746	11.5026	19.2605	-9.13628	0
0.8553	2.62943	-3.57142	-5.93059	34.1518	68.8773	269.405	13.6364	20.8115	-0.894982	0
0.8560	0.508922	-3.85878	-5.01177	13.6977	77.7434	267.547	20.9629	21.4037	-3.05786	0
0.8567	-2.24774	-5.37766	-5.62432	-0.0369209	123.503	303.566	31.9435	20.5013	-16.147	0
0.8573	-3.7745	-5.99342	-5.93059	6.07349	152.812	278.538	35.3045	20.1911	-21.0321	0.321624
0.8580	-2.88389	-6.32183	-4.70549	15.5252	134.494	220.568	27.978	18.3581	-19.8388	0.321624
0.8587	-1.95087	-5.99342	-2.28314	22.2449	83.8251	157.695	17.6019	13.4796	-16.7809	0.321624
0.8593	-2.54461	-5.99342	-1.67059	22.5402	39.2747	142.73	10.889	8.60098	-14.3197	0
0.8600	-3.18076	-6.60918	-3.50824	10.9471	19.4542	217.812	13.9386	7.36018	-13.7231	0
0.8607	-3.7745	-6.89654	-5.31804	-2.78753	-1.61202	304.174	20.3493	8.60098	-12.1941	0
0.8613	-5.89501	-7.22495	-5.93059	-8.58411	-23.5941	385.954	23.399	7.98058	-10.3669	0
0.8620	-8.05792	-6.89654	-5.31804	-7.97492	-39.4579	381.404	30.1119	7.07818	-6.71237	0
0.8627	-9.28782	-7.22495	-5.31804	-2.78753	-76.0581	178.461	29.8097	6.14758	-1.19331	-0.321624
0.8633	-9.88156	-6.60918	-4.39922	7.29188	-124.602	-170.674	15.4681	6.45778	3.35618	0
0.8640	-8.94854	-5.37766	-2.58941	12.7746	-124.272	-443.796	2.95807	8.29078	6.71237	0.321624
0.8647	-8.94854	-5.70607	-3.20196	7.29188	-84.3014	-429.472	-10.4677	7.07818	7.04799	0
0.8653	-10.4753	-5.0903	-3.81451	2.71369	-68.7307	-297.028	-15.6604	5.52718	10.4042	0
0.8660	-10.8146	-4.18719	-3.50824	8.80564	-70.8923	-316.544	-0.705175	5.52718	14.357	-0.321624
0.8667	-9.88156	-5.0903	-4.70549	14.6207	-55.3216	-323.562	16.3839	3.10199	7.94297	-0.964871
0.8673	-8.94854	-4.47454	-4.09294	9.72866	32.8633	-165.482	33.1707	3.10199	3.05786	-0.321624
0.8680	-8.05792	-3.85878	-2.89569	4.8551	170.508	-19.0029	51.1755	5.83738	25.9545	0
0.8687	-7.76105	-5.0903	-4.70549	11.8701	220.554	87.1954	56.359	4.31459	59.5163	0.321624
0.8693	-7.1249	-4.47454	-5.01177	11.2609	175.381	202.847	54.5274	3.41219	43.6677	0
0.8700	-5.89501	-3.57142	-4.09294	-5.22431	110.68	240.084	43.5468	4.31459	-13.1264	0
0.8707	-6.53116	-4.18719	-4.70549	-13.1623	46.309	159.842	15.7703	3.69419	-32.6296	0
0.8713	-6.23429	-2.62725	-3.81451	-9.8025	17.9154	16.4072	-7.41807	5.52718	-11.5975	0
0.8720	-4.07137	-1.10837	-1.97686	-10.4117	32.2771	-135.263	-15.6604	7.36018	0.932273	0.321624
0.8727	-2.24774	-1.10837	-1.67059	-9.19331	27.9906	-303.437	-22.9869	5.83738	11.5975	0
0.8733	-2.24774	-0.821017	-0.751765	-0.0369209	-12.6031	-481.353	-30.002	4.31459	24.1272	0
0.8740	-4.07137	-0.49261	0.473334	11.8701	-65.067	-538.714	-29.3884	4.00439	26.2528	0
0.8747	-6.23429	-2.05254	0.167059	24.9955	-100.165	-487.153	-37.0262	5.52718	54.6312	0
0.8753	-7.42177	-2.62725	-0.751765	33.838	-101.704	-464.561	-20.5416	8.29078	123.321	0
0.8760	-6.23429	-2.3399	-0.44549	28.0414	-100.165	-405.053	40.7994	11.0262	168.48	0.321624
0.8767	-1.35712	-1.10837	0.473334	19.8081	-118.813	-303.726	57.5862	12.2388	199.283	0
0.8773	1.69641	1.02627	0.167059	22.854	-106.906	-238.129	27.6758	11.3364	299.372	0
0.8780	-0.720972	3.77668	-2.28314	28.0414	-54.6988	-147.184	15.1658	11.9568	408.037	-0.321624
0.8787	-2.88389	4.6798	-3.50824	20.7126	-20.5166	-45.5364	-5.89782	17.1455	402.854	0
0.8793	-3.7745	3.44827	-2.28314	2.71369	-3.44386	-3.74931	-44.0414	25.9721	301.833	0
0.8800	-3.7745	2.83251	-0.44549	-11.0209	-0.6961	-12.8822	-64.7936	32.7119	153.825	-0.321624
0.8807	-0.424101	2.83251	1.69843	-7.05189	-14.1052	-49.2217	-64.4914	36.0677	-57.6518	0
0.8813	0.805792	1.31363	2.92353	7.90108	-15.3508	-71.4932	-55.3333	34.5167	-221.247	0.321624
0.8820	-2.88389	1.31363	1.69843	17.6667	-10.1484	-37.0124	-47.091	15.6228	-216.362	0.321624
0.8827	-3.7745	5.91132	0.167059	19.8081	-12.8962	35.6344	-47.091	-13.9872	-162.663	0.321624
0.8833	-1.01784	10.468	-2.28314	23.7771	-5.5688	92.9956	-44.6549	-29.5535	-108.628	0.321624
0.8840	-1.35712	11.6995	-5.31804	33.838	7.54719	70.4036	-32.7494	-26.8181	-10.6652	0
0.8847	-3.18076	11.9868	-4.39922	46.0404	7.54719	-35.7947	-22.3733	-15.51	48.5528	0
0.8853	-2.24774	15.353	-0.139216	57.9474	6.33818	-98.956	-20.5416	1.5792	80.5857	0
0.8860	-1.01784	22.0854	-0.139216	65.5715	9.37903	-77.2934	-23.2891	18.9785	170.009	0
0.8867	-3.18076	13.5468	-3.20196	67.4176	12.4199	-44.0303	-26.0365	29.0459	235.604	0
0.8873	-5.89501	-7.5123	-1.67059	63.744	19.4542	-5.57589	-24.5071	32.7119	197.157	0
0.8880	-7.76105	-13.0131	1.69843	28.3368	19.7473	33.4874	-21.1552	26.9027	134.881	0
0.8887	-11.1115	-5.0903	1.08588	-34.5211	13.6655	40.5053	-21.1552	21.7139	28.0801	0
0.8893	-13.8681	8.94908	0.473334	-74.5064	17.9154	27.6872	-22.9869	37.9007	-117.168	0
0.8900	-15.0556	23.2758	1.69843	-73.5834	28.2836	42.0435	-28.7839	43.9919	-160.799	0
0.8907	-13.5288	26.9704	2.00471	-44.8958	30.1155	77.742	-33.363	5.52718	-162.663	0
0.8913	-7.76105	24.8358	-1.05804	-16.8175	23.704	91.169	-33.6652	-24.6749	-218.189	0
0.8920	0.169641	17.4877	-1.67059	-9.48867	21.9088	89.6308	-40.0759	-7.58578	-191.638	-0.643247
0.8927	6.61598	2.83251	6.57098	-6.14733	29.8224	94.8222	-44.6549	24.1673	-38.7453	0
0.8933	5.38609	-9.07224	11.1651	-0.0369209	36.5269	98.7958	-38.2443	45.8249	61.6419	0.321624
0.8940	-0.720972	-17.8982	2.61726	4.54127	33.7792	72.5507	-31.22	45.8249	86.9997	0
0.8947	-4.70752	-28.8998	-8.07451	7.58725	28.9065	17.3045	-24.8185	24.4493	108.666	0
0.8953	-7.76105	-23.6863	-9.91216	1.79066	26.7815	-20.8295	-15.9626	2.79179	67.7576	0.321624
