MR32 ASCII
Name	CORE30_slow
Frequency	1500
Date	28-08-2015 14:18:58
"Time,s"	"RT TIB.ANT.,uV"	"RT MED. GASTRO,uV"	"RT LAT. GASTRO,uV"	"RT BICEPS FEM.,uV"	"RT VMO,uV"	"RT VLO,uV"	"RT RECTUS FEM.,uV"	"RT SOLEUS,uV"	"RT SEMITEND.,uV"	"Channel 12,uV"
0.0000	19.1638	1.19978	-5.14071	-2.08311	-59.8911	1.20448	8.35706	2.47384	-2.19899	-8024.93
0.0007	10.9287	0.568318	-4.24568	-2.08311	-57.1419	0.883288	9.27623	4.91332	-1.58457	-10534.6
0.0013	9.38948	0.252586	-2.40971	-1.16021	-55.9263	1.82011	10.1954	6.15024	-1.26119	-9588.7
0.0020	12.4295	-1.57866	-0.275395	-0.843791	-54.3927	1.20448	9.27623	4.32922	-0.0646762	-9777.42
0.0027	15.8159	-4.60969	-0.872085	-2.37316	-51.6435	-2.16807	6.22289	-0.274871	-1.58457	-9881.59
0.0033	19.1638	-5.24116	-0.57374	-2.08311	-47.3721	-2.4625	5.0079	-3.60768	-1.87561	-9783.85
0.0040	17.9324	-4.92543	0.940934	-0.553738	-43.7141	-1.55245	5.61011	-3.91691	-0.970142	-9812.79
0.0047	15.2002	-5.49375	0.940934	-0.237316	-41.5784	-2.16807	3.47595	-3.60768	-1.87561	-9814.07
0.0053	17.3167	-3.97823	2.7769	2.505	-37.6137	-0.936821	4.08873	-2.09589	-0.355719	-9813.75
0.0060	16.7394	-1.57866	4.61287	4.64085	-32.4221	0.294429	5.9165	-0.549742	1.48755	-9784.82
0.0067	11.8523	0.884051	0.642589	1.89853	-29.9796	-2.75693	3.16956	-1.1682	0.258705	-9873.87
0.0073	13.3531	3.6625	-4.54402	-1.45027	-28.4573	-5.21943	-0.792389	-0.549742	-0.970142	-9803.14
0.0080	18.2402	6.06206	-6.37999	-2.37316	-25.7082	-3.98818	-1.40517	0.343589	-0.355719	-9563.63
0.0087	19.1638	7.89331	-5.46201	-1.45027	-22.3569	-2.75693	0.728998	1.88974	1.16417	-10511.7
0.0093	21.0109	8.84051	-4.24568	-0.553738	-19.301	-3.37255	3.16956	5.22255	3.91291	-8379.87
0.0100	18.5481	8.20905	-3.32769	-1.76669	-17.1653	-3.37255	3.47595	4.91332	5.14176	-1784.64
0.0107	-1.26989	5.17801	-3.32769	-5.11548	-15.643	-5.21943	0.116217	0.343589	2.68406	110.596
0.0113	-22.935	1.83125	-3.62604	-7.56775	-14.1094	-7.65516	-3.84573	-4.53537	-0.0646762	-223.442
0.0120	-32.4014	0.568318	-0.57374	-6.64485	-11.6669	-6.74511	-3.53934	-6.35639	-0.0646762	-34.7219
0.0127	-43.715	0.884051	1.56057	-5.11548	-9.22449	-5.51386	-1.71156	-3.91691	0.549747	69.4438
0.0133	-54.3743	2.7153	1.85892	-4.50901	-6.79341	-4.30938	-1.09878	0.343589	1.16417	-28.2919
0.0140	-51.6422	4.86228	2.47856	-4.50901	-4.64633	-2.4625	-0.485998	4.32922	2.68406	0.642998
0.0147	-38.2121	3.91508	0.642589	-6.3548	-3.73751	-3.98818	-1.71156	4.32922	1.48755	1.286
0.0153	-23.2428	0.884051	-2.08841	-7.88417	-3.12406	-6.74511	-5.07129	0.962048	-1.26119	0.642998
0.0160	-15.6235	0.884051	-0.872085	-6.64485	-0.374887	-5.21943	-4.45851	0.343589	-0.355719	0.964497
0.0167	-16.2392	2.7153	-0.275395	-4.82543	1.76083	-3.98818	-2.01795	2.47384	0.873128	0.964497
0.0173	-17.7784	3.91508	-3.32769	-5.11548	2.66965	-5.83505	-2.92656	4.32922	-0.646762	0.964497
0.0180	-11.9677	4.86228	-2.70805	-4.50901	4.80537	-4.60381	-2.32434	6.45947	-0.355719	0.964497
0.0187	-0.384815	5.49375	-1.49172	-4.21895	6.63437	-2.75693	-0.792389	7.66203	0.549747	0.964497
0.0193	-1.26989	5.49375	-5.46201	-5.74832	7.24782	-4.89823	-2.63073	5.84101	-1.58457	1.286
0.0200	-14.0842	5.74633	-6.05869	-4.21895	9.38354	-4.89823	-1.71156	4.91332	-1.87561	1.286
0.0207	-21.4342	6.06206	-3.32769	-1.45027	11.5193	-2.4625	0.422607	4.63845	-1.58457	1.286
0.0213	-19.2792	6.3778	-2.70805	-0.843791	12.7462	-1.84688	0.422607	4.01999	-2.19899	1.286
0.0220	-20.2028	7.57758	-2.40971	-0.553738	13.9617	-1.84688	1.34178	4.32922	-2.19899	1.286
0.0227	-23.8585	8.84051	-2.08841	-0.237316	15.1886	-1.84688	2.26095	5.53178	-3.10446	0.964497
0.0233	-27.2064	6.3778	-2.08841	-1.16021	16.0974	-2.75693	0.728998	4.63845	-4.62435	1.286
0.0240	-37.5964	2.39957	-2.08841	-1.45027	16.7109	-3.07813	-0.792389	2.47384	-4.62435	1.60749
0.0247	-47.6786	-0.315733	-1.19338	-0.553738	17.6311	-2.4625	-0.792389	0.962048	-4.94773	0.642998
0.0253	-45.8314	0.884051	-0.275395	0.369158	19.7668	-1.55245	0.116217	1.88974	-5.23877	0.321499
0.0260	-36.9807	3.03103	0.0458992	0.68558	21.289	-1.84688	1.64817	4.63845	-4.62435	1.60749
0.0267	-27.2064	3.03103	0.940934	1.89853	20.6756	-1.84688	4.39512	6.7687	-3.3955	1.60749
0.0273	-19.2792	3.03103	0.344244	0.975633	20.6756	-2.4625	5.0079	7.07793	-2.81341	0.964497
0.0280	-16.8549	3.34676	-3.92438	-2.37316	20.0621	-5.21943	1.34178	4.63845	-4.3333	1.286
0.0287	-10.7363	5.17801	-6.37999	-2.68958	20.3689	-5.51386	1.64817	0.652819	-5.23877	1.286
0.0293	5.42589	7.89331	-7.59632	-1.16021	21.289	-5.21943	5.0079	2.16461	-4.62435	1.286
0.0300	24.0509	11.2401	-10.3503	-1.16021	21.5958	-6.12948	6.52928	9.20818	-4.62435	1.286
0.0307	45.716	13.7028	-11.2453	-0.843791	22.8113	-5.21943	7.44845	14.3964	-4.00992	1.60749
0.0313	60.9547	13.0713	-10.029	-0.843791	23.7315	-4.30938	8.05067	14.7056	-3.3955	1.286
0.0320	63.1096	8.20905	-6.37999	-1.16021	23.4248	-4.89823	7.44845	11.6477	-2.81341	1.60749
0.0327	70.4211	3.34676	-0.872085	0.0527369	23.4248	-4.60381	9.27623	7.66203	-0.970142	1.60749
0.0333	72.8839	1.19978	1.26223	1.89853	23.7315	-3.98818	10.1954	4.32922	0.549747	1.286
0.0340	43.2532	-0.315733	-1.49172	-0.843791	22.2092	-5.83505	5.61011	-1.78666	-1.87561	1.286
0.0347	-0.692667	-2.14698	-2.40971	-3.29606	20.6756	-7.65516	2.26095	-6.66562	-3.71888	1.286
0.0353	-21.1263	-0.315733	1.56057	-0.553738	21.9025	-4.89823	5.0079	-5.73793	-1.87561	1.286
0.0360	-12.5834	1.19978	3.0982	0.68558	22.8113	-3.98818	5.9165	-6.04716	-0.646762	1.286
0.0367	-0.384815	-0.947198	3.69489	0.68558	22.8113	-4.89823	4.39512	-9.41433	-0.646762	1.286
0.0373	12.4295	-2.46271	6.15049	1.89853	23.4248	-3.69375	5.61011	-9.41433	0.258705	1.60749
0.0380	23.4352	-3.40991	3.99323	-0.237316	22.2092	-4.89823	3.78234	-9.72356	-1.58457	1.60749
0.0387	19.7795	-3.97823	-0.275395	-2.97964	21.289	-7.65516	-1.40517	-11.5446	-3.10446	1.286
0.0393	12.4295	-1.57866	0.642589	-0.843791	23.118	-5.83505	0.116217	-8.79587	4.52733	1.286
0.0400	9.69733	0.252586	1.85892	1.58211	25.2538	-3.98818	2.86316	-3.91691	11.8357	1.60749
0.0407	6.04159	0	-0.57374	1.29205	25.2538	-3.69375	1.34178	-1.1682	12.4502	1.60749
0.0413	2.078	-0.947198	-2.40971	0.975633	25.5605	-3.37255	-0.792389	0.343589	14.5845	1.286
0.0420	1.15444	-1.26293	-2.08841	1.89853	26.4807	-3.69375	-1.71156	1.27128	14.9079	1.60749
0.0427	3.30941	-0.947198	-2.08841	2.18858	26.776	-3.98818	-1.71156	0.962048	18.5621	1.60749
0.0433	3.30941	-0.947198	-2.70805	2.505	26.776	-3.69375	-2.32434	0.343589	17.3332	1.286
0.0440	3.00156	-0.947198	-1.19338	6.17022	27.6962	-1.84688	-1.40517	-0.274871	-6.75866	1.286
0.0447	3.61726	-1.83125	1.26223	8.91254	28.6164	-0.321196	0.728998	-1.1682	-24.1565	1.60749
0.0453	1.77015	-1.83125	1.56057	8.59612	28.3097	-0.0267663	0.116217	-0.549742	-22.3456	1.60749
0.0460	0.230889	-1.57866	0.642589	7.38317	28.9231	-1.55245	-0.792389	-0.549742	-17.7536	1.60749
0.0467	-0.962037	-2.14698	-0.57374	5.8538	29.8319	-2.75693	-2.32434	-1.47743	-7.69646	1.60749
0.0473	-3.117	-1.26293	-1.19338	5.56375	30.4454	-2.16807	-3.84573	-2.09589	0.549747	1.60749
0.0480	-3.117	-0.315733	-0.57374	7.38317	31.3542	-0.321196	-3.23295	-1.1682	-5.52981	1.286
0.0487	-0.384815	0.252586	-0.275395	7.38317	31.6609	-0.936821	-2.63073	0.652819	-15.0049	1.286
0.0493	2.6937	0	0.0458992	7.09312	31.9676	-2.16807	-2.01795	0.343589	-10.1218	1.60749
0.0500	4.81019	0	0.642589	8.30606	32.2744	-2.4625	-0.792389	-1.78666	0.873128	1.60749
0.0507	1.77015	0.252586	-1.79007	7.98964	32.5811	-3.98818	-3.23295	-2.71435	10.6392	1.286
0.0513	-1.26989	0.568318	-3.32769	8.91254	32.5811	-3.98818	-4.45851	-1.78666	15.1989	1.286
0.0520	2.38585	0.884051	-1.19338	12.5778	32.8878	-2.75693	-1.71156	0.343589	6.66164	1.60749
0.0527	7.273	1.51552	0.642589	13.1842	34.1034	-2.16807	-0.485998	1.27128	2.39302	1.60749
0.0533	7.273	1.19978	0.940934	12.5778	35.6256	-1.84688	-2.01795	0.0343589	-4.62435	1.60749
0.0540	3.30941	0	-1.19338	11.3648	34.1034	-3.37255	-4.7649	-1.78666	-25.9998	1.286
0.0547	1.4623	-0.315733	-3.0064	8.30606	31.6609	-4.30938	-6.28628	-2.09589	-38.8057	0.642998
0.0553	5.11804	2.08383	-0.57374	7.38317	32.2744	-1.84688	-3.84573	-0.858972	-36.3803	0.964497
0.0560	8.15807	3.6625	1.56057	6.17022	33.7966	-1.84688	-0.792389	-0.858972	-22.6367	1.60749
0.0567	2.078	3.91508	-0.275395	1.58211	33.1945	-3.69375	-1.09878	-2.09589	-10.1218	1.60749
0.0573	-4.96411	4.23082	-0.872085	-1.45027	35.0235	-2.75693	-2.32434	-2.71435	-1.87561	1.286
0.0580	-6.77274	3.34676	0.0458992	-2.68958	37.7727	-1.84688	-3.23295	-3.02358	23.7362	1.60749
0.0587	-8.61985	1.83125	-0.872085	-2.37316	38.3748	-3.69375	-4.7649	-3.29845	59.4697	1.286
0.0593	-5.84919	2.39957	0.642589	2.82143	40.2038	-2.75693	-2.63073	-2.09589	82.9472	1.286
0.0600	-1.88559	3.91508	3.0982	7.98964	42.6463	-0.0267663	-0.190173	-0.549742	99.4396	1.60749
0.0607	-2.19344	3.6625	1.26223	7.98964	42.3395	-1.55245	-3.23295	-1.47743	106.457	1.60749
0.0613	-3.42485	1.83125	-1.19338	8.91254	42.3395	-3.98818	-7.51185	-3.60768	104.323	1.286
0.0620	-2.19344	2.39957	-0.275395	15.9265	42.3395	-2.75693	-5.6735	-3.29845	108.591	0.964497
0.0627	-1.57774	3.6625	0.642589	27.8451	39.9084	-1.23125	-3.23295	-2.40512	52.4524	1.286
0.0633	-2.5013	3.34676	0.344244	36.6785	36.5458	0.294429	-2.92656	-2.71435	-78.7756	1.60749
0.0640	-1.57774	3.6625	0.940934	29.9809	36.8525	1.49891	-2.32434	-3.02358	-90.0939	1.60749
0.0647	-2.19344	3.91508	0.344244	16.243	38.6815	-0.321196	-2.92656	-2.40512	34.1167	1.60749
0.0653	-5.23348	2.7153	-1.49172	15.3201	37.7727	-3.07813	-5.37768	-3.29845	61.604	1.92899
0.0660	-5.84919	2.39957	-0.872085	23.5734	37.466	-2.75693	-5.07129	-3.29845	-20.7934	1.60749
0.0667	-5.54133	3.91508	1.56057	29.058	38.0681	-1.23125	-2.32434	-1.78666	-86.4074	1.286
0.0673	-6.15704	4.23082	1.26223	25.3928	36.2391	-1.55245	-2.63073	-1.78666	-105.94	1.60749
0.0680	-4.04056	4.23082	0.0458992	14.1071	37.466	-1.23125	-3.23295	-1.78666	-87.0218	1.60749
0.0687	1.4623	5.17801	0.642589	-0.237316	42.953	-1.23125	-3.23295	-1.78666	-42.7833	1.286
0.0693	2.38585	6.3778	0.642589	-13.0524	45.3954	-3.07813	-4.45851	-2.71435	0.873128	1.286
0.0700	1.15444	8.20905	0.344244	-19.1699	44.4866	-3.07813	-4.45851	-2.40512	-4.94773	1.60749
0.0707	3.00156	10.0403	1.26223	-17.034	44.4866	-1.23125	-2.32434	-0.549742	-56.4946	1.60749
0.0713	2.6937	9.72456	0.642589	-14.2917	44.782	-0.936821	-2.92656	-0.549742	-79.7134	1.60749
0.0720	-0.384815	9.15624	0.0458992	-16.1111	44.782	-1.84688	-4.15212	-1.47743	-41.8455	1.60749
0.0727	0.846593	8.84051	1.56057	-19.1699	45.0887	-1.84688	-3.53934	-0.858972	17.9476	1.60749
0.0733	4.19448	6.3778	1.56057	-18.247	46.0089	-2.75693	-3.53934	-1.47743	76.2532	1.60749
0.0740	5.42589	4.86228	1.26223	-12.1559	46.3156	-3.69375	-3.53934	-2.40512	138.181	1.60749
0.0747	-0.076963	4.86228	1.26223	-3.29606	46.6223	-2.4625	-3.84573	-2.71435	183.357	1.286
0.0753	-9.50493	5.74633	1.85892	7.98964	46.6223	-1.23125	-3.23295	-1.47743	196.486	1.286
0.0760	-10.1206	7.32499	3.39654	22.044	46.3156	-0.642391	-1.09878	0.0343589	161.399	1.92899
0.0767	-4.96411	7.89331	1.56057	26.3157	45.3954	-2.4625	-3.84573	-1.1682	76.8676	1.60749
0.0773	-1.88559	8.84051	-2.40971	23.8635	44.4866	-4.30938	-7.51185	-2.40512	1.77859	1.286
0.0780	-0.962037	12.503	-0.872085	29.3481	43.8732	-0.642391	-4.15212	0.0343589	-32.0794	1.60749
0.0787	-1.57774	14.65	2.18021	32.7233	45.0887	1.82011	0.422607	1.27128	-47.343	1.60749
0.0793	-3.42485	13.0713	1.56057	18.0624	45.3954	-1.23125	-0.485998	-0.858972	-51.935	1.60749
0.0800	-1.26989	11.5558	2.18021	2.82143	46.3156	-1.84688	-2.01795	-2.40512	-39.7112	1.286
0.0807	2.38585	12.503	3.0982	0.369158	48.4513	-0.642391	-1.09878	-3.02358	-11.9651	1.60749
0.0813	-0.384815	11.2401	0.642589	1.58211	48.1446	-3.37255	-4.45851	-4.22614	30.7859	1.60749
0.0820	-1.26989	9.72456	0.344244	7.69959	48.1446	-2.75693	-5.37768	-4.53537	76.2532	1.286
0.0827	4.19448	11.2401	3.99323	21.4376	50.587	6.07595	-0.190173	-1.47743	101.574	1.286
0.0833	6.96515	13.0713	4.31453	26.6058	53.0295	12.1787	1.03539	-0.549742	103.417	1.60749
0.0840	2.6937	13.0713	-0.275395	16.533	53.0295	11.2686	-5.07129	-3.91691	93.9421	1.60749
0.0847	-0.384815	12.503	-0.275395	11.6549	51.8026	11.8842	-6.89907	-5.15383	71.0468	0.642998
0.0853	1.15444	14.0185	2.47856	20.1982	51.8026	14.6144	-2.63073	-2.71435	-22.6367	0.642998
0.0860	1.77015	15.534	1.56057	25.0764	51.8026	14.6144	-0.190173	-2.40512	-141.059	1.92899
0.0867	1.15444	14.0185	0.642589	15.6365	49.6669	10.653	0.116217	-2.09589	-132.813	1.60749
0.0873	-2.19344	10.0403	0.642589	-4.50901	46.9177	4.55027	-1.40517	-1.1682	-68.104	1.60749
0.0880	-4.65626	7.57758	0.0458992	-31.062	47.8379	-0.642391	-3.84573	-1.78666	-42.1689	1.60749
0.0887	-4.34841	6.06206	0.642589	-54.8728	51.2005	-3.98818	-4.15212	-1.78666	34.7311	1.286
0.0893	-3.42485	6.06206	2.47856	-58.828	53.9383	-7.65516	-2.63073	-0.858972	152.539	1.60749
0.0900	-2.19344	8.84051	3.69489	-45.4065	54.245	-11.9378	-2.92656	0.343589	273.677	1.60749
0.0907	-0.962037	13.0713	1.85892	-20.0664	53.9383	-14.0523	-4.7649	0.0343589	289.264	1.286
0.0913	2.078	16.7338	-1.49172	11.0484	53.9383	-15.2836	-6.28628	-2.71435	141.544	1.286
0.0920	5.73374	18.8808	-0.275395	22.9406	52.1093	-18.3349	-6.59267	-3.91691	138.181	1.60749
0.0927	5.11804	22.5433	3.0982	25.7092	47.8379	-20.4762	-6.28628	-1.1682	188.854	1.60749
0.0933	4.19448	27.7213	2.47856	45.8284	41.7374	-16.5148	-2.92656	2.16461	-105.034	1.286
0.0940	3.88663	27.7213	0.344244	52.8688	38.6815	-7.65516	0.728998	2.78307	-441.641	0.964497
0.0947	-0.692667	21.3435	-1.49172	18.9853	41.7374	-3.37255	-0.485998	0.652819	-432.49	1.286
0.0953	-1.26989	18.2493	-0.872085	-42.3477	46.0089	-4.60381	-1.71156	0.343589	-242.051	1.60749
0.0960	6.34944	21.6593	-1.19338	-87.8333	45.0887	-7.36073	-1.40517	-0.858972	-108.397	1.286
0.0967	13.6609	25.8901	-3.62604	-66.7649	40.8173	-8.88641	-1.71156	-4.22614	-41.8455	1.286
0.0973	13.9688	28.6685	-1.79007	-23.1251	39.6017	-7.03954	0.116217	-6.04716	22.5396	1.286
0.0980	10.6209	26.8373	3.99323	-3.61248	40.5105	-5.83505	2.86316	-5.15383	45.1116	1.286
0.0987	7.58085	23.1748	5.8292	17.1395	39.6017	-6.12948	6.52928	-2.09589	5.14176	1.286
0.0993	0.230889	18.5651	3.0982	18.9853	37.7727	-8.88641	5.61011	0.962048	0.873128	1.60749
0.1000	-6.46489	11.2401	2.7769	-9.70359	38.6815	-13.7579	1.03539	0.962048	66.1637	1.286
0.1007	-7.08059	6.3778	3.99323	-34.1208	41.124	-16.8092	0.116217	2.47384	162.305	1.286
0.1013	-5.84919	7.57758	3.69489	-42.0577	44.4866	-15.2836	3.16956	5.22255	247.742	1.286
0.1020	-11.352	9.72456	1.56057	-47.8588	46.6223	-12.2322	3.47595	4.32922	295.344	1.60749
0.1027	-16.547	8.52478	0.940934	-53.3434	47.5311	-10.0909	1.34178	0.962048	317.625	1.286
0.1033	-10.4285	6.3778	2.47856	-46.9359	49.6669	-7.94959	1.34178	-3.29845	277.04	1.286
0.1040	-7.38844	7.00926	0.642589	-31.9849	49.6669	-6.42391	-0.190173	-7.90254	185.491	1.286
0.1047	-11.9677	9.40883	-1.49172	-16.7176	45.3954	-2.16807	-2.01795	-9.1051	158.651	1.286
0.1053	-13.8149	14.65	-0.872085	12.8678	42.0442	5.1659	1.03539	-5.73793	180.317	1.286
0.1060	-13.8149	20.0806	-3.32769	56.2176	38.9883	7.92283	2.86316	-1.47743	115.609	1.286
0.1067	-11.6599	22.5433	-8.19301	76.9695	34.4101	3.02459	-0.190173	0.0343589	-7.08204	1.286
0.1073	-4.34841	24.0588	-8.19301	68.4262	38.6815	-0.642391	-1.09878	0.343589	-92.8103	1.286
0.1080	3.88663	26.8373	-5.76035	56.2176	52.1093	1.49891	2.26095	1.58051	-119.069	1.60749
0.1087	10.0052	29.5526	-3.62604	47.9642	59.4366	1.20448	5.30372	-1.1682	-95.8824	1.60749
0.1093	18.5481	32.331	1.56057	47.3578	67.9795	-2.4625	6.22289	-6.66562	-107.459	1.286
0.1100	28.6302	32.0153	7.66517	49.4936	82.3275	-5.83505	5.0079	-8.79587	-193.543	0.964497
0.1107	29.2459	28.9842	5.8292	28.7416	84.1565	-8.56522	1.03539	-8.79587	-276.555	1.286
0.1113	22.8195	26.2058	-0.57374	-27.1068	75.3069	-11.9378	-2.01795	-8.21177	-245.705	1.286
0.1120	20.3952	25.5743	6.15049	-89.0463	64.6283	-13.1423	1.03539	-0.549742	-130.355	1.286
0.1127	16.4316	25.8901	14.6877	-131.157	50.2803	-10.4121	5.61011	8.28049	-46.7285	1.60749
0.1133	5.11804	25.5743	7.66517	-151.012	45.0887	-8.27079	7.14206	8.58972	-8.89297	1.60749
0.1140	-4.96411	21.6593	-2.40971	-156.787	52.1093	-7.65516	6.22289	3.0923	7.56711	1.286
0.1147	-8.312	13.0713	-5.14071	-155.284	52.1093	-7.36073	2.86316	-0.858972	28.6192	0.642998
0.1153	-6.46489	3.6625	-4.24568	-150.089	43.5664	-7.94959	1.95456	-1.78666	71.0468	1.60749
0.1160	-5.54133	-3.09418	-4.54402	-142.442	36.2391	-10.0909	1.34178	-2.40512	143.678	2.25049
0.1167	-2.5013	-1.57866	-4.84237	-123.22	28.6164	-9.79647	3.78234	-2.71435	198.912	1.60749
0.1173	1.77015	3.6625	-5.46201	-100.042	18.2331	-8.56522	6.83567	-1.47743	129.967	1.286
0.1180	1.4623	1.51552	-10.3503	-73.779	10.9172	-9.79647	5.0079	-2.09589	-26.2909	1.60749
0.1187	4.50233	-9.15624	-11.8649	-20.3828	9.38354	-9.47527	4.08873	-2.09589	-149.887	1.60749
0.1193	13.3531	-12.5662	-6.37999	46.4612	8.168	-8.88641	4.39512	2.78307	-184.683	1.60749
0.1200	16.7394	-0.315733	-2.70805	84.59	6.63437	-7.94959	3.16956	9.51741	-170.034	1.60749
0.1207	13.9688	-0.315733	-3.0064	81.8477	9.07681	-2.75693	2.26095	10.4107	-211.847	1.286
0.1213	10.0052	-5.24116	-4.24568	70.2456	12.4394	0.294429	0.728998	5.53178	-255.471	1.286
0.1220	1.15444	11.5558	-5.46201	76.6531	11.826	-3.37255	-0.190173	1.27128	-202.372	1.286
0.1227	-7.6963	11.2401	-1.79007	71.1685	15.4953	-4.60381	1.03539	-1.1682	-104.129	1.286
0.1233	-11.9677	-10.1034	5.23251	48.5971	18.8466	-0.936821	3.47595	-0.549742	-38.5147	1.60749
0.1240	-15.0078	15.2183	4.91121	43.4025	14.2684	2.11454	5.30372	-0.549742	-49.8006	1.60749
0.1247	-15.9313	59.484	5.23251	47.3578	17.3243	1.49891	6.83567	-3.02358	-78.4845	1.286
0.1253	-14.6999	55.5058	10.0978	43.4025	26.1739	1.49891	9.58262	-1.47743	-51.0295	1.286
0.1260	-18.3557	32.8993	9.79948	37.8915	32.5811	3.02459	12.3296	4.32922	-32.4028	1.286
0.1267	-23.2428	28.037	4.91121	33.6198	40.2038	-0.936821	8.66345	5.53178	-62.6065	1.286
0.1273	-16.2392	30.184	3.0982	42.4796	43.8732	-6.42391	5.61011	3.40153	-67.1985	0.964497
0.1280	-2.19344	31.6995	3.99323	51.3394	43.5664	-6.42391	15.6787	2.78307	-20.179	1.286
0.1287	8.77378	33.5308	5.23251	34.8591	46.3156	-2.4625	30.0263	3.0923	-1.26119	1.60749
0.1293	13.9688	35.0463	6.74718	8.91254	47.5311	11.563	35.5201	4.91332	-53.1638	1.286
0.1300	13.9688	32.6467	5.8292	-15.5047	44.1799	28.0511	34.2946	7.07793	-97.1113	1.286
0.1307	10.313	20.7121	0.940934	-32.9078	36.8525	31.3969	28.5049	6.7687	-74.8303	1.286
0.1313	6.34944	11.8715	-3.92438	-43.2706	30.4454	29.2823	22.0918	5.22255	-16.8481	1.60749
0.1320	4.50233	14.0185	-4.84237	-67.0814	31.9676	30.808	17.5171	5.22255	100.054	1.286
0.1327	3.30941	13.3871	-3.62604	-97.5897	36.5458	33.2438	10.7976	5.53178	273.095	1.286
0.1333	5.73374	8.52478	-4.24568	-109.508	36.8525	34.7694	1.64817	4.91332	402.156	1.286
0.1340	8.15807	8.20905	-5.76035	-105.843	32.5811	35.0639	-2.92656	3.0923	491.571	1.60749
0.1347	-0.384815	8.84051	-2.70805	-87.8333	29.5252	33.5382	-0.485998	1.27128	543.765	1.60749
0.1353	-13.8149	3.6625	0.940934	-32.9078	28.9231	32.9226	-2.92656	-1.78666	482.128	1.60749
0.1360	-18.0863	-0.315733	0.642589	47.0677	31.3542	33.5382	-8.12463	-6.35639	327.1	1.60749
0.1367	-16.8549	0.884051	3.39654	85.8293	34.7168	33.5382	-5.97989	-6.97485	68.9125	1.60749
0.1373	-27.5143	2.7153	4.91121	53.4752	31.6609	25.6154	-4.7649	-6.97485	-214.887	1.286
0.1380	-45.8314	2.08383	1.26223	-5.74832	27.3895	9.74294	-7.20546	-9.72356	-322.023	1.286
0.1387	-47.3707	3.03103	-0.57374	-49.6782	32.2744	-0.642391	-3.53934	-7.90254	-238.396	1.286
0.1393	-32.7093	6.3778	1.56057	-75.6247	42.0442	-2.75693	0.728998	-2.71435	-79.7134	1.60749
0.1400	-9.23556	7.00926	2.7769	-91.4986	48.1446	-3.98818	-6.89907	0.343589	53.0345	1.60749
0.1407	24.9745	3.6625	5.23251	-97.5897	52.416	-11.9378	-16.3549	0.962048	153.444	1.60749
0.1413	56.106	0	9.79948	-92.7115	56.074	-28.1046	-17.8869	2.47384	275.811	1.286
0.1420	61.2625	-3.09418	10.4191	-73.4889	57.3009	-43.6558	-17.5805	1.88974	408.268	1.286
0.1427	26.4753	-4.60969	5.53085	-19.7763	73.4779	-51.2842	-16.3549	-1.1682	489.76	1.286
0.1433	-15.0078	-3.09418	3.69489	48.2807	108.57	-54.3356	-9.64601	0.0343589	489.76	1.60749
0.1440	-20.5106	-2.46271	3.99323	66.8968	125.962	-56.7981	-5.07129	1.88974	418.358	1.60749
0.1447	-8.312	-4.92543	4.91121	49.81	116.806	-52.2211	-9.9524	0.962048	246.222	0.642998
0.1453	-6.77274	-6.75668	7.66517	59.5663	106.127	-34.5018	-14.2207	2.16461	2.39302	0.964497
0.1460	-10.7363	-4.92543	5.8292	86.4358	96.3574	-15.8992	-11.1674	3.71076	-146.847	1.92899
0.1467	-22.3577	-1.57866	0.940934	84.3	80.1918	-14.0523	-13.0057	4.32922	-202.695	1.286
0.1473	-45.8314	0.568318	0.344244	59.2763	60.3455	-16.8092	-24.2894	7.3528	-323.834	0.964497
0.1480	-56.2215	3.6625	2.7769	33.9362	44.782	-0.936821	-31.928	10.4107	-493.22	1.286
0.1487	-43.0993	3.6625	2.47856	-14.5818	35.9324	21.9484	-33.143	9.79228	-542.956	1.60749
0.1493	-26.937	-0.631465	-0.57374	-95.1638	31.0588	30.808	-34.6749	5.22255	-428.512	1.60749
0.1500	-13.1991	-2.14698	0.344244	-163.511	27.3895	32.3337	-34.9708	3.40153	-269.538	1.286
0.1507	11.5444	-1.26293	1.85892	-182.127	29.2185	28.9611	-28.8746	2.47384	-145.618	1.286
0.1513	25.5902	-0.315733	-3.0064	-169.312	40.2038	18.2814	-24.2894	-4.22614	-52.226	1.286
0.1520	-1.26989	5.49375	-8.19301	-152.225	50.2803	10.653	-21.2466	-6.04716	15.8133	1.286
0.1527	-32.0936	8.84051	-4.54402	-128.124	43.2597	2.73016	-15.7527	-1.78666	48.7658	1.286
0.1533	-28.4378	5.17801	-0.275395	-108.585	29.2185	-6.12948	-15.4463	-3.29845	68.298	1.60749
0.1540	-6.46489	1.19978	-0.275395	-103.074	26.776	-8.88641	-18.4996	-11.5446	108.3	1.60749
0.1547	13.6609	-2.77845	-1.49172	-92.105	29.8319	-6.12948	-18.1932	-18.5882	141.253	1.60749
0.1553	30.131	-7.64073	-3.62604	-67.3714	23.4248	-4.89823	-16.0591	-18.863	80.8129	1.60749
0.1560	49.6796	-10.1034	-3.62604	-60.6738	14.5752	-9.79647	-15.4463	-16.7328	16.7188	1.286
0.1567	72.8839	-5.80948	-1.79007	-112.857	8.168	-7.65516	-12.6994	-18.2789	123.531	1.286
0.1573	82.9276	-4.29396	-4.54402	-184.579	-0.374887	1.82011	-11.4738	-24.3604	318.562	1.60749
0.1580	76.2318	-9.78771	-10.3503	-182.127	-2.21524	6.98601	-12.6994	-28.0368	467.479	1.60749
0.1587	68.9203	-7.07241	-16.1336	-107.979	1.14738	6.07595	-6.89907	-24.6697	547.742	1.286
0.1593	61.5704	-4.29396	-19.1859	-54.2663	0.227204	1.20448	-0.190173	-18.5882	553.24	1.286
0.1600	57.9146	-8.58792	-10.947	-45.1164	-3.12406	1.20448	1.03539	-11.2354	488.531	1.60749
0.1607	73.1918	-6.44094	-0.275395	-39.3154	2.06756	2.40897	3.78234	-3.02358	389.674	1.60749
0.1613	73.4996	-3.6625	5.53085	-61.2803	23.118	-7.65516	6.83567	0.652819	317.625	1.60749
0.1620	28.9381	-7.07241	18.658	-121.084	46.9177	2.73016	2.86316	-2.40512	305.433	1.60749
0.1627	5.73374	-7.95646	29.9492	-151.909	53.6316	64.0518	1.34178	-7.28408	349.995	1.286
0.1633	29.2459	-5.49375	23.8446	-150.089	37.466	119.619	6.52928	-7.90254	389.059	1.286
0.1640	40.8289	-9.15624	15.2844	-136.035	14.5752	127.247	6.83567	-6.35639	348.152	1.60749
0.1647	31.3624	-24.4377	13.1501	-100.332	1.76083	168.44	2.55677	-7.28408	228.533	1.60749
0.1653	39.9053	-50.0752	8.8815	-42.3477	-6.48668	252.968	3.16956	-7.59331	106.134	1.286
0.1660	57.2989	-89.4154	5.23251	19.3017	-17.1653	263.354	5.0079	-5.73793	31.6913	1.60749
0.1667	63.4175	-139.175	-1.79007	75.4402	-20.5166	213.916	-2.01795	-6.35639	-120.298	1.60749
0.1673	78.6562	-190.766	-22.2382	137.09	-17.1653	169.966	-11.7802	-5.73793	-466.962	1.286
0.1680	75.924	-232.253	-35.985	199.952	-15.643	117.772	-18.4996	0.0343589	-758.102	1.286
0.1687	26.1674	-256.059	-20.4022	251.212	-8.6224	59.4747	-22.768	7.3528	-763.923	1.60749
0.1693	-7.6963	-280.813	3.0982	257.62	8.168	0.294429	-29.4769	12.541	-639.098	1.286
0.1700	17.3167	-250.565	5.53085	221.31	24.0382	-55.5669	-34.9708	16.5266	-504.506	1.286
0.1707	43.8689	-93.0779	-6.97668	202.694	31.6609	-103.184	-33.4494	18.6569	-358.338	1.286
0.1713	36.8653	107.981	-6.67833	224.369	37.1593	-159.929	-32.5302	18.0384	-272.254	1.286
0.1720	12.4295	221.518	11.0158	237.501	39.6017	-219.457	-29.7833	18.0384	-284.155	1.286
0.1727	-57.4529	173.337	23.5463	212.767	40.5105	-242.021	-23.3808	17.1451	-333.923	1.60749
0.1733	-134.955	37.509	19.8744	177.671	47.8379	-243.252	-22.1552	11.6477	-408.365	1.60749
0.1740	-126.72	7.32499	16.2024	155.099	47.5311	-239.291	-20.9402	8.89895	-550.588	1.60749
0.1747	-68.1122	104.065	24.4413	148.692	39.6017	-214.264	-11.4738	10.72	-699.828	0.964497
0.1753	-44.9079	153.446	29.9492	132.502	53.3362	-189.532	-1.09878	11.0292	-729.418	0.964497
0.1760	-44.6	101.603	28.4116	101.677	77.1359	-173.071	5.61011	9.20818	-644.272	1.60749
0.1767	-59.2615	57.9685	25.6806	102.6	83.8498	-153.21	6.83567	4.63845	-549.974	1.286
0.1773	-109.942	44.834	18.3367	172.186	84.7699	-127.595	-1.71156	1.88974	-485.265	1.286
0.1780	-134.647	26.8373	5.53085	257.936	83.8498	-101.953	-13.3121	0.343589	-429.45	1.60749
0.1787	-105.67	47.2967	-5.46201	269.828	75.909	-81.5034	-16.9677	-2.09589	-346.729	1.60749
0.1793	-87.9687	74.7655	-11.5666	233.229	66.764	-68.6823	-16.6613	-5.73793	-245.414	1.286
0.1800	-102.284	33.5308	-10.029	217.962	56.9942	-65.9522	-18.4996	-10.342	-158.424	1.286
0.1807	-148.692	5.49375	-6.97668	214.613	49.3601	-65.631	-19.7146	-11.2354	-93.4247	0.642998
0.1813	-174.937	28.037	-6.97668	206.676	43.8732	-63.4897	-21.2466	-8.79587	-61.9921	1.286
0.1820	-135.262	28.3528	-0.57374	185.608	33.1945	-64.1053	-20.6338	-7.59331	-54.6837	1.92899
0.1827	-108.402	7.32499	8.8815	155.389	20.9823	-67.1567	-17.2741	-6.04716	-42.4599	1.286
0.1833	-103.207	-13.7659	13.7698	143.181	13.655	-68.6823	-16.0591	0.0343589	-23.8655	0.964497
0.1840	-76.3473	-43.0659	13.1501	148.982	8.47472	-61.964	-24.9021	4.91332	-48.8952	1.286
0.1847	-59.2615	-68.7034	8.8815	148.982	2.97638	-49.7586	-33.7558	5.22255	-148.076	1.60749
0.1853	-60.8007	-68.0719	3.69489	128.836	0.840656	-46.4128	-28.8746	9.79228	-228.339	1.60749
0.1860	-48.2943	-51.0224	0.0458992	100.464	1.14738	-47.9385	-23.0744	22.9174	-223.133	1.286
0.1867	-19.8949	-15.2815	-3.92438	79.1054	0.53393	-45.1815	-30.0896	36.6609	-197.812	1.286
0.1873	13.9688	27.4056	-7.59632	69.9555	3.89655	-40.3101	-36.5027	42.7768	-186.203	1.286
0.1880	-1.88559	21.3435	-6.67833	74.2272	-2.51061	-37.5531	-33.143	44.2886	-184.974	1.286
0.1887	-122.756	5.17801	-5.46201	77.8924	-35.1712	-39.0788	-36.1963	41.8491	-193.543	1.60749
0.1893	-208.801	48.8122	-6.67833	70.2456	-62.3335	-33.5917	-46.8777	30.8543	-187.723	1.286
0.1900	-134.031	102.803	-5.14071	67.2132	-52.257	-17.7193	-50.5438	20.7871	-175.208	1.286
0.1907	-15.6235	91.815	-0.872085	78.789	-36.08	10.3586	-49.3183	19.2753	-185.912	1.286
0.1913	60.6853	44.2026	3.99323	94.3727	-47.9856	51.2575	-47.1841	18.3476	-190.795	1.60749
0.1920	157.697	21.9118	11.3371	102.31	-72.3987	72.617	-39.8624	15.9082	-162.111	1.286
0.1927	263.29	17.0496	12.2321	98.0116	-87.0533	61.616	-34.0622	11.9569	-120.589	0.964497
0.1933	303.58	14.9026	3.99323	86.1194	-73.3188	54.6033	-30.0896	6.45947	-76.6413	1.286
0.1940	332.288	37.1933	-4.24568	69.0326	-24.1859	65.5775	-22.4616	5.84101	-48.5718	1.60749
0.1947	367.383	78.428	-14.9172	44.3254	17.3243	70.1545	-14.8335	13.1594	-51.935	1.60749
0.1953	318.858	90.931	-29.5591	28.4516	27.3895	58.8859	-11.4738	23.8451	-97.6934	1.286
0.1960	165.047	66.4933	-32.0147	30.5874	23.7315	52.462	-5.97989	34.8399	-148.076	1.286
0.1967	3.88663	43.8868	-22.5365	33.6198	15.1886	60.4116	1.95456	40.3373	-124.857	1.286
0.1973	-28.4378	28.3528	-18.8875	26.3157	4.49865	51.8463	3.78234	36.0425	-56.818	1.286
0.1980	16.1237	-2.46271	-11.8649	12.8678	-15.643	21.6539	7.14206	30.8543	4.81837	1.286
0.1987	43.2532	-40.0349	2.47856	-5.4319	-40.3628	-7.65516	17.5171	22.024	67.1015	1.286
0.1993	14.2766	-53.7377	9.50113	-27.7133	-51.6435	-37.5531	27.5857	7.3528	116.514	1.286
0.2000	-130.375	-43.3816	13.1501	-47.2523	-54.086	-72.3493	33.9988	0.0343589	142.449	1.60749
0.2007	-266.176	-46.4127	17.4417	-60.3574	-47.9856	-115.068	30.9454	0.652819	159.556	1.60749
0.2013	-272.872	-78.7437	17.4417	-60.6738	-30.2863	-107.44	31.2518	1.58051	173.914	1.286
0.2020	-222.231	-108.991	15.6057	-50.6011	-9.22449	10.9742	40.7077	3.71076	190.083	1.286
0.2027	-263.444	-109.875	11.6354	-46.6194	8.78145	117.772	41.014	8.58972	208.387	1.286
0.2033	-453.235	-67.5036	1.26223	-47.5423	11.5193	134.26	33.9988	17.4543	216.633	1.286
0.2040	-685.201	21.0278	-3.0064	-40.2119	-7.70223	157.145	32.7732	22.3333	212.041	1.286
0.2047	-766.051	91.4993	7.36682	-31.062	-26.6283	192.53	38.8799	22.024	207.481	0.642998
0.2053	-606.16	85.753	15.6057	-26.5003	-33.9443	183.992	46.8143	26.5938	203.18	0.642998
0.2060	-349.797	46.981	11.3371	-25.5774	-48.2923	148.607	50.1741	35.7332	189.469	1.92899
0.2067	-93.7409	27.7213	3.39654	-34.7273	-77.2835	113.489	47.1207	46.4188	176.954	1.92899
0.2073	187.944	28.3528	-7.29797	-58.2216	-102.003	74.1427	45.8952	55.2834	178.183	1.286
0.2080	508.34	37.8248	-21.3202	-79.29	-99.5609	24.3841	54.7488	61.6742	179.703	1.286
0.2087	743.039	45.4655	-32.313	-74.0954	-74.8411	-11.9378	65.7366	70.848	163.21	1.286
0.2093	681.084	47.865	-39.9323	-57.9315	-51.0415	-34.2073	65.1238	83.0454	138.181	1.286
0.2100	475.4	53.6745	-51.2235	-63.7062	-22.959	-83.9391	41.6268	93.1125	125.989	1.60749
0.2107	439.382	59.1683	-64.9703	-82.9552	4.80537	-141.326	7.74428	93.731	122.626	1.286
0.2113	510.495	53.0431	-66.8063	-83.8517	2.66965	-167.557	-9.9524	87.6151	112.569	1.60749
0.2120	394.512	32.8993	-50.3285	-65.552	-4.95305	-178.237	-9.03323	72.3598	94.2332	1.60749
0.2127	118.023	2.39957	-22.5365	-49.3881	8.168	-175.507	1.34178	40.9214	72.89	1.60749
0.2133	-40.6364	-25.3849	-0.275395	-39.9218	20.9823	-134.313	12.0232	5.22255	43.8828	1.60749
0.2140	-70.8829	-40.2875	7.04553	-37.1795	8.168	-50.0798	16.2915	-24.3604	17.0422	1.60749
0.2147	-41.56	-50.0752	7.96351	-44.8	-28.1506	31.7181	19.0385	-57.345	18.5621	1.92899
0.2153	31.0546	-64.7252	14.9861	-50.8911	-47.3721	94.5921	24.8387	-97.3043	36.251	1.60749
0.2160	94.8569	-79.3752	26.2773	-48.4652	-49.2125	155.298	36.7457	-128.433	41.7485	1.286
0.2167	96.6655	-83.9217	31.1656	-47.5423	-77.897	180.94	43.761	-133.003	38.7087	1.60749
0.2173	-37.9043	-82.4062	29.9492	-51.814	-119.089	161.722	35.8265	-126.303	40.843	1.60749
0.2180	-282.339	-80.0066	29.0312	-51.524	-132.517	123.259	26.3601	-122.627	46.6315	1.60749
0.2187	-472.476	-77.8596	32.0835	-51.524	-144.422	116.246	22.3982	-113.178	53.6489	1.60749
0.2193	-498.412	-78.4911	39.4045	-53.6598	-160.599	161.106	19.0385	-94.2464	64.0294	1.60749
0.2200	-484.674	-80.8907	48.8597	-47.2523	-117.567	189.479	20.5704	-72.2911	75.6388	1.286
0.2207	-521.001	-79.6909	52.2103	-41.4512	-42.7939	181.85	25.1451	-51.2291	81.4273	1.60749
0.2213	-490.177	-69.5874	43.3747	-43.5871	-24.1859	157.439	28.1985	-26.4907	81.7507	1.286
0.2220	-281.454	-50.0752	25.6806	-45.4065	-46.77	98.2323	23.9196	4.32922	85.6959	1.286
0.2227	67.0732	-25.6375	4.91121	-46.3294	-62.0268	36.9107	5.9165	37.2794	93.0367	1.60749
0.2233	414.676	6.3778	-24.3725	-49.0717	-64.7759	-20.4762	-16.9677	65.3506	97.9197	1.286
0.2240	698.17	47.2967	-63.754	-50.8911	-69.9562	-52.5155	-19.4082	93.731	102.479	1.286
0.2247	797.067	81.7747	-94.5753	-48.4652	-80.6462	17.6658	-2.63073	122.421	107.686	1.60749
0.2253	627.056	89.9838	-99.4406	-47.8588	-99.5609	82.6811	11.104	125.788	108.882	1.60749
0.2260	378.658	73.5025	-86.6347	-63.4161	-116.045	80.861	14.7701	109.605	105.551	1.60749
0.2267	228.811	47.865	-63.1343	-83.2452	-112.682	82.0655	10.7976	102.286	106.748	1.286
0.2273	55.7982	13.3871	-28.6411	-82.9552	-108.411	50.0262	1.64817	86.7218	110.111	1.60749
0.2280	-96.8194	-29.0474	8.58315	-63.7062	-107.195	-19.5662	0.116217	39.1004	109.206	1.92899
0.2287	23.4352	-63.8411	35.7325	-42.3477	-105.059	-87.6061	7.74428	-21.3025	107.071	1.60749
0.2293	229.427	-85.1846	46.7254	-33.5143	-116.953	-100.133	12.0232	-73.8029	102.188	1.286
0.2300	266.985	-99.2032	46.1287	-36.8631	-132.517	-12.5266	15.0765	-114.106	96.9819	1.60749
0.2307	131.145	-101.666	39.4045	-38.6825	-128.245	69.8601	21.1726	-131.491	103.708	1.286
0.2313	-58.3379	-89.7312	29.0312	-25.5774	-98.9475	56.4234	22.3982	-129.361	116.837	1.286
0.2320	-184.403	-79.0594	21.0907	-9.09712	-63.549	5.46033	18.1299	-125.994	126.604	1.286
0.2327	-244.819	-73.2499	18.658	-7.88417	-43.7141	-9.79647	21.1726	-117.129	134.235	1.60749
0.2333	-263.136	-66.2407	18.0384	-22.2022	-29.6729	-8.27079	28.8113	-103.111	136.046	1.92899
0.2340	-299.117	-62.0099	17.1204	-31.9849	-5.25978	-34.5018	20.5704	-99.4346	128.415	1.286
0.2347	-316.818	-58.9157	18.9564	-20.9893	9.69026	-47.9385	1.34178	-92.4254	113.765	0.642998
0.2353	-264.637	-51.0224	19.8744	-4.50901	-4.64633	-48.2329	-6.28628	-73.1844	86.3103	1.286
0.2360	-226.81	-41.8661	16.5237	-1.45027	-35.1712	-79.6833	-10.5652	-54.287	48.4748	1.92899
0.2367	-185.904	-36.0567	13.4714	-6.3548	-57.7553	-112.633	-16.0591	-33.8435	28.9426	1.60749
0.2373	-60.4929	-29.3	10.4191	-8.49064	-71.4898	-127.595	-3.23295	-7.28408	18.271	1.60749
0.2380	53.3353	-17.4284	-0.872085	-11.8394	-77.897	-142.852	9.27623	14.9805	-36.9624	1.286
0.2387	108.595	-0.631465	-15.8352	-22.2022	-61.7201	-142.531	-5.37768	36.6609	-100.442	0.964497
0.2393	205.029	12.8187	-24.9921	-32.275	-40.3628	-135.518	-27.0363	62.9111	-99.2456	1.286
0.2400	286.495	14.9026	-28.3428	-33.5143	-36.3868	-137.365	-28.2619	83.3546	-69.3328	1.92899
0.2407	240.432	9.72456	-29.2607	-25.8675	-39.4427	-132.172	-18.4996	98.61	-61.3777	1.60749
0.2413	124.757	3.03103	-28.0444	-13.9753	-36.08	-116.594	-8.12463	105.928	-69.0095	1.60749
0.2420	-0.692667	2.7153	-30.7754	-2.37316	-28.1506	-94.9401	11.104	101.668	-78.7756	1.60749
0.2427	-94.3566	9.72456	-35.985	2.82143	-21.13	-82.119	32.7732	100.156	-80.3278	1.60749
0.2433	-83.6972	10.0403	-31.6934	-0.553738	-15.9384	-80.2722	45.2824	99.8469	-67.4896	1.286
0.2440	-78.5022	0.252586	-16.7532	-4.50901	-9.83795	-72.0549	50.1741	77.8572	-49.8006	1.286
0.2447	-173.09	-10.7349	-2.08841	-9.38717	-3.73751	-74.1694	52.0018	38.2071	-30.8829	1.60749
0.2453	-209.724	-17.1127	5.8292	-17.6405	2.66965	-86.9905	47.1207	3.0923	-8.89297	1.60749
0.2460	-153.887	-18.6282	8.28481	-20.0664	5.72555	-92.7988	32.4668	-28.0368	14.2934	1.286
0.2467	-141.65	-15.5972	7.96351	-15.7947	2.36292	-93.7088	19.3449	-49.4081	44.8206	1.60749
0.2473	-148.077	-7.07241	-0.57374	-16.7176	17.0176	-39.0788	9.27623	-48.1711	82.6561	1.60749
0.2480	-90.7009	4.86228	-10.3503	-20.9893	54.245	73.2058	11.104	-40.2342	118.648	1.286
0.2487	-8.61985	16.4812	-14.9172	-20.0664	76.5224	172.107	28.1985	-41.1619	147.041	1.286
0.2493	56.3754	25.5743	-24.0741	-13.0524	67.3661	222.455	35.8265	-35.6645	164.439	1.60749
0.2500	17.0088	28.037	-31.0967	-2.68958	41.7374	234.045	31.854	-22.2302	153.444	1.286
0.2507	-171.589	19.828	-21.9398	-7.88417	32.8878	230.699	15.0765	-19.1723	100.054	1.286
0.2513	-195.678	1.19978	-3.32769	-26.7904	47.8379	197.428	-22.768	-25.2881	34.4401	1.286
0.2520	56.9911	-19.5754	16.2024	-22.8351	43.8732	140.657	-39.556	-30.7856	9.70142	1.286
0.2527	242.857	-27.7845	28.1133	0.369158	30.1387	95.7966	-17.5805	-31.404	0.549747	1.60749
0.2533	257.21	-26.2689	24.4413	16.8494	37.1593	50.3207	0.728998	-30.7856	-48.5718	1.60749
0.2540	194.639	-22.9222	15.9041	25.9993	40.5105	-20.4762	9.58262	-31.6789	-108.074	1.92899
0.2547	90.2776	-18.0599	13.7698	28.1351	25.2538	-91.5675	23.6238	-37.1763	-148.076	1.60749
0.2553	-1.57774	-15.9129	11.6354	20.8047	-4.64633	-137.659	27.8921	-51.2291	-141.641	1.286
0.2560	-50.1029	-17.1127	9.20279	6.77669	-36.6935	-164.827	15.0765	-62.2239	-92.5193	1.60749
0.2567	-58.0301	-14.65	11.9338	5.8538	-50.7347	-164.211	2.26095	-51.5383	-67.813	1.60749
0.2573	-44.3307	-9.78771	11.9338	21.4376	-51.3482	-157.787	-11.4738	-30.1671	-82.1387	1.286
0.2580	-28.13	-8.27219	8.28481	31.4839	-41.5784	-158.403	-28.8746	-18.863	-93.7481	1.60749
0.2587	-34.5564	-7.32499	9.50113	31.4839	-23.2657	-94.03	-17.2741	-13.0907	-72.9871	1.60749
0.2593	-94.9723	-5.49375	11.0158	26.6058	-15.643	26.8198	30.0263	-7.28408	-42.1689	1.60749
0.2600	-147.153	-3.09418	7.04553	21.4376	-19.6077	81.4499	63.8982	-1.78666	-33.6316	1.60749
0.2607	-119.1	1.19978	5.8292	14.3972	-18.0741	73.2058	61.1513	6.7687	-32.0794	1.60749
0.2613	-34.2485	0.252586	11.0158	-8.49064	-11.0649	78.1041	41.014	12.2661	-15.9103	1.286
0.2620	93.0098	-2.14698	11.0158	-39.9218	-4.04424	118.682	4.70151	11.0292	-2.19899	1.286
0.2627	231.582	3.34676	6.15049	-49.3881	-0.988339	178.799	-44.1308	12.8502	-0.355719	1.286
0.2633	342.639	10.9875	3.0982	-39.9218	4.49865	202.005	-80.4433	23.8451	-4.00992	1.60749
0.2640	375.926	14.3343	-4.84237	-32.275	24.947	173.927	-92.9631	33.603	-15.0049	1.286
0.2647	294.73	16.1655	-9.73063	-22.8351	42.6463	162.953	-100.591	41.5399	-27.8108	0.642998
0.2653	167.164	17.0496	-3.92438	-11.523	42.953	164.773	-125.303	53.1532	-31.1739	1.286
0.2660	28.0145	14.3343	-1.49172	-5.74832	51.4959	87.8738	-147.891	54.665	-31.1739	1.92899
0.2667	-102.592	10.6718	-2.70805	-3.29606	74.08	-34.823	-137.823	47.0373	-30.2684	1.60749
0.2673	-87.9687	8.52478	0.0458992	-0.843791	77.1359	-89.7474	-111.579	40.6465	-22.9277	1.60749
0.2680	10.6209	5.74633	1.85892	-0.843791	44.1799	-96.7602	-102.725	19.2753	-14.0994	1.60749
0.2687	24.0509	3.6625	3.39654	-1.76669	13.0529	-117.825	-90.8183	-12.163	-7.08204	1.60749
0.2693	6.34944	2.39957	8.58315	2.18858	-7.70223	-84.2603	-39.556	-25.9066	-0.646762	1.60749
0.2700	-8.61985	-1.83125	11.0158	4.32443	-75.1478	-3.07813	8.96984	-31.404	1.48755	1.286
0.2707	-41.56	-5.49375	9.20279	-4.82543	-146.251	17.3713	11.104	-40.2342	2.06964	1.60749
0.2713	-55.9136	-4.29396	8.58315	-14.8982	-145.036	-43.6558	-2.92656	-42.6737	6.04722	1.60749
0.2720	-42.7914	-4.29396	9.79948	-15.1882	-114.216	-126.364	-0.792389	-36.5922	8.79596	1.286
0.2727	-10.4285	-7.32499	9.79948	-18.247	-85.5197	-103.479	5.61011	-31.0948	11.8357	1.60749
0.2733	22.2038	-8.58792	8.8815	-16.1111	-50.7347	-25.3477	7.74428	-27.1092	13.388	1.60749
0.2740	22.5117	-7.95646	8.28481	-0.553738	-34.8645	-14.6679	11.4104	-19.1723	9.41038	1.286
0.2747	-4.96411	-8.27219	9.79948	2.505	-36.3868	6.98601	10.4912	-13.9841	8.79596	0.964497
0.2753	-12.2756	-10.7349	15.2844	-3.61248	-27.5372	27.4355	11.7168	-13.9841	13.0646	1.286
0.2760	22.2038	-13.4502	23.225	0.975633	-21.4367	11.2686	25.4515	-6.66562	15.1989	1.60749
0.2767	26.1674	-15.9129	26.8969	8.91254	-29.3662	15.8457	36.1329	7.3528	17.3332	1.60749
0.2773	-25.3978	-22.6064	26.8969	10.4419	-27.8439	10.0374	34.2946	16.2174	17.9476	0.964497
0.2780	-73.3072	-30.2472	26.5756	12.8678	-10.7581	-37.5531	28.8113	20.4779	17.3332	0.964497
0.2787	-95.8959	-29.9314	20.7923	12.2613	6.03227	-79.3621	14.7701	28.4148	20.0819	1.92899
0.2793	-111.442	-17.1127	10.0978	-1.45027	22.8113	-69.9136	-15.1399	42.1583	30.1714	1.60749
0.2800	-120.293	-3.40991	2.7769	-19.1699	41.124	-32.9761	-49.6247	55.5927	42.3629	1.286
0.2807	-79.1179	-2.14698	-6.05869	-33.1979	31.3542	-65.0154	-74.9494	79.4034	50.3181	1.60749
0.2813	-6.77274	-3.6625	-21.3202	-41.1348	-22.6523	-177.648	-95.71	113.556	53.0345	1.60749
0.2820	28.6302	0	-33.231	-35.0437	-65.6848	-252.112	-106.994	111.735	50.9001	1.60749
0.2827	-20.8185	4.54655	-35.6637	-20.3828	-62.9356	-224.623	-83.1903	79.9875	45.435	1.60749
0.2833	-89.1616	10.6718	-33.8277	-9.09712	-52.257	-137.043	-51.1461	83.0454	39.9375	1.60749
0.2840	-67.8044	11.5558	-28.6411	-4.21895	-34.5578	-48.5541	-52.678	101.359	35.3455	1.60749
0.2847	14.8923	-3.09418	-14.2976	0.975633	-7.08877	8.51169	-44.7436	67.4808	29.557	1.60749
0.2853	102.476	-20.1437	5.8292	10.732	-3.43079	36.2951	12.9424	15.9082	19.7909	1.60749
0.2860	133.608	-28.4159	21.389	20.8047	-18.0741	115.952	83.4333	3.40153	10.9303	1.286
0.2867	116.522	-36.0567	33.0015	28.1351	-28.4573	250.827	109.371	-12.4723	7.27607	1.286
0.2873	98.5126	-36.0567	33.5982	19.5918	-33.0355	295.072	70.9241	-61.6055	8.50492	1.60749
0.2880	86.0061	-14.65	14.6877	-1.45027	-65.9915	261.212	13.851	-79.9187	14.0024	1.60749
0.2887	100.937	7.89331	-6.37999	-18.247	-139.231	316.752	-9.33962	-38.104	21.6018	1.60749
0.2893	86.9297	6.3778	-12.1633	-32.9078	-173.72	434.23	-9.03323	10.72	28.3282	1.60749
0.2900	60.0696	-5.24116	-8.19301	-41.1348	-147.172	474.834	-18.1932	51.0229	29.2336	1.60749
0.2907	103.708	-7.64073	-3.62604	-41.7413	-116.647	427.217	-43.8244	79.0941	28.0371	1.60749
0.2913	145.498	-2.77845	-0.872085	-44.1935	-78.4991	326.201	-67.9341	54.3557	29.2336	1.92899
0.2920	125.065	0.884051	1.56057	-36.5467	-28.7641	202.005	-74.3472	4.01999	25.2884	1.92899
0.2927	103.4	-2.14698	5.53085	-12.1559	-2.21524	58.5647	-42.303	-7.90254	12.7735	1.286
0.2933	142.458	-10.9875	11.9338	12.5778	0.840656	-101.043	25.1451	-6.35639	1.77859	1.286
0.2940	194.331	-6.75668	10.0978	23.8635	-5.25978	-226.149	70.3113	-31.404	-3.3955	1.92899
0.2947	154.349	17.9968	-7.59632	17.4559	-20.2212	-311.613	85.8738	-40.8527	-2.49003	0.964497
0.2953	72.8839	37.8248	-24.3725	3.71795	-29.9796	-320.767	102.968	-21.3025	6.04722	0.964497
0.2960	81.119	37.8248	-28.9624	-1.16021	-22.959	-226.47	101.436	-0.858972	15.8133	1.92899
0.2967	159.236	23.4905	-24.3725	2.82143	-14.4161	-195.019	77.3266	17.1451	18.271	1.60749
0.2973	126.296	3.34676	-16.1336	3.4279	9.69026	-230.431	32.4668	15.2897	18.271	1.60749
0.2980	-66.573	-10.9875	-12.7829	-9.09712	75.909	-177.648	-28.5683	10.72	21.0198	1.60749
0.2987	-193.831	-5.24116	-12.4846	-19.7763	136.641	-100.427	-53.893	36.6609	23.7362	1.60749
0.2993	-180.709	6.69353	-10.3503	-13.0524	138.481	-75.4007	-27.0363	37.2794	19.4675	1.92899
0.3000	-164.239	5.74633	-11.2453	0.68558	91.4838	-74.4906	11.104	-5.73793	9.70142	1.60749
0.3007	-206.684	4.86228	-11.2453	16.533	34.1034	-105.914	44.976	-39.925	2.06964	1.286
0.3013	-237.777	7.00926	-5.46201	32.1168	-7.08877	-162.686	65.4302	-71.9818	-3.10446	1.60749
0.3020	-191.099	2.39957	-0.872085	40.9502	-30.5931	-207.546	50.7763	-110.429	-7.37308	1.60749
0.3027	-127.951	-0.631465	-2.70805	40.9502	-46.1566	-218.841	37.3479	-133.931	-6.75866	1.60749
0.3033	-88.5459	2.7153	-3.92438	27.2122	-56.2217	-179.763	57.1893	-138.501	1.16417	1.60749
0.3040	-63.2251	2.08383	-3.0064	7.38317	-48.9057	-89.7474	63.8982	-127.815	9.41038	1.60749
0.3047	-74.8465	-2.77845	-2.70805	0.369158	5.1121	13.7043	17.2107	-118.057	9.11934	1.60749
0.3053	-107.787	-5.80948	0.0458992	3.11148	89.9502	61.0004	-40.771	-114.106	4.81837	1.60749
0.3060	-103.207	-7.95646	3.99323	0.369158	128.405	56.1289	-60.6125	-105.86	4.23629	1.60749
0.3067	-63.8408	-9.15624	5.23251	-8.49064	101.856	72.9114	-59.6933	-100.672	8.79596	1.60749
0.3073	-47.9864	-10.1034	3.69489	-19.4599	64.6283	87.8738	-47.7969	-89.9859	15.1989	1.286
0.3080	-51.3343	-11.619	3.99323	-26.1839	34.4101	36.2951	-7.81824	-68.3054	17.0422	1.286
0.3087	-33.9407	-13.1345	5.23251	-20.0664	0.840656	-48.8485	45.8952	-54.5963	12.7735	1.60749
0.3093	-14.0842	-14.0817	3.69489	-8.17422	-30.5931	-30.2459	90.1422	-52.4316	4.52733	1.60749
0.3100	-18.0863	-14.3974	3.69489	3.11148	-40.3628	92.7453	107.543	-51.8475	-3.10446	1.286
0.3107	-23.2428	-14.3974	5.23251	4.64085	-41.2717	156.235	95.636	-48.1711	-4.3333	1.286
0.3113	-21.742	-15.2815	5.23251	-11.233	-48.2923	171.492	65.7366	-41.4712	4.52733	1.60749
0.3120	-23.2428	-16.2287	4.91121	-33.8044	-1.60179	210.249	26.3601	-35.6645	15.8133	1.92899
0.3127	-19.2792	-17.7442	4.61287	-39.9218	81.1006	225.185	1.95456	-30.4763	23.1541	1.286
0.3133	-10.1206	-14.65	5.8292	-24.048	91.7792	193.761	16.5979	-20.7184	26.4849	1.286
0.3140	-8.61985	-10.1034	2.7769	-10.3101	64.9236	131.208	31.2518	-10.6513	20.0819	1.60749
0.3147	-8.00415	-10.1034	-0.275395	-9.38717	70.1152	100.989	10.7976	-6.66562	10.9303	1.60749
0.3153	0.538741	-12.5662	1.85892	-13.3688	53.0295	132.118	-19.4082	-6.35639	10.6392	1.286
0.3160	6.04159	-13.4502	1.85892	-17.9306	8.78145	129.977	-43.2116	-7.59331	12.7735	1.60749
0.3167	7.273	-12.5662	0.940934	-18.8534	-18.9943	90.9251	-46.2649	-6.97485	9.41038	1.286
0.3173	9.69733	-10.7349	2.18021	-29.2426	-55.3129	96.1178	-26.1277	-7.28408	9.11934	1.60749
0.3180	11.8523	-7.95646	3.99323	-42.6642	-85.8264	106.182	-8.12463	-8.79587	14.9079	1.60749
0.3187	14.8923	-6.44094	6.15049	-35.6502	-58.3574	90.3095	11.7168	-5.46306	15.8133	1.286
0.3193	16.1237	-8.58792	5.53085	-18.5634	-10.7581	70.7701	24.8387	0.343589	8.18153	1.286
0.3200	14.5845	-10.4192	3.99323	-3.90253	-8.6224	87.5526	19.3449	4.32922	-0.970142	1.60749
0.3207	15.2002	-10.7349	2.7769	6.46027	-47.0767	211.159	7.44845	6.7687	-8.89297	1.60749
0.3213	17.0088	-10.7349	1.56057	8.59612	-65.378	360.703	-2.92656	8.28049	-13.1616	1.60749
0.3220	18.5481	-9.78771	1.56057	7.98964	-59.8911	412.576	-2.01795	9.79228	-14.0994	1.60749
0.3227	21.5881	-8.27219	3.99323	12.5778	-79.1125	375.96	10.1954	11.6477	-11.9651	1.286
0.3233	24.9745	-6.44094	7.04553	11.6549	-110.853	311.56	11.104	13.1594	-7.37308	1.286
0.3240	23.1274	-7.32499	4.31453	-0.237316	-123.974	216.646	-13.9143	11.6477	-2.49003	1.92899
0.3247	20.3952	-9.15624	0.642589	-5.4319	-108.411	57.6546	-33.4494	9.51741	0.549747	0.964497
0.3253	23.7431	-9.47198	1.56057	-4.82543	-51.9503	-104.389	-37.1155	9.79228	2.06964	0.642998
0.3260	26.7831	-9.15624	2.18021	-8.49064	4.80537	-223.713	-40.771	9.51741	3.91291	1.60749
0.3267	25.5902	-8.27219	2.7769	-7.25133	3.89655	-320.767	-20.3274	10.4107	5.4328	1.92899
0.3273	23.4352	-5.80948	3.99323	4.03437	-32.1153	-393.09	29.7199	13.4687	2.39302	1.60749
0.3280	23.4352	-4.29396	5.53085	14.7136	-42.4986	-433.373	68.7794	14.9805	-3.71888	1.60749
0.3287	23.1274	-4.92543	4.91121	11.0484	2.36292	-397.667	73.3646	13.1594	-6.14424	1.60749
0.3293	20.3952	-6.12521	2.47856	0.0527369	75.6136	-284.446	64.511	11.3384	-6.14424	1.286
0.3300	19.1638	-6.75668	2.18021	-3.29606	109.478	-166.941	54.7488	11.6477	-6.75866	1.286
0.3307	19.4716	-7.95646	1.26223	2.505	81.1006	-61.3751	34.601	10.72	-9.83078	1.60749
0.3313	20.0873	-8.27219	0.344244	12.8678	55.1652	-17.7193	22.3982	9.79228	-13.485	1.60749
0.3320	20.0873	-6.75668	0.344244	21.7276	76.5224	-0.321196	34.601	11.0292	-15.2959	1.60749
0.3327	22.5117	-7.07241	1.85892	31.1939	79.5783	103.131	63.5918	11.6477	-13.776	1.60749
0.3333	30.131	-10.4192	7.36682	34.5427	40.8173	178.505	91.0613	11.0292	-9.5074	1.60749
0.3340	35.0182	-13.7659	12.2321	22.6505	34.7168	99.758	97.168	11.3384	-4.94773	1.60749
0.3347	37.1731	-15.2815	16.2024	5.24732	51.2005	-32.9761	94.1147	14.7056	0.549747	1.60749
0.3353	40.8289	-19.2597	17.74	-8.7807	61.8791	-130.646	92.2869	18.0384	6.04722	1.286
0.3360	35.0182	-20.1437	9.79948	-17.6405	106.741	-201.443	74.886	22.024	5.4328	1.60749
0.3367	13.9688	-8.27219	-0.275395	-13.9753	138.776	-242.021	56.2702	30.8543	1.48755	1.286
0.3373	-4.65626	-2.46271	-5.46201	-4.82543	85.6787	-231.341	51.3891	37.5886	-1.26119	1.286
0.3380	-2.5013	-8.90366	-3.92438	-5.11548	11.826	-131.262	36.7457	43.9794	1.77859	1.60749
0.3387	13.6609	-10.1034	3.39654	-10.02	-14.7228	-6.42391	5.30372	55.2834	6.95269	1.60749
0.3393	21.5881	-8.58792	9.20279	-8.7807	-20.8233	50.3207	-27.0363	45.2163	6.04722	1.286
0.3400	20.703	-8.90366	8.8815	-8.7807	-33.3422	72.0014	-50.8397	17.1451	5.4328	1.286
0.3407	21.896	-7.32499	6.74718	-12.1559	-40.9649	59.4747	-57.8655	5.53178	8.79596	1.286
0.3413	17.9324	-3.09418	3.99323	-12.7623	-30.8998	-7.94959	-48.7055	14.3964	13.0646	1.286
0.3420	-0.692667	0.252586	-2.40971	-18.247	-11.0649	-51.8999	-39.8624	24.4635	16.1367	1.60749
0.3427	-16.547	-0.631465	-5.46201	-17.6405	-10.4514	-42.4514	-35.8899	26.2845	14.5845	1.286
0.3433	-13.8149	4.23082	-5.14071	0.369158	-21.7435	-42.4514	-24.5957	25.6661	10.9303	1.286
0.3440	-11.352	17.3653	-12.7829	6.46027	-4.04424	-59.8495	-5.6735	20.7871	6.3706	1.60749
0.3447	-17.7784	21.6593	-20.4022	-10.3101	31.3542	-85.1704	10.4912	11.9569	3.62187	1.60749
0.3453	-17.4706	12.503	-16.7532	-19.1699	45.3954	-166.353	14.7701	12.2661	5.75618	1.60749
0.3460	-10.7363	5.49375	-15.8352	-13.9753	42.3395	-264.612	13.5446	8.89895	8.50492	1.60749
0.3467	-6.15704	6.3778	-20.1038	-10.6265	50.2803	-281.394	13.851	1.27128	7.56711	1.60749
0.3473	-5.84919	5.74633	-12.7829	-7.56775	64.3215	-239.291	3.47595	4.32922	3.00744	1.286
0.3480	-4.65626	7.57758	3.99323	-0.843791	67.9795	-188.007	-13.608	4.63845	-1.58457	1.286
0.3487	0.846593	15.534	2.47856	6.46027	68.8997	-120.877	-29.7833	-3.91691	-2.19899	1.286
0.3493	6.04159	14.9026	-14.6189	7.69959	66.4573	-57.387	-41.6902	-5.73793	-2.19899	1.286
0.3500	4.81019	3.91508	-25.2905	6.17022	56.3808	-31.156	-44.4372	4.63845	-1.87561	1.286
0.3507	2.6937	-7.32499	-18.8875	6.77669	52.416	-30.2459	-41.3838	20.1687	-0.970142	1.60749
0.3513	7.8887	-12.2504	7.66517	7.09312	60.0501	-29.0147	-27.6491	29.3425	-1.26119	1.60749
0.3520	14.5845	-6.75668	23.8446	-2.68958	70.1152	-32.3605	-13.3121	16.8358	1.16417	1.286
0.3527	8.77378	-0.315733	21.389	-19.4599	63.7081	-11.9378	-20.021	-6.35639	5.4328	1.60749
0.3533	2.6937	1.19978	19.576	-23.4416	36.8525	64.6674	-30.7024	-25.9066	6.95269	1.60749
0.3540	7.8887	3.91508	15.9041	-15.5047	16.0974	130.887	-28.5683	-40.8527	5.14176	1.286
0.3547	8.15807	4.54655	19.2547	-4.82543	23.118	140.657	-23.3808	-31.404	-0.355719	0.642998
0.3553	0.846593	7.89331	27.1953	10.4419	45.3954	137.311	-16.0591	-0.549742	-4.94773	1.60749
0.3560	-6.15704	18.2493	16.8221	22.044	52.1093	130.298	-7.81824	12.541	-6.75866	2.57199
0.3567	-8.61985	16.7338	2.47856	21.4376	34.7168	92.7453	-5.37768	-1.78666	-8.60193	1.60749
0.3573	2.38585	3.34676	2.18021	20.8047	16.0974	46.9749	-1.71156	-0.858972	-10.1218	1.286
0.3580	14.5845	-3.97823	1.26223	22.9406	8.47472	20.4227	2.86316	33.0189	-10.1218	1.60749
0.3587	14.8923	-2.77845	-6.67833	18.9853	-2.81733	11.8842	-5.37768	40.6465	-7.69646	1.60749
0.3593	13.3531	1.19978	-9.73063	14.3972	-20.2212	6.98601	-18.1932	14.3964	-4.3333	1.286
0.3600	8.15807	5.74633	-9.11099	11.6549	-18.0741	-22.2963	-20.6338	18.0384	-4.00992	1.60749
0.3607	0.538741	3.91508	-5.76035	1.58211	4.80537	-60.7595	-29.4769	34.5307	-3.10446	1.60749
0.3613	1.4623	3.91508	-5.14071	-12.7623	18.5399	-63.1953	-48.3991	22.024	2.06964	1.60749
0.3620	5.42589	17.681	0.940934	-16.4276	13.0529	-36.3486	-54.1994	1.88974	6.95269	1.60749
0.3627	3.61726	24.0588	18.658	-12.4459	-5.87323	-5.83505	-55.7313	-7.28408	5.14176	1.60749
0.3633	0.538741	19.828	21.389	-9.70359	-20.2212	23.7685	-59.0805	-15.8394	1.48755	1.92899
0.3640	6.04159	7.00926	8.58315	-2.68958	-16.2451	43.0135	-52.0652	-16.1143	3.62187	1.60749
0.3647	9.08163	-20.4595	-3.32769	0.975633	-9.53122	46.6804	-45.3563	6.15024	5.4328	1.60749
0.3653	0.538741	-31.1312	-19.1859	-2.37316	-9.83795	44.2179	-45.9585	23.5358	2.06964	1.60749
0.3660	-8.61985	-11.619	-29.2607	-1.45027	-7.08877	41.4878	-41.6902	22.6425	-0.0646762	1.286
0.3667	-18.3557	3.6625	-23.7758	2.505	-3.43079	41.1666	-33.4494	5.84101	0.549747	0.964497
0.3673	-32.0936	1.83125	-19.1859	2.18858	-2.51061	43.9235	-27.3427	-34.7368	-1.26119	1.60749
0.3680	-38.8278	3.34676	-22.2382	1.29205	-1.60179	45.4492	-23.6871	-62.2239	-4.3333	1.60749
0.3687	-34.2485	11.2401	-21.0218	3.4279	-2.21524	46.0648	-20.021	-53.0501	-4.00992	1.286
0.3693	-24.4742	17.3653	-7.59632	7.09312	-6.48668	45.4492	-14.2207	-40.8527	-1.87561	1.286
0.3700	-15.9313	19.5123	-1.79007	7.09312	-11.0649	38.4364	-13.608	-36.8671	-2.49003	1.60749
0.3707	-8.312	16.4812	-7.29797	3.71795	-11.9737	32.9226	-15.7527	-19.7907	-4.00992	1.60749
0.3713	-2.5013	15.534	-4.84237	1.58211	-11.6669	41.4878	-10.5652	-3.60768	-4.00992	1.286
0.3720	-2.80915	20.3963	5.53085	4.64085	-11.6669	60.4116	0.116217	-9.41433	-4.94773	1.60749
0.3727	-4.04056	21.9118	11.0158	9.83544	-11.0649	83.9124	4.70151	-21.6117	-4.94773	1.60749
0.3733	-2.19344	17.9968	7.36682	11.3648	-10.7581	99.1692	-4.7649	-27.4184	-5.52981	0.964497
0.3740	0.230889	21.6593	-0.275395	11.6549	-6.17996	119.297	-12.393	-20.7184	-7.08204	1.286
0.3747	-0.076963	19.828	-7.89466	11.3648	-0.0795215	178.21	-8.12463	-14.2933	-6.75866	1.60749
0.3753	-5.54133	-2.46271	-12.4846	10.1255	-2.21524	235.57	-1.09878	-19.4815	-7.37308	1.60749
0.3760	-9.81278	-17.4284	-11.2453	13.1842	-5.87323	241.057	9.27623	-33.8435	-9.5074	1.286
0.3767	-8.312	-4.92543	-0.872085	16.243	-1.29506	213.301	23.6238	-64.9726	-9.5074	1.60749
0.3773	-8.00415	14.3343	9.79948	9.83544	2.97638	153.772	30.0263	-84.7977	-8.27855	1.60749
0.3780	-8.9277	19.5123	7.36682	0.369158	-3.73751	56.7446	26.3601	-63.1173	-7.37308	1.92899
0.3787	-5.54133	16.1655	-3.92438	0.975633	-12.8938	-30.8348	21.479	-11.5446	-7.37308	1.60749
0.3793	-1.57774	21.9118	-13.7009	8.91254	-13.5073	-68.0667	25.7579	41.8491	-7.98751	0.964497
0.3800	-4.04056	28.6685	-7.59632	10.1255	-10.7581	-89.1318	24.8387	65.6598	-7.69646	1.60749
0.3807	-6.77274	18.2493	11.3371	7.38317	-10.7581	-125.748	8.96984	53.7716	-5.85319	1.92899
0.3813	-3.7327	3.03103	12.5534	10.4419	-5.25978	-165.416	-7.20546	26.903	-4.94773	1.60749
0.3820	-2.80915	-3.97823	-0.275395	11.9713	1.76083	-193.199	-16.9677	8.58972	-4.62435	1.60749
0.3827	-4.65626	-3.97823	-3.92438	6.17022	2.66965	-199.918	-18.4996	4.63845	-4.00992	1.286
0.3833	-2.80915	0.252586	-3.0064	-2.68958	2.36292	-181.288	-10.8716	0.343589	-3.71888	1.286
0.3840	0.230889	3.34676	-1.79007	-7.25133	3.2831	-134.313	-15.1399	-13.0907	-1.58457	1.60749
0.3847	0.230889	2.08383	-4.24568	-3.61248	8.47472	-63.1953	-34.9708	-22.5394	-0.0646762	1.60749
0.3853	0.230889	-1.83125	-20.1038	3.11148	20.9823	5.78152	-38.6369	-14.9118	-4.62435	0.642998
0.3860	5.42589	4.86228	-36.88	6.46027	27.6962	31.7181	-20.3274	-7.90254	-7.37308	1.286
0.3867	8.15807	21.6593	-39.634	3.4279	23.118	16.7557	-9.03323	-2.09589	-5.52981	1.92899
0.3873	9.08163	34.1623	-31.6934	-0.237316	15.1886	1.20448	-9.33962	38.2071	-2.49003	1.286
0.3880	15.8159	39.3403	-21.9398	-1.16021	9.69026	2.73016	-12.0866	97.9915	1.77859	0.964497
0.3887	20.703	46.0338	-15.2156	-4.50901	9.99699	8.21726	-17.2741	123.932	1.48755	1.60749
0.3893	24.6666	59.484	21.389	-2.97964	13.0529	3.02459	-12.0866	119.672	0.873128	1.92899
0.3900	24.6666	39.0245	71.4421	1.89853	12.4394	-4.60381	-0.190173	110.807	1.77859	1.60749
0.3907	10.0052	-31.447	69.9274	0.369158	8.47472	-8.56522	-0.190173	72.669	-0.646762	1.60749
0.3913	-6.77274	-69.5874	36.9718	-0.843791	6.339	-8.56522	-5.37768	11.9569	-2.19899	1.60749
0.3920	-14.0842	-39.0877	4.91121	3.4279	8.47472	-0.321196	-6.59267	-10.0328	-0.970142	1.60749
0.3927	-13.8149	-18.6282	-16.1336	4.32443	8.168	7.60163	-9.33962	7.07793	-2.19899	1.60749
0.3933	-11.0442	-27.4687	-14.2976	1.29205	4.80537	10.3586	-13.3121	18.6569	-4.94773	1.60749
0.3940	-10.7363	-14.9657	-13.0813	2.82143	4.80537	16.1401	-11.7802	6.7687	-3.71888	1.60749
0.3947	-14.6999	2.08383	-19.4842	4.03437	7.86127	18.897	-10.8716	-25.9066	-2.81341	1.60749
0.3953	-19.8949	0.884051	-11.8649	0.68558	6.63437	11.8842	-16.3549	-49.6829	-4.3333	1.286
0.3960	-16.8549	12.8187	0.940934	0.369158	3.89655	6.98601	-17.5805	-45.7317	-4.00992	1.286
0.3967	-8.312	38.1405	5.8292	3.11148	2.66965	7.60163	-12.6994	-51.5383	-2.19899	1.60749
0.3973	-7.38844	43.0028	10.4191	1.58211	0.840656	6.98601	-11.4738	-78.3726	-3.10446	1.286
0.3980	-7.38844	24.0588	11.0158	0.369158	-0.374887	11.2686	-12.393	-83.5608	-4.3333	1.286
0.3987	-2.5013	1.19978	11.3371	1.58211	-0.0795215	19.5126	-10.8716	-68.3054	-3.10446	1.60749
0.3993	-0.692667	-13.7659	20.1727	3.71795	0.53393	18.2814	-7.20546	-62.2239	-2.19899	1.60749
0.4000	0.230889	-10.9875	24.143	4.95727	-0.374887	7.3072	-4.15212	-67.1029	-3.10446	1.60749
0.4007	1.15444	3.6625	16.8221	5.56375	-1.90852	9.44851	-4.45851	-64.6634	-2.81341	1.60749
0.4013	0.538741	17.681	5.8292	5.56375	-2.51061	28.6667	-4.45851	-51.5383	-3.10446	1.286
0.4020	1.77015	30.8155	-1.19338	4.32443	-2.81733	35.0639	2.86316	-44.2199	-4.62435	1.60749
0.4027	5.42589	37.8248	4.31453	4.95727	-4.35096	25.2942	13.5446	-56.108	-5.52981	1.60749
0.4033	6.96515	30.4998	20.494	5.8538	-6.17996	15.8457	19.3449	-63.4265	-6.46762	1.60749
0.4040	9.08163	7.57758	36.9718	7.09312	-6.17996	11.563	23.3174	-44.804	-5.23877	1.60749
0.4047	13.9688	-19.8911	33.2999	6.46027	-6.17996	11.2686	21.7854	-39.0317	-4.00992	1.286
0.4053	18.2402	-40.6032	1.26223	3.4279	-8.00895	11.8842	12.9424	-37.4855	-4.94773	1.286
0.4060	20.703	-54.3691	-12.7829	2.505	-8.31568	13.7043	5.9165	-2.71435	-4.3333	1.60749
0.4067	17.3167	-47.9282	3.69489	3.71795	-7.3955	15.8457	6.52928	37.8978	-3.10446	1.60749
0.4073	4.81019	-21.4067	-2.08841	4.95727	-7.3955	14.0255	11.7168	69.6111	-3.3955	1.60749
0.4080	-8.61985	-0.631465	-25.2905	5.8538	-8.92913	10.9742	14.7701	81.8428	-5.85319	1.286
0.4087	-18.6635	14.0185	-30.4771	6.17022	-8.92913	9.74294	16.5979	61.3993	-6.14424	1.286
0.4093	-21.742	29.2368	-22.5365	4.95727	-8.6224	9.44851	14.1573	28.1056	-4.3333	1.286
0.4100	-14.6999	24.3745	-9.11099	1.58211	-10.1447	8.21726	-3.84573	1.88974	-3.3955	1.60749
0.4107	-6.77274	2.7153	10.0978	-0.237316	-9.53122	6.69158	-25.2085	6.15024	-2.49003	1.60749
0.4113	0.538741	-9.47198	23.225	0.975633	-7.08877	8.83288	-29.181	30.8543	-0.646762	1.60749
0.4120	4.81019	5.74633	11.6354	0.369158	-6.79341	9.12731	-23.6871	17.7292	-0.355719	1.60749
0.4127	3.88663	45.1497	-12.7829	-0.237316	-7.3955	5.46033	-17.5805	-17.9697	-1.26119	1.92899
0.4133	9.38948	75.9652	-20.7235	2.505	-5.56651	3.64022	-8.72684	-26.4907	-0.355719	1.92899
0.4140	17.6245	79.6277	-22.5365	2.18858	-5.56651	1.49891	-5.37768	-14.9118	-0.0646762	1.60749
0.4147	9.69733	45.1497	-19.1859	-1.76669	-7.08877	-1.55245	-8.12463	10.72	-2.81341	0.642998
0.4153	-2.19344	-14.65	6.44884	-1.45027	-5.56651	2.11454	-5.37768	46.1096	-2.81341	0.964497
0.4160	-0.962037	-30.2472	15.6057	1.58211	-3.43079	9.12731	0.116217	80.6059	-0.0646762	2.25049
0.4167	-4.04056	-10.4192	4.31453	0.975633	-4.64633	10.653	-0.190173	101.977	-0.646762	1.92899
0.4173	-16.2392	-29.0474	28.7329	0.0527369	-5.25978	10.3586	-1.09878	109.605	-1.58457	1.286
0.4180	-21.4342	-44.5814	55.5839	0.68558	-4.04424	9.44851	1.64817	78.1664	-0.646762	1.60749
0.4187	-23.2428	-6.12521	26.2773	0.68558	-4.64633	6.39715	1.03539	-14.9118	-0.646762	1.60749
0.4193	-25.3978	29.8683	-16.7532	0.369158	-5.25978	4.25584	-0.485998	-83.5608	-0.970142	1.286
0.4200	-21.4342	22.2276	-27.1264	0.369158	-4.64633	3.93465	0.728998	-71.0542	-0.646762	1.286
0.4207	-12.5834	-3.09418	-24.3725	0.68558	-4.95305	3.64022	1.34178	-66.4844	-0.646762	1.60749
0.4213	-4.34841	-8.58792	-21.6415	0.975633	-4.95305	3.93465	2.26095	-101.29	-0.0646762	1.60749
0.4220	-0.692667	3.91508	-14.9172	1.89853	-3.73751	4.87147	5.0079	-104.314	0.873128	1.60749
0.4227	-1.26989	9.40883	-11.5666	1.29205	-3.12406	3.93465	4.70151	-79.3003	0.549747	1.60749
0.4233	-0.692667	5.74633	-10.6486	-0.553738	-3.12406	1.82011	3.16956	-57.345	-0.355719	1.286
0.4240	3.88663	-0.315733	-6.05869	-0.553738	-3.12406	0.883288	3.16956	-31.404	-0.355719	1.286
0.4247	8.77378	-10.9875	-5.14071	0.369158	-3.43079	0.883288	3.16956	-9.72356	-0.355719	1.60749
0.4253	8.77378	-17.4284	-10.6486	0.68558	-3.12406	0.883288	2.55677	-5.15383	-0.646762	1.60749
0.4260	8.46593	-11.619	-9.43229	2.505	-1.29506	2.40897	5.30372	-7.90254	0.873128	1.60749
0.4267	9.69733	-6.44094	-1.19338	3.11148	-1.29506	3.02459	7.44845	-1.47743	2.06964	1.60749
0.4273	8.46593	-6.12521	7.04553	-0.237316	-2.81733	0.294429	6.22289	4.01999	0.873128	1.60749
0.4280	10.6209	2.08383	12.2321	-0.843791	-2.51061	-0.936821	6.52928	-15.221	-0.0646762	1.60749
0.4287	11.8523	10.9875	4.31453	-0.237316	-1.60179	-1.23125	7.14206	-39.0317	0.258705	1.286
0.4293	4.81019	4.23082	-9.43229	-0.843791	-1.60179	-3.07813	3.47595	-38.7225	-0.970142	1.286
0.4300	3.00156	-11.9347	-10.947	0.369158	-0.988339	-1.84688	3.16956	-43.2922	-0.646762	1.286
0.4307	6.6573	-5.24116	-1.79007	2.82143	-0.374887	0.588859	7.44845	-48.1711	1.48755	1.60749
0.4313	5.11804	19.828	2.47856	0.68558	-1.29506	-1.84688	5.9165	-21.6117	0.258705	1.60749
0.4320	8.77378	19.1965	6.74718	-0.553738	-1.29506	-3.37255	3.16956	-6.35639	-1.26119	1.60749
0.4327	17.9324	-1.26293	26.2773	1.58211	-0.0795215	-1.23125	6.22289	-17.9697	-0.0646762	1.286
0.4333	16.1237	-9.15624	33.5982	0.68558	-0.0795215	-2.4625	6.52928	-19.1723	-0.355719	1.286
0.4340	10.9287	-18.0599	11.9338	-1.45027	-0.374887	-3.98818	5.61011	-19.7907	-1.26119	1.60749
0.4347	11.5444	-36.3724	-14.6189	1.58211	1.76083	-0.321196	10.1954	-25.2881	1.16417	1.60749
0.4353	9.69733	-41.8661	-30.4771	1.89853	1.14738	-0.642391	12.3296	-24.3604	1.77859	1.60749
0.4360	5.73374	-27.4687	-20.7235	-2.37316	-0.988339	-4.89823	8.05067	-8.21177	-0.970142	1.60749
0.4367	10.6209	-6.44094	6.74718	-2.08311	-0.0795215	-3.69375	9.58262	24.1543	-0.646762	1.60749
0.4373	17.0088	7.57758	16.5237	-0.553738	0.840656	-2.4625	12.9424	61.9834	0.258705	1.286
0.4380	16.7394	12.8187	13.7698	-3.29606	-0.988339	-4.89823	10.1954	79.4034	-1.87561	1.60749
0.4387	13.9688	6.69353	15.6057	-2.08311	0.227204	-3.07813	11.7168	65.969	-0.646762	1.60749
0.4393	9.69733	-10.4192	9.50113	2.505	3.2831	0.294429	15.9851	59.8532	2.06964	1.60749
0.4400	0.230889	-14.3974	-3.62604	0.975633	2.97638	-1.84688	12.3296	51.607	0.258705	1.60749
0.4407	-8.00415	-7.95646	-15.8352	-1.76669	2.06756	-4.30938	7.74428	32.0912	-2.19899	1.60749
0.4413	-7.38844	-9.15624	-12.7829	0.0527369	2.66965	-2.4625	9.88901	23.2266	-1.26119	1.60749
0.4420	-8.61985	-10.9875	13.7698	-0.553738	2.06756	-3.37255	7.74428	8.89895	-0.970142	1.60749
0.4427	22.8195	-22.2907	43.0764	-2.37316	3.89655	-6.42391	8.35706	-14.9118	-2.49003	1.286
0.4433	43.8689	-35.7409	44.2927	1.29205	4.20328	2.11454	18.1299	-40.5435	0.873128	1.60749
0.4440	10.6209	-30.5629	4.91121	2.18858	1.14738	9.74294	12.3296	-39.0317	3.00744	1.60749
0.4447	10.0052	-30.2472	-27.1264	-2.37316	0.840656	0.883288	2.55677	-15.221	-1.58457	0.642998
0.4453	19.4716	-41.5504	-19.4842	-1.76669	3.58983	-4.30938	7.14206	-10.0328	-3.10446	0.321499
0.4460	12.1601	-45.7812	-10.947	1.29205	5.72555	-2.16807	10.1954	-4.22614	-0.970142	1.92899
0.4467	9.38948	-46.0969	-17.3499	-1.16021	3.58983	-5.51386	6.52928	10.72	-2.81341	1.92899
0.4473	9.38948	-43.0659	-16.1336	-0.553738	2.97638	-4.60381	6.52928	9.51741	-3.10446	1.286
0.4480	12.7374	-36.625	-9.43229	4.03437	5.72555	0.294429	10.4912	8.89895	0.258705	1.60749
0.4487	6.34944	-32.9625	-10.3503	2.18858	5.1121	-2.16807	7.74428	16.5266	-0.646762	1.60749
0.4493	-0.962037	-36.9407	-12.1633	-0.843791	2.97638	-4.89823	4.39512	17.1451	-2.81341	1.60749
0.4500	1.15444	-18.3125	-10.947	0.369158	3.58983	-4.30938	5.30372	17.1451	-2.19899	1.60749
0.4507	-0.384815	46.0338	-9.73063	-0.237316	2.97638	-5.51386	3.16956	24.7727	-3.10446	1.60749
0.4513	-4.34841	78.1122	-7.59632	-1.16021	2.36292	-5.51386	0.728998	30.2702	-3.71888	1.286
0.4520	-0.384815	43.0028	-3.92438	2.505	4.49865	-1.55245	3.78234	16.8358	-0.355719	1.286
0.4527	2.078	15.534	-2.08841	3.71795	4.20328	-0.936821	5.30372	-6.66562	0.549747	1.286
0.4533	-1.88559	15.2183	-5.14071	0.68558	2.36292	-3.98818	1.64817	-10.6513	-1.87561	1.60749
0.4540	-2.19344	11.2401	-13.4026	0.0527369	2.66965	-3.98818	-0.792389	8.89895	-3.10446	1.60749
0.4547	3.61726	7.89331	-24.0741	0.68558	2.66965	-3.07813	-0.485998	23.5358	-3.10446	1.286
0.4553	8.46593	9.72456	-21.6415	-0.237316	1.45411	-5.21943	-1.09878	29.3425	-3.3955	1.286
0.4560	6.6573	-9.78771	3.69489	1.58211	2.06756	-4.30938	0.422607	65.3506	-2.49003	1.60749
0.4567	-0.076963	-49.7594	24.7626	4.64085	4.20328	-0.936821	3.78234	127.918	-0.646762	1.60749
0.4573	-5.54133	-74.8286	25.061	2.82143	3.2831	-1.55245	1.64817	152.038	-1.26119	1.60749
0.4580	-8.61985	-81.2064	23.225	0.68558	2.36292	-3.07813	-0.792389	118.435	-2.81341	1.60749
0.4587	-16.2392	-84.2374	20.1727	1.29205	2.97638	-3.07813	1.34178	81.2244	-3.10446	1.60749
0.4593	-25.0899	-56.7687	1.56057	2.18858	2.66965	-3.07813	2.55677	56.486	-3.71888	1.60749
0.4600	-18.6635	14.0185	-17.3499	1.89853	2.36292	-1.23125	0.422607	0.652819	-3.71888	1.60749
0.4607	-2.80915	68.6403	-23.4545	2.505	3.58983	2.11454	0.422607	-60.0593	-1.87561	1.60749
0.4613	-2.80915	70.1558	-33.5294	3.11148	4.20328	3.34579	2.26095	-64.9726	-0.355719	1.60749
0.4620	-12.5834	35.6778	-42.3879	1.29205	3.58983	1.82011	0.422607	-56.4173	-1.58457	1.60749
0.4627	-12.5834	-7.64073	-29.8804	0.0527369	2.97638	0.588859	-2.01795	-64.3542	-2.49003	1.286
0.4633	-15.0078	24.0588	-8.5143	-0.553738	2.06756	0.294429	-3.53934	-50.9198	-2.19899	1.60749
0.4640	-24.1664	120.484	8.58315	-0.553738	1.45411	0.883288	-4.15212	-19.7907	-1.87561	1.60749
0.4647	-26.3213	136.965	10.0978	2.18858	2.66965	2.73016	-2.01795	2.78307	-0.646762	1.60749
0.4653	-22.3577	78.9963	-7.29797	4.03437	3.89655	3.34579	1.95456	31.4727	0.258705	1.60749
0.4660	-19.5871	40.2243	-12.1633	3.11148	3.58983	1.20448	3.16956	78.1664	-1.26119	1.286
0.4667	-20.2028	25.3217	-0.57374	0.975633	2.66965	-3.07813	0.422607	94.6587	-3.3955	1.286
0.4673	-23.5507	24.6903	2.7769	1.58211	2.66965	-7.36073	2.86316	54.0465	-4.3333	1.286
0.4680	-25.0899	35.362	-1.19338	4.03437	2.66965	-10.7065	10.7976	-0.549742	-4.94773	1.60749
0.4687	-23.8585	41.1715	-2.08841	5.56375	2.97638	-10.0909	12.0232	-28.6553	-4.94773	1.60749
0.4693	-21.742	37.8248	3.69489	5.56375	3.58983	-4.30938	7.14206	-25.5974	-2.19899	1.60749
0.4700	-19.2792	32.0153	4.61287	4.32443	3.2831	-0.0267663	1.64817	-10.0328	-0.0646762	1.60749
0.4707	-18.0863	22.2276	0.344244	1.29205	2.36292	-0.936821	-4.45851	-5.46306	-1.26119	1.60749
0.4713	-12.8913	7.89331	0.940934	0.369158	2.06756	-1.55245	-5.6735	-2.71435	-2.19899	1.286
0.4720	-7.6963	3.03103	1.85892	1.58211	2.06756	-0.642391	-3.53934	8.58972	-1.87561	1.60749
0.4727	-9.23556	7.89331	9.50113	3.11148	2.06756	-0.0267663	-2.92656	24.7727	-1.26119	1.286
0.4733	-12.8913	-9.47198	19.576	5.24732	2.06756	0.588859	-2.01795	62.2926	-0.355719	1.60749
0.4740	-15.9313	-40.6032	9.79948	6.17022	2.06756	0.588859	-1.71156	91.6008	0.258705	1.92899
0.4747	-21.742	-30.8786	-7.89466	4.64085	1.14738	-0.936821	-5.37768	60.1624	-1.87561	0.642998
0.4753	-26.3213	-7.64073	-10.947	3.11148	0.53393	-3.37255	-6.89907	6.45947	-4.00992	0.321499
0.4760	-24.7821	0.568318	-7.89466	3.4279	1.14738	-3.98818	-2.01795	-32.9158	-2.19899	1.60749
0.4767	-19.8949	57.337	-8.19301	3.11148	0.840656	-1.84688	-0.190173	-64.3542	-1.26119	1.60749
0.4773	-17.7784	111.643	-11.5666	2.505	0.227204	2.11454	-3.23295	-61.2962	-1.58457	1.286
0.4780	-15.6235	70.7872	-13.9993	2.505	0.227204	3.34579	-4.45851	-13.4	-0.355719	1.60749
0.4787	-14.0842	10.0403	-7.59632	2.505	0.227204	0.883288	-5.97989	34.2214	-0.0646762	1.60749
0.4793	-19.8949	3.91508	-2.40971	0.68558	-1.60179	-2.4625	-11.7802	40.0281	-1.87561	1.60749
0.4800	-21.4342	21.9118	-8.81265	-0.843791	-2.51061	-2.4625	-15.7527	28.4148	-2.49003	1.60749
0.4807	-15.3156	34.1623	-14.6189	-0.237316	-0.988339	-0.0267663	-13.3121	22.3333	-0.970142	1.60749
0.4813	-11.0442	38.1405	-14.6189	-0.237316	-0.374887	-0.642391	-8.72684	12.541	-0.970142	1.60749
0.4820	-8.61985	29.2368	-10.3503	-0.553738	-1.60179	-4.89823	-3.53934	19.2753	-1.87561	0.964497
0.4827	-11.0442	16.1655	11.0158	0.68558	-1.60179	-6.12948	2.55677	43.3953	-1.58457	0.321499
0.4833	-18.0863	10.9875	36.0538	-0.237316	-0.988339	-5.51386	1.64817	45.5255	-1.26119	1.286
0.4840	-19.5871	17.681	27.4936	-3.29606	-1.90852	-3.98818	-3.84573	20.1687	-1.87561	1.60749
0.4847	-11.9677	32.6467	-2.40971	-2.97964	-1.90852	-0.0267663	-3.53934	-7.28408	-0.355719	1.286
0.4853	-4.65626	20.0806	-7.89466	-2.97964	-1.60179	1.49891	-2.01795	-27.7276	0.873128	1.286
0.4860	-5.84919	-25.0692	6.15049	-4.50901	-2.81733	1.20448	-4.45851	-27.1092	0.549747	1.286
0.4867	-9.23556	-32.9625	3.99323	-3.61248	-2.81733	2.11454	-5.37768	-10.6513	1.16417	1.60749
0.4873	-12.2756	17.681	-20.1038	-3.29606	-2.21524	2.40897	-4.7649	-11.8538	1.48755	1.286
0.4880	-13.1991	68.6403	-41.4699	-5.74832	-3.12406	-1.23125	-6.89907	-42.0553	0.258705	1.286
0.4887	-6.46489	90.2995	-27.1264	-4.21895	-2.51061	-3.37255	-5.97989	-77.4793	0.549747	1.60749
0.4893	-1.26989	99.7715	1.56057	-1.16021	-1.60179	-4.60381	-2.32434	-73.1844	1.48755	1.60749
0.4900	2.6937	61.631	9.20279	-2.37316	-2.81733	-6.74511	-3.84573	-5.15383	0.258705	1.60749
0.4907	12.1601	-51.275	16.5237	-1.45027	-2.81733	-4.89823	-4.7649	105.928	-0.355719	1.60749
0.4913	15.508	-121.178	36.3522	1.29205	-1.29506	-0.936821	0.116217	177.945	1.48755	1.60749
0.4920	2.38585	-109.875	40.0241	-0.237316	-1.29506	-1.55245	-0.485998	154.752	1.48755	1.60749
0.4927	-10.1206	-165.76	29.9492	-1.76669	-1.90852	-2.75693	-3.84573	114.484	1.16417	1.60749
0.4933	-11.9677	-234.716	2.18021	-0.843791	-1.29506	-1.84688	-1.71156	107.475	2.06964	1.60749
0.4940	-12.5834	-142.522	-61	-0.843791	-1.29506	-3.98818	1.34178	76.0362	1.16417	1.60749
0.4947	-10.1206	-20.7752	-89.3887	-1.16021	-1.29506	-7.03954	3.78234	13.4687	0.873128	1.60749
0.4953	2.6937	-0.315733	-46.9549	-0.237316	-0.374887	-5.51386	6.83567	-45.1132	2.68406	1.286
0.4960	9.08163	17.3653	11.0158	-0.553738	-1.29506	-1.55245	3.47595	-69.2331	2.06964	1.286
0.4967	1.4623	7.00926	31.1656	-1.16021	-2.21524	-1.84688	-3.53934	-31.0948	-0.355719	1.286
0.4973	-3.42485	-74.8286	20.7923	-0.553738	-1.60179	-4.30938	-2.32434	6.45947	-0.355719	1.286
0.4980	-1.88559	-118.715	30.5459	0.369158	-1.29506	-3.98818	1.95456	31.4727	-0.355719	1.286
0.4987	-3.42485	-100.719	76.3304	0.369158	-1.90852	-1.23125	0.728998	108.677	-0.646762	1.286
0.4993	-9.81278	-80.5749	114.473	1.89853	-2.51061	1.20448	-1.09878	141.937	0.873128	1.60749
0.5000	-22.3577	-52.5379	59.2329	1.89853	-3.43079	-0.321196	-3.84573	58.9598	1.48755	1.60749
0.5007	-40.6364	-7.64073	-35.6637	-1.16021	-4.95305	-4.30938	-8.72684	-21.0276	-0.355719	1.60749
0.5013	-49.4872	-20.4595	-50.0072	-0.843791	-4.95305	-5.21943	-7.20546	-25.9066	-0.355719	1.286
0.5020	-43.4071	-45.7812	-35.067	0.975633	-4.64633	-5.51386	-1.71156	-30.1671	1.48755	1.286
0.5027	-37.5964	82.0905	-57.3281	-0.237316	-4.64633	-7.03954	0.422607	-60.0593	1.48755	0.964497
0.5033	-28.7457	236.168	-75.0452	-0.843791	-3.43079	-5.83505	3.16956	-53.6686	1.77859	1.60749
0.5040	-14.6999	207.499	-65.2687	-0.237316	-2.81733	-3.69375	6.22289	-49.4081	2.06964	1.60749
0.5047	-6.46489	120.484	-45.4402	-1.16021	-3.43079	-3.69375	5.0079	-85.7254	0.258705	0.321499
0.5053	-0.692667	91.4993	-16.7532	-0.553738	-2.21524	-2.4625	5.9165	-90.6043	0.549747	0.642998
0.5060	1.4623	69.2717	-4.24568	2.18858	-0.988339	0.588859	8.05067	-38.4132	2.68406	1.92899
0.5067	-1.57774	55.8215	-17.0516	0.975633	-2.51061	2.11454	5.0079	15.2897	1.77859	1.60749
0.5073	-0.384815	57.337	-4.84237	-0.237316	-3.73751	3.02459	2.26095	41.5399	0.873128	1.60749
0.5080	2.078	53.9903	23.225	1.58211	-3.73751	3.34579	2.55677	45.2163	1.77859	1.286
0.5087	2.078	48.1808	14.9861	0.68558	-4.64633	-0.0267663	0.728998	9.20818	1.48755	1.286
0.5093	3.61726	46.0338	-2.40971	-0.237316	-4.64633	-2.4625	0.116217	-47.2435	1.16417	1.286
0.5100	5.11804	47.2967	-1.79007	1.29205	-4.35096	-1.84688	1.34178	-62.808	2.39302	1.60749
0.5107	2.38585	46.0338	0.642589	0.68558	-4.95305	-2.4625	-0.190173	-26.2158	1.48755	1.60749
0.5113	1.15444	42.687	3.69489	0.0527369	-4.95305	-3.07813	-0.485998	9.20818	1.16417	1.92899
0.5120	3.30941	35.9935	-0.275395	1.29205	-4.04424	-1.84688	1.95456	15.9082	2.06964	1.92899
0.5127	1.77015	21.0278	-14.9172	0.369158	-4.35096	-2.4625	1.03539	14.9805	2.39302	1.60749
0.5133	0.230889	9.40883	-17.6712	-1.45027	-4.64633	-3.98818	-1.71156	15.2897	1.16417	1.286
0.5140	0.538741	11.2401	-4.54402	-0.843791	-4.95305	-3.07813	-1.09878	7.07793	1.16417	1.286
0.5147	0.538741	14.3343	4.31453	-0.553738	-4.95305	-3.69375	1.03539	-16.7328	1.48755	1.286
0.5153	3.00156	15.2183	5.8292	-1.45027	-4.04424	-6.42391	1.95456	-33.8435	1.48755	1.286
0.5160	7.58085	15.2183	9.20279	-0.237316	-3.73751	-4.60381	4.08873	-33.225	2.06964	1.286
0.5167	10.9287	12.503	6.15049	0.369158	-3.73751	-2.4625	2.86316	-34.1527	2.68406	1.286
0.5173	10.9287	15.534	-1.49172	-1.45027	-4.35096	-3.98818	-1.09878	-33.8435	1.77859	1.286
0.5180	13.0452	21.0278	9.79948	0.369158	-3.43079	-2.4625	-0.792389	-25.5974	2.39302	1.60749
0.5187	14.8923	17.9968	27.1953	2.18858	-1.90852	-0.936821	-0.792389	-15.221	2.68406	1.60749
0.5193	9.08163	-0.947198	27.1953	-0.553738	-2.21524	-3.98818	-5.07129	-1.47743	1.77859	1.60749
0.5200	7.58085	-45.5286	24.4413	-1.45027	-3.12406	-4.89823	-6.59267	14.9805	2.06964	1.286
0.5207	11.8523	-79.3752	10.4191	0.68558	-2.51061	-3.69375	-5.6735	15.2897	1.77859	1.60749
0.5213	13.3531	-76.0284	-18.5892	0.975633	-2.51061	-3.69375	-6.59267	-5.73793	0.549747	1.286
0.5220	16.1237	-65.9249	-29.2607	1.89853	-1.60179	-1.84688	-4.15212	-21.0276	1.48755	1.60749
0.5227	20.3952	-68.3877	-21.6415	3.71795	-0.0795215	0.883288	0.728998	-3.29845	3.62187	1.92899
0.5233	21.2803	-85.753	-2.40971	3.11148	-0.374887	-1.55245	1.95456	23.2266	2.68406	1.60749
0.5240	20.3952	-110.506	15.6057	1.29205	-0.988339	-5.83505	1.34178	29.0332	1.16417	1.286
0.5247	18.5481	-125.156	7.66517	0.369158	-0.988339	-7.94959	2.86316	36.6609	1.77859	1.60749
0.5253	14.5845	-101.034	3.0982	-0.237316	-1.29506	-6.74511	1.03539	22.024	2.68406	1.286
0.5260	12.1601	-23.8062	11.9338	-0.843791	-1.60179	-4.89823	-3.53934	-32.2973	3.00744	1.286
0.5267	14.8923	57.9685	18.0384	-1.45027	-0.988339	-6.42391	-7.20546	-56.4173	3.00744	1.286
0.5273	12.4295	57.337	40.0241	-3.29606	-1.90852	-11.001	-11.4738	-43.9106	2.68406	1.286
0.5280	6.04159	-44.2657	59.2329	-3.29606	-1.60179	-14.6679	-15.4463	-41.7804	2.39302	1.286
0.5287	5.11804	-151.11	46.7254	-0.553738	0.840656	-15.8992	-15.7527	-36.5922	3.29848	1.286
0.5293	5.11804	-151.425	29.3296	0.369158	0.840656	-18.6294	-16.6613	-35.6645	3.00744	1.286
0.5300	6.34944	-62.2625	15.6057	-0.553738	0.840656	-11.3221	-18.806	-67.4121	1.48755	1.60749
0.5307	9.08163	8.20905	-4.24568	-0.237316	2.66965	8.21726	-16.9677	-85.4162	1.16417	1.286
0.5313	10.0052	25.5743	-13.4026	1.29205	2.97638	17.0769	-14.5271	-71.3634	-0.355719	1.286
0.5320	10.313	14.0185	-12.1633	2.82143	2.97638	18.897	-12.0866	-60.0593	-1.87561	1.286
0.5327	10.0052	13.3871	-20.4022	2.82143	3.2831	19.1914	-5.37768	-55.7988	-1.26119	1.286
0.5333	9.69733	66.1775	-31.6934	1.58211	2.36292	7.92283	-1.40517	-60.6778	-0.646762	1.286
0.5340	10.6209	136.396	-20.7235	1.58211	0.227204	-2.4625	-2.63073	-53.0501	-0.355719	1.60749
0.5347	12.1601	125.093	5.23251	3.11148	0.227204	6.69158	2.55677	-24.6697	-0.355719	0.642998
0.5353	11.5444	64.662	11.0158	3.11148	1.76083	24.9997	9.27623	-9.41433	-0.646762	0
0.5360	9.38948	43.6342	1.56057	2.82143	2.06756	21.9484	10.4912	-8.21177	-1.26119	1.286
0.5367	9.69733	43.6342	-0.275395	4.03437	2.97638	4.55027	11.4104	-8.48664	-2.49003	1.92899
0.5373	10.0052	35.9935	2.7769	5.56375	4.20328	-6.74511	10.7976	-11.5446	-2.19899	1.286
0.5380	10.313	28.6685	1.26223	5.8538	4.20328	-17.1037	12.636	-14.2933	-1.87561	1.286
0.5387	10.0052	23.4905	-0.57374	6.46027	5.1121	-31.4504	20.8768	-8.79587	-1.87561	1.60749
0.5393	8.77378	12.1873	1.56057	4.03437	6.94109	-46.1183	20.5704	2.78307	-1.26119	1.60749
0.5400	13.9688	1.51552	-3.0064	-2.37316	6.63437	-44.8871	3.47595	0.343589	-0.0646762	1.60749
0.5407	18.8559	15.534	-1.79007	-5.4319	6.339	-17.7193	-12.6994	-10.0328	3.00744	1.286
0.5413	19.4716	30.8155	16.5237	-3.90253	7.24782	6.39715	-17.5805	7.66203	4.81837	1.286
0.5420	20.3952	21.3435	22.0087	-1.76669	7.55454	8.83288	-19.1019	46.7281	4.23629	1.286
0.5427	20.3952	20.3963	34.2179	-1.76669	6.94109	4.25584	-21.5424	84.5915	3.62187	1.286
0.5433	20.0873	48.1808	57.4199	-2.97964	6.339	0.883288	-20.6338	134.309	2.39302	1.286
0.5440	15.508	53.9903	43.9714	-3.29606	6.339	-2.4625	-17.2741	184.06	0.873128	1.286
0.5447	7.58085	11.2401	17.1204	-2.97964	6.63437	-5.21943	-13.9143	157.501	0.873128	1.286
0.5453	3.88663	-4.29396	6.74718	-1.16021	7.24782	-4.60381	-9.33962	10.72	1.77859	1.286
0.5460	5.42589	6.06206	9.79948	1.58211	7.24782	-2.16807	-4.45851	-142.486	3.29848	1.60749
0.5467	6.34944	-13.1345	47.345	1.29205	6.94109	-2.75693	-3.53934	-169.321	3.00744	1.60749
0.5473	2.6937	-29.0474	81.8153	0.0527369	7.55454	-3.69375	-4.7649	-112.56	1.77859	1.60749
0.5480	0.846593	-36.0567	33.0015	-0.237316	8.47472	-3.69375	-7.20546	-56.4173	0.873128	1.286
0.5487	-0.692667	-54.6849	-51.5448	-2.08311	7.55454	-6.42391	-9.9524	-16.1143	-0.0646762	1.286
0.5493	-3.7327	-64.7252	-74.4256	-2.08311	7.24782	-6.74511	-9.33962	-2.09589	-0.0646762	1.60749
0.5500	2.078	-63.5254	-57.0298	0.975633	8.78145	-3.69375	-3.23295	-29.8579	2.06964	1.60749
0.5507	9.38948	-65.6724	-45.1189	0.975633	8.78145	-3.69375	-1.71156	-64.0449	2.06964	1.286
0.5513	15.508	-54.9375	-34.149	-0.553738	7.24782	-5.21943	-4.45851	-63.4265	0.549747	1.60749
0.5520	24.6666	-19.8911	3.99323	-0.553738	7.55454	-5.83505	-5.6735	-36.283	-0.0646762	1.60749
0.5527	21.896	-9.15624	67.4718	-0.843791	8.168	-5.83505	-7.51185	4.91332	-0.646762	1.286
0.5533	7.273	-24.4377	110.204	-0.237316	7.86127	-4.60381	-8.72684	49.4768	-0.0646762	1.286
0.5540	-6.46489	17.681	90.6739	0.975633	8.78145	-2.75693	-7.51185	82.1521	1.16417	1.286
0.5547	-15.6235	71.6713	8.58315	0.68558	8.78145	-2.75693	-7.51185	84.8664	0.873128	1.60749
0.5553	-16.547	36.8776	-50.6268	1.29205	8.47472	-3.98818	-7.20546	40.3373	0.258705	1.60749
0.5560	-12.2756	5.49375	-50.9252	1.29205	8.47472	-4.89823	-6.89907	-28.0368	-0.0646762	1.60749
0.5567	-10.1206	28.3528	-45.4402	-0.843791	7.86127	-4.89823	-9.64601	-57.0357	-0.646762	1.60749
0.5573	-5.23348	3.03103	-34.149	-2.08311	7.24782	-3.69375	-11.4738	-44.2199	-0.355719	1.60749
0.5580	2.6937	-49.4437	18.3367	-0.843791	7.55454	-2.75693	-9.9524	-41.7804	0.258705	1.286
0.5587	9.69733	-32.7099	79.3827	0.0527369	7.86127	-4.60381	-8.72684	-26.2158	0.873128	1.286
0.5593	17.6245	-9.78771	85.4873	-0.843791	6.339	-9.18084	-10.5652	29.3425	0.258705	1.286
0.5600	20.3952	-50.7066	61.0689	-1.76669	4.20328	-12.2322	-12.6994	89.4705	-1.58457	1.286
0.5607	4.19448	-82.7219	54.3676	0.0527369	4.20328	-13.7579	-11.7802	139.806	-2.81341	1.60749
0.5613	-18.3557	-105.897	69.6061	2.82143	5.72555	-16.1936	-7.81824	128.227	-1.58457	1.60749
0.5620	-26.3213	-170.306	54.9643	3.11148	7.55454	-15.578	-8.12463	48.8583	0.549747	1.60749
0.5627	-26.937	-171.569	-17.9695	1.89853	9.38354	-11.001	-10.2588	-22.8487	1.77859	1.60749
0.5633	-27.8221	-31.1312	-90.3067	1.58211	10.6104	-15.8992	-1.09878	-108.299	-0.355719	1.286
0.5640	-20.5106	142.206	-115.023	1.58211	10.3037	-29.9247	14.4637	-187.943	-4.62435	1.60749
0.5647	-3.7327	215.456	-87.2544	4.95727	9.99699	-32.3605	22.3982	-189.455	-5.85319	1.60749
0.5653	7.273	172.074	-35.985	7.38317	10.6104	-25.3477	23.011	-143.38	-4.94773	0.321499
0.5660	-0.076963	85.753	-10.3503	4.64085	10.9172	-25.6689	21.7854	-102.183	-4.3333	0.321499
0.5667	-14.0842	8.84051	-12.7829	0.975633	10.9172	-19.8606	15.6787	-59.7844	-2.81341	1.60749
0.5673	-22.0499	-38.4562	-30.1787	0.0527369	11.2125	2.40897	6.22289	4.01999	-0.355719	1.60749
0.5680	-28.7457	-42.7502	-48.4925	-1.45027	10.3037	13.0887	-2.32434	38.2071	-0.0646762	1.60749
0.5687	-29.3614	-43.0659	-38.716	-2.08311	9.99699	5.78152	-10.2588	3.0923	-0.646762	1.60749
0.5693	-20.2028	-60.4312	-21.6415	1.58211	12.1327	0.588859	-12.6994	-26.2158	0.873128	1.286
0.5700	-13.507	-55.5689	-30.1787	3.4279	12.7462	-0.936821	-14.2207	-10.9261	0.873128	1.286
0.5707	-14.0842	-63.2096	-42.0666	0.975633	10.9172	-4.30938	-18.4996	20.1687	-1.87561	1.286
0.5713	-14.3921	-80.8907	-35.067	0.68558	10.9172	-5.51386	-16.9677	73.5967	-2.81341	1.60749
0.5720	-11.9677	-21.7224	-24.3725	2.18858	11.2125	-5.83505	-12.6994	113.556	-1.26119	1.286
0.5727	-9.23556	42.3713	-29.2607	1.58211	10.3037	-9.18084	-12.6994	97.4074	-0.646762	1.286
0.5733	-7.38844	18.2493	-35.3653	1.89853	10.3037	-10.0909	-12.6994	67.1716	-0.646762	1.60749
0.5740	-12.5834	1.83125	-28.9624	2.18858	9.07681	-11.3221	-13.9143	53.7716	-1.26119	1.60749
0.5747	-18.3557	46.0338	-21.9398	-0.237316	6.94109	-15.578	-18.806	32.7096	-3.71888	1.286
0.5753	-19.2792	68.0088	-25.9101	-2.37316	6.339	-18.6294	-20.6338	-5.46306	-4.62435	1.286
0.5760	-15.9313	38.1405	-18.8875	-1.45027	6.94109	-17.7193	-17.2741	-46.9686	-2.19899	1.92899
0.5767	-9.23556	50.3278	11.3371	-0.843791	7.86127	-15.578	-15.7527	-69.5424	-0.355719	1.60749
0.5773	-4.04056	113.79	10.0978	-1.76669	8.168	-13.7579	-18.806	-67.7213	-0.970142	1.60749
0.5780	0.846593	144.29	-29.5591	-2.37316	8.78145	-13.7579	-20.9402	-71.6726	-1.26119	1.60749
0.5787	4.50233	148.268	-19.1859	-2.08311	9.07681	-14.9891	-19.1019	-30.4763	-1.58457	1.60749
0.5793	5.11804	112.59	20.1727	-2.37316	8.168	-15.8992	-19.4082	65.969	-3.10446	1.60749
0.5800	9.38948	32.331	-6.05869	-2.08311	7.86127	-15.8992	-23.0744	80.9151	-3.3955	1.286
0.5807	13.9688	-19.2597	-32.313	0.0527369	9.38354	-14.0523	-22.768	32.7096	-1.58457	1.60749
0.5813	6.04159	-13.1345	-20.7235	1.29205	9.69026	-15.8992	-18.4996	66.5875	-0.646762	1.60749
0.5820	-8.9277	10.0403	-42.3879	1.89853	9.07681	-23.822	-13.608	142.864	-2.19899	1.60749
0.5827	-20.8185	0	-52.1415	2.18858	9.99699	-28.1046	-6.59267	160.25	-4.00992	1.60749
0.5833	-31.7857	-27.7845	0.344244	2.82143	10.6104	-26.5789	0.422607	154.752	-5.23877	1.92899
0.5840	-40.3286	-40.9189	60.4722	4.64085	9.99699	-26.2577	9.27623	160.25	-7.08204	1.60749
0.5847	-39.7514	-9.47198	55.8823	4.32443	8.168	-23.822	20.8768	128.227	-6.14424	0.642998
0.5853	-35.1721	64.3463	-2.70805	-0.237316	5.72555	-21.6807	22.0918	36.3517	-3.3955	0.964497
0.5860	-29.9771	119.284	-32.9327	-4.21895	3.58983	-28.3991	15.3829	-60.3685	-3.10446	1.92899
0.5867	-20.8185	100.087	-3.62604	-4.50901	4.49865	-32.6817	10.1954	-117.129	-4.00992	1.60749
0.5873	-15.3156	-42.1187	39.1061	-5.11548	7.55454	-22.0019	3.16956	-104.623	-3.71888	1.286
0.5880	-18.3557	-190.134	29.6279	-2.68958	9.38354	-9.79647	-1.71156	-35.3553	-3.10446	1.286
0.5887	-15.9313	-165.444	-2.08841	1.89853	9.99699	-4.60381	-3.53934	-6.04716	-3.10446	1.286
0.5893	-1.57774	-41.8661	40.9191	2.18858	10.3037	1.20448	-9.03323	-10.0328	-1.26119	1.60749
0.5900	9.38948	62.515	119.659	-2.37316	11.2125	-0.642391	-16.9677	33.2938	-0.970142	1.60749
0.5907	11.5444	111.959	112.04	-5.4319	12.7462	-6.74511	-21.5424	100.74	-4.3333	1.60749
0.5913	5.11804	77.7965	60.7705	-4.50901	16.0974	3.02459	-20.9402	101.359	-5.52981	1.60749
0.5920	-12.5834	-19.2597	72.6584	-2.08311	19.7668	10.3586	-19.7146	36.3517	-3.10446	1.92899
0.5927	-23.5507	-106.528	74.4944	0.369158	20.6756	5.46033	-20.6338	-1.78666	-0.970142	1.92899
0.5933	-16.8549	-138.859	-18.2679	1.29205	20.0621	2.73016	-21.2466	-26.4907	-1.26119	1.60749
0.5940	-8.312	-155.34	-98.2243	2.18858	22.2092	-1.55245	-18.4996	-79.9187	-2.19899	1.92899
0.5947	1.4623	-180.978	-85.7168	2.505	24.947	-10.0909	-13.3121	-72.2911	-3.71888	1.92899
0.5953	20.0873	-212.741	-41.7683	0.68558	25.8672	-11.6166	-11.1674	33.9122	-3.71888	1.286
0.5960	36.8653	-305.503	2.47856	-0.843791	28.9231	-4.30938	-11.7802	115.411	-0.970142	1.60749
0.5967	33.8252	-407.421	27.1953	-1.16021	31.0588	-3.37255	-12.393	118.435	-0.970142	1.286
0.5973	10.6209	-419.672	1.85892	-1.16021	30.1387	-11.9378	-11.4738	117.542	-3.71888	0
0.5980	-7.38844	-458.38	-2.08841	0.68558	32.5811	-19.8606	-10.2588	136.473	-2.81341	0.964497
0.5987	-14.3921	-432.175	37.2702	1.58211	38.0681	-28.7202	-11.1674	103.798	-0.970142	1.60749
0.5993	-22.3577	-71.1661	31.4639	0.68558	43.8732	-37.8743	-13.9143	3.71076	-0.970142	1.286
0.6000	-21.1263	381.152	-27.7231	1.89853	52.7228	-42.7458	-11.4738	-48.1711	-1.58457	1.286
0.6007	-13.507	520.896	-67.403	2.505	58.5165	-37.5531	-7.20546	4.32922	-1.87561	1.60749
0.6013	-8.312	415.946	-43.3059	-0.843791	57.6077	-27.1946	-9.9524	61.9834	-3.3955	1.60749
0.6020	-4.65626	300.577	-16.1336	-2.37316	56.074	-18.9505	-13.3121	89.1613	-4.62435	1.60749
0.6027	-6.15704	187.356	-28.6411	0.975633	60.3455	-11.6166	-9.9524	117.542	-3.10446	1.60749
0.6033	-13.507	78.428	-51.5448	1.58211	65.8438	-15.8992	-10.8716	75.1085	-2.81341	1.60749
0.6040	-15.3156	69.84	-67.403	-0.237316	67.0594	-8.88641	-14.8335	-50.6106	-3.71888	1.60749
0.6047	-3.117	116.253	-41.4699	-0.237316	66.1505	35.3851	-15.4463	-158.326	-2.19899	1.60749
0.6053	7.273	118.4	-9.43229	-1.76669	62.4812	65.5775	-19.4082	-183.064	-1.87561	1.286
0.6060	6.6573	120.484	-34.4473	-1.76669	57.9144	53.9876	-19.7146	-130.873	-3.71888	1.286
0.6067	4.19448	141.259	-54.5971	3.11148	53.9383	47.2693	-5.97989	-92.4254	-3.10446	1.60749
0.6073	-3.117	122.946	-56.1118	4.95727	47.8379	56.1289	7.74428	-104.623	-1.58457	1.286
0.6080	-16.2392	68.0088	-49.4105	4.95727	42.0442	56.4234	7.44845	-87.2372	-2.81341	1.60749
0.6087	-19.8949	31.6995	10.7175	6.17022	38.3748	51.5519	-2.63073	-17.9697	-4.3333	1.92899
0.6093	-12.2756	-1.57866	57.7182	4.32443	33.7966	47.8849	-12.393	94.3495	-3.71888	1.286
0.6100	-5.23348	-51.5907	26.8969	-0.553738	28.0029	36.9107	-12.0866	200.862	-2.81341	1.286
0.6107	2.078	-62.0099	-23.7758	-4.21895	28.0029	20.4227	-9.33962	197.186	-2.19899	1.60749
0.6113	15.8159	-26.5847	-7.89466	-1.45027	31.3542	14.6144	-9.33962	141.937	-0.646762	1.286
0.6120	26.7831	-25.0692	71.7634	0.369158	28.0029	5.1659	-5.07129	106.856	0.873128	1.286
0.6127	28.0145	-83.0377	105.017	-1.76669	25.2538	-24.4376	-0.190173	53.1532	-0.0646762	1.286
0.6133	27.3988	-88.5314	47.9417	-1.76669	31.9676	-58.3238	1.64817	24.7727	-1.87561	1.60749
0.6140	32.286	-72.6816	14.0681	-0.843791	36.8525	-79.9777	4.39512	17.1451	-2.81341	1.286
0.6147	35.326	-120.294	57.0986	-3.29606	34.7168	-68.0667	3.16956	-53.9778	-2.19899	1.286
0.6153	25.2823	-129.135	76.95	-4.50901	32.5811	-31.4504	-0.792389	-146.128	1.48755	1.60749
0.6160	11.5444	-186.787	66.8751	-1.45027	30.4454	-25.3477	-3.23295	-194.368	4.81837	1.60749
0.6167	1.4623	-405.59	53.1283	-1.76669	24.0382	-46.1183	-9.33962	-146.747	2.06964	1.60749
0.6173	-11.0442	-515.465	-12.7829	-3.61248	17.3243	-50.9898	-15.4463	-31.0948	-0.970142	1.60749
0.6180	-18.0863	-335.75	-69.8586	-2.68958	14.8819	-37.2587	-14.2207	13.4687	-0.646762	1.60749
0.6187	-9.23556	-61.3784	-50.6268	-2.08311	13.3483	-19.245	-15.4463	31.782	-0.0646762	1.60749
0.6193	8.15807	111.959	-8.19301	-0.553738	9.38354	-4.89823	-18.1932	80.6059	0.258705	1.60749
0.6200	12.4295	163.549	19.576	2.18858	6.63437	2.73016	-14.8335	38.2071	1.16417	1.60749
0.6207	4.81019	209.331	29.0312	2.18858	9.38354	4.25584	-11.4738	-87.2372	1.16417	1.60749
0.6213	-0.076963	266.983	15.2844	0.0527369	13.655	1.82011	-8.42045	-125.066	1.48755	1.60749
0.6220	-11.6599	288.958	-28.3428	-1.45027	15.1886	-1.23125	-2.01795	-50.6106	1.77859	1.60749
0.6227	-24.7821	245.956	-80.8285	-1.76669	16.0974	-2.4625	5.0079	-15.8394	0.873128	1.60749
0.6233	-16.2392	52.159	-99.1423	-1.45027	17.3243	-0.642391	6.22289	-54.5963	0.258705	1.92899
0.6240	2.078	-156.603	-102.195	-0.843791	19.1533	3.93465	2.55677	-68.6147	1.48755	1.60749
0.6247	6.96515	-243.872	-103.113	-0.553738	20.3689	8.83288	1.03539	-10.342	3.29848	0
0.6253	1.15444	-332.971	-47.2762	-2.37316	20.0621	8.83288	0.728998	71.4665	2.68406	0.642998
0.6260	6.6573	-457.496	61.3672	-3.90253	19.7668	3.93465	1.03539	113.556	1.16417	2.25049
0.6267	24.0509	-540.471	115.391	-2.68958	20.9823	-0.321196	3.16956	110.807	0.258705	1.60749
0.6273	31.9781	-590.23	98.6144	-1.76669	22.5046	-0.936821	3.47595	92.5285	-0.355719	1.286
0.6280	30.131	-549.627	69.9274	-0.237316	22.5046	5.46033	4.39512	90.9823	-0.355719	1.60749
0.6287	34.1331	-256.691	31.7852	3.71795	21.9025	18.2814	8.05067	87.3403	0.258705	1.60749
0.6293	41.7524	198.343	-8.5143	5.24732	20.0621	26.5254	8.05067	69.6111	-0.970142	1.286
0.6300	39.5974	321.037	-13.4026	1.89853	16.7109	23.7685	4.39512	95.8613	-3.10446	1.286
0.6307	35.326	25.006	62.9049	0.975633	13.9617	19.1914	2.86316	177.361	-2.49003	1.92899
0.6313	34.4024	-143.785	149.884	3.4279	10.6104	18.2814	4.70151	207.871	-0.0646762	1.60749
0.6320	13.6609	-74.1971	128.816	3.4279	9.07681	15.8457	5.0079	176.742	0.873128	0.964497
0.6327	-38.52	-118.463	80.8973	0.975633	8.168	12.1787	2.26095	167.877	0.549747	1.286
0.6333	-81.8501	-479.156	54.0463	0.68558	5.1121	11.8842	1.03539	144.376	0.258705	1.60749
0.6340	-83.3894	-840.796	-79.6122	0.0527369	2.36292	10.3586	1.03539	78.7849	-0.970142	1.60749
0.6347	-59.5693	-542.05	-237.391	0.0527369	1.45411	9.12731	0.116217	-47.2435	-1.58457	1.286
0.6353	-33.0171	182.493	-220.615	1.58211	0.53393	10.3586	-0.190173	-203.817	-0.646762	1.286
0.6360	-10.4285	518.749	-99.1423	1.29205	-2.51061	11.563	-1.71156	-245.632	-1.26119	1.60749
0.6367	5.42589	480.292	-28.6411	0.0527369	-4.64633	11.8842	-4.15212	-168.702	-2.49003	1.60749
0.6373	6.04159	384.183	-9.43229	0.68558	-3.12406	12.1787	-3.23295	-26.2158	-1.87561	1.60749
0.6380	-3.42485	183.693	-4.24568	1.29205	-1.29506	12.1787	-0.792389	86.1033	-0.646762	1.60749
0.6387	-9.50493	-20.4595	14.3894	0.68558	0.53393	11.8842	1.95456	15.9082	0.549747	1.60749
0.6393	-11.9677	-69.0191	44.2927	2.505	1.76083	14.6144	7.74428	-79.6095	3.29848	1.60749
0.6400	-8.312	-80.3223	23.225	4.03437	-0.374887	17.0769	11.7168	-50.9198	4.81837	1.286
0.6407	0.230889	-215.772	-11.2453	0.369158	-4.04424	14.6144	8.35706	-79.6095	2.39302	1.286
0.6413	-1.88559	-451.055	-5.76035	-1.45027	-4.35096	12.7943	7.74428	-149.495	1.16417	1.286
0.6420	-12.5834	-504.162	14.3894	1.29205	-4.04424	12.4999	12.0232	-127.231	2.06964	1.286
0.6427	-21.4342	-205.731	34.2179	1.29205	-7.08877	7.92283	11.7168	-134.549	0.549747	1.60749
0.6433	-23.5507	223.665	12.2321	0.0527369	-9.83795	3.34579	8.66345	-189.455	-3.3955	1.60749
0.6440	-11.9677	538.008	-46.9549	0.0527369	-10.4514	3.02459	7.44845	-142.795	-4.94773	1.60749
0.6447	3.61726	682.677	-81.7465	-0.553738	-11.9737	1.82011	5.9165	-49.6829	-5.23877	1.60749
0.6453	17.3167	657.292	-93.0377	0.369158	-13.2006	0.883288	5.0079	-9.41433	-5.52981	1.60749
0.6460	48.756	547.48	-74.1272	3.71795	-11.0649	4.25584	7.74428	3.40153	-2.19899	1.92899
0.6467	79.8876	407.674	-27.7231	4.03437	-8.00895	8.21726	9.27623	-40.2342	-0.0646762	1.60749
0.6473	72.2682	188.555	13.4714	1.29205	-5.25978	9.12731	8.66345	-95.4833	-0.0646762	1.60749
0.6480	45.1003	-12.8187	76.032	-0.843791	-3.73751	7.92283	7.74428	-11.2354	-0.646762	1.60749
0.6487	33.2095	-140.122	93.1065	-0.843791	-3.43079	6.98601	8.05067	136.748	-1.26119	1.286
0.6493	24.9745	-244.756	18.0384	0.0527369	-4.04424	7.92283	8.66345	139.497	-0.970142	1.286
0.6500	-1.57774	-167.275	-39.9323	-0.553738	-5.56651	7.3072	6.83567	36.6609	-1.87561	1.60749
0.6507	-15.0078	180.915	-68.321	0.68558	-6.17996	7.60163	8.35706	-9.1051	-1.58457	1.286
0.6513	5.73374	436.342	-91.8214	2.18858	-7.3955	9.12731	12.3296	20.1687	0.258705	1.286
0.6520	20.3952	277.655	-86.3364	1.29205	-8.6224	8.51169	11.7168	61.3993	-0.0646762	1.60749
0.6527	8.46593	6.06206	-113.784	0.975633	-8.31568	7.60163	9.27623	15.9082	-0.646762	1.286
0.6533	-15.6235	10.6718	-180.636	0.0527369	-8.00895	8.51169	7.44845	-85.1069	-0.970142	1.286
0.6540	-31.2085	18.5651	-144.927	-1.45027	-8.6224	9.44851	5.30372	-71.9818	-1.87561	1.60749
0.6547	-41.2522	-220.066	-5.76035	0.0527369	-7.70223	11.563	8.05067	47.965	0.258705	1.286
0.6553	-58.3379	-425.418	31.4639	0.68558	-7.3955	12.7943	11.4104	169.733	2.06964	0.321499
0.6560	-50.4107	-557.584	-85.4184	-2.08311	-9.53122	9.12731	8.66345	262.502	0.873128	0.964497
0.6567	-6.15704	-603.681	-145.523	-2.97964	-12.5871	5.1659	6.83567	242.367	-0.646762	1.92899
0.6573	14.5845	-287.19	-63.4327	-2.37316	-15.3363	3.02459	7.44845	141.352	-1.87561	1.60749
0.6580	0.538741	57.0213	52.83	-2.08311	-17.7787	2.11454	6.52928	56.7952	-2.49003	1.286
0.6587	-2.80915	63.778	130.032	0.68558	-17.7787	4.87147	8.05067	-57.9291	-0.970142	1.60749
0.6593	-20.5106	69.5243	141.025	2.505	-17.472	6.69158	10.1954	-161.074	0.873128	1.286
0.6600	-74.2308	173.59	124.846	-0.553738	-19.9145	4.55027	6.22289	-142.177	-1.26119	1.286
0.6607	-106.247	282.896	71.1438	-2.37316	-22.0502	3.02459	3.16956	16.8358	-2.49003	1.286
0.6613	-85.8137	404.643	-16.4319	-1.45027	-21.7435	3.93465	6.22289	130.048	-1.26119	1.286
0.6620	-53.4508	205.352	-33.5294	-3.29606	-22.959	2.40897	6.83567	42.7768	-1.26119	1.286
0.6627	-35.1721	17.681	36.6505	-3.61248	-23.5724	2.73016	7.14206	-99.4346	-0.355719	1.286
0.6633	-15.0078	339.034	143.16	-0.553738	-22.3569	6.69158	11.7168	-160.8	1.77859	1.60749
0.6640	8.15807	464.758	219.765	-0.843791	-23.5724	6.69158	11.4104	-182.755	2.06964	1.60749
0.6647	32.5938	291.105	235.624	-2.97964	-24.4926	4.55027	7.44845	-215.396	0.873128	1.286
0.6653	58.8382	299.946	235.325	-2.97964	-23.2657	4.25584	5.9165	-205.947	0.258705	1.286
0.6660	70.729	246.84	230.758	-2.97964	-22.959	4.25584	4.39512	-128.124	-0.0646762	1.286
0.6667	58.8382	224.865	163.608	-2.97964	-22.0502	5.78152	3.47595	-43.6014	0.258705	1.60749
0.6673	38.9817	418.977	61.0689	-1.16021	-19.9145	10.0374	6.52928	-2.09589	2.39302	1.286
0.6680	24.9745	441.583	40.6208	-0.843791	-19.301	11.563	7.44845	20.4779	3.62187	0.964497
0.6687	-6.15704	311.249	56.8003	-2.97964	-18.9943	12.1787	4.70151	65.6598	3.00744	1.286
0.6693	-42.1757	245.64	0.0458992	-3.61248	-17.472	13.7043	4.70151	88.2336	3.00744	1.60749
0.6700	-42.7914	71.987	-71.0749	-4.21895	-18.9943	12.1787	3.47595	127.918	1.77859	1.286
0.6707	-15.6235	-99.5189	-56.7314	-4.50901	-21.4367	9.74294	1.64817	188.046	0.549747	1.286
0.6713	5.73374	-58.9157	-21.6415	-2.08311	-20.5166	10.653	6.22289	128.227	2.39302	1.60749
0.6720	4.81019	-38.2036	-37.2013	-0.553738	-19.301	10.653	10.4912	45.5255	3.91291	1.60749
0.6727	-17.7784	-123.009	-71.6716	-3.90253	-19.6077	6.98601	8.35706	36.3517	2.39302	1.60749
0.6733	-48.6021	-46.4127	-104.949	-6.64485	-18.9943	4.87147	5.61011	-12.163	0.549747	1.60749
0.6740	-47.3707	124.146	-116.836	-4.82543	-16.5518	6.69158	5.30372	-176.055	0.258705	1.60749
0.6747	-1.88559	88.784	-130.882	-3.61248	-13.5073	8.51169	4.08873	-332.285	0.549747	1.60749
0.6753	42.676	-111.39	-153.166	-2.68958	-11.9737	10.3586	4.39512	-304.832	1.77859	1.286
0.6760	57.9146	-270.141	-94.8736	-0.553738	-11.0649	13.4099	6.83567	-160.8	4.23629	1.286
0.6767	51.5267	-264.016	61.3672	-1.76669	-11.3602	12.7943	5.0079	-62.808	3.62187	1.60749
0.6773	36.5574	-184.072	208.474	-4.50901	-11.6669	11.2686	0.116217	-31.9881	1.48755	1.60749
0.6780	13.0452	-222.781	251.206	-2.97964	-10.7581	13.4099	1.95456	-16.4235	2.39302	1.60749
0.6787	-7.08059	-250.25	220.362	-0.843791	-10.7581	13.7043	5.0079	11.3384	3.62187	1.92899
0.6793	7.8887	-133.365	218.847	-1.76669	-12.8938	10.3586	3.78234	45.8347	2.39302	1.60749
0.6800	37.1731	-1.26293	191.078	-1.76669	-15.3363	9.12731	3.16956	53.7716	1.48755	1.60749
0.6807	35.6339	114.106	62.6065	-1.45027	-17.472	8.21726	4.08873	25.3568	0.873128	1.286
0.6813	15.2002	234.968	-39.3356	-2.68958	-20.5166	3.64022	1.95456	-16.4235	-1.87561	1.286
0.6820	13.9688	343.264	-66.1866	-1.76669	-20.8233	1.82011	1.03539	-47.8619	-2.49003	1.60749
0.6827	27.3988	446.762	-68.0226	0.369158	-17.7787	3.93465	4.70151	-22.8487	-0.355719	1.286
0.6833	24.6666	413.799	-62.5147	0.369158	-14.4161	5.78152	6.52928	54.9742	1.16417	1.286
0.6840	16.7394	213.625	-102.814	-0.843791	-11.6669	7.60163	12.0232	86.1033	1.48755	1.60749
0.6847	11.2366	59.484	-157.733	-2.97964	-10.1447	9.74294	24.226	94.0402	1.48755	0.642998
0.6853	-17.7784	-10.9875	-163.241	-4.21895	-9.53122	10.0374	29.1071	139.806	1.77859	0.642998
0.6860	-43.4071	-44.5814	-166.591	-2.68958	-9.22449	10.3586	26.0643	68.4085	2.39302	1.60749
0.6867	-36.9807	-112.969	-165.673	-2.37316	-10.4514	10.653	19.3449	-169.321	3.29848	1.60749
0.6873	-16.2392	-306.45	-103.411	-3.61248	-12.2804	9.12731	10.4912	-351.216	2.39302	0.964497
0.6880	2.078	-430.028	-52.1415	-3.61248	-12.5871	8.83288	6.83567	-283.151	2.06964	0.642998
0.6887	7.273	-365.05	-68.9406	-1.76669	-9.53122	10.9742	7.44845	-65.2475	3.91291	1.286
0.6893	7.273	-416.577	-64.9703	-1.45027	-6.17996	10.3586	4.08873	44.2886	4.23629	1.92899
0.6900	16.4316	-617.699	-7.59632	-2.97964	-2.21524	7.92283	-3.84573	37.2794	3.00744	1.286
0.6907	24.3588	-479.787	53.748	-2.08311	4.80537	6.07595	-8.72684	33.9122	1.16417	1.286
0.6913	16.7394	88.784	89.1592	-0.843791	10.9172	2.73016	-9.9524	31.782	-0.646762	1.286
0.6920	7.273	583.789	64.4195	-0.843791	15.4953	-0.0267663	-13.3121	52.2255	-1.87561	1.286
0.6927	13.9688	616.752	22.307	0.975633	20.3689	2.11454	-15.7527	94.0402	-1.26119	1.60749
0.6933	18.8559	334.424	19.8744	2.18858	21.5958	5.1659	-22.1552	83.9731	-0.0646762	1.60749
0.6940	11.5444	152.878	1.56057	-0.237316	19.1533	4.87147	-35.2771	48.2742	-0.355719	1.60749
0.6947	6.96515	104.949	-67.403	0.0527369	21.5958	5.78152	-35.2771	11.0292	-0.0646762	1.60749
0.6953	3.88663	47.2967	-128.747	0.975633	25.5605	7.3072	-23.3808	-18.5882	1.16417	1.286
0.6960	-14.6999	9.15624	-149.815	-0.553738	25.5605	6.98601	-16.3549	34.5307	1.16417	1.60749
0.6967	-37.5964	-49.4437	-182.151	-1.76669	24.947	7.3072	-12.6994	113.865	1.77859	1.92899
0.6973	-35.4799	-70.2189	-241.063	-2.08311	24.947	8.51169	-9.9524	130.358	3.00744	1.60749
0.6980	-25.0899	-81.5221	-252.652	-2.37316	24.6403	8.83288	-9.9524	67.1716	3.91291	1.286
0.6987	-22.3577	-309.165	-178.181	-0.843791	24.6403	10.0374	-8.42045	-59.166	5.14176	1.60749
0.6993	-17.1627	-485.533	-67.1046	0.0527369	24.3449	11.2686	-7.51185	-153.447	5.14176	1.60749
0.7000	-14.3921	-333.603	13.1501	-1.76669	21.289	9.44851	-11.1674	-115.618	3.00744	1.60749
0.7007	-8.61985	-166.328	43.3747	-2.37316	20.3689	9.12731	-11.7802	-17.3512	2.06964	1.60749
0.7013	4.81019	-118.463	79.0843	-0.843791	21.5958	10.3586	-8.12463	-46.6594	3.29848	1.286
0.7020	8.46593	-193.797	155.988	-1.16021	17.6311	9.12731	-5.97989	-152.244	2.68406	1.286
0.7027	-0.384815	-354.946	206.042	-1.16021	11.5193	8.21726	-4.15212	-154.684	1.48755	1.60749
0.7033	-7.6963	-235.915	182.541	-0.553738	7.86127	7.92283	-4.15212	-50.3014	1.48755	1.60749
0.7040	-13.1991	117.768	96.7785	-1.76669	3.2831	5.1659	-6.59267	42.7768	0.258705	1.60749
0.7047	-21.1263	288.39	2.18021	-1.45027	3.89655	2.40897	-5.37768	60.4716	-1.87561	1.60749
0.7053	-21.4342	259.658	-17.3499	1.89853	12.7462	1.20448	-0.792389	37.8978	-2.81341	1.286
0.7060	-12.2756	309.102	25.9789	3.11148	20.6756	-1.55245	2.26095	3.40153	-3.71888	1.286
0.7067	0.846593	522.095	73.5764	1.58211	43.2597	-3.69375	4.08873	-75.349	-4.62435	1.60749
0.7073	25.2823	627.108	78.4647	1.58211	83.543	-2.16807	8.05067	-187.325	-5.23877	1.286
0.7080	51.2189	472.967	95.8605	1.29205	105.514	-0.642391	8.35706	-181.243	-5.23877	1.286
0.7087	62.1861	220.002	208.773	1.89853	102.765	1.20448	5.30372	4.01999	-4.00992	1.60749
0.7093	54.5667	6.3778	264.012	4.64085	88.1212	5.78152	6.52928	176.124	-2.19899	1.60749
0.7100	32.5938	-114.8	171.548	4.95727	71.6375	6.69158	14.7701	220.378	-1.26119	1.60749
0.7107	4.81019	-148.647	53.748	2.82143	57.3009	3.34579	28.1985	231.373	-1.58457	1.286
0.7113	-18.6635	-114.485	-56.1118	2.18858	48.4513	0.294429	37.9607	177.051	-0.646762	1.60749
0.7120	-22.0499	-60.1786	-158.352	1.89853	56.9942	-3.98818	38.5735	-0.274871	-0.355719	1.60749
0.7127	-9.23556	-55.2532	-183.689	1.89853	67.9795	-0.936821	33.9988	-104.314	-1.58457	1.60749
0.7133	-1.57774	13.3871	-117.456	2.82143	82.0208	5.78152	27.5857	-71.0542	-0.970142	1.92899
0.7140	2.078	149.215	-32.0147	1.58211	118.339	15.5512	17.8235	-28.3461	-0.970142	1.286
0.7147	0.846593	159.887	-4.54402	-0.843791	141.832	58.2703	7.74428	18.0384	-1.26119	0.321499
0.7153	-4.04056	120.799	-10.6486	1.89853	121.077	107.092	4.70151	14.7056	0.549747	0.964497
0.7160	1.77015	146.121	24.4413	4.95727	80.4871	118.387	4.70151	-62.808	-0.355719	1.92899
0.7167	13.0452	165.381	64.1212	3.11148	53.0295	115.952	3.78234	-97.9228	-3.3955	1.60749
0.7173	15.8159	151.362	19.2547	4.03437	43.2597	126.016	9.58262	-61.6055	-4.62435	1.60749
0.7180	13.6609	142.206	-76.5599	6.46027	30.7521	133.35	13.851	-5.15383	-3.10446	1.286
0.7187	20.0873	109.243	-96.09	4.95727	9.07681	109.849	11.7168	52.8439	-1.26119	1.60749
0.7193	27.7067	1.19978	-75.3435	1.29205	-1.60179	66.5143	-0.792389	117.851	2.06964	1.60749
0.7200	20.0873	-139.175	-108.598	-4.21895	-7.08877	28.3455	-30.0896	136.748	8.18153	1.60749
0.7207	-1.26989	-205.1	-115.941	-10.9165	-35.7847	-9.47527	-50.8397	64.4229	11.8357	1.60749
0.7213	-24.1664	-136.46	-91.8214	-11.233	-46.77	-31.4504	-40.771	-8.79587	12.1591	1.286
0.7220	-36.9807	-14.9657	-111.351	-5.4319	-11.9737	-22.912	-12.6994	-30.7856	12.1591	1.60749
0.7227	-26.6292	26.2058	-118.374	-2.68958	13.655	-13.1423	5.61011	-49.4081	11.2537	1.60749
0.7233	6.96515	-27.2161	-93.9557	-1.45027	8.78145	-1.23125	6.52928	-79.6095	6.95269	1.60749
0.7240	33.5174	-41.8661	-75.9632	0.975633	-4.64633	19.8071	6.83567	-132.419	1.77859	1.60749
0.7247	41.1367	53.0431	-39.634	4.32443	-5.56651	48.2061	13.2382	-138.81	-0.970142	1.92899
0.7253	48.756	113.79	25.9789	9.22896	8.168	87.8738	18.1299	-24.9789	-0.646762	1.60749
0.7260	38.9817	31.6995	113.876	11.3648	15.1886	109.528	20.264	102.286	0.258705	1.286
0.7267	0.538741	-101.034	170.332	11.9713	8.78145	100.079	20.8768	181.003	0.258705	1.60749
0.7273	-27.5143	-144.1	136.137	16.243	-18.9943	82.9756	23.9196	173.684	-1.87561	1.286
0.7280	-27.8221	-74.5129	54.0463	18.6689	-55.6196	73.8215	33.386	19.8938	-4.00992	1.286
0.7287	-18.9714	17.3653	6.74718	15.0037	-66.2982	60.4116	37.9607	-143.998	-4.3333	1.60749
0.7293	-15.6235	73.1868	7.96351	13.1842	-61.1066	15.8457	29.1071	-174.509	-3.3955	1.60749
0.7300	-18.0863	52.7905	14.0681	13.1842	-82.1684	-61.0539	11.104	-80.8121	-1.87561	1.286
0.7307	-23.5507	-62.5782	30.5459	6.17022	-114.818	-118.441	-3.23295	92.8033	-0.970142	1.286
0.7313	-35.4799	-159.95	31.7852	0.369158	-132.824	-130.325	0.422607	201.755	-2.19899	1.60749
0.7320	-41.2522	-135.828	10.0978	2.18858	-145.945	-104.389	9.88901	103.18	-5.23877	1.286
0.7327	-19.2792	-63.5254	8.8815	0.68558	-134.051	-63.1953	-2.01795	-87.8556	-5.85319	1.286
0.7333	21.0109	-29.0474	3.69489	-6.96127	-108.717	-25.0533	-32.8366	-202.271	-1.58457	1.286
0.7340	51.8346	-7.64073	-9.43229	-8.17422	-91.9269	52.1675	-48.7055	-221.202	5.4328	1.60749
0.7347	64.341	16.1655	5.53085	-3.90253	-53.4839	132.118	-45.0499	-123.555	8.50492	1.60749
0.7353	60.9547	-8.90366	39.7028	-4.21895	5.72555	125.106	-42.303	76.0362	6.3706	1.286
0.7360	42.0603	-109.559	103.181	-5.4319	38.3748	57.6546	-39.556	245.116	4.81837	1.286
0.7367	12.1601	-185.272	157.503	-5.4319	30.1387	-6.74511	-36.1963	312.528	4.52733	1.92899
0.7373	-12.5834	-131.282	104.398	-5.74832	11.826	-32.9761	-31.3152	300.022	3.91291	1.60749
0.7380	-15.3156	-75.3969	1.85892	-3.61248	-11.6669	-13.1423	-22.1552	207.253	4.52733	1.286
0.7387	-0.384815	-104.065	-33.231	-1.76669	-55.0062	13.7043	-24.9021	111.117	5.4328	1.286
0.7393	11.8523	-99.5189	-33.5294	-1.76669	-104.446	14.0255	-43.8244	27.5215	3.62187	1.286
0.7400	14.2766	-44.2657	-54.5971	-1.45027	-142.287	-14.6679	-51.4524	-105.55	1.48755	1.286
0.7407	4.81019	-2.77845	-62.836	-2.08311	-160.599	-60.1439	-42.9052	-187.015	1.16417	1.60749
0.7413	-12.5834	21.9118	-60.0821	-3.61248	-164.257	-118.735	-35.8899	-193.131	1.77859	1.60749
0.7420	-18.0863	15.534	-68.0226	-3.61248	-164.257	-187.712	-29.4769	-214.812	3.00744	1.60749
0.7427	-11.0442	-20.4595	-53.0595	-2.08311	-160.906	-221.893	-22.768	-217.251	4.23629	1.60749
0.7433	-3.42485	-35.7409	-32.9327	-1.16021	-146.558	-201.122	-21.2466	-161.693	2.39302	1.60749
0.7440	3.00156	-39.4034	-34.7457	-1.16021	-107.797	-159.313	-20.021	-116.236	-0.970142	1.60749
0.7447	10.6209	-69.0191	-24.6938	-2.97964	-49.8145	-120.261	-16.6613	-101.29	-2.81341	0.642998
0.7453	17.6245	-98.0034	-8.19301	-1.45027	-0.681613	-84.2603	-11.4738	-65.866	-2.81341	0.642998
0.7460	21.896	-106.844	-8.5143	3.71795	30.7521	-59.2338	-4.45851	-0.858972	-2.81341	1.60749
0.7467	21.896	-103.497	2.7769	5.24732	44.1799	-48.5541	0.728998	79.0941	-4.00992	1.60749
0.7473	18.8559	-74.1971	14.0681	4.95727	36.8525	-42.1302	3.16956	125.788	-5.23877	1.60749
0.7480	15.508	-37.5722	-17.9695	4.64085	23.4248	-36.9375	5.30372	89.1613	-6.75866	1.60749
0.7487	13.6609	-15.9129	-50.6268	4.32443	8.47472	-33.8861	9.88901	42.1583	-7.69646	1.60749
0.7493	16.7394	7.89331	-16.1336	4.64085	-14.1094	-29.6303	13.5446	87.6151	-7.37308	1.60749
0.7500	21.5881	-6.44094	18.658	2.505	-34.8645	-22.6175	15.9851	225.257	-6.46762	1.60749
0.7507	15.8159	-51.0224	-22.8578	-2.08311	-49.2125	-13.4635	22.0918	337.267	-4.62435	1.60749
0.7513	0.846593	-18.3125	-69.8586	-1.76669	-56.2217	-6.74511	30.9454	306.756	-4.62435	1.286
0.7520	-9.50493	37.1933	-78.0975	4.64085	-55.3129	-2.4625	31.854	156.299	-5.52981	1.286
0.7527	-10.7363	10.6718	-56.7314	6.46027	-58.6642	2.11454	21.479	-51.5383	-6.14424	1.286
0.7533	-10.4285	-21.975	4.61287	2.82143	-76.068	1.49891	12.0232	-217.56	-6.14424	1.286
0.7540	-13.8149	-13.7659	77.845	0.68558	-85.213	-2.4625	11.7168	-265.766	-5.23877	1.286
0.7547	-14.0842	3.91508	123.331	1.29205	-71.1831	-2.16807	13.851	-287.721	-4.62435	1.60749
0.7553	-14.0842	25.8901	121.495	0.975633	-55.6196	-2.4625	12.3296	-313.971	-5.23877	1.286
0.7560	-11.6599	21.0278	92.5098	0.975633	-46.4633	-4.30938	8.96984	-270.336	-6.14424	1.286
0.7567	-5.54133	-13.1345	87.9199	1.58211	-36.08	-3.07813	5.9165	-198.938	-6.14424	1.286
0.7573	-4.65626	-28.4159	109.286	0.369158	-26.3216	-3.07813	4.39512	-165.369	-5.85319	1.286
0.7580	-6.77274	-13.7659	114.174	-0.237316	-11.3602	-5.51386	8.05067	-128.743	-4.94773	1.286
0.7587	-8.00415	-0.947198	98.6144	0.68558	15.7907	-5.51386	14.1573	-66.4844	-2.81341	1.286
0.7593	-6.77274	-3.97823	94.9425	0.68558	33.7966	-5.83505	12.0232	-17.9697	-2.49003	1.286
0.7600	-2.5013	-14.0817	95.2408	-1.45027	25.2538	-8.56522	-1.09878	18.9661	-4.00992	1.60749
0.7607	1.15444	-19.5754	79.3827	-2.97964	20.6756	13.4099	3.78234	53.1532	-4.62435	0.964497
0.7613	3.88663	-16.797	58.9346	-2.37316	49.6669	55.5133	33.386	63.8388	-3.71888	1.286
0.7620	7.273	-8.27219	43.0764	-1.76669	84.7699	76.5784	50.7763	66.5875	-2.49003	1.60749
0.7627	10.6209	4.23082	16.5237	-1.16021	92.6994	82.6811	47.7229	90.9823	-0.0646762	1.286
0.7633	11.8523	-0.947198	-27.1264	-2.08311	67.0594	102.515	40.0949	124.242	1.48755	1.60749
0.7640	10.0052	-38.2036	-48.4925	-3.90253	15.7907	151.952	30.639	127.918	1.77859	1.60749
0.7647	5.11804	-60.7469	-36.5817	-2.37316	18.2331	199.248	20.8768	101.668	1.48755	1.60749
0.7653	-0.962037	-40.0349	-39.634	-1.16021	116.192	209.634	13.2382	51.0229	2.06964	1.60749
0.7660	-0.962037	21.6593	-60.7017	-1.45027	181.809	201.095	7.14206	-34.1527	3.00744	1.60749
0.7667	3.88663	114.737	-27.1264	2.505	159.532	187.364	2.55677	-90.9136	2.68406	1.286
0.7673	8.77378	133.302	48.8597	3.71795	111.012	162.338	-4.45851	-93.6623	1.48755	1.286
0.7680	13.0452	56.453	89.4575	-3.29606	43.5664	109.849	-14.8335	-111.048	0.873128	1.286
0.7687	13.3531	-18.944	87.6216	-6.64485	-30.8998	35.3851	-29.181	-114.69	0.873128	1.286
0.7693	12.1601	-69.3349	62.6065	-4.82543	-77.5903	-11.001	-49.6247	-25.9066	0.549747	1.286
0.7700	15.508	-87.5842	56.5019	-6.96127	-91.3248	-29.3091	-60.6125	108.368	1.77859	1.286
0.7707	23.4352	-80.3223	69.0094	-8.17422	-77.2835	-53.7467	-49.3183	162.105	3.62187	1.60749
0.7713	28.0145	-79.6909	63.8228	-3.61248	-57.7553	-92.7988	-30.0896	151.42	3.00744	1.60749
0.7720	29.5538	-72.9974	55.8823	-2.37316	-61.4133	-142.236	-21.5424	183.442	2.39302	1.60749
0.7727	39.2896	-44.8972	30.8672	-7.25133	-82.7819	-175.801	-22.4616	196.258	4.23629	1.60749
0.7733	51.2189	-20.7752	-27.7231	-12.1559	-104.753	-164.211	-24.5957	140.734	5.4328	1.60749
0.7740	58.5303	-42.1187	-70.7536	-14.2917	-113.602	-95.2345	-26.1277	72.669	6.04722	1.286
0.7747	60.3774	-118.463	-46.0369	-13.0524	-102.924	-25.0533	-26.4341	-1.78666	6.3706	0.642998
0.7753	40.2132	-138.607	15.9041	-9.70359	-81.555	7.60163	-27.0363	-98.5413	4.81837	0.642998
0.7760	2.078	-41.2347	30.5459	-6.64485	-69.3541	27.7567	-28.2619	-220.893	3.62187	1.92899
0.7767	-22.3577	48.4965	13.1501	-5.4319	-71.4898	9.74294	-28.5683	-256.008	4.52733	2.25049
0.7773	-19.5871	66.809	6.15049	-5.74832	-78.8058	-57.0925	-27.9555	-110.12	5.75618	1.286
0.7780	-11.6599	54.8743	-23.7758	-7.25133	-93.4605	-115.978	-25.5149	48.8583	7.27607	0.964497
0.7787	-14.0842	38.1405	-62.2164	-7.56775	-104.753	-129.415	-20.3274	85.1757	9.11934	1.286
0.7793	-16.8549	41.4873	-65.2687	-6.3548	-93.7672	-105.62	-14.5271	63.2203	9.70142	1.286
0.7800	-17.1627	66.809	-44.5222	-7.88417	-63.549	-79.0677	-10.5652	17.1451	7.27607	1.286
0.7807	-16.547	81.1433	-37.2013	-10.02	-35.7847	-56.1825	-6.59267	-45.4224	5.14176	1.60749
0.7813	-13.8149	67.1247	-45.1189	-8.7807	-26.3216	-36.6431	-1.71156	-83.2859	4.81837	1.60749
0.7820	-15.0078	39.9717	-47.2762	-8.17422	-22.6523	-29.3091	3.47595	-93.0438	4.52733	1.60749
0.7827	-14.6999	39.9717	-41.4699	-8.49064	-11.6669	-26.2577	12.636	-64.0449	4.23629	1.60749
0.7833	-11.6599	68.3245	-34.4473	-8.7807	-3.43079	-25.6689	20.5704	1.88974	3.62187	1.60749
0.7840	-8.312	77.7965	-33.5294	-10.3101	7.55454	-26.5789	23.3174	54.665	2.68406	1.60749
0.7847	-2.19344	70.4715	-41.4699	-12.1559	21.9025	-17.7193	24.5324	66.8624	3.62187	1.286
0.7853	6.34944	70.4715	-42.6863	-13.6589	22.5046	-5.51386	24.226	49.1675	4.23629	1.286
0.7860	13.9688	36.5618	-26.5068	-13.3688	9.69026	2.11454	23.3174	27.2122	3.00744	1.60749
0.7867	16.7394	-26.5847	-3.0064	-10.9165	-2.21524	7.60163	21.479	19.2753	3.00744	1.60749
0.7873	9.69733	-36.625	7.36682	-10.9165	-5.56651	8.51169	12.636	56.2111	2.68406	0.964497
0.7880	-8.312	-4.29396	1.56057	-9.70359	-2.51061	7.3072	10.1954	121.802	0.549747	1.286
0.7887	-21.742	7.32499	-11.2453	-4.50901	6.63437	9.12731	20.5704	130.976	-0.970142	1.60749
0.7893	-24.7821	21.0278	-15.5369	-2.08311	17.0176	11.8842	23.9196	78.7849	-1.26119	1.60749
0.7900	-27.8221	47.2967	-13.0813	-3.61248	17.0176	16.1401	15.6787	-21.0276	-1.87561	1.286
0.7907	-23.2428	57.337	-25.2905	-3.61248	8.78145	19.1914	7.74428	-119.569	-1.58457	1.286
0.7913	-11.352	51.2118	-24.0741	-3.61248	1.14738	11.2686	0.116217	-95.4833	1.16417	1.60749
0.7920	-7.38844	43.6342	6.44884	-4.50901	-0.681613	-3.98818	-8.42045	-46.0409	3.62187	1.60749
0.7927	-8.312	39.0245	25.9789	-4.21895	6.03227	-15.2836	-14.5271	-76.8608	5.14176	1.286
0.7933	-9.81278	32.331	32.6802	-4.50901	15.1886	-26.8734	-17.8869	-70.7449	6.66164	1.286
0.7940	-8.312	27.7213	42.7551	-6.3548	19.4601	-29.9247	-17.8869	-18.2789	6.66164	1.60749
0.7947	-2.80915	31.0681	34.8375	-4.82543	19.4601	-17.4249	-13.3121	16.8358	6.66164	1.286
0.7953	-0.962037	31.0681	12.5534	-2.08311	15.1886	0.883288	-9.9524	29.0332	6.04722	1.286
0.7960	-4.34841	22.859	-2.08841	-2.37316	10.6104	17.0769	-9.64601	14.9805	3.91291	1.60749
0.7967	-6.46489	14.3343	-6.97668	-1.45027	12.1327	23.7685	-5.07129	1.88974	3.29848	1.60749
0.7973	-3.117	5.74633	0.940934	0.0527369	15.7907	20.4227	-0.792389	-8.21177	3.00744	1.286
0.7980	1.15444	-2.77845	9.50113	-0.237316	17.6311	17.0769	-1.40517	-32.9158	0.549747	1.60749
0.7987	1.4623	-3.09418	9.79948	2.82143	18.5399	17.6658	-0.190173	-43.6014	-1.58457	1.286
0.7993	1.15444	3.6625	7.96351	7.69959	19.1533	20.1283	5.30372	-28.6553	-2.81341	1.286
0.8000	0.846593	7.89331	4.61287	7.38317	18.5399	20.4227	8.96984	-14.2933	-4.62435	1.60749
0.8007	1.15444	7.32499	3.69489	4.32443	17.3243	18.897	9.58262	-7.59331	-4.00992	1.60749
0.8013	1.77015	6.06206	4.61287	1.58211	16.0974	17.3713	7.44845	-2.40512	-1.58457	1.286
0.8020	1.4623	5.49375	3.39654	-0.843791	15.4953	14.6144	3.47595	0.652819	-0.355719	1.286
0.8027	1.15444	6.69353	9.20279	-2.08311	14.8819	14.32	0.116217	3.40153	0.873128	1.60749
0.8033	0.230889	6.69353	17.74	-2.37316	13.3483	14.6144	-2.92656	5.22255	2.06964	1.286
0.8040	-0.076963	2.39957	21.389	-2.37316	11.826	14.6144	-3.53934	4.32922	2.06964	0.964497
0.8047	4.19448	-1.26293	24.4413	0.369158	11.826	18.2814	1.64817	4.01999	3.62187	0.321499
0.8053	4.81019	-1.57866	21.389	1.58211	12.1327	20.4227	5.30372	4.01999	3.62187	1.286
0.8060	1.15444	-2.14698	12.2321	0.0527369	10.9172	17.987	1.64817	3.40153	0.873128	1.92899
0.8067	-0.076963	-2.14698	7.66517	0.369158	10.3037	18.2814	-3.23295	7.97126	0.549747	0.642998
0.8073	0.230889	-0.631465	-0.275395	1.29205	10.9172	19.5126	-5.97989	14.0871	2.06964	0.642998
0.8080	-3.42485	-0.315733	-24.6938	-1.76669	9.69026	15.23	-10.8716	11.6477	-1.26119	1.60749
0.8087	-2.80915	3.34676	-35.067	-0.553738	9.69026	15.5512	-8.42045	9.51741	-1.58457	1.60749
0.8093	2.078	7.89331	-19.1859	4.64085	10.9172	18.897	-0.485998	13.1594	2.06964	1.60749
0.8100	-1.26989	5.17801	-9.73063	3.71795	8.47472	14.9356	-5.97989	12.8502	-1.87561	1.286
0.8107	-3.117	3.34676	-11.5666	2.82143	7.55454	13.4099	-11.4738	12.541	-6.14424	0.964497
0.8113	0.230889	6.3778	-11.2453	3.71795	8.47472	16.1401	-7.20546	15.9082	-3.71888	1.286
0.8120	-0.692667	5.49375	-8.19301	-0.553738	7.55454	14.32	-9.9524	17.1451	-2.19899	1.286
0.8127	-3.117	3.03103	-4.54402	-4.82543	6.339	11.8842	-23.3808	16.5266	-1.87561	1.60749
0.8133	-3.117	4.23082	-4.84237	-2.68958	6.03227	12.7943	-41.3838	17.1451	-0.355719	1.60749
0.8140	-3.117	7.32499	-6.05869	0.68558	5.41882	14.0255	-67.6277	18.3476	0.873128	1.286
0.8147	-4.34841	7.89331	-6.05869	-0.237316	3.89655	13.0887	-87.7756	17.1451	-0.355719	1.286
0.8153	-4.96411	5.17801	-9.11099	-2.68958	2.06756	11.8842	-75.5622	16.2174	-0.970142	1.60749
0.8160	-4.34841	2.39957	-14.2976	-3.29606	1.45411	11.563	-58.4783	18.0384	0.258705	1.60749
0.8167	-5.23348	4.54655	-16.7532	-1.16021	0.840656	11.8842	-59.3869	22.6425	1.16417	1.286
0.8173	-7.08059	8.52478	-19.4842	1.58211	0.227204	11.563	-60.6125	25.9753	0.258705	1.286
0.8180	-7.6963	7.00926	-21.6415	2.505	0.227204	11.2686	-69.1597	25.9753	-1.58457	1.286
0.8187	-4.96411	3.6625	-17.0516	3.11148	-0.374887	11.563	-92.9631	25.9753	-1.87561	1.286
0.8193	-5.84919	3.03103	-14.9172	0.0527369	-2.51061	7.60163	-105.166	23.2266	-3.10446	1.286
0.8200	-10.4285	3.6625	-18.5892	-3.29606	-4.04424	3.34579	-97.8442	16.8358	-4.3333	1.60749
0.8207	-9.81278	2.7153	-13.7009	-2.97964	-4.04424	3.93465	-93.5653	14.7056	-3.3955	1.60749
0.8213	-7.6963	2.08383	4.91121	-2.68958	-3.73751	5.46033	-88.0714	17.1451	-2.19899	1.286
0.8220	-8.312	3.03103	26.2773	-3.90253	-4.95305	4.55027	-65.4936	17.7292	-0.970142	1.60749
0.8227	-7.38844	4.86228	37.8668	-6.64485	-5.87323	3.64022	-30.7024	16.5266	1.48755	1.92899
0.8233	-4.96411	9.15624	35.4342	-8.17422	-4.95305	4.87147	-5.37768	15.2897	4.52733	1.60749
0.8240	-3.117	12.503	24.4413	-7.88417	-4.04424	5.78152	-11.1674	15.5989	6.04722	1.286
0.8247	-0.384815	12.1873	15.9041	-7.25133	-3.73751	5.46033	-31.6216	15.9082	4.81837	1.60749
0.8253	2.38585	10.0403	14.6877	-5.74832	-3.43079	3.64022	-48.0927	14.0871	2.06964	1.60749
0.8260	0.230889	7.00926	1.85892	-4.21895	-2.81733	2.11454	-62.4402	11.3384	-1.26119	1.286
0.8267	-3.42485	5.74633	-32.9327	-2.97964	-1.60179	3.34579	-75.2558	10.1015	-2.81341	1.286
0.8273	-4.65626	4.86228	-47.8729	-3.29606	-2.51061	3.93465	-65.1872	11.9569	-1.58457	1.60749
0.8280	-2.80915	2.7153	-24.9921	-3.29606	-2.21524	2.73016	-28.8746	14.0871	-0.646762	1.60749
0.8287	0.230889	0.884051	-3.62604	0.369158	0.840656	6.07595	1.95456	16.2174	0.549747	1.60749
0.8293	-0.076963	-1.57866	-2.08841	1.89853	1.76083	10.3586	15.0765	17.4543	0.258705	1.286
0.8300	-1.26989	-3.97823	-3.62604	0.68558	1.14738	10.9742	19.0385	17.4543	-0.970142	1.286
0.8307	1.15444	-2.46271	-1.19338	0.975633	0.53393	11.2686	23.9196	16.8358	-1.26119	1.286
0.8313	3.30941	0	-1.49172	0.369158	-0.681613	9.12731	26.0643	15.2897	-1.58457	1.60749
0.8320	-0.692667	-0.315733	-4.54402	-2.97964	-2.21524	4.87147	18.1299	11.9569	-3.10446	1.60749
0.8327	-2.5013	-0.631465	-4.84237	-4.50901	-4.04424	3.93465	21.1726	11.0292	-3.10446	1.286
0.8333	2.078	1.83125	-2.70805	-0.553738	-5.25978	6.98601	25.4515	13.7779	0.258705	1.286
0.8340	1.4623	3.03103	-4.84237	0.975633	-5.87323	7.60163	12.0232	14.0871	0.258705	0.964497
0.8347	-2.5013	1.51552	-8.19301	-0.553738	-7.08877	4.87147	17.2107	13.1594	-3.3955	0.642998
0.8353	-1.88559	0.884051	-6.97668	0.975633	-7.3955	2.11454	52.3082	14.0871	-5.23877	1.60749
0.8360	-0.692667	1.19978	-6.05869	1.89853	-7.70223	1.82011	80.6863	14.7056	-5.52981	1.92899
0.8367	0.230889	2.08383	-6.05869	0.68558	-7.3955	3.93465	100.528	15.2897	-3.3955	1.60749
0.8373	-0.384815	3.03103	-5.46201	-0.553738	-6.79341	3.93465	102.356	15.9082	-1.87561	1.286
0.8380	-0.962037	3.91508	-4.84237	0.0527369	-5.87323	5.46033	91.0613	17.1451	-1.87561	1.60749
0.8387	0.846593	5.49375	-3.92438	2.18858	-4.04424	8.83288	121.88	18.0384	-0.355719	1.286
0.8393	-0.692667	2.7153	-6.05869	-0.553738	-3.73751	7.3072	165.831	15.2897	-0.970142	1.286
0.8400	-1.26989	0	-6.05869	-2.68958	-3.43079	7.3072	158.203	13.4687	-0.646762	1.60749
0.8407	1.77015	0.252586	-3.92438	-1.45027	-2.81733	10.9742	108.462	11.9569	1.77859	1.60749
0.8413	2.6937	-0.947198	-3.62604	-2.08311	-4.64633	12.4999	41.9332	8.28049	3.29848	1.286
0.8420	3.00156	-2.46271	-3.92438	-3.90253	-8.31568	12.4999	-17.2741	5.53178	4.23629	1.60749
0.8427	3.00156	-4.29396	-4.54402	-4.82543	-11.0649	11.2686	-55.1186	1.58051	3.29848	1.286
0.8433	5.11804	-4.92543	-3.62604	-2.37316	-10.1447	10.9742	-60.9188	-0.858972	3.00744	1.286
0.8440	6.04159	-3.6625	-2.08841	-0.843791	-8.31568	11.2686	-43.518	-0.549742	4.23629	1.60749
0.8447	3.30941	-3.09418	-1.19338	-2.08311	-9.22449	10.653	-38.0241	0.652819	5.14176	1.286
0.8453	3.61726	-2.46271	1.26223	-0.843791	-11.3602	10.9742	-29.7833	2.16461	7.56711	1.286
0.8460	4.81019	-3.6625	1.56057	-0.237316	-12.5871	8.21726	-7.51185	1.58051	6.95269	1.60749
0.8467	4.19448	-5.80948	-0.275395	-1.45027	-15.0296	5.46033	-0.792389	-0.549742	3.62187	1.286
0.8473	5.11804	-6.12521	0.940934	-0.237316	-17.472	7.3072	-5.6735	-1.47743	2.68406	1.286
0.8480	2.38585	-7.07241	0.0458992	0.0527369	-18.9943	7.3072	1.34178	-2.71435	0.873128	1.286
0.8487	1.15444	-5.49375	1.56057	2.18858	-18.0741	7.3072	31.2518	-0.549742	0.258705	1.60749
0.8493	5.42589	-2.14698	4.91121	6.17022	-17.1653	7.60163	88.6208	3.40153	2.06964	1.60749
0.8500	3.30941	-2.46271	0.940934	2.82143	-19.301	3.64022	154.537	3.40153	0.873128	1.60749
0.8507	0.846593	-2.77845	-2.70805	-1.16021	-19.6077	2.73016	189.941	3.40153	0.873128	1.60749
0.8513	4.19448	-0.947198	-1.49172	-0.553738	-16.8586	3.34579	163.084	4.63845	3.00744	1.286
0.8520	5.42589	-0.315733	-2.40971	-0.237316	-17.1653	2.11454	97.168	4.63845	2.68406	0.964497
0.8527	4.81019	-0.631465	-4.54402	-1.76669	-18.6876	0.588859	60.5491	4.01999	2.39302	1.286
0.8533	5.73374	-1.26293	-4.54402	-1.45027	-17.1653	-0.642391	62.0705	3.71076	3.29848	1.286
0.8540	7.8887	-0.631465	-2.70805	1.58211	-15.3363	-0.0267663	69.6985	3.71076	4.23629	1.60749
0.8547	8.15807	1.19978	-4.54402	2.18858	-14.4161	0.294429	57.4957	0.652819	3.91291	1.60749
0.8553	4.50233	3.6625	-8.5143	0.369158	-12.8938	1.49891	14.1573	-2.09589	2.68406	1.286
0.8560	-0.692667	4.54655	-9.11099	-0.237316	-11.9737	4.25584	-34.6749	-1.1682	2.39302	1.286
0.8567	-6.15704	2.7153	-9.11099	-0.843791	-13.2006	4.87147	-73.1216	0.652819	1.16417	1.60749
0.8573	-6.15704	2.08383	-7.29797	-0.843791	-14.7228	6.07595	-100.898	3.0923	3.00744	1.286
0.8580	-3.117	1.51552	-4.54402	-0.553738	-17.7787	7.92283	-104.859	4.01999	5.75618	1.60749
0.8587	-3.117	0	-3.32769	0.369158	-21.13	6.98601	-83.1903	3.40153	5.4328	1.92899
0.8593	-5.84919	-0.947198	-1.79007	2.505	-23.2657	4.55027	-52.3716	1.27128	4.23629	1.60749
0.8600	-13.1991	-1.83125	-2.70805	1.58211	-27.8439	3.02459	-28.2619	-1.1682	2.39302	1.286
0.8607	-25.0899	-3.09418	-3.32769	0.0527369	-33.649	4.87147	-10.5652	-1.1682	0.549747	1.60749
0.8613	-35.4799	-4.60969	-0.275395	1.58211	-37.0002	6.69158	17.5171	1.27128	-0.0646762	1.60749
0.8620	-36.9807	-4.92543	2.7769	3.4279	-36.3868	6.39715	70.6177	5.22255	0.258705	1.60749
0.8627	-30.2849	-4.29396	2.7769	2.82143	-34.5578	6.69158	139.281	9.51741	1.16417	1.60749
0.8633	-22.3577	-4.29396	1.26223	0.68558	-33.9443	7.3072	201.837	10.1015	2.39302	1.286
0.8640	-14.3921	-4.92543	1.85892	-0.843791	-29.3662	7.92283	237.854	9.51741	4.23629	1.60749
0.8647	0.538741	-6.12521	4.61287	-2.37316	-23.8792	10.0374	234.801	9.79228	7.27607	1.60749
0.8653	14.5845	-8.58792	5.53085	-4.50901	-24.4926	10.653	203.676	8.28049	8.18153	0.964497
0.8660	19.4716	-5.49375	4.31453	-4.50901	-25.0947	11.2686	163.084	9.79228	9.41038	0.964497
0.8667	20.0873	0.884051	-1.19338	-4.21895	-24.1859	10.9742	111.505	13.4687	9.70142	1.92899
0.8673	18.5481	1.83125	-8.81265	-5.4319	-25.7082	6.69158	56.2702	12.8502	6.04722	1.60749
0.8680	22.5117	3.6625	-10.029	-2.08311	-26.0149	6.07595	13.5446	12.2661	4.81837	1.60749
0.8687	23.1274	6.3778	-11.2453	0.369158	-26.6283	6.98601	-24.2894	12.541	4.81837	1.60749
0.8693	15.2002	6.69353	-13.7009	0.0527369	-28.4573	6.69158	-50.2374	9.51741	3.62187	1.60749
0.8700	18.2402	4.86228	-10.029	3.11148	-30.2863	7.92283	-73.428	3.0923	4.81837	1.60749
0.8707	31.9781	-1.26293	-5.76035	4.03437	-32.4221	6.69158	-111.273	-8.79587	4.81837	1.286
