MR32 ASCII
Name	NA_fast
Frequency	1500
Date	28-08-2015 10:34:13
"Time,s"	"RT TIB.ANT.,uV"	"RT MED. GASTRO,uV"	"RT LAT. GASTRO,uV"	"RT BICEPS FEM.,uV"	"RT VMO,uV"	"RT VLO,uV"	"RT RECTUS FEM.,uV"	"RT SOLEUS,uV"	"RT SEMITEND.,uV"	"Channel 12,uV"
0.0000	18.5224	1.93481	-8.77631	-2.30314	-2.02103	-2.03335	-7.30403	-12.3318	-2.47173	-9465.88
0.0007	-161.527	5.58946	-12.4483	-2.59773	-2.63204	-2.64071	-8.52592	-12.3318	-1.54483	-10285.5
0.0013	-259.478	6.82559	-12.4483	-1.68719	-1.71553	-2.64071	-5.47118	-13.565	-0.66207	-9527.18
0.0020	-195.122	-0.214979	-9.40133	-2.59773	-2.32653	-4.17233	-4.5502	-22.0973	-1.28	-9875.06
0.0027	-117.582	-7.52427	-1.45838	-0.455272	-1.10452	-1.71646	-1.80549	-31.8627	-0.044138	-9835.58
0.0033	-77.6217	-14.5111	3.1251	0.455272	-1.41002	-0.501736	3.99396	-41.0282	0.264828	-9789.69
0.0040	-43.1232	-20.0468	4.03658	-1.3926	-3.24305	-2.32383	10.0943	-45.2944	-1.28	-9814.72
0.0047	-34.8682	-19.7243	4.94807	-1.98177	-2.93754	-2.93119	13.45	-38.8952	-0.66207	-9814.08
0.0053	-54.4173	-15.7472	3.72407	-2.9191	-1.71553	-3.56496	10.7053	-27.8965	0.882759	-9807.34
0.0060	-77.0056	-11.7701	2.18757	-3.82964	-0.799012	-3.24808	5.81769	-20.5641	2.07448	-9789.05
0.0067	-85.5481	-9.94279	3.1251	-3.21369	-0.188003	-1.71646	2.77206	-21.7973	4.23725	-9909.07
0.0073	-80.0448	-11.7701	2.50008	-3.50828	-1.41002	-2.93119	0.328271	-29.7296	4.85518	-9671.91
0.0080	-79.7573	-14.2424	2.50008	-3.21369	-2.02103	-4.46281	-0.583593	-33.9958	3.61931	-9759.2
0.0087	-83.4125	-14.2424	3.41156	-1.68719	-1.41002	-3.85544	0.629186	-30.0296	3.00138	-10515.6
0.0093	-83.084	-13.5974	2.50008	-1.3926	-2.63204	-4.17233	0.629186	-23.0305	1.80966	-6542.61
0.0100	-96.8423	-12.6838	3.72407	0.74986	-2.63204	-2.93119	0.0273559	-14.1649	1.19173	-342.743
0.0107	-114.543	-12.415	6.45853	2.89232	-2.32653	-1.71646	-1.50457	-7.46574	1.19173	111.68
0.0113	-92.5711	-14.5111	6.77104	0.455272	-4.15956	-4.77969	-6.08213	-8.06566	0.573794	-286.261
0.0120	-35.4842	-16.0697	8.30755	-0.776641	-5.99259	-6.60179	-9.7387	-7.46574	1.50069	62.5796
0.0127	20.042	-15.156	8.30755	-1.68719	-7.21461	-7.52604	-11.8816	-1.33317	3.00138	22.7854
0.0133	57.5797	-10.5877	6.17207	-2.30314	-6.9091	-8.1334	-13.7053	5.06604	4.23725	-23.4272
0.0140	79.2645	-3.86963	4.94807	-0.455272	-4.77057	-5.99442	-12.7934	13.2983	6.0469	1.6046
0.0147	91.1336	1.93481	0.364595	-1.07123	-5.07607	-5.67754	-13.1035	20.9307	5.47311	-0.320921
0.0153	78.9359	4.99827	-5.72934	-2.9191	-7.82561	-7.81651	-16.1491	24.5969	3.61931	-0.320921
0.0160	36.2235	8.65291	-10.0003	-3.82964	-9.03588	-8.74076	-17.371	30.0963	3.00138	-0.320921
0.0167	-1.60172	13.8662	-13.6723	-5.03478	-8.13112	-8.74076	-17.681	36.4955	3.31035	-0.320921
0.0173	-37.9484	16.8759	-14.8963	-3.82964	-6.29809	-8.1334	-16.4591	41.0616	3.92828	-0.641842
0.0180	-81.5644	15.0485	-14.2713	-0.455272	-5.99259	-7.52604	-15.2372	41.3615	3.92828	-0.641842
0.0187	-91.0515	8.97538	-13.6723	-1.3926	-7.52011	-8.42388	-15.8482	35.2623	3.61931	-0.320921
0.0193	-80.6609	1.93481	-11.2243	-5.03478	-7.52011	-9.05765	-15.8482	27.9632	3.61931	0
0.0200	-76.3896	0.10749	-13.0733	-5.65073	-8.13112	-9.95549	-14.9272	21.8306	2.38345	-0.320921
0.0207	-46.7784	2.25728	-17.0318	-2.59773	-7.52011	-9.95549	-14.0153	14.5315	1.19173	-0.641842
0.0213	-7.7211	7.14806	-17.6308	0.455272	-4.15956	-6.91867	-9.12775	9.63214	2.69242	-0.320921
0.0220	-3.73734	11.3939	-19.1673	-1.3926	-1.71553	-5.67754	-5.7721	4.76607	3.00138	0.320921
0.0227	-16.5921	8.06172	-20.3913	-3.82964	-1.10452	-6.31131	-6.69308	-6.23256	0.882759	-0.320921
0.0233	-24.5186	0.429958	-17.3443	-4.12423	-0.799012	-5.67754	-4.86023	-20.2641	-0.044138	-0.320921
0.0240	-8.33714	-4.13835	-14.2713	-4.12423	-0.188003	-4.46281	-1.50457	-30.9628	-0.353104	-0.320921
0.0247	28.297	-5.69695	-10.6253	-2.30314	1.95053	-3.56496	1.24013	-34.2957	0.573794	-0.320921
0.0253	26.1614	-7.2018	-4.81786	-0.776641	2.85529	-2.32383	2.77206	-33.6958	2.69242	0
0.0260	-1.93027	-10.5877	-1.45838	-2.59773	1.33952	-3.24808	0.328271	-33.6958	2.38345	0
0.0267	-8.95319	-12.6838	-0.859402	-4.12423	0.728511	-5.07017	-1.80549	-31.5627	0.573794	0
0.0273	-18.1117	-10.8565	-1.77089	-3.82964	0.117502	-5.99442	-1.19454	-25.7635	-0.044138	0
0.0280	-33.3486	-6.87933	-1.77089	-2.30314	0.117502	-5.67754	0.0273559	-18.731	-0.044138	0
0.0287	-36.1002	-5.37448	0.364595	0.133904	1.03402	-4.46281	1.24013	-14.1649	0.573794	-0.320921
0.0293	-36.4288	-6.61061	0.677104	0.455272	0.728511	-3.56496	0.328271	-13.565	-0.044138	-0.320921
0.0300	-42.5071	-7.52427	-0.859402	-1.07123	-0.188003	-4.17233	-2.41644	-12.9317	-1.28	0
0.0307	-41.275	-6.61061	-1.77089	-1.07123	-0.188003	-5.07017	-4.24928	-11.7319	-1.85379	-0.320921
0.0313	-31.213	-5.69695	-2.0834	-1.3926	-0.188003	-5.07017	-4.5502	-9.89877	-1.54483	0
0.0320	-17.7832	-5.05201	-0.234382	-1.07123	-0.493507	-4.77969	-3.33742	-7.13245	0.573794	0
0.0327	18.2349	-7.2018	3.41156	0.74986	-0.493507	-4.46281	-3.94837	-6.23256	2.07448	-0.320921
0.0333	65.8347	-9.35159	3.41156	-1.68719	-0.493507	-5.38706	-6.08213	-5.9326	1.50069	-0.320921
0.0340	75.8968	-7.2018	0.364595	-6.56128	-1.41002	-6.60179	-6.38304	-3.49956	0.882759	0
0.0347	58.1957	-2.6335	-2.99488	-7.17724	-1.41002	-5.99442	-4.86023	-0.133317	0.882759	-0.320921
0.0353	61.5634	-0.806172	-4.81786	-5.35615	-0.799012	-4.77969	-2.72647	2.93297	0.264828	0
0.0360	75.5682	0.698682	-4.50535	-3.50828	-1.10452	-3.85544	-1.19454	6.59918	0.882759	0
0.0367	76.1843	2.25728	-5.13037	-4.12423	-2.02103	-3.85544	-2.41644	9.63214	1.80966	0
0.0373	69.7774	1.02115	-6.35436	-5.65073	-3.54855	-5.07017	-3.94837	10.8653	1.50069	0
0.0380	33.4718	-0.483703	-6.64083	-6.88265	-4.77057	-6.60179	-4.5502	9.63214	0.573794	0
0.0387	-18.1117	0.10749	-4.81786	-6.26669	-4.46507	-5.99442	-5.16115	9.03221	-0.353104	0
0.0393	-37.3323	2.57975	-3.30739	-3.82964	-2.93754	-4.46281	-3.94837	13.2983	0.264828	0
0.0400	-58.6886	4.99827	-3.90637	-3.50828	-2.93754	-5.07017	-3.33742	15.1315	0.573794	0
0.0407	-103.537	5.58946	-6.04185	-4.74019	-5.38158	-6.60179	-6.38304	11.1653	-1.28	0
0.0413	-142.594	6.82559	-7.26585	-4.74019	-6.9091	-6.91867	-8.21589	9.9321	-1.54483	-0.320921
0.0420	-142.922	7.41678	-8.17734	-5.35615	-7.52011	-8.1334	-8.82684	11.1653	-1.54483	-0.320921
0.0427	-72.7344	6.2344	-6.35436	-6.56128	-8.13112	-8.74076	-10.0487	11.7652	-2.78069	0
0.0433	11.212	7.14806	-2.68237	-4.74019	-7.52011	-6.60179	-8.52592	13.2983	-2.78069	-0.320921
0.0440	26.7774	10.1578	-3.90637	-5.03478	-7.21461	-6.31131	-6.69308	13.8983	-1.85379	-0.320921
0.0447	11.4995	11.3939	-9.08882	-8.40915	-8.43662	-7.81651	-8.21589	12.3985	-1.85379	0.320921
0.0453	13.6351	12.0388	-10.6253	-8.99833	-9.34139	-7.52604	-9.7387	10.5654	-1.85379	0.320921
0.0460	22.7937	10.8027	-10.3128	-8.40915	-8.43662	-6.91867	-10.9606	6.89914	-2.47173	0
0.0467	34.9914	9.56657	-10.3128	-5.9721	-5.68708	-4.77969	-8.82684	4.46611	-1.28	0
0.0473	35.3199	8.06172	-9.08882	-2.9191	-3.24305	-2.03335	-5.47118	4.46611	0.882759	0
0.0480	19.426	3.17094	-9.40133	-0.160684	-4.46507	-3.24808	-6.99399	-0.433279	-0.353104	-0.320921
0.0487	12.1156	-2.31103	-7.86483	1.66041	-5.68708	-4.77969	-9.7387	-7.13245	-1.85379	-0.320921
0.0493	11.212	-7.52427	-1.45838	-1.07123	-5.68708	-4.77969	-9.43779	-11.7319	-1.85379	0
0.0500	2.34097	-11.7701	3.41156	-2.30314	-6.29809	-3.85544	-7.60494	-16.8979	-1.54483	0
0.0507	-13.5119	-9.67406	4.94807	0.455272	-4.46507	-2.32383	-4.5502	-17.2312	0.264828	-0.320921
0.0513	-27.2703	-3.86963	3.1251	-0.455272	-2.93754	-2.32383	-3.63833	-12.0318	0.573794	-0.320921
0.0520	-39.1394	-1.71983	0.0520849	-3.21369	-3.24305	-3.56496	-5.16115	-8.66559	-0.971035	0
0.0527	-51.0496	-2.0423	-0.546892	-4.12423	-2.93754	-3.85544	-6.08213	-9.26551	-0.971035	0
0.0533	-56.5529	-2.0423	0.677104	-1.68719	-2.63204	-3.56496	-6.08213	-8.66559	-0.971035	-0.320921
0.0540	-55.9369	-0.214979	3.1251	3.18691	-1.10452	-2.32383	-3.94837	-3.49956	-0.044138	-0.320921
0.0547	-47.723	2.25728	4.03658	5.62395	0.728511	-1.1091	-0.282678	1.99975	1.50069	-0.320921
0.0553	-17.1671	1.66609	2.18757	3.18691	0.423006	-2.64071	-0.282678	1.99975	0.264828	0
0.0560	31.6237	1.66609	0.677104	1.98177	0.423006	-4.17233	-0.583593	0.499938	-1.28	-0.320921
0.0567	65.2187	5.91193	-2.0834	4.41882	1.33952	-2.64071	1.55017	2.29971	-0.971035	-0.320921
0.0573	66.4507	9.88904	-5.13037	8.08778	1.64502	-1.42599	2.46203	6.59918	-0.971035	0
0.0580	53.5959	11.1252	-5.13037	12.3459	1.95053	-0.501736	4.29488	10.5654	-0.353104	0
0.0587	49.0372	9.56657	-5.13037	12.3459	0.728511	-0.818621	4.29488	11.7652	-0.044138	0
0.0593	56.9636	6.82559	-6.35436	9.61428	-0.188003	-2.32383	2.16112	9.03221	-0.353104	0
0.0600	71.297	4.0846	-7.57836	7.15045	0.423006	-4.17233	0.939219	5.66596	-1.28	0
0.0607	93.2692	2.25728	-7.86483	5.03478	0.423006	-4.77969	0.629186	3.83286	-2.78069	0
0.0613	106.699	4.6758	-6.04185	6.85587	1.33952	-3.24808	2.16112	7.79903	-1.85379	-0.320921
0.0620	88.998	9.56657	-6.35436	8.99833	3.1608	-1.42599	3.68393	13.8983	-1.28	0
0.0627	62.467	10.1578	-9.08882	7.15045	3.1608	-2.03335	1.55017	13.5983	-2.16276	0
0.0633	52.4049	6.2344	-8.77631	6.23991	2.85529	-2.93119	0.0273559	8.43228	-1.54483	-0.320921
0.0640	46.2855	2.57975	-6.35436	5.32937	3.1608	-3.56496	0.629186	5.96592	-0.044138	-0.320921
0.0647	43.5339	1.34362	-3.59386	5.62395	4.07731	-3.24808	0.328271	7.1991	0.264828	0.320921
0.0653	49.6532	0.698682	0.364595	7.76641	5.29933	-2.03335	0.328271	7.49907	0.882759	0
0.0660	38.9751	-0.806172	1.9011	8.08778	5.91034	-2.03335	-0.893626	3.83286	0.882759	0
0.0667	0.205348	-2.0423	1.58859	7.76641	5.29933	-1.71646	-1.80549	2.29971	0.573794	0.320921
0.0673	-40.9875	-3.22469	2.50008	7.15045	4.38281	-0.818621	-1.50457	5.06604	-0.044138	0
0.0680	-51.9942	-3.54716	4.03658	4.12423	3.77181	-0.501736	-0.583593	9.03221	-0.66207	0
0.0687	-29.6934	-0.806172	6.77104	2.27636	4.68832	0.422514	1.85108	14.2316	1.19173	0
0.0693	-10.1853	0.10749	7.08355	0.455272	3.77181	1.02988	2.16112	15.4314	2.07448	0
0.0700	3.57306	-2.31103	4.94807	-3.21369	1.64502	0.712993	0.629186	12.0652	0.573794	0.320921
0.0707	25.2168	-2.6335	3.72407	-5.9721	1.95053	0.422514	0.629186	10.5654	0.264828	0.320921
0.0713	39.8787	2.57975	-1.14587	-8.99833	3.77181	-0.501736	1.55017	12.6984	1.50069	0
0.0720	53.9245	11.3939	-7.57836	-9.93565	6.52135	0.105629	4.29488	18.4977	4.54621	0
0.0727	69.7774	19.6706	-12.4483	-9.31969	9.27089	2.56149	7.65053	24.297	7.59173	0
0.0733	71.913	20.5843	-17.0318	-10.8462	8.35437	2.56149	6.42864	22.7638	6.9738	0
0.0740	62.7545	15.371	-17.3443	-11.4622	6.52135	1.32036	4.60491	18.7977	4.85518	0
0.0747	52.4049	11.1252	-13.9848	-11.1408	4.99382	0.422514	6.12772	16.9646	4.85518	0
0.0753	38.6466	7.73925	-11.8493	-11.7567	1.33952	-0.18485	7.96057	12.6984	5.73794	0
0.0760	12.7316	6.50312	-9.40133	-10.2302	-0.188003	0.422514	9.18246	5.06604	6.9738	0
0.0767	-31.5415	4.6758	-7.86483	-7.79319	-1.71553	1.32036	10.0943	-1.96642	6.35587	0
0.0773	-80.0448	1.66609	-6.04185	-5.9721	-3.85406	1.32036	9.78429	-6.53252	3.92828	-0.320921
0.0780	-106.904	-3.22469	-1.14587	-2.9191	-5.07607	1.32036	9.18246	-12.3318	2.69242	-0.320921
0.0787	-118.486	-9.02913	4.94807	-1.07123	-5.68708	2.56149	9.78429	-19.3643	2.38345	0
0.0793	-123.989	-12.415	9.81801	-1.68719	-6.6036	2.85197	11.3162	-21.7973	3.61931	0.320921
0.0800	-119.102	-10.8565	11.3545	-1.3926	-6.6036	2.56149	12.839	-19.031	4.85518	0
0.0807	-109.04	-9.67406	9.53155	0.74986	-6.6036	2.24461	12.839	-16.298	3.92828	0
0.0813	-90.7229	-9.02913	6.45853	3.50828	-6.9091	1.92772	12.5381	-12.3318	3.00138	0
0.0820	-64.4794	-4.78329	1.9011	4.71341	-6.29809	0.712993	12.2281	-8.36563	2.38345	0
0.0827	-43.4107	0.10749	-1.77089	5.62395	-4.15956	0.712993	12.839	-5.63263	2.38345	0
0.0833	-5.29799	4.6758	-2.99488	9.29291	-1.71553	2.24461	14.371	-0.133317	2.69242	0
0.0840	77.7449	10.8027	-6.04185	12.9619	-0.799012	2.56149	14.6719	8.73225	1.80966	0
0.0847	144.853	15.0485	-9.71384	12.3459	-0.799012	1.32036	13.45	15.4314	0.882759	0
0.0853	119.841	13.2212	-11.5368	9.61428	-0.799012	-0.18485	13.1491	17.2645	1.80966	0
0.0860	5.09264	9.24411	-13.3598	8.38237	0.117502	-0.501736	14.0609	17.8644	3.92828	0
0.0867	-74.87	8.06172	-11.5368	6.85587	2.25603	-0.501736	15.2828	19.3976	5.73794	-0.320921
0.0873	-10.1853	7.14806	-7.57836	3.80286	2.85529	-1.71646	15.5837	17.5645	6.66483	-0.320921
0.0880	76.1843	8.33044	-7.26585	0.74986	1.33952	-2.64071	14.371	13.5983	5.73794	0
0.0887	81.4001	11.3939	-9.71384	-1.3926	0.117502	-3.24808	12.839	10.8653	4.23725	0
0.0893	40.4947	8.06172	-11.2243	-1.3926	-0.188003	-3.24808	11.9272	4.13282	2.69242	0
0.0900	-35.8128	1.34362	-8.48985	-1.68719	0.728511	-3.24808	12.5381	-3.79953	4.23725	0
0.0907	-66.3275	-2.31103	-1.14587	-3.21369	1.33952	-4.77969	13.45	-6.83248	8.20966	0
0.0913	-24.8061	-3.22469	1.27608	-5.35615	-0.493507	-6.91867	11.6171	-8.66559	8.51863	0
0.0920	-4.96943	-5.05201	-1.77089	-6.26669	-1.10452	-6.31131	9.18246	-15.698	6.35587	0
0.0927	-16.2636	-11.5014	-0.859402	-6.26669	0.728511	-4.46281	8.87243	-25.4635	4.85518	0
0.0933	-9.85672	-16.9834	2.18757	-6.26669	1.03402	-4.17233	8.26148	-27.8965	3.92828	0
0.0940	-0.0821394	-15.4248	2.81259	-4.74019	1.64502	-3.24808	11.0062	-20.5641	4.23725	0
0.0947	-13.8405	-9.94279	1.9011	-3.82964	2.85529	-1.71646	12.839	-14.1649	4.23725	-0.320921
0.0953	-35.1967	-5.96567	-1.77089	-5.65073	1.03402	-2.03335	9.48338	-14.4649	1.50069	0
0.0960	-40.3715	-3.86963	-3.30739	-5.03478	0.423006	-0.818621	7.96057	-13.265	-1.28	0
0.0967	-25.4221	-3.22469	-1.45838	-1.07123	2.25603	3.45934	10.3952	-8.96555	-2.47173	-0.320921
0.0973	-12.3209	-3.54716	0.0520849	1.98177	3.4663	6.81304	12.2281	-3.49956	-2.16276	0
0.0980	-11.3763	-4.46082	0.364595	3.18691	5.60483	8.34466	13.76	1.09986	-2.16276	0.320921
0.0987	-15.3601	-8.11547	-0.859402	1.66041	5.91034	8.34466	11.9272	1.69979	-4.01656	0.320921
0.0993	-22.0544	-12.415	-0.859402	-0.776641	4.68832	7.44681	8.57152	1.39983	-4.63449	0
0.1000	-27.5578	-11.7701	1.58859	-0.455272	4.68832	7.73729	8.87243	3.23293	-3.70759	0
0.1007	-22.999	-9.35159	2.18757	-0.160684	4.38281	7.44681	10.3952	4.13282	-3.39862	0
0.1013	-13.5119	-7.84674	2.18757	-1.07123	4.07731	6.81304	10.3952	5.96592	-2.16276	0
0.1020	-11.7049	-5.69695	1.9011	-1.68719	3.4663	5.9152	9.78429	8.73225	-1.54483	0
0.1027	-11.3763	-4.13835	-0.859402	-3.50828	1.33952	4.38359	7.34962	10.2654	-2.47173	0
0.1033	-3.73734	-3.54716	-3.30739	-4.74019	-0.188003	3.77622	5.81769	10.5654	-3.70759	0
0.1040	3.57306	-2.95596	-3.30739	-4.12423	0.117502	4.0667	5.81769	10.5654	-4.32552	0
0.1047	10.8835	-2.95596	-2.36987	-3.50828	0.117502	3.45934	6.73867	11.1653	-5.20828	0
0.1053	20.042	-0.214979	-2.36987	-1.98177	1.03402	4.67406	8.87243	13.8983	-4.32552	0
0.1060	18.8099	4.40707	-6.64083	-2.30314	1.95053	5.30784	8.57152	15.7314	-4.63449	0
0.1067	12.403	6.50312	-11.5368	-4.12423	1.95053	4.38359	6.73867	13.8983	-6.13518	0
0.1073	4.47659	5.91193	-11.2243	-3.50828	2.25603	5.30784	7.96057	10.8653	-6.13518	-0.320921
0.1080	-10.7603	2.84847	-7.86483	-0.160684	2.25603	6.52256	9.18246	6.26589	-6.13518	-0.320921
0.1087	-19.6313	0.10749	-4.50535	2.59773	2.54979	7.73729	9.18246	1.69979	-6.44414	0
0.1093	-26.0382	0.10749	-3.30739	0.74986	2.25603	8.34466	9.48338	2.93297	-6.75311	0.320921
0.1100	-34.2932	1.34362	-3.59386	-2.30314	1.03402	6.52256	9.48338	5.66596	-7.98897	0.320921
0.1107	-24.19	0.10749	-2.68237	-1.3926	0.117502	4.99095	10.0943	4.13282	-8.87173	0.320921
0.1113	-7.10505	-2.95596	-0.546892	-0.776641	0.423006	5.30784	11.0062	1.39983	-8.29794	0
0.1120	2.66953	-3.86963	0.0520849	-1.07123	1.03402	5.59831	11.6171	-1.0332	-6.75311	0
0.1127	12.403	-2.31103	0.364595	-0.160684	0.423006	5.9152	11.3162	-3.49956	-6.44414	0
0.1133	13.0191	-0.214979	0.677104	0.133904	-0.188003	5.30784	10.0943	-3.49956	-7.06208	0
0.1140	7.51575	1.34362	1.58859	-0.455272	-0.188003	4.99095	10.0943	-1.0332	-7.37104	-0.320921
0.1147	6.94078	1.66609	1.9011	-0.776641	-0.799012	3.77622	11.0062	1.09986	-6.75311	-0.320921
0.1153	7.84431	-0.214979	0.364595	-2.30314	-2.02103	1.63724	9.78429	1.39983	-6.44414	0
0.1160	11.4995	-1.71983	-0.859402	-2.9191	-2.02103	2.24461	8.87243	2.29971	-6.13518	0.320921
0.1167	15.4833	-0.483703	-1.45838	-2.59773	-0.799012	2.85197	9.18246	4.13282	-5.82621	0
0.1173	16.0993	0.698682	-2.36987	-1.98177	-0.493507	2.24461	9.18246	5.366	-4.63449	0
0.1180	15.7708	-0.214979	-1.77089	-2.30314	-1.41002	2.24461	9.78429	4.76607	-3.70759	0
0.1187	11.787	-1.39736	-1.77089	-4.4456	-3.54855	0.422514	7.65053	2.63301	-4.63449	-0.320921
0.1193	4.47659	-2.0423	-0.234382	-5.03478	-4.46507	-0.18485	6.12772	1.69979	-5.20828	-0.320921
0.1200	-1.31423	-2.95596	4.03658	-2.59773	-3.24305	1.63724	7.96057	2.63301	-4.01656	-0.320921
0.1207	-4.96943	-5.69695	4.03658	-2.9191	-3.54855	0.712993	7.96057	2.29971	-4.01656	0
0.1213	-5.58548	-6.87933	1.9011	-4.74019	-4.15956	-1.42599	6.73867	1.39983	-4.63449	0
0.1220	-3.44985	-6.87933	1.27608	-5.35615	-4.77057	-2.64071	5.81769	2.29971	-5.20828	0
0.1227	1.10888	-4.78329	-0.859402	-5.35615	-4.15956	-3.24808	4.29488	5.366	-5.20828	0.320921
0.1233	9.65137	1.93481	-2.68237	-3.82964	-0.799012	0.105629	7.03959	10.8653	-3.08966	0
0.1240	16.0993	8.06172	-4.81786	-3.21369	0.423006	1.63724	10.0943	14.8315	-1.85379	0
0.1247	18.2349	10.1578	-7.86483	-4.4456	-1.10452	-0.501736	7.96057	13.5983	-2.78069	0
0.1253	17.9064	8.97538	-8.48985	-5.35615	-2.63204	-2.64071	5.81769	11.4652	-3.70759	0
0.1260	15.7708	4.99827	-6.64083	-5.65073	-3.85406	-3.24808	4.60491	9.33217	-4.94345	0
0.1267	14.8672	2.84847	-3.59386	-3.82964	-3.54855	-1.71646	5.51677	9.63214	-4.01656	0
0.1273	18.5224	3.17094	-1.77089	-1.98177	-2.93754	-0.18485	8.26148	12.0652	-2.16276	0
0.1280	27.681	1.34362	-2.68237	-2.30314	-3.54855	-1.1091	7.96057	9.33217	-2.78069	0
0.1287	29.2005	-0.214979	-4.21888	-3.21369	-4.77057	-2.32383	5.51677	4.76607	-3.70759	0
0.1293	16.6743	-0.214979	-5.72934	-4.4456	-5.68708	-3.56496	3.68393	1.09986	-4.01656	0
0.1300	7.22826	-0.806172	-5.13037	-4.12423	-5.38158	-3.85544	3.68393	-1.96642	-4.01656	-0.320921
0.1307	1.43744	-0.483703	-2.0834	-2.30314	-5.07607	-2.93119	4.60491	-3.16627	-3.08966	-0.320921
0.1313	-9.24068	-0.214979	-1.14587	-1.98177	-5.99259	-4.46281	3.38301	-3.79953	-2.47173	-0.320921
0.1320	-14.744	-0.483703	-0.859402	-2.9191	-5.38158	-5.67754	2.77206	-4.09949	-1.85379	-0.320921
0.1327	-13.2244	-1.12864	-0.546892	-3.50828	-5.99259	-5.67754	1.85108	-5.29934	-1.54483	-0.320921
0.1333	-11.0888	-0.806172	-2.0834	-4.4456	-7.52011	-5.99442	0.328271	-6.83248	-1.85379	0
0.1340	-7.10505	2.57975	-1.45838	-2.30314	-5.38158	-4.17233	2.77206	-2.56635	0.573794	0
0.1347	-4.96943	4.6758	-0.234382	-0.776641	-4.46507	-3.56496	4.29488	2.29971	1.80966	0
0.1353	-10.4728	3.76214	-1.77089	-2.30314	-6.9091	-5.07017	2.77206	2.93297	0.882759	0
0.1360	-13.8405	3.17094	-2.68237	-3.50828	-7.52011	-5.38706	1.85108	2.29971	0.264828	0
0.1367	-1.93027	1.93481	-1.45838	-3.21369	-7.52011	-5.38706	1.55017	1.39983	0.573794	0
0.1373	10.8835	0.429958	1.58859	-1.07123	-7.21461	-3.85544	2.46203	0.799901	1.50069	0
0.1380	12.1156	1.34362	3.41156	1.36582	-5.99259	-2.64071	4.29488	1.39983	2.07448	-0.320921
0.1387	10.596	1.93481	2.18757	1.07123	-5.68708	-3.24808	3.99396	1.99975	2.38345	-0.320921
0.1393	13.3476	2.57975	0.0520849	-0.455272	-6.6036	-4.17233	2.46203	2.63301	1.80966	0
0.1400	25.2168	5.32074	-2.36987	-1.98177	-7.52011	-5.07017	0.629186	3.23293	1.50069	-0.320921
0.1407	37.127	7.14806	-1.77089	-1.07123	-7.21461	-4.46281	0.939219	4.13282	2.38345	-0.320921
0.1413	22.7937	5.91193	0.0520849	1.07123	-5.99259	-4.17233	2.77206	4.76607	3.31035	-0.320921
0.1420	-17.7832	5.58946	-0.859402	1.07123	-6.29809	-4.77969	2.16112	4.76607	3.31035	0
0.1427	-40.3715	5.91193	-2.0834	-0.455272	-7.21461	-5.07017	0.0273559	5.06604	3.00138	0.320921
0.1433	-33.0611	5.58946	-3.30739	-0.776641	-7.52011	-5.38706	-0.893626	4.46611	2.38345	-0.320921
0.1440	-21.1509	4.6758	-3.90637	0.455272	-6.6036	-5.07017	0.629186	3.83286	2.69242	-0.320921
0.1447	-16.8796	5.32074	0.0520849	2.89232	-4.15956	-2.93119	4.29488	5.66596	4.54621	0
0.1453	-22.999	4.99827	3.1251	2.59773	-3.85406	-2.64071	4.29488	5.66596	4.85518	0
0.1460	-33.0611	2.57975	2.81259	0.455272	-5.38158	-4.46281	2.16112	2.93297	3.00138	0
0.1467	-39.468	0.429958	3.41156	0.455272	-5.68708	-5.07017	2.16112	2.63301	2.07448	0
0.1473	-42.5071	-1.39736	4.94807	0.74986	-5.07607	-5.38706	2.46203	2.93297	2.07448	-0.320921
0.1480	-30.9255	-1.12864	6.17207	2.27636	-3.54855	-4.46281	3.07298	5.06604	3.31035	-0.320921
0.1487	1.10888	2.57975	5.26058	4.41882	-2.02103	-2.64071	4.29488	7.79903	5.16414	0
0.1493	26.1614	4.6758	2.50008	4.12423	-2.63204	-1.71646	4.29488	7.79903	5.73794	0
0.1500	25.5453	4.0846	0.677104	2.27636	-3.54855	-2.32383	3.38301	5.06604	5.16414	0
0.1507	16.0993	3.76214	-0.859402	1.66041	-4.15956	-2.64071	2.77206	2.29971	4.85518	0
0.1513	12.1156	4.99827	-1.77089	3.18691	-3.85406	-1.42599	3.68393	1.39983	5.16414	-0.320921
0.1520	15.4833	7.73925	-1.45838	5.94532	-2.02103	1.63724	6.73867	3.53289	6.66483	0
0.1527	13.0191	10.4802	-2.99488	6.23991	-1.71553	2.85197	7.03959	5.66596	2.69242	0.320921
0.1533	-2.21776	14.4574	-7.57836	4.41882	-2.93754	1.02988	4.90583	7.49907	-3.08966	0
0.1540	-11.0888	17.1983	-10.0003	3.18691	-2.93754	-1.1091	3.99396	9.03221	-2.16276	0
0.1547	-4.35339	14.1349	-10.6253	1.66041	-2.63204	-2.32383	2.77206	6.59918	1.80966	-0.320921
0.1553	8.1318	9.56657	-6.64083	1.36582	-2.32653	-1.1091	3.68393	3.53289	7.59173	-0.320921
0.1560	15.1547	6.50312	-0.859402	1.36582	-2.63204	-0.18485	4.90583	2.93297	12.1821	0
0.1567	12.1156	3.17094	0.989614	-1.07123	-4.46507	-3.56496	2.16112	0.166646	12.491	0
0.1573	5.70869	-0.214979	2.50008	-2.30314	-5.99259	-3.56496	0.328271	-3.49956	13.0648	-0.320921
0.1580	4.80515	-2.0423	4.03658	-2.30314	-6.29809	5.59831	-0.282678	-8.66559	14.3007	-0.320921
0.1587	1.72493	-2.0423	4.94807	-0.776641	-5.68708	15.0521	-0.282678	-13.565	13.3738	-0.320921
0.1593	-11.0888	0.429958	7.08355	3.18691	-3.24305	19.9374	2.46203	-13.265	15.2276	0
0.1600	-26.3257	1.34362	6.17207	4.41882	-2.93754	19.9374	3.07298	-11.4319	16.4193	0
0.1607	-41.8911	2.25728	2.18757	2.59773	-3.85406	17.7984	1.55017	-9.89877	15.5366	0
0.1613	-49.8586	4.40707	0.0520849	1.66041	-2.32653	17.191	1.55017	-5.29934	21.0097	-0.320921
0.1620	-33.9646	6.82559	-0.859402	2.89232	-0.493507	16.5837	1.85108	-1.0332	17.9642	0
0.1627	-4.0659	9.24411	-0.234382	6.56128	1.03402	15.369	3.38301	2.29971	23.7462	0
0.1633	10.596	10.8027	-0.859402	10.2035	1.95053	11.091	3.38301	3.23293	79.3159	0
0.1640	-0.698185	9.56657	-1.77089	13.5778	0.728511	5.9152	2.46203	1.69979	125.087	-0.320921
0.1647	-18.1117	7.41678	-1.77089	14.1938	-0.799012	1.92772	3.68393	-0.133317	134.533	0
0.1653	-24.5186	5.58946	-0.234382	11.4354	-0.188003	-2.03335	4.29488	-0.733242	169.048	0
0.1660	-13.5119	4.0846	3.41156	11.1408	0.728511	-4.77969	5.20674	-1.66646	183.084	-0.320921
0.1667	9.36389	4.0846	4.32305	13.5778	0.423006	-5.99442	6.42864	-2.56635	118.069	0
0.1673	21.2741	4.6758	0.989614	14.1938	-0.799012	-8.1334	5.20674	-4.39945	50.0083	0
0.1680	17.2903	5.58946	-2.36987	19.0679	-2.93754	-9.66501	3.38301	-5.63263	-36.0607	-0.320921
0.1687	12.7316	8.65291	-4.21888	23.0314	-4.15956	-7.52604	3.38301	-5.29934	-185.909	-0.320921
0.1693	16.3868	10.8027	-3.90637	11.1408	-2.63204	-6.31131	5.20674	-3.79953	-223.735	0.320921
0.1700	24.6418	10.4802	-2.0834	-6.56128	-1.41002	-7.52604	6.73867	-1.96642	-115.377	0
0.1707	29.2005	8.97538	-0.546892	-12.0513	-0.493507	-9.05765	6.42864	-3.16627	-44.2704	-0.320921
0.1713	32.8557	6.50312	0.989614	-8.40915	0.117502	-8.74076	4.60491	-5.63263	-41.2249	0
0.1720	37.4555	5.32074	0.989614	-1.07123	0.728511	-6.31131	3.07298	-4.99938	-50.0966	0
0.1727	38.3591	5.58946	0.677104	9.90887	1.33952	-2.03335	3.99396	-3.79953	-57.1145	0
0.1733	44.7659	5.91193	1.9011	19.0679	2.54979	1.02988	5.51677	-4.09949	-50.0966	0
0.1740	54.828	5.58946	1.9011	18.7465	2.54979	1.32036	3.68393	-3.49956	-29.0428	-0.320921
0.1747	56.9636	5.32074	2.18757	17.5414	2.25603	1.92772	2.16112	-1.33317	-14.6979	-0.320921
0.1753	48.7497	5.58946	1.9011	18.1573	1.64502	2.56149	2.46203	-0.133317	-18.9793	0
0.1760	33.7593	7.14806	0.0520849	12.0513	1.33952	1.92772	0.939219	-1.33317	-9.1807	0
0.1767	17.0028	8.06172	0.989614	6.23991	2.25603	4.99095	1.85108	-1.0332	39.6359	-0.320921
0.1773	-7.43361	8.65291	2.18757	4.41882	2.54979	8.66154	4.60491	-0.733242	85.407	0
0.1780	-32.445	7.73925	0.989614	-3.82964	2.85529	8.34466	6.12772	-2.86631	113.788	0
0.1787	-37.6198	6.50312	-1.14587	-18.1573	4.38281	6.20568	5.81769	-4.99938	183.349	0
0.1793	-40.7001	6.82559	-1.77089	-20.9158	5.60483	4.0667	4.60491	-4.69942	295.68	-0.320921
0.1800	-54.7048	7.14806	0.0520849	-5.9721	7.13235	4.67406	5.81769	-3.49956	368.905	-0.320921
0.1807	-52.2817	6.82559	2.81259	18.7465	8.65988	7.73729	8.87243	-2.86631	342.069	-0.320921
0.1813	-23.2865	5.58946	2.18757	41.9654	7.43786	8.34466	8.57152	-4.09949	231.592	-0.320921
0.1820	10.596	5.32074	0.0520849	55.088	3.77181	5.30784	6.42864	-5.29934	104.651	0
0.1827	22.7937	6.50312	0.364595	62.3991	0.728511	4.67406	6.73867	-4.69942	20.7007	-0.320921
0.1833	14.8672	7.73925	0.364595	66.3626	-1.71553	6.20568	7.34962	-3.16627	-45.5063	-0.320921
0.1840	7.51575	9.56657	0.364595	58.7301	-2.63204	8.66154	8.26148	-2.86631	-136.475	0
0.1847	1.72493	10.8027	1.27608	31.5745	-3.85406	8.34466	10.0943	-4.39945	-181.937	-0.320921
0.1853	-9.85672	10.4802	0.0520849	-8.70374	-5.99259	3.45934	8.87243	-7.13245	-163.311	-0.320921
0.1860	-19.6313	11.1252	-0.234382	-38.0019	-4.15956	0.712993	6.42864	-7.7657	-155.675	0
0.1867	-19.3027	12.9525	1.58859	-49.3033	2.25603	1.92772	7.96057	-5.29934	-149.275	0
0.1873	-16.8796	13.8662	2.50008	-49.5979	6.21584	0.422514	8.57152	-4.09949	-98.9132	0
0.1880	-14.744	13.5437	3.1251	-44.1079	6.21584	-1.1091	7.65053	-5.63263	-17.1255	0
0.1887	-11.0888	12.9525	4.63556	-41.3494	5.29933	-3.24808	7.34962	-5.9326	52.4359	0
0.1893	-12.8959	11.7164	4.63556	-44.1079	4.99382	-2.03335	5.81769	-5.63263	44.8	-0.320921
0.1900	-16.5921	11.1252	4.94807	-43.1973	5.60483	13.23	4.90583	-4.69942	7.9007	0
0.1907	-19.9188	11.3939	4.94807	-41.6708	7.43786	29.4176	5.51677	-4.09949	85.407	0
0.1913	-21.4384	10.8027	4.94807	-40.4389	9.57639	34.2765	5.51677	-3.16627	207.802	-0.320921
0.1920	-17.1671	12.0388	5.26058	-28.2269	9.57639	36.7323	5.20674	-0.133317	228.546	-0.320921
0.1927	-14.4565	15.371	1.9011	-12.3727	6.21584	37.9471	3.99396	3.53289	162.913	0
0.1933	-11.9923	17.7895	-2.0834	7.76641	3.4663	39.4787	4.29488	5.66596	75.0346	0
0.1940	-8.33714	20.5843	-5.72934	36.7699	1.33952	38.8713	6.42864	7.1991	-11.0345	0
0.1947	-5.87296	23.9164	-11.5368	54.1506	-1.71553	30.6323	5.51677	8.09899	-93.4401	0
0.1953	-0.698185	28.4847	-14.5838	50.1871	-2.32653	23.9249	4.60491	10.8653	-148.039	-0.320921
0.1960	6.32473	30.6345	-13.0733	35.2434	0.117502	23.2911	6.73867	11.1653	-148.966	-0.320921
0.1967	18.2349	25.7438	-9.71384	20.889	2.54979	20.5448	8.87243	4.13282	-74.1959	0
0.1973	31.9522	19.6706	-6.95334	11.4354	1.95053	13.23	9.18246	-3.49956	12.491	0
0.1980	33.4718	17.5208	-7.57836	5.94532	0.728511	6.20568	6.73867	-6.23256	62.2345	-0.641842
0.1987	25.2168	16.6071	-6.35436	6.85587	1.33952	3.16886	5.51677	-6.83248	111.669	-0.320921
0.1993	14.5387	16.2847	-2.36987	7.15045	1.95053	1.63724	7.65053	-8.36563	135.459	0.320921
0.2000	2.34097	15.9622	-0.234382	8.08778	0.423006	-3.24808	8.87243	-8.96555	126.588	0
0.2007	-4.96943	15.0485	-0.859402	20.273	-0.799012	-8.74076	7.34962	-8.66559	96.3973	-0.320921
0.2013	-6.81757	14.7798	-1.14587	31.8691	-0.188003	-5.07017	6.42864	-9.26551	-15.0069	0
0.2020	-8.33714	15.371	-1.45838	32.485	2.25603	5.59831	7.03959	-9.89877	-153.247	0
0.2027	-12.3209	16.6071	-2.36987	24.8525	4.07731	10.4836	6.12772	-8.66559	-159.029	0
0.2033	-13.2244	18.4345	-2.0834	15.3989	3.77181	9.26891	6.42864	-4.09949	-51.0235	0
0.2040	-11.7049	20.2618	-2.0834	10.5248	1.95053	7.44681	7.65053	1.09986	34.4276	-0.320921
0.2047	-10.4728	20.2618	-3.59386	18.7465	-0.799012	7.73729	7.34962	0.799901	7.9007	-0.320921
0.2053	-9.85672	18.112	-4.50535	34.9221	-4.46507	10.8005	9.18246	-0.433279	-133.385	-0.320921
0.2060	-10.4728	18.112	-3.90637	34.9221	-6.29809	11.091	10.3952	0.166646	-253.661	0
0.2067	-10.4728	19.6706	-2.0834	14.1938	-3.54855	5.9152	9.48338	1.39983	-258.825	0
0.2073	-18.1117	19.6706	-1.14587	-12.0513	0.423006	2.24461	7.96057	2.93297	-179.465	0
0.2080	-37.9484	18.7032	-1.77089	-32.8064	2.54979	0.712993	6.73867	3.23293	-38.7973	0
0.2087	-49.2425	17.5208	-2.36987	-26.7004	2.54979	-1.42599	5.20674	1.69979	41.7545	-0.320921
0.2093	-45.2588	16.8759	-2.0834	-12.9887	0.728511	-2.32383	4.60491	1.99975	-34.5159	-0.320921
0.2100	-39.1394	18.112	-1.14587	-17.8627	-1.41002	-2.64071	6.73867	3.83286	-71.1504	0
0.2107	-37.3323	20.5843	-2.0834	-17.8627	-2.32653	-4.77969	8.57152	5.06604	34.1187	0
0.2113	-36.4288	20.5843	-4.21888	-10.2302	-2.02103	-10.2724	9.18246	5.366	46.0359	-0.320921
0.2120	-31.213	19.0257	-5.72934	-9.61428	-1.71553	-16.3724	13.76	5.366	-76.0497	-0.320921
0.2127	-15.9761	18.4345	-6.64083	-8.40915	-0.799012	-18.1945	19.2494	5.66596	-82.7587	-0.320921
0.2133	7.51575	18.112	-5.72934	-0.160684	-1.41002	-15.1577	21.6932	6.89914	70.4442	0
0.2140	18.5224	16.6071	-2.99488	15.7203	-1.71553	-10.8797	22.9151	8.43228	190.367	0.320921
0.2147	7.84431	15.6935	-1.45838	28.5215	-4.15956	-10.5629	21.0823	7.49907	178.803	0.320921
0.2153	-4.35339	13.5437	-1.77089	32.1904	-9.34139	-15.4482	14.0609	4.46611	126.014	0
0.2160	-3.73734	11.1252	1.27608	35.538	-5.68708	-17.5872	8.87243	4.46611	57.3352	0
0.2167	2.66953	11.7164	4.94807	37.0645	3.77181	-16.6629	7.65053	8.43228	-46.4331	0
0.2173	5.99617	15.0485	4.32305	33.7169	5.60483	-15.4482	6.12772	14.2316	-106.858	0
0.2180	9.97993	16.6071	2.81259	30.3693	3.1608	-10.5629	3.68393	17.2645	-121.821	0.320921
0.2187	8.46035	15.6935	0.364595	20.889	-3.24305	-7.20915	1.24013	17.5645	-172.138	0
0.2193	-11.9923	15.6935	-2.0834	4.41882	-11.1744	-8.42388	0.0273559	20.3308	-231.371	0
0.2200	-13.8405	16.6071	-2.0834	-20.9158	-7.52011	-10.8797	0.328271	25.1969	-123.63	0.320921
0.2207	28.297	20.5843	-5.44288	-57.525	1.33952	-12.0945	0.328271	28.8631	139.741	0
0.2213	72.2416	25.1526	-11.5368	-84.0915	1.95053	-10.2724	0.0273559	31.9294	319.162	0
0.2220	118.938	26.335	-14.5838	-85.002	-3.85406	-11.4871	-0.583593	33.4292	362.814	0.320921
0.2227	188.797	25.1526	-17.6308	-68.5319	-7.52011	-19.7261	-0.282678	32.2293	347.542	0
0.2233	219.312	23.3252	-19.4798	-55.088	-6.9091	-20.3335	7.34962	29.163	303.625	0
0.2240	165.922	19.9393	-15.4953	-54.472	-5.99259	-11.4871	15.8938	23.0638	314.307	0
0.2247	72.2416	18.7032	-13.0733	-60.578	-4.46507	-8.42388	11.9272	14.5315	292.017	0
0.2253	-4.68194	22.0891	-13.6723	-61.194	3.1608	-6.91867	1.85108	9.33217	-8.6069	0
0.2260	-51.9942	26.335	-13.6723	-55.088	8.04887	1.32036	-5.16115	8.09899	-366.875	0.320921
0.2267	-84.9321	27.2486	-13.0733	-76.1376	4.38281	6.81304	-8.21589	4.46611	-375.702	0.320921
0.2273	-134.051	22.0891	-10.3128	-139.313	-0.493507	5.30784	-10.0487	-1.66646	-130.957	-0.320921
0.2280	-228.06	14.1349	-5.72934	-203.4	-0.493507	2.85197	-14.6263	-6.83248	75.0346	-0.641842
0.2287	-313.813	10.1578	0.989614	-233.93	4.68832	2.85197	-17.371	-8.66559	187.322	-0.320921
0.2293	-282.683	8.33044	7.99504	-231.171	8.04887	4.99095	-15.2372	-12.0318	246.864	0
0.2300	-131.916	3.17094	12.891	-213.175	2.54979	7.73729	-14.9272	-17.8311	151.04	-0.320921
0.2307	-3.44985	-2.0423	14.714	-194.562	0.117502	4.99095	-17.0701	-17.2312	-31.4704	0
0.2313	27.0649	-3.54716	11.9535	-185.403	5.60483	-4.17233	-18.8938	-12.6318	-50.0966	0
0.2320	7.22826	-0.806172	6.17207	-199.142	12.3259	-8.42388	-19.8148	-9.26551	88.1435	0
0.2327	-11.9923	8.65291	-0.859402	-217.754	30.9382	-4.46281	-19.8148	-0.133317	255.691	0
0.2333	6.61222	19.0257	-6.64083	-207.979	56.5771	-2.93119	-17.0701	8.09899	353.678	0
0.2340	17.2903	23.3252	-9.71384	-179.913	66.036	-5.99442	-14.6263	8.43228	321.633	0
0.2347	-22.999	23.9164	-10.6253	-140.545	59.3149	-8.1334	-14.3163	9.03221	208.375	0
0.2353	-71.8309	20.5843	-9.40133	-78.896	43.7576	-6.31131	-14.3163	9.33217	74.1077	0
0.2360	-135.612	16.6071	-7.26585	-13.5778	23.9234	-2.03335	-13.7053	8.09899	-15.6248	0
0.2367	-185.347	18.112	-6.95334	23.326	9.57639	0.712993	-9.43779	9.63214	-5.20828	0
0.2373	-127.973	20.5843	-7.86483	16.3095	2.54979	1.32036	-4.24928	7.49907	35.9724	-0.320921
0.2380	27.0649	13.2212	-2.68237	4.12423	-5.68708	-0.501736	-2.11552	-1.96642	-31.4704	-0.320921
0.2387	164.689	1.34362	6.45853	32.8064	-17.2845	-8.1334	-0.893626	-12.3318	-187.41	0
0.2393	188.181	-4.46082	7.39606	63.9256	-22.7718	-18.5114	1.55017	-19.6642	-248.144	0
0.2400	123.497	-1.12864	3.1251	70.6476	-19.1175	-24.6115	3.38301	-24.8302	-188.028	0
0.2407	46.9016	3.17094	2.18757	82.5382	-22.4663	-28.5725	2.77206	-28.1965	-113.258	-0.320921
0.2413	10.2674	1.93481	3.1251	95.9821	-18.5065	-29.1799	-0.583593	-31.5627	-93.7491	-0.320921
0.2420	24.9293	-1.39736	3.41156	99.6243	8.96538	-25.5357	-3.63833	-34.929	-109.286	0
0.2427	39.5912	-2.31103	4.63556	122.227	25.7446	-23.3967	-3.63833	-31.5627	-78.7863	0
0.2433	3.57306	-2.95596	6.17207	155.168	17.2023	-23.0798	-2.41644	-22.0973	-45.1973	-0.320921
0.2440	-61.4402	-4.13835	7.99504	155.168	6.52135	-19.4092	-0.282678	-19.3643	-67.7959	0
0.2447	-82.1804	-5.96567	9.21904	128.306	-2.63204	-12.7018	0.328271	-22.3972	-75.7408	0
0.2453	-50.7621	-6.28814	7.68253	101.767	-13.924	-6.31131	1.24013	-22.6972	-56.8056	0
0.2460	-13.2244	-6.28814	5.54705	78.2801	-20.0223	-3.85544	4.60491	-20.5641	-27.189	0
0.2467	1.43744	-5.05201	3.72407	63.3096	-21.5498	-10.2724	7.96057	-16.5979	47.8897	-0.320921
0.2473	-6.81757	-1.12864	1.9011	52.9455	-30.4094	-16.9798	8.26148	-9.26551	93.3518	-0.320921
0.2480	13.3476	1.34362	1.58859	46.5181	-44.1336	-11.1702	7.65053	-1.96642	-18.0524	0
0.2487	56.0601	-0.806172	1.58859	56.6145	-49.9382	-1.71646	2.16112	-4.69942	-181.01	0
0.2493	63.083	-5.96567	1.27608	68.7997	-49.3272	-1.71646	-10.3496	-14.4649	-194.428	0
0.2500	45.382	-9.94279	5.54705	71.8527	-45.9667	-8.1334	-17.9819	-18.731	-176.111	0
0.2507	26.1614	-9.67406	10.1305	82.5382	-42.6061	-10.2724	-14.9272	-19.031	-277.142	0
0.2513	8.74784	-6.28814	12.891	84.3593	-42.6061	-7.81651	-10.3496	-16.5979	-330.549	0
0.2520	2.66953	-6.61061	16.537	46.8395	-39.5628	-10.2724	-9.12775	-12.9317	-253.926	0
0.2527	2.66953	-13.0062	19.5839	-11.4622	-33.7582	-18.5114	-9.7387	-13.265	-171.255	0.320921
0.2533	2.95702	-16.9834	22.657	-58.4623	-27.9654	-21.5482	-7.91497	-10.7987	-94.6318	0
0.2540	-8.95319	-15.156	25.0789	-99.6511	-21.8553	-16.6629	-3.63833	-1.96642	24.3642	0
0.2547	-32.7325	-13.5974	24.4799	-146.651	-17.59	-6.91867	-2.11552	4.76607	146.759	0
0.2553	-30.0219	-12.6838	23.8549	-151.231	-15.146	3.45934	-2.11552	7.79903	214.511	0.320921
0.2560	-17.1671	-11.5014	19.2975	-108.194	-14.2295	7.44681	-3.02739	11.7652	267.3	0
0.2567	-28.4613	-10.5877	11.3545	-99.3565	-12.0909	3.16886	-7.60494	16.3646	372.878	0
0.2573	-32.7325	-8.11547	4.94807	-145.419	-10.8689	-4.77969	-17.371	19.6975	480.309	0
0.2580	-36.1002	0.10749	-6.35436	-188.751	-14.2295	-4.46281	-27.748	23.3638	534.643	-0.320921
0.2587	-43.1232	10.1578	-19.4798	-171.664	-17.2845	5.59831	-31.4137	28.5631	480.618	-0.320921
0.2593	-2.83381	12.9525	-22.2142	-105.757	-20.3278	18.4322	-30.1918	29.7963	248.055	0
0.2600	67.0257	7.14806	-14.8963	-39.2338	-25.2159	28.4933	-29.5808	26.1301	-9.1807	0.320921
0.2607	90.2301	-1.39736	-1.45838	-20.6212	-24.2994	26.0374	-29.5808	21.5307	-19.2883	0
0.2613	82.5911	-8.43793	11.3545	-74.0219	-14.8405	19.33	-26.8361	15.4314	211.465	0
0.2620	100.292	-9.94279	14.4015	-126.512	-5.99259	30.3154	-21.9486	8.73225	367.096	0.320921
0.2627	125.632	-2.95596	7.99504	-120.701	-3.54855	46.1861	-16.76	9.03221	252.955	-0.320921
0.2633	110.395	10.1578	-3.30739	-67.0054	-4.46507	46.503	-9.7387	13.5983	57.9532	-0.320921
0.2640	60.3314	20.2618	-13.3598	-1.3926	-1.71553	40.086	-3.94837	19.0976	0.573794	0
0.2647	48.4212	23.9164	-16.7193	48.6606	4.38281	31.847	0.0273559	27.6299	13.6828	0
0.2653	36.2235	23.594	-16.7193	93.5183	9.57639	24.5322	2.46203	34.0624	-47.9338	-0.320921
0.2660	5.70869	16.8759	-8.77631	96.5713	12.9369	24.5322	3.68393	29.7963	-154.174	-0.320921
0.2667	66.7382	3.49341	8.30755	70.0316	15.0637	26.3543	10.7053	20.3308	-210.626	0
0.2673	204.363	-9.67406	22.3444	102.061	14.4527	23.2911	25.3498	11.4652	-218.527	0
0.2680	316.688	-19.4019	30.2874	170.433	14.1472	18.4322	35.1159	-0.133317	-209.7	0
0.2687	340.468	-27.9473	36.6938	184.466	13.2307	11.4079	33.593	-18.731	-208.773	0
0.2693	261.45	-33.7517	39.1158	138.697	12.0204	-0.818621	28.4045	-31.2628	-214.864	0
0.2700	119.225	-31.6019	38.2043	92.3132	11.7149	-12.0945	25.9608	-24.8302	-209.082	0
0.2707	-24.19	-22.7878	31.4854	56.6145	8.35437	-19.4092	24.7389	-9.89877	-207.272	0
0.2713	-124.893	-9.35159	13.49	14.783	2.85529	-25.2188	21.9941	0.499938	-173.992	0
0.2720	-196.642	2.84847	-4.81786	-23.9688	-0.493507	-26.1431	16.8056	6.59918	-94.0139	0
0.2727	-277.508	6.2344	-12.1358	-51.7404	-4.15956	-21.8651	7.03959	11.4652	-21.7159	0.320921
0.2733	-275.372	6.82559	-14.8963	-64.247	-9.34139	-18.1945	0.629186	16.6646	24.6731	0
0.2740	-131.341	10.8027	-19.7662	-63.3364	-10.2579	-9.34813	3.07298	20.0308	41.4456	-0.320921
0.2747	5.70869	14.1349	-24.0372	-66.684	-7.21461	13.5469	4.90583	15.1315	19.509	0
0.2753	81.0715	13.8662	-23.4382	-85.9126	-9.9524	34.9102	2.16112	9.63214	-87.6139	0.320921
0.2760	108.835	12.9525	-18.8548	-110.953	-18.812	44.364	0.629186	9.63214	-244.48	0.320921
0.2767	-0.0821394	5.91193	-8.48985	-119.174	-24.9104	42.8324	1.55017	3.83286	-377.865	0.320921
0.2773	-180.46	-3.54716	6.17207	-112.158	-23.3828	34.9102	3.68393	-6.23256	-465.744	0
0.2780	-240.258	-7.84674	16.8495	-113.39	-16.368	23.608	0.939219	-12.6318	-420.591	0
0.2787	-177.092	-10.8565	24.1674	-108.489	-12.0909	4.0667	-7.30403	-16.5979	-278.069	0
0.2793	-65.999	-16.3922	34.2459	-66.0681	-9.9524	-19.4092	-10.0487	-9.89877	-170.637	0
0.2800	74.6647	-20.638	40.9648	-13.2832	-7.21461	-41.0895	-4.24928	2.93297	-125.484	0
0.2807	174.177	-23.9702	40.9648	13.5778	-7.52011	-52.0749	5.51677	9.63214	-108.359	-0.320921
0.2813	162.266	-26.4424	40.3398	63.3096	-6.9091	-49.9359	15.8938	10.2654	-92.2042	-0.320921
0.2820	53.5959	-25.2063	33.6208	153.346	-2.93754	-45.9748	19.2494	5.66596	-90.0856	0
0.2827	-66.9436	-18.4882	18.6725	234.813	-0.188003	-41.0895	15.2828	3.23293	-102.268	0
0.2833	-92.2425	-8.7604	4.32305	301.042	-1.41002	-37.4189	10.7053	7.49907	-97.1035	0
0.2840	-57.785	1.66609	-10.6253	328.519	-2.93754	-37.4189	6.42864	13.5983	-72.0773	0
0.2847	-95.3227	11.7164	-21.6153	309.291	-3.54855	-38.6601	5.51677	22.1639	-59.2332	0
0.2853	-154.504	14.7798	-24.6622	282.43	-4.77057	-49.9359	6.12772	27.9632	-63.8235	0
0.2860	-156.968	13.2212	-27.7092	265.638	-6.9091	-58.4918	1.85108	22.7638	-54.069	0
0.2867	-131.012	10.1578	-24.6622	259.237	-7.52011	-43.8359	-2.72647	15.7314	-82.4497	0.320921
0.2873	-91.6675	4.0846	-17.0318	242.151	-9.34139	-23.6872	-7.91497	9.63214	-225.854	0.320921
0.2880	-101.73	-0.483703	-13.6723	201.257	-13.0074	-12.4114	-11.8816	1.09986	-303.095	0.320921
0.2887	-137.419	-2.31103	-11.8493	166.469	-13.6185	-4.17233	-12.4925	-8.66559	-200.254	0
0.2893	-108.424	-9.02913	-8.77631	150.909	-13.3129	4.0667	-17.0701	-16.298	-95.5587	-0.320921
0.2900	-65.0954	-18.2195	-0.546892	145.098	-10.8689	30.0249	-18.5929	-17.2312	-42.4607	-0.320921
0.2907	-14.744	-24.6151	7.39606	142.661	-9.03588	59.3104	-16.1491	-18.431	3.00138	0
0.2913	69.1613	-27.3561	11.042	149.383	-8.73038	67.5495	-15.5382	-26.0634	29.5724	0
0.2920	97.5816	-26.12	17.162	164.327	-5.38158	70.9032	-8.21589	-31.2628	50.0083	0
0.2927	20.9455	-25.2063	17.4485	185.376	-4.15956	70.9032	-7.91497	-31.8627	56.4083	0.320921
0.2933	-91.0515	-25.5288	13.49	219.254	-5.99259	83.1297	-21.9486	-29.7296	21.6276	0
0.2940	-155.736	-25.5288	13.49	245.204	-6.6036	105.391	-30.1918	-23.6304	-27.498	0
0.2947	-145.058	-27.3561	15.6255	254.658	-5.38158	95.0129	-28.0489	-19.3643	-70.2235	0
0.2953	-112.695	-28.5922	18.0735	268.075	-1.71553	64.5126	-21.6476	-15.3981	-130.339	-0.320921
0.2960	-124.318	-26.12	15.0265	265.638	4.07731	46.503	-18.2829	-11.0986	-194.737	-0.320921
0.2967	-124.318	-20.638	5.85956	227.797	8.96538	38.8713	-17.681	-8.66559	-234.108	0
0.2973	-77.9092	-13.9199	-1.14587	178.065	8.35437	20.2543	-8.82684	-3.16627	-282.042	0
0.2980	-104.153	-10.2653	-4.50535	136.555	3.77181	-8.74076	-1.19454	6.59918	-358.312	0
0.2987	-177.996	-7.2018	-4.81786	100.535	1.33952	-18.1945	-0.583593	18.7977	-397.374	-0.320921
0.2993	-97.4584	-4.46082	-5.44288	68.5051	0.117502	-17.2967	0.328271	26.1301	-364.403	0
0.3000	81.4001	-6.61061	-5.72934	44.9916	-0.493507	-36.5211	0.0273559	23.997	-305.523	0.320921
0.3007	168.345	-12.0926	0.677104	28.2269	-0.188003	-64.5919	-3.02739	18.1977	-235.653	0
0.3013	160.131	-16.6609	5.54705	12.0513	-1.71553	-87.17	-9.43779	16.0313	-141.021	-0.320921
0.3020	106.699	-17.5746	5.85956	1.36582	-5.07607	-98.4722	-15.8482	23.997	-50.7145	-0.320921
0.3027	71.6255	-13.9199	4.03658	-1.07123	-5.68708	-83.4994	-18.5929	38.0286	3.00138	0
0.3033	186.374	-5.69695	-6.95334	-2.9191	-3.85406	-63.3771	-12.7934	53.2934	26.8359	0.320921
0.3040	292.868	2.84847	-18.2558	-6.88265	-0.188003	-67.3382	5.81769	60.8924	40.5628	0
0.3047	126.536	2.25728	-16.4068	-9.31969	2.85529	-77.3993	24.4379	54.1933	9.09242	-0.320921
0.3053	-64.4794	-8.43793	-2.0834	-4.12423	2.85529	-65.1992	30.8483	47.1608	-83.3325	0
0.3060	-36.1002	-21.2292	16.8495	6.85587	1.95053	-39.2674	31.1493	43.5279	-137.357	0
0.3067	63.9866	-27.3561	25.7039	12.3459	4.07731	-26.4335	28.1036	36.1955	-105.931	0
0.3073	186.662	-22.1429	16.8495	7.47182	8.96538	-22.7894	20.1613	33.7625	-51.0235	0
0.3080	336.525	-8.7604	-0.546892	-9.61428	16.8967	-21.2577	15.2828	39.8617	-12.5352	0
0.3087	358.169	1.93481	-12.7608	-29.4588	30.6327	-32.5336	21.6932	48.094	7.9007	0.320921
0.3093	186.99	5.58946	-13.3598	-32.5118	42.8411	-38.9505	32.3712	55.7264	-0.66207	0
0.3100	-98.6494	10.8027	-18.2558	-24.5847	48.634	-28.282	32.0702	60.2925	-32.0883	-0.320921
0.3107	-333.65	22.0891	-36.8761	-26.7004	55.0496	-20.3335	20.7722	62.4256	-46.4331	0
0.3113	-338.825	27.5711	-50.913	-33.1278	57.7873	-19.7261	12.5381	60.5925	-34.2069	0.320921
0.3120	-232.331	19.0257	-48.465	-33.7437	51.689	-22.7894	10.0943	50.2271	-26.88	0
0.3127	-196.026	3.17094	-35.9386	-38.6178	42.8411	-27.3578	12.839	34.3624	-22.0248	0
0.3133	-58.0725	-10.8565	-21.3027	-49.5979	36.12	-23.0798	25.9608	19.3976	3.61931	0
0.3140	156.763	-22.4653	-12.4483	-63.631	30.0217	-3.56496	36.6478	3.23293	51.2442	0
0.3147	208.346	-30.6883	-13.9848	-80.4225	24.2171	2.56149	34.5049	-20.5641	110.742	0
0.3153	197.052	-37.4064	-13.3598	-95.3662	19.0353	-20.043	33.283	-56.593	170.858	0
0.3160	187.278	-48.6928	-0.546892	-104.847	10.4929	-24.6115	36.6478	-92.8885	215.128	0
0.3167	64.6026	-62.129	20.5215	-97.5086	3.4663	5.59831	39.0825	-110.92	204.447	0.320921
0.3173	-123.086	-69.492	33.9333	-71.5849	-2.93754	18.7227	35.7268	-107.553	144.905	0
0.3180	-251.264	-67.9334	32.4229	-53.5615	-14.8405	12.9395	27.1826	-102.654	118.996	-0.320921
0.3187	-157.872	-56.647	22.657	-56.9358	-21.2443	31.5301	20.7722	-99.9209	151.614	-0.320921
0.3193	127.48	-40.1474	13.49	-69.4424	-19.1175	55.6398	14.371	-80.09	191.294	0
0.3200	328.599	-33.4293	17.761	-68.2105	-20.9388	53.5273	5.51677	-53.2267	194.957	0
0.3207	382.605	-38.965	34.5584	-41.3494	-29.4929	33.6691	-5.47118	-33.3958	137.578	0
0.3213	376.486	-35.9015	35.1573	-16.6308	-35.8968	15.369	-20.1157	-11.7319	66.1628	0
0.3220	261.45	-17.3058	17.162	-16.0417	-35.2858	22.3933	-23.4714	17.5645	65.898	0.320921
0.3227	19.7545	-3.86963	4.63556	-22.4423	-22.1608	30.9228	-9.12775	41.6948	106.461	0.320921
0.3233	-117.295	1.66609	-2.36987	-22.4423	11.1039	77.3201	12.2281	56.6263	121.115	0.320921
0.3240	-148.713	18.4345	-20.3913	-16.0417	41.0081	260.11	30.5383	77.6903	114.715	0
0.3247	-39.1394	41.5985	-48.1525	-9.31969	40.7026	434.688	36.0368	98.1545	99.4429	0
0.3253	291.964	52.8849	-67.3719	-5.35615	22.0903	451.456	36.3378	102.121	79.6249	0
0.3260	538.834	53.2074	-70.7314	-4.4456	5.91034	410.578	41.5263	93.2551	63.1173	0
0.3267	469.262	44.3395	-59.455	-8.40915	4.68832	373.344	52.8151	73.7242	47.2718	0.320921
0.3273	87.1909	18.4345	-29.2457	-6.88265	13.8417	309.544	72.9582	38.9285	30.4552	0.320921
0.3280	-251.264	-20.9605	7.08355	-1.68719	12.9369	246.696	84.858	-7.13245	13.3738	0
0.3287	-366.013	-51.1651	27.5269	-9.31969	1.95053	210.386	76.3139	-51.9935	-0.353104	0
0.3293	-328.475	-61.8603	34.2459	-26.1112	-1.41002	163.381	58.3137	-80.39	-1.54483	0
0.3300	-150.233	-60.0329	32.4229	-45.0184	0.117502	85.2422	35.1159	-85.5894	4.54621	-0.320921
0.3307	-14.128	-55.4109	26.9279	-69.1211	-3.54855	-2.03335	0.939219	-83.123	11.2552	-0.320921
0.3313	27.0649	-56.0558	26.9279	-82.565	-2.63204	-65.5161	-32.0246	-94.4216	18.8911	0
0.3320	-125.837	-61.8603	27.2144	-77.0749	4.07731	-112.494	-47.8911	-112.419	22.8635	0
0.3327	-537.191	-65.1924	27.5269	-68.2105	8.35437	-179.938	-52.4686	-114.552	24.3642	0
0.3333	-827.718	-63.9563	30.2874	-67.9159	15.0637	-244.953	-51.5476	-105.72	25.2911	0
0.3340	-759.378	-61.2153	33.0219	-70.353	24.2171	-276.087	-46.9701	-100.221	28.0276	0
0.3347	-507.005	-56.3246	34.2459	-65.4789	27.2722	-269.67	-43.6144	-87.7224	35.3545	0
0.3353	-170.686	-39.8786	21.433	-56.9358	28.1887	-234.575	-40.8697	-61.1591	39.018	0
0.3360	203.172	-7.84674	-10.6253	-48.0714	45.5907	-182.077	-35.3803	-27.5966	37.2083	0.320921
0.3367	335.909	27.5711	-42.3451	-36.1808	86.1758	-101.826	-24.6933	11.7652	39.018	0
0.3373	30.1041	52.8849	-61.8769	-33.7437	114.552	-29.7873	-13.7053	48.094	51.5532	0
0.3380	-288.473	63.5801	-68.3094	-43.1973	111.204	-2.32383	-14.3163	66.3917	72.9159	0
0.3387	-248.8	57.1845	-61.8769	-47.7768	87.3978	-0.818621	-24.0823	71.8911	87.2608	0.320921
0.3393	-203.665	36.1165	-42.3451	-42.5814	58.7039	-7.20915	-30.8027	67.6249	93.9697	0
0.3400	-66.615	9.56657	-16.4068	-39.8229	55.3551	-5.67754	-35.3803	41.0616	99.7518	0
0.3407	445.442	-12.0926	3.41156	-40.4389	89.8301	19.9374	-38.736	9.63214	106.152	0
0.3413	791.823	-26.7649	16.2245	-30.9853	121.579	34.5934	-31.1037	-7.7657	109.197	0
0.3420	630.707	-38.965	25.0789	-17.5682	112.719	4.99095	-21.0367	-26.0634	74.1077	0
0.3427	254.098	-48.1016	28.1259	-9.93565	78.5499	-16.6629	-16.4591	-52.3268	0.882759	0
0.3433	6.94078	-53.5836	30.8864	-4.74019	43.4521	-7.52604	-12.1825	-84.9561	-36.0607	0.320921
0.3440	112.202	-58.4743	34.2459	-7.4986	16.5912	-21.8651	-14.3163	-122.818	-20.789	0
0.3447	373.118	-60.9466	36.3813	-15.7203	-2.32653	-73.4383	-25.9152	-140.216	-1.54483	-0.320921
0.3453	469.262	-58.7968	34.5584	-21.8263	-31.3142	-120.126	-40.2588	-116.719	7.9007	0
0.3460	454.313	-50.8426	25.0789	-22.1209	-71.9111	-129.897	-55.2133	-72.7576	16.1545	0.320921
0.3467	369.463	-39.5562	14.4015	-18.7733	-96.9272	-97.2311	-61.0128	-31.2628	20.7007	0
0.3473	72.5291	-31.6019	9.21904	-20.2998	-100.593	-48.7212	-50.0248	3.53289	20.3917	-0.320921
0.3480	-360.51	-27.0336	9.81801	-26.7004	-86.2463	-21.2577	-22.2586	31.9294	28.9545	-0.320921
0.3487	-629.968	-16.3922	5.54705	-32.5118	-59.3971	-16.6629	12.5381	55.4264	41.1366	0
0.3493	-603.108	0.698682	-11.2243	-34.0383	-41.6896	-31.0284	41.5263	74.6574	43.6083	0
0.3500	-356.854	9.88904	-22.8132	-27.0218	-43.8281	-72.2235	63.8031	84.4228	43.6083	-0.320921
0.3507	-110.888	8.97538	-21.3027	-24.8793	-56.6476	-110.963	65.9368	88.389	52.1269	0
0.3513	49.6532	8.33044	-15.2088	-30.3693	-57.2586	-130.504	50.9914	101.187	68.9435	0
0.3520	197.052	11.1252	-13.3598	-37.7073	-40.4793	-132.326	29.0155	106.387	82.9794	0
0.3527	264.201	10.8027	-14.5838	-51.7404	-23.0773	-112.494	-4.5502	70.6579	79.3159	0
0.3533	202.227	1.93481	-4.81786	-58.4623	-9.03588	-100.294	-29.8818	8.43228	58.5711	0
0.3540	67.6418	-5.69695	6.45853	-52.9455	-0.493507	-110.065	-35.6812	-36.4288	49.0814	0
0.3547	-45.8748	-5.37448	10.1305	-47.1609	1.03402	-123.797	-29.5808	-52.6268	58.2621	-0.320921
0.3553	-36.4288	-4.78329	12.5785	-41.9654	-1.41002	-115.558	-19.2038	-69.0914	63.4263	-0.320921
0.3560	44.4785	-6.28814	7.99504	-40.1443	-3.85406	-65.8066	-16.4591	-84.0562	57.3352	-0.320921
0.3567	65.8347	-5.37448	0.364595	-34.3329	-1.71553	10.8005	-13.7053	-73.0576	52.4359	0
0.3573	62.467	-5.96567	-1.77089	-18.7733	0.423006	93.4813	-4.5502	-53.5267	52.4359	0
0.3580	48.4212	-8.11547	0.989614	-10.5248	0.423006	142.334	0.328271	-43.4613	51.2442	0
0.3587	-45.8748	-8.7604	6.45853	-15.4257	0.423006	145.371	-1.50457	-36.7621	48.1987	0
0.3593	-127.645	-9.94279	7.99504	-16.9522	-3.54855	142.334	-1.19454	-32.7959	42.0635	0
0.3600	-127.973	-10.5877	7.68253	-9.31969	-13.0074	124.615	10.7053	-29.7296	31.6911	-0.320921
0.3607	-117.911	-9.35159	8.90653	-4.74019	-27.9654	100.506	22.6051	-25.7635	20.3917	0
0.3613	-138.035	-7.2018	9.53155	-6.56128	-37.1188	117.908	21.3832	-19.031	16.7283	0
0.3620	-136.803	-5.37448	12.5785	-5.65073	-36.2023	131.323	19.5504	-10.7987	16.7283	-0.320921
0.3627	-98.0744	-3.54716	12.5785	-4.12423	-35.8968	100.506	19.5504	-5.63263	12.491	-0.320921
0.3633	-69.3667	-0.214979	7.39606	-5.9721	-35.8968	66.3347	12.2281	0.166646	9.40139	0
0.3640	-0.698185	5.58946	1.27608	-7.79319	-29.4929	18.4322	4.29488	7.49907	7.59173	0
0.3647	109.451	8.33044	-0.859402	-10.5248	-27.0489	-52.9991	0.939219	15.7314	6.35587	0
0.3653	144.565	5.58946	3.72407	-15.7203	-37.1188	-119.836	-5.16115	24.8969	10.3283	0
0.3660	112.202	5.32074	2.81259	-14.1938	-43.5226	-172.623	-13.1035	33.1292	10.6373	0
0.3667	124.729	9.88904	-2.68237	-2.30314	-39.2573	-198.265	-2.41644	38.9285	2.69242	0
0.3673	202.227	3.76214	0.989614	7.47182	-37.4243	-196.733	30.2374	38.6285	-6.75311	0
0.3680	260.834	-8.7604	8.62006	9.29291	-33.7582	-173.231	63.8031	38.0286	-15.8897	0.320921
0.3687	190.029	-7.84674	11.9535	9.61428	-18.5065	-118.911	85.469	41.0616	-17.7435	0.320921
0.3693	6.32473	3.49341	7.68253	5.62395	-5.07607	-84.4236	81.8124	45.361	-14.08	-0.320921
0.3700	-84.0286	10.8027	2.18757	-2.59773	-2.32653	-106.394	60.7575	54.7932	-11.3435	-0.320921
0.3707	-44.3553	16.6071	-3.30739	-10.2302	-3.54855	-126.543	37.5597	55.1265	-6.75311	0
0.3713	-44.0267	19.9393	-10.9118	-17.8627	-3.54855	-113.102	13.1491	41.9948	-4.01656	0
0.3720	-77.9092	17.7895	-8.17734	-16.9522	0.728511	-42.0138	11.9272	31.9294	-4.01656	-0.320921
0.3727	-74.5415	9.24411	-0.859402	-9.93565	16.5912	68.7642	32.0702	27.03	-6.44414	-0.320921
0.3733	-51.3782	-2.6335	4.32305	0.455272	41.9246	124.008	50.9914	17.8644	-13.771	-0.320921
0.3740	-42.5071	-12.6838	25.3914	11.4354	52.6055	107.847	70.5144	13.8983	-16.8166	0
0.3747	-76.6771	-23.379	45.8348	10.5248	47.7175	77.9275	68.3806	25.1969	-16.5076	0.320921
0.3753	-82.1804	-31.0107	46.4598	7.76641	49.5505	52.2861	38.1706	54.4932	-14.6979	0
0.3760	-36.7163	-27.6786	39.4283	4.71341	51.3835	23.9249	3.68393	80.7566	-3.70759	-0.320921
0.3767	-28.7898	-23.0565	29.3499	-10.8462	43.1466	-4.17233	-34.1584	72.491	10.0193	-0.320921
0.3773	-62.9598	-17.897	18.985	-16.6308	35.509	-37.1284	-79.323	61.8256	18.5821	0
0.3780	-120.047	-7.84674	4.32305	-11.1408	26.9666	-100.902	-128.454	79.5234	20.0828	-0.320921
0.3787	-189.906	-2.31103	-14.5838	-12.6673	22.3958	-179.938	-163.552	99.3543	17.9642	-0.320921
0.3793	-212.782	-2.31103	-19.7662	-16.0417	22.0903	-214.426	-169.041	98.1545	18.5821	0
0.3800	-166.127	-4.46082	-16.7193	-19.3892	16.2857	-204.365	-157.752	94.7882	16.1545	0
0.3807	-63.2473	-10.8565	-6.64083	-14.8097	18.4243	-200.404	-118.998	122.551	9.71035	0
0.3813	70.3934	-14.5111	6.45853	-0.160684	21.1738	-228.158	-57.6571	140.549	8.51863	0
0.3820	170.193	-5.05201	-1.14587	5.62395	1.95053	-239.46	-25.0033	111.553	9.71035	0
0.3827	170.193	13.2212	-13.9848	8.99833	-12.0909	-172.914	-19.5048	91.422	9.09242	0
0.3833	67.0257	20.5843	-7.86483	17.2468	-7.21461	-36.2042	-16.76	70.058	4.54621	0
0.3840	-98.6494	17.7895	0.0520849	19.6838	2.85529	134.993	-19.2038	4.46611	0.264828	0
0.3847	-265.31	20.853	1.58859	22.4155	29.7162	266.844	-14.6263	-26.0634	2.07448	0
0.3853	-289.706	20.5843	10.7555	24.2633	47.4119	283.613	-12.7934	-14.7648	5.16414	-0.320921
0.3860	-147.194	10.1578	24.4799	14.1938	32.7712	256.757	-22.2586	-40.095	10.0193	0
0.3867	-37.6198	5.91193	28.1259	-1.07123	19.9518	246.379	-14.3163	-66.9583	16.7283	0
0.3873	-120.334	13.8662	19.2975	-15.4257	18.4243	209.145	17.7266	-52.3268	17.6552	0
0.3880	-245.761	25.4213	6.77104	-20.6212	9.8819	170.696	48.5476	-36.4288	13.9917	0
0.3887	-248.184	35.794	-4.21888	-8.99833	-4.15956	134.069	56.4808	-49.8605	11.8731	-0.320921
0.3893	-91.6675	46.4893	-17.3443	-1.3926	-9.34139	74.8907	38.1706	-59.326	12.7559	-0.320921
0.3900	327.654	60.8391	-39.0116	-11.4622	-17.59	11.091	-11.8816	-32.1627	17.6552	0
0.3907	713.421	79.1661	-65.8614	-22.7368	-47.1887	-64.8823	-80.2349	9.33217	24.3642	0
0.3913	790.016	90.775	-83.2578	-23.6474	-74.6488	-109.458	-107.399	32.2293	26.5269	0
0.3920	733.258	80.3485	-80.8098	-20.6212	-78.9259	-110.963	-70.4688	46.8608	21.9366	0
0.3927	641.673	49.5527	-54.2465	-21.5317	-67.634	-103.041	-38.125	56.0264	18.5821	0
0.3933	569.965	11.3939	-11.2243	-24.5847	-50.8547	-58.7823	-44.5354	12.0652	17.6552	0
0.3940	549.512	-17.3058	22.0319	-23.9688	-35.5913	-11.4871	-45.7573	-56.593	14.3007	0
0.3947	426.221	-31.3332	38.5168	-23.0582	-29.7984	9.55939	-33.8484	-72.7576	14.3007	0
0.3953	56.3476	-35.9015	44.0118	-25.4953	-34.3693	29.4176	-34.7694	-57.4929	19.509	0
0.3960	-373.611	-31.6019	38.2043	-25.1739	-34.0638	12.9395	-32.6265	-50.4937	21.6276	0
0.3967	-556.741	-31.0107	38.5168	-20.2998	-24.9104	-24.9019	-5.16115	-43.4613	20.7007	0
0.3973	-570.786	-43.5333	48.2827	-16.6308	-21.5498	-12.4114	26.5717	-32.7959	21.0097	0
0.3980	-513.083	-57.2382	54.3767	-16.6308	-17.8955	-7.52604	60.4474	-19.031	24.3642	0
0.3987	-196.642	-67.611	52.2412	-16.3362	1.03402	-59.3897	85.779	1.99975	28.0276	0
0.3993	196.436	-73.1467	39.1158	-16.6308	17.5078	-74.9699	65.025	33.7625	28.0276	0
0.4000	335.909	-57.8831	10.1305	-21.2103	15.9802	-34.9895	13.1491	86.5559	28.3366	0
0.4007	375.87	-22.7878	-29.2457	-27.6377	19.0353	-5.67754	-36.9031	152.781	31.3821	0
0.4013	392.955	4.99827	-55.4705	-30.3693	27.5777	4.99095	-57.0462	197.309	32.309	0
0.4020	42.6303	13.2212	-65.5489	-28.5483	22.3958	4.67406	-40.8697	217.473	27.1007	0
0.4027	-562.819	11.1252	-71.6428	-21.2103	8.04887	-9.95549	-10.3496	218.373	18.5821	0
0.4033	-824.392	0.10749	-62.1894	-10.8462	-1.71553	-28.8894	29.9274	172.612	13.6828	0
0.4040	-607.092	-20.638	-31.6676	-7.79319	-3.85406	-21.8651	54.958	70.3579	12.491	-0.320921
0.4047	-113.927	-41.9747	5.54705	-6.56128	1.33952	5.59831	39.3925	-30.6295	12.491	-0.320921
0.4053	456.448	-57.5607	32.4229	-2.9191	6.82685	-5.99442	-1.50457	-92.8885	13.3738	0
0.4060	746.359	-61.5378	33.9333	-6.88265	2.54979	-47.7969	-53.0796	-147.848	12.491	0
0.4067	547.705	-43.2108	15.0265	-10.2302	-3.54855	-46.2653	-85.4234	-204.275	11.5641	0
0.4073	166.209	-12.0926	-4.50535	-8.40915	-7.52011	18.7227	-79.323	-246.103	11.5641	0
0.4080	-120.622	6.2344	-10.9118	-7.4986	-15.4515	103.859	-50.0248	-281.498	8.82759	-0.641842
0.4087	-327.859	5.58946	-2.0834	-3.21369	-19.1175	171.303	-0.893626	-291.864	8.51863	-0.320921
0.4093	-401.703	1.93481	5.54705	-1.98177	-20.3278	198.476	45.8029	-259.534	10.0193	0
0.4100	-322.972	0.429958	3.1251	-8.70374	-21.5498	179.252	54.958	-216.206	10.6373	-0.320921
0.4107	-214.63	-4.78329	4.03658	-11.4622	-13.0074	144.764	54.958	-185.977	13.0648	-0.320921
0.4113	-178.612	-11.5014	4.03658	-10.5248	-0.493507	100.506	67.1587	-176.211	12.491	-0.320921
0.4120	-164.566	-15.156	1.27608	-6.88265	7.74336	31.847	68.0797	-166.746	8.20966	0
0.4127	-119.718	-17.3058	4.32305	1.98177	9.57639	-42.3042	66.2469	-138.049	6.9738	0
0.4133	-95.3227	-15.4248	6.17207	3.18691	3.1608	-107.002	73.8792	-115.186	5.73794	0.320921
0.4140	-90.7229	-13.3287	4.03658	-3.82964	-2.32653	-148.804	75.7029	-103.587	2.38345	0
0.4147	-83.4125	-14.8336	4.03658	-6.88265	1.03402	-164.068	68.9916	-84.9561	1.50069	0
0.4153	-76.6771	-14.2424	2.18757	-6.56128	6.21584	-166.207	56.4808	-68.4915	2.07448	-0.320921
0.4160	-69.6952	-10.5877	-1.45838	-5.9721	8.65988	-151.551	47.9367	-56.293	0.882759	0
0.4167	-55.3209	-8.11547	-1.14587	-3.21369	9.27089	-116.165	42.4381	-41.3282	0.573794	0
0.4173	-8.04966	-8.11547	1.9011	-0.776641	7.74336	-65.8066	28.7055	-31.5627	3.00138	0
0.4180	56.3476	-9.67406	1.9011	-0.776641	7.74336	-27.3578	21.6932	-22.3972	3.61931	0
0.4187	94.2138	-11.5014	0.364595	-2.30314	9.8819	-13.0187	32.0702	-7.13245	2.38345	0
0.4193	111.915	-11.1789	1.27608	-3.82964	12.0204	0.422514	38.1706	-1.0332	4.23725	0
0.4200	113.434	-8.43793	-0.546892	-7.4986	12.9369	5.59831	28.1036	-0.433279	5.16414	0
0.4207	93.8853	-3.86963	-3.30739	-8.99833	14.7582	0.422514	20.4713	6.59918	3.31035	0
0.4213	63.3705	-0.214979	-2.36987	-4.74019	19.6463	7.73729	24.4379	11.1653	1.80966	-0.320921
0.4220	-2.54632	1.02115	-2.0834	-3.50828	24.2171	18.4322	31.7602	12.0652	0.882759	-0.320921
0.4227	-83.4125	3.17094	-1.14587	-5.65073	22.0903	12.6226	35.1159	15.4314	1.50069	0
0.4233	-92.2425	0.698682	3.1251	-5.65073	16.2857	2.85197	29.0155	16.9646	3.00138	0
0.4240	-44.9713	-15.156	5.54705	-5.9721	13.8417	4.67406	20.1613	2.29971	2.69242	0
0.4247	-6.20152	-25.5288	5.54705	-4.4456	15.0637	16.2932	21.0823	-17.8311	1.50069	0
0.4253	14.5387	-16.6609	4.94807	-1.07123	15.6747	27.2786	26.2708	-18.731	-0.66207	0
0.4260	15.7708	-8.11547	3.41156	-0.455272	15.3692	28.7838	28.1036	-8.06566	-3.08966	0.320921
0.4267	9.0764	-6.28814	5.26058	-1.07123	11.1039	39.7692	31.1493	1.99975	-3.39862	0
0.4273	11.212	-6.87933	7.39606	-0.455272	-1.10452	103.859	29.6264	12.9984	-3.08966	-0.320921
0.4280	17.9064	-7.52427	6.45853	0.74986	-12.7019	181.681	21.9941	23.997	-5.20828	-0.320921
0.4287	25.5453	-5.37448	7.08355	1.98177	-19.7168	202.754	17.7266	28.8631	-7.37104	0
0.4293	33.1843	-4.13835	6.17207	3.80286	-25.8269	194.805	14.371	27.03	-8.29794	0
0.4300	39.2626	-6.61061	0.677104	7.76641	-25.8269	178.935	21.3832	21.2307	-9.48966	-0.320921
0.4307	40.7822	-9.35159	-1.14587	11.1408	-21.2443	140.486	32.3712	11.7652	-13.1531	-0.320921
0.4313	42.9178	-9.02913	6.45853	11.73	-15.757	97.1519	29.0155	3.53289	-15.6248	0
0.4320	49.6532	-5.69695	13.1775	10.8194	-9.34139	60.2347	32.3712	-4.69942	-13.771	0
0.4327	53.5959	-14.2424	12.266	7.47182	-6.29809	16.2932	51.9033	-8.36563	-12.5352	0
0.4333	56.3476	-23.7015	17.4485	7.76641	-1.71553	-15.7651	59.5356	1.09986	-12.5352	0
0.4340	60.6188	-6.87933	19.8965	10.8194	3.4663	-38.9505	36.3378	35.5956	-7.06208	0
0.4347	54.212	15.0485	8.90653	7.76641	6.21584	-98.1553	8.26148	78.2903	-4.63449	0
0.4353	42.9178	17.1983	9.53155	10.2035	31.8547	-157.36	4.60491	96.6213	-8.29794	-0.320921
0.4360	43.2464	6.82559	21.1204	13.5778	63.5919	-185.14	4.90583	99.0544	-7.37104	-0.320921
0.4367	46.6141	-16.6609	16.537	1.66041	66.3415	-183.292	4.29488	89.8888	-2.78069	0
0.4373	47.5176	-38.32	6.17207	-8.40915	59.0094	-107.609	27.4927	76.4572	-0.353104	0
0.4380	45.0534	-37.4064	12.266	0.455272	59.6204	-30.7115	55.2589	59.6926	-0.66207	-0.320921
0.4387	39.8787	-30.6883	8.62006	11.73	63.2864	-17.2967	46.4138	21.2307	-5.51725	-0.320921
0.4393	45.0534	-20.0468	-13.9848	15.1043	60.8424	-12.7018	26.5717	-7.13245	-11.0345	0.320921
0.4400	49.9407	8.97538	-23.4382	15.1043	40.7026	-3.24808	28.7055	-0.433279	-13.4621	0
0.4407	39.2626	28.4847	-35.0271	11.4354	9.8819	-3.56496	24.4379	23.6637	-13.1531	-0.320921
0.4413	24.6418	29.3984	-59.455	9.61428	2.25603	-13.3092	12.839	41.0616	-11.6524	0
0.4420	17.9064	38.5888	-58.231	13.5778	15.0637	-27.3578	11.6171	30.9961	-11.0345	-0.320921
0.4427	22.5062	46.2205	-23.4382	13.2565	18.1188	-23.3967	14.371	27.9632	-11.3435	-0.320921
0.4433	23.6972	33.0531	24.4799	8.67696	14.7582	8.66154	24.7389	58.4594	-10.1076	0.320921
0.4440	4.47659	-8.11547	53.7777	8.38237	11.7149	29.708	28.1036	87.1558	-11.9614	0
0.4447	-11.9923	-60.6241	46.4598	12.0513	1.03402	28.1764	26.5717	100.587	-15.8897	-0.320921
0.4453	-3.73734	-63.6876	23.8549	18.7465	-13.924	34.2765	50.3805	92.3552	-18.0524	0
0.4460	17.9064	-26.4424	19.2975	26.0844	-22.1608	38.5544	71.4354	39.2285	-19.8621	0
0.4467	39.8787	-10.5877	36.0688	22.7368	-14.535	26.0374	50.9914	-45.5943	-16.1986	0
0.4473	55.7726	-11.1789	38.2043	6.56128	-6.9091	5.9152	0.939219	-112.419	-7.37104	0
0.4480	56.9636	1.93481	15.313	-5.03478	-9.64689	2.24461	-46.0582	-117.319	-0.044138	0
0.4487	38.0716	27.8936	-1.45838	-8.99833	-13.3129	27.2786	-67.4232	-68.4915	3.61931	0.320921
0.4493	7.22826	30.957	-5.44288	-11.4622	-18.5065	34.2765	-64.9794	-16.8979	3.00138	0
0.4500	-19.3027	-2.95596	-15.2088	-10.2302	-17.59	5.9152	-55.8243	18.1977	-0.044138	-0.320921
0.4507	-29.6934	-32.2469	-23.4382	-0.776641	-11.1744	-25.2188	-47.2801	35.8955	-5.82621	-0.320921
0.4513	-29.0773	-25.5288	-20.6777	12.9619	-10.5634	-32.2431	-31.4137	23.0638	-12.5352	0
0.4520	-29.6934	-9.35159	-9.71384	22.1209	-12.0909	-16.9798	-17.9819	1.99975	-15.8897	0
0.4527	-26.9417	-2.6335	7.99504	20.273	-12.0909	-9.34813	-7.60494	-9.59881	-15.8897	0
0.4533	-14.744	0.10749	17.4485	11.4354	-6.6036	-16.0555	20.7722	-27.5966	-13.1531	-0.320921
0.4540	-1.93027	-5.69695	16.537	10.5248	1.95053	-18.1945	43.66	-50.1604	-10.4166	-0.320921
0.4547	0.821394	-10.2653	14.089	12.6673	4.68832	-10.2724	26.8817	-53.2267	-8.87173	0
0.4553	1.10888	-2.31103	8.30755	12.6673	5.60483	3.16886	3.38301	-23.9304	-5.82621	0
0.4560	6.94078	12.3076	11.667	13.2565	7.43786	16.2932	-3.63833	15.1315	-4.63449	0
0.4567	14.8672	23.0028	32.4229	4.41882	6.21584	14.4447	-10.9606	48.394	-4.94345	-0.320921
0.4573	31.9522	32.7843	40.6523	-12.0513	8.65988	-7.52604	-9.43779	81.3566	-1.54483	0
0.4580	52.4049	43.7483	24.7924	-22.4423	15.6747	-19.1188	5.20674	78.9235	1.80966	0
0.4587	50.2693	53.5298	1.27608	-24.5847	20.8683	14.4447	8.26148	40.7616	1.50069	-0.320921
0.4593	33.4718	56.862	-11.5368	-17.5682	24.8281	37.3397	1.55017	41.9948	1.80966	0
0.4600	22.7937	48.0479	1.27608	-7.4986	26.6611	14.1542	-6.38304	79.2235	1.19173	0
0.4607	9.36389	33.698	7.68253	-3.21369	29.7162	23.608	-17.9819	77.0904	2.07448	0
0.4613	-6.48901	-4.46082	-0.546892	-9.31969	31.8547	66.0179	-45.4473	49.6272	7.59173	-0.320921
0.4620	-19.0153	-47.1879	5.26058	-19.6838	25.4391	76.3959	-88.1681	27.3299	11.2552	-0.320921
0.4627	-35.8128	-57.8831	5.26058	-18.1573	19.6463	59.9178	-106.177	45.0277	9.40139	-0.320921
0.4633	-50.1461	-51.7562	-15.2088	-9.31969	18.4243	48.642	-89.7	85.6227	7.59173	-0.320921
0.4640	-54.7048	-35.9015	-31.3812	-7.79319	13.5362	43.4397	-74.1345	23.997	4.85518	0
0.4647	-49.53	-18.2195	-31.9802	-7.4986	10.4929	40.086	-69.256	-89.2222	4.54621	0
0.4653	-35.1967	-7.52427	-29.5322	-5.9721	9.57639	34.9102	-65.5903	-150.881	7.28277	-0.320921
0.4660	-23.2865	-5.69695	-30.1572	-7.17724	6.21584	23.608	-62.2347	-177.445	6.0469	-0.320921
0.4667	-17.7832	-14.8336	-28.3082	-5.03478	4.68832	16.2932	-55.5142	-159.747	4.23725	-0.320921
0.4673	-14.4565	-18.2195	-37.7876	-4.74019	3.4663	17.5079	-51.8577	-99.321	4.23725	-0.320921
0.4680	-12.6084	-6.61061	-48.1525	-7.79319	0.728511	21.1785	-56.7361	-17.5312	2.69242	-0.320921
0.4687	-8.04966	11.7164	-28.6207	-2.59773	1.03402	16.2932	-55.5142	57.5595	4.23725	-0.320921
0.4693	-7.7211	24.5076	-8.17734	1.07123	0.728511	0.422514	-51.2467	60.2925	4.23725	0
0.4700	-16.2636	28.216	-2.99488	-1.98177	-2.93754	-10.2724	-49.4139	9.33217	0.573794	0.320921
0.4707	-22.0544	25.1526	6.77104	0.133904	-4.15956	-7.20915	-40.2588	-30.6295	1.19173	0
0.4713	-27.2703	24.2389	3.1251	2.59773	-5.07607	-5.38706	-30.8027	-77.657	2.07448	0
0.4720	-30.3094	32.4619	-15.2088	1.36582	-6.9091	-3.85544	-31.1037	-95.9547	-0.044138	0.320921
0.4727	-21.4384	40.6848	-33.2042	4.71341	-6.6036	5.30784	-31.1037	-41.3282	-0.66207	0
0.4733	-11.9923	33.3755	-42.3451	5.94532	-7.82561	6.81304	-30.4927	16.3646	-2.16276	0
0.4740	-7.10505	13.5437	-24.3497	3.80286	-11.1744	6.81304	-25.9152	37.0954	-4.01656	0
0.4747	-4.35339	-13.5974	9.21904	4.41882	-11.7854	27.5691	-15.2372	46.8608	-2.78069	0
0.4753	-11.7049	-23.9702	22.3444	5.32937	-13.3129	40.086	-10.3496	48.094	-1.85379	0
0.4760	-25.4221	-2.6335	10.7555	5.94532	-16.368	40.6934	-14.3163	36.7954	-2.16276	0
0.4767	-30.0219	11.3939	-2.68237	7.15045	-18.201	67.259	-24.3923	21.8306	-2.47173	0
0.4773	-20.5348	3.76214	-3.90637	7.15045	-18.812	92.5834	-29.8818	-3.49956	-3.70759	0
0.4780	-7.43361	-6.87933	4.63556	6.23991	-18.812	88.6224	-28.359	-31.8627	-4.94345	0.320921
0.4787	-6.48901	-9.67406	3.1251	6.23991	-20.0223	70.9032	-25.9152	-39.1951	-5.20828	0
0.4793	-11.3763	3.49341	-6.35436	8.67696	-20.0223	51.3883	-18.8938	-30.0296	-4.01656	-0.320921
0.4800	-9.24068	20.853	-1.77089	10.2035	-19.7168	28.4933	-14.9272	-13.565	-1.85379	0
0.4807	-4.0659	24.5076	15.313	6.56128	-20.6333	1.02988	-26.5261	3.53289	-1.54483	0
0.4813	0.821394	24.8301	31.7979	3.18691	-20.3278	-19.1188	-35.9912	-15.3981	-1.28	-0.320921
0.4820	-1.31423	43.4258	32.7093	1.36582	-19.1175	-39.2674	-29.2708	-65.7252	-0.971035	-0.320921
0.4827	-11.9923	59.603	17.761	0.133904	-17.59	-67.9456	-22.8695	-87.7224	-1.28	0
0.4833	-14.744	23.594	10.1305	1.07123	-14.2295	-89.309	-26.2252	-49.2605	-0.66207	0
0.4840	-11.0888	-36.4927	19.2975	2.27636	-13.6185	-97.8649	-32.0246	19.6975	-0.66207	0
0.4847	-10.7603	-54.2285	20.209	2.27636	-13.924	-76.5015	-35.0703	55.1265	-2.16276	0
0.4853	-12.3209	-30.0971	-7.26585	3.80286	-10.8689	-41.0895	-31.4137	67.6249	-3.39862	0
0.4860	-14.4565	-2.95596	-29.8447	4.12423	-9.9524	-39.2674	-25.0033	84.0895	-3.39862	0
0.4867	-13.8405	19.9393	-26.4852	3.50828	-11.1744	-50.8602	-14.9272	45.961	-2.47173	-0.320921
0.4873	-9.85672	38.5888	-13.6723	2.89232	-11.7854	-44.7601	-4.86023	-18.1311	-0.66207	-0.320921
0.4880	-6.81757	38.8575	1.58859	2.27636	-13.0074	-29.1799	-3.33742	-22.3972	-0.044138	0
0.4887	-5.29799	29.1297	12.5785	3.18691	-12.0909	-16.9798	-5.47118	7.49907	-1.85379	0
0.4893	-3.73734	22.4116	9.81801	4.12423	-10.5634	-13.3092	-3.63833	28.2632	-3.08966	0
0.4900	-1.02674	8.33044	-1.45838	4.71341	-9.64689	-12.0945	-0.583593	45.0277	-1.85379	0
0.4907	4.47659	-11.7701	-5.44288	6.56128	-8.13112	-9.05765	0.629186	64.2587	0.264828	0
0.4913	5.38013	-25.2063	-7.26585	6.23991	-7.52011	-9.05765	-0.282678	75.8572	0.573794	0
0.4920	3.86055	-23.7015	-22.8132	4.71341	-8.73038	-12.0945	-0.282678	69.1581	-0.66207	0
0.4927	10.596	-9.35159	-26.4852	4.12423	-8.73038	-11.804	0.629186	53.5933	-0.971035	0
0.4933	14.5387	4.0846	-2.68237	3.50828	-8.73038	-10.8797	0.328271	55.7264	0.264828	0
0.4940	4.47659	15.6935	9.81801	4.12423	-9.34139	-11.4871	1.85108	63.6588	0.264828	0.320921
0.4947	-3.73734	28.216	-4.50535	5.62395	-8.43662	-10.8797	6.12772	66.3917	-0.66207	0
0.4953	4.80515	30.0433	-12.4483	4.71341	-8.13112	-9.66501	5.81769	50.2271	-2.16276	0
0.4960	29.488	11.3939	7.08355	3.18691	-8.73038	-7.81651	2.46203	-23.3304	-2.47173	0
0.4967	52.4049	-22.1429	33.3344	3.80286	-8.73038	-5.99442	1.24013	-102.054	-1.54483	0
0.4973	50.2693	-42.2972	34.5584	4.12423	-7.82561	-5.07017	2.46203	-80.69	-0.971035	0.320921
0.4980	27.0649	-36.8152	11.9535	5.03478	-6.29809	-3.24808	5.51677	23.0638	0.264828	-0.320921
0.4987	-2.83381	-18.4882	-9.08882	5.62395	-5.68708	-2.64071	5.51677	88.389	0.264828	-0.641842
0.4993	-37.3323	1.02115	-13.9848	3.50828	-5.68708	-3.85544	3.38301	102.121	-0.971035	0
0.5000	-61.7277	4.0846	-15.4953	1.98177	-5.38158	-5.07017	3.68393	115.519	-0.971035	0.641842
0.5007	-62.3438	-14.2424	-24.9747	0.74986	-6.29809	-5.99442	3.38301	142.382	-1.28	0
0.5013	-45.2588	-30.0971	-24.6622	2.59773	-5.07607	-4.46281	4.60491	159.48	-0.353104	0
0.5020	-20.2474	-30.6883	-9.71384	4.71341	-2.93754	-2.64071	7.65053	115.519	0.882759	0.320921
0.5027	-2.21776	-21.2292	-0.859402	3.18691	-4.46507	-4.17233	5.51677	23.3638	-1.54483	0.320921
0.5033	-5.58548	-4.78329	-8.17734	1.66041	-5.68708	-5.99442	3.99396	-61.759	-3.39862	0
0.5040	-25.1346	6.82559	-19.7662	1.07123	-5.38158	-6.31131	4.60491	-112.119	-3.08966	0
0.5047	-40.3715	10.8027	-25.2612	0.74986	-4.46507	-4.46281	4.29488	-135.317	-2.78069	0
0.5053	-36.4288	15.6935	-24.0372	3.18691	-2.02103	-1.1091	7.03959	-120.685	-1.28	0.320921
0.5060	-35.8128	19.3481	-21.6153	4.41882	-1.10452	0.712993	8.87243	-54.4599	-0.971035	0.320921
0.5067	-62.6723	21.1755	-16.7193	4.12423	-1.71553	4.38359	7.96057	2.93297	-2.47173	0
0.5073	-91.955	23.594	4.63556	3.80286	-1.41002	8.66154	7.96057	15.4314	-2.47173	0
0.5080	-100.21	34.6117	34.8448	2.59773	-2.02103	8.05418	6.42864	5.366	-2.78069	0
0.5087	-80.6609	58.6893	42.7878	4.12423	-1.41002	6.81304	7.03959	-12.9317	-1.85379	0
0.5093	-33.9646	51.0576	22.0319	5.62395	-0.799012	7.44681	9.48338	-2.26638	-0.353104	0
0.5100	28.5845	9.56657	15.6255	3.50828	-2.02103	4.67406	7.96057	34.6624	-0.971035	0
0.5107	81.0715	-8.11547	38.8293	3.18691	-1.71553	2.85197	7.34962	53.5933	-0.66207	0
0.5113	95.1174	-6.61061	41.2513	2.59773	-2.32653	1.92772	7.96057	31.5961	-0.353104	-0.320921
0.5120	81.0715	6.82559	8.90653	1.66041	-2.63204	1.92772	7.34962	-41.3282	-0.971035	-0.320921
0.5127	64.3151	40.6848	-23.1257	4.12423	-0.799012	4.38359	10.0943	-106.953	1.19173	-0.320921
0.5133	22.1776	51.38	-41.1471	4.71341	-0.188003	4.0667	12.2281	-106.02	2.38345	-0.320921
0.5140	-29.0773	9.56657	-42.0586	2.89232	0.728511	2.85197	10.3952	-83.423	0.882759	-0.320921
0.5147	-65.999	-25.8512	-27.1102	3.18691	1.95053	2.85197	10.7053	-70.6245	0.882759	0
0.5153	-116.35	0.698682	-10.9118	1.66041	0.117502	1.32036	10.0943	-26.0634	-0.66207	0
0.5160	-138.939	27.2486	-4.21888	1.98177	-0.188003	2.24461	10.0943	32.2293	-4.01656	0
0.5167	-110.272	6.50312	6.45853	5.32937	2.25603	4.67406	13.1491	44.1278	-3.70759	0
0.5173	-65.0954	-3.54716	18.985	4.41882	0.423006	2.85197	12.2281	28.2632	-0.66207	0.320921
0.5180	-8.33714	20.853	14.089	3.18691	-0.493507	1.63724	10.7053	8.73225	4.23725	0
0.5187	31.9522	32.4619	0.0520849	3.18691	0.423006	1.63724	11.3162	-26.0634	6.66483	-0.320921
0.5193	30.4326	8.06172	-7.26585	3.80286	0.423006	1.32036	10.3952	-43.1613	7.9007	0
0.5200	5.99617	-29.7746	-10.0003	7.47182	2.25603	3.16886	13.45	-27.5966	11.5641	-0.320921
0.5207	-4.68194	-56.9695	-11.8493	7.15045	2.25603	3.45934	14.6719	-17.8311	12.491	-0.320921
0.5213	17.2903	-73.4154	0.364595	5.32937	1.03402	1.92772	12.839	-26.0634	21.0097	0
0.5220	37.743	-115.874	33.9333	6.85587	2.54979	2.85197	13.45	-44.3611	32.9269	0
0.5227	25.5453	-196.437	50.1057	5.62395	1.33952	1.92772	11.0062	-53.5267	22.5545	-0.320921
0.5233	-22.0544	-218.096	18.3599	5.94532	-0.188003	2.56149	10.7053	-49.8605	13.6828	-0.320921
0.5240	-67.5186	-105.77	-7.57836	8.99833	1.03402	5.9152	16.5047	-59.026	30.7642	0
0.5247	-62.9598	13.5437	1.58859	8.08778	-0.493507	4.99095	17.4166	-78.2569	45.109	0
0.5253	15.7708	34.2892	-2.99488	5.62395	-2.02103	2.24461	14.0609	-72.7576	48.7725	-0.320921
0.5260	164.402	20.853	-15.8078	5.03478	-1.71553	1.02988	13.45	-46.8275	28.6455	-0.320921
0.5267	247.116	61.7528	-17.3443	4.71341	-1.10452	0.422514	13.45	-26.9966	-15.8897	-0.320921
0.5273	188.797	166.716	-18.8548	4.12423	2.85529	2.85197	16.5047	2.93297	-26.3062	-0.320921
0.5280	75.8968	213.152	-20.3913	0.74986	6.21584	3.16886	18.9485	36.7954	-13.771	-0.641842
0.5287	2.95702	145.702	-25.2612	-0.160684	6.52135	0.105629	15.5837	49.6272	-45.1973	-0.320921
0.5293	34.7039	62.9889	-35.9386	3.80286	7.43786	0.105629	14.6719	51.127	-73.887	0
0.5300	13.6351	6.2344	-44.7931	4.12423	6.82685	0.712993	14.6719	49.6272	-49.7876	-0.320921
0.5307	-160.624	-51.7562	-40.5221	2.27636	5.91034	1.32036	15.5837	54.1933	-34.8249	0
0.5313	-272.004	-117.379	-28.0217	-1.68719	6.21584	3.16886	19.2494	56.0264	-46.4331	0
0.5320	-194.793	-152.474	-24.9747	-9.93565	4.07731	2.24461	18.6385	28.8631	-43.6966	-0.320921
0.5327	26.4489	-117.97	-24.3497	-12.0513	3.1608	0.712993	16.1947	5.06604	-29.0428	0
0.5333	255.946	-72.233	-16.4068	-7.17724	3.1608	0.712993	16.8056	11.4652	-20.789	0
0.5340	286.79	-64.87	1.58859	-4.12423	2.54979	0.422514	16.1947	12.0652	-19.2883	0
0.5347	130.807	-35.5791	27.2144	2.59773	3.77181	1.92772	18.0275	10.2654	-19.2883	-0.320921
0.5353	-6.20152	-4.46082	26.6154	7.47182	5.60483	3.45934	20.1613	30.3962	-18.0524	-0.320921
0.5360	-81.8929	-31.9244	20.5215	3.18691	4.38281	1.92772	17.7266	54.7932	-14.08	0
0.5367	-137.419	-22.7878	39.4283	0.133904	3.77181	1.32036	15.8938	94.1883	-10.1076	0
0.5373	-136.187	69.3845	37.2928	-1.3926	4.07731	1.32036	14.371	147.882	-9.48966	0
0.5380	-107.808	106.307	20.5215	-2.30314	4.68832	1.63724	14.371	144.215	-8.29794	0.320921
0.5387	-117.911	62.9889	15.6255	0.133904	6.82685	3.77622	17.7266	45.0277	-3.08966	0
0.5393	-142.922	38.5888	0.364595	0.133904	5.91034	3.45934	17.7266	-71.2245	0.882759	-0.320921
0.5400	-148.426	-4.78329	-19.7662	-2.30314	3.77181	1.32036	15.2828	-83.123	4.54621	-0.320921
0.5407	-151.465	-133.878	-39.9231	-2.30314	3.4663	0.105629	14.6719	-30.6295	14.9186	-0.320921
0.5413	-153.313	-214.442	-65.8614	-1.68719	2.25603	-1.1091	14.0609	-55.9597	29.8814	0
0.5420	-138.035	-151.883	-55.783	1.66041	2.25603	0.422514	15.5837	-125.851	39.9449	-0.320921
0.5427	-119.718	-24.2927	-12.7608	3.18691	2.85529	1.32036	16.5047	-132.284	42.6814	-0.320921
0.5433	-101.401	75.189	-4.81786	1.36582	2.25603	-0.18485	14.0609	-100.521	40.8718	-0.320921
0.5440	-71.8309	48.639	-24.6622	1.66041	1.64502	-0.818621	13.1491	-93.5217	29.8814	-0.320921
0.5447	-35.4842	11.3939	-30.1572	5.32937	0.423006	-0.501736	12.2281	-90.1555	3.00138	0
0.5453	-13.5119	117.325	-11.2243	14.4884	-1.10452	1.63724	12.839	-62.6922	-29.0428	0
0.5460	-26.3257	217.72	19.8965	21.2103	-2.02103	2.85197	15.8938	-26.9966	-49.1697	-0.320921
0.5467	-46.7784	190.257	42.1888	15.3989	-4.46507	1.02988	15.2828	8.09899	-46.7421	-0.320921
0.5473	-31.829	121.571	32.1104	5.32937	-4.15956	-0.18485	12.839	20.6308	-29.0428	0
0.5480	-19.6313	87.9802	-5.44288	-1.98177	-2.32653	-1.1091	11.9272	36.1955	-15.0069	0
0.5487	-31.5415	73.3617	-17.3443	-5.65073	-0.799012	-2.03335	9.78429	74.6574	-10.4166	-0.320921
0.5493	-30.5969	62.0752	5.26058	-3.21369	1.64502	-0.501736	10.7053	64.8919	-11.9614	0
0.5500	-27.2703	64.225	11.9535	0.133904	3.1608	0.422514	12.839	24.8969	-15.3159	0
0.5507	-24.19	68.1484	3.1251	-1.07123	2.25603	-0.501736	10.7053	9.33217	-17.7435	0
0.5513	-5.58548	67.8797	9.81801	-1.98177	1.95053	-0.18485	10.0943	-6.53252	-15.0069	0
0.5520	6.32473	65.1387	19.8965	-2.9191	0.728511	-0.818621	8.87243	-26.0634	-11.9614	0
0.5527	10.8835	56.862	19.8965	-0.776641	1.03402	-0.18485	8.26148	-33.3958	-11.0345	0
0.5533	14.8672	50.7888	7.99504	2.89232	2.25603	2.56149	10.0943	-18.731	-10.1076	-0.320921
0.5540	18.2349	43.4258	-9.71384	2.89232	1.03402	1.63724	8.57152	14.8315	-11.3435	-0.320921
0.5547	36.8395	33.698	-10.6253	4.41882	0.117502	1.32036	7.03959	20.0308	-9.1807	-0.320921
0.5553	51.1728	29.7209	-2.99488	3.80286	0.117502	1.63724	6.42864	-14.4649	-3.70759	-0.320921
0.5560	39.5912	28.216	1.27608	0.133904	-0.188003	0.712993	4.90583	-41.9281	-1.28	-0.320921
0.5567	33.7593	32.4619	11.667	-0.160684	1.95053	2.56149	6.73867	-46.5275	1.50069	0
0.5573	28.5845	37.3526	18.985	-0.160684	2.85529	3.77622	8.26148	-38.5952	2.38345	0
0.5580	-7.10505	31.2257	18.0735	-1.98177	0.728511	1.63724	6.12772	-25.1635	-0.353104	-0.320921
0.5587	-35.8128	22.6803	22.9434	-2.59773	0.423006	1.02988	3.99396	-11.7319	-1.85379	-0.641842
0.5593	-42.5071	8.33044	29.0634	-5.9721	0.728511	1.92772	3.07298	1.99975	-1.54483	0
0.5600	-49.2425	-6.87933	21.7194	-7.4986	1.64502	1.32036	5.20674	7.49907	-0.971035	0.320921
0.5607	-81.2769	-0.806172	6.77104	-3.82964	2.85529	-2.32383	7.96057	11.1653	1.19173	-0.320921
0.5613	-143.826	8.33044	-0.859402	-3.50828	1.64502	-5.07017	6.12772	31.9294	1.80966	-0.320921
0.5620	-131.916	0.10749	1.9011	-2.30314	1.33952	-2.93119	3.99396	54.1933	2.07448	-0.320921
0.5627	-11.3763	-3.86963	9.53155	-5.03478	1.64502	-1.1091	3.68393	67.025	3.00138	0
0.5633	133.887	-4.46082	10.7555	-19.0947	1.95053	-0.501736	3.38301	79.8234	4.23725	0
0.5640	241.613	-34.0742	0.989614	-22.1209	3.77181	2.24461	5.51677	83.7896	9.09242	0
0.5647	268.473	-69.492	-10.3128	-10.2302	3.1608	3.45934	4.90583	76.4572	19.7738	0
0.5653	266.624	-89.9151	-17.0318	-5.9721	1.33952	2.24461	0.0273559	54.1933	37.7821	0
0.5660	263.257	-110.069	-17.0318	-11.1408	1.64502	1.02988	-2.41644	15.1315	55.4814	0
0.5667	211.714	-103.351	-11.2243	-16.6308	2.25603	1.02988	-2.41644	-20.2641	66.1628	0
0.5673	144.565	-70.6744	-6.04185	-19.3892	4.07731	2.56149	0.629186	-33.6958	76.2704	0
0.5680	58.8118	-74.974	-5.72934	-11.7567	6.82685	3.77622	3.07298	-20.5641	86.0249	0
0.5687	13.3476	-160.428	-12.1358	5.94532	6.21584	1.92772	0.939219	5.06604	82.9794	-0.320921
0.5693	33.1843	-214.71	-17.0318	11.4354	4.07731	0.422514	-1.50457	26.43	64.6621	0
0.5700	-29.6934	-115.229	-5.72934	0.74986	2.25603	-0.501736	-2.72647	58.4594	11.2552	0
0.5707	-128.589	12.63	8.30755	-4.4456	1.33952	-1.42599	-3.02739	103.62	-58.3504	0
0.5713	-147.481	68.4709	9.53155	-1.3926	1.95053	0.105629	-0.583593	118.885	-66.2511	-0.320921
0.5720	-124.605	56.2708	7.68253	-1.98177	1.95053	0.105629	0.328271	83.1897	-30.8524	0
0.5727	-101.73	-2.0423	-1.45838	-6.26669	0.423006	-2.32383	-3.33742	18.4977	-15.3159	0
0.5733	-47.3944	-9.35159	-7.57836	-8.08778	0.423006	-3.24808	-4.86023	-46.8275	-4.32552	0
0.5740	49.0372	27.8936	-1.14587	-8.70374	1.64502	-2.03335	-2.11552	-104.487	19.2	0
0.5747	103.044	50.1439	-7.26585	-16.9522	2.85529	0.422514	1.85108	-122.185	42.6814	0
0.5753	56.6762	63.3114	-10.9118	-21.2103	3.1608	1.63724	2.46203	-87.0892	58.8801	-0.320921
0.5760	-34.2932	70.6207	8.62006	-9.31969	1.95053	-0.18485	-0.893626	-50.7937	70.1352	-0.320921
0.5767	-58.4011	59.0118	18.3599	0.74986	0.728511	-1.1091	-2.11552	-48.0274	73.1808	0
0.5773	4.80515	38.8575	10.1305	6.23991	0.117502	-0.18485	-0.893626	-58.4261	72.298	0
0.5780	45.6695	49.5527	7.99504	14.4884	0.117502	1.02988	1.85108	-52.6268	67.3987	0
0.5787	56.3476	73.3617	10.7555	13.8724	0.423006	2.56149	4.90583	-51.0936	18.5821	0
0.5793	101.853	28.216	3.1251	-2.30314	-1.10452	0.105629	1.55017	-55.6597	-48.5518	0
0.5800	184.526	-56.0558	-9.40133	-26.4058	-1.41002	-3.24808	-3.02739	-46.1943	-54.687	-0.320921
0.5807	296.852	-130.492	-23.7507	-38.0019	1.95053	-1.71646	-1.80549	-31.5627	-26.5711	-0.320921
0.5813	369.175	-195.201	-39.6106	-21.8263	4.68832	-0.18485	-0.282678	-21.4973	-17.4345	0
0.5820	316.688	-203.155	-34.4282	5.62395	6.52135	1.63724	0.328271	-13.8649	-18.9793	0
0.5827	122.593	-142.692	-13.6723	31.8691	6.82685	1.63724	-0.893626	-9.26551	-23.5255	0
0.5833	-171.918	-34.3967	1.58859	48.366	5.29933	0.712993	-3.63833	-1.96642	-30.5435	0
0.5840	-433.121	7.14806	14.089	35.538	4.68832	1.02988	-3.33742	36.4955	-36.3697	-0.320921
0.5847	-422.155	-37.7289	6.17207	6.85587	4.07731	0.712993	-1.50457	87.1558	-39.7242	-0.320921
0.5853	-194.506	15.6935	-14.2713	-7.17724	3.4663	0.712993	-1.80549	95.6881	-43.0787	0
0.5860	-19.0153	158.171	-9.08882	3.18691	4.68832	0.422514	-2.11552	88.389	-49.1697	0
0.5867	133.559	203.962	16.2245	21.7995	4.38281	-0.18485	-2.41644	74.3241	-56.1876	0
0.5873	241.613	126.139	41.2513	20.273	2.25603	-0.501736	-3.02739	25.1969	-60.778	0
0.5880	129.903	54.766	40.9648	5.94532	1.33952	-0.501736	-3.02739	12.3985	-54.9518	-0.320921
0.5887	-68.7506	38.2663	16.537	-2.9191	2.25603	0.422514	-1.80549	46.5609	-36.6787	-0.320921
0.5893	-165.798	44.9844	11.042	-8.40915	1.95053	1.63724	-0.282678	51.7602	-18.6704	0
0.5900	-213.398	80.0798	32.4229	-13.2832	-0.188003	-0.18485	0.0273559	13.2983	-5.20828	-0.320921
0.5907	-232.331	102.975	37.6053	-20.2998	-1.41002	-3.24808	-2.11552	-54.4599	8.82759	-0.320921
0.5913	-199.968	62.344	23.2559	-26.7004	-1.10452	-3.56496	-3.63833	-111.819	13.6828	0.320921
0.5920	-170.07	8.06172	17.162	-12.9887	-1.71553	-3.24808	-3.94837	-143.849	10.6373	0
0.5927	-112.408	-10.2653	11.9535	4.71341	-1.71553	-3.56496	-5.16115	-173.145	20.0828	-0.320921
0.5933	-17.1671	-13.3287	7.39606	0.133904	-0.188003	-1.42599	-3.33742	-164.613	9.71035	-0.320921
0.5940	23.0812	-34.6654	0.677104	-8.08778	0.117502	-0.818621	-1.19454	-91.9886	-18.0524	0
0.5947	35.3199	-70.0832	-13.0733	-7.4986	-0.188003	-4.17233	-2.11552	-8.06566	-14.6979	-0.320921
0.5953	71.0095	-85.9379	4.32305	10.5248	1.95053	-5.07017	-3.02739	25.7968	-15.0069	-0.320921
0.5960	117.993	-94.1609	35.1573	42.8759	3.1608	-2.93119	-3.63833	16.3646	-21.098	-0.320921
0.5967	162.266	-90.2375	26.9279	43.7865	3.1608	-2.03335	-5.47118	19.6975	-2.78069	-0.320921
0.5973	107.644	-4.46082	-1.14587	14.783	2.85529	-1.1091	-6.99399	26.43	17.3462	-0.320921
0.5980	-74.254	98.0843	-5.72934	7.47182	1.95053	-0.501736	-7.30403	0.499938	13.6828	-0.320921
0.5987	-199.681	64.8162	36.6938	10.5248	0.423006	-0.818621	-7.60494	-32.1627	-34.2069	-0.320921
0.5993	-134.996	-12.6838	77.268	11.73	-0.799012	-1.42599	-7.91497	-53.2267	-71.7683	0
0.6000	45.0534	51.9712	53.4652	27.9055	-0.188003	-1.1091	-6.08213	-64.5253	-51.5973	0
0.6007	176.6	156.989	22.657	39.8229	1.95053	1.32036	-4.24928	-59.026	-32.3973	0
0.6013	181.199	135.921	34.2459	35.2434	3.4663	1.92772	-5.16115	-47.4274	-36.0607	-0.320921
0.6020	122.593	75.189	21.433	26.7004	2.54979	0.422514	-6.99399	-18.1311	-37.8704	-0.320921
0.6027	59.0993	64.8162	-22.2142	19.0679	0.117502	-0.818621	-10.0487	18.1977	-36.6787	-0.320921
0.6033	1.10888	41.9209	-30.4437	14.783	-0.493507	-0.18485	-12.1825	3.23293	-35.4428	0
0.6040	-16.2636	-33.7517	-36.2511	15.7203	1.33952	-2.32383	-4.86023	-34.5957	-28.7338	0
0.6047	-11.0888	-85.9379	-53.335	16.0149	2.85529	-7.20915	7.34962	-33.9958	-18.0524	0
0.6053	-25.1346	-63.9563	-28.9332	13.8724	2.85529	-1.42599	13.76	1.99975	-16.5076	0
0.6060	-45.8748	-54.4972	-25.8862	10.5248	1.95053	8.34466	10.7053	73.4242	-20.1711	0
0.6067	-65.999	-90.2375	-53.6475	6.85587	0.117502	6.52256	2.16112	151.248	-19.8621	-0.320921
0.6073	-79.1413	-88.0877	-6.95334	6.56128	1.64502	6.20568	-3.94837	142.382	-15.3159	-0.320921
0.6080	-73.6379	-20.638	62.0071	6.56128	3.4663	14.4447	-4.24928	64.5586	-12.5352	0
0.6087	-56.2655	25.7438	58.3612	3.50828	1.95053	18.1153	-1.50457	1.99975	-12.8442	-0.320921
0.6093	-34.8682	-17.5746	23.5684	0.74986	0.728511	13.5469	0.0273559	-33.3958	-11.0345	0
0.6100	-22.999	-91.7424	-6.95334	0.455272	1.03402	8.34466	1.24013	-5.63263	-7.68001	0
0.6107	-26.0382	-96.3107	-33.2042	0.74986	1.03402	5.30784	5.51677	50.827	-4.01656	0
0.6113	-23.2865	-5.37448	-54.559	1.98177	2.54979	7.44681	9.48338	16.0313	-0.66207	-0.320921
0.6120	-10.1853	102.653	-79.8983	2.59773	4.07731	10.4836	7.03959	-44.9944	2.07448	-0.320921
0.6127	-6.20152	133.18	-92.1122	1.07123	4.07731	6.52256	3.38301	-5.63263	3.31035	-0.320921
0.6133	-8.95319	124.634	-80.4973	-0.160684	4.99382	4.38359	9.18246	43.8279	3.00138	-0.320921
0.6140	-2.54632	118.83	-53.0485	0.74986	7.13235	6.20568	19.8604	31.5961	1.80966	-0.320921
0.6147	4.80515	106.63	-36.5636	3.18691	7.74336	3.45934	22.6051	5.66596	2.69242	-0.320921
0.6153	7.51575	102.061	-50.6005	5.03478	6.52135	-3.85544	17.4166	-47.7274	5.73794	0
0.6160	10.596	80.0798	-55.4705	3.18691	4.68832	-10.5629	12.5381	-89.5555	6.9738	0
0.6167	11.212	39.7712	-21.6153	1.36582	3.4663	-9.34813	9.78429	-54.7599	6.66483	0
0.6173	3.57306	24.2389	4.94807	-0.776641	2.85529	-3.85544	5.20674	6.59918	7.28277	0
0.6180	-3.16237	31.2257	-10.0003	-3.82964	2.25603	-0.18485	-2.11552	4.13282	8.20966	-0.320921
0.6187	2.95702	49.2302	-24.3497	-4.4456	2.85529	2.56149	-3.63833	-25.4635	11.5641	-0.320921
0.6193	19.1385	84.0569	-17.0318	-5.35615	2.85529	2.24461	-1.19454	34.9623	13.0648	0
0.6200	34.3753	113.617	-10.9118	-7.79319	2.25603	-0.18485	-2.11552	143.915	11.2552	-0.320921
0.6207	33.1843	116.68	-13.6723	-7.79319	3.4663	-2.64071	-2.41644	179.311	10.6373	0
0.6213	14.5387	63.5801	-19.7662	-6.88265	4.68832	-2.93119	-0.282678	172.612	10.3283	0
0.6220	2.05348	-32.5156	-18.5422	-4.12423	6.21584	-2.03335	2.16112	160.38	10.9462	0
0.6227	-1.93027	-83.5194	-16.4068	-1.3926	6.52135	-5.07017	0.939219	83.4896	11.5641	0
0.6233	-15.6475	-86.2604	-34.1156	-1.98177	4.99382	-9.34813	-1.50457	-33.9958	9.09242	-0.320921
0.6240	-26.3257	-90.2375	-50.288	0.133904	4.38281	-11.1702	5.20674	-114.252	6.66483	-0.320921
0.6247	-17.1671	-77.715	-33.5167	1.98177	3.4663	-13.3092	12.839	-140.216	6.35587	-0.320921
0.6253	0.821394	-72.5017	7.68253	1.36582	3.4663	-13.3092	11.9272	-107.253	7.59173	-0.320921
0.6260	17.6189	-114.046	34.8448	1.07123	4.99382	-7.81651	7.34962	-20.5641	10.0193	0
0.6267	24.0258	-178.433	34.2459	-1.68719	4.38281	6.52256	1.55017	53.5933	10.0193	-0.320921
0.6273	16.3868	-257.438	27.5269	-3.50828	3.1608	28.7838	0.0273559	90.822	9.40139	-0.320921
0.6280	2.66953	-295.274	30.2874	-3.82964	3.1608	29.1007	1.55017	122.251	10.0193	0
0.6287	-9.85672	-231.21	37.6053	-6.26669	2.54979	11.091	-1.19454	121.951	9.40139	-0.320921
0.6293	-13.2244	-165.265	25.7039	-4.74019	2.85529	6.81304	-0.583593	95.9881	9.71035	-0.320921
0.6300	-6.48901	-185.151	5.85956	-1.98177	2.85529	5.9152	-1.80549	97.5212	10.9462	0
0.6307	6.94078	-185.742	17.162	-2.30314	2.85529	4.67406	-6.08213	117.985	9.71035	0.320921
0.6313	12.7316	-13.9199	44.6108	-2.9191	3.4663	9.55939	-2.11552	119.518	9.40139	0
0.6320	3.57306	207.616	49.1942	-3.82964	1.33952	7.12993	4.60491	108.52	9.09242	0
0.6327	0.205348	232.07	15.938	-3.82964	-0.188003	1.63724	10.3952	105.754	11.2552	0
0.6333	7.51575	114.53	-26.4852	-4.4456	-0.799012	7.12993	11.9272	75.5573	14.3007	0
0.6340	13.9226	39.18	-33.5167	-7.4986	-2.32653	21.7859	8.87243	-5.9326	13.3738	0
0.6347	22.1776	18.112	-26.1727	-8.08778	-2.02103	29.4176	8.87243	-65.4252	11.8731	0
0.6353	28.5845	-3.54716	-30.7562	-8.70374	-1.71553	23.9249	5.81769	-77.0238	11.5641	-0.320921
0.6360	40.7822	-11.7701	-12.4483	-9.61428	-2.32653	17.5079	-0.583593	-87.7224	12.491	-0.320921
0.6367	61.8509	12.63	29.6624	-7.79319	-2.32653	16.2932	1.24013	-64.5253	13.0648	-0.320921
0.6373	71.0095	-5.37448	54.3767	-5.9721	-2.93754	13.23	7.03959	12.9984	10.9462	-0.320921
0.6380	59.4278	-64.6012	63.2311	-7.79319	-3.85406	4.0667	7.34962	67.025	9.71035	-0.320921
0.6387	32.8557	12.9525	41.8763	-12.6673	-4.46507	-8.42388	4.60491	59.3926	10.0193	0
0.6393	13.6351	163.707	1.27608	-11.7567	-4.46507	-20.043	11.9272	40.1617	9.09242	-0.320921
0.6400	2.05348	179.239	21.433	-4.4456	-1.41002	-27.0409	25.6598	4.46611	8.20966	-0.320921
0.6407	-17.7832	134.416	47.6577	-0.455272	2.54979	-28.282	29.3164	-48.3607	6.0469	-0.320921
0.6413	-39.1394	95.0208	-4.81786	1.98177	4.99382	-23.3967	24.7389	-24.5303	2.38345	0
0.6420	-55.3209	49.2302	-49.689	2.59773	4.38281	-17.2967	14.371	95.3881	1.50069	0
0.6427	-58.9761	44.9844	-41.7461	-2.9191	1.95053	-9.05765	-2.72647	164.046	4.85518	0
0.6433	-40.3715	61.4303	-34.4282	-4.74019	3.77181	3.45934	-10.0487	41.9948	8.51863	0
0.6440	-8.04966	49.2302	-29.2457	-2.59773	6.82685	18.7227	-7.60494	-109.686	9.40139	-0.320921
0.6447	20.3706	3.76214	-4.21888	-1.98177	7.43786	26.6712	-5.47118	-112.119	7.28277	0
0.6453	35.6074	-34.0742	28.1259	-2.59773	7.13235	15.6858	-1.50457	-100.821	5.16414	0
0.6460	31.6237	-45.6831	39.4283	-3.21369	5.91034	-3.24808	0.0273559	-146.315	4.23725	-0.320921
0.6467	20.3706	-58.1519	26.6154	-1.07123	6.82685	-16.0555	2.46203	-171.345	4.85518	-0.320921
0.6473	18.5224	-40.1474	1.58859	2.27636	8.65988	-20.6504	7.96057	-176.211	6.0469	-0.320921
0.6480	22.7937	-14.5111	-10.3128	-1.3926	6.52135	-9.05765	4.29488	-198.475	5.73794	-0.320921
0.6487	29.8166	-124.097	-1.14587	-5.35615	4.99382	13.23	-6.08213	-200.008	6.35587	-0.320921
0.6493	25.2168	-287.051	-10.0003	-4.4456	5.91034	19.0395	-11.8816	-89.5555	7.28277	-0.320921
0.6500	11.787	-315.428	-29.5322	-3.82964	4.99382	9.87627	-10.3496	63.0588	7.59173	0
0.6507	14.2512	-286.137	-39.2981	-3.21369	4.68832	5.9152	-6.99399	81.6565	8.20966	0
0.6513	33.4718	-308.71	-21.6153	-4.12423	5.91034	4.38359	-7.91497	-5.63263	7.59173	-0.320921
0.6520	53.021	-331.605	55.9132	-7.17724	5.29933	1.92772	-9.43779	-62.9922	6.0469	0
0.6527	52.4049	-247.979	123.051	-7.79319	4.07731	2.85197	-8.52592	-80.39	4.85518	-0.320921
0.6533	29.488	-190.902	93.7529	-5.65073	2.85529	4.67406	-8.21589	-29.4297	4.85518	-0.641842
0.6540	3.86055	-286.729	30.2874	-1.98177	3.4663	8.34466	-4.5502	65.4919	5.73794	-0.320921
0.6547	-20.5348	-205.251	12.266	-1.07123	2.25603	6.81304	0.939219	19.0976	5.16414	0.320921
0.6553	-31.829	147.798	8.90653	-5.03478	-2.02103	-3.85544	0.328271	-96.5547	1.50069	-0.320921
0.6560	-15.6475	308.011	-9.40133	-5.65073	-3.54855	-14.2334	-0.282678	-97.4879	-0.971035	-0.320921
0.6567	4.47659	207.347	-18.8548	-2.9191	-1.71553	-21.5482	5.51677	-43.4613	-1.28	0
0.6573	19.7545	197.566	-13.3598	-0.160684	1.33952	-17.2967	11.9272	24.297	-0.66207	0
0.6580	38.9751	282.375	4.32305	2.59773	3.77181	-5.99442	13.1491	95.0882	1.80966	0
0.6587	45.382	270.175	24.4799	1.98177	2.25603	-8.42388	7.65053	128.951	1.80966	0
0.6593	38.0716	105.394	52.5537	-0.455272	1.33952	-18.8019	4.29488	186.343	-0.353104	-0.320921
0.6600	33.7593	-58.7968	68.4136	0.133904	3.4663	-18.8019	8.26148	247.969	0.264828	0
0.6607	41.3982	-79.8648	45.8348	1.36582	5.29933	-10.5629	13.1491	197.942	2.69242	0
0.6613	42.9178	-32.8381	1.9011	2.27636	4.99382	-3.56496	17.1157	110.353	4.85518	0
0.6620	15.4833	-39.2337	-67.0854	0.133904	1.03402	2.24461	15.5837	108.22	5.47311	0
0.6627	-13.5119	-110.338	-116.202	-4.4456	-2.93754	5.9152	5.51677	120.718	3.61931	0
0.6633	-8.04966	-97.8693	-96.9822	-4.12423	-2.02103	3.77622	0.939219	76.1572	2.69242	0
0.6640	9.97993	-50.2514	-19.4798	-2.59773	-0.493507	2.85197	2.16112	-1.33317	2.07448	0
0.6647	9.0764	-179.024	97.1124	-2.59773	0.423006	9.26891	1.24013	-65.7252	2.07448	-0.320921
0.6653	-13.5119	-353.91	134.327	-2.30314	1.03402	14.4447	0.0273559	-42.5614	3.00138	-0.320921
0.6660	-43.7392	-375.246	32.4229	-4.4456	-1.10452	12.9395	-2.72647	1.69979	2.07448	0
0.6667	-51.9942	-295.596	-64.6374	-6.56128	-2.63204	9.26891	-6.69308	-64.5253	0.264828	-0.320921
0.6673	-36.4288	-332.519	-67.6844	-3.82964	-2.63204	4.67406	-5.16115	-153.014	-1.28	-0.320921
0.6680	-23.2865	-410.933	-32.5791	0.74986	-2.32653	-5.07017	4.29488	-148.148	-3.39862	0
0.6687	-22.383	-147.583	-8.77631	3.50828	-2.32653	-17.2967	20.1613	-91.0553	-5.20828	0
0.6693	-27.2703	193.266	-12.4483	3.50828	-3.85406	-28.282	34.204	-33.0959	-6.44414	0
0.6700	-26.0382	273.561	-42.6576	2.27636	-5.68708	-35.2799	41.2253	-11.7319	-6.13518	0
0.6707	-11.7049	398.088	-53.0485	2.59773	-2.63204	-24.6115	41.5263	-76.1239	-3.39862	-0.320921
0.6713	5.38013	554.324	-31.6676	2.27636	0.423006	2.24461	31.4593	-161.88	-0.353104	0
0.6720	13.9226	532.933	-13.0733	0.455272	-1.41002	11.4079	13.76	-143.849	0.882759	-0.320921
0.6727	16.3868	394.111	-6.35436	-0.776641	-3.54855	-2.03335	1.24013	-57.1929	2.07448	0
0.6733	12.7316	136.834	-12.4483	-2.59773	-4.15956	-10.2724	-4.24928	7.49907	2.07448	0.320921
0.6740	0.533906	-183.324	-11.8493	-3.50828	-2.93754	-5.07017	-6.38304	56.9263	1.50069	-0.320921
0.6747	-9.56923	-329.456	11.667	-2.30314	-2.02103	2.85197	-3.94837	56.0264	1.19173	-0.320921
0.6753	5.38013	-268.724	36.3813	-3.21369	-2.93754	3.45934	-3.63833	19.3976	0.573794	0
0.6760	38.3591	-202.51	49.1942	-1.68719	-1.10452	0.712993	-4.24928	17.8644	0.264828	0
0.6767	53.9245	-150.647	42.4753	1.07123	1.95053	0.105629	-3.33742	33.1292	0.882759	-0.320921
0.6773	51.7889	-135.706	32.4229	-0.455272	1.03402	-0.818621	-5.16115	37.7286	1.19173	-0.320921
0.6780	35.936	-211.701	44.6108	-2.30314	-1.41002	-1.1091	-11.8816	20.6308	-0.044138	-0.320921
0.6787	-16.5921	-68.8471	14.714	-2.30314	-1.71553	0.422514	-18.5929	31.2961	-1.54483	-0.320921
0.6793	-62.3438	328.166	-50.913	-1.98177	-0.188003	1.92772	-15.2372	30.0963	-1.28	0
0.6800	-56.5529	487.465	-48.465	2.27636	2.25603	5.59831	-4.5502	-56.593	-0.971035	-0.320921
0.6807	-46.4909	347.406	-10.9118	7.47182	4.07731	11.6984	0.0273559	-41.9281	-2.16276	-0.320921
0.6813	-52.8977	204.284	-22.2142	7.76641	5.29933	13.8373	-6.38304	70.3579	-2.47173	0
0.6820	-39.1394	124.957	-46.3296	3.18691	4.07731	13.5469	-17.9819	86.8559	-3.39862	-0.320921
0.6827	-5.87296	125.87	-22.5267	0.74986	0.117502	17.191	-21.9486	82.2564	-3.70759	-0.320921
0.6833	2.95702	175.584	-7.26585	3.50828	-2.32653	14.7616	-14.9272	119.818	-1.85379	0
0.6840	-16.5921	78.8436	-33.2042	5.62395	-2.63204	-3.56496	-7.30403	121.018	-1.85379	0
0.6847	-23.2865	-71.3194	-47.5536	6.85587	-4.15956	-19.7261	-2.11552	102.421	-5.51725	0
0.6853	-6.20152	-38.6425	-33.5167	8.99833	-1.10452	-24.2946	3.38301	78.6236	-9.48966	0
0.6860	9.97993	46.4893	39.7408	8.67696	5.29933	-17.2967	11.3162	19.3976	-10.7255	0.320921
0.6867	7.84431	100.234	134.041	6.56128	10.1874	5.59831	21.9941	-6.83248	-8.29794	0.320921
0.6873	2.34097	212.829	146.854	1.66041	11.1039	15.6858	25.0489	6.89914	-4.32552	0
0.6880	19.7545	289.416	149.9	-8.08778	4.07731	2.85197	18.0275	-29.7296	-2.78069	-0.320921
0.6887	40.4947	248.516	213.991	-12.6673	-4.15956	-22.7894	18.0275	-62.0923	-1.85379	-0.320921
0.6893	26.7774	183.807	200.553	-9.31969	-6.9091	-59.3897	25.9608	-14.4649	-2.16276	-0.320921
0.6900	-11.9923	155.752	41.8763	-4.4456	-5.68708	-59.0992	30.8483	6.59918	-2.78069	-0.320921
0.6907	-34.2932	113.025	-97.5812	-0.455272	-2.93754	-14.2334	29.9274	35.5956	-0.66207	0
0.6913	-25.4221	-9.35159	-83.2578	0.133904	-1.71553	27.5691	21.3832	154.914	1.19173	0
0.6920	-11.0888	-143.337	0.364595	-1.3926	1.33952	77.3201	14.0609	213.807	-0.353104	0
0.6927	-9.24068	-196.706	52.8662	-1.07123	4.07731	124.932	9.48338	190.91	-1.54483	0
0.6933	-19.6313	-157.956	44.0118	1.66041	1.64502	113.023	6.12772	169.246	-1.85379	0
0.6940	-24.8061	-118.883	16.8495	5.62395	0.117502	69.6884	10.7053	99.9876	-0.66207	0
0.6947	-0.698185	-223.901	118.78	4.71341	-0.188003	55.0325	12.839	4.46611	2.69242	0
0.6953	19.7545	-385.35	240.841	-3.50828	-3.24305	54.1346	2.16112	59.3926	5.73794	0.320921
0.6960	6.61222	-424.369	148.676	-9.61428	-3.24305	41.9081	-8.82684	207.074	6.66483	0
0.6967	-4.68194	-504.019	39.7408	-8.40915	2.25603	23.608	-10.3496	239.737	5.47311	-0.320921
0.6973	-20.8634	-670.036	98.0239	-1.98177	7.74336	7.44681	-3.94837	271.8	3.92828	-0.320921
0.6980	-68.4632	-488.486	85.5235	0.133904	8.35437	-8.1334	3.07298	326.093	2.38345	0
0.6987	-109.656	52.8849	-104.3	-5.9721	3.4663	-43.2285	3.07298	183.91	0.264828	-0.320921
0.6993	-112.079	434.365	-276.415	-9.93565	0.117502	-83.4994	-1.50457	-66.0584	-1.28	0
0.7000	-95.9388	535.406	-295.348	-6.88265	0.423006	-96.0164	-4.5502	-224.439	-1.54483	0
0.7007	-88.2998	559.483	-216.621	-2.9191	0.423006	-80.1457	-3.94837	-415.482	-1.28	-0.320921
0.7013	-87.6838	544.542	-189.146	0.133904	1.95053	-51.4675	-1.19454	-599.492	0.573794	0
0.7020	-76.1021	490.206	-179.693	-0.455272	3.1608	-29.4968	-1.19454	-527.168	1.80966	0.320921
0.7027	-39.7554	377.611	-78.3618	-3.50828	1.95053	-20.043	-5.7721	-379.753	0.573794	0
0.7033	-1.93027	171.338	4.94807	-3.21369	1.33952	-15.1577	-9.12775	-320.56	-0.971035	0
0.7040	11.212	54.121	-24.0372	-1.3926	1.03402	-12.0945	-9.43779	-234.504	-1.28	0
0.7047	14.8672	159.73	-75.0023	-1.3926	1.64502	-8.42388	-9.12775	-194.209	0.264828	-0.320921
0.7053	2.95702	304.088	-65.8614	-1.07123	2.25603	-6.31131	-6.99399	-171.345	0.882759	-0.320921
0.7060	-22.0544	347.729	-34.7407	-2.9191	1.64502	-11.804	-6.69308	-12.9317	-1.28	0
0.7067	-27.5578	228.362	0.364595	-4.74019	0.728511	-20.043	-7.60494	110.953	-3.39862	-0.320921
0.7073	-26.6542	-89.3239	13.8025	-3.50828	1.03402	-22.1556	-6.38304	134.75	-1.85379	0
0.7080	-31.829	-396.314	-72.2679	-1.98177	0.117502	-18.8019	-3.94837	150.948	1.19173	0
0.7087	-34.2932	-414.319	-147.635	-0.160684	-2.02103	-12.7018	-5.7721	80.7566	1.50069	-0.320921
0.7093	-46.7784	-277.269	-133.91	0.74986	-2.32653	-10.8797	-7.91497	44.7278	-0.66207	-0.641842
0.7100	-53.1852	-346.869	-134.822	-0.160684	-0.799012	-15.1577	-0.583593	127.751	-1.85379	-0.320921
0.7107	-31.829	-462.205	-111.644	-0.776641	0.423006	-19.4092	11.6171	175.645	-1.28	0
0.7113	-11.0888	-347.783	-37.1626	-0.160684	-0.493507	-18.8019	17.4166	127.751	-1.54483	0
0.7120	-5.58548	-163.169	-20.3913	-0.455272	-2.93754	-15.1577	13.1491	12.3985	-2.78069	0
0.7127	3.86055	-59.7105	-50.6005	-1.07123	-4.15956	-13.0187	5.20674	-70.0246	-2.78069	-0.320921
0.7133	15.4833	-13.0062	-16.7193	-2.30314	-3.85406	-13.0187	0.0273559	-5.9326	-2.16276	0
0.7140	16.0993	-17.5746	80.6275	-2.30314	-3.54855	-12.7018	-3.94837	149.415	-1.85379	-0.320921
0.7147	1.43744	19.9393	117.243	-1.07123	-4.46507	-11.804	-9.12775	251.935	-2.16276	0
0.7153	-34.2932	171.338	13.1775	-0.455272	-6.29809	-10.8797	-12.7934	261.401	-2.47173	0
0.7160	-68.1346	276.624	-131.176	1.66041	-4.46507	-9.05765	-10.0487	249.802	-2.16276	0
0.7167	-66.3275	277.807	-171.151	3.50828	-1.41002	-7.52604	-4.86023	194.276	-1.28	0
0.7173	-23.2865	204.284	-113.78	2.89232	0.423006	-5.38706	-2.41644	12.0652	-0.044138	0
0.7180	27.9685	60.8391	-29.2457	1.98177	1.33952	-3.24808	-1.19454	-102.654	0.573794	0
0.7187	48.4212	-42.9421	66.2781	0.133904	0.117502	-3.85544	-1.50457	-25.1635	-0.044138	0
0.7193	40.7822	-123.183	184.693	-0.455272	-1.10452	-4.17233	-0.282678	71.8911	-0.044138	0
0.7200	24.6418	-272.701	291.806	2.59773	0.728511	-2.32383	4.29488	115.519	1.50069	0
0.7207	12.403	-408.837	330.557	3.80286	1.33952	-1.1091	6.42864	166.513	2.07448	0.320921
0.7213	-1.60172	-312.365	327.224	3.18691	-0.493507	-2.03335	6.42864	198.242	1.19173	0.320921
0.7220	-41.8911	4.40707	327.224	0.133904	-3.54855	-4.77969	6.12772	158.247	-1.28	0
0.7227	-88.2998	181.711	307.379	-2.30314	-5.07607	-5.99442	4.29488	94.4883	-3.70759	0.320921
0.7233	-84.0286	13.8662	256.414	0.455272	-2.32653	-4.46281	6.42864	11.1653	-1.85379	0.320921
0.7240	-50.4336	-244.969	165.161	2.27636	-1.10452	-4.17233	10.3952	-34.929	0.264828	0.320921
0.7247	-34.5807	-302.315	107.79	0.455272	-4.15956	-5.99442	10.0943	-4.09949	-0.971035	0.320921
0.7253	-19.0153	-185.42	131.593	-1.3926	-6.9091	-7.20915	7.65053	-33.9958	-2.16276	0.320921
0.7260	18.8099	-69.7607	90.9924	-1.68719	-5.99259	-6.31131	6.42864	-97.7878	-1.85379	0
0.7267	78.6484	-83.5194	-31.9802	0.133904	-2.32653	-6.31131	10.3952	-32.1627	0.264828	0
0.7273	111.915	-190.902	-114.066	2.89232	2.25603	-5.67754	15.5837	141.182	3.61931	0.320921
0.7280	91.4622	-397.819	-192.193	3.50828	5.91034	4.67406	14.0609	294.063	5.16414	0
0.7287	61.2349	-688.955	-243.471	2.89232	8.35437	24.2153	9.48338	338.625	4.54621	-0.320921
0.7293	45.382	-805.527	-152.218	2.89232	10.1874	40.4029	7.96057	237.604	3.61931	-0.320921
0.7300	38.9751	-695.404	-69.2209	1.66041	8.96538	41.9081	7.03959	27.3299	2.69242	0
0.7307	42.9178	-646.55	-70.4449	1.07123	7.43786	35.5176	7.65053	-128.617	4.54621	0
0.7313	63.9866	-547.982	-36.2511	2.27636	6.52135	33.6691	10.0943	-144.482	6.9738	0
0.7320	76.8003	-305.055	-11.8493	0.74986	2.54979	30.3154	8.26148	-90.1555	4.54621	0
0.7327	25.2168	-370.355	0.677104	-1.3926	-2.02103	20.2543	6.42864	61.2257	1.19173	0
0.7333	-74.87	-599.577	11.9535	-1.3926	-5.38158	10.1932	5.81769	241.57	-0.971035	0
0.7340	-127.357	-444.201	-66.7729	-0.160684	-8.73038	8.05418	3.38301	233.938	-3.39862	0
0.7347	-108.424	114.261	-139.405	3.18691	-10.8689	7.12993	3.68393	91.7219	-3.39862	0
0.7353	-91.0515	713.301	-140.629	1.98177	-13.0074	-0.501736	2.16112	-24.2303	-4.63449	0.320921
0.7360	-79.4288	1011.75	-174.198	-1.68719	-12.7019	-7.52604	-2.41644	-44.6944	-6.13518	0
0.7367	-30.0219	1073.71	-244.07	-2.59773	-8.43662	-13.9166	-3.02739	14.2316	-4.63449	0
0.7373	27.9685	1031.63	-296.259	-2.9191	-5.07607	-22.1556	-3.02739	-47.1275	-3.39862	0
0.7380	57.2922	913.823	-260.242	1.66041	-3.85406	-22.7894	-2.72647	-156.681	-2.78069	-0.320921
0.7387	52.6924	809.45	-133.598	3.50828	-5.07607	-19.7261	-0.893626	-86.1893	-2.16276	-0.320921
0.7393	28.9131	719.105	-12.1358	-1.68719	-8.13112	-19.4092	6.12772	-7.46574	-3.39862	-0.320921
0.7400	22.1776	592.16	60.7831	-3.82964	-8.13112	-18.5114	21.0823	-57.7928	-2.78069	-0.320921
0.7407	33.4718	441.729	58.9602	-3.82964	-7.82561	-16.9798	29.9274	-161.88	-2.16276	0
0.7413	23.4097	375.192	-9.40133	-1.68719	-6.9091	-15.1577	31.7602	-297.963	-1.85379	0
0.7420	-17.4957	403.57	-89.0392	0.74986	-4.77057	-12.4114	29.0155	-420.348	-0.353104	-0.320921
0.7427	-53.5138	412.706	-135.134	-0.776641	-5.38158	-10.5629	18.0275	-466.142	-0.971035	0
0.7433	-68.7506	398.679	-98.2062	-1.98177	-6.9091	-6.31131	12.2281	-445.678	-1.54483	0
0.7440	-75.1575	303.443	0.364595	-2.59773	-8.13112	-0.818621	9.78429	-384.352	-1.54483	-0.320921
0.7447	-67.2311	121.248	69.3251	-2.59773	-7.52011	1.63724	1.24013	-238.17	-0.66207	0
0.7453	-41.6036	24.2389	154.484	-0.160684	-4.77057	3.45934	-6.99399	-92.2885	1.19173	0
0.7460	-11.9923	9.56657	242.065	-0.160684	-4.77057	8.34466	-13.7053	-66.9583	0.264828	-0.320921
0.7467	10.2674	6.2344	170.057	-1.3926	-4.77057	16.2932	-20.4257	-18.431	-0.971035	0
0.7473	13.9226	-53.5836	65.9916	-1.98177	-2.02103	20.8616	-24.0823	76.4572	-0.971035	0
0.7480	-6.81757	-256.524	94.9769	-2.30314	1.33952	19.6469	-25.9152	75.8572	-0.353104	-0.320921
0.7487	-19.3027	-505.846	73.3096	-0.160684	4.07731	17.191	-23.7814	49.9271	1.19173	-0.320921
0.7493	10.2674	-698.414	-95.4457	1.66041	2.54979	5.9152	-23.4714	75.2573	-0.971035	-0.320921
0.7500	27.681	-625.804	-161.073	4.41882	-0.493507	0.422514	-25.0033	146.049	-4.63449	-0.320921
0.7507	-11.9923	-308.119	-12.7608	5.32937	1.33952	16.9006	-14.0153	168.946	-4.32552	0
0.7513	-40.9875	-128.343	126.723	5.03478	3.77181	21.1785	9.18246	14.2316	-5.20828	0
0.7520	-33.9646	-51.7562	169.432	9.61428	3.1608	3.16886	30.5383	-144.182	-6.44414	-0.320921
0.7527	-31.829	102.975	251.518	11.4354	3.1608	-9.34813	32.6812	-113.053	-4.94345	0
0.7533	-29.6934	229.007	324.463	8.08778	5.91034	-14.5503	23.827	-19.9642	-2.78069	-0.320921
0.7540	-18.1117	196.975	225.293	5.03478	9.27089	-16.3724	20.4713	22.1639	-1.54483	-0.320921
0.7547	3.86055	1.66609	69.3251	1.98177	11.1039	-10.8797	11.3162	96.3214	-0.353104	0
0.7553	34.0878	-273.615	-0.859402	1.07123	13.8417	2.85197	-0.282678	194.576	1.50069	0
0.7560	64.8901	-455.487	-105.524	3.18691	16.8967	14.7616	-3.02739	206.774	4.85518	0
0.7567	85.3428	-548.573	-329.515	1.66041	17.2023	14.1542	-6.99399	120.118	5.47311	0.320921
0.7573	68.2578	-649.022	-489.755	-3.21369	15.9802	9.87627	-14.6263	30.0963	4.23725	-0.320921
0.7580	27.0649	-745.44	-438.165	-4.74019	15.9802	11.6984	-17.9819	-12.0318	5.47311	0
0.7587	4.80515	-835.14	-278.264	-3.82964	16.2857	15.6858	-16.4591	-52.6268	7.28277	0
0.7593	-4.68194	-903.826	-125.681	-1.68719	15.0637	19.0395	-13.1035	-102.354	7.28277	0
0.7600	-4.35339	-878.19	20.209	-0.455272	9.8819	17.191	-13.1035	-110.92	5.73794	0
0.7607	19.1385	-499.128	122.139	-3.82964	2.25603	4.99095	-16.76	-64.2253	2.38345	0
0.7613	43.2464	-61.5378	162.427	-6.88265	-5.07607	-11.4871	-18.2829	3.23293	-0.66207	-0.320921
0.7620	38.3591	-1.71983	186.829	-6.88265	-11.1744	-17.2967	-17.0701	51.7602	-3.08966	0
0.7627	-1.31423	99.3204	219.173	-4.4456	-13.3129	-9.05765	-6.38304	37.0954	-3.08966	0
0.7633	-28.1738	292.157	281.129	-1.07123	-10.2579	-4.77969	11.0062	-54.4599	-2.47173	-0.320921
0.7640	3.2445	270.82	296.077	-0.776641	-8.13112	-14.8408	15.2828	-106.32	-4.63449	0
0.7647	52.0764	363.261	167.922	-0.455272	-8.43662	-20.3335	12.2281	-12.0318	-6.13518	0
0.7653	58.1957	745.978	-29.8447	1.98177	-9.34139	-7.81651	11.9272	175.945	-5.51725	0
0.7660	31.6237	937.309	-77.1378	3.50828	-7.52011	-9.05765	9.18246	359.689	-6.44414	0
0.7667	0.533906	739.26	44.9233	2.89232	-2.93754	-28.8894	6.12772	394.151	-6.13518	0
0.7673	-28.7898	522.292	131.905	0.455272	-0.493507	-24.0041	1.55017	233.038	-6.44414	-0.320921
0.7680	-34.2932	445.974	170.656	0.455272	-2.32653	4.0667	-6.38304	63.6588	-8.87173	-0.320921
0.7687	-10.7603	431.033	196.595	3.50828	-4.15956	18.4322	-12.4925	-16.5979	-9.79863	-0.320921
0.7693	8.1318	388.897	190.787	2.27636	-7.52011	12.3057	-13.4044	-78.2569	-8.29794	0.320921
0.7700	23.6972	224.438	167.922	0.133904	-10.5634	2.24461	-12.1825	-141.716	-6.75311	0
0.7707	30.1041	14.7798	94.0654	0.133904	-14.2295	-4.46281	-12.4925	-149.648	-6.13518	0
0.7713	7.84431	58.6893	-59.7414	-1.98177	-18.812	-9.95549	-13.7053	-125.551	-7.98897	0
0.7720	-12.8959	446.297	-221.179	-2.9191	-19.423	-11.1702	-11.8816	-200.642	-9.1807	-0.320921
0.7727	-12.8959	705.992	-284.358	-1.68719	-16.6735	-7.81651	-9.7387	-337.958	-7.06208	-0.320921
0.7733	-3.16237	565.61	-284.358	-0.455272	-12.3964	-2.03335	-6.99399	-335.825	-4.01656	-0.320921
0.7740	15.4833	351.384	-259.956	0.455272	-7.21461	3.16886	-2.72647	-211.307	-1.54483	0
0.7747	39.2626	310.484	-218.757	-1.3926	-5.38158	5.30784	-2.11552	-130.45	-0.66207	0.320921
0.7753	64.3151	288.18	-168.703	-3.82964	-3.54855	7.12993	-3.02739	-98.6877	-0.353104	0
0.7760	81.0715	119.743	-48.465	-4.4456	0.117502	10.1932	-1.80549	-65.4252	0.882759	0
0.7767	85.9588	-40.7923	86.1225	-4.74019	2.85529	12.9395	-1.50457	-24.2303	1.50069	0
0.7773	80.4555	-33.1605	137.088	-4.4456	5.91034	15.6858	-0.282678	57.2595	2.38345	-0.320921
0.7780	54.5405	54.121	170.969	-4.4456	7.43786	17.5079	0.939219	138.716	3.61931	-0.320921
0.7787	10.596	156.989	286.025	-4.74019	6.82685	17.191	0.939219	114.019	4.23725	0
0.7793	-25.7096	192.998	433.399	-4.12423	7.74336	15.369	1.85108	45.961	4.23725	0
0.7800	-31.829	27.5711	452.332	-5.03478	8.35437	12.3057	1.24013	45.361	2.69242	0
0.7807	-32.1576	-138.124	200.553	-4.74019	6.52135	8.95202	-0.893626	55.4264	1.19173	0
0.7813	-51.3782	-58.1519	-161.073	-3.82964	3.1608	5.59831	-1.80549	10.8653	0.264828	-0.320921
0.7820	-64.4794	81.9071	-235.216	-6.26669	1.33952	2.85197	-3.02739	-100.821	-0.66207	0
0.7827	-61.1117	153.925	-29.8447	-6.56128	1.95053	1.63724	-3.94837	-239.07	-0.971035	0
0.7833	-54.1298	249.752	125.186	-4.4456	2.54979	1.92772	-3.63833	-315.994	-0.66207	-0.320921
0.7840	-35.8128	289.416	175.24	-3.82964	2.85529	2.56149	-3.33742	-319.027	-0.66207	0
0.7847	-13.8405	261.63	145.942	-2.9191	4.38281	4.38359	-2.11552	-315.694	0.573794	0
0.7853	-6.81757	207.347	21.1204	-2.59773	4.99382	6.52256	-0.282678	-283.931	2.07448	0
0.7860	-2.83381	134.416	-18.8548	-4.74019	4.07731	6.81304	-0.282678	-108.153	2.69242	-0.320921
0.7867	8.74784	63.3114	66.2781	-6.26669	4.07731	7.12993	-1.19454	87.4558	2.69242	-0.320921
0.7873	19.7545	-110.983	35.4698	-6.56128	5.29933	8.34466	-0.893626	85.3227	3.61931	-0.320921
0.7880	23.0812	-287.642	-190.683	-5.65073	7.43786	10.4836	2.77206	-7.13245	4.54621	0
0.7887	16.3868	-273.615	-418.633	-5.35615	7.74336	11.6984	6.73867	-25.7635	4.85518	-0.320921
0.7893	8.46035	-187.569	-457.697	-6.56128	7.13235	11.4079	6.42864	-23.0305	5.47311	0
0.7900	5.38013	-141.51	-334.099	-7.79319	7.13235	10.1932	4.29488	-59.026	5.73794	0
0.7907	6.32473	-72.233	-238.289	-7.79319	7.74336	9.26891	4.29488	-117.919	5.16414	0.320921
0.7913	8.74784	-4.46082	-242.56	-6.56128	8.35437	9.55939	5.51677	-153.614	5.16414	0
0.7920	9.65137	-0.806172	-226.986	-5.65073	7.13235	8.05418	4.60491	-135.317	4.54621	-0.320921
0.7927	7.22826	0.10749	-169.927	-5.65073	6.52135	5.59831	2.16112	-119.452	3.00138	0
0.7933	2.05348	19.6706	-181.516	-4.74019	6.21584	4.0667	0.328271	-129.517	1.80966	-0.320921
0.7940	0.533906	12.63	-212.038	-3.50828	5.29933	2.85197	-0.282678	-114.552	1.50069	0
0.7947	5.38013	-37.7289	-192.818	-1.68719	5.60483	3.45934	1.24013	-32.1627	1.80966	0.320921
0.7953	10.2674	-126.247	-183.053	0.133904	6.52135	4.99095	1.85108	96.9213	2.69242	0.320921
0.7960	17.9064	-207.079	-172.063	-0.455272	5.29933	3.45934	0.0273559	187.877	2.38345	0
0.7967	27.681	-215.033	-131.176	-1.68719	3.4663	1.32036	-1.50457	227.838	1.50069	0
0.7973	31.0487	-175.047	-76.5388	-1.98177	3.1608	0.105629	-2.11552	256.235	0.882759	0
0.7980	33.1843	-161.933	-17.6308	-0.160684	4.38281	1.02988	-1.50457	249.502	1.19173	-0.320921
0.7987	39.2626	-181.765	20.8079	2.89232	4.68832	2.56149	-1.19454	198.242	2.07448	-0.320921
0.7993	43.8624	-228.147	23.5684	2.27636	4.07731	2.24461	-1.80549	158.88	2.38345	0
0.8000	40.2072	-290.706	26.9279	-1.68719	3.4663	0.422514	-0.893626	132.917	2.07448	0
0.8007	31.3362	-327.36	66.5906	-3.21369	2.25603	-0.818621	0.328271	84.0895	1.19173	-0.320921
0.8013	29.488	-248.623	122.139	-2.59773	1.95053	-1.1091	0.328271	9.9321	1.19173	-0.320921
0.8020	30.4326	-51.4875	194.772	-1.68719	3.1608	0.712993	0.629186	-90.7554	1.80966	-0.320921
0.8027	22.7937	75.5114	264.045	-1.68719	3.4663	0.712993	-0.282678	-152.114	2.07448	0
0.8033	9.36389	54.766	284.488	-2.30314	2.54979	-1.1091	-1.80549	-142.349	1.50069	0
0.8040	-1.31423	6.2344	295.165	-2.59773	2.25603	-2.64071	-3.33742	-131.95	0.882759	-0.320921
0.8047	-3.73734	0.10749	303.108	-2.30314	2.25603	-2.64071	-3.33742	-121.585	0.573794	-0.320921
0.8053	3.2445	7.41678	255.503	-0.160684	3.4663	-0.818621	-0.583593	-66.9583	2.07448	0
0.8060	5.70869	-6.87933	116.957	0.133904	3.4663	-0.818621	0.0273559	19.6975	2.69242	0
0.8067	-1.60172	-31.3332	-99.4302	-1.98177	2.85529	-2.93119	-2.11552	64.8919	1.80966	-0.320921
0.8073	0.205348	-49.0153	-251.102	-2.30314	1.95053	-4.17233	-3.33742	58.4594	0.573794	0
0.8080	9.65137	-67.611	-197.089	-1.3926	1.64502	-4.17233	-3.63833	56.6263	0.264828	0
0.8087	11.4995	-68.2559	-38.6991	0.455272	2.85529	-2.64071	-2.41644	48.9939	1.50069	0.320921
0.8093	17.9064	-70.0832	16.8495	1.36582	2.85529	-1.42599	-2.72647	44.1278	1.80966	0
0.8100	32.5683	-117.701	-48.7776	0.133904	1.95053	-2.93119	-6.08213	45.0277	0.882759	-0.320921
0.8107	35.3199	-129.256	-134.509	-1.07123	1.03402	-5.07017	-9.12775	1.69979	0.573794	0
0.8113	25.8328	-94.8058	-148.859	-2.30314	1.95053	-4.46281	-9.7387	-60.5591	1.80966	0
0.8120	19.1385	-134.469	-63.7259	-2.30314	4.07731	-1.71646	-8.52592	-73.3575	3.31035	0
0.8127	5.70869	-150.647	5.26058	-2.30314	2.54979	-1.42599	-8.82684	-55.6597	3.31035	-0.320921
0.8133	-8.62463	-88.4102	-9.08882	-2.30314	0.728511	-1.71646	-9.43779	-60.2592	2.07448	0
0.8140	-1.02674	-101.201	-34.4282	-1.98177	1.95053	-0.818621	-8.52592	-80.9899	1.80966	0.320921
0.8147	12.403	-118.883	-30.1572	-2.59773	2.85529	-0.18485	-8.82684	-79.7901	1.19173	0
0.8153	10.596	-9.35159	18.0735	-1.3926	4.07731	1.63724	-9.12775	-22.3972	1.80966	0
0.8160	0.821394	93.516	87.9454	-0.160684	6.21584	3.45934	-8.82684	60.8924	3.31035	0
0.8167	-2.83381	110.607	106.878	-1.68719	5.91034	2.56149	-10.6597	82.5897	3.92828	-0.320921
0.8173	3.57306	105.716	95.2894	-3.50828	5.29933	1.63724	-13.4044	75.5573	3.61931	-0.320921
0.8180	19.1385	69.3845	122.426	-2.9191	5.29933	1.63724	-12.7934	117.985	3.31035	0.320921
0.8187	21.8901	-7.2018	154.796	-1.98177	4.99382	2.24461	-9.7387	145.449	3.31035	0
0.8193	-7.43361	-49.9289	138.312	-1.3926	4.38281	2.24461	-9.12775	120.118	3.00138	-0.320921
0.8200	-35.1967	-12.415	81.539	0.133904	3.77181	1.63724	-8.21589	95.3881	2.69242	0
0.8207	-34.8682	9.56657	3.41156	0.74986	3.4663	0.105629	-6.99399	65.4919	2.38345	0.320921
0.8213	-26.0382	-5.96567	-64.9499	-0.776641	2.54979	-2.64071	-9.7387	-6.83248	1.80966	0.320921
0.8220	-18.1117	-33.1605	-95.7582	-1.68719	1.33952	-4.17233	-12.4925	-84.3562	1.50069	0
0.8227	-5.29799	-97.2243	-66.7729	-0.776641	1.64502	-3.85544	-13.4044	-93.5217	1.50069	0
0.8233	5.70869	-110.983	4.63556	-0.776641	1.03402	-4.77969	-15.8482	-59.326	0.882759	0
0.8240	10.596	-50.5201	48.8817	-1.07123	0.117502	-4.77969	-17.681	-65.1252	0.882759	0
0.8247	7.84431	7.14806	46.7462	-0.160684	0.117502	-2.03335	-17.681	-100.221	0.264828	0.320921
0.8253	-1.93027	38.2663	28.1259	1.66041	1.03402	0.105629	-18.5929	-123.418	-1.28	0
0.8260	-8.95319	45.2531	11.042	4.41882	2.25603	1.63724	-18.2829	-133.183	-0.971035	0
0.8267	-9.24068	34.2892	-2.99488	5.03478	2.54979	2.85197	-18.8938	-114.552	-1.54483	0
0.8273	-5.87296	10.8027	-10.6253	4.71341	1.64502	2.56149	-21.0367	-81.2899	-4.01656	-0.320921
0.8280	-1.93027	-23.9702	-24.0372	5.94532	0.728511	1.63724	-23.1705	-62.9922	-4.01656	-0.320921
0.8287	3.86055	-64.87	-43.2826	4.41882	1.03402	1.02988	-24.6933	-33.3958	-1.54483	0
0.8293	5.99617	-60.9466	-24.6622	0.74986	1.33952	0.712993	-22.8695	14.8315	-0.044138	0
0.8300	-4.96943	-2.95596	43.1003	-0.455272	1.64502	0.105629	-19.8148	19.3976	-0.044138	-0.320921
0.8307	-14.4565	1.02115	118.467	-0.160684	3.1608	0.105629	-16.4591	-15.0648	0.573794	0.320921
0.8313	-9.85672	-45.3606	149.9	-1.98177	4.38281	0.422514	-13.1035	-9.89877	0.264828	0.320921
0.8320	0.533906	-21.2292	116.332	-2.9191	2.54979	0.422514	-11.2706	22.1639	-1.85379	-0.320921
0.8327	10.2674	28.216	39.1158	-2.30314	0.117502	-0.501736	-6.69308	32.5293	-2.78069	-0.320921
0.8333	15.4833	37.3526	-48.7776	-1.07123	0.423006	-0.18485	-1.50457	38.0286	-2.78069	0
0.8340	9.65137	44.9844	-89.3517	-0.160684	1.64502	1.63724	2.16112	45.0277	-4.32552	0
0.8347	-1.93027	35.5253	-57.007	1.07123	2.25603	2.56149	5.20674	45.661	-5.20828	0
0.8353	-14.128	10.8027	15.938	1.66041	3.1608	2.24461	7.03959	44.4278	-6.44414	0
0.8360	-23.574	7.41678	77.893	3.80286	5.29933	4.0667	8.87243	44.1278	-8.6069	0
0.8367	-25.4221	15.0485	84.586	5.03478	7.13235	5.59831	8.87243	57.2595	-9.1807	0
0.8373	-18.7278	14.4574	71.4605	4.71341	6.82685	5.59831	6.12772	59.0927	-9.1807	0
0.8380	-10.1853	9.88904	84.586	6.23991	6.21584	6.52256	3.07298	23.6637	-9.79863	0
0.8387	-7.10505	7.73925	71.1741	7.47182	4.99382	7.44681	-0.893626	-9.89877	-10.4166	0.320921
0.8393	-5.87296	3.49341	7.39606	9.29291	4.07731	8.34466	-4.24928	-28.7964	-10.1076	0
0.8400	-3.73734	-0.806172	-31.9802	11.1408	3.1608	9.26891	-6.99399	-50.7937	-9.1807	0
0.8407	-5.58548	6.82559	-27.3967	9.29291	1.95053	8.95202	-11.8816	-61.1591	-8.29794	0
0.8413	-11.7049	24.2389	-43.8816	6.23991	1.95053	8.66154	-17.0701	-48.0274	-6.75311	0
0.8420	-17.4957	39.18	-85.6797	4.12423	2.25603	7.44681	-19.5048	-29.7296	-4.63449	0
0.8427	-17.1671	40.6848	-85.9922	2.59773	2.25603	6.52256	-20.4257	-15.3981	-2.47173	0
0.8433	-11.7049	30.0433	-45.1056	1.98177	1.95053	6.52256	-22.2586	2.29971	-0.66207	-0.320921
0.8440	-7.43361	20.853	-18.8548	0.455272	1.03402	5.30784	-23.1705	16.3646	0.264828	0
0.8447	-2.83381	13.8662	-11.5368	-0.455272	0.728511	4.0667	-19.8148	15.4314	-0.044138	-0.320921
0.8453	1.43744	8.06172	-25.8862	-1.68719	1.33952	3.77622	-15.2372	9.33217	-0.353104	-0.320921
0.8460	2.95702	6.82559	-52.4235	-1.3926	2.85529	4.67406	-7.60494	8.09899	0.264828	0
0.8467	5.38013	1.34362	-41.4336	-0.455272	3.4663	5.59831	3.99396	5.96592	-0.353104	0
0.8473	9.36389	-13.3287	5.26058	-2.30314	2.25603	4.38359	6.42864	5.366	-2.16276	-0.320921
0.8480	12.403	-24.2927	38.5168	-3.50828	2.25603	3.45934	1.24013	8.73225	-1.54483	0
0.8487	12.403	-23.7015	33.9333	-3.21369	2.54979	4.38359	-2.11552	8.73225	-1.85379	0
0.8493	13.0191	-18.4882	16.2245	-0.455272	3.1608	5.9152	0.328271	10.5654	-4.01656	-0.320921
0.8500	14.2512	-15.7472	10.1305	1.66041	4.07731	5.30784	7.34962	14.2316	-3.70759	0
0.8507	10.8835	-15.156	8.30755	-0.455272	3.1608	2.85197	8.57152	12.3985	-3.08966	0
0.8513	7.51575	-14.8336	7.08355	-0.455272	2.85529	3.16886	5.81769	9.33217	-3.39862	0
0.8520	7.51575	-14.8336	8.30755	0.133904	3.77181	4.67406	2.77206	7.79903	-4.01656	0
0.8527	6.94078	-16.3922	10.1305	0.74986	3.4663	4.99095	-3.63833	7.49907	-3.70759	0
0.8533	7.22826	-16.0697	13.1775	1.66041	3.77181	4.99095	-6.69308	8.73225	-0.971035	0
0.8540	6.61222	-13.9199	12.5785	-1.98177	2.85529	3.45934	-6.99399	9.03221	0.573794	0.320921
0.8547	5.38013	-11.5014	10.1305	-5.65073	1.64502	2.56149	-9.7387	8.73225	0.882759	0
0.8553	6.94078	-9.94279	13.49	-5.65073	1.64502	2.56149	-13.1035	7.49907	2.07448	0
0.8560	10.8835	-7.2018	19.8965	-3.50828	2.54979	3.77622	-14.0153	7.49907	4.23725	0
0.8567	13.3476	-4.78329	22.657	-1.3926	4.07731	5.30784	-14.3163	9.03221	6.0469	-0.320921
0.8573	9.97993	-5.69695	18.6725	-3.82964	2.54979	3.77622	-17.681	8.43228	5.73794	-0.320921
0.8580	3.2445	-5.05201	9.81801	-4.12423	0.423006	1.32036	-20.4257	6.59918	4.54621	-0.320921
0.8587	-0.0821394	-1.39736	2.81259	-0.160684	0.423006	1.02988	-23.7814	6.59918	5.16414	-0.320921
0.8593	0.205348	0.429958	2.81259	-1.3926	1.03402	1.32036	-30.1918	8.43228	6.9738	0
0.8600	2.95702	-0.806172	7.68253	-3.82964	1.64502	1.32036	-35.9912	11.4652	10.3283	0
0.8607	3.86055	-2.31103	9.53155	-5.03478	0.423006	0.105629	-35.6812	12.0652	11.8731	0
0.8613	2.66953	-2.6335	8.62006	-6.88265	-1.10452	-1.71646	-30.4927	10.8653	11.8731	0
0.8620	2.34097	-1.71983	7.08355	-6.56128	-2.02103	-1.42599	-25.6142	10.5654	11.8731	-0.320921
0.8627	1.43744	0.429958	3.72407	-1.98177	-2.02103	0.422514	-25.3042	9.63214	9.09242	-0.320921
0.8633	4.80515	3.49341	5.26058	3.80286	0.423006	4.38359	-29.2708	10.8653	5.73794	-0.320921
0.8640	10.2674	6.50312	7.68253	4.41882	1.95053	6.52256	-36.6022	14.5315	3.31035	0
0.8647	9.0764	8.33044	5.26058	1.98177	1.33952	4.99095	-48.8029	15.7314	1.50069	0
0.8653	5.99617	6.82559	2.50008	0.133904	1.03402	2.85197	-56.4352	15.4314	1.50069	0
0.8660	4.18911	4.6758	1.9011	-1.68719	0.728511	1.92772	-53.9914	16.6646	2.38345	0
0.8667	0.821394	4.99827	4.63556	-0.455272	1.03402	2.24461	-44.2254	19.6975	4.23725	0
0.8673	-2.21776	4.40707	5.85956	0.133904	0.728511	2.56149	-33.8484	20.6308	3.92828	0
0.8680	-4.68194	3.49341	3.41156	-0.455272	0.117502	4.38359	-23.7814	19.0976	-0.044138	0
0.8687	-6.20152	4.0846	5.26058	0.74986	1.03402	8.05418	-3.33742	17.8644	-2.78069	0
0.8693	-5.87296	3.76214	7.39606	1.36582	0.728511	9.55939	15.8938	17.2645	-4.32552	-0.320921
0.8700	-5.87296	3.76214	7.08355	1.98177	1.03402	10.8005	15.5837	19.0976	-4.94345	0
0.8707	-5.58548	5.32074	8.30755	2.89232	3.77181	10.8005	3.68393	22.1639	-4.32552	0
0.8713	-4.35339	7.14806	7.68253	2.89232	4.07731	9.26891	0.939219	23.6637	-5.82621	0
0.8720	-4.35339	8.65291	3.72407	2.89232	2.54979	7.73729	11.9272	23.0638	-8.6069	0
0.8727	-5.29799	8.65291	3.41156	3.18691	3.1608	6.81304	26.8817	23.0638	-8.6069	0.320921
0.8733	-2.83381	8.97538	4.63556	4.12423	5.60483	6.81304	37.2587	25.1969	-6.13518	0
0.8740	-1.02674	8.65291	0.677104	2.27636	5.91034	5.30784	37.2587	23.3638	-5.51725	-0.320921
0.8747	-2.54632	8.33044	-2.99488	1.66041	5.91034	4.67406	27.4927	20.3308	-5.82621	0
0.8753	-2.83381	9.56657	-2.36987	2.89232	6.52135	6.20568	8.57152	18.1977	-6.44414	-0.320921
0.8760	-1.31423	8.97538	-3.90637	-1.07123	5.29933	4.0667	-14.6263	13.2983	-8.29794	-0.320921
0.8767	-0.0821394	9.56657	-2.0834	-1.68719	6.52135	4.67406	-18.5929	12.9984	-8.29794	0
0.8773	0.821394	11.3939	2.81259	1.98177	8.96538	8.34466	-10.9606	14.5315	-7.98897	0
0.8780	-1.60172	8.33044	2.81259	1.98177	8.65988	8.05418	-20.7267	14.5315	-10.1076	0
0.8787	-1.93027	4.6758	7.08355	2.59773	10.1874	8.34466	-33.8484	18.4977	-11.6524	0
0.8793	-1.31423	4.0846	16.537	2.59773	10.7984	8.34466	-37.5141	16.6646	-12.5352	0
0.8800	-1.93027	5.32074	22.0319	2.27636	9.8819	9.87627	-38.736	12.0652	-11.9614	-0.320921
0.8807	-1.02674	7.41678	19.8965	5.32937	10.7984	11.091	-39.9579	12.9984	-8.29794	0
0.8813	-0.410697	7.73925	11.9535	4.41882	9.27089	7.12993	-53.6905	13.8983	-7.68001	0
0.8820	-1.93027	8.65291	7.68253	2.89232	7.43786	5.59831	-70.7788	16.0313	-7.06208	0
0.8827	-2.83381	8.65291	5.54705	1.66041	5.91034	4.67406	-77.8002	14.8315	-5.20828	0
0.8833	-4.0659	7.14806	3.41156	-0.160684	3.77181	3.16886	-83.9006	9.33217	-6.13518	0
0.8840	-2.83381	8.97538	6.45853	1.98177	4.38281	5.30784	-84.8124	9.63214	-4.01656	0
0.8847	-1.31423	8.33044	4.94807	1.98177	3.77181	3.45934	-74.1345	8.73225	-3.70759	0
0.8853	-1.93027	6.50312	2.18757	2.27636	1.95053	2.24461	-54.9124	6.26589	-6.13518	0
0.8860	1.72493	8.33044	5.54705	8.08778	4.38281	6.52256	-30.4927	7.79903	-4.94345	0
0.8867	1.43744	8.33044	4.03658	7.15045	4.07731	5.9152	-5.7721	6.89914	-6.13518	0
0.8873	-4.96943	6.82559	4.03658	5.62395	3.4663	4.38359	33.283	7.49907	-6.75311	-0.320921
0.8880	-9.56923	6.2344	7.39606	7.76641	4.38281	5.30784	73.2682	11.4652	-4.32552	-0.320921
0.8887	-15.6475	5.58946	5.85956	4.12423	3.4663	4.99095	83.6452	11.7652	-5.51725	0
0.8893	-17.1671	6.2344	8.62006	3.80286	4.99382	9.55939	71.1254	12.9984	-7.37104	0.320921
0.8900	-13.2244	6.2344	11.3545	7.15045	6.52135	16.2932	51.9033	12.9984	-8.29794	-0.320921
0.8907	-10.7603	4.0846	8.62006	8.08778	5.91034	17.7984	43.3591	9.9321	-10.4166	-0.320921
0.8913	-9.85672	3.76214	8.30755	9.61428	5.60483	16.9006	55.8699	10.5654	-11.3435	-0.320921
0.8920	-10.7603	2.84847	7.68253	8.08778	3.1608	12.6226	60.1465	11.1653	-11.0345	-0.320921
0.8927	-11.9923	1.93481	5.26058	4.71341	1.33952	8.34466	48.8485	11.7652	-9.48966	-0.320921
0.8933	-7.7211	5.58946	4.32305	3.50828	1.64502	7.12993	49.7695	16.3646	-4.63449	-0.320921
