MR32 ASCII
Name	NA_slow
Frequency	1500
Date	28-08-2015 10:30:23
"Time,s"	"RT TIB.ANT.,uV"	"RT MED. GASTRO,uV"	"RT LAT. GASTRO,uV"	"RT BICEPS FEM.,uV"	"RT VMO,uV"	"RT VLO,uV"	"RT RECTUS FEM.,uV"	"RT SOLEUS,uV"	"RT SEMITEND.,uV"	"Channel 12,uV"
0.0000	1.12246	5.82468	2.8918	-0.704738	6.37704	0.398877	-10.3381	12.4187	1.90711	-10165.9
0.0007	-0.693287	5.22588	5.01245	-3.44391	5.14946	-0.21117	-13.3877	10.292	2.83796	-10008.7
0.0013	-0.099041	7.07672	6.84392	-3.74974	5.76325	0.703901	-15.2187	7.55758	4.06396	-9574.13
0.0020	1.12246	6.1513	9.9044	-3.44391	6.37704	1.00892	-16.7435	5.69667	5.26726	-9908.27
0.0027	-1.91479	2.17745	7.1572	-5.27889	6.06616	-1.12624	-20.4054	4.48138	6.81111	-9805.7
0.0033	-1.32055	1.85083	-2.60262	-6.80804	5.76325	-2.65136	-21.63	4.17756	8.94526	-9797.61
0.0040	3.26835	3.70167	-9.32605	-7.4197	5.14946	-3.87145	-20.7116	3.56991	8.62741	-9814.09
0.0047	4.48986	2.17745	-8.41031	-6.80804	4.54364	-5.7016	-18.5745	3.56991	5.88026	-9814.4
0.0053	6.00848	0.0544363	0.43377	-3.74974	6.67995	-3.87145	-13.3877	6.00049	4.97211	-9797.92
0.0060	6.00848	-0.272181	2.57852	-2.52642	8.20247	-1.12624	-9.11945	7.25376	3.74611	-9805.7
0.0067	2.97123	-0.598799	-4.14491	-2.83225	8.20247	0.398877	-6.37007	6.91196	1.61196	-9909.82
0.0073	2.64109	0.979853	-5.03655	-1.91476	8.81625	1.924	-2.09588	7.25376	0.998963	-9575.06
0.0080	1.74972	5.22588	-6.86802	-1.3164	9.11916	1.924	2.47856	7.25376	0.385963	-10009.3
0.0087	-4.06068	7.67552	-13.2782	-1.01057	9.42207	2.22902	6.75275	9.68434	-0.840037	-10184.9
0.0093	-7.42807	9.47191	-18.7726	1.43607	10.9526	4.97423	10.4147	14.8493	-0.227037	-4921.03
0.0100	-7.09794	12.2482	-34.9666	2.04773	12.1722	5.58428	10.7208	16.1026	0.703815	112.209
0.0107	-6.80081	12.847	-71.8853	-1.3164	11.5584	4.05916	8.88984	15.1531	0.703815	112.209
0.0113	-4.06068	9.79853	-87.4528	-2.52642	11.2555	3.14409	6.14047	14.8493	0.998963	-238.094
0.0120	0.231096	4.30047	-38.9188	-1.62223	10.9526	2.83907	2.7847	15.1531	0.385963	96.3567
0.0127	4.19273	-2.12302	29.7373	-1.62223	10.6497	2.22902	0.647604	17.6217	0.703815	-6.83822
0.0133	8.15437	-0.870981	62.1013	-0.704738	12.1722	2.53404	0.953745	17.9255	2.22496	-14.6089
0.0140	7.85725	6.7501	64.222	-1.01057	11.5584	1.61897	1.25988	10.8996	0.385963	1.55414
0.0147	6.63574	11.6494	54.1489	-0.704738	10.0359	1.31395	2.47856	5.69667	-3.88233	-1.55414
0.0153	9.97012	15.2966	39.4971	4.48107	11.8693	5.8893	4.92179	10.8996	-5.10833	-1.55414
0.0160	11.8189	17.7462	32.7978	7.53937	13.0889	9.24456	0.341464	19.4446	-5.40348	-0.621656
0.0167	6.30561	14.099	35.545	5.09273	11.5584	8.02447	-12.1691	22.179	-6.01648	0
0.0173	-2.21191	6.7501	33.7135	2.04773	9.11916	5.8893	-26.8167	16.7102	-4.17748	-0.621656
0.0180	-4.3578	-1.1976	24.2429	0.518581	7.28577	3.44911	-40.2457	2.65845	-1.13518	-0.621656
0.0187	-3.43342	-6.36905	14.7964	-0.704738	6.67995	1.31395	-47.8756	-5.88656	-0.227037	-0.621656
0.0193	-4.98506	-6.36905	10.8201	-1.62223	6.98286	0.703901	-46.3508	-1.29125	0.0908148	-0.310828
0.0200	-6.50369	-2.994	10.8201	-0.398908	7.28577	1.00892	-39.9395	0.531689	-0.227037	-0.310828
0.0207	-7.09794	1.85083	10.2177	1.43607	7.28577	1.924	-34.1405	2.65845	-0.522185	-0.310828
0.0213	-7.09794	5.5525	7.47048	1.13024	7.28577	1.61897	-29.8663	11.8111	-0.522185	-0.310828
0.0220	-6.80081	5.22588	4.72327	-1.62223	6.37704	-0.21117	-27.1228	18.5332	-0.840037	-0.310828
0.0227	-6.50369	4.30047	4.72327	-3.74974	5.14946	-1.12624	-21.63	22.179	-1.13518	-0.310828
0.0233	-3.1363	6.1513	7.1572	-1.91476	6.67995	1.924	-8.20103	23.6981	0.385963	-0.310828
0.0240	-1.61767	6.1513	7.75966	-0.704738	6.67995	3.44911	0.953745	20.6599	1.90711	-0.310828
0.0247	-3.76356	4.89927	4.72327	-2.52642	4.24073	1.924	-0.877209	16.4064	-0.227037	0
0.0253	-1.32055	6.7501	5.32573	0.824411	5.14946	4.97423	3.09084	17.6217	-1.13518	-0.310828
0.0260	0.825341	7.9477	5.639	4.18854	6.37704	8.32949	14.6888	17.9255	-1.13518	-0.310828
0.0267	-0.99041	6.7501	1.97606	1.7419	4.54364	5.58428	38.1851	14.2417	-2.04333	-0.310828
0.0273	0.528218	7.3489	2.26524	0.824411	3.32403	3.14409	68.3988	13.0264	-0.522185	0
0.0280	4.19273	9.47191	5.639	2.04773	2.71024	2.22902	72.0607	14.2417	1.90711	-0.310828
0.0287	0.528218	8.87311	1.97606	-1.3164	-0.0318852	-1.73629	48.5585	11.8111	0.385963	-0.310828
0.0293	-1.61767	8.27431	1.34951	-1.91476	-0.948584	-1.73629	27.5055	11.8111	1.31681	0.310828
0.0300	3.26835	8.87311	8.98867	2.65939	1.18772	2.53404	15.2952	15.457	4.97211	0
0.0307	2.64109	6.7501	7.75966	0.824411	-2.16819	-0.516194	0.341464	13.634	2.52011	-0.310828
0.0313	0.528218	4.30047	2.57852	-1.91476	-5.2212	-2.65136	-7.28849	11.2035	0.703815	0
0.0320	2.97123	4.30047	3.18098	1.43607	-3.08489	0.398877	-8.81331	12.4187	3.45096	-0.310828
0.0327	0.825341	2.77625	0.747048	-0.398908	-4.00159	-1.43126	-20.4054	11.2035	4.06396	-0.310828
0.0333	-3.43342	1.57865	-2.9159	-3.74974	-6.75169	-4.17648	-30.4786	8.16523	2.52011	0
0.0340	-2.83917	4.30047	-0.168688	-1.62223	-5.2212	-2.04131	-35.6653	8.46905	4.97211	-0.310828
0.0347	-3.76356	5.82468	0.747048	-1.62223	-4.61538	-1.43126	-48.482	8.77287	5.88026	0
0.0353	-5.28218	5.5525	-1.68688	-3.74974	-6.1379	-2.04131	-55.1994	6.60814	3.45096	0
0.0360	-1.61767	6.7501	0.747048	-0.704738	-4.91829	0.398877	-42.6889	7.55758	4.06396	0
0.0367	0.528218	5.22588	2.8918	0.824411	-4.91829	1.31395	-33.228	8.46905	4.35911	0
0.0373	-1.61767	0.979853	1.34951	-2.52642	-8.27421	-1.43126	-40.8579	7.25376	2.22496	-0.310828
0.0380	-2.83917	-0.598799	2.57852	-3.13808	-8.888	-1.73629	-44.2137	7.55758	2.52011	0
0.0387	-2.54205	0.326618	5.639	-0.398908	-7.9713	0.0938534	-33.5282	9.98816	4.35911	0
0.0393	-4.06068	0.979853	4.40999	-0.398908	-8.57712	-0.516194	-32.9218	11.2035	4.97211	-0.310828
0.0400	-8.02232	0.653235	-0.168688	-3.74974	-11.0243	-2.95638	-63.1355	9.07669	3.74611	0
0.0407	-8.64958	0.979853	-1.3977	-4.3614	-11.3272	-2.65136	-96.3988	7.8614	3.45096	0
0.0413	-7.72519	1.25203	-0.771146	-2.83225	-10.7134	0.0938534	-109.822	8.16523	2.83796	0
0.0420	-3.1363	0.979853	0.14459	-1.91476	-11.3272	1.00892	-110.74	6.91196	1.90711	-0.310828
0.0427	5.41424	0.653235	1.34951	-1.62223	-11.6301	-0.516194	-90.5998	6.30431	1.31681	0
0.0433	9.07875	1.25203	3.18098	-0.398908	-9.49381	-2.04131	-71.3719	8.16523	2.22496	0
0.0440	3.26835	0.979853	3.18098	-0.398908	-9.49381	-4.17648	-81.1389	7.8614	1.90711	-0.310828
0.0447	-5.57931	-2.12302	0.747048	-1.62223	-11.933	-6.92169	-89.075	3.56991	-0.227037	-0.932484
0.0453	-7.09794	-1.7964	1.34951	-1.3164	-11.933	-6.00662	-77.477	3.87374	-0.227037	-0.621656
0.0460	-5.28218	0.979853	4.09671	-0.398908	-10.1076	-3.87145	-50.9252	6.91196	0.998963	0
0.0467	-8.02232	1.25203	3.80753	-0.704738	-10.7134	-3.87145	-8.20103	6.60814	0.703815	0
0.0473	-10.4653	0.653235	3.18098	-2.52642	-13.4635	-4.4815	16.2137	6.00049	0.703815	-0.310828
0.0480	-9.54095	0.653235	5.32573	-2.22059	-14.6831	-3.26141	7.97142	6.91196	1.31681	0
0.0487	-11.6868	0.326618	5.92818	-1.91476	-15.2969	-3.56643	8.27756	7.8614	1.61196	0
0.0493	-16.87	-0.272181	4.40999	-4.05557	-16.5165	-4.78652	35.7419	8.16523	1.90711	0
0.0500	-12.9083	0.326618	5.32573	-3.44391	-14.6831	-3.87145	80.6032	9.68434	3.13311	0
0.0507	-4.98506	1.85083	5.32573	-1.91476	-12.8497	-3.56643	117.228	11.5073	4.35911	0
0.0513	-12.9083	2.77625	1.66278	-4.05557	-14.0693	-4.4815	114.479	11.2035	2.83796	0
0.0520	-28.4578	3.70167	0.43377	-3.74974	-14.3802	-4.17648	88.2331	11.5073	1.61196	0
0.0527	-35.1926	4.89927	1.66278	-0.398908	-13.1606	-3.56643	69.9236	13.0264	2.22496	0
0.0533	-42.8187	4.89927	1.34951	0.212751	-12.8497	-4.4815	50.6956	12.4187	2.52011	0
0.0540	-51.0391	4.30047	1.34951	-0.704738	-11.933	-5.7016	29.3365	11.2035	1.90711	-0.310828
0.0547	-48.6291	6.1513	1.34951	0.518581	-10.1076	-5.39657	24.7561	12.1149	1.61196	0
0.0553	-41.5972	8.27431	-0.771146	1.7419	-9.19091	-3.26141	26.5871	11.8111	0.703815	0
0.0560	-37.3054	7.07672	-1.3977	1.43607	-9.19091	-0.821217	23.5375	9.07669	-1.13518	0
0.0567	-43.7431	6.1513	0.14459	1.43607	-7.35751	1.31395	24.7561	7.25376	-2.04333	0
0.0573	-55.3309	7.67552	-1.3977	2.96522	-6.44081	3.44911	31.4736	7.55758	-2.65633	-0.310828
0.0580	-49.5205	7.9477	-2.9159	4.7869	-6.75169	4.66921	32.9984	8.16523	-2.65633	0
0.0587	-27.2363	6.1513	-1.3977	4.48107	-7.35751	5.58428	19.2633	6.60814	-1.74818	0
0.0593	-11.3897	3.37505	-0.168688	1.7419	-7.0546	6.19433	-4.23298	4.17756	-0.522185	0
0.0600	-19.9402	3.37505	-0.771146	1.7419	-6.75169	6.80437	-25.9042	2.96227	-0.227037	0
0.0607	-33.9711	4.89927	0.14459	4.18854	-5.83499	7.71944	-29.5661	2.96227	-0.840037	0
0.0613	-30.0094	5.82468	-0.168688	4.48107	-4.61538	7.71944	-12.7814	3.56991	-2.04333	0
0.0620	-16.5729	7.07672	-1.68688	5.39856	-2.47907	6.19433	7.66528	4.17756	-3.26933	0
0.0627	-3.43342	7.3489	3.18098	9.06852	-1.25946	6.19433	29.0303	6.60814	-2.04333	0
0.0633	9.97012	4.89927	5.92818	9.68018	-3.39577	6.49935	45.2028	9.98816	-2.65633	0
0.0640	43.2479	1.85083	3.80753	6.92771	-6.1379	5.27926	49.477	11.8111	-5.10833	0
0.0647	92.0751	0.979853	6.24146	6.92771	-6.44081	4.97423	48.2583	15.1531	-4.17748	0.310828
0.0653	117.099	2.17745	10.5069	7.8452	-5.83499	5.58428	43.678	22.7867	-1.13518	0.310828
0.0660	105.181	3.70167	6.84392	4.18854	-7.35751	1.924	33.9109	27.6858	-1.43033	0
0.0667	78.6385	4.30047	4.72327	2.04773	-6.44081	0.0938534	20.4878	29.8126	-1.43033	-0.310828
0.0673	89.3349	5.82468	8.98867	4.18854	-4.00159	2.53404	11.0269	32.2432	1.90711	-0.310828
0.0680	139.384	7.67552	6.24146	2.35356	-7.0546	1.31395	3.39698	31.9393	1.90711	0
0.0687	162.889	10.7239	-0.481966	-0.398908	-10.1076	-0.516194	-0.571069	31.6355	0.385963	0.310828
0.0693	143.048	17.1474	-4.14491	2.04773	-7.35751	1.00892	3.70312	35.6232	2.52011	0.310828
0.0700	110.992	22.6455	-10.2418	2.96522	-5.2212	0.398877	-0.571069	37.4461	2.83796	0
0.0707	84.746	23.5165	-16.9411	-0.398908	-7.35751	-2.04131	-28.6477	35.3194	0.703815	0
0.0713	47.2095	25.3673	-19.3991	0.212751	-6.75169	-1.12624	-68.6284	33.4964	1.31681	0
0.0720	-28.1606	29.3412	-20.3149	4.18854	-3.69868	1.61897	-97.6175	31.6355	2.52011	0
0.0727	-68.7674	26.2927	-20.9173	4.18854	-4.00159	1.00892	-113.184	26.1667	-0.227037	-0.310828
0.0733	-13.5026	15.2966	-14.8205	3.57688	-4.3045	-0.21117	-132.406	15.1531	-2.97418	-0.310828
0.0740	72.8611	4.30047	-4.14491	4.7869	-2.78198	1.61897	-147.666	1.13933	-1.13518	0
0.0747	121.061	-4.24603	0.14459	3.27105	-4.3045	0.398877	-142.479	-14.7354	-0.227037	-0.621656
0.0753	97.2582	-11.2683	3.18098	1.43607	-5.83499	-2.04131	-119.895	-28.4834	-0.522185	-0.932484
0.0760	19.1479	-16.7664	8.98867	2.04773	-5.83499	-2.34634	-93.6495	-39.4589	0.703815	-0.310828
0.0767	-43.7431	-21.6112	13.8806	3.57688	-4.61538	-2.65136	-65.5729	-49.8269	2.22496	0
0.0773	-58.071	-25.5851	15.0855	2.96522	-4.91829	-5.39657	-35.0589	-55.6375	1.61196	-0.310828
0.0780	-70.8803	-26.1839	14.7964	1.13024	-6.1379	-8.16525	-12.1691	-56.2451	0.998963	0
0.0787	-98.6778	-23.7887	14.1698	0.824411	-6.44081	-9.08032	9.19598	-60.1948	1.90711	0
0.0793	-97.7534	-20.4136	12.0492	0.518581	-6.1379	-9.38534	42.4593	-61.4101	3.13311	0
0.0800	-79.728	-15.5143	8.38621	-0.704738	-6.44081	-8.7753	73.2794	-53.2069	4.06396	0
0.0807	-72.1018	-12.7925	5.639	-2.22059	-6.44081	-8.16525	87.0145	-44.0163	3.74611	-0.310828
0.0813	-73.0262	-12.1937	6.55474	-1.62223	-5.53208	-8.16525	92.5073	-37.3322	4.06396	0
0.0820	-76.6907	-12.7925	7.75966	-0.398908	-5.2212	-8.16525	89.1516	-33.9522	4.06396	0
0.0827	-71.5076	-15.2422	8.07293	-0.398908	-4.91829	-8.7753	72.673	-33.3445	2.52011	0
0.0833	-55.628	-17.0386	9.9044	-0.704738	-4.61538	-7.22671	50.0892	-30.9139	2.83796	-0.310828
0.0840	-43.413	-17.0386	9.9044	-1.01057	-3.69868	-4.78652	22.6191	-29.091	3.45096	0
0.0847	-38.2298	-14.3167	6.55474	-1.91476	-3.39577	-3.56643	4.92179	-28.1795	3.45096	0
0.0853	-29.6793	-9.09086	2.57852	-2.83225	-3.39577	-3.26141	7.66528	-25.1033	2.83796	0
0.0860	-18.3886	-3.91941	-1.08442	-2.52642	-1.25946	-2.04131	14.3827	-21.4575	1.61196	0
0.0867	-9.87108	-2.3952	-1.68688	-1.3164	1.18772	-0.821217	25.6746	-19.9383	0.703815	-0.310828
0.0873	-4.06068	-4.84483	-1.3977	-1.3164	0.876843	-1.12624	45.5089	-20.546	-0.840037	-0.310828
0.0880	2.04685	-7.89326	-0.481966	-0.398908	1.49063	-1.12624	55.5821	-21.1536	-2.36118	0
0.0887	6.93287	-9.74409	2.26524	1.7419	3.62694	1.924	53.7512	-20.8498	-2.04333	0
0.0893	6.30561	-9.74409	3.49425	2.35356	5.14946	5.58428	51.9202	-20.8498	-2.04333	0
0.0900	2.04685	-8.49206	3.18098	2.35356	6.06616	7.41442	55.276	-20.2422	-3.26933	0
0.0907	-3.76356	-8.49206	3.18098	3.27105	5.46034	7.41442	69.0111	-19.6345	-4.17748	0
0.0913	-13.5026	-8.81868	5.01245	4.18854	4.24073	6.80437	82.4341	-17.4698	-3.88233	0
0.0920	-22.0531	-8.81868	5.92818	3.57688	3.01315	5.58428	76.3349	-13.5201	-4.17748	0
0.0927	-26.642	-7.89326	5.639	4.18854	3.62694	5.58428	58.9379	-11.3933	-3.56448	0
0.0933	-31.528	-6.04243	6.55474	7.23354	4.84655	8.32949	48.5585	-12.9125	-2.97418	0
0.0940	-37.0083	-5.44363	5.01245	6.01022	3.62694	8.93954	37.2726	-17.4698	-4.49533	0
0.0947	-35.1926	-4.51821	3.49425	2.65939	3.01315	7.1094	22.6191	-17.166	-4.49533	0
0.0953	-26.3449	-1.7964	4.72327	2.96522	4.24073	6.80437	14.995	-12.001	-2.36118	0
0.0960	-19.9402	0.653235	3.49425	1.7419	4.24073	4.97423	11.9395	-8.62096	-2.04333	0.310828
0.0967	-15.0542	2.17745	-0.168688	-0.0930786	3.32403	2.83907	9.80237	-6.79803	-2.36118	0.621656
0.0973	-0.99041	3.70167	-2.00016	0.824411	3.32403	2.83907	6.75275	-4.67127	-2.36118	0
0.0980	17.9264	2.77625	-1.68688	1.43607	3.32403	3.44911	1.87217	-2.54451	-3.26933	0
0.0987	37.1404	0.326618	-2.31344	1.13024	3.01315	4.05916	4.00337	-1.63305	-5.10833	0.310828
0.0993	69.7909	0.0544363	-1.3977	3.88271	3.32403	6.80437	17.4323	2.0508	-5.72133	0
0.1000	99.9984	-1.1976	1.06033	6.01022	2.71024	8.63452	22.0127	3.87374	-5.72133	0
0.1007	97.5553	-5.44363	1.66278	4.7869	1.18772	7.41442	10.7208	0.227867	-6.62948	0
0.1013	78.6385	-6.69566	3.18098	5.70439	0.876843	6.80437	0.647604	-1.29125	-5.72133	0
0.1020	74.974	-5.44363	3.18098	4.48107	-0.342766	5.58428	-7.89489	-1.29125	-4.49533	0.310828
0.1027	75.8984	-5.77025	0.43377	1.43607	-1.25946	3.14409	-15.2187	-4.97509	-4.17748	0
0.1033	66.1264	-4.24603	0.747048	1.7419	0.271024	3.14409	-17.6619	-4.06362	-3.26933	0
0.1040	43.2479	-0.598799	1.97606	2.96522	1.49063	4.97423	-25.9042	2.96227	-1.13518	0.310828
0.1047	-0.99041	0.326618	-2.31344	0.824411	-0.645675	2.22902	-41.4643	6.30431	-2.04333	-0.310828
0.1053	-57.1466	0.653235	-4.43409	0.518581	-1.86528	1.31395	-53.0623	6.60814	-3.56448	-0.932484
0.1060	-117.595	4.02829	-1.08442	4.18854	1.49063	5.58428	-58.5552	10.5958	-1.13518	-0.310828
0.1067	-147.175	5.82468	-1.08442	3.27105	2.71024	5.8893	-58.8613	11.8111	-0.522185	0
0.1073	-115.746	5.5525	-4.74737	1.13024	1.79354	4.66921	-56.4181	8.77287	-3.26933	-0.310828
0.1080	-70.5832	7.67552	-3.51835	4.48107	3.62694	8.02447	-48.7882	8.46905	-2.97418	0
0.1087	-46.4832	8.27431	-1.3977	6.31605	3.92985	8.63452	-40.5518	8.46905	-1.74818	0
0.1093	-23.9019	4.62708	-3.51835	2.04773	0.271024	3.14409	-38.1086	4.48138	-4.79048	0
0.1100	6.30561	1.57865	-2.00016	1.13024	-0.0318852	2.53404	-34.7528	0.835512	-5.40348	0
0.1107	28.8869	0.653235	2.8918	3.57688	1.79354	5.58428	-25.9042	-0.987423	-3.88233	0
0.1113	28.8869	-3.32061	1.97606	0.518581	-1.25946	2.53404	-17.6619	-5.27891	-6.31163	-0.310828
0.1120	13.0404	-5.44363	0.43377	-1.62223	-3.39577	0.0938534	-6.37007	-8.31714	-7.85548	0
0.1127	3.8626	-2.12302	3.80753	1.7419	-0.342766	3.75414	11.6333	-6.19038	-5.10833	0
0.1133	5.71136	0.653235	3.49425	1.13024	0.876843	4.05916	19.8756	-4.67127	-4.79048	0
0.1140	12.7433	-0.272181	-1.68688	-4.05557	-2.16819	0.398877	18.6569	-3.7598	-6.92463	0
0.1147	27.3683	-0.870981	-1.08442	-4.3614	-3.69868	0.703901	27.8117	1.13933	-6.31163	0.310828
0.1153	42.3235	-0.598799	3.49425	-0.398908	-2.16819	4.05916	39.7099	5.69667	-4.79048	0
0.1160	42.6206	-1.46978	2.26524	-1.62223	-3.08489	3.14409	31.1674	4.7852	-4.79048	0
0.1167	35.3246	-0.870981	-0.771146	-2.52642	-3.39577	2.53404	15.6014	2.0508	-5.40348	0.310828
0.1173	28.8869	2.17745	-0.771146	0.824411	-1.25946	6.19433	9.80237	2.96227	-4.49533	0.310828
0.1180	18.5207	4.30047	-4.74737	0.212751	-2.16819	5.58428	2.7847	2.35462	-5.40348	0
0.1187	9.37588	4.62708	-8.41031	-1.91476	-4.00159	2.53404	-3.32044	1.13933	-6.01648	0
0.1193	3.26835	3.37505	-6.86802	-0.704738	-2.47907	3.14409	0.0412112	1.13933	-5.10833	0
0.1200	-10.4653	2.50407	-4.74737	1.13024	-0.645675	3.75414	8.27756	0.227867	-4.17748	-0.310828
0.1207	-28.4578	0.326618	-3.22917	1.43607	0.271024	3.44911	12.5517	-0.987423	-4.79048	0
0.1213	-40.6728	-3.64723	0.43377	1.43607	1.18772	4.36418	10.1085	-2.84834	-5.40348	0
0.1220	-48.299	-6.04243	4.40999	0.824411	2.10442	4.36418	4.00337	-5.27891	-4.17748	0
0.1227	-45.2617	-5.44363	4.09671	-0.704738	3.32403	2.83907	-3.32044	-5.58274	-2.97418	0
0.1233	-34.2682	-2.12302	1.34951	-1.62223	4.24073	2.53404	-7.89489	-2.84834	-2.04333	0
0.1240	-24.4961	0.653235	-1.68688	-2.83225	3.32403	2.22902	-12.1691	-2.54451	-1.43033	0
0.1247	-17.4972	0.979853	-3.51835	-4.05557	1.49063	1.31395	-16.1371	-4.97509	-1.43033	-0.310828
0.1253	-16.2757	1.25203	-3.51835	-4.05557	0.876843	0.703901	-19.799	-5.88656	-1.43033	0
0.1260	-9.87108	1.85083	-3.83163	-4.05557	1.49063	0.398877	-25.2919	-5.88656	-1.13518	0.310828
0.1267	7.85725	1.25203	-4.14491	-3.74974	2.10442	0.0938534	-29.8663	-7.10185	-1.43033	0
0.1273	11.1916	2.50407	-5.6631	-4.05557	2.10442	0.0938534	-32.3096	-7.10185	-1.43033	0
0.1280	-8.31944	5.82468	-7.49457	-4.97306	1.18772	-0.21117	-32.3096	-5.58274	-0.840037	0
0.1287	-35.1926	8.60093	-8.41031	-5.58472	0.271024	-1.73629	-30.4786	-4.67127	-0.522185	0
0.1293	-50.742	8.60093	-8.41031	-5.89055	0.271024	-2.95638	-28.9538	-4.97509	-0.840037	0
0.1300	-42.1914	7.3489	-5.6631	-4.97306	1.79354	-2.04131	-26.2044	-3.45598	0.385963	0
0.1307	-16.2757	4.30047	-2.60262	-4.66723	1.79354	-2.04131	-22.5425	-2.24069	0.998963	0.310828
0.1313	10.8945	1.25203	-0.481966	-5.58472	0.573933	-3.56643	-22.2423	-2.84834	0.0908148	0
0.1320	32.5515	1.25203	1.06033	-5.27889	1.49063	-3.26141	-20.4054	-2.24069	0.998963	0
0.1327	34.6973	1.25203	1.66278	-5.27889	1.79354	-3.26141	-17.0497	-0.987423	2.22496	0
0.1333	2.97123	0.979853	0.747048	-6.80804	0.271024	-5.09155	-16.4433	-0.379778	1.90711	0
0.1340	-23.9019	1.57865	0.747048	-7.4197	-0.645675	-5.09155	-13.3877	1.13933	1.31681	0
0.1347	-14.7241	1.57865	1.34951	-4.97306	-0.645675	-3.87145	-2.40202	3.26609	0.998963	-0.621656
0.1353	-11.0596	1.57865	1.06033	-3.74974	-0.948584	-3.87145	11.9395	5.39285	-0.227037	-0.621656
0.1360	-51.0391	2.50407	2.26524	-4.66723	-0.645675	-4.78652	16.5198	8.77287	-0.522185	-0.310828
0.1367	-126.112	3.10287	5.01245	-4.3614	-0.0318852	-4.4815	8.27756	13.3302	0.385963	0
0.1373	-167.016	2.77625	5.639	-4.3614	0.573933	-2.65136	-3.32044	15.457	-0.227037	0
0.1380	-88.9058	3.10287	5.639	-5.27889	0.271024	-2.04131	-12.7814	16.1026	-1.13518	-0.310828
0.1387	51.5013	6.1513	4.72327	-4.3614	0.876843	-1.43126	-14.9126	19.7485	-0.840037	-0.310828
0.1393	124.428	12.5748	0.747048	-3.74974	0.573933	-1.43126	-11.2507	25.8629	0.0908148	0
0.1400	117.099	18.0184	-3.51835	-5.27889	-0.645675	-3.56643	-10.9504	32.547	0.0908148	0
0.1407	121.358	22.3189	-7.49457	-6.50221	-0.645675	-3.87145	-12.7814	39.8767	1.31681	0
0.1413	164.408	29.3412	-11.76	-5.58472	1.79354	-2.34634	-14.3062	45.6873	1.61196	0
0.1420	155.56	37.2889	-17.8568	-4.97306	2.40733	-2.04131	-14.6123	48.4217	0.703815	0
0.1427	92.6693	43.3857	-23.3513	-4.05557	2.40733	-0.21117	-6.67621	50.8903	0.703815	0
0.1433	108.252	46.7063	-24.267	-1.62223	3.92985	3.44911	4.61565	51.1941	1.61196	0
0.1440	209.274	41.2627	-23.0621	-3.13808	1.79354	2.22902	5.22793	43.2567	0.703815	0
0.1447	262.987	30.5388	-20.6041	-5.58472	-1.86528	-2.65136	1.25988	31.3317	-0.840037	0
0.1453	235.817	21.1213	-14.5072	-3.74974	-1.86528	-3.26141	-0.264929	21.8752	-0.522185	0
0.1460	160.446	11.0506	-7.49457	-1.91476	-2.78198	-2.04131	-3.0143	10.5958	0.0908148	0
0.1467	81.0815	-2.12302	-0.771146	-3.44391	-5.83499	-3.56643	-6.67621	-5.58274	0.0908148	0
0.1473	76.1955	-14.5889	7.75966	-2.83225	-5.83499	-3.56643	-7.89489	-25.711	0.703815	0
0.1480	81.3787	-21.6112	13.8806	-0.398908	-4.61538	-2.34634	-7.58875	-43.7124	0.385963	-0.310828
0.1487	-26.642	-22.5366	12.9649	-1.3164	-5.53208	-3.56643	-9.11945	-52.8651	-0.840037	-0.310828
0.1493	-199.369	-20.087	12.0492	-2.52642	-4.91829	-3.87145	-12.4752	-53.2069	-0.840037	0
0.1500	-300.391	-17.3652	12.6516	-1.91476	-3.39577	-2.65136	-15.831	-50.4345	0.703815	0
0.1507	-286.955	-14.3167	10.5069	-2.22059	-4.00159	-2.65136	-19.4929	-48.9154	0.703815	0
0.1513	-243.938	-10.6695	8.38621	-2.83225	-2.78198	-1.43126	-20.7116	-49.8269	0.998963	0
0.1520	-220.729	-8.81868	8.07293	0.212751	-0.342766	0.398877	-18.2742	-50.4345	2.52011	-0.310828
0.1527	-202.737	-10.6695	7.75966	2.04773	-0.342766	-0.21117	-14.9126	-49.8269	2.52011	-0.621656
0.1533	-195.111	-12.7925	8.98867	-0.0930786	0.271024	-1.73629	-9.72584	-44.3201	1.90711	0
0.1540	-189.895	-13.0647	10.5069	-1.91476	0.876843	-2.95638	-5.75779	-34.5598	1.90711	0
0.1547	-165.2	-12.1937	9.59113	-3.44391	0.573933	-3.56643	-6.67621	-25.4071	2.83796	0
0.1553	-112.709	-9.74409	6.84392	-4.66723	1.18772	-3.56643	-8.20103	-18.0774	3.13311	0.310828
0.1560	-39.1542	-6.04243	5.639	-3.74974	1.79354	-3.26141	-6.06393	-12.6086	3.45096	0
0.1567	13.0404	-5.77025	7.75966	-1.91476	2.71024	-2.95638	-2.09588	-9.53243	4.06396	-0.310828
0.1573	20.9637	-10.3429	6.84392	-3.44391	2.10442	-3.26141	-3.92684	-9.83625	1.61196	0
0.1580	17.2992	-10.0163	3.80753	-2.52642	2.10442	-2.65136	-5.1514	-8.01332	-0.522185	0
0.1587	21.2608	-2.72181	0.14459	1.13024	4.84655	0.0938534	-1.78974	-1.93687	-1.13518	0.310828
0.1593	35.3246	2.17745	-5.95228	1.13024	5.14946	0.0938534	-2.09588	1.74698	-2.04333	0.310828
0.1600	63.6833	3.10287	-8.69949	0.212751	4.84655	-0.516194	-2.40202	2.35462	-1.43033	0.310828
0.1607	102.144	2.17745	-5.6631	1.7419	5.14946	1.61897	0.647604	2.96227	1.31681	0
0.1613	125.353	-1.46978	-4.43409	0.518581	3.62694	1.00892	0.0412112	-0.987423	1.61196	0
0.1620	103.96	-5.77025	-5.95228	-1.62223	1.18772	-1.73629	-2.40202	-9.22861	-0.227037	0
0.1627	73.4554	-6.36905	-3.22917	1.43607	1.18772	0.398877	1.87217	-10.7857	0.703815	0
0.1633	71.3095	-6.69566	-1.68688	1.7419	0.876843	0.398877	2.47856	-9.83625	1.90711	0
0.1640	95.7396	-8.49206	-4.74737	-3.74974	-1.56237	-3.56643	-4.53912	-11.6972	1.31681	0
0.1647	124.131	-9.09086	-3.51835	-2.52642	-0.948584	-2.95638	-5.45754	-12.6086	2.52011	0
0.1653	115.251	-10.0163	1.97606	3.27105	0.876843	0.0938534	0.341464	-14.7354	4.35911	-0.310828
0.1660	76.8228	-12.7925	1.97606	-0.398908	-1.25946	-2.04131	-0.571069	-19.0269	2.83796	0
0.1667	46.2851	-13.0647	-0.168688	-5.89055	-3.69868	-4.17648	-3.0143	-17.7736	1.31681	0.310828
0.1673	21.8881	-10.0163	2.26524	-3.44391	-2.78198	-2.65136	-0.571069	-11.0895	3.13311	0
0.1680	-4.06068	-9.09086	1.66278	-3.44391	-4.00159	-3.56643	-2.09588	-8.62096	1.90711	0.310828
0.1687	-19.9402	-9.41748	-0.771146	-4.97306	-6.44081	-5.09155	-5.75779	-10.4819	-0.522185	0
0.1693	-19.9402	-7.29446	1.34951	-1.91476	-5.2212	-2.34634	-3.62658	-9.53243	1.90711	0
0.1700	-21.4589	-5.44363	3.80753	-0.398908	-3.39577	-1.12624	-1.18335	-4.97509	4.65426	0.310828
0.1707	-58.6983	-5.44363	-0.481966	-4.3614	-6.1379	-4.17648	-5.45754	-3.45598	3.45096	0.621656
0.1713	-115.152	-3.32061	-4.14491	-4.97306	-7.35751	-5.39657	-7.89489	-2.54451	1.90711	0.310828
0.1720	-132.22	-0.870981	-2.31344	-1.91476	-4.3045	-3.26141	-4.53912	0.835512	2.22496	-0.310828
0.1727	-110.86	-2.3952	-2.31344	-2.52642	-4.00159	-4.4815	-5.1514	3.56991	0.703815	-0.310828
0.1733	-87.6843	-5.44363	-1.68688	-2.52642	-4.91829	-5.09155	-7.89489	3.56991	-0.840037	0.310828
0.1740	-64.4757	-6.69566	4.40999	2.04773	-2.47907	-1.12624	-6.06393	4.17756	0.385963	0.310828
0.1747	-45.856	-6.96784	5.639	2.04773	-3.08489	-1.43126	-6.98235	4.7852	-0.840037	0
0.1753	-26.0148	-6.04243	-0.168688	-0.398908	-5.2212	-4.78652	-11.2507	6.60814	-3.26933	0
0.1760	10.3003	-1.7964	-2.00016	0.518581	-2.78198	-3.26141	-11.5568	9.07669	-1.43033	0
0.1767	26.7741	1.57865	-2.31344	0.212751	-1.56237	-2.04131	-11.8629	9.68434	0.385963	0.310828
0.1773	7.52711	2.50407	-7.49457	-2.83225	-3.39577	-5.39657	-17.3558	9.38052	-1.43033	0
0.1780	14.2619	4.89927	-8.41031	-1.62223	-2.47907	-4.17648	-18.5745	12.7226	-1.13518	-0.310828
0.1787	46.6153	6.1513	-3.83163	2.35356	-0.645675	-1.73629	-14.3062	16.7102	1.61196	0
0.1793	54.2414	2.77625	-2.9159	0.824411	-3.39577	-4.78652	-13.3877	14.5455	0.703815	0
0.1800	47.5066	-2.12302	-2.60262	-2.22059	-4.91829	-7.22671	-13.6939	10.8996	-1.43033	-0.310828
0.1807	39.5834	-4.51821	2.26524	-1.3164	-3.08489	-5.39657	-8.20103	11.2035	-0.840037	0
0.1813	34.1031	-6.69566	4.40999	-1.91476	-3.69868	-5.39657	-4.53912	9.07669	-0.522185	0.310828
0.1820	47.5066	-7.29446	0.747048	-4.97306	-5.2212	-8.16525	-0.877209	4.17756	-1.74818	-0.310828
0.1827	64.9048	-1.46978	-0.481966	-1.91476	-1.86528	-6.00662	11.0269	7.25376	0.703815	-0.310828
0.1833	67.645	4.62708	-3.22917	1.13024	0.876843	-3.26141	16.5198	10.5958	1.31681	0
0.1840	73.4554	7.9477	-11.4467	-1.01057	0.271024	-3.87145	11.9395	9.68434	-1.74818	0
0.1847	102.738	10.7239	-15.7362	-3.74974	-0.0318852	-5.09155	8.88984	12.1149	-2.04333	0
0.1853	127.763	10.7239	-13.5914	-2.83225	0.876843	-3.87145	7.97142	14.8493	-0.227037	0.310828
0.1860	111.289	7.07672	-12.6757	-1.91476	-0.342766	-4.4815	6.14047	11.5073	-1.13518	0
0.1867	81.3787	2.77625	-12.6757	-1.3164	-2.47907	-6.00662	4.92179	5.69667	-2.04333	0
0.1873	78.0443	4.62708	-11.4467	1.13024	-1.56237	-3.56643	7.36503	3.87374	-0.522185	0
0.1880	76.1955	6.7501	-13.5914	0.212751	-2.47907	-3.26141	7.97142	0.835512	0.385963	0.310828
0.1887	32.2543	7.07672	-16.3387	-1.91476	-4.61538	-5.39657	5.83433	-2.84834	-1.13518	0
0.1893	-12.9083	5.5525	-13.5914	0.212751	-4.00159	-5.09155	5.83433	-3.7598	-2.97418	0
0.1900	-0.99041	-0.598799	-6.86802	2.35356	-3.69868	-4.4815	6.75275	-6.79803	-3.56448	0
0.1907	24.9253	-7.29446	-2.31344	2.04773	-5.53208	-4.4815	5.53407	-12.9125	-3.88233	0
0.1913	18.5207	-9.09086	1.34951	3.27105	-6.1379	-3.56643	4.92179	-15.343	-2.65633	0
0.1920	-4.65492	-7.89326	2.57852	3.88271	-5.2212	-5.09155	5.22793	-15.0392	0.0908148	0
0.1927	-32.4524	-6.36905	-0.481966	0.824411	-6.1379	-7.86022	3.09084	-15.343	0.998963	0
0.1933	-55.628	-5.17145	-2.31344	-0.0930786	-6.44081	-8.16525	2.17242	-13.8239	1.61196	0
0.1940	-61.1413	-4.24603	-2.00016	0.212751	-5.53208	-8.47027	1.87217	-13.2163	2.83796	0
0.1947	-52.8879	-3.91941	-4.14491	0.824411	-4.61538	-9.69037	0.341464	-14.1277	2.83796	-0.621656
0.1953	-41.5972	-2.12302	-3.51835	3.27105	-2.16819	-7.53174	1.56603	-9.83625	4.06396	-0.310828
0.1960	-30.9008	-0.272181	-1.08442	2.35356	0.573933	-5.39657	5.22793	-3.7598	5.88026	0
0.1967	-26.0148	-0.870981	-1.08442	-0.704738	1.18772	-6.00662	4.30951	-2.84834	5.26726	0
0.1973	-30.9008	-1.7964	-1.3977	-1.01057	0.271024	-6.00662	2.17242	-2.84834	4.06396	0
0.1980	-40.3757	-2.72181	-1.3977	-0.704738	0.573933	-5.39657	1.87217	-0.987423	2.52011	0
0.1987	-42.8187	-2.72181	-1.08442	0.518581	2.10442	-3.87145	3.70312	2.35462	3.13311	0
0.1993	-30.0094	-1.7964	-0.481966	0.824411	1.79354	-4.17648	5.83433	4.7852	4.65426	0
0.2000	-10.4653	-1.46978	0.43377	-0.398908	1.49063	-5.39657	6.44661	6.60814	5.88026	0
0.2007	1.4526	-2.3952	0.747048	-1.01057	2.71024	-4.4815	4.61565	8.77287	5.88026	0
0.2013	4.48986	-2.12302	-1.08442	-1.91476	3.62694	-3.56643	0.953745	9.38052	4.65426	0
0.2020	6.00848	0.326618	-2.9159	-2.83225	4.24073	-5.09155	-0.264929	9.07669	4.35911	0
0.2027	14.2619	4.89927	-6.26556	-1.62223	5.76325	-5.09155	-0.877209	9.68434	5.88026	0
0.2033	25.5526	11.6494	-10.8442	-0.398908	8.20247	-3.56643	-1.78974	10.5958	7.40141	0
0.2040	26.1468	15.6232	-13.2782	-0.398908	8.20247	-3.26141	-1.78974	10.292	7.40141	0
0.2047	9.673	13.4458	-11.1575	-0.0930786	6.06616	-2.65136	-0.571069	9.98816	6.19811	0
0.2053	-5.28218	8.60093	-7.78375	-0.398908	3.32403	-3.26141	-0.264929	7.8614	4.06396	0.310828
0.2060	-0.693287	4.02829	-4.14491	-2.22059	0.573933	-4.78652	-0.571069	3.56991	3.45096	0.310828
0.2067	8.15437	0.326618	-2.60262	-4.97306	-1.56237	-4.78652	-1.18335	-1.63305	2.83796	0
0.2073	11.8189	-0.272181	-4.14491	-8.93555	-3.39577	-6.00662	-3.32044	-6.4942	1.61196	-0.310828
0.2080	14.2619	2.50407	-4.43409	-9.24138	-3.39577	-5.39657	-2.70816	-7.70949	1.61196	-0.310828
0.2087	13.6346	5.82468	-2.31344	-6.19638	-2.16819	-2.04131	2.7847	-4.67127	3.13311	0
0.2093	5.41424	5.82468	-1.68688	-5.89055	-3.69868	-1.73629	4.61565	-3.15216	2.83796	0.310828
0.2100	-1.32055	2.77625	-1.3977	-7.72553	-6.1379	-3.87145	2.47856	-3.7598	0.385963	0.310828
0.2107	-0.99041	0.326618	-0.168688	-8.01806	-6.75169	-4.4815	0.341464	-4.06362	-1.13518	0
0.2113	-2.21191	-0.870981	0.43377	-7.4197	-6.75169	-4.17648	-2.09588	-2.84834	-2.04333	0
0.2120	-3.76356	0.326618	1.06033	-6.19638	-6.44081	-3.87145	-2.70816	-0.379778	-2.36118	0.310828
0.2127	-1.32055	3.10287	3.49425	-3.44391	-4.61538	-2.04131	1.25988	2.65845	-1.13518	0
0.2133	-2.21191	2.77625	5.32573	-1.91476	-4.3045	-1.43126	2.17242	4.7852	-0.227037	0
0.2140	-5.57931	0.326618	4.09671	-3.44391	-5.83499	-2.34634	-1.18335	4.7852	-0.840037	0
0.2147	-3.43342	-0.598799	3.49425	-4.3614	-4.91829	-2.65136	-1.78974	4.17756	-1.74818	0
0.2153	-2.54205	0.326618	3.18098	-3.44391	-2.47907	-2.65136	-0.877209	4.7852	-1.43033	0
0.2160	-5.87643	3.70167	0.14459	-2.83225	-1.56237	-2.95638	-2.09588	8.16523	0.0908148	0
0.2167	-7.42807	7.9477	-3.22917	-1.91476	-0.645675	-3.26141	-3.92684	13.3302	1.61196	0
0.2173	-4.98506	11.0506	-6.26556	-0.704738	0.876843	-2.65136	-4.23298	14.8493	1.90711	0
0.2180	2.34397	12.2482	-8.69949	-1.01057	2.10442	-2.04131	-3.0143	13.9379	1.90711	0
0.2187	11.1916	11.9215	-9.01277	-0.398908	3.32403	-2.65136	-1.48949	14.8493	3.13311	0
0.2193	17.002	10.3973	-8.41031	2.65939	3.62694	-2.95638	-3.62658	14.5455	3.13311	0
0.2200	19.1479	7.07672	-8.69949	2.96522	2.10442	-3.26141	-7.89489	9.68434	1.31681	0
0.2207	18.8178	3.70167	-7.49457	1.7419	1.18772	-3.87145	-7.89489	4.17756	1.61196	-0.310828
0.2213	19.7422	2.77625	-3.83163	5.39856	1.18772	-3.26141	-3.62658	2.0508	3.45096	0
0.2220	18.2235	2.77625	-1.3977	9.68018	1.18772	-3.26141	-2.40202	-1.29125	4.06396	0
0.2227	5.0841	0.979853	-2.31344	7.23354	-1.25946	-6.00662	-4.84526	-6.4942	4.35911	0
0.2233	3.8626	0.326618	-2.9159	2.96522	-4.00159	-7.53174	-5.45754	-5.88656	4.97211	0
0.2240	31.0328	0.979853	-3.51835	1.13024	-5.2212	-6.92169	-4.84526	-2.54451	3.74611	0
0.2247	46.6153	1.25203	-4.43409	-0.704738	-5.2212	-7.22671	-4.23298	-3.45598	2.83796	0
0.2253	40.8049	3.10287	-3.83163	-1.01057	-4.00159	-6.92169	-1.48949	-1.93687	4.65426	0
0.2260	69.1966	5.22588	-2.60262	1.13024	-3.08489	-6.00662	1.56603	2.65845	6.49326	-0.310828
0.2267	101.847	5.22588	-2.60262	2.65939	-3.08489	-5.7016	3.70312	4.17756	5.88026	-0.621656
0.2273	60.9432	4.02829	-3.51835	-1.3164	-4.3045	-7.53174	2.47856	5.08903	5.88026	-0.310828
0.2280	-3.1363	3.37505	-4.43409	-6.80804	-6.1379	-11.2155	-0.877209	6.00049	6.19811	0
0.2287	-31.528	4.02829	-5.34982	-5.89055	-5.2212	-9.69037	-0.264929	6.91196	4.65426	0
0.2293	-50.4449	5.82468	-4.43409	-3.74974	-2.47907	-6.31164	2.17242	9.38052	4.97211	-0.310828
0.2300	-86.4628	5.82468	-2.31344	-3.13808	-0.948584	-4.4815	4.92179	12.1149	6.19811	0
0.2307	-174.939	5.5525	-2.31344	-2.52642	-2.16819	-3.26141	4.00337	13.634	5.26726	0
0.2313	-260.115	6.1513	-4.14491	-2.52642	-4.00159	-3.56643	0.647604	13.634	3.45096	0.310828
0.2320	-223.172	6.1513	-4.14491	-1.62223	-4.3045	-3.87145	2.7847	12.7226	2.52011	0
0.2327	-127.037	5.22588	-4.74737	0.518581	-4.91829	-3.56643	6.44661	11.5073	0.0908148	-0.310828
0.2333	-71.5076	4.30047	-5.95228	1.13024	-5.2212	-4.17648	7.97142	10.5958	-2.04333	-0.310828
0.2340	-35.7868	2.77625	-4.14491	2.04773	-3.69868	-3.56643	10.7208	9.38052	-1.43033	0
0.2347	-10.4653	3.37505	-2.00016	4.48107	-1.25946	-0.821217	13.1581	9.68434	-0.227037	0
0.2353	2.34397	5.22588	-4.14491	3.88271	-0.0318852	-0.516194	12.5517	10.8996	-1.13518	-0.310828
0.2360	10.3003	5.5525	-5.95228	2.65939	0.271024	-1.12624	10.7208	11.8111	-2.36118	0
0.2367	6.93287	4.89927	-5.95228	1.7419	0.573933	-0.821217	8.88984	10.292	-3.56448	0
0.2373	1.12246	4.02829	-6.26556	0.824411	-0.0318852	-0.516194	8.27756	7.8614	-4.79048	-0.310828
0.2380	9.97012	3.10287	-5.03655	1.13024	-0.342766	0.0938534	8.88984	6.91196	-4.79048	-0.310828
0.2387	35.6217	1.57865	-2.00016	0.824411	0.271024	0.703901	10.1085	6.00049	-2.97418	0.310828
0.2393	44.7665	1.25203	-0.481966	-0.0930786	0.876843	1.00892	11.3272	3.87374	-2.36118	0
0.2400	20.6665	3.10287	-2.9159	-0.704738	1.18772	1.61897	10.7208	2.65845	-4.17748	0
0.2407	-4.3578	4.62708	-6.86802	-1.3164	2.10442	2.22902	9.19598	2.65845	-5.10833	0.310828
0.2413	-5.28218	5.22588	-9.32605	-1.62223	2.71024	2.53404	8.5837	2.0508	-5.10833	0
0.2420	15.4834	4.30047	-9.01277	-2.22059	2.71024	2.22902	7.97142	-0.987423	-6.01648	0
0.2427	29.8113	0.653235	-5.95228	-2.52642	2.40733	1.924	7.97142	-5.88656	-6.01648	0
0.2433	32.5515	-3.32061	0.14459	-1.01057	2.71024	3.44911	9.80237	-9.53243	-4.49533	0
0.2440	29.5142	-5.44363	3.18098	-1.01057	2.10442	4.36418	9.19598	-12.001	-4.17748	0
0.2447	26.1468	-5.77025	1.06033	-4.3614	1.79354	1.924	5.83433	-15.6469	-5.10833	0
0.2453	28.2927	-5.77025	0.747048	-5.27889	1.79354	0.398877	4.92179	-17.166	-4.79048	0.310828
0.2460	6.93287	-6.36905	2.57852	-2.52642	1.49063	1.00892	5.83433	-17.166	-4.79048	-0.310828
0.2467	-64.1785	-6.36905	2.57852	-1.01057	1.18772	1.61897	4.61565	-19.0269	-5.40348	-0.310828
0.2473	-138.03	-5.77025	2.8918	0.212751	1.18772	1.924	4.30951	-18.6851	-4.79048	0
0.2480	-159.39	-4.84483	4.72327	1.13024	1.49063	2.22902	5.22793	-13.2163	-3.88233	0
0.2487	-143.84	-5.77025	4.40999	-1.01057	-0.0318852	0.703901	4.00337	-8.01332	-3.88233	0
0.2493	-130.701	-5.44363	1.34951	-2.83225	-1.56237	-1.12624	3.09084	-4.67127	-4.49533	0
0.2500	-113.93	-2.12302	-0.481966	-1.62223	-1.25946	-0.821217	4.61565	-0.379778	-3.88233	0
0.2507	-70.8803	1.25203	-5.03655	-2.83225	-2.16819	-2.04131	2.47856	4.17756	-4.17748	0
0.2513	-8.31944	6.7501	-10.8442	-3.13808	-3.69868	-2.65136	0.647604	7.8614	-3.88233	0.310828
0.2520	74.974	13.4458	-11.4467	0.518581	-3.39577	-1.43126	3.39698	13.0264	-1.74818	0.310828
0.2527	162.559	16.8208	-11.76	1.13024	-2.47907	-1.73629	3.09084	17.0141	-2.36118	-0.310828
0.2533	205.906	16.4942	-14.1939	-1.3164	-2.78198	-2.65136	0.647604	17.0141	-4.49533	-0.310828
0.2540	205.609	10.7239	-11.4467	-1.62223	-3.39577	-2.04131	0.341464	14.5455	-6.01648	0
0.2547	196.134	0.979853	-4.14491	-1.3164	-4.61538	-1.43126	1.87217	9.68434	-6.31163	0.310828
0.2553	165.927	-5.77025	-0.481966	-1.3164	-4.91829	-1.43126	1.87217	4.17756	-6.92463	0.310828
0.2560	127.169	-6.36905	1.97606	0.824411	-2.78198	1.00892	3.09084	0.835512	-5.40348	0
0.2567	113.732	-4.84483	2.8918	2.04773	-0.645675	2.53404	4.30951	-2.84834	-4.17748	0
0.2573	95.1123	-4.84483	0.43377	-0.398908	-1.86528	-0.21117	1.25988	-8.31714	-5.10833	-0.310828
0.2580	19.7422	-5.77025	0.14459	-1.01057	-2.47907	-1.73629	0.647604	-14.1277	-5.72133	-0.310828
0.2587	-74.8419	-6.04243	1.66278	-0.0930786	-2.16819	-1.12624	3.39698	-19.6345	-6.01648	0
0.2593	-110.563	-6.36905	-0.771146	-0.0930786	-4.00159	-1.73629	4.00337	-21.7613	-8.76363	-0.310828
0.2600	-92.5703	-6.04243	0.43377	2.65939	-3.08489	0.398877	7.97142	-19.3307	-9.37663	-0.621656
0.2607	-66.9187	-6.04243	6.24146	5.39856	-1.56237	3.44911	11.9395	-16.8621	-6.92463	-0.621656
0.2613	-63.5513	-9.09086	7.1572	1.43607	-4.00159	0.703901	8.5837	-17.166	-6.92463	-0.310828
0.2620	-78.2093	-12.1937	7.1572	-2.52642	-5.83499	-1.73629	6.14047	-15.6469	-7.24248	-0.310828
0.2627	-84.3169	-12.1937	11.4226	-1.91476	-4.91829	-0.516194	9.19598	-9.53243	-5.10833	0
0.2633	-68.7674	-11.5405	11.1334	-3.74974	-5.53208	-2.34634	8.5837	-3.7598	-4.79048	0
0.2640	-32.7495	-10.9417	8.38621	-5.27889	-6.44081	-3.56643	7.36503	0.531689	-5.40348	0
0.2647	-4.65492	-7.56664	8.98867	-2.83225	-4.00159	-0.516194	11.6333	8.46905	-3.26933	0
0.2653	-7.72519	-2.994	5.639	-3.74974	-2.47907	-0.21117	14.3827	15.457	-2.04333	0
0.2660	-7.09794	0.979853	-1.3977	-5.89055	-2.16819	-1.12624	12.5517	19.4446	-3.88233	0
0.2667	33.773	8.87311	-7.49457	-4.3614	-0.342766	1.31395	13.4643	24.6476	-4.17748	0
0.2673	95.1123	18.0184	-16.3387	-5.27889	1.79354	1.924	14.6888	28.9011	-3.88233	0.310828
0.2680	130.833	23.2443	-23.3513	-6.19638	3.92985	2.53404	14.3827	30.724	-4.49533	0
0.2687	111.619	26.2927	-23.3513	-2.52642	7.28577	6.49935	18.3508	34.4079	-3.26933	0
0.2693	61.2403	25.9661	-21.5198	0.518581	9.42207	9.24456	22.6191	34.4079	-2.65633	0
0.2700	12.116	18.0184	-20.0016	0.212751	8.51334	8.93954	20.7881	25.5591	-5.10833	0
0.2707	-19.9402	6.1513	-14.5072	1.43607	6.98286	9.54959	18.9571	13.0264	-8.46848	0
0.2713	-25.7176	-1.1976	-7.1813	3.57688	6.67995	10.7697	18.6569	0.835512	-10.6026	-0.310828
0.2720	-41.3001	-2.994	-3.51835	4.7869	7.28577	10.7697	17.7385	-8.31714	-11.8059	0
0.2727	-61.1413	-1.1976	-0.771146	6.92771	8.81625	11.3797	18.9571	-10.4819	-10.6026	0.310828
0.2733	-46.7803	0.0544363	2.57852	8.76269	9.11916	12.5998	20.1817	-9.83625	-9.05878	-0.310828
0.2740	-25.1234	-1.7964	2.57852	5.70439	6.98286	11.0747	16.5198	-14.7354	-9.98963	-0.310828
0.2747	-10.1682	-5.17145	2.57852	2.65939	5.46034	8.93954	14.0766	-19.9383	-9.98963	0
0.2753	-1.61767	-7.29446	3.80753	2.35356	5.76325	8.63452	14.3827	-22.0651	-9.37663	0
0.2760	-10.7625	-8.81868	3.80753	0.824411	4.84655	7.1094	12.2456	-21.7613	-9.67177	0
0.2767	-18.0915	-9.74409	4.72327	0.518581	4.24073	6.80437	11.6333	-19.0269	-9.05878	0
0.2773	-19.313	-9.09086	6.55474	2.35356	4.84655	8.63452	13.7704	-14.1277	-7.53763	0
0.2780	-30.3065	-8.81868	5.639	1.7419	4.84655	7.41442	13.4643	-10.1781	-6.92463	0
0.2787	-35.7868	-8.81868	3.49425	-0.398908	3.32403	5.58428	11.6333	-7.40567	-7.53763	0.310828
0.2793	-24.199	-7.29446	3.49425	0.518581	3.32403	6.49935	11.9395	-4.97509	-7.53763	0
0.2800	-14.427	-6.69566	2.8918	-0.398908	2.40733	5.27926	11.0269	-4.97509	-7.53763	0
0.2807	-18.3886	-6.96784	2.57852	-1.91476	1.49063	4.36418	8.88984	-4.67127	-7.24248	-0.310828
0.2813	-8.64958	-4.84483	3.80753	0.518581	3.01315	6.49935	10.7208	-0.987423	-6.01648	-0.310828
0.2820	37.4375	-2.72181	3.49425	2.04773	3.62694	7.41442	12.5517	2.65845	-5.10833	0
0.2827	59.1275	-2.994	1.66278	0.518581	1.79354	5.8893	11.0269	2.35462	-6.01648	0
0.2833	13.3375	-3.32061	0.14459	-0.0930786	1.18772	4.66921	8.88984	0.227867	-6.62948	0.310828
0.2840	-19.6101	-3.91941	-0.771146	-0.704738	0.876843	3.44911	7.97142	-0.987423	-7.24248	0.310828
0.2847	4.48986	-4.84483	-0.771146	-1.62223	-0.0318852	2.53404	6.44661	-2.84834	-8.46848	-0.621656
0.2853	34.4002	-4.84483	0.747048	-0.398908	0.271024	3.14409	7.05889	-2.54451	-7.24248	-0.310828
0.2860	46.9124	-2.994	2.8918	2.04773	1.49063	4.97423	9.80237	1.13933	-4.49533	0
0.2867	42.0264	-1.46978	1.34951	1.7419	1.18772	4.97423	9.19598	1.44316	-4.17748	-0.310828
0.2873	21.2608	-2.12302	-3.22917	-1.3164	-0.645675	2.83907	4.61565	-1.93687	-6.62948	0
0.2880	2.97123	-2.994	-4.14491	-1.62223	-1.86528	2.22902	3.39698	-3.7598	-7.24248	0.310828
0.2887	-4.98506	-2.72181	-1.68688	-0.0930786	-1.86528	3.14409	4.30951	-3.15216	-6.92463	0
0.2893	-6.20657	-2.3952	0.14459	0.518581	-1.86528	2.53404	4.00337	-1.63305	-5.72133	0
0.2900	-2.54205	-2.3952	1.66278	2.04773	-0.342766	3.44911	4.92179	-0.0759556	-4.17748	0
0.2907	1.4526	-3.64723	2.8918	2.04773	-0.645675	4.05916	5.22793	-1.93687	-3.88233	-0.310828
0.2913	4.48986	-5.77025	2.26524	-1.01057	-2.47907	1.31395	2.47856	-5.27891	-4.79048	-0.310828
0.2920	8.74862	-5.77025	1.06033	-1.91476	-3.69868	0.0938534	0.953745	-5.88656	-5.40348	0.310828
0.2927	10.3003	-4.84483	1.34951	-1.3164	-3.39577	0.703901	1.25988	-4.36745	-4.79048	0
0.2933	5.0841	-4.84483	1.97606	-1.01057	-3.08489	0.0938534	1.56603	-4.36745	-4.17748	-0.310828
0.2940	-4.06068	-3.91941	2.8918	-0.0930786	-3.39577	0.703901	2.7847	-3.7598	-3.26933	0
0.2947	-10.4653	-2.3952	5.01245	1.43607	-2.47907	1.924	4.30951	-1.29125	-2.04333	0
0.2953	-12.2811	-2.12302	4.40999	0.212751	-3.08489	0.703901	3.09084	-0.379778	-2.65633	0
0.2960	-10.7625	-2.12302	1.06033	-1.3164	-4.91829	-1.43126	0.647604	-0.6836	-3.56448	0
0.2967	-7.09794	-1.7964	0.14459	-0.704738	-4.91829	-1.12624	0.0412112	-0.0759556	-3.56448	0
0.2973	-5.28218	-1.7964	0.14459	-1.01057	-4.91829	-1.43126	-0.877209	0.531689	-3.56448	-0.310828
0.2980	-5.57931	-2.3952	0.43377	-1.01057	-5.53208	-1.73629	-0.571069	1.74698	-2.97418	0
0.2987	-3.76356	-1.46978	2.8918	1.13024	-4.00159	-0.821217	1.87217	4.48138	-1.13518	0
0.2993	-3.76356	-0.870981	2.8918	1.7419	-3.69868	-0.821217	2.17242	6.00049	-0.840037	0
0.3000	-7.09794	-1.46978	0.14459	-0.704738	-5.83499	-2.34634	-0.571069	4.7852	-1.74818	0.310828
0.3007	-6.20657	0.326618	-2.31344	-1.01057	-5.53208	-2.04131	-1.78974	5.08903	-2.04333	0.310828
0.3013	-0.396164	3.37505	-4.14491	-0.0930786	-4.00159	-1.73629	-0.264929	6.30431	-1.43033	0
0.3020	6.63574	3.10287	-4.14491	-0.398908	-4.3045	-2.65136	0.953745	6.00049	-0.227037	0
0.3027	8.4515	0.979853	-1.68688	-0.0930786	-4.3045	-2.95638	1.56603	4.7852	2.22496	0
0.3033	-2.21191	0.326618	0.43377	1.13024	-3.69868	-2.04131	2.47856	4.7852	4.97211	0
0.3040	-15.9456	0.653235	-2.00016	-0.398908	-4.91829	-2.95638	0.953745	3.87374	5.88026	0
0.3047	-17.4972	0.653235	-4.43409	-2.22059	-5.2212	-3.87145	-0.877209	2.96227	5.58511	0
0.3053	-10.7625	2.50407	-2.9159	-1.01057	-4.00159	-2.34634	0.341464	3.87374	6.49326	-0.310828
0.3060	-5.57931	4.30047	-2.60262	0.518581	-3.39577	-2.04131	1.87217	4.7852	7.71926	0
0.3067	-0.99041	3.37505	-2.00016	1.43607	-4.3045	-2.04131	2.47856	4.48138	6.81111	0
0.3073	4.78698	0.979853	1.06033	2.65939	-4.3045	-0.821217	3.09084	3.87374	1.31681	0.310828
0.3080	9.673	-1.1976	1.06033	2.04773	-4.3045	-1.43126	1.56603	1.44316	-3.26933	0.310828
0.3087	14.559	-2.3952	-0.481966	0.824411	-4.61538	-3.26141	-0.877209	-0.987423	-5.72133	0
0.3093	17.2992	-2.12302	-0.168688	0.518581	-4.91829	-4.17648	-0.264929	0.227867	-7.53763	0.310828
0.3100	18.5207	-2.12302	0.43377	0.518581	-5.2212	-4.4815	0.647604	1.44316	-5.10833	0.310828
0.3107	23.4067	-1.1976	0.747048	0.518581	-5.2212	-3.56643	0.341464	2.65845	-1.13518	0.310828
0.3113	31.9572	0.653235	2.8918	2.35356	-3.69868	-2.34634	2.47856	5.69667	1.31681	0
0.3120	36.216	0.326618	2.8918	1.7419	-4.00159	-3.56643	2.17242	6.00049	1.31681	0
0.3127	35.6217	-1.1976	-0.771146	-1.3164	-6.44081	-6.31164	-1.18335	2.96227	-1.13518	0
0.3133	36.5461	-1.1976	-0.771146	-1.01057	-6.44081	-6.00662	-1.48949	2.65845	-0.522185	0
0.3140	38.0647	-1.46978	-0.168688	-0.704738	-6.1379	-6.31164	-1.48949	3.87374	0.385963	0
0.3147	33.773	-1.7964	-1.68688	-1.3164	-7.35751	-7.22671	-2.40202	2.96227	-0.522185	-0.932484
0.3153	24.3311	-0.272181	0.14459	0.824411	-6.1379	-5.39657	0.341464	2.96227	1.31681	-1.24331
0.3160	12.7433	0.326618	2.26524	1.7419	-4.61538	-4.78652	0.953745	2.35462	3.45096	0
0.3167	2.04685	-0.598799	0.43377	-0.0930786	-6.1379	-6.31164	-2.09588	-0.379778	2.22496	0.310828
0.3173	-3.1363	-0.272181	-1.08442	-0.0930786	-6.44081	-6.31164	-3.62658	-0.987423	2.83796	0
0.3180	-5.87643	0.653235	-0.771146	1.13024	-4.91829	-5.39657	-2.40202	-2.24069	6.19811	0.310828
0.3187	-11.6868	0.326618	0.14459	2.35356	-4.00159	-4.78652	-0.877209	-3.15216	6.19811	0.310828
0.3193	-19.6101	-0.272181	2.8918	3.88271	-4.3045	-4.17648	0.341464	-1.63305	4.97211	0
0.3200	-21.756	-1.1976	5.92818	4.48107	-4.61538	-4.17648	1.56603	-1.63305	4.97211	-0.310828
0.3207	-16.87	-3.32061	4.40999	1.7419	-5.2212	-6.31164	-0.571069	-4.06362	5.88026	0
0.3213	-12.6112	-3.32061	1.97606	-2.22059	-6.1379	-3.87145	-4.23298	-3.15216	16.5737	0
0.3220	-19.6101	0.0544363	1.06033	-2.83225	-4.91829	3.44911	-2.70816	0.835512	33.6469	-0.310828
0.3227	-36.7112	1.85083	0.43377	-2.83225	-3.69868	7.1094	-0.877209	3.26609	42.2062	-0.310828
0.3233	-47.0775	2.50407	1.34951	-2.52642	-2.78198	8.32949	-0.571069	5.69667	51.3558	0
0.3240	-45.2617	4.02829	1.66278	-1.62223	-1.56237	9.85461	1.25988	8.46905	63.5704	0
0.3247	-50.4449	5.22588	-1.3977	-1.91476	-2.47907	7.71944	0.0412112	9.38052	62.6395	0
0.3253	-56.5524	4.62708	-4.14491	-2.83225	-4.3045	3.14409	-3.32044	9.68434	44.6355	0
0.3260	-37.0083	3.70167	-3.51835	1.43607	-3.69868	1.31395	-2.40202	10.8996	10.1486	0
0.3267	-3.1363	3.70167	-3.51835	6.01022	-4.00159	-0.21117	-1.48949	8.46905	-27.3807	0
0.3273	20.0393	4.89927	-6.26556	6.01022	-4.61538	-2.95638	-2.70816	4.7852	-23.7254	0
0.3280	34.4002	7.67552	-6.86802	9.06852	-3.08489	-4.17648	-0.877209	5.39285	4.06396	0
0.3287	30.4386	7.9477	-5.95228	12.1135	-4.00159	-7.22671	0.647604	4.7852	14.7347	0
0.3293	10.3003	4.02829	-5.95228	6.92771	-5.2212	-11.8255	-1.78974	-0.6836	14.4396	0
0.3300	10.8945	1.57865	-4.14491	4.7869	-4.00159	-12.4356	-2.40202	-2.54451	-17.9132	0
0.3307	34.6973	2.50407	-3.51835	8.45686	-3.08489	-10.9105	-0.877209	0.531689	-50.879	0
0.3313	55.4629	1.85083	-1.3977	7.23354	-2.47907	-11.2155	0.341464	1.44316	-31.649	0
0.3320	63.0891	-1.1976	4.72327	1.43607	-2.47907	-11.5205	2.47856	-1.29125	4.65426	0
0.3327	66.1264	-2.994	7.1572	-4.3614	-3.08489	-10.9105	3.39698	-5.58274	25.1103	0
0.3333	60.6461	-3.64723	4.09671	-11.9938	-3.08489	-13.0456	1.25988	-9.22861	33.9647	0
0.3340	28.5898	-3.32061	2.26524	-15.0388	-1.56237	-13.0456	-0.877209	-9.53243	42.8192	0
0.3347	-8.31944	-1.46978	1.97606	-11.0764	0.876843	-9.38534	0.341464	-7.70949	66.6126	0
0.3353	-16.5729	-0.272181	1.34951	-4.66723	2.10442	-6.92169	1.25988	-7.10185	84.3215	-0.310828
0.3360	-6.20657	-0.272181	1.97606	4.48107	2.10442	-5.39657	1.56603	-6.19038	74.8541	-0.310828
0.3367	-2.54205	0.0544363	4.09671	12.1135	2.71024	-2.65136	3.39698	-3.7598	76.3752	0
0.3373	-18.0915	0.0544363	2.57852	10.5977	0.876843	-2.65136	2.17242	-4.36745	79.4402	0
0.3380	-30.3065	0.653235	-1.08442	10.2918	-2.16819	-1.43126	-1.18335	-5.27891	32.4436	0
0.3387	-15.3513	2.50407	-0.481966	20.3576	-2.47907	4.05916	0.953745	-2.54451	-26.4725	0
0.3393	7.22999	3.10287	-0.168688	25.5434	-3.39577	7.41442	2.47856	-1.93687	-45.3847	0.310828
0.3400	13.9648	3.37505	-2.60262	15.1718	-5.2212	7.41442	0.647604	-3.45598	-27.0855	0
0.3407	8.4515	3.70167	-2.00016	1.43607	-5.53208	7.1094	0.953745	-3.7598	-0.522185	0
0.3413	-5.57931	2.77625	-1.3977	-7.72553	-5.2212	5.27926	0.647604	-4.67127	0.703815	0.310828
0.3420	-15.9456	1.57865	-3.22917	-16.568	-5.2212	1.924	-2.40202	-5.88656	-7.53763	0
0.3427	-7.72519	2.17745	-2.60262	-22.0596	-2.78198	1.31395	-1.18335	-4.97509	9.55826	0
0.3433	4.78698	3.10287	-0.168688	-18.403	0.876843	2.22902	1.56603	-5.27891	22.9761	0
0.3440	6.63574	1.25203	1.06033	-9.85304	0.573933	1.00892	-0.264929	-7.10185	14.4396	0
0.3447	11.1916	-1.1976	1.34951	-2.83225	0.876843	-2.65136	-0.877209	-8.62096	32.7387	-0.621656
0.3453	17.002	-2.12302	1.34951	3.57688	3.32403	1.31395	2.17242	-9.22861	58.0761	-0.932484
0.3460	12.7433	-1.7964	-0.168688	8.15103	4.84655	17.1752	0.953745	-8.01332	73.9459	-0.310828
0.3467	6.30561	-1.7964	-1.3977	10.2918	4.54364	29.9862	0.953745	-6.79803	148.391	0
0.3473	5.41424	-1.7964	-0.771146	10.5977	3.62694	32.1213	8.5837	-6.19038	228.967	0
0.3480	5.0841	-1.1976	-0.481966	10.5977	2.71024	28.4611	15.9075	-4.67127	180.449	0
0.3487	0.231096	0.326618	-1.08442	15.7835	0.271024	22.6656	18.9571	-4.36745	89.2028	0
0.3493	-8.64958	1.25203	0.14459	25.5434	-4.61538	14.735	18.9571	-4.97509	65.0915	0
0.3500	-21.1618	0.979853	0.43377	27.9901	-9.79672	3.44911	15.9075	-5.27891	-9.67177	0
0.3507	-26.0148	1.25203	0.14459	17.6052	-12.5468	-5.7016	12.8579	-4.36745	-117.719	0
0.3513	-15.9456	2.77625	2.26524	7.53937	-10.7134	-9.69037	12.2456	-2.24069	-149.458	0
0.3520	-17.1671	3.70167	2.57852	-1.01057	-8.888	-16.7059	10.7208	-0.987423	-142.125	0
0.3527	-35.4897	3.10287	1.97606	-14.1347	-8.888	-23.1114	8.88984	-0.379778	-110.385	0.310828
0.3533	-39.4513	2.77625	4.09671	-19.3205	-5.2212	-20.0612	8.27756	0.835512	-50.879	0
0.3540	-33.3438	2.77625	5.01245	-12.9113	-1.25946	-16.7059	5.83433	1.74698	13.2136	0
0.3547	-31.8252	3.70167	3.49425	-0.704738	-0.645675	-17.621	3.70312	3.26609	41.8883	0
0.3553	-42.1914	5.5525	3.18098	12.1135	0.573933	-18.231	5.83433	6.91196	36.7119	0
0.3560	-87.9814	7.07672	2.57852	14.2543	2.40733	-17.926	5.83433	9.38052	53.4899	0.310828
0.3567	-113.303	7.9477	-0.481966	6.31605	4.54364	-17.316	1.87217	9.38052	110.862	0
0.3573	-73.3233	7.9477	-0.168688	4.48107	8.20247	-14.8758	1.56603	11.2035	176.181	0
0.3580	-62.957	7.3489	1.97606	15.7835	8.20247	-8.7753	2.7847	13.634	121.238	0.310828
0.3587	-80.9495	7.9477	-0.481966	25.5434	3.62694	-2.34634	0.341464	13.3302	-45.0895	0.310828
0.3593	-34.8954	10.3973	-3.51835	20.3576	0.271024	1.31395	-1.48949	14.8493	-122.895	0
0.3600	27.0712	13.1736	-3.83163	8.76269	-0.342766	7.71944	-2.09588	18.2293	-102.757	0
0.3607	73.1583	14.97	-5.6631	-4.97306	0.573933	15.6501	-7.89489	20.3561	-56.0554	0
0.3613	155.56	14.099	-7.1813	-21.7538	3.01315	19.3103	-14	20.0523	20.842	-0.310828
0.3620	245.258	11.6494	-5.6631	-27.8571	6.06616	19.0053	-12.1691	18.2293	79.4402	0
0.3627	270.613	9.47191	-6.86802	-22.3655	7.28577	16.2601	-8.20103	15.1531	47.3826	0.310828
0.3633	219.013	11.0506	-10.8442	-16.568	8.51334	15.04	-5.75779	10.292	-13.0319	0
0.3640	127.466	12.847	-11.4467	-8.62972	10.6497	13.8199	-4.23298	7.25376	31.2176	-0.310828
0.3647	54.2414	11.3227	-10.531	3.27105	10.6497	7.71944	-4.53912	6.30431	104.142	0
0.3653	48.431	8.87311	-9.9285	18.2168	9.42207	3.75414	-4.53912	3.26609	83.0955	0
0.3660	80.1572	7.9477	-7.78375	30.7292	8.20247	2.22902	-1.78974	0.531689	51.3558	-0.310828
0.3667	65.202	6.7501	-6.57884	36.8325	4.54364	-2.95638	-0.264929	-0.0759556	30.8997	0
0.3673	-3.1363	3.70167	-4.74737	45.9941	2.10442	-5.7016	0.0412112	-4.36745	-66.431	0
0.3680	-67.8431	0.653235	-0.168688	53.0149	2.10442	-4.78652	4.92179	-10.1781	-174.773	-0.310828
0.3687	-108.12	-0.272181	1.34951	46.3	-0.0318852	-6.31164	8.5837	-13.5201	-204.379	-0.310828
0.3693	-119.113	0.0544363	-0.168688	30.4234	-2.47907	-6.61667	6.75275	-19.0269	-168.666	0
0.3700	-104.752	0.326618	1.34951	8.76269	0.271024	-3.87145	6.14047	-24.7995	-106.412	0.310828
0.3707	-96.829	1.25203	3.18098	-12.9113	2.40733	-3.87145	6.75275	-28.4834	-22.1815	0
0.3713	-95.6075	1.57865	3.18098	-24.5063	1.49063	-7.22671	4.61565	-30.3063	85.8427	0
0.3720	-83.3925	1.85083	2.8918	-17.4855	1.79354	-10.6054	2.7847	-29.091	182.583	0
0.3727	-72.7291	1.85083	0.747048	0.212751	0.271024	-10.3004	1.87217	-26.0148	225.924	0.310828
0.3733	-62.0327	1.25203	-1.3977	6.31605	-5.2212	-6.92169	0.0412112	-23.888	200.882	0
0.3740	-40.3757	0.979853	-0.168688	-3.74974	-9.49381	-5.7016	1.56603	-22.6727	177.997	0
0.3747	-24.199	1.85083	2.57852	-8.01806	-9.79672	-3.87145	7.66528	-19.9383	118.808	-1.24331
0.3753	-22.9775	3.10287	3.49425	12.1135	-8.888	-3.56643	11.9395	-15.0392	-104.278	-1.24331
0.3760	-24.7933	3.37505	3.49425	23.4026	-9.19091	-7.86022	11.0269	-8.92478	-320.644	0
0.3767	-27.5664	2.50407	1.97606	1.43607	-10.1076	-11.2155	7.97142	-5.88656	-407.622	0
0.3773	-29.6793	3.37505	-0.168688	-22.6713	-6.75169	-7.53174	5.83433	-5.27891	-426.852	0
0.3780	-27.2363	5.22588	-0.771146	-47.3903	0.573933	-0.821217	3.39698	-4.06362	-341.713	0
0.3787	-29.085	6.1513	1.66278	-64.1711	7.89956	4.66921	2.17242	-1.29125	-225.448	-0.310828
0.3793	-40.3757	7.07672	5.32573	-50.4486	12.4751	6.19433	3.70312	1.74698	-139.673	-0.310828
0.3800	-51.0391	6.7501	5.639	-37.6304	12.4751	3.44911	2.7847	3.87374	-36.5303	0
0.3807	-50.742	6.42348	3.49425	-37.0187	11.2555	4.05916	-0.264929	4.7852	76.3752	0
0.3813	-40.3757	7.67552	1.06033	-30.6096	11.2555	6.49935	-0.264929	6.30431	190.212	0
0.3820	-26.642	9.79853	-3.83163	-23.5888	10.6497	6.19433	0.0412112	8.77287	282.684	0
0.3827	-11.6868	11.3227	-8.41031	-16.8738	10.0359	7.41442	-0.877209	11.5073	312.289	0.310828
0.3833	9.07875	12.847	-6.26556	-6.19638	10.3388	11.3797	4.00337	16.1026	265.588	0.310828
0.3840	38.0647	14.97	-5.6631	2.04773	13.6947	13.5149	9.49623	18.837	199.974	0.310828
0.3847	69.1966	14.97	-11.4467	10.5977	19.1949	11.6848	10.1085	15.457	149.935	0
0.3853	89.9292	14.099	-13.2782	17.6052	23.7704	10.1596	10.4147	12.4187	59.8924	0
0.3860	99.4041	13.1736	-11.76	4.48107	25.9067	9.24456	8.27756	12.1149	-34.101	-0.310828
0.3867	96.0367	12.847	-13.2782	-26.0354	23.7704	9.24456	3.09084	11.5073	-59.4156	-0.310828
0.3873	64.9048	14.6978	-13.2782	-39.1462	20.1036	13.8199	2.7847	12.1149	-87.2049	0
0.3880	10.8945	18.9438	-13.5914	-27.8571	18.884	15.6501	5.22793	13.9379	-134.497	0
0.3887	-20.5345	21.3935	-16.0254	-24.5063	17.0586	11.0747	4.00337	11.5073	-92.6765	0
0.3893	-28.7879	18.0184	-12.989	-32.1387	11.5584	4.66921	3.39698	4.7852	-15.7791	-0.310828
0.3900	-39.4513	11.3227	-7.1813	-36.407	3.92985	-4.78652	4.92179	-1.29125	-32.5571	-0.310828
0.3907	-29.085	5.5525	-4.14491	-39.7579	-2.78198	-12.4356	5.22793	-8.31714	-77.7375	0
0.3913	-11.984	3.70167	-1.08442	-33.9604	-4.3045	-11.2155	7.66528	-10.7857	-103.052	0
0.3920	-19.313	4.30047	2.26524	-29.0804	-3.69868	-6.00662	11.3272	-9.53243	-180.585	0
0.3927	-34.5653	4.02829	3.18098	-47.0845	-4.00159	-2.65136	12.2456	-12.3048	-226.038	0
0.3933	-44.9646	3.10287	2.57852	-67.841	-2.47907	-2.04131	11.9395	-13.5201	-121.669	0
0.3940	-50.742	2.17745	0.747048	-65.3944	3.92985	-3.26141	11.9395	-11.6972	48.9038	0.310828
0.3947	-49.5205	2.77625	-0.771146	-48.6136	14.3085	-2.95638	13.7704	-9.53243	174.342	0
0.3953	-44.9646	4.02829	-1.68688	-42.2045	22.8537	-2.65136	21.7065	-6.19038	218.591	0
0.3960	-39.1542	4.89927	-1.08442	-52.2703	26.8234	-0.821217	32.9984	-1.63305	196.932	-0.310828
0.3967	-29.6793	7.3489	-0.771146	-57.7619	25.9067	4.97423	39.4038	3.26609	182.878	0
0.3973	-16.5729	8.60093	-4.74737	-54.7169	32.6185	7.1094	35.1355	5.08903	209.737	-0.310828
0.3980	-3.76356	8.27431	-8.69949	-50.1428	49.0952	2.53404	28.1119	4.48138	245.132	-0.310828
0.3987	1.4526	9.19973	-8.41031	-37.0187	46.3531	0.0938534	30.8613	5.39285	247.879	0
0.3993	2.64109	10.7239	-7.49457	-38.242	25.2929	8.02447	37.2726	8.16523	179.223	0
0.4000	12.116	9.79853	-7.49457	-66.3119	14.3085	19.0053	36.9664	8.77287	56.8501	0
0.4007	31.6601	5.82468	-4.74737	-89.8076	12.1722	21.1405	30.249	5.39285	-0.227037	0
0.4013	42.9508	2.77625	-3.51835	-94.395	3.92985	19.3103	17.4323	0.531689	96.5134	0
0.4020	35.3246	0.653235	-5.34982	-77.2952	-5.53208	18.3953	1.87217	-3.7598	282.071	0
0.4027	24.6282	0.653235	-4.14491	-55.0228	-9.49381	22.0556	-5.1514	-4.67127	463.95	0
0.4033	15.4834	1.25203	-1.68688	-65.7002	-14.986	30.2912	-6.06393	-4.06362	543.595	0
0.4040	4.48986	0.653235	-3.22917	-69.9685	-27.1981	29.6811	-6.98235	-4.97509	436.796	0
0.4047	-1.32055	0.326618	-3.22917	-36.7129	-39.0992	17.7852	-3.62658	-5.27891	264.975	-0.310828
0.4053	-2.21191	1.57865	0.14459	-17.7913	-48.2503	3.44911	0.953745	-2.54451	94.3793	0
0.4060	-4.06068	2.77625	1.06033	-20.238	-54.0534	-8.7753	0.0412112	-0.6836	-150.367	0
0.4067	-3.43342	3.10287	0.43377	-6.19638	-46.7277	-15.1808	-3.0143	-1.29125	-321.87	-0.310828
0.4073	1.12246	4.02829	1.66278	11.8077	-34.8266	-18.5361	-8.20103	-0.379778	-295.33	0
0.4080	2.34397	4.89927	4.09671	11.8077	-32.0765	-21.8913	-12.7814	2.0508	-220.249	0
0.4087	-6.20657	4.62708	5.01245	19.746	-31.4707	-18.231	-11.2507	2.35462	-186.988	-0.932484
0.4093	-18.3886	3.70167	6.24146	28.2959	-22.6146	-12.1306	-6.06393	2.65845	-136.336	-0.621656
0.4100	-31.528	3.37505	9.30195	27.6842	-14.986	-11.2155	-5.1514	6.60814	-69.7912	0
0.4107	-36.1169	4.30047	9.9044	45.6883	-19.5695	-6.00662	-9.72584	11.8111	-4.49533	0
0.4113	-17.1671	5.82468	9.9044	66.7374	-27.501	8.93954	-13.0816	16.1026	95.6053	0
0.4120	7.52711	5.22588	10.8201	81.0848	-27.501	19.9204	-13.3877	19.1408	137.108	0
0.4127	33.1787	0.326618	9.30195	114.354	-24.1451	22.3606	-15.5248	19.1408	16.2558	0
0.4133	64.3106	-1.46978	6.24146	154.324	-22.3117	21.7505	-16.1371	18.837	-80.4846	0
0.4140	67.645	5.5525	0.747048	148.221	-20.4783	15.6501	-10.6443	24.3438	-44.1587	0
0.4147	29.5142	18.6716	-11.1575	113.742	-17.4332	10.7697	-3.62658	33.1926	-0.522185	-0.310828
0.4153	12.4131	29.3412	-24.267	100.006	-13.4635	9.85461	3.09084	40.1805	-9.98963	-0.310828
0.4160	12.4131	34.5126	-32.5086	104.58	-7.35751	4.36418	6.44661	42.9529	-147.619	0
0.4167	-45.2617	34.5126	-35.2558	114.048	-3.69868	0.398877	4.92179	42.3452	-331.338	0
0.4173	-120.038	29.3412	-32.8219	106.11	-5.53208	-2.04131	2.17242	38.6614	-338.966	0
0.4180	-138.624	21.3935	-25.496	63.0807	-9.19091	-8.16525	-0.264929	28.9011	-198.589	-0.310828
0.4187	-111.19	11.9215	-11.76	18.8285	-10.1076	-8.47027	0.953745	13.9379	-70.109	-0.310828
0.4193	-66.3244	4.02829	0.14459	1.43607	-7.0546	-9.08032	0.341464	-1.29125	33.6469	0
0.4200	10.3003	-2.12302	5.01245	-6.80804	-7.0546	-14.2657	-8.81331	-14.4316	129.479	-0.310828
0.4207	82.0059	-6.04243	8.38621	-12.2997	-9.49381	-12.7406	-15.5248	-19.9383	92.8581	-0.310828
0.4213	55.4629	-8.21988	11.7359	-13.8288	-7.0546	-5.7016	-19.1867	-22.0651	-53.3083	0.310828
0.4220	2.04685	-9.09086	10.8201	-19.9321	-4.61538	1.00892	-27.429	-28.7872	-204.084	0
0.4227	34.9945	-4.24603	7.75966	-32.7371	-2.78198	8.02447	-27.1228	-31.5216	-313.947	-0.310828
0.4233	75.8984	3.10287	6.55474	-60.2086	1.18772	15.9551	-20.7116	-26.3186	-259.004	0
0.4240	67.9751	3.37505	3.80753	-91.3367	2.40733	26.0209	-22.8487	-23.5842	-105.799	0
0.4247	60.349	0.326618	3.49425	-102.32	1.18772	35.4766	-25.9042	-22.9766	7.40141	0
0.4253	58.2031	-1.46978	5.92818	-103.238	0.573933	38.2218	-22.5425	-21.4575	116.061	0.310828
0.4260	38.3619	-3.32061	5.32573	-105.99	1.18772	35.7816	-18.2742	-21.1536	216.752	0.310828
0.4267	15.4834	-3.91941	5.32573	-110.564	3.32403	33.3414	-10.9504	-19.9383	283.297	0
0.4273	15.4834	-3.32061	6.84392	-106.296	2.71024	28.7661	2.17242	-17.4698	301.914	0
0.4280	31.6601	-1.7964	4.09671	-76.6835	-1.56237	19.3103	14.6888	-15.0392	188.986	0.310828
0.4287	30.4386	-1.1976	1.06033	-34.8779	-2.47907	6.19433	22.0127	-12.9125	37.9379	0
0.4293	21.8881	-0.272181	1.34951	-11.3822	1.18772	-6.31164	23.2313	-9.22861	33.3517	-0.310828
0.4300	33.773	1.25203	0.43377	-21.448	3.01315	-13.9607	19.5694	-4.67127	113.609	0
0.4307	16.0776	0.653235	-0.481966	-47.0845	-1.86528	-19.1461	13.1581	-3.45598	136.199	0.310828
0.4313	-39.4513	-0.272181	2.57852	-54.7169	-6.44081	-26.7717	7.05889	-3.15216	65.0915	0
0.4320	-52.8879	0.326618	5.32573	-35.1837	-4.91829	-29.5169	2.7847	-3.15216	-21.5912	0
0.4327	-16.2757	-0.870981	4.09671	-10.7705	-1.56237	-25.5516	-2.09588	-5.27891	-73.1513	0
0.4333	-0.099041	-3.32061	1.97606	4.7869	-2.16819	-23.1114	-7.89489	-6.4942	-98.1708	0
0.4340	-30.9008	-3.64723	2.8918	46.9116	-8.27421	-16.7059	-14.9126	-3.7598	-76.5115	0
0.4347	-57.1466	-3.32061	5.639	121.375	-16.8194	1.00892	-15.2187	-1.63305	-112.224	0
0.4353	-57.1466	-4.84483	8.98867	160.122	-25.6676	15.6501	-8.81331	-1.93687	-262.977	-0.621656
0.4360	-57.1466	-6.69566	13.8806	156.465	-30.2511	15.6501	-8.20103	-0.0759556	-336.514	-0.932484
0.4367	-59.2925	-9.41748	18.7485	140.908	-31.4707	9.54959	-12.7814	2.35462	-255.031	0.310828
0.4373	-75.1721	-14.9155	19.9775	90.2464	-29.3344	3.75414	-14.6123	-0.987423	-123.508	0
0.4380	-109.638	-18.2906	23.6404	17.911	-16.2056	1.924	-11.2507	-4.97509	10.7616	-0.932484
0.4387	-130.701	-17.3652	29.7373	-36.407	-0.342766	1.31395	-7.58875	-0.6836	156.951	-0.932484
0.4393	-107.823	-13.3913	28.5324	-66.9235	6.67995	-2.65136	-7.89489	7.25376	230.806	0
0.4400	-36.4141	-4.84483	17.8327	-68.4527	8.81625	-7.22671	-7.28849	15.457	166.418	0
0.4407	24.0339	7.07672	5.92818	-57.7619	9.42207	-8.47027	-2.70816	25.2552	143.215	0
0.4413	60.9432	12.847	-4.14491	-65.7002	9.73295	-10.9105	0.0412112	29.5088	259.798	0
0.4420	144.27	12.2482	-9.32605	-89.8076	11.5584	-19.4511	-0.264929	25.2552	373.612	0
0.4427	247.107	10.7239	-7.1813	-111.787	12.4751	-24.3315	2.17242	23.0905	413.298	-0.310828
0.4433	285.865	11.3227	-7.49457	-119.114	10.6497	-24.6365	5.22793	24.002	397.11	-0.310828
0.4440	273.947	11.0506	-12.989	-106.907	6.06616	-38.3626	5.53407	19.4446	281.458	0
0.4447	260.544	7.9477	-14.1939	-75.7793	2.71024	-50.8686	4.61565	10.292	59.8924	0.310828
0.4453	216.9	8.27431	-13.2782	-51.3528	2.40733	-41.7178	1.56603	3.26609	-91.7683	0
0.4460	137.238	10.7239	-14.8205	-60.8202	6.06616	-30.737	-3.92684	-0.6836	-68.5879	-0.310828
0.4467	71.3095	6.1513	-6.26556	-69.0643	11.8693	-23.7215	-6.98235	-6.4942	-22.4994	0
0.4473	-32.1223	-2.72181	10.2177	-52.882	10.0359	-11.8255	-7.28849	-15.0392	-88.1131	0.310828
0.4480	-207.623	-7.89326	17.8327	-48.6136	-0.0318852	-1.12624	-8.20103	-23.888	-186.67	0
0.4487	-333.966	-10.3429	21.2065	-39.1462	-1.56237	8.02447	-7.58875	-29.3948	-204.379	-0.310828
0.4493	-358.66	-11.5405	28.2191	20.9693	1.79354	15.04	-3.32044	-26.6224	-184.854	0
0.4500	-346.148	-11.8671	33.4003	94.5147	-1.25946	17.7852	-1.18335	-20.546	-187.896	0
0.4507	-312.276	-13.0647	33.7135	107.639	-4.61538	22.0556	-4.84526	-18.0774	-188.827	0
0.4513	-257.044	-10.3429	30.653	78.0398	-7.0546	21.1405	-9.11945	-12.6086	-177.225	0
0.4520	-227.761	-1.46978	21.809	71.3248	-12.5468	7.1094	-10.9504	-2.24069	-179.359	0
0.4527	-230.501	5.5525	9.30195	97.8655	-19.8724	20.8355	-13.6939	6.60814	-225.743	0
0.4533	-188.079	12.5748	-1.08442	140.602	-9.49381	74.5431	-13.6939	17.6217	-271.218	0
0.4540	-70.8803	20.468	-6.57884	183.631	19.1949	106.289	-7.58875	29.8126	-280.073	0
0.4547	42.0264	19.2704	-5.34982	226.354	36.2774	102.629	-0.264929	34.7117	-273.353	-0.310828
0.4553	138.756	10.1251	-0.481966	249.544	30.7851	94.0881	2.7847	31.9393	-290.744	0
0.4560	299.896	4.02829	0.43377	220.251	12.1722	84.9139	-0.877209	27.6858	-360.33	0.310828
0.4567	488.503	1.57865	-1.3977	179.655	1.49063	66.9175	-9.11945	22.179	-391.457	0
0.4573	534.59	2.50407	-3.51835	172.94	2.40733	40.3804	-15.2187	18.837	-385.35	-0.310828
0.4580	434.493	8.27431	-5.95228	174.775	-4.00159	18.0902	-14.3062	20.3561	-428.078	0.310828
0.4587	328.585	13.4458	-6.57884	170.813	-18.9557	-2.65136	-9.72584	22.179	-424.718	0
0.4593	246.48	14.6978	-7.1813	162.263	-28.4177	-22.8064	-9.11945	22.7867	-362.465	-0.932484
0.4600	205.906	10.1251	-8.41031	139.684	-28.4177	-29.8219	-14.9126	19.7485	-423.197	-0.310828
0.4607	205.609	-1.1976	-0.168688	118.928	-26.2814	-36.8375	-13.0816	9.38052	-531.221	0
0.4613	197.356	-12.4659	13.5673	99.0889	-19.8724	-55.4674	-3.0143	-0.987423	-486.676	0
0.4620	114.062	-17.0386	19.0618	67.9607	-15.2969	-66.7533	0.647604	-7.10185	-367.641	0
0.4627	0.231096	-11.8671	19.6642	50.2625	-15.5998	-70.4135	1.87217	-8.62096	-287.088	0.310828
0.4633	14.2619	-5.77025	16.917	59.1182	-14.986	-79.5642	4.30951	-11.6972	-237.64	0.310828
0.4640	34.1031	-4.51821	10.5069	75.2873	-14.0693	-74.3788	3.39698	-20.2422	-204.379	0
0.4647	-72.7291	-3.91941	6.84392	75.2873	-14.3802	-57.9076	3.09084	-27.8757	-165.01	-0.621656
0.4653	-176.161	-4.24603	6.24146	48.7333	-12.2439	-60.6528	2.47856	-30.9139	-108.251	-0.932484
0.4660	-211.882	-6.96784	6.24146	13.9485	-7.9713	-62.7879	-2.70816	-28.4834	-51.492	-0.621656
0.4667	-200.591	-5.17145	9.59113	-6.19638	-0.948584	-57.6025	-2.70816	-18.6851	2.83796	-0.310828
0.4673	-162.757	-1.1976	8.07293	-17.7913	0.271024	-53.3087	-0.264929	-13.2163	58.0761	0
0.4680	-125.221	0.326618	-0.771146	-27.5513	-6.1379	15.345	-6.37007	-11.3933	105.686	0
0.4687	-91.6459	0.326618	-3.22917	-30.3037	-3.39577	135.29	-8.20103	-3.7598	138.334	0
0.4693	-85.5384	0.0544363	-1.08442	-30.6096	0.876843	218.585	-4.23298	4.48138	180.744	0
0.4700	-134.993	-0.272181	-2.9159	-34.2662	-7.9713	253.381	-6.06393	7.55758	207.603	0
0.4707	-227.431	-2.994	1.66278	-29.3863	-14.986	249.11	-8.20103	6.60814	143.215	-0.310828
0.4713	-343.705	-7.29446	11.4226	-26.3413	-13.1606	213.094	-7.89489	3.56991	64.1834	-0.310828
0.4720	-420.33	-11.5405	13.5673	-37.6304	-14.986	163.352	-11.8629	-3.7598	80.0532	0
0.4727	-406.266	-12.4659	12.0492	-31.8329	-16.8194	111.474	-11.8629	-10.4819	133.747	0.310828
0.4733	-297.024	-7.56664	7.47048	-0.398908	-13.7664	55.9366	-12.4752	-10.7857	158.767	0
0.4740	-166.092	-1.46978	-2.60262	21.2751	-11.3272	0.398877	-17.9681	-2.84834	172.821	-0.310828
0.4747	-90.7215	1.25203	-5.03655	16.0893	-7.66042	-46.2932	-18.2742	10.8996	181.357	-0.310828
0.4753	-28.7879	0.0544363	-1.08442	2.65939	-2.47907	-82.3095	-10.9504	18.5332	168.234	-0.310828
0.4760	33.773	-2.12302	-3.51835	1.13024	-1.86528	-112.835	1.25988	16.1026	134.973	0
0.4767	70.7152	-2.3952	-7.1813	9.98601	-4.61538	-131.137	13.1581	13.9379	92.2451	0
0.4773	41.7293	-1.46978	-5.34982	13.9485	-5.53208	-135.712	14.3827	14.8493	78.8272	-0.310828
0.4780	-88.2785	-3.91941	-2.60262	6.92771	-7.35751	-142.118	8.88984	11.2035	118.491	-0.310828
0.4787	-176.491	-10.0163	3.49425	2.65939	-7.35751	-149.157	7.36503	6.60814	164.261	0
0.4793	-149.321	-17.3652	15.7121	5.70439	-3.69868	-151.902	11.3272	7.8614	185.625	0
0.4800	-181.971	-24.3875	26.3876	6.01022	0.271024	-145.473	15.6014	10.292	207.307	0
0.4807	-235.684	-29.2323	29.4481	18.5226	0.876843	-130.222	15.9075	10.8996	181.062	-0.310828
0.4813	-160.017	-27.7081	27.6167	56.0599	3.32403	-110.395	16.2137	11.2035	52.8769	-0.310828
0.4820	-82.5011	-20.7402	20.2908	80.1673	6.67995	-76.514	18.3508	9.98816	-74.0822	0
0.4827	-25.1234	-9.09086	5.639	71.6307	-5.83499	-47.5133	18.9571	9.68434	-105.504	0
0.4833	92.0751	4.30047	-7.1813	61.5516	-25.6676	-44.4631	17.4323	14.2417	-88.7261	0
0.4840	190.027	14.6978	-14.5072	56.3658	-32.9932	-53.3087	18.3508	23.6981	-68.883	0
0.4847	179.66	18.0184	-21.8331	46.3	-32.0765	-60.6528	23.2313	31.9393	-58.2123	0.310828
0.4853	69.7909	17.1474	-29.4722	34.705	-30.8569	-66.7533	26.281	32.547	-65.8407	0.310828
0.4860	-62.6599	16.8208	-31.3037	27.6842	-24.1451	-70.1085	24.1498	33.1926	-83.2318	0
0.4867	-111.19	11.9215	-27.0142	23.4026	-11.6301	-73.7688	20.4878	36.5346	-95.4236	0
0.4873	87.8163	-2.72181	-15.7362	20.3576	-0.948584	-76.514	20.1817	32.547	-101.531	0.310828
0.4880	402.436	-18.8894	0.43377	17.6052	4.24073	-65.5332	23.5375	24.9514	-107.343	0
0.4887	540.367	-25.3129	5.32573	9.98601	12.4751	-44.4631	20.4878	20.9637	-114.359	-0.310828
0.4893	560.209	-22.8632	-3.83163	-2.22059	13.0889	-25.8566	10.7208	10.8996	-110.385	-0.310828
0.4900	545.881	-17.964	-12.0733	-9.54721	4.84655	-10.9105	4.30951	-4.67127	-90.2472	0
0.4907	359.09	-7.29446	-22.7488	-11.3822	5.76325	3.75414	1.56603	-12.001	-67.657	0
0.4913	48.7282	6.7501	-33.7376	-8.01806	11.5584	22.0556	3.09084	-11.6972	-52.4001	0
0.4920	-43.7431	13.7724	-34.9666	-2.22059	46.0502	48.9211	6.75275	-11.6972	-38.6644	0
0.4927	55.4629	14.099	-31.9062	-2.22059	120.51	79.1184	7.66528	-11.6972	-14.5531	-0.310828
0.4933	-22.3833	11.0506	-30.388	-13.523	167.198	95.0031	-1.18335	-11.3933	12.8957	0
0.4940	-198.148	5.5525	-24.267	-31.2212	158.35	93.173	-13.3877	-10.1781	34.8729	0
0.4947	-141.397	-6.96784	-9.61522	-43.122	123.252	81.5586	-10.9504	-17.166	50.1298	-0.621656
0.4953	70.7152	-24.9863	8.07293	-44.6511	88.1625	77.2883	-0.571069	-35.1674	62.9574	-0.932484
0.4960	143.94	-37.5066	18.4593	-43.4278	64.9661	83.0837	6.75275	-44.9657	87.0687	-0.310828
0.4967	84.4489	-39.303	18.4593	-41.5929	45.4364	72.7129	12.2456	-44.0163	123.077	0
0.4973	66.4235	-36.2546	12.6516	-41.5929	16.4448	41.9056	7.66528	-46.4848	151.139	0
0.4980	87.8163	-32.6073	6.55474	-43.7337	-17.1223	4.36418	-0.877209	-50.4345	177.384	0.310828
0.4987	63.3862	-30.8109	6.24146	-44.3453	-40.3188	-29.8219	-0.877209	-51.346	216.752	0.310828
0.4993	3.8626	-32.934	11.1334	-41.287	-51.3033	-46.9033	3.70312	-52.2575	211.576	-0.310828
0.5000	-70.5832	-36.9078	16.917	-29.0804	-57.4093	-67.3633	7.05889	-50.7383	132.226	0
0.5007	-189.597	-38.432	21.2065	-16.2622	-36.3491	-92.9853	8.88984	-43.7124	82.8004	0
0.5013	-309.536	-37.18	23.3272	-9.24138	10.9526	-91.7652	15.9075	-34.256	91.95	0
0.5020	-362.028	-35.9824	21.809	-7.4197	19.4978	-89.02	26.281	-24.7995	96.2183	0
0.5027	-328.75	-34.7304	22.1222	-14.733	-6.75169	-109.175	36.3542	-13.8239	102.621	0
0.5033	-164.573	-30.8109	19.9775	-26.9396	-2.16819	-83.8346	48.2583	-4.36745	87.0687	0.310828
0.5040	-0.396164	-19.4882	6.84392	-30.9154	35.6716	24.1907	48.2583	7.55758	1.31681	0
0.5047	-1.61767	-0.272181	-9.32605	-25.7296	77.1781	136.205	32.3861	32.2432	-81.3928	-0.310828
0.5053	-88.5756	20.468	-24.8936	-20.8363	99.4499	187.472	23.5375	53.6247	-82.3009	0
0.5060	-191.116	34.2404	-39.5453	-22.6713	89.6851	188.082	26.281	58.182	-49.653	0.310828
0.5067	-275.961	33.315	-38.6296	-32.7371	60.0876	165.182	24.45	59.1314	-34.3961	0
0.5073	-319.011	18.9438	-21.2306	-44.3453	28.9597	131.606	14.0766	53.9285	-20.3652	0
0.5080	-270.184	1.85083	-2.31344	-45.2495	4.54364	98.0534	6.44661	41.4338	-3.88233	0
0.5087	-24.199	-10.3429	12.3383	-34.8779	-4.00159	68.4426	7.36503	37.7499	2.52011	0
0.5093	347.205	-11.5405	14.1698	-21.7538	2.40733	49.2261	9.80237	43.8644	1.31681	0
0.5100	576.385	-2.3952	1.34951	-15.0388	-7.66042	28.156	11.9395	55.4476	-0.522185	-0.310828
0.5107	577.904	2.50407	-5.03655	-15.9563	-39.0992	-6.31164	14.995	62.7773	0.998963	0
0.5113	387.184	4.62708	-4.74737	-17.1797	-64.424	-5.7016	12.8579	67.9803	1.90711	0.310828
0.5120	-30.6037	12.847	-14.8205	-18.7088	-84.5675	33.6465	-5.75779	75.9176	-4.17748	0
0.5127	-288.77	19.8692	-29.7614	-17.1797	-78.1586	103.544	-31.397	65.5117	-9.05878	0
0.5133	-35.1926	25.3673	-42.2684	-9.85304	-22.3117	225.295	-42.9892	33.4964	-4.49533	0.310828
0.5140	334.395	23.8431	-47.7628	-5.27889	28.3459	295.498	-36.5838	4.7852	2.83796	0
0.5147	401.512	13.1736	-41.0635	-5.27889	35.6716	290.617	-22.2423	-5.58274	7.10626	0
0.5153	222.083	9.19973	-30.9904	-0.0930786	28.9597	313.494	-10.032	-6.19038	9.55826	0
0.5160	30.7357	7.9477	-22.4355	3.27105	33.8382	322.363	0.0412112	-11.3933	10.4664	0.310828
0.5167	1.12246	-3.32061	-10.531	-4.3614	34.1411	264.667	8.88984	-32.7369	24.4973	0
0.5173	203.76	-25.3129	12.0492	-10.4647	20.1036	187.167	10.4147	-67.5245	58.0761	0
0.5180	481.471	-44.5289	32.1712	-9.54721	5.14946	110.864	3.39698	-84.3107	92.2451	0
0.5187	536.109	-48.1761	33.7135	-4.05557	-13.7664	29.0711	-1.48949	-80.0572	120.625	0
0.5193	427.164	-43.2768	29.7373	-1.62223	-31.1598	-71.3286	-0.264929	-87.9946	152.365	0
0.5200	318.219	-39.9562	26.0744	-17.7913	-37.5687	-185.454	-6.06393	-102.008	192.959	0
0.5207	167.742	-38.1054	19.375	-31.8329	-44.2885	-276.398	-17.3558	-103.831	222.247	0
0.5213	12.4131	-32.934	13.5673	-22.6713	-54.9701	-346.906	-17.0497	-102.92	220.43	0
0.5220	-143.51	-24.6596	8.98867	-9.24138	-58.6289	-395.733	-11.8629	-105.085	198.135	0.310828
0.5227	-365.989	-18.8894	3.49425	-0.0930786	-51.9171	-389.633	-10.9504	-100.185	125.211	0
0.5233	-528.053	-14.3167	0.14459	9.37435	-49.7808	-325.836	-10.032	-82.7916	-15.7791	-0.310828
0.5240	-491.111	-9.09086	-2.9159	8.76269	-48.8641	-223.301	-13.0816	-65.3978	-107.956	0
0.5247	-392.235	-6.69566	-3.83163	-4.97306	-26.5843	-131.747	-15.2187	-53.8145	-93.2895	0
0.5253	-325.713	-8.21988	2.26524	-20.238	-6.44081	-85.0547	-5.1514	-42.4972	-59.1204	0
0.5260	-260.709	-9.41748	7.75966	-31.5271	-10.7134	-48.1233	3.70312	-31.8254	-38.9823	0
0.5267	-232.944	-9.74409	6.55474	-36.407	-22.3117	4.97423	3.70312	-24.7995	-17.9132	0
0.5273	-195.705	-9.74409	6.84392	-32.7371	-18.039	50.1412	5.53407	-18.3813	-2.36118	-0.310828
0.5280	-94.0889	-10.3429	9.9044	-24.8121	-0.0318852	65.6974	10.4147	-13.5201	4.65426	-0.310828
0.5287	7.85725	-11.8671	8.07293	-19.9321	5.46034	46.7859	7.97142	-13.8239	6.19811	-0.310828
0.5293	54.8357	-11.5405	8.07293	-18.7088	1.18772	15.9551	-6.98235	-12.6086	8.94526	-0.621656
0.5300	42.0264	-10.3429	12.6516	-22.0596	4.24073	-6.92169	-24.6796	-6.19038	14.1217	-0.621656
0.5307	12.7433	-10.3429	12.3383	-27.5513	2.40733	-44.7681	-32.9218	-1.63305	13.2136	0
0.5313	-1.61767	-9.09086	10.5069	-30.9154	-10.7134	-91.1551	-32.9218	-0.987423	10.7616	0.310828
0.5320	-63.5513	-8.49206	13.5673	-43.122	-20.7891	-126.866	-31.6973	-1.93687	13.8266	0.310828
0.5327	-157.244	-9.74409	15.0855	-63.5727	-20.1754	-130.527	-34.1405	-0.0759556	16.2558	0.310828
0.5333	-151.137	-9.74409	12.9649	-72.721	-10.1076	-40.1927	-35.0589	6.00049	15.9607	0
0.5340	-72.432	-6.69566	9.30195	-67.841	0.271024	78.5084	-30.7848	13.9379	15.9607	0
0.5347	-31.2309	-2.72181	5.32573	-58.3736	5.14946	107.509	-28.0354	21.2676	15.3477	0
0.5353	3.8626	2.50407	1.66278	-45.2495	6.37704	78.2034	-25.598	30.1164	10.7616	0.310828
0.5360	64.3106	8.27431	-1.08442	-31.5271	11.5584	45.8709	-19.1867	39.5729	2.83796	0
0.5367	87.1891	10.3973	-2.9159	-20.5305	14.6114	45.5658	-14.3062	42.6491	-7.24248	0
0.5373	33.4758	7.3489	-0.771146	-10.1589	-14.6831	78.8134	-8.50717	44.1682	-15.4839	0.310828
0.5380	9.673	2.77625	5.32573	-3.74974	-83.3479	79.7285	2.17242	49.0293	-20.3652	0
0.5387	62.4618	0.0544363	7.1572	-2.52642	-141.028	35.4766	12.2456	54.2323	-23.4075	0
0.5393	78.3414	-2.12302	5.92818	-0.0930786	-149.573	-20.3662	19.8756	50.2826	-26.4725	0.310828
0.5400	72.531	-4.24603	7.75966	2.35356	-127.907	-75.2939	25.3684	37.7499	-28.6067	0
0.5407	133.276	-3.91941	7.1572	5.09273	-95.8628	-113.14	28.4181	38.0538	-28.9018	0
0.5413	233.076	-0.870981	3.18098	13.031	-54.6592	-132.662	31.4736	46.9026	-28.9018	0
0.5420	238.854	1.57865	2.57852	19.4401	-10.7134	-129.917	33.6107	33.8002	-27.6758	0.310828
0.5427	91.4478	1.25203	5.01245	21.2751	29.8685	-119.241	32.9984	6.00049	-28.9018	0.310828
0.5433	-64.1785	1.85083	5.92818	22.4984	44.5197	-138.762	29.3365	-11.0895	-31.3538	0
0.5440	-104.455	7.9477	1.06033	23.7085	28.3459	-118.631	28.1119	-14.1277	-27.3807	0
0.5447	-75.4692	13.7724	-3.83163	21.8868	22.5508	-25.2466	27.5055	-9.53243	-19.4344	0
0.5453	-35.4897	14.97	-5.95228	19.746	36.2774	27.851	18.9571	-8.62096	-13.9628	0
0.5460	25.2554	14.6978	-5.95228	15.7835	46.3531	6.49935	4.00337	-13.5201	-5.72133	0
0.5467	93.2966	11.0506	-2.31344	2.35356	50.3228	-31.9571	-24.3735	-12.001	5.88026	0
0.5473	101.22	4.62708	2.57852	-14.4272	76.8672	-41.4128	-56.4181	-6.79803	12.6006	0
0.5480	25.8497	1.25203	7.47048	-23.8946	121.73	-5.7016	-60.08	-5.58274	16.2558	0
0.5487	-28.1606	-1.46978	10.5069	-24.2004	127.222	30.9012	-44.2137	-6.79803	21.455	0
0.5493	-11.984	-2.994	10.5069	-17.7913	95.1773	19.9204	-31.0909	-6.19038	22.9761	0
0.5500	19.445	-1.7964	9.30195	-11.3822	71.6779	-18.8411	-10.9504	-0.6836	20.842	0
0.5507	52.3927	-1.1976	8.38621	-8.93555	58.5571	-50.2585	7.66528	2.96227	19.3208	0
0.5513	63.3862	-2.3952	8.38621	-7.11387	50.0119	-90.8501	5.53407	0.531689	18.39	-0.310828
0.5520	48.7282	-3.64723	10.2177	-1.91476	39.0275	-147.913	-2.09588	-4.67127	17.4818	0
0.5527	30.1085	-3.91941	9.30195	5.09273	25.5958	-177.829	2.47856	-9.53243	15.6428	0
0.5533	-2.21191	-4.51821	6.55474	7.8452	19.8007	-161.663	2.17242	-9.22861	14.4396	-0.310828
0.5540	-21.4589	-6.04243	7.1572	8.76269	13.3918	-106.125	-3.0143	-6.19038	15.0298	0
0.5547	-15.6485	-8.21988	9.59113	15.1718	14.0056	-43.243	11.9395	-5.88656	14.7347	-0.310828
0.5553	-12.6112	-9.09086	9.30195	11.8077	48.7923	-34.7023	29.6426	-6.4942	16.2558	-0.932484
0.5560	-20.5345	-8.49206	9.59113	-8.93555	88.4655	-61.8729	20.7881	-4.06362	25.1103	0
0.5567	-28.4578	-8.81868	11.1334	-22.9771	99.147	-71.9387	-11.5568	-1.63305	32.1257	0.310828
0.5573	-14.7241	-10.0163	11.1334	-22.9771	120.813	-64.3131	-41.4643	-0.0759556	34.2599	0
0.5580	20.6665	-10.6695	13.5673	-24.2004	132.411	-45.0731	-56.112	4.7852	38.233	0
0.5587	42.0264	-11.5405	15.3988	-29.6921	91.2156	-25.8566	-59.1675	8.46905	40.9802	0
0.5593	38.3619	-10.9417	14.1698	-30.6096	76.5643	-7.86022	-38.1086	10.292	38.5282	0
0.5600	12.4131	-10.0163	13.8806	-25.7296	116.54	16.8702	-0.571069	18.837	33.6469	0.310828
0.5607	-39.7484	-11.2683	10.5069	-22.9771	118.98	43.1257	21.7065	29.2049	28.1526	0
0.5613	-72.7291	-7.56664	2.8918	-19.3205	68.322	71.4929	31.1674	37.1423	23.8843	-0.310828
0.5620	-67.5459	0.979853	-1.3977	-11.0764	33.2323	99.8835	43.678	46.5988	22.9761	-0.621656
0.5627	-109.968	-0.272181	-1.08442	-4.3614	18.2782	146.271	59.5502	56.0552	22.068	-0.310828
0.5633	-283.29	-10.6695	-2.00016	-2.52642	-10.7134	218.28	69.0111	65.2079	16.2558	0.310828
0.5640	-459.088	-10.3429	-0.481966	-1.62223	-41.2355	266.802	79.0784	83.5132	14.7347	0
0.5647	-442.911	1.57865	0.747048	-2.52642	-66.5603	275.976	82.4341	101.249	19.003	-0.310828
0.5653	-320.232	6.7501	-2.60262	-4.66723	-95.249	263.447	60.4627	97.2611	19.616	-0.310828
0.5660	-255.229	9.19973	-4.43409	-1.3164	-101.355	234.774	28.7242	85.0703	19.9338	0
0.5667	-253.677	20.7947	-9.61522	4.48107	-76.0223	198.148	6.75275	72.5376	22.6583	-0.310828
0.5673	-188.673	28.0891	-19.0859	-0.704738	-52.5229	129.776	-11.8629	48.7255	22.068	0
0.5680	120.764	23.5165	-19.0859	-14.1347	-49.4699	21.1405	-25.2919	30.1164	23.8843	0
0.5687	459.187	16.4942	-7.49457	-16.568	-61.0681	-57.6025	-27.1228	22.7867	29.9916	0.310828
0.5693	524.818	11.0506	-3.51835	-12.2997	-61.6819	-74.6839	-37.1901	16.1026	27.8574	0.310828
0.5700	561.43	17.1474	-16.3387	-8.62972	-38.7963	-56.6875	-52.7562	26.7743	19.9338	0.310828
0.5707	714.316	32.7162	-30.6771	-2.52642	-11.933	-24.9415	-45.1262	44.472	16.5737	0
0.5713	763.771	38.4865	-37.4006	-0.704738	10.0359	-11.5205	-16.4433	32.547	15.3477	0
0.5720	512.9	35.438	-37.4006	-4.66723	33.5352	-29.8219	7.36503	19.7485	13.8266	0
0.5727	-47.7047	29.3412	-28.5565	-8.01806	40.2471	-43.853	14.3827	26.1667	15.9607	0
0.5733	-520.097	12.847	-17.2544	-8.32389	26.2096	16.8702	16.2137	22.4829	16.2558	0
0.5740	-538.123	-13.7179	-4.74737	-3.74974	17.6644	129.776	7.97142	12.7226	11.6924	0
0.5747	-227.431	-29.2323	8.67539	2.96522	27.7321	195.708	-7.28849	8.16523	10.7616	0
0.5753	174.477	-29.5589	14.4831	6.01022	31.096	192.658	-6.06393	-9.83625	12.2827	0
0.5760	410.69	-27.7081	10.8201	1.13024	6.98286	143.83	4.30951	-38.8513	11.9876	0
0.5767	310.89	-26.8371	6.55474	-4.3614	-27.1981	85.5239	14.995	-55.3337	11.0794	0
0.5773	128.093	-24.3875	7.1572	-6.50221	-51.6062	35.7816	25.6746	-64.1825	11.3746	0
0.5780	66.7536	-22.8632	8.98867	-11.9938	-56.4926	-17.0109	17.7385	-73.9428	13.2136	0
0.5787	67.0507	-25.3129	9.30195	-12.6055	-45.811	-54.2238	0.647604	-81.8801	11.3746	0
0.5793	36.5461	-28.9601	10.2177	-2.52642	-36.9629	-45.9882	0.0412112	-94.6787	7.71926	0
0.5800	-70.5832	-30.1577	8.98867	3.27105	-45.1973	-18.8411	-5.45754	-105.388	6.49326	0
0.5807	-149.618	-28.0347	5.92818	1.13024	-69.9242	-30.432	-23.1548	-95.2863	8.01441	0
0.5813	-140.77	-23.7887	4.40999	-3.44391	-82.1283	-104.295	-28.3415	-77.8925	9.24041	-0.310828
0.5820	-109.341	-19.4882	4.09671	-8.32389	-64.7349	-187.285	-34.7528	-70.6007	9.8534	0
0.5827	-95.9047	-15.841	5.32573	-9.24138	-46.4248	-212.625	-51.2314	-66.6131	11.3746	0
0.5833	-94.6832	-15.5143	3.80753	-4.3614	-46.114	-203.474	-45.7385	-63.271	10.1486	0
0.5840	-91.0186	-15.841	2.26524	3.27105	-51.3033	-178.134	-11.2507	-62.3595	5.58511	0.310828
0.5847	-80.3552	-13.9901	3.18098	7.53937	-55.8788	-138.762	12.8579	-58.6757	3.74611	0
0.5853	-65.9943	-12.4659	2.26524	7.8452	-39.0992	-119.546	10.7208	-52.8651	3.45096	-0.932484
0.5860	-55.9251	-10.6695	4.40999	7.8452	-4.00159	-119.546	10.4147	-44.0163	2.83796	-0.310828
0.5867	-49.5205	-7.56664	9.59113	3.27105	10.0359	-100.611	22.9252	-26.6224	2.83796	0
0.5873	-41.3001	-6.36905	9.9044	-5.27889	6.37704	-63.703	31.1674	-15.9507	3.74611	-0.310828
0.5880	-32.4524	-6.04243	8.38621	-8.32389	0.876843	-38.0576	30.249	-24.4957	3.45096	0
0.5887	-23.2746	-10.3429	5.92818	-1.62223	-3.69868	23.8857	26.281	-29.3948	1.31681	0
0.5893	-13.8327	-18.5628	-2.31344	7.53937	-3.39577	138.95	23.8436	-19.3307	0.385963	-0.310828
0.5900	-10.7625	-18.2906	-6.86802	6.62188	-3.08489	197.843	29.9429	-11.3933	-0.522185	0
0.5907	-10.4653	-14.3167	-2.9159	-3.44391	10.0359	189.302	39.1035	-9.22861	-0.227037	0
0.5913	-6.50369	-12.4659	0.43377	-8.62972	32.0048	172.503	39.4038	-6.4942	4.06396	-0.310828
0.5920	-3.1363	-8.21988	-2.00016	-5.27889	30.1793	145.05	33.3045	-2.84834	4.97211	0
0.5927	-1.91479	-8.49206	-4.43409	0.212751	16.1419	99.2735	15.9075	0.227867	1.90711	0
0.5933	0.825341	-12.4659	-0.481966	6.62188	12.1722	41.2955	-17.9681	1.13933	-0.522185	-0.310828
0.5940	4.19273	-10.6695	2.26524	14.2543	0.876843	-15.1808	-30.4786	-1.93687	-2.65633	-0.310828
0.5947	5.41424	-8.49206	1.66278	19.4401	-20.4783	-85.9697	-4.84526	-5.88656	-5.72133	0
0.5953	4.48986	-7.56664	3.18098	18.8285	-37.8796	-171.423	23.2313	-5.27891	-5.40348	0
0.5960	3.8626	-6.36905	4.09671	17.6052	-42.4551	-221.471	37.5728	-0.6836	-1.43033	0
0.5967	3.26835	-5.44363	1.66278	17.911	-30.2511	-211.71	41.5409	2.35462	-1.13518	0
0.5973	3.26835	-5.77025	0.14459	13.031	-17.7361	-192.165	22.9252	3.56991	-4.17748	-0.310828
0.5980	7.85725	-5.77025	1.97606	2.96522	-16.2056	-184.844	-9.4197	5.39285	-2.04333	-0.310828
0.5987	12.116	-5.77025	3.49425	-8.32389	-7.0546	-152.207	-18.5745	7.55758	0.385963	0
0.5993	13.0404	-5.77025	3.49425	-20.238	1.18772	-102.77	-1.18335	9.38052	-0.522185	0
0.6000	12.116	-2.994	0.14459	-25.4238	-3.39577	-68.5834	8.88984	11.8111	-1.74818	-0.310828
0.6007	11.8189	1.85083	-6.26556	-19.3205	-0.342766	-47.5133	3.39698	14.8493	-1.43033	-0.310828
0.6013	13.3375	5.5525	-6.57884	-9.54721	6.67995	-27.3817	0.341464	17.6217	0.0908148	0
0.6020	13.9648	7.3489	-2.00016	-1.01057	5.14946	-15.4858	10.7208	19.1408	-1.74818	0
0.6027	17.2992	7.3489	1.66278	5.09273	-4.00159	3.75414	25.0623	18.5332	-6.31163	0
0.6033	24.0339	2.17745	7.75966	7.23354	-18.342	3.14409	34.2171	13.634	-9.37663	0
0.6040	27.6654	-2.12302	9.9044	10.5977	-26.2814	-26.1616	45.8151	11.5073	-9.67177	-0.310828
0.6047	24.9253	-0.598799	2.57852	11.196	-31.7736	109.339	55.276	11.2035	-10.8978	0
0.6053	22.1852	-2.3952	4.40999	7.23354	-39.0992	392.847	50.3954	6.60814	-12.4189	0.310828
0.6060	23.4067	-8.81868	6.24146	9.06852	-39.4021	573.82	47.9522	15.457	-9.67177	0.310828
0.6067	20.6665	-7.89326	-10.8442	15.4776	-45.1973	639.728	54.0573	40.4843	-8.46848	0
0.6073	14.2619	3.37505	-13.9047	11.196	-37.8796	626.307	57.1069	56.3591	-9.05878	0
0.6080	16.7049	18.9438	10.8201	-2.22059	36.5883	528.958	72.9732	54.5361	-4.49533	-0.310828
0.6087	23.7038	35.438	19.9775	-9.24138	116.54	408.098	97.6941	50.5864	-0.227037	0
0.6093	19.1479	38.1598	7.47048	-5.27889	125.389	275.671	96.1692	48.1179	-3.88233	0.310828
0.6100	13.6346	17.4196	-1.68688	2.35356	102.503	84.3038	82.4341	35.6232	-6.92463	0
0.6107	15.1533	-16.4398	-6.57884	4.48107	76.2614	-132.357	72.3668	11.8111	-2.36118	0
0.6113	12.7433	-39.303	-20.9173	0.212751	44.2168	-293.198	56.1885	-7.70949	1.90711	0
0.6120	7.52711	-32.3352	-35.2558	-4.3614	18.5811	-402.749	39.4038	18.837	4.06396	0
0.6127	7.85725	-14.3167	-22.4355	-6.50221	-5.83499	-472.012	28.7242	44.7758	9.55826	0
0.6133	10.3003	-5.77025	-9.9285	-8.93555	-40.9246	-519.009	19.8756	-10.4819	12.6006	0
0.6140	6.93287	6.42348	-16.3387	-12.9113	-61.0681	-559.906	-1.18335	-70.9045	11.9876	0.310828
0.6147	6.30561	21.9923	-8.69949	-16.2622	-45.811	-514.739	-27.7351	-72.4237	14.1217	-0.310828
0.6153	10.3003	21.9923	7.75966	-16.8738	-14.3802	-388.107	-45.4324	-48.6116	13.5087	-0.621656
0.6160	8.15437	6.7501	9.9044	-17.7913	3.32403	-253.827	-66.4913	-4.97509	6.81111	0
0.6167	6.00848	-9.09086	11.7359	-18.0971	-13.7664	-121.071	-85.7134	22.7867	3.45096	0
0.6173	9.37588	-8.49206	20.2908	-14.733	-37.2658	-35.0073	-79.0018	-13.2163	4.97211	0
0.6180	5.71136	4.62708	16.917	-14.1347	-30.2511	-31.347	-60.08	-56.8528	3.13311	0
0.6187	-3.1363	7.3489	5.01245	-13.523	-11.3272	-67.9733	-53.6746	-54.726	0.0908148	0
0.6193	-3.43342	-2.72181	3.80753	-5.89055	-4.91829	-91.7652	-46.3508	-31.2178	0.703815	0
0.6200	-2.83917	-15.841	8.38621	-4.05557	0.271024	-101.221	-29.5661	0.227867	1.90711	0
0.6207	-5.28218	-22.2644	5.639	-8.62972	20.7174	-111.005	-25.598	23.3943	-0.840037	0
0.6213	-0.693287	-2.994	1.06033	-3.13808	45.4364	-104.295	-28.9538	20.0523	-3.56448	0
0.6220	4.19273	26.5649	2.26524	8.15103	76.8672	-73.7688	-21.3238	9.98816	-6.31163	0
0.6227	4.19273	39.7385	10.2177	15.4776	113.798	-35.6174	-2.09588	10.8996	-12.1238	0
0.6233	4.19273	39.4119	12.9649	20.3576	117.457	-6.92169	22.0127	17.0141	-17.3002	0
0.6240	4.19273	35.438	0.14459	20.9693	91.8214	20.2254	31.7738	28.5973	-17.3002	0
0.6247	3.26835	25.3673	-18.4834	16.3951	77.481	58.3768	18.3508	49.3332	-11.8059	-0.310828
0.6253	-0.693287	-0.598799	-24.267	7.53937	82.9732	89.5127	-4.84526	81.0826	-5.72133	0
0.6260	-5.87643	-14.9155	-20.0016	0.212751	81.7536	102.934	-16.1371	103.983	-2.65633	0
0.6267	-13.2055	-4.24603	-12.989	-1.3164	57.0346	116.66	-13.0816	90.8429	-1.74818	0
0.6273	-16.2757	-17.964	6.24146	-0.398908	36.5883	137.12	-13.3877	76.2214	-1.13518	0
0.6280	-10.4653	-50.0269	12.9649	-1.01057	36.2774	134.985	-19.4929	48.4217	-1.13518	0
0.6287	-3.76356	-41.4804	4.72327	-1.91476	20.7174	110.559	-15.2187	-54.4222	-1.43033	0
0.6293	1.4526	-1.46978	9.59113	-0.704738	-26.5843	135.9	1.56603	-159.089	-1.43033	-0.310828
0.6300	2.64109	8.60093	17.2303	6.01022	-59.8485	193.268	21.0942	-143.822	-3.88233	-0.310828
0.6307	-0.693287	-10.3429	20.2908	17.2993	-60.1514	186.557	33.6107	-57.4604	-9.67177	0
0.6313	-4.06068	-3.64723	31.8821	22.1926	-61.9848	121.54	29.3365	1.13933	-11.5108	0
0.6320	-2.83917	17.4196	49.281	18.2168	-59.8485	75.7632	16.2137	18.2293	-7.85548	0
0.6327	-3.76356	19.8692	57.2094	11.8077	-44.8943	89.5127	13.7704	14.8493	-6.01648	0
0.6333	-10.1682	24.1697	55.0646	2.35356	-40.0159	113.915	20.7881	17.9255	-6.01648	0
0.6340	-14.427	36.3634	37.0632	-9.54721	-44.8943	102.934	18.9571	7.8614	-3.26933	0.310828
0.6347	-19.0159	37.2889	-4.74737	-18.7088	-47.9474	83.9988	-0.877209	-12.6086	0.703815	0
0.6353	-23.2746	13.1736	-36.4848	-15.6505	-36.0462	64.4773	-23.1548	-10.4819	0.0908148	0
0.6360	-16.5729	-26.1839	-36.1716	-4.3614	-22.0088	26.9359	-32.3096	-4.36745	-2.04333	0
0.6367	-7.72519	-38.432	-45.0156	-2.52642	-16.2056	-24.3315	-34.7528	-13.2163	-1.13518	0
0.6373	-7.09794	-8.49206	-73.7167	-6.80804	-4.91829	-64.6181	-29.8663	-11.6972	-1.74818	0
0.6380	-12.6112	22.9177	-72.4877	-7.72553	2.40733	-79.5642	-18.5745	15.7988	-3.56448	0
0.6387	-15.9456	21.1213	-50.2209	-8.93555	-1.86528	-93.5953	-17.6619	38.9652	-0.840037	0
0.6393	-15.6485	2.50407	-44.7265	-11.688	-5.53208	-92.9853	-35.6653	39.5729	3.13311	0
0.6400	-15.6485	-6.04243	-23.3513	-12.2997	-3.08489	-64.008	-57.0304	44.472	4.06396	0
0.6407	-12.6112	-12.4659	18.7485	-10.1589	0.573933	-49.6485	-61.6048	49.0293	4.97211	0
0.6413	-8.9467	-24.6596	38.8947	-9.24138	0.573933	-64.008	-54.8933	44.472	7.40141	0
0.6420	-8.02232	-30.1577	48.3653	-11.3822	-1.25946	-83.8346	-48.482	39.8767	8.01441	0.310828
0.6427	-7.42807	-19.8148	69.4031	-10.4647	-0.342766	-89.63	-42.0766	19.7485	5.88026	0
0.6433	-15.6485	-7.89326	68.8007	-7.11387	0.271024	-92.6803	-33.5282	15.1531	4.35911	0
0.6440	-27.8635	-5.77025	42.2443	-6.19638	-3.69868	-99.3908	-24.9858	36.5346	4.35911	0
0.6447	-36.7112	4.30047	14.4831	-5.27889	-7.0546	-94.8154	-20.7116	53.6247	2.83796	-0.621656
0.6453	-43.413	12.847	-18.1701	-0.704738	-3.08489	-70.1085	-24.6796	68.5879	1.31681	-0.932484
0.6460	-33.6739	-8.49206	-30.388	2.96522	11.5584	-17.0109	-29.8663	35.0155	0.385963	-0.310828
0.6467	-14.1298	-32.6073	-26.0985	4.18854	25.5958	20.8355	-28.6477	-39.4589	-3.26933	0
0.6473	-7.09794	-11.2683	-39.5453	6.31605	27.4292	18.7003	-26.2044	-65.0939	-5.10833	0.310828
0.6480	-6.20657	34.2404	-57.5468	6.92771	24.3762	20.5304	-32.0034	-58.3719	-3.26933	0.310828
0.6487	-3.1363	41.5349	-63.0412	4.48107	19.8007	27.241	-36.8899	-63.271	-3.88233	0
0.6493	1.74972	15.8954	-48.0761	4.18854	11.8693	24.8008	-34.1405	-49.2192	-4.17748	0
0.6500	6.00848	-2.72181	-20.3149	4.18854	7.89956	23.8857	-35.3592	-33.0407	-2.65633	0.310828
0.6507	4.48986	-15.841	-8.09703	1.43607	6.98286	23.2757	-42.6889	-50.1307	-1.13518	0
0.6513	2.64109	-24.9863	-7.1813	-0.0930786	5.76325	19.3103	-47.5695	-57.1566	0.703815	0
0.6520	3.56547	-18.2906	1.66278	-0.0930786	4.24073	16.2601	-47.5695	-43.7124	3.13311	0
0.6527	2.64109	-8.49206	12.0492	-2.22059	0.876843	12.2948	-47.2633	-33.3445	3.13311	0
0.6533	0.825341	0.326618	11.7359	-2.52642	-1.25946	13.8199	-43.6014	-23.2804	2.83796	0
0.6540	-0.693287	14.6978	-0.168688	-1.91476	-1.25946	21.4455	-39.027	-13.2163	2.52011	0
0.6547	-3.43342	23.2443	-14.8205	-2.52642	-1.86528	21.7505	-35.3592	-3.15216	0.998963	-0.310828
0.6553	-5.28218	16.8208	-20.0016	-0.398908	-1.86528	15.6501	-24.6796	8.46905	-0.522185	-0.310828
0.6560	-1.91479	13.4458	-25.496	4.7869	-0.0318852	11.9898	-10.9504	7.25376	-0.227037	0
0.6567	1.4526	27.8169	-28.5565	5.09273	-1.25946	8.93954	-6.98235	5.39285	-1.74818	0
0.6573	0.528218	44.3111	-5.6631	1.7419	-4.00159	8.63452	-11.5568	24.6476	-4.17748	-0.310828
0.6580	4.19273	46.1075	12.9649	3.57688	-2.78198	15.6501	-11.8629	34.7117	-2.04333	0
0.6587	8.4515	33.315	6.84392	5.09273	-2.78198	19.3103	-11.2507	31.9393	0.385963	0
0.6593	7.22999	3.70167	6.24146	2.65939	-6.44081	17.1752	-15.2187	36.2308	-1.43033	0
0.6600	10.8945	-32.3352	17.8327	2.35356	-6.1379	16.5651	-14.3062	30.4202	-2.04333	0
0.6607	8.74862	-36.5812	30.653	5.09273	-1.56237	17.1752	-6.98235	16.1026	-0.840037	0
0.6613	-10.4653	-16.1131	27.6167	3.88271	-0.645675	15.04	-5.45754	-15.343	-2.04333	0
0.6620	-22.3833	-0.870981	19.375	2.35356	-2.16819	13.8199	-8.20103	-69.0436	-3.56448	0.310828
0.6627	-13.8327	17.7462	16.917	6.01022	-1.25946	14.735	-0.877209	-94.9825	-2.04333	0.310828
0.6633	-5.57931	25.9661	2.26524	7.23354	-3.39577	11.9898	8.27756	-78.1963	-3.26933	0
0.6640	-1.61767	5.22588	-18.4834	4.7869	-7.66042	7.71944	10.1085	-47.7001	-6.01648	0
0.6647	4.19273	-21.339	-20.3149	7.53937	-7.9713	10.4647	11.3272	8.46905	-5.10833	0
0.6653	-0.693287	-29.8855	2.26524	9.68018	-7.0546	11.3797	10.1085	73.1452	-3.56448	0
0.6660	-18.7187	-8.21988	10.8201	7.8452	-9.19091	5.27926	6.44661	84.1588	-6.01648	0
0.6667	-28.1606	17.1474	-14.8205	6.31605	-10.1076	2.22902	3.09084	56.9667	-6.92463	0
0.6673	-20.5345	15.6232	-18.4834	6.92771	-9.19091	5.58428	-0.264929	40.4843	-6.01648	0.310828
0.6680	-12.6112	11.0506	12.3383	5.70439	-7.66042	8.63452	-3.32044	31.9393	-6.31163	0
0.6687	-15.0542	13.1736	16.6278	3.57688	-2.16819	11.0747	-4.23298	21.5714	-6.92463	0
0.6693	-22.6804	7.07672	-16.9411	5.09273	4.54364	8.93954	-0.571069	9.07669	-4.49533	0
0.6700	-32.7495	1.57865	-38.6296	4.18854	4.84655	8.63452	2.7847	-4.97509	-4.49533	0
0.6707	-35.4897	5.82468	-19.6883	1.43607	2.71024	19.3103	-1.78974	-10.4819	-6.01648	0
0.6713	-23.2746	16.222	3.80753	4.48107	2.40733	28.7661	-14	5.39285	-5.72133	0
0.6720	-3.76356	28.4157	19.0618	9.06852	0.271024	25.1058	-24.6796	25.5591	-5.40348	0.310828
0.6727	10.5974	33.5872	48.9678	7.53937	-3.69868	12.2948	-29.8663	15.457	-5.40348	0
0.6733	15.7805	12.847	99.9357	3.27105	-5.83499	4.05916	-25.598	24.6476	-3.56448	-0.310828
0.6740	7.85725	-17.3652	134.42	1.13024	-5.83499	6.49935	-11.5568	105.502	-0.840037	-0.310828
0.6747	-7.42807	-6.69566	106.033	1.43607	-3.39577	0.703901	4.00337	173.559	-1.74818	-1.24331
0.6753	-14.427	11.6494	65.7643	3.88271	-1.56237	-4.78652	17.4323	168.659	-4.79048	-1.24331
0.6760	-17.1671	-6.69566	33.4003	4.48107	-1.25946	17.4802	23.8436	114.655	-4.49533	0.310828
0.6767	-15.6485	-12.4659	-8.09703	3.27105	-0.948584	32.1213	22.6191	30.724	-2.36118	0
0.6773	-8.02232	-13.9901	-35.2558	3.27105	-3.39577	15.9551	18.6569	-58.6757	-2.04333	-0.310828
0.6780	-5.28218	-56.396	-55.7153	2.65939	-6.44081	7.71944	13.1581	-139.872	-2.65633	0.310828
0.6787	-5.57931	-79.3137	-78.5846	1.13024	-7.66042	17.4802	7.66528	-179.825	-1.43033	0
0.6793	-0.099041	-64.9425	-80.4161	0.824411	-8.57712	21.1405	5.22793	-152.367	-0.227037	0
0.6800	6.63574	-57.3214	-62.1254	1.13024	-7.9713	12.9048	5.53407	-87.3869	-0.840037	0
0.6807	5.41424	-52.7488	-43.8107	0.212751	-7.35751	4.36418	8.27756	-10.7857	-2.36118	0
0.6813	4.78698	-13.9901	-27.9299	-0.398908	-6.75169	4.36418	10.4147	35.6232	-1.74818	0.310828
0.6820	5.71136	44.9099	-11.4467	-1.01057	-5.83499	8.63452	8.5837	14.2417	0.998963	0
0.6827	0.528218	59.5533	-0.481966	-2.22059	-4.61538	8.93954	3.39698	-47.0925	2.52011	0
0.6833	-3.43342	48.5572	-5.95228	-2.52642	-2.78198	7.1094	1.56603	-96.2357	0.998963	0
0.6840	-0.396164	36.0368	-16.6519	-1.3164	-0.948584	9.54959	3.70312	-113.022	0.0908148	0.310828
0.6847	-1.91479	7.07672	-26.0985	-0.398908	-0.0318852	12.2948	4.00337	-73.0313	0.0908148	0.310828
0.6853	-12.6112	4.89927	-27.6408	-1.01057	-0.342766	7.41442	2.47856	-8.01332	-0.522185	0
0.6860	-16.2757	25.6939	-16.6519	-1.01057	0.573933	1.31395	3.39698	-8.62096	0.385963	0
0.6867	-10.1682	25.0407	-9.32605	-0.398908	1.18772	1.00892	4.30951	-38.5475	0.0908148	0
0.6873	-9.54095	16.222	-1.3977	-1.01057	-0.342766	1.61897	3.09084	-15.6469	-2.04333	-0.310828
0.6880	-10.1682	5.5525	5.92818	0.212751	-0.645675	2.53404	4.61565	32.547	-2.04333	-0.310828
0.6887	-6.80081	-1.1976	-1.68688	2.65939	1.18772	4.97423	7.05889	44.1682	-1.43033	0
0.6893	-8.9467	9.19973	-12.6757	1.7419	1.49063	5.27926	5.83433	9.07669	-2.65633	0
0.6900	-15.3513	28.0891	-19.3991	0.518581	0.271024	4.05916	4.00337	-20.2422	-3.88233	0.310828
0.6907	-18.0915	39.0853	-27.0142	2.35356	0.271024	4.97423	4.30951	-19.9383	-3.88233	0
0.6913	-19.9402	22.3189	-20.6041	2.04773	-0.0318852	4.36418	4.61565	-7.10185	-4.17748	-0.310828
0.6920	-17.4972	-9.09086	0.747048	0.518581	-0.342766	3.44911	5.22793	30.1164	-3.88233	0
0.6927	-9.87108	-14.9155	6.84392	2.65939	0.876843	5.27926	7.97142	72.8414	-2.65633	0
0.6933	-12.9083	7.9477	-6.57884	2.96522	0.573933	5.8893	8.88984	83.817	-2.97418	0
0.6940	-22.6804	26.2927	-12.0733	1.13024	-1.25946	4.36418	7.97142	87.197	-4.17748	0.310828
0.6947	-17.1671	31.4642	5.639	2.65939	-0.342766	4.97423	9.49623	68.2841	-3.56448	0.310828
0.6953	-3.1363	35.7646	33.087	4.18854	1.49063	5.27926	11.9395	-7.40567	-2.36118	0
0.6960	-0.099041	31.4642	37.3765	2.65939	-0.645675	3.14409	9.19598	-63.8787	-3.88233	-0.310828
0.6967	-2.54205	20.7947	18.7485	1.7419	-2.16819	1.61897	6.75275	-62.3595	-5.72133	0
0.6973	3.26835	6.42348	12.3383	3.27105	-0.948584	3.14409	7.97142	-61.1063	-5.40348	0
0.6980	9.37588	-21.339	13.5673	4.18854	-0.342766	8.63452	8.27756	-59.891	-4.79048	0
0.6987	6.63574	-38.432	1.06033	3.57688	-0.645675	13.8199	7.36503	-33.9522	-5.10833	0
0.6993	8.4515	-27.4359	-11.76	4.18854	-0.645675	16.8702	7.66528	-1.29125	-4.17748	0.310828
0.7000	13.6346	-6.96784	-17.5677	4.18854	-0.342766	17.4802	7.97142	33.1926	-4.79048	0
0.7007	15.4834	-5.17145	-15.7362	2.96522	-0.948584	15.9551	7.05889	53.017	-5.40348	0
0.7013	16.3748	-20.087	3.18098	3.88271	-0.342766	16.5651	7.66528	19.7485	-4.49533	0.310828
0.7020	12.7433	-28.0347	7.1572	5.09273	1.18772	16.5651	8.88984	-31.5216	-3.88233	0.310828
0.7027	7.52711	-22.5366	-9.61522	4.48107	0.876843	12.2948	7.97142	-29.091	-4.79048	0
0.7033	6.00848	-12.7925	-4.14491	4.7869	0.271024	9.54959	7.97142	16.1026	-4.49533	0
0.7040	-0.693287	-16.7664	-4.74737	5.39856	1.18772	8.32949	10.4147	27.9896	-2.97418	0.310828
0.7047	-13.8327	-30.4843	-15.4229	2.96522	0.573933	3.14409	10.1085	-4.67127	-3.88233	-0.310828
0.7053	-15.3513	-51.5512	21.4957	2.04773	0.573933	-1.12624	10.7208	-8.92478	-4.49533	-1.24331
0.7060	-4.06068	-94.5558	61.4748	3.57688	1.79354	-2.04131	12.5517	27.0782	-3.56448	-0.621656
0.7067	2.04685	-145.508	47.4496	2.96522	1.18772	-6.61667	10.4147	83.2094	-3.26933	0
0.7073	-0.693287	-176.972	16.917	2.96522	1.49063	-10.9105	8.88984	137.252	-2.97418	0
0.7080	-6.80081	-178.497	9.30195	4.18854	2.40733	-10.6054	10.7208	112.528	-2.04333	0
0.7087	-14.1298	-135.764	8.07293	2.65939	0.573933	-11.2155	10.7208	45.6873	-2.97418	0
0.7093	-12.2811	-17.6374	2.8918	1.7419	-0.948584	-11.5205	8.88984	55.7514	-4.49533	-0.310828
0.7100	3.26835	113.554	15.3988	2.35356	-0.342766	-10.3004	7.97142	88.1085	-4.49533	-0.310828
0.7107	22.1852	130.048	45.6181	2.04773	-0.0318852	-7.53174	7.36503	38.3576	-4.17748	0
0.7113	25.2554	86.9892	54.1489	2.35356	-0.0318852	-4.78652	7.66528	-39.7628	-3.88233	0
0.7120	15.7805	92.2151	20.2908	3.57688	1.18772	-2.95638	8.5837	-65.7016	-2.97418	0.310828
0.7127	10.5974	94.0115	-8.41031	3.88271	2.40733	-2.65136	9.19598	-76.6772	-2.04333	0.310828
0.7133	10.8945	56.5049	8.98867	2.04773	1.18772	-2.65136	7.05889	-138.315	-2.97418	0.310828
0.7140	4.19273	34.5126	5.01245	1.7419	0.573933	-1.73629	5.83433	-211.27	-3.88233	0
0.7147	-11.3897	55.9061	-51.1366	2.35356	0.573933	-2.65136	6.14047	-212.79	-3.88233	0
0.7153	-17.1671	61.0775	-68.5356	2.65939	0.876843	-2.34634	6.14047	-145.949	-3.56448	0
0.7160	-15.3513	27.4903	-47.1604	3.57688	2.10442	0.398877	7.36503	-65.7016	-2.65633	0
0.7167	-14.1298	-3.64723	-49.3051	4.48107	2.71024	1.61897	8.88984	-6.4942	-1.43033	0
0.7173	-3.1363	-43.2768	-58.4625	2.65939	1.49063	0.0938534	6.14047	22.7867	-2.65633	0
0.7180	10.3003	-98.2031	-48.9919	2.35356	1.79354	0.0938534	4.30951	25.8629	-3.56448	0.310828
0.7187	8.4515	-133.913	-35.8824	3.88271	2.10442	0.703901	5.83433	46.5988	-2.65633	0
0.7193	4.48986	-122.972	-42.5817	2.65939	1.18772	-0.516194	4.61565	107.933	-2.65633	-0.310828
0.7200	14.8561	-72.618	-11.1575	2.04773	0.573933	-0.21117	3.09084	144.885	-3.26933	0
0.7207	19.445	-3.91941	73.9818	3.88271	1.49063	0.703901	5.22793	132.96	-2.36118	0
0.7213	-3.43342	96.1889	88.0311	3.57688	0.876843	0.0938534	5.53407	110.705	-2.04333	0
0.7220	-23.9019	143.167	43.7866	2.04773	1.18772	-0.21117	3.39698	73.1452	-2.65633	0
0.7227	-13.5026	59.8799	16.917	2.65939	3.01315	1.31395	4.61565	-8.01332	-1.74818	0
0.7233	-0.396164	-17.3652	-24.5803	1.7419	2.71024	1.31395	4.61565	-78.1963	-1.74818	0
0.7240	-2.83917	-7.56664	-63.6436	0.518581	1.79354	-0.21117	2.7847	-72.7275	-2.65633	0.310828
0.7247	-3.43342	20.7947	-63.0412	2.04773	2.10442	1.00892	4.30951	-51.0422	-1.74818	0.310828
0.7253	4.78698	34.8392	-41.0635	3.57688	1.49063	2.22902	6.75275	-48.9154	-0.522185	0
0.7260	14.2619	48.8838	-12.0733	1.43607	-0.342766	0.0938534	4.00337	-35.7751	-2.36118	0
0.7267	19.445	35.438	17.5436	-0.398908	-0.342766	-0.821217	2.17242	-32.1292	-3.26933	0.310828
0.7273	17.002	-36.2546	36.1475	0.824411	0.573933	0.0938534	3.39698	-45.5734	-2.65633	0.310828
0.7280	6.93287	-88.459	34.9184	0.824411	-0.342766	0.0938534	3.09084	-27.2301	-2.97418	0
0.7287	-2.21191	-86.6081	23.038	0.824411	-0.948584	0.0938534	3.39698	-4.97509	-2.97418	0
0.7293	-7.09794	-71.9648	29.1349	3.57688	0.573933	1.00892	7.05889	-20.8498	-1.74818	0
0.7300	-12.9083	-93.957	21.2065	2.96522	0.573933	0.703901	7.05889	-34.5598	-1.43033	0
0.7307	-12.9083	-167.174	-9.61522	-0.0930786	-0.645675	-0.516194	3.39698	-28.4834	-2.36118	0.310828
0.7313	-3.1363	-176.646	-12.3624	1.13024	-0.0318852	0.0938534	3.39698	-2.24069	-2.36118	0
0.7320	0.528218	-145.508	6.84392	1.7419	-0.342766	-0.821217	2.7847	30.4202	-2.36118	-0.310828
0.7327	-4.3578	-130.266	28.5324	-0.0930786	-2.16819	-2.95638	0.953745	40.4843	-3.56448	0
0.7333	-9.54095	-13.7179	42.2443	0.824411	-1.86528	-1.73629	1.87217	30.724	-2.65633	0.310828
0.7340	-16.2757	155.96	26.0744	2.04773	-1.25946	-0.21117	2.7847	11.5073	-2.04333	0
0.7347	-19.313	236.852	0.43377	-0.0930786	-2.78198	-2.34634	1.25988	0.227867	-3.88233	-0.932484
0.7353	-12.6112	230.157	-4.43409	0.518581	-1.86528	-2.34634	1.87217	5.69667	-3.26933	-0.621656
0.7360	-11.6868	182.851	-9.32605	2.65939	-0.0318852	-0.21117	3.70312	19.7485	-1.74818	0
0.7367	-28.4578	136.145	-33.7376	0.212751	-1.56237	-1.12624	0.953745	31.6355	-2.97418	0
0.7373	-34.8954	121.502	-25.8093	-0.704738	-1.86528	-1.43126	0.647604	13.9379	-3.26933	-0.310828
0.7380	-11.6868	105.008	24.2429	2.35356	0.271024	0.703901	4.61565	-4.36745	-1.43033	0
0.7387	11.5218	47.9584	28.5324	1.7419	-0.645675	-0.21117	4.30951	33.4964	-1.43033	0
0.7393	13.6346	10.1251	-11.4467	-0.398908	-2.16819	-2.34634	0.953745	57.2705	-2.97418	0
0.7400	10.3003	19.8692	-23.3513	0.518581	-0.645675	-1.12624	1.87217	15.7988	-2.65633	0
0.7407	8.15437	9.79853	-14.1939	0.518581	0.573933	-0.516194	1.87217	-21.7613	-2.04333	0
0.7413	4.19273	-39.0308	-5.03655	-0.398908	0.876843	-0.821217	-0.264929	-26.0148	-2.36118	0
0.7420	3.56547	-84.8117	7.75966	1.7419	1.49063	1.00892	2.17242	-13.2163	-1.43033	0
0.7427	4.48986	-111.05	22.7247	3.27105	1.79354	2.53404	4.92179	-4.06362	0.0908148	0
0.7433	1.74972	-107.675	33.4003	0.518581	0.876843	1.00892	2.47856	-8.92478	-1.13518	0
0.7440	2.04685	-77.4628	38.8947	-0.398908	1.18772	0.703901	0.953745	-17.166	-1.74818	0
0.7447	3.26835	-36.2546	39.4971	0.824411	2.40733	1.31395	2.7847	-24.4957	-1.43033	0
0.7453	-2.83917	29.3412	24.8695	-0.398908	1.18772	-0.21117	1.87217	-32.1292	-2.36118	0.310828
0.7460	-7.42807	67.501	5.32573	-0.398908	0.271024	-0.821217	1.56603	-38.5475	-2.04333	0.310828
0.7467	-4.65492	34.8392	-0.481966	2.35356	1.79354	1.00892	3.70312	-36.4207	-0.522185	0
0.7473	0.825341	32.7162	-15.7362	1.7419	0.876843	0.398877	2.47856	-32.7369	-1.13518	0
0.7480	4.48986	74.5233	-50.2209	-0.398908	-0.0318852	-1.43126	-0.264929	-27.8757	-2.36118	0.310828
0.7487	6.63574	48.5572	-59.065	0.824411	2.10442	0.398877	1.25988	-2.54451	-1.13518	0
0.7493	3.26835	-19.1616	-38.003	1.13024	1.18772	-0.21117	1.56603	17.6217	-1.74818	0
0.7500	-0.099041	-31.6819	-27.3275	-0.704738	-0.948584	-2.04131	-1.48949	3.56991	-3.26933	0
0.7507	8.15437	11.9215	-30.388	0.518581	0.573933	-0.516194	-0.264929	-12.9125	-2.04333	0
0.7513	10.3003	58.0291	-24.267	2.04773	1.49063	0.703901	2.47856	-5.27891	-0.227037	0
0.7520	-2.83917	47.033	-10.531	0.212751	-0.342766	-1.43126	0.0412112	7.55758	-1.74818	0
0.7527	-6.80081	-53.0754	-2.60262	0.212751	0.573933	-1.73629	-1.18335	8.77287	-2.65633	0
0.7533	-4.65492	-96.6788	-6.57884	0.824411	0.876843	-1.43126	-0.264929	1.74698	-2.36118	0
0.7540	-7.09794	37.8877	-11.4467	-1.01057	-0.948584	-2.04131	-1.48949	-17.166	-2.97418	0.310828
0.7547	-3.43342	137.071	-2.00016	-0.0930786	-0.645675	-1.73629	-1.48949	-34.5598	-2.65633	0
0.7553	0.825341	90.6908	9.9044	1.7419	0.876843	-0.821217	0.0412112	-22.9766	-1.43033	0
0.7560	-0.099041	51.9322	4.40999	1.43607	1.18772	-1.43126	-0.571069	-9.22861	-1.74818	0
0.7567	-2.54205	56.777	-9.01277	0.212751	-0.342766	-2.34634	-3.0143	-17.166	-3.26933	0
0.7573	-4.65492	57.1037	-10.2418	0.824411	-0.342766	-2.34634	-3.0143	-19.0269	-2.65633	0
0.7580	-6.20657	53.7286	-0.481966	1.13024	-0.0318852	-1.73629	-2.40202	-15.0392	-2.65633	0.310828
0.7587	-5.28218	49.8092	6.24146	0.212751	0.271024	-1.73629	-2.40202	-20.2422	-2.36118	0
0.7593	0.528218	33.5872	7.75966	1.43607	1.49063	-0.21117	0.0412112	-24.1919	-0.840037	0
0.7600	2.97123	10.3973	7.75966	2.04773	2.10442	1.00892	0.647604	-21.1536	-0.522185	0
0.7607	0.231096	-2.994	6.55474	-0.398908	1.18772	-0.516194	-0.877209	-5.27891	-1.74818	0
0.7613	1.74972	-10.6695	0.43377	-0.398908	1.18772	-0.516194	0.0412112	19.1408	-1.13518	0.310828
0.7620	1.4526	-18.8894	-12.0733	0.518581	1.18772	-0.821217	0.0412112	26.4705	-0.522185	0
0.7627	0.528218	-27.7081	-15.7362	-0.704738	0.271024	-2.04131	-2.09588	18.5332	-1.74818	-0.310828
0.7633	9.673	-35.057	-5.03655	-0.398908	0.876843	-1.12624	-0.877209	11.8111	-1.74818	0
0.7640	19.445	-44.5289	9.30195	0.824411	2.71024	0.703901	1.25988	6.30431	0.0908148	0
0.7647	27.3683	-61.0231	37.0632	-0.0930786	1.18772	-0.821217	0.0412112	6.91196	-0.227037	0
0.7653	39.8805	-50.6257	63.0171	-0.0930786	-0.0318852	-1.73629	-1.48949	29.2049	-1.43033	0
0.7660	42.0264	-16.4398	54.7755	1.43607	0.876843	-0.21117	0.341464	67.9803	-1.13518	-0.621656
0.7667	36.5461	-2.994	59.6433	0.518581	0.876843	0.398877	-0.264929	60.0429	-1.43033	-0.310828
0.7673	37.4375	-11.8671	82.2234	-0.398908	1.79354	0.703901	-2.09588	24.9514	-1.43033	0.310828
0.7680	33.1787	-49.7003	45.9073	1.43607	4.24073	2.22902	0.0412112	75.6138	0.0908148	0
0.7687	18.8178	-56.7226	3.80753	2.35356	4.84655	2.22902	1.56603	168.963	0.703815	0
0.7693	-6.20657	57.1037	15.0855	0.518581	3.92985	0.703901	-0.571069	190.952	0.385963	0
0.7700	-34.5653	149.591	7.47048	-0.398908	3.01315	0.398877	-1.78974	182.711	-0.227037	0
0.7707	-40.3757	111.758	-27.6408	-0.398908	2.10442	1.00892	-1.78974	173.862	-0.227037	0
0.7713	-24.4961	72.6724	-34.3401	-1.01057	3.32403	1.924	-2.09588	64.9041	0.0908148	0.310828
0.7720	-13.5026	51.6056	-36.1716	0.212751	4.24073	2.53404	-1.18335	-110.857	0.703815	0
0.7727	-6.50369	5.5525	-59.3782	2.35356	2.40733	2.22902	0.341464	-192.358	0.0908148	-0.932484
0.7733	6.00848	-19.1616	-63.6436	1.43607	0.271024	-0.21117	-2.09588	-167.634	-1.13518	-0.621656
0.7740	10.5974	17.4196	-43.8107	-0.0930786	-0.948584	-2.34634	-4.53912	-125.82	-1.74818	0.310828
0.7747	2.04685	56.5049	-41.3527	0.518581	-1.25946	-2.65136	-3.62658	-84.9184	-1.74818	0
0.7753	-8.64958	-6.36905	-38.6296	-0.0930786	-1.86528	-3.87145	-3.62658	-48.9154	-2.36118	-0.310828
0.7760	-11.3897	-106.477	-13.2782	-0.398908	-0.645675	-3.26141	-3.0143	-47.0925	-1.74818	-0.310828
0.7767	-8.64958	-98.8563	5.92818	1.13024	2.10442	-0.21117	-0.877209	-54.726	-0.227037	-0.310828
0.7773	-4.98506	-24.6596	18.7485	1.13024	2.10442	-0.21117	-0.264929	-33.3445	0.385963	0
0.7780	-0.396164	5.22588	22.1222	-0.0930786	0.573933	-2.04131	-1.18335	-16.5583	-0.522185	0
0.7787	6.30561	3.70167	16.0013	-0.704738	0.271024	-2.04131	-0.877209	-48.6116	-0.522185	0
0.7793	9.673	15.2966	10.2177	-0.704738	0.271024	-1.43126	-1.78974	-71.2084	-0.840037	0.310828
0.7800	5.0841	31.4642	-2.31344	0.212751	0.876843	-0.821217	-3.92684	-49.8269	-1.13518	0.310828
0.7807	-2.21191	-4.51821	1.06033	1.43607	2.40733	0.703901	-2.40202	-24.7995	-0.227037	0
0.7813	-4.3578	-72.618	21.809	2.04773	3.01315	0.398877	-0.877209	10.8996	0.703815	0
0.7820	-1.32055	-83.8863	20.2908	1.13024	2.10442	-0.821217	-2.40202	59.1314	-0.522185	0
0.7827	4.78698	-67.1199	7.47048	0.212751	2.10442	-0.516194	-2.70816	74.3605	-1.13518	0
0.7833	6.93287	-62.5473	12.6516	-0.398908	1.79354	-0.516194	-1.78974	36.2308	-0.840037	0
0.7840	5.71136	-44.8011	26.3876	-0.704738	-0.0318852	-1.12624	-1.78974	-22.9766	-1.43033	0
0.7847	7.52711	-57.3214	31.8821	0.518581	0.271024	-0.516194	-0.571069	-45.5734	-1.43033	0
0.7853	6.93287	-106.477	21.2065	2.35356	2.10442	1.31395	2.7847	-13.2163	0.0908148	-0.310828
0.7860	5.0841	-117.746	5.01245	1.7419	0.876843	0.703901	2.47856	21.2676	0.0908148	-0.310828
0.7867	4.19273	-113.772	-3.51835	-0.704738	-0.948584	-0.821217	-1.48949	14.2417	-1.43033	0
0.7873	-1.61767	-136.091	-12.989	-1.3164	-0.645675	-0.516194	-3.92684	8.16523	-1.43033	0
0.7880	-9.87108	-129.341	-14.5072	-0.0930786	-0.0318852	0.398877	-3.0143	27.6858	-1.43033	-0.310828
0.7887	-13.2055	-42.4059	-4.74737	0.518581	-0.342766	-0.21117	-3.32044	34.4079	-1.74818	-0.310828
0.7893	-12.6112	91.8885	-11.4467	1.13024	-0.0318852	-2.34634	-3.92684	30.724	-1.13518	0
0.7900	-5.28218	189.221	-25.1827	1.13024	0.573933	-3.87145	-3.0143	35.3194	-0.840037	-0.310828
0.7907	5.71136	212.465	-19.6883	-0.398908	-0.0318852	-5.39657	-4.23298	29.2049	-1.43033	0
0.7913	14.559	184.648	-6.57884	-1.01057	-1.25946	-6.61667	-6.06393	1.74698	-2.04333	0.310828
0.7920	18.8178	91.8885	0.43377	-0.398908	-1.25946	-5.09155	-5.45754	-20.2422	-1.74818	0
0.7927	20.3694	-47.8495	16.6278	0.212751	-0.342766	-2.65136	-4.84526	-11.3933	-0.227037	0
0.7933	16.0776	-88.7856	26.9901	1.13024	0.573933	-0.821217	-3.62658	-22.3689	0.385963	0
0.7940	3.8626	-26.8371	12.6516	0.824411	0.573933	-0.821217	-3.0143	-51.9536	0.0908148	0
0.7947	-4.98506	4.02829	2.26524	-0.398908	0.271024	-1.73629	-4.53912	-43.1048	-1.13518	-0.621656
0.7953	-5.28218	3.70167	4.09671	0.212751	0.271024	-2.95638	-7.28849	-40.978	-2.04333	-0.932484
0.7960	-2.54205	-1.46978	5.01245	0.518581	0.271024	-3.56643	-7.28849	-67.8284	-1.74818	0
0.7967	2.34397	-32.0085	0.747048	0.212751	-0.0318852	-5.09155	-2.40202	-75.1581	-2.04333	0.310828
0.7973	6.30561	-60.3698	-10.8442	2.35356	0.573933	-6.00662	3.09084	-62.0557	-3.26933	0.310828
0.7980	6.00848	-37.18	-16.6519	5.39856	2.40733	-1.73629	6.44661	-48.3078	-3.26933	0.310828
0.7987	6.30561	11.9215	-0.481966	6.62188	2.71024	4.97423	7.36503	-43.1048	-2.36118	0
0.7993	11.8189	43.9845	21.4957	2.96522	0.876843	10.4647	1.25988	-48.3078	-2.97418	0
0.8000	16.7049	71.4748	30.653	-1.62223	-1.25946	17.7852	-8.50717	-45.8772	-2.04333	0
0.8007	15.7805	87.6424	34.0027	-2.22059	-1.25946	19.3103	-12.4752	-31.8254	0.0908148	0
0.8013	13.6346	53.7286	26.0744	-1.62223	-0.342766	13.2099	-13.6939	-26.6224	0.0908148	-0.310828
0.8020	13.9648	-41.4804	8.38621	-1.01057	0.573933	7.41442	-12.7814	-12.3048	-0.522185	-0.310828
0.8027	11.8189	-78.9871	6.55474	0.824411	2.40733	2.22902	-7.89489	30.4202	0.0908148	0
0.8033	8.74862	28.0891	-12.0733	2.04773	2.40733	-5.09155	-4.23298	45.3835	-0.840037	0
0.8040	11.8189	130.974	-52.6548	0.824411	-0.0318852	-9.99539	-2.40202	9.38052	-2.36118	0
0.8047	16.3748	113.282	-41.9793	0.824411	0.271024	-8.16525	2.47856	-1.29125	-1.43033	0
0.8053	11.5218	51.6056	9.9044	1.43607	3.01315	-5.09155	7.97142	32.2432	-0.227037	0
0.8060	6.00848	15.6232	69.7164	2.04773	3.92985	-10.9105	6.75275	74.3605	0.0908148	0.310828
0.8067	7.52711	-16.1131	122.203	3.27105	5.14946	-12.7406	4.61565	90.2353	0.703815	0.310828
0.8073	-2.83917	-51.8233	101.165	2.04773	6.67995	0.0938534	11.9395	74.6644	1.31681	-0.310828
0.8080	-26.642	-68.6442	44.9915	-2.22059	4.24073	2.22902	19.8756	65.5117	0.703815	0
0.8087	-40.3757	-43.6035	5.01245	-1.91476	2.71024	-14.8758	24.1498	33.4964	0.385963	0.310828
0.8093	-41.3001	19.5971	-41.666	0.212751	3.01315	-25.2466	25.3684	-24.1919	1.31681	0
0.8100	-35.7868	63.5271	-56.0045	-1.62223	2.10442	-22.1963	17.1262	-52.5613	1.31681	0
0.8107	-22.0531	73.5979	-42.2684	-1.91476	1.79354	-14.5707	7.05889	-45.2695	1.31681	0
0.8113	-11.0596	68.372	-44.4132	0.518581	2.10442	-3.26141	2.7847	-27.8757	2.22496	0
0.8120	-10.7625	38.1598	-49.3051	0.212751	2.10442	2.22902	3.39698	-34.256	1.31681	0
0.8127	-11.0596	-2.72181	-38.6296	-0.704738	3.01315	1.31395	11.0269	-54.726	-0.227037	0.310828
0.8133	-8.31944	-25.9117	-21.8331	0.518581	4.54364	2.53404	17.7385	-40.0666	0.0908148	0.310828
0.8140	-9.87108	-19.8148	-12.3624	0.518581	3.92985	3.75414	15.2952	2.65845	0.0908148	0
0.8147	-13.8327	3.10287	-5.6631	-0.0930786	2.71024	2.22902	9.49623	18.837	-0.522185	0
0.8153	-14.1298	25.0407	4.09671	0.824411	2.10442	-3.56643	7.36503	31.6355	0.385963	0
0.8160	-14.427	20.7947	14.4831	-0.0930786	2.10442	-9.08032	7.36503	83.817	1.31681	0
0.8167	-16.2757	-13.7179	12.6516	-2.22059	2.10442	-8.16525	5.53407	100.907	0.385963	0
0.8173	-13.2055	-34.4582	3.80753	-0.704738	3.01315	-3.26141	5.53407	51.8017	1.31681	0
0.8180	-6.50369	-6.96784	6.84392	1.13024	4.54364	0.0938534	7.97142	16.7102	3.74611	0
0.8187	-7.09794	50.408	0.14459	-2.22059	4.24073	1.00892	5.53407	-5.27891	3.45096	0
0.8193	-11.6868	60.7509	-7.78375	-3.44391	3.92985	4.66921	2.17242	-18.6851	2.83796	0
0.8200	-10.4653	7.67552	-1.3977	-1.3164	4.54364	13.2099	2.7847	1.13933	3.45096	0
0.8207	-9.87108	-18.2906	-14.1939	-2.83225	3.62694	17.4802	1.25988	9.07669	2.83796	0
0.8213	-9.24382	-12.1937	-23.0621	-3.74974	3.62694	15.9551	-1.18335	12.7226	2.52011	0
0.8220	-7.42807	-44.8011	-11.4467	-0.398908	4.54364	11.6848	0.341464	41.092	3.45096	-0.310828
0.8227	-14.427	-89.9832	-21.8331	0.824411	3.62694	6.19433	0.0412112	64.6002	2.22496	0
0.8233	-22.6804	-89.0578	-37.7139	-0.704738	2.40733	1.924	-2.40202	43.2567	1.61196	0.310828
0.8240	-20.2374	-77.7895	-27.6408	0.518581	4.24073	-1.73629	-0.877209	7.55758	2.52011	0
0.8247	-19.6101	-71.9648	-13.5914	2.35356	4.24073	-6.00662	0.341464	2.35462	1.61196	-0.310828
0.8253	-28.4578	49.8092	-15.4229	2.35356	2.40733	-6.31164	-0.877209	-32.1292	0.703815	-0.621656
0.8260	-35.7868	230.429	-34.3401	2.96522	3.92985	-2.34634	-0.877209	-56.2451	1.31681	-0.310828
0.8267	-33.9711	210.614	-52.3415	1.43607	4.54364	-2.65136	-3.32044	22.179	1.61196	0
0.8273	-18.7187	69.0252	-36.1716	-1.62223	3.01315	-4.4815	-6.37007	74.3605	1.61196	0
0.8280	-0.396164	18.6716	-9.9285	-0.0930786	2.40733	-2.95638	1.56603	50.2826	1.61196	0
0.8287	-0.396164	-17.6374	3.18098	3.57688	2.40733	-3.26141	17.1262	80.475	0.385963	0
0.8293	-6.80081	-132.389	13.2541	2.65939	1.79354	-8.7753	19.5694	97.8688	-0.522185	0
0.8300	-2.21191	-245.018	-13.9047	0.212751	0.876843	-15.7908	11.9395	20.0523	0.0908148	0
0.8307	1.12246	-257.211	-61.8122	-1.01057	1.79354	-15.7908	7.66528	-55.9413	1.90711	-0.310828
0.8313	5.41424	-192.215	-70.9695	-3.44391	3.32403	0.703901	3.70312	-119.098	2.83796	0
0.8320	16.0776	-119.27	-48.6786	-3.44391	3.92985	24.1907	-0.571069	-134.669	1.90711	-0.310828
0.8327	13.0404	-71.0938	1.97606	-0.704738	3.01315	32.1213	-1.48949	-24.7995	2.22496	0
0.8333	-4.65492	3.37505	73.3793	-1.01057	0.573933	24.1907	-2.40202	101.553	1.90711	0.621656
0.8340	-7.42807	85.7916	100.851	-1.01057	-0.0318852	16.8702	-3.0143	120.162	1.31681	0.310828
0.8347	5.41424	92.4873	63.9328	-0.398908	0.573933	14.43	-2.09588	57.2705	1.61196	-0.310828
0.8353	7.85725	73.5979	21.4957	-1.91476	0.271024	15.345	-3.0143	-6.19038	1.31681	0
0.8360	-0.396164	73.87	3.80753	-2.22059	0.573933	17.4802	-4.23298	-55.9413	0.998963	0
0.8367	-5.28218	90.6908	-15.1096	1.13024	2.10442	12.2948	-0.264929	-76.3734	1.31681	0
0.8373	-11.984	74.1967	-33.7376	2.04773	1.49063	6.49935	1.87217	-17.4698	0.703815	0
0.8380	-15.3513	5.82468	-29.4722	-0.704738	1.18772	17.1752	-1.48949	44.1682	0.703815	0
0.8387	-5.28218	-43.0047	-13.2782	-0.704738	1.79354	23.2757	-3.0143	15.457	2.83796	0
0.8393	1.12246	-60.6965	6.84392	0.212751	0.876843	8.32949	-3.0143	-58.9795	3.13311	0
0.8400	-8.02232	-10.3429	26.9901	-0.398908	-1.25946	-5.39657	-4.84526	-107.515	1.31681	0
0.8407	-14.7241	127.272	7.1572	0.212751	-0.645675	-7.22671	-4.23298	-63.271	1.31681	0
0.8413	-9.54095	193.521	-39.5453	-1.01057	1.18772	-5.7016	-2.09588	38.0538	2.52011	0
0.8420	-0.693287	128.197	-47.7628	-3.74974	1.49063	-7.53174	-0.877209	77.4367	2.83796	0
0.8427	3.26835	49.156	-35.8824	-1.91476	3.01315	-12.1306	1.87217	81.3864	2.83796	0
0.8433	-0.693287	22.9177	-52.9681	-0.704738	5.14946	-12.4356	1.87217	91.1467	2.22496	-0.310828
0.8440	-4.65492	22.9177	-63.9569	-1.3164	4.84655	-11.8255	0.341464	76.2214	0.998963	-0.310828
0.8447	2.97123	9.19973	-32.8219	1.13024	4.24073	-9.69037	6.14047	53.3208	0.703815	0
0.8453	21.2608	-24.3875	4.72327	2.35356	4.84655	-3.56643	13.7704	23.6981	1.31681	0
0.8460	32.8816	-90.582	25.1586	-0.0930786	4.54364	-1.12624	12.5517	3.56991	1.61196	0
0.8467	22.4823	-171.148	37.9789	-1.3164	5.14946	-2.04131	6.75275	37.1423	0.703815	0
0.8473	0.231096	-219.977	29.1349	-0.398908	6.37704	-0.821217	2.47856	74.6644	0.998963	0
0.8480	-18.0915	-237.07	7.47048	-1.3164	5.14946	-0.21117	-2.40202	63.3849	1.61196	0
0.8487	-23.9019	-277.68	-5.34982	-3.44391	3.01315	0.398877	-6.06393	42.3452	1.90711	0
0.8493	-15.9456	-260.913	-9.9285	-2.83225	3.01315	3.44911	-5.1514	27.382	3.45096	0.310828
0.8500	-4.06068	-36.5812	5.01245	-1.62223	3.62694	4.97423	-5.75779	-16.2545	3.74611	0
0.8507	8.4515	159.934	18.7485	-2.22059	4.54364	4.97423	-9.11945	-60.8025	3.13311	0
0.8513	20.6665	62.9283	11.4226	-2.22059	4.54364	5.58428	-9.11945	-62.6634	3.13311	0
0.8520	30.1085	-140.663	15.7121	-1.62223	1.79354	3.44911	-7.89489	-53.2069	1.61196	0
0.8527	38.9891	-169.025	40.4129	-2.22059	-2.16819	-1.12624	-9.4197	-76.3734	-0.840037	0
0.8533	44.1723	-11.2683	53.2332	-1.91476	-3.69868	-4.17648	-8.81331	-122.175	-1.13518	0.310828
0.8540	47.2095	134.948	67.5717	-0.0930786	-4.3045	-5.39657	-3.92684	-110.553	-1.74818	0
0.8547	50.5769	105.606	102.683	2.65939	-3.39577	-9.08032	3.09084	-33.6483	-3.56448	-0.621656
0.8553	36.8432	-8.81868	111.84	6.31605	-0.645675	-15.7908	9.49623	25.5591	-3.56448	-0.621656
0.8560	-0.099041	-59.4444	66.9692	7.23354	-0.342766	-17.316	11.0269	81.6902	-2.36118	0
0.8567	-37.3054	-49.7003	-12.989	6.01022	-1.86528	-17.621	13.1581	130.53	-3.26933	0.310828
0.8573	-46.7803	30.5388	-84.079	7.8452	-1.25946	-23.1114	27.5055	70.7147	-5.10833	0.310828
0.8580	-26.0148	163.908	-98.1283	9.37435	0.876843	-22.1963	42.4593	-110.553	-4.17748	0.310828
0.8587	1.74972	218.235	-70.6562	4.18854	2.40733	-12.7406	38.4912	-216.473	-2.04333	0
0.8593	18.2235	147.141	-39.232	-1.91476	2.71024	-7.53174	22.9252	-112.68	0.385963	0
0.8600	19.1479	46.4342	-33.1352	-3.13808	1.18772	-5.7016	9.19598	22.7867	1.61196	0
0.8607	15.4834	-6.36905	-44.0999	-1.91476	-0.342766	-0.21117	-1.18335	54.2323	0.0908148	0
0.8613	18.5207	-31.6819	-11.1575	-1.3164	0.573933	9.24456	-5.45754	50.2826	-1.13518	0
0.8620	19.1479	-97.6043	55.3779	-0.398908	1.49063	17.4802	-3.32044	53.6247	0.385963	-0.310828
0.8627	14.559	-145.236	88.3444	0.212751	1.49063	20.5304	-1.48949	94.8306	2.22496	-0.310828
0.8633	9.37588	-130.266	67.8849	-0.704738	0.876843	19.6154	-2.09588	180.584	1.90711	0
0.8640	2.34397	-92.4328	23.3272	-1.62223	-1.25946	15.6501	-1.48949	184.534	0.385963	0.310828
0.8647	-2.21191	-45.1277	-7.49457	-1.3164	-2.78198	11.3797	0.953745	74.9682	-1.13518	0
0.8653	-4.06068	-15.841	-19.0859	-0.704738	-3.69868	9.85461	2.47856	-43.7124	-1.74818	0
0.8660	-7.42807	22.6455	-8.41031	-0.704738	-4.3045	10.1596	2.7847	-134.062	-1.43033	0
0.8667	-6.50369	101.034	11.4226	-1.01057	-4.00159	10.4647	2.17242	-165.507	-0.227037	0
0.8673	-1.61767	183.45	15.3988	-1.01057	-3.39577	3.14409	0.953745	-142.303	-0.227037	0
0.8680	5.71136	188.948	34.6293	1.13024	-4.3045	-11.8255	-0.264929	-108.73	-0.522185	-0.310828
0.8687	13.3375	119.651	60.2699	2.04773	-5.2212	-22.5014	-0.877209	-66.6131	-0.522185	-0.310828
0.8693	16.0776	67.501	74.6084	-0.398908	-5.2212	-23.4164	-1.78974	-17.7736	-1.13518	0
0.8700	15.1533	7.07672	128.01	-1.3164	-4.00159	-19.1461	-2.40202	9.98816	-2.36118	-0.310828
0.8707	18.2235	-71.9648	167.074	1.13024	-0.948584	-13.9607	0.647604	16.1026	-1.74818	-0.310828
0.8713	23.4067	-81.4367	114.877	2.04773	1.18772	-10.3004	2.7847	53.3208	-1.43033	0
0.8720	20.6665	-4.51821	45.6181	0.824411	1.18772	-8.7753	1.87217	130.53	-2.65633	0.310828
0.8727	15.4834	74.5233	16.917	0.212751	0.573933	-7.86022	1.87217	189.433	-2.04333	0.310828
0.8733	21.5909	59.5533	-15.4229	-1.01057	-0.342766	-9.38534	0.953745	188.218	-1.13518	0.310828
0.8740	26.1468	-24.6596	-65.7884	-2.83225	0.271024	-6.92169	-0.264929	106.414	-1.13518	0
0.8747	11.8189	-78.3883	-90.8024	-2.22059	2.40733	-2.95638	2.7847	-37.636	0.0908148	0
0.8753	0.528218	-100.054	-97.815	0.212751	3.01315	-8.7753	5.83433	-170.976	1.90711	0
0.8760	11.5218	-117.474	-118.564	-0.398908	1.49063	-12.7406	5.22793	-203.941	1.90711	-0.310828
0.8767	20.3694	-123.843	-137.505	-2.52642	-0.342766	-9.99539	2.7847	-116.364	0.703815	0
0.8773	14.559	-131.79	-95.6944	-2.22059	-0.342766	-6.92169	1.25988	-7.70949	-0.522185	0
0.8780	6.93287	-108.274	7.47048	-0.704738	1.49063	-5.7016	1.25988	74.9682	-0.522185	-0.310828
0.8787	-4.3578	-76.864	76.729	-1.01057	2.10442	-5.7016	0.953745	103.072	-0.227037	0
0.8793	-12.9083	-133.042	52.6307	0.518581	3.32403	-6.00662	2.17242	31.9393	0.385963	0
0.8800	-8.64958	-212.356	-9.61522	2.04773	4.84655	-8.7753	3.09084	-52.5613	0.998963	-0.310828
0.8807	-2.83917	-213.281	-14.1939	0.212751	3.01315	-9.69037	0.341464	-59.5872	0.0908148	0
0.8813	-1.91479	-94.8824	12.6516	-1.3164	1.49063	-6.00662	-0.877209	-9.22861	0.0908148	0
0.8820	2.34397	111.431	-15.7362	-0.398908	2.40733	-3.26141	-0.877209	-4.06362	0.998963	0
0.8827	10.8945	278.333	-52.6548	-1.01057	3.32403	-3.26141	-2.70816	-65.3978	0.385963	-0.310828
0.8833	20.6665	354.979	-35.5691	0.212751	3.62694	0.398877	-1.78974	-108.427	0.0908148	0
0.8840	32.8816	248.447	10.5069	2.04773	3.32403	3.44911	1.87217	-105.388	0.385963	0
0.8847	42.9508	-1.46978	59.3541	0.518581	2.40733	0.0938534	3.39698	-49.2192	-0.840037	0
0.8853	37.4375	-137.615	79.4762	0.518581	1.49063	-4.78652	3.70312	49.0293	-2.36118	0
0.8860	20.0393	-139.738	62.1013	2.35356	-0.342766	-7.53174	4.30951	156.165	-3.26933	0
0.8867	15.4834	-126.891	41.3286	2.04773	-1.86528	-10.6054	4.30951	184.534	-4.49533	0
0.8873	34.1031	-133.913	77.3556	4.48107	-0.948584	-8.16525	5.83433	63.0811	-3.88233	-0.621656
0.8880	47.2095	-181.545	154.856	6.92771	2.71024	-1.43126	9.80237	34.1041	-1.43033	-0.621656
0.8887	32.2543	-167.5	128.926	3.27105	5.14946	-0.21117	11.6333	213.245	-0.840037	-0.310828
0.8893	12.4131	23.5165	-3.51835	0.824411	3.32403	-1.73629	11.6333	324.33	-2.36118	-0.310828
0.8900	3.26835	161.785	-92.0314	0.824411	2.10442	2.22902	11.9395	350.877	-2.65633	0
0.8907	-4.65492	52.531	-74.9216	-1.62223	1.49063	4.66921	10.1085	329.799	-1.74818	0.310828
0.8913	-14.7241	-46.6519	0.14459	-4.66723	-0.0318852	0.398877	6.14047	126.846	-0.840037	0
0.8920	-28.1606	-4.51821	43.1601	-1.91476	1.49063	-1.12624	7.66528	-69.6513	1.61196	0
