MR32 ASCII
Name	KneeFJC1
Frequency	1500
Date	04-09-2015 10:01:36
"Time,s"	"RT TIB.ANT.,uV"	"RT MED. GASTRO,uV"	"RT LAT. GASTRO,uV"	"RT BICEPS FEM.,uV"	"RT VMO,uV"	"RT VLO,uV"	"RT RECTUS FEM.,uV"	"RT SOLEUS,uV"	"RT SEMITEND.,uV"	"Channel 12,uV"
0.0000	1.52847	6.06678	-4.83313	4.5358	-2.83693	8.59465	-0.151273	-41.2311	-0.612596	-6387.31
0.0007	-0.627063	5.15511	-10.0245	7.28116	-0.101319	4.60118	-2.90444	-44.892	0	-10490.4
0.0013	-0.313531	10.0367	-17.9587	7.58416	2.33034	-3.9356	-3.20698	-34.2115	0.612596	-9780.58
0.0020	-0.940594	10.65	-26.5013	4.8388	2.93825	-11.257	-5.96015	-13.1525	0	-9665.01
0.0027	-2.42987	0.571869	-33.5228	5.1418	3.85012	-15.5398	-9.92349	11.8695	-1.21702	-9913.13
0.0033	-0.627063	-11.628	-39.6219	6.97816	4.15408	-27.1151	-11.4665	35.98	-0.91481	-9793.39
0.0040	-0.313531	-13.7663	-35.0488	6.36298	2.33034	-48.1821	-12.3741	46.0512	0	-9809.4
0.0047	-0.940594	-12.2413	-14.5975	5.1418	1.11451	-62.8249	-16.3375	43.3068	-0.302214	-9817.72
0.0053	-1.21493	-16.2112	7.98326	4.2328	-1.01319	-61.0018	-20.6033	37.5058	-0.302214	-9818.68
0.0060	-3.95833	-10.4097	21.413	2.69945	-2.83693	-43.2916	-16.0349	37.2036	-0.302214	-9794.35
0.0067	-8.54373	3.32347	24.465	1.79045	-1.92506	-20.1121	-1.69425	47.577	-0.612596	-9836.93
0.0073	-10.9736	5.76013	15.9175	1.47827	-0.709233	-5.151	13.2515	42.0832	-0.91481	-9885.27
0.0080	-6.4274	-4.61639	1.27084	0.87227	-1.31715	-1.18647	19.6655	4.24052	-1.21702	-9532.47
0.0087	3.05693	-17.4296	-2.6987	-1.26709	-2.22902	0.0289382	16.3072	-43.3662	-1.82962	-10271.1
0.0093	6.3882	-16.5179	-5.44648	-2.48826	-1.92506	5.5272	10.8311	-60.7593	-1.21702	-9563.52
0.0100	3.33127	0.878523	-12.1589	-1.26709	-1.01319	13.1669	6.53498	-36.0394	0.91481	-3428.17
0.0107	0	14.9183	2.1835	1.17527	-1.31715	18.3468	0.151273	-1.55552	2.14	107.57
0.0113	-1.842	18.8883	29.6514	2.09345	-1.92506	22.9191	-5.35506	19.8056	1.52741	-35.2165
0.0120	-1.52847	17.3633	45.5198	0.569271	-1.6211	26.8836	-8.10822	15.5354	0.302214	-151.751
0.0127	1.21493	9.42341	41.246	1.17527	0.810552	25.3788	-7.80567	-15.2877	0	96.045
0.0133	4.27187	-0.339806	27.5121	5.75698	3.24221	15.916	-4.44742	-32.6857	1.52741	-23.371
0.0140	3.33127	-7.66636	16.2217	8.19934	4.45803	-1.18647	0.151273	-17.4228	2.44222	-7.0433
0.0147	0.587872	-14.6863	-0.25515	9.72351	5.06595	-20.1121	5.02226	7.90638	2.44222	0.6403
0.0153	0.901403	-19.5679	-16.7369	27.729	4.45803	-27.4334	5.02226	28.9604	1.82962	-0.6403
0.0160	1.21493	-14.3796	-20.0931	57.6341	2.02638	-19.7937	1.05891	43.609	0.91481	-0.32015
0.0167	-0.940594	1.18518	-5.75069	70.7548	1.11451	-8.18952	2.26909	51.5451	0.612596	-0.6403
0.0173	-2.15553	11.5617	17.1392	66.1823	1.41847	-3.00958	5.02226	52.1544	0	-0.96045
0.0180	-1.21493	9.73006	30.2598	63.74	-0.101319	-1.47585	4.41716	44.2183	0.302214	-0.6403
0.0187	-1.842	8.20508	33.0076	68.0095	-2.53297	0.0289382	0.756364	31.4026	0.91481	-0.32015
0.0193	-4.89893	11.255	31.7858	76.8607	-3.14089	1.56266	-5.05251	7.2921	1.21702	-0.32015
0.0200	-6.4274	4.84845	7.67904	89.9815	-1.92506	3.09639	-7.50313	-24.1402	3.35703	-0.6403
0.0207	-4.89893	-11.9347	-20.0931	85.712	-0.101319	1.88098	-5.6576	-35.123	5.79924	-0.6403
0.0213	-4.27187	-21.0928	-18.8713	45.1193	-0.101319	-1.79417	-6.56524	-17.7299	6.71405	-0.32015
0.0220	-4.27187	-6.7464	-13.9891	8.50233	-1.92506	-3.3279	-12.6767	5.76631	6.41184	-0.6403
0.0227	-2.42987	19.7999	-29.5533	-36.9659	-3.14089	-3.3279	-17.8804	11.8695	3.35703	-0.32015
0.0233	-2.15553	31.0964	-59.1556	-106.242	-1.31715	-6.07703	-17.2451	6.38059	-1.52741	-0.32015
0.0240	0	20.7199	-72.8896	-118.454	0.810552	-8.82616	-12.6767	5.15698	-2.44222	-0.32015
0.0247	5.80033	7.59177	-60.0732	-84.5734	1.72242	-6.68473	-9.62095	2.41254	-0.302214	-0.32015
0.0253	8.2302	3.32347	-33.2137	-58.0289	0.202638	3.99347	-11.1639	-5.52357	-2.44222	-0.32015
0.0260	5.4868	-7.3597	3.70949	-54.6684	-1.92506	15.5977	-8.41077	-15.897	-7.93108	-0.6403
0.0267	-2.15553	-12.548	35.4512	-99.2276	-2.53297	12.5592	1.96655	-11.6267	-11.2881	-0.32015
0.0273	-7.64233	6.37344	58.3362	-121.2	-2.53297	-1.18647	13.2515	6.68278	-10.6837	-0.32015
0.0280	-8.2302	21.6316	68.4097	-66.8801	-3.14089	-0.578764	21.8135	12.786	-7.01627	-0.32015
0.0287	-8.2302	17.0566	31.7858	-0.954906	-2.53297	10.7071	27.2896	6.98992	-3.35703	0
0.0293	-3.37046	13.0867	-36.2657	19.4838	-0.405276	12.8486	28.2275	-4.29996	-2.14	-0.32015
0.0300	6.3882	6.37344	-72.8896	-11.6425	2.02638	6.74261	21.511	-17.4228	-1.82962	-0.32015
0.0307	11.2871	-14.9846	-68.3116	-46.4323	4.15408	1.24434	14.1894	-20.7815	-0.91481	0
0.0313	12.5021	-26.8944	-35.353	-34.8357	4.45803	-1.18647	12.9489	-14.3712	0	0
0.0320	12.5021	-20.1729	3.40527	4.5358	3.85012	-3.3279	8.9856	-18.0371	-0.302214	-0.32015
0.0327	10.0722	-16.8163	17.1392	21.0171	4.15408	-5.46932	0.453818	-46.4178	0.302214	0
0.0333	5.4868	-17.7362	21.413	9.10833	5.67386	-6.68473	-4.14487	-52.2138	0.91481	0.32015
0.0340	1.842	-13.4596	28.7338	0.25709	7.19365	-8.18952	-3.20698	0.277417	0	-0.32015
0.0347	-0.313531	-11.3296	24.465	0.87227	6.88969	-8.18952	-1.69425	46.9677	-0.302214	-0.32015
0.0353	-1.842	-13.7663	12.5612	-0.651907	5.06595	-6.07703	-2.90444	35.98	0.302214	-0.32015
0.0360	-1.21493	-11.023	6.15305	-3.39726	4.15408	-4.5433	-4.74996	14.0096	0.612596	0
0.0367	0.587872	-4.00308	7.98326	-2.79126	4.15408	-2.40187	-4.74996	19.5034	1.21702	-0.32015
0.0373	2.11634	-4.00308	16.835	-0.954906	3.85012	-0.260444	-4.74996	24.383	1.21702	-1.2806
0.0380	2.7434	-7.3597	23.2432	0.569271	3.24221	0.0289382	-3.20698	22.555	1.21702	-0.96045
0.0387	4.85974	0.571869	22.939	2.39645	1.11451	-0.260444	-1.69425	18.8891	2.14	0
0.0393	6.3882	12.175	19.2737	2.69945	-0.405276	2.48869	-1.39171	3.63119	1.82962	0
0.0400	3.05693	11.8684	11.0352	1.47827	-0.101319	7.95801	5.62735	-6.44004	1.82962	-0.32015
0.0407	-1.21493	4.5418	-2.08536	1.79045	0.810552	14.6717	14.4919	-12.8454	1.82962	-0.32015
0.0413	-2.7434	3.01682	-10.0245	4.5358	0.506595	17.4208	14.1894	-17.1206	1.82962	-0.32015
0.0420	-2.15553	5.76013	-4.2247	6.66598	-0.101319	14.3823	8.38051	-8.8823	1.82962	0
0.0427	-2.42987	5.76013	3.40527	7.58416	-0.709233	9.20236	4.71971	-6.44004	0.612596	0
0.0433	-3.37046	9.42341	3.70949	8.80533	-5.31925	4.9195	4.71971	-2.47198	0.302214	-0.32015
0.0440	-3.05693	17.0566	2.1835	8.50233	-11.0944	1.88098	2.26909	17.0611	1.52741	0
0.0447	-3.684	10.3434	-0.868492	10.3295	-13.83	0.636641	-0.151273	31.4026	1.21702	0
0.0453	-3.37046	-11.9347	-4.83313	16.4354	-14.134	1.88098	-2.90444	22.555	0.302214	-0.32015
0.0460	-0.627063	-22.0045	-3.00292	21.0171	-12.3103	3.99347	-6.86778	3.329	0.302214	0
0.0467	0.901403	-13.7663	0.96172	31.6955	-7.7509	6.45322	-8.41077	-8.26802	0.91481	0
0.0473	-1.52847	-4.61639	-1.78115	43.2921	-3.44484	9.81006	-5.05251	-16.5113	0.302214	-0.32015
0.0480	-6.70174	0.273503	-6.05491	23.1473	-1.01319	14.3823	3.50953	-21.698	-1.82962	-0.32015
0.0487	-6.70174	6.68009	-2.39449	-12.2485	-0.101319	20.7776	11.4362	-17.4228	-4.27184	-0.32015
0.0493	-0.940594	17.0566	5.23549	-18.3544	2.63429	19.5622	14.1894	-3.99778	-3.05481	0
0.0500	1.21493	24.3832	17.4434	-0.0459089	5.97782	3.99347	15.7021	9.12504	2.44222	0
0.0507	0.901403	8.81839	23.5474	26.2048	9.97992	-10.6493	11.1337	13.7024	7.32665	-0.32015
0.0513	2.42987	-13.7663	11.6437	31.0803	14.2353	-13.0801	1.36145	22.2479	8.85406	-0.32015
0.0520	1.21493	-9.19134	-4.52892	-4.31544	13.3234	-10.6493	-5.6576	13.4002	7.93108	0.32015
0.0527	0.313531	-4.00308	-14.5975	-30.254	8.76409	-13.6878	-10.5286	-25.666	5.18665	0
0.0533	3.6448	-14.9846	-13.9891	-15.306	6.88969	-24.9737	-11.1639	-42.7569	4.27184	-0.32015
0.0540	5.17327	-11.023	-11.8547	2.69945	6.58573	-32.0057	-8.71331	-28.7176	5.49703	-0.32015
0.0547	3.05693	-0.646461	-21.9233	-3.70944	4.45803	-23.1506	-8.71331	-22.0002	7.01627	-0.32015
0.0553	2.7434	0.273503	-26.8055	10.0265	2.02638	-8.18952	-10.226	-17.4228	6.71405	-0.32015
0.0560	2.7434	6.98675	-13.9891	78.3849	1.41847	-1.47585	-7.50313	-4.6071	2.14	-0.32015
0.0567	2.42987	16.4433	0.353285	136.368	2.33034	0.636641	-0.151273	3.63119	-1.82962	0
0.0573	2.11634	12.78	7.67904	114.396	2.63429	3.99347	5.3248	2.71472	-2.44222	0
0.0580	-0.627063	-1.25977	15.309	6.66598	2.02638	7.35031	4.71971	0.277417	-5.49703	0
0.0587	-5.80033	-10.103	19.5779	-113.873	1.41847	8.88404	1.664	-0.0297232	-12.5133	0
0.0593	-7.3288	-10.103	12.257	-136.46	1.11451	8.27633	-0.786618	-2.77417	-13.7303	0
0.0600	-3.05693	-7.3597	7.0657	-76.6404	0.810552	4.9195	-2.60189	-6.1329	-8.54367	0
0.0607	0.587872	-8.27138	10.731	-36.0569	0.506595	-0.868147	-4.44742	-7.65869	-3.96962	0
0.0613	0	-11.023	10.4268	-25.9845	0.202638	-6.68473	-4.14487	-11.3196	-2.44222	-0.32015
0.0620	0	-5.52807	3.10106	-14.9939	-0.709233	-10.6493	-1.69425	-12.2361	-2.14	-0.32015
0.0627	2.42987	2.10514	-5.44648	-7.97897	-1.6211	-10.9386	-0.484073	-8.26802	-1.52741	0
0.0633	1.842	3.92849	-9.41112	-5.23362	-1.01319	-7.58181	1.36145	2.71472	-1.82962	0
0.0640	-1.52847	2.71016	-6.05491	-2.17608	-0.709233	-5.46932	3.17673	22.555	-1.52741	-0.32015
0.0647	-2.7434	-3.38977	1.57506	-1.26709	-1.01319	-5.75871	0.756364	29.5697	-1.21702	-0.32015
0.0653	-3.05693	-7.3597	0.353285	1.17527	-2.53297	-7.29243	-3.84233	17.9776	-0.612596	-0.32015
0.0660	-3.37046	0.273503	-6.97247	-4.31544	-3.7488	-7.29243	-5.96015	7.90638	-0.302214	-0.32015
0.0667	-2.7434	7.89842	-4.52892	-18.3544	-2.83693	-5.46932	-3.84233	2.41254	0.302214	0
0.0673	-2.7434	10.65	-2.08536	-13.1667	-1.92506	-3.3279	-1.08916	1.18893	0.302214	-0.96045
0.0680	-2.7434	11.5617	-6.97247	2.09345	-2.53297	-1.18647	0.756364	6.68278	0	-1.2806
0.0687	-0.313531	10.3434	-5.75069	-0.0459089	-2.22902	1.24434	2.87418	10.3437	0	-0.32015
0.0693	0.587872	10.0367	2.48772	-5.23362	-1.6211	2.77807	4.11462	0.277417	-1.21702	0
0.0700	0.313531	7.59177	9.81347	-5.83962	-0.709233	7.35031	6.53498	-26.2754	-3.05481	-0.32015
0.0707	1.52847	-5.22141	7.98326	-11.0273	1.41847	11.0255	6.86778	-45.1942	-3.05481	-0.32015
0.0713	2.42987	-16.5179	4.01371	-11.6425	2.33034	7.06093	4.41716	-42.7569	-2.14	0
0.0720	2.11634	-10.4097	4.32283	-5.53662	1.41847	2.17037	1.664	-34.5136	-1.52741	-0.32015
0.0727	1.842	4.5418	-2.39449	-1.26709	0.202638	-0.260444	-1.9968	-19.5629	-1.21702	-0.6403
0.0733	1.21493	13.7	-9.1069	0.87227	-0.709233	-0.868147	-2.29935	8.20857	0.302214	-0.32015
0.0740	0.901403	14.9183	-5.13735	1.17527	-1.6211	-0.578764	1.05891	35.3707	1.52741	0
0.0747	1.21493	10.3434	-2.6987	0.569271	-3.14089	0.954961	3.81207	39.3387	1.21702	0
0.0753	3.05693	10.0367	-1.47693	2.69945	-3.7488	2.77807	4.71971	22.8572	0.91481	0
0.0760	4.5854	13.7	6.45726	2.69945	-4.05276	3.99347	4.41716	6.07345	0	0
0.0767	3.05693	1.49183	9.81347	3.92062	-3.14089	6.1349	7.77542	-1.24838	-0.302214	-0.32015
0.0773	0	-18.9546	4.01371	17.3536	-1.6211	7.35031	11.7388	1.49607	-0.91481	-0.32015
0.0780	-0.940594	-21.0928	-0.868492	32.9167	-1.31715	7.06093	8.68306	7.90638	-0.91481	0
0.0787	-1.842	-11.628	-3.00292	37.1862	-2.53297	5.84552	-2.29935	6.07345	0.612596	0
0.0793	-3.684	-6.14138	-5.13735	37.1862	-5.01529	6.1349	-13.2817	-1.86266	3.05481	-0.32015
0.0800	-3.684	-1.55814	-10.0245	40.2438	-4.05276	9.49174	-13.5843	-6.44004	5.79924	-0.32015
0.0807	-3.05693	0.878523	-21.9233	43.2921	-1.01319	10.4178	-4.44742	-7.96583	7.01627	0
0.0813	-2.15553	3.01682	-31.3835	46.6527	1.41847	7.35031	1.36145	-1.86266	5.79924	-0.32015
0.0820	-0.627063	7.28511	-33.2137	50.307	2.93825	5.5272	-0.151273	12.4838	4.57405	-0.32015
0.0827	0.313531	4.23515	-36.879	44.2103	3.54616	5.84552	-3.20698	13.4002	3.05481	0
0.0833	1.842	-6.43974	-32.9095	25.2866	3.24221	4.3118	-1.39171	-9.18448	2.44222	-0.32015
0.0840	4.27187	-9.19134	-13.3807	5.75698	2.02638	-1.18647	3.81207	-35.123	1.21702	-0.32015
0.0847	4.85974	-6.43974	-2.39449	-14.9939	1.11451	-2.72019	6.53498	-45.5013	0	0
0.0853	2.42987	-10.7163	-9.41112	-47.9565	0.202638	0.954961	4.11462	-42.7569	-2.14	-0.32015
0.0860	-4.27187	-13.4596	-12.7673	-48.8746	-0.405276	0.347259	1.36145	-44.5849	-5.18665	0
0.0867	-11.2871	-11.023	-6.05491	-2.17608	0.202638	-0.868147	2.87418	-44.5849	-3.65924	0
0.0873	-12.5021	-10.7163	0.353285	26.5078	0.506595	-1.47585	3.17673	-5.52357	0.612596	-0.32015
0.0880	-10.0722	-13.1613	8.28748	-3.09426	0.810552	-5.151	1.05891	51.5451	0.91481	-0.32015
0.0887	-4.5854	-9.80465	25.6819	-68.7073	1.11451	-8.50784	-1.39171	60.6998	-2.44222	0
0.0893	5.4868	-0.0331518	46.1282	-87.328	0.506595	-6.68473	-2.90444	21.3314	-3.35703	0
0.0900	12.1885	13.0867	56.506	-42.7688	0.506595	-3.3279	-1.9968	-8.26802	-0.612596	0
0.0907	10.6601	23.7699	53.7582	-13.1667	0.202638	-1.79417	-1.39171	-3.38845	0.91481	0
0.0913	7.64233	12.78	49.1802	-13.4697	-0.101319	0.636641	-4.14487	0.886744	1.21702	0
0.0920	4.5854	-4.30974	35.142	-15.609	-1.01319	4.60118	-5.96015	-9.49162	1.52741	0
0.0927	1.21493	-9.80465	1.57506	-19.5756	-2.22902	8.59465	-2.90444	-18.9486	1.52741	0
0.0933	-1.21493	-18.0429	-23.1451	-23.8451	-2.22902	11.3148	-1.39171	-29.3269	1.21702	0
0.0940	-3.95833	-20.1729	-23.1451	-12.8637	-1.6211	6.1349	-7.50313	-32.6857	1.52741	-0.32015
0.0947	-5.4868	-6.43974	-17.9587	19.4838	-2.53297	-1.79417	-15.1273	-19.5629	3.05481	-0.32015
0.0953	-2.7434	10.3434	-14.9067	53.0524	-5.01529	-3.00958	-16.3375	-3.69064	2.74443	0
0.0960	-1.52847	10.65	-16.4327	45.4315	-5.92716	-0.260444	-11.4665	14.6189	0.91481	0
0.0967	-3.684	-1.25977	-15.2109	-7.67597	-3.7488	0.636641	-5.05251	42.3903	-1.21702	0
0.0973	-4.5854	2.10514	1.87928	-64.7408	-1.92506	1.24434	-2.90444	61.6163	-5.18665	-0.32015
0.0980	-3.37046	12.175	21.413	-70.8467	-1.6211	7.35031	0.151273	68.9381	-7.93108	-1.2806
0.0987	-1.52847	6.06678	29.6514	-3.70944	-2.53297	7.06093	9.89324	73.5155	-7.93108	-0.6403
0.0993	1.52847	-5.22141	32.0901	75.9426	-4.66067	-6.07703	19.0604	42.3903	-8.85406	-0.6403
0.1000	1.52847	-4.61639	24.465	92.1209	-3.44484	-14.2955	26.382	-16.5113	-5.79924	-1.2806
0.1007	-0.940594	0.273503	10.731	11.8537	0.506595	-14.0061	28.8326	-40.3146	-1.82962	-0.6403
0.1013	-1.21493	3.01682	14.6957	-72.9768	3.85012	-17.6523	23.6288	-36.6488	-3.05481	0
0.1020	-0.940594	6.37344	8.90082	-67.4861	6.88969	-23.7583	11.4362	-23.8331	-5.18665	-0.32015
0.1027	-2.42987	10.65	-29.8575	-31.1722	7.19365	-29.2565	-2.29935	6.68278	-3.96962	-0.32015
0.1033	-0.313531	12.175	-55.4952	-14.0849	6.88969	-31.0797	-9.3184	8.20857	-0.91481	0
0.1040	6.11386	9.42341	-49.9996	-4.93062	7.4976	-24.6843	-9.3184	-25.3589	0.91481	0
0.1047	9.44514	5.76013	-29.2491	2.39645	5.06595	-13.6878	-10.5286	-31.1599	3.05481	-0.32015
0.1053	5.80033	5.46176	3.70949	7.58416	1.41847	-5.151	-16.0349	-2.16484	5.18665	0
0.1060	0.901403	5.76013	28.1254	7.88715	-0.405276	-2.72019	-20.6033	18.8891	3.96962	-0.96045
0.1067	-0.940594	7.59177	31.7858	6.66598	0.506595	-5.151	-18.183	22.2479	3.05481	-0.6403
0.1073	-0.627063	13.3933	33.616	5.45398	1.72242	-5.46932	-13.8868	15.2282	3.05481	0
0.1080	-0.940594	8.81839	36.9772	3.92062	1.11451	3.70409	-12.6767	9.43218	2.14	-0.32015
0.1087	-0.940594	-4.30974	29.6514	3.31462	-0.101319	16.8131	-14.1894	31.7098	0.91481	-0.32015
0.1093	1.21493	-9.80465	9.50925	2.69945	-0.101319	22.3114	-16.3375	63.1421	-0.302214	0
0.1100	1.842	-14.0729	-17.9587	2.69945	0.810552	18.6652	-14.5222	62.5328	-0.302214	0
0.1107	0.587872	-13.1613	-30.775	3.61762	1.11451	12.8486	-8.41077	46.6605	0.91481	-0.32015
0.1113	0.313531	-2.17144	-23.1451	3.31462	1.11451	3.99347	-0.786618	35.0635	1.21702	0
0.1120	-1.842	4.5418	-16.7369	-0.0459089	2.02638	-4.22498	8.68306	22.555	-0.612596	0.32015
0.1127	-2.15553	10.9484	-22.8409	-2.48826	1.41847	0.954961	13.8868	9.73436	-2.74443	0
0.1133	0.587872	15.5316	-28.0273	0.87227	-0.101319	12.2409	11.1337	-0.94619	-1.21702	-0.32015
0.1140	1.52847	10.9484	-15.2109	4.5358	-0.405276	8.59465	10.1958	-7.96583	0.91481	0
0.1147	0.313531	5.46176	0.96172	4.2328	-0.405276	-7.90014	12.6464	-23.8331	1.21702	-0.32015
0.1153	-1.842	1.79849	9.81347	3.61762	-1.01319	-14.9032	10.8311	-41.2311	1.52741	-0.32015
0.1160	-2.7434	1.79849	26.2952	3.61762	-1.31715	-8.82616	4.71971	-38.1746	1.52741	0
0.1167	-1.842	0.878523	35.7554	4.2328	-0.709233	-3.61728	1.36145	-24.7496	1.52741	0
0.1173	-3.05693	-4.61639	25.0734	4.8388	-0.709233	2.77807	0.756364	-19.5629	2.14	0
0.1180	-2.42987	-5.83472	15.309	3.31462	-0.405276	19.5622	4.71971	-21.3908	2.14	-0.32015
0.1187	3.6448	-2.4781	18.361	0.87227	-0.101319	36.3464	12.3439	-24.7496	0.302214	-0.32015
0.1193	7.3288	-0.953115	12.257	2.09345	-0.101319	44.2755	17.5476	-27.8011	-0.612596	-0.32015
0.1200	3.6448	-1.25977	-2.39449	4.5358	1.11451	44.2755	20.5731	-22.6144	-0.302214	-0.32015
0.1207	-1.21493	-2.17144	-11.5505	5.1418	2.33034	36.9541	21.511	-7.3565	-0.91481	-0.32015
0.1213	-1.842	-1.86479	-13.3807	6.05998	2.33034	26.8836	16.0047	5.76631	-0.612596	0
0.1220	0.313531	-1.25977	-5.44648	7.88715	1.11451	19.5622	7.77542	4.8548	0.612596	0
0.1227	0	-4.00308	1.27084	7.28116	-0.101319	13.4563	4.71971	-7.96583	0.612596	0
0.1233	-1.52847	-5.52807	-1.47693	6.36298	-0.101319	8.27633	5.02226	-8.57516	0	-0.32015
0.1240	-2.42987	-4.00308	-0.868492	6.97816	0.810552	3.09639	9.28815	11.5673	0.91481	0
0.1247	-4.5854	0.878523	7.98326	6.66598	0.506595	-2.72019	13.8868	26.8252	2.44222	0.32015
0.1253	-7.64233	5.46176	10.731	6.36298	0.202638	-4.83268	11.1337	30.184	1.82962	0
0.1260	-8.85726	0.273503	3.40527	6.05998	0.202638	-0.260444	5.92989	28.0439	0.302214	-0.32015
0.1267	-4.27187	-7.05305	-0.25515	5.1418	1.41847	0.954961	2.87418	12.786	0.91481	0.32015
0.1273	3.33127	0.571869	2.1835	4.5358	2.02638	-14.2955	-9.3184	-14.6783	0.302214	-0.6403
0.1280	4.27187	16.1367	3.70949	5.45398	1.11451	-33.8288	-22.1463	-27.494	0	-1.2806
0.1287	1.21493	21.3249	0.0490674	5.75698	0.202638	-40.5425	-21.5412	-19.865	1.52741	-0.32015
0.1293	2.11634	11.255	-2.6987	4.5358	-1.31715	-34.1471	-17.2451	-7.04936	1.52741	0
0.1300	5.80033	1.79849	-2.39449	4.5358	-1.6211	-21.6169	-16.0349	7.90638	1.21702	0
0.1307	4.5854	-2.4781	-8.18934	5.45398	-0.709233	-10.6493	-16.3375	16.4518	1.52741	0
0.1313	1.842	-4.91476	-16.7369	4.8388	-0.405276	-3.00958	-14.8247	9.43218	1.21702	-0.32015
0.1320	1.52847	-3.38977	-19.7889	4.2328	-1.31715	1.56266	-10.5286	-5.21643	1.21702	0
0.1327	1.52847	-1.55814	-17.9587	2.69945	-2.22902	2.48869	-6.26269	-21.698	0.302214	0
0.1333	0	-3.08312	-16.4327	1.79045	-1.6211	1.88098	-1.9968	-36.9559	0.302214	0
0.1340	-1.21493	-2.78475	-10.9371	3.92062	-1.01319	1.88098	0.453818	-38.4817	0.91481	0
0.1347	0.587872	2.40351	-2.39449	8.50233	-0.709233	4.60118	-0.151273	-17.4228	0.91481	-0.32015
0.1353	3.6448	6.68009	-6.97247	10.6417	-1.01319	3.70409	-1.08916	10.0415	0	-0.32015
0.1360	4.27187	5.76013	-10.3287	10.0265	-1.6211	-6.68473	-2.90444	21.6385	-0.302214	0
0.1367	3.05693	5.76013	-3.30714	11.8537	-1.92506	-10.0416	-3.84233	21.0292	1.52741	0
0.1373	1.52847	8.81839	-2.08536	16.4354	-1.6211	0.347259	-2.90444	18.5869	3.35703	0
0.1380	0.587872	4.23515	6.15305	20.7049	0.506595	6.45322	-1.69425	10.958	3.65924	0
0.1387	-0.313531	-3.69643	16.5259	21.6231	1.11451	0.347259	-1.39171	0.886744	2.74443	0
0.1393	-0.313531	-7.66636	14.3915	20.7049	-0.101319	-4.83268	-1.08916	-2.16484	0.91481	0
0.1400	0.313531	-9.19134	11.0352	26.2048	-0.405276	-0.578764	0.756364	3.329	1.21702	0
0.1407	0.587872	-8.27138	9.20504	21.9261	-0.405276	7.95801	2.26909	10.6508	2.74443	0
0.1413	-0.627063	-4.91476	6.45726	-7.36379	-0.101319	13.1669	4.71971	10.3437	1.21702	0
0.1420	-1.21493	1.18518	4.62705	-29.648	-0.405276	17.1314	8.07797	0.277417	-2.44222	-0.32015
0.1427	-1.21493	3.63012	2.1835	-15.912	-1.6211	23.2374	9.89324	-12.5432	-3.05481	-0.32015
0.1433	-1.842	-1.86479	1.27084	13.387	-1.01319	26.5942	13.2515	-17.1206	-1.52741	0
0.1440	0.313531	-4.91476	-0.868492	6.97816	0.202638	30.2404	16.6097	-10.101	-0.91481	0
0.1447	1.842	-2.4781	-8.80268	-24.1481	0.810552	32.7002	14.1894	-0.94619	-1.21702	0
0.1453	0	-3.08312	-17.6495	-27.5086	1.41847	32.7002	8.68306	1.80321	-2.44222	0
0.1460	-0.313531	-3.08312	-19.7889	-14.0849	1.72242	31.7742	5.02226	-3.08131	-2.74443	0
0.1467	0.587872	-0.339806	-17.6495	-5.23362	2.33034	17.1314	3.17673	-8.57516	0.302214	0
0.1473	-0.940594	-0.646461	-15.2109	0.87227	2.93825	-6.68473	2.57164	-4.6071	3.65924	0
0.1480	-0.940594	-3.08312	-5.13735	5.1418	2.63429	-21.6169	-0.151273	1.80321	4.57405	0.32015
0.1487	1.21493	-1.86479	12.5612	8.80533	2.63429	-32.324	-5.6576	-0.94619	3.96962	0.32015
0.1493	1.21493	-0.953115	21.1039	4.5358	2.63429	-40.5425	-8.71331	-8.57516	2.14	0
0.1500	0	-0.646461	18.9694	-11.6425	3.24221	-36.8962	-6.56524	-11.3196	-0.302214	-0.32015
0.1507	-0.940594	0.571869	14.3915	-22.9361	3.54616	-27.4334	-2.29935	0.579603	-1.21702	-0.32015
0.1513	-1.842	1.18518	8.59169	-23.5421	2.93825	-22.2535	-0.786618	16.1447	-0.91481	0
0.1520	-1.52847	1.18518	4.32283	-26.9026	2.02638	-20.1121	-1.69425	16.1447	-0.612596	0
0.1527	-0.940594	-0.339806	1.57506	-22.0179	1.11451	-17.9706	-3.84233	7.2921	-0.91481	0
0.1533	-0.627063	-1.86479	0.657503	-2.48826	1.11451	-14.6138	-2.90444	4.54766	-0.91481	0
0.1540	-0.940594	-1.55814	2.48772	6.05998	2.02638	-11.257	-0.151273	5.76631	0.612596	-0.32015
0.1547	-1.52847	-2.17144	6.76148	1.17527	1.41847	-9.11554	0.756364	4.8548	1.21702	0
0.1553	-2.15553	-3.38977	11.9528	3.92062	0.202638	-7.29243	-0.786618	2.41254	-0.612596	0
0.1560	-2.15553	-0.339806	13.4788	10.0265	-0.709233	-6.07703	-1.9968	1.80321	-1.52741	0
0.1567	-1.842	4.23515	18.6652	7.28116	-1.31715	-5.75871	-0.484073	5.46412	-1.52741	-0.32015
0.1573	-4.89893	1.79849	28.4296	3.61762	-1.01319	-5.46932	0.756364	7.2921	-1.21702	-0.96045
0.1580	-8.54373	-2.78475	18.0519	3.61762	-0.101319	-3.9356	1.05891	4.54766	0.612596	-0.6403
0.1587	-8.2302	1.79849	-1.17271	3.31462	-1.01319	-3.00958	0.453818	0.886744	1.21702	0.32015
0.1593	-4.89893	12.4734	2.79684	6.05998	-1.92506	-3.3279	-1.39171	-12.8454	-0.612596	-0.32015
0.1600	-2.7434	18.5816	8.59169	9.72351	-0.405276	-3.00958	0.151273	-35.7373	-1.21702	-0.32015
0.1607	-3.05693	22.8499	-0.25515	6.05998	0.810552	-2.40187	0.756364	-33.295	-1.21702	0
0.1613	-3.95833	25.9081	-1.78115	4.8388	1.41847	-0.868147	-0.786618	-6.44004	0	0
0.1620	-2.15553	14.0066	12.257	12.4689	1.11451	-0.260444	-1.39171	4.8548	2.74443	0
0.1627	1.21493	-6.14138	7.67904	17.3536	-0.709233	-0.868147	-2.29935	3.02186	3.35703	0
0.1633	3.6448	-14.9846	-23.7535	15.5172	-0.709233	0.347259	-1.39171	7.2921	2.44222	0
0.1640	3.33127	-16.5179	-39.6219	12.4689	0.506595	1.88098	1.664	20.4149	0.91481	0
0.1647	2.42987	-16.5179	-29.5533	13.387	0.506595	1.56266	2.57164	34.4542	-1.21702	-0.32015
0.1653	2.11634	-14.3796	-16.4327	26.2048	-1.31715	3.09639	-0.151273	37.2036	-1.82962	0
0.1660	-0.627063	-15.5979	-6.35913	31.9985	-3.14089	5.23782	-2.60189	30.184	0	0
0.1667	-3.37046	-18.0429	0.96172	13.0749	-2.22902	4.9195	-1.08916	6.68278	2.14	0
0.1673	-2.15553	-11.628	-4.2247	-0.0459089	-1.31715	4.60118	1.36145	-6.44004	4.57405	0
0.1680	-2.7434	-1.55814	-17.0411	10.3295	-1.31715	3.70409	2.26909	25.2994	5.79924	0
0.1687	-6.4274	6.06678	-20.3973	17.3536	-1.01319	2.77807	1.36145	53.9873	4.57405	0
0.1693	-6.4274	12.78	-13.0715	0.569271	-1.31715	2.77807	0.151273	26.5181	3.96962	0
0.1700	-1.52847	15.5316	2.1835	-12.8637	-1.31715	2.77807	-0.151273	-22.9166	3.96962	0
0.1707	1.21493	16.4433	21.7172	-10.4213	-0.405276	2.17037	0.756364	-42.7569	3.35703	0
0.1713	3.6448	10.65	36.3638	-8.58497	-0.101319	2.77807	-0.151273	-39.7004	2.44222	0
0.1720	7.01527	-11.9347	29.0381	3.61762	-1.31715	4.9195	-1.9968	-26.8847	2.74443	0
0.1727	7.3288	-28.7178	0.657503	-25.0663	-2.22902	4.3118	-3.20698	-0.336863	-0.91481	0
0.1733	8.2302	-28.1127	-26.5013	-93.4247	-0.709233	-0.260444	-1.39171	17.6705	-10.0711	0
0.1740	8.85726	-18.6479	-46.9476	-77.5585	1.11451	-2.40187	1.664	15.5354	-14.0407	0
0.1747	3.33127	3.01682	-51.2214	-3.70944	0.810552	-1.47585	1.664	4.8548	-8.54367	0
0.1753	-0.940594	18.2749	-38.7092	13.69	-0.405276	-4.83268	-1.69425	1.49607	-3.35703	0
0.1760	0.901403	11.8684	-26.1971	-8.28197	-0.709233	-12.4724	-5.96015	7.2921	-2.44222	0
0.1767	4.5854	0.571869	-10.0245	-14.3879	-0.709233	-17.9706	-9.01586	-4.29996	-0.91481	0
0.1773	5.4868	-0.339806	1.87928	-9.50315	-5.31925	-18.8967	-10.8614	-25.9682	3.05481	0
0.1780	3.05693	-0.339806	8.59169	-3.09426	-12.0063	-17.3629	-13.5843	-32.3785	6.10146	-0.32015
0.1787	2.7434	-7.66636	20.1912	9.10833	-15.3498	-14.6138	-16.9425	-26.5825	6.41184	-0.32015
0.1793	2.7434	-9.80465	27.5121	16.4354	-15.3498	-8.18952	-14.8247	-12.2361	5.18665	0
0.1800	-0.627063	-3.38977	21.7172	19.1808	-11.3984	0.0289382	-8.10822	2.1054	5.49703	0
0.1807	-3.37046	0.878523	4.01371	24.6715	-5.92716	7.35031	-4.14487	22.555	5.49703	0
0.1813	-3.684	2.71016	-9.71534	29.5562	-2.53297	14.6717	-1.69425	49.7121	5.49703	-0.32015
0.1820	-2.42987	2.10514	-8.80268	28.6472	-1.92506	20.4883	1.664	41.781	4.57405	0
0.1827	0	1.79849	0.96172	18.5748	-1.01319	22.3114	0.453818	6.68278	2.74443	0
0.1833	1.842	7.59177	10.4268	-3.39726	2.93825	21.7037	-6.56524	-8.8823	1.82962	0
0.1840	0.313531	10.9484	7.98326	21.9261	6.58573	25.9865	-4.44742	-13.4597	0.91481	0
0.1847	-1.842	3.01682	-3.30714	115.92	10.5878	35.131	16.6097	-17.7299	-0.91481	0.32015
0.1853	-2.42987	-6.43974	-15.5151	98.5297	14.2353	32.7002	34.6112	-17.7299	-6.10146	0
0.1860	-2.15553	-6.7464	-30.4708	-76.9526	13.0195	14.99	35.2466	-24.1402	-14.6451	0
0.1867	-1.842	0.273503	-29.2491	-173.995	8.76409	-1.18647	24.5667	-25.9682	-18.3125	0
0.1873	-2.7434	5.46176	-7.88512	-120.281	5.36991	-10.0416	7.77542	-9.18448	-13.4281	-0.96045
0.1880	-3.05693	6.06678	4.32283	-56.5047	3.85012	-14.6138	-1.08916	19.8056	-7.32665	-0.96045
0.1887	-0.313531	3.92849	8.28748	-33.9175	2.33034	-13.3984	2.87418	39.3387	-3.05481	0
0.1893	1.52847	-1.55814	16.2217	-25.0663	0.506595	-10.6493	8.68306	21.9407	-0.91481	0.32015
0.1900	-0.940594	-6.14138	23.8516	-24.1481	0.202638	-6.97411	13.554	-9.49162	0.302214	-0.32015
0.1907	-1.842	-4.00308	28.7338	-22.6239	0.810552	-3.00958	15.7021	-16.8135	0.91481	-0.32015
0.1913	1.21493	0.878523	22.939	-2.17608	1.72242	-1.79417	10.8311	-8.8823	0	0
0.1920	3.6448	4.5418	3.10106	19.7959	1.72242	-1.18647	1.96655	-3.69064	-0.612596	0
0.1927	2.42987	10.0367	-10.6329	15.8294	1.41847	0.636641	-4.14487	-0.63905	-0.91481	-0.32015
0.1933	-0.940594	5.46176	-2.39449	3.61762	4.15408	3.09639	-0.151273	2.1054	-1.82962	-0.32015
0.1940	-3.37046	-7.66636	15.6132	-2.17608	7.80156	5.23782	11.4362	5.15698	-3.05481	-0.32015
0.1947	-1.52847	-4.91476	23.8516	-4.31544	7.4976	9.20236	18.1527	12.1766	-2.44222	-0.32015
0.1953	2.7434	13.0867	13.783	-2.48826	4.76199	12.5592	18.1527	12.4838	-0.612596	0
0.1960	3.33127	18.2749	-10.0245	-0.954906	2.33034	10.4178	15.7021	-8.26802	-0.302214	-0.32015
0.1967	0.901403	4.84845	-22.2275	-0.0459089	1.41847	7.35031	13.554	-36.3466	0.302214	0
0.1973	1.52847	-5.52807	-16.4327	1.79045	2.02638	10.4178	11.1337	-51.6045	0.91481	0
0.1980	4.85974	-7.66636	-15.5151	2.69945	1.41847	16.8131	9.59069	-46.1107	0.91481	0
0.1987	3.6448	-7.05305	-17.3453	1.47827	-1.01319	15.916	6.86778	-16.8135	0.302214	0
0.1993	-1.21493	-2.78475	-8.18934	1.79045	-5.31925	10.7071	2.57164	17.3633	0	-0.32015
0.2000	-4.27187	-1.86479	3.40527	2.69945	-7.14299	10.7071	4.11462	40.8645	0	-0.32015
0.2007	-4.5854	-10.7163	12.257	3.01163	-6.23112	13.4563	7.77542	42.3903	0.302214	0
0.2013	-0.940594	-15.9046	19.887	3.31462	-6.23112	15.916	7.17033	12.4838	1.21702	0
0.2020	2.11634	-13.4596	22.3256	3.01163	-7.14299	18.0575	4.71971	-20.7815	0.91481	0
0.2027	1.21493	-10.103	19.5779	-0.0459089	-5.92716	14.3823	1.664	-32.9879	-1.21702	-0.32015
0.2033	-2.15553	-4.00308	14.6957	-1.26709	-4.35672	9.49174	-1.69425	-23.8331	-1.52741	0
0.2040	-2.7434	1.49183	11.0352	3.31462	-4.05276	13.1669	-0.786618	-5.52357	0.91481	0.32015
0.2047	1.21493	2.10514	7.0657	7.28116	-1.6211	12.8486	1.36145	10.6508	2.14	0
0.2053	2.7434	1.49183	-3.30714	5.45398	1.72242	-3.9356	-0.151273	25.9088	0.612596	-0.32015
0.2060	1.52847	6.37344	-14.5975	1.17527	2.63429	-17.3629	0.756364	24.0808	-1.82962	-0.32015
0.2067	2.11634	13.0867	-17.9587	-0.0459089	3.54616	-15.2215	4.71971	-2.77417	-1.52741	-0.32015
0.2073	1.21493	12.4734	-13.9891	3.61762	5.06595	-14.6138	-0.151273	-15.5948	0.91481	0
0.2080	-1.842	12.4734	-11.2413	6.97816	5.97782	-16.7552	-13.8868	-2.77417	2.74443	0
0.2087	-3.95833	14.6117	-14.2933	8.19934	5.67386	-16.4369	-22.1463	6.98992	3.65924	0
0.2093	-5.21246	5.15511	-15.8193	6.97816	4.45803	-20.4014	-24.8995	4.24052	3.05481	0
0.2100	-6.4274	-7.3597	-7.58091	6.97816	4.76199	-23.7583	-25.5046	-3.99778	2.44222	0
0.2107	-5.80033	-11.3296	-5.13735	7.88715	5.06595	-19.186	-21.8438	-13.1525	3.05481	0
0.2113	-1.52847	-12.8546	-11.8547	7.58416	3.24221	-11.8647	-19.0906	-14.6783	3.65924	0
0.2120	2.7434	-8.88469	-5.44648	6.36298	1.11451	-7.58181	-18.7881	-0.63905	3.05481	0
0.2127	4.27187	-1.86479	4.62705	4.5358	-1.01319	-6.07703	-19.3932	11.8695	1.52741	-0.32015
0.2133	3.6448	-0.339806	7.37482	3.92062	-0.101319	-3.61728	-16.0349	10.958	0.91481	-0.32015
0.2140	2.11634	-0.646461	17.4434	3.31462	1.11451	-5.46932	-6.56524	9.43218	0.91481	-0.32015
0.2147	2.11634	1.49183	27.2078	1.79045	1.72242	-15.2215	1.664	8.8179	0	0
0.2153	2.11634	3.32347	22.939	-0.348908	1.41847	-22.8612	0.453818	3.329	-1.21702	0
0.2160	1.52847	3.01682	12.5612	-2.79126	-1.6211	-21.6169	-3.50953	-3.99778	-2.44222	-0.32015
0.2167	2.11634	2.10514	7.67904	-2.79126	-3.44484	-13.0801	0.453818	-6.74222	-2.44222	0
0.2173	0.901403	-0.339806	4.32283	-1.57009	-2.83693	-6.68473	7.17033	-4.6071	-1.52741	0
0.2180	-1.52847	-1.86479	0.96172	-0.0459089	-1.92506	-6.07703	9.28815	0.579603	-0.91481	0
0.2187	-2.15553	-0.646461	-2.6987	2.09345	-2.83693	-6.97411	5.62735	1.80321	0.302214	0
0.2193	-1.21493	-0.0331518	-9.41112	3.31462	-4.66067	-8.18952	0.151273	-1.55552	0.612596	-0.32015
0.2200	-1.52847	-0.953115	-9.1069	2.39645	-2.83693	-8.82616	1.05891	1.18893	-0.302214	-1.2806
0.2207	-2.42987	-0.339806	-0.25515	-0.0459089	0.506595	-10.3309	3.50953	5.76631	0.302214	-0.6403
0.2213	-1.52847	0.571869	6.76148	-1.57009	0.810552	-12.4724	4.41716	3.93833	1.52741	0
0.2220	2.11634	0.571869	7.0657	0.87227	-0.405276	-8.18952	4.11462	3.93833	1.52741	0
0.2227	5.17327	-0.339806	4.01371	6.66598	-1.31715	3.09639	-1.69425	7.2921	2.14	0
0.2233	3.95833	-0.646461	3.70949	10.6417	0.810552	16.8131	-4.14487	8.8179	3.65924	0
0.2240	1.842	-1.55814	3.40527	7.28116	5.06595	26.5942	2.87418	3.93833	3.05481	-0.32015
0.2247	-0.313531	-4.61639	1.57506	-2.79126	7.19365	25.9865	8.9856	-7.3565	1.82962	0
0.2253	-3.37046	-5.52807	4.62705	-11.0273	4.45803	21.7037	6.86778	-16.8135	1.21702	0.32015
0.2260	-4.89893	-2.4781	11.9528	-8.89715	0.202638	18.3468	2.26909	-17.7299	0.612596	0
0.2267	-3.95833	-0.0331518	11.9528	1.79045	0.202638	4.60118	1.05891	-9.79381	1.52741	-0.32015
0.2273	-3.37046	0.571869	-6.05491	5.45398	0.810552	-12.4724	-0.786618	1.18893	3.35703	0
0.2280	-2.7434	2.40351	-19.7889	0.25709	-0.101319	-17.9706	-5.96015	7.2921	4.27184	0.32015
0.2287	-0.940594	2.10514	-10.9371	-4.31544	-1.01319	-20.4014	-10.5286	4.24052	3.96962	0
0.2293	0.901403	-1.86479	-3.00292	-5.83962	-2.22902	-22.8612	-13.2817	-3.69064	3.35703	0
0.2300	2.11634	-3.08312	-0.868492	-4.01244	-1.6211	-22.5429	-12.3741	-10.7103	2.74443	0
0.2307	0.901403	-1.25977	0.657503	1.17527	0.202638	-21.6169	-7.50313	-18.3392	2.44222	0
0.2313	-1.21493	2.40351	0.657503	10.6417	0.202638	-20.7198	-4.44742	-24.4424	2.14	0
0.2320	-1.842	5.76013	6.15305	20.7049	-1.01319	-16.7552	-4.14487	-25.3589	0.302214	0
0.2327	-2.42987	8.81839	8.28748	27.729	-2.22902	-8.50784	-4.14487	-16.2041	-2.14	0
0.2333	-2.42987	13.0867	2.48772	41.7679	-1.92506	0.347259	-1.9968	-0.63905	-1.82962	-0.32015
0.2340	2.7434	16.4433	1.87928	59.7734	-0.709233	4.9195	0.151273	9.43218	1.52741	0
0.2347	8.85726	19.4933	6.45726	73.8124	-0.709233	6.74261	0.756364	16.4518	4.88443	0.32015
0.2353	4.5854	19.7999	8.28748	100.054	-2.53297	8.59465	-1.08916	18.5869	7.01627	0
0.2360	-3.95833	4.5418	8.90082	119.584	-4.05276	12.8486	-3.50953	11.2602	9.76887	0
0.2367	-6.11386	-17.4296	7.67904	96.0874	-3.14089	15.916	-2.90444	7.59924	10.0711	-0.32015
0.2373	-3.95833	-19.2612	2.1835	82.9666	-0.709233	14.6717	1.36145	7.59924	5.79924	-0.32015
0.2380	-1.21493	-4.30974	-8.18934	120.805	-1.01319	14.6717	2.87418	10.6508	3.96962	0
0.2387	3.33127	7.28511	-17.9587	154.373	-2.53297	16.5237	-2.90444	15.8375	5.18665	0
0.2393	5.17327	11.5617	-21.0106	143.998	-3.7488	14.99	-9.62095	12.1766	4.57405	-0.32015
0.2400	1.52847	6.68009	-23.4493	142.171	-2.53297	12.8486	-8.71331	6.07345	4.57405	-0.32015
0.2407	-2.42987	-4.30974	-25.8928	167.494	-1.01319	11.6332	-3.50953	8.51571	3.35703	0
0.2413	-2.7434	-10.7163	-5.13735	66.1823	-0.709233	6.74261	0.453818	16.4518	-3.35703	0
0.2420	0.313531	-8.88469	24.465	-137.369	-1.01319	1.24434	-0.151273	17.0611	-11.5985	-0.32015
0.2427	3.33127	-4.61639	24.7692	-176.74	-1.31715	-1.47585	-2.60189	-0.94619	-13.7303	0
0.2433	2.11634	-6.43974	18.0519	-90.6793	-1.01319	-2.72019	-3.50953	-16.2041	-9.76887	0
0.2440	-1.842	-14.3796	20.1912	-76.0344	0.506595	-4.22498	-1.08916	-12.2361	-7.62886	-0.32015
0.2447	-4.5854	-19.2612	-7.88512	-89.1551	2.63429	-4.5433	3.17673	-0.336863	-8.24146	-0.32015
0.2453	-3.95833	-21.0928	-52.1341	-97.0882	1.41847	-2.72019	3.81207	3.93833	-8.24146	0
0.2460	-0.313531	-25.9745	-61.5992	-164.841	0.202638	-0.868147	2.26909	-13.1525	-10.3733	-0.32015
0.2467	2.7434	-25.3611	-52.1341	-211.53	2.02638	6.74261	5.3248	-23.5309	-12.8155	-0.32015
0.2473	2.42987	-7.97301	-36.2657	-165.144	2.63429	19.2729	11.4362	-13.1525	-10.3733	0
0.2480	1.842	10.9484	-9.71534	-94.9489	1.41847	29.6327	12.3439	-15.897	-4.57405	-0.32015
0.2487	0.313531	12.4734	-12.4631	-54.6684	0.506595	36.3464	5.62735	-16.8135	-1.82962	-1.2806
0.2493	-0.940594	11.5617	-26.8055	-50.7018	0.506595	36.9541	0.756364	6.38059	-3.35703	-1.2806
0.2500	0	12.4734	0.353285	-60.7742	1.41847	29.3434	1.96655	16.1447	-3.96962	-0.32015
0.2507	0	7.89842	28.1254	-58.6349	2.33034	20.1699	3.17673	-4.91424	-2.74443	-1.2806
0.2513	1.21493	10.65	11.6437	-45.8171	2.63429	14.6717	3.17673	-10.4081	-1.21702	-1.2806
0.2520	1.842	7.59177	-8.18934	-37.8841	1.11451	11.6332	2.26909	11.8695	-1.21702	0
0.2527	0	-4.30974	-4.2247	-34.5327	-0.709233	8.88404	-0.786618	18.5869	-1.52741	0
0.2533	-0.627063	2.10514	5.5397	-29.345	-0.101319	6.45322	-1.39171	11.2602	-0.91481	-0.32015
0.2540	-1.52847	10.0367	17.1392	-25.3693	0.506595	4.60118	1.36145	14.0096	0.302214	-0.32015
0.2547	-2.42987	4.5418	34.8378	-22.9361	0.202638	5.23782	1.664	22.2479	0.91481	-0.32015
0.2553	-4.5854	10.0367	43.3854	-21.7149	-0.405276	2.77807	-0.484073	21.9407	0	-0.32015
0.2560	-7.01527	18.5816	33.3118	-20.7967	-1.6211	-10.0416	-2.29935	11.2602	-0.91481	0
0.2567	-4.27187	14.0066	28.1254	-17.1332	-2.22902	-28.3305	-3.20698	10.0415	-1.21702	0
0.2573	1.21493	5.76013	32.3992	-11.6425	-0.709233	-40.2531	-1.69425	19.5034	-0.302214	-0.32015
0.2580	3.33127	-5.22141	25.991	-6.4548	-0.405276	-38.7193	-0.484073	19.8056	0.612596	-0.32015
0.2587	6.70174	-13.1613	11.9528	-3.39726	-1.92506	-27.1151	-1.39171	10.0415	0.302214	-0.32015
0.2593	9.44514	-9.498	0.96172	-2.48826	-3.14089	-15.5398	-2.60189	5.76631	0.302214	-0.32015
0.2600	4.85974	-3.08312	-3.92048	-0.954906	-1.6211	-8.18952	-0.484073	3.63119	1.52741	-0.32015
0.2607	-0.313531	-0.646461	-2.08536	0.569271	0.202638	-4.83268	2.57164	-3.38845	1.82962	-0.32015
0.2613	-2.15553	1.49183	4.93127	0.25709	0.506595	-3.9356	3.17673	-3.38845	1.21702	0
0.2620	-2.7434	5.46176	11.0352	0.87227	0.810552	-4.83268	0.756364	3.63119	0.612596	0
0.2627	-3.05693	4.23515	10.731	2.69945	1.41847	-6.36641	-1.08916	-0.0297232	0	0
0.2633	-5.21246	-0.646461	7.67904	5.1418	1.41847	-7.29243	-1.08916	-4.29996	-0.612596	-0.32015
0.2640	-7.3288	5.46176	-0.25515	6.97816	1.41847	-6.68473	-0.151273	0.277417	0	-0.32015
0.2647	-6.70174	17.0566	-20.0931	8.50233	0.202638	-5.75871	-0.786618	5.15698	1.21702	-0.32015
0.2653	-3.95833	12.4734	-28.3315	10.3295	-1.01319	-4.22498	-5.35506	1.49607	1.52741	-0.32015
0.2660	1.842	-9.498	-7.27669	9.72351	-2.83693	-3.61728	-12.3741	-11.0174	1.21702	-0.32015
0.2667	3.6448	-23.5295	5.5397	9.72351	-2.53297	-2.11249	-15.7324	-15.2877	1.21702	-0.32015
0.2673	3.05693	-17.4296	15.9175	11.8537	-1.01319	0.347259	-14.1894	-1.86266	1.82962	0
0.2680	4.85974	-2.78475	53.1498	11.5507	-0.709233	0.954961	-12.9792	23.7736	1.82962	0
0.2687	6.3882	3.63012	59.2537	10.9447	-1.01319	1.24434	-14.8247	48.4935	1.52741	0
0.2693	2.7434	3.32347	4.32283	11.8537	-1.92506	1.24434	-16.64	60.6998	0.91481	-0.32015
0.2700	0.313531	3.32347	-27.1097	9.42051	-1.31715	-1.79417	-13.8868	40.8645	0.612596	0
0.2707	2.11634	-2.78475	-3.00292	6.36298	0.810552	-12.183	-6.56524	-19.5629	1.21702	0
0.2713	2.11634	-9.498	10.731	7.58416	0.506595	-22.5429	0.756364	-62.2851	0.91481	0
0.2720	-0.313531	-10.103	-0.559368	8.80533	-1.31715	-27.1151	1.96655	-64.118	0.612596	0
0.2727	-0.313531	-13.1613	-16.1235	7.88715	-2.22902	-30.7903	2.87418	-54.0468	-0.612596	0
0.2733	0.901403	-15.5979	-26.8055	6.05998	-1.01319	-32.6134	13.2515	-32.6857	-1.21702	-0.32015
0.2740	-1.52847	-8.57803	-19.7889	5.45398	0.202638	-29.5749	20.5731	-14.6783	-0.302214	0
0.2747	-7.95586	2.40351	-3.30714	5.1418	0.202638	-20.1121	19.6655	-8.8823	0	0
0.2753	-11.2871	0.571869	-1.17271	5.45398	-0.709233	-12.183	20.2705	-15.5948	-0.91481	-0.32015
0.2760	-5.4868	5.46176	5.5397	10.3295	-2.83693	-11.8647	17.2148	-34.8208	-0.91481	-0.32015
0.2767	1.21493	27.1265	29.6514	16.4354	-3.7488	-9.11554	9.28815	-30.2434	1.52741	-0.32015
0.2773	0.901403	24.0765	21.7172	22.8443	-1.92506	0.636641	4.11462	2.71472	2.14	-1.2806
0.2780	1.842	9.42341	-11.8547	31.9985	0.506595	7.35031	2.57164	32.0119	2.14	-0.6403
0.2787	6.11386	5.46176	-26.8055	28.335	1.41847	11.9515	8.07797	39.948	2.44222	0.32015
0.2793	8.85726	-7.66636	-27.1097	16.7384	-0.709233	22.3114	16.6097	23.7736	2.44222	0
0.2800	10.3857	-15.2913	-14.9067	34.4409	-2.22902	32.0925	21.511	12.1766	4.88443	0
0.2807	7.3288	-8.27138	-1.47693	66.7883	-2.22902	38.8062	21.2084	12.786	7.62886	-0.32015
0.2813	0.901403	0.571869	0.353285	76.8607	-3.7488	39.7032	17.8502	8.20857	8.54367	-0.32015
0.2820	-0.627063	9.73006	1.27084	65.2641	-4.66067	31.1665	12.0413	-5.52357	7.32665	0
0.2827	3.05693	12.175	8.59169	32.9167	-3.14089	20.7776	2.87418	-22.0002	2.74443	0
0.2833	3.6448	5.15511	11.9528	1.79045	-1.31715	13.4563	-2.90444	-26.8847	-0.612596	-0.32015
0.2840	1.52847	-2.17144	-1.78115	-5.53662	-0.405276	7.66863	-4.14487	-14.9855	0.612596	-0.32015
0.2847	0.313531	-6.43974	-17.3453	-29.0328	-0.405276	1.56266	-5.96015	2.41254	0.612596	0
0.2853	0.313531	-7.3597	-17.0411	-69.3225	-0.709233	-3.3279	-10.226	17.9776	-1.82962	0
0.2860	0.901403	-4.30974	-12.7673	-54.3654	-2.83693	-3.9356	-15.1273	26.5181	-4.57405	0
0.2867	0.901403	-0.953115	-6.97247	29.8592	-3.14089	-2.72019	-12.9792	21.3314	-6.10146	0
0.2873	0	0.273503	-0.559368	89.0633	-1.6211	-0.260444	-10.226	11.8695	-4.57405	0
0.2880	-0.313531	-0.339806	-3.61136	17.6566	-0.709233	5.5272	-12.9792	-0.94619	-3.65924	-0.32015
0.2887	0	-1.86479	-9.71534	-103.8	-1.01319	13.4563	-15.7324	-30.2434	-7.32665	-0.32015
0.2893	0.901403	-1.55814	-10.9371	-113.267	-0.709233	19.5622	-19.0906	-42.1426	-8.85406	-0.32015
0.2900	1.842	2.10514	-6.05491	-59.2501	1.72242	17.1314	-18.183	-10.101	-5.79924	-0.32015
0.2907	1.21493	4.84845	-0.868492	-35.1387	3.54616	7.35031	-10.226	22.2479	-4.57405	-0.32015
0.2913	-0.627063	2.10514	-1.47693	-21.4027	2.02638	5.5272	-6.86778	39.6409	-3.96962	-0.32015
0.2920	-2.15553	-1.55814	-6.66335	-2.79126	-1.01319	16.8131	-2.90444	51.8522	-2.74443	0
0.2927	-1.842	-3.08312	-10.0245	21.6231	-1.6211	25.3788	8.68306	49.1028	-5.18665	0
0.2933	0	-1.25977	-6.35913	42.9891	-1.01319	21.096	11.7388	37.2036	-5.79924	-0.32015
0.2940	0	4.23515	-1.78115	42.6769	-0.709233	13.4563	2.26909	18.5869	-1.52741	-0.32015
0.2947	-2.7434	13.0867	-1.47693	34.4409	-0.405276	6.74261	-6.26269	-16.2041	1.82962	0
0.2953	-3.95833	21.0183	0.353285	29.8592	0.202638	-4.22498	-9.3184	-52.521	2.14	0
0.2960	-2.42987	21.3249	3.40527	30.7773	-1.31715	-13.0801	-4.14487	-62.8944	0.91481	-0.32015
0.2967	-0.313531	15.8383	-0.25515	39.9316	-2.22902	-9.72324	11.4362	-52.8232	1.52741	0
0.2973	0	4.5418	-10.0245	24.0655	-0.709233	0.347259	27.5922	-44.892	1.82962	0
0.2980	-1.52847	-16.5179	-17.6495	-14.3879	0.202638	5.23782	29.1351	-35.123	1.52741	-0.32015
0.2987	-1.21493	-29.0244	-19.1755	-23.2391	-1.92506	6.45322	16.3072	-7.04936	3.96962	-0.32015
0.2993	1.21493	-21.0928	-19.1755	-2.48826	-4.35672	4.60118	5.92989	30.7933	6.41184	-0.32015
0.3000	1.21493	-11.628	-15.5151	18.8778	-1.31715	-4.22498	9.59069	56.1224	5.79924	-0.32015
0.3007	-0.627063	-8.27138	4.01371	23.1473	4.15408	-17.9706	21.2084	57.9554	2.74443	-0.32015
0.3013	-1.21493	-4.30974	29.0381	5.75698	5.97782	-23.7583	27.2896	42.6925	-0.612596	-0.32015
0.3020	-2.15553	-0.339806	29.6514	-11.9455	5.97782	-15.2215	23.9314	27.1324	-2.14	0
0.3027	-1.52847	3.01682	11.3395	-11.0273	6.58573	-5.75871	10.8311	8.20857	-0.612596	0.32015
0.3033	1.52847	3.01682	0.353285	-9.50315	7.4976	-2.11249	-3.84233	-12.8454	2.14	0
0.3040	1.52847	2.40351	-0.868492	-51.0048	9.06805	0.0289382	-8.71331	-6.1329	1.82962	0
0.3047	-0.627063	8.20508	0.353285	-102.891	5.36991	2.77807	-4.74996	18.2798	-1.52741	0
0.3053	-1.21493	9.73006	-1.47693	-89.1551	-4.05276	5.5272	-2.29935	7.59924	-2.44222	-0.32015
0.3060	-0.627063	-0.646461	-9.41112	-36.6629	-11.7023	6.45322	-2.29935	-26.2754	-1.52741	-0.32015
0.3067	0.313531	-5.83472	-18.2629	-6.75779	-12.3103	4.60118	-0.484073	-43.6684	-0.302214	0
0.3073	-1.21493	-2.78475	-27.1097	7.28116	-8.66277	2.77807	1.05891	-63.2015	-0.302214	-0.6403
0.3080	-2.15553	-3.38977	-33.2137	21.6231	-4.66067	4.9195	1.36145	-79.9853	-0.91481	-1.2806
0.3087	1.21493	-0.953115	-31.3835	27.426	-1.01319	7.95801	3.17673	-52.521	-0.91481	-0.32015
0.3093	0.587872	5.76013	-22.8409	24.0655	-0.709233	8.88404	1.664	-3.99778	-0.612596	0.32015
0.3100	-3.05693	8.81839	-0.559368	18.5748	-1.31715	7.66863	-2.29935	26.5181	-0.612596	-0.32015
0.3107	-3.37046	4.23515	26.9036	13.0749	2.02638	6.45322	-5.96015	54.9038	1.21702	-0.96045
0.3113	-3.05693	-2.78475	33.0076	9.10833	4.15408	6.45322	-11.769	79.0093	3.35703	-0.32015
0.3120	-4.5854	-3.69643	23.5474	7.58416	4.76199	3.09639	-14.1894	72.604	3.65924	0
0.3127	-5.21246	-7.3597	19.5779	7.58416	9.06805	-0.260444	-11.4665	48.4935	1.82962	-0.32015
0.3133	-4.89893	-20.1729	19.887	6.97816	11.8037	-2.11249	-9.92349	17.9776	0.91481	0
0.3140	-3.05693	-22.9245	18.361	6.36298	9.67596	-8.50784	-12.0716	-18.0371	0.91481	-0.32015
0.3147	3.05693	-10.7163	12.5612	6.66598	5.67386	-13.6878	-16.64	-41.8404	1.52741	-0.6403
0.3153	7.64233	-3.08312	1.57506	6.36298	3.24221	-8.82616	-16.64	-50.688	2.14	-0.32015
0.3160	6.11386	-3.38977	-5.13735	3.61762	3.24221	-0.260444	-9.3184	-48.5529	0.302214	-0.32015
0.3167	1.52847	-3.69643	-2.08536	3.61762	5.06595	7.35031	-0.786618	-29.6341	-1.21702	-0.6403
0.3173	0.313531	-2.78475	3.40527	7.88715	8.46013	2.77807	3.81207	-1.86266	-0.302214	-0.32015
0.3180	1.52847	0.273503	5.23549	7.58416	9.67596	-12.7907	6.53498	27.1324	-0.302214	0.32015
0.3187	0.901403	3.01682	3.70949	3.92062	7.19365	-11.257	5.62735	51.8522	-1.21702	0
0.3193	-0.627063	4.23515	2.48772	3.61762	2.33034	2.48869	-0.786618	64.3607	-0.302214	-0.32015
0.3200	-1.21493	5.76013	1.87928	7.28116	0.202638	-2.11249	-5.6576	65.2772	2.74443	-0.32015
0.3207	-0.940594	6.06678	1.87928	11.5507	0.810552	-17.3629	-5.35506	44.5254	4.57405	-0.32015
0.3213	-0.313531	4.84845	2.48772	12.4689	1.41847	-18.26	-4.74996	3.329	4.27184	-0.32015
0.3220	0	3.63012	1.87928	9.10833	0.202638	-7.58181	-5.6576	-31.7692	1.82962	-0.32015
0.3227	0.901403	2.10514	-0.559368	5.75698	-0.101319	-0.260444	-6.86778	-46.72	-0.612596	-0.32015
0.3233	1.21493	1.79849	-0.25515	4.8388	1.11451	-1.79417	-5.96015	-49.1623	-0.91481	-0.32015
0.3240	1.21493	3.32347	4.01371	5.1418	2.63429	-10.6493	-3.20698	-40.6168	-0.302214	-0.32015
0.3247	0	3.63012	5.23549	4.8388	3.24221	-22.8612	-2.29935	-30.2434	0	0
0.3253	-1.52847	1.18518	-0.25515	4.2328	2.63429	-31.398	-3.84233	-27.494	-0.302214	0
0.3260	-1.52847	-0.953115	-5.13735	2.69945	0.506595	-29.8642	-6.56524	-25.666	-1.52741	0
0.3267	-1.52847	-1.25977	-5.44648	2.69945	-0.709233	-21.3275	-7.50313	-22.3073	-1.52741	-0.32015
0.3273	-1.842	-0.953115	-6.05491	3.92062	0.506595	-12.7907	-4.44742	-18.6464	0	-0.32015
0.3280	-1.842	-0.339806	-7.88512	4.5358	0.506595	-8.82616	-1.39171	-14.3712	1.21702	0
0.3287	1.52847	3.32347	-0.559368	3.92062	-0.709233	-6.68473	-0.786618	-14.9855	0.302214	0
0.3293	5.80033	7.89842	10.4268	3.01163	-2.22902	-4.5433	-3.50953	-18.9486	-1.21702	0
0.3300	5.4868	7.28511	11.3395	3.01163	-2.53297	-2.72019	-4.44742	-15.5948	-0.91481	0
0.3307	0.587872	4.5418	6.15305	3.92062	-1.6211	-2.72019	-1.9968	-7.04936	0.302214	-0.32015
0.3313	-3.37046	2.40351	1.87928	4.5358	-1.6211	-3.3279	-1.69425	-0.336863	0.612596	0
0.3320	-2.7434	2.71016	-1.17271	3.92062	-1.92506	-3.00958	-4.14487	2.1054	-0.612596	0
0.3327	-0.313531	3.63012	-4.2247	3.01163	-3.14089	-3.00958	-6.86778	-0.0297232	-1.82962	-0.32015
0.3333	0	3.63012	1.87928	2.39645	-3.7488	-2.40187	-7.80567	-1.55552	-1.21702	-0.32015
0.3340	-1.21493	0.571869	14.6957	3.31462	-2.22902	-0.578764	-5.6576	-0.63905	-0.612596	0
0.3347	-1.21493	-5.22141	10.4268	4.2328	-1.01319	0.954961	-3.20698	-0.63905	-0.302214	0
0.3353	0.587872	-9.19134	-0.25515	3.92062	-1.92506	1.24434	-1.9968	-2.47198	0	-0.32015
0.3360	1.52847	-7.3597	5.5397	2.69945	-3.44484	-3.61728	0.151273	-4.6071	-0.612596	-0.6403
0.3367	1.52847	-1.55814	11.9528	3.01163	-2.22902	-11.257	5.92989	-5.21643	0	0
0.3373	-0.627063	5.76013	2.48772	2.69945	-0.405276	-12.4724	11.1337	-4.29996	0.302214	-0.32015
0.3380	-2.42987	6.37344	-6.35913	1.17527	-0.709233	-6.36641	11.7388	-4.6071	-0.612596	-1.2806
0.3387	-2.15553	-0.0331518	-3.61136	0.87227	-1.31715	-2.11249	8.9856	-6.44004	-0.612596	-0.32015
0.3393	-1.52847	-5.52807	5.84883	-0.651907	-2.22902	-3.9356	5.3248	-7.96583	-0.91481	0
0.3400	-2.42987	-4.91476	12.5612	-0.651907	-1.92506	-5.46932	5.3248	-0.94619	-0.91481	-0.32015
0.3407	-4.27187	-4.30974	6.45726	0.87227	-1.31715	-2.40187	10.8311	15.5354	0.612596	-0.32015
0.3413	-5.4868	-5.22141	0.353285	1.79045	-1.6211	-0.868147	13.554	29.5697	1.21702	-0.32015
0.3420	-7.3288	-1.25977	8.28748	1.17527	-1.31715	1.88098	14.1894	23.4665	0.612596	0
0.3427	-9.1708	-0.646461	-4.52892	-0.651907	-2.22902	10.0994	15.3996	-4.91424	-0.91481	0
0.3433	-10.0722	-3.38977	-42.6739	-1.26709	-2.22902	15.916	15.097	-19.5629	-1.52741	-0.32015
0.3440	-10.9736	-1.25977	-59.764	-0.348908	-1.01319	12.8486	11.1337	-7.3565	-0.91481	0
0.3447	-7.95586	2.40351	-52.1341	0.569271	0.810552	7.66863	0.453818	3.02186	0	0
0.3453	-1.21493	5.76013	-47.2519	1.79045	0.810552	3.99347	-10.8614	-9.18448	1.21702	0
0.3460	-0.313531	5.15511	-43.8957	2.09345	-1.31715	1.56266	-16.3375	-39.3982	0.612596	-0.32015
0.3467	0.901403	1.18518	-27.1097	1.17527	-2.22902	6.1349	-13.5843	-59.2335	0.302214	-0.32015
0.3473	8.54373	6.37344	2.1835	1.17527	-1.6211	13.1669	-8.41077	-47.0271	0.612596	-0.32015
0.3480	12.8156	19.4933	23.2432	1.47827	-1.01319	14.3823	-5.96015	-12.8454	1.21702	-0.32015
0.3487	12.8156	32.0081	33.9252	1.47827	-0.709233	10.7071	-5.96015	13.4002	0.91481	0
0.3493	13.1291	31.7014	32.3992	-0.0459089	-2.22902	6.45322	-6.86778	17.6705	-0.612596	0
0.3500	7.3288	15.5316	10.731	-0.348908	-2.22902	4.9195	-5.05251	9.43218	-0.612596	-0.32015
0.3507	0.587872	5.46176	-3.92048	1.17527	-0.405276	5.23782	-1.9968	0.579603	0.302214	-0.32015
0.3513	0.587872	-2.78475	9.50925	1.79045	0.202638	5.23782	-1.69425	14.926	0.612596	-0.32015
0.3520	2.11634	-25.9745	27.5121	1.17527	-0.709233	5.5272	-2.90444	37.5058	0.302214	-0.32015
0.3527	2.11634	-28.7178	35.142	0.25709	-1.92506	5.23782	-4.44742	37.5058	-0.612596	0
0.3533	0	-7.66636	34.5336	1.17527	-1.31715	4.3118	-3.50953	38.1151	0	-0.32015
0.3540	-0.627063	1.49183	25.991	3.01163	0.202638	4.3118	-1.39171	46.0512	0.91481	-0.32015
0.3547	2.11634	1.49183	20.4954	3.61762	0.810552	4.9195	0.151273	42.6925	0.612596	-0.32015
0.3553	3.05693	-5.52807	7.98326	2.69945	-0.101319	4.60118	-0.484073	30.7933	0.302214	-0.32015
0.3560	1.21493	-14.6863	-14.2933	-0.348908	-1.31715	3.99347	-2.29935	13.4002	0	-0.32015
0.3567	-0.627063	-4.61639	-17.3453	-0.651907	-1.31715	4.9195	-1.69425	-3.08131	0.612596	0
0.3573	-2.15553	6.68009	-4.2247	2.69945	-0.101319	5.84552	0.151273	-8.57516	1.52741	0
0.3580	-2.7434	-2.78475	11.0352	4.8388	0.202638	5.23782	0.453818	-11.3196	1.52741	-0.32015
0.3587	-1.842	-11.9347	15.309	4.5358	-0.709233	4.60118	-0.484073	-20.7815	0.91481	-0.32015
0.3593	-1.21493	-6.14138	-0.868492	4.2328	-2.22902	3.99347	-2.60189	-23.5309	0	-0.32015
0.3600	-0.313531	8.20508	-11.5505	-0.348908	-2.22902	3.99347	-3.20698	-16.5113	0.302214	0
0.3607	1.842	19.1949	-3.61136	-6.75779	-1.01319	3.70409	-0.786618	-15.897	1.52741	0
0.3613	3.33127	15.225	4.62705	-6.4548	-0.405276	4.9195	0.151273	-23.2238	2.14	0
0.3620	0.901403	2.71016	5.5397	-1.87308	-1.31715	5.84552	-1.9968	-29.0198	1.52741	0
0.3627	-0.313531	-2.78475	-1.47693	16.4354	-2.83693	4.9195	-5.35506	-23.8331	-0.302214	0.32015
0.3633	2.11634	0.878523	-9.1069	45.7345	-2.83693	4.9195	-4.44742	-8.57516	0	0
0.3640	3.05693	-7.97301	-10.9371	41.4558	-1.01319	5.23782	-1.39171	-7.3565	1.21702	-0.32015
0.3647	0.313531	-25.6678	-17.6495	5.75698	-0.405276	3.38577	0.453818	-17.4228	0.612596	-0.32015
0.3653	-1.21493	-19.2612	-26.5013	-9.50315	-1.31715	2.48869	-0.151273	-10.7103	0.612596	0
0.3660	-0.313531	0.878523	-26.8055	-0.348908	-2.83693	3.38577	-2.29935	16.1447	0.91481	0
0.3667	-0.313531	9.73006	-23.1451	11.8537	-3.14089	3.99347	-1.9968	50.0193	2.74443	0
0.3673	-1.21493	11.255	-15.8193	10.3295	-2.83693	4.60118	-1.08916	63.1421	5.49703	-0.96045
0.3680	-3.05693	5.15511	-12.7673	-0.954906	-0.709233	3.38577	0.151273	44.5254	5.49703	-1.2806
0.3687	-3.05693	-9.80465	-22.5366	2.69945	0.506595	1.88098	1.664	16.1447	3.96962	-0.32015
0.3693	-0.627063	-15.2913	-15.2109	-9.20015	-1.31715	1.56266	0.756364	-12.8454	1.52741	0
0.3700	-0.627063	-7.66636	6.76148	-38.8022	-1.31715	0.954961	2.87418	-23.2238	-1.52741	0
0.3707	-5.4868	-9.498	11.0352	-20.1816	0.506595	0.0289382	6.23244	-5.83071	-2.44222	-0.32015
0.3713	-9.48433	-8.57803	14.9999	29.2532	0.202638	0.347259	5.3248	9.73436	-2.14	0
0.3720	-8.2302	6.68009	18.0519	35.9651	-0.405276	0.954961	2.26909	13.0931	-0.612596	0.32015
0.3727	-8.54373	2.10514	9.81347	-15.912	-1.01319	0.636641	-0.786618	18.5869	-1.82962	0
0.3733	-7.3288	-12.2413	18.9694	-77.5585	-0.709233	-0.578764	0.151273	21.0292	-6.71405	-0.32015
0.3740	-1.21493	-11.3296	34.5336	-92.8187	0.506595	-1.47585	3.50953	9.12504	-7.62886	-0.32015
0.3747	0.587872	-10.103	21.413	-64.4378	-0.101319	-0.578764	2.87418	-1.86266	-3.05481	-0.32015
0.3753	-2.42987	-5.83472	2.1835	-40.9416	-1.31715	0.347259	2.26909	-1.24838	-0.302214	-0.32015
0.3760	-1.52847	-0.339806	-0.25515	-47.6535	-1.92506	-1.79417	1.96655	7.90638	-3.35703	-0.32015
0.3767	2.42987	-2.4781	1.57506	-48.8746	-1.01319	-3.61728	1.05891	18.8891	-5.49703	-0.32015
0.3773	3.95833	-0.0331518	12.8655	-11.3395	0.202638	-4.22498	0.453818	6.68278	-3.96962	-0.32015
0.3780	5.4868	4.23515	19.5779	40.2438	0.506595	-6.68473	0.151273	-19.865	-2.74443	0
0.3787	6.70174	3.63012	11.0352	66.7883	-0.405276	-9.72324	-2.90444	-11.6267	-2.74443	0
0.3793	4.85974	3.92849	8.90082	47.8647	-1.92506	-11.257	-8.41077	16.4518	-3.65924	-0.32015
0.3800	3.95833	2.71016	13.1697	14.296	-2.22902	-7.29243	-8.41077	24.0808	-3.35703	-0.32015
0.3807	4.27187	3.63012	9.20504	9.10833	-1.92506	2.77807	-3.84233	34.4542	-1.52741	-0.32015
0.3813	1.842	8.51173	-2.39449	16.1324	-3.44484	13.4563	-3.20698	47.577	-0.612596	-0.32015
0.3820	1.21493	7.28511	-13.6849	14.296	-5.92716	20.7776	-4.44742	24.9923	-1.82962	-0.32015
0.3827	3.6448	3.92849	-15.2109	13.0749	-7.7509	22.9191	-8.10822	-9.79381	-3.96962	-0.32015
0.3833	5.17327	10.3434	-9.41112	15.8294	-6.83903	24.7711	-6.26269	-19.865	-3.96962	-0.32015
0.3840	6.11386	22.8499	-2.08536	13.993	-3.7488	29.9511	4.71971	-17.7299	-2.74443	-0.32015
0.3847	6.3882	27.4331	2.79684	11.2477	-2.83693	34.5233	11.1337	-2.47198	-4.57405	-0.32015
0.3853	4.27187	17.3633	-2.39449	15.5172	-2.83693	35.4493	6.86778	27.4346	-6.10146	-0.32015
0.3860	0.587872	2.10514	-12.7673	24.9836	-2.53297	33.9156	2.57164	42.3903	-4.57405	-0.32015
0.3867	-2.15553	-16.2112	-14.2933	30.4743	-1.01319	35.131	16.6097	25.6066	-0.91481	-0.32015
0.3873	-1.842	-31.1627	-2.6987	18.2626	2.33034	38.4878	35.2466	-2.16484	0.612596	-0.32015
0.3880	-1.52847	-27.4994	5.84883	-11.0273	5.97782	35.4493	41.6303	-9.49162	-2.14	0
0.3887	-1.52847	-15.9046	4.01371	-41.2446	6.88969	18.9545	34.3087	-4.91424	-5.18665	0
0.3893	-0.313531	-2.17144	9.50925	-58.9471	5.97782	-13.0801	14.7945	-14.6783	-5.18665	-0.32015
0.3900	0	16.4433	15.309	-45.2111	6.88969	-42.6839	-1.69425	-28.1083	-0.302214	-0.32015
0.3907	-1.21493	23.4632	7.67904	-14.6909	6.88969	-52.465	-4.74996	-30.8527	5.49703	0
0.3913	0	12.78	5.5397	-2.79126	3.85012	-49.1082	1.36145	-34.2115	6.41184	0
0.3920	1.21493	5.15511	5.5397	-6.4548	1.72242	-40.5425	3.81207	-29.0198	4.27184	-0.32015
0.3927	2.11634	13.3933	-14.2933	-6.4548	1.41847	-30.7903	-7.17033	-5.52357	3.05481	-0.32015
0.3933	4.27187	19.1949	-27.1097	-2.48826	2.33034	-24.6843	-14.5222	13.4002	3.96962	0
0.3940	3.6448	5.46176	-19.1755	-0.0459089	2.93825	-27.1151	-9.3184	14.926	4.27184	0
0.3947	1.52847	-3.69643	-19.1755	0.569271	2.63429	-31.398	-8.10822	17.9776	3.96962	0
0.3953	2.11634	0.878523	-28.0273	-0.0459089	1.72242	-29.8642	-14.1894	22.8572	3.05481	0
0.3960	3.33127	-4.91476	-22.2275	-1.87308	0.202638	-28.6488	-19.3932	8.51571	1.21702	0.32015
0.3967	2.7434	-8.57803	-3.92048	-2.17608	-1.92506	-29.8642	-19.9983	-7.04936	0.302214	0
0.3973	0.587872	-0.339806	11.0352	-0.348908	-2.22902	-22.8612	-14.8247	-6.1329	0.302214	-1.2806
0.3980	-1.842	-3.69643	18.6652	0.569271	-1.01319	-15.5398	-1.9968	-1.24838	0.91481	-0.96045
0.3987	-3.37046	-15.2913	20.4954	-0.954906	-1.31715	-19.7937	9.59069	-3.38845	-0.302214	0.32015
0.3993	-4.27187	-14.0729	18.361	-2.17608	-3.14089	-20.1121	11.4362	-13.4597	-1.82962	0
0.4000	-3.95833	-5.22141	11.6437	-1.26709	-4.05276	-10.6493	11.4362	-20.1722	-0.612596	-0.32015
0.4007	-2.7434	1.18518	1.87928	-0.0459089	-2.83693	-3.3279	12.9489	-17.7299	2.14	0
0.4013	-2.7434	8.20508	-5.44648	0.25709	-2.22902	-2.40187	12.9489	-11.3196	3.65924	0
0.4020	-2.15553	6.37344	-17.9587	1.79045	-2.53297	-4.5433	10.1958	-8.26802	4.27184	-0.32015
0.4027	0	-0.953115	-33.5228	3.31462	-1.01319	-2.72019	3.17673	-2.16484	4.88443	-0.32015
0.4033	1.52847	2.40351	-36.2657	3.92062	4.15408	3.38577	-1.9968	9.43218	4.88443	0
0.4040	2.11634	7.28511	-28.6357	2.69945	8.15618	6.45322	1.05891	7.2921	3.35703	0
0.4047	1.52847	5.46176	-21.3149	1.17527	9.06805	6.1349	5.62735	-3.99778	1.21702	0
0.4053	2.42987	-0.0331518	-7.27669	-0.651907	8.15618	5.84552	5.92989	-9.18448	-1.21702	-0.32015
0.4060	4.85974	-7.05305	7.37482	-2.17608	4.76199	3.70409	4.11462	-14.069	-2.74443	-0.32015
0.4067	3.05693	-9.80465	7.37482	-0.651907	1.11451	3.09639	3.81207	-15.5948	-1.82962	-0.32015
0.4073	-1.21493	-7.3597	13.1697	2.69945	2.33034	10.0994	6.53498	-7.04936	0.302214	-0.32015
0.4080	-4.27187	-7.97301	27.2078	4.8388	4.76199	15.3083	9.89324	-0.63905	1.52741	0
0.4087	-3.95833	-10.103	25.0734	3.92062	3.24221	12.2409	8.38051	-1.24838	1.82962	0
0.4093	-2.42987	-9.498	14.0872	1.47827	0.810552	11.0255	3.81207	-0.94619	0.302214	0
0.4100	-1.842	-7.05305	8.28748	0.569271	0.202638	14.6717	1.96655	3.63119	-1.52741	0
0.4107	-0.627063	-2.17144	5.84883	1.47827	1.11451	19.5622	-1.08916	5.46412	-0.302214	-0.32015
0.4113	0.901403	6.37344	7.98326	0.569271	0.810552	23.2374	-3.84233	3.02186	0.612596	-0.32015
0.4120	1.21493	12.175	12.8655	-1.87308	-0.709233	25.0605	2.57164	2.71472	-0.91481	-0.32015
0.4127	-0.313531	11.8684	13.783	-1.87308	-3.14089	26.5942	13.554	3.02186	-2.14	-0.32015
0.4133	-0.940594	13.3933	10.1177	0.25709	-4.05276	28.128	17.5476	4.24052	-1.52741	-0.6403
0.4140	0.587872	18.5816	7.37482	1.47827	-1.92506	28.7357	8.07797	7.90638	0.302214	-0.32015
0.4147	0.901403	21.3249	7.37482	2.39645	-1.01319	26.2759	-7.80567	6.07345	2.74443	0
0.4153	0	18.2749	6.15305	2.69945	-1.31715	17.7391	-19.3932	1.18893	3.96962	-0.32015
0.4160	0	3.01682	0.96172	0.87227	-0.709233	2.17037	-27.3199	-3.38845	2.74443	-0.32015
0.4167	0	-16.2112	-3.00292	0.25709	0.202638	-7.90014	-29.7705	-6.1329	2.44222	0
0.4173	-0.627063	-21.0928	-1.47693	2.09345	1.72242	-6.07703	-25.202	-4.29996	3.05481	0
0.4180	-1.52847	-14.6863	0.353285	1.17527	3.85012	-3.9356	-14.1894	-2.77417	2.14	-0.32015
0.4187	-2.15553	-9.19134	-0.25515	-0.0459089	5.06595	-7.58181	-2.90444	-3.38845	1.21702	-0.32015
0.4193	-0.940594	-6.43974	-1.47693	2.69945	4.45803	-19.7937	-3.84233	-3.69064	1.52741	0
0.4200	0	-4.61639	-1.78115	6.36298	4.45803	-39.9347	-10.8614	-3.99778	1.82962	0
0.4207	-0.940594	-2.78475	0.353285	7.88715	5.67386	-50.0053	-11.769	-3.08131	1.82962	-0.32015
0.4213	-1.52847	-0.953115	1.57506	5.75698	4.76199	-41.1502	-9.62095	0.277417	1.21702	-0.32015
0.4220	-1.21493	-0.0331518	0.657503	2.69945	1.41847	-26.5074	-9.01586	3.329	0.612596	0
0.4227	-1.21493	-0.646461	-1.17271	1.17527	-1.31715	-16.1475	-10.8614	1.18893	0	0
0.4233	-0.313531	-1.55814	-1.47693	1.17527	-1.92506	-9.72324	-9.3184	-1.86266	-0.612596	0
0.4240	1.52847	-0.646461	0.96172	2.09345	-0.709233	-6.07703	-0.484073	-1.24838	-0.302214	-0.32015
0.4247	1.21493	0.571869	1.87928	2.39645	0.202638	-2.40187	9.28815	-0.0297232	0.612596	-0.32015
0.4253	-0.940594	0.571869	0.657503	2.09345	-0.405276	3.38577	11.4362	-0.63905	0.612596	-0.32015
0.4260	-0.940594	-0.339806	-1.47693	1.17527	-2.53297	11.0255	5.62735	-2.16484	0	-0.32015
0.4267	0	-0.953115	-2.08536	2.09345	-3.14089	17.1314	1.05891	-2.47198	0.612596	0
0.4273	-0.627063	-0.646461	-0.559368	3.61762	-1.92506	19.8806	0.453818	-1.86266	1.52741	-0.96045
0.4280	-0.627063	-0.646461	0.96172	4.5358	-1.01319	21.096	-1.69425	-1.86266	2.14	-0.96045
0.4287	-0.313531	-0.646461	0.657503	3.92062	-1.01319	19.2729	-3.50953	-1.24838	2.44222	0
0.4293	-0.627063	-0.646461	-2.08536	1.47827	-1.31715	14.064	-5.6576	-1.55552	0.612596	0.32015
0.4300	-1.21493	-1.55814	-2.6987	0.569271	-0.101319	10.0994	-5.96015	-2.77417	-0.612596	-0.32015
0.4307	-1.842	-1.86479	-0.25515	1.47827	2.33034	6.1349	-2.60189	-3.08131	0	0
0.4313	-3.05693	-1.86479	0.0490674	0.569271	3.24221	2.77807	0.453818	-3.69064	0	-0.32015
0.4320	-3.05693	-1.86479	-1.17271	-0.348908	2.02638	3.09639	-0.151273	-4.6071	0	-0.32015
0.4327	-0.940594	-1.86479	-2.39449	-0.954906	0.506595	1.24434	-2.90444	-8.26802	-0.91481	0
0.4333	2.7434	-0.0331518	-0.868492	-0.954906	-1.6211	-1.47585	-2.60189	-12.5432	-1.21702	0
0.4340	4.85974	1.79849	1.27084	-0.348908	-6.23112	-2.40187	0.453818	-10.4081	-0.91481	-0.32015
0.4347	1.842	1.79849	0.96172	-0.954906	-10.1826	-8.18952	2.26909	-2.77417	-0.302214	-0.32015
0.4353	-0.940594	1.49183	0.0490674	-0.954906	-11.0944	-15.2215	1.96655	2.41254	-0.302214	0
0.4360	-0.313531	0.878523	-1.78115	-1.87308	-11.7023	-13.6878	-0.786618	2.41254	-1.82962	0
0.4367	0.313531	0.273503	-2.08536	-2.48826	-9.27069	-6.97411	0.756364	2.41254	-2.14	0
0.4373	-0.940594	0.571869	-0.559368	-1.26709	-3.44484	-2.72019	5.92989	4.54766	-0.91481	-0.32015
0.4380	-2.15553	1.18518	-0.25515	-0.348908	1.72242	-1.18647	5.3248	4.54766	-0.302214	-0.32015
0.4387	-3.05693	-0.0331518	-2.08536	-2.17608	2.02638	1.88098	1.05891	3.93833	-1.52741	-0.32015
0.4393	-1.842	-2.17144	-4.52892	-3.09426	0.810552	1.24434	-1.39171	1.80321	-2.44222	0
0.4400	0	-1.55814	-3.61136	-0.0459089	4.45803	-6.68473	-0.151273	-0.63905	-1.21702	0
0.4407	-0.940594	-0.953115	-2.6987	3.01163	7.4976	-9.43386	2.57164	-1.55552	0.612596	-0.32015
0.4413	-1.842	-1.55814	-3.30714	2.69945	10.2839	-3.61728	3.81207	-2.16484	1.21702	-0.32015
0.4420	0.313531	-0.0331518	-1.78115	1.17527	13.6274	-2.40187	1.96655	-3.38845	0.612596	-0.32015
0.4427	2.42987	3.01682	0.657503	0.25709	10.8918	-6.07703	-2.90444	-5.52357	-0.612596	-0.32015
0.4433	4.27187	6.06678	3.10106	-0.348908	6.28178	-6.36641	-3.84233	-6.74222	-0.302214	-0.32015
0.4440	4.5854	7.28511	4.32283	-0.651907	4.15408	-4.5433	0.453818	-5.21643	0.302214	0
0.4447	1.52847	4.23515	2.1835	-0.0459089	2.63429	-1.79417	2.87418	-3.08131	0	0
0.4453	-1.21493	-0.646461	-1.47693	-0.0459089	0.810552	0.636641	1.05891	-2.77417	0	-0.32015
0.4460	-3.684	-3.08312	-5.13735	-0.954906	-1.01319	0.636641	-2.29935	-3.99778	-0.612596	-0.32015
0.4467	-6.70174	-1.55814	-4.2247	-0.954906	-1.31715	0.636641	-2.60189	-4.6071	-0.91481	0
0.4473	-6.4274	-1.25977	0.96172	0.25709	-0.405276	0.954961	0.453818	-9.18448	-0.302214	-0.32015
0.4480	-3.37046	-4.91476	4.01371	0.569271	0.202638	0.954961	2.87418	-11.0174	0.302214	-0.32015
0.4487	-2.15553	-7.66636	0.353285	-0.0459089	0.202638	1.56266	1.96655	-0.94619	0	-0.32015
0.4493	-0.313531	-4.91476	-3.92048	-0.954906	-1.31715	1.88098	-1.39171	4.8548	-0.612596	-0.32015
0.4500	1.21493	0.273503	-2.39449	-0.954906	-2.53297	1.56266	-2.60189	-0.63905	-0.91481	-0.32015
0.4507	2.42987	2.71016	0.96172	-0.0459089	-1.31715	1.24434	0.756364	-0.63905	0	-0.32015
0.4513	6.11386	4.23515	3.70949	0.25709	0.810552	1.56266	2.87418	7.2921	0.302214	-0.32015
0.4520	6.70174	6.37344	4.62705	-0.348908	0.506595	1.88098	1.36145	10.958	-0.302214	-0.32015
0.4527	1.52847	6.37344	1.57506	-0.954906	-1.92506	1.56266	-1.08916	10.3437	-0.612596	-0.32015
0.4533	-1.842	4.84845	0.0490674	-0.954906	-1.92506	1.88098	-1.69425	11.5673	-0.612596	0
0.4540	-1.842	2.71016	2.79684	0.25709	-0.405276	2.17037	0.756364	13.7024	-0.302214	0
0.4547	-3.95833	1.79849	3.10106	0.87227	-0.101319	2.17037	2.26909	14.926	0.612596	0
0.4553	-6.4274	3.01682	1.87928	-0.0459089	-1.31715	1.88098	1.05891	10.958	0.302214	0
0.4560	-3.95833	6.68009	4.62705	-0.954906	-2.22902	1.56266	-1.69425	3.329	-0.612596	0
0.4567	0.313531	9.73006	3.40527	-0.651907	-2.22902	1.56266	-2.29935	-2.16484	-1.21702	-0.32015
0.4573	-0.940594	3.01682	-13.6849	0.25709	-1.31715	1.88098	-0.786618	-6.1329	-0.612596	-1.2806
0.4580	-4.5854	-8.27138	-28.9448	1.17527	-0.405276	0.347259	1.05891	-9.18448	0	-0.96045
0.4587	-4.5854	-13.4596	-35.6572	0.25709	-0.709233	-3.61728	1.05891	-11.0174	0	0
0.4593	-4.5854	-11.023	-45.7259	-0.954906	-2.22902	-7.90014	-0.786618	-7.65869	-1.21702	0
0.4600	-4.89893	0.571869	-35.6572	-1.57009	-2.53297	-9.11554	-0.151273	3.329	-1.52741	0
0.4607	-4.5854	4.23515	-16.4327	-0.651907	-1.31715	-8.50784	2.26909	6.38059	-0.612596	0
0.4613	-5.80033	-6.14138	-11.5505	0.25709	-0.709233	-8.82616	2.57164	0.579603	0	-0.32015
0.4620	-1.52847	-4.91476	0.353285	0.25709	-1.6211	-9.11554	1.664	-6.1329	0.302214	0
0.4627	5.4868	1.18518	4.32283	-0.348908	-2.83693	-6.97411	-0.484073	-22.0002	-0.612596	0
0.4633	5.4868	-7.3597	-8.49847	-0.954906	-3.14089	-3.00958	-0.786618	-23.5309	-0.91481	-0.32015
0.4640	0.587872	-15.9046	-1.78115	-0.348908	-1.6211	0.636641	2.57164	-5.52357	0.302214	-0.32015
0.4647	-3.684	-8.88469	19.887	0.25709	-0.709233	3.38577	4.11462	-10.7103	0.302214	0
0.4653	-4.89893	-2.4781	28.7338	-0.0459089	-1.01319	5.84552	2.57164	-29.6341	-0.302214	0
0.4660	-1.21493	0.273503	35.7554	-0.954906	-1.92506	7.35031	-0.151273	-24.7496	-0.612596	0
0.4667	3.05693	8.20508	58.6404	-0.651907	-1.6211	8.88404	-1.39171	-10.101	0	0.32015
0.4673	6.3882	1.49183	68.1006	0.569271	-0.405276	11.3148	0.756364	3.93833	0.302214	0
0.4680	9.75867	-22.9245	48.5718	0.569271	-0.101319	12.2409	2.57164	25.9088	0.302214	0
0.4687	9.75867	-40.6193	19.2737	-0.0459089	-0.405276	12.2409	2.87418	33.2355	0.302214	-0.32015
0.4693	9.1316	-41.2326	-1.47693	3.31462	-1.6211	13.1669	-0.151273	19.5034	-0.612596	-0.32015
0.4700	8.54373	-23.8362	-9.71534	12.4689	-1.92506	13.1669	-1.08916	22.555	0.302214	0
0.4707	4.5854	5.76013	-13.3807	21.0171	-0.709233	11.3148	1.664	37.5058	2.74443	0
0.4713	-0.313531	24.0765	-4.83313	22.2383	0.506595	9.81006	2.26909	21.3314	2.44222	-0.32015
0.4720	-2.7434	14.305	1.57506	21.9261	0.202638	8.27633	1.05891	-5.52357	1.52741	0
0.4727	-2.42987	6.68009	-14.2933	28.6472	-1.92506	6.45322	0.151273	7.2921	0.91481	0.32015
0.4733	-3.95833	17.9683	-18.8713	43.8981	-2.83693	6.1349	0.151273	35.6778	0.91481	0
0.4740	-5.80033	20.7199	-4.52892	56.4129	-1.6211	6.45322	1.96655	52.4615	2.44222	-0.32015
0.4747	-4.27187	4.5418	-0.868492	60.3794	-1.6211	3.99347	1.96655	79.0093	3.35703	-0.32015
0.4753	-2.42987	-9.19134	-11.5505	61.9036	-1.92506	0.347259	-0.786618	74.1298	3.96962	0
0.4760	-1.52847	-13.7663	-30.4708	57.0281	-3.14089	0.347259	-4.44742	30.184	4.57405	0.32015
0.4767	0.587872	-13.4596	-46.035	25.8926	-3.14089	1.88098	-4.44742	-3.69064	3.05481	0
0.4773	3.95833	-3.08312	-46.3392	-25.9845	-1.6211	1.88098	-3.20698	-33.295	2.44222	-0.32015
0.4780	4.5854	16.75	-41.7612	-45.8171	-1.6211	0.954961	-2.90444	-45.5013	3.35703	-0.32015
0.4787	1.52847	39.3346	-28.3315	-32.0903	-1.6211	-1.79417	-0.786618	-38.4817	1.52741	0
0.4793	1.842	49.0979	-3.61136	-25.3693	-1.6211	-5.75871	1.664	-41.8404	-3.05481	-0.32015
0.4800	3.95833	30.4831	3.10106	-28.4268	-0.709233	-4.22498	6.23244	-34.8208	-5.49703	0
0.4807	1.842	-0.339806	-8.49847	-60.7742	1.11451	-0.578764	11.1337	-12.5432	-6.71405	0
0.4813	-1.21493	-14.9846	-18.8713	-101.358	1.72242	-0.578764	9.89324	-1.55552	-8.54367	-0.32015
0.4820	0	-18.0429	-20.7015	-83.9674	1.41847	3.70409	7.77542	-2.47198	-7.93108	-0.32015
0.4827	2.42987	-19.8745	-6.35913	-36.6629	-0.101319	12.5592	7.47287	-6.74222	-6.41184	0
0.4833	0.587872	-19.8745	4.62705	-14.9939	-0.405276	19.5622	6.23244	-12.2361	-4.57405	0
0.4840	-5.4868	-14.3796	9.20504	-13.4697	1.11451	20.7776	5.02226	-22.6144	-2.14	-0.32015
0.4847	-7.3288	3.32347	33.0076	-15.912	0.506595	16.2054	4.71971	-30.5456	-0.91481	-0.32015
0.4853	-1.52847	23.4632	35.4512	-19.2726	-1.01319	15.5977	2.57164	-8.8823	-1.52741	-0.32015
0.4860	6.11386	30.7898	15.309	-15.912	-1.92506	21.4143	-3.20698	25.2994	-1.82962	0
0.4867	7.3288	13.3933	28.4296	-8.28197	-1.6211	17.7391	-6.86778	40.8645	-0.612596	-0.32015
0.4873	1.52847	-17.4296	33.0076	-6.4548	1.11451	-2.11249	-3.84233	65.8865	-0.302214	-0.96045
0.4880	-1.842	-25.6678	14.3915	-8.28197	3.54616	-17.3629	-0.786618	78.7072	-1.21702	-0.6403
0.4887	-1.52847	-15.5979	16.2217	-10.1183	2.63429	-14.6138	-0.786618	20.1127	-1.82962	0.32015
0.4893	-1.842	-12.8546	24.465	-11.0273	-0.709233	-7.58181	-1.9968	-54.0468	-3.05481	0
0.4900	-2.15553	-15.5979	18.6652	-10.1183	-1.92506	-6.68473	-4.44742	-63.5087	-2.14	-0.32015
0.4907	-3.05693	-11.628	10.4268	-7.67597	-1.01319	-10.9386	-4.74996	-33.9043	0.302214	0
0.4913	-5.4868	-4.30974	7.0657	-6.75779	-1.01319	-10.9386	-2.29935	-22.0002	1.21702	-0.32015
0.4920	-6.70174	-5.83472	-6.66335	-5.23362	-2.22902	-7.29243	-1.69425	-26.5825	1.82962	-0.32015
0.4927	-4.27187	-12.548	-17.3453	-3.09426	-4.35672	-5.46932	-5.05251	-19.5629	2.74443	-0.32015
0.4933	-0.627063	-8.57803	-9.41112	-2.79126	-3.44484	0.636641	-6.56524	-1.86266	2.44222	0
0.4940	0	1.79849	-7.88512	-3.70944	-0.709233	12.8486	-4.74996	-0.336863	1.52741	0
0.4947	-0.313531	4.84845	-6.97247	-6.4548	0.506595	20.4883	-3.20698	-22.6144	0.302214	0
0.4953	3.05693	11.8684	11.6437	-9.50315	-0.405276	21.4143	-4.14487	-22.3073	-0.612596	-0.32015
0.4960	5.4868	27.4331	33.616	-5.83962	-3.14089	21.4143	-9.62095	15.2282	-0.91481	-0.32015
0.4967	0.901403	34.1464	34.8378	3.01163	-2.83693	23.8451	-7.17033	38.7294	-1.82962	-0.32015
0.4973	-3.37046	38.7213	12.8655	8.19934	0.202638	27.8096	11.7388	30.4861	-2.44222	0
0.4980	-2.7434	37.8097	-11.2413	6.97816	1.11451	28.4173	24.8692	12.786	-2.14	0
0.4987	0	21.9382	-25.2795	4.2328	0.506595	24.7711	16.9123	-1.24838	-2.14	0
0.4993	2.7434	14.9183	-31.6877	3.61762	-1.01319	22.022	7.47287	-6.44004	-1.82962	-0.32015
0.5000	4.27187	14.9183	-28.0273	6.05998	-1.31715	20.7776	12.0413	-0.94619	-0.612596	0
0.5007	3.05693	8.81839	-13.3807	11.5507	0.202638	15.916	16.0047	14.6189	1.82962	0
0.5013	0	3.92849	7.67904	17.3536	2.02638	4.3118	14.7945	30.7933	4.57405	-0.32015
0.5020	-0.627063	-2.78475	25.0734	21.0171	3.24221	-15.2215	13.2515	32.3191	5.79924	0
0.5027	1.52847	-10.7163	31.1774	23.1473	2.02638	-37.7933	2.26909	15.8375	6.10146	0
0.5033	1.21493	-18.9546	29.6514	26.2048	1.72242	-59.1787	-11.1639	1.80321	5.18665	-0.32015
0.5040	-0.313531	-25.9745	17.7477	28.9502	5.06595	-72.606	-11.4665	-3.38845	4.27184	0
0.5047	1.52847	-25.0628	-1.17271	30.4743	5.36991	-71.68	-8.41077	-17.1206	3.96962	0
0.5053	2.11634	-19.2612	-17.9587	30.1714	3.85012	-58.8603	-8.71331	-21.698	3.35703	0
0.5060	-1.52847	-11.9347	-24.6711	25.2866	2.93825	-41.1502	-9.62095	8.51571	2.14	-0.32015
0.5067	-2.15553	-2.4781	-11.5505	22.5413	1.41847	-23.1506	-9.3184	41.4738	1.52741	0
0.5073	-0.627063	6.98675	1.27084	27.1138	1.41847	-5.46932	-3.20698	27.4346	1.82962	0
0.5080	0.901403	9.42341	-2.08536	27.1138	3.54616	3.38577	2.26909	-24.1402	1.82962	0
0.5087	2.7434	6.06678	-2.6987	-0.954906	4.15408	3.09639	1.05891	-50.0787	0.302214	-0.32015
0.5093	3.6448	3.92849	-2.6987	-54.6684	1.72242	1.24434	-3.20698	-37.5652	-2.74443	-0.32015
0.5100	3.05693	1.18518	-9.41112	-76.3374	0.506595	2.48869	-4.74996	-19.865	-3.65924	-0.32015
0.5107	-1.842	-5.22141	-7.58091	-47.3505	1.72242	5.84552	-2.90444	0.277417	-1.21702	0
0.5113	-7.64233	-6.43974	-0.25515	-19.2726	1.72242	5.84552	-1.69425	14.3117	0.302214	0
0.5120	-7.01527	-3.08312	-3.61136	-11.6425	0.202638	-0.260444	-2.29935	1.49607	-0.302214	0
0.5127	-1.842	-1.25977	-6.35913	-8.89715	-1.01319	-7.29243	-4.44742	-11.9339	-0.91481	0
0.5133	0	0.878523	3.40527	-7.06079	-0.709233	-12.183	-5.35506	-3.08131	-0.91481	-0.32015
0.5140	1.21493	4.23515	15.9175	-5.23362	0.810552	-13.6878	-2.29935	7.90638	0	-0.32015
0.5147	3.05693	3.32347	21.1039	-0.954906	1.41847	-12.4724	-0.151273	8.20857	0.302214	-0.32015
0.5153	1.21493	0.878523	15.9175	5.1418	0.202638	-8.82616	-1.08916	-7.3565	0.612596	0
0.5160	4.27187	6.98675	4.93127	8.19934	-1.01319	-5.46932	-4.14487	-27.8011	0.302214	-0.32015
0.5167	9.44514	16.75	-1.78115	9.10833	-0.709233	-3.00958	-5.35506	-26.2754	0	-0.32015
0.5173	5.80033	22.2449	-5.44648	10.6417	0.506595	-1.79417	-3.50953	-8.57516	0.91481	0
0.5180	0.587872	20.1066	-9.41112	12.4689	0.810552	-0.868147	-4.14487	-1.55552	1.21702	-0.32015
0.5187	0.901403	0.571869	-11.5505	15.8294	-0.709233	0.954961	-8.10822	-5.83071	0.612596	-0.32015
0.5193	1.21493	-17.7362	-10.3287	17.3536	-2.22902	1.56266	-12.0716	-2.77417	-0.302214	0
0.5200	0.587872	-18.0429	-8.18934	12.1659	-2.83693	2.17037	-14.1894	6.38059	-0.91481	-0.32015
0.5207	0.313531	-14.0729	-4.83313	19.7959	-2.22902	3.99347	-13.2817	2.1054	0	-0.96045
0.5213	0	-11.9347	-0.559368	31.3925	-1.31715	6.74261	-11.769	-8.8823	2.44222	-0.6403
0.5220	0.313531	-5.83472	1.57506	-2.79126	-1.6211	7.66863	-12.6767	-8.26802	2.44222	0
0.5227	0.313531	0.273503	1.57506	-43.6869	-3.14089	7.66863	-15.4298	-0.63905	-0.302214	0
0.5233	0.313531	2.10514	0.0490674	-29.0328	-4.35672	10.0994	-16.3375	6.07345	-2.14	-0.96045
0.5240	-0.940594	1.18518	-2.08536	-2.17608	-1.92506	10.7071	-10.5286	13.7024	-2.44222	-1.2806
0.5247	-1.52847	1.18518	-0.25515	5.45398	-0.101319	5.5272	-1.39171	18.5869	0.302214	-0.32015
0.5253	0.587872	-0.646461	0.657503	-10.1183	-2.53297	3.70409	7.17033	13.4002	4.57405	0.32015
0.5260	1.842	-8.27138	-6.35913	-55.8895	-5.01529	6.74261	18.1527	11.2602	4.88443	0
0.5267	0	-8.88469	-9.41112	-31.4752	-5.01529	7.66863	26.9871	21.0292	1.21702	0
0.5273	-2.42987	3.63012	3.70949	66.1823	-3.14089	7.35031	30.3453	26.2159	-1.82962	0
0.5280	-2.15553	11.8684	13.783	58.8553	-1.01319	3.38577	27.925	14.926	-3.65924	-0.32015
0.5287	1.842	7.28511	6.45726	-23.5421	-0.709233	-4.83268	19.3629	-9.79381	-3.96962	-0.32015
0.5293	4.5854	-1.55814	-2.39449	-18.9604	-1.31715	-11.5464	10.8311	-25.3589	-1.52741	-0.32015
0.5300	2.7434	-7.3597	-4.52892	38.4074	0.506595	-12.183	7.47287	-19.5629	1.52741	-0.32015
0.5307	0.313531	-4.00308	-4.83313	24.9836	3.54616	-9.11554	7.77542	-10.7103	2.74443	0
0.5313	-0.627063	1.18518	-5.75069	-35.7539	5.06595	-6.07703	9.28815	-7.3565	-0.91481	-0.32015
0.5320	0	3.32347	-4.52892	-53.4472	4.76199	-2.40187	7.77542	-4.6071	-4.88443	0
0.5327	1.842	6.98675	-3.00292	-40.0234	2.63429	1.56266	1.96655	-4.6071	-6.71405	0
0.5333	2.42987	9.11675	-4.2247	-10.7243	0.810552	4.3118	-1.9968	-5.52357	-5.79924	0
0.5340	0.901403	3.01682	-2.6987	18.5748	1.41847	6.45322	-1.9968	-6.1329	0.302214	-0.32015
0.5347	-1.842	-5.52807	2.79684	17.6566	2.02638	6.45322	-3.20698	-5.83071	4.57405	-0.32015
0.5353	-3.05693	-7.3597	4.32283	0.25709	2.33034	4.3118	-5.6576	-3.69064	2.14	0
0.5360	-3.05693	-9.19134	-0.559368	-8.58497	1.72242	2.17037	-10.8614	-3.69064	-0.91481	0
0.5367	-2.15553	-9.498	-3.61136	6.97816	1.72242	-0.260444	-10.8614	-4.6071	-0.302214	0
0.5373	-1.52847	-3.69643	-1.47693	32.3015	2.63429	1.56266	-1.08916	-2.77417	2.14	-0.32015
0.5380	-0.940594	0.878523	0.96172	43.5951	2.33034	6.45322	7.17033	-2.16484	3.05481	-0.32015
0.5387	-0.627063	1.49183	0.96172	33.5227	1.41847	7.95801	7.77542	-4.29996	1.52741	0
0.5393	-0.940594	-0.953115	-2.08536	21.9261	-0.405276	6.45322	4.41716	-7.3565	1.21702	0
0.5400	-0.313531	-1.55814	-3.61136	20.7049	-1.6211	6.1349	2.57164	-10.101	2.74443	-0.32015
0.5407	0.587872	0.878523	0.657503	9.72351	-0.101319	5.23782	5.92989	-9.79381	3.96962	-0.32015
0.5413	0.313531	3.63012	4.93127	11.8537	1.41847	0.347259	7.77542	-5.83071	4.88443	-0.32015
0.5420	0.901403	9.11675	4.01371	42.0709	2.02638	-4.83268	6.53498	-0.94619	4.88443	0
0.5427	0.587872	13.7	-2.6987	64.346	0.810552	-5.46932	4.41716	0.579603	3.65924	-0.32015
0.5433	-3.684	9.73006	-10.9371	61.9036	-1.31715	-2.40187	2.87418	1.18893	3.65924	-0.32015
0.5440	-5.4868	2.40351	-14.9067	25.8926	-2.83693	1.56266	4.71971	2.41254	4.88443	-0.32015
0.5447	-2.42987	2.10514	-14.2933	-27.2056	-3.14089	3.09639	6.23244	-2.16484	5.18665	-0.32015
0.5453	-0.940594	2.71016	-12.7673	-24.7633	-3.14089	2.48869	4.41716	-11.3196	5.18665	-0.32015
0.5460	0	-4.91476	-8.80268	39.9316	-4.05276	2.77807	-0.151273	-12.5432	4.88443	0
0.5467	0.313531	-10.4097	-4.2247	93.342	-4.05276	2.77807	-5.96015	-6.1329	2.14	-0.6403
0.5473	0.313531	-6.43974	-6.66335	101.275	-2.53297	1.56266	-12.9792	-2.16484	-0.91481	-1.2806
0.5480	1.842	-2.78475	-13.6849	81.7454	-0.709233	1.56266	-14.8247	-0.63905	0.612596	-0.6403
0.5487	0.901403	-5.52807	-23.1451	50.004	-0.101319	3.38577	-11.4665	-0.63905	4.57405	0.32015
0.5493	-1.842	-11.3296	-43.2872	-5.53662	-0.405276	2.48869	-11.4665	-1.55552	0.91481	0.32015
0.5500	-1.21493	-10.4097	-55.4952	-80.9191	1.11451	-1.79417	-12.3741	-3.38845	-7.62886	0
0.5507	1.21493	-0.339806	-37.1832	-90.3763	3.54616	-4.83268	-11.769	-7.65869	-10.9859	0
0.5513	0.313531	6.06678	-11.5505	2.09345	4.15408	-5.46932	-11.4665	-11.6267	-8.85406	-0.32015
0.5520	-3.684	6.06678	11.6437	35.3591	3.54616	-5.75871	-11.769	-5.52357	-8.24146	0
0.5527	-6.70174	4.84845	38.8074	-47.3505	1.72242	-5.151	-14.1894	11.2602	-10.9859	0
0.5533	-8.54373	-1.86479	43.6896	-104.718	0.810552	-3.9356	-15.7324	18.8891	-11.2881	0
0.5540	-8.85726	-13.7663	29.9556	-110.209	1.11451	-4.5433	-12.9792	9.73436	-8.24146	-0.32015
0.5547	-5.80033	-13.1613	26.9036	-92.2035	1.41847	-5.46932	-9.01586	2.1054	-5.79924	-0.32015
0.5553	-2.15553	-1.86479	27.8212	-51.0048	0.506595	-6.68473	-5.05251	-9.79381	-3.96962	0
0.5560	-2.15553	-2.78475	27.8212	-19.2726	-1.6211	-6.36641	-0.786618	-26.2754	-2.44222	0
0.5567	-3.05693	-10.7163	34.2294	-9.20015	-2.53297	0.636641	9.59069	-16.8135	-2.74443	-0.32015
0.5573	1.52847	-11.023	27.5121	-4.01244	-0.101319	5.5272	26.382	5.15698	-4.88443	-0.32015
0.5580	8.54373	-7.97301	9.20504	8.50233	2.33034	1.24434	31.253	6.68278	-4.88443	0
0.5587	8.85726	-7.66636	9.50925	-18.9604	2.02638	-2.11249	19.6655	-5.52357	-3.65924	0
0.5593	5.4868	-7.3597	14.3915	-103.194	-1.92506	-0.868147	11.4362	-11.6267	-5.49703	0
0.5600	3.33127	-4.00308	6.76148	-135.239	-5.01529	7.06093	14.4919	3.02186	-5.79924	-0.32015
0.5607	-1.21493	-1.25977	-2.6987	-84.8856	-4.35672	16.8131	17.5476	28.6582	-1.21702	-0.32015
0.5613	-5.21246	3.92849	-9.1069	-39.4082	-2.22902	20.7776	14.4919	35.3707	2.44222	0
0.5620	-2.42987	14.9183	-13.9891	-28.1238	-1.01319	23.5268	9.59069	22.8572	0	0
0.5627	1.842	20.1066	-7.58091	-25.9845	0.202638	19.2729	3.17673	11.8695	-3.05481	-0.32015
0.5633	1.52847	14.6117	13.1697	-21.0997	1.41847	5.5272	-4.14487	5.46412	-1.82962	0
0.5640	1.21493	10.65	26.5994	-14.9939	3.24221	-2.11249	-8.41077	-2.47198	0.612596	0
0.5647	4.27187	26.2065	21.7172	-11.6425	4.45803	-3.3279	-7.80567	-14.6783	1.52741	-0.32015
0.5653	2.42987	43.2963	2.48772	-9.50315	5.06595	-6.68473	-5.05251	-17.7299	1.52741	-0.32015
0.5660	-2.42987	31.3948	-8.49847	-9.20015	4.76199	-13.3984	-4.74996	1.80321	0	-0.32015
0.5667	0.901403	11.8684	7.0657	-8.58497	4.76199	-19.5044	-5.6576	25.9088	-1.52741	0
0.5673	5.4868	-11.9347	23.5474	-5.53662	4.45803	-20.7198	-5.05251	37.2036	-0.91481	-0.32015
0.5680	3.95833	-46.7275	23.2432	-1.87308	3.24221	-20.4014	-4.44742	36.2871	1.21702	-0.32015
0.5687	0.313531	-53.1341	14.6957	0.25709	2.33034	-20.7198	-5.05251	24.9923	2.14	-0.32015
0.5693	0	-25.6678	-1.78115	1.17527	-0.101319	-19.7937	-7.17033	17.6705	0.91481	-0.32015
0.5700	2.7434	-0.953115	-25.2795	2.39645	-1.01319	-17.3629	-7.50313	21.0292	0.612596	-0.32015
0.5707	1.52847	2.71016	-48.1694	4.2328	0.810552	-14.2955	-3.84233	23.1643	2.44222	0
0.5713	-3.05693	-6.7464	-62.5118	6.05998	1.41847	-13.0801	-1.69425	21.6385	2.44222	0
0.5720	-4.89893	-12.2413	-65.2596	7.28116	-0.101319	-10.3309	-1.39171	14.926	1.82962	-0.32015
0.5727	-4.27187	-9.498	-57.6296	6.97816	-4.05276	-5.75871	-3.20698	-1.86266	1.52741	0
0.5733	-6.70174	-2.4781	-51.2214	6.66598	-6.83903	-2.40187	-4.44742	-14.9855	1.21702	0.32015
0.5740	-11.9142	9.42341	-45.1174	8.19934	-5.6232	0.954961	-1.69425	-15.897	1.21702	0
0.5747	-14.3441	23.1565	-17.6495	9.10833	-4.66067	3.99347	1.36145	-19.2557	0.91481	-0.32015
0.5753	-14.3441	24.0765	23.8516	9.10833	-5.01529	1.24434	1.96655	-25.9682	0.91481	-0.32015
0.5760	-11.6007	10.3434	37.8898	9.42051	-5.01529	-8.18952	-0.151273	-7.65869	0.612596	0
0.5767	-4.27187	-7.3597	26.2952	9.42051	-4.66067	-17.0446	-4.44742	24.383	0.612596	0
0.5773	5.4868	-13.4596	34.8378	10.3295	-3.44484	-19.7937	-5.96015	13.7024	0.612596	-1.2806
0.5780	11.2871	-7.66636	51.6238	11.8537	-1.92506	-17.0446	-2.60189	-37.8724	1.21702	-1.2806
0.5787	9.1316	-9.498	47.35	11.8537	-1.01319	-15.5398	1.05891	-49.4694	1.82962	0
0.5793	3.33127	-19.5679	43.6896	10.9447	0.202638	-16.1475	-0.786618	-14.069	0.91481	0
0.5800	1.842	-24.7561	33.616	10.0265	1.11451	-13.6878	-1.69425	-13.7619	-0.612596	-0.32015
0.5807	5.17327	-24.1428	-1.78115	10.0265	-1.01319	-6.07703	2.57164	-41.5333	-0.612596	0
0.5813	7.91667	-15.2913	-34.7397	11.2477	-6.23112	1.88098	2.87418	-40.0075	0	-0.32015
0.5820	6.3882	4.23515	-40.2352	12.7719	-11.3984	9.20236	-0.151273	-14.6783	1.21702	0
0.5827	1.21493	16.4433	-21.9233	12.4689	-13.2221	13.4563	-1.9968	7.59924	1.52741	0
0.5833	-3.95833	13.0867	-1.17271	10.3295	-10.7905	15.5977	0.453818	9.43218	0.612596	0
0.5840	-3.37046	16.1367	10.731	11.2477	-5.6232	19.8806	7.47287	-11.0174	1.21702	0
0.5847	2.11634	21.6316	7.0657	13.69	-1.6211	29.3434	10.5286	-18.9486	2.14	-0.32015
0.5853	4.85974	12.4734	-7.27669	15.5172	-0.101319	40.0216	6.53498	8.51571	2.74443	-0.32015
0.5860	5.4868	6.06678	-31.9968	14.9112	0.202638	39.0955	-3.84233	36.8965	2.14	0
0.5867	7.3288	11.255	-76.55	13.387	3.85012	26.8836	-11.769	48.8006	0.91481	-0.32015
0.5873	7.91667	10.0367	-103.1	13.993	8.76409	17.4208	-6.56524	55.5131	1.21702	0
0.5880	5.80033	-3.08312	-76.8542	13.69	12.7155	14.3823	4.11462	53.378	1.52741	0
0.5887	4.5854	-11.3296	-22.5366	9.72351	15.4511	12.5592	9.28815	36.2871	1.21702	0
0.5893	4.85974	-6.7464	40.6376	6.05998	13.0195	10.4178	4.71971	9.12504	0.612596	0
0.5900	4.27187	-4.61639	80.6128	6.05998	8.46013	8.59465	-0.484073	-1.55552	0.612596	0
0.5907	0.587872	-6.7464	72.0701	7.88715	5.67386	7.06093	-1.08916	10.958	2.14	0
0.5913	-1.842	0.878523	54.98	9.72351	4.15408	4.60118	-0.484073	16.1447	3.05481	0
0.5920	-1.842	9.11675	40.3334	10.3295	2.93825	3.09639	-0.484073	8.8179	3.05481	0
0.5927	-1.842	4.5418	17.4434	10.0265	1.41847	2.77807	-2.29935	0.579603	1.52741	0
0.5933	-2.42987	1.18518	4.32283	9.72351	1.11451	3.09639	-3.20698	-10.101	0.612596	0
0.5940	-4.5854	7.28511	-1.47693	10.6417	2.02638	3.70409	-1.39171	-19.5629	2.14	0.32015
0.5947	-5.80033	13.0867	-8.49847	11.2477	2.33034	3.38577	1.05891	-15.897	2.44222	0
0.5953	-3.684	17.9683	-3.61136	9.72351	1.72242	3.70409	1.36145	-6.44004	1.82962	0
0.5960	-0.940594	20.4132	8.59169	7.28116	-0.405276	5.23782	-1.69425	-10.4081	0.612596	0
0.5967	0.313531	12.175	12.5612	8.19934	-1.31715	6.74261	-3.50953	-21.698	0.302214	0
0.5973	-1.21493	-10.103	12.257	15.2142	-0.101319	7.66863	-1.08916	-31.7692	0.91481	-0.32015
0.5980	-3.684	-27.1928	10.4268	20.0989	1.11451	7.66863	0.756364	-41.2311	2.44222	0
0.5987	-2.7434	-20.4795	3.10106	16.4354	0.506595	7.95801	-0.484073	-46.4178	3.35703	0
0.5993	0.901403	-5.83472	2.1835	14.9112	-1.6211	7.95801	-4.44742	-40.0075	2.44222	0
0.6000	3.33127	-2.78475	10.4268	20.7049	-2.22902	7.66863	-5.05251	-8.57516	1.52741	0
0.6007	3.05693	-5.52807	13.1697	21.9261	-1.01319	8.27633	-1.39171	59.174	1.52741	0
0.6013	1.52847	-7.05305	14.0872	20.4019	-1.01319	10.7071	1.664	122.346	2.14	-0.32015
0.6020	-0.313531	-8.88469	18.361	29.5562	-2.53297	10.7071	1.664	100.678	2.14	0
0.6027	-1.52847	-7.97301	19.5779	43.8981	-5.01529	9.81006	0.151273	31.1004	1.21702	0
0.6033	-0.627063	3.32347	10.4268	41.7679	-5.01529	16.2054	2.87418	2.71472	0.612596	0
0.6040	2.7434	16.75	0.353285	-10.4213	-2.53297	22.3114	8.38051	-19.865	1.21702	0
0.6047	4.5854	17.0566	5.23549	-80.3039	-1.6211	21.4143	8.07797	-48.2458	-0.91481	0
0.6053	4.27187	20.4132	9.20504	-63.8226	-2.22902	17.7391	4.71971	-34.8208	-3.35703	0
0.6060	3.33127	32.9281	-1.78115	15.2142	-3.7488	10.0994	-3.50953	-1.86266	-3.35703	0
0.6067	0.901403	24.3832	-16.4327	25.8926	-3.44484	1.88098	-10.226	18.8891	-3.05481	-0.6403
0.6073	-1.52847	-2.17144	-19.1755	-22.9361	1.11451	-1.47585	-3.84233	24.0808	-3.05481	-1.2806
0.6080	-1.21493	-10.7163	-8.49847	-42.4658	4.15408	-2.40187	5.92989	6.07345	-1.82962	-0.6403
0.6087	0	0.571869	7.67904	-41.5476	3.54616	-2.72019	6.53498	-4.6071	0.612596	0
0.6093	-1.52847	10.3434	21.1039	-49.7836	1.41847	-9.11554	0.756364	16.1447	0.612596	0
0.6100	-2.42987	9.42341	30.2598	-30.254	-0.709233	-17.9706	-2.29935	26.5181	-2.44222	-0.32015
0.6107	-3.684	-1.55814	26.9036	29.8592	-1.01319	-19.7937	2.57164	5.46412	-4.27184	0
0.6113	-6.70174	-17.7362	8.90082	76.8607	-1.01319	-16.1475	8.07797	-22.0002	-4.88443	0
0.6120	-7.95586	-21.3995	-7.88512	76.2547	-1.31715	-11.8647	7.77542	-38.7888	-3.96962	0
0.6127	-5.4868	-14.6863	-19.4846	32.3015	-2.53297	-8.18952	0.453818	-43.6684	-1.82962	-0.32015
0.6133	-1.842	-18.9546	-32.301	-10.4213	-2.83693	-7.58181	-5.6576	-39.7004	-0.302214	0
0.6140	2.42987	-14.3796	-39.6219	-22.3209	-0.101319	-10.6493	-4.74996	-18.0371	0	0
0.6147	5.4868	10.9484	-27.1097	-26.9026	2.63429	-14.2955	-2.60189	4.8548	-0.612596	-0.32015
0.6153	8.54373	19.7999	-2.08536	-26.2875	5.67386	-17.9706	-3.20698	-3.38845	0	0
0.6160	8.2302	8.51173	0.657503	-18.3544	5.97782	-21.9352	-5.05251	-16.5113	0.302214	0
0.6167	3.33127	0.571869	-12.1589	-11.3395	3.24221	-21.6169	-5.6576	-13.4597	1.52741	0.32015
0.6173	-0.313531	-3.08312	-4.83313	7.88715	2.02638	-17.6523	-5.05251	-8.26802	2.44222	-0.6403
0.6180	-1.52847	-5.83472	11.9528	37.4892	1.72242	-14.2955	-4.44742	-1.55552	2.44222	-0.6403
0.6187	-2.42987	-3.38977	12.5612	48.1768	1.41847	-11.8647	-5.05251	5.46412	3.35703	0
0.6193	-2.42987	-0.953115	0.353285	37.4892	0.202638	-6.07703	-6.26269	1.80321	4.88443	-0.32015
0.6200	-2.15553	-5.83472	-7.27669	33.8349	-0.709233	2.77807	-0.151273	-10.4081	4.88443	0
0.6207	-2.7434	-8.27138	-3.92048	39.6286	-0.101319	9.81006	9.59069	-13.7619	5.79924	0.32015
0.6213	-2.42987	-4.00308	-0.25515	38.7104	0.506595	11.0255	10.5286	-5.21643	6.71405	0
0.6220	0.587872	-0.646461	-0.25515	28.9502	0.202638	10.7071	5.62735	1.18893	7.01627	0
0.6227	2.11634	-0.646461	-1.17271	16.7384	-1.31715	9.49174	-0.151273	1.18893	6.41184	0
0.6233	0.313531	-1.55814	-2.39449	39.0226	-2.53297	6.45322	-7.50313	-0.0297232	4.57405	-0.32015
0.6240	-1.21493	-3.08312	-3.00292	78.6879	-1.01319	5.84552	-9.3184	-4.29996	4.27184	-0.32015
0.6247	-1.52847	-4.00308	-1.17271	14.9112	0.810552	6.74261	-3.84233	-12.5432	3.35703	0
0.6253	0	-2.17144	-1.17271	-116.315	1.41847	3.99347	0.756364	-14.069	-0.612596	0
0.6260	1.21493	-1.86479	-3.30714	-132.181	0.202638	-1.18647	-0.151273	-5.52357	-4.27184	-0.32015
0.6267	2.11634	-0.953115	-1.17271	-50.3988	-0.405276	-6.68473	-1.69425	1.18893	-4.88443	-0.32015
0.6273	4.27187	2.71016	6.15305	11.2477	1.41847	-11.8647	-0.151273	-0.94619	-4.57405	0
0.6280	3.6448	3.32347	9.20504	50.004	2.33034	-17.6523	2.26909	-6.44004	-5.49703	0
0.6287	0.901403	0.273503	6.45726	77.1637	1.72242	-16.7552	5.62735	-3.69064	-5.18665	0
0.6293	-1.21493	-2.17144	1.87928	76.8607	-0.101319	-9.72324	6.86778	4.8548	-4.57405	-0.32015
0.6300	-3.95833	-2.78475	-2.6987	66.4853	-1.6211	-5.46932	4.71971	13.4002	-4.57405	0
0.6307	-6.11386	1.18518	-7.88512	60.6824	-0.101319	-3.3279	4.71971	25.2994	-3.35703	0
0.6313	-3.95833	7.59177	-17.0411	20.0989	0.810552	-2.72019	6.86778	21.9407	-1.82962	0
0.6320	-0.940594	11.5617	-22.2275	-43.3748	-0.405276	-5.75871	5.92989	-1.55552	-3.35703	0
0.6327	-1.52847	11.8684	-19.1755	-70.5437	-1.6211	-9.43386	1.05891	-14.9855	-5.49703	0
0.6333	-3.37046	10.0367	-12.4631	-85.1886	-2.22902	-8.18952	-4.14487	-9.79381	-6.10146	0
0.6340	-0.940594	3.01682	-2.39449	-89.1551	-1.6211	-3.9356	-4.74996	-4.6071	-4.88443	-0.32015
0.6347	2.42987	-5.52807	12.257	-57.7259	-1.6211	-1.18647	-0.786618	-2.77417	-2.14	0
0.6353	2.7434	-5.83472	25.6819	-29.345	-1.92506	0.347259	0.453818	6.38059	-0.612596	0
0.6360	2.7434	-1.25977	28.1254	-21.4027	-3.44484	1.56266	-4.44742	16.4518	-1.82962	0
0.6367	3.05693	0.571869	21.413	-17.7484	-4.35672	3.38577	-7.50313	21.6385	-1.82962	0
0.6373	1.842	1.49183	11.3395	-14.0849	-3.7488	5.5272	-4.74996	13.7024	-0.302214	0
0.6380	1.52847	3.32347	-1.17271	-11.6425	-2.53297	5.5272	-1.9968	-20.7815	-0.302214	-0.6403
0.6387	0.587872	2.10514	-10.3287	-10.4213	-2.22902	5.84552	-1.69425	-43.9755	-0.91481	-0.96045
0.6393	-1.52847	-0.339806	-18.5671	-11.0273	-2.53297	7.06093	-1.08916	-36.3466	-2.44222	0
0.6400	-2.42987	3.63012	-28.6357	-13.1667	-2.53297	10.4178	4.71971	-30.5456	-4.57405	0
0.6407	-5.4868	8.51173	-30.1617	-13.7727	0.810552	16.5237	18.7578	-14.3712	-4.88443	-0.32015
0.6413	-8.54373	8.81839	-21.6191	-13.7727	3.24221	13.1669	27.925	11.5673	-3.65924	-0.32015
0.6420	-4.27187	15.5316	-10.6329	-11.9455	2.63429	-5.46932	23.3263	14.0096	-2.14	-0.32015
0.6427	1.52847	10.3434	-3.30714	-7.97897	1.11451	-23.4689	8.9856	3.93833	0	0
0.6433	0	-16.2112	-4.2247	-5.53662	-1.6211	-27.7228	-7.17033	0.579603	1.52741	0
0.6440	-2.42987	-29.0244	-2.6987	-4.93062	-1.6211	-19.186	-11.769	-0.94619	1.82962	-0.32015
0.6447	-1.21493	-23.2311	5.84883	-5.83962	1.11451	-8.18952	-4.44742	3.02186	1.21702	-0.32015
0.6453	0.313531	-14.6863	4.62705	-5.83962	2.02638	-3.61728	-2.29935	20.4149	0.302214	-0.32015
0.6460	3.05693	-1.55814	-4.83313	-4.61844	0.202638	-4.5433	-9.3184	33.5377	0	-0.32015
0.6467	5.17327	12.78	-2.6987	-2.79126	-0.101319	-6.07703	-14.5222	29.5697	0.302214	0
0.6473	3.05693	19.7999	12.8655	-0.954906	1.41847	-6.97411	-12.9792	24.383	0.91481	0
0.6480	-0.940594	14.9183	30.5641	0.569271	2.33034	-5.46932	-8.41077	10.958	1.82962	-0.32015
0.6487	-4.27187	-4.91476	38.5032	0.569271	0.202638	-3.61728	-3.84233	-19.865	1.52741	-0.32015
0.6493	-5.4868	-21.3995	29.6514	-0.0459089	-1.92506	-1.18647	1.96655	-35.4301	0	0
0.6500	-2.15553	-19.5679	4.32283	-0.651907	-0.405276	5.5272	11.1337	-22.0002	-1.21702	-0.32015
0.6507	2.11634	-22.3112	-17.9587	0.25709	1.72242	15.916	17.2148	-8.57516	-0.302214	-0.32015
0.6513	3.05693	-35.1326	-14.5975	2.09345	1.72242	19.2729	13.8868	-8.57516	1.82962	0
0.6520	2.11634	-41.2326	-12.7673	3.31462	0.810552	11.6332	6.23244	-15.897	3.05481	0
0.6527	1.52847	-45.2025	-34.1313	3.01163	-0.405276	9.49174	0.756364	-29.3269	2.74443	0
0.6533	3.05693	-46.7275	-38.0959	1.79045	-1.31715	20.7776	-1.9968	-32.0714	1.52741	0
0.6540	3.6448	-37.5693	-12.7673	0.87227	0.202638	30.2404	-1.39171	-19.2557	0	-0.32015
0.6547	0.901403	-37.5693	-3.61136	0.87227	2.33034	30.2404	0.756364	-10.7103	0	0
0.6553	1.21493	-46.7275	-6.97247	2.09345	2.33034	29.3434	0.151273	-7.3565	0.612596	0
0.6560	4.27187	-22.6178	-1.17271	2.69945	0.202638	28.7357	-3.50953	2.41254	0.91481	-0.32015
0.6567	4.27187	8.81839	7.0657	3.01163	-1.6211	26.2759	-5.6576	15.8375	1.21702	-0.32015
0.6573	1.21493	5.76013	18.6652	3.92062	-0.709233	25.3788	-3.50953	28.351	1.52741	0
0.6580	-2.7434	10.3434	28.4296	4.5358	-0.101319	25.0605	-1.39171	42.0832	1.82962	0.32015
0.6587	-2.7434	28.0382	28.1254	5.1418	-1.01319	22.3114	-1.69425	52.4615	1.52741	0.32015
0.6593	-4.27187	25.9081	12.257	4.8388	-2.22902	18.3468	-2.90444	52.7637	0.91481	0
0.6600	-7.95586	28.9581	-0.25515	3.61762	-3.14089	16.5237	-5.05251	24.9923	0	0
0.6607	-5.4868	50.3162	6.45726	4.2328	-1.92506	17.4208	-3.50953	-8.8823	0.302214	0.32015
0.6613	-0.313531	46.3545	12.5612	4.8388	-0.709233	16.2054	0.151273	-8.8823	2.14	0.32015
0.6620	2.42987	21.9382	16.5259	4.2328	-0.101319	8.27633	0.151273	-4.91424	2.14	0
0.6627	1.52847	31.0964	28.1254	2.39645	-0.405276	-5.151	-0.151273	-13.7619	0.302214	0
0.6633	-0.313531	55.1978	33.3118	-0.0459089	-1.31715	-19.5044	3.17673	-5.21643	-1.21702	0
0.6640	0.313531	32.6214	16.835	0.25709	-0.405276	-24.6843	8.38051	17.9776	-0.612596	0.32015
0.6647	1.842	-3.69643	-7.88512	1.47827	2.02638	-16.1475	9.89324	34.4542	1.21702	0
0.6653	4.5854	-0.646461	-13.6849	1.17527	3.24221	-5.46932	8.68306	39.0316	0.302214	0
0.6660	5.80033	16.1367	-6.35913	0.87227	1.72242	-9.11554	3.17673	38.4223	-1.21702	0
0.6667	3.05693	20.7199	-12.1589	2.69945	1.41847	-26.5074	-6.26269	25.9088	-0.612596	0
0.6673	0.587872	20.7199	-14.2933	2.69945	2.63429	-36.8962	-13.2817	-7.3565	-0.612596	-0.6403
0.6680	0.901403	21.9382	0.353285	0.569271	2.93825	-32.6134	-15.4298	-33.295	-2.14	-1.2806
0.6687	-0.313531	14.0066	10.1177	0.25709	2.93825	-21.3275	-9.3184	-35.7373	-1.82962	-0.32015
0.6693	-3.684	0.878523	17.1392	-0.651907	1.41847	-12.183	-0.786618	-30.8527	-2.44222	0.32015
0.6700	-5.80033	-1.25977	16.835	-1.87308	-0.101319	-8.50784	6.86778	-24.1402	-3.35703	0
0.6707	-7.3288	-7.97301	-13.3807	-1.26709	0.506595	-7.90014	14.7945	-21.698	-2.14	0
0.6713	-3.95833	-28.7178	-38.405	3.31462	0.810552	-12.183	14.1894	-21.0886	0.612596	0
0.6720	4.5854	-33.301	-37.7917	9.42051	0.810552	-19.5044	4.11462	-20.7815	2.44222	0
0.6727	6.11386	-26.2811	-41.7612	15.5172	-1.01319	-22.2535	-8.71331	-34.8208	2.44222	0
0.6733	1.21493	-30.251	-53.6601	25.8926	-3.14089	-20.4014	-16.0349	-45.1942	2.44222	-0.32015
0.6740	2.11634	-25.9745	-53.3558	37.4892	-1.92506	-15.8292	-13.5843	-34.2115	4.27184	0
0.6747	6.3882	-6.7464	-32.6053	43.5951	-0.709233	-11.8647	-9.92349	-22.0002	6.10146	0
0.6753	5.4868	6.68009	-10.0245	46.0375	-0.709233	-9.72324	-9.92349	-10.4081	6.71405	0
0.6760	1.52847	-2.4781	8.28748	50.9222	-1.6211	-8.18952	-12.0716	11.8695	6.10146	-0.32015
0.6767	-1.842	-25.3611	25.6819	57.0281	-1.92506	-7.29243	-11.4665	30.4861	5.18665	0
0.6773	-2.15553	-4.30974	32.7034	67.7065	-0.405276	-5.46932	-8.41077	36.5893	4.88443	0
0.6780	0.313531	50.3162	38.194	74.4184	0.202638	-3.00958	-6.56524	32.6262	4.27184	-0.32015
0.6787	3.95833	50.6228	42.4678	55.4947	0.202638	-0.578764	-8.41077	16.1447	3.35703	0
0.6793	5.17327	14.0066	31.1774	41.4558	-1.01319	1.24434	-12.3741	9.43218	2.14	0
0.6800	4.27187	12.175	11.3395	42.0709	-1.31715	1.88098	-9.92349	25.6066	1.21702	0
0.6807	4.27187	28.9581	4.62705	6.97816	0.506595	-1.18647	0.756364	39.0316	-0.302214	-0.32015
0.6813	2.11634	19.7999	4.01371	-47.6535	1.72242	-3.61728	9.28815	45.1348	-2.44222	-0.32015
0.6820	1.21493	6.06678	-5.44648	-51.923	1.41847	-1.79417	11.4362	46.6605	-2.74443	0
0.6827	3.95833	5.46176	-7.58091	-15.912	1.11451	-8.18952	11.7388	27.1324	-0.91481	0.32015
0.6833	4.27187	0.878523	0.0490674	-10.7243	-0.101319	-14.0061	10.1958	-4.6071	-0.91481	0
0.6840	0	-4.00308	0.0490674	-58.0289	-1.31715	-5.75871	7.47287	-16.5113	-2.74443	0
0.6847	-3.37046	-2.78475	-0.868492	-96.4822	-1.6211	-2.40187	2.87418	-6.74222	-3.65924	0
0.6853	-2.42987	0.878523	6.15305	-76.0344	-0.709233	-5.151	-1.9968	-4.29996	-2.14	0
0.6860	-0.627063	3.63012	8.28748	-32.9993	-0.405276	0.636641	-5.6576	-16.5113	0	0
0.6867	-0.940594	5.76013	3.10106	-4.31544	-1.31715	8.27633	-8.41077	-23.5309	1.21702	-0.32015
0.6873	-1.842	6.98675	3.40527	16.7384	-1.31715	10.7071	-8.10822	-21.3908	2.74443	-0.32015
0.6880	-1.52847	7.28511	12.257	35.6621	-1.6211	8.59465	-7.50313	-16.2041	3.05481	0
0.6887	0.587872	6.98675	16.2217	58.5522	-1.6211	2.48869	-8.71331	-7.96583	3.35703	-0.32015
0.6893	2.11634	1.18518	6.15305	75.9426	-2.22902	-5.75871	-9.92349	-0.0297232	3.05481	0
0.6900	0.313531	-4.61639	-4.52892	63.1248	-2.53297	-6.97411	-10.226	6.38059	0.612596	0
0.6907	-3.95833	-1.25977	-3.92048	31.6955	-1.6211	0.636641	-5.05251	13.4002	-2.44222	0
0.6913	-6.70174	4.5418	-2.39449	20.4019	-0.709233	8.59465	1.36145	13.4002	-3.05481	0
0.6920	-7.01527	6.37344	-14.9067	25.5896	-1.31715	12.2409	3.17673	1.80321	-2.44222	0
0.6927	-6.4274	4.84845	-28.6357	29.2532	-3.14089	13.1669	2.57164	-8.57516	-0.91481	0
0.6933	-6.11386	-1.55814	-30.4708	40.2438	-2.83693	10.7071	7.77542	-2.77417	2.44222	-0.32015
0.6940	-4.27187	-12.8546	-31.3835	-0.954906	0.506595	8.88404	21.2084	4.8548	2.14	0
0.6947	1.21493	-14.0729	-27.4188	-105.333	2.02638	7.66863	29.4377	-1.55552	-3.05481	0
0.6953	3.6448	-2.4781	-29.5533	-145.917	1.41847	4.3118	24.8692	-13.4597	-5.18665	-0.32015
0.6960	2.42987	10.65	-52.1341	-105.021	-0.101319	0.636641	17.2148	-29.0198	-2.74443	0
0.6967	4.5854	21.9382	-56.4078	-76.9526	-1.92506	-0.868147	14.7945	-35.4301	-1.52741	0
0.6973	5.17327	30.1764	-29.5533	-63.8226	-1.01319	-2.72019	16.6097	-24.7496	-1.52741	-0.6403
0.6980	2.11634	30.4831	-5.44648	-34.5327	2.02638	-4.22498	17.8502	-15.897	-0.91481	-0.96045
0.6987	0.313531	18.5816	0.96172	-8.89715	2.63429	-4.83268	16.0047	-23.5309	-0.302214	0
0.6993	-0.627063	14.305	-6.35913	3.31462	1.41847	-5.75871	12.0413	-26.5825	-0.302214	0.32015
0.7000	-1.52847	24.6815	-12.1589	9.10833	0.202638	-6.07703	7.17033	-3.99778	-0.612596	-0.32015
0.7007	-1.21493	11.255	-2.39449	19.4838	0.810552	-3.00958	6.23244	12.786	0.91481	-0.32015
0.7013	0	-18.0429	6.76148	36.5802	2.33034	0.636641	5.62735	6.68278	3.65924	0
0.7020	0	-26.5878	1.87928	-1.87308	2.02638	2.77807	1.96655	-5.52357	1.82962	0
0.7027	-3.05693	-30.251	-3.92048	-99.2276	-0.101319	2.48869	3.17673	-11.9339	-4.57405	0
0.7033	-1.842	-35.4393	-5.75069	-130.96	-0.405276	2.48869	4.71971	-2.47198	-8.85406	-0.32015
0.7040	3.05693	-29.6377	9.20504	-76.0344	1.11451	0.954961	-0.786618	-0.94619	-7.62886	0
0.7047	3.95833	-18.6479	44.298	-34.5327	1.72242	-2.72019	-7.50313	-18.0371	-4.27184	0.32015
0.7053	0.313531	-5.83472	68.1006	-30.254	0.506595	-3.9356	-13.2817	-16.8135	-2.74443	0.32015
0.7060	-3.95833	3.92849	64.4402	-32.9993	-0.405276	-0.578764	-18.4855	-3.69064	-3.35703	0
0.7067	-2.7434	6.68009	40.6376	-30.8692	-0.405276	4.9195	-16.64	-2.16484	-4.27184	-0.32015
0.7073	0	10.3434	22.6299	-24.4603	1.11451	8.59465	-7.17033	-0.94619	-3.65924	0
0.7080	-0.627063	9.11675	25.6819	-25.6815	2.02638	7.95801	-2.29935	2.41254	-2.14	-0.32015
0.7087	0.901403	3.63012	32.0901	-28.1238	1.72242	4.9195	-2.60189	12.1766	0.612596	-0.32015
0.7093	1.21493	-0.0331518	29.6514	-20.1816	0.202638	0.347259	-3.20698	17.9776	2.14	-0.32015
0.7100	-2.7434	-14.9846	24.465	-12.2485	-1.31715	-3.00958	-7.17033	2.1054	0.91481	-0.32015
0.7107	-3.05693	-27.4994	20.7997	-7.36379	-0.405276	-3.61728	-9.01586	-6.1329	1.21702	0
0.7113	0	-15.2913	15.9175	-4.93062	0.506595	-5.75871	-7.80567	17.6705	2.14	0
0.7120	0.901403	-0.953115	8.90082	-4.93062	-0.101319	-5.151	-6.86778	40.5574	1.52741	0
0.7127	0	3.63012	-0.25515	-5.23362	-1.6211	0.636641	-5.96015	35.98	0	0
0.7133	-1.52847	6.98675	-16.7369	-10.1183	-2.83693	4.9195	-3.20698	27.1324	-0.91481	-0.32015
0.7140	-4.89893	3.01682	-23.4493	-16.215	-1.92506	4.9195	0.151273	28.9604	0.91481	0
0.7147	-8.2302	-15.5979	-12.1589	-2.79126	-1.31715	3.09639	-0.786618	23.4665	2.74443	0
0.7153	-8.54373	-31.776	-10.0245	24.3685	-3.14089	2.17037	-4.74996	10.6508	1.82962	-0.32015
0.7160	-1.21493	-22.3112	-10.6329	27.426	-5.92716	4.3118	-6.26269	8.8179	0.302214	0
0.7167	7.3288	-4.30974	3.10106	11.8537	-6.53507	7.95801	-2.90444	17.6705	0.302214	0
0.7173	5.80033	0.571869	11.3395	9.10833	-3.7488	8.59465	3.50953	24.6901	0.612596	0
0.7180	0.901403	0.273503	7.98326	12.7719	-2.83693	5.5272	5.02226	21.0292	1.21702	0
0.7187	1.52847	1.49183	4.32283	9.10833	-2.83693	0.954961	3.81207	14.6189	1.52741	0
0.7193	2.11634	-2.78475	0.96172	6.97816	-4.05276	-3.00958	1.36145	21.3314	-0.302214	-0.32015
0.7200	1.842	-5.83472	3.70949	19.1808	-5.31925	-3.9356	-1.39171	29.8768	-1.82962	-0.6403
0.7207	2.42987	-1.86479	6.76148	34.1379	-3.7488	-5.151	-2.29935	17.0611	0	-0.32015
0.7213	-0.627063	-2.78475	-6.35913	35.3591	-1.6211	-7.58181	-3.50953	2.41254	1.82962	0
0.7220	-6.11386	-14.6863	-19.1755	29.5562	-0.101319	-9.43386	-5.35506	17.3633	2.14	0
0.7227	-7.01527	-21.3995	-9.71534	20.7049	1.72242	-10.3309	-9.01586	46.0512	-0.612596	0
0.7233	-0.940594	-4.91476	6.45726	11.8537	3.54616	-10.6493	-11.1639	76.8742	-3.96962	0
0.7240	3.6448	14.9183	0.96172	11.5507	4.15408	-8.18952	-5.35506	102.511	-3.65924	0
0.7247	0.313531	11.5617	-20.7015	14.9112	4.15408	-1.18647	4.41716	90.6064	-2.14	-0.32015
0.7253	-3.05693	-0.0331518	-26.5013	18.2626	4.76199	6.74261	9.28815	23.4665	-1.52741	-0.32015
0.7260	-2.7434	-3.08312	-20.0931	15.2142	2.63429	10.4178	0.453818	-52.2138	-1.52741	0
0.7267	-0.627063	-0.0331518	-12.1589	-0.954906	-1.01319	11.9515	-10.226	-82.4275	-1.82962	-0.32015
0.7273	2.7434	4.84845	2.48772	-7.36379	-1.6211	15.3083	0.756364	-92.8009	-1.52741	-0.96045
0.7280	4.5854	4.84845	10.4268	1.79045	0.202638	18.3468	19.6655	-100.128	0.302214	-0.6403
0.7287	4.85974	1.79849	13.783	7.28116	0.810552	18.6652	21.511	-82.7347	1.21702	0.32015
0.7293	3.95833	2.40351	23.5474	7.28116	-1.01319	17.7391	13.2515	-46.1107	0.612596	0
0.7300	1.52847	2.10514	20.1912	7.88715	-1.31715	15.3083	5.3248	-13.1525	0	-0.6403
0.7307	-0.627063	-1.86479	2.79684	9.10833	1.11451	12.2409	1.96655	13.7024	0.612596	-0.32015
0.7313	0	-0.0331518	-6.05491	11.2477	4.15408	8.88404	3.17673	30.4861	2.74443	0
0.7320	0.901403	4.5418	-5.44648	12.1659	5.06595	-1.18647	4.11462	2.41254	3.96962	0
0.7327	-0.313531	3.01682	-5.44648	10.9447	3.24221	-11.8647	-0.484073	-45.5013	2.44222	0
0.7333	-2.7434	1.79849	-2.08536	9.42051	1.41847	-14.0061	-8.10822	-58.6242	0.302214	-0.96045
0.7340	-2.7434	5.46176	4.62705	8.50233	1.72242	-14.2955	-8.71331	-50.3859	0.612596	-1.2806
0.7347	0.901403	5.46176	8.28748	9.10833	3.24221	-19.7937	-4.74996	-46.72	1.82962	0
0.7353	3.95833	1.18518	8.90082	10.6417	3.85012	-24.366	-6.56524	-38.4817	3.35703	0.32015
0.7360	2.42987	1.18518	7.0657	11.5507	1.11451	-21.6169	-11.4665	-14.9855	4.27184	0
0.7367	0.313531	3.01682	-0.25515	10.9447	-2.22902	-17.6523	-11.769	8.20857	3.35703	0
0.7373	-0.940594	2.40351	-13.0715	9.42051	-2.22902	-16.7552	-7.80567	20.1127	2.14	0
0.7380	-1.21493	2.10514	-13.3807	9.10833	-0.405276	-13.6878	-6.86778	19.1963	1.82962	0
0.7387	-0.313531	2.71016	-2.6987	8.50233	0.202638	-8.82616	-10.8614	8.51571	0.91481	0
0.7393	1.52847	1.49183	-0.559368	7.28116	-1.31715	-4.22498	-12.0716	1.18893	-0.302214	0
0.7400	1.52847	-0.646461	-4.2247	5.75698	-3.14089	5.23782	-5.6576	0.886744	-1.21702	-0.32015
0.7407	0.587872	-0.646461	-2.39449	3.92062	-1.92506	16.5237	5.92989	1.49607	-1.52741	-0.32015
0.7413	0.313531	1.18518	-1.17271	0.87227	-0.101319	27.8096	19.3629	0.579603	-2.74443	0
0.7420	0.313531	0.878523	-2.6987	-0.651907	-0.405276	38.1985	27.2896	3.02186	-4.27184	0
0.7427	-0.313531	1.18518	-1.78115	3.01163	-2.22902	39.0955	19.3629	4.24052	-3.05481	-0.32015
0.7433	-0.313531	1.49183	-1.78115	9.42051	-3.7488	29.3434	2.57164	-1.55552	-0.302214	0
0.7440	0.313531	0.878523	-4.2247	12.7719	-2.22902	16.2054	-5.35506	-2.77417	1.52741	0
0.7447	0.313531	0.273503	-3.61136	10.3295	0.202638	4.9195	-2.90444	-0.336863	0.612596	0
0.7453	0	0.571869	-1.78115	6.05998	1.11451	-2.40187	3.50953	-1.86266	-2.44222	0
0.7460	0.313531	0.878523	-1.78115	3.01163	0.506595	-9.72324	6.86778	-4.91424	-3.96962	0
0.7467	0.587872	-0.339806	-3.92048	0.25709	-1.92506	-15.8292	5.62735	-7.3565	-2.14	0
0.7473	0.587872	-0.646461	-2.08536	-2.79126	-2.53297	-14.0061	5.02226	-6.44004	1.82962	-0.32015
0.7480	-0.313531	0.571869	2.1835	-7.97897	-1.31715	-8.82616	4.11462	4.24052	4.57405	0
0.7487	-1.52847	2.10514	3.40527	-17.1332	0.202638	-6.97411	4.41716	16.4518	4.88443	0.32015
0.7493	-1.52847	3.32347	0.657503	-29.345	0.202638	-4.22498	6.53498	24.0808	3.05481	0
0.7500	-1.842	6.37344	0.0490674	-37.8841	-1.01319	0.636641	5.92989	32.0119	0	-0.32015
0.7507	-2.15553	7.28511	7.67904	-36.6629	-0.101319	3.70409	3.81207	21.0292	-0.302214	-0.32015
0.7513	-1.52847	6.06678	5.84883	-31.7782	2.63429	4.3118	1.05891	-10.4081	3.05481	0
0.7520	-2.42987	5.46176	-8.49847	-33.3115	4.15408	3.99347	-2.29935	-25.0567	4.88443	0
0.7527	-3.37046	-2.78475	-8.49847	-32.0903	4.45803	2.48869	-6.86778	-15.2877	4.27184	-0.32015
0.7533	-2.15553	-14.3796	5.84883	-0.651907	3.24221	1.56266	-12.0716	-3.38845	3.05481	0
0.7540	-1.842	-14.3796	13.783	36.2681	2.02638	2.77807	-12.6767	6.07345	2.44222	0
0.7547	-5.4868	-8.27138	9.50925	39.9316	0.810552	3.09639	-9.3184	17.6705	2.44222	-0.32015
0.7553	-3.37046	-2.4781	0.353285	54.2735	-1.01319	2.48869	-7.17033	16.1447	2.74443	0
0.7560	4.85974	1.79849	-5.44648	79.3031	-1.31715	1.88098	-8.10822	0.277417	2.44222	0
0.7567	6.70174	-2.4781	-14.2933	59.1582	-1.01319	-0.578764	-10.5286	-16.5113	3.35703	-0.32015
0.7573	1.21493	-9.498	-32.301	23.1473	0.202638	-3.00958	-10.8614	-27.8011	5.18665	-0.6403
0.7580	-1.842	-0.953115	-39.6219	7.58416	1.72242	-4.5433	-9.3184	-28.1083	6.71405	-0.96045
0.7587	-1.21493	12.4734	-35.6572	-3.70944	1.72242	-2.11249	-8.71331	-28.7176	7.32665	-0.32015
0.7593	-3.37046	3.32347	-33.2137	-10.1183	-1.01319	0.954961	-11.4665	-41.5333	5.49703	0
0.7600	-9.1708	-19.5679	-6.35913	-9.50315	-2.53297	2.48869	-12.9792	-50.9952	3.05481	0
0.7607	-14.3441	-31.4694	32.7034	-20.1816	-0.405276	4.60118	-7.17033	-44.5849	0.302214	-0.32015
0.7613	-17.401	-32.381	34.5336	-25.6815	2.63429	4.9195	2.87418	-32.9879	-5.18665	0
0.7620	-15.8725	-24.1428	18.0519	-24.4603	3.85012	0.954961	9.89324	-15.5948	-11.2881	0
0.7627	-3.684	-5.83472	13.4788	-9.80615	2.33034	-2.72019	9.89324	-2.77417	-12.5133	0
0.7633	13.1291	19.1949	4.01371	42.0709	0.506595	-1.47585	8.07797	-10.7103	-8.54367	-0.32015
0.7640	17.0875	24.3832	-8.18934	59.1582	1.72242	1.24434	9.89324	-13.4597	-4.27184	-0.32015
0.7647	11.2871	-1.55814	5.23549	26.2048	3.24221	4.3118	11.4362	2.41254	-1.82962	0
0.7653	4.27187	-16.8163	23.2432	8.80533	3.24221	5.84552	11.4362	26.2159	-0.91481	0
0.7660	-0.627063	-14.3796	8.90082	3.01163	2.02638	3.70409	11.7388	55.5131	-2.44222	0
0.7667	-0.940594	-17.7362	-16.7369	-7.67597	1.11451	0.347259	9.28815	69.8546	-2.44222	-0.32015
0.7673	-5.80033	-22.0045	-22.8409	-10.7243	1.41847	-4.22498	8.38051	69.5524	-0.612596	-0.32015
0.7680	-11.6007	-13.1613	-15.2109	-7.36379	1.11451	-10.9386	6.86778	60.3927	1.52741	0
0.7687	-7.95586	8.81839	-4.2247	1.17527	0.202638	-16.1475	0.453818	36.5893	3.35703	0.32015
0.7693	-0.627063	27.7398	-2.39449	29.2532	-1.6211	-19.186	-7.17033	21.6385	3.96962	0
0.7700	2.11634	30.7898	-16.1235	68.3125	-3.44484	-16.7552	-9.3184	15.2282	5.18665	-0.32015
0.7707	-0.627063	20.7199	-20.3973	107.684	-3.14089	-3.9356	-4.14487	5.76631	7.32665	0
0.7713	-5.4868	-0.646461	-26.5013	145.522	-1.01319	10.4178	3.81207	-4.29996	8.54367	-0.32015
0.7720	-5.4868	-22.6178	-52.1341	169.028	0.202638	13.1669	7.47287	-24.7496	9.45848	-0.32015
0.7727	2.42987	-8.27138	-42.6739	173.6	-1.92506	9.49174	3.50953	-29.6341	9.15627	0
0.7733	8.2302	49.0979	4.93127	173.6	-4.35672	9.20236	-2.90444	5.15698	8.54367	-0.32015
0.7740	5.80033	90.2973	20.1912	164.143	-3.44484	10.4178	-3.50953	36.8965	9.15627	0
0.7747	1.52847	68.6326	0.657503	128.435	-1.6211	9.49174	-1.69425	44.5254	7.01627	0
0.7753	0.901403	15.225	-8.80268	107.684	-0.101319	7.66863	-1.39171	38.7294	2.44222	-0.32015
0.7760	4.27187	-15.9046	-6.35913	100.66	-0.709233	6.74261	-5.35506	15.8375	-1.82962	-0.32015
0.7767	8.85726	-21.3995	-5.75069	22.5413	-0.709233	5.23782	-9.01586	10.958	-7.01627	-0.32015
0.7773	8.54373	-32.381	-15.5151	-135.239	1.41847	3.70409	-3.84233	19.8056	-12.2111	-0.32015
0.7780	5.17327	-25.6678	-15.8193	-262.801	3.85012	1.24434	3.17673	-2.47198	-15.8703	0
0.7787	4.85974	7.89842	20.4954	-273.479	4.76199	-3.9356	5.62735	-12.8454	-15.8703	0
0.7793	5.17327	8.51173	41.8594	-223.43	3.85012	-14.2955	2.26909	7.59924	-13.4281	-0.32015
0.7800	3.6448	-17.4296	28.1254	-176.134	2.02638	-21.6169	-2.90444	6.38059	-11.2881	-0.32015
0.7807	3.6448	-28.4194	24.1559	-120.897	1.72242	-18.5783	-3.20698	-15.897	-7.62886	0
0.7813	3.33127	-27.4994	30.2598	-76.9526	1.41847	-14.0061	-2.90444	-19.5629	-3.35703	0
0.7820	1.842	-18.3495	29.6514	-61.0772	-0.405276	-12.4724	-3.20698	-1.86266	-1.52741	0
0.7827	1.21493	-8.27138	21.413	-55.8895	-6.23112	-10.0416	-3.20698	2.71472	-2.44222	-0.32015
0.7833	1.842	-4.61639	16.835	-47.6535	-13.2221	-7.29243	-3.84233	-7.04936	-3.96962	0
0.7840	2.11634	-0.0331518	16.5259	-35.1387	-15.0459	-6.36641	-4.14487	-6.74222	-3.65924	0.32015
0.7847	1.21493	4.23515	12.5612	-30.254	-12.3103	-7.90014	-3.84233	-5.52357	-3.05481	0
0.7853	0.901403	5.15511	12.257	-29.951	-9.27069	-8.18952	-2.60189	-11.0174	-2.74443	-0.32015
0.7860	2.7434	6.06678	7.98326	-32.3933	-7.44694	-3.00958	-1.9968	-11.6267	-2.74443	0
0.7867	1.52847	3.32347	-8.80268	-45.8171	-5.01529	0.636641	-1.69425	-11.0174	-3.65924	-0.32015
0.7873	-3.37046	-8.88469	-20.7015	-47.3505	-1.31715	0.347259	2.26909	-14.3712	-3.65924	-1.2806
0.7880	-4.89893	-17.4296	-17.0411	-29.951	1.11451	2.48869	6.53498	-14.9855	-0.91481	-0.96045
0.7887	-0.940594	-1.86479	-0.868492	-18.0514	4.45803	7.35031	8.07797	-12.2361	2.14	0
0.7893	3.95833	13.7	23.5474	-15.306	5.97782	10.0994	7.47287	-10.7103	1.21702	0
0.7900	2.7434	2.71016	36.3638	-13.1667	7.4976	7.95801	6.53498	-5.83071	-0.612596	-0.32015
0.7907	-1.21493	-6.7464	21.7172	-10.4213	12.7155	4.9195	5.02226	-14.069	0	-0.32015
0.7913	0	3.92849	-0.25515	-9.50315	15.1472	4.60118	4.71971	-40.0075	0.91481	0
0.7920	3.05693	19.1949	-5.13735	-10.1183	11.1957	3.99347	6.23244	-46.4178	0.91481	0
0.7927	2.42987	21.6316	-3.92048	-8.58497	5.67386	3.09639	3.50953	-31.1599	0.302214	-0.32015
0.7933	0	5.46176	-6.35913	-3.09426	2.02638	3.09639	-0.786618	-19.865	-0.302214	-0.32015
0.7940	-1.52847	-13.4596	-6.05491	4.5358	1.11451	3.38577	0.453818	7.59924	0.91481	0
0.7947	-0.940594	-12.548	-0.559368	5.75698	1.11451	4.3118	2.87418	56.1224	2.44222	0
0.7953	1.52847	1.79849	6.76148	-4.31544	0.810552	0.0289382	3.17673	78.4	1.52741	0
0.7960	4.5854	8.81839	10.731	-13.4697	-0.101319	-12.4724	3.17673	57.6482	0.302214	0
0.7967	5.80033	5.15511	6.45726	-2.48826	-1.31715	-24.6843	4.71971	24.9923	0.612596	0
0.7973	2.7434	-7.3597	-2.39449	20.4019	-1.01319	-30.1826	7.47287	-0.94619	1.82962	0
0.7980	-0.940594	-15.9046	-5.75069	27.729	-0.101319	-31.6874	10.5286	-17.1206	1.82962	0
0.7987	-3.37046	-11.023	-5.44648	31.6955	-0.101319	-40.2531	10.5286	-22.9166	1.82962	0.32015
0.7993	-4.27187	-2.78475	-6.97247	50.307	-1.31715	-47.5744	4.71971	-23.8331	3.05481	0
0.8000	-1.52847	2.71016	-7.88512	62.2158	-2.22902	-31.6874	1.05891	-23.2238	5.18665	0
0.8007	0.587872	6.37344	-8.18934	61.2976	-1.92506	-3.61728	8.07797	-18.0371	5.79924	0
0.8013	-1.842	12.78	-7.58091	59.4612	0.202638	9.20236	14.4919	-11.6267	5.49703	0
0.8020	-3.95833	17.6616	-6.97247	46.0375	1.11451	0.0289382	12.3439	-11.9339	3.05481	0
0.8027	-3.95833	1.49183	-11.8547	17.9596	0.506595	-9.11554	5.02226	-12.2361	-0.91481	-0.32015
0.8033	-2.7434	-21.0928	-16.1235	8.50233	-0.405276	0.0289382	-0.786618	-13.7619	-2.14	0
0.8040	0.313531	-21.3995	-4.83313	12.1659	0.202638	17.4208	0.151273	-18.3392	-1.52741	0.32015
0.8047	0.587872	-11.628	4.93127	-26.9026	1.72242	26.8836	-4.74996	-3.99778	-2.14	0
0.8053	-3.684	-9.80465	-14.5975	-73.592	0.810552	30.8481	-23.054	28.6582	-2.14	0
0.8060	-6.11386	-6.7464	-42.3697	-59.8561	-1.6211	35.4493	-32.8262	39.3387	-2.14	0
0.8067	-3.95833	4.5418	-46.035	-25.6815	-2.22902	38.4878	-22.1463	26.2159	-2.74443	0
0.8073	-1.21493	14.0066	-36.879	-20.7967	-0.709233	38.1985	-7.50313	11.5673	-1.82962	0
0.8080	-0.627063	15.8383	-15.5151	-32.9993	0.202638	36.3464	-3.50953	-5.83071	-1.52741	0
0.8087	-0.940594	12.175	25.0734	-34.8357	-0.101319	32.3819	-5.96015	-13.1525	-2.44222	0
0.8093	1.52847	2.40351	40.6376	-22.0179	-1.01319	24.7711	-8.10822	-3.69064	-2.74443	-0.32015
0.8100	4.85974	-7.05305	26.9036	-10.7243	-2.22902	14.3823	-9.92349	5.46412	-2.14	0
0.8107	2.11634	-9.19134	29.3472	-7.06079	-4.05276	7.66863	-9.62095	-0.63905	-0.302214	0
0.8113	-4.27187	-2.4781	37.2814	-4.31544	-5.92716	5.23782	-6.86778	-24.7496	1.21702	-0.32015
0.8120	-4.89893	-0.0331518	25.0734	2.09345	-5.31925	5.84552	-0.484073	-43.6684	3.65924	-0.32015
0.8127	0	-4.91476	7.0657	4.5358	-3.7488	10.7071	10.1958	-40.924	4.27184	0
0.8133	2.42987	-2.4781	1.57506	-2.79126	-3.44484	17.7391	20.2705	-26.5825	0.612596	0
0.8140	1.21493	1.18518	7.37482	-6.4548	-2.22902	21.4143	17.5476	-8.8823	-0.612596	0
0.8147	1.21493	-0.0331518	15.9175	-0.651907	-0.709233	25.3788	7.77542	1.18893	0.302214	0
0.8153	0.587872	2.40351	18.361	3.61762	-1.01319	33.9156	5.92989	-3.08131	0.302214	0
0.8160	-1.842	6.68009	18.6652	3.01163	-1.92506	41.5553	7.17033	-18.6464	-0.302214	0
0.8167	-0.627063	-0.646461	11.3395	2.09345	-1.6211	38.8062	4.41716	-32.3785	-1.21702	0
0.8173	1.842	-15.9046	-19.4846	0.87227	1.41847	22.3114	8.07797	-13.7619	-2.44222	-0.96045
0.8180	2.7434	-14.6863	-38.0959	-2.17608	5.67386	3.70409	16.3072	33.2355	-2.74443	-0.96045
0.8187	2.7434	2.71016	-16.4327	-3.09426	6.58573	-9.43386	16.6097	62.5328	-2.74443	0
0.8193	1.21493	11.8684	2.48772	1.17527	2.93825	-17.3629	10.8311	62.2256	-3.65924	0
0.8200	0.313531	7.59177	2.48772	5.1418	-1.31715	-18.26	6.23244	46.3584	-2.74443	-0.32015
0.8207	1.842	-6.14138	4.62705	5.1418	-1.92506	-18.5783	1.96655	13.4002	-1.21702	0
0.8213	3.05693	-26.5878	-13.0715	6.36298	0.506595	-28.3305	-7.17033	-17.4228	-0.302214	0
0.8220	0.313531	-46.4208	-35.0488	8.80533	2.93825	-41.4685	-22.7514	-20.7815	1.21702	0.32015
0.8227	-2.15553	-55.579	-24.3668	8.50233	1.72242	-43.2916	-33.1287	-14.9855	1.21702	0.32015
0.8233	1.52847	-41.5392	-23.4493	6.66598	-0.101319	-33.5394	-31.2832	-7.65869	0	0
0.8240	4.27187	-13.4596	-31.6877	7.58416	0.202638	-24.6843	-22.7514	12.1766	0.612596	0
0.8247	0.587872	-0.953115	-24.3668	9.42051	0.810552	-24.366	-15.1273	21.6385	2.74443	0
0.8253	-3.684	-1.55814	-20.0931	10.0265	1.11451	-24.366	-8.10822	3.93833	3.65924	0
0.8260	-1.21493	21.3249	-12.4631	8.50233	1.11451	-18.26	-2.90444	-19.865	1.52741	-0.6403
0.8267	1.21493	57.9494	-0.559368	6.97816	1.41847	-8.50784	1.05891	-17.7299	0.612596	-0.6403
0.8273	-4.89893	56.1177	-1.47693	6.97816	3.54616	6.45322	5.3248	10.958	2.44222	0.32015
0.8280	-11.9142	26.2065	-4.52892	8.80533	4.45803	19.5622	5.3248	24.0808	3.65924	0.32015
0.8287	-13.7562	10.0367	-8.80268	8.50233	2.93825	23.5268	2.57164	10.958	3.96962	0
0.8293	-11.9142	3.01682	-13.3807	5.45398	0.810552	22.9191	-2.60189	2.1054	3.96962	0
0.8300	-6.11386	-5.83472	-8.49847	14.6082	-1.31715	21.7037	-7.80567	-1.55552	3.35703	0
0.8307	1.52847	-3.08312	-13.9891	37.1862	-0.405276	17.1314	-6.26269	-7.96583	4.88443	0
0.8313	6.3882	10.0367	-17.9587	49.0858	2.63429	10.7071	-2.90444	-11.0174	6.71405	0
0.8320	10.9736	15.5316	14.9999	50.004	4.15408	6.74261	-1.9968	-19.5629	5.49703	0
0.8327	13.4035	6.68009	46.1282	52.4464	2.93825	5.23782	0.151273	-34.5136	2.74443	0.32015
0.8333	6.3882	-2.78475	37.5856	53.6675	1.41847	3.70409	-0.151273	-23.5309	1.52741	0
0.8340	-1.842	-0.339806	22.939	54.5857	0.810552	3.38577	-0.484073	19.5034	3.35703	0
0.8347	-3.95833	5.46176	24.7692	57.6341	1.11451	2.77807	2.87418	44.5254	3.05481	0
0.8353	-3.95833	9.42341	27.5121	58.5522	1.11451	3.38577	4.11462	37.2036	2.14	0
0.8360	-3.95833	14.6117	19.5779	55.8069	-0.405276	3.99347	4.41716	30.4861	1.82962	0
0.8367	-3.684	12.4734	4.32283	47.2587	-1.01319	-6.07703	10.5286	26.5181	-0.612596	0
0.8373	-2.42987	-0.339806	-10.6329	40.2438	-0.405276	-20.1121	21.8135	15.2282	-1.82962	0
0.8380	-1.21493	-8.27138	-27.4188	6.97816	0.202638	-26.218	27.2896	0.886744	0	0
0.8387	-2.15553	-7.05305	-43.2872	-98.0064	0.202638	-29.5749	23.0237	-10.7103	-3.35703	-0.32015
0.8393	-3.05693	-0.646461	-42.6739	-173.38	-0.405276	-29.5749	16.3072	-14.6783	-10.0711	0
0.8400	-2.42987	8.20508	-24.6711	-135.239	-2.53297	-25.292	9.28815	-9.49162	-9.45848	0
0.8407	-0.627063	15.225	3.10106	-80.9191	-4.05276	-18.5783	2.87418	-2.47198	-4.27184	0
0.8413	1.842	14.305	38.5032	-68.7073	-4.05276	-12.7907	1.96655	-1.55552	-1.82962	0
0.8420	4.27187	2.10514	59.558	-72.3708	-3.44484	-11.8647	2.26909	-3.69064	-1.82962	0
0.8427	5.4868	-10.103	46.1282	-51.317	-3.14089	-12.183	2.57164	-3.08131	-3.96962	-0.32015
0.8433	3.33127	-15.2913	30.5641	9.72351	-2.83693	-11.5464	2.26909	8.20857	-5.79924	0
0.8440	0	-17.4296	32.0901	36.8832	-1.6211	-11.5464	1.96655	42.3903	-3.05481	0
0.8447	-3.37046	-15.9046	32.7034	17.3536	0.202638	-11.257	2.87418	68.9381	-0.612596	0
0.8453	-5.80033	-11.023	25.991	26.2048	1.41847	-10.6493	2.57164	57.6482	-0.91481	0
0.8460	-2.7434	-1.86479	8.28748	39.3256	0.202638	-7.90014	-2.29935	38.4223	0	0
0.8467	2.11634	10.0367	-11.5505	23.1473	-1.31715	-3.3279	-9.01586	29.8768	1.21702	-0.32015
0.8473	3.33127	12.78	-10.0245	12.4689	0.202638	0.347259	-14.8247	15.5354	2.14	-1.2806
0.8480	3.05693	8.51173	-0.25515	11.2477	2.93825	3.70409	-17.8804	-9.18448	3.65924	-0.6403
0.8487	2.11634	5.46176	1.27084	3.31462	2.63429	6.45322	-18.183	-23.8331	3.96962	0.32015
0.8493	2.11634	-0.0331518	0.657503	-9.20015	0.506595	10.7071	-16.3375	-19.5629	1.82962	0.32015
0.8500	3.33127	-4.30974	0.96172	-2.48826	-0.709233	12.2409	-14.5222	-22.0002	-0.302214	0
0.8507	2.7434	-4.91476	3.40527	31.6955	0.202638	7.95801	-9.62095	-32.6857	0.302214	0
0.8513	0	-7.3597	5.23549	19.7959	1.11451	3.38577	-4.44742	-24.7496	1.82962	0
0.8520	-0.313531	-10.4097	3.10106	-37.8841	-0.101319	1.56266	-2.60189	-9.79381	0	0
0.8527	-0.313531	-3.38977	2.1835	-42.4658	-1.6211	1.24434	-2.60189	-8.8823	-2.14	0
0.8533	-0.940594	6.06678	6.15305	-11.6425	-3.14089	-0.868147	-5.6576	-16.8135	-0.302214	0
0.8540	-0.940594	1.49183	16.835	4.5358	-1.92506	-6.68473	-6.56524	-34.5136	4.57405	0.32015
0.8547	-2.15553	-1.86479	23.2432	34.1379	1.72242	-10.3309	-4.74996	-61.3686	7.62886	0.32015
0.8553	-1.21493	13.7	8.90082	69.8458	3.54616	-9.11554	-3.50953	-63.8109	7.01627	0
0.8560	0.587872	25.9081	-13.3807	72.8942	2.93825	-6.97411	-3.84233	-37.263	4.88443	0
0.8567	0	13.3933	-23.4493	62.8218	-0.101319	-4.5433	-5.6576	-6.44004	3.05481	0
0.8573	-0.940594	-2.4781	-19.7889	58.8553	-1.01319	-1.47585	-5.6576	20.4149	3.96962	0
0.8580	-2.15553	-2.17144	-13.6849	54.8887	1.11451	-0.578764	-1.69425	27.7417	3.96962	0
0.8587	-2.42987	3.92849	-11.5505	64.9611	1.41847	0.0289382	0.151273	12.4838	3.96962	0
0.8593	-0.313531	4.84845	-9.41112	48.7828	-0.709233	1.88098	-1.69425	-3.08131	5.18665	-0.32015
0.8600	-0.313531	-0.646461	-7.58091	13.387	-1.92506	2.48869	-4.14487	-11.3196	2.74443	0
0.8607	-1.21493	-3.69643	-5.13735	36.8832	-0.709233	3.09639	-1.08916	-16.2041	-0.612596	0.32015
0.8613	-0.627063	1.79849	3.10106	40.5468	0.202638	2.48869	1.96655	-14.9855	-2.44222	0.32015
0.8620	0.313531	-0.953115	11.9528	-20.4937	-0.101319	1.56266	0.151273	-6.1329	-4.57405	0
0.8627	0.587872	-24.7561	8.90082	-60.4712	-1.6211	0.636641	-3.20698	4.24052	-4.57405	-0.32015
0.8633	-0.940594	-48.5591	-1.17271	-66.8801	-2.83693	0.0289382	-6.86778	12.4838	-4.27184	-0.32015
0.8640	-2.7434	-47.6392	-4.83313	-51.923	-1.01319	1.24434	-8.71331	15.2282	-4.57405	-0.32015
0.8647	-2.7434	-34.5193	-10.6329	-22.9361	0.506595	1.56266	-7.80567	14.0096	-3.65924	-0.32015
0.8653	0.587872	-28.1127	-17.3453	-6.4548	0.506595	-0.868147	-6.86778	15.5354	-2.14	0
0.8660	1.842	-20.4795	-8.80268	-20.7967	-0.101319	-4.83268	-9.3184	17.6705	-2.74443	0
0.8667	-1.52847	-14.6863	2.1835	-65.3468	-1.31715	-9.11554	-13.5843	22.2479	-5.18665	0
0.8673	-1.21493	-15.9046	4.62705	-88.237	-0.405276	-9.11554	-14.8247	24.6901	-5.79924	0
0.8680	2.7434	21.6316	7.67904	-61.9954	1.11451	-2.72019	-9.92349	12.4838	-4.27184	-0.32015
0.8687	2.42987	75.3458	6.76148	-32.9993	0.810552	3.99347	-1.39171	1.80321	-3.05481	-0.32015
0.8693	2.42987	66.8009	-4.2247	-24.4603	-0.709233	4.3118	3.17673	4.8548	-3.05481	0
0.8700	5.17327	27.7398	-11.5505	-19.5756	-2.22902	2.77807	3.17673	3.02186	-3.05481	0
0.8707	3.6448	7.59177	-9.1069	-14.3879	-1.92506	3.99347	3.50953	-8.26802	-1.21702	0.32015
0.8713	-1.21493	0.878523	-6.97247	-11.3395	-0.101319	8.88404	3.17673	-14.6783	0.302214	0
0.8720	-3.05693	0.571869	-3.61136	-10.1183	0.506595	14.064	6.23244	-11.6267	0.302214	-0.32015
0.8727	-1.52847	3.01682	3.10106	-9.20015	-1.01319	12.2409	12.0413	-9.79381	0	-0.32015
0.8733	-0.940594	6.98675	2.48772	-9.20015	-3.14089	10.7071	16.9123	-14.069	-0.302214	-0.32015
0.8740	-2.7434	12.175	-6.97247	-8.28197	-3.14089	20.1699	19.968	-18.9486	-0.612596	-0.32015
0.8747	-1.52847	14.9183	-17.0411	-4.93062	-2.53297	28.4173	17.5476	-15.2877	0.612596	0
0.8753	1.842	14.305	-17.6495	-1.87308	-2.22902	23.2374	16.9123	3.02186	1.82962	0
0.8760	3.33127	6.37344	-11.5505	-1.57009	-3.14089	15.3083	16.6097	19.1963	2.44222	0
0.8767	1.842	-6.7464	-20.3973	-0.954906	-5.31925	12.5592	10.5286	21.0292	2.14	-0.32015
0.8773	0.901403	-2.4781	-26.5013	0.87227	-5.01529	8.59465	6.23244	19.8056	1.82962	-0.96045
0.8780	3.05693	12.78	-8.49847	3.01163	-1.92506	1.88098	4.41716	21.6385	2.14	-0.96045
0.8787	3.95833	6.37344	5.5397	3.61762	1.11451	-3.61728	1.36145	28.0439	2.44222	0
0.8793	2.42987	-10.7163	2.79684	2.39645	1.72242	-10.3309	-4.44742	27.7417	0.612596	0.32015
0.8800	2.42987	-11.3296	-1.78115	1.17527	0.810552	-14.2955	-7.50313	19.8056	-1.52741	0
0.8807	4.5854	-1.55814	2.1835	0.87227	1.72242	-12.183	-4.44742	21.3314	-2.14	0
0.8813	4.5854	0.571869	9.81347	1.17527	2.93825	-9.43386	-1.39171	19.5034	-2.14	0.32015
0.8820	3.05693	-2.78475	11.3395	1.79045	2.93825	-7.29243	-1.69425	-9.79381	-1.21702	0
0.8827	2.7434	-0.953115	6.76148	2.09345	1.41847	-3.9356	-3.20698	-44.892	-0.612596	-0.32015
0.8833	1.842	6.06678	2.48772	2.69945	-0.709233	-1.79417	-5.05251	-47.6365	-0.302214	-0.32015
0.8840	-0.627063	9.42341	2.1835	3.01163	-0.101319	-1.47585	-3.20698	-26.8847	0	0
0.8847	-2.7434	8.20508	0.657503	4.2328	1.72242	-0.868147	1.664	-15.5948	0.612596	0
0.8853	-2.7434	4.23515	-3.00292	4.5358	2.02638	-0.578764	5.02226	-16.5113	0.91481	0
0.8860	-2.42987	-1.25977	-4.2247	3.92062	0.506595	-1.47585	4.71971	-16.2041	0.302214	0
0.8867	-2.15553	-3.08312	-4.2247	3.61762	-1.01319	-2.11249	2.57164	-13.7619	-0.91481	-0.32015
0.8873	-1.21493	-0.953115	-3.00292	4.8388	-0.709233	-1.47585	5.02226	-9.79381	0.302214	-0.32015
0.8880	-0.940594	2.71016	0.96172	6.05998	0.506595	1.88098	9.28815	-4.6071	1.82962	0
0.8887	-1.52847	4.84845	3.10106	6.05998	0.506595	7.35031	8.68306	-2.77417	1.52741	0
0.8893	-2.7434	2.71016	2.1835	6.05998	0.506595	10.4178	3.81207	-4.29996	0.612596	0
0.8900	-3.37046	0.273503	-1.78115	5.45398	-1.01319	7.95801	-0.786618	-4.91424	0	0
0.8907	-3.37046	3.32347	-3.61136	5.45398	-1.6211	3.99347	-1.9968	-1.55552	0	0.32015
0.8913	-3.37046	9.42341	-0.25515	6.66598	0.202638	1.88098	-0.484073	4.24052	0.91481	0
0.8920	-7.01527	9.42341	-4.52892	6.36298	0.202638	1.24434	0.756364	8.20857	1.52741	-0.32015
0.8927	-7.95586	7.28511	-19.4846	5.75698	-2.22902	1.24434	-0.786618	4.8548	1.52741	-0.32015
0.8933	-3.37046	8.81839	-23.4493	5.45398	-3.7488	-0.260444	-4.74996	-12.5432	0.91481	-0.32015
0.8940	-3.37046	12.175	-10.9371	5.1418	-2.53297	-1.47585	-5.96015	-25.3589	0.91481	0
0.8947	-8.2302	11.8684	-5.13735	6.05998	0.202638	0.636641	-3.84233	-16.8135	0.91481	0.32015
0.8953	-10.0722	-0.646461	-8.18934	6.05998	1.11451	3.09639	-2.60189	-6.1329	1.21702	0
