MR32 ASCII
Name	SORD15_fast
Frequency	1500
Date	28-08-2015 11:12:38
"Time,s"	"RT TIB.ANT.,uV"	"RT MED. GASTRO,uV"	"RT LAT. GASTRO,uV"	"RT BICEPS FEM.,uV"	"RT VMO,uV"	"RT VLO,uV"	"RT RECTUS FEM.,uV"	"RT SOLEUS,uV"	"RT SEMITEND.,uV"	"Channel 12,uV"
0.0000	1.45808	-14.9405	18.7172	-17.421	13.5857	4.88922	-8.71242	28.8074	34.8714	-9426.28
0.0007	2.40155	-4.84371	9.27861	-31.1174	8.09302	1.52429	-7.19141	-4.40515	16.2078	-10298.7
0.0013	7.89081	18.3515	4.6713	-69.8641	5.3467	2.44461	-2.61506	15.1282	-2.7013	-9527.46
0.0020	6.08965	19.5113	9.88652	-80.5569	-0.14594	0.316361	-5.05667	41.3272	-8.5132	-9873.71
0.0027	1.20078	15.8955	15.3577	-50.0402	-1.67167	0.603962	-7.19141	26.3729	0.654861	-9838.38
0.0033	0.857697	22.5812	10.1745	-2.76332	-1.06138	2.73221	-4.44293	-11.1288	14.0795	-9790.52
0.0040	0.857697	10.7107	2.23966	73.2281	-3.19741	2.44461	-3.82919	-36.8062	23.8206	-9815.89
0.0047	3.00194	-16.7824	2.23966	178.234	-1.97682	3.04857	-3.21546	-57.5567	31.7608	-9815.25
0.0053	5.40349	-19.2384	8.0308	255.427	-3.50255	3.65253	-2.61506	-86.1902	36.0174	-9808.51
0.0060	3.94541	-7.64078	10.1745	258.791	-9.91064	1.20792	-5.65707	-78.3073	32.9886	-9789.56
0.0067	3.00194	3.95683	6.81498	234.342	-9.91064	0.920324	-6.2708	-35.8788	27.8316	-9909.68
0.0073	5.14618	17.7375	9.88652	227.674	-5.63858	1.52429	-3.82919	-17.8524	24.148	-9677.46
0.0080	6.94735	1.50087	17.8213	215.119	-6.24887	3.65253	-4.13606	-42.2546	17.7631	-9750.37
0.0087	7.54773	-24.0821	1.95171	196.857	-6.24887	16.1632	-4.44293	-74.0181	7.9402	-10524.8
0.0093	4.8031	-18.6244	-23.3885	164.778	-4.72314	28.6738	-3.52232	-59.3536	-2.7013	-6616.09
0.0100	-1.88693	-11.2565	-17.2774	48.8388	-5.63858	29.9105	-5.05667	-7.76697	-14.5707	-384.156
0.0107	-7.03312	-25.0372	0.703894	-209.953	-5.94373	29.5942	-6.88454	-9.33196	-29.2232	110.172
0.0113	-7.97658	-36.2937	4.6713	-453.786	-4.11285	32.6427	-5.96394	6.25995	-36.5904	-287.475
0.0120	-6.17542	-28.6529	-0.511923	-406.809	-2.28197	30.1981	-4.13606	67.8741	-20.3826	60.0645
0.0127	-3.6881	-14.6676	-5.9831	-175.471	-1.67167	20.7648	-2.61506	26.7207	5.56632	24.0901
0.0133	-3.43079	2.72885	0.415938	-46.6762	-0.756233	9.77844	-1.38758	-55.4121	14.98	-23.7689
0.0140	-3.08771	21.0804	17.2134	-29.916	0.159207	-0.920324	-0.480317	-52.3401	11.6238	1.606
0.0147	0.257309	38.1357	34.5868	-37.5452	-0.756233	-10.066	-4.13606	0.173887	9.49549	-0.642401
0.0153	2.65886	50.9613	50.1685	-50.0402	0.464354	-14.6389	-5.96394	46.5439	8.92249	-0.642401
0.0160	0.857697	41.4785	41.3058	-57.0687	4.73641	-19.5281	-0.480317	74.8875	7.69462	-0.642401
0.0167	-1.28655	26.2652	0.703894	-53.4043	5.04155	-26.258	2.8819	95.0585	6.79419	-0.642401
0.0173	-0.343079	16.7824	-25.2122	-41.2096	4.12611	-30.2269	0.440291	56.6293	7.9402	-0.642401
0.0180	-2.23001	0.613991	-19.1331	-23.7886	5.3467	-33.5631	-3.82919	-38.603	10.3959	-0.642401
0.0187	-2.23001	-10.0967	-14.5258	-7.32882	6.56729	-31.7512	-5.05667	-99.0579	10.7234	-0.642401
0.0193	3.34502	-15.2816	-18.2053	-1.50181	7.48273	-20.1321	-2.30819	-99.6375	10.7234	-0.321201
0.0200	3.34502	-14.9405	-11.8062	-8.53026	6.87244	-9.14572	-2.92193	-67.0046	13.1791	-0.642401
0.0207	-2.23001	10.7107	-2.0157	-21.3857	4.43126	-0.316361	-6.88454	-41.3852	13.1791	-0.642401
0.0213	-4.28849	42.0925	1.3438	-31.1174	2.90553	7.01747	-8.71242	2.26054	10.7234	-0.642401
0.0220	-4.03118	48.8464	0.0959856	-30.5167	0.7695	5.80954	-10.8472	73.3805	10.7234	-0.642401
0.0227	1.20078	37.2488	-6.91096	-23.7886	1.68494	4.57286	-12.3815	64.2224	12.5242	-0.321201
0.0233	7.29042	3.68395	-8.12678	-20.1242	4.12611	8.54175	-10.8472	1.04332	12.8517	-0.642401
0.0240	7.89081	-35.6797	2.23966	-22.8875	0.159207	10.9864	-12.9819	-0.173887	8.92249	-0.963602
0.0247	8.4912	-38.1357	15.0697	-44.874	-2.89226	12.827	-13.5956	-6.89753	3.43802	-0.642401
0.0253	7.89081	-23.4681	23.9004	-60.4327	-0.756233	14.3513	-9.01929	-70.9461	3.11059	-0.321201
0.0260	6.34696	-22.2401	25.4362	-29.916	4.73641	14.0349	-6.88454	-60.281	10.1504	-0.642401
0.0267	8.4912	-16.7824	18.7172	24.6897	13.2805	14.0349	-3.82919	38.603	18.3361	-0.642401
0.0273	7.89081	-4.29794	-0.511923	63.196	16.6371	10.3824	-1.69445	68.5116	22.0197	-0.321201
0.0280	3.00194	-12.8256	-19.1331	71.1256	13.2805	4.88922	-5.36354	50.8331	18.991	-0.642401
0.0287	2.05847	-39.6365	-15.1657	60.4327	11.4496	5.17682	-7.80515	12.6358	15.3074	-0.642401
0.0293	0.600388	-43.9345	-6.59101	60.7331	10.229	6.70111	-7.80515	-30.952	12.8517	-0.642401
0.0300	-3.6881	-18.6244	-6.59101	90.6491	9.00846	6.70111	-5.96394	11.4186	0	-0.321201
0.0307	-4.03118	7.02679	-1.40779	127.894	9.61876	6.41351	-3.21546	4.75292	-15.7985	-0.642401
0.0313	-4.28849	19.5113	4.06339	144.053	8.70332	4.88922	-2.92193	-103.637	-11.5419	-0.321201
0.0320	-4.97464	18.6244	4.38334	151.983	9.9239	4.88922	-1.69445	-128.039	4.01103	-0.321201
0.0327	-2.23001	10.0967	5.3112	166.34	10.8393	4.57286	0.133421	-84.6832	11.0508	-0.642401
0.0333	-0.0857697	3.68395	4.38334	181.599	8.09302	2.12825	-1.08071	-93.2616	11.0508	-0.642401
0.0340	2.05847	1.22798	2.84757	191.03	8.39817	2.44461	-1.38758	-106.361	14.0795	-0.642401
0.0347	3.00194	-1.84197	1.95171	201.723	8.39817	0.920324	-2.92193	-75.8149	19.8914	-0.642401
0.0353	1.20078	-5.18481	0.415938	225.511	6.26214	-1.20792	-5.36354	-22.7213	33.8891	-0.321201
0.0360	0.600388	-2.45596	-1.11983	230.077	7.17758	1.20792	-4.7498	33.3864	64.422	-0.321201
0.0367	1.20078	7.91366	0.703894	158.05	9.61876	4.57286	-3.82919	48.6885	81.2028	-0.321201
0.0373	3.00194	20.1253	8.95866	30.5167	12.9754	9.14572	-1.38758	25.5035	64.422	-0.321201
0.0380	6.08965	19.8524	13.8539	-115.038	16.6371	13.7186	1.65443	10.2014	49.442	-0.321201
0.0387	6.69004	2.45596	2.23966	-224.911	15.7217	13.1146	1.65443	3.18794	25.0485	-0.642401
0.0393	4.20272	-12.2116	-11.8062	-241.07	13.8908	12.5106	1.3609	1.04332	-31.1059	-0.321201
0.0400	-1.28655	-8.86876	-9.3426	-239.268	13.8908	13.431	0.74716	0.753512	-68.3512	-0.321201
0.0407	-7.71927	5.18481	0.415938	-247.197	12.6702	11.9067	-0.480317	-19.9971	-59.7561	-0.321201
0.0413	-6.43273	15.2816	7.13493	-198.058	13.2805	9.77844	0.133421	-46.8337	-38.1457	-0.321201
0.0420	-3.08771	4.29794	9.88652	-131.558	12.3651	7.62143	0.440291	-45.3267	-26.1945	-0.321201
0.0427	-5.57503	-18.8973	8.0308	-101.943	8.70332	3.9689	-2.30819	-12.6938	-20.137	-0.321201
0.0433	-5.83234	-41.2056	5.3112	-88.7868	8.70332	3.65253	-1.69445	38.8928	-14.5707	-0.321201
0.0440	-3.08771	-49.7333	4.06339	-78.7548	10.5342	5.80954	0.74716	64.5122	-10.0685	-0.321201
0.0447	-0.943467	-44.5485	1.3438	-65.2986	11.1445	6.70111	1.65443	38.3132	-9.41363	-0.321201
0.0453	3.00194	-54.6452	2.84757	-47.337	12.6702	7.33383	2.8819	8.69437	-10.9689	-0.321201
0.0460	2.65886	-58.2609	13.534	-28.4142	10.5342	5.17682	1.3609	2.60831	-7.28533	-0.321201
0.0467	-0.686158	-33.8377	19.3251	-6.42773	6.87244	1.52429	-0.773844	-15.1282	1.88273	-0.642401
0.0473	-0.943467	6.7539	13.8539	9.73171	6.87244	1.52429	0.133421	-33.7342	7.9402	-0.321201
0.0480	-1.54385	66.8568	10.7824	19.2231	6.87244	2.12825	0.133421	9.62177	10.3959	-0.321201
0.0487	-0.343079	80.2964	14.1419	30.8171	8.70332	3.04857	1.65443	45.3267	12.5242	-0.642401
0.0493	2.65886	29.608	14.4618	49.4395	9.00846	3.65253	3.18877	22.7213	12.5242	-0.642401
0.0500	0.257309	6.4128	12.9261	71.1256	5.65185	1.20792	1.3609	29.4449	13.1791	-0.321201
0.0507	-3.43079	20.1253	17.2134	91.5502	4.12611	-0.603962	1.65443	44.3993	17.4357	-0.321201
0.0513	-4.97464	28.7211	29.7235	121.466	3.82097	-1.20792	2.8819	35.2412	20.7919	-0.642401
0.0520	-5.23195	21.9672	41.3058	142.491	3.51582	-0.603962	4.09604	5.62236	20.2188	-0.321201
0.0527	-0.343079	11.9387	26.0441	150.421	5.65185	1.84065	7.15139	-58.7739	20.7919	-0.321201
0.0533	6.08965	4.29794	-10.5584	172.107	4.73641	0.920324	7.15139	-32.5169	21.1193	-0.321201
0.0540	11.2358	-6.4128	-33.147	164.778	2.60038	-1.20792	4.09604	56.6293	15.3074	-0.321201
0.0547	16.7251	-0.272885	-35.8986	80.2566	2.29523	-1.20792	3.49564	81.9589	4.58403	-0.642401
0.0553	16.7251	24.6961	-26.428	-21.6861	1.99009	-1.52429	4.40291	84.6832	-5.15703	-0.321201
0.0560	13.3801	25.0372	-23.1005	-4.56549	3.21067	0	7.45825	-28.2277	-10.3141	-0.321201
0.0567	9.09159	-18.2833	-22.7806	123.268	3.82097	1.84065	9.89987	-160.092	-13.0972	-0.963602
0.0573	0.600388	-77.2264	-9.05464	128.495	1.07465	-0.316361	8.37886	-53.5573	-18.2543	-0.642401
0.0580	-5.57503	-134.6	0.0959856	-38.4463	-0.14594	-1.20792	7.15139	103.927	-27.9953	-0.321201
0.0587	-5.83234	-199.001	1.63176	-119.964	0.7695	-0.920324	5.93725	101.492	-30.2055	-0.321201
0.0593	-0.686158	-211.486	1.3438	-87.8857	1.07465	-2.12825	4.40291	63.6428	-16.4534	-0.321201
0.0600	4.8031	-122.662	1.02385	-92.4512	4.43126	0.603962	8.07199	51.4127	-11.5419	-0.321201
0.0607	1.80116	-52.1892	2.55962	-145.855	5.957	3.65253	9.593	23.0111	-10.3141	-0.321201
0.0613	-7.03312	-53.0761	3.77543	-271.887	3.82097	4.57286	6.24412	30.6621	9.49549	-0.321201
0.0620	-13.4658	-5.7988	7.13493	-336.945	3.82097	6.41351	4.09604	85.2628	31.1878	-0.321201
0.0627	-19.2982	54.9181	12.3182	-214.518	4.43126	5.49318	2.26816	104.506	40.3558	-0.321201
0.0633	-28.1325	-5.4577	20.5409	-68.3623	6.26214	4.57286	1.96129	63.6428	32.4156	0
0.0640	-39.111	-169.393	30.0115	4.56549	6.87244	3.9689	3.80251	84.973	16.8627	-0.321201
0.0647	-47.9453	-302.425	29.4036	27.7534	1.37979	0.316361	1.05403	216.2	2.78316	-0.321201
0.0653	-49.146	-187.949	26.0441	-18.322	-1.67167	-0.316361	0.440291	307.781	-22.8383	-0.642401
0.0660	-43.0564	144.97	17.2134	-86.6843	-0.756233	0.316361	2.57503	258.629	-41.7474	-0.642401
0.0667	-33.2786	288.985	-12.4141	-75.3907	-1.97682	-2.76097	1.3609	60.281	-26.5219	-0.321201
0.0673	-23.2436	207.529	-23.9964	-35.6829	-2.58711	-4.28526	1.05403	-148.79	-1.47344	-0.321201
0.0680	-13.4658	185.562	-7.83882	-39.6477	-3.8077	-4.28526	0.74716	-205.245	4.33846	-0.642401
0.0687	-4.63156	170.894	-1.72774	-21.0854	-6.24887	-5.49318	-1.69445	-164.324	8.92249	-0.642401
0.0693	2.40155	114.748	-8.44673	-35.0822	-5.33343	-4.88922	-1.69445	-120.678	18.0087	-0.321201
0.0700	8.14812	77.2264	-13.022	-139.788	-3.19741	-2.44461	-0.173448	-100.565	13.1791	0
0.0707	12.1793	-2.45596	-7.83882	-125.131	-0.451086	1.84065	2.26816	-85.9004	4.01103	-0.321201
0.0713	14.3235	-94.8957	0.415938	32.6192	1.68494	4.88922	3.80251	-72.1633	8.92249	-0.642401
0.0720	13.7232	-93.0538	5.3112	107.109	1.07465	3.36493	1.65443	-71.2359	17.4357	-0.642401
0.0727	9.69198	-58.602	17.5014	77.4932	-0.756233	0.920324	-1.08071	-45.6165	11.2964	0
0.0733	4.54579	-141.9	26.364	37.2448	-1.36653	0.920324	-2.61506	-6.89753	-6.3849	-0.321201
0.0740	-3.43079	-245.324	18.1093	-1.86224	-1.67167	3.36493	-2.92193	-8.69437	-27.7498	-0.321201
0.0747	-10.7212	-60.444	10.4944	-38.4463	-0.756233	4.88922	-2.00132	-63.9326	-41.1744	-0.321201
0.0753	-9.17736	278.343	8.35075	-30.8171	0.159207	3.65253	-2.00132	-107.868	-35.0351	-0.321201
0.0760	-2.48732	328.349	3.45548	-0.901084	0.7695	3.36493	-2.00132	-84.3934	-18.5817	-0.321201
0.0767	-0.343079	151.997	0.0959856	-5.82701	0.7695	3.65253	-0.773844	-44.6891	-9.41363	-0.321201
0.0773	-3.43079	7.91366	1.3438	-7.62918	-1.67167	1.20792	-2.30819	-22.4315	-6.71233	-0.642401
0.0780	-5.83234	-54.0312	6.81498	17.7213	-3.50255	0.316361	-4.13606	8.98418	-3.02873	-0.321201
0.0787	-2.23001	-20.1253	0.415938	29.0149	-1.97682	2.12825	-2.00132	40.7476	-0.245573	0
0.0793	4.8031	-2.72885	-29.1796	22.8875	-1.67167	1.84065	-1.69445	12.9836	-0.245573	0
0.0800	6.69004	-84.799	-49.9445	34.7818	-2.89226	0	-4.13606	-54.7745	-0.900434	-0.321201
0.0807	2.65886	-133.645	-32.8591	53.7046	-3.50255	-0.316361	-2.61506	-59.6434	-0.245573	-0.321201
0.0813	0.600388	-83.0252	-4.76729	47.2769	-4.11285	-0.920324	-1.38758	-8.40456	0	0
0.0820	3.00194	30.836	8.35075	40.6089	-2.28197	0.920324	0.440291	21.5041	1.88273	-0.321201
0.0827	6.94735	185.221	4.6713	41.5099	-0.14594	2.73221	1.96129	18.7798	3.6836	-0.321201
0.0833	13.9805	269.815	-13.9179	9.43135	-0.756233	2.73221	0.133421	-6.25995	2.21016	0
0.0840	21.614	235.022	-16.3815	-33.28	-2.28197	1.84065	-1.38758	-40.4578	4.01103	-0.642401
0.0847	21.614	168.165	0.703894	-28.4142	-5.94373	-0.920324	-4.44293	-21.8519	11.2964	-0.642401
0.0853	21.614	123.89	10.7824	3.66441	-5.02829	-0.603962	-4.7498	1.3911	19.564	-0.321201
0.0860	24.7017	105.606	20.5409	5.16622	-0.756233	1.84065	-0.480317	-66.7148	23.8206	0
0.0867	22.2144	79.9553	20.5409	-22.2868	-0.451086	2.44461	0.440291	-94.4788	18.3361	-0.321201
0.0873	18.5263	61.3309	-4.15938	-16.1594	-1.06138	2.73221	-1.08071	-55.4121	13.1791	-0.321201
0.0880	15.7816	52.8032	-4.15938	24.089	-2.89226	1.52429	-4.13606	-97.8407	10.3959	-0.321201
0.0887	10.8928	-9.48275	35.8026	43.3121	-3.50255	2.12825	-5.65707	-98.1305	0.327431	-0.321201
0.0893	8.83428	-78.7273	53.208	49.1391	0.464354	5.80954	-1.08071	88.6246	-10.3141	-0.321201
0.0900	6.08965	-132.145	36.7305	48.5384	1.68494	6.41351	1.05403	309.578	-18.5817	0
0.0907	-0.943467	-223.697	27.8678	35.9833	0.464354	4.88922	-0.773844	326.966	-17.6813	-0.321201
0.0913	-7.71927	-263.334	25.7561	35.3826	0.159207	3.04857	-2.92193	49.2681	-8.84063	-0.321201
0.0920	-10.1208	-235.568	14.4618	50.6409	-2.28197	0	-6.57767	-216.2	-5.15703	-0.321201
0.0927	-7.37619	-226.426	-16.9895	68.0619	-1.67167	0.316361	-7.49828	-133.198	-2.7013	0
0.0933	-5.83234	-133.986	-50.8404	77.7936	1.99009	3.04857	-2.00132	115.809	-0.573004	0
0.0940	-8.31966	-3.68395	-37.4344	78.4544	1.07465	3.04857	0.440291	225.648	-3.60174	-0.642401
0.0947	-11.922	3.06996	-4.47933	85.4228	-1.97682	1.20792	-1.08071	94.1311	-4.8296	-0.642401
0.0953	-10.7212	14.9405	-4.15938	112.936	-2.89226	0.603962	-2.61506	-55.4121	-2.7013	-0.321201
0.0960	-6.43273	98.8526	-15.7736	142.491	-3.50255	0.603962	-3.52232	-33.0966	-0.573004	-0.321201
0.0967	-10.1208	126.96	-11.1983	125.731	-1.97682	3.04857	0.133421	-20.9245	-0.245573	-0.321201
0.0973	-17.1539	22.9223	-4.15938	46.0754	0.7695	4.57286	4.40291	-47.4713	-4.8296	-0.321201
0.0980	-16.5536	-31.1089	0.703894	-48.5384	-1.06138	1.84065	2.8819	-35.8788	-9.0862	-0.321201
0.0987	-12.2651	37.2488	6.52702	-87.5854	-4.11285	-0.316361	1.05403	-17.5626	-8.18577	0
0.0993	-9.17736	16.7824	7.13493	-49.7398	-4.72314	0.920324	0.133421	23.0111	-2.7013	-0.321201
0.1000	-3.08771	49.7333	6.20707	1.20145	-2.89226	3.04857	-0.173448	44.1094	2.21016	-0.642401
0.1007	5.40349	236.182	0.415938	26.5519	-0.756233	4.57286	1.96129	-14.4906	3.43802	-0.321201
0.1013	9.69198	314.636	-17.8853	33.5804	-2.28197	1.52429	1.05403	-104.217	4.01103	0
0.1020	11.5789	263.061	-26.1401	24.3893	-5.02829	-1.84065	-1.38758	-121.605	4.91146	-0.321201
0.1027	13.037	208.416	-22.7806	27.453	-4.72314	-1.52429	-2.30819	-52.6299	6.46676	-0.321201
0.1033	11.8362	153.225	-26.428	30.5167	-3.19741	-0.920324	-3.21546	-55.0644	9.16806	-0.321201
0.1040	9.43467	79.9553	-23.9964	8.83063	-0.14594	1.84065	-1.08071	-108.796	11.2964	-0.321201
0.1047	8.14812	-3.68395	-17.2774	-22.2868	0.7695	3.36493	-0.173448	-75.2353	9.49549	0
0.1053	7.89081	-68.0166	-18.2053	-76.2918	0.159207	4.57286	-2.00132	-45.0368	4.33846	0
0.1060	10.2924	-60.444	-18.4932	-108.971	1.99009	9.14572	-1.38758	-41.3852	4.33846	-0.321201
0.1067	12.4366	-52.8032	-16.3815	-67.7615	3.51582	11.3027	-1.69445	-17.2728	14.0795	-0.321201
0.1073	15.1812	-148.586	-11.1983	-40.0081	6.26214	10.9864	-1.38758	-9.91158	24.721	-0.321201
0.1080	15.7816	-235.568	4.06339	-64.6978	8.70332	10.67	-0.480317	0.173887	28.4046	-0.321201
0.1087	7.54773	-227.654	20.8609	-66.1997	7.78788	8.54175	-2.30819	78.8869	28.732	-0.321201
0.1093	-2.48732	-269.474	29.1156	-51.6021	7.17758	7.33383	-3.82919	202.811	22.5927	-0.321201
0.1100	-10.4639	-382.039	43.4495	-52.5032	6.56729	7.33383	-3.21546	268.076	10.1504	-0.321201
0.1107	-17.7543	-299.969	62.0707	-42.411	5.65185	7.01747	-1.08071	271.148	-5.73004	-0.321201
0.1113	-19.5555	-68.0166	60.5349	-23.1879	4.73641	5.49318	-0.480317	281.234	-14.5707	-0.321201
0.1120	-16.5536	-28.0389	43.4495	-11.594	3.82097	3.9689	-2.00132	240.602	2.78316	-0.321201
0.1127	-16.2105	-127.847	21.1808	-7.92954	2.60038	3.04857	-2.92193	125.257	31.4333	-0.321201
0.1133	-23.2436	-190.747	-6.91096	-6.7281	0.159207	1.20792	-2.92193	86.8278	49.442	-0.321201
0.1140	-29.0759	-193.748	-26.428	-3.66441	-1.06138	1.20792	-2.00132	116.736	57.7097	-0.642401
0.1147	-17.4112	27.766	-33.7549	-0.300361	0.7695	3.04857	0.440291	154.238	53.4531	-0.642401
0.1153	3.60233	285.642	-42.9376	-0.901084	1.68494	3.04857	1.65443	214.055	48.869	-0.321201
0.1160	14.3235	279.23	-52.3761	-2.76332	-0.14594	0.920324	-0.173448	165.831	35.4444	-0.321201
0.1167	16.4678	114.748	-49.6246	-3.36405	-3.19741	-0.316361	-2.30819	-38.603	-11.2145	-0.321201
0.1173	16.4678	-1.84197	-34.0749	-3.66441	-4.72314	-0.316361	-2.61506	-257.701	-53.0438	-0.321201
0.1180	13.9805	120.547	-14.8458	-1.20145	-2.58711	0.316361	-0.173448	-408.462	-57.9552	0
0.1187	9.69198	310.338	-8.44673	1.80217	-0.756233	1.52429	3.18877	-483.871	-49.6876	-0.321201
0.1193	4.8031	327.462	-13.022	0.901084	-4.41799	-0.920324	1.3609	-412.751	-48.7872	-0.321201
0.1200	4.54579	275.273	-16.6695	0	-5.94373	-2.76097	-3.52232	-223.561	-55.1721	0
0.1207	7.29042	200.843	-10.2705	0.300361	-1.97682	-0.316361	-3.21546	-126.822	-48.4597	-0.321201
0.1213	7.89081	49.1193	5.91911	-10.6929	1.07465	1.84065	-1.08071	-141.428	-35.0351	-0.321201
0.1220	8.83428	-64.4008	5.3112	-18.6224	4.43126	3.65253	0.440291	-117.664	-32.3338	-0.321201
0.1227	7.89081	-74.7705	-6.30306	-1.50181	4.73641	2.44461	-1.69445	-63.9326	-34.1347	-0.321201
0.1233	4.20272	-80.8422	5.59916	22.8875	2.29523	-0.920324	-6.57767	-48.0509	-32.3338	-0.321201
0.1240	0.600388	-130.575	21.4688	31.4178	4.43126	0	-5.96394	-48.0509	-24.9666	-0.321201
0.1247	-5.83234	-190.747	25.7561	24.9901	5.65185	0.316361	-3.82919	-23.3589	-17.0264	-0.321201
0.1253	-11.0643	-199.274	30.3315	18.9228	5.04155	0.316361	-2.92193	6.25995	-12.1968	-0.321201
0.1260	-8.92005	-145.584	14.4618	23.1879	8.09302	3.04857	1.05403	12.6358	-7.61276	-0.321201
0.1267	-4.97464	-113.179	-5.37519	34.4815	9.61876	3.36493	2.26816	19.7072	-3.60174	-0.321201
0.1273	-6.43273	-195.931	6.52702	42.411	8.09302	1.52429	0.133421	52.6299	-3.02873	-0.321201
0.1280	-9.52044	-308.496	17.8213	47.2769	5.65185	0.316361	-1.08071	58.1364	-3.02873	-0.321201
0.1287	-11.0643	-233.453	-0.79988	57.0687	5.65185	0.316361	0.133421	7.47716	-2.1283	-0.321201
0.1293	-12.8655	-56.1461	-23.9964	68.6626	9.00846	2.73221	3.80251	-12.9836	-1.14601	-0.321201
0.1300	-15.3528	-48.8464	-17.8853	78.4544	8.70332	2.44461	4.70977	-1.3911	-1.47344	-0.321201
0.1307	-13.4658	-143.128	-5.37519	69.5637	5.957	0.316361	2.26816	-54.1949	-3.60174	-0.321201
0.1313	-7.97658	-202.958	-3.55147	7.92954	4.73641	0.316361	1.65443	-137.197	-6.9579	-0.321201
0.1320	-7.97658	-233.726	11.1023	-75.6911	3.82097	-0.316361	1.96129	-204.028	-9.74106	-0.321201
0.1327	-11.6647	-176.693	21.4688	-95.2146	3.21067	-1.20792	1.3609	-182.06	-8.5132	0
0.1333	-13.4658	-15.5544	12.9261	-51.6021	4.43126	-0.316361	1.96129	31.2997	-3.60174	-0.321201
0.1340	-15.0097	248.121	7.74284	-16.1594	3.82097	-0.603962	1.96129	220.199	-0.900434	-0.321201
0.1347	-14.4093	488.873	-1.11983	-3.06369	3.21067	-1.20792	1.05403	172.902	0.327431	-0.321201
0.1353	-13.2085	394.592	-18.8132	0.600723	2.90553	-1.20792	0.133421	74.5977	1.88273	-0.321201
0.1360	-14.6666	78.4544	-5.9831	-2.1626	1.99009	-2.12825	-0.773844	114.882	2.21016	-0.321201
0.1367	-16.5536	-65.0148	29.7235	-3.36405	5.3467	0.603962	2.57503	118.881	3.43802	-0.321201
0.1373	-13.4658	-74.1565	32.4431	-4.86585	8.39817	2.44461	4.40291	-30.6621	6.46676	-0.642401
0.1380	-8.31966	-90.052	-2.33565	-9.49142	7.48273	0.920324	2.26816	-114.302	7.9402	0
0.1387	-5.83234	-183.72	-20.029	-11.2936	5.04155	-1.52429	0.133421	-67.2944	6.79419	0.321201
0.1393	-4.28849	-344.244	-7.23092	-13.7566	1.68494	-3.65253	-2.92193	-15.418	5.56632	0
0.1400	-3.43079	-133.645	13.246	-21.0854	3.21067	-2.12825	-1.69445	6.83957	5.23889	-0.321201
0.1407	-3.6881	258.763	23.6125	-19.5235	5.3467	-0.316361	1.3609	-63.0052	6.79419	-0.321201
0.1413	-6.17542	170.007	26.972	3.36405	2.60038	-2.44461	-0.773844	-207.042	8.59506	-0.321201
0.1420	-7.03312	15.2816	21.7887	29.0149	1.37979	-3.36493	-3.21546	-165.541	11.2964	-0.321201
0.1427	-7.37619	122.662	-17.8853	35.9833	1.99009	-3.36493	-4.44293	47.7611	14.6525	-0.321201
0.1433	-14.4093	137.056	-29.1796	36.2837	2.60038	-3.04857	-4.44293	208.607	16.8627	0
0.1440	-21.0993	110.45	14.7498	39.9481	6.56729	0.316361	-0.773844	301.984	18.6636	-0.321201
0.1447	-22.0428	89.438	26.364	36.6441	8.39817	0.603962	1.05403	271.728	18.991	-0.321201
0.1453	-18.6978	-72.9285	-5.08724	35.0822	6.56729	-1.20792	-1.08071	153.659	17.7631	-0.321201
0.1460	-0.943467	-148.586	-9.3426	46.6762	5.957	-0.316361	-2.00132	74.0181	18.6636	-0.642401
0.1467	23.4151	-112.633	34.5868	57.9697	6.26214	0	-0.773844	4.40515	19.2366	-0.642401
0.1473	31.649	-147.699	58.7112	35.6829	7.78788	0	1.65443	-45.0368	12.8517	-0.321201
0.1480	26.1598	-141.9	21.7887	-29.0149	9.9239	1.52429	3.80251	-90.1896	1.22787	-0.321201
0.1487	15.7816	-187.677	-33.7549	-81.458	9.00846	0.603962	1.65443	-128.329	-7.61276	-0.321201
0.1493	-1.54385	-296.626	-51.7682	-79.0551	7.17758	-1.20792	-1.08071	-10.2014	-8.18577	-0.321201
0.1500	-22.9005	-290.827	-23.7084	-49.4395	5.65185	-1.52429	-1.69445	181.712	-5.48446	0
0.1507	-32.6783	-222.742	-3.55147	-30.2164	3.82097	-1.84065	-3.52232	233.937	-4.8296	0
0.1513	-23.844	7.02679	-11.8062	-20.785	3.82097	-1.20792	-1.69445	173.771	-5.73004	-0.321201
0.1520	-15.6101	344.517	-7.83882	-14.958	2.90553	-2.12825	-0.173448	77.0321	-5.15703	-0.642401
0.1527	-17.4112	502.04	11.3903	-12.495	-0.451086	-4.88922	1.05403	-16.925	-2.7013	-0.642401
0.1533	-17.1539	608.192	6.20707	-9.49142	-2.28197	-5.80954	4.09604	-93.8412	-0.573004	-0.642401
0.1540	-14.4093	688.489	-29.1796	-7.02846	-1.97682	-5.17682	5.63038	-169.83	-0.245573	-0.321201
0.1547	-14.4093	648.511	-56.0556	-3.96477	2.60038	-3.04857	7.15139	-221.996	0.327431	0
0.1553	-22.3001	651.854	-43.5455	-2.1626	4.43126	-3.04857	5.32351	-272.076	0	0
0.1560	-35.766	541.677	-27.3559	-2.76332	1.37979	-6.09714	-0.773844	-244.602	-2.1283	-0.321201
0.1567	-42.1987	180.65	-29.7875	-1.50181	1.68494	-6.09714	-2.61506	0.173887	-2.1283	-0.321201
0.1573	-41.2552	-69.5857	-23.7084	0	3.51582	-5.17682	-1.69445	305.636	-0.573004	-0.321201
0.1580	-36.9667	-71.4276	-18.2053	1.50181	5.957	-3.65253	-0.773844	383.132	1.22787	-0.321201
0.1587	-28.7328	-33.2237	-41.6898	2.76332	9.31361	-1.20792	1.05403	135.342	2.78316	-0.642401
0.1593	-20.1559	-39.9776	-67.6379	2.10253	7.48273	-2.76097	-1.08071	-199.159	2.78316	-0.321201
0.1600	-14.4093	-99.4666	-13.31	1.50181	5.65185	-3.65253	-2.61506	-246.746	2.78316	-0.321201
0.1607	-10.7212	-126.96	63.5745	1.80217	5.957	-3.36493	-2.00132	-130.763	3.6836	-0.321201
0.1613	-7.71927	0.613991	44.9533	2.10253	5.65185	-3.36493	-4.13606	-63.0052	3.43802	-0.321201
0.1620	-8.31966	33.292	-16.3815	3.66441	6.87244	-1.20792	-2.61506	124.04	3.6836	-0.642401
0.1627	-17.4112	-133.031	-38.6502	3.96477	5.65185	-1.52429	-2.61506	283.379	4.01103	-0.321201
0.1633	-27.7894	-220.969	-5.69515	3.36405	3.51582	-3.9689	-6.2708	210.114	2.78316	-0.321201
0.1640	-33.6217	-181.264	27.5799	3.66441	3.51582	-4.28526	-8.09868	157.02	2.45573	0
0.1647	-33.2786	-57.3741	-2.33565	4.26513	4.12611	-4.57286	-9.93989	144.211	3.43802	-0.321201
0.1653	-22.0428	33.5648	-28.5717	6.12737	8.70332	-2.12825	-8.40555	42.2546	4.58403	-0.321201
0.1660	-7.03312	-141.9	16.2856	7.62918	9.9239	-0.920324	-5.05667	-22.7213	6.13933	-0.321201
0.1667	2.05847	-498.97	46.809	8.53026	8.09302	-1.52429	-0.773844	20.2869	10.3959	-0.321201
0.1673	3.00194	-613.104	-4.76729	10.6929	9.9239	-0.316361	6.53765	102.362	17.1083	-0.321201
0.1680	-8.92005	-387.838	-56.9515	10.6929	7.78788	-1.52429	8.68573	151.514	22.0197	0
0.1687	-18.3547	-202.617	-63.6705	9.13099	4.43126	-2.44461	8.37886	182.93	22.0197	0
0.1693	-10.1208	-307.61	-31.3233	8.2299	3.51582	-1.52429	8.37886	307.433	20.7919	0
0.1700	3.34502	-351.544	72.7251	6.7281	1.37979	-1.84065	4.09604	445.384	21.3649	0
0.1707	11.2358	-96.1237	137.739	6.42773	1.99009	-1.52429	1.96129	203.101	25.9489	0
0.1713	17.0682	-50.0744	68.4697	5.16622	2.29523	-1.52429	0.133421	-239.443	31.7608	-0.321201
0.1720	23.7582	-279.502	0.703894	2.46296	3.21067	-0.316361	-1.69445	-338.617	35.1169	-0.321201
0.1727	31.3917	-300.583	-38.3303	0.901084	7.17758	3.04857	0.440291	-268.076	37.5727	-0.321201
0.1733	34.7367	-115.362	-98.7692	0.600723	5.65185	1.84065	-1.38758	-145.138	36.6722	-0.321201
0.1740	28.304	-115.976	-77.3964	2.10253	3.82097	0.920324	-4.44293	93.5514	28.4046	-0.642401
0.1747	26.8459	-326.848	-14.2379	3.06369	4.73641	1.20792	-5.05667	109.723	15.3074	-0.642401
0.1753	31.9921	-303.312	-16.9895	3.06369	6.56729	1.52429	-4.7498	-60.8606	1.22787	-0.321201
0.1760	25.3021	87.255	-29.1796	4.26513	10.229	3.65253	-2.00132	-85.6106	-15.7985	-0.321201
0.1767	14.3235	202.344	-32.2512	4.86585	7.78788	2.12825	-2.92193	130.126	-31.1059	-0.642401
0.1773	8.83428	48.5053	-21.8527	3.96477	1.07465	-1.20792	-5.96394	363.888	-37.1634	-0.642401
0.1780	-10.7212	347.314	33.6909	1.80217	-2.58711	-3.36493	-6.2708	340.703	-39.6191	-0.642401
0.1787	-40.3118	291.782	81.5878	-0.901084	-5.02829	-4.88922	-8.09868	191.16	-38.7187	-0.321201
0.1793	-38.5106	-254.192	60.5349	-1.20145	-2.58711	-3.04857	-6.88454	129.546	-27.7498	0
0.1800	-8.31966	-65.6288	3.77543	-1.20145	-0.756233	-1.20792	-3.52232	220.779	-16.7808	-0.321201
0.1807	13.037	437.912	-25.5322	-1.86224	-1.97682	-1.84065	-4.13606	287.03	-13.6702	0
0.1813	20.0701	539.835	-11.1983	-0.901084	-1.36653	-1.52429	-4.7498	49.2681	-13.4247	0
0.1820	19.8128	433.682	-14.8458	-0.300361	-1.67167	-2.12825	-5.96394	-305.636	-12.7698	-0.321201
0.1827	14.9239	339.332	-68.8537	0.901084	0.159207	-0.920324	-5.96394	-369.395	-10.9689	-0.321201
0.1833	15.5243	274.386	-108.24	2.76332	4.43126	1.84065	-2.00132	-377.046	-7.28533	-0.321201
0.1840	18.8693	166.05	-117.678	2.76332	3.21067	0	-1.38758	-603.505	-4.8296	-0.321201
0.1847	13.3801	200.502	-117.998	0.901084	-0.14594	-3.36493	-4.13606	-640.717	-4.2566	0
0.1853	1.20078	388.52	-92.3702	0.600723	-1.36653	-4.57286	-6.2708	-352.354	-3.35616	0
0.1860	1.45808	386.678	-42.2977	0.600723	-0.14594	-3.65253	-5.05667	-66.0772	-1.80087	-0.321201
0.1867	20.6705	200.502	-12.7021	6.12737	3.82097	-0.316361	0.74716	48.6885	0.982292	-0.321201
0.1873	29.8479	110.45	-57.5594	18.6224	2.60038	-1.52429	0.133421	-31.5895	3.11059	0
0.1880	28.0467	132.486	-153.097	29.3153	-1.67167	-4.88922	-5.96394	-198.232	4.33846	-0.321201
0.1887	38.4248	104.651	-195.203	35.0822	-2.28197	-5.49318	-6.2708	-216.548	4.58403	-0.321201
0.1893	46.3156	60.7169	-121.966	39.047	-1.36653	-5.17682	-4.7498	-142.356	4.91146	0
0.1900	38.6821	103.492	11.9982	40.6089	1.68494	-1.52429	-2.92193	-99.6375	6.79419	0
0.1907	21.614	159.911	78.5482	38.7466	1.99009	0	-2.30819	45.6165	8.26763	-0.642401
0.1913	0.600388	235.636	30.9394	34.1811	0.464354	-0.316361	-2.30819	180.205	7.36719	-0.321201
0.1920	-10.7212	242.595	-46.2651	32.6192	0.464354	0	0.440291	15.7078	5.56632	-0.321201
0.1927	-14.0662	39.0908	-143.019	38.4463	-0.451086	-1.20792	-0.173448	-267.497	3.11059	-0.321201
0.1933	-13.8089	-107.448	-292.852	24.9901	3.51582	0.920324	-0.480317	-285.175	-0.573004	-0.321201
0.1940	-2.23001	-80.5693	-316.369	-33.5804	10.229	5.17682	3.18877	-139.342	-3.60174	-0.321201
0.1947	4.8031	-93.3949	-116.463	-86.9847	8.70332	3.04857	1.65443	43.4719	-3.92917	-0.321201
0.1953	3.00194	-249.963	84.9473	-84.2213	5.957	0.316361	-1.69445	232.082	0	-0.321201
0.1960	6.94735	-548.976	138.955	-51.9025	7.48273	1.84065	-1.69445	167.106	8.59506	-0.321201
0.1967	28.6471	-769.058	90.1305	-27.7534	12.0599	5.49318	0.440291	37.9654	17.4357	-0.321201
0.1973	68.9588	-867.297	17.5014	-16.7602	15.7217	8.85812	5.01664	109.085	20.4644	-0.321201
0.1980	84.8262	-877.393	-0.191971	-12.495	9.61876	6.41351	5.63038	132.27	15.8804	-0.642401
0.1987	57.0368	-640.87	83.4115	-11.594	-0.14594	0.920324	2.57503	58.1364	8.92249	-0.321201
0.1993	16.7251	-689.103	209.153	-11.2936	-6.85917	-1.84065	1.96129	163.106	5.8119	-0.321201
0.2000	-29.3332	-888.036	278.422	-8.83063	-10.5209	-2.12825	3.18877	441.152	6.79419	-0.321201
0.2007	-51.033	-217.558	265.016	-3.96477	-8.69005	-0.603962	6.24412	669.119	8.92249	0
0.2013	-29.0759	733.378	181.093	-0.600723	-8.07975	-2.44461	5.93725	612.953	10.1504	-0.321201
0.2020	-7.97658	961.305	62.0707	0	-9.91064	-6.09714	0.440291	106.651	10.7234	-0.642401
0.2027	2.40155	765.715	5.59916	0	-9.60549	-6.70111	-2.92193	-525.082	12.5242	-0.321201
0.2033	21.614	582.882	34.2989	1.50181	-8.07975	-5.80954	-4.44293	-812.866	15.6348	0
0.2040	42.9706	481.847	38.2663	6.42773	-2.58711	-1.20792	-2.30819	-865.032	16.8627	-0.642401
0.2047	50.261	452.921	14.7498	7.02846	0.464354	1.52429	-0.480317	-858.598	13.7521	-0.642401
0.2053	36.881	363.142	-9.3426	3.06369	-2.89226	-0.920324	-3.52232	-626.69	7.9402	0
0.2060	15.5243	242.595	-59.703	1.50181	-5.33343	-2.12825	-4.13606	-215.331	3.11059	-0.321201
0.2067	-11.0643	301.538	-60.311	2.46296	-7.16431	-0.920324	-1.69445	102.71	-2.1283	-0.642401
0.2073	-44.9433	349.77	4.38334	6.12737	-6.24887	1.52429	0.133421	191.798	-4.2566	-0.642401
0.2080	-56.1792	141.286	21.7887	10.0921	-4.11285	3.36493	-0.173448	248.253	2.21016	-0.321201
0.2087	-37.9102	-75.6573	24.2204	8.2299	-5.02829	2.44461	-4.13606	295.261	14.6525	-0.321201
0.2093	-7.37619	-172.395	92.2742	7.32882	-5.63858	1.52429	-7.49828	71.2359	23.8206	-0.321201
0.2100	21.2709	-203.572	111.791	13.0958	-4.41799	1.52429	-7.49828	-301.347	27.5042	-0.321201
0.2107	28.9044	-160.525	23.6125	18.9228	-1.36653	3.65253	-3.82919	-408.172	31.1878	-0.321201
0.2113	17.6686	-137.943	-81.3638	16.7602	2.90553	7.62143	1.05403	-272.076	33.8891	-0.321201
0.2120	2.40155	-176.966	-169.575	7.92954	3.51582	8.22539	1.05403	-106.651	34.8714	0
0.2127	-21.6997	-129.689	-164.679	3.06369	-0.14594	6.41351	-4.7498	268.424	36.9997	0
0.2133	-52.8341	-45.4353	-52.0882	-0.600723	-1.67167	5.17682	-8.71242	527.516	37.5727	-0.321201
0.2140	-76.335	-111.678	29.4036	-4.56549	-1.36653	5.17682	-8.40555	302.854	33.3161	-0.321201
0.2147	-74.5339	-116.863	89.5226	-5.16622	1.07465	7.33383	-4.7498	179.568	25.9489	0
0.2153	-46.1441	-0.613991	196.93	-33.8808	3.82097	10.3824	-0.480317	210.114	14.407	-0.321201
0.2160	-13.8089	3.68395	235.997	-79.3555	1.68494	9.46208	-0.173448	84.973	-0.900434	-0.321201
0.2167	9.69198	-106.22	168.551	-75.0903	0.464354	8.22539	-0.480317	68.2218	-15.7985	-0.321201
0.2173	23.1578	-165.982	169.799	-38.4463	1.37979	8.54175	1.65443	51.7025	-33.8072	-0.321201
0.2180	44.1714	-18.6244	204.577	-17.421	2.90553	9.46208	3.18877	-77.6697	-55.1721	0
0.2187	66.4715	207.802	52.8881	-9.79178	5.65185	11.3027	6.24412	-133.198	-69.8246	0
0.2193	60.9823	168.438	-159.816	-9.79178	2.60038	8.85812	6.84452	-65.7874	-76.5369	-0.321201
0.2200	45.1149	-35.4068	-190.307	-14.958	-4.72314	2.73221	2.8819	262.918	-80.548	-0.321201
0.2207	31.9921	-76.8853	-121.038	-11.594	-6.24887	0.603962	5.01664	465.207	-73.1808	-0.321201
0.2213	26.1598	-116.863	-12.0942	0.901084	-4.11285	1.20792	12.0346	147.572	-48.4597	0
0.2220	50.0037	-240.139	98.6732	10.3925	-0.14594	3.04857	15.3968	-69.439	-24.6392	0
0.2227	71.0173	-265.517	3.77543	11.8943	0.159207	1.84065	10.2067	276.655	-18.2543	-0.321201
0.2233	56.4365	-404.074	-249.211	9.73171	-5.33343	-3.9689	1.96129	831.472	-17.9268	-0.321201
0.2240	33.536	-501.426	-344.748	10.0921	-8.69005	-7.62143	-0.173448	841.499	-15.7985	-0.321201
0.2247	19.2124	-271.93	-238.524	11.2936	-9.30034	-9.14572	1.96129	370.96	-15.2255	-0.642401
0.2253	21.0136	-15.8955	-200.386	11.2936	-9.30034	-9.46208	3.18877	80.7417	-15.2255	-0.642401
0.2260	53.0914	212.1	-203.458	12.1947	-7.16431	-9.77844	2.26816	-201.883	-12.1968	-0.321201
0.2267	70.76	115.089	-70.3895	12.1947	-8.69005	-12.5106	-2.00132	-440.225	-2.7013	-0.321201
0.2273	21.614	-291.714	-28.2838	12.7954	-10.5209	-14.3513	-5.65707	-284.248	7.9402	-0.321201
0.2280	-36.0233	-256.307	-181.765	14.0569	-8.69005	-14.3513	-5.36354	-188.146	12.8517	-0.642401
0.2287	-32.6783	139.785	-225.118	11.2936	-6.85917	-13.7473	-2.61506	-338.269	17.1083	-0.321201
0.2293	-29.6763	283.527	-68.5657	7.02846	-4.11285	-10.9864	2.26816	-200.029	25.3759	-0.321201
0.2300	-69.9023	158.41	12.3182	5.46658	-2.28197	-7.62143	7.45825	-72.5111	32.6612	-0.642401
0.2307	-101.98	219.741	-39.5781	3.96477	-3.8077	-6.70111	9.28613	-461.903	36.0174	-0.321201
0.2313	-105.668	577.083	132.556	1.80217	-3.19741	-5.80954	8.37886	-607.737	34.2165	-0.321201
0.2320	-77.2785	703.156	430.112	0.901084	-1.67167	-6.09714	5.01664	-279.379	29.305	-0.321201
0.2327	-27.189	423.927	399.876	1.50181	0.7695	-5.80954	1.05403	-164.671	23.8206	-0.321201
0.2333	-0.943467	156.841	282.71	3.96477	6.26214	-2.12825	1.96129	-57.5567	18.3361	-0.321201
0.2340	-6.43273	-19.5113	271.415	8.2299	7.78788	-0.316361	2.8819	101.492	14.6525	-0.642401
0.2347	-11.6647	-159.569	122.19	11.2936	5.3467	-1.20792	0.74716	-92.0444	8.59506	-0.642401
0.2353	-11.0643	-126.005	19.3251	9.43135	4.73641	-0.603962	1.65443	-572.032	-3.35616	-0.321201
0.2360	-21.4424	-15.2816	41.3058	7.92954	5.04155	2.44461	3.49564	-867.756	-8.5132	0
0.2367	-29.9336	50.0744	-80.7559	10.3925	8.09302	9.14572	8.68573	-603.795	-5.48446	0
0.2373	-37.9102	114.748	-203.458	11.2936	10.5342	16.1632	14.7831	46.5439	-3.92917	-0.321201
0.2380	-58.9238	104.651	-147.594	10.3925	7.17758	17.3999	12.0346	595.564	-3.02873	-0.321201
0.2387	-62.6119	-21.3532	-136.3	10.0921	2.29523	14.3513	6.84452	712.127	-2.7013	-0.321201
0.2393	-47.688	-299.969	-219.615	8.53026	-0.756233	12.5106	5.63038	585.769	-7.61276	-0.321201
0.2400	-42.1987	-812.037	-163.176	7.02846	0.7695	13.1146	5.01664	288.827	-10.6415	-0.321201
0.2407	-40.6548	-1043.99	-38.3303	4.86585	6.56729	16.7959	8.07199	20.5767	-6.9579	0
0.2413	-64.7561	-555.73	-44.1534	-2.1626	9.00846	20.7648	10.8205	167.685	-4.8296	0
0.2420	-96.1478	83.9121	-72.2132	-8.53026	6.26214	20.4484	7.45825	550.701	-5.73004	-0.321201
0.2427	-91.259	361.641	15.3577	-8.2299	5.65185	19.8445	5.32351	736.239	-4.50217	-0.321201
0.2433	-72.6469	296.967	218.015	-6.42773	8.39817	21.0524	4.09604	630.632	-2.7013	-0.321201
0.2440	-35.4229	6.4128	342.829	-6.7281	11.4496	21.0524	1.65443	394.145	0	0
0.2447	31.0486	-35.4068	236.924	-8.53026	12.3651	19.5281	-0.173448	171.337	3.43802	-0.321201
0.2453	82.682	289.94	9.56657	-12.495	8.09302	15.2716	-1.69445	-1.68091	6.46676	-0.321201
0.2460	86.6274	328.076	-242.812	-15.5587	2.60038	10.3824	-2.30819	-218.692	4.01103	-0.321201
0.2467	71.3604	-47.8913	-226.942	-12.495	0.464354	6.09714	-3.21546	-281.234	2.21016	-0.321201
0.2473	74.7054	-356.729	41.3058	-2.76332	2.90553	5.17682	-3.52232	-198.232	9.49549	0
0.2480	83.8828	-473.933	40.6979	2.46296	7.78788	5.80954	-2.00132	-258.049	10.1504	-0.321201
0.2487	70.4169	-565.486	-107.024	-3.66441	9.61876	3.65253	-2.00132	-138.704	-2.1283	-0.321201
0.2493	31.0486	-434.569	-221.759	-10.0921	7.78788	-0.316361	-4.44293	220.779	-12.7698	0
0.2500	-14.6666	-72.6556	-381.671	-11.594	3.21067	-3.65253	-6.88454	559.86	-18.2543	0
0.2507	-34.5652	-201.116	-300.179	-11.2936	-1.36653	-6.41351	-8.09868	1181.51	-22.2653	0
0.2513	0.857697	-744.021	-74.9648	-11.594	-4.72314	-9.77844	-7.80515	1327.69	-24.3936	0
0.2520	42.3702	-617.675	56.8555	-12.495	-8.3849	-13.7473	-6.57767	317.518	-24.0662	0
0.2527	34.1363	-3.68395	82.1957	-12.7954	-10.8261	-16.4795	-5.36354	-571.452	-21.6104	-0.321201
0.2533	-5.83234	243.823	-102.129	-13.4562	-12.0467	-18.9242	-5.05667	-644.369	-18.9091	-0.321201
0.2540	-57.4657	335.717	-213.216	-11.2936	-14.1827	-22.893	-5.05667	-572.032	-15.2255	-0.321201
0.2547	-76.335	452.921	-90.2265	-3.36405	-14.1827	-26.8619	-2.00132	-633.704	-6.71233	-0.321201
0.2553	-47.0876	478.845	27.2599	7.92954	-9.30034	-26.8619	5.01664	-630.979	3.6836	-0.321201
0.2560	-41.8556	484.303	80.052	14.6576	-6.85917	-26.5456	6.53765	-537.254	10.3959	-0.321201
0.2567	-83.3681	402.505	24.5083	15.8591	-10.2158	-29.3066	0.74716	-335.255	13.7521	-0.321201
0.2573	-123.337	160.866	-97.8413	17.3609	-8.07975	-26.5456	1.05403	-254.687	18.0087	-0.321201
0.2580	-125.481	-63.4457	-202.85	21.0253	-2.58711	-21.0524	2.8819	-380.118	23.8206	-0.642401
0.2587	-88.8574	-30.222	-190.02	25.3505	1.37979	-17.3999	-0.773844	-136.849	29.305	-0.321201
0.2593	-57.4657	128.188	84.6273	29.0149	5.65185	-12.827	-0.773844	65.1498	32.6612	0
0.2600	-36.0233	179.763	313.521	30.5167	5.957	-11.5903	2.26816	-281.234	33.6435	-0.321201
0.2607	-2.8304	424.814	329.103	30.2164	5.3467	-14.3513	2.26816	-392.29	33.3161	-0.321201
0.2613	31.9921	609.761	326.031	29.0149	5.957	-17.6875	-1.38758	-71.2359	30.2873	-0.321201
0.2620	58.2376	318.934	155.433	28.0538	5.65185	-18.9242	-1.08071	238.805	27.1768	-0.321201
0.2627	63.7269	97.9657	-47.1929	28.0538	7.78788	-16.4795	7.15139	401.738	27.1768	0
0.2633	58.2376	270.088	57.4954	28.0538	10.229	-14.0349	18.1453	383.77	27.8316	0
0.2640	55.493	493.444	210.688	27.1527	9.61876	-14.6389	20.5869	300.419	26.6037	-0.321201
0.2647	27.1032	458.72	308.626	23.7886	8.09302	-14.0349	16.0106	264.715	23.8206	-0.642401
0.2653	-25.3878	293.283	423.393	18.6224	5.65185	-12.827	16.3041	13.853	21.3649	-0.321201
0.2660	-51.8907	10.0967	320.24	14.0569	3.51582	-13.1146	13.8625	-299.202	18.6636	-0.321201
0.2667	-31.4775	-324.733	141.419	11.8943	3.82097	-10.9864	11.1273	-229.647	15.3074	-0.642401
0.2673	-4.28849	-355.501	181.989	11.594	1.37979	-9.77844	10.8205	-95.3483	13.1791	-0.642401
0.2680	-5.57503	-237.137	238.14	9.43135	-3.8077	-11.5903	12.0346	55.0644	12.5242	-0.321201
0.2687	-14.4093	-197.432	84.3394	6.7281	-8.3849	-14.3513	11.1273	309.578	11.6238	0
0.2693	-32.4209	-122.662	-122.574	6.12737	-10.8261	-16.7959	-48.3919	358.73	11.0508	-0.321201
0.2700	-66.3	-19.8524	-235.197	6.7281	-7.77461	-11.9067	-155.809	363.888	11.2964	-0.321201
0.2707	-62.2688	84.2532	-391.141	6.12737	-3.50255	-3.9689	-198.838	184.495	10.7234	-0.321201
0.2713	-15.9532	28.1071	-388.678	2.10253	-3.19741	-0.603962	-174.115	-532.675	7.36719	-0.321201
0.2720	12.1793	-185.221	22.0767	-3.06369	-4.11285	0.603962	-148.485	-1015.79	2.45573	0
0.2727	-2.48732	-312.18	385.254	-8.2299	-5.94373	0.920324	-124.989	-680.711	-0.900434	0
0.2733	-21.4424	-577.083	471.609	-11.8943	-7.77461	1.84065	-90.8066	-188.784	-1.80087	0
0.2740	15.7816	-796.483	481.688	-11.8943	-3.8077	7.33383	-46.5507	2.26054	-0.900434	-0.321201
0.2747	81.7385	-556.617	425.536	-11.594	0.7695	12.1943	5.63038	111.23	0	-0.321201
0.2753	100.351	-144.629	286.965	-13.1558	-1.67167	10.9864	61.1737	146.355	-2.37387	-0.321201
0.2760	90.9159	38.1357	109.968	-14.6576	-6.24887	9.77844	106.03	35.8788	-6.71233	-0.321201
0.2767	87.2278	-23.4681	-22.4606	-16.1594	-8.9952	7.93779	90.473	-82.2487	-9.0862	0
0.2773	57.8945	78.1133	-43.5455	-16.7602	-7.77461	6.70111	13.8625	-161.599	-10.0685	0
0.2780	14.9239	278.343	-5.69515	-15.5587	-4.41799	10.066	-42.5881	-43.4719	-10.3141	0
0.2787	-4.28849	401.618	55.0317	-15.2584	-3.8077	13.1146	-56.9309	108.796	-10.3141	-0.321201
0.2793	-4.03118	597.823	214.048	-16.7602	-4.72314	12.1943	-48.3919	10.839	-10.9689	0
0.2800	19.2124	744.635	378.823	-17.421	-3.8077	10.67	-14.8231	-15.1282	-10.6415	-0.321201
0.2807	32.5925	672.593	245.179	-18.0217	-2.89226	8.54175	26.3774	198.232	-10.6415	-0.321201
0.2813	18.8693	449.51	-100.305	-20.1242	-2.28197	7.33383	49.5794	264.715	-11.8694	-0.642401
0.2820	5.40349	286.87	-277.59	-21.3857	-4.11285	7.62143	61.1737	141.428	-13.0972	-0.321201
0.2827	-13.2085	206.915	-351.147	-21.0854	-7.16431	7.01747	83.4417	145.428	-12.7698	0
0.2833	-40.6548	167.824	-306.578	-19.5235	-8.9952	6.70111	83.7486	67.8741	-11.5419	-0.321201
0.2840	-70.8458	367.44	-40.7939	-17.421	-10.8261	5.49318	55.3699	-221.706	-9.74106	-0.321201
0.2847	-90.0582	534.65	66.934	-14.958	-12.3518	3.04857	45.6034	-296.478	-8.84063	0
0.2853	-68.4442	250.577	35.8026	-12.495	-14.793	0.603962	48.9656	-139.632	-8.18577	0
0.2860	-12.8655	-312.794	129.197	-10.6929	-17.2342	-0.920324	38.8923	5.62236	-6.71233	-0.321201
0.2867	17.0682	-682.076	180.773	-8.53026	-14.793	-2.12825	25.4701	146.935	-5.15703	-0.321201
0.2873	-7.03312	-381.766	110.575	-5.16622	-12.657	-4.28526	19.6663	123.46	-3.35616	-0.321201
0.2880	-19.5555	253.578	67.2539	-0.300361	-12.0467	-5.49318	24.8564	-35.531	0.327431	-0.321201
0.2887	11.8362	486.759	61.7507	3.96477	-8.9952	-4.88922	41.9477	34.6036	4.58403	-0.321201
0.2893	58.5807	308.224	-48.1208	5.46658	-6.24887	-7.33383	57.8115	264.135	6.46676	-0.321201
0.2900	110.729	9.75564	-123.501	4.56549	-8.07975	-12.1943	56.2905	271.148	5.56632	-0.321201
0.2907	136.031	-155.954	-40.7939	5.16622	-9.60549	-14.6389	42.2546	-109.723	4.91146	-0.642401
0.2913	124.452	-51.8481	-24.3164	7.62918	-8.69005	-15.2716	29.4328	-466.482	6.13933	-0.321201
0.2920	93.0601	81.1833	-151.881	9.73171	-6.55402	-14.6389	34.316	-317.866	7.36719	0
0.2927	36.5379	75.3845	-212.608	12.1947	-5.02829	-12.5106	61.1737	-45.0368	8.59506	0
0.2933	-6.43273	49.4604	-153.097	13.0958	-8.3849	-12.1943	77.6512	-72.1633	10.1504	-0.321201
0.2940	4.20272	97.6928	-139.051	12.495	-11.4364	-12.1943	73.0749	-118.881	10.7234	-0.321201
0.2947	38.6821	133.645	-121.038	11.2936	-10.8261	-10.67	69.0989	93.8412	9.49549	-0.642401
0.2953	45.1149	123.89	-46.2651	8.2299	-9.91064	-9.46208	67.2711	184.495	7.69462	-0.321201
0.2960	14.3235	146.198	-82.8996	6.12737	-6.24887	-6.70111	57.8115	-67.0046	6.13933	-0.321201
0.2967	-7.71927	159.638	-119.214	4.56549	-5.33343	-5.49318	39.1992	-203.738	4.91146	0
0.2973	8.14812	98.5797	37.9463	3.66441	-8.69005	-6.41351	27.6049	-40.4578	4.58403	-0.321201
0.2980	32.5925	-69.2446	165.223	3.36405	-7.77461	-5.17682	29.7396	133.198	4.33846	-0.321201
0.2987	32.5925	-182.765	134.092	1.80217	-5.63858	-4.28526	28.2053	195.449	3.11059	0
0.2993	21.957	-160.797	78.8362	1.80217	-3.50255	-3.04857	24.2427	157.31	1.5553	-0.321201
0.3000	14.9239	-255.761	23.6125	1.80217	-2.58711	-2.12825	27.6049	121.605	0.327431	-0.321201
0.3007	10.8928	-354.273	49.8485	0	-5.63858	-3.36493	26.3774	277.234	-1.14601	0
0.3013	22.5574	-307.337	155.753	-0.300361	-5.94373	-3.04857	16.611	288.537	-1.14601	0
0.3020	38.0817	-211.145	108.432	0	-4.41799	-0.920324	8.97926	-120.098	-0.245573	-0.321201
0.3027	27.7036	-7.29967	-40.7939	-2.46296	-4.72314	0.603962	5.93725	-462.483	-0.573004	-0.321201
0.3033	26.1598	115.089	-86.2591	-4.86585	-4.11285	2.73221	-0.173448	-555.57	-2.1283	-0.321201
0.3040	53.9491	-6.07169	-36.2186	-7.02846	-4.11285	3.04857	-9.01929	-547.34	-3.92917	-0.321201
0.3047	49.0603	-171.167	75.1887	-8.53026	-5.33343	2.12825	-13.5956	-190.87	-4.8296	0
0.3053	24.3586	-221.583	84.6273	-8.2299	-4.41799	3.36493	-11.154	353.513	-4.2566	-0.321201
0.3060	33.536	-103.764	-73.7489	-8.2299	-5.94373	3.65253	-9.32615	433.791	-4.2566	-0.321201
0.3067	8.14812	87.255	-146.378	-8.83063	-8.07975	4.28526	-7.49828	107.289	-5.73004	0
0.3073	-54.9784	113.861	-92.3702	-8.53026	-7.16431	6.70111	-3.21546	-61.788	-6.71233	-0.321201
0.3080	-46.1441	-17.6693	-25.5322	-9.79178	-9.91064	4.57286	-6.2708	-44.6891	-9.0862	-0.321201
0.3087	36.881	-98.5797	161.256	-11.8943	-12.9621	1.20792	-14.2094	42.5445	-11.5419	-0.321201
0.3093	106.183	-130.575	348.012	-11.2936	-12.0467	2.12825	-14.2094	250.398	-10.9689	-0.321201
0.3100	103.095	-238.365	221.983	-9.49142	-9.30034	4.88922	-7.19141	347.137	-9.41363	-0.321201
0.3107	42.0272	-253.919	-104.88	-8.53026	-5.63858	7.01747	0.440291	160.034	-8.84063	-0.321201
0.3113	-10.4639	-79.0002	-338.957	-9.13099	-5.33343	7.01747	0.440291	142.356	-9.0862	-0.321201
0.3120	-18.3547	-132.759	-311.185	-10.3925	-7.16431	5.49318	-4.44293	605.012	-10.0685	-0.642401
0.3127	10.8928	-510.568	-187.588	-12.1947	-7.46946	3.65253	-9.93989	1016.66	-10.3141	-0.642401
0.3133	24.3586	-622.519	-170.79	-11.8943	-6.24887	4.57286	-12.6884	657.179	-9.41363	-0.642401
0.3140	-4.63156	-391.249	-54.5198	-9.13099	-3.50255	8.22539	-9.01929	-163.454	-7.61276	-0.321201
0.3147	-27.5321	-181.605	122.19	-8.53026	-3.50255	8.54175	-5.96394	-345.34	-6.9579	0
0.3153	-27.7894	43.9345	151.177	-10.0921	-6.24887	6.70111	-7.49828	-310.853	-7.61276	0
0.3160	-11.922	158.683	121.87	-11.594	-8.07975	5.80954	-9.01929	-724.009	-8.84063	0
0.3167	13.3801	90.3249	62.6786	-12.495	-8.69005	4.28526	-9.32615	-807.939	-9.74106	0
0.3173	14.3235	99.4666	-30.1075	-12.7954	-7.16431	4.57286	-9.01929	-504.621	-9.41363	0
0.3180	-2.8304	24.4232	-223.902	-12.1947	-3.19741	6.41351	-9.01929	-281.814	-8.5132	-0.321201
0.3187	-11.3216	-339.674	-468.346	-11.2936	-1.06138	6.70111	-9.63302	12.6358	-7.61276	-0.321201
0.3193	-18.0974	-589.909	-406.691	-10.3925	-1.36653	5.17682	-10.2468	306.564	-7.28533	-0.321201
0.3200	-31.8206	-479.732	-199.778	-10.0921	-3.19741	3.04857	-12.3815	350.499	-8.5132	0
0.3207	-32.4209	-60.7169	-269.976	-10.6929	-8.07975	-0.316361	-14.5162	337.689	-11.2145	-0.321201
0.3213	17.6686	348.542	-491.222	-9.79178	-12.3518	-2.44461	-13.2888	565.656	-13.6702	-0.321201
0.3220	94.2609	197.773	-525.393	-7.02846	-13.2673	-1.84065	-9.93989	625.473	-13.6702	-0.321201
0.3227	131.142	-55.2592	-368.841	-6.12737	-14.1827	-3.36493	-9.93989	211.621	-12.7698	0
0.3233	115.618	72.0416	-208.641	-5.52665	-13.2673	-2.76097	-10.5403	-46.8337	-10.9689	0
0.3240	61.3253	195.658	-77.7163	-5.16622	-10.2158	-0.920324	-9.32615	-211.041	-9.0862	-0.642401
0.3247	-11.922	263.061	89.2346	-4.56549	-9.30034	-0.316361	-10.5403	-463.7	-6.71233	-0.642401
0.3253	-80.8808	371.124	290.324	-3.06369	-6.24887	1.84065	-8.71242	-451.817	-3.92917	-0.321201
0.3260	-135.259	426.928	396.837	-2.1626	-4.11285	3.65253	-7.80515	-279.727	-2.7013	-0.321201
0.3267	-150.526	422.085	406.915	-1.20145	-4.11285	3.04857	-9.32615	-159.745	-2.1283	-0.321201
0.3273	-110.214	397.32	389.83	-0.300361	-5.02829	1.52429	-10.8472	-190.291	-1.80087	-0.321201
0.3280	-48.8887	366.553	316.561	0	-5.63858	0.603962	-11.4609	-235.733	-1.47344	-0.321201
0.3287	-12.2651	359.799	230.205	2.10253	-1.97682	2.73221	-6.88454	-171.975	-0.573004	-0.321201
0.3293	10.2924	288.712	158.792	2.46296	-2.89226	1.84065	-5.96394	-13.911	-0.573004	-0.321201
0.3300	38.6821	39.9776	157.288	0.901084	-6.85917	-0.603962	-9.93989	281.814	-2.1283	-0.321201
0.3307	46.0583	-134.873	272.311	1.80217	-5.94373	0.603962	-8.09868	404.172	-1.80087	-0.321201
0.3313	22.8147	-26.2652	224.414	3.06369	-5.33343	0.603962	-5.65707	181.133	-0.573004	-0.642401
0.3320	-7.71927	144.97	-74.3568	4.26513	-2.58711	2.12825	-2.92193	105.434	0	-0.321201
0.3327	-29.0759	57.7152	-227.262	4.56549	-0.14594	3.36493	0.133421	207.68	0.327431	-0.321201
0.3333	-24.7874	-162.025	-132.332	1.50181	-3.50255	0	-6.88454	73.3805	-0.900434	-0.321201
0.3340	-12.2651	-145.243	-110.671	0.901084	-4.41799	-1.84065	-13.2888	-53.2675	-1.47344	-0.642401
0.3347	-15.3528	-30.4949	-184.836	0.600723	-4.41799	-3.04857	-15.13	2.26054	-2.37387	-0.321201
0.3353	-1.88693	-24.0821	-166.503	-0.901084	-4.72314	-2.76097	-15.4235	-26.4309	-3.35616	0
0.3360	38.4248	-128.461	-93.8739	-0.901084	-0.756233	0.920324	-12.0746	2.89812	-3.02873	0
0.3367	60.6392	-281.958	-51.4803	-1.50181	-1.67167	0.316361	-12.9819	90.4794	-2.37387	-0.321201
0.3373	55.493	-278.343	-56.9515	-1.86224	-4.41799	-1.84065	-14.5162	51.1229	-1.47344	0
0.3380	55.1499	-158.683	-60.023	-0.600723	-5.33343	-3.04857	-12.3815	-54.4847	0	-0.321201
0.3387	55.1499	-85.1401	30.6194	1.20145	-4.11285	-3.36493	-8.09868	-265.642	1.88273	-0.321201
0.3393	4.8031	-90.5978	200.29	3.66441	1.37979	0.316361	-2.30819	-311.143	3.11059	0
0.3400	-53.1772	-85.7541	269.592	3.06369	1.99009	0.920324	-4.7498	-135.342	2.78316	-0.321201
0.3407	-22.3001	42.0925	142.315	0.901084	0.159207	-0.603962	-12.6884	-124.677	1.88273	-0.642401
0.3413	44.1714	146.471	4.38334	-0.600723	-0.451086	-2.12825	-19.0926	-188.146	0.327431	-0.321201
0.3420	77.7931	37.8628	-31.0353	-1.50181	-1.67167	-3.9689	-22.7483	-99.6375	-0.900434	-0.321201
0.3427	78.6508	-64.0597	-2.62361	1.80217	0.7695	-2.12825	-17.5716	145.718	0.654861	-0.321201
0.3433	23.4151	-29.608	85.2672	5.16622	0.464354	-2.76097	-13.2888	233.009	3.11059	-0.321201
0.3440	-44.9433	-58.8749	101.137	5.16622	-1.97682	-5.17682	-14.2094	19.7072	3.6836	0
0.3447	-56.7795	-25.9241	16.5735	5.46658	-1.67167	-5.49318	-13.5956	-286.103	3.43802	0
0.3453	-12.8655	132.145	-16.3815	4.86585	-4.11285	-8.54175	-16.3441	-622.691	2.45573	-0.321201
0.3460	28.9044	137.329	-9.05464	5.46658	-1.67167	-6.70111	-13.5956	-453.962	2.45573	-0.642401
0.3467	18.5263	19.5113	-54.5198	7.02846	1.68494	-4.28526	-8.09868	198.521	3.6836	-0.321201
0.3473	-12.8655	-18.0104	-98.7692	5.46658	-1.67167	-7.62143	-12.6884	412.113	2.45573	-0.321201
0.3480	-15.6101	-50.6202	-88.4027	4.26513	-2.28197	-7.93779	-15.13	181.423	1.5553	-0.321201
0.3487	6.08965	-115.021	-22.1727	3.06369	-2.58711	-7.33383	-14.5162	32.8068	1.22787	-0.321201
0.3493	7.29042	-77.2264	59.6071	3.06369	-0.756233	-4.88922	-9.93989	91.117	1.5553	0
0.3500	-23.844	36.0208	71.5093	4.26513	3.82097	-0.920324	-0.480317	99.3477	1.88273	0
0.3507	-28.4755	106.22	-42.0097	2.46296	0.7695	-2.12825	-1.38758	-84.6832	0	-0.321201
0.3513	9.09159	83.6392	-143.946	0.600723	-1.06138	-1.84065	-4.13606	-94.1311	-1.14601	0
0.3520	13.037	-61.3309	-84.7233	-1.20145	-0.756233	0	-4.13606	239.095	-3.02873	0
0.3527	-13.8089	-161.753	33.371	-2.76332	-0.14594	2.44461	-5.36354	390.783	-5.48446	-0.321201
0.3533	2.40155	-52.8032	159.112	-2.1626	4.43126	7.33383	-2.00132	64.5122	-5.48446	-0.321201
0.3540	36.2806	-21.3532	189.636	-4.26513	5.3467	8.22539	-1.38758	-169.83	-6.9579	-0.321201
0.3547	35.6802	-143.401	-4.15938	-8.53026	6.87244	10.3824	-0.173448	-67.0046	-11.5419	-0.321201
0.3553	16.4678	-118.705	-234.557	-11.594	6.87244	11.5903	1.96129	261.063	-14.3251	0
0.3560	-6.77581	-10.6425	-287.989	-11.594	5.65185	10.9864	0.440291	556.498	-13.9977	-0.321201
0.3567	-32.4209	39.3637	-219.615	-9.13099	9.61876	14.0349	2.26816	386.204	-12.1968	-0.321201
0.3573	-40.9121	93.6678	-190.947	-9.79178	8.39817	12.5106	-1.08071	226.575	-11.8694	-0.321201
0.3580	-41.8556	139.785	-135.084	-10.6929	4.73641	8.54175	-9.01929	334.038	-10.9689	-0.321201
0.3587	-56.7795	166.323	-11.1983	-8.53026	4.12611	6.70111	-12.9819	182.06	-9.0862	-0.321201
0.3593	-65.3565	188.291	-8.73469	-6.42773	2.90553	3.65253	-14.8231	-124.387	-6.9579	-0.321201
0.3600	-49.8322	161.411	-68.8537	-3.06369	5.65185	4.88922	-10.5403	-326.387	-3.35616	-0.321201
0.3607	-27.5321	47.8913	-47.1929	-2.1626	5.65185	4.57286	-11.154	-527.516	-2.37387	-0.321201
0.3613	-21.4424	-61.3309	37.0185	-3.66441	2.90553	2.12825	-17.5716	-391.421	-3.35616	0
0.3620	-23.844	-48.8464	167.655	-5.16622	3.82097	3.36493	-18.4789	-78.8869	-4.50217	-0.321201
0.3627	-12.8655	-1.50087	254.618	-7.62918	4.12611	3.04857	-19.7063	-93.8412	-6.3849	-0.642401
0.3633	10.0351	19.5113	192.067	-7.02846	9.00846	6.09714	-17.5716	-96.2757	-7.28533	-0.321201
0.3640	24.3586	31.45	17.8213	-7.02846	12.6702	8.54175	-14.5162	-110.65	-7.85834	-0.321201
0.3647	27.1032	-21.6261	-122.574	-8.2299	9.9239	5.49318	-17.2647	34.024	-7.85834	-0.321201
0.3653	23.4151	-93.6678	-135.404	-5.52665	9.61876	4.28526	-16.9579	596.782	-5.48446	-0.321201
0.3660	5.40349	-93.6678	-89.6186	-4.26513	6.87244	2.12825	-16.9579	619.039	-3.60174	-0.321201
0.3667	-18.3547	-56.419	-36.8265	-3.66441	7.17758	2.73221	-14.8231	-0.173887	-3.02873	-0.642401
0.3673	-36.9667	-20.1253	27.8678	-1.20145	10.5342	4.57286	-9.63302	-361.512	-2.1283	-0.642401
0.3680	-36.3664	-11.5976	54.1359	-1.50181	7.17758	0	-11.4609	-209.824	-2.7013	-0.321201
0.3687	-12.8655	-52.4621	48.9207	-1.50181	5.65185	-2.44461	-13.5956	22.7213	-3.02873	-0.642401
0.3693	-4.03118	-24.4232	43.1295	0	5.3467	-4.88922	-16.0372	-73.7283	-1.80087	-0.321201
0.3700	-13.8089	78.1133	51.6723	2.76332	7.48273	-5.17682	-14.5162	-196.667	0.327431	-0.321201
0.3707	-27.5321	91.5529	88.5947	5.76694	11.7548	-3.65253	-7.49828	-202.811	2.78316	-0.321201
0.3713	-34.5652	25.6512	86.771	4.26513	8.39817	-6.41351	-5.96394	-335.255	2.78316	0
0.3720	-9.77775	-19.2384	10.1745	3.96477	7.48273	-5.17682	-1.38758	-401.796	3.43802	-0.321201
0.3727	23.4151	-38.4768	-51.7682	5.16622	7.48273	-3.36493	5.01664	-179.278	4.01103	-0.321201
0.3733	34.7367	-39.3637	-41.6898	5.76694	8.39817	-0.316361	15.3968	125.257	3.11059	0
0.3740	23.4151	-30.4949	-46.585	6.12737	13.5857	7.93779	38.8923	183.277	0.327431	-0.321201
0.3747	3.34502	-42.4336	-128.973	1.80217	12.6702	12.1943	54.7561	39.1826	-4.50217	-0.321201
0.3753	3.60233	-77.8404	-174.758	-2.76332	12.3651	14.6389	59.6394	-25.5035	-8.84063	0
0.3760	12.1793	-73.8154	-125.933	-5.16622	12.9754	16.7959	60.2531	-13.2734	-12.4424	-0.321201
0.3767	10.2924	-37.2488	-110.063	-4.56549	12.0599	16.1632	53.2351	-44.6891	-13.0972	-0.642401
0.3773	-0.686158	-33.5648	-152.489	-1.20145	15.7217	17.3999	45.2966	-191.798	-10.6415	-0.642401
0.3780	-20.842	-34.1788	-138.443	-1.20145	14.8063	14.6389	34.316	-323.315	-10.6415	-0.642401
0.3787	-29.0759	-20.1253	-86.547	-0.600723	10.8393	8.85812	23.9358	-141.776	-10.3141	0
0.3793	-19.5555	-15.8955	-108.528	2.46296	10.229	5.17682	21.1873	165.831	-6.9579	-0.321201
0.3800	-17.1539	0.341106	-151.273	4.26513	11.7548	4.88922	24.5495	256.194	-3.92917	-0.642401
0.3807	-20.499	23.1952	-160.424	5.76694	15.7217	7.93779	25.1633	201.883	-2.1283	-0.321201
0.3813	-15.6101	9.75564	-118.606	3.96477	13.2805	6.70111	6.53765	125.894	-3.02873	-0.321201
0.3820	-11.6647	-1.84197	49.5606	2.10253	11.4496	5.49318	-15.13	69.7289	-4.2566	-0.642401
0.3827	-15.6101	19.5113	239.676	2.76332	11.4496	3.9689	-27.0312	33.7342	-2.7013	-0.321201
0.3833	-15.6101	34.5199	281.782	4.56549	10.229	1.84065	-32.8217	-8.40456	-0.573004	0
0.3840	-10.1208	22.5812	203.042	6.12737	13.5857	5.49318	-28.2453	46.2541	0.654861	-0.321201
0.3847	-14.4093	0	130.732	4.26513	10.8393	3.36493	-26.1106	151.804	0.654861	-0.642401
0.3853	-19.5555	-2.72885	80.6599	4.86585	8.70332	0.603962	-13.5956	115.809	2.45573	-0.321201
0.3860	-16.8109	17.3964	26.652	7.92954	10.5342	0.603962	-17.8651	43.4719	5.56632	-0.321201
0.3867	-14.6666	32.064	32.7631	7.92954	9.31361	-3.04857	-114.302	53.8471	7.69462	-0.321201
0.3873	-11.3216	26.5381	81.5878	11.2936	12.6702	-3.04857	-218.984	56.2816	10.7234	-0.321201
0.3880	-7.37619	1.22798	81.9077	13.7566	12.0599	-6.09714	-230.272	31.2997	13.5065	-0.321201
0.3887	-0.686158	-26.8792	56.5675	12.7954	8.09302	-10.9864	-197.01	24.2283	14.0795	-0.321201
0.3893	7.54773	-37.8628	44.3454	11.594	7.78788	-10.67	-155.196	27.3003	13.5065	-0.321201
0.3900	6.94735	-41.2056	31.5473	8.83063	6.26214	-10.066	-99.6524	25.5035	11.6238	0
0.3907	4.20272	-41.8196	21.1808	9.73171	10.229	-7.62143	-33.1285	34.6036	11.6238	0
0.3913	6.94735	-27.1521	-2.0157	10.0921	11.1445	-10.3824	28.819	56.2816	11.6238	-0.321201
0.3920	6.69004	4.91193	-22.1727	7.92954	8.09302	-16.4795	69.7127	61.4982	9.82292	-0.321201
0.3927	-5.57503	28.38	-2.0157	8.83063	7.78788	-20.4484	79.1722	44.6891	10.3959	0
0.3933	-26.9317	24.1503	27.5799	11.2936	6.87244	-25.9416	66.6573	44.1094	13.7521	-0.321201
0.3940	-39.111	12.5527	38.2663	16.7602	11.1445	-25.3377	62.6947	66.0772	20.7919	-0.321201
0.3947	-34.5652	-6.07169	24.5083	22.5872	10.8393	-28.0699	50.4866	66.367	28.4046	0
0.3953	-21.0993	-21.3532	18.7172	28.3541	7.17758	-35.4037	26.9911	65.1498	34.8714	0
0.3960	-5.23195	-21.3532	49.2406	34.7818	9.00846	-36.0077	20.28	79.1767	40.3558	0
0.3967	20.6705	-34.1788	50.4564	35.0822	5.957	-35.7201	16.0106	53.2675	39.701	-0.321201
0.3973	60.3819	-34.7928	9.56657	33.5804	7.48273	-28.9902	14.1693	-2.3185	35.7718	0
0.3980	72.3039	-5.7988	-9.05464	31.4178	11.1445	-18.6078	16.3041	-50.1955	30.5329	0
0.3987	32.9356	6.4128	-4.47933	21.6861	7.48273	-11.3027	24.2427	-90.1896	20.2188	-0.321201
0.3993	-15.0097	-1.50087	-2.62361	9.13099	7.78788	0.603962	44.6962	-95.3483	6.79419	-0.321201
0.4000	-32.4209	-8.52765	-4.76729	0.600723	8.09302	7.62143	41.3339	-65.1498	-3.35616	0
0.4007	-25.0448	-8.86876	1.95171	-2.1626	10.5342	10.3824	19.9732	-33.7342	-7.61276	-0.321201
0.4013	-16.2105	-9.48275	14.7498	-3.96477	11.7548	10.9864	8.97926	-17.5626	-9.74106	-0.321201
0.4020	-17.7543	-7.91366	21.7887	-6.12737	6.87244	5.80954	-0.480317	-13.5632	-12.1968	-0.321201
0.4027	-19.2982	6.4128	21.4688	-3.66441	9.31361	6.70111	9.28613	-10.839	-11.2145	0
0.4033	-15.6101	10.7107	12.3182	-2.1626	10.229	9.46208	32.1812	-13.2734	-10.9689	-0.321201
0.4040	-10.7212	3.06996	2.84757	-2.1626	10.229	12.827	46.524	-11.7664	-11.8694	0
0.4047	-7.03312	1.84197	1.95171	-2.1626	13.5857	19.8445	54.4626	-2.89812	-13.4247	0
0.4053	-5.83234	-2.11486	3.45548	-9.79178	9.31361	22.893	59.039	-7.47716	-20.137	-0.321201
0.4060	-1.54385	-1.84197	-3.87142	-16.1594	7.48273	28.6738	73.0749	-8.11475	-26.5219	0
0.4067	-0.343079	3.95683	-13.9179	-17.1206	10.5342	34.7997	83.1482	1.68091	-27.7498	-0.321201
0.4073	-7.37619	0.341106	-11.8062	-16.7602	10.8393	36.0077	77.0375	2.89812	-27.0949	-0.642401
0.4080	-11.0643	-6.07169	-2.0157	-15.5587	11.1445	34.7997	82.2276	0.753512	-25.294	-0.321201
0.4087	-11.0643	-8.52765	0.415938	-18.6224	8.70332	32.6427	72.768	-1.10129	-26.1945	-0.321201
0.4093	-11.6647	-10.3696	-2.94356	-25.3505	6.87244	34.7997	-7.49828	0.753512	-31.6789	-0.321201
0.4100	-11.6647	-16.1684	-2.94356	-29.0149	9.31361	38.1359	-86.844	15.1282	-35.0351	0
0.4107	-11.0643	-19.8524	-4.47933	-25.9512	11.4496	34.4834	-91.4203	32.1692	-31.6789	0
0.4113	-12.2651	-14.9405	-11.1983	-19.8239	10.5342	26.258	-76.1569	39.5304	-24.6392	-0.321201
0.4120	-13.4658	-7.02679	-13.63	-16.7602	7.17758	18.3202	-63.3351	34.9514	-19.4821	-0.321201
0.4127	-10.7212	-1.84197	-8.12678	-14.0569	6.56729	14.3513	-29.1659	21.5041	-15.553	0
0.4133	-7.71927	-2.11486	-2.0157	-8.53026	7.48273	12.5106	11.7277	1.97072	-10.6415	-0.321201
0.4140	-9.77775	1.22798	4.38334	-2.76332	8.39817	11.9067	40.1065	-26.4309	-5.73004	-0.321201
0.4147	-13.2085	9.48275	11.1023	0.300361	9.00846	10.9864	63.9222	-55.7019	-3.35616	-0.642401
0.4153	-14.4093	7.64078	9.88652	-0.300361	8.70332	7.93779	87.4177	-59.3536	-5.73004	-0.321201
0.4160	-15.3528	1.22798	-0.191971	-3.66441	9.00846	6.09714	95.9566	-38.3132	-9.0862	0
0.4167	-14.0662	-1.50087	-9.3426	-6.12737	7.48273	6.41351	88.325	-21.5041	-10.9689	-0.321201
0.4173	-9.77775	-3.06996	-8.73469	-6.42773	7.17758	7.62143	85.8833	-12.6938	-11.5419	-0.321201
0.4180	-8.31966	-4.84371	-0.191971	-5.52665	8.39817	7.93779	89.5524	-6.25995	-9.41363	-0.321201
0.4187	-11.3216	0	0.415938	-6.12737	6.26214	8.54175	81.6139	-5.62236	-8.84063	-0.321201
0.4193	-9.77775	10.9836	-10.8784	-8.2299	5.04155	10.066	73.0749	-3.18794	-9.74106	-0.321201
0.4200	-7.03312	16.7824	-14.8458	-7.32882	5.957	7.93779	79.4791	2.60831	-6.71233	-0.321201
0.4207	-5.83234	12.5527	-3.55147	-3.96477	7.78788	7.01747	95.6498	4.11534	-1.14601	-0.321201
0.4213	-4.03118	3.34284	1.95171	-2.46296	8.39817	8.85812	113.969	2.60831	0.654861	-0.321201
0.4220	-4.28849	-2.11486	-4.15938	-3.96477	8.39817	10.9864	115.796	2.89812	-0.573004	0
0.4227	-7.37619	-1.84197	-3.87142	-8.2299	8.70332	12.5106	84.9761	3.82552	-3.60174	-0.321201
0.4233	-12.5224	0.341106	-0.511923	-10.3925	7.78788	11.5903	43.1618	2.26054	-5.15703	-0.642401
0.4240	-15.6101	3.06996	1.63176	-6.12737	11.4496	10.3824	20.5869	5.62236	-0.900434	-0.642401
0.4247	-15.6101	2.45596	1.63176	-3.06369	11.7548	5.17682	7.15139	5.97013	3.11059	-0.321201
0.4253	-12.2651	3.06996	-0.511923	-1.20145	9.61876	0	-5.96394	4.11534	5.56632	-0.321201
0.4260	-6.77581	7.29967	-1.72774	1.80217	11.4496	-2.12825	-15.4235	6.25995	8.59506	-0.321201
0.4267	-7.71927	7.91366	-5.08724	0.901084	7.17758	-9.46208	-30.6869	2.89812	9.49549	-0.321201
0.4273	-7.97658	8.25477	-2.94356	2.10253	7.48273	-11.5903	-39.5328	1.97072	11.0508	0
0.4280	-9.77775	4.91193	3.45548	2.46296	9.31361	-10.9864	-40.4534	2.89812	11.9512	0
0.4287	-15.0097	0.341106	3.77543	-0.300361	5.957	-12.827	-44.416	1.04332	9.49549	0
0.4293	-10.7212	4.91193	1.3438	0.901084	9.9239	-7.93779	-40.1465	8.40456	10.1504	-0.321201
0.4300	-9.17736	5.7988	-3.26351	-0.600723	9.31361	-7.62143	-38.3186	9.274	8.26763	-0.321201
0.4307	-13.4658	4.57082	-7.23092	-4.86585	7.78788	-6.41351	-38.9324	6.54976	2.45573	-0.321201
0.4313	-13.4658	9.48275	-6.30306	-5.52665	12.3651	0.316361	-33.7423	12.0562	0.327431	-0.321201
0.4320	-20.1559	7.02679	-5.69515	-7.32882	8.39817	-2.76097	-40.4534	10.2014	0.327431	-0.321201
0.4327	-29.9336	3.95683	-3.55147	-6.42773	7.17758	-5.80954	-47.7782	10.2014	1.22787	-0.321201
0.4333	-32.6783	7.02679	-3.55147	-1.86224	11.7548	-3.9689	-46.2572	18.1423	3.43802	-0.321201
0.4340	-35.1656	7.64078	-8.73469	0	11.4496	-4.57286	-41.374	22.4315	5.8119	-0.321201
0.4347	-36.9667	5.7988	-10.5584	-0.901084	9.31361	-4.28526	-32.5148	23.3589	5.8119	-0.321201
0.4353	-36.9667	3.95683	-8.44673	-4.86585	6.56729	-2.76097	-25.4968	21.5041	1.5553	-0.321201
0.4360	-38.5106	3.95683	-7.51887	-8.53026	5.65185	-1.20792	-22.4415	21.7939	-2.7013	0
0.4367	-38.5106	9.14165	-6.59101	-7.32882	9.00846	2.73221	-20.6136	30.0825	-3.35616	0
0.4373	-36.0233	14.3265	-3.55147	-5.82701	12.0599	9.14572	-2.92193	39.5304	-3.02873	0
0.4380	-40.0544	12.5527	-2.94356	-7.32882	11.1445	10.67	17.2247	43.4719	-3.92917	0
0.4387	-51.2903	9.75564	-5.69515	-8.2299	7.48273	7.62143	-3.52232	44.6891	-3.02873	0
0.4393	-58.6665	10.0967	-5.08724	-7.32882	6.87244	6.41351	-39.8396	46.8337	-1.14601	-0.321201
0.4400	-65.0134	12.5527	-2.62361	-6.7281	6.87244	6.09714	-51.1404	48.3407	-0.900434	-0.321201
0.4407	-80.8808	16.5095	-5.08724	-6.12737	7.78788	6.41351	-61.2004	51.7025	-1.47344	-0.321201
0.4413	-101.38	20.1253	-11.1983	-5.82701	9.61876	7.93779	-114.302	56.9191	-2.1283	-0.321201
0.4420	-111.158	21.3532	-10.5584	-7.02846	10.229	8.54175	-183.881	62.4256	-4.50217	-0.321201
0.4427	-117.504	20.7393	-2.0157	-9.13099	11.4496	9.46208	-203.107	69.7289	-7.28533	-0.321201
0.4433	-129.426	18.8973	0.415938	-14.0569	12.3651	10.3824	-177.784	74.3079	-13.0972	-0.321201
0.4440	-122.736	20.7393	-3.55147	-22.2868	13.8908	14.0349	-149.712	74.8875	-21.6104	-0.321201
0.4447	-89.2005	26.2652	-1.72774	-27.1527	18.468	18.6078	-116.744	76.1627	-28.3228	-0.642401
0.4453	-59.8672	27.4932	3.16753	-30.5167	19.6886	17.3999	-70.0596	70.9461	-33.8072	-0.321201
0.4460	-37.9102	25.9241	10.1745	-31.4178	19.0783	16.1632	-23.669	59.6434	-35.3625	0
0.4467	10.0351	26.8792	19.3251	-24.7498	17.8577	12.827	23.3221	48.6885	-29.2232	-0.642401
0.4473	64.3273	27.766	24.2204	-15.8591	15.1114	3.65253	45.6034	37.9654	-19.1547	-0.642401
0.4480	87.2278	32.3369	37.0185	-7.92954	14.8063	-2.44461	29.1259	28.8074	-9.41363	-0.321201
0.4487	64.07	37.8628	54.7438	-3.06369	14.196	-6.41351	31.5675	23.9385	-2.7013	0
0.4493	-26.5886	39.7048	58.9992	1.50181	14.8063	-7.93779	59.9462	27.0105	2.21016	-0.642401
0.4500	-149.925	39.7048	55.3517	5.16622	15.7217	-6.70111	67.2711	32.8068	6.13933	-0.321201
0.4507	-200.53	33.5648	52.2802	3.36405	11.1445	-9.46208	67.2711	30.3723	6.13933	0
0.4513	-112.701	27.1521	48.6327	3.06369	11.4496	-8.85812	84.9761	29.7347	6.79419	-0.321201
0.4520	46.916	26.5381	39.77	3.96477	11.4496	-8.54175	91.6872	35.531	7.9402	-0.321201
0.4527	208.42	22.9223	32.4431	3.06369	7.78788	-11.5903	72.4612	39.8202	7.69462	-0.321201
0.4533	356.973	17.7375	35.8026	7.92954	12.6702	-8.54175	43.7756	45.3267	11.0508	-0.321201
0.4540	435.11	9.14165	29.7235	9.43135	10.8393	-9.14572	20.8804	40.4578	12.2787	-0.321201
0.4547	411.351	-7.02679	6.81498	5.76694	3.51582	-13.431	22.7217	23.9385	9.49549	-0.321201
0.4553	333.816	-20.7393	-11.8062	5.76694	5.957	-11.5903	37.3713	15.1282	9.16806	-0.321201
0.4560	272.147	-24.6961	-16.9895	5.76694	3.21067	-13.1146	18.1453	12.6358	9.49549	0
0.4567	278.837	-19.5113	-7.83882	7.32882	-0.14594	-15.2716	-15.13	15.9976	12.2787	-0.321201
0.4573	295.648	-7.64078	5.91911	12.7954	5.04155	-10.3824	-18.4789	23.3589	17.1083	-0.321201
0.4580	133.887	-0.272885	3.16753	13.7566	2.29523	-10.9864	-20.6136	25.7933	18.3361	-0.321201
0.4587	-232.264	2.72885	-17.8853	11.8943	-2.28197	-14.0349	-22.4415	31.2997	15.8804	0
0.4593	-633.581	2.72885	-43.2255	10.0921	-4.11285	-14.0349	-4.44293	39.8202	12.8517	-0.321201
0.4600	-865.502	0.613991	-62.7426	6.7281	-10.2158	-15.5592	14.1693	40.4578	9.82292	-0.642401
0.4607	-766.695	3.95683	-70.6774	4.56549	-12.3518	-12.827	34.6228	42.5445	7.36719	0
0.4613	-462.127	9.75564	-68.2458	3.96477	-10.8261	-6.70111	59.3458	46.5439	4.91146	0
0.4620	-115.703	14.6676	-58.4872	2.46296	-12.0467	-5.17682	83.1482	46.8337	3.43802	-0.321201
0.4627	205.333	18.6244	-40.186	1.80217	-12.9621	-6.70111	106.951	40.4578	3.43802	0
0.4633	386.307	19.8524	-11.8062	1.80217	-13.5724	-7.93779	116.103	24.2283	4.33846	0
0.4640	430.564	30.222	38.8742	2.10253	-14.1827	-9.14572	105.723	16.3454	5.56632	-0.321201
0.4647	434.509	48.8464	100.209	1.80217	-14.4878	-9.46208	84.9761	23.9385	5.8119	-0.321201
0.4653	430.564	62.286	141.707	2.10253	-11.1312	-6.70111	60.8668	28.2277	5.56632	-0.321201
0.4660	347.882	70.1996	159.4	2.76332	-7.46946	-3.36493	39.1992	29.7347	5.23889	-0.321201
0.4667	111.929	69.3128	150.857	0	-8.9952	-3.04857	22.4148	31.2997	2.78316	-0.321201
0.4673	-306.712	58.3292	121.582	-4.26513	-10.5209	-2.12825	19.0526	23.3589	-0.900434	-0.321201
0.4680	-750.742	43.3205	89.2346	-6.12737	-12.0467	-0.603962	21.4942	8.69437	-2.7013	-0.321201
0.4687	-868.59	22.3083	52.8881	-5.52665	-14.1827	-1.84065	-7.80515	-6.25995	-2.37387	-0.321201
0.4693	-621.058	-5.7988	13.534	-3.66441	-12.9621	-2.44461	-48.3919	-27.6481	-0.573004	-0.321201
0.4700	-281.753	-34.4517	-22.1727	-2.46296	-12.0467	-3.36493	-71.2737	-53.2675	0	-0.321201
0.4707	3.34502	-53.0761	-45.9771	-2.76332	-14.793	-6.09714	-96.6104	-69.7289	0.327431	-0.321201
0.4713	240.412	-61.058	-51.1603	-3.36405	-14.793	-6.41351	-109.112	-79.1767	0.327431	-0.321201
0.4720	424.732	-61.672	-42.6176	-4.26513	-13.8775	-5.80954	-87.4444	-89.2622	-1.47344	-0.321201
0.4727	514.79	-55.2592	-27.0679	-5.52665	-14.4878	-5.80954	-50.2198	-94.1311	-1.80087	-0.321201
0.4733	518.135	-45.7764	-6.30306	-5.16622	-10.5209	-3.04857	-15.13	-92.3342	-0.573004	-0.321201
0.4740	464.443	-38.7497	8.63871	-3.36405	-6.24887	-2.12825	8.97926	-83.1761	0.327431	-0.642401
0.4747	311.258	-36.9077	10.4944	-3.06369	-8.69005	-5.49318	13.8625	-74.3079	0.327431	-0.642401
0.4753	-16.5536	-38.7497	3.16753	-3.96477	-10.8261	-8.85812	10.8205	-73.0907	0.654861	-0.321201
0.4760	-347.625	-39.9776	-8.12678	-4.86585	-11.4364	-12.5106	5.32351	-73.7283	1.22787	-0.321201
0.4767	-423.96	-40.2505	-22.1727	-5.52665	-11.7415	-13.7473	-3.21546	-70.6563	2.45573	-0.642401
0.4773	-305.855	-40.8645	-38.9702	-5.52665	-10.8261	-11.5903	3.18877	-65.7874	3.43802	-0.321201
0.4780	-151.126	-43.9345	-56.9515	-5.82701	-13.5724	-12.827	11.7277	-65.4396	3.43802	-0.321201
0.4787	-34.5652	-48.8464	-68.8537	-7.32882	-17.5393	-14.6389	3.18877	-66.0772	3.43802	-0.642401
0.4793	49.4033	-51.5753	-68.5657	-8.53026	-17.8445	-13.431	8.97926	-60.8606	3.43802	-0.321201
0.4800	172.654	-48.5053	-58.1673	-9.79178	-16.6239	-12.5106	25.1633	-56.2816	2.21016	-0.321201
0.4807	286.471	-39.3637	-37.1144	-10.3925	-12.657	-9.77844	18.7457	-53.8471	0.654861	0
0.4813	317.005	-29.8809	-16.0616	-10.0921	-11.4364	-7.01747	24.8564	-48.3987	1.22787	-0.321201
0.4820	301.137	-23.4681	-7.23092	-8.53026	-13.5724	-8.25415	43.7756	-40.4578	3.6836	-0.321201
0.4827	215.11	-15.8955	-2.62361	-7.92954	-13.2673	-7.93779	13.569	-33.0966	4.58403	-0.321201
0.4833	-6.43273	-10.3696	2.23966	-9.79178	-14.793	-7.01747	-41.6675	-29.1551	4.01103	0
0.4840	-216.14	-7.02679	4.99125	-9.79178	-13.8775	-5.49318	-64.8695	-23.3589	3.6836	0
0.4847	-241.785	1.84197	10.1745	-8.2299	-10.5209	-3.36493	-54.4893	-7.47716	3.6836	0
0.4853	-164.849	13.4396	14.7498	-9.13099	-13.5724	-5.80954	-45.0297	12.6358	2.45573	-0.321201
0.4860	-94.0036	19.8524	12.3182	-8.2299	-12.9621	-4.88922	-86.844	23.6487	3.43802	-0.321201
0.4867	-25.3878	16.1684	3.45548	-4.56549	-10.5209	-2.44461	-145.122	17.8524	4.91146	-0.321201
0.4873	40.226	3.68395	-7.83882	-4.56549	-16.3187	-6.70111	-141.774	-0.753512	4.01103	-0.321201
0.4880	61.3253	-1.50087	-8.73469	-3.36405	-16.3187	-8.25415	-97.5177	-13.2734	4.33846	-0.321201
0.4887	-29.0759	0.613991	-3.55147	-1.20145	-12.3518	-7.62143	-47.4713	-18.49	4.33846	-0.321201
0.4893	-175.227	-2.72885	-5.9831	-2.1626	-16.0136	-11.5903	12.3415	-27.3003	2.45573	-0.321201
0.4900	-181.06	-2.72885	-5.37519	-0.600723	-14.1827	-10.67	79.1722	-28.8653	3.6836	0
0.4907	-87.0562	3.68395	3.77543	0.901084	-10.2158	-8.85812	123.121	-22.1417	4.01103	0.321201
0.4913	-92.8028	1.22798	4.6713	-1.20145	-13.8775	-13.1146	108.165	-30.0825	2.21016	-0.321201
0.4920	-164.249	-7.29967	-4.47933	-2.1626	-13.2673	-13.1146	72.4612	-48.0509	2.21016	-0.321201
0.4927	-210.05	-13.7125	-16.9895	-1.50181	-11.4364	-12.827	58.4252	-62.1358	2.21016	-0.321201
0.4933	-230.806	-18.6244	-27.9638	-1.86224	-15.4033	-14.6389	37.0645	-69.439	1.5553	-0.321201
0.4940	-216.14	-20.7393	-36.2186	-1.50181	-14.4878	-12.827	23.0285	-63.0052	2.21016	-0.321201
0.4947	-181.317	-25.6512	-49.6246	-3.06369	-14.4878	-14.0349	35.837	-46.8337	1.5553	-0.321201
0.4953	-157.816	-30.836	-63.9904	-4.26513	-15.7084	-13.1146	52.3145	-27.9379	0.327431	-0.321201
0.4960	-122.136	-32.064	-72.8211	-2.1626	-9.60549	-4.28526	78.265	-12.6938	1.22787	-0.642401
0.4967	-56.1792	-34.1788	-78.6122	-3.96477	-8.07975	0	93.515	-8.98418	0	-0.321201
0.4973	24.7017	-31.7229	-73.429	-6.12737	-9.30034	1.20792	83.7486	-1.68091	-2.1283	-0.321201
0.4980	119.306	-16.4413	-51.4803	-4.56549	-5.94373	2.73221	78.5718	18.4321	-0.900434	-0.321201
0.4987	205.676	4.29794	-22.7806	-2.76332	-3.50255	1.52429	70.0195	37.9654	0.982292	-0.321201
0.4993	203.531	22.5812	2.84757	-1.86224	-0.756233	2.44461	44.0824	52.3401	2.45573	-0.321201
0.5000	84.8262	36.0208	23.2925	-0.600723	2.60038	4.28526	21.8011	60.8606	3.43802	-0.321201
0.5007	2.65886	40.9327	34.5868	-1.20145	1.37979	3.04857	4.09604	57.209	3.43802	-0.321201
0.5013	48.4599	43.6616	44.3454	-1.50181	1.07465	1.20792	-32.8217	49.5579	3.6836	-0.321201
0.5020	59.1811	57.1012	64.1824	-0.300361	4.73641	1.20792	-74.6359	54.4847	4.01103	-0.321201
0.5027	-35.4229	69.8585	76.6925	1.20145	8.70332	2.44461	-87.1508	65.7874	4.91146	-0.321201
0.5033	-83.3681	68.6988	69.6856	2.10253	9.31361	1.52429	-87.1508	67.2944	5.8119	-0.321201
0.5040	-47.9453	64.4008	61.1428	2.46296	7.78788	-1.20792	-94.4757	62.4256	6.13933	-0.321201
0.5047	-66.3	66.5157	60.5349	3.06369	6.87244	-1.20792	-93.5551	56.9191	6.46676	-0.642401
0.5053	-166.994	60.7169	48.6327	3.36405	6.56729	-0.920324	-83.1749	43.182	6.13933	-0.642401
0.5060	-188.007	38.4768	21.7887	3.36405	6.56729	-1.20792	-64.5626	19.0697	5.56632	-0.321201
0.5067	-106.269	16.1684	3.16753	4.26513	9.00846	1.20792	-27.3247	-2.3185	6.13933	-0.321201
0.5073	-18.6978	3.06996	-3.26351	4.26513	8.70332	1.84065	18.4522	-16.6352	5.8119	-0.321201
0.5080	68.2727	-10.6425	-13.31	2.76332	5.04155	-0.920324	52.021	-27.0105	4.91146	-0.321201
0.5087	125.653	-25.6512	-24.6043	2.46296	3.21067	-2.12825	63.3084	-32.5169	4.91146	0
0.5093	150.697	-34.1788	-28.5717	2.10253	1.68494	-2.76097	68.4985	-35.8788	5.56632	-0.642401
0.5100	172.654	-34.7928	-28.5717	2.10253	1.68494	-0.920324	84.9761	-34.024	6.46676	-0.963602
0.5107	170.253	-32.678	-32.2512	2.76332	4.12611	2.12825	91.994	-29.1551	7.03976	-0.642401
0.5113	138.775	-32.9509	-40.186	0.901084	2.29523	0.603962	87.7246	-31.5895	5.56632	-0.321201
0.5120	85.4266	-31.45	-40.186	-0.901084	1.07465	-1.52429	98.3983	-35.531	5.56632	-0.321201
0.5127	-5.57503	-24.6961	-28.2838	-0.901084	3.21067	-0.920324	108.165	-32.8068	5.8119	-0.321201
0.5133	-75.3916	-17.0553	-16.3815	-0.600723	3.21067	-1.84065	91.6872	-27.3003	5.8119	-0.642401
0.5140	-34.8225	-7.29967	-5.37519	0.300361	5.3467	-0.603962	69.0989	-19.9971	7.03976	-0.642401
0.5147	64.6703	0.955097	6.52702	1.20145	8.39817	1.52429	53.542	-16.3454	7.9402	-0.321201
0.5153	117.419	-2.72885	7.13493	0	7.78788	1.20792	29.4328	-16.0556	6.79419	-0.321201
0.5160	114.074	-7.29967	2.55962	-1.20145	9.00846	1.84065	3.18877	-11.7664	6.13933	-0.321201
0.5167	100.951	-6.07169	0.415938	-1.20145	10.8393	3.65253	-12.3815	-6.89753	5.23889	-0.642401
0.5173	77.1927	-3.06996	-3.26351	-1.20145	10.229	3.9689	-20.9205	-0.173887	4.91146	-0.642401
0.5180	54.8926	0.955097	-9.05464	-1.20145	11.7548	3.9689	-27.9384	9.62177	5.56632	-0.321201
0.5187	91.1732	0.613991	-18.4932	-2.46296	11.7548	2.12825	-37.0911	17.2149	4.58403	0
0.5193	119.563	-3.68395	-29.1796	-3.36405	9.00846	-0.603962	-45.0297	21.5041	2.78316	0
0.5200	59.1811	-3.06996	-29.1796	-1.50181	10.5342	0	-45.9503	23.6487	4.01103	0
0.5207	-25.0448	1.84197	-19.1331	-0.600723	12.9754	-0.603962	-46.5507	26.0831	5.23889	0
0.5213	-60.4676	4.91193	-9.05464	-0.600723	13.5857	-1.20792	-49.6061	27.5901	4.91146	-0.321201
0.5220	-16.8109	14.0536	9.88652	1.50181	17.2474	1.84065	-47.1645	30.3723	6.46676	-0.321201
0.5227	12.1793	30.836	40.9859	2.10253	17.5526	1.20792	-46.2572	33.3864	7.36719	0
0.5233	12.4366	36.9077	59.6071	1.80217	16.332	-1.20792	-44.416	25.7933	7.36719	0
0.5240	156.187	23.8092	57.4954	2.46296	16.6371	-1.20792	-40.4534	8.05678	7.69462	-0.321201
0.5247	338.104	10.3696	49.5606	2.76332	15.4165	-0.603962	-49.6061	-4.75292	7.9402	-0.321201
0.5253	302.081	12.5527	44.3454	4.56549	16.332	0.920324	-58.4652	-3.82552	9.16806	0
0.5260	80.7951	21.3532	41.3058	5.46658	18.468	1.84065	-50.8335	5.62236	9.82292	0
0.5267	-58.6665	25.9241	35.8026	4.56549	16.332	0.603962	-34.0491	20.2869	8.59506	-0.321201
0.5273	64.9277	25.0372	26.364	4.26513	14.196	-0.920324	-17.5716	34.6036	7.36719	-0.321201
0.5280	235.867	13.0985	8.35075	3.06369	10.5342	-4.28526	-7.49828	27.9379	6.13933	-0.321201
0.5287	248.046	-10.3696	-16.3815	3.96477	9.61876	-4.57286	3.18877	-2.3185	5.56632	-0.321201
0.5293	183.633	-31.1089	-33.147	7.62918	12.6702	-1.20792	18.7457	-29.4449	6.46676	0
0.5300	97.6059	-40.5916	-37.4344	8.2299	10.229	-2.12825	24.5495	-41.675	6.13933	0
0.5307	9.69198	-40.5916	-35.6107	9.13099	7.78788	-1.84065	17.8384	-45.0368	7.03976	-0.321201
0.5313	-41.8556	-40.5916	-36.5065	9.73171	4.12611	-0.603962	5.01664	-51.7605	7.9402	-0.321201
0.5320	-53.1772	-45.7764	-41.0818	8.2299	-2.58711	-1.84065	-5.96394	-63.0052	7.03976	-0.321201
0.5327	-35.1656	-43.0476	-41.0818	8.83063	-2.58711	1.52429	-6.88454	-56.9191	6.46676	0
0.5333	40.226	-34.7928	-42.2977	9.13099	-3.50255	3.04857	-7.49828	-40.4578	4.91146	0
0.5340	162.276	-30.222	-46.585	7.62918	-8.69005	0.603962	-9.63302	-34.6616	2.21016	-0.642401
0.5347	257.481	-24.0821	-46.2651	8.2299	-9.60549	1.84065	-4.7498	-29.4449	1.22787	-0.963602
0.5353	345.738	-17.6693	-47.1929	7.62918	-11.4364	1.84065	0.74716	-19.9971	0	-0.642401
0.5360	415.64	-12.4845	-46.2651	6.42773	-12.9621	0.920324	3.80251	-11.1288	-1.47344	-0.321201
0.5367	418.642	-5.18481	-38.6502	8.53026	-8.3849	5.17682	7.45825	-1.68091	-2.37387	-0.642401
0.5373	377.472	1.22798	-25.5322	8.83063	-5.94373	6.09714	4.40291	2.60831	-3.92917	-0.321201
0.5380	271.29	13.0985	-1.40779	7.32882	-6.85917	2.73221	-3.52232	6.54976	-5.73004	-0.321201
0.5387	72.5612	28.38	23.9004	7.32882	-4.72314	2.12825	-10.2468	15.9976	-6.71233	-0.321201
0.5393	-177.029	36.2937	43.1295	7.62918	-2.58711	1.20792	-22.7483	20.2869	-6.9579	-0.321201
0.5400	-413.238	49.4604	68.1498	8.83063	2.90553	2.73221	-37.398	24.8659	-6.9579	-0.321201
0.5407	-539.32	71.4276	89.8425	10.6929	10.229	7.01747	-44.7228	37.096	-7.28533	-0.321201
0.5413	-576.801	80.2964	87.3789	9.13099	8.39817	4.28526	-47.7782	40.4578	-10.0685	-0.321201
0.5420	-578.945	76.6124	70.2935	7.62918	5.65185	1.20792	-42.895	35.2412	-11.8694	-0.321201
0.5427	-426.104	67.4708	48.3128	8.2299	7.17758	2.12825	-32.2079	30.3723	-10.9689	-0.321201
0.5433	-173.684	44.8896	18.4292	7.62918	5.3467	0	-23.0552	13.853	-11.8694	-0.321201
0.5440	72.3039	18.8973	-7.51887	9.43135	7.17758	1.52429	-7.19141	-8.69437	-13.0972	-0.321201
0.5447	275.835	2.11486	-21.5648	10.3925	9.9239	3.9689	3.80251	-22.7213	-12.1968	-0.321201
0.5453	328.584	-5.18481	-22.1727	7.62918	7.17758	1.52429	1.65443	-27.6481	-11.5419	-0.321201
0.5460	259.024	-1.84197	-6.91096	8.53026	8.39817	1.84065	5.01664	-23.3589	-11.5419	-0.642401
0.5467	112.873	3.95683	13.534	10.3925	9.31361	3.65253	10.2067	-21.2143	-10.9689	-0.321201
0.5473	-58.3234	8.52765	33.9789	10.3925	7.48273	3.04857	7.15139	-29.4449	-9.41363	-0.321201
0.5480	-168.795	16.7824	55.9596	12.1947	10.229	5.49318	11.4209	-30.6621	-7.28533	-0.321201
0.5487	-227.118	19.5113	66.646	12.1947	9.61876	5.80954	16.9178	-26.7207	-6.71233	-0.321201
0.5493	-232.607	11.3247	55.3517	10.3925	4.73641	2.12825	5.63038	-27.9379	-6.9579	-0.321201
0.5500	-227.976	3.06996	31.5473	10.9932	3.51582	0.920324	-14.2094	-21.5041	-6.9579	0
0.5507	-306.712	-2.45596	9.88652	10.9932	0.464354	0	-27.6316	-11.4766	-7.61276	-0.321201
0.5513	-374.47	-10.6425	-8.12678	12.1947	-1.06138	0.920324	-31.3007	-13.2734	-8.18577	-0.321201
0.5520	-300.966	-20.1253	-24.6043	12.495	1.37979	4.88922	-30.38	-22.7213	-10.0685	0
0.5527	-203.875	-27.4249	-34.3629	8.83063	-1.06138	5.80954	-23.9758	-27.9379	-15.2255	-0.321201
0.5533	-150.183	-29.8809	-31.0353	7.62918	-2.28197	6.70111	-7.19141	-18.1423	-18.2543	0
0.5540	-79.4227	-26.2652	-19.741	8.2299	-0.14594	8.22539	-14.2094	-4.40515	-18.2543	0
0.5547	-19.2982	-17.0553	-4.76729	8.53026	-1.36653	6.70111	-57.2378	-0.753512	-18.9091	0
0.5553	19.4697	-3.06996	15.3577	10.3925	0.464354	7.62143	-73.7153	4.75292	-18.5817	-0.321201
0.5560	24.959	7.02679	27.2599	9.73171	2.29523	7.62143	-51.7408	9.91158	-19.1547	0
0.5567	-10.7212	5.18481	20.253	6.42773	-1.06138	3.36493	-28.5522	4.75292	-21.6104	0
0.5573	-8.31966	-0.272885	7.13493	5.46658	-1.67167	3.04857	-1.69445	2.26054	-21.9379	-0.321201
0.5580	55.493	-6.68568	-4.15938	5.46658	-3.19741	2.44461	27.6049	-0.753512	-20.3826	0
0.5587	128.998	-14.6676	-13.9179	4.86585	-5.02829	0.603962	47.1378	-6.89753	-20.137	-0.321201
0.5593	170.853	-21.3532	-22.1727	5.46658	-2.58711	2.73221	63.0016	-10.5492	-20.3826	-0.321201
0.5600	171.111	-25.9241	-27.6759	5.76694	-3.8077	2.73221	66.9642	-16.0556	-19.4821	-0.321201
0.5607	160.818	-24.4232	-24.3164	5.76694	-6.85917	1.84065	61.7741	-15.7078	-17.6813	-0.321201
0.5613	157.988	-17.6693	-16.9895	6.42773	-7.16431	2.44461	65.7501	-8.11475	-16.126	-0.321201
0.5620	139.118	-14.9405	-14.2379	5.76694	-7.77461	0.316361	76.1302	-9.33196	-16.4534	-0.321201
0.5627	93.6605	-16.7824	-11.8062	6.12737	-4.72314	0.603962	84.0555	-19.9971	-16.4534	-0.321201
0.5633	79.2512	-19.5113	-11.4863	7.02846	-2.28197	1.52429	74.289	-27.9379	-14.8981	-0.321201
0.5640	109.785	-22.2401	-16.6695	6.42773	-4.72314	0.316361	47.7382	-30.3723	-13.9977	-0.642401
0.5647	121.707	-22.5812	-21.8527	6.42773	-6.85917	0.316361	24.5495	-27.3003	-13.4247	-0.642401
0.5653	113.13	-21.6261	-28.2838	5.46658	-8.3849	0.603962	8.37886	-16.3454	-12.7698	-0.321201
0.5660	98.5494	-17.6693	-31.9312	5.16622	-7.16431	1.84065	6.53765	0.4637	-12.1968	-0.321201
0.5667	59.4384	-12.2116	-29.4996	6.42773	-2.58711	5.80954	26.0705	8.40456	-11.5419	-0.642401
0.5673	45.4579	-11.5976	-31.6433	5.46658	-2.58711	5.80954	46.524	4.75292	-12.4424	-0.321201
0.5680	88.4286	-15.2816	-41.0818	3.66441	-6.24887	3.04857	41.0271	4.11534	-13.0972	0
0.5687	97.949	-15.2816	-46.905	4.86585	-7.16431	2.73221	19.9732	10.5492	-12.7698	-0.321201
0.5693	86.027	-10.3696	-46.585	4.26513	-8.9952	1.84065	10.5136	16.925	-13.9977	-0.321201
0.5700	80.1947	-3.95683	-40.7939	2.10253	-9.30034	3.36493	13.2621	23.0111	-15.7985	0
0.5707	21.2709	6.4128	-24.6043	0.901084	-6.85917	8.54175	12.3415	31.8794	-17.3538	0
0.5713	-10.1208	18.8973	-2.0157	-2.46296	-8.69005	9.14572	0.74716	39.5304	-20.137	-0.321201
0.5720	54.2922	28.994	19.0371	-4.86585	-10.2158	7.93779	-5.05667	48.3407	-21.283	-0.321201
0.5727	142.807	38.7497	37.9463	-4.26513	-9.30034	7.93779	-3.82919	64.5122	-19.8096	0
0.5733	149.754	41.2056	48.3128	-3.36405	-9.30034	7.01747	-5.05667	73.3805	-18.2543	-0.321201
0.5740	63.7269	36.0208	48.9207	-0.901084	-7.16431	8.22539	-2.30819	71.5837	-15.553	-0.642401
0.5747	15.1812	36.9077	55.6397	0.300361	-5.94373	7.93779	-1.69445	71.2359	-12.7698	-0.321201
0.5753	84.1401	52.5303	80.052	0.600723	-5.02829	4.28526	-8.40555	75.8149	-10.3141	0
0.5760	228.233	67.4708	98.3853	2.46296	-0.451086	3.36493	-11.154	81.0315	-6.9579	0
0.5767	283.126	58.8749	84.6273	2.76332	-1.06138	2.73221	-10.8472	76.1627	-6.05747	0
0.5773	151.641	42.7065	57.7833	2.76332	-2.28197	3.04857	-9.32615	67.5842	-6.71233	-0.321201
0.5780	-25.3878	35.1339	37.6584	3.06369	-0.14594	4.57286	-7.19141	64.2224	-6.71233	-0.321201
0.5787	-122.393	24.6961	20.253	1.20145	-1.97682	3.04857	-11.7678	55.7019	-7.28533	-0.321201
0.5793	-118.448	6.7539	0.703894	-0.901084	-5.33343	0.603962	-19.7063	36.1686	-7.85834	-0.321201
0.5800	-18.6978	-16.4413	-21.8527	0	-5.94373	-0.316361	-24.2827	7.18735	-7.61276	-0.321201
0.5807	117.161	-33.5648	-37.1144	2.10253	-6.85917	-0.920324	-25.8037	-19.9971	-6.05747	-0.321201
0.5813	162.276	-30.222	-33.7549	3.36405	-5.33343	-0.603962	-22.4415	-31.8794	-4.50217	-0.321201
0.5820	118.019	-22.8541	-28.5717	3.96477	-4.72314	-0.603962	-21.5342	-40.4578	-3.92917	-0.321201
0.5827	41.1695	-26.8792	-32.2512	3.06369	-7.46946	-2.44461	-28.2453	-51.1229	-5.48446	-0.321201
0.5833	-66.5573	-29.608	-31.6433	2.10253	-7.46946	-1.84065	-32.8217	-54.1949	-6.05747	-0.321201
0.5840	-68.1011	-26.2652	-23.7084	0.300361	-6.55402	0	-32.2079	-59.0638	-6.3849	-0.321201
0.5847	42.3702	-23.8092	-16.3815	-1.86224	-6.24887	0.603962	-22.1479	-64.5702	-8.18577	-0.321201
0.5853	56.0934	-21.3532	-10.8784	-1.86224	-4.41799	1.52429	-2.00132	-57.209	-8.84063	0
0.5860	-38.7679	-20.4664	-9.66255	-1.20145	-4.11285	0	5.63038	-49.6159	-7.28533	0
0.5867	-112.959	-21.3532	-11.8062	-0.600723	-5.94373	-2.12825	-2.00132	-48.6885	-4.8296	0
0.5873	-148.382	-19.8524	-12.0942	0.901084	-6.24887	-1.84065	-8.71242	-44.6891	-2.7013	0
0.5880	-162.105	-20.1253	-13.022	0.901084	-7.16431	-2.12825	-15.7304	-41.675	-2.37387	0
0.5887	-141.005	-22.8541	-13.31	0.901084	-5.94373	-1.20792	-19.9999	-39.8202	-2.1283	0
0.5893	-106.869	-20.7393	-12.0942	1.80217	-4.11285	0	-17.2647	-34.024	-0.900434	0
0.5900	-89.8009	-18.0104	-12.7021	0.600723	-6.55402	-2.12825	-18.4789	-30.0825	-1.14601	0
0.5907	-80.2804	-15.8955	-12.4141	-1.20145	-7.46946	-3.65253	-21.2273	-27.6481	-2.1283	-0.321201
0.5913	-71.4462	-14.3265	-11.1983	-2.1626	-7.77461	-4.88922	-17.5716	-23.9385	-2.1283	-0.321201
0.5920	-63.5553	-12.2116	-10.5584	-1.50181	-8.07975	-4.88922	-7.19141	-17.2728	-1.14601	-0.321201
0.5927	-52.2337	-8.25477	-8.73469	-0.600723	-4.72314	-2.44461	6.24412	-7.47716	0.654861	0
0.5933	-58.6665	-7.29967	-11.1983	-1.50181	-4.72314	-3.04857	13.8625	-2.60831	0.654861	0
0.5940	-106.869	-10.3696	-19.741	-3.36405	-8.69005	-5.49318	11.7277	-3.53571	-0.573004	-0.642401
0.5947	-176.428	-13.0985	-31.0353	-3.36405	-10.8261	-7.01747	10.8205	-2.89812	-0.245573	-0.642401
0.5953	-181.918	-15.8955	-41.6898	-2.1626	-10.8261	-7.93779	14.7831	1.04332	1.88273	-0.321201
0.5960	-91.259	-17.6693	-47.5129	0.600723	-8.69005	-6.41351	18.4522	8.40456	4.01103	0
0.5967	15.7816	-14.9405	-45.9771	3.06369	-7.16431	-4.88922	17.2247	15.9976	6.13933	-0.321201
0.5973	85.4266	-7.91366	-36.8265	2.46296	-8.69005	-5.49318	8.37886	21.7939	6.79419	-0.321201
0.5980	124.452	4.57082	-13.9179	0.300361	-8.69005	-4.88922	-0.173448	29.7347	6.46676	0
0.5987	147.953	20.4664	19.0371	-1.20145	-7.16431	-3.65253	-4.13606	38.603	5.56632	0
0.5993	170.253	34.1788	48.6327	-1.86224	-4.41799	-1.20792	-6.2708	45.0368	4.91146	-0.321201
0.6000	188.522	48.5053	72.1172	-0.901084	0.464354	1.20792	-8.71242	52.0503	6.13933	-0.321201
0.6007	118.362	59.216	84.6273	-0.600723	2.29523	1.20792	-13.2888	57.4988	7.03976	-0.321201
0.6013	-98.0348	60.444	81.2998	-1.50181	1.37979	0	-18.4789	57.4988	6.46676	0
0.6020	-335.102	56.1461	67.5419	-3.66441	0.464354	0.316361	-17.8651	52.9197	4.91146	0
0.6027	-428.248	44.8896	45.5932	-5.82701	-0.451086	0.920324	-47.4713	41.0374	3.11059	-0.321201
0.6033	-319.835	28.38	20.253	-5.52665	1.68494	2.73221	-128.338	27.5901	3.11059	-0.321201
0.6040	-107.813	11.9387	-0.191971	-3.06369	2.29523	2.73221	-183.574	18.1423	4.58403	-0.321201
0.6047	63.1265	-4.84371	-17.8853	-2.76332	-1.97682	-0.603962	-178.091	5.97013	5.8119	-0.642401
0.6053	171.111	-19.2384	-31.0353	-3.96477	-4.72314	-3.36493	-158.865	-8.11475	5.56632	-0.321201
0.6060	220.257	-28.38	-39.2581	-5.16622	-6.24887	-3.9689	-138.411	-18.7798	4.58403	-0.321201
0.6067	200.101	-32.3369	-41.0818	-6.42773	-5.02829	-2.76097	-110.953	-23.9385	3.43802	-0.642401
0.6073	145.208	-32.3369	-37.1144	-6.42773	-1.67167	-0.603962	-84.7092	-19.7072	3.11059	-0.321201
0.6080	71.9608	-31.45	-32.8591	-6.7281	-2.89226	-3.04857	-64.5626	-12.346	2.45573	-0.321201
0.6087	8.4912	-28.6529	-27.3559	-7.62918	-5.63858	-5.17682	-41.374	-10.839	2.21016	-0.321201
0.6093	-12.8655	-22.2401	-20.029	-7.92954	-5.33343	-4.88922	-10.2468	-11.7664	2.45573	0.321201
0.6100	-7.37619	-15.5544	-14.8458	-6.42773	-3.50255	-3.36493	22.4148	-10.2014	3.6836	0
0.6107	3.34502	-10.3696	-10.2705	-2.46296	-0.451086	-1.20792	52.9283	-6.89753	6.46676	-0.321201
0.6113	3.94541	-5.18481	-2.62361	-0.901084	-0.756233	-1.84065	83.4417	-5.33255	8.26763	0
0.6120	-3.08771	-0.613991	6.20707	-2.46296	-3.19741	-3.65253	114.275	-3.18794	7.03976	0
0.6127	-4.97464	1.84197	10.4944	-2.76332	-3.50255	-4.28526	128.311	0.753512	7.03976	0
0.6133	-14.0662	2.72885	10.4944	-2.1626	-3.50255	-4.57286	130.446	3.18794	8.26763	0
0.6140	-46.1441	4.57082	8.95866	0	-2.58711	-3.36493	140.826	6.25995	9.82292	-0.321201
0.6147	-94.0036	4.57082	4.99125	1.80217	-2.58711	-3.36493	142.961	9.274	11.6238	-0.321201
0.6153	-134.916	2.11486	-0.79988	1.80217	-4.41799	-4.88922	126.777	10.5492	12.5242	-0.321201
0.6160	-153.27	0.341106	-5.69515	2.46296	-5.02829	-5.49318	106.337	11.4186	13.7521	0
0.6167	-138.604	-0.613991	-8.73469	3.66441	-5.02829	-5.80954	72.4612	12.346	16.2078	-0.321201
0.6173	-92.8028	1.50087	-8.44673	3.96477	-4.41799	-5.49318	26.0705	14.7804	17.1083	0
0.6180	-28.1325	2.72885	-10.5584	4.56549	-2.89226	-3.9689	-5.05667	17.5626	15.6348	0
0.6187	68.6158	0	-15.1657	5.46658	-2.28197	-3.04857	-13.2888	18.1423	14.0795	-0.321201
0.6193	146.752	0.341106	-8.73469	3.66441	-2.58711	-2.44461	-12.0746	19.9971	12.2787	-0.321201
0.6200	224.545	5.18481	3.16753	0.600723	-1.97682	-0.316361	-13.2888	24.2283	9.49549	0
0.6207	433.309	11.3247	9.27861	-1.86224	-1.36653	1.52429	-23.669	29.7347	6.46676	0
0.6213	620.029	14.0536	12.6061	-4.26513	-0.451086	2.44461	-32.8217	31.5895	4.01103	-0.321201
0.6220	628.006	12.8256	14.4618	-7.92954	1.37979	3.9689	-19.9999	27.5901	0.654861	0
0.6227	554.415	14.0536	15.0697	-11.2936	1.37979	3.36493	4.40291	25.7933	-2.7013	0
0.6233	315.461	20.4664	17.5014	-12.1947	-0.14594	1.52429	16.0106	27.9379	-3.02873	0
0.6240	-2.48732	24.1503	17.8213	-11.594	-0.14594	1.52429	22.7217	27.5901	-1.47344	-0.321201
0.6247	-124.28	22.3083	15.6776	-10.6929	1.07465	2.12825	12.6483	23.6487	-0.573004	-0.642401
0.6253	-187.75	20.4664	15.0697	-10.0921	3.21067	4.88922	-29.4728	20.9245	0.654861	-0.642401
0.6260	-311.944	16.1684	11.3903	-8.53026	4.73641	7.33383	-71.2737	13.853	1.88273	0
0.6267	-344.623	3.95683	-0.191971	-8.2299	1.07465	3.65253	-84.0955	-2.3185	2.21016	0
0.6273	-242.385	-9.75564	-9.95051	-7.92954	-1.06138	1.52429	-67.0042	-18.7798	3.43802	-0.321201
0.6280	-117.504	-18.8973	-13.022	-7.62918	0.7695	3.04857	-37.398	-29.1551	4.33846	-0.321201
0.6287	-37.5671	-20.7393	-12.4141	-7.32882	1.07465	4.57286	-13.2888	-32.2271	4.01103	0
0.6293	7.89081	-18.6244	-9.95051	-5.82701	1.99009	6.09714	4.70977	-27.9379	4.91146	-0.321201
0.6300	14.3235	-18.8973	-10.5584	-5.82701	1.68494	3.36493	13.8625	-24.8659	5.8119	-0.321201
0.6307	-7.97658	-20.1253	-13.022	-5.82701	-0.14594	-0.316361	14.1693	-23.9385	6.46676	0
0.6313	-39.111	-18.0104	-11.1983	-5.16622	0.159207	0	22.4148	-21.5041	6.46676	0
0.6320	-71.4462	-14.6676	-8.73469	-6.7281	0.464354	1.20792	39.1992	-20.9245	4.91146	-0.321201
0.6327	-81.8243	-11.2565	-7.83882	-5.82701	0.7695	1.20792	54.1557	-19.9971	5.56632	-0.321201
0.6333	-71.1889	-8.52765	-2.94356	-2.76332	2.60038	1.84065	67.5779	-18.49	7.69462	0
0.6340	-54.378	-6.68568	4.99125	-2.46296	1.99009	1.20792	74.9028	-19.0697	7.9402	0
0.6347	-31.4775	-4.29794	8.63871	-4.26513	-0.756233	0	66.9642	-15.418	7.36719	-0.321201
0.6353	-13.4658	-1.84197	6.20707	-5.52665	-1.06138	0	44.6962	-8.98418	6.79419	-0.321201
0.6360	-15.6101	-1.22798	2.84757	-5.52665	0.159207	0.920324	17.5316	-4.75292	6.13933	-0.321201
0.6367	-33.6217	-1.50087	1.63176	-4.86585	1.07465	3.36493	3.49564	-1.97072	7.03976	-0.321201
0.6373	-47.0876	-3.34284	-0.191971	-6.42773	0.7695	2.73221	14.1693	-3.18794	7.03976	0
0.6380	-50.6899	-7.02679	-5.69515	-7.32882	0.464354	-0.316361	24.5495	-6.54976	5.56632	0
0.6387	-45.801	-8.52765	-11.4863	-7.02846	1.99009	-0.603962	10.5136	-5.97013	5.23889	0
0.6393	-37.5671	-10.0967	-15.7736	-7.92954	1.99009	0.603962	-3.52232	-4.40515	4.91146	0
0.6400	-54.9784	-12.8256	-20.029	-8.83063	0.7695	1.20792	4.09604	-4.75292	3.43802	-0.321201
0.6407	-87.0562	-11.8705	-22.1727	-8.83063	1.68494	2.73221	14.1693	-1.3911	2.21016	0
0.6413	-83.0251	-9.14165	-21.8527	-10.3925	0.7695	2.44461	5.93725	2.89812	1.5553	0
0.6420	-34.8225	-7.02679	-19.4211	-11.8943	-1.36653	1.20792	-2.00132	5.33255	1.22787	-0.321201
0.6427	16.7251	-2.72885	-12.0942	-10.6929	-1.06138	-0.316361	-4.7498	7.76697	3.11059	-0.321201
0.6433	45.4579	6.13991	1.95171	-9.79178	0.464354	-2.12825	-16.9579	11.4186	4.58403	0
0.6440	53.6918	17.3964	19.0371	-10.6929	3.82097	-0.603962	-15.7304	19.7072	4.01103	0
0.6447	40.5691	23.1952	26.364	-11.594	5.3467	1.20792	3.49564	26.3729	2.78316	0
0.6453	36.5379	21.3532	24.2204	-10.9932	4.12611	1.84065	21.4942	25.1557	3.11059	-0.321201
0.6460	79.9374	19.5113	23.6125	-10.3925	3.82097	2.44461	42.2546	22.1417	3.43802	-0.321201
0.6467	96.4051	19.2384	22.3966	-11.2936	2.90553	0.603962	63.0016	19.9971	1.88273	-0.321201
0.6473	3.34502	19.8524	19.3251	-10.3925	4.43126	-0.316361	72.1543	22.1417	1.5553	-0.321201
0.6480	-116.647	19.8524	13.534	-9.49142	6.56729	0.603962	64.5226	24.2283	2.21016	-0.321201
0.6487	-143.15	14.9405	4.99125	-10.0921	5.04155	0.603962	44.9897	21.7939	1.5553	-0.321201
0.6493	-65.0134	6.4128	-5.08724	-10.3925	4.12611	1.52429	29.1259	16.925	0.982292	0
0.6500	33.7933	-4.29794	-15.4537	-11.2936	3.21067	2.44461	19.9732	8.69437	-0.245573	-0.321201
0.6507	78.0504	-14.3265	-24.9243	-12.7954	1.07465	3.36493	17.2247	-1.97072	-1.47344	-0.321201
0.6513	99.7502	-20.4664	-29.7875	-13.7566	2.29523	6.70111	11.7277	-8.69437	-2.37387	0
0.6520	140.319	-19.5113	-27.6759	-14.3573	3.82097	9.14572	-10.8472	-9.33196	-3.02873	0
0.6527	169.652	-13.0985	-19.741	-13.7566	2.90553	8.22539	-34.9564	-6.54976	-2.7013	0
0.6533	164.421	-5.7988	-10.2705	-11.594	3.51582	7.33383	-42.2812	-4.11534	-0.900434	-0.321201
0.6540	149.754	-1.84197	-5.37519	-9.49142	4.73641	6.70111	-37.398	-3.18794	1.22787	-0.321201
0.6547	142.807	-0.886876	-3.55147	-7.92954	4.12611	4.57286	-33.4354	-3.18794	3.43802	-0.321201
0.6553	115.875	1.22798	0.415938	-6.12737	4.43126	3.65253	-31.6075	-2.89812	5.23889	-0.642401
0.6560	67.415	3.68395	5.91911	-4.26513	5.65185	4.57286	-23.3621	-2.60831	6.13933	-0.642401
0.6567	36.5379	3.68395	9.56657	-3.36405	5.3467	4.28526	-11.7678	-2.89812	5.8119	0
0.6573	22.5574	0.341106	8.35075	-4.56549	4.73641	2.73221	-2.00132	-5.04274	4.01103	0
0.6580	-14.4093	-1.84197	4.6713	-6.12737	1.99009	0	4.40291	-6.54976	3.11059	-0.321201
0.6587	-69.3019	-0.613991	6.20707	-5.52665	1.37979	-0.316361	10.5136	-4.40515	3.6836	-0.321201
0.6593	-92.5455	0.613991	5.91911	-4.56549	2.60038	0.603962	18.4522	-2.3185	3.6836	-0.642401
0.6600	-74.5339	-2.72885	-1.72774	-4.86585	1.07465	-0.603962	19.0526	-2.3185	3.6836	-0.642401
0.6607	-53.4345	-7.64078	-9.3426	-4.86585	-0.756233	-1.52429	12.6483	-1.97072	3.43802	-0.321201
0.6613	-43.3995	-10.6425	-12.0942	-6.7281	-1.97682	-1.52429	6.53765	-3.53571	1.5553	0
0.6620	-36.3664	-9.14165	-9.05464	-8.2299	-0.756233	0.316361	2.8819	-3.82552	0.327431	-0.321201
0.6627	-28.7328	-5.4577	-4.76729	-6.42773	2.29523	2.12825	-0.480317	0.173887	2.21016	-0.321201
0.6633	-22.3001	-4.29794	-3.26351	-5.52665	1.68494	1.52429	-4.13606	1.97072	3.11059	0
0.6640	-19.2982	-3.68395	-3.26351	-6.12737	0.159207	1.20792	-8.71242	-0.173887	3.43802	0
0.6647	-15.9532	-2.45596	-2.33565	-5.52665	0.464354	1.52429	-11.4609	-1.10129	4.33846	-0.321201
0.6653	-6.43273	-0.886876	-1.72774	-4.26513	1.07465	1.52429	-10.8472	1.3911	5.23889	-0.321201
0.6660	1.45808	-1.22798	-2.94356	-3.96477	2.90553	2.73221	-9.01929	4.40515	5.8119	-0.321201
0.6667	-2.8304	-3.06996	-7.51887	-5.16622	3.51582	3.9689	-8.09868	5.62236	4.33846	0
0.6673	-10.7212	-4.29794	-13.31	-7.92954	2.29523	3.65253	-7.80515	5.33255	1.5553	-0.321201
0.6680	-15.9532	-4.84371	-17.2774	-10.3925	1.68494	3.36493	-6.88454	4.75292	-1.47344	-0.321201
0.6687	-15.6101	-4.29794	-17.2774	-11.594	1.68494	3.36493	-8.09868	4.11534	-2.1283	0
0.6693	-18.0974	-0.272885	-10.5584	-10.3925	2.90553	3.65253	-7.80515	5.62236	-1.47344	0
0.6700	-36.0233	7.29967	2.23966	-8.83063	5.04155	3.9689	-4.44293	11.1288	-0.573004	0
0.6707	-47.9453	14.9405	18.1093	-7.92954	3.82097	2.44461	-3.82919	15.418	-0.573004	-0.321201
0.6713	-30.2767	18.3515	27.8678	-8.2299	1.68494	1.52429	-5.05667	15.7078	-2.37387	-0.321201
0.6720	-5.83234	17.3964	26.652	-7.92954	1.07465	1.20792	-4.44293	15.418	-3.60174	0
0.6727	-5.83234	16.7824	24.2204	-3.96477	2.29523	1.20792	-2.61506	15.9976	-3.92917	-0.321201
0.6733	-37.9102	17.7375	24.8283	2.10253	4.73641	2.73221	-0.173448	16.925	-3.02873	-0.642401
0.6740	-83.0251	14.3265	21.1808	7.92954	3.51582	1.84065	-1.38758	12.9836	-2.7013	-0.321201
0.6747	-86.4559	4.91193	11.3903	14.3573	1.07465	-0.920324	-4.7498	3.18794	-6.71233	-0.321201
0.6753	-28.1325	-5.4577	1.63176	22.2868	0.159207	-2.76097	-6.88454	-4.75292	-8.84063	-0.321201
0.6760	24.3586	-10.3696	-2.62361	33.5804	0.159207	-3.04857	-7.19141	-7.76697	-0.900434	-0.321201
0.6767	30.7913	-9.48275	-2.94356	43.9128	2.90553	-1.20792	-5.36354	-7.18735	15.3074	-0.321201
0.6773	23.4151	-9.48275	-3.87142	46.3758	3.21067	-1.52429	-4.7498	-8.40456	35.1169	0
0.6780	21.957	-11.8705	-6.30306	43.9128	0.7695	-3.9689	-8.09868	-12.0562	49.442	0
0.6787	16.1247	-12.4845	-7.51887	41.8103	1.37979	-4.88922	-9.93989	-12.6938	61.3933	-0.321201
0.6793	3.94541	-10.6425	-6.91096	32.0185	2.90553	-5.49318	-11.154	-10.5492	68.1056	-0.321201
0.6800	-3.6881	-6.4128	-3.55147	17.3609	5.65185	-4.57286	-10.2468	-6.89753	45.1854	-0.321201
0.6807	-4.03118	-2.72885	0.0959856	7.62918	6.87244	-2.76097	-7.49828	-2.89812	26.9312	-0.642401
0.6813	-9.77775	-3.06996	-0.79988	0.300361	1.99009	-5.49318	-9.01929	-3.18794	40.3558	-0.642401
0.6820	-20.842	-3.34284	-2.0157	-5.16622	-1.36653	-6.41351	-9.01929	-3.82552	30.8603	-0.642401
0.6827	-27.189	-2.11486	-1.11983	-8.53026	-2.58711	-2.12825	-2.00132	-2.3185	-7.85834	-0.642401
0.6833	-27.7894	-0.272885	0.0959856	-5.16622	-5.02829	1.84065	6.84452	0.4637	-35.0351	-0.321201
0.6840	-23.844	2.72885	2.23966	-3.66441	-5.94373	3.36493	12.6483	3.82552	-53.3712	-0.642401
0.6847	-20.499	3.95683	2.84757	-3.36405	-8.69005	0.603962	8.68573	3.82552	-58.8557	-0.642401
0.6853	-17.4112	3.34284	2.84757	8.53026	-8.69005	-2.12825	3.18877	2.26054	-37.1634	-0.642401
0.6860	-12.2651	2.45596	2.55962	-4.86585	-6.24887	-1.84065	2.26816	1.3911	-2.1283	-0.321201
0.6867	-7.71927	1.84197	1.95171	-53.4043	-4.72314	-1.52429	1.3609	-0.4637	30.2873	-0.321201
0.6873	3.00194	2.72885	2.84757	-62.5953	-0.14594	0	1.65443	0.753512	60.4928	-0.321201
0.6880	13.7232	2.72885	3.16753	-6.12737	1.68494	-0.603962	0.133421	1.04332	97.6562	-0.321201
0.6887	17.3255	2.45596	2.55962	55.5669	1.07465	-2.12825	-3.52232	0.173887	123.032	-0.321201
0.6893	18.5263	2.72885	2.23966	58.5705	2.90553	-0.316361	-3.52232	1.04332	92.8266	-0.642401
0.6900	16.1247	1.50087	1.63176	10.6929	2.90553	0.603962	-4.13606	0.4637	-16.126	-0.321201
0.6907	11.5789	1.84197	3.16753	-15.5587	3.51582	2.73221	-1.69445	1.68091	-154.056	-0.321201
0.6913	16.4678	3.34284	4.6713	2.10253	5.3467	5.49318	2.8819	5.97013	-174.521	-0.321201
0.6920	27.4463	1.50087	2.55962	18.0217	3.82097	4.28526	1.96129	5.33255	-30.2055	-0.321201
0.6927	31.649	-0.613991	0.415938	4.86585	1.68494	2.73221	0.74716	1.3911	107.807	-0.321201
0.6933	22.8147	-0.613991	-1.11983	-10.6929	-0.756233	2.44461	0.74716	-0.753512	154.138	0
0.6940	5.74657	1.22798	-3.26351	-50.6409	0.159207	2.12825	0.440291	0.4637	188.355	0
0.6947	1.80116	2.11486	-6.30306	-139.187	3.51582	0.316361	1.05403	3.47775	212.421	-0.321201
0.6953	12.7797	-0.613991	-13.022	-172.407	0.159207	-4.28526	-0.480317	2.60831	163.306	-0.642401
0.6960	8.14812	-3.06996	-19.1331	-110.173	-3.8077	-7.33383	-2.92193	1.04332	51.8978	-0.642401
0.6967	-10.1208	-3.95683	-20.6369	-60.1324	-4.11285	-8.25415	-3.82919	2.26054	-8.84063	-0.321201
0.6973	18.5263	-4.57082	-20.6369	-89.4476	-4.72314	-8.25415	-3.82919	3.18794	82.1033	0
0.6980	100.951	-1.22798	-13.9179	-158.711	-1.97682	-5.49318	-2.00132	5.62236	184.098	-0.321201
0.6987	178.744	5.52592	0.415938	-182.5	-0.451086	-2.76097	-0.480317	9.91158	94.3	-0.321201
0.6993	253.535	12.2116	14.4618	-162.976	-2.28197	-0.603962	0.440291	14.2008	-57.0548	-0.321201
0.7000	326.783	18.8973	26.364	-119.604	-3.50255	0.603962	-0.173448	19.3595	-47.5593	-0.642401
0.7007	341.706	25.9241	39.77	33.8808	-3.19741	-1.20792	-2.92193	24.5761	43.712	-0.642401
0.7013	260.911	36.2937	57.7833	240.169	0.7695	-1.84065	-3.21546	30.0825	41.8293	-0.321201
0.7020	114.674	46.3904	72.1172	263.357	5.65185	3.04857	-0.480317	34.024	-3.35616	-0.321201
0.7027	-40.6548	48.5053	71.8292	142.191	8.09302	7.93779	-0.173448	33.7342	24.721	-0.642401
0.7033	-185.263	43.9345	61.1428	180.037	8.09302	6.70111	-2.92193	29.4449	33.8891	-0.321201
0.7040	-272.233	37.2488	49.2406	337.846	4.12611	0	-8.40555	22.1417	-58.5282	-0.321201
0.7047	-289.044	32.3369	39.4821	367.402	-1.67167	-4.88922	-11.4609	17.8524	-187.045	-0.321201
0.7053	-277.722	27.766	29.1156	336.285	-4.11285	-6.09714	-8.71242	18.1423	-312.123	-0.321201
0.7060	-217.683	14.9405	10.1745	385.724	-4.72314	-8.85812	-9.32615	13.5632	-305.738	-0.642401
0.7067	-121.536	-1.22798	-10.5584	413.177	-1.67167	-10.066	-9.32615	3.82552	-154.711	-0.321201
0.7073	-48.2883	-12.2116	-22.1727	361.034	2.90553	-9.14572	-6.88454	-6.89753	1.22787	0
0.7080	-23.2436	-19.5113	-25.8201	256.028	7.48273	-8.85812	-6.2708	-20.5767	182.215	-0.642401
0.7087	-22.9005	-24.4232	-25.2122	31.7182	15.7217	-5.80954	-3.82919	-30.0825	272.586	-0.642401
0.7093	-29.6763	-28.994	-23.7084	-119.604	20.9092	-7.62143	-2.00132	-35.2412	343.393	-0.321201
0.7100	-46.7445	-33.5648	-22.1727	-87.285	19.9937	-12.5106	-2.61506	-39.2406	511.529	-0.321201
0.7107	-62.955	-33.2237	-18.4932	-170.605	12.3651	-10.67	-0.480317	-38.8928	415.1	-0.642401
0.7113	-69.645	-28.38	-14.2379	-374.431	0.159207	-5.80954	0.440291	-36.1686	81.8577	-0.321201
0.7120	-66.3	-21.6261	-8.73469	-459.313	-5.33343	1.84065	2.57503	-30.952	-93.6452	0
0.7127	-54.9784	-14.6676	-3.26351	-428.496	-8.07975	14.6389	9.593	-24.5761	-106.169	0
0.7133	-44.9433	-10.6425	-2.0157	-442.793	-15.4033	21.3688	12.6483	-22.1417	-178.45	0
0.7140	-39.111	-9.75564	-4.15938	-466.341	-19.9805	18.9242	9.28613	-23.9385	-358.864	-0.642401
0.7147	-34.2221	-9.48275	-3.87142	-290.51	-14.4878	14.6389	5.93725	-25.1557	-406.751	-0.963602
0.7153	-29.3332	-8.25477	-2.62361	-9.13099	-5.63858	13.7186	4.40291	-22.7213	-281.345	-0.642401
0.7160	-24.7874	-5.7988	-1.40779	120.865	3.51582	15.5592	4.70977	-17.5626	-158.64	-0.321201
0.7167	-21.0993	-4.57082	-1.11983	111.074	9.9239	14.6389	2.26816	-14.4906	-54.5991	-0.321201
0.7173	-20.1559	-5.7988	-2.33565	75.0903	11.1445	12.827	-2.00132	-14.7804	3.43802	-0.321201
0.7180	-20.1559	-6.07169	-2.62361	23.7886	11.1445	12.827	-3.82919	-14.2008	23.8206	-0.321201
0.7187	-18.3547	-5.18481	-1.72774	-21.9865	11.1445	11.9067	-5.36354	-11.7664	163.306	-0.321201
0.7193	-14.6666	-2.11486	0.415938	-7.32882	10.8393	11.9067	-5.65707	-8.11475	328.086	0
0.7200	-11.3216	0.613991	1.3438	31.4178	7.48273	10.066	-6.57767	-5.62236	279.544	-0.321201
0.7207	-10.1208	-0.886876	-0.511923	-7.62918	-2.28197	2.12825	-12.0746	-7.18735	9.82292	-0.642401
0.7213	-10.1208	-3.34284	-2.62361	-53.4043	-14.4878	-5.17682	-16.9579	-8.11475	-333.816	-0.642401
0.7220	-7.71927	-2.72885	-2.94356	22.8875	-19.9805	-5.17682	-16.3441	-6.89753	-480.914	-0.642401
0.7227	-5.23195	0	-2.0157	95.2146	-15.4033	-0.920324	-10.8472	-4.75292	-332.915	-0.321201
0.7233	-7.97658	3.06996	-0.191971	100.681	-4.72314	1.84065	-4.13606	-1.10129	-114.683	-0.321201
0.7240	-10.7212	3.34284	-0.191971	190.129	2.29523	0.920324	-0.773844	-1.10129	56.4818	-0.642401
0.7247	-5.57503	1.50087	-1.11983	222.448	5.3467	-0.920324	0.74716	-3.53571	302.792	-0.321201
0.7253	7.29042	0.613991	-1.11983	30.8171	7.78788	0	2.26816	-2.89812	518.241	-0.321201
0.7260	22.5574	0.613991	0.415938	-150.181	8.70332	0.920324	1.05403	-1.97072	439.166	-0.642401
0.7267	32.5925	1.84197	1.95171	-234.702	8.09302	2.12825	-0.173448	0.173887	235.668	-0.321201
0.7273	37.4814	1.84197	0.415938	-344.875	5.65185	3.9689	0.74716	1.68091	131.545	-0.321201
0.7280	42.7133	-0.272885	-2.94356	-408.912	0.7695	0.603962	-1.08071	-0.4637	97.0832	-0.321201
0.7287	51.2045	-0.613991	-3.87142	-357.37	-2.58711	-3.9689	-0.173448	-0.753512	15.6348	-0.321201
0.7293	56.0934	1.84197	-4.47933	-283.842	-5.63858	-1.52429	5.32351	1.04332	-270.621	-0.321201
0.7300	46.6587	3.34284	-7.23092	-234.702	-6.55402	7.01747	11.1273	2.26054	-539.197	-0.321201
0.7307	23.4151	4.29794	-8.12678	-139.187	-2.89226	13.431	16.611	3.47775	-444.896	-0.321201
0.7313	-6.17542	4.29794	-7.23092	18.6224	-1.06138	12.827	14.7831	2.60831	-124.506	-0.321201
0.7320	-43.0564	6.13991	-3.26351	145.255	1.68494	16.4795	11.1273	2.60831	152.91	-0.321201
0.7327	-89.4578	9.14165	3.45548	227.674	8.39817	21.9727	11.1273	5.62236	320.8	-0.321201
0.7333	-105.668	11.5976	10.1745	361.935	12.6702	15.5592	6.53765	6.25995	315.561	-0.642401
0.7340	-72.6469	16.7824	20.253	436.725	14.8063	4.28526	-0.773844	8.69437	221.916	-0.642401
0.7347	-33.9648	22.9223	30.6194	323.489	13.5857	-3.65253	-6.57767	12.346	156.594	-0.321201
0.7353	-13.8089	25.6512	33.9789	169.344	5.65185	-6.09714	-10.5403	12.346	-26.8493	-0.321201
0.7360	-6.17542	28.1071	30.9394	74.1292	-3.19741	6.41351	-10.5403	11.1288	-163.224	-0.321201
0.7367	-7.97658	28.994	26.652	-26.8523	-7.46946	22.2891	-8.09868	12.0562	59.265	-0.321201
0.7373	-10.1208	19.2384	21.1808	-87.5854	-7.77461	26.258	-4.13606	12.6358	309.504	0
0.7380	-8.57697	10.3696	13.246	-38.1459	-8.69005	25.3377	1.65443	9.91158	65.3224	0
0.7387	-7.03312	7.91366	5.3112	6.42773	-12.657	25.6253	4.40291	6.25995	-421.731	-0.321201
0.7393	0.257309	-6.07169	-1.40779	-43.9729	-12.3518	26.5456	5.32351	2.60831	-544.108	-0.642401
0.7400	14.5808	-21.9672	-5.08724	-129.396	-8.07975	25.0213	7.76512	-2.3185	-345.112	-0.321201
0.7407	27.7036	-19.8524	-6.91096	-140.089	-6.24887	14.3513	8.68573	-7.47716	-131.463	-0.321201
0.7413	38.6821	-18.6244	-8.73469	-36.3437	-3.19741	-0.920324	9.593	-8.69437	28.732	-0.321201
0.7420	42.9706	-23.4681	-7.51887	65.2986	1.37979	-10.3824	9.593	-6.54976	141.041	-0.321201
0.7427	36.881	-8.25477	-5.37519	73.8288	3.21067	-14.3513	7.45825	-6.25995	213.321	-0.321201
0.7433	29.2475	10.0967	-3.55147	83.3203	2.60038	-19.2405	6.24412	-7.76697	294.524	-0.321201
0.7440	21.2709	8.25477	-0.79988	141.891	0.464354	-27.7823	3.49564	-10.2014	305.247	-0.642401
0.7447	13.3801	6.4128	2.23966	165.679	0.159207	-32.0388	1.65443	-12.346	153.811	-0.642401
0.7453	10.8928	11.9387	3.16753	154.386	1.68494	-31.7512	4.09604	-12.6938	58.9375	-0.321201
0.7460	10.0351	12.5527	2.23966	167.842	1.07465	-35.7201	5.01664	-10.5492	134.328	0
0.7467	7.29042	10.9836	1.95171	182.5	-1.36653	-39.6602	3.80251	-7.47716	234.113	-0.321201
0.7473	6.08965	13.4396	0.415938	168.443	-3.50255	-37.8483	2.8819	-5.97013	229.856	-0.321201
0.7480	4.8031	7.29967	-1.72774	180.637	-7.77461	-32.6427	2.57503	-6.25995	158.149	-0.642401
0.7487	4.54579	-11.5976	-2.33565	225.511	-9.91064	-21.9727	3.18877	-5.04274	64.422	-0.321201
0.7493	5.74657	-26.2652	-2.94356	259.392	-8.07975	-13.7473	2.8819	-1.10129	-164.125	0
0.7500	6.34696	-29.8809	-4.15938	254.827	-9.30034	-9.77844	3.49564	1.04332	-434.828	0
0.7507	4.54579	-30.836	-4.47933	226.112	-15.0981	-1.20792	8.07199	-0.173887	-538.296	-0.321201
0.7513	2.05847	-29.2669	-2.33565	253.265	-18.1496	5.49318	13.8625	-0.173887	-498.923	-0.321201
0.7520	2.40155	-31.7229	0.703894	342.112	-14.793	9.77844	17.8384	2.60831	-412.89	0
0.7527	2.65886	-75.0434	3.45548	346.977	-7.16431	18.9242	17.2247	5.97013	-335.944	0
0.7533	4.20272	-130.917	3.16753	191.931	1.07465	23.497	14.4762	10.5492	-234.932	-0.321201
0.7540	6.94735	-112.019	-1.11983	25.6509	8.39817	18.0038	12.0346	15.1282	-52.4708	0
0.7547	6.08965	-71.0865	-5.69515	-7.92954	11.7548	7.62143	5.93725	15.7078	114.191	0
0.7553	1.80116	-93.3949	-4.76729	65.2986	13.2805	1.84065	-2.00132	16.3454	265.219	-0.321201
0.7560	1.45808	-143.401	0.415938	158.711	19.9937	7.93779	-4.13606	19.9971	582.336	-0.321201
0.7567	3.94541	-115.362	-0.511923	141.891	27.0121	14.3513	-3.52232	21.5041	1021.75	0
0.7573	3.60233	58.3292	-6.30306	-226.773	28.2327	15.2716	-2.30819	18.7798	1242.68	0
0.7580	0.257309	124.845	-7.83882	-740.391	25.1812	18.9242	1.05403	15.1282	1000.38	0
0.7587	-2.48732	-25.0372	-5.08724	-752.586	19.6886	17.6875	1.65443	15.9976	581.108	0
0.7593	-3.43079	-78.4544	-1.11983	-379.657	13.5857	2.73221	-2.92193	19.9971	289.612	-0.321201
0.7600	-4.28849	-7.64078	2.23966	-170.005	9.61876	-12.1943	-8.09868	23.9385	38.8005	-0.321201
0.7607	-3.08771	-2.11486	0.415938	-46.3758	5.3467	-14.9553	-6.57767	33.3864	5.23889	0
0.7613	-1.54385	-29.2669	-0.191971	144.654	-1.97682	-8.54175	1.96129	42.8922	55.9088	0
0.7620	-5.83234	37.5217	5.3112	229.176	-3.50255	-2.44461	12.0346	50.8331	-90.6165	-0.321201
0.7627	-16.2105	115.362	8.0308	162.676	1.68494	-2.12825	16.0106	64.2224	-123.523	0
0.7633	-23.5867	68.6988	4.38334	68.3623	2.29523	0.603962	16.9178	78.5971	-38.3913	0
0.7640	-22.6432	75.1116	0.415938	79.9562	-1.97682	7.01747	17.8384	86.8278	79.7294	-0.321201
0.7647	-25.9882	141.013	-4.15938	247.498	-8.9952	10.67	16.611	76.1627	289.612	-0.321201
0.7653	-31.2202	78.7273	-7.23092	354.907	-16.929	14.6389	16.9178	50.4853	338.482	-0.321201
0.7660	-24.1871	50.0744	-6.91096	201.122	-18.1496	20.1321	16.611	18.4321	-20.3826	-0.321201
0.7667	-9.17736	154.726	-6.91096	70.4648	-16.0136	24.4173	11.1273	-27.3003	-507.436	0
0.7673	4.20272	245.051	-6.59101	139.127	-16.0136	24.7049	3.80251	-59.3536	-548.365	0
0.7680	11.5789	214.215	-9.66255	114.137	-17.8445	19.5281	-4.7498	-59.3536	-255.396	-0.321201
0.7687	12.1793	90.052	-8.73469	-21.3857	-18.7599	15.2716	-8.71242	-49.9057	-41.5018	-0.321201
0.7693	9.09159	36.2937	5.91911	-78.154	-12.0467	12.827	-7.80515	-33.0966	209.392	0
0.7700	5.14618	-2.72885	15.0697	-70.2245	-3.8077	6.70111	-13.5956	-12.346	499.332	-0.321201
0.7707	3.94541	-119.592	8.63871	-10.0921	-1.36653	1.20792	-23.0552	-9.33196	468.144	-0.321201
0.7713	3.00194	-169.666	1.63176	87.8857	-5.94373	-2.76097	-25.4968	-24.8659	-12.1968	-0.321201
0.7720	0.257309	-183.993	-1.40779	112.936	-15.7084	-11.3027	-24.8831	-44.6891	-613.032	0
0.7727	1.20078	-216.671	-2.62361	64.6978	-18.1496	-18.6078	-24.2827	-57.5567	-996.699	0
0.7733	7.89081	-153.498	-2.33565	84.2213	-8.9952	-13.431	-21.5342	-63.353	-1170.32	0
0.7740	11.2358	-56.7601	-2.94356	128.194	-4.41799	-2.76097	-19.3995	-63.6428	-1130.05	0
0.7747	7.54773	-43.9345	-3.87142	-27.1527	-5.02829	5.80954	-16.651	-60.281	-867.282	0
0.7753	4.8031	-97.0106	-2.94356	-277.714	-1.97682	15.8756	-11.7678	-52.3401	-597.807	-0.321201
0.7760	2.65886	-115.362	-4.15938	-495.296	2.60038	22.2891	-9.93989	-41.3852	-417.147	-0.642401
0.7767	-4.03118	-32.3369	-9.3426	-711.076	5.65185	19.2118	-11.4609	-37.096	-278.889	-0.642401
0.7773	-18.9551	1.22798	-16.6695	-636.586	2.60038	11.3027	-14.8231	-35.531	-165.68	0
0.7780	-36.3664	-91.2118	-23.1005	-393.353	-0.451086	4.57286	-16.651	-25.5035	-21.9379	0
0.7787	-40.9121	-156.568	-24.3164	-349.14	0.7695	-1.84065	-15.4235	-16.6352	211.848	0
0.7793	-33.9648	-56.7601	-20.3489	-336.285	3.21067	-9.77844	-18.7857	-22.7213	518.568	0
0.7800	-18.6978	119.046	-16.6695	-243.833	9.61876	-15.8756	-24.8831	-28.5175	787.389	-0.321201
0.7807	3.00194	206.642	-13.31	-154.145	16.6371	-20.7648	-27.9384	-19.3595	905.837	-0.321201
0.7813	21.2709	251.463	-1.11983	-122.668	15.1114	-18.3202	-30.0732	-1.68091	770.608	-0.321201
0.7820	32.3352	273.772	17.2134	-109.872	14.196	-5.49318	-26.7243	12.346	403.804	-0.321201
0.7827	34.1363	233.18	31.8352	40.3085	19.6886	6.09714	-15.13	12.9836	-25.294	-0.321201
0.7833	16.7251	176.42	37.6584	178.535	14.5011	10.67	-8.71242	6.25995	-536.168	-0.642401
0.7840	-24.4444	140.399	38.5542	94.6138	-3.19741	8.85812	-11.4609	5.97013	-1106.8	-0.321201
0.7847	-66.5573	109.563	37.9463	148.318	-23.3371	4.88922	-15.13	15.418	-1313.16	0
0.7853	-79.68	58.8749	29.4036	468.143	-39.5099	3.9689	-14.8231	26.3729	-966.412	-0.321201
0.7860	-65.6996	32.678	14.7498	551.464	-36.7635	4.57286	-10.8472	26.3729	-425.66	-0.321201
0.7867	-46.1441	29.3351	3.77543	289.308	-16.3187	2.44461	-5.65707	16.925	-73.8356	-0.321201
0.7873	-28.4755	-30.836	-3.26351	16.7602	0.159207	7.01747	-4.44293	12.346	42.7297	-0.321201
0.7880	-8.31966	-97.6246	-11.1983	-121.767	4.73641	28.3862	-9.93989	5.33255	118.775	-0.321201
0.7887	9.69198	-40.5916	-13.63	-192.592	1.99009	43.9455	-14.2094	-13.5632	333.324	-0.321201
0.7893	17.9259	74.4976	-6.30306	-243.533	1.07465	37.5319	-11.154	-27.6481	656.744	0
0.7900	26.5028	71.0865	-1.40779	-283.842	3.21067	27.7823	-3.82919	-28.2277	906.983	-0.321201
0.7907	35.6802	-36.0208	-4.76729	-303.966	-2.58711	20.1321	0.440291	-23.3589	962.892	-0.321201
0.7913	33.7933	-54.9181	-2.62361	-181.298	-13.5724	8.85812	-0.773844	-17.8524	801.141	-0.321201
0.7920	28.0467	102.537	6.81498	38.7466	-17.5393	-4.28526	-0.773844	-19.9971	416.001	-0.321201
0.7927	34.3937	188.291	13.246	200.822	-16.3187	-11.3027	5.63038	-27.0105	-94.5456	-0.321201
0.7933	42.7133	78.1133	9.88652	310.994	-9.91064	-18.3202	11.7277	-26.0831	-401.266	-0.321201
0.7940	28.9044	-2.11486	0.703894	357.67	-0.451086	-32.0388	12.9552	-19.3595	-273.405	-0.321201
0.7947	5.14618	-3.06996	-6.91096	402.845	0.7695	-44.8658	12.6483	-13.911	59.265	-0.321201
0.7953	-11.6647	-19.5113	-11.1983	465.38	-3.19741	-54.3279	15.3968	-8.11475	239.024	-0.642401
0.7960	-35.766	-24.0821	-15.1657	363.738	-4.41799	-58.2967	20.8804	-0.4637	206.609	-0.321201
0.7967	-62.0115	12.2116	-18.2053	133.961	-1.67167	-51.8832	28.5121	15.1282	52.5526	-0.321201
0.7973	-57.723	52.8032	-15.1657	8.53026	-2.58711	-40.5805	35.2366	43.7617	-141.286	0
0.7980	-14.0662	79.6824	-5.08724	-17.421	-15.7084	-36.6116	30.9538	67.5842	-274.633	0
0.7987	35.0798	89.438	0.703894	15.8591	-23.3371	-35.4037	23.3221	71.2359	-276.106	-0.321201
0.7993	58.5807	100.422	4.38334	211.454	-23.9474	-25.3377	24.8564	59.6434	-109.526	-0.321201
0.8000	62.7834	94.0089	13.8539	455.648	-21.2011	-13.1146	27.6049	33.0966	196.868	0
0.8007	49.4033	42.4336	22.6846	462.316	29.4533	-7.01747	24.8564	-5.33255	522.825	-0.321201
0.8013	-4.03118	-13.7125	20.5409	46.0754	100.871	-4.88922	20.28	-33.7342	683.021	-0.321201
0.8020	-39.4541	-47.2773	7.42289	-445.256	120.705	-10.066	10.8205	-41.0374	650.687	-0.321201
0.8027	10.0351	-54.9181	-5.37519	-465.08	102.397	-20.1321	-5.65707	-38.8928	592.731	-0.321201
0.8033	75.6489	-50.6202	-15.7736	-328.055	71.8687	-8.54175	-22.7483	-32.5169	495.648	-0.642401
0.8040	84.1401	-46.6633	-27.9638	-399.18	33.1151	17.6875	-32.8217	-20.2869	282.655	-0.963602
0.8047	68.6158	-18.0104	-35.8986	-469.345	-9.30034	26.5456	-33.7423	-8.11475	2.45573	-0.963602
0.8053	99.7502	30.4949	-40.4739	-520.346	-50.4952	17.6875	-37.398	4.75292	-245.655	-0.321201
0.8060	199.843	45.1625	-45.9771	-607.931	-74.615	3.9689	-43.8156	33.3864	-464.706	0
0.8067	337.161	1.84197	-48.7287	-527.675	-82.854	-2.44461	-40.1465	67.5842	-770.854	0
0.8073	452.178	-41.8196	-46.2651	-316.461	-88.6518	-0.603962	-29.1659	73.6703	-1052.2	-0.321201
0.8080	443.944	-29.2669	-37.7223	-256.028	-92.0084	1.84065	-18.4789	58.1364	-1055.23	-0.321201
0.8087	288.358	29.3351	-23.7084	-291.771	-98.4165	5.80954	-8.71242	41.3272	-823.652	0
0.8093	170.853	78.4544	-5.08724	-126.933	-97.501	10.9864	-2.30819	25.7933	-586.838	0
0.8100	182.775	69.8585	25.7561	199.56	-77.0562	12.5106	1.3609	21.5041	-370.733	-0.321201
0.8107	191.266	81.1833	62.0707	278.916	-56.3062	9.77844	1.96129	25.5035	-172.965	-0.321201
0.8113	95.4617	166.05	85.8751	190.129	-45.3077	7.33383	-1.38758	29.1551	-74.0812	-0.321201
0.8120	-121.793	206.028	94.7058	276.152	-37.3738	13.1146	-4.13606	41.9648	-51.5703	-0.642401
0.8127	-416.927	181.878	84.0194	225.511	-33.4069	18.3202	-8.71242	55.7019	-86.6054	-0.321201
0.8133	-662.914	201.116	52.8881	-76.2918	-34.9327	13.7186	-19.0926	63.0052	-183.689	0
0.8140	-718.407	116.249	22.3966	-164.478	-35.2378	5.80954	-28.2453	74.8875	-305.165	-0.642401
0.8147	-587.522	-202.003	11.3903	-75.0903	-36.1533	1.20792	-34.6495	78.2493	-434.828	-0.321201
0.8153	-365.979	-366.212	11.3903	-61.6342	-35.543	0.316361	-38.3186	79.8143	-506.863	0
0.8160	-140.405	-225.539	-4.47933	-45.4747	-33.1018	-9.46208	-39.2392	97.4929	-463.56	-0.321201
0.8167	-13.4658	-118.705	-36.5065	7.02846	-33.1018	-27.7823	-40.1465	86.1902	-350.269	-0.642401
0.8173	-26.9317	-104.651	-54.1999	22.5872	-32.7966	-38.4523	-35.2633	30.3723	-231.903	-0.321201
0.8180	-95.5474	-66.8568	-56.6635	15.8591	-30.0503	-40.5805	-29.7663	-21.2143	-141.286	-0.321201
0.8187	-114.503	-36.2937	-61.2388	25.9512	-25.7783	-37.2443	-25.4968	-52.9777	-57.6278	-0.321201
0.8193	-19.8986	-42.4336	-65.4942	17.7213	-19.3702	-23.497	-16.651	-74.9455	87.0147	0
0.8200	210.822	-46.6633	-64.8863	10.6929	-12.9621	15.2716	-11.7678	-88.9724	276.188	0
0.8207	461.355	-39.3637	-65.2062	50.6409	-8.3849	64.0775	-10.2468	-95.0585	403.804	-0.321201
0.8213	625.862	-37.5217	-64.8863	81.1577	-7.77461	81.7938	-3.52232	-90.4794	459.303	0
0.8220	725.011	-33.5648	-45.6572	78.4544	-7.46946	76.9045	8.37886	-70.6563	484.925	0
0.8227	811.381	-13.7125	1.3438	75.3907	-2.28197	68.0464	20.8804	-34.9514	430.326	0
0.8233	943.552	10.0967	53.528	63.4964	4.12611	54.0115	29.4328	4.11534	219.133	-0.321201
0.8240	913.362	21.0804	84.0194	53.4043	9.9239	39.6602	36.4507	31.5895	-15.2255	-0.321201
0.8247	383.819	21.3532	91.0583	47.5772	4.73641	24.7049	39.1992	40.7476	-24.3936	-0.321201
0.8253	-391.024	19.8524	83.4115	17.7213	-30.9658	1.84065	31.8744	37.9654	122.377	-0.642401
0.8260	-929.315	24.1503	66.934	9.13099	-69.7327	-21.9727	26.6843	34.9514	225.272	-0.321201
0.8267	-1174.96	25.3101	41.3058	23.1879	-71.8687	-41.8172	33.7022	34.024	314.661	-0.321201
0.8273	-1101.71	7.29967	9.88652	-9.49142	-58.1371	-54.0115	33.0885	24.8659	380.884	-0.321201
0.8280	-764.808	-22.2401	-16.6695	-47.337	-30.3555	-45.7861	19.6663	1.68091	360.419	-0.321201
0.8287	-386.392	-44.2756	-32.5391	25.3505	35.5562	-30.5145	12.0346	-19.9971	307.048	-0.642401
0.8293	-85.7697	-54.3041	-38.3303	181.298	99.3452	-39.0562	6.84452	-32.8068	249.339	-0.321201
0.8300	37.8244	-57.3741	-32.8591	264.558	131.386	-71.7277	-1.38758	-39.8202	90.9439	-0.321201
0.8307	-11.3216	-55.8732	-23.3885	248.099	138.404	-101.609	-6.57767	-41.3852	-177.549	-0.642401
0.8313	-97.4344	-51.8481	-19.4211	220.045	117.349	-115.673	-10.5403	-43.4719	-360.992	-0.642401
0.8320	-122.136	-47.6184	-23.7084	155.047	83.7694	-121.166	-12.9819	-42.8922	-418.047	-0.321201
0.8327	-76.9354	-41.4785	-28.8917	-41.5099	27.9276	-126.947	-14.2094	-32.2271	-389.643	-0.321201
0.8333	-49.146	-35.4068	-32.5391	-187.365	-46.2231	-126.343	-12.3815	-23.0691	-248.684	-0.321201
0.8340	-52.5768	-34.7928	-38.0423	-14.3573	-89.2621	-107.735	-5.05667	-22.4315	-77.4374	-0.321201
0.8347	-54.0349	-38.4768	-45.3692	215.78	-117.946	-80.5571	1.65443	-22.4315	72.6896	-0.321201
0.8353	-70.8458	-39.6365	-48.4087	146.156	-136.56	-59.2171	10.5136	-21.2143	215.531	-0.642401
0.8360	-93.4032	-39.0225	-38.3303	-98.879	-114.589	-38.7686	27.298	-18.49	291.823	-0.963602
0.8367	-123.08	-31.45	-9.66255	-247.197	-71.8687	-4.28526	37.0645	-5.04274	205.463	-0.963602
0.8373	-164.849	-10.0967	29.7235	-166.641	-26.9989	33.2755	30.9538	17.8524	31.4333	-0.642401
0.8380	-227.118	18.6244	65.1102	-14.3573	10.8393	50.0426	17.2247	40.4578	-47.8867	-0.642401
0.8387	-221.029	38.7497	88.5947	7.32882	42.8798	56.1397	1.65443	62.7154	-41.1744	-0.642401
0.8393	-43.0564	44.2756	92.8821	-74.79	78.8871	71.7277	-9.63302	79.8143	-14.8981	-0.321201
0.8400	155.586	39.0908	74.5808	-118.703	91.4114	93.7004	-12.9819	80.7417	85.4594	-0.321201
0.8407	222.144	25.9241	42.2337	-75.6911	70.9533	103.766	-13.5956	71.5837	271.031	0
0.8413	180.631	3.95683	0.415938	-60.1324	38.9128	92.1762	-18.7857	62.4256	453.246	-0.321201
0.8420	282.525	-29.2669	-45.9771	-95.8153	15.4165	84.8423	-24.2827	44.3993	476.084	-0.321201
0.8427	721.066	-61.058	-71.3173	-73.8288	17.5526	92.4638	-22.7483	13.5632	235.668	-0.642401
0.8433	1067.15	-72.0416	-61.8467	36.9445	25.7915	83.922	-22.1479	-12.0562	-75.9639	-0.642401
0.8440	1007.97	-59.83	-31.6433	129.996	27.3173	52.1708	-24.2827	-9.33196	-250.812	-0.321201
0.8447	870.906	-33.5648	5.59916	159.011	40.1334	23.497	-20.6136	15.9976	-357.964	-0.321201
0.8453	579.803	2.45596	38.8742	203.525	52.6444	8.85812	-18.7857	35.531	-294.77	0
0.8460	-217.683	38.4768	64.7903	328.956	53.2547	7.33383	-19.9999	38.8928	61.0658	-0.321201
0.8467	-1046.82	53.4172	73.9729	515.42	52.0342	7.01747	-16.9579	30.0825	388.251	-0.321201
0.8473	-1322.4	40.3187	58.3912	697.319	49.593	-14.6389	-15.4235	15.418	490.491	0
0.8480	-1350.19	14.9405	30.9394	864.56	45.9312	-52.4872	-15.13	2.60831	450.135	0
0.8487	-1438.62	-6.4128	3.77543	892.314	41.354	-75.3803	-10.2468	-0.4637	299.763	-0.321201
0.8493	-1050.16	-19.5113	-10.2705	672.269	24.2658	-71.7277	-5.36354	1.68091	96.7558	-0.321201
0.8500	-213.052	-24.6961	-0.191971	459.913	1.68494	-50.359	-3.52232	-3.53571	-133.019	-0.321201
0.8507	249.59	-20.4664	23.9004	479.137	-15.7084	-25.0213	-2.61506	-17.8524	-215.695	0
0.8513	333.473	-13.4396	37.3384	391.851	-23.0319	-4.28526	2.26816	-32.5169	-14.3251	-0.321201
0.8520	214.51	-18.2833	20.253	-58.9309	-15.0981	5.49318	11.7277	-43.8196	183.77	-0.642401
0.8527	-126.682	-41.8196	-25.8201	-491.632	-5.63858	7.33383	16.9178	-64.2224	159.622	-0.321201
0.8533	-335.445	-76.8853	-78.3243	-646.978	-6.24887	12.1943	14.1693	-97.4929	-14.3251	-0.642401
0.8540	-78.8223	-100.695	-105.776	-551.163	4.43126	8.85812	5.01664	-114.882	-196.458	-0.642401
0.8547	566.68	-108.949	-110.351	-518.183	23.3504	-9.46208	-5.36354	-111.23	-294.442	-0.642401
0.8553	1265.79	-117.204	-117.998	-807.492	26.0967	-17.0835	-4.44293	-102.71	-326.776	-0.321201
0.8560	1931.1	-117.477	-120.43	-944.216	23.3504	-12.1943	1.3609	-85.3208	-303.61	-0.321201
0.8567	2501.13	-95.5097	-92.9781	-664.7	25.4864	-10.066	4.70977	-55.0644	-254.496	-0.321201
0.8573	2743.52	-49.4604	-29.1796	-345.476	23.6555	-9.46208	12.9552	-16.0556	-223.308	-0.321201
0.8580	2430.37	15.2816	59.927	-212.716	28.843	-9.14572	17.2247	25.7933	-159.868	-0.321201
0.8587	1312.19	74.7705	127.661	-209.052	49.2878	-4.88922	14.4762	67.5842	-79.8931	-0.321201
0.8593	-198.385	103.151	141.099	-243.233	70.6481	10.67	13.8625	100.217	-58.2827	-0.642401
0.8600	-990.983	106.493	124.621	-307.63	78.2768	19.2118	10.8205	110.013	-102.813	-0.321201
0.8607	-1037.64	99.8077	104.464	-324.991	72.7841	18.9242	5.63038	96.2757	-158.313	-0.321201
0.8613	-1409.63	79.3413	74.2609	-238.667	58.1371	27.7823	2.8819	67.0046	-134.247	-0.321201
0.8620	-1960.78	36.9077	22.0767	-167.241	39.5231	36.0077	1.65443	20.5767	-63.4397	-0.642401
0.8627	-1772.17	-15.5544	-36.5065	-135.823	51.4239	46.6777	0.440291	-37.3858	-13.0972	-0.321201
0.8633	-1133.79	-66.5157	-83.2195	-92.1509	84.3797	78.4288	-6.2708	-91.4068	20.2188	-0.321201
0.8640	-769.697	-107.448	-111.887	-64.6978	91.7165	103.163	-12.6884	-128.329	29.9599	-0.642401
0.8647	-701.339	-124.504	-110.671	-64.6978	76.751	102.846	-5.65707	-146.007	39.701	-0.963602
0.8653	-645.503	-117.477	-82.8996	-61.3338	54.1702	148	6.84452	-143.283	57.7097	-0.642401
0.8660	-543.608	-97.0106	-48.7287	-55.2665	24.8761	265.801	15.7037	-110.94	50.9973	0
0.8667	-396.771	-69.2446	-17.5974	-57.369	0.464354	348.803	16.0106	-67.0046	18.991	-0.321201
