MR32 ASCII
Name	USMC30_fast
Frequency	1500
Date	28-08-2015 12:41:37
"Time,s"	"RT TIB.ANT.,uV"	"RT MED. GASTRO,uV"	"RT LAT. GASTRO,uV"	"RT BICEPS FEM.,uV"	"RT VMO,uV"	"RT VLO,uV"	"RT RECTUS FEM.,uV"	"RT SOLEUS,uV"	"RT SEMITEND.,uV"	"Channel 12,uV"
0.0000	19.209	-173.172	-336.666	5.08594	-13.9792	14.4096	-23.0005	-109.14	-3.07135	-9290.82
0.0007	67.6616	-167.343	-166.694	6.92108	-6.96242	14.4096	85.0454	10.5038	-1.25646	-10335.7
0.0013	93.6559	-356.24	-46.7497	2.35946	-9.41014	5.86978	154.017	-9.9444	-4.60702	-9527.66
0.0020	154.054	-335.5	-95.5714	-2.20216	-11.8579	1.90715	200.403	-239.473	-6.77092	-9866.19
0.0027	226.972	-60.8645	-73.6092	-1.6254	-7.88711	7.39549	219.91	-405.793	-4.95604	-9843.98
0.0033	242.55	33.1434	84.1571	3.88	4.32431	10.7648	187.881	-262.967	0.558427	-9789.92
0.0040	178.806	67.3034	103.369	11.2205	23.8517	15.9353	173.229	-33.1273	7.25955	-9816.31
0.0047	58.2005	258.979	-21.1334	12.4265	29.0463	17.1643	238.855	-14.5437	9.07443	-9815.34
0.0053	-51.0329	250.71	13.0342	6.34432	26.2994	4.66192	271.506	129.215	4.53722	-9809.87
0.0060	-89.7377	115.561	250.776	0.20973	57.4128	-4.19572	196.111	416.359	-1.88469	-9788.63
0.0067	-67.1838	124.101	352.714	-1.94	99.5408	-3.89906	106.388	449.922	-4.60702	-9907.38
0.0073	-34.4998	171.41	263.283	0.838918	114.499	-5.42477	74.9513	49.8463	-1.25646	-9693.71
0.0080	-37.8446	238.849	279.481	4.77135	111.426	-4.19572	76.4906	-335.002	2.72233	-9720.74
0.0087	-59.2517	257.149	304.193	3.5654	100.438	1.61048	59.7065	-204.979	3.00154	-10544.2
0.0093	-45.7767	46.9023	171.742	0.838918	80.3126	5.57311	37.7421	128.283	1.81489	-6842.62
0.0100	-12.5193	-233.291	79.2598	-0.104865	44.603	6.4843	42.6263	79.1823	0.279213	-520.984
0.0107	-5.8296	-287.92	110.414	-0.367027	8.59423	3.1362	42.6263	-190.932	-0.62823	109.41
0.0113	-12.5193	-166.733	124.427	-0.104865	-9.11098	-4.49239	10.5678	-26.104	-1.60548	-287.04
0.0120	-17.7755	-51.9856	16.4246	-0.367027	-21.3224	-14.5791	-24.5101	329.097	-3.07135	51.8087
0.0127	-19.5913	85.9423	-164.246	-0.104865	-29.8622	-18.8384	-35.1963	487.462	-2.79213	29.2832
0.0133	-7.93208	223.26	-191.406	1.15351	-25.8915	-13.35	-25.1318	480.749	-1.88469	-25.0999
0.0140	-15.9597	218.38	-24.1848	1.15351	-24.3685	1.29262	-9.2653	44.9984	-3.42036	1.60897
0.0147	-47.3058	119.492	2.97601	-0.367027	-31.3853	16.8677	-12.0183	-574.848	-5.51446	-0.643587
0.0153	-55.9068	17.8933	-244.824	-3.14594	-36.8791	21.4448	-35.818	-725.009	-6.77092	-0.643587
0.0160	-44.6299	-19.0456	-446.251	-6.50162	-42.672	15.3419	-49.5531	-297.462	-7.95758	-1.60897
0.0167	-27.2367	-26.3656	-335.46	-8.02216	-48.1658	7.39549	-46.1785	231.767	-7.67837	-1.28717
0.0173	5.73404	-113.663	-17.7807	-7.70756	-46.9419	0.995955	-53.1941	396.533	-7.05014	0
0.0180	36.3156	-145.993	251.077	-5.87243	-39.6259	-1.44096	-58.996	288.823	-6.42191	0
0.0187	48.1659	-66.0156	261.776	-4.03729	-30.1614	-1.44096	-51.3884	89.2509	-4.60702	-0.321793
0.0193	68.0439	-8.33667	52.7394	-4.35189	-23.7429	-2.96667	-35.1963	-73.4642	-3.07135	-0.321793
0.0200	67.6616	89.6023	-109.321	-5.29567	-16.7261	-0.847621	-12.3143	-114.92	-2.79213	-0.321793
0.0207	3.91826	154.33	-98.02	-4.35189	-10.0085	1.61048	-2.54574	-14.2329	-2.1639	0
0.0213	-46.4457	59.1023	-58.3524	-3.46054	-5.43939	1.90715	-10.479	102.365	-1.60548	0
0.0220	-30.8682	53.6123	-33.0375	-4.03729	-2.99166	2.20381	-23.9181	-15.7867	-2.1639	-0.321793
0.0227	-18.3489	132.302	39.8936	-6.18702	-5.43939	0.0847621	-33.9827	-102.427	-4.60702	-0.321793
0.0233	-30.5815	-63.5756	43.8867	-7.70756	-6.36409	-0.847621	-35.5219	42.8231	-7.05014	0
0.0240	-38.2269	-338.55	-16.2362	-8.02216	-1.795	2.81834	-33.361	108.456	-8.58581	-0.321793
0.0247	-32.3973	-252.472	27.9896	-7.70756	1.27826	4.34406	-34.9003	-47.7952	-8.86502	-0.321793
0.0253	-6.49857	-49.5456	182.742	-5.29567	1.57742	2.52167	-37.0316	-211.381	-6.14269	0
0.0260	18.9223	34.9734	185.793	-2.20216	2.50212	1.29262	-35.5219	-176.264	-2.51292	-0.321793
0.0267	13.9528	155.55	-40.647	-0.367027	3.69878	1.90715	-34.2787	32.1328	-0.62823	-0.321793
0.0273	-5.8296	139.69	-176.15	0.20973	3.39962	1.29262	-34.9003	84.6517	0.279213	0
0.0280	-11.9459	-57.2045	-144.732	-0.104865	1.27826	-0.847621	-29.72	-4.16422	0.558427	0
0.0287	-19.878	-261.622	-124.879	0.20973	1.27826	-0.847621	-16.5769	202.431	1.46587	0
0.0293	-34.7865	-487.797	-73.6092	0.20973	2.50212	-0.233096	-8.34766	487.773	1.46587	-0.321793
0.0300	-26.5677	-495.117	54.5476	-1.6254	3.39962	0.381429	-12.6103	440.475	0.558427	0
0.0307	-10.1301	-245.152	182.742	-1.6254	5.24901	2.52167	-14.7416	295.846	0.279213	0
0.0313	-1.24237	-114.273	199.807	-2.51676	6.14651	4.34406	-10.183	294.913	-1.25646	0
0.0320	11.2769	-188.083	108.869	-5.29567	6.77204	4.04739	-14.1496	204.295	-3.69958	0
0.0327	8.50549	-167.682	34.0923	-5.87243	7.07121	4.04739	-17.8202	-85.3353	-4.60702	0.321793
0.0333	-6.78527	45.9534	-8.92803	-5.29567	6.77204	4.34406	-12.0183	-329.781	-4.60702	0
0.0340	-12.2326	130.201	-26.9348	-4.98108	6.77204	3.1362	-9.2653	-409.15	-4.60702	0
0.0347	-17.1065	54.8323	-9.83214	-4.35189	6.14651	0.381429	-15.0672	-377.701	-4.60702	0
0.0353	-20.8337	11.1833	-9.53077	-3.14594	4.92265	-2.37334	-25.4278	-290.439	-4.60702	0
0.0360	-15.5775	3.25334	-59.8969	-1.31081	4.32431	-2.37334	-33.6866	-184.841	-4.04859	0
0.0367	-10.9902	66.4223	-63.8524	0.838918	4.62348	-2.96667	-37.9493	-70.9781	-2.51292	0
0.0373	-7.64538	193.37	27.9896	2.98865	6.14651	-3.28453	-39.7846	8.01767	-0.349017	0
0.0380	7.93208	183.271	53.0408	2.35946	7.07121	-2.37334	-42.5375	72.4698	0.558427	0
0.0387	29.5303	5.69334	-25.6916	-0.104865	6.77204	-0.847621	-41.9159	125.237	-0.0698033	0
0.0393	25.3253	-70.6245	-67.8078	-1.94	7.07121	-0.233096	-29.72	41.8908	-1.60548	0
0.0400	-4.9695	-6.23556	-70.8592	-4.03729	7.37037	0.0847621	-18.7378	-90.5562	-3.69958	0
0.0407	-18.9223	45.9534	-84.0064	-7.39297	9.19257	2.81834	-26.9671	-178.129	-7.67837	0
0.0413	-7.07198	48.7323	-44.9415	-9.5427	11.6403	5.57311	-37.6533	-226.049	-11.6572	0
0.0420	-2.19805	3.86334	56.6949	-10.4865	12.565	5.57311	-37.3276	-27.6579	-12.8438	0
0.0427	-8.60105	-49.8845	130.229	-9.85729	12.565	4.34406	-38.5709	301.004	-10.7497	0
0.0433	-14.0484	-51.7145	136.331	-8.33675	11.6403	2.20381	-40.9982	271.731	-7.39915	0
0.0440	-21.9805	-3.79556	92.407	-5.29567	10.7428	0.0847621	-33.6866	-37.7266	-3.69958	0
0.0447	-26.5677	53.8834	34.0923	-1.6254	9.19257	-1.14429	-19.6259	-163.461	-0.349017	0
0.0453	-23.5095	78.6223	6.93147	-0.104865	7.07121	-3.28453	-11.3966	-93.2909	1.46587	0.321793
0.0460	-20.8337	27.9922	9.68145	0.20973	8.29507	-3.89906	-8.05164	-49.3491	1.18666	-0.96538
0.0467	-18.0622	-29.6867	6.6301	2.98865	11.3411	-2.96667	-5.00267	-67.3111	2.0941	-1.28717
0.0473	-1.24237	-18.7067	-14.1266	9.07081	12.8642	-3.5812	0.799244	-76.1989	4.81643	0
0.0480	25.612	0.813334	-48.2942	13.3178	12.2658	-3.5812	9.35411	-31.6356	6.98033	0.321793
0.0487	42.7186	-14.1656	-77.2633	13.3178	10.4164	-2.37334	13.0247	-42.9474	6.70112	0
0.0493	57.0537	-30.0256	-62.0065	11.2205	10.4164	0.678097	18.205	-130.831	4.81643	0
0.0500	60.9719	-25.4167	-20.8321	9.96216	10.7428	2.20381	26.1382	-131.39	3.90899	-0.321793
0.0507	25.612	-8.67556	1.77054	9.96216	10.4164	2.20381	29.4832	-47.1737	5.72387	0
0.0513	-30.2948	2.64334	2.37327	8.75621	11.6403	4.34406	31.0225	11.1253	6.70112	0
0.0520	-62.5966	12.6745	-17.178	6.60648	11.3411	5.57311	25.2206	52.581	6.07289	0
0.0527	-63.8389	35.5834	-19.8903	6.92108	11.6403	4.66192	8.73248	95.9634	6.07289	0
0.0533	-50.7462	48.7323	3.27738	9.96216	12.565	2.52167	-0.710439	106.343	7.60856	0
0.0540	-29.9126	33.1434	2.67464	13.6324	11.6403	-0.529763	0.799244	79.7416	11.2383	-0.321793
0.0547	-15.2908	15.4533	-17.178	14.5762	10.1173	-1.44096	-2.54574	52.8918	13.9607	0
0.0553	-17.1065	17.2833	-28.4416	14.2616	8.29507	-2.96667	-13.2319	40.7099	14.5889	0
0.0560	-19.5913	19.1133	-21.1334	15.4676	10.4164	-2.37334	-19.9515	31.8221	13.9607	0
0.0567	-17.1065	2.64334	-5.87668	13.3178	13.1633	1.29262	-19.9515	22.0641	11.8666	0
0.0573	-18.3489	-11.3867	-8.92803	9.69999	11.9395	2.52167	-18.1162	25.4204	10.3309	0
0.0580	-18.9223	-13.5556	-18.9862	7.86486	11.042	0.678097	-23.2965	36.1106	10.6101	0
0.0587	-17.1065	-21.1467	-19.8903	6.60648	10.1173	-1.75881	-32.4434	27.9065	8.79522	0
0.0593	-15.5775	-34.2956	-17.4794	6.34432	10.1173	-2.05548	-36.114	4.66144	7.25955	0
0.0600	-15.0041	-37.9556	-18.9862	7.86486	9.8181	-2.37334	-33.9827	-10.2552	9.07443	0.321793
0.0607	-14.0484	-27.5856	-23.8834	11.7973	9.51893	-1.75881	-10.775	-14.5437	11.5176	0
0.0613	-10.4168	-7.45556	-27.5375	12.4265	9.19257	3.43287	32.2362	-12.1197	10.0517	0
0.0620	-4.30053	15.4533	-24.7875	6.60648	8.59423	11.9726	63.0514	6.52601	3.00154	0
0.0627	-0.382269	24.6034	-14.1266	-0.367027	10.4164	23.5639	83.2101	26.3526	-5.23525	0
0.0633	-6.49857	10.8445	-3.12669	-10.4865	10.7428	33.036	117.4	19.0187	-14.3795	0
0.0640	-17.1065	-1.96556	-5.57531	-19.2951	9.19257	34.5617	138.151	-3.85345	-20.5222	0
0.0647	-15.2908	-1.96556	-20.2293	-18.4038	10.1173	30.5991	121.367	-14.8544	-16.8226	0.321793
0.0653	-9.46116	-7.72667	-28.4416	-12.5838	9.8181	22.356	90.8474	-16.3461	-9.84227	0
0.0660	-8.88775	-14.7756	-18.3835	-9.2281	8.29507	16.2531	58.1672	-16.9676	-5.51446	0
0.0667	-7.35868	-11.9967	4.82189	-6.18702	9.51893	14.7274	26.7599	-9.32287	-3.07135	0.321793
0.0673	-8.88775	-8.94667	26.1814	-0.996216	12.565	14.1129	2.33853	8.94996	1.46587	0.321793
0.0680	-14.7174	-8.94667	30.7396	2.98865	11.6403	9.23907	-17.1985	28.4658	4.53722	0.321793
0.0687	-18.3489	-3.18556	11.226	4.77135	7.37037	-0.529763	-32.1474	40.3991	3.90899	0.321793
0.0693	-16.8198	-0.406667	-0.678078	7.23567	7.07121	-6.33597	-49.8491	45.3092	3.28076	0.321793
0.0700	-13.7617	-8.33667	22.5273	11.7973	9.19257	-7.54383	-71.2215	38.8453	6.07289	0.321793
0.0707	-13.7617	-15.0467	31.6813	17.3027	9.19257	-10.2986	-71.8135	25.7311	10.3309	0.321793
0.0713	-13.1883	-14.7756	11.226	22.1789	9.51893	-13.35	-56.5687	18.7079	13.9607	0
0.0720	-12.5193	-12.6067	1.46917	24.3286	10.1173	-13.6679	-72.1391	16.5947	16.4038	0
0.0727	-11.3725	-10.1667	3.57875	24.014	10.1173	-9.68407	-102.658	12.3062	18.5677	0.321793
0.0733	-11.6592	-8.67556	-0.075342	22.1789	7.07121	-6.95049	-95.3172	1.61596	20.3826	0.321793
0.0740	-13.7617	-5.28667	-7.68489	19.1378	3.69878	-5.42477	-66.9292	-4.78574	20.7316	0.321793
0.0747	-10.4168	-1.01667	-11.0376	14.8908	4.02515	-1.75881	-41.9159	-1.11874	19.1959	0
0.0753	-5.8296	1.42333	-12.5821	9.3854	5.54818	2.81834	-15.6593	1.05659	14.5889	0
0.0760	-7.64538	5.69334	-15.3321	8.12702	11.6403	9.8324	5.68351	13.86	11.5176	0.321793
0.0767	-12.5193	3.25334	-17.7807	9.96216	12.8642	11.676	13.9424	27.9065	10.6101	0
0.0773	-14.7174	-7.11667	-18.3835	9.96216	6.77204	6.18763	35.2851	20.5725	8.51601	0.321793
0.0780	-16.5331	-12.6067	-15.6335	10.5913	4.32431	1.61048	69.771	5.28296	5.44466	-0.321793
0.0787	-16.2464	-9.89556	-12.2808	11.7973	7.37037	2.20381	78.9475	-4.16422	4.81643	-1.60897
0.0793	-13.7617	-0.135556	-11.3766	17.6173	11.3411	3.1362	76.1945	-3.23193	10.0517	-0.96538
0.0800	-15.5775	9.62445	-12.2808	23.1227	12.565	1.29262	79.8355	2.23749	13.9607	0
0.0807	-15.2908	10.8445	-11.0376	21.2876	14.088	3.72953	71.9023	7.76906	10.9591	0
0.0813	-16.5331	0.474445	-12.8835	12.7411	10.4164	6.4843	43.544	7.14753	3.00154	0
0.0820	-18.3489	-8.33667	-7.08215	7.23567	7.37037	9.53574	-19.6259	2.54825	-2.79213	0
0.0827	-11.6592	-5.62556	15.7842	5.71513	13.7889	18.69	-93.4819	1.92673	-4.04859	0
0.0833	-9.46116	-6.84556	22.5273	-2.51676	11.9395	22.0381	-123.084	-9.9444	-7.95758	0
0.0840	-11.3725	-11.9967	12.7328	-11.6924	8.8934	25.0896	-84.335	-23.3693	-16.8226	0.321793
0.0847	-9.84343	-9.89556	15.7842	-16.5686	8.59423	27.8444	-70.3038	-28.9009	-25.9668	0
0.0853	-10.9902	-3.18556	19.7773	-21.1303	4.62348	25.4074	-145.374	-38.0373	-34.2036	0
0.0860	-10.9902	-0.406667	17.63	-19.9243	10.7428	28.141	-172.518	-30.0818	-38.1824	0.321793
0.0867	-13.1883	0.203333	6.93147	-16.5686	11.3411	23.5639	-145.67	-4.47498	-35.4601	0
0.0873	-15.2908	15.4533	-4.9349	-12.007	6.77204	11.3581	-110.266	16.9055	-29.0382	-0.321793
0.0880	-12.9016	33.4822	-3.72943	-4.66648	12.2658	8.01002	-49.8491	28.2172	-22.3371	0
0.0887	-15.0041	30.4322	-1.88355	-5.55783	11.042	4.66192	-46.5041	22.3749	-23.2445	0
0.0893	-18.0622	22.7733	2.07191	-12.2692	9.51893	4.66192	-48.6354	13.2385	-29.9456	-0.321793
0.0900	-20.4514	16.9445	9.38008	-19.6097	11.6403	9.53574	9.35411	11.9954	-36.0883	-0.321793
0.0907	-25.4209	7.18445	9.68145	-25.7443	7.9959	8.92121	56.0359	9.26072	-38.5314	0.643587
0.0913	-23.5095	2.91445	6.6301	-22.074	7.9959	8.01002	96.9453	9.26072	-33.017	0.643587
0.0920	-21.1204	2.03333	1.77054	-17.1978	10.4164	10.1503	150.643	9.26072	-25.0594	0
0.0927	-23.8918	-1.62667	-0.37671	-17.7746	12.8642	12.8838	168.966	4.9722	-21.0806	0
0.0933	-25.4209	-5.01556	6.02736	-16.254	14.088	12.2905	142.117	-1.11874	-17.4508	0
0.0940	-24.1785	-1.35556	13.0342	-11.3778	11.6403	10.7648	122.58	-6.89892	-10.1215	0
0.0947	-22.6494	12.4033	14.5787	-8.33675	10.1173	12.8838	143.627	-6.2774	-2.1639	0
0.0953	-23.2228	20.6722	13.0342	-5.87243	10.7428	14.1129	178.113	-1.74027	4.53722	0
0.0960	-25.4209	17.2833	8.77735	-3.77513	14.3872	15.3419	187.26	3.48054	7.60856	0
0.0967	-28.7657	10.8445	0.527394	-7.39297	15.611	15.9353	173.85	5.59372	1.18666	0
0.0973	-29.6258	6.30334	-6.47941	-14.4189	15.0127	13.4984	164.082	4.9722	-8.58581	0
0.0980	-32.3973	5.35445	-11.3766	-19.6097	17.1341	12.8838	166.509	4.66144	-14.7285	0.321793
0.0987	-42.8141	2.64334	-10.7362	-24.4859	19.5818	14.1129	160.707	2.23749	-19.8939	0
0.0993	-48.8349	-3.45667	-0.075342	-22.074	19.2826	9.8324	119.827	-0.186457	-19.5449	0
0.1000	-46.7324	-2.84667	7.27051	-12.8984	15.0127	0.678097	81.9965	1.3052	-12.8438	0
0.1007	-40.9028	4.47334	2.07191	-6.50162	11.3411	-5.72144	71.3103	5.59372	-7.67837	0
0.1013	-29.0524	8.13334	-7.98626	-4.66648	9.8181	-10.0019	68.8534	7.76906	-4.95604	0
0.1020	-17.1065	7.18445	-9.53077	-3.14594	11.3411	-11.8243	47.5106	9.57148	-2.79213	0
0.1027	-19.3046	6.30334	-2.52396	-1.31081	13.4897	-11.8243	-50.1451	9.88224	-0.349017	0
0.1033	-40.3294	4.74445	0.226026	-1.31081	13.1633	-10.9131	-145.374	8.32843	3.28076	0
0.1040	-71.771	2.64334	-3.42806	-1.6254	12.8642	-10.6165	-165.207	9.57148	6.70112	0.321793
0.1047	-93.4648	-1.35556	-12.5821	-0.996216	9.8181	-13.0534	-171.009	9.26072	6.98033	0.321793
0.1053	-96.1407	-3.45667	-18.9862	1.15351	9.8181	-10.9131	-149.044	11.6847	5.44466	0.321793
0.1060	-106.844	-2.57556	-22.0375	2.98865	15.3119	-5.42477	-78.8291	16.9055	4.258	-0.96538
0.1067	-127.869	-1.96556	-34.8457	0.838918	13.7889	-3.5812	-0.414423	17.2162	3.00154	-1.60897
0.1073	-110.476	0.203333	-44.3388	0.838918	14.6864	0.381429	67.3437	24.5502	2.0941	-0.321793
0.1080	-64.1256	1.69445	-45.5443	0.524324	14.3872	-3.89906	101.83	31.5735	0.279213	0.321793
0.1087	-38.5136	6.30334	-40.0443	0.20973	9.19257	-13.35	90.5217	33.3759	-0.0698033	0
0.1093	0.573404	18.8422	-13.7876	5.40054	13.4897	-12.7355	54.2006	44.3769	4.81643	0
0.1100	86.5839	26.4334	17.9314	9.07081	13.4897	-14.8757	11.4854	48.914	9.07443	0.321793
0.1107	145.262	34.7022	44.7908	9.07081	11.3411	-16.1048	1.42088	48.6654	10.0517	0.321793
0.1113	94.2293	54.8323	75.003	9.96216	16.8349	-9.3874	37.1204	60.8473	10.6101	0.321793
0.1120	-3.72712	65.4734	89.0543	8.44162	14.088	-9.68407	74.3593	64.5143	10.3309	0
0.1127	-21.1204	62.4234	83.8557	6.34432	10.1173	-9.68407	84.7198	56.8695	8.51601	0.321793
0.1133	24.9431	57.5434	74.7016	1.41567	9.51893	-3.89906	71.9023	51.4001	1.18666	0
0.1140	28.9569	52.0534	62.4962	-4.98108	7.66954	0.0847621	80.4572	44.0661	-8.3066	0
0.1147	-10.1301	50.5623	54.5476	-3.14594	11.042	3.43287	50.5596	39.7776	-7.39915	0
0.1153	7.26311	49.3423	49.9894	1.15351	15.9102	6.4843	-82.7957	36.4213	-2.1639	0
0.1160	81.4233	42.9034	38.9895	-0.367027	14.6864	5.86978	-192.677	29.3981	-3.42036	0
0.1167	95.185	31.6522	17.0273	-1.94	9.51893	-0.233096	-227.163	20.2617	-3.42036	0
0.1173	66.1325	17.8933	-4.0308	-0.104865	7.07121	-6.63263	-212.214	10.5038	0.558427	0
0.1180	94.8983	13.8945	-5.87668	3.25081	7.37037	-10.2986	-131.342	4.9722	3.90899	0.321793
0.1187	81.71	23.7222	1.46917	5.08594	5.24901	-10.0019	-20.5435	8.32843	5.44466	0.643587
0.1193	-77.6006	32.8722	6.02736	2.98865	4.02515	-4.19572	73.7376	13.86	1.18666	0
0.1200	-253.062	40.1923	24.0341	-1.31081	6.44568	4.66192	125.008	19.9509	-7.67837	0
0.1207	-312.887	53.6123	55.7908	-4.35189	7.37037	8.92121	127.465	32.4436	-15.6359	0.321793
0.1213	-279.248	67.3034	84.4584	-4.98108	4.92265	3.1362	127.139	42.8231	-18.9865	0.321793
0.1220	-238.058	72.5223	106.421	-4.35189	2.17576	-6.63263	134.776	39.7776	-20.1732	0
0.1227	-224.01	70.6923	118.965	-3.77513	2.80129	-9.68407	64.5907	32.7544	-21.0806	0
0.1233	-215.217	66.6934	115.273	-3.77513	3.10045	-9.09074	-67.2549	30.3304	-22.3371	0.321793
0.1240	-149.849	65.2023	106.119	-1.6254	7.07121	-5.42477	-133.77	32.7544	-21.9881	0.321793
0.1247	-11.6592	54.8323	83.8557	0.20973	11.9395	-2.05548	-131.638	28.4658	-20.5222	0
0.1253	109.52	26.1622	39.5922	-4.03729	5.24901	-8.47621	-125.215	4.9722	-20.8014	0.321793
0.1260	130.832	2.64334	-1.58218	-7.39297	4.02515	-9.3874	-76.6978	-10.2552	-20.1732	0.643587
0.1267	60.9719	-11.9967	-33.0375	-8.65135	7.66954	-3.5812	23.0893	-7.83121	-19.2657	0.321793
0.1273	13.3794	-37.3456	-67.8078	-13.213	0.652727	-4.19572	87.4728	-17.8999	-20.8014	0.321793
0.1280	51.224	-63.5756	-92.8591	-14.7335	3.39962	2.20381	111.894	-34.3703	-21.0806	0.321793
0.1287	120.51	-78.2156	-100.167	-14.4189	8.59423	9.8324	124.712	-43.5067	-20.8014	0.321793
0.1293	256.885	-76.3856	-97.4173	-15.3627	3.39962	6.18763	93.8963	-42.3258	-19.2657	0.321793
0.1300	419.54	-60.2545	-78.5064	-12.2692	4.32431	4.04739	32.2362	-26.4148	-13.472	0
0.1307	439.418	-40.3956	-39.1402	-10.7486	4.02515	1.61048	-2.54574	-10.8767	-10.1215	0
0.1313	304.86	-11.3867	10.3219	-11.0632	0.652727	-3.28453	-12.3143	8.63919	-8.58581	0
0.1320	127.487	22.5022	50.2908	-11.0632	2.17576	-3.5812	-4.67705	37.6644	-6.14269	0.321793
0.1327	-29.6258	41.0734	67.9962	-12.2692	3.69878	-1.14429	9.35411	58.4233	-6.14269	0.321793
0.1333	-145.645	48.1223	73.7975	-12.5838	5.24901	0.995955	-19.6259	67.249	-5.23525	0.321793
0.1340	-158.164	49.0034	70.4071	-11.0632	4.02515	0.0847621	-59.6176	63.2712	-1.25646	0
0.1347	-116.019	36.5322	48.1436	-8.33675	1.87659	-1.44096	-52.6021	44.6876	1.81489	0
0.1353	-76.9316	20.6722	18.8355	-6.18702	1.87659	-1.75881	-13.2319	25.4204	4.53722	0.321793
0.1360	35.6466	20.3333	4.52052	-7.70756	-1.16947	-3.5812	27.6775	18.3971	4.81643	-0.96538
0.1367	194.384	23.1122	4.21915	-8.91351	-2.99166	-4.19572	56.3615	18.3971	5.16545	-1.28717
0.1373	280.108	13.8945	1.1678	-5.55783	-1.795	-3.28453	65.2124	15.0409	7.60856	0
0.1380	308.778	2.91445	-2.22259	-4.98108	-3.61719	-4.19572	62.4594	1.05659	6.98033	0.321793
0.1387	356.753	1.42333	10.3219	-7.39297	-5.14022	-4.19572	70.3926	-19.143	4.81643	0
0.1393	248.379	11.7933	44.4895	-7.13081	-3.31803	-3.28453	89.012	-37.105	5.16545	0.321793
0.1400	-227.737	32.5334	83.5543	-5.55783	-1.795	-3.5812	86.5551	-39.8397	6.70112	0
0.1407	-786.136	50.5623	104.01	-4.66648	-0.244773	-1.44096	49.6419	-30.3926	7.25955	0
0.1413	-1053.53	54.2223	103.708	-4.35189	1.57742	1.90715	11.4854	-31.9464	6.98033	0
0.1420	-1062.99	47.7834	92.7084	-4.03729	1.57742	2.52167	-0.118406	-40.1505	5.44466	0
0.1427	-943.918	37.1423	75.6057	-4.98108	-0.571136	3.1362	5.68351	-44.439	2.72233	0
0.1433	-767.214	21.5533	53.0408	-8.33675	-4.54189	2.52167	5.38749	-58.4855	-0.62823	0.321793
0.1440	-570.154	-0.135556	25.5786	-9.85729	-6.06492	1.61048	-2.84175	-81.0468	-1.88469	0.321793
0.1447	-392.208	-27.8567	-9.2294	-8.02216	-6.36409	0.995955	-7.43001	-100.873	0.279213	0
0.1453	-300.368	-61.4745	-51.3456	-9.85729	-12.157	-2.37334	-11.6926	-121.322	1.18666	0
0.1460	-224.679	-89.8056	-83.705	-10.4865	-17.0525	-3.5812	-15.3632	-132.633	0.558427	0.321793
0.1467	-23.8918	-97.1256	-96.5131	-8.91351	-20.3977	-2.96667	-19.6259	-122.875	0.279213	0
0.1473	237.676	-91.6356	-99.8659	-9.85729	-27.4145	-6.63263	-24.5101	-104.54	1.81489	0
0.1480	357.326	-84.9256	-94.0645	-8.33675	-25.8915	-5.10692	-15.3632	-89.9346	6.07289	-0.321793
0.1487	281.35	-74.2845	-82.1605	-6.18702	-23.1446	-3.28453	-10.183	-69.7972	8.79522	-0.321793
0.1493	137.617	-58.4245	-75.7564	-8.65135	-29.8622	-8.77288	-23.5925	-36.4835	7.88778	0
0.1500	54.5689	-38.8367	-58.051	-7.39297	-25.8915	-5.42477	-26.3454	0.435067	9.07443	0.321793
0.1507	49.4083	-30.0256	-30.8902	-4.35189	-20.6969	-1.44096	-26.3454	6.83677	13.6815	0
0.1513	74.7336	-33.0756	-20.2293	-6.18702	-27.1154	-6.95049	-41.6199	-14.2329	15.8454	0
0.1520	87.5396	-27.5856	-16.2362	-5.29567	-24.3685	-6.01811	-44.9649	-21.2561	17.6602	0
0.1527	82.0923	-15.9956	-2.52396	-2.20216	-19.7994	-1.44096	-42.2119	-15.1652	20.3826	0
0.1533	120.224	-5.28667	23.13	-1.94	-24.3685	-3.89906	-58.0784	-11.809	19.8241	0
0.1540	175.748	14.8433	57.599	0.20973	-22.5463	-1.44096	-74.2704	3.48054	19.8241	0
0.1547	152.239	35.9222	83.5543	4.77135	-15.8286	4.66192	-77.6154	25.7311	21.9182	0
0.1553	119.268	39.5823	93.6125	3.25081	-18.2492	2.20381	-82.2037	25.4204	19.1959	0
0.1560	82.6657	30.4322	93.3111	0.838918	-17.0525	0.995955	-104.168	8.94996	13.0532	0.321793
0.1567	-49.5038	13.8945	71.6503	-0.367027	-16.427	1.61048	-181.073	-8.14197	5.16545	0
0.1573	-154.723	-6.23556	34.7327	-4.03729	-22.2199	-1.75881	-274.466	-25.2339	-1.60548	0
0.1580	-122.422	-19.6556	7.87324	-5.29567	-23.1446	-2.37334	-303.772	-36.4835	-1.88469	0.321793
0.1587	-7.93208	-29.0767	-12.8835	-4.03729	-22.5463	-2.05548	-282.103	-36.2349	1.18666	0.321793
0.1593	79.0341	-36.7356	-33.6402	-1.94	-20.6969	-1.44096	-244.243	-25.8554	3.90899	0
0.1600	90.8845	-43.1745	-56.5442	-0.104865	-17.95	-0.233096	-198.775	-19.7023	7.25955	0
0.1607	122.899	-55.3745	-86.7564	-1.31081	-18.2492	-2.67001	-140.193	-21.8777	8.16699	0.321793
0.1613	195.913	-68.7945	-109.623	-2.20216	-16.7261	-6.33597	-55.651	-22.1884	6.3521	0
0.1620	254.782	-73.9456	-112.071	-2.51676	-15.8286	-10.6165	33.7754	-21.8777	2.37331	0
0.1627	303.617	-68.7945	-99.2631	-3.14594	-19.1738	-14.2612	85.0454	-22.7478	-2.51292	0
0.1633	339.359	-56.5945	-79.7119	-2.20216	-17.95	-13.0534	110.355	-13.3006	-4.95604	0.321793
0.1640	362.773	-40.0567	-59.8969	-1.94	-16.7261	-13.35	124.712	7.14753	-6.77092	0.321793
0.1647	292.054	-22.3667	-38.5375	-1.94	-17.3517	-16.4015	81.0788	26.6634	-8.86502	0.321793
0.1653	80.1809	-8.06556	-15.6335	-0.367027	-15.8286	-16.4015	12.6991	39.4668	-10.1215	0.321793
0.1660	-39.756	4.74445	6.93147	-0.996216	-15.5023	-13.6679	-2.24972	46.1793	-11.3081	0.321793
0.1667	50.6506	17.5545	24.6368	-1.31081	-12.7554	-9.3874	22.1716	49.8463	-10.4007	0.321793
0.1673	178.52	20.6722	25.88	-0.104865	-8.18628	-6.95049	59.7065	51.0893	-6.42191	-0.96538
0.1680	225.443	16.6733	12.7328	0.20973	-8.18628	-5.72144	62.7554	58.1126	-2.1639	-1.28717
0.1687	268.162	16.0633	4.21915	-0.104865	-9.11098	-3.89906	11.4854	70.6052	0.279213	0
0.1693	389.628	16.6733	9.07872	-1.6254	-10.0085	-3.5812	-20.8691	63.2712	-0.349017	-0.96538
0.1700	474.205	21.2822	20.9828	-0.996216	-9.41014	-3.5812	-8.96929	43.7553	1.46587	-0.643587
0.1707	429.384	34.9734	34.4313	3.5654	-3.31803	0.995955	25.2206	47.1116	6.3521	0.321793
0.1713	277.336	47.7834	42.945	6.60648	0.652727	5.25525	50.2339	58.9827	9.70266	0.321793
0.1720	86.5839	50.2234	46.3354	6.92108	-1.46864	4.04739	45.3497	56.248	10.6101	0.321793
0.1727	-3.72712	50.8334	54.5476	8.75621	-2.39333	1.29262	54.5262	50.157	11.5176	0
0.1733	-31.8239	46.5634	55.4894	11.5351	-2.39333	-1.14429	80.1612	41.6422	12.4948	0
0.1740	-128.825	32.8722	43.284	14.5762	-2.6925	-1.75881	80.1612	29.3981	14.9379	0
0.1747	-244.748	20.3333	34.7327	17.9319	0.652727	0.381429	62.7554	21.194	17.381	0
0.1753	-299.986	13.0133	31.0409	17.9319	-1.795	-3.28453	56.3615	11.6847	16.7528	0
0.1760	-236.816	3.52445	21.8869	19.1378	-2.6925	-7.24716	86.8807	2.85901	16.4038	0
0.1767	-106.271	-8.67556	7.87324	22.8081	2.50212	-4.81025	131.727	-7.52045	17.9395	0
0.1773	-95.5673	-21.1467	-3.72943	21.8643	-1.46864	-7.54383	157.362	-27.9686	16.4038	0.321793
0.1780	-172.499	-29.4156	-3.42806	20.0292	0.951893	-6.01811	179.327	-51.773	14.3097	0.321793
0.1787	-206.33	-30.9067	4.21915	20.0292	11.6403	2.52167	190.013	-64.8872	13.4022	0
0.1793	-226.208	-31.2456	4.21915	17.3027	7.9959	0.0847621	165.591	-66.1302	11.2383	0
0.1800	-282.975	-32.4656	-2.52396	16.6735	6.14651	-2.05548	123.172	-61.5309	12.1458	0
0.1807	-382.747	-35.1767	-11.678	19.1378	13.1633	2.81834	96.3236	-57.864	13.4022	0
0.1813	-466.942	-40.3956	-27.8389	16.0967	6.44568	-1.44096	79.2435	-63.3955	10.3309	0.321793
0.1820	-474.587	-40.0567	-43.397	12.7411	1.27826	-2.05548	64.8867	-66.441	7.88778	0.321793
0.1827	-406.83	-39.7856	-55.6024	12.7411	6.14651	2.20381	53.6085	-59.9771	6.98033	0
0.1833	-304.573	-49.5456	-72.1023	10.5913	3.69878	-0.529763	30.4009	-60.9094	5.44466	0
0.1840	-227.068	-60.8645	-85.8146	9.07081	0.652727	-1.44096	10.5678	-63.6441	4.53722	0
0.1847	-173.072	-62.9656	-84.3077	9.07081	4.32431	2.52167	17.2873	-51.773	3.90899	0
0.1853	-105.028	-55.0356	-66.6024	5.71513	5.24901	1.61048	24.0069	-37.105	1.81489	0.321793
0.1860	-26.8544	-37.9556	-38.1984	2.35946	7.37037	1.61048	6.60116	-27.9686	0.83764	0.321793
0.1867	27.7145	-16.2667	-4.9349	0.838918	11.9395	1.61048	-14.4456	-13.6114	1.46587	0.321793
0.1873	35.6466	5.96445	26.7841	-2.20216	11.3411	-0.847621	-24.2141	1.3052	1.81489	0.321793
0.1880	-41.2851	23.9934	47.8422	-4.35189	11.042	-1.44096	-23.9181	14.1708	3.00154	0
0.1887	-188.65	30.0934	48.7463	-4.03729	11.3411	-1.44096	-23.9181	23.6179	4.258	0
0.1893	-264.626	31.0422	38.9895	-2.83135	12.8642	-1.14429	-20.8691	33.6866	4.53722	0.321793
0.1900	-190.466	27.3822	24.0341	-2.51676	14.3872	-0.847621	-15.6593	44.3769	5.16545	0.321793
0.1907	-20.8337	15.4533	2.67464	-2.83135	11.6403	-2.05548	-14.7416	48.914	4.258	0
0.1913	154.341	11.4545	-9.2294	-1.6254	9.51893	-2.37334	-11.3966	61.7796	2.72233	0
0.1920	258.127	13.0133	-10.1335	1.73027	7.9959	-3.5812	-8.96929	74.8937	3.00154	0.321793
0.1927	285.268	3.52445	-15.9348	5.71513	7.07121	-4.49239	-12.0183	64.825	4.81643	0.321793
0.1933	283.452	-7.11667	-23.8834	9.3854	9.51893	-1.44096	-13.8536	49.2248	5.72387	0
0.1940	338.69	-6.84556	-22.3389	11.2205	8.8934	-0.847621	-14.4456	44.3769	5.44466	0
0.1947	441.807	2.64334	-11.3766	12.4265	5.24901	-2.96667	-13.5279	48.0439	5.44466	0.321793
0.1953	425.943	13.2845	-2.82533	14.2616	4.92265	-3.28453	-10.479	55.0671	4.53722	0
0.1960	275.234	22.1633	-0.37671	12.1119	1.87659	-5.72144	-12.9359	58.9827	2.0941	-1.60897
0.1967	183.107	32.2622	6.02736	11.5351	1.57742	-4.49239	-14.7416	58.7341	1.18666	-1.28717
0.1973	214.835	35.5834	9.68145	16.0967	6.44568	-0.529763	-10.775	47.7331	2.72233	0.321793
0.1980	280.394	29.2122	2.67464	16.6735	5.24901	-1.75881	-11.1006	29.3981	2.0941	0.321793
0.1987	293.2	22.1633	-8.3253	13.6324	2.17576	-2.96667	-13.5279	16.9055	-0.0698033	0
0.1993	179.38	15.1145	-16.5376	12.4265	1.57742	-2.67001	-13.8536	3.48054	-1.25646	0.321793
0.2000	12.4237	11.1833	-18.6848	13.0557	0.0543939	-3.28453	-15.9849	-7.83121	-1.88469	0
0.2007	0.860105	12.4033	-11.0376	13.6324	3.39962	-0.529763	-12.3143	-12.4305	-1.88469	0
0.2013	109.233	10.2345	-3.42806	13.3178	5.24901	0.678097	-11.1006	-21.8777	-1.88469	0.321793
0.2020	141.248	7.52334	3.88011	11.2205	0.951893	-1.14429	-19.3299	-31.6356	-3.07135	0
0.2027	134.272	11.4545	20.38	9.69999	0.0543939	-1.14429	-19.9515	-28.2794	-4.04859	-0.321793
0.2033	159.884	17.8933	38.9895	9.96216	-0.870302	-1.75881	-15.6593	-24.9231	-3.69958	0.321793
0.2040	138.859	22.1633	46.6367	10.5913	-0.870302	-0.233096	-18.1162	-24.3016	-3.69958	0.321793
0.2047	48.4526	19.7233	40.534	12.4265	4.02515	4.04739	-19.0338	-11.1874	-3.07135	0.321793
0.2053	-9.17446	7.52334	21.2841	11.7973	0.0543939	0.678097	-28.4768	-0.186457	-3.69958	0.321793
0.2060	15.8642	-4.40556	-0.075342	8.75621	-7.28878	-5.72144	-41.6199	-4.78574	-5.86348	0
0.2067	77.1228	-9.55667	-14.428	8.12702	-6.36409	-6.01811	-41.9159	-13.3006	-7.67837	0
0.2073	149.754	-13.8267	-22.3389	8.75621	-5.73856	-6.01811	-41.6199	-23.0586	-9.21404	0
0.2080	235.86	-15.0467	-20.8321	9.96216	-2.6925	-5.10692	-45.8825	-26.4148	-9.49325	0.321793
0.2087	326.84	-16.6056	-18.9862	10.5913	-0.244773	-4.19572	-48.0138	-24.6124	-10.4007	0
0.2093	387.239	-22.0956	-23.8834	8.75621	-5.43939	-7.24716	-47.4218	-24.3016	-12.2854	0
0.2100	396.031	-23.5867	-26.332	8.44162	-8.48545	-8.77288	-40.0806	-22.4992	-12.2854	0.321793
0.2107	362.773	-19.6556	-22.3389	9.3854	-8.81181	-8.47621	-31.2297	-20.3239	-11.6572	0.321793
0.2113	251.437	-12.3356	-12.2808	11.2205	-7.58795	-6.95049	-22.3788	-13.6114	-10.7497	0
0.2120	76.2627	-1.01667	1.1678	13.947	-2.6925	-2.96667	-8.96929	-1.42951	-9.49325	0.321793
0.2127	-61.0675	9.01445	9.38008	13.6324	-2.6925	-3.5812	0.799244	8.32843	-10.4007	0.321793
0.2133	-112.005	14.5045	11.5273	12.4265	-3.61719	-3.89906	5.09148	15.0409	-11.6572	0.321793
0.2140	-154.723	13.2845	9.68145	14.2616	-2.6925	-3.28453	6.60116	15.6624	-10.7497	0
0.2147	-265.199	7.18445	2.67464	14.5762	-5.14022	-5.10692	4.17383	8.63919	-10.1215	0
0.2153	-352.834	5.96445	-0.075342	15.7822	-0.870302	-0.529763	5.38749	8.01767	-9.21404	0.321793
0.2160	-349.776	6.91334	-0.37671	17.3027	5.54818	7.71335	5.68351	10.8145	-9.21404	0.321793
0.2167	-267.11	2.03333	-5.87668	14.2616	2.80129	7.71335	5.38749	4.41283	-11.3081	0.321793
0.2173	-156.252	2.64334	-0.678078	13.0557	2.50212	5.86978	11.7814	0.74583	-13.1928	0
0.2180	-80.5632	10.2345	12.4314	13.3178	2.80129	4.34406	12.6991	4.41283	-13.1928	0.321793
0.2187	-6.49857	9.35334	9.07872	11.7973	-0.870302	1.90715	4.46984	4.41283	-13.472	0.321793
0.2193	30.7727	0.203333	-7.38352	12.7411	2.50212	4.95858	0.207211	3.16978	-13.7513	0
0.2200	-39.087	-8.94667	-24.4862	13.0557	4.32431	7.71335	-1.33207	2.23749	-15.0077	0
0.2207	-159.024	-14.1656	-37.5957	9.69999	-1.46864	4.34406	-5.29869	5.28296	-17.4508	0
0.2213	-173.359	-14.1656	-40.9484	8.12702	-3.91636	1.90715	-4.67705	15.9732	-18.3583	0
0.2220	-2.48475	-11.9967	-38.5375	7.55027	-6.66325	0.0847621	-5.59471	23.6179	-18.6375	0
0.2227	192.855	-10.5056	-32.0957	7.86486	-6.66325	0.678097	-6.51235	27.2849	-18.6375	0
0.2233	308.204	-8.94667	-23.5821	11.2205	0.652727	6.18763	-0.710439	35.4891	-16.5434	0.321793
0.2240	332.574	-8.67556	-23.5821	10.5913	-1.795	5.25525	-0.710439	41.8908	-16.5434	0
0.2247	264.817	-1.35556	-19.5889	8.75621	-5.73856	4.04739	0.799244	49.5355	-17.4508	0
0.2253	211.49	11.7933	-3.42806	9.69999	-3.61719	5.86978	6.00913	53.5133	-17.1018	0.321793
0.2260	167.816	18.2322	9.07872	5.71513	-7.28878	2.52167	-0.118406	44.0661	-18.6375	-0.643587
0.2267	134.845	26.1622	20.6814	3.25081	-3.91636	3.43287	-0.414423	40.7099	-19.5449	-1.93076
0.2273	167.147	36.1934	32.2841	6.60648	3.39962	8.30669	5.09148	45.5578	-18.0791	-0.321793
0.2280	175.461	36.1934	31.9827	7.23567	-1.46864	4.95858	-1.62809	41.3314	-18.3583	0.321793
0.2287	15.1952	31.3134	26.1814	5.40054	-6.96242	1.29262	-9.56132	33.3759	-19.2657	0
0.2293	-300.655	29.4834	24.9382	4.50919	-7.58795	1.90715	-14.4456	27.5957	-19.5449	0
0.2300	-501.728	24.9422	23.13	3.88	-7.88711	1.90715	-18.1162	19.0187	-19.8939	0
0.2307	-497.141	17.5545	17.9314	5.71513	-2.09416	5.25525	-12.3143	13.2385	-18.3583	0.321793
0.2313	-478.601	11.7933	6.32873	7.23567	0.0543939	6.78097	-7.43001	10.8145	-17.73	0.321793
0.2320	-450.504	4.13445	-15.0307	4.19459	-7.28878	2.52167	-13.5279	3.16978	-20.1732	0
0.2327	-363.825	-9.55667	-37.2943	2.98865	-10.3348	1.29262	-15.9849	-6.89892	-21.0806	0
0.2333	-314.416	-26.0267	-55.6024	3.5654	-10.9332	2.52167	-14.4456	-15.7867	-20.5222	0
0.2340	-263.097	-34.2956	-62.3079	5.40054	-7.28878	4.95858	-11.3966	-13.9222	-19.2657	0
0.2347	-178.233	-24.5356	-47.0511	8.12702	0.35356	8.92121	-6.21634	1.92673	-17.4508	0
0.2353	-131.596	-3.18556	-16.8389	6.60648	-2.6925	4.66192	-10.775	16.5947	-17.1018	0.321793
0.2360	-58.0093	20.6722	19.7773	4.77135	-6.96242	0.0847621	-17.4946	24.5502	-16.5434	0.643587
0.2367	-51.893	43.8523	56.3935	6.02973	-3.91636	2.20381	-15.9849	31.8221	-14.1003	0.321793
0.2373	-217.607	61.5423	85.3625	6.34432	-2.99166	2.20381	-13.5279	37.3536	-14.3795	0
0.2380	-302.184	66.6934	98.5097	8.75621	1.57742	4.34406	-7.43001	38.8453	-14.3795	0
0.2387	-198.111	52.3923	86.3043	10.5913	4.62348	6.4843	-2.24972	30.0196	-12.5646	0
0.2393	-80.2765	27.9922	61.2531	9.07081	-1.16947	3.1362	-5.00267	10.8145	-13.472	0
0.2400	8.79219	10.5733	43.284	7.86486	-5.14022	0.995955	-6.21634	-2.29964	-16.8226	0
0.2407	96.0451	1.08445	25.5786	6.92108	-6.96242	0.0847621	-6.21634	-2.6104	-18.6375	0
0.2413	141.535	-4.67667	6.6301	6.34432	-8.18628	-0.847621	-6.80837	2.23749	-19.2657	0
0.2420	177.564	-11.7256	-8.92803	8.12702	-3.61719	2.81834	-4.38104	2.23749	-17.73	0
0.2427	256.598	-30.2967	-28.4416	7.86486	-3.31803	3.43287	-4.67705	-12.6791	-17.4508	0.321793
0.2433	308.491	-55.9845	-53.7942	5.08594	-8.18628	-0.529763	-8.05164	-34.9918	-19.2657	0.321793
0.2440	240.447	-70.6245	-71.801	4.19459	-10.3348	-2.37334	-8.64367	-45.9928	-20.5222	0
0.2447	99.1032	-69.4045	-76.3592	4.77135	-11.2323	-2.37334	-7.43001	-40.1505	-19.8939	0
0.2453	6.02074	-61.4745	-72.7051	5.71513	-7.88711	0.678097	-2.54574	-26.7256	-17.73	0
0.2460	-12.2326	-56.5945	-69.6537	5.40054	-5.73856	2.81834	0.503227	-20.0131	-16.1944	0
0.2467	-6.1163	-56.5945	-70.8592	2.35946	-11.5587	-1.14429	-5.29869	-21.5669	-17.1018	0
0.2473	14.9085	-49.5456	-65.6983	0.838918	-13.3809	-2.67001	-9.88694	-13.6114	-17.4508	0
0.2480	79.3208	-36.3967	-52.8524	1.41567	-12.157	-1.14429	-9.88694	2.54825	-16.1944	0.321793
0.2487	209.961	-19.9267	-29.6848	2.04486	-10.0085	-0.233096	-8.96929	16.5947	-14.1003	0
0.2493	389.054	7.18445	9.98282	4.50919	-2.99166	2.81834	-5.29869	30.3304	-11.6572	-0.321793
0.2500	546.549	31.9234	43.8867	6.34432	1.27826	3.72953	-4.08502	39.1561	-9.49325	0
0.2507	565.185	40.1923	53.3422	5.40054	0.35356	1.29262	-6.21634	39.1561	-8.3066	0.643587
0.2513	412.564	37.7523	47.8422	3.88	-1.795	-1.14429	-7.72602	35.1783	-8.3066	0.321793
0.2520	250.482	32.2622	35.3354	2.04486	-5.43939	-2.96667	-10.183	31.8221	-9.49325	-0.321793
0.2527	128.729	28.2634	22.5273	2.04486	-5.14022	-2.05548	-8.96929	33.9974	-9.49325	-0.321793
0.2533	-23.5095	25.5522	13.3732	3.88	-0.571136	1.29262	-2.84175	39.1561	-7.95758	0
0.2540	-120.606	15.4533	-1.28081	3.88	-2.99166	0.0847621	-2.84175	37.3536	-8.3066	0
0.2547	-87.9219	0.203333	-20.5307	2.04486	-7.88711	-3.28453	-6.80837	29.3981	-9.49325	0
0.2553	23.414	-8.94667	-29.3834	1.15351	-9.70931	-4.81025	-7.72602	16.9055	-9.49325	0
0.2560	104.933	-8.67556	-25.993	0.524324	-8.18628	-4.19572	-7.13399	7.76906	-9.49325	-1.28717
0.2567	94.516	-6.50667	-23.5821	2.35946	-2.09416	0.381429	-1.9241	10.8145	-8.58581	-1.28717
0.2573	-27.8101	-9.55667	-30.8902	2.04486	-2.6925	0.995955	-0.118406	8.63919	-8.58581	0.321793
0.2580	-276.189	-15.3856	-42.7943	-1.6254	-8.48545	-3.28453	-5.29869	-2.92117	-11.0289	0.321793
0.2587	-430.339	-22.7056	-52.5511	-2.83135	-11.2323	-4.81025	-8.34766	-10.5659	-11.0289	0
0.2593	-367.743	-30.2967	-56.5442	-3.14594	-12.4562	-4.49239	-8.96929	-14.2329	-9.49325	0
0.2600	-297.31	-22.7056	-40.647	-2.20216	-8.18628	-1.14429	-5.59471	-9.9444	-7.05014	0
0.2607	-294.825	0.474445	-6.47941	0.20973	-1.795	4.04739	0.207211	4.41283	-4.32781	0
0.2613	-256.98	20.6722	26.4827	-0.104865	-1.795	4.34406	0.799244	17.2162	-3.07135	0
0.2620	-169.154	35.5834	55.4894	-2.20216	-3.31803	1.29262	-3.46339	27.5957	-2.79213	0
0.2627	-127.296	45.9534	79.5989	-3.46054	-3.61719	-0.847621	-8.05164	35.7998	-2.51292	0
0.2633	-114.49	42.9034	80.8043	-3.14594	-1.16947	0.0847621	-9.56132	33.6866	-3.07135	0
0.2640	4.87393	30.7034	61.5921	-0.681621	4.02515	3.1362	-5.29869	26.3526	-2.1639	-0.321793
0.2647	179.093	17.8933	38.0854	1.15351	4.92265	3.72953	-2.24972	20.2617	-0.62823	0
0.2653	233.758	2.30445	13.0342	-0.996216	-1.795	-1.14429	-7.43001	6.21525	-1.25646	0.321793
0.2660	175.748	-10.7767	-5.87668	-3.14594	-5.73856	-4.19572	-15.0672	-9.32287	-2.79213	0
0.2667	124.142	-18.4356	-18.0821	-3.14594	-4.21553	-2.37334	-18.1162	-16.0353	-3.07135	-0.321793
0.2673	108.278	-27.2467	-31.1916	-1.6254	-0.571136	0.995955	-15.6593	-21.5669	-1.88469	0
0.2680	91.1712	-35.5156	-40.9484	-0.104865	1.87659	3.1362	-11.1006	-29.4603	-0.977247	0.321793
0.2687	60.1118	-38.2267	-43.397	-2.51676	-2.39333	0.0847621	-12.9359	-38.9696	-1.88469	0
0.2693	44.5343	-37.9556	-41.5888	-5.55783	-6.66325	-2.96667	-16.9025	-45.9928	-2.79213	0.321793
0.2700	51.224	-35.5156	-37.5957	-6.50162	-5.43939	-2.37334	-17.1985	-46.863	-3.07135	0.321793
0.2707	53.0398	-29.4156	-31.7943	-5.29567	-2.99166	-0.233096	-14.7416	-43.196	-2.51292	0
0.2713	35.6466	-23.3156	-23.8834	-2.83135	1.27826	3.43287	-8.05164	-36.2349	-0.0698033	0.321793
0.2720	4.20496	-23.3156	-22.6403	-2.83135	0.35356	1.90715	-5.59471	-32.2571	0.279213	-0.643587
0.2727	-21.6938	-25.7556	-27.2361	-3.77513	-5.73856	-3.89906	-10.183	-33.1273	-0.349017	-0.96538
0.2733	-35.1688	-24.5356	-29.9861	-1.6254	-7.28878	-5.10692	-11.1006	-32.5679	1.46587	0.321793
0.2740	-46.159	-21.1467	-28.1403	-0.104865	-5.73856	-5.10692	-8.34766	-28.2794	3.00154	0
0.2747	-46.4457	-15.3856	-21.4348	1.41567	-2.99166	-4.49239	-1.9241	-18.8322	5.72387	-0.321793
0.2753	-33.6397	-7.72667	-12.5821	4.19459	-0.571136	-2.37334	5.38749	-6.89892	8.51601	0.321793
0.2760	-24.1785	-2.23667	-5.27394	4.19459	-3.31803	-4.19572	4.76586	0.435067	8.79522	0.321793
0.2767	-19.3046	4.13445	6.6301	3.88	-6.66325	-6.63263	2.63454	6.21525	10.3309	0.321793
0.2773	-15.0041	10.8445	18.5341	5.40054	-5.73856	-6.33597	7.22279	10.8145	12.774	0
0.2780	-10.1301	11.4545	20.9828	5.08594	-4.84106	-4.49239	13.0247	11.3739	12.4948	0
0.2787	1.52908	10.5733	20.9828	4.19459	-1.795	-0.847621	14.2384	12.617	12.1458	0.321793
0.2793	13.6661	10.2345	20.38	3.25081	-1.16947	0.381429	9.05809	13.2385	11.8666	0
0.2800	10.0346	9.01445	15.1814	0.20973	-5.73856	-2.05548	0.503227	10.193	8.79522	0
0.2807	-9.46116	9.35334	9.98282	-2.20216	-5.43939	-0.847621	-2.84175	10.8145	6.98033	0.321793
0.2813	-14.4307	8.40445	4.82189	-0.996216	-0.571136	3.1362	-1.9241	11.1253	7.88778	0.321793
0.2820	20.0691	4.47334	-0.678078	0.20973	1.27826	3.72953	-8.96929	4.41283	8.51601	0.321793
0.2827	69.573	0.813334	-4.63354	-0.996216	0.35356	3.1362	-18.1162	-2.6104	7.60856	0.321793
0.2833	98.2431	-4.40556	-9.53077	-4.03729	-1.46864	1.90715	-20.8691	-7.83121	5.44466	0.321793
0.2840	101.875	-11.9967	-15.0307	-6.18702	-2.09416	2.20381	-16.2809	-11.809	3.28076	0
0.2847	90.8845	-15.9956	-15.6335	-6.50162	0.652727	3.72953	-5.00267	-11.4982	3.00154	0.321793
0.2853	73.2045	-15.9956	-13.7876	-7.39297	1.27826	3.43287	6.60116	-13.3006	2.37331	0.321793
0.2860	53.3265	-15.9956	-12.2808	-8.91351	-0.244773	2.20381	14.86	-18.8322	1.18666	-1.28717
0.2867	36.3156	-13.5556	-9.2294	-7.70756	0.951893	2.20381	23.0893	-19.143	2.72233	-1.60897
0.2873	22.5539	-9.55667	-6.78078	-5.55783	1.57742	3.1362	31.6441	-14.5437	5.72387	0.321793
0.2880	12.806	-8.06556	-5.87668	-4.66648	0.652727	3.1362	37.4164	-10.5659	6.98033	0.321793
0.2887	10.0346	-8.06556	-6.78078	-4.66648	0.35356	1.29262	38.0381	-9.63363	7.25955	0
0.2893	11.2769	-8.67556	-8.3253	-5.29567	-0.571136	0.0847621	33.4498	-9.9444	6.98033	0.321793
0.2900	13.9528	-8.06556	-7.68489	-4.35189	2.17576	2.52167	32.8578	-6.89892	6.70112	0
0.2907	14.9085	-7.45556	-7.38352	-3.77513	3.39962	3.72953	32.5322	-4.78574	7.25955	0.321793
0.2913	16.7243	-7.45556	-8.62666	-4.98108	1.27826	2.20381	24.3029	-4.16422	7.25955	0
0.2920	20.3558	-6.23556	-9.2294	-5.29567	0.652727	1.61048	14.86	-2.05103	7.88778	-0.321793
0.2927	18.2533	-6.84556	-10.7362	-6.81621	-2.99166	-0.847621	5.68351	-2.6104	8.16699	0
0.2933	19.4957	-6.23556	-8.92803	-6.81621	-3.61719	-0.847621	3.84821	-2.92117	9.42345	0.321793
0.2940	27.7145	-3.45667	-4.33217	-3.77513	1.87659	3.1362	9.97574	-0.186457	11.5176	0.321793
0.2947	28.0012	-4.40556	-4.33217	-3.46054	2.50212	3.1362	7.81483	-1.42951	11.8666	0.321793
0.2953	21.0248	-5.62556	-4.63354	-5.29567	0.652727	0.995955	2.04251	-4.16422	11.5176	0
0.2960	10.3213	-5.28667	-2.52396	-7.39297	-1.46864	-1.44096	-2.24972	-5.40727	11.5176	0.321793
0.2967	-1.52908	-4.40556	-0.37671	-8.91351	-3.91636	-2.96667	-7.72602	-5.0965	10.6101	0.321793
0.2973	-8.60105	-1.01667	3.27738	-8.02216	0.951893	1.29262	-6.21634	1.05659	10.0517	0
0.2980	-19.5913	2.03333	3.88011	-8.02216	5.24901	4.34406	-0.710439	8.94996	9.42345	0
0.2987	-39.087	0.813334	-0.979446	-10.1719	1.87659	1.61048	-1.33207	9.88224	7.88778	0.321793
0.2993	-33.6397	-1.62667	-5.57531	-11.3778	-1.16947	-1.14429	-5.59471	6.83677	6.98033	0
0.3000	16.1509	-4.40556	-9.83214	-12.5838	-3.31803	-2.67001	-9.2653	3.16978	5.72387	0
0.3007	64.0301	-5.28667	-13.1849	-11.6924	-1.46864	-0.847621	-5.92032	3.7913	6.3521	0
0.3013	93.9426	-4.40556	-14.1266	-8.91351	4.32431	3.72953	2.04251	8.01767	8.16699	0
0.3020	125.384	-5.01556	-15.6335	-10.1719	3.10045	3.43287	2.33853	8.94996	8.51601	0
0.3027	144.593	-5.28667	-14.7294	-13.213	-1.46864	0.995955	-2.54574	8.94996	7.25955	0.321793
0.3033	155.583	-0.745556	-8.3253	-15.3627	-2.09416	0.678097	-4.38104	11.1253	5.72387	0.321793
0.3040	168.39	8.13334	6.93147	-15.0481	0.0543939	1.61048	-4.08502	15.0409	6.70112	0
0.3047	173.646	20.9433	28.9313	-11.3778	5.84734	5.25525	0.503227	22.6857	10.0517	0
0.3053	171.734	29.4834	42.3422	-10.1719	9.19257	6.18763	4.46984	26.9742	11.8666	0.321793
0.3060	100.632	27.9922	38.9895	-12.2692	5.54818	3.43287	3.25618	23.9287	10.9591	0.321793
0.3067	-121.848	24.3322	31.6813	-14.1043	3.10045	2.20381	2.04251	21.194	9.70266	0
0.3073	-347.291	24.3322	27.9896	-15.3627	1.87659	1.61048	0.799244	20.8832	8.51601	0
0.3080	-377.204	23.9934	25.2773	-15.9395	3.69878	3.43287	0.799244	21.194	7.60856	0
0.3087	-275.903	20.0622	20.0787	-16.254	8.8934	7.09883	3.25618	18.7079	7.25955	0
0.3093	-170.97	9.96334	9.38008	-17.7746	8.29507	6.18763	1.42088	8.32843	6.3521	0.321793
0.3100	-97.0963	-2.57556	-4.63354	-19.6097	4.02515	3.1362	-2.24972	-3.85345	5.16545	0
0.3107	-59.8251	-12.3356	-15.6335	-19.6097	1.57742	2.20381	-2.84175	-10.5659	5.44466	0
0.3113	-50.3639	-16.6056	-19.2876	-18.7184	3.39962	3.43287	-0.710439	-12.9899	6.70112	0.643587
0.3120	-51.893	-15.3856	-18.9862	-19.033	5.54818	6.78097	1.71689	-10.5659	5.72387	0.321793
0.3127	-53.1354	-15.0467	-23.5821	-20.2389	4.02515	7.09883	2.33853	-8.14197	3.90899	0
0.3133	-64.1256	-17.8256	-31.7943	-20.5535	1.57742	4.34406	2.63454	-7.20969	3.28076	0
0.3140	-94.6116	-21.4856	-38.1984	-19.9243	-0.244773	2.20381	2.33853	-6.58816	4.258	0
0.3147	-96.1407	-22.9767	-41.5888	-19.2951	-1.795	1.61048	1.71689	-7.20969	5.16545	0.321793
0.3153	-32.684	-21.7567	-40.3457	-17.7746	-1.795	2.20381	3.25618	-7.83121	5.72387	0.321793
0.3160	56.098	-19.0456	-33.9416	-17.1978	-1.46864	1.90715	4.46984	-7.20969	5.72387	-1.28717
0.3167	148.225	-14.4367	-21.4348	-16.8832	-0.571136	1.90715	4.76586	-5.65587	6.98033	-1.93076
0.3173	237.102	-7.11667	-1.88355	-16.5686	-1.16947	0.995955	4.46984	-0.49722	9.07443	-0.321793
0.3180	311.549	2.64334	16.1232	-16.254	-3.61719	-0.847621	4.17383	7.4583	10.3309	0.643587
0.3187	370.705	13.6233	31.9827	-13.5276	0.0543939	0.995955	6.60116	15.9732	13.4022	0
0.3193	378.637	28.6022	53.9449	-10.1719	6.44568	3.1362	8.43646	26.6634	17.032	0
0.3200	268.544	42.0223	71.3489	-8.91351	5.84734	0.381429	4.17383	35.7998	19.1959	0
0.3207	26.4721	44.7334	68.5989	-8.65135	2.80129	-2.37334	-1.03606	37.9752	20.1034	0.321793
0.3213	-209.101	36.8034	51.1949	-8.33675	1.87659	-2.96667	-2.54574	32.7544	20.1034	0
0.3220	-290.238	28.8734	37.1436	-8.33675	2.17576	-2.67001	-2.54574	26.6634	20.7316	0
0.3227	-265.581	28.8734	31.6813	-8.02216	4.02515	-1.14429	-0.414423	26.0419	21.639	0.321793
0.3233	-283.835	27.9922	23.13	-7.13081	2.80129	-1.44096	-0.414423	22.0641	21.29	0
0.3240	-335.728	20.0622	9.07872	-4.66648	-1.795	-4.81025	-4.38104	12.3062	19.8241	-0.321793
0.3247	-284.121	9.35334	-1.58218	-2.20216	-3.61719	-5.72144	-6.51235	4.10206	19.1959	-0.321793
0.3253	-151.379	-0.745556	-8.3253	-1.6254	-3.91636	-6.33597	-8.05164	-3.54269	18.5677	0
0.3260	-44.6299	-10.1667	-13.1849	-0.104865	-1.46864	-4.49239	-6.21634	-11.4982	17.9395	0.321793
0.3267	-15.0041	-18.4356	-17.178	2.04486	2.80129	-0.529763	-0.414423	-22.4992	17.381	0
0.3273	-51.0329	-27.2467	-23.2807	0.20973	0.35356	-1.44096	-1.9241	-37.105	15.2171	0
0.3280	-81.2322	-34.2956	-30.8902	-2.51676	-4.84106	-4.19572	-6.80837	-45.3713	12.774	0
0.3287	-94.3249	-37.3456	-35.1471	-4.98108	-6.06492	-4.19572	-6.51235	-45.9928	10.9591	0
0.3293	-119.65	-36.1256	-34.5443	-3.77513	-2.99166	-1.75881	-2.84175	-45.0605	10.3309	0
0.3300	-111.145	-29.6867	-28.743	-4.03729	3.39962	2.52167	2.63454	-38.9696	11.2383	0
0.3307	-28.0968	-23.3156	-24.1848	-26.3211	2.80129	0.381429	1.71689	-31.9464	9.70266	-0.321793
0.3313	55.5246	-21.4856	-24.1848	-46.7697	-3.61719	-5.10692	-3.16737	-28.2794	6.07289	0
0.3320	89.0687	-17.2156	-18.9862	-38.5378	-3.91636	-4.49239	-1.62809	-23.3693	5.72387	0
0.3327	128.442	-7.72667	-6.17805	-24.8005	-0.870302	-2.96667	0.207211	-15.7867	7.25955	0
0.3333	162.273	6.57445	12.1301	-12.8984	4.92265	0.678097	3.84821	-5.40727	9.07443	0.321793
0.3340	138.477	18.2322	28.9313	0.524324	7.07121	2.52167	7.51881	2.54825	13.9607	0.321793
0.3347	52.4664	25.2134	38.0854	7.86486	0.951893	-1.75881	2.33853	5.28296	18.2885	0.321793
0.3353	-140.771	31.9234	42.6436	21.8643	-2.09416	-3.5812	-1.33207	12.3062	21.9182	0
0.3360	-321.106	34.0922	41.1368	46.6124	0.652727	-1.75881	0.799244	19.3294	31.9699	0
0.3367	-323.208	30.0934	34.0923	66.7465	6.14651	0.995955	4.76586	21.194	44.5345	0
0.3373	-232.611	21.8922	22.8286	77.4427	8.59423	1.90715	6.89718	16.5947	47.8851	0
0.3380	-129.111	8.74334	6.93147	78.334	2.17576	-3.5812	-0.414423	4.9722	32.9472	0.321793
0.3387	-9.17446	-0.406667	-4.0308	74.6637	-0.244773	-6.63263	-5.59471	-0.807982	-1.60548	0
0.3393	95.7584	-5.28667	-9.53077	76.4989	1.57742	-5.72144	-4.38104	-2.6104	-30.8531	0
0.3400	144.307	-13.2167	-16.2362	43.8335	0.652727	-6.01811	-4.67705	-10.2552	-55.005	0
0.3407	151.952	-18.0967	-17.7807	-41.8935	3.69878	-3.89906	-2.24972	-14.2329	-60.1705	0.321793
0.3413	141.822	-19.9267	-17.4794	-80.3264	2.50212	-4.81025	-2.84175	-16.9676	16.1246	0.321793
0.3420	85.7238	-22.9767	-22.3389	-61.7129	-5.43939	-8.47621	-8.64367	-24.6124	114.687	0
0.3427	14.6218	-23.9256	-26.9348	-90.1313	-7.28878	-5.10692	-5.29869	-26.104	131.16	-0.321793
0.3433	17.9666	-23.3156	-30.8902	-132.864	-7.58795	-1.14429	0.799244	-22.1884	73.7821	0
0.3440	96.0451	-23.3156	-36.3902	-120.018	-9.70931	-1.75881	0.503227	-18.5214	9.07443	0.321793
0.3447	168.103	-22.0956	-38.5375	-96.5281	-10.0085	-2.67001	-0.710439	-14.5437	-24.4312	0.321793
0.3453	199.258	-18.4356	-33.0375	-67.8475	-12.7554	-6.01811	-3.46339	-10.5659	-63.521	0.321793
0.3460	232.802	-8.33667	-14.7294	2.35946	-16.1278	-8.77288	-7.13399	-5.40727	-95.5608	-0.96538
0.3467	311.549	9.01445	16.7259	57.5708	-13.0817	-6.63263	-7.13399	4.10206	-70.2222	-1.28717
0.3473	404.345	30.0934	49.6881	38.6951	-7.28878	-2.96667	-5.29869	15.6624	-31.7605	0.321793
0.3480	422.025	43.5134	68.5989	-20.8157	-1.795	-0.233096	-2.54574	23.9287	-24.152	0.321793
0.3487	256.311	43.2423	65.8489	-66.327	0.35356	-1.44096	-1.9241	24.5502	-15.9152	0
0.3493	-69.9552	34.9734	49.6881	-66.9037	-2.99166	-6.33597	-6.51235	18.3971	16.4038	0.321793
0.3500	-366.214	27.3822	34.7327	-51.3313	-4.54189	-7.54383	-7.72602	13.2385	48.4435	0
0.3507	-490.164	22.1633	21.2841	-33.0324	-3.91636	-5.42477	-4.08502	11.6847	46.0004	0
0.3513	-435.882	14.8433	7.87324	20.6584	-2.6925	-2.96667	-1.03606	10.5038	40.2067	0
0.3520	-287.562	5.08334	-3.42806	45.9832	-0.571136	-2.37334	0.503227	8.32843	129.066	0
0.3527	-155.966	-4.40556	-12.2808	-16.254	-0.870302	-3.89906	-0.710439	2.54825	194.961	0
0.3533	-89.1643	-11.9967	-18.6848	-62.0275	-2.09416	-3.28453	0.207211	-5.40727	50.8866	0.321793
0.3540	-58.296	-16.8767	-22.6403	24.3286	-2.39333	-1.75881	2.63454	-12.1197	-76.6441	0.321793
0.3547	-27.5234	-16.8767	-21.7362	150.953	-1.795	0.0847621	3.25618	-15.476	5.16545	0
0.3553	2.96258	-14.4367	-18.3835	164.428	-1.46864	0.381429	2.04251	-15.1652	129.974	0.321793
0.3560	23.1273	-13.8267	-17.178	86.5659	-4.21553	-1.75881	-2.54574	-16.0353	85.7185	0.321793
0.3567	45.7767	-12.9456	-16.5376	39.5865	-6.06492	-3.89906	-6.51235	-18.5214	-63.8002	-0.321793
0.3573	72.6311	-11.9967	-15.0307	31.9313	-5.14022	-5.72144	-8.34766	-16.3461	-46.7682	0
0.3580	87.8263	-9.28556	-13.4862	-61.4508	-2.09416	-5.10692	-8.96929	-11.809	3.90899	0.321793
0.3587	94.516	-4.40556	-7.98626	-158.451	1.27826	-3.28453	-7.72602	-10.5659	-74.8292	0.321793
0.3593	100.632	1.42333	1.77054	-57.4659	2.17576	-2.96667	-7.43001	-11.809	-83.9734	0
0.3600	103.69	6.91334	10.6232	72.8286	2.80129	-1.75881	-7.13399	-11.4982	19.8241	0
0.3607	75.976	10.5733	15.7842	42.313	4.62348	0.678097	-5.29869	-9.63363	176.672	0
0.3613	-13.475	11.4545	16.7259	-21.7594	2.17576	-0.233096	-5.29869	-9.63363	223.65	0
0.3620	-126.722	12.4033	15.4828	-39.7438	-2.09416	0.0847621	-5.00267	-9.9444	21.9182	0.321793
0.3627	-199.64	14.5045	14.5787	-33.347	-0.870302	4.34406	-2.24972	-8.14197	-171.577	0.321793
0.3633	-224.679	14.2333	12.1301	27.9989	0.951893	6.18763	-0.414423	-7.20969	-164.247	0
0.3640	-217.033	12.4033	9.07872	130.242	1.57742	4.66192	0.503227	-7.83121	-87.6032	0
0.3647	-181.291	9.62445	4.52052	191.588	-1.795	1.61048	-1.62809	-9.63363	-74.4802	0.321793
0.3653	-114.203	5.08334	-1.88355	183.933	-7.28878	-0.847621	-7.13399	-12.4305	-18.9865	0.321793
0.3660	-30.5815	4.13445	-2.22259	151.267	-3.91636	2.20381	-5.00267	-9.9444	207.456	0
0.3667	34.1175	4.13445	-0.678078	78.6486	-0.870302	2.52167	-1.62809	-8.45274	342.036	-0.321793
0.3673	64.699	0.813334	-3.72943	-31.1973	-6.06492	-2.96667	-5.92032	-12.9899	268.813	0
0.3680	60.1118	-1.96556	-6.17805	-42.8373	-11.8579	-7.86169	-9.56132	-16.0353	186.445	0.321793
0.3687	40.2338	-4.40556	-6.78078	5.40054	-14.3056	-9.68407	-9.2653	-18.8322	75.946	0.321793
0.3693	25.3253	-2.57556	-3.72943	-16.5686	-4.54189	-2.67001	-0.710439	-16.9676	-60.4497	0
0.3700	13.9528	2.30445	0.828762	36.2308	7.9959	6.4843	9.97574	-11.1874	-186.515	0
0.3707	3.34485	3.52445	1.46917	158.608	8.8934	7.71335	10.2718	-10.8767	-320.816	-0.321793
0.3713	-1.52908	2.64334	0.828762	154.938	8.59423	6.18763	6.00913	-11.809	-268.882	0
0.3720	-2.48475	1.69445	-0.075342	124.737	10.4164	3.72953	1.42088	-11.809	23.4539	0
0.3727	-0.668971	2.30445	0.226026	140.886	11.3411	3.1362	-0.118406	-9.63363	292.336	-0.321793
0.3733	3.91826	4.47334	3.27738	78.9632	11.3411	7.39549	4.76586	-3.85345	390.55	-0.321793
0.3740	4.49166	5.96445	3.88011	8.75621	6.14651	10.1503	8.43646	-0.807982	390.27	0
0.3747	1.14681	6.30334	2.07191	-13.8422	-0.571136	10.4469	8.73248	-1.11874	309.089	0
0.3753	-1.52908	7.18445	-0.075342	-133.126	-8.18628	9.23907	6.89718	-2.29964	77.7609	0
0.3760	-5.5429	7.52334	-2.82533	-227.766	-17.3517	5.57311	2.33853	-4.78574	-195.38	0
0.3767	-4.58723	7.18445	-1.58218	-140.152	-14.6048	7.39549	6.30514	-1.42951	-275.025	0
0.3773	0	5.69334	1.1678	-18.0892	-5.73856	10.1503	13.6167	4.10206	-114.477	0.321793
0.3780	-4.9695	6.91334	0.226026	61.5556	-1.16947	7.09883	9.97574	3.16978	71.688	0
0.3787	-12.2326	10.8445	-1.28081	110.37	2.80129	4.04739	2.93056	0.435067	116.502	0
0.3793	-13.7617	7.52334	-2.52396	117.396	5.84734	3.72953	-1.62809	-1.42951	108.265	0.321793
0.3800	-12.5193	10.2345	-0.678078	32.5605	11.042	7.09883	-0.710439	-0.807982	149.17	0.321793
0.3807	-9.84343	23.1122	4.21915	-116.662	17.4332	13.8162	7.22279	4.66144	153.149	0.321793
0.3813	-10.1301	19.1133	2.97601	-155.724	14.088	12.2905	7.22279	8.32843	36.8562	0.643587
0.3820	-15.9597	9.35334	-1.88355	-239.669	2.50212	7.09883	-2.84175	6.83677	-104.705	-0.321793
0.3827	-18.6356	16.6733	-1.88355	-558.562	-4.84106	11.9726	-5.00267	7.4583	-174.578	-1.93076
0.3833	-14.4307	3.86334	0.527394	-600.351	-1.795	18.9867	0.207211	13.2385	-271.675	-0.643587
0.3840	-9.17446	-38.8367	2.67464	-127.673	7.07121	22.9705	6.30514	22.9964	-424.265	0.321793
0.3847	-7.64538	-47.4445	2.07191	187.289	5.54818	23.5639	8.14044	30.0196	-433.06	0
0.3853	-4.9695	-23.9256	-3.12669	93.5918	-5.14022	18.0755	2.04251	25.7311	-282.634	0
0.3860	3.63156	-23.9256	-7.68489	-17.1978	-8.81181	13.2017	-1.03606	14.1708	-179.185	0
0.3867	9.46116	-13.5556	-5.87668	-30.3059	-6.66325	10.7648	-0.414423	-0.186457	-152.032	0
0.3873	10.3213	27.6534	2.67464	-42.2081	-0.571136	10.4469	1.42088	-7.52045	-56.1917	0.321793
0.3880	11.8503	19.1133	11.8287	-87.667	5.24901	8.92121	5.09148	-4.47498	3.62977	0
0.3887	12.806	-26.3656	15.7842	-72.7237	1.57742	0.381429	1.71689	-3.54269	-147.145	0.321793
0.3893	11.5636	-42.5645	17.9314	119.231	-2.6925	-7.54383	-2.24972	-7.20969	-242.636	0.321793
0.3900	5.44733	-49.5456	20.9828	349.043	-1.795	-11.5276	-0.118406	-10.2552	-51.6545	0.321793
0.3907	-0.382269	-38.2267	22.8286	442.11	4.32431	-11.8243	4.17383	-11.4982	310.904	0.321793
0.3913	1.52908	1.08445	23.13	430.837	15.3119	-9.09074	9.35411	-10.2552	690.844	0.321793
0.3920	3.63156	17.2833	18.2328	393.872	17.7596	-10.0019	7.81483	-11.4982	960.354	0
0.3927	0.286702	7.79445	9.38008	371.012	11.042	-11.5276	2.33853	-16.3461	1103.17	0
0.3933	-0.668971	14.2333	3.88011	322.774	6.77204	-8.15835	2.04251	-17.2784	1082.72	0.321793
0.3940	5.44733	30.4322	0.226026	281.3	3.10045	-6.01811	4.17383	-12.1197	742.149	0
0.3947	18.54	9.62445	-1.28081	423.182	-5.43939	-4.49239	4.76586	-2.29964	227.629	0.321793
0.3953	30.1993	-18.0967	0.226026	358.48	-18.2492	1.61048	2.63454	10.5038	-337.569	0.321793
0.3960	29.2436	-14.4367	2.37327	-229.287	-26.8162	17.7789	3.84821	27.5957	-857.883	0
0.3967	21.3115	-48.6645	-0.075342	-564.959	-25.8915	32.1248	7.22279	48.0439	-848.111	0
0.3973	17.9666	-87.7045	-2.52396	-330.272	-15.8286	28.7555	5.38749	67.249	-285.705	0
0.3980	19.4957	-10.5056	5.72599	-132.864	-2.09416	22.0381	3.84821	79.4309	220.579	0.321793
0.3987	17.3932	25.2134	18.5341	-183.513	4.62348	20.8303	4.76586	87.3864	246.545	0.321793
0.3993	8.50549	-30.0256	24.6368	-257.024	1.57742	14.1129	-1.03606	99.879	4.258	0.321793
0.4000	-1.91135	30.0934	23.7327	-198.771	-0.870302	2.81834	-12.0183	103.235	-19.2657	0
0.4007	-10.7035	-97.4645	20.9828	-69.0535	-0.870302	-3.89906	-18.4122	88.3187	231.887	0
0.4013	-16.5331	-473.428	18.2328	8.44162	-2.39333	-2.67001	-16.5769	80.3631	429.64	0
0.4020	-12.2326	-571.367	11.8287	13.6324	-1.16947	0.678097	-9.2653	57.8018	288.009	0
0.4027	-2.77145	-400.228	-2.22259	1.41567	-3.61719	-0.233096	-8.34766	1.61596	9.70266	0
0.4033	-4.30053	-249.761	-14.428	30.1486	-10.3348	-4.81025	-14.7416	-29.2117	24.6406	0
0.4040	-13.475	-156.363	-13.4862	39.5865	-10.634	-8.77288	-15.6593	-12.6791	54.307	0
0.4047	-17.7755	22.1633	-6.78078	-69.6827	-9.11098	-4.19572	-9.88694	19.0187	-417.215	0
0.4053	-20.8337	351.767	-7.38352	-223.781	-11.8579	11.3581	-5.00267	28.2172	-952.466	0.321793
0.4060	-29.0524	520.805	-14.428	-245.121	-13.6801	22.9705	-5.59471	-5.65587	-1000.42	0
0.4067	-39.756	375.286	-19.2876	-105.075	-10.634	20.8303	-10.183	-59.107	-858.232	-1.28717
0.4073	-41.8585	231.19	-18.3835	28.5757	-1.795	16.2531	-12.6103	-104.23	-772.444	-0.96538
0.4080	-33.353	237.29	-13.7876	71.9373	8.59423	15.9353	-9.2653	-136.3	-582.928	0.643587
0.4087	-26.8544	248.27	-9.2294	85.36	15.0127	12.5872	-5.92032	-149.725	-229.513	0.321793
0.4093	-20.4514	220.21	-0.678078	91.4421	18.6571	9.23907	0.799244	-149.415	281.307	0
0.4100	-10.4168	196.42	11.5273	80.1691	21.1048	7.71335	13.3207	-143.634	926.779	0.321793
0.4107	-6.1163	178.391	17.0273	82.3189	18.3579	1.61048	20.0403	-134.498	1215.49	0
0.4113	-4.30053	164.971	14.2773	84.7308	11.9395	-1.44096	20.6323	-114.609	728.398	0
0.4120	-4.9695	154.601	9.98282	-13.5276	1.57742	0.0847621	20.3363	-89.0023	-12.5646	0.321793
0.4127	-9.84343	143.621	4.82189	-100.513	-10.0085	0.381429	17.2873	-70.3566	-412.677	0.321793
0.4133	-8.88775	139.08	-0.075342	47.5038	-12.4562	0.678097	17.909	-53.0161	-380.009	0.321793
0.4140	-3.72712	130.201	-2.22259	222.104	-8.48545	-2.05548	19.7147	-37.7266	-85.7883	0.321793
0.4147	-4.58723	93.8723	0.828762	246.799	-1.795	-4.81025	18.501	-30.3926	138.49	0
0.4153	-9.84343	47.7834	3.57875	278.259	4.62348	-7.86169	14.86	-24.6124	198.939	0.321793
0.4160	-10.1301	21.5533	2.37327	180.263	6.77204	-13.9646	9.65013	-20.0131	220.299	0.321793
0.4167	0	14.5045	3.27738	-160.6	12.565	-14.5791	6.30514	-15.7867	221.207	0
0.4173	11.2769	-12.3356	6.32873	-372.69	20.5065	-9.09074	5.68351	-12.6791	174.788	0
0.4180	11.5636	-80.0456	9.98282	-263.473	19.881	-12.7355	3.25618	-11.4982	-29.3174	0.321793
0.4187	1.81578	-91.0256	13.3732	-132.864	10.4164	-23.7334	-1.33207	-7.52045	-272.233	0
0.4193	-9.46116	-34.9056	10.6232	-131.029	-2.99166	-27.0815	-5.29869	-4.47498	-192.029	0
0.4200	-13.1883	-36.3967	2.97601	-116.033	-13.0817	-20.3641	-1.03606	-2.6104	78.3891	0.321793
0.4207	-7.35868	-83.0956	0.226026	-62.9713	-15.8286	-8.77288	10.8934	5.28296	182.466	0
0.4213	-1.24237	-79.4356	1.1678	-196.622	-13.0817	0.0847621	18.205	17.8378	110.429	0
0.4220	-6.1163	-30.9067	0.828762	-435.556	-13.6801	-4.19572	14.2384	21.7534	-109.312	0.321793
0.4227	-19.878	-9.55667	-2.22259	-313.179	-16.1278	-12.4388	4.46984	11.3739	-437.667	0
0.4233	-29.9126	3.86334	-5.87668	25.22	-13.0817	-9.09074	1.42088	-1.11874	-517.033	0
0.4240	-31.8239	5.35445	-4.9349	147.335	-4.54189	-3.28453	8.43646	1.05659	14.3097	0
0.4247	-24.4652	-22.7056	2.37327	-60.507	8.8934	1.61048	21.55	22.0641	819.98	0.321793
0.4253	-15.5775	32.8722	6.93147	-304.056	16.2366	9.53574	31.9401	50.7786	1281.1	0.321793
0.4260	-12.5193	56.0523	2.67464	82.0043	8.8934	7.09883	30.4009	68.8028	1225.82	0.321793
0.4267	-12.5193	-50.4945	-3.72943	850.768	0.652727	22.6527	20.3363	84.6517	637.793	0.321793
0.4273	-8.60105	-35.1767	-4.33217	1220.31	0.35356	68.7421	12.1071	100.811	-126.972	0
0.4280	-0.955673	85.6712	1.1678	1192.52	-1.46864	95.2938	7.51881	64.2035	-371.424	0
0.4287	-0.955673	112.782	4.21915	1137.63	-13.6801	91.6278	3.55219	-13.6114	-55.5635	0
0.4293	-11.3725	82.6212	1.1678	1238.03	-25.5923	77.5997	2.04251	-56.3723	305.11	0
0.4300	-20.4514	43.5134	1.46917	1229.49	-25.5923	54.0994	3.25618	-58.1747	433.898	0
0.4307	-22.9361	17.8933	2.67464	1031.71	-21.3224	21.127	-1.33207	-48.7275	270.348	0
0.4313	-22.6494	34.7022	1.77054	923.964	-22.5463	-1.14429	-7.72602	-39.5911	-71.7578	0
0.4320	-24.1785	27.0434	3.88011	446.672	-24.9668	0.678097	-5.00267	-31.3248	-256.108	0.321793
0.4327	-29.6258	-52.9345	3.27738	-727.028	-20.3977	8.30669	-2.24972	-20.3239	-268.603	0
0.4333	-35.1688	-143.825	-0.678078	-1630.33	-5.14022	0.995955	-7.13399	-8.14197	-473.685	0
0.4340	-32.684	-159.752	-5.27394	-1506.12	10.4164	-24.0301	-14.4456	1.92673	-753.806	0
0.4347	-23.5095	-115.493	-11.9794	-928.106	12.2658	-42.9532	-16.2809	8.94996	-721.766	0.321793
0.4353	-16.8198	-91.9745	-18.6848	-658.656	4.32431	-46.9158	-12.0183	11.9954	-599.75	0
0.4360	-19.3046	38.0234	-25.6916	-610.418	-4.54189	-51.1963	-8.96929	7.76906	-723.302	-1.60897
0.4367	-19.3046	257.759	-28.743	-563.753	-7.88711	-47.5303	-1.62809	2.54825	-878.335	-1.28717
0.4373	-14.0484	189.371	-32.0957	-545.454	-8.18628	-32.8877	11.7814	12.3062	-765.394	0.321793
0.4380	-18.3489	-44.0556	-39.7429	-470.686	-12.157	-14.8757	20.3363	30.9519	-530.156	0.321793
0.4387	-31.1549	-57.2045	-47.3901	-297.344	-17.0525	0.678097	20.6323	41.3314	-367.794	0
0.4393	-46.7324	18.5033	-51.647	-147.492	-14.6048	-4.19572	12.4031	37.6644	-267.975	0.321793
0.4400	-74.5425	38.3623	-37.2943	-104.76	-6.06492	-21.5931	4.17383	26.0419	-211.853	0.321793
0.4407	-117.548	77.4023	-10.1335	-90.1313	-2.99166	-30.4508	0.207211	11.1253	-107.148	0.321793
0.4413	-119.937	100.921	16.4246	-32.4557	-5.14022	-32.8877	-5.92032	-6.89892	90.6047	0
0.4420	-67.1838	69.4723	31.6813	50.8594	-5.14022	-35.0279	-13.8536	-14.8544	285.286	0
0.4427	-31.4416	46.9023	21.5855	55.7356	-1.795	-34.7101	-17.1985	-6.2774	308.461	0.321793
0.4433	13.6661	6.30334	8.77735	-1.6254	3.39962	-29.2217	-12.6103	13.2385	87.5334	0
0.4440	118.026	-120.645	14.2773	46.927	2.80129	-23.1189	-9.88694	29.3981	-184.351	0
0.4447	246.85	-228.682	24.6368	105.809	-4.84106	-19.7708	-12.0183	33.0651	-315.022	0
0.4453	357.039	-185.643	23.4314	34.3957	-14.6048	-19.4529	-16.5769	32.7544	-260.366	0
0.4460	410.461	-7.11667	14.8801	-24.1713	-18.5755	-20.3641	-16.2809	29.0874	-121.807	0
0.4467	414.666	127.761	6.02736	19.4524	-8.18628	-14.2612	-5.00267	21.5048	-63.8002	0
0.4473	303.904	99.0912	-2.52396	14.5762	3.10045	-6.33597	4.76586	13.86	-49.7698	0
0.4480	-25.9943	31.6522	-7.68489	-183.199	5.24901	-0.233096	10.8934	5.59372	0.558427	0.321793
0.4487	-384.849	16.3345	-3.42806	-323.56	5.24901	4.95858	17.2873	2.23749	57.9368	0
0.4493	-478.601	25.5522	20.0787	-254.612	0.652727	1.61048	10.8934	2.85901	144.633	0
0.4500	-337.257	31.6522	49.9894	-256.132	-0.571136	-4.49239	-0.414423	4.10206	291.429	0
0.4507	-179.475	13.8945	61.5921	-330.901	4.62348	-5.72144	0.503227	9.88224	446.113	0
0.4513	-61.7364	-23.3156	61.8935	-357.117	0.951893	-8.47621	0.799244	9.26072	444.577	-0.321793
0.4520	86.9662	-23.5867	46.6367	-352.87	-8.48545	-15.4903	-5.92032	3.7913	207.176	-0.321793
0.4527	209.961	29.4834	7.87324	-334.886	-12.7554	-21.8898	-8.96929	1.61596	-79.3664	0
0.4533	223.914	47.7834	-16.5376	-248.792	-10.9332	-26.467	-7.72602	-4.78574	-225.884	0
0.4540	122.899	7.18445	-18.6848	-128.25	-3.31803	-29.2217	-3.16737	-8.14197	-289.056	0
0.4547	-45.7767	-39.7856	-23.5821	-183.199	3.69878	-26.467	4.17383	0.74583	-274.397	0
0.4553	-191.995	-76.9956	-13.1849	-303.112	5.24901	-20.0674	7.22279	11.9954	-97.3756	0
0.4560	-261.281	-143.825	1.77054	-266.199	6.77204	-16.1048	7.81483	17.2162	12.4948	0
0.4567	-217.033	-268.671	-11.0376	-165.791	7.07121	-15.4903	12.1071	22.0641	-30.8531	0
0.4573	-83.3346	-334.28	-31.493	-68.1621	1.87659	-3.5812	18.8266	41.8908	68.3375	0.321793
0.4580	36.889	-246.711	-51.3456	48.1329	1.27826	21.127	22.4676	79.4309	432.362	0.321793
0.4587	33.5441	-131.625	-65.3592	124.422	3.39962	29.0734	16.6657	120.638	826.402	0
0.4593	-91.9357	-83.0956	-43.397	121.381	4.32431	16.5498	0.503227	156.065	854.114	0
0.4600	-201.169	-45.0045	-27.5375	111.314	8.29507	5.86978	-16.2809	179.869	533.088	0
0.4607	-231.942	-24.5356	-32.4347	134.175	15.3119	-2.05548	-24.5101	196.961	225.465	0
0.4613	-191.039	-80.3845	-15.0307	67.6378	18.3579	-6.95049	-21.7868	187.514	-13.7513	0
0.4620	-99.8678	-130.743	-8.3253	1.73027	7.37037	-4.49239	-15.6593	114.547	-175.835	0
0.4627	-41.8585	-93.8045	-23.5821	85.6745	-6.66325	-1.75881	-12.9359	15.9732	-210.597	-0.321793
0.4633	-2.77145	7.52334	-12.2808	156.773	-8.48545	-7.86169	-9.2653	-57.2424	-241.45	-0.321793
0.4640	137.33	69.4723	15.4828	222.995	-6.06492	-18.8384	-1.62809	-121.632	-216.111	0
0.4647	368.89	62.1523	19.4759	381.079	-5.14022	-22.5043	7.22279	-167.128	-31.2021	0.321793
0.4653	529.156	108.851	7.87324	472.626	-0.244773	-19.7708	12.6991	-151.59	237.052	0
0.4660	576.175	195.2	4.52052	500.992	-0.244773	-24.0301	10.2718	-108.829	538.882	0.321793
0.4667	580.093	251.93	16.7259	594.688	-7.88711	-37.7615	-1.33207	-92.3586	635.35	-0.321793
0.4673	553.239	273.958	45.6949	670.715	-17.0525	-48.1449	-10.183	-82.6006	280.121	-1.93076
0.4680	501.059	220.549	69.2017	699.081	-25.8915	-47.5303	-8.34766	-55.7508	-232.864	-0.96538
0.4687	228.884	154.94	74.0989	897.748	-29.5631	-37.7615	1.42088	-29.2117	-528.9	0.643587
0.4693	-336.014	118.001	67.6948	1144.02	-27.7137	-19.1562	14.5344	-25.8554	-572.527	0.321793
0.4700	-683.975	59.7123	53.3422	901.418	-25.8915	4.34406	29.4832	-28.5901	-354.671	0
0.4707	-550.276	32.5334	46.3354	220.531	-20.3977	21.7415	38.6597	-20.0131	0.279213	0
0.4713	-311.358	35.9222	49.0477	-320.834	-12.4562	26.9332	33.4498	-16.9676	212.691	0
0.4720	-166.956	15.7245	48.7463	-380.921	-9.11098	22.6527	15.7481	-27.0363	255.061	-0.321793
0.4727	-54.3778	-32.7367	47.2395	-91.3372	-7.28878	11.676	-0.710439	-39.2804	168.086	0
0.4733	-47.3058	-123.695	44.7908	-51.3313	-9.41014	-2.05548	-9.56132	-41.7043	-98.9113	0
0.4740	-142.873	-214.313	38.9895	-339.447	-31.9836	3.72953	-15.3632	-35.9241	-476.129	0
0.4747	-202.411	-206.722	33.7909	-325.396	-59.7789	34.5617	-19.9515	-30.0818	-689.168	0
0.4753	-169.154	-132.235	25.2773	-55.9454	-72.5886	53.167	-24.5101	-30.3926	-641.493	0
0.4760	-116.019	-130.743	9.68145	14.5762	-76.8586	55.3073	-26.0494	-39.2804	-583.835	0
0.4767	-176.13	-107.225	-4.33217	40.7924	-67.0949	64.7794	-16.9025	-43.8175	-593.328	0.321793
0.4773	-288.709	53.2734	-20.8321	281.614	-47.2411	67.8309	-8.34766	-38.9696	-494.417	-0.643587
0.4780	-338.786	171.681	-37.897	317.006	-21.9207	52.2558	-6.80837	-27.0363	-243.893	-0.643587
0.4787	-369.272	114.002	-41.5888	-186.24	7.37037	32.4215	-6.51235	-8.7635	22.8257	0.643587
0.4793	-392.208	-83.0956	-48.2942	-413.272	25.6739	15.3419	-8.64367	11.1253	204.105	0
0.4800	-390.679	-203.333	-58.6538	-15.3627	38.1845	5.25525	-5.92032	21.7534	293.523	-0.321793
0.4807	-355.223	-83.0956	-58.6538	162.855	46.4252	-1.75881	-0.118406	6.52601	279.213	0
0.4813	-258.223	9.96334	-61.1024	-35.8113	45.8269	-11.8243	-1.03606	-18.5214	133.324	0
0.4820	-138.286	-8.06556	-66.301	-149.642	22.6279	-19.4529	-7.43001	-18.5214	-99.5396	0
0.4827	-44.9166	80.1812	-57.7497	-92.2286	-26.8162	-17.6305	-15.6593	5.59372	-260.646	0
0.4833	36.3156	124.372	-34.243	-58.6719	-23.7429	-8.77288	-15.9849	53.2025	-336.382	0
0.4840	130.545	18.8422	-8.3253	-228.658	36.3623	-5.72144	-5.00267	99.3196	-449.883	0.321793
0.4847	206.234	-54.4256	11.8287	-440.747	63.5321	-3.5812	3.55219	106.032	-451.697	0.321793
0.4853	177.564	-6.84556	34.4313	-524.062	58.6366	9.53574	4.17383	68.1813	-273.769	0.321793
0.4860	61.2586	49.9523	56.3935	-658.027	62.009	21.4448	2.63454	10.8145	-128.857	0
0.4867	19.7824	-6.84556	65.2462	-727.342	62.6074	20.8303	1.12486	-17.8999	-79.7154	0
0.4873	176.035	-1.96556	62.1949	-484.423	49.7976	19.9191	8.14044	-7.20969	-40.3463	0.321793
0.4880	416.864	114.002	44.7908	-203.018	32.0924	19.6012	19.1226	18.1485	44.8137	0
0.4887	486.055	4.47334	5.12326	-109.636	15.0127	8.92121	15.7481	40.3991	111.057	0
0.4893	395.744	-328.18	-35.4861	-65.6978	-10.634	-2.37334	5.68351	43.7553	118.386	0.321793
0.4900	352.739	-424.289	-61.1024	2.35946	-64.6471	-11.2098	1.71689	30.3304	100.936	0
0.4907	392.112	-164.632	-70.8592	47.1892	-118.66	-5.72144	1.71689	11.3739	11.5176	0
0.4913	466.559	9.62445	-62.3079	-0.367027	-132.096	36.3841	4.76586	4.9722	-102.89	0
0.4920	476.307	28.2634	-47.3901	-87.667	-114.091	71.4756	0.799244	27.2849	-79.9946	0
0.4927	354.268	229.36	-26.9348	16.6735	-84.4737	61.4101	-13.5279	41.6422	-0.0698033	-0.321793
0.4933	346.622	368.847	-0.075342	137.845	-48.7913	47.6787	-24.8358	3.7913	-8.86502	0
0.4940	462.928	256.268	14.8801	-35.4967	-17.0525	66.6018	-32.4434	-45.6821	-76.3648	0.321793
0.4947	275.234	179.611	32.5854	-141.987	7.66954	83.0881	-31.8513	-49.0383	-136.186	0
0.4953	-135.228	166.801	54.2463	16.4113	19.5818	67.2163	-25.1318	-32.2571	-146.517	-0.321793
0.4960	-447.159	136.911	59.4449	102.138	8.8934	44.3306	-26.3454	-17.8999	-87.6032	0.321793
0.4967	-620.136	125.592	55.4894	91.1799	18.3579	11.676	-25.1318	10.5038	24.9896	0.321793
0.4973	-483.092	114.341	38.9895	106.438	60.1596	-43.5677	-20.5435	19.6402	129.974	-1.60897
0.4980	-175.557	85.3323	15.4828	42.313	90.0763	-94.2343	-17.8202	-4.78574	163.549	-0.96538
0.4987	-86.6795	55.7134	2.67464	-124.317	102.288	-129.94	-12.0183	-22.7478	142.748	0.643587
0.4993	-69.9552	34.7022	-2.82533	-300.071	97.7186	-150.982	-15.0672	-17.8999	187.631	0.321793
0.5000	123.855	30.4322	6.6301	-334.257	76.9402	-140.302	-27.8847	4.9722	338.407	-0.321793
0.5007	304.477	34.3634	24.6368	-95.5843	39.4084	-120.468	-40.7022	15.9732	497.07	0
0.5013	229.17	30.0934	22.2259	183.304	-4.54189	-124.134	-41.9159	2.23749	563.034	0
0.5020	-235.287	17.5545	-4.33217	305.996	-25.8915	-126.571	-17.8202	-11.1874	536.439	0.321793
0.5027	-938.47	3.86334	-32.7361	292.573	-30.7869	-119.239	14.2384	-25.2339	521.501	0.321793
0.5033	-1168.88	0.474445	-52.2497	241.609	-39.3268	-101.248	32.8578	-37.4158	550.19	0.321793
0.5040	-720.29	7.52334	-65.3592	295.614	-43.5967	-62.4909	33.4498	-36.2349	539.51	0.321793
0.5047	-149.276	4.47334	-76.3592	384.434	-31.3853	-32.5698	17.2873	-38.0373	472.08	0.643587
0.5053	299.317	-15.6567	-95.9104	506.497	1.57742	-24.3479	-0.118406	-52.0838	411.63	0.321793
0.5060	603.029	-44.3945	-114.219	624.889	62.009	-16.1048	-17.1985	-64.2657	364.653	0.321793
0.5067	762.244	-59.9156	-107.814	421.032	134.326	6.78097	-41.9159	-61.8417	266.09	0.321793
0.5073	874.249	-41.9545	-73.9105	-81.2702	152.33	44.6272	-60.5353	-47.4845	56.7501	0.321793
0.5080	1093.67	-14.1656	-17.178	-499.681	114.499	74.8449	-57.1607	-38.3481	-168.784	0
0.5087	1345.49	1.42333	53.9449	-521.335	70.2497	88.2797	-41.6199	-32.2571	-226.512	0.321793
0.5093	1251.45	17.5545	111.318	-184.405	17.4332	79.1254	-29.3944	-12.9899	-66.5924	0.321793
0.5100	722.297	38.0234	129.023	40.7924	-34.7305	55.3073	-22.0828	16.9055	180.023	0
0.5107	1.52908	57.5434	127.78	33.1897	-65.5718	71.4756	-14.1496	46.1793	318.582	0
0.5113	-466.082	68.2523	130.869	14.2616	-77.1577	119.705	-4.08502	65.4466	316.419	0
0.5120	-768.17	62.1523	113.766	-44.3578	-71.6639	142.888	1.12486	67.8705	234.33	0.321793
0.5127	-1301.63	45.3434	61.8935	-130.085	-51.8374	132.526	4.46984	53.2025	97.5851	0.321793
0.5133	-1460.27	5.96445	-5.87668	-148.698	-38.4021	100.168	3.84821	11.9954	-61.9854	0.321793
0.5140	-1036.14	-53.2056	-54.3969	-140.781	-50.3144	53.7816	-9.88694	-36.2349	-206.339	0
0.5147	-728.796	-88.3145	-61.7051	-159.08	-60.9756	8.30669	-20.2475	-38.6588	-367.794	0
0.5153	-455.091	-92.2456	-47.6915	-189.281	-57.032	-25.2591	-20.5435	-15.476	-619.225	0
0.5160	-60.4941	-82.2145	-40.9484	-182.884	-59.4525	-47.827	-8.05164	-4.16422	-783.403	0.321793
0.5167	111.049	-57.4756	-33.3389	-127.673	-45.4189	-52.722	22.7932	11.9954	-644.285	0.321793
0.5173	221.238	-35.5156	-3.72943	-71.2032	-18.2492	-37.7615	46.889	12.9277	-379.381	0
0.5180	573.69	-31.2456	37.4827	-50.7546	-9.11098	-12.1422	49.0203	-15.1652	-219.462	0
0.5187	854.754	-42.5645	56.0921	-46.4551	-0.571136	12.2905	39.8734	-39.5911	-126.414	0.321793
0.5193	467.515	-51.9856	48.1436	-19.9243	7.66954	17.461	25.8422	-47.4845	-33.017	0
0.5200	-480.99	-41.0056	41.4381	-1.6254	5.84734	10.1503	12.4031	-40.4613	27.7119	0
0.5207	-1022.38	-22.9767	31.9827	-40.6875	6.44568	0.0847621	-1.62809	-34.0596	24.0822	0
0.5213	-679.388	-16.2667	11.226	-106.595	4.02515	-27.3993	-14.1496	-42.3258	-6.77092	0
0.5220	-170.014	-11.3867	6.93147	-62.6567	-2.99166	-44.7756	-13.8536	-49.3491	-4.95604	0.321793
0.5227	-62.3099	-5.89667	8.47598	147.02	6.44568	-0.529763	-6.80837	-53.8862	21.639	0.321793
0.5233	-130.067	-22.3667	-11.3766	341.125	13.4897	73.3192	-1.03606	-74.3344	33.8546	0
0.5240	-55.2379	-53.5445	-30.8902	438.754	7.07121	104.745	6.60116	-91.1155	31.0625	-0.321793
0.5247	108.278	-78.8256	-36.0888	621.848	41.2578	74.8449	8.73248	-98.4495	12.774	0.321793
0.5253	36.889	-95.6345	-37.897	753.401	103.185	12.5872	3.84821	-105.784	-19.5449	0.321793
0.5260	-167.625	-92.8556	-44.9415	463.188	110.828	-54.5444	0.799244	-89.0023	-39.9973	-1.28717
0.5267	-288.709	-77.9445	-63.8524	91.7567	72.0719	-105.825	6.89718	-55.1292	-44.6043	-0.96538
0.5273	-449.548	-81.6045	-96.5131	136.953	40.6322	-137.251	20.6323	-45.0605	-54.656	0.321793
0.5280	-427.568	-96.5156	-119.681	208.629	12.2658	-165.943	17.5834	-53.2647	-64.1493	0.321793
0.5287	18.9223	-95.2956	-111.167	-26.9503	-20.3977	-174.801	-5.59471	-44.1283	-43.6969	0.321793
0.5293	469.331	-95.9056	-90.7118	-221.946	-39.6259	-153.737	-19.0338	-19.143	-6.77092	0.643587
0.5300	709.778	-92.8556	-65.6983	-179.529	-46.3436	-142.443	-14.7416	2.54825	26.1763	0.321793
0.5307	890.113	-52.5956	-10.4349	-94.0637	-39.3268	-134.517	-4.38104	26.0419	49.7	0
0.5313	936.559	5.08334	57.9004	-210.988	-28.6384	-95.4421	-4.38104	52.8918	35.9487	0
0.5320	796.458	45.9534	95.157	-411.49	-21.6216	-7.24716	-17.4946	72.7184	-3.07135	0.321793
0.5327	371.088	59.7123	88.7529	-459.046	-4.54189	139.54	-32.1474	83.7194	-25.9668	0
0.5333	-421.452	54.4934	64.6435	-430.365	9.51893	246.658	-50.7668	88.6294	-32.668	0
0.5340	-1188.09	45.0723	47.2395	-372.113	16.2366	270.455	-62.045	91.6749	-36.0883	0.321793
0.5347	-1327.52	30.4322	33.1882	-258.282	22.927	284.801	-51.9804	91.6749	-30.5739	0.321793
0.5353	-749.534	13.8945	23.7327	-146.286	7.66954	264.966	-40.3766	86.1433	-7.67837	0.321793
0.5360	92.7002	8.13334	30.1368	-78.4913	-27.1154	193.872	-32.769	79.4309	20.3826	-0.321793
0.5367	743.704	-1.01667	37.784	-57.7805	-34.1322	123.371	-15.6593	65.4466	25.6178	-0.321793
0.5373	852.269	-8.33667	24.3355	-54.7394	-11.5587	59.5878	14.86	43.1338	10.9591	0
0.5380	296.258	-5.89667	-4.33217	-40.6875	-13.3809	-1.75881	42.6263	14.4815	14.3097	-0.321793
0.5387	-520.65	-20.8756	-25.3903	-27.2648	-32.9083	-42.042	49.0203	-13.6114	36.8562	-0.321793
0.5393	-933.883	-46.4956	-34.243	-30.6205	-41.7473	-72.2597	48.7243	-20.9454	36.2977	0
0.5400	-768.17	-64.5245	-54.6983	-25.4297	-57.032	-129.008	47.8066	-20.9454	42.6498	0
0.5407	-148.703	-86.1456	-93.4618	-7.13081	-13.0817	-203.175	41.7087	-31.9464	90.8839	0
0.5413	536.419	-108.173	-124.879	-30.6205	96.4948	-249.857	42.0047	-33.1273	123.552	0
0.5420	669.162	-115.493	-133.129	-83.1054	140.744	-260.538	38.0381	-11.809	137.862	0
0.5427	609.432	-97.1256	-105.064	-79.1205	131.28	-251.383	21.254	16.9055	164.108	0
0.5433	940.86	-61.7456	-43.0956	-37.6465	123.039	-249.243	14.86	37.3536	146.098	0.321793
0.5440	1295.7	-19.9267	23.7327	-27.527	83.3586	-216.906	24.9246	49.2248	47.2569	0.321793
0.5447	1100.46	39.2434	94.2152	-34.553	20.5065	-91.4795	33.1538	66.0059	-65.9641	0.321793
0.5453	267.015	99.7012	161.684	-29.3621	-34.7305	24.1784	33.1538	92.2964	-124.878	0
0.5460	-759.664	137.86	197.396	-18.7184	-66.1702	47.9965	39.2517	126.791	-112.663	0
0.5467	-1413.34	168.36	198.903	-14.1043	-79.6055	58.3587	42.3007	161.845	-54.3768	0.321793
0.5473	-1483.2	184.22	168.389	-17.7746	-90.593	81.5623	26.4342	180.18	-2.79213	0.321793
0.5480	-1318.06	158.261	115.575	-3.77513	-63.4233	83.7026	7.22279	169.801	20.7316	0.321793
0.5487	-1097.78	91.7712	64.6435	7.86486	-4.54189	64.7794	-3.16737	123.683	23.1747	0
0.5493	-578.373	10.5733	15.1814	-12.8984	23.8517	37.9099	-7.43001	40.7099	17.6602	0
0.5500	146.791	-54.1545	-36.3902	-26.0065	22.3287	-4.49239	-1.9241	-63.9549	16.1246	0
0.5507	694.583	-87.0945	-77.9037	-8.33675	15.3119	-29.5184	16.6657	-138.724	13.6815	0
0.5513	896.516	-90.4156	-102.616	32.2459	-24.9668	24.4962	31.9401	-142.702	9.07443	0.321793
0.5520	862.686	-82.2145	-109.924	75.2929	-117.736	103.834	24.9246	-118.276	17.9395	0
0.5527	746.094	-82.2145	-99.8659	107.015	-182.138	134.348	-0.710439	-106.716	34.1338	0.321793
0.5533	679.005	-85.5356	-79.7119	131.133	-187.333	114.217	-19.3299	-105.784	43.6271	0.321793
0.5540	699.743	-81.6045	-69.051	153.417	-174.523	83.0881	-15.6593	-106.716	75.0386	0.321793
0.5547	615.453	-65.1345	-51.647	220.531	-114.69	82.7702	-7.43001	-86.8892	128.159	0.321793
0.5553	420.496	-31.5167	0.527394	301.748	-40.5506	87.6652	-5.00267	-49.9084	166.9	-0.643587
0.5560	303.904	11.1833	67.3558	304.475	-15.8286	64.1649	4.17383	-14.2329	173.88	-1.93076
0.5567	-43.1008	44.1234	103.708	287.067	-12.7554	84.9104	15.7481	15.0409	142.469	-0.643587
0.5573	-880.461	48.1223	87.8111	223.31	-2.09416	219.195	23.7109	23.6179	90.2557	0.321793
0.5580	-1521.05	34.3634	48.4449	76.4989	0.0543939	329.046	39.2517	22.6857	21.29	-0.321793
0.5587	-1532.9	34.3634	26.1814	20.973	-40.8498	305.25	51.1516	29.7089	-55.005	0
0.5593	-1131.9	34.7022	6.32873	90.5508	-98.2082	241.169	43.544	22.9964	-113.291	0.321793
0.5600	-314.034	2.91445	-35.1471	152.788	-92.4152	199.975	25.5166	-11.809	-147.774	0.321793
0.5607	551.71	-47.4445	-69.9551	64.5967	-32.9083	141.68	12.1071	-54.8185	-147.425	0.321793
0.5613	1019.89	-75.5045	-79.4105	-151.739	0.35356	47.0642	-0.118406	-81.3576	-144.423	0.321793
0.5620	1241.42	-61.4745	-76.6605	-254.297	-2.09416	-67.9792	-18.1162	-74.9559	-171.856	0
0.5627	1366.8	-25.4167	-79.7119	-214.344	-3.91636	-211.1	-26.0494	-37.7266	-197.474	0
0.5633	1040.35	-1.35556	-85.2118	-231.384	-17.95	-345.384	-5.00267	-7.20969	-189.865	0
0.5640	42.3363	3.86334	-72.1023	-257.024	-79.6055	-372.233	21.8756	-8.45274	-153.847	0
0.5647	-823.981	3.86334	-51.3456	-161.544	-158.64	-291.984	26.1382	-15.7867	-108.684	0.321793
0.5653	-1016.26	12.4033	-19.2876	-133.755	-205.337	-172.343	11.7814	-3.54269	-79.0872	0.321793
0.5660	-802.669	26.7722	33.4895	-234.163	-216.025	-52.722	-17.1985	20.8832	-80.2738	0
0.5667	-247.519	35.5834	78.0544	-231.384	-212.653	16.8677	-47.0962	38.2859	-96.8172	0.643587
0.5673	306.962	49.9523	119.869	-107.486	-190.678	30.8958	-63.2882	39.7776	-97.0964	0.321793
0.5680	460.156	72.5223	154.037	0.524324	-129.049	15.6386	-44.9649	37.0429	-83.3452	-0.321793
0.5687	441.521	82.0112	150.684	56.6794	-55.1826	-60.054	46.2673	43.4446	-77.9005	0
0.5693	313.652	80.1812	132.979	78.9632	-4.21553	-116.802	152.182	51.0893	-79.0872	0
0.5700	-100.441	75.5723	111.921	99.0972	33.0171	43.7161	169.262	51.4001	-66.2434	-0.321793
0.5707	-626.921	60.5934	71.3489	118.025	67.802	297.621	118.614	49.5355	-33.6452	0
0.5713	-772.47	34.3634	23.13	132.077	106.558	387.342	52.0692	34.9297	9.07443	-0.321793
0.5720	-356.466	9.96334	-15.0307	138.474	147.462	332.098	-24.5101	-2.29964	57.6576	-0.321793
0.5727	63.17	-12.6067	-49.8011	63.0762	183.144	204.552	-71.5175	-46.3036	91.5122	0
0.5733	220.569	-47.1056	-90.1091	-16.254	220.377	38.8422	-74.8625	-87.7593	100.028	0.321793
0.5740	307.535	-82.2145	-124.277	28.3135	255.488	-121.697	-70.3038	-125.61	110.708	0.321793
0.5747	260.899	-100.243	-135.879	45.0919	257.609	-238.563	-45.8825	-148.793	127.81	0
0.5753	34.7865	-113.053	-139.533	-31.1973	207.268	-265.729	-12.3143	-160.726	120.83	0
0.5760	-69.2863	-121.255	-142.585	-29.1	141.968	-247.717	-5.00267	-165.263	96.6776	0
0.5767	82.379	-100.515	-115.725	78.0194	90.3755	-295.947	-14.4456	-143.634	109.801	0.321793
0.5773	164.185	-48.9356	-49.4997	107.644	53.442	-368.567	-27.8847	-96.6471	136.675	0
0.5780	183.967	5.08334	24.9382	-14.4189	47.9482	-354.242	-29.72	-44.7498	110.15	0
0.5787	346.909	40.8023	71.9516	-129.456	36.0631	-282.512	-13.8536	-3.54269	96.6776	0
0.5793	299.986	61.2034	88.1125	-115.456	-4.54189	-203.789	-0.118406	19.9509	160.757	0
0.5800	-314.703	79.2323	93.3111	-45.8784	-21.9207	-118.942	2.93056	41.0206	224.837	-0.96538
0.5807	-993.039	90.8223	85.0612	-19.033	-8.48545	-51.8108	-9.56132	59.6042	235.516	-0.643587
0.5813	-1008.04	82.8923	49.9894	-27.8416	11.3411	-38.0794	-26.0494	63.8927	241.938	0.321793
0.5820	-350.732	57.5434	6.02736	-31.5119	26.8978	-66.1568	-30.3121	61.7796	205.361	0
0.5827	384.18	31.3134	-20.8321	-29.1	32.3916	-76.8368	-32.4434	58.9827	52.1431	0
0.5833	576.462	21.8922	-20.8321	-12.5838	48.2746	-48.4415	-26.0494	54.1348	-1.88469	0
0.5840	265.199	25.2134	-2.22259	12.4265	67.5028	-12.4388	-14.1496	44.0661	156.848	0
0.5847	60.3985	29.2122	11.8287	23.4373	71.1472	30.5991	-11.6926	27.5957	270.628	0.321793
0.5853	141.248	32.8722	15.4828	27.0551	70.5489	68.4242	-14.4456	4.41283	248.639	0.321793
0.5860	-138.286	31.6522	17.0273	40.2157	62.9065	53.7816	-17.8202	-17.8999	154.405	-1.28717
0.5867	-786.518	16.0633	6.6301	67.9524	46.4252	18.69	-17.4946	-35.9241	-75.4574	-1.28717
0.5873	-845.388	-8.06556	-13.4862	88.401	28.7472	18.69	-12.6103	-54.197	-346.713	0.643587
0.5880	-305.815	-26.6367	-29.0444	130.819	11.9395	47.9965	-10.479	-67.6219	-439.482	0.321793
0.5887	138.19	-38.5656	-37.897	195.835	-4.21553	90.7166	-25.4278	-74.3344	-387.618	0
0.5893	282.592	-37.6167	-43.397	163.799	-8.81181	145.346	-44.9649	-74.6451	-298.2	0.321793
0.5900	202.029	-22.7056	-41.5888	66.4319	-23.7429	203.62	-45.5865	-66.1302	-202.709	0.643587
0.5907	25.3253	-12.9456	-29.0444	58.5146	-22.2199	227.735	-39.4886	-64.5764	-137.094	0.321793
0.5913	-116.879	-16.2667	-19.2876	82.8956	82.4339	212.477	-41.6199	-79.8659	-110.219	0
0.5920	-180.144	-15.6567	-19.5889	27.0551	167.288	160.603	-45.2609	-85.0246	-133.115	0
0.5927	-163.324	-5.62556	-29.3834	-46.4551	159.646	120.002	-50.1451	-69.4865	-195.938	0.321793
0.5933	-74.1602	-5.01556	-42.7943	-81.2702	234.111	217.966	-37.3276	-61.5309	-239.286	0.321793
0.5940	24.9431	-15.3856	-43.6984	-91.9664	335.447	390.393	9.35411	-65.5087	-223.161	0.321793
0.5947	58.5827	-24.5356	-31.1916	-118.812	293.02	470.663	57.8712	-59.9771	-175.555	0
0.5953	48.1659	-39.1756	-22.0375	-162.436	254.264	414.19	85.9631	-44.7498	-133.394	0
0.5960	57.0537	-48.0545	-22.0375	-153.889	374.801	256.723	101.208	-30.7033	-101.354	0
0.5967	80.1809	-39.4467	-22.0375	-86.1464	571.653	65.3728	97.2413	-23.3693	-75.7366	0
0.5973	84.4815	-35.5156	-22.3389	-34.2908	651.911	-117.713	75.2769	-21.5669	-55.9125	0
0.5980	78.3652	-33.6856	-21.4348	-21.4449	486.798	-261.47	70.6887	-20.3239	-40.3463	0
0.5987	61.2586	-25.4167	-21.4348	-18.4038	196.28	-338.667	78.3259	-23.0586	-26.3159	0.321793
0.5993	-15.9597	-21.4856	-29.0444	-15.3627	-76.233	-323.706	60.0025	-20.3239	-14.1003	0
0.6000	-106.844	-18.7067	-39.4416	-16.254	-319.483	-236.444	31.3185	1.92673	-8.86502	0
0.6007	-66.8971	-22.9767	-59.2565	-38.2232	-504.395	-140.917	8.14044	17.2162	-8.58581	0
0.6013	99.1032	-32.4656	-79.4105	-51.0692	-581.008	-19.1562	-40.3766	20.5725	3.90899	0
0.6020	284.982	-32.4656	-80.3146	-21.7594	-582.531	115.743	-124.001	37.3536	35.3205	0
0.6027	475.734	-28.4667	-72.1023	8.44162	-561.182	150.22	-187.497	59.6042	55.4937	0
0.6033	733.574	-18.4356	-51.3456	17.9319	-500.125	109.025	-185.336	80.6739	49.4208	0.321793
0.6040	1063.19	17.8933	10.6232	23.1227	-387.23	27.5477	-138.358	113.055	39.6483	0.321793
0.6047	1269.8	74.6234	103.068	17.9319	-278.279	-151.597	-64.5019	150.285	29.8758	0.321793
0.6053	1182.17	115.222	163.794	1.15351	-246.54	-349.665	12.1071	169.801	14.3097	0
0.6060	731.758	127.422	172.646	-16.8832	-250.511	-395.436	67.6397	170.733	-4.32781	0
0.6067	-83.3346	127.151	157.39	-28.7854	-191.602	-328.898	115.565	170.422	-22.3371	0.321793
0.6073	-922.32	123.152	132.677	-22.074	-139.711	-321.587	119.827	175.27	-21.4296	0
0.6080	-1431.6	111.562	102.465	-12.007	-80.2038	-284.038	105.175	175.891	-7.05014	-0.321793
0.6087	-1438.38	81.4012	66.753	-23.9092	131.579	-145.791	165.295	156.686	-7.39915	0
0.6093	-970.772	34.7022	21.2841	-36.3881	297.888	-60.9651	205.287	112.434	-11.3081	0
0.6100	-440.087	-9.89556	-26.332	-25.4297	219.779	-7.24716	143.627	58.9827	-0.62823	0
0.6107	-50.7462	-41.0056	-58.6538	-2.51676	73.8941	81.5623	82.2925	18.3971	16.1246	0.321793
0.6113	250.768	-60.2545	-69.051	23.1227	-12.4562	152.042	51.7732	1.3052	40.8349	0
0.6120	363.442	-76.7245	-75.7564	47.8184	-107.972	244.835	7.22279	-14.5437	70.1524	0
0.6127	255.069	-88.5856	-81.8591	55.7356	-194.948	318.684	-21.7868	-43.196	80.553	0.643587
0.6133	96.0451	-86.1456	-75.1537	48.1329	-201.965	275.964	-7.43001	-54.8185	71.339	0.321793
0.6140	10.0346	-82.4856	-73.3078	41.7362	-175.719	171.58	8.14044	-53.2647	64.3587	-0.321793
0.6147	-17.1065	-85.5356	-80.3146	40.4778	-128.424	52.2558	11.1894	-49.9084	65.8943	0.321793
0.6153	-6.1163	-91.9745	-87.0577	39.5865	-75.9339	-81.0961	-7.43001	-35.3026	68.6167	0
0.6160	127.869	-95.6345	-97.4173	34.7103	-100.955	-168.083	-65.7156	-35.6134	65.8943	-1.60897
0.6167	446.108	-83.0956	-96.2118	32.8751	-136.665	-185.481	-101.119	-55.44	65.5453	-0.643587
0.6173	801.331	-59.3056	-77.2633	41.107	-122.033	-223.624	-84.335	-60.5987	71.0598	0.643587
0.6180	933.788	-36.1256	-49.8011	44.7773	-122.033	-311.204	-75.1881	-42.0151	68.3375	0
0.6187	843.763	-11.1156	-11.9794	36.5454	-109.522	-365.515	-73.0568	-7.20969	56.1219	0.321793
0.6193	912.476	22.1633	40.8354	38.9573	-22.8454	-346.296	-41.6199	34.6189	45.7212	0.643587
0.6200	1017.12	62.1523	97.5679	61.5556	93.4215	-275.795	-3.16737	69.3622	43.6271	0
0.6207	612.777	89.9412	127.78	83.2102	159.646	-182.111	27.9735	84.9624	49.0717	0.321793
0.6213	-90.98	95.4312	126.273	98.7826	177.351	-68.8904	50.5596	88.3187	57.9368	0.321793
0.6220	-766.354	93.6012	111.016	116.19	214.584	69.6533	35.6107	90.4318	62.823	0.321793
0.6227	-1443.83	81.6723	82.6502	118.917	240.829	162.425	-7.72602	75.5153	58.565	0
0.6233	-1683.13	49.6134	41.4381	114.355	198.103	160.603	-23.9181	49.8463	52.1431	0
0.6240	-1250.69	13.8945	3.57875	130.242	134.625	145.346	-12.6103	32.1328	40.8349	0
0.6247	-663.237	-8.67556	-18.3835	153.417	95.5701	188.977	-9.56132	19.0187	19.1959	-0.321793
0.6253	-282.306	-24.1967	-31.493	114.04	79.3879	263.144	-6.80837	15.6624	2.0941	-0.321793
0.6260	-70.2419	-40.0567	-44.6402	-22.074	70.2497	289.081	2.33853	13.2385	-3.42036	0
0.6267	49.4083	-51.3756	-51.0442	-91.6518	57.4128	250.62	12.6991	-2.05103	-0.62823	0.321793
0.6273	89.0687	-58.4245	-53.1538	13.947	40.3331	188.363	19.4187	-29.2117	7.60856	0.321793
0.6280	68.0439	-63.3045	-57.4483	129.927	23.2534	151.131	13.0247	-61.2202	16.7528	0.321793
0.6287	32.015	-60.2545	-56.2052	161.335	7.07121	141.977	2.33853	-77.0691	22.8257	0.321793
0.6293	2.67588	-54.1545	-48.5956	162.278	-22.5463	104.13	-2.54574	-70.6674	21.639	0
0.6300	-15.2908	-47.7156	-42.4929	99.0972	-42.672	24.1784	0.503227	-60.2879	15.2171	0
0.6307	-12.5193	-37.0067	-33.6402	-38.8524	-15.5023	4.04739	21.254	-50.2192	13.6815	0
0.6313	1.14681	-26.9756	-25.0889	-92.8578	12.8642	148.991	33.7754	-40.1505	21.29	0
0.6320	9.74786	-22.7056	-23.8834	-29.3621	1.87659	330.89	15.452	-34.6811	27.7119	0
0.6327	20.3558	-17.2156	-20.5307	-41.8935	-13.9792	423.048	-1.9241	-23.0586	16.1246	0
0.6333	32.8751	-11.9967	-16.2362	-134.07	-17.95	495.985	-3.7594	-9.32287	-9.21404	0
0.6340	39.9471	-9.28556	-16.5376	-149.904	-14.9039	506.369	3.84821	-5.0965	-13.472	0
0.6347	46.9235	-3.45667	-14.7294	-158.451	-8.18628	390.096	20.9579	-2.05103	11.2383	0
0.6353	54.2822	1.42333	-10.4349	-187.446	-8.81181	226.506	34.3675	1.05659	52.7713	0
0.6360	59.1561	0.813334	-11.0376	-144.137	-16.427	79.1254	33.4498	1.92673	135.418	0
0.6367	63.4567	-1.62667	-11.678	-135.905	-24.9668	-40.813	31.0225	4.66144	242.567	0
0.6373	66.5148	-4.06667	-9.2294	-180.42	-25.2932	-141.828	28.2695	4.41283	282.843	0
0.6380	68.6173	-3.79556	-6.78078	-152.683	-6.66325	-214.469	20.9579	5.90448	237.052	0
0.6387	71.3887	0.203333	-4.63354	-95.8989	14.6864	-271.832	10.2718	12.617	140.025	0
0.6393	71.9621	2.30445	-6.78078	-73.3529	19.5818	-324.321	-13.2319	15.3517	-12.2854	0
0.6400	71.6754	1.69445	-8.92803	-58.6719	18.0588	-328.601	-40.7022	14.1708	-180.372	0
0.6407	69.1907	1.69445	-7.08215	-31.5119	20.5065	-296.858	-56.2727	12.3062	-231.049	0
0.6413	68.0439	2.91445	-4.33217	-4.66648	25.6739	-257.486	-59.6176	11.1253	-123.971	0
0.6420	67.6616	2.30445	-1.88355	6.34432	28.7472	-189.443	-57.1607	10.5038	-7.05014	0
0.6427	64.3168	0.813334	-0.37671	10.2768	19.5818	-107.648	-57.7823	9.57148	35.0413	0.321793
0.6433	64.699	-0.745556	-2.22259	16.4113	4.32431	-53.9511	-53.8157	11.3739	37.2052	0.321793
0.6440	68.0439	-2.23667	-5.27394	29.5194	1.57742	-32.2732	-43.1296	15.3517	46.3494	0
0.6447	67.3749	-0.135556	-6.17805	51.174	7.37037	-29.5184	-37.6533	15.9732	67.7092	0.321793
0.6453	65.2724	3.52445	-6.17805	74.6637	6.14651	-36.5537	-39.1629	12.9277	43.9063	0
0.6460	62.7877	3.86334	-4.63354	104.288	-3.91636	-41.7241	-40.0806	5.90448	-15.6359	-1.93076
0.6467	58.2005	6.30334	-0.075342	106.438	-13.6801	-39.9018	-37.3276	1.05659	-72.037	-1.28717
0.6473	55.8113	12.4033	5.72599	42.0508	-17.0525	-32.2732	-29.0984	7.76906	-134.93	0.643587
0.6480	52.7531	10.2345	9.68145	-20.2389	-14.3056	-27.9927	-25.1318	14.7301	-162.083	0
0.6487	48.7393	2.30445	7.87324	-27.2648	-10.3348	-26.467	-27.8847	15.0409	-115.106	-0.321793
0.6493	49.4083	-0.745556	2.67464	-7.39297	-7.88711	-23.1189	-28.8024	16.9055	-69.9429	0
0.6500	48.4526	-0.745556	-3.12669	33.7665	-9.41014	-21.2965	-30.3121	16.5947	-63.521	0
0.6507	45.3944	3.25334	-2.22259	62.7616	-7.28878	-16.4015	-27.5591	14.7301	-41.2538	0
0.6513	42.0496	8.40445	4.82189	41.4216	-2.6925	-8.47621	-19.9515	15.0409	-35.1111	0
0.6520	33.2574	3.86334	3.57875	56.6794	-10.3348	-8.77288	-24.8358	10.193	-65.3359	0
0.6527	31.7283	-2.57556	4.21915	118.602	-12.7554	-8.77288	-26.9671	6.83677	-78.4589	0.321793
0.6533	35.9333	-4.67667	8.17461	97.5767	-7.28878	-6.63263	-19.3299	9.26072	-92.4894	0.321793
0.6540	32.5884	-10.1667	4.21915	-5.29567	-12.157	-2.67001	-21.7868	6.83677	-112.663	0.321793
0.6547	34.1175	-12.6067	2.97601	-92.2286	-11.5587	9.53574	-21.1652	6.83677	-118.177	0
0.6553	38.7047	-7.45556	3.88011	-125.209	-6.36409	13.4984	-11.3966	11.3739	-127.95	0
0.6560	30.7727	-3.45667	-5.27394	-115.142	-13.3809	7.09883	-14.7416	7.14753	-129.136	0
0.6567	26.4721	2.03333	-8.92803	-79.4351	-15.5023	7.71335	-15.0672	4.41283	-82.7169	0
0.6573	30.7727	8.13334	-1.88355	-68.4243	-10.634	14.7274	6.60116	10.193	-24.7802	0
0.6580	26.1854	4.47334	2.07191	-122.167	-11.2323	15.6386	29.4832	13.86	-29.6664	0
0.6587	21.8849	-3.18556	10.6232	-167.626	-2.6925	8.01002	43.2184	18.1485	-76.6441	0
0.6593	17.011	-11.1156	20.0787	-135.276	2.80129	-14.2612	42.3007	22.6857	-91.582	0
0.6600	5.73404	-14.1656	16.7259	-81.2702	-1.46864	-33.1844	31.0225	29.0874	-52.2129	0.321793
0.6607	2.96258	-5.62556	11.5273	-56.8367	4.02515	-17.3127	28.5656	44.3769	-0.0698033	0.321793
0.6613	9.74786	4.47334	9.07872	-23.9092	11.042	8.92121	26.1382	57.1803	36.8562	0
0.6620	13.9528	2.64334	5.72599	36.86	6.77204	6.18763	13.0247	36.1106	82.0189	0.321793
0.6627	13.3794	-9.28556	3.57875	79.8546	0.652727	-11.5276	3.84821	-10.8767	125.716	0.321793
0.6633	9.46116	-14.7756	6.6301	84.7308	-2.39333	-21.5931	4.46984	-30.0818	131.16	0
0.6640	4.87393	-6.23556	11.8287	69.4729	-3.61719	-19.7708	11.1894	-24.9231	124.18	0
0.6647	1.81578	-1.96556	15.1814	43.2567	-4.84106	-7.24716	19.7147	-20.9454	115.943	0
0.6653	0	-9.89556	14.2773	19.4524	-6.36409	3.72953	19.7147	-15.7867	57.6576	0
0.6660	1.52908	-14.7756	12.1301	8.44162	-3.61719	9.53574	16.6657	-16.9676	-52.8411	0
0.6667	2.67588	-14.4367	8.17461	29.2048	-2.39333	11.3581	14.5344	-17.8999	-108.684	0.321793
0.6673	-0.955673	-14.4367	1.46917	90.8654	-4.21553	9.23907	10.5678	11.9954	-20.8014	0.321793
0.6680	-3.05815	-12.3356	2.97601	101.824	-1.16947	7.39549	8.73248	39.4668	129.625	0.321793
0.6687	-5.5429	-8.33667	13.6746	32.2459	-0.571136	7.09883	6.89718	22.9964	242.846	0
0.6693	-10.1301	3.52445	22.8286	4.77135	-1.46864	6.4843	6.30514	0.435067	307.553	0
0.6700	-12.5193	21.5533	29.8354	28.5757	0.951893	6.18763	10.5678	-26.7256	282.843	0
0.6707	-12.2326	32.2622	31.38	13.6324	-0.244773	2.20381	10.2718	-53.8862	112.872	0
0.6713	-8.31435	31.9234	22.5273	-34.553	-2.6925	-2.96667	8.14044	-27.0363	-142.887	0
0.6720	-3.05815	9.96334	13.0342	-65.3832	-6.66325	-5.72144	9.65013	14.4815	-319.28	0
0.6727	-2.19805	-32.4656	7.57187	-77.6	-10.634	-6.63263	16.3697	34.3082	-334.847	0
0.6733	-1.91135	-45.0045	0.828762	-74.2443	-5.14022	-5.10692	31.0225	44.6876	-249.058	0
0.6740	-2.19805	-22.7056	-8.62666	-34.2908	-1.795	-8.77288	34.6931	22.0641	-145.889	0.321793
0.6747	-5.8296	-3.18556	-10.4349	29.5194	-5.43939	-14.8757	22.1716	-14.2329	-76.0158	0.321793
0.6753	-8.60105	11.7933	-2.22259	97.5767	-5.14022	-11.5276	12.4031	-43.5067	-44.8835	0.321793
0.6760	-11.6592	8.40445	4.21915	163.799	-4.21553	-10.0019	3.25618	-74.0236	-26.8743	-1.28717
0.6767	-13.1883	-2.57556	13.9759	206.846	0.35356	-9.3874	-1.03606	-75.8882	-13.472	-1.60897
0.6773	-10.9902	-1.96556	17.63	202.546	4.92265	0.381429	2.93056	-37.7266	-7.95758	0.321793
0.6780	-11.6592	-1.35556	3.88011	167.469	-3.61719	4.95858	-1.62809	12.3062	-8.3066	0.321793
0.6787	-8.88775	5.35445	-7.38352	173.551	-7.58795	3.1362	-5.59471	39.7776	-7.39915	0
0.6793	-4.9695	6.57445	-7.98626	189.438	-3.31803	2.20381	-4.38104	18.7079	-7.67837	0
0.6800	-5.2562	-4.40556	-4.33217	123.531	-3.91636	2.20381	-6.51235	-19.3916	-11.6572	0.321793
0.6807	-2.19805	-5.28667	3.27738	17.6173	0.951893	8.30669	-2.54574	-27.0363	-13.7513	0.321793
0.6813	-0.382269	3.25334	6.93147	-69.0535	9.19257	8.92121	4.46984	-27.0363	-17.73	0
0.6820	-4.58723	6.30334	-0.37671	-111.786	6.77204	-5.42477	1.12486	-38.0373	-22.6163	0
0.6827	-6.49857	3.25334	-5.87668	-105.389	4.62348	-13.6679	-0.118406	-31.3248	-18.3583	0
0.6833	-4.01382	7.79445	-5.27394	-90.3935	3.69878	-5.72144	5.09148	-12.4305	-13.472	0.321793
0.6840	-2.77145	17.2833	-1.58218	-78.4913	0.951893	4.66192	4.17383	-8.14197	-11.3081	0.321793
0.6847	-0.668971	18.8422	5.42463	-61.4508	6.77204	9.8324	1.71689	-15.1652	-5.86348	0
0.6853	-0.382269	3.52445	4.21915	-63.5481	9.19257	5.25525	-4.38104	-12.6791	-0.62823	0
0.6860	-4.01382	-13.2167	-4.33217	-114.512	1.57742	-5.10692	-10.479	-7.83121	0.83764	0
0.6867	-4.30053	-5.89667	-5.87668	-139.575	0.0543939	-7.86169	-1.03606	-5.0965	5.16545	0
0.6873	-4.9695	6.57445	-6.17805	-108.116	-1.16947	-7.86169	5.09148	1.3052	13.9607	0
0.6880	-4.9695	6.30334	-4.9349	-94.0637	0.951893	-9.09074	4.46984	-23.9909	19.1959	0
0.6887	2.38918	-1.01667	1.77054	-85.2551	10.7428	-12.4388	12.6991	-56.6209	20.7316	0.321793
0.6893	3.34485	-11.7256	0.226026	-64.8064	5.24901	-21.5931	11.1894	-39.8397	21.0108	0
0.6900	-1.24237	-7.45556	-0.37671	-52.5897	-3.91636	-26.1703	7.81483	-0.49722	22.1975	0
0.6907	0	11.1833	4.52052	-42.8373	3.39962	-22.8222	20.0403	25.1096	24.6406	0
0.6913	-1.52908	16.9445	-2.52396	-44.3578	11.3411	-17.016	19.1226	21.7534	25.897	0
0.6920	-2.48475	6.57445	-7.08215	-49.8108	17.4332	-4.81025	10.2718	15.3517	25.897	0
0.6927	3.91826	3.25334	7.87324	-28.1562	24.4501	6.78097	10.8934	31.2627	30.7833	0.321793
0.6933	2.96258	9.62445	21.2841	-2.83135	21.7032	2.52167	2.33853	7.14753	37.4844	0.321793
0.6940	0.573404	19.1133	27.9896	-12.2692	18.3579	1.61048	-5.29869	-55.44	36.5769	0.321793
0.6947	10.0346	38.6334	38.0854	-27.8416	10.1173	18.9867	-1.33207	-71.5996	33.2264	0.321793
0.6953	16.1509	51.7823	38.9895	-19.6097	-13.0817	27.2298	-4.08502	-40.4613	30.5041	0.643587
0.6960	13.6661	21.2822	27.6882	-8.91351	-22.2199	22.0381	-5.29869	52.0216	30.7833	0.643587
0.6967	11.5636	-37.0067	9.98282	-10.1719	-12.7554	18.9867	-0.118406	167.625	45.7212	0
0.6973	8.50549	-53.8156	-11.3766	-12.007	-5.14022	15.0241	-3.46339	135.927	59.4724	0
0.6980	5.16063	-44.6656	-18.3835	-8.02216	4.92265	11.3581	-7.43001	21.194	57.3085	0
0.6987	-1.24237	-71.5056	-8.92803	11.5351	13.7889	8.01002	-8.05164	-22.1884	52.1431	0.321793
0.6993	-11.3725	-92.2456	-0.979446	43.2567	14.6864	4.95858	-6.51235	-38.6588	40.5557	0.321793
0.7000	-19.878	-64.7956	6.93147	57.5708	15.3119	4.66192	-1.33207	-43.5067	14.9379	0
0.7007	-27.8101	-30.9067	22.5273	55.7356	15.611	3.43287	-1.33207	-14.5437	1.18666	0.321793
0.7013	-32.3973	-59.3056	29.5341	58.2	11.9395	1.61048	-5.29869	14.7301	9.70266	0.321793
0.7020	-35.1688	-120.035	18.5341	45.9832	12.8642	1.29262	-7.43001	12.3062	20.7316	0
0.7027	-35.4555	-105.733	10.9246	18.2465	21.1048	1.90715	-5.59471	-31.9464	28.9684	0
0.7033	-24.7519	-45.8856	20.38	15.7822	28.4208	4.95858	1.71689	-31.0141	33.8546	0.321793
0.7040	-14.4307	-42.2256	32.2841	28.3135	26.5986	5.86978	5.68351	42.2015	34.1338	0
0.7047	-12.2326	-33.9567	27.3868	17.6173	18.9835	2.52167	4.76586	40.0883	30.5041	0
0.7053	-9.84343	56.6623	0.226026	-12.8984	13.1633	-1.14429	3.25618	-7.83121	24.0822	0.643587
0.7060	-9.84343	140.571	-35.7875	-28.4708	8.59423	-4.49239	-2.84175	20.5725	17.381	-0.643587
0.7067	-7.35868	173.511	-49.4997	-10.7486	11.6403	-1.14429	-3.46339	-15.1652	18.8469	-1.60897
0.7073	-1.24237	79.5712	-37.5957	11.2205	18.3579	2.20381	2.93056	-80.1767	25.897	0.321793
0.7080	-1.24237	-127.693	-12.2808	9.3854	15.611	-3.89906	2.04251	-5.65587	25.897	0.96538
0.7087	-3.05815	-188.083	14.2773	-2.51676	9.8181	-6.95049	-0.710439	45.5578	20.3826	0
0.7093	-6.78527	-146.875	21.8869	-7.70756	5.24901	-6.01811	-3.46339	38.8453	18.5677	0.321793
0.7100	-12.5193	-146.265	14.8801	-6.81621	4.02515	-7.24716	-9.2653	59.915	19.4751	0.321793
0.7107	-12.2326	-101.463	12.7328	-0.681621	10.7428	-3.28453	-6.80837	39.7776	21.0108	0.321793
0.7113	-10.9902	-11.9967	8.17461	5.71513	14.088	0.0847621	-2.24972	-5.96664	22.1975	0.321793
0.7120	-11.9459	27.6534	-5.27394	9.07081	7.9959	-4.49239	-6.80837	-22.1884	21.639	0.321793
0.7127	-7.93208	85.0612	-8.92803	10.5913	6.14651	-7.86169	-8.96929	-22.4992	21.0108	0.321793
0.7133	-2.48475	249.829	-3.72943	19.4524	6.14651	-9.3874	-7.43001	-25.5447	23.1747	0
0.7140	8.21878	316.997	2.37327	46.6124	5.84734	-8.47621	-5.59471	-35.3026	27.0837	0.321793
0.7147	20.0691	207.129	14.5787	71.6227	14.6864	-0.847621	-0.414423	-39.8397	30.155	0.321793
0.7153	18.54	73.4034	22.8286	80.7983	8.59423	5.25525	0.503227	-56.3723	29.5268	0.321793
0.7160	11.5636	-30.9067	23.7327	90.5508	-30.1614	5.57311	0.503227	-85.6461	28.3402	0.321793
0.7167	6.02074	-75.7756	29.5341	103.344	-78.6808	1.90715	3.84821	-81.3576	27.0837	0.321793
0.7173	-0.955673	-55.3745	35.3354	115.561	-112.568	-2.67001	2.63454	-41.0828	25.897	0
0.7180	-3.05815	-55.3745	23.13	119.546	-105.851	1.61048	1.12486	7.76906	22.5465	0
0.7187	-1.52908	-123.695	-0.075342	118.025	-66.1702	5.57311	2.33853	72.4698	17.9395	0.321793
0.7193	-2.77145	-136.233	-0.678078	93.2772	-16.7261	0.678097	1.71689	61.158	14.9379	0
0.7200	-4.9695	-6.23556	5.12326	8.75621	40.9314	1.61048	2.63454	-45.3713	6.3521	-0.321793
0.7207	-10.1301	99.3623	-13.4862	-60.507	83.3586	7.09883	2.04251	-25.5447	-7.95758	-0.321793
0.7213	-13.1883	66.4223	-27.8389	-58.0951	95.8692	8.92121	-2.84175	85.2732	-12.8438	0
0.7220	-11.9459	-2.23667	-11.0376	-83.42	96.1684	10.1503	-3.16737	67.5597	-7.39915	0
0.7227	-13.1883	-13.2167	9.98282	-158.451	91.5993	8.01002	-2.24972	-42.9474	-7.05014	0.321793
0.7233	-13.1883	33.1434	13.3732	-155.41	85.1808	4.66192	-4.67705	-37.105	-11.3081	0
0.7240	-8.60105	28.8734	0.527394	-66.327	78.164	6.18763	-6.80837	108.456	-6.14269	0
0.7247	-5.8296	-5.62556	-25.993	-8.91351	63.5321	6.18763	-8.05164	73.9614	5.16545	0
0.7253	-5.8296	10.8445	-46.147	-0.367027	46.4252	0.995955	-5.92032	-119.83	13.4022	0.321793
0.7260	-6.1163	30.4322	-42.7943	11.2205	33.9146	23.8817	-2.24972	-143.013	17.381	0
0.7267	-6.49857	118.882	-22.0375	25.8492	23.2534	81.5623	-1.33207	-68.8649	18.2885	0
0.7273	-6.1163	212.619	-0.979446	31.6692	12.565	115.425	-1.03606	-67.0004	15.8454	0.321793
0.7280	-9.46116	191.811	4.52052	42.9421	1.87659	110.233	-4.38104	-64.8872	11.5176	0
0.7287	-16.2464	147.62	10.9246	66.4319	-3.61719	94.9759	-7.72602	-49.9084	9.07443	0
0.7293	-16.8198	75.5723	22.5273	89.9216	-5.43939	81.2445	-4.38104	-107.897	8.51601	0
0.7300	-14.0484	8.40445	0.226026	99.4118	-11.5587	56.2185	-3.46339	-178.44	4.81643	0
0.7307	-8.88775	-15.0467	-46.4484	110.685	-13.9792	17.461	-2.84175	-178.751	3.28076	0
0.7313	-5.2562	-52.3245	-40.0443	113.726	-7.28878	-16.1048	2.63454	-133.255	3.62977	0.321793
0.7320	-10.9902	-73.0645	-8.92803	24.3286	-5.73856	-41.7241	0.503227	-59.4178	-2.1639	0.321793
0.7327	-14.4307	-85.2645	-19.2876	-92.2286	-3.61719	-63.1054	-1.03606	35.1783	2.0941	0.321793
0.7333	-9.46116	-89.1956	-19.8903	-79.4351	3.10045	-82.3252	4.17383	70.6052	28.3402	0.321793
0.7340	-7.64538	-33.6856	7.27051	-37.9086	2.17576	-91.1828	2.04251	17.2162	47.2569	0
0.7347	-7.35868	46.9023	20.6814	-56.8367	-1.16947	-80.4816	-2.24972	-18.2107	42.0914	0
0.7353	-4.58723	100.921	15.1814	-15.3627	-4.21553	-77.1335	-6.21634	42.2015	28.6194	0.321793
0.7360	-3.05815	100.582	-1.88355	67.061	-6.06492	-55.4768	-9.2653	161.534	20.3826	-0.96538
0.7367	2.67588	68.8623	-13.7876	98.1535	1.27826	26.9332	-2.24972	244.259	10.0517	-1.60897
0.7373	11.8503	56.0523	-3.72943	102.138	5.54818	106.885	2.33853	186.892	-15.0077	-0.321793
0.7380	14.3351	63.0334	19.7773	99.7264	3.10045	140.154	-2.24972	30.3304	-35.1111	0.321793
0.7387	10.9902	66.6934	35.034	66.4319	0.35356	136.488	-6.80837	-30.3926	-31.2021	0
0.7393	9.07889	47.5123	36.5409	9.96216	-2.39333	112.077	-11.3966	-22.1884	-20.5222	0
0.7400	12.806	35.9222	35.9382	-28.1562	1.57742	90.7166	-9.2653	-87.1378	-15.9152	0
0.7407	15.1952	31.9234	19.4759	-109.322	6.77204	63.2537	-0.118406	-121.322	-12.2854	0
0.7413	10.3213	-15.0467	-12.8835	-251.571	5.84734	17.461	3.25618	-18.8322	-8.86502	0.321793
0.7420	4.49166	-55.0356	-23.8834	-252.147	4.92265	-27.3993	1.42088	131.017	-4.32781	0.321793
0.7427	-1.91135	-72.7256	-14.1266	-92.5432	0.35356	-69.8016	-3.7594	214.364	3.00154	0.321793
0.7433	-8.88775	-87.0945	2.07191	12.7411	-3.91636	-116.506	-7.72602	174.338	8.51601	0
0.7440	-10.4168	-36.1256	20.0787	23.1227	0.951893	-144.265	-2.84175	68.8028	11.5176	0
0.7447	-14.7174	-22.7056	28.3286	31.9313	4.62348	-148.249	-0.710439	78.25	11.5176	0
0.7453	-21.4071	-90.1445	22.5273	64.5967	2.17576	-152.826	-4.08502	137.419	12.4948	0.321793
0.7460	-17.7755	-91.6356	12.4314	73.4578	0.0543939	-150.368	-3.46339	-25.5447	21.0108	0.321793
0.7467	-8.88775	-79.1645	6.93147	38.0659	-0.870302	-118.646	-1.9241	-213.183	26.5253	0
0.7473	-8.88775	-117.323	-3.42806	-10.1719	-0.870302	-71.9418	-0.414423	-143.324	21.9182	0
0.7480	-14.7174	-150.263	-1.88355	-48.6048	0.951893	-35.6213	2.93056	-4.47498	13.6815	0
0.7487	-17.7755	-139.283	29.2327	-98.6778	1.87659	-15.7869	3.25618	87.6971	3.00154	0
0.7493	-19.878	-52.3245	39.2909	-156.353	-0.244773	-12.1422	0.503227	107.213	-15.9152	0
0.7500	-19.3046	28.6022	3.27738	-134.646	-0.571136	-14.8757	0.799244	-11.1874	-29.9456	0.321793
0.7507	-16.8198	27.3822	-24.1848	-27.527	1.57742	-15.1936	1.42088	-101.184	-24.4312	0
0.7513	-13.7617	-66.9645	-13.1849	16.4113	6.14651	-10.0019	3.25618	-69.1757	-14.7285	0
0.7520	-8.31435	-206.383	-1.58218	-50.44	9.51893	-3.89906	7.81483	-40.772	-11.9364	0
0.7527	-6.1163	-154.533	-16.2362	-100.198	4.02515	-3.28453	7.22279	-25.8554	-8.58581	0
0.7533	-6.49857	59.1023	-33.9416	-70.2594	-2.6925	-4.81025	2.93056	49.8463	-4.95604	0
0.7540	-5.2562	22.1633	-29.3834	-26.9503	-4.21553	-3.89906	1.12486	147.488	-3.42036	0.321793
0.7547	-2.19805	-189.303	-16.8389	-10.4865	-0.870302	0.678097	2.93056	160.353	-0.349017	0.321793
0.7553	0.860105	-143.553	-10.1335	-7.13081	4.32431	6.18763	6.00913	76.6962	0.279213	0.321793
0.7560	-5.2562	71.9123	-4.33217	-8.65135	3.39962	6.4843	3.55219	-23.3693	-0.0698033	0
0.7567	-16.8198	130.472	2.37327	-13.8422	-1.16947	3.43287	-2.24972	-111.564	1.46587	0.321793
0.7573	-20.8337	13.6233	2.67464	-20.8157	-3.91636	2.20381	-5.29869	-153.392	2.0941	0.321793
0.7580	-16.2464	27.0434	-0.37671	-23.5946	-4.54189	3.72953	-5.29869	-102.427	-0.0698033	0.321793
0.7587	-9.84343	153.381	12.7328	-19.2951	-1.16947	7.71335	-1.62809	-12.4305	-2.79213	0
0.7593	-7.64538	-92.5845	34.4313	-13.8422	0.652727	9.23907	1.42088	80.6739	2.0941	0
0.7600	-10.4168	-378.539	38.0854	-14.4189	-2.39333	8.01002	-1.03606	149.352	1.46587	0.321793
0.7607	-9.46116	-149.925	9.98282	-15.9395	-6.06492	6.4843	-3.7594	131.95	-11.0289	0
0.7613	-0.668971	228.479	-29.9861	-6.81621	-6.06492	5.57311	-3.16737	86.1433	-11.6572	0
0.7620	11.8503	385.656	-40.0443	5.40054	-3.31803	7.09883	-0.414423	-4.16422	-4.04859	0
0.7627	17.6799	305.339	-21.1334	10.9059	-1.16947	9.8324	2.04251	-151.279	-1.60548	0
0.7633	14.9085	159.21	-3.42806	11.7973	0.0543939	11.0615	3.84821	-167.128	-0.62823	0
0.7640	9.74786	124.982	4.82189	8.44162	-1.46864	9.23907	2.63454	-152.46	-0.62823	0
0.7647	7.26311	137.86	4.82189	6.60648	-3.31803	8.01002	-1.9241	-237.92	-0.349017	0.643587
0.7653	9.46116	107.021	-4.33217	9.07081	-2.39333	9.8324	-5.00267	-240.344	1.18666	0
0.7660	9.74786	60.5934	-11.9794	7.86486	0.951893	11.9726	-5.00267	-197.023	1.81489	-1.60897
0.7667	3.63156	68.8623	-12.8835	6.02973	3.69878	13.8162	-1.9241	-203.114	3.00154	-0.96538
0.7673	-0.668971	67.3034	-11.3766	9.96216	2.80129	13.8162	-1.03606	-141.77	5.44466	0.643587
0.7680	0	-27.8567	-5.87668	13.947	0.0543939	11.9726	-3.16737	-35.6134	6.98033	0.321793
0.7687	-1.91135	-94.0756	11.8287	15.4676	1.57742	12.8838	-1.9241	-0.807982	8.79522	0
0.7693	-3.72712	-80.6556	35.6368	16.6735	6.44568	16.5498	2.63454	-4.78574	10.6101	0
0.7700	-4.01382	-135.623	40.8354	16.0967	8.8934	17.461	6.89718	20.5725	11.2383	0
0.7707	-10.7035	-253.082	16.7259	14.8908	4.02515	13.2017	5.68351	65.4466	9.07443	0.321793
0.7713	-20.8337	-186.592	4.21915	18.8232	-3.31803	8.62454	-1.03606	81.917	5.16545	-0.321793
0.7720	-27.5234	77.4023	28.3286	25.22	-6.66325	6.4843	-5.29869	98.6981	2.37331	-0.321793
0.7727	-34.7865	147.01	49.3867	28.8903	-6.06492	6.4843	-6.80837	166.755	1.46587	0.321793
0.7733	-39.087	121.051	29.5341	33.5043	-2.09416	9.53574	-2.84175	207.03	1.81489	0.321793
0.7740	-40.3294	160.43	-8.3253	35.3394	-0.870302	10.7648	-0.710439	201.809	1.81489	-0.321793
0.7747	-45.49	-202.723	-24.1848	32.2459	-4.84106	7.71335	-6.51235	257.063	1.46587	0
0.7753	-41.5718	-542.426	-28.1403	29.5194	-4.21553	7.71335	-10.479	280.245	4.258	0
0.7760	-24.4652	-308.66	-21.7362	31.04	0.652727	10.1503	-9.88694	215.545	6.98033	0
0.7767	-10.9902	-166.123	0.527394	27.6843	4.02515	11.9726	-8.34766	134.995	5.44466	0
0.7773	-6.1163	-421.849	17.3287	-1.94	5.84734	12.5872	-6.21634	33.3759	-0.977247	0.321793
0.7780	-7.35868	-720.004	31.38	-37.0173	3.10045	10.7648	-6.51235	-89.9346	-5.86348	0
0.7787	-7.07198	-867.76	46.3354	-24.4859	-1.16947	8.01002	-6.21634	-257.436	-3.69958	0
0.7793	-4.58723	-906.461	38.6881	9.96216	-2.39333	7.09883	-0.710439	-329.781	2.37331	0
0.7800	-9.84343	-763.382	9.38008	19.767	-2.99166	6.78097	5.09148	-219.336	4.53722	0.321793
0.7807	-10.7035	-139.555	-16.8389	10.5913	-4.84106	7.39549	9.05809	-81.9791	1.18666	0
0.7813	-3.72712	483.595	-32.4347	-5.29567	-7.28878	7.39549	10.5678	-6.58816	-4.04859	0
0.7820	-2.19805	558.083	-29.9861	-28.4708	-10.0085	5.57311	7.22279	-29.4603	-7.05014	0.321793
0.7827	0.286702	553.474	-24.1848	-42.8373	-8.48545	7.09883	6.00913	-85.6461	-7.39915	0
0.7833	8.50549	577.603	-34.8457	-33.9762	-5.43939	8.62454	6.89718	-49.0383	-5.51446	-0.321793
0.7840	10.608	423.476	-30.5889	-11.6924	-6.06492	6.18763	3.25618	40.7099	-2.79213	0.321793
0.7847	10.3213	316.387	-11.3766	15.7822	-4.21553	6.78097	1.42088	91.9857	-1.88469	-0.321793
0.7853	10.0346	382.877	-2.82533	29.5194	-1.46864	7.39549	1.42088	56.8695	-0.62823	-1.28717
0.7860	3.91826	424.696	5.72599	20.0292	-3.31803	5.25525	-1.03606	-42.6366	3.28076	0
0.7867	-3.44042	257.149	9.07872	9.96216	-5.14022	4.66192	-2.54574	-90.8048	6.3521	0.643587
0.7873	-7.64538	113.392	-3.42806	4.19459	-6.36409	3.43287	-5.92032	-101.495	6.70112	0.321793
0.7880	-6.49857	148.23	-13.4862	-1.31081	-3.91636	4.66192	-6.21634	-119.208	6.3521	0.321793
0.7887	-3.05815	162.26	-12.5821	12.4265	0.652727	8.01002	-1.33207	-97.2686	5.44466	0.321793
0.7893	-3.44042	115.222	-12.8835	33.1897	0.0543939	8.01002	-0.118406	-109.14	4.81643	0
0.7900	-4.01382	157.38	-27.2361	28.8903	-2.39333	6.78097	0.503227	-184.531	5.72387	0
0.7907	-5.5429	206.79	-39.4416	16.4113	-5.73856	4.34406	-1.62809	-223.873	4.81643	0.321793
0.7913	-10.1301	103.632	-27.5375	15.4676	-6.66325	4.66192	-2.54574	-180.242	2.72233	0.321793
0.7920	-11.3725	-0.135556	-13.1849	16.0967	-2.09416	8.92121	2.93056	-101.495	-0.349017	0
0.7927	-5.5429	7.52334	-6.78078	13.6324	-0.244773	10.1503	4.17383	-126.853	-4.95604	0
0.7933	3.63156	-12.3356	17.0273	12.1119	-0.244773	10.1503	2.33853	-205.6	-6.77092	0
0.7940	7.93208	-125.253	38.3868	10.9059	0.0543939	10.1503	1.42088	-151.838	-8.3066	0
0.7947	-2.19805	-91.3645	27.9896	8.75621	-1.46864	7.09883	-1.62809	-50.8407	-10.7497	0.321793
0.7953	-17.3932	164.09	13.0342	7.86486	0.652727	4.66192	3.25618	56.5588	-12.5646	0
0.7960	-23.8918	223.87	7.27051	6.02973	6.77204	2.81834	13.9424	238.79	-13.7513	-1.60897
0.7967	-29.3391	9.35334	-11.678	4.77135	7.66954	-1.14429	14.2384	390.131	-13.472	-0.643587
0.7973	-32.9707	-22.3667	-37.5957	4.50919	3.69878	-3.5812	6.89718	362.97	-12.5646	0.643587
0.7980	-27.8101	81.6723	-40.9484	3.88	0.35356	-3.28453	2.04251	83.0979	-11.0289	0.321793
0.7987	-23.5095	-39.4467	-19.8903	3.25081	-0.244773	-3.5812	0.799244	-160.105	-8.86502	0
0.7993	-24.4652	-145.383	11.8287	2.67405	1.57742	-6.95049	2.33853	-195.78	-7.67837	0.321793
0.8000	-23.8918	-43.1745	44.1881	2.98865	2.80129	-5.10692	0.799244	-220.206	-5.86348	0
0.8007	-22.6494	-116.375	66.4517	2.98865	0.0543939	4.34406	-5.00267	-108.829	-4.95604	0
0.8013	-20.8337	-326.621	75.3044	2.67405	-2.39333	8.62454	-10.183	134.995	-4.60702	0.321793
0.8020	-15.2908	-189.913	78.9585	2.04486	-1.16947	2.81834	-8.96929	227.478	-4.60702	0
0.8027	-8.31435	-6.84556	83.8557	1.15351	2.80129	-1.14429	0.207211	231.767	-5.23525	-0.321793
0.8033	-2.19805	-121.865	70.4071	1.73027	7.07121	0.381429	10.5678	218.031	-4.95604	0
0.8040	2.10248	-43.1745	45.0922	2.98865	7.37037	2.52167	12.1071	118.525	-2.51292	0.321793
0.8047	4.20496	201.3	45.0922	4.19459	4.92265	8.92121	6.00913	86.7648	-0.62823	0.321793
0.8053	4.87393	164.361	61.8935	4.19459	3.69878	14.7274	-0.414423	156.686	0.279213	0.321793
0.8060	6.97641	139.351	58.2017	3.5654	6.44568	14.1129	-0.710439	113.055	1.46587	0
0.8067	13.0927	251.049	52.099	4.19459	10.1173	11.9726	4.76586	33.3759	1.81489	0
0.8073	13.6661	114.002	33.7909	4.19459	8.29507	7.09883	5.09148	55.0671	0.558427	0.321793
0.8080	2.38918	-96.5156	-33.0375	2.35946	3.69878	0.0847621	-0.710439	58.1126	-1.25646	0.321793
0.8087	-10.4168	-117.595	-100.469	1.41567	4.02515	0.0847621	-4.08502	95.0311	-2.1639	0.321793
0.8093	-19.3046	-121.865	-134.636	1.73027	6.44568	4.04739	-4.67705	184.717	-2.51292	0.321793
0.8100	-26.8544	-241.831	-99.5645	2.04486	7.07121	6.18763	-4.38104	246.062	-1.60548	0.321793
0.8107	-31.4416	-474.987	-38.5375	1.41567	5.54818	5.86978	-4.67705	264.707	-1.25646	0.321793
0.8113	-30.8682	-557.337	-22.3389	-0.681621	2.50212	3.43287	-6.51235	126.48	-2.1639	0.321793
0.8120	-26.281	-434.659	-8.92803	-1.94	0.951893	1.90715	-6.21634	-45.0605	-2.51292	0.321793
0.8127	-22.9361	-180.763	2.07191	-0.996216	1.27826	1.61048	-2.54574	-78.9336	-2.51292	0
0.8133	-22.6494	175.68	-7.38352	1.15351	1.57742	2.20381	2.04251	-62.1525	-3.69958	0
0.8140	-24.4652	265.418	-10.1335	2.04486	1.87659	1.90715	5.09148	-40.1505	-4.60702	0
0.8147	-27.8101	199.199	9.07872	0.838918	-0.870302	-1.14429	2.63454	-6.89892	-5.23525	0.321793
0.8153	-30.2948	243.729	37.784	-0.104865	-4.54189	-3.89906	-1.03606	32.1328	-6.42191	0.321793
0.8160	-27.8101	158.871	49.6881	0.838918	-6.66325	-4.19572	-1.03606	54.4456	-7.67837	0
0.8167	-15.2908	-3.79556	32.8868	2.98865	-4.54189	-2.05548	2.63454	9.26072	-7.05014	0
0.8173	-2.77145	50.2234	-9.2294	4.77135	0.652727	0.995955	6.60116	-76.8205	-5.23525	0.321793
0.8180	-0.955673	243.39	-73.6092	3.88	-0.244773	-1.14429	4.17383	-179.31	-4.32781	0.321793
0.8187	-1.91135	340.787	-123.975	2.98865	-2.39333	-3.28453	0.503227	-240.965	-3.69958	0.321793
0.8193	-6.78527	343.837	-118.174	3.88	0.951893	-1.44096	1.71689	-174.773	-3.07135	0.321793
0.8200	-13.7617	250.71	-81.2564	3.5654	2.80129	-0.847621	2.63454	-64.2657	-2.79213	0.321793
0.8207	-13.475	42.6323	-30.5889	2.98865	4.32431	0.678097	3.84821	-44.1283	-2.1639	0
0.8213	-7.64538	-124.305	27.0855	2.35946	6.77204	2.20381	4.76586	-51.1515	-1.60548	0.321793
0.8220	9.07889	-225.632	67.9962	0.20973	4.02515	-0.529763	0.799244	6.83677	-1.88469	0.321793
0.8227	21.3115	-346.209	81.1057	-0.367027	2.50212	-1.44096	-0.414423	22.6857	-1.88469	0.321793
0.8233	8.50549	-334.28	43.8867	0.524324	4.62348	1.29262	2.04251	-42.0151	-1.60548	0.321793
0.8240	-5.2562	-186.863	-18.0821	1.15351	4.62348	1.29262	2.33853	33.3759	-1.88469	0
0.8247	-4.9695	-73.6745	-37.897	1.73027	4.92265	1.61048	2.93056	297.337	-2.1639	0.321793
0.8253	-7.64538	170.8	-14.1266	2.35946	1.87659	0.0847621	4.17383	416.981	-2.79213	0.321793
0.8260	-12.2326	296.799	24.9382	-0.367027	-3.31803	-3.89906	3.25618	226.235	-4.04859	-1.28717
0.8267	-6.49857	8.40445	62.7976	-0.996216	-1.795	-2.96667	5.38749	-18.8322	-3.07135	-1.28717
0.8273	-7.64538	-157.583	81.7084	2.67405	0.951893	-0.233096	8.43646	-105.473	-1.88469	0.321793
0.8280	-19.3046	-52.9345	65.5476	3.5654	1.27826	0.678097	8.43646	-68.8649	-2.51292	0.643587
0.8287	-18.6356	-150.535	-4.9349	2.35946	2.17576	0.0847621	6.30514	-29.4603	-2.79213	0.321793
0.8293	-14.7174	-428.559	-85.5132	1.73027	2.50212	-1.44096	2.63454	-33.7488	-3.07135	0.321793
0.8300	-20.8337	-359.29	-93.7632	1.73027	4.92265	-0.529763	0.503227	37.6644	-2.79213	0.321793
0.8307	-22.9361	2.30445	-55.9038	-0.996216	4.92265	-0.529763	-3.16737	225.054	-3.07135	0.321793
0.8313	-15.9597	-3.45667	-47.0511	-5.29567	1.87659	-3.28453	-9.2653	269.555	-5.23525	0
0.8320	-10.9902	-329.671	-55.3011	-4.66648	3.10045	-2.37334	-7.43001	42.2015	-6.14269	0
0.8327	-20.8337	-266.841	-38.1984	-2.83135	-0.571136	-3.89906	-3.7594	-103.67	-6.42191	0.321793
0.8333	-34.7865	148.501	-44.6402	-2.51676	-7.28878	-7.86169	-3.46339	-29.2117	-7.95758	0.321793
0.8340	-27.8101	365.458	-123.071	-0.681621	-8.48545	-8.47621	-1.62809	-13.6114	-7.95758	0.321793
0.8347	-11.9459	423.747	-136.181	0.20973	-8.18628	-7.86169	1.12486	-142.391	-6.77092	0.321793
0.8353	-10.1301	417.647	-68.4106	1.73027	-2.99166	-3.89906	8.14044	-156.438	-4.95604	0
0.8360	-16.5331	252.54	-107.174	2.67405	0.35356	-2.37334	13.6167	94.7204	-3.07135	0
0.8367	-16.8198	194.251	-152.944	1.73027	-1.795	-3.89906	9.97574	271.731	-2.79213	0
0.8373	-18.9223	320.047	-66.9037	0.524324	-3.61719	-4.81025	4.46984	77.3177	-3.07135	0
0.8380	-29.0524	348.378	10.3219	-0.367027	-5.43939	-6.33597	0.799244	-222.941	-3.07135	0
0.8387	-24.7519	265.689	39.8936	0.838918	-2.09416	-4.81025	0.799244	-278.505	-2.1639	0.321793
0.8393	-6.1163	195.539	85.7016	2.04486	2.80129	-1.75881	1.42088	-183.288	-1.60548	0.321793
0.8400	5.73404	126.812	126.575	0.838918	3.10045	-1.14429	-0.118406	-185.152	-2.1639	0
0.8407	9.07889	30.4322	126.273	-1.6254	1.27826	-2.37334	-1.9241	-244.321	-1.88469	-0.321793
0.8413	9.74786	-93.8045	86.907	-3.14594	-1.46864	-5.10692	-6.21634	-215.358	-2.1639	0
0.8420	13.6661	-219.532	77.4516	-2.20216	0.0543939	-4.81025	-6.21634	-75.5774	-2.1639	0
0.8427	17.3932	-262.571	88.4139	-0.367027	4.62348	-0.847621	-0.414423	59.2935	0.279213	0.321793
0.8433	10.3213	-151.483	-3.42806	-0.104865	4.62348	0.0847621	2.93056	98.0766	1.46587	0.321793
0.8440	-10.1301	-12.6067	-125.482	-0.681621	2.17576	-2.67001	8.43646	66.6274	1.18666	0.643587
0.8447	-45.2033	-66.3545	-115.725	-1.6254	-1.795	-6.63263	15.156	-59.4178	-0.349017	0.321793
0.8453	-73.3001	-155.415	-97.1159	-1.94	-3.61719	-7.24716	14.5344	-182.977	-1.88469	0
0.8460	-60.7808	-108.783	-135.578	0.524324	1.57742	-2.67001	12.6991	-50.2192	-0.62823	0.321793
0.8467	-19.878	-174.663	-89.8077	1.41567	4.02515	-2.05548	11.1894	105.721	0.558427	0.321793
0.8473	10.608	-248.541	-11.9794	-0.104865	1.57742	-5.72144	0.503227	-75.2666	0.558427	0
0.8480	25.3253	12.4033	24.3355	-1.6254	0.652727	-7.54383	-12.6103	-229.716	0.279213	0
0.8487	33.8308	355.427	52.7394	-2.51676	1.87659	-8.15835	-11.3966	-173.84	0.558427	0
0.8493	25.612	352.648	26.7841	-1.94	4.92265	-6.33597	1.12486	-58.7962	1.46587	0
0.8500	6.68971	126.812	-4.9349	-0.367027	7.66954	-4.49239	6.00913	177.694	1.81489	0.321793
0.8507	-1.52908	-37.0067	41.7395	-0.681621	6.77204	-5.10692	4.17383	250.661	1.46587	0.321793
0.8513	-0.668971	-361.73	55.4894	-2.51676	4.62348	-5.10692	-0.710439	-23.3693	0.83764	0.321793
0.8520	7.54981	-734.034	-33.6402	-3.77513	0.951893	-6.01811	-12.9359	-181.174	-0.349017	0.321793
0.8527	18.2533	-581.466	-83.366	-2.83135	-0.571136	-9.68407	-23.2965	-25.8554	-0.62823	0
0.8533	3.63156	-157.583	-21.1334	0.838918	1.87659	-8.77288	-23.5925	128.593	0.558427	0.321793
0.8540	-34.7865	84.1123	27.9896	2.67405	-1.46864	-2.67001	-16.2809	3.7913	0.558427	0.321793
0.8547	-62.8833	157.99	-2.52396	1.41567	-7.58795	-1.75881	-73.9744	-139.657	-0.0698033	0.321793
0.8553	-67.4705	70.3534	-36.0888	0.524324	-9.11098	-8.15835	-211.592	-70.108	0.279213	-0.321793
0.8560	-47.3058	-34.9056	-36.6916	-0.367027	-6.96242	-12.7355	-275.384	-60.2879	0.279213	-1.93076
0.8567	-14.7174	-61.1356	-69.3523	3.25081	-0.244773	-9.68407	-223.492	-115.541	3.90899	-0.643587
0.8573	3.91826	-103.903	-138.931	6.60648	4.02515	-4.49239	-150.258	-130.209	7.60856	0
0.8580	2.67588	96.6512	-159.085	3.25081	0.35356	-3.89906	-93.4819	-126.232	6.70112	-1.60897
0.8587	-13.1883	414.326	-86.116	2.98865	-2.6925	-3.89906	-74.2704	-53.5754	6.07289	-0.321793
0.8593	-31.4416	360.578	8.47598	5.40054	-4.84106	-4.81025	-95.3172	124.616	6.07289	0.643587
0.8600	-18.6356	257.488	-23.2807	5.71513	-3.61719	-4.19572	-64.7979	270.798	5.44466	0.321793
0.8607	13.9528	207.129	-131.283	6.92108	1.57742	-1.14429	13.0247	141.397	5.72387	0
0.8613	21.0248	107.021	-103.821	5.71513	2.17576	-0.847621	56.3615	-112.185	5.44466	0
0.8620	21.5982	84.7223	28.9313	3.5654	0.35356	0.678097	96.6197	-345.319	4.81643	0.321793
0.8627	35.9333	-45.0045	145.184	3.5654	-15.2031	0.995955	126.843	-509.215	5.44466	0.321793
0.8633	39.9471	-143.825	213.256	2.98865	-39.9251	-1.44096	135.072	-272.104	5.44466	0
0.8640	28.3835	18.5033	181.499	3.88	-43.8959	0.381429	107.01	158.8	6.70112	0.321793
0.8647	6.97641	144.57	67.9962	4.50919	-36.2535	0.678097	-42.8335	402.002	7.60856	0.321793
0.8653	-8.88775	83.5023	-34.8457	2.98865	-32.6091	-1.75881	-181.991	541.472	6.3521	0.321793
0.8660	-16.2464	128.371	-58.3524	1.41567	-25.5923	-3.28453	-176.81	341.901	4.258	0.321793
0.8667	-29.9126	259.928	31.0409	-0.367027	-12.4562	-5.10692	-148.719	-186.333	1.18666	0
0.8673	-37.2712	229.699	120.472	-1.6254	8.8934	-1.14429	-121.87	-428.355	-1.25646	0.321793
0.8680	-22.9361	105.191	73.1571	-1.6254	26.2994	2.20381	-49.8491	-181.796	-2.1639	0.643587
0.8687	2.10248	72.1834	-1.28081	-2.20216	24.4501	-5.10692	22.7932	142.64	-3.07135	0
0.8693	22.5539	109.461	12.7328	-3.77513	16.2366	-10.6165	78.9475	164.891	-3.69958	0
0.8700	35.9333	85.0612	52.4381	-4.66648	18.0588	-6.95049	130.514	151.155	-3.42036	0.321793
0.8707	46.9235	13.2845	50.2908	-4.35189	26.0003	0.0847621	158.28	131.639	-0.977247	0
0.8713	62.7877	-127.355	70.1058	-1.94	26.5986	8.92121	173.229	-39.5911	2.0941	0.321793
0.8720	82.379	-413.309	165.941	-0.996216	22.927	20.8303	193.387	-41.3935	2.72233	0.321793
0.8727	85.4371	-680.354	236.762	1.73027	12.565	25.0896	212.303	73.6507	4.81643	0.321793
0.8733	64.9857	-532.327	156.184	7.23567	-22.8454	18.3934	205.583	165.823	9.42345	0.321793
0.8740	55.5246	-62.0845	-9.2294	8.75621	-51.2118	21.4448	147.89	326.673	12.1458	0
0.8747	50.6506	187.541	-47.6915	9.3854	-44.195	35.1763	85.6375	560.74	13.0532	0
0.8753	9.46116	197.369	3.88011	7.23567	-34.4313	29.6667	50.8556	571.989	10.3309	0
0.8760	-30.2948	58.1534	18.5341	0.524324	-38.1029	4.66192	25.2206	101.433	4.81643	0
0.8767	-30.8682	-102.683	-4.9349	-3.46054	-23.7429	-6.33597	11.7814	-420.399	1.46587	0.321793
0.8773	-29.3391	-34.2956	-114.821	-2.83135	49.7976	-8.47621	2.33853	-555.332	0.279213	0.321793
0.8780	-42.8141	54.8323	-234.427	1.15351	137.997	-11.2098	-3.7594	-367.632	2.0941	0.321793
0.8787	-44.9166	-29.0767	-257.029	4.77135	171.558	-9.3874	22.7932	-184.531	5.44466	0.321793
0.8793	-36.6978	-171.613	-269.536	3.5654	159.347	-18.5417	67.3437	-135.057	5.16545	0
0.8800	-28.7657	-298.9	-309.505	0.838918	120.591	-31.362	104.257	-151.59	1.46587	0
0.8807	-14.0484	-409.988	-396.487	-0.996216	89.1516	-35.9391	85.3415	-236.677	-0.349017	0
0.8813	-0.382269	-509.757	-446.552	-1.31081	82.1348	-30.7475	-19.3299	-173.84	1.18666	0
0.8820	-9.84343	-390.129	-278.69	-0.104865	65.0551	-12.4388	-88.3016	160.913	4.53722	0.321793
0.8827	-32.1106	-266.841	-48.897	-2.20216	26.0003	-0.233096	-77.0234	425.247	5.44466	0
0.8833	-29.9126	-628.775	134.825	-8.33675	-10.0085	-3.28453	-55.947	357.75	2.0941	0
0.8840	-27.5234	-871.081	298.694	-11.6924	-36.8791	-6.95049	-31.8513	107.835	-0.977247	0
0.8847	-46.7324	-531.446	302.046	-9.85729	-52.7349	-5.42477	3.55219	35.1783	1.46587	0.321793
0.8853	-37.8446	-187.202	225.762	-8.02216	-47.5675	-2.67001	45.0537	247.926	3.62977	0.321793
0.8860	-11.9459	-59.0345	164.133	-8.91351	-49.0905	-5.10692	78.6219	120.327	-0.349017	0
0.8867	-12.5193	223.599	-3.42806	-9.2281	-72.2895	-7.86169	72.5239	-549.179	-4.04859	0
0.8873	-8.88775	449.706	-139.835	-3.46054	-82.3523	3.72953	-15.6593	-591.319	-3.07135	0.321793
0.8880	8.50549	458.585	-60.801	4.50919	-74.4108	22.6527	-113.641	8.32843	1.18666	0.321793
0.8887	30.7727	473.225	56.6949	9.96216	-71.6639	25.4074	-106.003	44.0661	7.25955	0.321793
0.8893	73.2045	419.816	48.7463	11.2205	-67.394	11.3581	-46.8002	-109.451	11.2383	0.321793
