MR32 ASCII
Name	CORE30_fast
Frequency	1500
Date	28-08-2015 14:23:57
"Time,s"	"RT TIB.ANT.,uV"	"RT MED. GASTRO,uV"	"RT LAT. GASTRO,uV"	"RT BICEPS FEM.,uV"	"RT VMO,uV"	"RT VLO,uV"	"RT RECTUS FEM.,uV"	"RT SOLEUS,uV"	"RT SEMITEND.,uV"	"Channel 12,uV"
0.0000	-3.71751	24.1972	18.4343	0.661314	-1.41821	7.05743	-31.1476	14.0498	-19.099	-9850.97
0.0007	0.840865	29.3456	18.1229	4.31594	1.62677	11.0212	-28.4116	10.6908	-22.7178	-10158.7
0.0013	2.38983	33.9147	16.0054	11.0335	4.68217	18.3364	-25.0538	12.8218	-29.4527	-9544.24
0.0020	-3.71751	32.4346	13.5454	15.9063	7.42473	21.0756	-30.2318	14.3387	-39.2032	-9899.56
0.0027	-3.40771	30.3109	20.5828	22.9371	11.085	26.5862	-35.7265	20.4426	-40.7613	-9823.67
0.0033	-4.95668	26.6427	22.1086	22.9371	11.085	25.6517	-40.9159	24.4156	-41.0629	-9796.99
0.0040	-7.70055	26.3209	16.0054	16.8461	10.7825	20.4633	-42.7474	21.3456	-39.2032	-9818.59
0.0047	-4.0273	31.2118	14.4796	13.7832	11.3978	18.9487	-49.7684	20.4426	-30.6589	-9817.32
0.0053	-7.70055	30.5683	12.331	9.81529	8.03998	13.7604	-74.4829	19.8286	-26.3868	-9805.89
0.0060	-11.3295	29.3456	13.5454	8.91033	6.50707	12.5358	-96.7668	22.2846	-24.5774	-9798.58
0.0067	-5.8418	32.692	16.9084	9.18878	6.20466	15.5973	-106.535	26.8355	-20.6068	-9917.02
0.0073	-7.39076	32.4346	11.428	4.94245	4.37976	14.0826	-119.039	25.6436	-18.7975	-9625.85
0.0080	-13.4981	27.2219	4.70198	1.56627	3.15968	14.3727	-139.186	22.8986	-16.6362	-9873.84
0.0087	-15.3126	21.1082	3.79895	0.974568	3.46209	16.8218	-139.492	21.3456	-13.8719	-10404.4
0.0093	-13.4981	18.9845	4.39059	3.09773	4.98458	17.1119	-97.072	21.0566	-13.2688	-5782.49
0.0100	-11.6393	21.43	3.17617	6.16066	6.50707	18.9487	-41.2211	20.1537	-14.8269	38.4208
0.0107	-10.7542	22.6527	1.96175	6.75236	6.50707	22.9125	5.77729	18.6006	-14.1735	107.959
0.0113	-9.51505	20.2073	2.86478	5.2209	7.12232	26.264	47.2811	17.9866	-13.8719	-271.486
0.0120	-7.70055	19.3063	5.01337	4.31594	9.56247	28.1008	70.7746	17.6977	-14.1735	84.1448
0.0127	-6.15159	20.2073	5.01337	4.31594	6.20466	27.8108	65.5852	16.1807	-14.5253	7.62066
0.0133	-7.39076	18.9845	3.48756	4.94245	15.3604	25.0716	62.2274	13.4358	-16.9378	-19.0517
0.0140	-7.39076	17.1826	2.86478	7.37887	54.1213	22.0102	89.3954	11.3048	-20.3053	2.22269
0.0147	-5.26647	18.0836	3.48756	9.81529	83.1111	20.1733	111.057	10.9798	-19.7021	-0.317528
0.0153	-4.33709	19.3063	4.0792	7.97057	82.4959	17.7241	104.647	10.9798	-15.7316	-0.317528
0.0160	-4.0273	18.6628	3.48756	5.53415	72.4329	16.8218	101.594	10.0768	-14.1735	-0.317528
0.0167	-4.33709	18.4053	2.55339	5.2209	59.6169	17.7241	108.31	8.23484	-13.5704	-0.317528
0.0173	-4.95668	17.7618	2.27314	3.72424	39.1676	16.8218	100.679	7.00684	-10.8563	0
0.0180	-4.0273	17.1826	3.48756	3.41099	16.5805	16.2095	86.3428	7.3319	-8.99664	-0.317528
0.0187	-1.28342	18.6628	5.32476	6.75236	-3.86879	16.2095	84.8165	8.84884	-7.48882	-0.635055
0.0193	-1.28342	20.2073	5.01337	7.06562	-30.4185	13.4704	90.6164	9.13778	-6.28257	-0.317528
0.0200	-3.09792	18.4053	1.96175	2.19278	-48.1148	10.1189	105.868	5.77884	-7.79039	-0.317528
0.0207	-1.28342	17.1826	0.747334	-0.243642	-42.3168	11.3112	149.203	4.26189	-5.98101	-0.317528
0.0213	-0.973633	17.7618	1.02758	-3.30657	-33.4634	11.0212	192.844	6.1039	-1.70886	-0.317528
0.0220	-3.40771	18.0836	0.124556	-8.17941	-33.7763	7.66972	191.012	7.00684	1.35704	0
0.0227	0.531072	20.529	1.96175	-7.90096	-32.5562	9.79662	155.003	8.84884	6.83544	0
0.0233	2.38983	21.1082	2.27314	-9.39762	-23.7028	10.1189	105.563	10.0768	10.2029	0
0.0240	0.840865	19.6281	0.124556	-11.8688	-14.2446	7.95975	59.1748	10.0768	8.99664	0
0.0247	2.08003	19.8855	-0.186834	-9.11917	-9.66675	7.66972	4.55626	13.4358	6.83544	-0.317528
0.0253	1.15066	19.8855	-1.71264	-7.58771	-5.9961	4.60828	-78.4513	16.1807	3.51824	0
0.0260	0.840865	19.6281	-1.40125	-6.68275	-0.510972	3.09367	-136.439	15.2417	2.26173	0
0.0267	6.37287	19.8855	2.27314	-3.30657	4.98458	6.44514	-136.439	10.6908	5.93075	0
0.0273	9.11674	16.8608	2.86478	-2.40161	11.3978	7.66972	-122.702	0	6.53387	0
0.0280	4.51412	12.2917	-0.498223	-4.21152	17.4982	6.12289	-117.818	-11.5938	3.51824	-0.317528
0.0287	-0.044256	12.2917	-2.92706	-2.99332	17.8006	8.57204	-104.703	-10.3658	1.96016	0
0.0293	0.265536	15.6381	-3.23845	-0.243642	8.3424	11.9235	-73.8724	0	2.91511	0
0.0300	1.15066	16.2173	-2.02403	-0.556896	-3.25353	13.4704	-38.4738	5.77884	4.72449	0
0.0307	0.531072	14.7371	-1.08986	-2.40161	-5.69369	14.6949	-6.43303	6.1039	6.83544	0
0.0313	0.840865	12.5491	-0.498223	-3.61982	-1.73105	13.7604	50.0284	2.13095	9.90133	-0.317528
0.0320	2.08003	11.6481	0.435945	-3.93308	2.54443	11.3112	117.163	-2.74495	11.1076	0
0.0327	2.69962	11.6481	1.02758	-2.71487	5.28699	11.9235	142.793	-4.26189	10.806	0
0.0333	5.44349	11.9699	0.435945	-1.1834	4.68217	14.3727	148.288	-4.26189	10.2029	0
0.0340	6.63841	10.7472	-1.40125	-1.77511	3.15968	12.5358	160.803	-6.1039	8.69508	0
0.0347	4.51412	9.84621	-2.30428	-3.93308	1.92918	9.18433	150.424	-7.3319	7.48882	-0.635055
0.0353	3.89453	10.4254	-0.498223	-3.30657	-0.198132	11.6335	111.057	-5.20095	7.79039	-0.635055
0.0360	6.37287	11.9699	2.55339	0.034806	-2.03346	15.5973	75.6587	-0.614001	10.5045	0.635055
0.0367	6.63841	10.7472	1.96175	-0.243642	-5.69369	11.0212	60.0906	0	11.1076	0
0.0373	2.38983	8.62348	-1.40125	-3.61982	-9.96916	3.09367	55.817	-2.74495	7.48882	-0.952583
0.0380	0.265536	8.30171	0.435945	-0.556896	-10.2716	3.3837	61.6169	-2.13095	6.23231	0
0.0387	-3.40771	7.07897	1.33897	3.72424	-11.1892	5.5106	70.1641	-1.228	2.56329	0.635055
0.0393	-6.77117	6.7572	-0.498223	5.2209	-12.4093	6.73518	74.743	-0.614001	-1.70886	-0.317528
0.0400	-4.64688	9.84621	1.65036	8.28383	-11.1892	10.4089	75.964	3.97295	0.753908	0
0.0407	-10.1346	8.62348	1.65036	7.06562	-11.7941	9.18433	68.0273	5.20095	0.150782	0.317528
0.0413	-15.6224	5.27705	0.435945	4.00269	-14.2446	7.05743	58.259	3.35895	-4.12137	-0.635055
0.0420	-9.51505	2.83159	1.33897	3.41099	-16.9872	7.95975	50.6389	0.902943	-4.12137	-1.27011
0.0427	-1.90301	0.707897	2.27314	1.56627	-20.0426	6.44514	53.6915	-4.26189	-1.35704	-0.952583
0.0433	2.08003	1.86627	3.48756	0.974568	-20.9498	5.5106	65.5852	-5.48989	2.26173	-0.317528
0.0440	-1.90301	6.49978	1.96175	-0.87015	-20.9498	6.73518	47.2811	0	5.32762	0.317528
0.0447	-8.58567	9.84621	-2.30428	-4.83803	-21.2627	7.05743	17.9763	6.7179	6.83544	0.317528
0.0453	-13.4981	10.7472	-5.3559	-6.9612	-21.5651	2.77141	35.0707	11.5938	5.62918	0
0.0460	-13.8079	10.4254	-5.97868	-5.15129	-23.7028	-1.19235	75.964	14.9527	4.72449	0
0.0467	-8.89546	13.5144	-6.88171	-2.99332	-23.7028	0.322257	84.8165	17.9866	5.62918	0
0.0473	-7.08097	14.9946	-10.2447	-2.40161	-21.8675	4.93054	52.7757	17.0837	3.51824	0.317528
0.0480	-4.95668	11.3264	-11.4591	-1.1834	-20.9498	10.6989	19.8078	11.3048	0.150782	0
0.0487	7.87757	7.07897	-8.7189	0.661314	-19.1249	14.6949	17.3658	5.48989	-0.452345	0
0.0493	20.9774	3.73255	-5.66729	0.34806	-19.1249	14.3727	25.3025	2.13095	1.05547	0
0.0500	16.7288	2.83159	-3.83009	0.974568	-22.4828	13.4704	26.8288	1.842	3.21668	0
0.0507	10.0019	5.53447	-5.07565	1.56627	-24.9229	12.5358	14.6185	3.97295	4.42293	0
0.0513	10.9312	7.07897	-9.34168	1.25302	-25.2253	10.1189	-19.2539	5.48989	2.91511	0
0.0520	3.00941	4.63351	-9.34168	1.87952	-27.9783	7.66972	-54.9577	5.20095	1.6586	0
0.0527	-3.09792	2.83159	-4.76426	2.19278	-33.4634	6.73518	-76.6197	4.26189	3.8198	0.317528
0.0533	0.265536	1.86627	-2.30428	1.25302	-37.1237	6.12289	-94.3247	1.228	6.83544	0
0.0540	-17.1271	0.0643543	-1.71264	0.034806	-38.959	3.70596	-111.114	-4.58695	8.39351	-0.317528
0.0547	-61.0733	-4.5048	-1.08986	-1.77511	-38.959	0.0322257	-119.345	-9.46284	7.18726	0
0.0553	-83.3784	-7.59381	1.65036	-1.1834	-34.6835	-0.257806	-113.239	-9.46284	6.53387	0.317528
0.0560	-69.3492	-7.27204	2.86478	1.25302	-32.5562	-0.580063	-95.5457	-6.7179	7.48882	0.317528
0.0567	-66.6053	-4.18303	-3.23845	0.034806	-35.6012	-4.2538	-66.5575	-7.9459	6.53387	0.317528
0.0573	-72.6684	5.27705	-9.34168	0.974568	-35.9036	-3.31925	-21.3907	-5.81495	7.79039	0.317528
0.0580	-60.1882	15.9599	-15.7563	1.25302	-35.6012	-2.70696	25.3025	-0.902943	9.90133	0
0.0587	-38.8125	18.4053	-21.5481	-1.77511	-36.8213	-5.7684	69.2483	-1.51694	8.99664	0.317528
0.0593	-5.8418	17.44	-20.3337	-1.77511	-36.5188	-5.15612	114.72	-3.64789	10.2029	0.317528
0.0600	29.563	15.9599	-20.0223	-4.21152	-32.8586	-3.02922	138.225	-7.9459	11.4594	-0.635055
0.0607	43.902	13.5144	-20.614	-9.11917	-24.9229	-2.09467	127.847	-12.2078	12.3641	-0.317528
0.0613	46.6459	10.168	-16.3479	-9.11917	-17.9049	0.644515	93.669	-13.7247	15.3797	0.317528
0.0620	49.3897	6.49978	-12.3933	-7.90096	-15.1519	0.934546	45.7548	-13.1107	15.7316	0
0.0627	53.6383	1.86627	-9.34168	-7.58771	-10.8868	-2.70696	14.0079	-15.5667	13.2688	0
0.0633	68.5969	-4.18303	-5.3559	-6.68275	-5.69369	-5.15612	10.6614	-21.3817	11.761	0
0.0640	87.2286	-9.97492	-1.40125	-6.68275	-2.33587	-6.67072	15.8395	-26.2576	10.806	0
0.0647	82.626	-14.6084	3.48756	-6.3695	4.37976	-8.50759	13.1035	-29.0025	11.1076	0
0.0653	52.4434	-18.2123	7.13082	-5.15129	13.5355	-6.67072	-7.3488	-32.0364	10.2029	-0.952583
0.0660	29.8286	-20.4003	8.65662	-5.15129	21.4608	-4.86608	-29.6213	-34.4924	7.48882	-1.27011
0.0667	26.8192	-18.534	9.90218	-2.08836	26.3515	-2.41693	-32.0634	-31.1335	7.48882	0.317528
0.0673	29.8286	-17.0539	8.96801	-0.556896	26.9564	-0.257806	-22.3064	-24.4156	6.53387	0.635055
0.0680	18.8531	-17.3113	8.37637	-2.40161	26.654	-0.870095	-8.26458	-20.1537	5.62918	0
0.0687	-17.4369	-17.0539	9.2794	-2.40161	26.0387	-1.80464	4.55626	-17.0837	6.83544	0
0.0693	-53.1515	-15.8312	9.90218	-2.71487	24.2138	-1.80464	-3.68571	-14.6638	6.83544	0
0.0700	-65.9857	-15.5094	10.8052	-3.93308	21.1584	-3.93154	-26.5801	-11.9188	7.48882	0.317528
0.0707	-68.7296	-17.3113	12.9538	-2.99332	16.8829	-5.44615	-36.6423	-8.84884	8.39351	0.317528
0.0713	-95.2832	-19.7568	14.7599	-2.08836	14.1404	-4.2538	-36.9475	-6.42896	7.48882	0
0.0720	-113.605	-19.435	13.5454	-2.40161	12.6179	-3.31925	-42.7474	-0.902943	8.09195	0
0.0727	-62.0027	-16.4103	9.90218	-2.99332	9.26006	-5.44615	-40.9159	5.48989	9.2982	0
0.0733	10.6214	-12.163	6.85057	-2.40161	4.68217	-6.99298	-19.5591	11.5938	8.99664	0
0.0740	45.4067	-5.72753	4.0792	-1.1834	1.92918	-2.09467	7.30358	19.8286	9.59977	0.317528
0.0747	57.9311	0.386126	-2.61567	-1.77511	-1.1158	0.934546	14.6185	25.9325	8.09195	0
0.0753	81.4311	6.7572	-9.03029	-0.243642	-5.9961	0.322257	13.7027	30.5195	5.93075	0
0.0760	104.931	16.8608	-14.8221	3.09773	-9.35391	-0.580063	28.0498	37.5263	6.83544	0.317528
0.0767	95.4603	24.7764	-23.3853	1.25302	-11.1892	-3.02922	39.9549	40.8853	6.23231	0.317528
0.0773	79.8821	26.3209	-25.8142	0.034806	-9.96916	-4.2538	38.7338	38.7543	5.62918	0.317528
0.0780	82.626	25.0982	-23.074	2.19278	-8.13384	-3.93154	31.7129	31.1335	5.62918	0
0.0787	81.7409	21.43	-24.2884	1.56627	-9.0515	-7.8953	21.3341	19.2146	2.56329	0
0.0793	39.2994	22.0092	-23.6656	2.47123	-8.13384	-8.50759	20.4184	14.6638	2.91511	0
0.0800	-45.5395	27.5436	-22.1398	4.00269	-6.61135	-5.15612	19.1973	17.4087	6.23231	0
0.0807	-89.1759	25.9991	-24.2884	0.34806	-12.4093	-5.7684	0.893162	14.9527	4.12137	0.317528
0.0813	-46.7344	19.3063	-20.3337	0.974568	-19.4274	-2.70696	-16.2013	9.46284	4.72449	0.317528
0.0820	34.741	11.9699	-14.5107	2.78448	-25.5277	-1.80464	-17.4223	1.842	7.48882	0
0.0827	98.8237	2.83159	-14.2305	-1.49666	-33.161	-8.50759	-13.7592	-8.84884	5.32762	-0.317528
0.0833	98.2041	-3.28207	-10.8675	-2.40161	-37.7389	-9.44214	-20.1696	-18.0227	4.72449	-0.317528
0.0840	79.3068	-8.173	-5.3559	-0.556896	-38.0413	-5.7684	-38.1685	-30.8084	5.93075	0
0.0847	94.5309	-13.6431	-4.14148	-1.77511	-38.959	-6.05844	-54.9577	-49.1201	4.42293	0.317528
0.0853	88.158	-13.3857	-4.76426	-2.40161	-42.0144	-5.7684	-58.9261	-57.68	2.26173	0.317528
0.0860	38.9896	-9.97492	-5.07565	-2.08836	-44.1521	-3.93154	-52.8209	-48.8312	1.6586	0
0.0867	-6.15159	-8.49477	-4.14148	-2.40161	-43.8393	-2.70696	-43.3579	-36.3344	1.96016	0
0.0873	-32.7052	-8.49477	-3.23845	-2.99332	-44.1521	-0.257806	-40.9159	-31.7475	1.6586	0
0.0880	-46.159	-9.07396	-1.71264	-3.30657	-44.757	0.934546	-43.3579	-27.1605	1.05547	0
0.0887	-39.7419	-9.97492	2.27314	-2.71487	-42.9321	0.322257	-31.4529	-19.2146	2.56329	0
0.0893	-33.015	-13.0639	4.70198	-4.52478	-42.6192	-3.93154	-14.675	-18.9257	2.56329	0
0.0900	-42.4858	-17.6331	5.60501	-7.58771	-43.5369	-8.50759	-7.65406	-25.6436	1.96016	0.317528
0.0907	-48.5931	-19.1776	7.13082	-8.80592	-46.2794	-10.0544	-0.32787	-30.2305	2.91511	0.317528
0.0913	-51.0272	-17.3113	5.32476	-11.2423	-51.1702	-10.9567	8.52461	-29.2915	2.26173	0
0.0920	-72.6684	-15.1876	4.70198	-11.5556	-55.4352	-10.6345	18.2816	-27.1605	1.35704	0
0.0927	-134.052	-13.9649	6.53918	-8.17941	-58.4906	-7.60527	26.8288	-24.1266	1.96016	0.317528
0.0933	-245.134	-13.3857	5.32476	-7.27445	-64.591	-6.99298	19.1973	-21.0566	-0.150782	-0.317528
0.0940	-335.771	-12.7422	4.0792	-7.58771	-70.389	-7.28301	5.16677	-19.8286	-3.51824	-1.27011
0.0947	-331.788	-9.39573	5.01337	-5.46454	-69.4817	-6.67072	-3.99097	-16.4697	-3.21668	0
0.0953	-282.354	-6.0493	2.86478	-4.52478	-67.0312	-7.60527	-11.0119	-11.5938	-3.51824	0.635055
0.0960	-271.644	-4.18303	0.435945	-4.21152	-63.0685	-7.60527	-11.9277	-5.48989	-3.51824	0
0.0967	-297.002	-1.48015	0.124556	-2.71487	-55.4352	-6.38069	-6.43303	3.03389	-3.21668	0
0.0973	-268.015	2.18805	-2.92706	-3.30657	-52.6927	-6.99298	1.50368	12.2078	-5.32762	0
0.0980	-148.966	8.94525	-8.40751	-4.52478	-54.2151	-7.60527	12.7982	24.4156	-5.32762	0
0.0987	-18.3663	16.8608	-14.2305	-5.74299	-51.4726	-8.50759	18.8921	38.7543	-4.42293	0.317528
0.0993	111.658	23.8754	-16.9707	-5.74299	-40.7943	-7.28301	23.7762	53.996	-4.42293	0.317528
0.1000	277.353	32.4346	-20.9254	-4.21152	-27.0606	-4.2538	33.8497	67.4318	-2.61355	0
0.1007	385.072	41.8947	-31.2946	-6.05624	-20.0426	-4.86608	32.0182	73.5357	-2.91511	0
0.1013	330.15	51.033	-39.5465	-7.27445	-15.4647	-4.2538	21.6394	80.5786	-3.21668	0
0.1020	202.56	58.9485	-44.1239	-6.68275	-10.8868	-2.09467	15.8395	89.7164	-2.31199	0.317528
0.1027	173.262	61.0722	-47.7983	-7.90096	-9.35391	-2.41693	12.493	89.1024	-2.61355	0
0.1033	217.209	58.9485	-45.6497	-6.68275	-7.83142	-1.19235	13.4087	81.1565	-2.01042	0
0.1040	169.633	55.2803	-41.695	-6.05624	-7.2266	0.934546	11.5772	74.1497	-1.70886	0.635055
0.1047	32.8822	52.8349	-42.9095	-8.80592	-9.35391	-1.19235	-1.24364	66.2038	-4.12137	0.635055
0.1053	-66.2955	48.2657	-39.8578	-6.68275	-8.44668	-1.19235	-9.79087	53.4181	-5.62918	0.317528
0.1060	-89.4857	34.88	-32.2288	-3.30657	-7.52901	0.0322257	-15.896	30.1944	-8.69508	0
0.1067	-41.5564	18.0836	-25.5028	-3.30657	-9.0515	-0.580063	-23.8327	-2.13095	-13.2688	0
0.1073	64.3483	4.05432	-14.5107	0.34806	-8.13384	3.70596	-19.5591	-32.3615	-12.3641	-0.317528
0.1080	137.592	-12.4204	-3.83009	2.78448	-7.52901	4.93054	-19.2539	-60.425	-12.0625	0
0.1087	119.58	-30.7614	2.55339	-0.243642	-8.44668	-0.870095	-25.6643	-88.8135	-14.1735	0.317528
0.1093	96.6994	-44.4688	12.331	0.661314	-7.52901	-2.70696	-7.95932	-108.642	-12.0625	0.317528
0.1100	103.382	-52.127	18.4343	1.56627	-8.13384	-4.2538	19.8078	-117.202	-11.1578	0
0.1107	75.6336	-53.028	18.4343	-1.77511	-10.574	-7.28301	36.597	-116.588	-11.1578	0.317528
0.1113	33.5018	-46.0133	20.2714	-1.1834	-10.574	-6.99298	53.3862	-105.897	-6.8857	0.317528
0.1120	14.6045	-38.0978	18.4343	-3.93308	-9.96916	-9.73217	56.1222	-96.4343	-5.62918	0.317528
0.1127	-8.27588	-31.0831	12.0196	-8.49266	-10.2716	-14.9205	50.9442	-89.7164	-7.79039	0
0.1133	-45.8493	-21.3013	7.13082	-9.11917	-9.96916	-16.1451	55.817	-77.2197	-6.28257	0
0.1140	-69.3492	-14.2867	3.48756	-10.3374	-9.35391	-16.4351	60.7011	-65.9148	-5.62918	0
0.1147	-55.0103	-11.8412	2.86478	-9.71087	-8.74909	-14.6305	68.0273	-57.9689	-7.18726	0
0.1153	-18.3663	-9.97492	4.70198	-5.74299	-8.74909	-11.2468	78.7113	-48.2172	-8.69508	0.317528
0.1160	7.87757	-8.75219	2.27314	-4.52478	-8.44668	-11.8591	77.185	-40.8853	-11.4594	0.317528
0.1167	17.3484	-8.49477	-0.778473	-5.15129	-7.83142	-11.569	64.0589	-37.8514	-14.5253	0
0.1173	25.2702	-9.97492	-0.778473	-3.93308	-6.61135	-10.0544	44.2285	-37.2374	-16.3347	0
0.1180	30.1384	-10.9402	1.65036	-0.87015	-3.55595	-10.6345	29.8814	-37.5263	-16.6362	0
0.1187	24.3408	-8.49477	2.86478	0.34806	-2.64871	-12.1813	29.8814	-36.0094	-14.1735	0
0.1193	17.6582	-7.27204	1.33897	-1.77511	-5.39127	-17.3697	29.2708	-34.1674	-12.6657	0
0.1200	16.7288	-8.173	1.33897	-4.52478	-6.91376	-23.7826	21.9447	-32.0364	-12.0625	0
0.1207	13.9849	-9.39573	2.86478	-5.46454	-6.61135	-24.6849	23.1657	-27.4856	-12.6657	0
0.1213	-15.3126	-10.6185	4.70198	-4.21152	-5.9961	-23.7826	28.9656	-20.7677	-14.1735	0.317528
0.1220	-76.3417	-9.97492	7.13082	-1.77511	-4.1712	-22.558	27.4393	-14.3387	-14.8269	0
0.1227	-128.52	-8.173	7.44221	-0.87015	-2.95112	-21.9457	25.6077	-10.9798	-15.1284	0.317528
0.1233	-142.593	-8.173	5.60501	-2.08836	-4.1712	-24.3949	21.3341	-9.46284	-16.3347	0.317528
0.1240	-132.812	-6.37108	5.01337	-4.21152	-5.69369	-25.5872	11.2719	-5.81495	-16.9378	-0.635055
0.1247	-120.288	-0.257417	3.79895	-4.83803	-6.30894	-24.6849	9.74564	3.64789	-15.1284	-0.635055
0.1253	-100.771	6.49978	-1.08986	-4.21152	-6.30894	-23.7826	14.9237	14.3387	-13.2688	0.635055
0.1260	-80.6345	9.20267	-4.76426	-2.99332	-5.39127	-22.848	15.229	21.9596	-12.6657	0.317528
0.1267	-80.0149	7.72252	-3.83009	-2.08836	-5.69369	-23.4603	11.5772	27.1605	-13.2688	0
0.1273	-76.9612	4.95528	-3.83009	-2.40161	-5.9961	-24.3949	5.47203	27.1605	-13.8719	0.317528
0.1280	-41.5564	8.30171	-8.7189	-2.71487	-4.1712	-23.1703	-1.85416	23.5126	-13.8719	0
0.1287	2.38983	16.8608	-15.1335	-2.99332	-1.1158	-22.2358	-8.26458	21.3456	-14.1735	0
0.1293	20.0922	21.7518	-16.6593	-1.1834	2.24202	-20.3989	-9.18035	20.1537	-14.8269	0
0.1300	28.3239	20.8508	-13.2963	1.25302	4.06692	-18.5942	-5.212	14.9527	-16.3347	0
0.1307	37.4849	14.0936	-9.34168	2.19278	2.54443	-20.1089	-4.60148	5.77884	-20.0037	0
0.1313	38.1044	5.27705	-5.07565	2.78448	0.10428	-21.3334	-8.56983	3.64789	-22.1146	0
0.1320	48.1506	-0.514834	-2.92706	2.47123	-1.41821	-21.9457	-15.5908	7.00684	-21.5115	0
0.1327	95.7701	-4.82657	-0.778473	1.87952	-3.25353	-23.4603	-19.8644	8.5599	-19.099	0
0.1333	163.216	-8.173	3.79895	2.78448	-3.55595	-22.2358	-16.2013	9.13778	-16.0331	0
0.1340	188.84	-10.6185	4.39059	2.19278	-4.77602	-22.848	-9.18035	7.9459	-17.5409	0
0.1347	173.262	-11.8412	1.33897	0.974568	-6.30894	-26.5218	-0.0226117	4.87589	-21.21	0
0.1353	141.841	-11.8412	0.435945	2.19278	-6.30894	-28.6487	13.7027	0	-22.1146	0
0.1360	79.8821	-12.4204	-0.778473	1.25302	-6.91376	-31.0978	26.5235	-8.23484	-21.21	0.317528
0.1367	11.8606	-12.7422	-0.498223	0.974568	-8.13384	-32.0001	32.0182	-15.2778	-18.4456	0
0.1373	-22.3493	-13.3857	1.02758	0.661314	-8.74909	-31.3879	25.913	-19.2146	-15.7316	-0.317528
0.1380	-35.1393	-15.1876	-0.778473	-1.77511	-9.0515	-34.4493	9.74564	-21.3817	-15.7316	0
0.1387	-44.6101	-15.8312	-2.30428	-2.08836	-8.44668	-35.9639	-0.633128	-18.6006	-16.3347	0.317528
0.1393	-37.8832	-16.4103	-1.08986	-0.556896	-6.30894	-35.6739	-0.938386	-14.0498	-16.9378	0.317528
0.1400	-18.676	-17.3113	0.747334	0.661314	-3.55595	-34.4493	3.33523	-10.9798	-18.4456	0
0.1407	-9.20526	-15.8312	3.79895	3.09773	-0.510972	-29.5832	8.82987	-8.84884	-19.4006	0
0.1413	-8.27588	-14.8658	4.0792	3.41099	1.92918	-26.8118	11.8824	-9.75179	-20.0037	0
0.1420	-12.8785	-13.9649	-0.186834	1.25302	2.84684	-27.7463	14.9237	-9.75179	-21.8131	0.317528
0.1427	-22.3493	-11.8412	-3.23845	1.25302	3.76451	-27.1341	19.8078	-5.48989	-22.7178	0.317528
0.1433	-29.9613	-10.2967	-3.23845	4.31594	4.98458	-23.7826	19.1973	-3.64789	-23.6727	0.317528
0.1440	-30.2711	-8.173	-2.61567	8.91033	7.12232	-18.8843	16.1448	-3.07001	-24.879	0.317528
0.1447	-34.564	-6.0493	-2.02403	11.3468	9.26006	-16.4351	14.0079	-0.32506	-25.1805	0.317528
0.1453	-54.0809	-5.40576	-4.45287	9.18878	10.1777	-18.8843	7.60884	0.902943	-25.4821	0.317528
0.1460	-86.1222	-5.14834	-5.66729	6.75236	11.085	-20.7211	2.41945	3.03389	-24.5774	0.317528
0.1467	-107.188	-7.59381	-3.23845	5.2209	12.0026	-21.9457	-0.633128	6.1039	-22.1146	0.317528
0.1473	-91.9198	-12.4204	0.435945	3.41099	10.7825	-23.1703	-4.29622	8.84884	-19.4006	0.317528
0.1480	-65.0564	-12.163	3.48756	4.6292	10.4801	-21.0112	-2.46468	14.9527	-15.43	0
0.1487	-52.8417	-9.7175	1.65036	4.6292	11.7002	-20.1089	-1.24364	17.0837	-14.1735	0
0.1493	-24.4736	-11.1976	-1.40125	2.78448	12.305	-21.9457	-6.12777	14.3387	-16.0331	0
0.1500	13.3653	-12.7422	-1.40125	2.19278	12.9203	-22.848	-11.0119	16.4697	-16.0331	0
0.1507	-14.693	-9.97492	-4.14148	1.87952	13.5355	-22.848	-14.3697	22.8986	-15.43	0.317528
0.1513	-87.627	0.386126	-10.5561	2.78448	16.2781	-20.1089	-15.2855	32.6504	-14.8269	0.317528
0.1520	-127.015	14.4154	-16.9707	4.6292	21.7737	-17.3697	-12.8434	44.5693	-12.6657	0
0.1527	-125.776	22.9745	-23.3853	3.09773	26.9564	-18.8843	-12.8434	51.5761	-11.4594	0.317528
0.1533	-58.0197	22.3309	-27.0286	-0.87015	31.5343	-21.3334	-15.2855	52.4791	-11.1578	-0.317528
0.1540	72.8897	16.8608	-26.7172	-2.40161	37.0298	-20.3989	-17.4223	51.5761	-11.1578	-0.952583
0.1547	190.655	14.9946	-25.1914	-0.243642	41.6077	-17.6597	-17.4223	52.4791	-10.2532	0
0.1553	283.46	17.1826	-23.6656	2.78448	44.6631	-15.5328	-14.0645	49.4452	-8.09195	0.635055
0.1560	349.357	20.8508	-25.8142	2.78448	48.9282	-13.0836	-14.3697	36.2983	-8.09195	0
0.1567	384.762	27.8654	-33.4432	0.974568	52.9012	-11.569	-17.4223	23.8016	-10.2532	0
0.1573	434.196	29.6673	-36.4948	0.34806	53.8189	-10.0544	-18.9486	17.4087	-12.0625	0.317528
0.1580	421.981	21.43	-31.0144	2.19278	52.9012	-7.8953	-19.2539	10.0768	-13.5704	0.317528
0.1587	239.514	16.5391	-25.5028	5.2209	52.5884	-5.44615	-18.6433	7.62084	-13.8719	0.317528
0.1593	53.063	19.6281	-23.3853	7.97057	52.5884	-2.41693	-15.5908	17.0837	-13.2688	0
0.1600	-31.7758	19.6281	-23.6656	7.37887	49.8458	-2.70696	-15.896	23.5126	-15.1284	0
0.1607	-103.205	7.97993	-20.3337	5.53415	44.0479	-5.44615	-19.5591	13.4358	-18.7975	0
0.1613	-143.168	-9.39573	-9.34168	6.43911	39.1676	-4.54383	-18.0328	-11.9188	-19.099	0.317528
0.1620	-140.734	-25.8704	2.86478	7.97057	35.5073	-2.70696	-15.2855	-44.5693	-16.9378	0.317528
0.1627	-112.366	-35.6523	8.96801	8.59708	31.8367	-1.80464	-14.675	-64.6868	-15.1284	0
0.1633	-93.4245	-36.5532	10.4938	8.91033	27.874	0.0322257	-14.3697	-62.5559	-14.1735	0.317528
0.1640	-119.978	-35.0087	7.44221	6.16066	22.3785	-0.870095	-17.4223	-54.9351	-16.6362	0
0.1647	-145.912	-31.6623	4.70198	4.94245	16.5805	-2.09467	-19.8644	-47.3142	-19.7021	0
0.1653	-144.717	-25.8704	4.0792	7.06562	14.7556	0.644515	-18.0328	-34.4924	-20.3053	0
0.1660	-131.263	-20.0785	1.96175	7.97057	14.7556	3.09367	-15.896	-21.6706	-19.7021	0
0.1667	-114.8	-15.8312	0.124556	8.91033	11.085	5.83286	-13.1487	-12.4967	-18.4456	0
0.1673	-103.825	-14.2867	-2.02403	9.18878	6.20466	7.66972	-13.1487	-7.3319	-20.0037	0
0.1680	-94.0441	-14.6084	-4.45287	8.28383	4.37976	7.66972	-14.675	-5.81495	-22.4162	0.317528
0.1687	-80.0149	-13.6431	-4.76426	9.50204	5.59983	8.28201	-13.1487	-4.26189	-23.3712	0.317528
0.1693	-66.8709	-12.4204	-4.45287	10.7202	6.81991	9.50659	-11.0119	-2.45601	-22.7178	0.317528
0.1700	-56.515	-11.8412	-3.54984	11.3468	7.72714	11.9235	-8.56983	-1.228	-21.8131	0.317528
0.1707	-49.2127	-11.5194	-2.30428	11.66	8.03998	13.1481	-7.04354	0	-20.9084	0
0.1713	-47.6637	-11.5194	-3.83009	9.50204	7.12232	11.3112	-7.95932	0.902943	-20.6068	-0.317528
0.1720	-43.6807	-9.97492	-5.3559	7.97057	6.50707	11.6335	-8.26458	1.842	-19.099	0
0.1727	-36.0687	-6.95027	-5.07565	8.59708	8.64481	13.7604	-6.73829	3.03389	-16.9378	0.317528
0.1733	-30.5809	-5.72753	-4.76426	8.91033	10.1777	14.3727	-5.51725	4.87589	-15.43	0.317528
0.1740	-29.9613	-5.72753	-4.76426	8.59708	11.085	14.6949	-5.212	6.7179	-15.43	0.317528
0.1747	-27.2175	-5.14834	-5.3559	9.18878	12.9203	15.8873	-6.73829	7.3319	-15.43	0
0.1753	-17.1271	-5.40576	-5.97868	9.18878	14.4428	14.6949	-10.4014	7.9459	-15.43	0
0.1760	-10.4444	-6.37108	-5.3559	8.28383	15.058	11.9235	-13.1487	8.84884	-14.8269	0
0.1767	-14.1177	-5.14834	-5.3559	7.06562	15.9757	11.6335	-13.454	10.0768	-12.9672	0
0.1773	-25.7128	-3.28207	-6.88171	5.84741	16.2781	11.6335	-14.675	12.2078	-11.761	0
0.1780	-25.403	-1.15838	-6.88171	6.16066	18.103	14.0826	-15.2855	15.2417	-9.59977	0
0.1787	-8.27588	0.707897	-5.97868	6.43911	19.3335	15.275	-14.0645	18.3117	-6.8857	0.317528
0.1793	4.20432	1.60886	-6.60145	5.2209	19.6359	14.3727	-14.9803	20.1537	-5.32762	0.317528
0.1800	-0.663841	4.05432	-8.12726	4.31594	20.856	15.8873	-17.1171	20.4426	-4.42293	0
0.1807	-10.4444	4.95528	-11.4591	1.87952	21.1584	15.5973	-21.0854	18.9257	-4.72449	-0.317528
0.1813	-10.1346	4.31174	-12.3933	0.661314	21.4608	15.5973	-23.2222	18.9257	-4.12137	-0.317528
0.1820	-20.1808	5.27705	-9.34168	2.47123	22.0761	18.0464	-20.1696	21.0566	-1.35704	-0.317528
0.1827	-51.9566	6.7572	-8.40751	2.78448	21.4608	18.9487	-18.3381	22.5736	-0.150782	0
0.1833	-63.2419	8.62348	-11.1789	2.19278	20.5536	17.7241	-20.1696	23.8016	-0.150782	0
0.1840	-14.1177	10.168	-16.0366	-2.40161	19.3335	15.275	-25.6643	24.0905	-1.05547	-0.635055
0.1847	58.2409	11.6481	-18.4965	-7.27445	20.2407	13.1481	-32.0634	23.8016	-1.35704	-0.952583
0.1853	85.6797	11.9699	-15.1335	-3.61982	22.3785	16.2095	-31.1476	25.6436	2.56329	0.317528
0.1860	65.853	8.30171	-11.4591	-0.243642	20.2407	16.8218	-28.4116	26.2576	4.12137	0.317528
0.1867	33.5018	3.73255	-10.8675	-1.77511	19.3335	13.4704	-28.4116	22.2846	2.56329	0
0.1873	-3.09792	1.28709	-9.93332	-2.71487	20.2407	12.2458	-28.4116	17.9866	2.56329	0
0.1880	-36.6883	-1.73757	-9.34168	-4.83803	2.24202	11.0212	-30.2318	14.0498	2.91511	-0.317528
0.1887	-31.5103	-3.28207	-6.88171	-6.05624	-19.4274	11.0212	-29.9266	11.5938	5.02606	0
0.1893	15.1798	-1.48015	-3.23845	-3.30657	-18.8225	13.7604	-26.5801	11.3048	8.69508	0.317528
0.1900	43.5922	0.965315	-5.07565	-2.71487	-14.2446	14.3727	-27.1906	7.62084	9.2982	0
0.1907	22.8361	6.7572	-12.7047	-4.83803	-12.1069	12.8581	-28.7056	5.77884	8.09195	0
0.1913	-1.59322	16.5391	-22.1398	-7.27445	-8.74909	11.6335	-28.4116	7.62084	8.09195	0.317528
0.1920	-19.9152	24.1972	-28.5544	-8.49266	-6.91376	10.4089	-27.4958	9.75179	8.69508	0
0.1927	-29.6515	27.2219	-27.34	-4.83803	-3.86879	11.6335	-23.5275	12.4967	10.806	0
0.1933	12.7457	23.5537	-22.7626	-1.49666	-1.41821	13.7604	-21.6959	11.5938	12.3641	0
0.1940	82.3605	14.4154	-19.3996	-3.30657	-2.03346	13.4704	-26.8853	6.1039	12.3641	0
0.1947	118.341	3.41078	-14.2305	-4.52478	-0.813384	12.8581	-29.0108	-0.902943	12.3641	0
0.1953	114.402	-7.59381	-8.12726	-4.52478	3.46209	11.6335	-27.4958	-9.46284	12.0625	0
0.1960	111.924	-14.6084	-2.92706	-3.30657	6.50707	11.6335	-25.0538	-12.8218	12.9672	0
0.1967	116.216	-13.6431	0.435945	-0.556896	7.42473	14.3727	-22.0012	-10.3658	15.0782	0
0.1973	90.2823	-11.1976	-1.40125	-1.77511	8.03998	14.0826	-22.6117	-10.0768	15.7316	0
0.1980	47.2654	-9.39573	-4.76426	-4.52478	10.1777	11.9235	-24.138	-13.4358	14.475	0.317528
0.1987	0.531072	-8.49477	-5.97868	-5.74299	11.7002	11.0212	-24.7485	-16.4697	12.9672	0
0.1993	-58.0197	-7.85123	-6.29007	-6.9612	11.3978	10.4089	-24.4432	-15.2778	12.9672	-0.317528
0.2000	-93.4245	-5.40576	-4.45287	-5.46454	12.9203	13.1481	-21.3907	-9.1739	15.3797	0
0.2007	-82.449	-3.92561	-3.83009	-4.83803	14.1404	14.985	-21.0854	-3.35895	15.7316	-0.317528
0.2013	-69.3492	-5.14834	-5.66729	-6.9612	11.085	13.1481	-24.4432	-1.228	14.1735	0.317528
0.2020	-71.1637	-5.72753	-6.60145	-7.90096	8.64481	11.6335	-25.9695	-0.614001	13.8719	0.317528
0.2027	-68.11	-4.5048	-6.60145	-8.17941	5.90225	11.3112	-25.6643	1.228	13.8719	0
0.2033	-63.2419	-2.05934	-4.45287	-6.68275	4.37976	13.4704	-22.6117	6.1039	15.3797	0
0.2040	-59.8784	-0.514834	-2.30428	-6.05624	3.76451	15.275	-20.7802	9.46284	16.3347	0
0.2047	-52.8417	-2.38111	-3.23845	-7.90096	0.709104	14.985	-21.3907	9.46284	15.3797	0
0.2053	-38.193	-2.9603	-5.07565	-9.39762	-2.64871	14.985	-21.0854	9.13778	15.0782	0
0.2060	-19.6054	-1.73757	-6.29007	-10.6506	-4.1712	14.6949	-21.0854	9.46284	15.3797	0
0.2067	-5.26647	1.28709	-8.12726	-10.9291	-2.33587	15.275	-20.1696	10.6908	15.3797	0
0.2073	3.89453	7.97993	-9.93332	-9.71087	-2.64871	18.6587	-15.896	13.1107	17.2394	0
0.2080	6.63841	11.3264	-11.4591	-9.71087	-9.35391	18.6587	-14.3697	14.6638	16.9378	0
0.2087	8.18737	9.20267	-12.7047	-10.3374	-11.1892	15.5973	-15.896	13.7247	13.8719	0
0.2093	12.7457	6.49978	-12.0819	-10.0241	-8.44668	14.6949	-14.3697	12.4967	12.3641	0
0.2100	9.69207	4.05432	-10.2447	-10.3374	-7.52901	14.6949	-11.0119	12.2078	13.5704	0
0.2107	12.1704	2.50982	-6.29007	-8.49266	-2.95112	16.4996	-6.73829	13.1107	15.7316	-0.317528
0.2113	46.9557	0.965315	-4.76426	-7.27445	0.406692	16.4996	-3.07519	10.9798	17.2394	0
0.2120	84.7946	-0.836606	-8.40751	-9.71087	-4.1712	14.0826	-2.76993	5.20095	16.3347	0
0.2127	86.6091	1.28709	-12.9849	-10.3374	-3.55595	13.4704	-2.15942	3.35895	15.7316	0
0.2133	64.9236	5.85624	-18.1851	-9.71087	-1.41821	13.1481	-0.0226117	5.77884	15.3797	-0.317528
0.2140	42.353	10.7472	-22.7626	-9.11917	-16.372	14.3727	4.251	8.5599	15.7316	-0.952583
0.2147	22.5263	18.9845	-26.1256	-6.68275	-35.9036	18.0464	10.3562	12.4967	17.2394	-0.317528
0.2153	5.1337	22.3309	-29.1772	-6.68275	-45.977	17.4341	11.8824	11.8827	17.2394	0.317528
0.2160	-6.77117	13.1926	-25.1914	-7.58771	-49.3348	14.3727	10.3562	2.45601	16.0331	0
0.2167	-1.90301	-0.836606	-14.5107	-7.27445	-51.1702	13.7604	10.9667	-10.9798	14.7766	0
0.2173	33.5018	-9.07396	-5.07565	-5.15129	-52.3903	15.8873	14.0079	-21.6706	14.475	0
0.2180	68.9066	-9.39573	0.435945	-1.77511	-52.3903	18.6587	18.2816	-25.0296	16.0331	0
0.2187	69.2164	-7.59381	-0.778473	-1.77511	-53.9127	17.1119	18.2816	-21.6706	16.6362	0
0.2193	49.3897	-7.85123	-2.92706	-2.71487	-54.8304	14.6949	17.0605	-19.8286	15.3797	0
0.2200	39.9189	-7.27204	-2.30428	-2.40161	-53.9127	14.985	17.0605	-19.5397	13.8719	-0.317528
0.2207	42.0432	-6.37108	-2.92706	-1.77511	-52.3903	14.985	15.5342	-14.6638	12.9672	0
0.2213	40.8483	-5.72753	-1.40125	0.974568	-49.9501	15.8873	16.1448	-10.0768	13.5704	0
0.2220	32.8822	-5.72753	0.435945	2.47123	-49.9501	16.2095	17.0605	-9.46284	14.1735	-0.317528
0.2227	20.9774	-6.95027	-0.778473	0.974568	-52.3903	13.7604	14.3132	-10.6908	13.5704	0
0.2233	8.18737	-8.49477	-1.71264	-0.87015	-53.3079	11.6335	11.8824	-11.9188	12.9672	0.317528
0.2240	4.51412	-9.39573	-1.08986	-1.49666	-52.6927	11.3112	11.2719	-10.6908	12.3641	0.317528
0.2247	14.2947	-7.59381	1.02758	0.661314	-52.0774	13.7604	13.4087	-6.1039	13.5704	0
0.2253	24.031	-3.92561	1.02758	2.47123	-52.0774	14.6949	14.9237	-1.228	15.0782	0
0.2260	21.9067	-0.257417	-4.45287	0.034806	-50.5549	11.3112	12.1877	2.13095	14.7766	0
0.2267	7.56778	2.83159	-9.34168	-2.99332	-48.1148	7.95975	8.82987	5.48989	13.8719	0
0.2273	-8.58567	4.31174	-10.5561	-4.83803	-47.4995	6.44514	7.60884	6.1039	15.3797	0
0.2280	-5.26647	4.63351	-9.03029	-5.46454	-45.6746	6.12289	8.52461	4.26189	19.0488	0
0.2287	6.06308	4.95528	-6.29007	-5.15129	-38.0413	6.12289	10.9667	3.35895	21.5115	0
0.2293	-8.58567	2.83159	-5.07565	-6.3695	-29.8032	3.99599	10.9667	1.228	20.6068	0
0.2300	-29.9613	-2.05934	-5.3559	-8.80592	-25.5277	0.934546	9.13513	-5.20095	19.0488	0
0.2307	-26.5979	-6.0493	-4.14148	-9.39762	-24.0052	0.0322257	8.52461	-12.4967	16.9378	0
0.2313	-19.2956	-6.37108	-0.186834	-6.68275	-20.345	2.15912	12.1877	-15.8557	16.0331	0
0.2320	-21.7297	-5.14834	2.86478	-2.71487	-16.0695	4.60828	17.9763	-13.4358	16.6362	0.317528
0.2327	-18.9858	-5.40576	3.48756	-0.87015	-15.4647	5.22057	19.1973	-8.84884	15.0782	0.317528
0.2333	-12.8785	-6.62849	3.48756	-1.1834	-15.1519	4.60828	16.7553	-6.7179	12.0625	0
0.2340	-13.8079	-9.07396	3.17617	-1.49666	-13.0246	4.60828	15.8395	-7.62084	10.2029	0
0.2347	-17.7467	-9.39573	3.48756	1.25302	-10.2716	7.05743	17.671	-7.00684	9.2982	0
0.2353	-18.9858	-6.0493	4.39059	5.2209	-7.83142	10.1189	21.0289	-2.74495	9.2982	0
0.2360	-17.7467	-4.5048	4.70198	7.06562	-6.61135	10.1189	23.7762	0.614001	9.2982	0
0.2367	-16.242	-4.5048	1.65036	5.53415	-5.69369	7.95975	22.2499	1.51694	7.79039	0.317528
0.2373	-13.1883	-0.257417	-4.14148	4.94245	-3.25353	8.57204	19.8078	2.74495	5.93075	0.317528
0.2380	-10.1346	6.17801	-7.19309	7.06562	0.10428	10.4089	19.8078	5.77884	6.83544	0
0.2387	-10.4444	7.07897	-6.60145	8.59708	4.37976	10.1189	20.4184	6.39284	8.09195	0
0.2393	-9.82484	4.95528	-5.3559	9.18878	8.64481	9.79662	21.0289	2.74495	8.09195	0.317528
0.2400	-4.0273	3.41078	-5.66729	9.18878	10.1777	8.8943	18.2816	1.228	6.83544	0.317528
0.2407	7.87757	0.0643543	-5.66729	8.28383	10.4801	5.83286	14.0079	0.614001	4.72449	0.317528
0.2413	20.0922	-3.92561	-2.61567	9.50204	10.7825	4.93054	13.7027	-2.13095	4.12137	0.317528
0.2420	25.58	-3.60384	1.65036	12.2517	11.085	5.83286	16.1448	-3.35895	5.32762	0.317528
0.2427	20.0922	0.965315	1.96175	13.4699	11.7002	6.12289	18.2816	0	6.53387	0.317528
0.2433	7.87757	6.7572	-2.61567	12.2517	12.9203	5.22057	17.9763	5.20095	5.93075	0.317528
0.2440	-5.8418	7.72252	-5.07565	10.1285	13.5355	4.93054	16.45	7.9459	4.72449	0
0.2447	-16.8615	5.27705	-4.76426	9.50204	12.6179	5.5106	15.8395	7.3319	4.42293	-0.317528
0.2453	-15.0028	4.95528	-6.60145	8.28383	12.0026	3.99599	14.9237	5.77884	3.8198	-0.635055
0.2460	-10.7542	7.07897	-7.50448	7.69212	12.305	2.77141	14.0079	7.00684	3.21668	0
0.2467	-19.2956	7.97993	-5.97868	9.18878	11.7002	3.09367	14.3132	8.5599	3.51824	0.317528
0.2473	-20.4905	7.40075	-6.29007	8.59708	10.7825	2.48138	13.7027	9.46284	2.56329	-0.635055
0.2480	-7.08097	8.30171	-6.60145	8.59708	11.085	3.09367	14.3132	10.6908	1.96016	-0.635055
0.2487	-5.8418	10.168	-4.14148	11.3468	12.0026	4.31825	17.671	12.8218	3.51824	0.317528
0.2493	-18.676	9.52444	-3.23845	10.7202	12.0026	2.48138	18.5868	13.4358	2.91511	0
0.2500	-21.1101	5.85624	-3.54984	7.97057	11.085	0.322257	15.8395	11.5938	1.05547	0
0.2507	-12.2589	3.08901	-0.778473	8.91033	11.085	2.15912	15.5342	11.5938	1.35704	0.317528
0.2513	-14.1177	1.60886	2.27314	10.407	11.3978	3.70596	15.8395	10.3658	1.6586	0
0.2520	-29.6515	-0.257417	2.55339	10.1285	11.3978	2.48138	14.3132	7.9459	0.753908	0
0.2527	-42.176	-1.73757	1.65036	9.81529	10.7825	1.54683	12.493	6.1039	-0.452345	0
0.2533	-42.176	-2.38111	0.435945	8.91033	10.4801	0.644515	10.0509	1.842	-2.01042	0
0.2540	-33.3248	-1.15838	1.02758	9.81529	11.3978	1.86909	9.13513	-1.228	-1.70886	0
0.2547	-22.0395	1.28709	1.65036	11.66	12.0026	3.3837	10.6614	1.228	-0.150782	0
0.2553	-27.837	3.08901	0.435945	11.9385	10.4801	2.77141	11.2719	3.35895	0.753908	0
0.2560	-60.8078	2.83159	-0.498223	10.7202	8.95765	0.934546	8.52461	3.03389	0.753908	0
0.2567	-64.127	0.386126	-1.40125	8.91033	8.03998	-0.870095	4.55626	2.13095	-0.753908	0
0.2573	-15.9322	0.707897	-1.08986	8.59708	6.81991	-0.870095	3.94574	3.35895	-0.452345	0
0.2580	24.9604	2.83159	-0.778473	10.1285	6.50707	-0.257806	4.55626	5.48989	1.05547	0.317528
0.2587	43.2824	4.63351	-1.40125	10.7202	6.81991	-0.870095	4.55626	6.1039	1.05547	0
0.2593	45.4067	6.17801	-1.40125	10.7202	6.81991	-0.870095	3.94574	7.00684	1.6586	0
0.2600	30.4482	6.17801	-2.61567	9.18878	6.50707	-2.41693	1.19842	6.7179	1.05547	0.317528
0.2607	12.4359	5.27705	-2.92706	8.91033	6.20466	-2.41693	-0.32787	5.77884	-0.150782	0
0.2613	-6.77117	5.27705	-1.40125	10.407	6.81991	-0.257806	0.587904	6.1039	0.452345	0
0.2620	-33.6346	4.95528	-0.498223	11.0335	6.81991	-0.257806	0.282646	5.20095	0.753908	0
0.2627	-46.159	3.41078	0.124556	11.3468	2.84684	-1.19235	-1.24364	2.45601	-0.150782	0
0.2633	-30.5809	0.707897	-0.186834	10.1285	-2.64871	-2.41693	-3.68571	-0.902943	-1.70886	0
0.2640	-19.6054	-0.257417	1.02758	9.81529	-2.95112	-1.48238	-4.29622	-2.45601	-0.150782	0
0.2647	-23.5442	0.707897	3.79895	11.9385	-1.1158	0.322257	-1.85416	-2.13095	3.21668	0
0.2653	-19.2956	1.28709	5.01337	14.0964	0.10428	0.934546	-0.0226117	-1.51694	5.32762	0.317528
0.2660	-11.6393	2.18805	5.01337	13.7832	1.62677	0.934546	-0.938386	-0.902943	6.83544	0
0.2667	-14.1177	1.86627	3.17617	11.66	1.62677	0.322257	-3.07519	-0.902943	8.09195	0
0.2673	-18.3663	2.83159	2.27314	10.7202	1.92918	0.644515	-3.68571	-0.32506	8.99664	0.317528
0.2680	-15.6224	4.95528	2.27314	11.9385	3.15968	0.934546	-2.46468	0.614001	-0.452345	0.317528
0.2687	-10.4444	5.85624	0.747334	11.9385	3.46209	-0.257806	-1.85416	0.614001	-13.2688	0
0.2693	-6.46138	5.85624	0.435945	11.3468	4.06692	0.322257	-1.85416	0.288942	-9.2982	0
0.2700	-2.2128	5.53447	2.86478	11.66	4.37976	1.54683	-0.938386	0.902943	-0.753908	0.317528
0.2707	-0.663841	4.05432	3.48756	10.7202	3.76451	0.0322257	-3.07519	1.228	-1.70886	0
0.2713	-3.09792	4.05432	3.79895	10.407	4.06692	-1.19235	-4.90674	1.228	-2.91511	0
0.2720	-6.15159	4.05432	5.01337	9.81529	4.06692	-1.19235	-3.07519	1.51694	-0.150782	0
0.2727	-14.1177	3.08901	4.0792	6.43911	3.46209	-3.02922	-4.29622	0.614001	3.21668	0
0.2733	-21.4199	4.63351	2.55339	5.53415	4.06692	-2.70696	-4.90674	0.614001	1.6586	-0.317528
0.2740	-25.7128	6.7572	2.55339	5.53415	4.98458	-1.19235	-3.99097	1.51694	2.56329	-0.952583
0.2747	-28.7664	7.40075	3.48756	4.31594	5.28699	-0.870095	-4.29622	2.45601	11.4594	-0.317528
0.2753	-27.2175	7.72252	3.79895	4.00269	5.28699	-2.70696	-5.212	3.97295	21.5115	0.317528
0.2760	-25.0932	7.40075	1.96175	4.31594	4.98458	-6.67072	-6.73829	3.64789	34.6295	0
0.2767	-19.2956	8.62348	1.02758	7.97057	5.59983	-7.28301	-7.04354	4.26189	45.6366	0
0.2773	3.89453	9.52444	2.55339	12.2517	7.42473	-4.86608	-7.3488	5.20095	47.446	0
0.2780	41.7334	9.20267	2.86478	15.0014	8.3424	-4.2538	-7.04354	4.26189	66.9973	0
0.2787	67.7117	7.72252	4.39059	19.2825	9.26006	-4.2538	-5.82251	3.03389	82.5278	0
0.2793	71.3407	5.85624	4.70198	22.9371	10.1777	-6.05844	-6.73829	0.902943	29.1511	0
0.2800	72.8897	5.85624	2.27314	21.7189	9.86488	-7.60527	-8.87509	-0.614001	-51.115	-0.317528
0.2807	68.9066	7.07897	2.27314	19.561	9.86488	-5.7684	-7.95932	0.288942	-80.1153	0
0.2813	33.5018	7.97993	4.70198	14.0964	12.0026	-3.64151	-4.90674	1.228	-66.3942	0
0.2820	-33.3248	8.94525	4.39059	4.00269	14.4428	-4.54383	-3.99097	0.288942	-21.5115	0
0.2827	-76.3417	8.94525	2.86478	-3.93308	16.5805	-6.67072	-5.51725	-2.45601	39.5048	0
0.2833	-62.3125	8.30171	3.79895	-4.52478	19.0207	-6.67072	-6.73829	-4.58695	80.1153	-0.317528
0.2840	-32.3954	7.72252	5.01337	-0.87015	21.4608	-6.38069	-8.26458	-4.58695	101.778	0
0.2847	-17.7467	6.49978	6.53918	3.72424	24.2138	-5.7684	-7.3488	-5.48989	102.381	0.317528
0.2853	-13.8079	5.27705	8.37637	7.37887	25.1315	-2.70696	-5.212	-6.7179	106.05	0
0.2860	-14.693	3.41078	7.13082	7.97057	23.9114	0.322257	-7.95932	-8.84884	126.506	0
0.2867	-18.0565	2.50982	5.32476	12.8782	24.8186	6.73518	-9.79087	-10.6908	41.9676	0
0.2873	-25.0932	4.63351	7.13082	22.6239	26.3515	14.985	-5.51725	-9.46284	-122.234	0.317528
0.2880	-29.9613	6.17801	8.65662	22.3106	26.0387	16.4996	-2.76993	-9.1739	-143.896	0.317528
0.2887	-28.1468	6.17801	8.65662	9.18878	26.654	14.3727	-3.07519	-10.6908	-73.0789	0
0.2893	-21.7297	6.7572	8.65662	-3.61982	27.874	11.9235	-3.99097	-10.9798	-55.0856	0
0.2900	-17.1271	7.40075	7.7536	-13.0871	27.874	7.05743	-5.82251	-10.6908	-32.8201	0
0.2907	-15.0028	7.72252	7.44221	-23.146	28.4893	3.70596	-7.3488	-9.46284	15.3797	0
0.2913	-11.9491	7.97993	7.7536	-31.395	30.3142	0.0322257	-6.12777	-7.62084	61.7702	0.317528
0.2920	-9.82484	7.72252	6.53918	-30.4552	31.5343	-7.60527	-7.95932	-7.9459	122.234	0
0.2927	-7.70055	7.07897	6.53918	-18.5864	32.7543	-11.8591	-8.56983	-8.23484	229.641	0
0.2933	-5.532	7.07897	8.06499	-3.93308	32.4519	-12.7936	-6.73829	-6.1039	312.018	0
0.2940	-5.26647	7.07897	8.06499	4.94245	31.2318	-15.8228	-7.65406	-4.87589	317.546	0.317528
0.2947	-4.64688	6.7572	6.85057	11.0335	32.1495	-17.982	-8.56983	-5.48989	355.996	0.317528
0.2953	-4.95668	5.85624	5.01337	25.6868	32.4519	-18.8843	-9.48561	-6.42896	371.225	0
0.2960	-4.64688	5.85624	4.70198	51.9305	30.6166	-17.0474	-9.18035	-6.42896	187.522	0.317528
0.2967	-1.28342	7.40075	5.9164	72.6749	29.3965	-13.4059	-6.43303	-5.48989	-108.211	0
0.2973	-0.973633	8.62348	6.85057	73.3014	26.3515	-11.569	-5.82251	-5.81495	-336.746	0
0.2980	-2.47834	9.52444	7.7536	40.9318	23.2961	-9.73217	-6.12777	-6.1039	-417.967	0
0.2987	-2.47834	10.168	8.37637	-18.5864	25.1315	-11.2468	-6.43303	-5.48989	-294.326	0
0.2993	-2.2128	11.6481	8.37637	-65.5745	30.9294	-13.6959	-6.12777	-4.58695	-107.256	0.317528
0.3000	0.531072	13.7718	9.90218	-78.6963	36.4146	-1.48238	-5.212	-3.35895	-45.0335	0.317528
0.3007	-0.663841	13.5144	11.7082	-69.5424	41.6077	17.4341	-4.90674	-2.45601	-48.4009	0.317528
0.3013	-8.58567	12.2917	13.234	-46.3268	47.4057	25.9739	-5.212	-1.228	-42.8723	0.317528
0.3020	-15.0028	10.7472	13.8568	-16.7417	52.5884	27.1985	-6.12777	-0.614001	-49.3056	0
0.3027	-16.8615	9.84621	12.6424	5.84741	57.4791	23.847	-7.95932	-0.902943	-62.7252	0
0.3033	-13.1883	10.7472	10.8052	25.6868	61.1393	19.271	-8.56983	1.842	-66.9973	0
0.3040	-6.46138	13.5144	10.1824	33.6226	62.9642	14.3727	-8.26458	6.1039	-65.7911	-0.635055
0.3047	-0.044256	18.4053	7.44221	10.1285	65.4148	4.93054	-8.56983	10.6908	-66.6958	-0.635055
0.3053	1.77024	22.6527	1.96175	-15.5235	66.0196	-6.38069	-10.0961	12.8218	-68.5051	0.317528
0.3060	8.49716	25.0982	-3.83009	-21.6145	65.4148	-12.7936	-13.7592	12.2078	-61.5189	0
0.3067	24.3408	28.7664	-7.50448	-25.8957	65.7172	-12.7936	-15.2855	12.8218	-30.9605	-0.317528
0.3073	32.8822	30.5683	-8.40751	-26.8006	66.0196	-12.7936	-15.2855	11.3048	-1.35704	0
0.3080	31.6873	28.7664	-7.19309	-19.1781	65.4148	-17.6597	-13.454	6.7179	-10.8563	0
0.3087	24.9604	25.0982	-5.97868	-15.8367	66.0196	-26.5218	-14.3697	1.228	-15.43	0
0.3093	23.4557	17.7618	-3.23845	-16.4284	67.5421	-32.6124	-18.0328	-6.7179	25.4821	0
0.3100	33.192	10.168	3.17617	-13.3655	65.7172	-34.7716	-16.2013	-17.6977	29.1511	-0.317528
0.3107	35.9359	6.49978	8.06499	-16.7417	61.4417	-35.9639	-11.9277	-27.7745	8.09195	0
0.3113	22.8361	7.97993	9.2794	-35.3629	59.9193	-32.0001	-7.04354	-28.6775	86.1969	0
0.3120	5.1337	11.6481	10.4938	-70.7606	61.1393	-25.2972	-0.938386	-19.8286	182.948	0
0.3127	-3.71751	13.5144	10.8052	-117.749	61.4417	-24.0726	0.893162	-12.8218	185.059	0.317528
0.3133	-4.64688	14.0936	9.2794	-156.209	60.5241	-24.3949	0.282646	-10.3658	162.794	0.317528
0.3140	-6.77117	14.9946	7.7536	-176.049	59.9193	-24.6849	-3.07519	-7.3319	188.728	0
0.3147	-7.70055	14.4154	6.53918	-187.013	56.259	-27.4241	-6.12777	-4.58695	237.28	-0.317528
0.3153	-4.0273	14.0936	6.53918	-197.698	50.4611	-28.3586	-0.32787	-4.26189	287.943	0
0.3160	3.00941	16.8608	8.06499	-205.634	47.4057	-26.5218	11.2719	-3.97295	334.635	0
0.3167	4.51412	18.4053	7.7536	-190.076	49.5434	-28.3586	16.1448	-3.35895	345.893	-0.317528
0.3173	3.89453	16.2173	5.9164	-135.743	56.259	-31.7101	14.9237	-3.07001	294.929	0
0.3180	3.89453	14.0936	5.01337	-82.6642	69.3775	-30.7756	14.3132	-3.64789	117.962	0
0.3187	1.15066	13.5144	3.79895	-59.4486	87.0738	-24.6849	12.1877	-5.20095	-128.969	0
0.3193	3.89453	13.7718	5.01337	-62.1983	96.2295	-12.1813	13.7027	-4.58695	-328.855	0
0.3200	6.9482	15.3163	8.06499	-85.4139	91.0468	0.934546	16.45	-3.07001	-448.777	0
0.3207	5.75328	16.8608	7.44221	-60.3884	79.1381	5.5106	12.1877	-3.35895	-399.32	0
0.3213	5.75328	17.1826	5.60501	36.059	64.4972	5.5106	6.08255	-4.26189	-211.949	0
0.3220	3.89453	16.8608	4.39059	150.188	51.3683	8.57204	3.33523	-5.48989	-10.8563	0.317528
0.3227	3.00941	19.6281	4.39059	282.625	43.4326	11.0212	1.80894	-5.48989	193.302	0.317528
0.3233	4.51412	20.8508	6.53918	369.013	36.7274	7.95975	-0.0226117	-3.64789	370.32	0
0.3240	2.08003	19.6281	7.44221	301.872	30.0118	0.322257	0.282646	-2.13095	472.248	0.317528
0.3247	-3.09792	18.9845	5.32476	165.468	24.8186	-7.8953	3.64048	-2.45601	488.131	0.317528
0.3253	-6.77117	19.8855	4.70198	102.573	19.6359	-12.4714	4.55626	-3.35895	446.012	0
0.3260	-8.58567	19.3063	5.32476	101.355	22.6809	-17.0474	4.86152	-3.07001	365.143	0
0.3267	-9.51505	17.44	5.9164	98.9186	39.1676	-21.0112	6.99832	-0.902943	190.286	-0.317528
0.3273	-7.08097	19.8855	6.53918	86.7017	50.1482	-20.7211	1.50368	2.13095	-103.939	-0.317528
0.3280	-4.33709	25.0982	5.9164	81.8289	46.7904	-20.7211	-9.18035	3.35895	-362.73	-0.317528
0.3287	-4.0273	24.4546	2.86478	81.8289	41.3053	-24.0726	-11.6224	2.13095	-466.167	0
0.3293	-2.47834	22.9745	0.435945	84.2653	35.5073	-25.5872	-6.12777	1.228	-494.262	0.317528
0.3300	0.265536	21.43	0.124556	82.1421	24.8186	-20.7211	-2.15942	3.03389	-454.255	0.317528
0.3307	-1.28342	18.6628	0.124556	56.8034	14.4428	-18.8843	-4.60148	3.97295	-355.694	0
0.3313	-4.0273	16.2173	-0.778473	24.4686	12.0026	-24.3949	-7.04354	3.35895	-264.119	0
0.3320	-0.044256	10.168	-3.23845	2.47123	12.0026	-28.9709	-8.87509	-0.902943	-131.683	0.317528
0.3327	4.20432	18.9845	-5.07565	-13.6788	4.68217	-30.4855	-12.2329	-6.7179	-42.2691	0
0.3333	8.80695	40.3502	-4.76426	-19.1781	-3.55595	-31.0978	-11.3172	-4.87589	-75.5416	0
0.3340	17.0386	40.9293	-2.92706	-18.2731	-2.03346	-30.7756	-6.12777	0	-84.689	-0.635055
0.3347	27.7043	35.1375	1.65036	-29.237	11.3978	-22.848	-1.24364	1.228	-21.5115	-0.952583
0.3353	33.192	32.4346	3.79895	-63.1381	25.7363	-19.4966	1.80894	-0.32506	75.8432	0
0.3360	28.9434	17.1826	2.55339	-108.595	29.0941	-24.3949	3.64048	-4.58695	167.971	0.317528
0.3367	27.0847	5.53447	5.01337	-151.928	28.1764	-9.73217	7.60884	-8.84884	223.861	0
0.3373	28.6337	7.97993	6.53918	-172.081	25.1315	18.3364	9.44038	-10.6908	273.267	0
0.3380	22.2165	10.7472	6.22779	-157.427	19.6359	26.8763	6.08255	-10.0768	290.657	0
0.3387	12.1704	13.1926	6.53918	-162.3	33.672	22.6225	1.50368	-7.9459	300.458	0
0.3393	3.58474	15.3163	2.27314	-203.824	60.5241	26.264	-2.46468	-6.42896	373.989	0
0.3400	-1.59322	16.5391	-2.02403	-224.255	63.5795	32.9991	-4.60148	-6.42896	388.916	0
0.3407	0.265536	19.6281	-1.40125	-212.978	48.0105	38.1875	-1.5489	-4.87589	302.267	0
0.3413	2.69962	14.0936	-0.498223	-196.48	33.0567	38.4775	6.99832	-2.74495	299.804	0
0.3420	11.5508	-0.514834	-0.498223	-180.922	18.4158	28.7131	19.1973	-1.842	334.032	0
0.3427	20.7118	-5.14834	0.747334	-169.923	3.76451	18.9487	33.2392	5.77884	281.811	0
0.3433	19.4727	-1.73757	-1.08986	-174.517	-17.9049	11.3112	40.8706	15.5667	263.818	0
0.3440	21.5969	0.707897	-4.45287	-218.477	-45.977	-2.41693	39.6496	17.4087	366.952	0
0.3447	22.8361	-13.9649	-7.19309	-293.832	-61.546	-17.3697	35.376	14.3387	462.799	0
0.3453	14.9143	-62.1663	-10.8675	-314.89	-60.6284	-18.272	32.0182	11.8827	392.284	0
0.3460	10.0019	-117.125	-10.2447	-278.274	-54.8304	-14.3082	30.4919	13.1107	301.362	0
0.3467	10.9312	-162.623	-8.12726	-219.382	-48.4172	-23.4603	15.8395	11.8827	369.717	0.317528
0.3473	3.58474	-198.597	-9.34168	-100.972	-37.1237	-35.6739	-10.4014	10.0768	400.526	0.317528
0.3480	-8.27588	-223.953	-9.34168	-2.99332	-29.1984	-40.5722	-23.2222	14.0498	317.245	0
0.3487	-7.39076	-253.813	-8.40751	-12.1473	-32.5562	-35.9639	-22.6117	15.8557	297.693	0
0.3493	4.20432	-241.329	-9.93332	-28.3321	-22.7852	0.934546	-18.9486	14.3387	170.434	0
0.3500	16.7288	-69.5027	-9.93332	21.7189	9.56247	52.2057	-10.7066	11.8827	-197.021	0
0.3507	21.9067	146.535	-6.88171	79.0792	34.8921	70.8321	-3.99097	0.902943	-471.947	0
0.3513	10.9312	162.43	-1.08986	100.137	40.69	68.9953	-3.68571	-12.8218	-446.917	0
0.3520	-12.2589	113.585	3.79895	58.3348	35.5073	68.9953	-4.60148	-18.6006	-280.303	0.317528
0.3527	-34.564	166.356	7.7536	-49.3897	28.1764	64.1292	-1.5489	-20.7677	-154.25	0.317528
0.3533	-44.3003	172.791	18.7456	-108.003	26.3515	65.3538	2.41945	-19.5397	-131.08	-0.317528
0.3540	-44.3003	87.3288	29.4263	-47.8582	24.8186	71.4444	0.282646	-14.3387	-217.126	0
0.3547	-50.0978	63.2603	28.2119	13.7832	16.8829	66.2561	-6.43303	-9.46284	-302.87	0
0.3553	-51.9566	126.134	24.5375	-15.2102	12.0026	44.8904	-11.9277	-6.42896	-294.678	0.317528
0.3560	-38.193	140.743	19.9601	-88.1636	12.6179	15.5973	-18.9486	-6.42896	-233.31	0.317528
0.3567	-25.7128	62.9385	8.06499	-143.087	13.2227	32.0646	-24.138	-6.7179	-140.83	0
0.3573	-14.3832	-15.1876	-2.02403	-154.365	21.4608	90.6832	-22.6117	-3.97295	-43.4754	0
0.3580	-7.08097	-12.4204	-8.40751	-114.686	31.5343	105.926	-20.4749	3.97295	-12.6657	0
0.3587	-15.0028	44.9193	-14.2305	-40.8622	31.2318	82.1111	-18.0328	12.4967	-6.8857	0.317528
0.3593	-15.3126	90.4178	-18.1851	29.968	26.0387	65.0315	-16.8118	16.4697	23.3209	0
0.3600	9.38228	110.239	-19.0882	90.6696	22.3785	43.9881	-18.0328	15.2417	22.1146	0
0.3607	35.0508	102.581	-13.2963	112.667	16.5805	30.55	-15.5908	11.5938	25.1805	0
0.3613	43.2824	76.9678	-3.83009	45.213	8.64481	19.8833	-12.5382	2.13095	119.771	0
0.3620	36.5555	54.0576	1.02758	-54.889	3.76451	-9.11988	-14.9803	-17.0837	288.847	0
0.3627	14.6045	38.8056	2.27314	-149.805	4.06692	7.66972	-21.6959	-32.6504	492.704	0
0.3633	-1.28342	28.1228	3.79895	-245.313	11.3978	64.7415	-24.7485	-33.5895	652.633	0
0.3640	6.63841	22.9745	3.17617	-298.113	14.4428	75.7305	-19.2539	-25.6436	632.479	-0.635055
0.3647	31.3775	14.7371	2.55339	-283.147	9.26006	50.401	-12.8434	-18.0227	518.639	-0.635055
0.3653	48.1506	-14.6084	2.55339	-248.376	8.95765	10.4089	-11.6224	-17.6977	506.124	0.635055
0.3660	46.0263	-46.6569	-2.30428	-276.429	12.0026	-37.5107	-15.2855	-20.7677	535.124	0
0.3667	31.9971	-67.9582	-6.29007	-332.606	7.72714	-58.2641	-16.5065	-21.3817	493.006	0
0.3673	12.4359	-106.442	-4.14148	-321.294	3.46209	-56.4272	-13.7592	-21.0566	512.859	0
0.3680	11.241	-152.841	1.96175	-267.902	23.9114	-56.7173	-8.26458	-18.6006	621.472	-0.635055
0.3687	19.4727	-172.663	6.85057	-198.916	59.0016	-64.0647	-2.46468	-17.0837	467.373	-0.317528
0.3693	18.5433	-211.726	8.37637	-143.992	67.855	-75.666	-3.38045	-17.0837	48.3507	0.317528
0.3700	25.2702	-311.797	8.96801	-158.646	46.7904	-87.8473	-11.6224	-14.6638	-166.463	0
0.3707	13.6751	-318.811	7.13082	-175.422	29.0941	-102.8	-22.6117	-13.4358	-103.637	0
0.3713	-28.1468	-156.767	6.53918	-127.529	27.874	-119.59	-29.3161	-10.3658	-20.9084	0
0.3720	-54.7005	-49.6815	8.96801	7.37887	30.3142	-125.713	-26.8853	-1.228	-55.3871	0.317528
0.3727	-57.7541	-72.5917	7.7536	212.143	22.9937	-119.3	-24.7485	5.20095	-203.404	0.317528
0.3733	-54.0809	-57.9189	5.60501	354.673	5.59983	-107.376	-26.2748	8.5599	-401.481	0
0.3740	-36.998	8.30171	4.70198	377.854	-8.13384	-89.6842	-23.5275	11.5938	-551.007	0
0.3747	-13.8079	60.8148	1.02758	326.898	-18.5097	-79.0175	-24.4432	4.58695	-577.544	0
0.3753	0.840865	117.254	-5.07565	284.783	-23.4004	-72.6046	-31.7581	-7.3319	-560.456	0.317528
0.3760	10.3117	145.312	-5.3559	336.052	-16.6848	-46.3406	-34.2002	-3.97295	-608.354	0
0.3767	23.1459	102.581	-1.71264	397.693	-13.0246	-14.3082	-31.4529	7.9459	-683.745	0.317528
0.3773	35.6261	55.0229	-3.54984	365.637	-21.2627	0.934546	-31.4529	9.75179	-701.135	0
0.3780	44.2118	51.9339	-6.88171	307.058	-29.8032	3.09367	-32.9792	3.64789	-671.531	-0.317528
0.3787	57.3116	37.3255	-3.83009	285.688	-35.2988	0.934546	-32.3686	-2.45601	-655.046	0
0.3793	68.2871	53.4784	1.96175	302.186	-31.6385	6.44514	-27.1906	-5.48989	-639.214	0.317528
0.3800	69.836	167.9	-0.186834	345.519	-21.2627	13.1481	-22.6117	-9.75179	-572.066	0
0.3807	75.3238	234.443	-6.29007	335.425	-22.4828	7.05743	-25.359	-19.8286	-419.475	0
0.3813	46.3361	178.905	-3.23845	238.386	-27.0606	0.0322257	-30.2318	-24.7045	-220.795	0
0.3820	-45.5395	114.808	3.48756	117.54	-26.7478	3.70596	-33.2844	-22.2846	-141.132	0
0.3827	-110.817	89.4525	7.7536	26.0001	-27.3631	6.73518	-31.7581	-19.8286	-260.802	0
0.3833	-98.3369	77.6113	11.1166	3.72424	-32.2434	0.644515	-26.2748	-17.6977	-428.019	0
0.3840	-69.3492	62.6167	16.0054	14.6881	-38.3542	-21.9457	-26.2748	-19.8286	-405.15	0
0.3847	-81.2541	48.9093	21.1745	25.0603	-34.9964	-51.8512	-30.8424	-24.4156	-165.257	0
0.3853	-115.11	39.4492	26.9975	40.0269	-14.5471	-60.391	-30.5371	-23.8016	73.0789	0
0.3860	-127.944	33.0138	30.0491	4.00269	10.1777	-54.5904	-21.3907	-18.3117	151.536	0
0.3867	-120.907	30.8901	29.4263	-46.9533	22.9937	-53.3658	-10.0961	-11.9188	131.984	0
0.3873	-115.42	29.0881	30.0491	-7.90096	22.9937	-51.5289	-3.07519	-1.228	118.263	0
0.3880	-121.527	21.7518	28.8035	35.4325	15.9757	-47.8874	-1.85416	13.4358	149.073	0
0.3887	-122.412	16.5391	19.3684	-36.8944	11.3978	-43.6014	-3.68571	26.8355	254.369	0
0.3893	-74.5272	16.2173	5.32476	-126.589	4.68217	-40.5722	-6.43303	37.8514	396.556	0
0.3900	22.8361	14.4154	-5.3559	-147.96	-9.96916	-40.2499	-16.5065	45.4722	487.829	0
0.3907	116.526	14.4154	-10.8675	-154.991	-12.4093	-28.9709	-21.3907	52.4791	486.271	0
0.3913	167.465	17.1826	-13.2963	-215.101	-3.25353	-21.3334	-14.675	60.425	443.549	0
0.3920	133.299	16.5391	-13.6077	-305.736	3.76451	-27.7463	-12.2329	58.583	434.704	0
0.3927	34.4312	15.9599	-10.5561	-344.788	19.0207	-22.558	-10.0961	42.4022	497.278	0.317528
0.3933	-2.47834	10.7472	-8.40751	-311.827	37.0298	-13.6959	-5.212	23.8016	495.117	-0.317528
0.3940	91.4772	-2.70288	-2.30428	-230.346	50.7635	-14.0182	-4.90674	21.9596	261.656	-0.952583
0.3947	244.072	-14.6084	10.1824	-125.371	61.4417	-19.8188	-11.3172	32.3615	-0.150782	-0.317528
0.3953	278.547	-15.5094	10.1824	0.034806	62.6618	-29.5832	-29.9266	31.7475	-99.9683	0.317528
0.3960	125.377	-2.38111	-5.66729	122.413	66.3221	-38.123	-46.4105	30.8084	-164.05	0
0.3967	-53.1515	7.40075	-15.7563	198.707	80.671	-54.9126	-51.9052	37.8514	-238.486	0
0.3973	-137.681	-5.14834	-2.30428	275.942	94.0918	-67.094	-53.4314	34.4924	-321.818	0
0.3980	-177.688	-32.5633	23.0117	392.82	97.1472	-60.101	-50.3789	15.5667	-544.573	0
0.3987	-243.275	-46.6569	27.5891	530.757	85.8537	-50.9166	-49.4631	-7.62084	-897.051	0
0.3993	-288.151	-36.875	17.5312	713.244	68.4598	-41.4745	-48.2421	-14.9527	-1210.48	0
0.4000	-209.729	-18.8558	7.7536	871.612	57.7815	-37.5107	-46.7158	-2.13095	-1365.23	0
0.4007	-84.5733	2.18805	-11.4591	910.385	51.0659	-39.0254	-51.5999	9.46284	-1359.7	0
0.4013	-67.1807	22.6527	-29.1772	895.14	47.7081	-29.8732	-50.0736	18.3117	-1302.35	0.317528
0.4020	-99.5318	32.4346	-38.332	862.458	43.7454	-19.2065	-44.579	24.4156	-1248.62	0.317528
0.4027	-79.3953	33.0138	-46.8641	802.661	37.3322	-14.9205	-44.579	21.3456	-1196.45	0.317528
0.4033	-77.8906	28.1228	-52.0643	732.457	29.3965	-14.0182	-46.1053	15.5667	-1145.19	0
0.4040	-131.883	21.1082	-46.2725	641.822	18.4158	-13.4059	-51.2946	8.84884	-1048.44	0
0.4047	-120.907	5.85624	-26.7172	557.314	8.95765	-7.8953	-54.3472	1.228	-887.903	0
0.4053	38.1044	-33.2068	-3.23845	482.515	-0.813384	-13.4059	-55.263	-7.62084	-720.083	0
0.4060	243.762	-88.7446	12.6424	373.573	-15.1519	-30.7756	-62.2839	-21.6706	-573.875	0.317528
0.4067	334.708	-139.391	22.42	239.604	-26.7478	-34.4493	-67.1681	-36.9123	-431.386	0
0.4073	240.399	-172.663	26.6861	145.315	-44.1521	-25.9095	-70.2206	-48.8312	-297.09	0
0.4080	54.8775	-171.118	28.5233	95.264	-68.8665	-18.5942	-65.6418	-52.1901	-179.581	0
0.4087	-54.7005	-153.742	27.5891	47.6494	-80.7648	-24.0726	-53.1262	-45.1833	-85.5937	0
0.4093	-59.2588	-151.297	20.5828	-4.21152	-83.5178	-38.123	-44.579	-36.6234	-42.5707	0
0.4100	-33.9444	-141.837	12.331	-62.8248	-93.2784	-39.0254	-35.116	-28.6775	-45.335	0.317528
0.4107	-31.2005	-87.5219	2.27314	-123.561	-98.774	-25.2972	-27.8011	-18.0227	-45.6366	0.317528
0.4113	-25.9783	20.2073	-4.14148	-168.426	-93.8937	13.7604	-27.4958	-6.7179	-10.2532	-0.317528
0.4120	24.3408	96.5315	2.27314	-189.171	-85.958	64.7415	-22.3064	5.77884	41.3644	0
0.4127	70.7211	82.4379	7.7536	-169.331	-78.3247	82.4334	-20.4749	16.1807	56.2918	0
0.4133	22.5263	60.8148	0.435945	-127.529	-73.4444	70.8321	-24.4432	21.6706	62.0718	-0.317528
0.4140	-116.924	65.0622	-12.7047	-116.844	-78.6375	53.4303	-19.8644	30.1944	108.764	0
0.4147	-273.193	60.1713	-17.5624	-124.153	-89.3158	32.3869	-8.26458	41.4993	105.748	0
0.4153	-385.78	48.5875	-6.88171	-109.5	-89.6182	12.2458	5.77729	45.7612	23.6225	0
0.4160	-342.453	33.3355	3.48756	-66.4794	-81.9849	47.0173	18.5868	38.4654	-10.2532	0
0.4167	-154.188	12.2917	8.65662	-27.4271	-78.9399	132.158	30.1866	29.6165	31.5636	0
0.4173	-65.9857	-7.59381	18.7456	-44.8301	-73.4444	159.936	37.8181	34.4924	79.8138	0
0.4180	-52.2221	-13.9649	20.8942	-35.9546	-52.9951	134.929	31.4077	57.066	107.558	0
0.4187	113.472	-2.05934	8.96801	81.8289	-28.8855	114.466	20.4184	79.9646	114.594	0
0.4193	366.75	2.83159	-4.14148	174.9	-17.9049	100.738	20.1131	76.8946	110.623	0
0.4200	481.506	-2.05934	-15.4449	161.5	-16.6848	100.125	23.7762	73.2467	106.351	0.317528
0.4207	317.316	15.3163	-31.0144	114.198	-15.1519	86.1071	24.0815	93.6894	97.5055	0
0.4213	-33.015	48.0083	-48.0785	57.7083	-20.0426	41.829	19.5026	101.31	88.6596	-0.317528
0.4220	-306.163	66.9285	-54.8045	25.0603	-14.5471	6.73518	16.45	91.8474	98.1086	0
0.4227	-293.639	60.493	-44.1239	58.6481	32.1495	-1.48238	26.2183	86.0685	109.719	0
0.4233	-162.42	36.3602	-24.5998	112.667	69.6799	-8.21756	46.3653	77.8337	107.859	0
0.4240	-121.527	17.7618	-15.1335	114.198	63.2771	-29.5832	58.5643	69.2738	119.771	-0.952583
0.4247	-29.3418	10.4254	-16.6593	54.367	53.2036	-45.4383	50.6389	58.583	147.867	-0.635055
0.4253	95.7701	1.86627	-11.7705	-1.49666	45.2679	-45.4383	40.2601	28.6775	171.037	0.635055
0.4260	121.704	-17.0539	6.85057	-28.6453	20.2407	-42.3768	38.1233	-16.1807	189.683	0.635055
0.4267	93.336	-44.7906	26.6861	-54.2625	-20.345	-18.272	34.155	-50.0592	207.677	0
0.4273	-72.4029	-68.6017	43.1586	-75.9467	-56.3529	6.12289	27.134	-62.881	218.03	0
0.4280	-215.527	-82.9527	55.365	-82.6642	-88.0957	23.5248	17.0605	-70.5018	222.001	0
0.4287	-15.6224	-78.9627	49.5732	-78.3831	-112.508	97.9984	9.13513	-73.5357	236.024	0
0.4293	217.518	-52.127	26.6861	-68.6026	-92.976	173.987	11.5772	-60.75	259.244	0
0.4300	261.155	-15.1876	-6.29007	-75.6334	-38.3542	203.892	16.7553	-32.0364	272.06	0
0.4307	310.633	33.0138	-52.9673	-105.845	20.5536	235.634	22.5552	14.3387	276.634	0
0.4313	366.174	76.646	-95.0983	-137.275	61.1393	246.913	22.5552	55.224	280.906	0
0.4320	349.667	83.6606	-102.416	-158.646	62.9642	213.334	13.4087	63.4588	279.097	0
0.4327	292.001	70.5323	-87.1579	-171.454	37.6346	148.657	18.8921	59.197	272.965	0
0.4333	100.328	51.9339	-70.374	-185.203	1.62677	60.1654	32.0182	51.8651	270.854	0
0.4340	-269.829	12.5491	-41.0723	-197.106	-2.64871	-16.7574	31.4077	27.7745	273.267	0.317528
0.4347	-354.048	-35.9741	0.747334	-189.762	32.1495	-43.6014	33.8497	-0.902943	273.87	0
0.4353	6.06308	-68.9235	32.7893	-177.58	34.5897	-22.2358	45.4495	-17.0837	269.899	-0.317528
0.4360	341.435	-86.2991	50.7876	-177.859	-11.4917	-9.73217	59.7853	-33.8784	265.024	-0.317528
0.4367	372.547	-94.8583	59.3197	-190.702	-44.1521	-30.1955	68.6378	-73.8607	260.149	-0.317528
0.4373	115.287	-99.7492	56.5794	-209.915	-56.3529	-51.2389	60.7011	-116.588	254.67	0
0.4380	-201.763	-101.551	48.9504	-211.133	-87.7829	-85.4304	43.9232	-131.541	247.634	0
0.4387	-354.048	-92.7346	37.3667	-179.39	-112.508	-109.825	28.6603	-125.112	237.28	0
0.4393	-367.812	-74.7154	25.1603	-119.593	-103.352	-61.0033	22.8604	-101.924	228.133	0
0.4400	-382.726	-57.2753	17.8426	-42.6721	-89.6182	22.3002	21.9447	-61.9419	217.427	0.317528
0.4407	-482.524	-36.875	0.747334	15.3146	-81.6825	61.3578	18.8921	-14.6638	204.912	0.317528
0.4413	-594.536	-4.18303	-31.0144	3.09773	-68.5641	55.5894	21.9447	34.1674	200.942	0
0.4420	-602.148	26.9001	-56.6417	-38.1126	-53.9127	37.2529	23.7762	66.8178	199.434	0
0.4427	-506.333	42.7956	-61.8108	-46.3268	-56.3529	10.6989	17.3658	69.8878	192.699	0
0.4433	-334.841	44.9193	-55.1159	-50.9212	-84.7379	-24.0726	9.74564	68.9849	185.713	-0.317528
0.4440	-104.444	33.9147	-46.5527	-71.9788	-112.205	-63.1302	8.52461	69.5627	174.404	0
0.4447	129.626	17.7618	-34.6576	-81.7245	-105.49	-112.564	18.8921	55.838	156.109	0
0.4453	436.365	5.53447	-22.1398	-83.2559	-85.958	-167.219	23.7762	41.8243	140.83	0
0.4460	724.427	-0.514834	-14.2305	-93.0364	-92.6736	-190.1	20.7236	37.5263	135.955	0.317528
0.4467	639.278	-5.72753	-6.88171	-96.3778	-70.389	-175.147	35.376	29.0025	133.19	0.317528
0.4473	353.65	-13.6431	-2.02403	-89.9735	28.4893	-167.509	76.2693	9.13778	123.44	0
0.4480	231.592	-11.8412	-2.30428	-86.9454	98.3673	-168.734	126.32	1.842	114.293	-0.317528
0.4487	241.328	3.08901	-13.9191	-79.6013	79.7533	-136.992	158.056	6.7179	105.447	0
0.4493	319.75	7.72252	-21.2368	-61.6066	33.3696	-80.5321	169.656	-1.842	92.0271	0.317528
0.4500	258.721	-13.6431	-8.12726	-46.0483	-20.345	-49.7243	172.708	-22.2846	76.1448	0
0.4507	51.2042	-38.0978	5.01337	-35.9546	-78.6375	-63.7425	163.55	-40.8853	60.2624	0
0.4513	-129.449	-39.5779	5.9164	-16.1152	-138.442	-22.2358	155.003	-46.0862	48.0491	0
0.4520	-282.973	-34.4296	5.9164	10.407	-196.432	112.339	151.035	-41.4993	33.4233	0
0.4527	-322.007	-38.9987	10.4938	27.2183	-206.506	177.338	128.762	-39.0794	18.4456	0
0.4533	-254.561	-42.3451	18.1229	19.2825	-169.58	132.48	98.5418	-39.3683	16.9378	0
0.4540	-125.2	-41.4442	20.2714	-17.9599	-128.984	65.3538	79.9324	-36.3344	25.1805	-0.317528
0.4547	101.258	-40.2214	22.42	-59.4486	-83.5178	-0.870095	62.2274	-18.6006	36.4389	0
0.4553	277.662	-33.786	22.1086	-78.6963	-53.3079	-52.1412	34.7655	7.00684	45.335	0.317528
0.4560	266.687	-11.8412	2.55339	-75.0417	-59.4083	-62.8402	2.72471	29.0025	48.3507	0
0.4567	147.328	17.44	-21.8595	-60.6668	-57.573	-44.826	-24.7485	48.2172	50.8134	0
0.4573	11.5508	38.5482	-39.2351	-56.7338	-16.9872	-12.4714	-50.3789	59.811	52.9244	0
0.4580	-89.1759	53.1567	-49.6043	-61.2934	21.4608	9.50659	-71.7356	68.3709	55.6887	0
0.4587	-255.49	55.0229	-45.0269	-56.7338	26.654	20.7856	-77.5355	77.2197	55.0856	0
0.4593	-449.287	39.4492	-29.7688	-48.1715	25.4339	103.187	-69.9154	74.4747	48.6522	0
0.4600	-411.448	22.3309	-11.1789	-39.3308	23.5986	195.642	-57.7051	55.838	36.7907	0
0.4607	-147.151	4.63351	2.86478	-29.5503	13.8379	235.634	-51.2946	24.0905	14.1735	0
0.4613	230.972	-13.9649	11.1166	-23.4592	16.2781	294.833	-35.7265	-6.7179	-8.09195	0
0.4620	446.101	-22.2022	13.8568	-25.2691	22.0761	296.058	-18.0328	-27.4856	-21.8131	0
0.4627	249.25	-25.2912	10.1824	-37.1728	5.90225	196.255	-22.3064	-45.7612	-35.2327	0.317528
0.4633	-44.9199	-28.3159	13.5454	-38.7043	-15.1519	109.6	-12.5382	-58.294	-47.7475	0.317528
0.4640	-146.532	-32.3059	23.0117	-32.9265	-13.327	68.7052	17.9763	-62.5559	-54.4824	0
0.4647	-170.341	-43.2461	33.1007	-33.2049	7.42473	73.8936	28.3551	-66.5288	-57.2468	0
0.4653	-165.164	-55.1516	45.3072	-33.5182	22.6809	124.552	20.4184	-68.0458	-59.9608	0.317528
0.4660	-129.139	-54.8942	48.3588	-42.9854	24.2138	112.017	0.587904	-55.5491	-63.6299	0
0.4667	-142.593	-39.5779	40.7297	-60.6668	31.5343	13.4704	-10.4014	-27.4856	-62.1221	0
0.4673	-129.759	-17.6331	26.6861	-69.2291	43.7454	-93.648	15.5342	-6.7179	-58.1515	0.317528
0.4680	2.08003	6.7572	6.85057	-73.5103	50.7635	-188.553	46.3653	5.48989	-53.2762	0.317528
0.4687	148.877	27.5436	-6.88171	-88.1636	59.9193	-177.274	37.2076	23.1876	-37.6954	-0.317528
0.4693	227.919	37.3255	-15.1335	-111.658	59.304	-60.101	-3.07519	35.3954	-17.8425	-0.635055
0.4700	253.853	44.9193	-17.2821	-117.749	17.1958	36.3506	-25.6643	45.4722	-1.70886	0.317528
0.4707	171.758	46.4638	-14.8221	-106.158	-42.6192	94.6469	-21.0854	60.7139	6.83544	0.317528
0.4713	64.9236	44.5975	-20.3337	-83.5692	-38.6566	115.078	-22.3064	80.2536	8.09195	0.317528
0.4720	72.2701	45.5629	-22.4512	-26.8006	19.6359	83.3357	-26.2748	95.8203	6.53387	0
0.4727	129.626	29.9891	-13.9191	35.154	51.0659	49.1765	-30.2318	86.3575	4.12137	-0.317528
0.4733	262.084	1.86627	-1.40125	72.3617	65.7172	66.5461	-40.6106	64.0728	9.2982	0
0.4740	391.179	-10.2967	5.01337	88.8597	87.9914	101.35	-42.1369	44.8582	16.6362	0.317528
0.4747	317.935	-6.95027	3.17617	76.3295	100.203	77.5351	-27.4958	7.9459	13.5704	0
0.4753	168.394	-3.92561	10.1824	51.0256	123.394	26.8763	-3.07519	-30.8084	10.806	0
0.4760	54.2579	-1.48015	19.6487	25.6868	146.284	25.3616	6.99832	-61.3279	12.0625	0
0.4767	-98.3369	-0.836606	23.0117	2.78448	127.67	-17.6597	0.282646	-107.414	12.9672	0
0.4773	-215.527	-3.60384	31.5749	-5.46454	98.3673	-172.085	-7.95932	-141.004	12.9672	0
0.4780	-218.581	-6.37108	39.2039	-0.243642	90.4316	-286.841	-19.2539	-147.721	5.93075	0
0.4787	-159.986	-7.59381	43.1586	10.407	95.0095	-282.555	-31.7581	-146.782	1.96016	0
0.4793	-90.9904	-8.75219	45.3072	20.5007	101.423	-223.647	-35.116	-138.259	4.42293	0
0.4800	-45.2297	-9.39573	39.7956	24.4686	97.4496	-190.39	-14.9803	-117.491	0.753908	0.317528
0.4807	-76.0319	-4.82657	32.1665	14.0964	94.0918	-216.331	26.8288	-86.0685	-3.51824	0
0.4813	-180.742	-0.514834	26.6861	-6.9612	97.1472	-236.182	43.9232	-57.9689	-1.35704	-0.317528
0.4820	-192.027	-0.257417	27.2777	-19.4914	87.689	-201.991	17.3658	-39.0794	3.51824	0
0.4827	-21.4199	4.31174	28.2119	-17.9599	74.5706	-152.267	-12.5382	-18.9257	8.09195	0.317528
0.4833	107.055	13.7718	17.5312	-17.0549	76.0931	-124.166	-25.9695	-1.51694	10.806	0.317528
0.4840	125.997	24.1972	1.65036	-15.2102	69.6799	-102.188	-39.0843	7.62084	10.5045	-0.635055
0.4847	210.526	36.3602	-10.8675	-5.74299	56.259	-90.9088	-61.0629	14.3387	10.2029	-0.317528
0.4853	223.316	41.8947	-16.6593	-0.87015	54.7261	-96.7094	-86.9985	17.4087	11.4594	0.317528
0.4860	48.7701	38.2265	-15.4449	0.974568	45.8832	-107.376	-91.8826	17.6977	9.90133	0.317528
0.4867	-33.3248	31.791	-11.1789	14.3749	12.0026	-129.966	-65.0313	20.1537	5.62918	0
0.4873	-19.2956	18.9845	-2.61567	27.2183	-30.4185	-128.452	-42.1369	16.7947	0.150782	0
0.4880	-66.2955	-1.73757	12.6424	23.8421	-71.9219	-73.2168	-46.7158	3.03389	-4.42293	0.317528
0.4887	24.9604	-22.2022	29.7377	6.75236	-124.104	-43.6014	-51.5999	-10.6908	-5.98101	0
0.4893	240.399	-34.4296	38.8925	-7.58771	-154.313	-71.9923	-25.9695	-19.5397	-7.48882	0
0.4900	292.001	-39.3205	38.2698	-10.9291	-127.159	-1.19235	8.52461	-32.9755	-7.79039	0
0.4907	155.56	-40.8006	33.6923	-9.11917	-65.5087	218.233	22.8604	-49.1201	-6.58413	0
0.4913	13.6751	-37.1324	28.8035	-14.897	-15.7671	395.539	25.3025	-51.5761	-6.8857	0
0.4920	26.8192	-28.3159	23.3231	-26.8006	9.56247	408.654	29.5761	-45.4722	-7.79039	0
0.4927	121.704	-21.623	18.4343	-23.7725	29.7094	328.702	39.6496	-43.0162	-9.59977	-0.317528
0.4933	129.626	-17.9549	15.0712	-15.8367	44.9655	251.49	46.9758	-40.5963	-7.48882	0
0.4940	91.4772	-13.6431	12.6424	-28.6453	54.7261	165.125	33.2392	-34.1674	6.23231	0.317528
0.4947	81.7409	-10.2967	12.0196	-42.0804	65.7172	59.8432	6.99832	-26.2576	21.21	0.317528
0.4953	79.8821	-9.7175	12.6424	-36.2678	66.3221	-50.3366	-23.2222	-20.1537	24.5774	0
0.4960	70.4556	-11.8412	10.1824	-21.0228	49.8458	-194.676	-32.6739	-15.2778	14.7766	0
0.4967	69.836	-14.8658	9.90218	-2.71487	41.3053	-340.239	11.8824	-8.23484	5.02606	0.317528
0.4973	97.5846	-16.4103	11.1166	6.43911	46.1856	-400.985	36.2918	-2.74495	4.72449	-0.317528
0.4980	137.592	-12.4204	8.65662	6.16066	40.0852	-359.768	-19.5591	0.902943	9.59977	-0.317528
0.4987	120.775	-5.14834	7.13082	2.78448	33.9744	-238.922	-98.2931	4.87589	15.3797	0.317528
0.4993	32.6167	-5.40576	5.01337	-1.77511	45.2679	-60.391	-148.344	3.64789	14.475	0
0.5000	-50.4076	-13.0639	6.85057	-1.77511	59.9193	87.0095	-158.406	0.614001	8.99664	-0.317528
0.5007	-98.3369	-18.8558	9.90218	-12.1473	77.0107	133.382	-155.048	0.288942	11.761	0
0.5013	-114.181	-16.7321	6.85057	-22.8327	88.6067	127.292	-153.533	3.64789	14.7766	0
0.5020	-128.21	-10.6185	8.06499	-10.3374	77.0107	97.9984	-113.239	14.9527	12.3641	0
0.5027	-176.139	-15.5094	16.5971	-0.556896	51.9836	33.2892	-30.2318	22.8986	7.18726	0
0.5033	-204.242	-25.5487	23.0117	-10.9291	21.4608	-53.9781	49.4179	22.2846	-0.150782	0
0.5040	-258.234	-29.8604	28.8035	-28.6453	-18.2073	-124.166	120.215	25.9325	-0.150782	0
0.5047	-393.436	-38.6769	33.6923	-32.6132	-45.0594	-105.249	158.361	30.1944	5.02606	0
0.5053	-450.172	-46.6569	32.4779	-17.9599	-50.5549	-62.2279	131.204	34.4924	6.53387	0.317528
0.5060	-302.8	-46.3351	28.5233	-6.3695	-59.7107	-87.5573	92.4479	60.0999	7.18726	0
0.5067	-93.1147	-38.6769	16.3168	-9.11917	-80.16	-32.6124	71.6904	94.5923	8.09195	0
0.5073	-4.95668	-8.75219	-16.3479	-16.1152	-102.737	145.918	39.0391	104.994	10.5045	0
0.5080	20.9774	31.4693	-54.4931	-20.7096	-110.37	297.572	2.41945	111.676	12.6657	0
0.5087	57.0018	58.3694	-79.2175	-16.7417	-99.0764	371.434	-11.6224	138.548	8.99664	0
0.5093	21.5969	82.4379	-96.0013	-5.15129	-89.0134	375.397	-14.3697	155.342	1.35704	0
0.5100	-73.9076	94.987	-99.6757	-1.1834	-91.1407	307.047	-13.7592	132.155	-5.62918	0.317528
0.5107	-102.895	79.0914	-80.1205	-2.08836	-94.4985	194.418	-6.12777	90.3304	-9.59977	0.317528
0.5113	18.2335	41.8947	-43.5011	3.72424	-92.6736	83.658	-15.2855	63.1699	-7.18726	0.317528
0.5120	245.931	0.0643543	-4.14148	6.16066	-94.4985	-38.123	-34.5055	39.0433	-0.452345	0
0.5127	409.501	-26.1922	16.3168	-11.8688	-107.93	-152.847	-57.3998	3.35895	11.1076	0
0.5133	443.357	-37.1324	14.7599	-41.7672	-117.388	-201.991	-104.703	-36.0094	28.2464	-0.317528
0.5140	399.101	-42.6669	10.4938	-51.8261	-104.874	-220.005	-140.102	-72.3438	40.7111	-0.635055
0.5147	287.133	-39.5779	10.8052	-39.644	-85.3427	-179.723	-141.323	-104.994	43.4754	-0.317528
0.5153	97.5846	-29.2169	8.06499	-29.8635	-88.0957	-70.1554	-139.797	-124.209	39.2032	0.317528
0.5160	-69.3492	-21.3013	1.65036	-30.7685	-107.314	-9.11988	-141.018	-119.622	32.5186	0.317528
0.5167	-113.605	-21.623	1.02758	-32.3	-111.59	6.44514	-130.639	-112.904	28.2464	0
0.5173	-111.127	-25.8704	4.0792	-28.6453	-100.912	15.5973	-102.872	-111.712	23.3209	0.317528
0.5180	-112.056	-28.3159	4.39059	-22.241	-86.5628	7.05743	-64.1155	-100.696	16.6362	0.317528
0.5187	-92.8492	-25.8704	6.22779	-12.4605	-70.389	4.31825	-28.4116	-92.1724	15.3797	0
0.5193	-72.0931	-21.3013	7.13082	-5.74299	-62.4533	14.3727	-8.26458	-90.9444	15.0782	0.317528
0.5200	-71.4735	-19.435	3.17617	-2.40161	-62.7661	7.66972	4.251	-83.6125	8.69508	0.317528
0.5207	-80.3247	-19.435	0.747334	1.87952	-63.6838	-15.8228	16.1448	-72.9217	2.26173	0
0.5213	-77.8906	-19.1776	-0.186834	2.19278	-66.7287	64.1292	14.0079	-63.7839	0.753908	0
0.5220	-65.3662	-15.8312	-2.30428	4.00269	-63.0685	251.49	5.77729	-53.0931	-0.452345	0
0.5227	-54.7005	-11.1976	-1.40125	5.84741	-41.0967	348.553	3.64048	-43.9553	-1.70886	0.317528
0.5233	-44.9199	-9.39573	-0.498223	-2.08836	-23.7028	328.412	-0.938386	-37.5263	-2.31199	0
0.5240	-37.5734	-10.2967	-4.45287	-11.2423	-28.8855	273.177	-7.3488	-32.9755	-5.02606	-0.317528
0.5247	-32.3954	-10.2967	-7.19309	-6.05624	-38.0413	198.092	5.16677	-27.7745	-8.39351	-0.317528
0.5253	-25.7128	-9.39573	-4.14148	4.00269	-42.0144	128.194	34.7655	-21.0566	-10.5547	0
0.5260	-17.4369	-9.97492	-1.08986	1.25302	-50.2525	55.5894	44.839	-13.4358	-11.1578	0
0.5267	-9.20526	-9.97492	-0.778473	-6.68275	-60.0131	-32.0001	46.06	-8.5599	-12.6657	0
0.5273	-4.0273	-10.2967	-1.40125	0.034806	-65.2063	-79.6298	90.6164	-7.3319	-19.099	0
0.5280	-3.40771	-10.2967	-2.61567	18.656	-67.344	-10.0544	155.919	-3.64789	-27.3417	0.317528
0.5287	-2.2128	-8.49477	-2.30428	27.4967	-62.4533	90.3609	175.455	2.45601	-29.7543	0
0.5293	3.00941	-6.62849	-0.498223	14.6881	-59.7107	104.089	159.887	6.39284	-21.5115	-0.317528
0.5300	4.51412	-6.95027	-2.02403	-5.74299	-46.8947	172.15	138.225	7.3319	-10.5547	-0.317528
0.5307	3.58474	-7.59381	-3.54984	-7.90096	6.50707	321.065	120.826	8.23484	-7.18726	0
0.5313	7.25799	-6.37108	-0.498223	10.1285	69.9927	390.962	118.994	10.3658	-11.1578	0
0.5320	12.7457	-4.18303	3.48756	26.5918	86.4689	413.843	114.415	14.0498	-16.9378	-0.317528
0.5327	13.0555	-2.9603	2.27314	30.8729	52.9012	413.553	90.6164	16.7947	-21.5115	0
0.5333	9.69207	-3.92561	-1.71264	32.0911	51.6811	292.706	62.8379	16.1807	-24.5774	0
0.5340	11.5508	-3.60384	-2.30428	43.0898	104.781	83.948	58.5643	16.1807	-25.7837	0
0.5347	14.9143	-2.70288	-2.30428	51.304	113.623	-109.535	91.2269	17.6977	-27.6433	-0.317528
0.5353	15.1798	-2.9603	-5.66729	41.2451	51.6811	-256.323	135.478	17.4087	-27.9449	0
0.5360	19.1629	-0.836606	-4.14148	25.0603	-24.9229	-339.337	155.308	18.6006	-20.0037	0
0.5367	23.4557	0.965315	-2.61567	11.9385	-72.5267	-377.46	148.288	19.2146	-13.2688	0
0.5373	22.5263	0.965315	-6.88171	-7.27445	-60.326	-393.637	133.036	16.4697	-10.8563	0
0.5380	22.5263	4.31174	-9.34168	-24.6774	-20.0426	-357.931	107.7	15.5667	-2.01042	-0.317528
0.5387	21.9067	4.31174	-9.34168	-26.4874	4.37976	-271.276	60.7011	15.2417	6.53387	0
0.5393	21.9067	-4.18303	-8.12726	-25.2691	1.62677	-166.285	12.1877	14.6638	9.2982	0.317528
0.5400	27.7043	-9.39573	-6.60145	-26.8006	-19.4274	-71.67	-14.3697	13.4358	10.2029	0
0.5407	32.3069	-5.40576	-4.76426	-18.2731	-29.8032	7.95975	-19.8644	11.3048	6.83544	-0.317528
0.5413	29.563	-2.38111	-3.23845	-3.30657	-53.3079	75.1182	-13.7592	9.46284	-1.05547	0
0.5420	25.2702	-4.5048	-3.83009	2.78448	-94.8113	90.3609	-4.29622	8.23484	-7.18726	0
0.5427	25.8898	-5.72753	-3.83009	2.47123	-97.2515	62.2923	0.587904	8.23484	-6.8857	-0.317528
0.5433	25.2702	-5.72753	-3.23845	9.50204	-72.2243	11.0212	13.1035	8.23484	-7.79039	0
0.5440	22.2165	-2.9603	-3.23845	18.0643	-52.3903	-72.2823	49.1126	10.0768	-11.4594	0
0.5447	21.2872	4.31174	-1.08986	11.9385	-28.2807	-152.557	89.7006	13.4358	-11.761	-0.317528
0.5453	20.7118	11.3264	-3.23845	-0.556896	-7.83142	-200.154	93.669	14.6638	-9.90133	-1.27011
0.5460	19.7824	11.9699	-12.9849	-0.243642	-0.198132	-208.404	64.3642	18.3117	-5.98101	-0.317528
0.5467	19.1629	0.0643543	-18.1851	8.59708	11.3978	-165.672	58.5643	24.0905	-2.01042	0.317528
0.5473	17.6582	-16.4103	-14.5107	5.53415	21.1584	-126.003	71.6904	21.6706	0.753908	0
0.5480	15.7994	-17.3113	-12.3933	-7.58771	15.058	-161.419	54.6073	10.0768	5.62918	0
0.5487	17.6582	-9.39573	-20.3337	-14.3053	15.6628	-217.266	25.6077	14.9527	9.59977	0
0.5493	22.2165	-5.72753	-10.5561	-19.4914	18.103	-236.795	14.6185	36.0094	9.59977	0
0.5500	21.5969	4.95528	22.42	-30.4552	-5.69369	-238.309	23.4709	39.0433	10.2029	0
0.5507	17.3484	14.9946	22.42	-35.3629	-26.4454	-225.483	45.7548	25.0296	11.761	-0.317528
0.5513	15.4896	11.0689	-9.03029	-27.1139	-26.143	-196.512	70.7746	28.6775	11.761	-0.317528
0.5520	16.419	13.7718	-22.7626	-13.3655	-26.7478	-155.296	93.3637	29.2915	10.5045	0
0.5527	11.8606	33.9147	-23.6656	-3.93308	-27.3631	-83.2713	97.9313	-0.32506	7.18726	0.317528
0.5533	6.9482	44.0183	-23.074	1.87952	-18.5097	17.4341	86.648	-19.5397	6.53387	0
0.5540	9.69207	26.3209	-20.9254	4.31594	-7.52901	76.9228	63.4484	-35.7204	11.761	0
0.5547	10.0019	-0.257417	-11.7705	-4.21152	-7.2266	83.3357	11.8824	-50.0592	15.0782	0
0.5553	9.11674	-21.8805	6.22779	-11.8688	-10.8868	83.948	-32.3686	-36.9123	16.9378	0.317528
0.5560	6.9482	-41.7659	5.60501	-10.6506	-5.08886	76.6328	-32.6739	-9.46284	17.5409	0.317528
0.5567	-0.044256	-48.4588	-10.5561	-10.3374	3.76451	57.7163	-19.5591	27.4495	14.1735	0.317528
0.5573	2.38983	-30.7614	-6.88171	-7.58771	10.1777	49.7887	-14.0645	37.5263	11.761	0
0.5580	10.6214	-2.9603	11.7082	-2.40161	13.8379	49.4665	-13.7592	11.3048	12.9672	0
0.5587	13.0555	13.5144	8.96801	-5.15129	10.7825	39.7021	-22.0012	-11.3048	12.3641	-0.317528
0.5593	12.1704	8.62348	-8.40751	-9.39762	14.1404	34.5138	-29.0108	-29.6165	10.2029	-0.317528
0.5600	7.87757	-4.82657	-4.45287	-9.11917	34.2873	40.9267	-29.3161	-44.5693	8.69508	0
0.5607	2.08003	0.386126	10.1824	-5.15129	52.9012	40.9267	-26.2748	-36.6234	5.32762	0
0.5613	-1.90301	6.7572	8.96801	2.78448	55.039	30.26	-18.3381	-7.00684	1.6586	-0.317528
0.5620	-1.90301	-7.59381	-0.186834	11.9385	53.2036	20.4633	-5.82251	32.6504	-2.31199	0
0.5627	5.1337	-13.3857	-9.03029	18.3428	58.3863	18.9487	7.91409	64.3979	-5.32762	0
0.5633	7.87757	2.18805	-24.9111	15.5931	56.5614	20.4633	7.91409	65.9148	-5.62918	0
0.5640	4.20432	22.0092	-38.9237	9.50204	44.9655	19.8833	-8.26458	55.838	-4.42293	0
0.5647	5.75328	51.033	-32.5402	12.565	38.5523	15.5973	-18.0328	60.7139	-2.91511	0
0.5653	3.00941	66.9285	-13.9191	14.3749	35.5073	6.73518	-18.6433	62.5559	-2.91511	0
0.5660	-5.26647	54.7012	19.057	10.7202	35.8097	7.34747	-22.3064	60.425	-1.70886	0
0.5667	-10.1346	46.142	49.5732	7.69212	45.8832	35.126	-29.6213	43.6302	2.56329	0
0.5673	-14.1177	24.7764	26.3747	-2.40161	45.5703	65.0315	-38.4738	-6.7179	4.42293	0.317528
0.5680	-14.1177	-12.7422	-13.9191	-11.8688	23.2961	64.1292	-44.579	-37.8514	4.72449	0.317528
0.5687	-5.8418	-18.2123	-15.1335	-11.2423	6.81991	47.3396	-45.4947	-26.2576	5.62918	0
0.5693	-0.044256	-3.60384	-7.81587	-9.39762	10.1777	40.6044	-45.1895	-14.6638	5.93075	0
0.5700	2.08003	-16.4103	-16.9707	-7.27445	22.3785	43.9881	-48.8526	-7.00684	5.32762	0.317528
0.5707	5.44349	-36.5532	-27.9628	-2.71487	32.4519	45.7928	-50.0736	7.00684	4.72449	0.317528
0.5713	3.58474	-22.2022	-25.5028	0.974568	38.5523	41.829	-45.8	17.9866	3.21668	0
0.5720	-4.95668	0.0643543	-9.34168	1.87952	44.3503	38.7998	-46.4105	15.2417	1.96016	0
0.5727	-10.1346	-11.5194	3.48756	0.034806	48.6257	36.6406	-55.5683	-14.3387	1.35704	0
0.5733	-10.1346	-26.1922	17.8426	-1.77511	50.4611	32.3869	-63.505	-61.9419	1.6586	0
0.5740	-5.532	-8.75219	34.3151	-1.1834	51.6811	28.1008	-64.726	-91.2334	3.21668	0
0.5747	-1.90301	13.1926	12.331	-1.77511	52.5884	20.4633	-65.3365	-69.5989	2.91511	0.317528
0.5753	-0.354048	15.6381	-30.3916	-3.61982	54.7261	17.7241	-67.7786	-15.8557	4.42293	0
0.5760	2.38983	21.43	-25.1914	-4.52478	57.7815	20.7856	-72.0409	9.75179	7.18726	0
0.5767	-3.71751	33.0138	9.2794	-5.74299	59.6169	18.3364	-78.146	3.97295	4.42293	0
0.5773	-10.7542	34.88	15.3826	-3.61982	59.9193	18.9487	-77.2303	-5.48989	2.56329	-0.635055
0.5780	-8.58567	31.4693	-2.02403	-0.556896	59.6169	25.6517	-75.0935	-30.8084	3.21668	-0.952583
0.5787	-8.27588	20.8508	-10.2447	-2.40161	58.3863	25.9739	-79.9776	-31.7475	2.26173	0.635055
0.5793	-9.20526	4.63351	4.0792	-1.77511	57.1663	22.9125	-79.9776	20.7677	2.91511	0.635055
0.5800	-8.89546	-5.14834	19.9601	0.034806	57.7815	21.0756	-77.2303	57.066	3.8198	0
0.5807	-11.6393	-6.62849	12.331	-2.40161	57.7815	17.7241	-81.1986	42.1133	1.96016	0
0.5813	-7.08097	-6.62849	3.79895	-0.556896	57.4791	17.7241	-80.5881	7.00684	2.56329	-0.317528
0.5820	-0.663841	-10.9402	5.01337	1.87952	54.1213	17.7241	-77.5355	-26.8716	3.51824	0
0.5827	-0.973633	-12.163	0.747334	-1.1834	48.0105	14.3727	-82.1144	-42.4383	0.753908	0.317528
0.5833	0.840865	-9.97492	-2.61567	-1.49666	44.3503	14.3727	-84.5564	-37.8514	-0.150782	0
0.5840	2.69962	2.50982	-4.45287	0.034806	42.8278	14.3727	-83.3354	-25.0296	0.753908	0
0.5847	1.46045	23.8754	-6.29007	-0.556896	41.6077	13.1481	-82.4196	-8.23484	0.150782	0
0.5853	0.265536	30.5683	-3.83009	-0.243642	40.3876	14.0826	-80.5881	5.48989	-0.150782	0
0.5860	1.15066	36.682	-8.7189	0.034806	38.5523	14.0826	-80.2828	11.3048	-0.753908	0
0.5867	1.77024	50.132	-4.76426	0.034806	36.1121	12.8581	-79.3671	5.77884	-1.70886	0.317528
0.5873	-0.044256	28.4446	26.9975	0.974568	33.3696	14.0826	-76.3145	-18.3117	-1.05547	0
0.5880	-3.71751	-14.8658	41.3214	2.19278	32.4519	17.1119	-73.5672	-38.1403	-1.05547	0
0.5887	-7.08097	-19.7568	25.7519	4.00269	32.1495	19.8833	-68.9996	-31.4224	0.452345	0
0.5893	-13.8079	10.7472	3.48756	3.72424	29.0941	18.0464	-66.8628	-30.8084	1.05547	0.317528
0.5900	-17.4369	18.9845	-16.0366	1.56627	25.4339	14.6949	-68.9996	-37.2374	-0.150782	0.317528
0.5907	-12.8785	-2.05934	-23.074	1.25302	23.5986	13.7604	-67.7786	-12.4967	-0.753908	0.317528
0.5913	-11.9491	-13.0639	-30.0802	0.974568	22.0761	12.8581	-65.947	4.58695	-1.70886	0
0.5920	-9.51505	-14.6084	-43.2208	1.87952	21.4608	12.5358	-64.1155	-14.0498	-2.31199	0
0.5927	-1.59322	-13.6431	-47.7983	3.09773	20.5536	12.5358	-61.6734	-37.8514	-2.01042	0
0.5933	-1.59322	14.4154	-33.4432	2.19278	18.103	11.0212	-61.6734	-57.066	-2.91511	0
0.5940	-2.78813	40.6719	-10.2447	2.47123	15.3604	11.3112	-59.2313	-46.7002	-2.61355	0
0.5947	-0.663841	7.97993	0.435945	3.09773	13.5355	12.5358	-53.4314	7.9459	-2.01042	0
0.5953	-8.58567	-35.9741	1.02758	2.19278	11.3978	11.3112	-49.7684	43.0162	-2.01042	0
0.5960	-14.693	-32.8851	-7.19309	2.47123	10.7825	11.0212	-45.8	21.6706	-1.05547	0
0.5967	-13.1883	-16.7321	-16.9707	2.78448	8.95765	11.0212	-42.7474	-4.58695	-1.05547	0
0.5973	-9.20526	-21.623	-0.498223	2.19278	6.20466	9.79662	-41.5264	-11.3048	-2.31199	0
0.5980	-4.0273	-36.875	19.6487	2.78448	5.28699	10.1189	-37.2528	-17.4087	-1.35704	0
0.5987	-2.78813	-54.5725	12.0196	3.41099	4.37976	9.79662	-33.8949	-26.2576	-1.35704	0
0.5993	-2.2128	-79.8637	4.0792	4.31594	2.24202	10.1189	-30.2318	-27.7745	-2.01042	0
0.6000	0.531072	-77.1608	11.1166	5.84741	1.02194	12.2458	-25.0538	-17.6977	-1.05547	0
0.6007	-3.40771	-20.6577	17.8426	3.41099	-0.813384	10.1189	-24.4432	-2.13095	-2.91511	0
0.6013	-8.58567	25.6774	21.1745	2.19278	-2.95112	7.34747	-23.8327	15.2417	-4.12137	0
0.6020	-8.58567	36.3602	15.3826	3.09773	-4.1712	7.66972	-19.2539	25.6436	-3.51824	0
0.6027	-4.33709	37.3255	1.65036	3.09773	-4.77602	7.34747	-15.896	27.1605	-3.21668	0.317528
0.6033	4.20432	6.17801	-3.83009	4.00269	-5.69369	8.28201	-12.2329	28.6775	-2.31199	0
0.6040	8.18737	-41.4442	-2.02403	4.31594	-6.91376	8.8943	-8.26458	35.3954	-2.61355	-0.952583
0.6047	7.56778	-59.7208	-2.92706	4.00269	-7.83142	7.95975	-5.82251	53.4181	-3.51824	-0.317528
0.6053	6.9482	-51.8052	-10.5561	4.31594	-9.0515	7.05743	-3.38045	59.522	-3.21668	0.635055
0.6060	3.58474	-9.07396	-8.40751	3.41099	-11.4917	5.5106	-2.76993	46.0862	-3.21668	0.317528
0.6067	-1.28342	42.4738	24.8489	4.6292	-11.7941	7.34747	1.19842	37.2374	-2.01042	0
0.6073	-5.532	41.8947	56.8908	6.16066	-11.1892	8.8943	6.08255	21.0566	-0.452345	0.317528
0.6080	-9.51505	65.0622	54.462	4.31594	-13.0246	6.73518	5.47203	5.48989	-2.01042	0
0.6087	-9.82484	86.7496	42.8472	4.6292	-13.0246	6.73518	7.60884	33.2644	-1.35704	0
0.6093	-9.51505	-10.9402	52.002	4.94245	-13.327	6.44514	10.6614	57.68	-1.35704	0.635055
0.6100	-8.27588	-114.679	68.4745	2.78448	-15.1519	5.22057	9.44038	13.4358	-2.91511	0.317528
0.6107	-1.90301	-162.881	34.0037	5.2209	-14.8495	8.8943	14.3132	-57.68	-1.05547	0.317528
0.6113	-0.973633	-197.696	-30.703	7.06562	-14.8495	10.4089	19.1973	-116.588	0.452345	0
0.6120	-4.33709	-133.6	-46.2725	3.72424	-17.2896	7.05743	17.0605	-143.749	-1.70886	0
0.6127	4.51412	-26.1922	-37.1176	3.72424	-17.6025	5.83286	18.8921	-92.7864	-1.70886	0.317528
0.6133	13.3653	-37.1324	-31.606	3.09773	-18.5097	3.3837	20.4184	29.9055	-2.01042	0
0.6140	13.3653	-86.2991	3.17617	1.56627	-20.6474	1.54683	20.1131	131.216	-2.91511	0
0.6147	22.8361	-35.9741	45.5874	4.6292	-20.345	3.70596	25.6077	113.843	-1.05547	0.317528
0.6153	34.4312	67.8294	58.728	4.00269	-20.9498	1.86909	27.4393	22.8986	-1.05547	0.317528
0.6160	31.6873	137.976	42.8472	1.87952	-21.2627	-0.870095	26.8288	-27.1605	-2.91511	0
0.6167	14.2947	214.879	16.5971	3.09773	-19.7298	-1.19235	31.4077	-5.48989	-2.61355	0
0.6173	-11.3295	273.828	4.39059	2.19278	-20.0426	-3.02922	32.9339	50.3481	-2.91511	0
0.6180	-28.1468	170.668	4.39059	3.09773	-19.4274	-2.41693	35.0707	73.2467	-2.01042	0
0.6187	-41.8662	-13.9649	3.48756	5.53415	-18.5097	1.2568	39.6496	31.7475	0.452345	0
0.6193	-58.6392	-58.4981	-2.30428	2.47123	-20.345	4.31825	37.2076	-0.902943	-0.452345	0
0.6200	-56.2052	23.8754	-26.7172	0.661314	-21.2627	9.18433	35.9865	9.75179	-2.01042	0
0.6207	-34.2542	81.2151	-58.1675	1.87952	-20.6474	11.0212	38.4286	-15.8557	-2.31199	0
0.6213	-17.4369	87.0714	-54.4931	1.87952	-20.345	9.18433	39.0391	-63.7839	-2.61355	0.317528
0.6220	-11.9491	84.3041	-27.0286	4.94245	-19.7298	10.4089	45.4495	-92.1724	0.150782	0
0.6227	-13.1883	74.2005	-20.614	6.16066	-19.4274	8.57204	49.7231	-104.994	1.96016	0
0.6233	-16.5518	76.0668	-32.2288	3.09773	-20.6474	0.644515	46.6705	-63.1699	-0.452345	0.317528
0.6240	-15.3126	101.101	-32.8204	2.78448	-20.345	-5.7684	47.8916	-9.1739	-1.35704	0
0.6247	-10.7542	99.8779	-13.2963	2.78448	-19.4274	-10.3445	50.6389	6.39284	-1.05547	0
0.6253	-8.27588	71.4976	-3.83009	3.41099	-18.8225	-11.8591	52.7757	6.39284	-0.753908	0
0.6260	-7.08097	44.3401	-15.1335	5.2209	-17.2896	-8.50759	57.038	-4.58695	1.35704	0
0.6267	-6.46138	10.7472	-10.8675	2.19278	-18.2073	-9.44214	54.6073	-5.48989	0.753908	0
0.6273	-2.47834	-23.1032	1.33897	0.034806	-18.2073	-14.0182	50.6389	26.5465	-0.753908	0
0.6280	6.37287	-74.7154	17.2198	1.25302	-16.6848	-13.6959	51.5547	58.294	-0.452345	0
0.6287	6.06308	-128.709	53.2164	1.25302	-16.372	-12.7936	51.2494	50.9621	-0.452345	0.317528
0.6293	-9.51505	-132.699	75.5119	2.78448	-16.0695	-11.2468	53.081	17.9866	1.05547	0.317528
0.6300	-25.7128	-98.5264	70.6231	4.00269	-16.0695	-9.73217	54.9125	-9.75179	2.26173	0.317528
0.6307	-35.4491	-79.8637	34.0037	0.34806	-17.6025	-12.4714	50.6389	-24.4156	-0.150782	0.317528
0.6313	-34.564	-143.639	-23.977	-0.87015	-17.2896	-11.8591	49.4179	-18.0227	-0.150782	0.317528
0.6320	-23.5442	-217.196	-37.3979	0.034806	-16.9872	-11.2468	50.9442	2.45601	0.753908	0
0.6327	-13.1883	-178.776	-22.7626	0.661314	-18.2073	-11.8591	50.6389	28.6775	0.452345	0.317528
0.6333	-3.09792	-78.9627	-27.34	2.78448	-17.2896	-9.73217	53.3862	53.0931	1.6586	0
0.6340	7.25799	-2.38111	-16.0366	2.19278	-16.6848	-9.11988	53.081	52.8041	0.753908	-0.635055
0.6347	12.7457	17.7618	15.694	0.661314	-15.7671	-10.3445	50.9442	30.8084	0.150782	0
0.6353	13.6751	47.6865	17.8426	0.034806	-15.4647	-11.569	50.9442	8.5599	1.05547	0.635055
0.6360	12.4359	138.941	-0.186834	-0.243642	-15.7671	-12.4714	49.7231	-11.3048	0.753908	0
0.6367	10.0019	131.926	7.44221	2.19278	-14.5471	-10.0544	50.3336	-21.3817	1.96016	0
0.6373	6.06308	17.44	40.4183	3.41099	-13.327	-8.50759	50.6389	-14.3387	2.56329	0
0.6380	11.5508	-37.1324	71.2459	0.974568	-13.6294	-10.6345	48.1968	-4.58695	0.753908	0
0.6387	17.6582	-43.8896	69.7201	0.974568	-13.0246	-10.9567	46.6705	1.842	0.452345	0
0.6393	12.1704	-42.3451	32.4779	1.56627	-12.4093	-10.9567	44.839	11.5938	1.05547	0
0.6400	8.80695	-23.7467	-6.29007	0.661314	-12.1069	-11.2468	43.618	25.3185	0.452345	0
0.6407	5.44349	-36.2315	-17.5624	2.47123	-10.8868	-9.11988	46.3653	31.4224	1.35704	0
0.6413	-1.90301	-54.5725	3.17617	2.47123	-10.8868	-9.11988	46.06	-2.45601	1.6586	0
0.6420	-5.8418	-0.257417	15.0712	-0.243642	-10.574	-10.9567	42.3969	-56.452	0.753908	0
0.6427	-9.51505	61.0722	-15.7563	-1.1834	-9.0515	-10.3445	41.1759	-41.4993	1.05547	0.317528
0.6433	-16.5518	106.249	-40.7609	-1.49666	-8.44668	-10.3445	39.0391	55.224	1.35704	0.317528
0.6440	-11.6393	164.876	-23.3853	-0.243642	-8.13384	-9.44214	38.1233	105.897	1.35704	0
0.6447	2.08003	157.539	-15.1335	1.56627	-8.44668	-8.21756	39.3444	51.2511	2.26173	0
0.6453	8.80695	104.447	-34.066	-0.243642	-8.44668	-10.3445	36.9023	-4.87589	1.6586	0.317528
0.6460	7.56778	79.735	-38.6434	-1.77511	-8.44668	-12.1813	31.7129	-16.1807	-0.150782	0
0.6467	-1.59322	49.231	-35.5918	-2.08836	-9.35391	-12.4714	28.0498	-21.9596	-1.35704	0
0.6473	-4.0273	-8.49477	-40.7609	-0.556896	-8.74909	-10.3445	27.134	-23.8016	-0.753908	0
0.6480	0.840865	-19.7568	-33.1318	1.87952	-6.30894	-7.60527	29.5761	-13.1107	1.05547	0
0.6487	-0.354048	36.1028	-13.6077	1.87952	-5.39127	-7.8953	28.9656	-4.58695	0.753908	0
0.6493	-5.26647	52.5775	7.13082	-0.556896	-5.69369	-9.44214	24.3867	2.74495	-1.05547	0
0.6500	-6.77117	-4.5048	16.3168	-1.49666	-4.77602	-9.11988	22.2499	30.5195	-1.35704	0
0.6507	-5.26647	-63.7108	-2.02403	-1.1834	-3.86879	-7.60527	23.4709	66.5288	-0.452345	0
0.6513	-2.78813	-53.028	-26.1256	0.34806	-2.95112	-5.15612	25.913	73.8607	0.753908	0
0.6520	-12.2589	-15.8312	-34.3462	1.56627	-2.03346	-3.64151	26.8288	51.2511	2.26173	0
0.6527	-30.8907	-48.4588	-34.066	0.661314	-2.64871	-4.54383	23.1657	29.6165	1.6586	0
0.6533	-35.1393	-116.224	-30.0802	-1.49666	-2.64871	-5.7684	19.1973	20.1537	-0.150782	-0.317528
0.6540	-29.9613	-140.936	-36.1834	-2.40161	-2.03346	-5.44615	17.9763	8.5599	-0.452345	0
0.6547	-29.9613	-48.7806	-49.0127	-0.243642	0.10428	-2.70696	19.1973	11.8827	1.35704	0
0.6553	-28.4566	63.5177	-48.3899	1.56627	1.92918	-0.580063	20.1131	40.5963	2.91511	0
0.6560	-21.1101	25.42	-33.4432	0.974568	2.24202	-0.580063	18.5868	57.3549	2.26173	0
0.6567	-14.1177	-38.0978	-16.6593	-0.243642	2.24202	-1.19235	15.5342	21.6706	1.35704	0
0.6573	-11.6393	29.9891	-9.34168	-1.49666	1.92918	-1.19235	12.493	-36.6234	1.05547	0
0.6580	-8.89546	94.6652	-12.9849	-1.77511	2.54443	-0.580063	10.3562	-48.2172	1.35704	0
0.6587	-3.09792	93.1207	-16.0366	0.34806	4.68217	0.644515	10.3562	-23.8016	2.56329	0
0.6593	-4.64688	182.251	-5.66729	1.87952	4.06692	0.644515	10.3562	-9.46284	2.91511	0
0.6600	-13.1883	259.477	16.0054	0.034806	1.32436	-3.64151	5.16677	-13.4358	0.452345	0
0.6607	-15.6224	113.006	19.057	-0.87015	0.709104	-5.7684	0.587904	-18.0227	-1.35704	0
0.6613	-15.6224	-64.6117	5.9164	0.34806	1.62677	-3.31925	-0.938386	6.39284	-0.452345	-0.317528
0.6620	-19.9152	-61.9088	11.428	0.974568	2.54443	-0.870095	-2.46468	42.7273	0.150782	0
0.6627	-20.8003	-55.7952	18.4343	1.87952	4.06692	0.934546	-2.46468	56.1631	1.35704	0.317528
0.6633	-26.5979	-119.57	-1.71264	1.25302	3.76451	-0.257806	-3.68571	48.2172	1.05547	0
0.6640	-41.2466	-77.74	-27.34	-1.49666	1.02194	-4.86608	-8.87509	22.2846	-2.61355	-0.635055
0.6647	-43.9905	32.4346	-27.6514	-1.49666	1.32436	-5.7684	-10.7066	-15.8557	-3.8198	-0.317528
0.6653	-31.5103	25.9991	-10.8675	1.25302	3.15968	-4.86608	-7.3488	-40.5963	-1.70886	0.635055
0.6660	-16.8615	-54.8942	5.01337	4.00269	4.98458	-3.93154	-1.24364	-32.0364	0.753908	0.317528
0.6667	-8.01034	-76.5173	17.2198	5.2209	6.50707	-3.31925	2.41945	-23.8016	1.96016	0
0.6673	-11.6393	-40.5432	22.1086	2.19278	5.90225	-4.54383	2.11419	-43.6302	-0.452345	0
0.6680	-21.1101	49.4885	25.4717	0.974568	5.59983	-1.80464	1.50368	-46.0862	-2.01042	0
0.6687	-23.854	91.8979	24.8489	3.09773	6.50707	-0.870095	0.893162	-28.0635	0.150782	0
0.6693	-16.242	-9.07396	0.747334	3.72424	6.81991	-3.31925	-2.46468	-12.8218	1.05547	0
0.6700	-5.26647	-118.927	-40.4495	4.94245	7.12232	-1.19235	-4.60148	38.4654	1.05547	0
0.6707	-2.2128	-175.43	-72.4914	4.6292	5.28699	0.644515	-8.26458	82.0956	-0.452345	0.317528
0.6713	-3.40771	-170.861	-72.4914	1.87952	3.15968	-1.19235	-14.0645	48.2172	-2.01042	0
0.6720	-2.47834	-53.028	-28.5544	0.34806	4.37976	-1.19235	-16.5065	14.9527	-0.753908	0
0.6727	-4.0273	58.6911	24.8489	1.56627	6.81991	0.322257	-14.675	51.8651	1.35704	0.317528
0.6733	-5.8418	65.7057	52.9362	3.41099	8.3424	0.934546	-14.0645	63.1699	2.26173	0
0.6740	-3.40771	36.1028	60.2538	3.72424	10.4801	-0.580063	-18.9486	9.75179	1.96016	0
0.6747	-6.15159	28.7664	48.3588	1.56627	12.0026	-4.86608	-27.4958	-12.2078	0.150782	0.317528
0.6753	-12.8785	88.8733	22.7003	1.56627	13.5355	-3.93154	-32.3686	-16.1807	-0.452345	0
0.6760	-12.2589	184.375	-0.498223	2.78448	15.3604	1.2568	-32.9792	-20.7677	0.753908	0
0.6767	-7.70055	171.89	3.17617	1.25302	16.5805	6.73518	-32.6739	13.4358	0.753908	-0.635055
0.6773	-6.77117	11.6481	29.1149	0.34806	18.7183	11.3112	-31.1476	45.7612	1.6586	-0.952583
0.6780	-18.0565	-137.847	26.9975	1.87952	20.2407	11.3112	-29.3161	59.522	2.56329	0
0.6787	-37.5734	-143.639	-1.71264	2.47123	18.7183	8.28201	-30.8424	72.3077	0.753908	0.317528
0.6793	-50.4076	-156.51	-14.2305	1.25302	17.4982	9.79662	-32.6739	58.908	-0.753908	-0.317528
0.6800	-52.8417	-248.665	0.435945	0.661314	17.8006	13.1481	-23.8327	34.1674	-1.05547	0
0.6807	-43.3709	-137.268	10.4938	3.72424	18.4158	11.9235	-7.95932	26.8355	-0.452345	0
0.6813	-29.9613	127.357	-6.88171	6.16066	18.103	2.15912	-1.85416	20.1537	0.150782	0
0.6820	-20.8003	197.503	-23.074	6.43911	17.8006	-10.0544	-0.0226117	16.4697	-2.31199	0
0.6827	-9.51505	142.609	-20.0223	8.59708	18.4158	-21.9457	10.9667	38.1403	-3.21668	0
0.6833	-0.044256	104.769	4.0792	10.1285	17.8006	-37.8008	24.3867	48.8312	-2.31199	0
0.6840	3.58474	70.5323	33.3809	11.9385	17.1958	-29.5832	32.6287	-7.3319	-2.61355	0
0.6847	3.00941	90.4178	18.4343	14.3749	18.103	-3.93154	27.4393	-39.0794	-2.61355	0
0.6853	-0.354048	57.1466	-22.1398	8.91033	16.2781	-10.6345	10.0509	28.6775	-0.753908	0
0.6860	0.265536	-92.7346	-40.1692	-0.87015	11.3978	-26.8118	-5.82251	157.473	2.56329	0.317528
0.6867	6.06308	-133.921	-12.9849	-4.21152	7.72714	-21.9457	-14.3697	263.045	4.72449	0
0.6873	6.37287	-134.501	39.2039	-1.49666	7.12232	-17.982	-18.0328	255.425	5.62918	0
0.6880	-4.33709	-248.665	35.5295	1.56627	7.72714	-14.6305	-15.896	161.446	5.62918	0
0.6887	-19.2956	-112.877	-25.1914	4.00269	7.42473	-6.99298	-10.0961	24.0905	4.42293	0
0.6893	-23.854	258.254	-44.7467	3.72424	4.98458	-7.8953	-9.79087	-114.457	2.56329	0
0.6900	-17.1271	335.736	-0.498223	1.87952	2.84684	-8.50759	-15.2855	-208.146	1.6586	0
0.6907	-17.4369	139.842	16.0054	2.19278	3.46209	2.15912	-18.3381	-222.774	1.6586	0
0.6913	-22.6591	-15.5094	-2.30428	3.72424	3.76451	8.57204	-18.0328	-134.575	2.91511	-0.317528
0.6920	-19.9152	-23.425	0.747334	3.72424	2.54443	0.934546	-17.1171	-39.6573	3.51824	-0.317528
0.6927	-19.9152	83.0814	14.4796	3.41099	0.406692	-9.73217	-18.3381	-44.5693	2.91511	0
0.6933	-19.9152	148.98	24.5375	2.19278	-1.41821	-14.0182	-22.6117	-107.739	1.35704	-0.635055
0.6940	-4.95668	128.837	23.3231	1.87952	-2.03346	-11.2468	-25.9695	-125.112	1.05547	-0.952583
0.6947	10.3117	97.1106	20.2714	4.31594	-1.41821	-7.28301	-24.7485	-92.4614	3.51824	-0.317528
0.6953	13.9849	54.3794	53.8392	5.53415	-1.41821	-8.21756	-21.0854	-61.039	5.02606	0.317528
0.6960	17.6582	-2.38111	84.3554	3.09773	-2.33587	-2.41693	-19.5591	-57.066	2.26173	0
0.6967	26.8192	-15.1876	68.4745	2.19278	-2.64871	11.3112	-18.0328	-60.425	0.452345	-0.317528
0.6973	36.2457	-2.9603	60.2538	4.00269	-2.95112	16.2095	-14.3697	-42.4383	2.26173	0
0.6980	44.2118	-34.4296	87.407	4.94245	-3.55595	10.6989	-10.7066	-39.3683	3.8198	0
0.6987	39.6091	-68.2799	94.4133	2.78448	-3.55595	4.60828	-10.0961	-13.4358	4.42293	0
0.6993	9.11674	-53.028	24.2261	-0.243642	-4.1712	0.322257	-12.2329	97.0483	4.12137	-0.317528
0.7000	-20.8003	-16.0886	-58.7592	-2.08836	-5.69369	-4.2538	-15.2855	177.013	2.56329	0
0.7007	-26.5979	-22.2022	-57.2334	-2.99332	-6.61135	-6.99298	-16.2013	141.293	1.96016	0
0.7013	-19.9152	-103.096	-21.5481	-3.61982	-7.52901	-9.11988	-15.896	64.0728	3.21668	0
0.7020	-3.09792	-125.04	-18.8079	-1.77511	-7.83142	-10.6345	-14.9803	-25.0296	4.12137	0
0.7027	16.7288	-61.9088	-24.2884	-0.243642	-8.13384	-4.54383	-13.1487	-90.3304	4.12137	0
0.7033	29.563	-46.3351	-9.65307	0.661314	-9.35391	1.86909	-12.5382	-70.1767	3.21668	0
0.7040	36.5555	-45.1124	8.06499	1.25302	-10.574	-1.48238	-13.1487	-50.0592	1.96016	0
0.7047	39.9189	-34.1078	12.0196	-0.87015	-12.7117	-6.38069	-12.5382	-91.2334	1.35704	0
0.7053	35.3606	-60.6861	8.65662	-2.08836	-14.5471	-8.21756	-9.48561	-121.175	1.05547	0
0.7060	23.1459	-23.7467	-1.71264	-0.87015	-15.4647	-7.8953	-9.79087	-118.719	1.96016	0
0.7067	17.3484	102.581	-8.12726	-2.40161	-15.4647	-4.86608	-12.8434	-92.1724	2.26173	0
0.7073	21.2872	175.559	26.9975	-5.46454	-13.9318	-3.31925	-12.8434	-13.4358	3.21668	0
0.7080	26.8192	153.871	92.2958	-7.58771	-12.1069	-5.15612	-12.8434	63.1699	4.72449	0
0.7087	31.6873	81.8587	102.665	-7.58771	-11.4917	-8.21756	-15.2855	88.8135	5.02606	0
0.7093	28.9434	3.41078	30.6407	-4.52478	-10.2716	-10.3445	-14.0645	90.0415	5.62918	-0.317528
0.7100	23.4557	-94.8583	-44.1239	-3.61982	-9.0515	-12.4714	-14.0645	70.7907	5.62918	-0.317528
0.7107	38.6798	-252.591	-64.8624	-4.52478	-7.83142	-11.8591	-16.5065	36.6234	5.02606	0
0.7113	62.7993	-379.883	-51.4415	-3.30657	-5.9961	-5.15612	-15.2855	-2.74495	6.23231	0
0.7120	52.7532	-334.707	-25.8142	-2.40161	-5.08886	1.54683	-12.5382	-3.07001	7.79039	0
0.7127	15.1798	-156.188	16.3168	-2.71487	-4.1712	9.79662	-12.5382	-12.4967	6.83544	0
0.7133	-13.8079	0.386126	36.4326	-2.40161	-4.1712	15.275	-14.9803	-133.058	5.02606	0
0.7140	-30.5809	150.846	-11.7705	-1.49666	-5.69369	11.0212	-16.8118	-184.923	4.42293	0
0.7147	-43.9905	209.731	-79.8402	0.034806	-6.91376	3.3837	-15.896	-45.1833	5.02606	0
0.7153	-63.2419	-57.0179	-102.105	0.974568	-7.2266	-2.41693	-13.1487	74.7637	4.72449	0.317528
0.7160	-78.2004	-419.268	-88.3723	0.661314	-8.13384	-6.67072	-12.5382	29.2915	2.91511	0.317528
0.7167	-65.9857	-406.14	-70.6854	1.25302	-8.13384	-6.67072	-13.454	-66.5288	2.56329	0
0.7173	-38.5028	-72.5917	-51.7529	1.87952	-8.13384	-6.38069	-12.8434	-98.2763	1.96016	-0.317528
0.7180	-22.0395	177.682	-25.1914	1.56627	-9.96916	-8.21756	-13.1487	-74.1497	1.05547	0
0.7187	-17.1271	213.978	7.13082	0.974568	-11.4917	-10.6345	-12.8434	-37.8514	1.05547	0.317528
0.7193	-18.9858	171.89	20.2714	-0.243642	-11.4917	-14.9205	-10.7066	-26.5465	0.452345	0
0.7200	-18.676	217.646	7.13082	1.25302	-10.574	-17.0474	-4.60148	-3.64789	0.452345	-0.317528
0.7207	-8.01034	213.077	-9.34168	4.31594	-8.44668	-17.0474	1.50368	41.2103	1.96016	0
0.7213	3.00941	-74.7154	-24.5998	4.31594	-6.30894	-16.1451	0.893162	46.9892	2.91511	0
0.7220	9.11674	-296.287	-23.074	1.56627	-4.77602	-13.6959	-4.29622	2.13095	2.26173	0
0.7227	12.1704	-204.068	4.70198	-0.556896	-3.55595	-13.0836	-10.7066	-57.066	1.6586	0
0.7233	20.0922	-203.488	19.057	-0.243642	-1.73105	-11.2468	-14.0645	-90.0415	2.26173	0
0.7240	33.192	-315.207	30.6407	0.661314	-1.1158	-5.44615	-14.675	-79.6396	3.51824	-0.952583
0.7247	37.4849	-264.496	52.9362	1.56627	-0.510972	-1.19235	-15.5908	-29.2915	4.12137	-0.317528
0.7253	35.6261	-234.636	14.7599	3.09773	-0.510972	-1.19235	-11.9277	36.9123	3.8198	0.635055
0.7260	39.6091	-308.193	-57.5448	3.72424	-1.73105	-3.31925	-7.95932	52.4791	0.753908	0
0.7267	48.4604	-367.656	-29.1772	5.2209	-1.73105	-3.64151	-8.26458	41.2103	-2.01042	-0.317528
0.7273	61.2946	-333.806	52.6248	7.97057	0.406692	7.66972	-7.65406	70.5018	-0.150782	0
0.7280	62.1797	-75.0371	63.6169	6.43911	1.02194	30.26	-6.43303	81.4816	2.56329	0
0.7287	26.8192	278.075	37.3667	2.78448	-1.41821	34.836	-1.85416	23.8016	0.753908	-0.952583
0.7293	-20.8003	419.976	6.53918	2.19278	0.406692	11.9235	5.47203	-32.3615	-2.61355	-0.635055
0.7300	-41.5564	366.884	-17.2821	5.84741	7.12232	-10.9567	18.2816	-48.2172	-4.42293	0.635055
0.7307	-39.7419	300.084	-11.4591	11.0335	12.305	-14.3082	41.1759	-80.2536	-5.32762	0.317528
0.7313	-33.3248	232.898	1.33897	11.0335	14.1404	-0.870095	48.5021	-112.615	-4.42293	0
0.7320	-20.8003	139.842	16.0054	6.16066	12.6179	11.6335	29.2708	-95.2063	-1.35704	0.317528
0.7327	-4.64688	78.1905	15.694	0.661314	10.4801	23.2347	8.21935	-46.7002	0.452345	0
0.7333	4.82391	63.8395	-23.3853	-3.30657	7.42473	27.1985	-2.76993	-6.7179	1.05547	0
0.7340	13.0555	58.6911	-36.1834	-2.99332	4.68217	18.0464	-6.43303	-5.81495	2.91511	0.317528
0.7347	25.8898	191.132	22.1086	0.034806	4.06692	18.3364	-6.43303	-7.3319	2.56329	0
0.7353	35.9359	466.697	54.1506	0.974568	4.98458	38.1875	-4.29622	30.8084	1.6586	0
0.7360	44.2118	551.195	52.6248	-0.243642	6.50707	54.0425	-0.0226117	104.055	1.05547	0.317528
0.7367	51.514	445.911	128.292	-0.87015	7.42473	55.2671	1.50368	178.819	-0.753908	0.317528
0.7373	47.2654	371.131	214.36	-2.08836	8.64481	52.5279	-1.85416	222.485	0.452345	0
0.7380	32.3069	190.167	198.791	-2.99332	10.4801	44.6004	-3.68571	229.781	2.91511	0
0.7387	7.56778	-130.575	119.449	0.661314	9.86488	31.7746	3.33523	203.559	1.96016	0
0.7393	-32.0856	-313.341	3.17617	3.09773	9.56247	15.8873	7.91409	142.195	-1.35704	0
0.7400	-64.127	-326.469	-126.206	2.47123	13.2227	-14.0182	3.02997	71.7298	-2.61355	0.317528
0.7407	-60.8078	-264.818	-191.536	6.75236	16.8829	-25.5872	3.94574	13.7247	-1.70886	0.317528
0.7413	-39.4321	-55.7952	-165.877	10.7202	17.8006	4.93054	11.2719	-80.8676	-0.753908	0
0.7420	-25.0932	176.46	-112.474	10.1285	19.6359	14.0826	15.229	-179.758	0.150782	0
0.7427	-11.3295	256.388	-98.4302	9.18878	20.2407	-32.9347	10.6614	-211.794	-0.150782	0
0.7433	5.75328	246.67	-86.5351	8.28383	19.0207	-86.0427	-2.46468	-197.745	-1.05547	0
0.7440	19.4727	198.404	-8.40751	7.06562	21.4608	-110.76	-9.79087	-103.766	0.452345	0.317528
0.7447	21.9067	155.416	90.1472	5.84741	24.5162	-102.8	-10.4014	51.2511	3.21668	0.317528
0.7453	9.11674	71.7551	133.804	3.09773	25.4339	-70.4777	-11.6224	143.423	5.02606	0
0.7460	0.265536	-117.447	146.914	-4.83803	26.3515	-39.9599	-11.0119	174.268	8.09195	0.317528
0.7467	14.2947	-306.327	131.967	-13.6788	27.874	-26.5218	-8.87509	178.819	10.2029	0
0.7473	40.8483	-473.583	69.0973	-12.7738	29.3965	-26.8118	-6.73829	114.132	10.2029	-0.317528
0.7480	59.1261	-575.521	58.1053	-4.83803	28.7917	-28.6487	-5.212	27.1605	8.09195	0.317528
0.7487	57.6214	-487.291	86.504	-2.08836	27.2588	-22.2358	-7.04354	-15.8557	5.93075	0.317528
0.7493	51.2042	-359.741	36.4326	-2.99332	27.5716	-16.1451	-6.73829	31.1335	5.93075	0
0.7500	45.4067	-447.906	-60.0047	-1.77511	28.4893	-15.2105	-0.0226117	192.869	8.09195	0
0.7507	26.5094	-546.819	-119.2	-1.77511	28.1764	-15.8228	4.55626	234.368	8.69508	0
0.7513	9.69207	-218.161	-121.348	-3.61982	24.8186	-9.11988	0.587904	3.03389	6.83544	0
0.7520	-10.1346	296.094	-97.8385	-7.27445	18.7183	7.66972	-6.73829	-180.372	4.12137	0
0.7527	-57.7541	295.772	-80.4319	-7.27445	12.6179	5.22057	-12.5382	-114.746	1.6586	0.317528
0.7533	-98.3369	2.18805	-90.8011	-4.52478	7.72714	-14.6305	-14.3697	-49.1201	-0.753908	0.317528
0.7540	-95.2832	13.5144	-123.466	-1.77511	3.15968	-26.5218	-11.3172	-70.5018	-4.12137	-0.635055
0.7547	-82.7588	133.149	-133.555	-1.49666	3.46209	-34.7716	-7.65406	-10.9798	-3.8198	-0.952583
0.7553	-77.8906	294.228	-95.3786	-7.27445	8.64481	-34.4493	-8.87509	120.525	-0.452345	0
0.7560	-59.5686	587.812	-39.2351	-13.3655	12.9203	-18.8843	-10.4014	208.435	1.05547	0.317528
0.7567	-40.3615	726.367	13.234	-13.0871	13.8379	-12.7936	-12.8434	227.361	1.6586	0
0.7573	-33.3248	558.531	66.6685	-8.49266	12.9203	-17.6597	-15.5908	187.054	2.91511	0
0.7580	-21.7297	219.191	76.1036	-5.15129	10.4801	-20.3989	-10.0961	107.414	1.96016	0
0.7587	-11.6393	-6.62849	21.4859	-4.83803	7.42473	-27.7463	-3.38045	39.9823	-0.452345	0
0.7593	-22.3493	-39.3205	-49.0127	-3.30657	5.90225	-33.837	-5.51725	5.20095	-3.8198	0
0.7600	-34.2542	-89.6456	-102.727	2.78448	7.12232	-33.837	-3.68571	-12.2078	-6.58413	0.317528
0.7607	-29.9613	-147.307	-126.518	6.43911	10.1777	-29.8732	13.4087	0.288942	-6.58413	0.635055
0.7613	-24.7834	-191.261	-122.874	6.16066	10.1777	-15.8228	29.5761	13.7247	-6.28257	0.317528
0.7620	-14.693	-279.169	-104.845	4.94245	7.72714	-3.64151	24.3867	-54.6461	-8.99664	0
0.7627	5.44349	-162.302	-70.374	3.41099	8.3424	16.2095	3.33523	-137.32	-10.5547	0
0.7633	21.2872	31.791	-4.76426	-0.556896	8.95765	42.7635	-12.8434	-128.471	-6.28257	0
0.7640	28.6337	-38.9987	107.243	-1.77511	3.15968	37.2529	-19.8644	-102.538	-2.31199	0
0.7647	42.0432	-121.115	162.172	2.47123	-2.33587	13.4704	-26.2748	-32.0364	-1.05547	0
0.7653	57.9311	-81.73	99.3021	2.19278	-0.198132	7.66972	-32.3686	118.719	-2.01042	0
0.7660	45.0969	-91.5118	62.6827	-3.93308	4.68217	9.18433	-29.3161	188.607	-2.61355	0
0.7667	7.87757	-107.987	45.5874	-6.68275	12.0026	10.1189	-17.4223	155.956	-1.35704	0
0.7673	-23.854	-106.764	-63.0564	-5.46454	19.6359	4.60828	-11.6224	56.1631	-2.01042	0
0.7680	-42.7956	-187.915	-142.087	-2.40161	17.1958	-21.0112	-11.0119	-112.29	-4.12137	0
0.7687	-57.7541	-306.97	-132.309	2.19278	9.56247	-47.2751	0.282646	-224.291	-5.32762	-0.317528
0.7693	-69.9245	-324.667	-147.287	3.09773	7.12232	-48.1775	12.1877	-232.562	-5.32762	0
0.7700	-59.8784	-305.104	-134.147	-0.87015	6.50707	-33.2247	6.69306	-155.631	-3.21668	0
0.7707	-42.176	-274.922	-62.1222	-1.1834	6.50707	-20.3989	-7.65406	21.0566	-0.753908	0
0.7713	-49.2127	-2.9603	-23.6656	-1.1834	7.42473	-17.3697	-21.0854	150.755	-1.35704	0
0.7720	-56.2052	382.458	-6.60145	-2.99332	8.95765	-25.0072	-28.1063	139.776	-2.91511	0
0.7727	-43.6807	453.247	9.2794	-2.40161	10.7825	-33.547	-21.6959	54.9351	-1.35704	0.317528
0.7733	-27.5273	335.157	-11.1789	-3.61982	5.28699	-36.2862	-11.9277	-65.6259	-1.35704	0
0.7740	-9.20526	406.591	-42.5981	-5.46454	-5.39127	-36.5762	-6.12777	-129.699	-4.42293	0
0.7747	8.49716	525.582	-34.066	-6.05624	-10.574	-35.6739	-2.76993	-91.8474	-6.28257	0
0.7753	24.9604	465.475	6.22779	-6.9612	-10.8868	-34.1593	-1.5489	-37.2374	-6.8857	0
0.7760	53.063	356.523	87.0956	-3.61982	-10.8868	-32.6124	1.80894	-25.3185	-5.62918	0
0.7767	85.6797	247.893	184.156	0.34806	-7.83142	-34.7716	8.52461	-36.9123	-4.12137	0
0.7773	93.9556	36.3602	197.265	1.87952	-4.47361	-42.0868	16.7553	4.26189	-2.91511	0
0.7780	79.5723	-204.389	163.386	4.00269	-4.47361	-54.5904	21.0289	118.105	-3.51824	0
0.7787	53.063	-375.314	178.052	3.72424	-6.91376	-68.6408	14.6185	275.578	-6.28257	0
0.7793	15.4896	-606.925	147.536	1.25302	-9.0515	-64.0647	0.587904	405.566	-7.18726	-0.317528
0.7800	-12.5687	-844.328	17.5312	2.19278	-8.13384	-23.7826	-7.65406	390.613	-4.12137	-0.317528
0.7807	-28.7664	-833.388	-68.8482	2.78448	-8.13384	27.4885	-14.0645	255.425	-2.01042	0
0.7813	-24.1638	-512.904	-33.7546	2.47123	-12.7117	38.1875	-23.2222	115.974	-4.72449	0
0.7820	-0.663841	-30.4396	40.107	3.72424	-16.9872	13.7604	-21.3907	104.994	-10.2532	-0.317528
0.7827	-4.0273	252.14	24.8489	7.06562	-17.2896	5.5106	-3.68571	181.889	-12.0625	0.317528
0.7833	-30.2711	316.816	-102.105	10.1285	-12.1069	16.2095	18.2816	142.195	-13.8719	0
0.7840	-36.3785	447.777	-201.593	5.84741	-10.8868	26.8763	27.7446	-12.8218	-16.0331	-0.952583
0.7847	-30.8907	562.199	-201.282	-3.30657	-19.1249	34.836	23.1657	-160.507	-12.9672	-0.635055
0.7853	-24.7834	563.1	-160.085	-6.05624	-23.4004	27.1985	5.47203	-219.415	-9.90133	0.317528
0.7860	-18.676	516.122	-121.037	-1.49666	-10.2716	5.83286	-21.6959	-246.576	-9.90133	0.317528
0.7867	-17.7467	404.145	-97.2158	1.87952	5.90225	7.95975	-30.8424	-336.003	-8.09195	0
0.7873	-7.08097	170.346	-80.1205	0.34806	3.15968	29.9377	-25.9695	-324.084	-3.8198	-0.317528
0.7880	3.58474	-57.9189	-45.6497	-1.49666	-7.83142	-7.8953	-28.4116	-115.974	-2.01042	0
0.7887	-1.59322	-161.079	45.5874	-1.77511	-8.13384	-94.5825	-29.0108	50.0592	-4.12137	0.317528
0.7893	-3.71751	-298.668	142.647	-0.243642	-1.1158	-115.014	-26.8853	68.0458	-5.32762	0
0.7900	-7.08097	-500.741	79.1552	1.56627	8.03998	-65.2893	-25.0538	96.7233	-5.98101	0
0.7907	-20.8003	-583.436	-104.533	2.19278	15.058	-15.2105	-19.5591	131.216	-4.12137	0
0.7913	-31.7758	-616.064	-169.24	4.31594	19.3335	-4.86608	-13.454	21.0566	-1.70886	0
0.7920	-39.4321	-561.749	-94.7869	1.87952	20.856	-20.1089	-20.1696	-211.505	-4.42293	0
0.7927	-39.7419	-140.614	-4.14148	-5.46454	18.7183	0.644515	-35.116	-325.023	-5.02606	0
0.7933	-27.5273	340.37	74.2975	-8.49266	15.3604	35.126	-41.2211	-195.939	-1.70886	0
0.7940	-29.032	554.284	81.6152	-9.11917	5.28699	32.3869	-41.2211	-65.0119	-0.753908	-0.317528
0.7947	-49.788	545.081	-23.074	-7.27445	2.84684	22.9125	-41.2211	-30.2305	-1.35704	0
0.7953	-58.949	361.414	-111.571	-2.71487	11.085	26.264	-41.8316	45.7612	-3.51824	0
0.7960	-54.0809	308.322	-78.5947	-0.243642	12.0026	22.6225	-37.2528	99.4682	-7.18726	0
0.7967	-47.354	434.005	12.331	1.56627	19.9383	23.847	-23.2222	17.0837	-9.59977	0
0.7973	-40.3615	490.187	126.767	4.31594	47.7081	28.4231	-10.4014	-146.782	-9.90133	0
0.7980	-31.5103	426.991	286.385	6.16066	66.9373	7.66972	-6.12777	-235.596	-11.1578	-0.317528
0.7987	-20.8003	263.402	365.727	9.81529	62.3594	-16.7574	0.893162	-174.882	-11.761	-0.317528
0.7993	-9.20526	108.694	268.667	9.50204	51.3683	-49.112	10.9667	-70.1767	-10.5547	0
0.8000	5.75328	83.0814	146.914	4.00269	45.5703	-109.535	11.2719	-42.7273	-8.09195	0
0.8007	11.5508	115.709	112.131	1.56627	33.3696	-133.028	-2.15942	-36.0094	-4.72449	0
0.8013	8.80695	73.9431	87.7184	0.34806	11.7002	-95.4848	-20.1696	83.3236	-2.31199	0
0.8020	26.8192	-65.2553	109.391	-3.30657	-2.33587	-37.8008	-27.8011	242.603	1.96016	0
0.8027	58.2409	-278.268	225.664	-3.61982	-6.30894	18.9487	-29.3161	265.79	7.48882	0
0.8033	77.4481	-515.092	226.878	-2.08836	-3.86879	42.4413	-32.6739	179.144	7.48882	0
0.8040	73.5093	-590.451	44.373	-0.87015	3.15968	29.3254	-30.8424	107.739	4.12137	0
0.8047	61.6044	-447.649	-88.9951	-1.77511	3.76451	24.7494	-26.8853	40.5963	3.21668	-0.317528
0.8053	67.7117	-374.413	-118.577	-4.21152	-6.91376	30.84	-22.917	-91.5584	3.51824	0
0.8060	78.0676	-566.64	-178.395	-6.9612	-23.0876	18.3364	-11.3172	-225.519	4.12137	0
0.8067	69.2164	-773.217	-228.155	-9.11917	-30.4185	-1.19235	5.16677	-310.36	3.51824	0
0.8073	39.2994	-560.848	-183.284	-9.11917	-26.4454	-26.5218	12.493	-324.698	-2.01042	0
0.8080	3.00941	-114.679	-130.503	-5.15129	-22.4828	-47.5652	16.45	-213.022	-9.59977	0
0.8087	-17.7467	184.375	-111.882	-0.556896	-18.5097	-31.0978	25.3025	-108.028	-13.2688	-0.317528
0.8093	-3.40771	448.035	-53.2787	2.19278	-17.2896	-5.15612	23.7762	-57.9689	-11.761	0
0.8100	26.1996	585.689	25.7519	4.00269	-21.2627	6.12289	11.8824	73.2467	-7.48882	0
0.8107	23.7655	475.514	93.8216	3.41099	-21.2627	17.1119	5.16677	216.995	-5.02606	0
0.8113	-4.64688	315.336	185.059	2.47123	-16.6848	21.3979	3.02997	300.897	-4.72449	0
0.8120	-7.39076	94.3434	243.039	4.31594	-13.6294	17.7241	2.72471	379.633	-3.51824	0
0.8127	36.2457	-234.636	204.894	6.16066	-9.96916	13.1481	1.50368	378.405	-3.21668	0.317528
0.8133	82.0507	-338.053	122.501	7.69212	-4.47361	10.1189	-10.4014	263.984	-3.8198	0
0.8140	79.5723	-271.511	30.3293	8.59708	5.28699	28.4231	-26.5801	159.315	-3.51824	-0.952583
0.8147	36.2457	-376.794	1.02758	5.53415	13.5355	60.7777	-31.4529	190.413	-2.31199	-1.27011
0.8153	-26.2881	-516.315	47.4246	0.661314	11.085	44.8904	-27.4958	329.574	-0.452345	0
0.8160	-85.5027	-638.974	-36.8062	-1.1834	7.42473	-13.0836	-22.6117	388.482	-0.753908	0.317528
0.8167	-98.9565	-469.014	-276.669	3.72424	16.2781	-40.5722	-15.5908	284.427	-2.91511	-0.317528
0.8173	-71.1637	125.813	-443.917	7.97057	21.4608	-35.9639	-8.56983	47.6032	-3.8198	0
0.8180	-53.7711	507.884	-410.349	4.00269	10.1777	-23.1703	-8.87509	-221.546	-4.42293	0.317528
0.8187	-39.7419	510.651	-237.31	-0.243642	1.02194	-3.64151	-13.7592	-339.362	-4.72449	0.317528
0.8193	-14.3832	374.22	-89.2753	-2.08836	-3.25353	5.83286	-18.6433	-229.203	-4.42293	0
0.8200	-2.47834	259.155	-61.2192	-4.21152	-12.1069	-0.580063	-20.7802	-36.3344	-2.31199	0
0.8207	1.46045	193.835	-91.7353	-2.71487	-21.2627	-4.2538	-17.1171	56.452	1.35704	0
0.8213	5.1337	-43.8896	-87.4693	-2.08836	-24.3077	-3.64151	-14.3697	119.947	2.26173	0.317528
0.8220	-5.8418	-354.528	-35.2804	-5.46454	-20.6474	-4.2538	-15.5908	240.797	0.452345	0
0.8227	-16.242	-346.033	-21.2368	-5.74299	-13.9318	-3.31925	-16.2013	221.871	-0.452345	0
0.8233	2.69962	-41.4442	-78.9061	-4.83803	-9.96916	-3.02922	-17.1171	25.9325	-1.70886	0
0.8240	33.8116	174.336	-132.309	-2.40161	-6.61135	-3.02922	-15.5908	-153.5	-1.70886	0.317528
0.8247	44.2118	237.467	-171.7	0.034806	-6.91376	-4.54383	-13.1487	-260.626	0.150782	0
0.8253	24.3408	393.462	-193.342	-3.93308	-10.574	-9.44214	-14.3697	-313.43	0.150782	0
0.8260	-8.01034	487.741	-81.6463	-8.17941	-9.96916	-7.8953	-16.2013	-375.046	-1.35704	0
0.8267	-14.1177	254.264	159.431	-7.27445	-5.08886	-0.870095	-14.675	-432.438	-0.150782	0
0.8273	-8.01034	-168.093	298.28	-3.93308	3.15968	5.5106	-9.18035	-324.409	2.26173	-0.317528
0.8280	-15.6224	-700.304	285.482	-1.1834	8.3424	6.73518	-2.76993	-101.924	3.8198	0
0.8287	-11.6393	-967.953	360.527	-3.30657	1.62677	0.322257	-3.07519	-49.7341	1.35704	0
0.8293	1.15066	-527.898	459.424	-6.68275	-7.2266	-6.67072	-5.82251	-185.862	-2.01042	0
0.8300	-6.46138	80.6359	349.254	-6.9612	-9.96916	-7.60527	-3.38045	-251.777	-2.61355	0.317528
0.8307	-22.6591	264.947	186.273	-6.3695	-11.7941	-6.38069	1.50368	-191.641	-0.452345	0
0.8313	-23.5442	369.909	118.826	-5.74299	-13.9318	-4.2538	6.08255	-143.423	1.05547	0
0.8320	-28.7664	576.228	-80.1205	-6.3695	-13.6294	-1.80464	9.44038	-84.2265	2.91511	0
0.8327	-41.2466	622.95	-462.507	-7.27445	-13.9318	0.0322257	8.52461	43.6302	3.8198	0
0.8333	-31.5103	549.972	-641.96	-6.68275	-15.7671	2.15912	6.08255	96.7233	3.21668	0
0.8340	-13.8079	392.497	-490.283	-7.58771	-16.372	4.60828	4.55626	60.7139	1.6586	0
0.8347	-3.71751	268.937	-244.316	-8.80592	-15.4647	5.83286	4.86152	39.9823	1.05547	-0.317528
0.8353	9.69207	264.367	-68.5368	-7.90096	-13.9318	7.66972	7.30358	0.902943	1.35704	0
0.8360	24.9604	235.022	-0.498223	-6.3695	-12.4093	10.1189	6.69306	-2.13095	1.35704	0
0.8367	30.4482	249.695	-25.8142	-5.15129	-10.2716	14.0826	2.72471	63.7839	1.96016	0
0.8373	26.5094	152.069	-137.51	-3.61982	-6.91376	18.0464	4.55626	95.8203	4.12137	0
0.8380	27.0847	-283.416	-210.126	-2.99332	-4.77602	18.3364	7.91409	141.581	4.42293	0
0.8387	43.902	-656.671	-88.6837	-1.49666	-3.86879	16.8218	10.0509	239.244	3.21668	0
0.8393	47.2654	-586.203	49.2618	-0.243642	-4.47361	15.5973	12.7982	312.816	1.96016	0
0.8400	24.031	-317.009	-82.2691	-2.08836	-6.61135	12.2458	11.5772	319.822	0.150782	0
0.8407	31.9971	-325.89	-276.669	-3.93308	-6.91376	11.0212	10.6614	148.299	-1.05547	0.317528
0.8413	53.6383	-391.467	-132.029	-5.46454	-8.13384	7.95975	10.0509	-83.9376	-2.91511	0
0.8420	33.5018	-112.556	215.263	-5.46454	-11.4917	4.60828	8.82987	-166.033	-5.02606	0
0.8427	7.87757	253.685	370.927	-1.49666	-12.4093	6.73518	12.1877	-299.091	-4.72449	0.317528
0.8433	-4.64688	597.015	333.996	-0.87015	-12.1069	7.95975	12.493	-494.09	-5.32762	-0.317528
0.8440	-19.6054	868.011	313.227	-3.93308	-11.7941	4.31825	6.69306	-406.18	-8.99664	-0.952583
0.8447	-30.8907	857.328	294.917	-3.93308	-10.2716	3.09367	3.94574	-66.8178	-10.2532	-0.317528
0.8453	-25.7128	575.649	167.963	-1.77511	-8.13384	4.93054	5.77729	184.309	-8.69508	0.635055
0.8460	-3.09792	250.917	12.9538	0.034806	-6.30894	6.73518	6.99832	170.584	-8.09195	0
0.8467	16.419	152.327	-39.2351	1.25302	-4.47361	6.73518	5.47203	16.1807	-8.39351	-0.317528
0.8473	20.7118	294.871	-91.1125	0.034806	-3.25353	6.12289	5.77729	-58.583	-8.39351	0.317528
0.8480	21.5969	414.506	-180.232	-1.49666	-2.64871	6.12289	5.77729	-39.6573	-8.39351	0.317528
0.8487	25.2702	298.54	-128.977	-1.1834	-2.03346	7.34747	4.55626	1.228	-8.69508	0
0.8493	25.8898	106.249	6.85057	1.25302	-0.198132	11.6335	6.99832	53.4181	-7.18726	-0.317528
0.8500	20.402	-149.173	84.6668	3.09773	2.24202	15.275	10.0509	53.0931	-4.42293	0
0.8507	12.7457	-599.911	178.644	1.56627	2.84684	15.275	8.21935	-67.1429	-4.12137	0
0.8513	3.58474	-892.852	326.367	0.034806	2.84684	14.985	6.08255	-177.916	-4.72449	0
0.8520	17.3484	-830.042	501.524	0.974568	5.90225	16.4996	6.69306	-124.209	-4.12137	0
0.8527	53.3285	-653.003	697.45	1.87952	7.72714	16.8218	4.86152	-24.1266	-4.12137	0.317528
0.8533	56.692	-583.114	762.157	3.41099	6.81991	17.4341	5.47203	-1.228	-3.8198	0.635055
0.8540	3.00941	-562.65	587.28	5.53415	5.28699	16.8218	6.38781	52.4791	-4.12137	0.317528
0.8547	-68.4198	-364.953	332.782	4.31594	4.37976	13.4704	2.41945	116.877	-6.28257	0
0.8553	-85.8125	-47.2361	129.818	3.09773	3.15968	11.6335	-0.0226117	127.568	-6.8857	0
0.8560	-48.9029	119.055	-9.34168	1.25302	-0.198132	8.8943	-0.938386	235.596	-7.18726	0
0.8567	-22.3493	52.8349	-114.622	0.034806	-2.33587	6.44514	0.893162	404.338	-6.28257	0.317528
0.8573	-36.998	-32.8851	-314.192	0.34806	0.10428	7.95975	3.33523	445.873	-4.12137	0
0.8580	-78.7757	-70.1462	-616.925	-1.77511	1.92918	8.8943	1.19842	373.241	-4.12137	0
0.8587	-117.234	-46.9143	-822.628	-1.77511	1.32436	11.3112	1.50368	298.152	-2.91511	0
0.8593	-97.0977	-56.3744	-611.444	-1.1834	0.10428	13.1481	1.50368	217.284	-2.91511	0
0.8600	-0.973633	-308.193	-70.0626	-0.243642	1.02194	14.6949	1.19842	28.0635	-2.31199	0
0.8607	78.6872	-447.906	171.638	1.56627	2.24202	18.6587	3.94574	-179.144	0.753908	-0.317528
0.8613	74.0846	-220.607	-52.6559	-0.556896	2.84684	18.9487	2.11419	-238.052	1.35704	0
0.8620	27.0847	73.2996	-257.457	-1.1834	3.15968	18.0464	0.893162	-302.414	1.05547	0
0.8627	-12.5687	428.857	-224.481	0.034806	-0.198132	15.8873	0.282646	-509.332	0.150782	0
0.8633	-32.0856	804.236	-186.024	-0.87015	-5.08886	13.1481	-2.46468	-589.911	-1.70886	-0.317528
0.8640	-27.5273	802.048	-258.048	0.34806	-5.69369	15.275	-0.0226117	-442.514	0.150782	0
0.8647	-11.6393	617.737	-254.997	-1.77511	-4.47361	16.2095	0.587904	-317.403	1.05547	0
0.8653	-5.26647	577.129	-70.0626	-4.21152	-2.33587	17.4341	-1.5489	-277.709	0.452345	0
0.8660	-12.2589	480.727	98.7104	-3.61982	0.406692	18.3364	-1.85416	-239.244	1.35704	0
0.8667	-6.15159	293.327	88.9328	-3.61982	1.92918	16.2095	-1.85416	-161.446	1.05547	0.317528
0.8673	29.2532	127.035	10.4938	-2.08836	3.46209	16.4996	1.80894	-63.1699	1.05547	0.317528
0.8680	54.5677	12.2917	85.5698	-1.49666	3.76451	14.985	3.33523	-6.42896	0.452345	0
0.8687	51.8238	19.8855	254.343	-2.71487	2.54443	9.79662	-0.633128	-6.7179	-2.01042	-0.317528
0.8693	51.8238	74.5223	200.628	-2.08836	0.406692	7.66972	-2.46468	8.23484	-2.91511	0
0.8700	54.2579	39.771	29.7377	-1.1834	-2.33587	12.2458	-2.76993	57.68	-3.8198	0
0.8707	46.3361	36.3602	64.8313	1.56627	-2.64871	19.561	-1.5489	78.4116	-2.01042	0
0.8713	53.6383	150.525	204.894	2.78448	0.10428	22.6225	-4.60148	105.897	0.452345	0
0.8720	66.1628	151.426	243.662	1.25302	4.98458	25.3616	-7.3488	219.126	-0.452345	0
0.8727	28.6337	-14.8658	120.352	0.34806	11.7002	27.1985	-4.29622	360.708	-0.150782	0
0.8733	-34.564	-127.164	-130.784	-2.08836	15.9757	25.6517	-3.68571	379.958	0.150782	-0.317528
0.8740	-38.8125	-71.0472	-344.708	-0.87015	19.6359	31.7746	2.41945	231.948	1.35704	-1.27011
0.8747	7.87757	35.1375	-341.968	0.34806	23.5986	32.0646	11.5772	-18.3117	5.02606	-0.635055
0.8753	28.0141	76.646	-204.022	-4.52478	23.9114	14.6949	10.0509	-193.194	6.23231	0.317528
0.8760	12.1704	56.2457	-213.8	-4.52478	25.7363	3.3837	6.69306	-143.423	5.93075	0.317528
0.8767	-4.95668	-27.0932	-367.315	-2.40161	31.8367	4.60828	12.493	-59.522	4.12137	0.317528
0.8773	-3.71751	-75.2945	-390.513	-1.49666	35.5073	11.9235	26.2183	-60.425	2.91511	0
0.8780	16.7288	-62.1663	-208.6	1.56627	28.1764	19.8833	35.0707	15.8557	4.42293	0
0.8787	35.0508	-122.338	-36.4948	2.47123	15.058	20.7856	25.3025	134.9	3.8198	0.317528
0.8793	38.9896	-188.816	15.694	1.87952	16.5805	18.9487	11.8824	126.051	1.6586	0.317528
0.8800	35.6261	-147.307	48.3588	0.974568	26.0387	17.7241	7.91409	18.6006	-1.70886	0
0.8807	43.5922	-27.9941	70.9345	2.47123	36.4146	18.6587	8.52461	-161.735	-3.51824	-0.317528
0.8813	59.1261	119.055	57.7939	6.43911	62.057	21.3979	9.13513	-327.154	-1.35704	0
0.8820	60.675	146.857	107.554	4.31594	80.3686	18.9487	3.33523	-290.531	-1.05547	0
0.8827	53.9481	71.1759	273.867	1.56627	73.6529	14.985	-2.15942	-150.755	-1.70886	0
0.8833	37.4849	-18.8558	380.674	0.34806	55.039	13.7604	-3.99097	-21.9596	-0.150782	0
0.8840	6.63841	-178.776	228.715	-0.243642	38.5523	14.0826	-7.04354	58.294	1.05547	0
0.8847	-16.8615	-237.66	-7.50448	2.78448	21.1584	13.4704	-6.43303	-22.2846	1.35704	0
0.8853	-22.6591	-130.832	-65.4852	2.78448	-6.30894	23.2347	-11.0119	-180.661	-1.05547	0
0.8860	-18.9858	-27.9941	-47.7983	0.974568	-31.3257	43.6659	-21.0854	-207.207	-1.70886	0.317528
0.8867	-11.064	55.6021	-87.1579	-0.243642	-46.2794	52.5279	-23.8327	-97.0483	0.150782	0.317528
0.8873	6.37287	48.2657	-131.718	-1.77511	-51.775	53.1402	-19.8644	26.2576	-1.35704	0
0.8880	20.402	-48.4588	-121.037	-0.243642	-41.0967	57.104	-15.5908	107.739	-1.35704	0
0.8887	7.25799	-63.7108	-78.3144	0.034806	-29.8032	47.9519	-17.1171	101.924	0.452345	0
0.8893	-12.5687	-17.3113	-52.9673	-0.87015	-39.5742	28.7131	-19.8644	1.842	-1.05547	0
0.8900	-13.1883	-5.72753	-48.3899	1.25302	-36.2164	20.1733	-17.7276	-93.4004	-3.8198	0
0.8907	-2.2128	-4.82657	-80.1205	3.09773	7.72714	17.1119	-14.9803	-121.464	-5.62918	0
0.8913	8.49716	-6.95027	-114	5.53415	43.4326	8.57204	-9.18035	-56.452	-3.8198	0
0.8920	15.1798	-38.6769	-74.3286	4.31594	49.5434	-4.2538	-5.212	82.0956	-2.01042	0.317528
0.8927	21.9067	-75.6163	-12.9849	0.34806	52.286	-14.9205	-5.212	155.017	-2.91511	0
0.8933	13.3653	-115.58	-25.5028	1.56627	57.1663	-21.0112	-1.24364	131.216	-4.42293	0
0.8940	-8.89546	-179.098	-83.1721	3.09773	63.5795	-29.5832	-1.5489	77.8337	-6.58413	0
0.8947	-12.2589	-193.385	-123.777	7.06562	76.3955	-26.5218	-1.5489	14.6638	-6.58413	0
0.8953	-2.47834	-98.5264	-139.658	11.0335	90.4316	-11.8591	1.80894	-28.0635	-5.02606	0.317528
0.8960	10.9312	1.60886	-76.4772	7.37887	91.0468	-6.05844	-3.07519	-46.9892	-5.32762	0
0.8967	32.6167	-6.95027	60.5652	4.31594	82.8087	-5.44615	-7.65406	-54.6461	-3.21668	-0.317528
0.8973	42.353	-56.6961	168.586	3.72424	79.4509	-5.44615	-7.3488	-61.653	-2.61355	0
0.8980	32.6167	-40.2214	210.997	4.31594	78.2308	-3.93154	-5.51725	-62.5559	-2.01042	0
0.8987	22.2165	5.53447	197.265	2.78448	71.5152	0.322257	-3.68571	-2.45601	3.51824	-0.317528
