MR32 ASCII
Name	KneeFJC1
Frequency	1500
Date	28-08-2015 10:07:09
"Time,s"	"RT TIB.ANT.,uV"	"RT MED. GASTRO,uV"	"RT LAT. GASTRO,uV"	"RT BICEPS FEM.,uV"	"RT VMO,uV"	"RT VLO,uV"	"RT RECTUS FEM.,uV"	"RT SOLEUS,uV"	"RT SEMITEND.,uV"	"Channel 12,uV"
0.0000	-0.919923	-4.75798	-2.34129	-11.9336	-2.74356	-19.1742	-6.34326	7.81686	-0.389104	-9619.32
0.0007	0.602708	-0.487567	-0.816166	-3.07637	-1.52143	-7.8843	-3.28712	3.84865	-0.389104	-10242.9
0.0013	1.20542	0.73135	0.404625	-9.17839	-1.22213	4.29204	-2.07888	-0.425967	1.7473	-9534.84
0.0020	-2.44255	-0.184939	-1.42829	-8.56988	-2.14497	20.4805	-5.11725	-1.03876	1.43895	-9888.41
0.0027	-6.12224	-1.70648	-4.78287	34.4486	-2.44426	31.7705	-8.79528	-4.9995	-5.57961	-9834.34
0.0033	-3.36248	-3.23643	-3.86987	72.9032	-1.22213	23.5596	-6.94738	-12.3306	-14.1179	-9795.62
0.0040	1.52263	-3.23643	-2.03696	42.6973	0.299298	12.8761	1.27931	-3.47499	-14.1179	-9819.62
0.0047	1.80812	-2.00911	-4.1742	-7.0486	0.922835	11.6165	6.7697	11.4787	-8.62637	-9818.98
0.0053	0.285493	-1.70648	-2.95341	-32.6906	-0.623537	17.1215	4.63751	17.2778	-1.91616	-9810.34
0.0060	-3.67969	-1.09282	-0.511833	-48.5458	-3.04286	23.5596	-1.15494	18.4959	3.57536	-9795.62
0.0067	-5.80503	1.04238	-2.64908	-55.2732	-1.52143	21.6935	1.27931	14.5277	6.32845	-9915.93
0.0073	-2.15706	1.64764	-3.25775	-63.505	3.04286	23.233	5.56146	13.3096	9.98456	-9658.03
0.0080	0.602708	1.64764	1.32108	-81.5069	6.40996	32.097	-3.28712	15.7458	10.2929	-9803.62
0.0087	-0.317215	5.3128	5.28779	-89.7556	6.40996	34.523	-7.87133	13.9149	6.62946	-10484.5
0.0093	-4.59961	7.448	0.404625	-87.9131	4.26499	25.379	1.27931	13.9149	2.665	-6266.65
0.0100	-4.88511	5.3128	-6.61578	-89.1471	3.6664	5.2251	7.39159	8.12326	-0.69011	-195.503
0.0107	0.602708	5.01017	-4.78287	-77.5515	6.11066	-5.13179	6.46764	-14.7668	-0.0807575	107.191
0.0113	2.12534	5.61542	1.32108	-26.2675	7.63209	4.29204	1.58137	-31.245	1.43895	-282.535
0.0120	-0.317215	5.3128	6.81291	59.1778	6.70926	2.79916	-4.51313	-26.6715	-0.389104	71.3538
0.0127	-3.96518	5.3128	3.45487	106.169	3.34216	-18.5678	-8.79528	-13.2423	-2.82651	16.9585
0.0133	-5.51954	2.2613	-4.47854	108.315	0	-32.0037	-10.6254	0.792148	-5.88061	-22.398
0.0140	-1.23714	0.428723	-3.56208	115.33	0.922835	-27.7117	-8.47545	2.32413	-5.88061	0.959916
0.0147	2.12534	2.86656	1.32108	98.8494	3.04286	-15.8152	-5.11725	-11.7178	-3.74421	-0.959916
0.0153	2.12534	3.17759	2.84621	74.4413	3.04286	-5.73828	-6.0412	-19.3479	-3.13486	-0.639944
0.0160	1.20542	0.73135	2.23408	71.3819	2.44426	-2.37929	-10.6254	-12.0242	-4.96292	-0.639944
0.0167	1.80812	0.73135	2.23408	72.9032	1.52143	-1.7728	-13.0597	-0.425967	-5.57961	-0.639944
0.0173	4.56789	3.17759	3.76266	70.7734	1.22213	-0.559832	-11.5316	1.09855	-3.74421	-0.959916
0.0180	6.69323	4.09388	3.15054	50.3206	1.22213	1.86611	-9.09734	-6.22509	-1.3068	-0.959916
0.0187	7.61315	6.22909	-0.816166	48.1908	0.598595	5.83158	-9.3994	-3.78139	-0.998456	-0.319972
0.0193	5.48781	4.09388	-0.816166	70.4691	-2.14497	5.83158	-13.6638	4.76036	-2.21716	-0.319972
0.0200	1.80812	-4.45535	2.54187	62.8289	-2.44426	8.30417	-16.1158	9.64777	-2.21716	-0.319972
0.0207	0	-4.45535	-1.1205	40.5506	0.299298	17.1215	-10.0035	20.9396	0.528595	-0.319972
0.0213	0	2.86656	-7.22445	31.7103	-0.299298	16.8416	-6.94738	23.0769	2.05565	-0.319972
0.0220	1.20542	5.91805	-6.00366	24.6955	-2.44426	5.2251	-10.3056	2.01774	1.7473	-0.319972
0.0227	-2.75977	4.09388	-6.00366	16.751	-3.96569	-3.91882	-9.70146	-23.615	-0.389104	-0.319972
0.0233	-7.04217	4.09388	-11.8033	14.6212	-5.18783	-6.9979	1.27931	-33.6887	-2.52551	-0.319972
0.0240	-5.20232	5.01017	-8.44524	20.7232	-3.04286	-13.9958	18.6744	-15.9924	-1.91616	-0.319972
0.0247	-4.2824	-1.09282	6.81291	21.3317	-1.52143	-27.7117	27.8428	8.12326	-1.60781	-0.319972
0.0253	-3.36248	-4.45535	19.6295	9.7362	-0.299298	-31.0707	22.6545	1.71134	-0.69011	0
0.0260	-0.634429	1.64764	24.2083	-1.55509	0.922835	-25.2857	17.7682	-37.0441	-1.91616	-0.319972
0.0267	3.64797	5.91805	29.3958	-2.1636	2.44426	-26.8253	19.5984	-46.8115	-3.44321	-0.319972
0.0273	6.09052	6.22909	28.175	2.7214	4.26499	-28.9713	22.9566	-3.78139	-1.3068	-0.319972
0.0280	2.12534	8.66692	13.2212	-1.25083	3.96569	-14.3224	23.8627	34.0624	0.528595	-0.319972
0.0287	-2.75977	12.3321	-6.61578	-14.9762	1.22213	4.29204	20.5045	53.2832	1.7473	-0.319972
0.0293	-5.51954	13.8536	-19.7367	-30.5439	-1.22213	-1.49288	9.82584	46.5723	3.27435	-0.319972
0.0300	-1.83985	6.53171	-14.2449	-37.5587	-1.22213	-18.8943	2.20326	6.29235	2.35665	0
0.0307	6.09052	-10.2557	-4.1742	-33.2991	1.22213	-18.5678	3.73133	-15.686	2.966	-0.319972
0.0313	6.09052	-24.2943	-9.66603	-32.9949	1.82073	-4.85188	2.20326	-5.91869	3.8837	-0.639944
0.0320	2.72805	-24.5969	-13.6327	-34.5162	0.598595	9.79706	-3.28712	-7.44321	2.966	-0.319972
0.0327	0.285493	-16.3587	-12.4119	-24.1377	-1.22213	20.4805	-7.87133	-28.196	-0.0807575	-0.319972
0.0333	-1.52263	-9.02839	-13.3284	-17.4271	-3.04286	21.6935	-10.3056	-31.245	-1.3068	-0.319972
0.0340	0.602708	-2.62277	-10.5825	-22.3121	-1.84567	20.8071	-8.79528	-12.0242	1.13795	-0.319972
0.0347	1.80812	-0.487567	-6.00366	-24.1377	0.299298	22.0201	-8.47545	3.54225	2.966	0
0.0353	1.20542	-3.23643	-4.1742	-26.2675	1.52143	24.1661	-11.2295	9.03498	2.05565	-0.319972
0.0360	-0.919923	-8.1121	-4.47854	-12.5421	-0.299298	23.5596	-14.2857	7.81686	-0.0807575	-0.639944
0.0367	-1.52263	-10.5583	-3.25775	39.9421	-1.84567	19.2675	-11.8336	1.09855	-3.13486	-0.639944
0.0373	1.52263	-4.75798	0.708958	75.0499	-0.922835	13.156	-1.75906	-6.22509	-2.82651	-0.319972
0.0380	2.44255	2.86656	-0.2075	51.8588	-0.299298	8.58409	5.2594	-10.7986	-0.389104	-0.319972
0.0387	2.72805	2.2613	-4.47854	21.3317	-0.922835	6.15815	5.2594	-9.27411	0.220248	-0.639944
0.0393	0.602708	-3.53906	-11.4989	11.2575	-0.623537	4.61861	0.977253	1.40494	-0.69011	-0.319972
0.0400	-1.23714	-3.53906	-16.9908	6.99789	-0.299298	4.01213	-3.60695	13.616	-1.3068	-0.319972
0.0407	0.919923	2.56393	-17.6029	6.99789	-0.299298	1.25962	-1.457	17.5767	0.528595	-0.319972
0.0413	0.919923	1.95867	-17.9072	8.82343	-0.623537	0.0466527	3.42927	10.2531	1.43895	-0.319972
0.0420	-0.634429	-2.32015	-7.22445	4.8512	-1.52143	5.55167	2.50532	-3.78139	1.43895	-0.319972
0.0427	-3.07698	2.86656	10.7796	-3.07637	-3.96569	11.01	-2.98506	-12.9359	1.43895	-0.319972
0.0433	-5.51954	12.0295	12.0004	-2.46786	-5.18783	13.4826	-5.73914	-11.4114	0.8296	-0.959916
0.0440	-2.15706	18.7377	2.54187	0.574706	-2.74356	11.6165	0.977253	-3.47499	1.7473	-1.27989
0.0447	0.602708	26.0596	-3.56208	-9.17839	-0.623537	8.30417	11.0518	-2.56327	2.05565	-0.639944
0.0453	0.602708	28.5058	-7.53224	-16.5143	-0.922835	6.43807	13.7882	-13.2423	0.220248	-0.319972
0.0460	-1.23714	18.4351	-8.44524	-25.9632	-2.44426	2.19267	6.7697	-20.566	-1.91616	-0.319972
0.0467	-0.919923	10.4995	2.23408	-46.1117	-2.74356	-5.73828	-1.15494	-21.4852	-2.82651	0
0.0473	4.25068	13.551	19.9338	-45.5032	-0.623537	-14.6023	4.03339	-18.1223	-0.998456	0
0.0480	3.33075	7.75063	30.6166	-29.6312	0.299298	-17.9613	15.0142	-7.44321	-0.0807575	-0.319972
0.0487	0.285493	-8.42314	32.446	-21.3994	-0.299298	-13.3893	14.108	-0.425967	-0.0807575	0
0.0493	-0.317215	-12.9962	25.4291	-13.1506	-2.14497	-10.9634	3.73133	-7.13681	0.528595	0.319972
0.0500	-3.36248	-2.00911	15.6628	1.18322	-3.3671	-13.0627	-2.07888	-17.8233	-0.0807575	0
0.0507	-5.20232	8.36429	9.55882	23.7658	-1.84567	-9.09727	-2.07888	-18.1223	0.8296	-0.319972
0.0513	-3.67969	8.36429	3.76266	29.2593	0	-2.37929	-4.21107	-8.66132	2.665	-0.319972
0.0520	0	-5.67427	-6.00366	3.93843	0.299298	0.0466527	-6.34326	13.9149	5.41075	-0.319972
0.0527	3.04526	-27.951	-15.1613	7.30215	-1.22213	1.58619	-7.26721	43.8222	5.41075	-0.319972
0.0533	5.77331	-34.3651	-13.3284	31.7103	-3.04286	1.58619	-6.64532	48.7097	1.43895	-0.319972
0.0540	5.48781	-17.8803	-9.3617	11.866	-2.14497	0.0466527	-1.75906	28.5697	-0.998456	0
0.0547	2.72805	-0.184939	-12.7197	-14.6719	-1.22213	-0.559832	3.42927	5.67955	0.8296	0
0.0553	6.40774	-0.487567	-14.5492	-18.6441	-1.22213	-1.49288	3.10944	-9.27411	4.8014	-0.319972
0.0560	8.85029	-16.964	-10.2782	-0.338062	-2.14497	-3.31234	-4.21107	-17.2105	1.7473	-0.319972
0.0567	7.93037	-23.067	-3.86987	39.3336	-2.14497	-3.63891	-7.26721	-25.4459	-4.96292	-0.319972
0.0573	6.40774	-12.9962	-3.56208	46.6695	-0.922835	-4.24539	0.071073	-7.7496	-5.57961	-0.319972
0.0580	0.919923	-0.790195	-9.05737	15.2297	-1.22213	-6.34476	7.39159	31.6187	-3.74421	-0.319972
0.0587	-5.80503	8.66692	-13.6327	-15.6016	-2.14497	-7.27781	8.29777	37.4178	-1.60781	-0.319972
0.0593	-11.9273	6.83434	-15.4657	-12.5421	-2.74356	-8.81735	5.2594	23.6822	0.220248	-0.319972
0.0600	-13.7354	0.126095	-7.22445	8.82343	-1.22213	-8.81735	3.73133	31.9251	0.220248	0
0.0607	-8.85029	-4.75798	-4.47854	-32.0652	2.74356	-2.70585	2.80738	20.0204	1.13795	-0.319972
0.0613	-2.15706	-10.5583	-9.97036	-117.223	5.18783	4.01213	0.071073	-43.7625	3.27435	-0.319972
0.0620	3.64797	-7.20422	0.708958	-147.733	4.88853	6.76463	-1.457	-87.0915	5.10241	-0.319972
0.0627	5.77331	1.34501	14.7463	-112.642	3.34216	8.30417	-4.21107	-69.0888	3.57536	-0.319972
0.0633	3.64797	5.3128	15.9671	-61.6795	3.04286	10.7301	-8.17339	-39.4879	-0.0807575	0
0.0640	0.285493	-0.184939	8.33803	-35.4289	3.04286	9.79706	-8.17339	-0.425967	-0.0807575	0
0.0647	-3.67969	-14.5261	-2.34129	-31.1525	2.14497	6.15815	-7.26721	49.0161	1.43895	-0.319972
0.0653	-5.51954	-19.7128	-11.1912	-28.7184	2.14497	5.55167	-6.34326	63.3569	0.528595	0
0.0660	-2.75977	-12.3909	-19.128	-23.8334	0.299298	5.55167	-8.79528	39.2487	-1.60781	0
0.0667	5.1706	-7.80948	-15.77	-19.8612	-1.22213	4.61861	-16.4179	17.8831	-1.60781	-0.319972
0.0673	9.453	-7.80948	3.15054	-7.96137	0.922835	4.29204	-19.474	9.34137	-0.69011	-0.319972
0.0680	6.09052	0.73135	10.4753	59.1778	2.14497	2.19267	-15.4939	-12.9359	-2.21716	0
0.0687	1.80812	19.654	6.50858	137	1.22213	1.58619	-6.94738	-48.336	-5.57961	0
0.0693	-5.51954	25.757	10.7796	95.4857	0	1.25962	0.373133	-58.4097	-9.23572	-0.639944
0.0700	-9.48472	10.8021	17.1879	13.4042	0.299298	-0.8864	2.50532	-30.6397	-8.32537	-0.639944
0.0707	-6.12224	-5.37164	15.3584	8.51917	1.82073	-4.24539	0.675193	-3.16859	-2.82651	-0.319972
0.0713	-4.2824	-4.45535	1.92975	21.3317	1.82073	-8.49078	-3.28712	2.62306	-0.389104	-0.319972
0.0720	-3.96518	7.448	-12.4119	17.3595	0.598595	-6.67133	-5.43708	1.09855	-0.998456	-0.319972
0.0727	-3.96518	12.0295	-19.7367	12.4745	-1.52143	-1.49288	-8.47545	-5.3059	-1.60781	0
0.0733	-3.67969	4.09388	-22.4826	10.649	-3.6664	-0.279916	-13.3617	-5.3059	-1.3068	-0.639944
0.0740	-2.15706	-9.64205	-12.7197	15.534	-3.04286	-0.559832	-14.8898	13.3096	0.8296	-1.27989
0.0747	-1.83985	-15.745	2.84621	13.4042	1.52143	-0.279916	-13.6638	27.3441	2.665	-0.959916
0.0753	-3.07698	-8.1121	8.95016	-2.46786	7.93139	-0.279916	-10.0035	28.2633	2.35665	-0.319972
0.0760	-4.2824	-3.84169	8.33803	-18.9484	10.9742	-1.7728	-4.51313	30.4006	-0.69011	0
0.0767	-1.83985	-5.06061	7.42158	-26.5717	10.3757	-3.31234	1.27931	30.0942	-3.13486	0.319972
0.0773	4.88511	-2.62277	8.33803	-14.0634	8.85422	-7.60438	5.2594	16.0522	-1.60781	0
0.0780	6.40774	0.73135	5.89645	16.4467	7.00855	-11.5699	7.39159	-6.53149	-0.69011	-0.319972
0.0787	2.72805	4.69914	0.100292	27.4338	3.96569	4.61861	7.69365	-15.9924	-0.998456	-0.319972
0.0793	-3.07698	7.14538	-3.86987	7.30215	-1.84567	26.9186	3.10944	-13.5487	-2.52551	-0.639944
0.0800	-3.67969	6.22909	-5.39499	-10.4123	-5.81136	18.0546	0.373133	-13.5487	-2.82651	-0.319972
0.0807	-0.634429	8.06166	-6.00366	-3.98914	-4.58923	-10.6368	7.69365	-3.16859	1.7473	-0.319972
0.0813	-1.52263	9.88584	-6.61578	20.7232	-3.96569	-25.6123	20.8066	13.0032	3.8837	-0.319972
0.0820	-2.15706	5.01017	-3.86987	27.738	-4.58923	-21.3203	23.5607	14.8341	1.13795	-0.319972
0.0827	-3.07698	-3.23643	2.84621	0.574706	-5.81136	-9.09727	7.08953	10.5595	-0.69011	0
0.0833	-2.44255	-6.28793	9.86316	-27.1971	-6.40996	1.25962	-10.0035	7.20407	1.13795	-0.319972
0.0840	0.602708	-3.53906	9.86316	-39.0969	-4.58923	3.68556	-11.8336	3.84865	2.05565	-0.319972
0.0847	0.285493	-2.62277	4.37133	-43.6777	-5.81136	0.979706	-7.56927	1.71134	-0.0807575	-0.319972
0.0853	-0.634429	-4.45535	2.54187	-45.1989	-8.25563	-0.279916	-5.43708	2.01774	-0.998456	-0.319972
0.0860	-3.67969	-1.70648	-1.42829	-42.1395	-6.40996	-0.279916	-5.43708	3.54225	-1.60781	-0.319972
0.0867	-4.59961	8.36429	-10.2782	-42.4437	-2.14497	-1.7728	-4.81519	8.42218	-0.998456	-0.319972
0.0873	0.285493	14.4673	-7.22445	-38.1842	-0.299298	-3.91882	-0.852875	19.1087	2.665	-0.639944
0.0880	5.1706	11.4158	11.3917	-11.0208	-0.623537	-4.52531	3.10944	22.1577	2.665	-0.319972
0.0887	8.53308	10.1969	18.1044	20.1147	-0.299298	-3.03242	2.50532	15.7458	-1.3068	-0.319972
0.0893	7.01045	8.36429	8.0337	31.406	-1.22213	-0.8864	-2.683	16.0522	-3.74421	-0.319972
0.0900	4.25068	-0.487567	5.89645	26.521	-1.84567	0.979706	-5.43708	16.665	-2.52551	-0.319972
0.0907	3.33075	-7.80948	5.89645	12.4745	-0.623537	1.86611	-1.75906	5.06676	-0.0807575	-0.319972
0.0913	-0.919923	-2.62277	-1.73262	-1.25083	0.299298	1.25962	-0.248755	-19.0415	1.13795	-0.319972
0.0920	-5.80503	8.97795	-7.22445	-5.83158	-0.922835	0.653137	-2.07888	-52.6106	1.13795	-0.639944
0.0927	-7.64488	14.1647	-10.2782	-11.0208	-3.04286	-3.31234	-2.38094	-72.1378	-1.91616	-0.319972
0.0933	-4.59961	17.8214	-13.3284	-6.74435	-3.3671	-8.81735	0.071073	-63.9025	-4.66191	-0.639944
0.0940	0	24.5381	-11.4989	18.2892	-1.22213	-8.81735	3.73133	-31.8578	-2.82651	-0.319972
0.0947	1.80812	18.7377	3.76266	43.3058	-0.623537	-6.9979	4.03339	15.1405	-0.69011	-0.319972
0.0953	1.20542	-8.1121	15.6628	53.0758	-1.84567	-8.49078	1.27931	34.9741	-0.998456	-0.319972
0.0960	-2.44255	-27.6484	2.54187	43.6101	-3.96569	-9.09727	-2.98506	23.3759	-2.82651	-0.319972
0.0967	-1.23714	-20.0155	-9.3617	28.3465	-5.18783	7.37112	-5.43708	11.4787	-2.21716	-0.319972
0.0973	3.33075	-7.50685	-3.25775	23.1573	-4.58923	34.523	-3.60695	0.186827	0.528595	-0.319972
0.0980	3.64797	-4.75798	3.76266	21.636	-5.18783	46.4194	-2.98506	-1.03876	2.05565	-0.319972
0.0987	2.72805	-7.20422	6.20079	16.1425	-4.58923	44.2734	1.27931	12.084	2.665	-0.319972
0.0993	0	-5.67427	2.54187	3.63417	-4.26499	42.7805	12.2779	12.3904	1.43895	-0.319972
0.1000	-1.83985	1.64764	0.100292	-3.38062	-3.96569	42.174	18.3724	-0.11957	1.13795	0
0.1007	3.04526	0.428723	11.3917	3.93843	-2.14497	40.028	14.41	-5.91869	2.966	-0.319972
0.1013	4.88511	-7.80948	18.713	1.80863	0	40.9144	7.69365	-2.56327	3.27435	0
0.1020	-3.36248	-3.23643	8.64237	-32.6906	0.299298	44.8799	5.2594	7.81686	1.43895	0
0.1027	-11.2928	1.95867	-5.69933	-65.9391	0	40.6345	2.50532	16.665	-0.69011	0
0.1033	-8.5648	-4.75798	-13.6327	-56.4902	2.14497	26.9186	-1.75906	19.4076	-1.3068	-0.639944
0.1040	-2.44255	-7.80948	-10.5825	-30.8482	5.48712	8.58409	-0.248755	22.1577	0.528595	-1.27989
0.1047	-0.919923	-3.53906	-2.64908	-23.2249	6.70926	-15.5353	4.03339	24.295	3.27435	-0.319972
0.1053	-2.15706	1.95867	1.32108	-29.9354	4.26499	-37.5087	2.50532	13.616	2.665	0.319972
0.1060	-4.59961	11.7184	-1.73262	-64.4178	1.22213	-50.6181	-1.457	-6.83041	1.43895	0
0.1067	-4.2824	19.9566	-4.78287	-107.149	0.299298	-59.1556	2.20326	-16.2914	4.49305	-0.319972
0.1073	-1.52263	12.6347	-2.34129	-105.323	0.922835	-57.3361	6.7697	-14.1615	9.37521	-0.959916
0.1080	0	-7.20422	0.404625	-94.6406	1.22213	-42.6872	4.03339	-7.13681	11.2106	-0.639944
0.1087	0	-18.1829	1.01329	-123.021	0.922835	-28.0382	1.9012	-4.39418	10.9023	0
0.1093	-0.919923	-13.9125	-1.42829	-144.995	-1.22213	-23.1397	-1.15494	-13.2423	10.2929	-0.319972
0.1100	0	-5.9769	-2.34129	-122.717	-1.84567	-22.8598	-2.38094	-21.4852	8.76586	0
0.1107	2.12534	-2.00911	-0.816166	-98.5959	0.299298	-21.9267	1.9012	-23.3161	5.10241	0
0.1113	3.64797	-2.9254	-0.2075	-94.9448	1.22213	-26.8253	1.58137	-16.5978	2.05565	-0.319972
0.1120	4.56789	-3.53906	0.404625	-92.4939	0.598595	-25.8922	-5.43708	-0.732364	1.43895	-0.639944
0.1127	3.64797	-3.53906	2.54187	-83.6535	1.82073	0.653137	-13.3617	7.51046	-1.91616	-0.319972
0.1133	5.1706	-2.9254	4.67566	-28.4141	5.18783	30.5575	-17.324	0.186827	-7.09932	-0.959916
0.1140	8.21586	2.2613	0.404625	126.317	6.11066	28.738	-12.1357	-5.3059	-12.5982	-0.639944
0.1147	6.09052	5.01017	-6.31145	310.341	5.48712	7.9776	-2.683	-0.11957	-19.9177	-0.319972
0.1153	2.12534	4.39651	-9.97036	347.562	5.78642	-5.73828	4.03339	8.12326	-23.8895	-0.959916
0.1160	0.919923	5.3128	-11.4989	230.373	2.74356	-11.5699	3.10944	16.665	-19.9177	-1.27989
0.1167	0	5.91805	-5.69933	121.736	-1.22213	-10.0303	-2.38094	29.175	-13.2075	-0.959916
0.1173	-0.317215	5.01017	-1.73262	84.4987	0.299298	-7.27781	-2.98506	31.3123	-6.48997	-0.319972
0.1180	-2.15706	2.56393	-8.14091	85.1072	4.26499	-6.06484	-2.98506	17.5767	-2.21716	0
0.1187	-5.80503	3.48022	-8.14091	84.1944	3.96569	-5.45836	-2.38094	5.37316	-2.52551	-0.319972
0.1193	-7.93037	7.14538	-2.95341	64.6713	0	-10.3569	-0.550815	-1.03876	-4.35356	-0.319972
0.1200	-6.12224	7.75063	1.92975	47.5823	-1.84567	-5.45836	1.58137	-6.83041	-3.74421	-0.319972
0.1207	-1.83985	3.48022	13.2212	41.176	0	7.9776	6.7697	-8.96772	-1.3068	0
0.1213	1.80812	-11.172	14.1377	36.5953	0.922835	7.9776	9.52378	-5.6123	0.220248	0
0.1220	3.96518	-17.8803	-2.34129	30.4932	0.299298	-0.559832	7.99571	-11.4114	-0.389104	-0.319972
0.1227	3.64797	-3.23643	-15.1613	24.6955	0	-6.9979	5.86352	-22.0905	-1.91616	-0.319972
0.1233	3.33075	7.14538	-9.66603	20.419	-0.623537	-5.13179	0.373133	-21.4852	-1.3068	0
0.1240	3.33075	4.39651	7.42158	17.3595	0	-1.16632	-5.11725	-16.5978	1.43895	0
0.1247	1.52263	4.09388	19.3251	14.9255	0.922835	-1.7728	-6.34326	-5.6123	2.966	0
0.1253	-0.317215	2.56393	19.9338	12.4745	0	-1.7728	-5.11725	14.2213	2.966	-0.319972
0.1260	-1.83985	-3.53906	7.72937	7.30215	-1.84567	-3.31234	-7.87133	12.6968	1.43895	-0.319972
0.1267	-3.07698	-7.80948	-7.83658	3.63417	-0.922835	-5.73828	-9.3994	-10.1933	1.13795	-0.319972
0.1273	-3.96518	-6.89319	-6.00366	3.93843	1.22213	-6.34476	-5.73914	-14.1615	2.665	0
0.1280	-3.67969	1.95867	7.72937	1.50438	1.82073	-7.8843	-4.21107	-3.78139	3.57536	0
0.1287	-3.07698	13.8536	8.95016	-3.68488	1.22213	-8.81735	-3.60695	5.37316	2.35665	0
0.1293	-4.59961	17.8214	-0.2075	-8.87414	-0.623537	-8.21087	-3.90901	17.2778	-1.3068	-0.319972
0.1300	-3.67969	12.6347	-1.73262	-11.3251	-1.22213	-7.60438	-5.43708	22.7705	-2.52551	0
0.1307	-0.317215	0.126095	2.54187	-8.26563	0.299298	-7.8843	-2.98506	13.616	-0.0807575	0
0.1313	0.919923	-9.64205	3.15054	-4.61455	0.598595	0.979706	5.86352	-3.78139	1.43895	0
0.1320	2.12534	-9.64205	2.23408	-8.87414	1.22213	20.2006	14.7121	-16.5978	0.220248	0
0.1327	1.80812	-9.94468	1.92975	-20.7739	0.299298	28.738	12.5799	-22.3969	-1.60781	-0.319972
0.1333	0.919923	-5.67427	-1.73262	-23.8334	-1.22213	20.4805	3.10944	-24.2278	-2.82651	-0.959916
0.1340	1.80812	8.36429	-6.61578	-21.7036	0.598595	10.4035	-0.248755	-24.5342	-0.0807575	-0.639944
0.1347	3.64797	14.7699	-7.53224	-23.2249	1.82073	5.83158	2.20326	-25.147	2.966	0
0.1353	3.96518	4.69914	-6.92012	-8.87414	0.598595	6.15815	1.27931	-16.5978	2.35665	-0.319972
0.1360	0.285493	-14.2235	-4.47854	-0.642319	-0.623537	7.65103	-3.28712	9.95417	0.220248	-0.319972
0.1367	-1.52263	-18.1829	0.404625	-28.7184	0	8.30417	-4.81519	26.126	0.528595	0
0.1373	2.12534	-7.20422	1.92975	-49.4754	1.22213	4.61861	-2.38094	16.665	2.35665	0
0.1380	5.48781	-7.50685	2.84621	-40.0097	0.598595	-0.279916	-1.15494	11.7851	3.57536	-0.319972
0.1387	7.61315	-10.5583	7.42158	-37.2545	0	-3.03242	-2.38094	16.0522	3.8837	-0.319972
0.1393	8.85029	-9.94468	11.6961	-32.3864	-0.299298	-6.06484	-4.21107	13.9149	1.13795	0
0.1400	6.40774	-6.59056	14.1377	17.6638	-0.623537	-11.5699	-4.21107	8.72858	-3.13486	-0.319972
0.1407	-0.317215	5.01017	16.2749	66.4969	-0.299298	-17.9613	-0.248755	12.084	-3.74421	-0.319972
0.1413	-4.88511	10.8021	15.0541	52.7715	0.598595	-18.2878	6.16558	17.2778	-1.3068	0
0.1420	-8.24758	8.66692	4.37133	23.4615	1.52143	-13.0627	10.4477	20.6332	-0.69011	0
0.1427	-12.53	12.6347	-12.7197	15.8382	0.922835	-12.7828	9.22172	11.7851	-3.44321	-0.319972
0.1433	-9.48472	16.9051	-18.5159	14.0127	-0.299298	-11.8498	4.03339	-7.13681	-4.66191	-0.319972
0.1440	0	8.97795	-14.8535	16.751	0	-6.67133	-0.550815	3.54225	-2.21716	-0.319972
0.1447	4.88511	1.04238	-8.74957	17.3595	0.299298	-5.73828	-4.81519	29.7878	0.220248	-0.319972
0.1453	2.44255	5.61542	7.42158	0.574706	-0.623537	-8.49078	-8.79528	35.5869	1.7473	-0.319972
0.1460	-5.80503	6.53171	9.55882	-25.0504	-2.44426	-6.34476	-13.3617	39.8615	2.665	-0.319972
0.1467	-7.32766	-4.15272	-2.34129	-43.6777	-1.84567	4.94518	-14.8898	35.5869	3.8837	0
0.1473	-1.23714	-3.53906	-0.816166	-54.3435	0	16.8416	-13.3617	4.45397	5.41075	0
0.1480	1.80812	1.95867	7.42158	-66.5645	-0.299298	25.379	-12.7576	-23.615	6.02011	0
0.1487	2.12534	-7.20422	11.0839	-79.3771	-2.44426	31.7705	-11.5316	-26.3651	4.19205	0
0.1493	-1.83985	-10.861	5.89645	-83.3493	-3.6664	26.592	-9.70146	-23.615	-0.0807575	0
0.1500	-4.88511	-1.40386	-9.05737	-84.8706	-3.04286	12.8761	-1.75906	-41.9316	-1.91616	-0.319972
0.1507	-1.83985	1.34501	-18.2116	-94.0321	0	6.76463	14.41	-60.2406	0.8296	0
0.1513	-0.919923	-2.32015	-11.1912	-107.149	1.82073	3.40564	23.2586	-40.706	2.05565	0
0.1520	-3.36248	-1.40386	-9.05737	-118.136	-0.299298	-8.49078	14.7121	-2.56327	0.8296	0
0.1527	-4.59961	-0.487567	-14.5492	-108.366	-2.44426	-17.6814	3.10944	10.5595	-0.389104	0
0.1533	-3.96518	-0.790195	-6.92012	-69.9113	-2.44426	-10.9634	2.50532	-2.56327	-0.389104	0
0.1540	-2.44255	2.86656	4.067	-13.7591	-1.52143	-2.70585	7.99571	-11.105	1.43895	0
0.1547	-0.919923	5.3128	4.37133	62.8289	-0.299298	0.326569	11.0518	-12.3306	1.7473	0
0.1553	0	1.64764	-2.03696	125.709	1.22213	6.43807	10.4477	-17.5169	-0.0807575	0
0.1560	-1.52263	-1.40386	-8.74957	118.677	0	10.7301	5.56146	-20.8724	-2.52551	0
0.1567	-2.75977	-0.184939	-11.4989	46.3653	-2.44426	7.9776	0.071073	-15.686	-0.389104	0
0.1573	-1.23714	3.48022	-10.8868	1.50438	-2.14497	3.40564	-0.550815	-3.16859	5.10241	0
0.1580	-0.919923	5.3128	-13.3284	54.2928	0.299298	3.68556	0.977253	3.23585	0.8296	0
0.1587	0	5.01017	-16.6864	99.1537	1.52143	4.29204	0.977253	3.23585	-7.09932	0
0.1593	0	3.78285	-8.14091	71.9904	0.598595	1.58619	-1.457	7.20407	-6.18896	0
0.1600	0.602708	0.428723	6.50858	60.6991	-0.299298	-0.279916	-1.457	13.616	-3.74421	0
0.1607	3.64797	-4.75798	6.81291	57.0311	0.922835	-1.16632	4.03339	27.3441	-1.91616	0
0.1613	2.72805	-7.80948	-0.816166	23.4615	0.598595	-0.559832	5.56146	42.6041	0.528595	-0.319972
0.1620	0	-5.06061	-3.86987	11.2575	0.299298	1.86611	0.675193	25.8196	0.528595	-0.319972
0.1627	-2.15706	-2.00911	-5.09066	16.4467	0.598595	1.58619	-6.0412	-18.4287	-1.60781	-0.319972
0.1633	-1.83985	-0.790195	-4.1742	-4.3103	0.299298	-1.49288	-10.0035	-41.0124	0.220248	0
0.1640	1.20542	1.34501	-1.1205	-14.9762	0.299298	-5.73828	-10.3056	-33.3823	4.19205	0
0.1647	1.52263	2.2613	-0.2075	7.6064	-0.299298	-6.67133	-11.2295	-21.4852	2.966	-0.639944
0.1653	0.285493	1.34501	0.100292	10.9532	-1.84567	0.326569	-10.0035	-11.7178	0.220248	-0.959916
0.1660	-1.23714	-0.184939	-0.511833	-11.9336	-3.3671	8.91066	-4.81519	-4.70058	-0.69011	-0.319972
0.1667	-2.15706	-0.790195	-1.42829	-15.2804	-4.26499	7.65103	0.373133	-5.91869	-1.60781	-0.959916
0.1673	0.285493	0.73135	-1.73262	-4.3103	-4.26499	0.326569	3.10944	-12.6295	-0.0807575	-0.959916
0.1680	1.20542	1.64764	0.100292	-0.946575	-4.58923	-1.16632	4.33545	-19.3479	2.35665	0
0.1687	0.602708	1.04238	1.62541	25.9125	-5.18783	-1.7728	8.29777	-22.7033	1.13795	0
0.1693	-1.52263	0.126095	0.100292	78.3967	-5.81136	-4.24539	9.52378	-23.0097	-3.13486	-0.319972
0.1700	-1.23714	-0.487567	-1.42829	93.6602	-6.40996	-2.70585	8.59983	-17.5169	-3.74421	0.319972
0.1707	0.602708	1.04238	0.404625	60.3949	-5.81136	-2.37929	15.6361	-3.16859	1.13795	0.319972
0.1713	-0.317215	2.56393	1.32108	14.0127	-5.18783	-8.21087	22.3347	9.64777	2.966	0
0.1720	-0.634429	2.86656	0.708958	-16.2101	-4.26499	-12.1763	21.1264	12.084	2.665	-0.319972
0.1727	-2.15706	4.69914	-0.511833	-11.3251	-1.84567	-9.42384	17.4662	7.81686	2.05565	-0.319972
0.1733	-2.75977	6.53171	-1.73262	-6.44009	3.04286	-5.73828	15.3162	5.37316	1.43895	0
0.1740	0.285493	5.01017	-1.1205	-18.9484	7.33279	-6.06484	14.108	5.98595	1.7473	0
0.1747	1.80812	3.17759	-0.511833	-36.3417	7.93139	-13.0627	10.7498	-0.425967	-0.0807575	0
0.1753	1.20542	1.95867	1.01329	-75.1006	6.70926	-16.7483	4.93957	-12.9359	-1.3068	0
0.1760	-0.919923	-1.40386	-2.64908	-105.323	2.74356	-4.52531	-0.852875	-23.3161	-1.3068	0
0.1767	0.602708	-3.84169	-11.8033	-90.0598	-0.299298	13.7625	-5.73914	-26.3651	-1.3068	-0.319972
0.1773	3.96518	-2.62277	-14.2449	-61.9837	0.598595	21.6935	-7.87133	-14.7668	0.528595	-0.319972
0.1780	3.64797	-0.184939	-9.05737	-30.5439	3.04286	15.6286	-5.73914	9.03498	0.220248	0
0.1787	3.04526	2.2613	-4.1742	22.2445	4.88853	6.76463	-4.51313	22.1577	-2.82651	0
0.1793	3.33075	3.78285	-3.56208	67.7139	3.96569	2.47259	-9.3994	11.1723	-6.48997	-0.319972
0.1800	6.09052	0.126095	-2.95341	83.2817	2.14497	4.01213	-14.8898	1.71134	-7.09932	-0.319972
0.1807	8.85029	-5.67427	9.86316	71.3819	0.922835	4.01213	-20.3802	20.9396	-3.13486	0
0.1813	5.77331	-5.67427	30.3123	41.7845	0.299298	1.25962	-27.0966	41.0796	-0.0807575	0
0.1820	0	-6.28793	30.6166	23.1573	0.299298	1.25962	-27.7007	25.8196	0.528595	-0.319972
0.1827	-2.44255	-11.172	7.72937	15.534	-0.922835	1.58619	-24.0404	-3.47499	-0.998456	-0.319972
0.1833	3.96518	-9.64205	-9.05737	7.6064	-0.299298	-1.16632	-19.474	-17.8233	-0.69011	0
0.1840	8.85029	-0.184939	-6.61578	4.8512	1.82073	-2.09937	-13.3617	-14.1615	1.43895	0
0.1847	4.25068	6.22909	0.404625	3.32991	2.44426	0.326569	-8.47545	2.92945	2.05565	0
0.1853	0.919923	5.61542	4.67566	-0.338062	2.14497	1.58619	-7.87133	20.3268	1.7473	-0.319972
0.1860	-0.634429	-3.84169	2.23408	-4.3103	-0.299298	0.0466527	-9.09734	27.3441	-0.0807575	0
0.1867	-2.15706	-15.4424	-3.25775	-5.83158	-1.52143	0.326569	-6.94738	23.3759	-1.3068	0
0.1873	-3.07698	-16.3587	-1.73262	-3.68488	0	0.653137	-1.457	11.4787	0.220248	-0.319972
0.1880	-3.07698	-6.59056	5.28779	-3.68488	0.299298	-0.559832	-1.75906	-1.33768	1.43895	-0.319972
0.1887	-1.23714	5.3128	7.42158	-6.74435	-0.922835	-0.279916	-4.51313	-4.08778	0.8296	0
0.1893	-3.07698	7.14538	1.92975	-8.26563	-2.44426	-1.49288	-6.94738	2.32413	-0.998456	0
0.1900	-3.07698	1.64764	-1.73262	-3.38062	-2.44426	-4.24539	-7.26721	1.71134	-1.60781	-0.319972
0.1907	0.919923	8.06166	-1.1205	3.32991	-0.623537	-5.45836	-5.43708	-12.0242	0.8296	0
0.1913	-1.23714	20.5703	-4.78287	6.37248	0.299298	-6.67133	-6.64532	-23.0097	1.7473	0
0.1920	-5.20232	17.2162	-3.56208	10.9532	-0.922835	-7.27781	-10.3056	-22.3969	-0.0807575	-0.319972
0.1927	-4.2824	-1.09282	4.67566	15.2297	-4.26499	-8.21087	-15.1918	-13.8551	-0.998456	0
0.1933	-0.634429	-13.3072	2.54187	19.8105	-5.81136	-8.81735	-19.474	2.01774	0.220248	-0.639944
0.1940	3.64797	-7.50685	-5.69933	31.7103	-2.74356	-3.31234	-15.4939	15.4469	2.35665	-1.27989
0.1947	2.12534	4.09388	-6.61578	37.8123	-0.623537	6.15815	-7.87133	16.9714	2.966	-0.319972
0.1953	-2.15706	4.39651	-1.42829	31.406	-2.14497	10.4035	-6.0412	13.616	1.43895	0.319972
0.1960	-5.80503	-2.62277	3.45487	29.2593	-4.26499	9.79706	-9.70146	13.3096	0.220248	0.319972
0.1967	-9.16751	0.126095	5.59212	18.5934	-4.88853	16.8416	-11.5316	17.8831	-0.69011	0
0.1973	-8.24758	12.3321	8.0337	-14.3677	-2.74356	29.018	-9.3994	30.6995	-3.74421	0
0.1980	-4.88511	11.7184	12.6125	-26.8929	-0.922835	30.2776	-0.248755	41.9913	-6.79831	0
0.1987	-4.59961	0.126095	9.25449	-6.44009	-1.84567	22.9531	16.5422	37.7242	-7.09932	0
0.1993	-7.32766	6.83434	-2.64908	3.02566	-2.14497	20.4805	31.8051	20.9396	-6.48997	0
0.2000	-5.80503	11.4158	-2.95341	-25.9632	0.299298	21.6935	39.4277	8.42218	-4.66191	0
0.2007	-0.634429	-10.2557	4.37133	-67.173	4.26499	7.04455	37.8997	6.59127	-2.52551	0
0.2013	1.20542	-23.067	4.37133	-70.8241	6.11066	-19.5008	28.447	4.15504	-0.69011	0.319972
0.2020	0.602708	-13.3072	0.708958	-44.8947	4.56429	-28.3182	19.2963	-4.39418	1.13795	0
0.2027	0.285493	-2.32015	-8.74957	-32.0652	1.52143	-19.5008	8.91966	-17.8233	1.7473	0
0.2033	1.80812	6.53171	-22.7904	-29.6312	0.922835	-10.6368	-0.550815	-25.7523	1.7473	0
0.2040	4.88511	12.0295	-29.503	-23.8334	2.74356	-8.49078	-2.07888	-16.5978	1.7473	0
0.2047	6.69323	12.3321	-23.7034	-21.3994	3.96569	-9.70375	-2.98506	-9.88691	2.966	0
0.2053	6.09052	14.4673	-16.0743	-23.2249	3.6664	-9.09727	-6.0412	-20.566	3.27435	0
0.2060	1.80812	16.2999	-14.8535	-28.1099	2.14497	-5.45836	-7.87133	-22.7033	2.35665	0
0.2067	-1.23714	8.36429	-8.44524	-31.4567	1.82073	-1.49288	-5.73914	-5.91869	3.27435	0
0.2073	0	-8.1121	-2.03696	-15.6016	2.44426	-1.7728	-2.07888	0.792148	4.49305	-0.319972
0.2080	1.20542	-18.4939	2.54187	7.6064	2.44426	-2.09937	0.373133	6.29235	3.57536	-0.319972
0.2087	-0.919923	-11.172	9.86316	10.0405	1.52143	0.326569	0.977253	28.8686	2.966	-0.319972
0.2093	-4.59961	0.428723	5.89645	5.15545	-0.623537	0.326569	-2.38094	43.5233	2.35665	-0.639944
0.2100	-2.75977	-2.62277	-4.47854	2.7214	-0.922835	0.653137	-2.38094	34.0624	4.19205	-0.319972
0.2107	-1.52263	-16.6613	-2.34129	0.574706	0.922835	4.01213	0.071073	6.89767	7.84816	0.319972
0.2113	-5.51954	-23.378	13.2212	4.24268	0.598595	8.30417	-1.15494	-22.7033	8.46486	0.319972
0.2120	-5.20232	-15.745	17.8	11.2575	-0.299298	12.5496	-0.248755	-48.0296	7.23881	0.319972
0.2127	-2.15706	-6.89319	7.72937	18.8977	-1.22213	13.4826	0.071073	-69.3952	5.71176	0
0.2133	2.44255	-1.40386	8.0337	19.8105	-1.84567	12.8761	-1.75906	-79.1625	4.8014	0
0.2140	6.40774	7.75063	11.3917	13.4042	-1.22213	11.01	-0.550815	-62.6843	6.02011	-0.319972
0.2147	2.72805	10.1969	4.97999	12.7957	-0.623537	8.30417	2.50532	-17.8233	4.8014	-0.319972
0.2153	-0.919923	-4.15272	0.404625	6.06822	-0.922835	8.58409	4.63751	17.8831	2.05565	0
0.2160	-1.23714	-14.2235	-0.2075	-19.8612	-3.04286	8.30417	3.10944	28.8686	-0.69011	0
0.2167	-2.15706	-5.67427	-1.1205	-40.9225	-3.04286	5.83158	2.80738	34.9741	-2.52551	0
0.2173	-0.919923	5.01017	0.100292	-33.6034	-1.84567	1.25962	4.93957	34.9741	-0.998456	-0.319972
0.2180	1.20542	4.09388	2.84621	-2.46786	-2.14497	-3.63891	6.16558	29.175	0.528595	-0.319972
0.2187	2.12534	-7.20422	4.067	18.2892	-2.74356	-9.09727	5.56146	24.295	-0.389104	-0.319972
0.2193	0.285493	-16.0477	3.15054	0.878962	-3.96569	-17.0282	0.977253	15.7458	-4.66191	0
0.2200	0	-12.6936	1.01329	-41.8352	-3.6664	-21.6468	-1.75906	6.29235	-9.54407	0
0.2207	2.12534	-2.9254	-0.2075	-66.2602	-1.52143	-21.3203	0.675193	2.62306	-7.40767	0
0.2213	2.72805	2.86656	0.100292	-47.9373	-0.623537	-16.4217	3.42927	-0.425967	-0.69011	0
0.2220	1.80812	8.36429	-1.1205	-14.9762	1.82073	-12.1763	4.03339	-8.056	1.43895	0
0.2227	0	13.8536	-3.25775	-16.8186	7.33279	-10.6368	1.58137	-14.7668	-1.3068	0
0.2233	0.602708	5.61542	-2.34129	-21.7036	11.8971	-10.9634	2.20326	-12.9359	-4.66191	-0.639944
0.2240	0.602708	-7.80948	0.404625	16.751	14.3413	-16.4217	5.86352	-7.7496	-6.48997	-0.959916
0.2247	-3.07698	-9.02839	1.92975	22.2445	13.4185	-10.6368	3.73133	-2.25688	-6.18896	0
0.2253	-3.96518	-11.172	1.32108	-17.7314	10.0764	4.61861	-5.11725	9.34137	-4.66191	-0.319972
0.2260	-3.96518	-20.6291	-1.73262	-31.4567	5.18783	6.43807	-8.47545	23.3759	-4.96292	-0.959916
0.2267	-2.75977	-14.8288	-3.25775	-31.4567	0	3.07908	-3.60695	28.2633	-4.66191	-0.319972
0.2273	0	3.48022	-0.511833	-39.0969	-3.96569	4.94518	0.071073	18.8023	-0.0807575	0
0.2280	0.285493	11.7184	1.32108	-36.9502	-7.33279	-2.09937	-2.38094	1.40494	3.8837	0
0.2287	0	8.66692	1.32108	-27.1971	-9.15352	-17.0282	-6.0412	-11.105	2.966	0
0.2293	-2.15706	3.17759	-0.816166	-31.761	-10.0764	-23.4663	-7.87133	-10.7986	1.13795	0
0.2300	-2.75977	0.126095	-4.78287	-39.7054	-8.55493	-16.4217	-7.56927	-6.83041	1.43895	0
0.2307	-0.317215	0.73135	-6.61578	-24.1377	-3.6664	-5.73828	-3.90901	-7.13681	0.528595	-0.639944
0.2313	-0.634429	-0.487567	-5.69933	-2.77211	-1.22213	0.326569	-3.90901	-7.13681	-3.44321	-0.959916
0.2320	-1.52263	-0.184939	-6.61578	12.7957	-5.18783	3.07908	-12.4555	-5.3059	-6.48997	-1.27989
0.2327	-2.75977	2.86656	-6.92012	24.9997	-10.3757	3.68556	-17.324	-4.39418	-9.23572	-0.639944
0.2333	-0.919923	4.69914	6.20079	42.0888	-7.33279	-1.49288	-9.09734	-4.9995	-8.32537	0
0.2340	2.72805	6.83434	15.6628	54.9013	-0.922835	-4.85188	0.977253	-4.9995	-2.21716	-0.319972
0.2347	0.919923	5.01017	5.59212	6.06822	0	8.91066	3.42927	-1.95048	0.8296	-0.319972
0.2353	-0.919923	1.34501	-0.511833	-65.3306	-1.22213	18.6611	1.9012	1.71134	-0.389104	0
0.2360	-1.52263	2.56393	0.708958	-73.275	-3.04286	7.37112	-3.60695	0.792148	-1.91616	-0.319972
0.2367	-2.75977	5.61542	-2.64908	-48.5458	-3.6664	-4.52531	-9.09734	1.40494	-1.91616	-0.319972
0.2373	-0.634429	5.01017	-2.95341	-46.1117	-1.52143	-6.67133	-10.0035	2.92945	3.57536	0
0.2380	1.80812	2.86656	-1.42829	-55.5775	0	-1.16632	-5.73914	1.40494	9.98456	0
0.2387	1.20542	3.48022	-7.22445	-51.9095	1.22213	9.19057	0.675193	-0.732364	9.07421	0
0.2393	-1.83985	1.34501	-14.5492	-38.7927	0	14.369	3.42927	-3.16859	2.35665	0
0.2400	-0.317215	-4.15272	-8.44524	-11.6293	-0.922835	17.1215	5.2594	-7.44321	-1.60781	-0.319972
0.2407	4.25068	-4.45535	1.62541	61.6119	1.22213	30.8841	10.7498	-6.83041	-1.91616	-0.319972
0.2413	5.1706	-1.70648	5.89645	146.449	2.74356	35.7359	11.958	-1.33768	-4.66191	-0.319972
0.2420	3.04526	0.428723	10.7796	153.785	1.52143	27.1985	8.91966	-0.732364	-7.71601	0
0.2427	-0.634429	1.95867	8.33803	91.5304	-0.922835	27.805	6.46764	-7.13681	-8.01702	0
0.2433	-0.634429	4.09388	-2.95341	45.4356	-1.22213	35.1294	7.08953	-5.3059	-5.27126	0
0.2440	0.919923	4.69914	-7.53224	37.8123	0.922835	39.4215	9.82584	2.92945	-1.3068	0
0.2447	0.285493	2.86656	-1.42829	43.6101	2.44426	39.4215	8.59983	4.76036	-0.69011	0
0.2453	-1.23714	1.64764	4.97999	46.9738	2.44426	35.456	6.7697	4.45397	-1.3068	-0.319972
0.2460	-3.07698	1.64764	4.37133	36.291	-0.299298	30.2776	4.03339	2.62306	-1.60781	-0.319972
0.2467	-0.634429	3.17759	1.32108	24.3912	-1.84567	22.0201	0.675193	-1.03876	-0.69011	0
0.2473	1.20542	5.3128	1.62541	20.419	0.598595	10.4035	2.50532	1.40494	1.43895	0
0.2480	-0.919923	6.83434	1.01329	17.0552	1.52143	-0.559832	10.1279	7.51046	1.43895	0
0.2487	-2.15706	6.22909	-1.73262	13.4042	-0.299298	-12.7828	14.108	10.2531	0.220248	0
0.2493	-3.67969	-2.32015	-3.86987	10.9532	-2.74356	-28.3182	7.08953	9.34137	-1.60781	0
0.2500	-2.15706	-12.9962	-4.47854	10.9532	-3.96569	-49.6851	-2.98506	5.67955	-1.3068	-0.319972
0.2507	0.602708	-14.5261	-4.47854	11.2575	-3.96569	-66.2001	-7.87133	-3.47499	1.7473	-0.319972
0.2513	0.285493	-9.02839	-4.47854	10.0405	-3.04286	-64.6606	-8.47545	-15.9924	2.35665	-0.319972
0.2520	1.52263	-2.32015	-2.03696	10.0405	-1.52143	-53.6506	-7.56927	-22.3969	1.13795	-0.319972
0.2527	2.44255	2.2613	1.62541	8.82343	-1.22213	-48.1922	-6.94738	-20.566	-0.998456	-0.319972
0.2533	2.44255	6.22909	3.45487	10.0405	0.299298	-44.5066	-4.81519	-20.2596	-2.82651	-0.639944
0.2540	3.04526	8.36429	2.84621	16.4467	1.82073	-34.7562	1.27931	-20.566	-0.389104	-0.959916
0.2547	3.04526	6.53171	1.32108	12.4745	1.82073	-28.9713	8.29777	-5.91869	2.665	-0.319972
0.2553	3.33075	2.86656	2.23408	1.18322	0.299298	-26.4987	8.29777	9.03498	2.05565	0
0.2560	3.04526	1.34501	8.33803	-3.07637	-1.52143	-6.34476	-1.75906	3.84865	-0.69011	-0.319972
0.2567	3.96518	3.48022	13.5255	-12.5421	-0.299298	15.3021	-10.9275	3.23585	-0.998456	0
0.2573	4.25068	5.3128	7.72937	-31.4567	2.74356	17.4481	-13.6638	23.0769	0.8296	0
0.2580	2.72805	5.61542	-2.95341	-30.5439	4.26499	9.51714	-15.4939	39.2487	0.220248	-0.319972
0.2587	0.919923	3.78285	-13.3284	-14.3677	3.6664	1.86611	-17.324	48.0969	-0.389104	-0.319972
0.2593	-4.59961	-3.84169	-27.9779	-15.2804	0.598595	-2.70585	-17.6439	49.0161	-1.60781	0
0.2600	-6.12224	-4.75798	-26.4528	-25.6589	-0.922835	-4.52531	-14.5877	28.2633	-1.60781	-0.319972
0.2607	-1.52263	5.01017	5.89645	-36.9502	0	-1.49288	-6.94738	2.01774	1.43895	-0.319972
0.2613	0.919923	9.58321	36.4162	-51.301	0.598595	9.19057	2.20326	-7.44321	2.966	0
0.2620	1.20542	5.91805	37.637	-46.7202	0	17.728	6.7697	-15.0732	2.665	0
0.2627	0.285493	1.34501	29.0915	-25.0504	-1.84567	17.1215	2.20326	-41.0124	2.35665	0
0.2633	1.52263	1.04238	24.2083	-21.0782	-1.84567	13.4826	-2.98506	-72.4442	2.35665	0
0.2640	5.48781	-5.37164	14.442	-35.1247	0.598595	6.43807	1.58137	-86.1798	4.19205	0
0.2647	6.40774	-18.1829	2.54187	-56.4902	0	-1.49288	12.882	-78.2433	6.02011	0
0.2653	5.77331	-17.5776	-15.1613	-68.6943	-1.84567	-2.37929	18.6744	-53.5223	6.32845	0.319972
0.2660	-0.919923	-4.75798	-37.1321	-45.1989	-2.44426	-1.16632	15.3162	-6.83041	2.35665	0
0.2667	-8.5648	10.4995	-41.4066	-22.6164	-2.74356	-8.21087	10.7498	49.0161	-2.21716	0
0.2673	-7.32766	16.2999	-29.503	-19.2527	-1.52143	-16.4217	9.82584	66.0996	-1.60781	0
0.2680	-2.15706	7.448	-13.9405	1.50438	1.22213	-10.6368	9.82584	35.5869	-0.998456	0
0.2687	-0.919923	-0.790195	-1.73262	18.5934	3.04286	-2.09937	7.39159	8.42218	-1.60781	-0.319972
0.2693	-2.75977	-0.487567	-5.39499	41.7845	1.82073	-2.70585	1.27931	0.493224	-3.44321	-0.319972
0.2700	0	4.69914	-7.22445	104.647	0.598595	-2.70585	-2.07888	-15.3796	-5.88061	-0.319972
0.2707	5.48781	-0.487567	6.50858	130.594	0.299298	1.25962	-1.457	-21.4852	-5.27126	-0.319972
0.2713	7.61315	-12.9962	12.0004	87.5582	1.22213	2.47259	-2.98506	0.792148	-3.13486	0
0.2720	3.33075	-10.5583	1.32108	47.278	3.96569	2.19267	-2.98506	19.714	-2.21716	0.319972
0.2727	-6.12224	0.73135	-8.74957	28.0423	2.44426	4.29204	-0.248755	11.4787	-3.13486	0
0.2733	-7.04217	5.91805	-9.05737	17.6638	0	10.7301	4.33545	-13.8551	-2.82651	-0.319972
0.2740	-2.15706	5.91805	-3.25775	17.0552	0.922835	15.9086	8.91966	-23.0097	-0.69011	0
0.2747	-1.83985	1.04238	1.32108	16.751	0	13.156	7.08953	-7.44321	0.220248	0
0.2753	-2.44255	-4.75798	2.54187	9.7362	-2.44426	10.7301	0.977253	2.32413	-0.0807575	0
0.2760	-3.96518	-10.5583	-2.95341	-0.946575	-4.26499	16.515	-3.28712	5.37316	-2.21716	0
0.2767	-2.44255	-11.4746	-12.1076	-5.83158	-3.6664	13.7625	0.071073	8.72858	-3.13486	0
0.2773	2.44255	-7.80948	-9.3617	-6.13583	-1.52143	0.0466527	7.69365	-1.03876	-0.998456	-0.319972
0.2780	1.80812	0.126095	-3.86987	-14.6719	-1.52143	-8.81735	6.7697	-5.91869	0.8296	-0.319972
0.2787	-0.919923	13.2484	-9.97036	-29.0227	-1.52143	-11.8498	3.73133	11.1723	0.8296	-0.319972
0.2793	-0.317215	13.2484	-9.05737	-42.748	-1.84567	-14.3224	10.7498	26.7387	-1.3068	-0.319972
0.2800	3.33075	-2.9254	5.59212	-56.7945	-1.52143	-11.8498	17.1464	38.0306	-0.998456	-0.319972
0.2807	3.64797	-8.1121	5.89645	-64.1135	0.299298	-7.8843	8.29777	49.0161	3.27435	-0.319972
0.2813	-2.75977	0.73135	-10.2782	-66.2602	0.598595	-8.21087	-0.852875	51.1459	5.71176	-0.319972
0.2820	-4.88511	9.58321	-15.4657	-63.2008	2.44426	2.19267	6.46764	47.4841	5.10241	-0.319972
0.2827	-0.634429	9.28058	0.100292	-32.9949	2.44426	20.2006	9.22172	37.1114	1.43895	0
0.2833	7.01045	-9.94468	22.9875	9.12769	0.922835	19.2675	-1.75906	20.9396	-2.52551	-0.639944
0.2840	12.8155	-28.2537	26.6499	18.8977	1.52143	0.0466527	-10.3056	0.186827	-0.998456	-0.959916
0.2847	9.77021	-20.0155	13.8333	-5.22306	1.82073	-14.3224	-13.9658	-15.3796	2.05565	-0.319972
0.2853	2.72805	1.95867	11.6961	-26.8929	1.22213	-6.06484	-14.2857	-16.2914	2.05565	-0.319972
0.2860	-4.59961	21.1839	3.45487	0.27045	1.22213	7.04455	-13.6638	-26.3651	-0.389104	0
0.2867	-7.93037	25.4543	-8.74957	76.2669	2.14497	8.30417	-13.3617	-44.9806	-2.52551	0.319972
0.2873	-4.59961	5.61542	-5.69933	127.534	4.26499	8.91066	-11.5316	-28.196	-1.91616	0
0.2880	-5.51954	-10.5583	-6.31145	108.011	4.56429	11.6165	-10.3056	17.8831	-0.389104	0
0.2887	-12.2128	0.428723	-10.5825	51.8588	3.04286	10.7301	-8.17339	28.8686	0.8296	0
0.2893	-15.8925	14.4673	-10.5825	11.2575	0.922835	5.55167	-6.34326	-14.7668	0.528595	0
0.2900	-8.24758	11.1132	-9.97036	-0.642319	0.299298	0.653137	-5.73914	-58.1033	0.220248	0
0.2907	3.64797	5.01017	-4.78287	-7.0486	0.922835	-1.16632	-4.21107	-58.1033	1.43895	-0.319972
0.2913	7.93037	5.91805	6.50858	-17.1229	0.922835	-0.8864	-3.90901	-26.3651	2.665	-0.319972
0.2920	7.01045	-1.70648	15.6628	-18.6441	0.598595	1.86611	-3.90901	1.71134	1.7473	-0.319972
0.2927	6.40774	-20.3265	12.3047	-18.6441	-0.623537	3.68556	-6.34326	9.95417	-0.0807575	-0.319972
0.2933	8.21586	-29.1699	7.42158	-20.4697	-1.22213	3.40564	-7.87133	12.084	0.528595	0
0.2940	7.01045	-17.8803	6.50858	-16.2101	0.598595	0.653137	-5.43708	3.84865	2.35665	0
0.2947	0	1.64764	2.23408	-14.3677	0.299298	-1.7728	-3.60695	-26.3651	2.966	-0.319972
0.2953	-2.15706	8.36429	-2.95341	-3.38062	-0.922835	0.326569	-3.28712	-51.6914	1.13795	0
0.2960	-2.44255	3.78285	-9.97036	41.7845	-1.84567	4.01213	-2.98506	-46.5051	-2.82651	0
0.2967	-2.75977	3.78285	-11.4989	74.4413	-1.84567	7.65103	-2.07888	-26.6715	-4.35356	-0.319972
0.2973	2.72805	2.86656	-7.53224	49.4078	-0.299298	10.4035	-0.852875	-10.4997	-1.60781	0
0.2980	4.56789	-0.790195	-4.47854	14.3169	0.299298	9.51714	-0.852875	5.06676	1.13795	0
0.2987	1.52263	1.04238	-0.511833	1.18322	-0.299298	10.7301	-1.15494	19.1087	2.05565	0
0.2993	-0.634429	4.69914	2.23408	-6.13583	-2.14497	11.6165	-3.28712	29.7878	1.43895	-0.319972
0.3000	1.20542	6.22909	4.67566	-9.17839	-2.74356	10.7301	-4.21107	29.4814	0.8296	0
0.3007	2.12534	4.69914	6.50858	-7.96137	-1.84567	4.61861	-4.51313	8.72858	2.665	-0.319972
0.3013	-3.96518	2.2613	4.67566	-9.17839	-2.44426	-3.31234	-6.0412	-2.86967	2.665	-0.319972
0.3020	-10.6901	1.64764	-1.1205	-8.87414	-2.14497	-3.91882	-4.81519	12.3904	0.8296	0
0.3027	-12.53	2.2613	-12.1076	-13.7591	-2.14497	-5.13179	-6.94738	12.084	-1.3068	0
0.3033	-7.64488	6.83434	-16.0743	-23.2249	-3.04286	-11.2433	-9.3994	-11.105	-1.91616	0
0.3040	-2.15706	14.4673	-12.4119	6.06822	-2.74356	-15.2088	-7.26721	-27.8896	-0.998456	0
0.3047	-0.919923	13.8536	-10.8868	42.393	-1.22213	-18.2878	-6.0412	-24.5342	-1.3068	0
0.3053	-2.15706	7.448	-11.1912	22.5488	0	-18.8943	-4.21107	-4.70058	-1.91616	-0.319972
0.3060	-5.20232	3.48022	-10.2782	-9.48265	-1.22213	-14.9288	0.675193	8.12326	-3.13486	-0.319972
0.3067	-5.20232	3.17759	6.81291	-16.2101	-1.52143	-6.67133	7.99571	7.81686	-3.13486	-0.319972
0.3073	-2.44255	10.1969	23.904	-17.7314	-1.22213	-0.559832	14.41	3.23585	-0.389104	-0.319972
0.3080	-2.44255	14.4673	18.1044	-19.8612	-2.44426	-1.16632	18.3724	-3.47499	0.220248	-0.319972
0.3087	-1.23714	1.95867	12.9169	-21.0782	-2.74356	-4.24539	20.5045	-2.25688	-2.21716	0
0.3093	0	-11.4746	14.1377	-26.2675	-3.3671	-6.34476	16.5422	9.03498	-3.74421	0
0.3100	-0.317215	-10.2557	-0.511833	-27.8056	-3.3671	-7.27781	13.4861	18.4959	-3.74421	0
0.3107	0.285493	-5.37164	-20.6531	-13.4549	-2.44426	-8.49078	13.4861	15.7458	-3.44321	0
0.3113	0.285493	-3.23643	-18.8237	-0.946575	-2.14497	-7.8843	7.99571	7.20407	-4.05256	0
0.3120	0.919923	0.73135	-7.83658	-4.61455	-0.623537	-3.63891	4.93957	10.2531	-3.74421	0
0.3127	-0.919923	-0.184939	-11.1912	0.878962	0.299298	0.326569	6.16558	8.72858	-5.27126	0
0.3133	-1.52263	-3.23643	-15.77	15.534	0.598595	4.01213	6.7697	-2.56327	-6.79831	0
0.3140	-0.919923	0.126095	-9.66603	17.0552	1.82073	4.29204	2.50532	-2.56327	-1.60781	0
0.3147	-1.52263	5.3128	7.42158	23.7658	3.04286	5.2251	-3.90901	-1.64408	3.27435	0
0.3153	-0.317215	7.75063	18.1044	29.8847	2.74356	9.19057	-7.87133	-15.3796	1.7473	-0.319972
0.3160	-1.23714	0.126095	9.55882	5.45971	-0.299298	7.9776	-13.6638	-25.4459	0.8296	-0.319972
0.3167	0.602708	-9.64205	0.100292	-13.4549	-0.623537	5.55167	-15.4939	-20.2596	3.57536	0
0.3173	5.1706	-7.80948	-2.34129	3.02566	1.22213	5.55167	-11.5316	-4.39418	5.10241	-0.319972
0.3180	5.1706	-1.09282	2.54187	4.54694	2.14497	5.2251	-8.47545	12.084	5.71176	-1.27989
0.3187	0.919923	5.01017	13.8333	-41.8352	1.52143	6.76463	-5.11725	10.5595	7.23881	-0.639944
0.3193	-4.2824	-0.790195	14.1377	-81.8111	-0.623537	5.2251	-3.28712	-0.11957	7.84816	0
0.3200	-4.88511	-23.378	7.11724	-84.5663	-1.22213	-0.8864	-3.28712	-8.056	6.9378	0.319972
0.3207	0	-27.951	4.37133	-120.57	0	-4.52531	0.373133	-19.9532	6.9378	0
0.3213	3.04526	-8.72576	-0.511833	-173.071	1.22213	-6.9979	5.56146	-33.6887	8.46486	0
0.3220	2.12534	2.56393	-4.1742	-120.57	0.299298	-6.67133	7.08953	-39.4879	7.23881	0.319972
0.3227	1.20542	-0.487567	-5.39499	-8.87414	-1.84567	-2.37929	3.10944	-29.1152	2.05565	0
0.3233	4.56789	-5.9769	-9.66603	19.5062	-1.84567	1.58619	-1.15494	-4.9995	-0.998456	-0.319972
0.3240	5.48781	-7.80948	-9.3617	-36.9502	-0.922835	2.47259	-5.43708	12.6968	1.13795	0
0.3247	0.919923	-6.59056	-1.42829	-79.6813	-1.84567	5.55167	-10.3056	13.616	4.19205	0
0.3253	-1.83985	-1.70648	3.45487	-50.9967	-1.84567	13.4826	-8.79528	3.23585	4.49305	-0.319972
0.3260	-3.67969	2.86656	-1.73262	20.7232	-1.22213	15.9086	-6.94738	-1.03876	0.220248	-0.319972
0.3267	-2.75977	1.95867	4.37133	82.9774	-1.52143	10.7301	-6.94738	6.29235	-2.52551	-0.319972
0.3273	-0.919923	2.56393	20.2416	106.169	-0.623537	8.58409	-6.94738	16.665	0.220248	-0.319972
0.3280	-2.44255	9.58321	23.5962	55.2056	1.22213	11.3366	-5.73914	28.8686	1.13795	0
0.3287	-4.59961	18.7377	19.6295	-41.2267	1.82073	14.0891	-0.248755	31.6187	0.528595	0
0.3293	-3.96518	25.4543	13.2212	-84.2621	1.22213	14.369	2.80738	13.0032	-0.0807575	-0.319972
0.3300	1.52263	12.9373	5.28779	-67.173	0.922835	13.156	4.03339	-0.11957	-0.69011	-0.319972
0.3307	5.77331	-14.8288	1.32108	-70.2156	1.22213	4.94518	6.46764	9.95417	1.43895	0
0.3313	4.56789	-21.5454	1.32108	-94.9448	1.82073	1.25962	3.73133	12.6968	5.10241	0
0.3320	3.64797	-7.80948	0.404625	-20.1654	2.44426	11.9431	1.58137	4.15504	1.43895	0.319972
0.3327	1.20542	-3.23643	-3.56208	151.942	0.598595	15.3021	4.63751	5.37316	-11.3721	0
0.3333	0	-3.53906	-2.03696	212.371	-0.623537	8.91066	8.59983	13.0032	-18.699	-0.639944
0.3340	0.919923	-0.184939	2.23408	136.391	-0.623537	7.04455	8.29777	17.5767	-14.4262	-0.319972
0.3347	-1.83985	1.34501	-2.64908	106.169	-0.922835	8.58409	-0.550815	8.72858	-9.54407	0
0.3353	-3.96518	0.126095	-8.74957	132.115	-1.84567	10.7301	-9.09734	-9.27411	-8.01702	-0.319972
0.3360	-4.59961	-3.23643	-9.66603	111.662	-3.3671	7.65103	-13.0597	-15.9924	-7.40767	-0.639944
0.3367	-2.75977	-0.184939	-14.5492	58.2651	-2.74356	-4.85188	-15.8137	-8.3624	-4.66191	-0.319972
0.3373	-0.919923	10.4995	-23.3991	33.5358	-1.22213	-18.5678	-20.0781	-1.95048	-0.389104	0
0.3380	-1.83985	15.9888	-26.145	21.9403	-2.44426	-20.9937	-18.55	-1.95048	0.528595	0
0.3387	-0.317215	15.0809	-17.6029	-7.0486	-3.3671	-20.7138	2.50532	2.01774	-3.74421	-0.319972
0.3393	-1.23714	14.4673	-8.74957	-31.1525	-4.26499	-33.5433	29.0511	8.72858	-9.85242	0
0.3400	-1.52263	9.58321	-2.95341	-31.4567	-6.11066	-51.8311	40.9558	12.084	-10.7628	0
0.3407	3.33075	-5.06061	4.97999	-15.6016	-5.18783	-67.693	42.1818	13.3096	-5.27126	0
0.3413	3.64797	-17.8803	6.81291	23.7658	-3.3671	-71.6585	39.7298	9.64777	-1.60781	0
0.3420	0	-12.6936	3.15054	74.7456	-2.14497	-56.4031	26.6168	5.67955	-2.52551	0
0.3427	-1.83985	-2.00911	-0.511833	81.4561	0	-30.4642	6.7697	4.45397	-5.27126	0.319972
0.3433	0	1.95867	0.404625	49.4078	4.56429	6.76463	-6.64532	-0.732364	-6.48997	-0.319972
0.3440	3.33075	2.2613	7.72937	31.1017	9.15352	38.4884	-13.6638	-8.3624	-3.44321	-0.959916
0.3447	2.44255	-4.45535	8.0337	20.419	7.93139	37.882	-15.4939	-7.13681	0.528595	0
0.3453	0	-8.72576	1.62541	1.80863	4.88853	25.659	-8.17339	1.09855	1.7473	0.319972
0.3460	-0.634429	-1.70648	-2.03696	-13.4549	2.14497	21.087	-3.60695	4.45397	2.35665	-0.319972
0.3467	1.80812	5.01017	-3.25775	-18.3399	0.922835	18.3345	-5.43708	2.01774	3.27435	-0.319972
0.3473	3.96518	6.53171	-6.31145	-18.0356	2.44426	12.2696	-8.79528	-1.64408	5.71176	0
0.3480	3.96518	1.95867	-7.83658	-18.0356	3.04286	4.01213	-10.0035	-4.08778	6.62946	-0.319972
0.3487	3.33075	-5.9769	0.708958	-14.3677	3.34216	-0.8864	-3.60695	-3.78139	5.10241	0
0.3493	-1.52263	-10.2557	8.33803	-14.9762	2.74356	-1.7728	4.33545	-1.64408	1.13795	0
0.3500	-3.07698	-7.20422	7.42158	-6.44009	1.52143	-0.8864	6.7697	0.186827	-0.389104	-0.319972
0.3507	0.602708	-0.184939	6.81291	28.955	2.14497	8.30417	4.33545	-0.732364	2.05565	0
0.3513	0.285493	1.95867	5.28779	32.623	2.74356	25.0525	0.071073	-3.78139	0.8296	0
0.3520	-2.75977	-0.790195	1.32108	-2.46786	1.82073	28.738	-2.07888	-6.53149	-2.52551	0
0.3527	-6.12224	-4.45535	-0.816166	-4.91881	0	14.0891	-0.248755	-9.27411	-4.66191	0
0.3533	-4.59961	-5.67427	0.100292	15.534	0.922835	3.68556	5.56146	-6.22509	-5.88061	0
0.3540	0.285493	-4.15272	1.62541	14.3169	3.6664	7.65103	9.22172	4.45397	-3.74421	0
0.3547	2.44255	-2.32015	1.92975	3.02566	3.6664	4.94518	6.16558	6.89767	-1.91616	-0.319972
0.3553	1.52263	-1.09282	-0.2075	-2.46786	2.44426	-13.3893	1.27931	3.54225	-0.998456	-0.319972
0.3560	0.285493	-3.53906	-3.25775	-7.35286	0.598595	-19.7807	-3.28712	3.84865	-0.69011	0
0.3567	1.80812	-7.80948	-3.25775	-9.48265	-0.299298	-8.81735	-10.0035	5.06676	0.528595	-0.319972
0.3573	2.72805	-6.89319	-1.73262	-7.35286	0	-1.16632	-14.2857	6.59127	3.27435	0
0.3580	0.602708	-4.45535	-3.86987	-9.17839	-0.299298	0.326569	-13.3617	6.59127	3.8837	0
0.3587	0.285493	-3.84169	-6.31145	-14.3677	-0.922835	-0.8864	-12.1357	2.62306	3.27435	-0.319972
0.3593	0	-2.32015	-5.69933	-19.5569	-2.14497	-2.37929	-13.0597	-6.22509	1.7473	0
0.3600	0.602708	3.78285	-7.83658	-29.3269	-3.04286	-3.63891	-12.4555	-11.4114	1.43895	0
0.3607	3.33075	8.66692	-11.1912	-30.2397	-2.14497	-7.27781	-10.0035	-3.78139	3.8837	-0.319972
0.3613	3.64797	5.91805	-3.86987	-1.55509	-1.22213	-9.42384	-8.17339	4.45397	3.8837	0
0.3620	2.12534	1.95867	4.067	21.636	-0.623537	-7.8843	-4.21107	3.84865	1.43895	0
0.3627	0.919923	0.126095	-0.2075	10.3447	-1.52143	-6.34476	1.27931	0.186827	-0.998456	0
0.3633	2.44255	-5.9769	3.15054	-4.3103	-1.22213	-3.03242	5.86352	-1.03876	-1.3068	0
0.3640	3.33075	-12.0799	22.6832	-8.56988	1.22213	3.68556	12.5799	-0.732364	0.528595	-0.319972
0.3647	1.80812	-10.2557	23.5962	-11.9336	1.82073	3.68556	13.4861	-6.22509	1.7473	0
0.3653	-1.23714	-2.9254	0.404625	-12.5421	1.22213	4.01213	7.08953	-14.4604	1.43895	0
0.3660	-4.59961	2.56393	-10.5825	-11.0208	0	12.8761	-0.550815	-12.3306	0.8296	0
0.3667	-2.75977	7.75063	-4.47854	-14.0634	-1.22213	13.4826	-3.90901	9.34137	0.8296	-0.319972
0.3673	0.602708	8.66692	-1.1205	-22.6164	-0.922835	5.55167	-0.248755	37.1114	0.528595	0
0.3680	2.12534	6.83434	-3.86987	-22.3121	-0.299298	3.40564	5.86352	42.9105	-0.389104	0
0.3687	2.12534	10.4995	-4.47854	-14.3677	0	7.65103	7.69365	19.4076	-0.998456	-0.319972
0.3693	-1.52263	12.0295	-2.03696	-16.8186	-0.922835	19.874	2.80738	-14.1615	-3.13486	-0.319972
0.3700	-2.44255	10.1969	-2.95341	-18.6441	-1.22213	29.3445	0.977253	-27.2843	-4.66191	-0.319972
0.3707	1.52263	11.7184	-8.74957	-2.46786	0.598595	25.659	5.56146	-22.7033	-3.74421	0
0.3713	4.25068	9.88584	-8.74957	3.63417	1.52143	12.2696	5.2594	-15.0732	-1.3068	0
0.3720	1.80812	3.78285	4.067	-14.9762	1.22213	-3.63891	0.071073	-2.56327	2.05565	0.319972
0.3727	-3.67969	-4.15272	13.5255	-17.1229	-1.22213	-11.5699	-6.94738	0.186827	2.35665	0
0.3733	-3.07698	-13.9125	14.7463	5.76396	-2.44426	-1.7728	-12.4555	-2.56327	1.13795	-0.639944
0.3740	2.72805	-17.8803	14.442	16.1425	0	24.1661	-10.6254	-2.56327	2.665	-0.959916
0.3747	5.1706	-9.64205	3.76266	3.63417	2.44426	45.533	-5.73914	-20.566	4.8014	-0.319972
0.3753	2.44255	5.3128	-12.7197	-4.91881	1.82073	47.3524	-2.98506	-35.5196	4.49305	0.319972
0.3760	-3.96518	13.2484	-17.2951	-0.338062	0	41.2409	-3.90901	-23.3161	0.528595	0
0.3767	-5.51954	7.448	-11.4989	0.878962	-0.922835	36.669	-4.51313	-4.70058	-0.998456	0
0.3773	-1.52263	-8.42314	-3.56208	-0.338062	-1.22213	29.018	-3.28712	26.126	2.35665	0
0.3780	-2.15706	-13.9125	9.55882	1.18322	0	23.5596	-3.60695	51.1459	4.8014	0
0.3787	-4.59961	-7.80948	18.4087	3.32991	6.11066	23.5596	-3.60695	43.8222	4.49305	0
0.3793	-2.75977	-12.6936	8.95016	4.8512	10.0764	16.2351	-5.11725	23.6822	1.7473	0
0.3800	2.44255	-16.0477	-6.31145	-7.96137	10.3757	-2.70585	-7.56927	3.23585	-0.389104	0
0.3807	4.88511	-4.15272	-14.8535	-27.8056	10.675	-17.6814	-3.28712	-14.1615	0.8296	0
0.3813	0.602708	2.56393	-12.4119	-19.8612	10.675	-24.0728	4.03339	-16.2914	0.528595	0
0.3820	-4.2824	0.428723	3.15054	-3.68488	7.33279	-28.0382	4.63751	-8.66132	-2.21716	-0.319972
0.3827	-6.72495	2.86656	12.9169	-7.96137	-0.299298	-31.0707	-2.38094	-11.4114	-3.74421	-0.319972
0.3833	-6.40774	8.66692	10.1709	-11.0208	-6.70926	-29.8577	-8.17339	-4.70058	-1.60781	-0.319972
0.3840	-4.59961	15.0809	9.86316	-5.22306	-7.33279	-27.7117	-5.11725	25.2068	2.05565	0
0.3847	-4.2824	19.654	13.8333	-2.1636	-6.40996	-25.8922	1.58137	25.2068	2.35665	0
0.3853	-1.83985	15.3836	11.3917	-2.77211	-6.40996	-21.3203	5.2594	-8.3624	0.528595	0
0.3860	-0.919923	2.56393	-2.34129	-5.22306	-7.63209	-18.5678	4.93957	-15.3796	-2.52551	0
0.3867	1.20542	-9.02839	-17.9072	-5.22306	-7.33279	-18.5678	3.42927	8.72858	-1.91616	0
0.3873	5.1706	-15.4424	-25.5363	-2.1636	-5.81136	-19.7807	1.27931	27.0377	1.13795	0
0.3880	3.96518	-20.6291	-19.4324	-4.61455	-7.63209	-22.8598	-0.852875	25.2068	1.43895	-0.319972
0.3887	0.919923	-16.964	-12.1076	-12.2379	-10.675	-24.6793	2.80738	13.0032	0.220248	-0.319972
0.3893	-1.83985	-4.15272	-15.1613	-32.0652	-10.3757	-24.0728	7.39159	-12.9359	-0.69011	-0.319972
0.3900	-2.44255	2.56393	-7.83658	-59.2285	-5.81136	-25.6123	8.29777	-44.0689	-0.0807575	0
0.3907	-0.634429	1.34501	5.28779	-76.3176	-2.14497	-25.0058	6.7697	-59.3215	3.57536	0
0.3913	0	1.34501	3.76266	-92.1896	-1.84567	-17.9613	3.42927	-64.8142	6.62946	-0.319972
0.3920	-0.634429	1.34501	-5.69933	-112.338	-1.84567	-10.9634	3.10944	-64.5153	7.84816	0
0.3927	-3.67969	-3.53906	-11.1912	-131.253	-3.04286	-6.06484	2.80738	-47.4243	6.32845	0
0.3933	-2.15706	-3.84169	-1.42829	-134.616	-3.04286	-1.49288	0.373133	-10.1933	6.9378	-0.319972
0.3940	3.33075	2.86656	11.3917	-132.165	-2.14497	2.47259	0.675193	23.3759	7.23881	-0.319972
0.3947	3.04526	2.2613	5.28779	-155.661	-3.96569	0.326569	0.977253	35.5869	5.10241	-0.319972
0.3953	-1.52263	-4.45535	-4.78287	-178.565	-5.81136	-6.67133	-0.550815	50.5406	6.62946	-0.319972
0.3960	-4.2824	-8.72576	-6.61578	-175.809	-7.0335	-8.49078	-5.11725	61.8324	7.54716	-0.319972
0.3967	0.602708	-5.9769	-8.44524	-140.11	-6.40996	-3.03242	-9.09734	47.1851	4.49305	-0.319972
0.3973	6.09052	-3.84169	-6.61578	-43.9819	-3.04286	0.326569	-8.47545	36.1922	1.7473	0
0.3980	3.64797	-1.40386	-2.03696	106.777	-1.84567	0.653137	-4.21107	34.9741	-3.44321	0
0.3987	-0.317215	6.83434	3.45487	226.722	-2.74356	1.86611	1.27931	13.616	-9.54407	0
0.3993	-4.59961	6.22909	12.9169	222.749	-4.26499	0.653137	0.977253	-15.3796	-13.2075	0
0.4000	-5.80503	-1.09282	15.6628	140.955	-2.14497	-2.09937	-0.248755	-24.2278	-13.2075	0
0.4007	-2.44255	-0.487567	9.55882	78.7009	2.14497	-2.37929	-0.550815	-26.6715	-7.71601	0
0.4013	-1.23714	5.01017	9.25449	68.0182	2.44426	0.326569	-0.550815	-36.7378	-3.44321	-0.319972
0.4020	-3.36248	6.22909	10.4753	114.721	0.922835	-1.16632	2.80738	-33.6887	-7.09932	-0.319972
0.4027	-6.12224	2.56393	4.37133	144.015	-0.922835	-10.3569	4.03339	-17.8233	-14.4262	-0.319972
0.4033	-7.04217	2.56393	-1.42829	97.9367	-1.84567	-13.9958	-0.550815	-4.39418	-13.5085	-0.959916
0.4040	-5.80503	5.01017	-1.73262	68.9478	-0.922835	-7.8843	-6.94738	4.76036	-6.48997	-0.959916
0.4047	-1.52263	1.64764	-2.03696	87.5582	-0.922835	-7.8843	-10.6254	12.084	-4.05256	0
0.4053	2.44255	-2.9254	-0.511833	70.4691	-0.623537	-12.7828	-5.73914	14.2213	-2.82651	0
0.4060	2.44255	0.126095	1.92975	22.853	2.14497	-9.42384	-3.60695	3.23585	1.7473	0
0.4067	3.64797	7.14538	2.23408	20.1147	4.56429	-9.70375	-6.0412	-4.08778	5.41075	0
0.4073	5.48781	8.06166	2.54187	39.3336	5.78642	-5.73828	-5.43708	0.186827	7.23881	0
0.4080	1.52263	7.14538	-0.511833	12.4745	5.78642	14.0891	-6.0412	-4.39418	8.15651	0
0.4087	-4.2824	9.28058	-1.1205	-21.0782	5.78642	22.6265	-5.11725	-15.9924	6.62946	0
0.4093	-6.12224	9.58321	1.62541	-51.9095	3.34216	12.8761	-4.51313	-22.3969	3.8837	0
0.4100	-1.83985	6.83434	2.54187	-121.178	0.299298	2.79916	-2.07888	-16.2914	4.8014	0
0.4107	1.52263	5.91805	1.32108	-156.286	0.598595	-2.09937	9.52378	-0.11957	9.37521	0
0.4113	-2.75977	8.36429	-2.95341	-123.629	1.52143	-4.85188	14.41	1.40494	9.37521	0
0.4120	-5.80503	7.75063	-6.00366	-93.7109	1.82073	-4.24539	10.1279	-5.91869	5.10241	0
0.4127	-3.67969	1.34501	-4.47854	-84.8706	1.22213	-2.09937	4.63751	-2.25688	-0.389104	0.319972
0.4133	2.12534	-3.53906	1.01329	-73.5793	0.299298	-4.52531	0.675193	1.09855	-4.35356	0
0.4140	4.25068	-1.70648	4.97999	-42.4437	0.299298	-9.70375	-0.550815	0.792148	-6.48997	-0.959916
0.4147	0	0.126095	4.37133	19.5062	0.598595	-9.70375	-2.07888	6.89767	-11.0711	-0.319972
0.4153	-0.634429	-2.32015	8.33803	68.3224	1.22213	-3.91882	-2.07888	13.9149	-15.6449	0.319972
0.4160	-0.634429	-3.53906	8.95016	42.6973	-0.299298	1.86611	-2.38094	10.8659	-13.5085	0
0.4167	-3.07698	-0.487567	-2.03696	4.8512	0.922835	7.04455	-2.683	3.54225	-8.01702	0
0.4173	-4.59961	1.95867	-11.1912	72.9032	3.34216	11.3366	-0.852875	1.40494	-6.18896	0
0.4180	-7.04217	1.64764	-13.6327	176.671	2.44426	16.8416	-1.15494	6.59127	-7.71601	-0.319972
0.4187	-6.40774	3.17759	-13.3284	182.773	1.52143	23.8395	-1.15494	11.4787	-7.09932	0
0.4193	-3.96518	7.14538	-11.4989	112.271	0.922835	21.087	-1.457	9.64777	-5.27126	0
0.4200	0.285493	10.4995	-5.69933	50.6248	0	13.156	-1.75906	3.54225	-1.60781	0
0.4207	7.01045	8.66692	-3.56208	54.2928	0.922835	7.04455	-0.852875	-4.70058	1.7473	0
0.4213	7.01045	3.17759	-8.14091	90.2965	2.14497	5.83158	-0.852875	-12.9359	0.528595	-0.319972
0.4220	2.12534	1.04238	-7.83658	87.2539	2.14497	11.01	1.58137	-12.3306	-2.21716	0
0.4227	0	1.64764	-5.39499	56.1184	0	12.5496	0.373133	-7.44321	-3.13486	0.319972
0.4233	2.12534	0.428723	-3.86987	35.9867	-0.922835	9.79706	-2.683	-1.64408	-2.82651	0
0.4240	4.88511	0.428723	-0.511833	29.2593	0.299298	6.43807	-3.90901	6.59127	-0.69011	-0.319972
0.4247	3.04526	-5.06061	1.32108	24.6955	0.598595	0.0466527	-6.34326	13.0032	1.43895	0
0.4253	1.20542	-17.275	1.92975	18.5934	0.922835	-1.16632	-3.28712	14.5277	1.13795	0
0.4260	-0.317215	-18.7965	-0.816166	12.1702	0.299298	4.01213	0.675193	9.03498	-0.389104	0
0.4267	-0.919923	-8.72576	-5.09066	7.6064	-1.22213	4.94518	-3.28712	5.37316	-0.69011	0
0.4273	-3.07698	1.04238	-12.4119	6.99789	-3.04286	-1.7728	-12.1357	6.59127	0.528595	0
0.4280	-4.59961	8.66692	-18.8237	7.30215	-2.74356	-5.13179	-14.5877	0.792148	1.43895	0.319972
0.4287	1.80812	9.58321	-9.97036	5.76396	-0.922835	-3.63891	-9.70146	-7.13681	1.43895	0
0.4293	3.33075	1.04238	5.28779	-1.25083	-2.74356	-1.7728	-8.79528	-3.78139	-0.69011	0
0.4300	0.602708	-4.75798	12.3047	-7.96137	-3.96569	0.653137	-6.64532	2.62306	-1.60781	0
0.4307	-0.919923	-0.184939	5.59212	-10.1081	-3.3671	0.979706	1.58137	3.54225	0.220248	0
0.4313	-1.52263	-1.40386	-2.03696	-11.6293	-3.3671	1.25962	11.958	0.186827	1.43895	0
0.4320	0.919923	-9.64205	0.708958	-11.9336	-2.44426	3.68556	24.7867	-4.39418	1.43895	0
0.4327	0	-9.02839	4.67566	-17.1229	-2.14497	-0.8864	31.8051	-1.03876	-0.69011	-0.319972
0.4333	-1.52263	-3.53906	3.45487	-23.2249	-2.44426	-1.49288	30.2771	5.37316	-1.91616	-0.959916
0.4340	0.285493	-0.184939	0.708958	-15.2804	-0.623537	17.4481	24.7867	5.98595	0.220248	-0.959916
0.4347	1.20542	0.73135	2.54187	-4.3103	0.299298	31.4905	22.0326	12.084	0.8296	-0.319972
0.4353	2.12534	-2.32015	8.33803	-2.1636	-1.22213	29.018	18.6744	24.9078	-0.0807575	0
0.4360	2.12534	-6.28793	12.6125	-3.07637	-1.22213	25.9855	12.2779	22.1577	-1.3068	0
0.4367	1.80812	-6.28793	13.2212	6.37248	-0.922835	13.4826	5.56146	4.76036	-0.998456	-0.319972
0.4373	0	-1.70648	8.33803	24.9997	-1.84567	-0.279916	-0.248755	-11.7178	2.35665	0
0.4380	-3.36248	1.95867	3.76266	32.9273	0.299298	2.19267	-2.38094	-23.0097	5.41075	0
0.4387	-5.51954	2.2613	-2.34129	20.7232	2.74356	0.653137	-3.60695	-22.0905	6.62946	0
0.4393	-5.51954	-0.487567	-10.2782	6.37248	2.44426	-10.3569	-10.0035	-14.7668	3.27435	0
0.4400	1.20542	-2.00911	-14.2449	5.15545	1.52143	-18.5678	-18.8521	-8.96772	0.528595	0
0.4407	9.13578	-1.09282	-15.1613	-6.13583	0.922835	-20.9937	-21.0021	4.15504	2.966	0
0.4413	9.453	1.95867	-7.83658	-51.301	2.44426	-17.0282	-14.2857	18.1895	2.35665	0
0.4420	1.80812	8.97795	2.23408	-117.527	3.04286	-8.81735	-3.90901	22.4641	-0.389104	0
0.4427	-7.04217	12.9373	0.708958	-127.585	0.922835	-2.37929	2.20326	21.2385	-0.998456	0
0.4433	-4.59961	12.9373	0.404625	-28.4141	0.299298	-0.559832	1.9012	11.7851	-4.35356	0
0.4440	4.88511	15.9888	10.1709	53.6843	1.52143	0.326569	-1.15494	-3.47499	-6.18896	-0.319972
0.4447	6.69323	15.3836	20.8503	35.074	1.22213	1.86611	-3.28712	-12.9359	-2.52551	0
0.4453	4.56789	8.66692	26.3456	1.80863	0.598595	1.25962	-5.43708	-15.3796	-0.0807575	0
0.4460	1.80812	-2.32015	26.6499	-5.22306	-0.623537	0.0466527	-7.26721	0.186827	-2.21716	0
0.4467	-2.44255	-10.861	28.7837	-9.48265	-0.623537	-2.09937	-5.11725	17.2778	-3.13486	-0.319972
0.4473	-7.04217	-4.15272	19.0208	-14.9762	-0.299298	-4.24539	0.675193	-5.3059	-0.998456	-0.319972
0.4480	-5.20232	6.22909	-12.7197	-16.8186	-2.74356	-4.85188	1.9012	-42.8433	0.220248	0
0.4487	0.285493	5.3128	-35.607	-18.6441	-3.6664	-1.16632	-0.248755	-49.5616	0.8296	0
0.4493	0.919923	-1.40386	-38.6572	-25.6589	-2.74356	5.83158	-4.81519	-33.3823	1.13795	0
0.4500	2.12534	-7.80948	-36.5234	-28.1099	-2.44426	8.30417	-10.0035	-14.4604	1.13795	0
0.4507	2.12534	-6.28793	-33.1654	-24.4419	-1.22213	4.94518	-9.70146	2.92945	2.05565	-0.319972
0.4513	-0.919923	-4.15272	-17.9072	-22.3121	-0.623537	3.68556	-6.94738	8.42218	1.7473	-0.319972
0.4520	-0.634429	-7.20422	3.45487	-19.8612	-1.84567	3.40564	-5.43708	3.23585	0.8296	0
0.4527	-1.52263	-9.33943	9.25449	-26.5717	-4.26499	3.40564	-6.0412	-0.11957	-1.3068	0.319972
0.4533	-0.317215	-12.6936	15.6628	-26.8929	-6.11066	2.47259	-9.09734	-1.64408	-0.69011	0
0.4540	3.04526	-12.0799	24.817	2.11289	-5.48712	2.19267	-10.9275	-5.6123	2.05565	0
0.4547	2.12534	-2.32015	17.4922	24.0869	-3.96569	0.0466527	-11.5316	-13.2423	1.13795	0
0.4553	0.285493	5.61542	7.42158	16.4467	-3.04286	-7.27781	-7.26721	-17.2105	-1.60781	0
0.4560	0	8.66692	1.32108	3.02566	-2.74356	-7.8843	1.9012	-18.4287	-3.74421	0
0.4567	1.80812	9.88584	-6.92012	-4.91881	-1.84567	-10.3569	11.3539	-20.566	-2.21716	0
0.4573	-0.317215	11.1132	-11.8033	-7.96137	0	-17.0282	22.6545	-17.5169	1.7473	0
0.4580	-3.67969	6.53171	-6.00366	-8.26563	2.74356	-2.37929	29.673	-10.4997	2.665	-0.319972
0.4587	-3.36248	-9.02839	-0.816166	-8.87414	5.18783	18.3345	25.6929	1.09855	1.7473	-0.319972
0.4593	-4.88511	-16.6613	-3.86987	-11.6293	2.74356	10.1236	12.882	8.42218	-0.69011	-0.319972
0.4600	-4.59961	-7.80948	-4.78287	-13.4549	1.52143	-8.21087	0.977253	4.76036	-0.389104	-0.319972
0.4607	-3.07698	0.428723	-2.95341	-13.7591	2.74356	-11.2433	-6.34326	10.2531	3.27435	-0.319972
0.4613	-4.2824	5.91805	2.54187	-12.8464	2.14497	-7.60438	-11.5316	24.9078	4.49305	0
0.4620	-2.15706	8.06166	11.0839	-19.2527	1.82073	-3.91882	-7.56927	30.0942	3.57536	0
0.4627	-2.15706	-2.9254	9.55882	-34.2119	1.82073	-0.8864	0.675193	20.0204	1.7473	-0.319972
0.4633	-1.83985	-16.3587	3.76266	-14.9762	2.44426	-3.31234	5.2594	-1.95048	0.8296	-1.27989
0.4640	2.72805	-14.8288	3.15054	25.304	4.26499	-12.1763	11.0518	-33.3823	0.8296	-0.959916
0.4647	5.1706	-6.89319	-2.03696	16.4467	3.6664	-19.7807	12.2779	-54.1351	1.13795	0
0.4653	3.96518	-4.15272	-6.31145	-20.4697	0.922835	-16.4217	6.7697	-39.1815	2.966	0
0.4660	-0.634429	-0.184939	-3.86987	-31.1525	-0.922835	-7.60438	0.977253	-1.03876	2.966	0
0.4667	-1.83985	7.448	-0.2075	-21.7036	0.299298	-4.85188	0.373133	33.756	2.35665	0
0.4673	-0.317215	12.6347	0.100292	-17.1229	2.14497	-3.03242	1.27931	51.1459	1.7473	0
0.4680	-0.919923	13.8536	-4.1742	-12.8464	2.74356	6.43807	-1.457	44.435	0.528595	0
0.4687	-0.634429	9.58321	-6.31145	-16.2101	4.56429	16.515	-5.43708	33.756	-0.69011	0
0.4693	0.285493	-5.9769	-1.42829	-38.4884	4.26499	13.156	-7.87133	34.6677	-2.21716	-0.319972
0.4700	2.72805	-16.964	10.1709	-43.9819	3.6664	1.58619	-6.94738	33.4496	-0.0807575	-0.319972
0.4707	5.1706	-12.0799	13.8333	-35.4289	3.96569	-3.63891	-7.87133	17.2778	4.8014	-0.319972
0.4713	1.52263	-4.75798	2.84621	-46.1117	1.52143	-4.52531	-13.6638	-12.6295	8.15651	-0.319972
0.4720	-2.15706	1.34501	-5.69933	-65.3306	-0.299298	-3.63891	-12.4555	-37.6569	8.46486	0
0.4727	-3.36248	3.48022	-10.5825	-83.9578	-1.22213	-0.8864	-8.79528	-42.5369	7.54716	0
0.4733	-3.67969	0.126095	-15.1613	-93.7109	-3.04286	-1.16632	-10.9275	-23.3161	7.23881	0
0.4740	-1.52263	-0.790195	-15.4657	-94.9448	-4.26499	-3.63891	-10.3056	5.06676	8.15651	0
0.4747	0.602708	2.86656	-11.8033	-96.7704	-4.58923	-4.52531	-8.47545	11.1723	7.84816	0
0.4753	0.919923	0.73135	-3.25775	-88.8428	-3.96569	-4.85188	-6.94738	-3.47499	3.8837	0
0.4760	-0.317215	-9.94468	6.50858	-84.2621	-4.88853	-5.73828	-3.28712	-15.686	-1.60781	0
0.4767	1.80812	-11.4746	10.1709	-76.0133	-4.88853	-4.85188	1.9012	-21.7841	-3.74421	-0.319972
0.4773	3.96518	-2.62277	8.0337	-3.38062	-3.04286	-0.8864	4.33545	-25.147	-5.57961	-0.319972
0.4780	1.52263	3.17759	6.20079	106.473	-1.84567	3.07908	10.1279	-26.3651	-11.6805	0
0.4787	1.52263	4.69914	7.72937	151.029	-2.44426	7.37112	17.7682	-19.9532	-13.8169	0
0.4793	3.04526	5.01017	6.50858	112.271	-4.88853	6.43807	12.2779	2.92945	-8.93472	-0.319972
0.4800	2.72805	8.06166	1.01329	61.9161	-5.18783	6.15815	4.63751	27.6505	-2.52551	-0.319972
0.4807	1.80812	18.7377	-9.66603	35.9867	-2.44426	16.8416	4.63751	24.295	3.27435	-0.319972
0.4813	1.80812	28.5058	-21.5696	29.2593	-1.52143	24.446	5.86352	-0.11957	5.71176	-0.319972
0.4820	3.33075	22.1002	-20.041	45.4356	-1.52143	18.3345	9.52378	-15.9924	2.35665	-0.319972
0.4827	-0.317215	12.6347	-6.00366	56.1184	-1.22213	5.2251	11.3539	-5.6123	-2.52551	-0.319972
0.4833	-4.88511	12.3321	2.84621	48.4951	0.598595	-9.09727	11.656	29.7878	-3.13486	0
0.4840	-4.2824	-1.09282	11.0839	32.9273	2.44426	-22.5332	14.108	59.3887	-1.91616	0
0.4847	-2.15706	-20.9317	22.0711	-9.17839	2.74356	-26.4987	11.0518	65.8006	-2.21716	0
0.4853	0	-20.9317	9.25449	-46.7202	2.44426	-20.9937	4.93957	56.3397	-1.3068	-0.319972
0.4860	0.285493	-22.1507	-0.511833	-35.4289	2.74356	-12.4563	2.20326	27.9569	-0.998456	-0.319972
0.4867	1.80812	-26.1185	18.1044	11.2575	5.78642	-2.37929	1.9012	-8.66132	-2.21716	0
0.4873	2.72805	-13.3072	15.9671	62.5246	8.52998	5.55167	-3.90901	-43.4561	-3.44321	0
0.4880	1.80812	-4.75798	-6.92012	93.3559	7.33279	13.7625	-12.1357	-67.2579	-2.52551	-0.319972
0.4887	1.80812	-2.62277	-9.97036	81.7604	4.88853	22.9531	-13.6638	-68.1771	0.528595	0
0.4893	-1.23714	1.34501	-6.00366	38.7251	2.44426	23.233	-14.5877	-54.4415	0.8296	0
0.4900	0.285493	-4.45535	-5.09066	9.7362	1.22213	14.9755	-14.5877	-25.7523	0.8296	0
0.4907	2.72805	-12.0799	-5.39499	-9.48265	0.598595	3.68556	-12.7576	3.54225	2.966	0
0.4913	-0.919923	-14.2235	-7.53224	-46.1117	-1.22213	-5.13179	-11.8336	6.29235	2.665	0
0.4920	-1.23714	-15.4424	3.76266	-53.1265	-0.299298	-6.67133	-5.73914	-6.53149	0.8296	0
0.4927	0.919923	-12.0799	11.0839	8.82343	0.598595	-4.52531	-2.683	-17.2105	-3.13486	0
0.4933	0.919923	-10.2557	-4.1742	46.6695	1.52143	-3.91882	-2.98506	-10.1933	-8.01702	-0.639944
0.4940	-0.634429	-8.72576	-13.9405	-14.3677	2.44426	-2.09937	-0.248755	7.51046	-8.62637	-0.959916
0.4947	-2.15706	1.34501	-7.53224	-82.4196	0	4.61861	-0.852875	4.76036	-6.48997	-0.319972
0.4953	0.602708	5.3128	-0.2075	-105.323	-0.922835	16.2351	-1.457	-12.3306	-4.35356	0
0.4960	4.88511	-0.184939	1.32108	-126.672	-0.623537	23.5596	-1.75906	-12.0242	-1.3068	0
0.4967	7.32766	-1.40386	1.01329	-83.3493	-1.22213	18.0546	-2.38094	7.20407	0.220248	0
0.4973	3.96518	0.126095	-3.56208	63.1501	-0.299298	8.58409	0.675193	31.9251	-2.82651	0
0.4980	-3.67969	7.14538	-13.0241	178.497	-0.299298	3.68556	2.50532	44.7414	-4.66191	-0.319972
0.4987	-5.80503	15.9888	-16.9908	211.154	-0.623537	4.61861	4.93957	35.2805	-4.66191	-0.319972
0.4993	-7.64488	15.6862	-16.6864	195.89	0.598595	5.55167	7.39159	16.3586	-6.18896	-0.319972
0.5000	-7.32766	8.97795	-9.97036	135.462	0.922835	-2.70585	3.10944	-0.11957	-4.66191	0
0.5007	-0.919923	2.56393	3.45487	84.803	0	-12.4563	-2.98506	-2.25688	-0.69011	0
0.5013	5.1706	-0.790195	0.100292	65.2799	-0.922835	-17.3548	-5.73914	13.616	1.7473	-0.319972
0.5020	8.21586	-6.28793	-6.31145	30.4932	-1.52143	-16.1418	-4.51313	22.1577	1.13795	0
0.5027	7.93037	-10.2557	13.8333	-10.1081	-2.14497	-7.8843	-5.43708	5.98595	-1.60781	0
0.5033	8.21586	-4.45535	32.446	-4.3103	-0.623537	2.79916	-7.26721	-16.2914	-1.60781	-0.319972
0.5040	3.64797	-0.184939	21.1546	26.8253	-0.299298	9.79706	-7.87133	-18.1223	0.8296	0
0.5047	-6.40774	-0.184939	7.42158	-5.52732	-1.22213	10.7301	-7.87133	-11.7178	1.43895	0
0.5053	-5.80503	2.86656	7.42158	-64.4178	0.299298	11.9431	-1.457	-7.7496	-0.998456	-0.319972
0.5060	1.80812	2.2613	7.72937	-45.1989	0	13.7625	4.93957	0.493224	-4.05256	-0.639944
0.5067	6.09052	-5.9769	14.7463	-17.1229	-0.623537	8.91066	5.86352	-7.7496	-4.05256	0
0.5073	7.93037	-9.02839	19.3251	-36.9502	1.52143	2.47259	7.99571	-24.2278	0.528595	0
0.5080	2.72805	0.126095	3.76266	-52.2137	2.74356	0.326569	9.82584	-28.8088	3.8837	-0.319972
0.5087	-7.64488	15.3836	-6.00366	-63.8093	0.598595	-0.279916	7.99571	-40.706	4.49305	-0.319972
0.5093	-13.1327	29.4221	1.01329	-77.2473	-2.44426	-1.7728	8.29777	-43.1497	5.10241	0
0.5100	-9.16751	32.7763	3.15054	-72.058	-3.04286	2.19267	9.22172	-1.33768	6.32845	0
0.5107	-6.12224	26.0596	2.54187	-66.8687	-2.44426	15.3021	7.69365	47.7905	7.84816	-0.319972
0.5113	-8.5648	18.1324	4.67566	-55.8817	-2.14497	28.4115	6.7697	66.0996	7.23881	-0.319972
0.5120	-10.0874	9.88584	1.92975	-38.1842	-3.3671	33.9165	5.56146	65.4942	4.19205	0
0.5127	-11.0074	-2.9254	-6.92012	-24.1377	-4.58923	31.7705	0.977253	54.5088	0.528595	0
0.5133	-9.48472	-16.6613	-14.8535	16.4467	-3.96569	26.9186	-2.98506	40.7732	-1.3068	-0.319972
0.5140	-5.51954	-23.6806	-17.6029	36.291	-2.74356	24.1661	-6.94738	28.8686	-0.998456	0
0.5147	-2.15706	-24.5969	-12.1076	18.2892	-0.299298	24.1661	-9.3994	6.59127	-1.60781	-0.319972
0.5153	0.919923	-17.8803	-3.56208	18.8977	2.44426	28.1315	-6.64532	-20.2596	-2.82651	-0.319972
0.5160	0	-6.89319	-4.1742	-1.55509	1.52143	27.5251	-5.43708	-30.6397	-4.05256	0
0.5167	0.919923	0.428723	-8.44524	-13.7591	0	11.9431	-7.56927	-23.3161	-4.96292	-0.639944
0.5173	2.44255	3.78285	-11.8033	46.6695	1.22213	-10.9634	-10.9275	-7.44321	-5.27126	-0.639944
0.5180	-0.317215	3.48022	-13.0241	73.8159	3.04286	-24.0728	-9.09734	3.54225	-4.35356	0
0.5187	-0.634429	1.64764	-13.9405	24.3912	3.6664	-29.8577	-1.75906	-0.11957	-2.21716	0
0.5193	-1.52263	2.86656	-18.5159	-7.65711	1.52143	-35.0361	1.58137	-10.7986	-2.21716	-0.319972
0.5200	-0.919923	7.448	-9.3617	-3.38062	0.299298	-34.1497	1.27931	-16.5978	-1.60781	-0.319972
0.5207	0.602708	12.6347	5.28779	15.534	0.299298	-28.3182	0.071073	-20.8724	1.43895	-0.319972
0.5213	-0.919923	18.4351	4.67566	50.0163	0.299298	-17.0282	0.675193	-29.4141	2.35665	-0.319972
0.5220	-0.317215	19.9566	4.97999	53.6843	1.22213	-7.8843	2.80738	-33.6887	-0.389104	0
0.5227	-0.317215	8.97795	6.81291	32.3188	0.299298	-9.42384	2.20326	-30.6397	-5.27126	-0.319972
0.5233	-1.23714	-7.20422	1.32108	36.8995	-1.22213	-14.6023	-1.457	-33.0759	-7.09932	-1.27989
0.5240	-2.15706	-16.0477	-6.31145	35.074	-2.14497	-17.9613	-10.9275	-36.4388	-4.66191	-0.639944
0.5247	-2.75977	-15.1314	-9.97036	22.2445	-2.44426	-16.7483	-15.4939	-33.6887	-3.44321	-0.639944
0.5253	2.72805	-12.0799	-3.86987	23.4615	-1.52143	-9.42384	-11.5316	-36.4388	-3.13486	-1.27989
0.5260	5.77331	-8.42314	3.76266	14.3169	-2.14497	-6.67133	-10.6254	-25.147	-1.91616	-0.959916
0.5267	1.80812	-0.487567	11.6961	-0.642319	-3.6664	-11.5699	-13.0597	8.12326	-1.3068	0
0.5273	-0.634429	8.06166	15.9671	-2.77211	-3.04286	-13.6692	-17.9459	19.4076	0.528595	0
0.5280	1.20542	14.4673	11.3917	0.27045	-0.922835	-6.67133	-20.0781	9.95417	2.05565	-0.319972
0.5287	2.44255	19.3514	11.3917	7.30215	0.299298	4.29204	-17.324	17.5767	0.528595	0
0.5293	-0.634429	23.0081	13.2212	6.99789	-1.22213	11.9431	-15.8137	23.0769	-2.52551	0
0.5300	-2.44255	24.2354	6.81291	-1.25083	-4.26499	9.79706	-17.324	8.12326	-3.44321	0
0.5307	-1.83985	12.0295	-1.1205	-3.68488	-4.58923	2.19267	-16.1158	-4.08778	-0.998456	0
0.5313	1.20542	-9.64205	-3.25775	-3.98914	-1.52143	-1.49288	-3.60695	-8.3624	0.8296	0
0.5320	3.64797	-22.4617	-1.42829	-6.44009	-0.299298	-3.91882	10.1279	-3.47499	1.43895	0
0.5327	0.285493	-29.1699	-0.2075	-9.17839	-1.22213	-8.21087	18.0703	20.9396	-0.998456	-0.319972
0.5333	-2.75977	-23.378	-0.2075	-8.56988	-0.623537	-11.2433	25.6929	38.3295	-1.91616	-0.319972
0.5340	-3.07698	-6.28793	-0.511833	-2.77211	0.598595	-13.3893	30.8812	31.0059	-0.389104	0
0.5347	-2.44255	0.428723	-0.511833	1.80863	0	-10.9634	33.6353	27.6505	-0.998456	0
0.5353	0	-2.9254	1.01329	0.574706	-0.623537	-2.37929	31.1833	35.8933	-1.60781	-0.319972
0.5360	1.80812	-7.80948	1.62541	-3.98914	3.04286	2.79916	16.8443	30.4006	-1.3068	-0.319972
0.5367	2.44255	-9.02839	-1.1205	-4.61455	10.9742	-1.7728	3.73133	8.42218	-0.998456	0
0.5373	2.12534	-4.15272	-5.69933	-2.1636	16.4863	-8.49078	2.20326	-11.4114	0.528595	-0.319972
0.5380	3.64797	0.126095	-5.69933	-1.25083	17.7084	-3.91882	7.08953	-24.5342	0.8296	-0.319972
0.5387	4.88511	2.86656	-2.03696	1.18322	14.9399	6.76463	11.0518	-23.3161	-0.69011	0
0.5393	0.285493	4.69914	-0.511833	-0.946575	9.75212	9.79706	11.0518	-11.105	-2.82651	0
0.5400	-0.634429	7.14538	2.54187	-10.7166	4.88853	0.653137	7.99571	-2.86967	-1.3068	0
0.5407	-1.52263	8.36429	5.59212	-19.8612	-0.922835	-14.9288	1.9012	4.76036	2.05565	0
0.5413	-4.59961	5.01017	6.20079	-23.2249	-4.58923	-24.3527	-3.28712	13.3096	3.27435	0
0.5420	-0.919923	0.428723	8.0337	-21.7036	-3.96569	-22.5332	-1.75906	13.3096	2.966	0
0.5427	1.52263	-0.790195	6.81291	-20.7739	-4.88853	-18.2878	1.27931	5.98595	0.528595	-0.319972
0.5433	0.919923	0.73135	1.32108	-18.3399	-6.40996	-15.5353	2.20326	-1.64408	-0.998456	-0.319972
0.5440	0.602708	1.34501	-2.95341	-14.0634	-4.58923	-10.3569	0.071073	-6.83041	0.528595	0
0.5447	0	-0.184939	-2.03696	-11.3251	-2.14497	-8.81735	-4.51313	-5.6123	1.13795	-0.319972
0.5453	1.20542	-3.53906	1.62541	-10.1081	-2.14497	-5.73828	-3.28712	1.09855	0.528595	-0.639944
0.5460	1.52263	-8.42314	1.62541	-12.5421	-7.0335	7.65103	-0.550815	3.84865	-0.389104	-0.319972
0.5467	1.80812	-9.64205	0.708958	-15.2804	-10.9992	18.6611	-2.07888	1.71134	0.220248	0
0.5473	2.72805	-7.80948	1.92975	-14.3677	-7.33279	27.1985	-5.43708	-1.33768	3.27435	-0.319972
0.5480	1.80812	-3.23643	1.01329	-11.6293	-3.04286	34.8495	-5.11725	-2.56327	3.27435	-0.319972
0.5487	0.285493	5.01017	-1.1205	-10.1081	-2.14497	31.4905	2.80738	0.186827	0.8296	0
0.5493	-1.23714	8.97795	-1.73262	-12.8464	-3.6664	23.233	9.82584	1.71134	-0.0807575	0
0.5500	-1.83985	7.14538	-1.42829	-14.9762	-4.26499	18.3345	10.4477	2.32413	1.13795	0
0.5507	0.285493	4.09388	0.404625	-12.2379	-3.04286	14.9755	12.882	4.76036	3.27435	0
0.5513	0.919923	1.04238	-0.511833	-9.48265	-3.6664	10.4035	15.6361	5.37316	3.27435	-0.319972
0.5520	-1.23714	-0.184939	-2.95341	-11.0208	-3.96569	4.01213	12.5799	4.76036	1.43895	-0.639944
0.5527	-2.44255	1.04238	-2.95341	-13.7591	-1.22213	0.653137	7.69365	3.54225	-0.69011	0
0.5533	0	4.09388	-2.03696	-12.5421	1.22213	-1.7728	4.63751	0.792148	-1.60781	0
0.5540	2.72805	6.53171	-3.25775	-9.48265	1.22213	-6.06484	3.73133	-0.425967	0.220248	0
0.5547	2.72805	1.04238	-3.25775	-6.13583	-0.299298	-13.3893	0.675193	-1.03876	1.43895	-0.639944
0.5553	3.04526	-5.06061	1.62541	-2.1636	-0.623537	-17.3548	0.071073	-0.11957	1.13795	-1.27989
0.5560	2.72805	-2.9254	3.76266	-8.56988	-0.299298	-13.9958	4.03339	7.51046	0.8296	-0.319972
0.5567	2.72805	1.95867	0.404625	-12.2379	0.922835	-10.3569	0.373133	12.6968	0.528595	-0.639944
0.5573	1.20542	4.69914	1.01329	-3.98914	2.44426	-9.70375	-6.64532	9.34137	1.7473	-1.27989
0.5580	-2.15706	8.06166	6.50858	-6.44009	2.74356	-10.3569	-7.56927	11.4787	2.966	-0.319972
0.5587	-3.07698	3.17759	4.067	-16.5143	1.52143	-6.67133	-10.3056	17.8831	2.05565	0.319972
0.5593	-1.52263	-9.02839	-3.25775	-15.9058	-0.299298	0.0466527	-17.324	9.34137	-0.0807575	0
0.5600	2.12534	-10.5583	-1.42829	-7.65711	-0.299298	3.07908	-15.4939	-7.13681	0.220248	0
0.5607	4.88511	-2.32015	4.067	0.27045	0.598595	-2.09937	-6.0412	-14.7668	2.05565	0
0.5613	2.12534	3.17759	3.76266	9.43194	0.922835	-12.4563	-1.457	-13.2423	0.528595	0
0.5620	-1.23714	5.3128	6.81291	12.4745	-0.299298	-16.4217	-1.15494	-4.70058	-2.82651	-0.319972
0.5627	-0.919923	3.78285	10.1709	8.51917	-2.14497	-12.4563	-3.28712	0.792148	-6.48997	0
0.5633	2.12534	1.95867	6.50858	-4.61455	-2.14497	1.58619	-5.11725	-0.732364	-6.79831	0
0.5640	3.64797	5.3128	1.32108	-40.6182	-1.84567	13.156	-4.81519	3.84865	-0.69011	0
0.5647	0.285493	1.34501	-4.78287	-49.4754	-2.44426	2.47259	-6.0412	11.4787	4.19205	0
0.5653	0	-7.80948	-8.74957	-11.6293	-1.22213	-11.2433	-2.07888	4.15504	1.7473	0
0.5660	0.919923	-3.84169	-5.69933	-17.7314	-0.922835	-10.6368	4.63751	-5.91869	-2.21716	0
0.5667	0	7.75063	-4.78287	-84.8706	-0.623537	4.01213	4.63751	-0.732364	-0.69011	-0.319972
0.5673	-2.44255	16.2999	-12.4119	-134.008	1.22213	15.6286	-0.248755	4.15504	6.32845	-0.319972
0.5680	-6.12224	14.4673	-15.4657	-125.759	0.598595	8.91066	-5.73914	-7.13681	11.2106	-0.319972
0.5687	-3.67969	-0.184939	-12.7197	-90.3641	0.922835	3.07908	-6.94738	-26.9779	10.2929	-0.319972
0.5693	-0.634429	-9.94468	-13.9405	-65.9391	0.922835	9.51714	-8.79528	-33.3823	6.02011	-0.319972
0.5700	-0.634429	-9.33943	-14.2449	-43.3565	0.299298	15.6286	-12.1357	-23.615	2.665	0
0.5707	0.285493	-12.6936	-6.31145	-21.0782	0.598595	13.156	-9.3994	-7.44321	1.7473	0
0.5713	-0.919923	-16.0477	1.62541	-18.3399	0.598595	11.3366	-5.43708	10.2531	1.7473	0
0.5720	-3.36248	-7.20422	2.23408	-3.38062	0.299298	16.8416	-3.28712	13.9149	-1.60781	0.319972
0.5727	-3.96518	-0.184939	5.59212	79.9349	0	23.5596	-0.852875	0.493224	-8.62637	0.319972
0.5733	-2.15706	-0.790195	17.1879	155.306	-0.922835	23.5596	0.071073	-5.91869	-11.0711	0
0.5740	-1.23714	-1.40386	15.0541	111.966	-1.52143	16.515	-1.457	-1.64408	-5.57961	-0.319972
0.5747	-2.15706	-3.53906	-0.816166	23.4615	-1.52143	11.3366	-0.550815	-2.86967	-0.69011	-0.319972
0.5753	-1.23714	-3.53906	-8.74957	-14.0634	-1.52143	11.01	4.03339	-9.58051	-0.0807575	-0.319972
0.5760	-1.23714	1.34501	-11.4989	-18.0356	-2.74356	9.19057	4.03339	-15.9924	-0.69011	0
0.5767	-0.634429	6.53171	-14.5492	-18.0356	-3.96569	4.61861	0.977253	-15.686	0.528595	0
0.5773	0.919923	9.28058	-14.8535	-8.26563	-6.11066	0.326569	0.373133	-9.58051	2.966	-0.319972
0.5780	0.919923	8.66692	-3.86987	6.37248	-7.0335	-6.06484	6.46764	-12.3306	2.35665	-0.319972
0.5787	1.80812	7.448	7.11724	6.67673	-5.48712	-29.5778	14.7121	-15.9924	0.528595	0
0.5793	0.285493	5.01017	6.50858	3.93843	-5.81136	-62.5146	15.6361	-10.4997	-0.389104	0
0.5800	1.20542	-4.15272	17.4922	1.50438	-5.48712	-71.985	11.958	-8.3624	1.43895	0
0.5807	2.12534	-16.3587	21.7667	10.649	-2.14497	-56.4031	6.7697	-5.91869	3.8837	0
0.5813	0.285493	-18.4939	4.067	47.278	2.14497	-32.0037	4.03339	2.32413	2.665	0
0.5820	1.80812	-8.42314	-5.69933	65.8884	5.78642	4.01213	2.80738	7.20407	-0.0807575	0
0.5827	-0.919923	0.126095	-19.4324	44.2186	5.78642	34.523	-5.43708	2.92945	-2.52551	-0.319972
0.5833	-3.96518	2.86656	-30.1151	18.2892	4.88853	40.6345	-11.8336	-4.39418	-2.21716	-0.959916
0.5840	-1.83985	8.06166	-10.8868	-2.77211	6.11066	29.018	-10.0035	-1.95048	2.05565	-0.959916
0.5847	0	14.1647	11.6961	-18.3399	6.11066	13.156	-4.21107	7.81686	2.966	0
0.5853	0.602708	10.1969	19.9338	-17.1229	4.88853	5.55167	0.675193	14.2213	0.220248	0
0.5860	0.602708	-2.32015	30.3123	-1.85934	4.88853	8.30417	-2.07888	21.8513	-3.44321	0
0.5867	2.12534	-7.20422	35.4998	13.7084	4.88853	8.91066	-6.64532	27.3441	-4.35356	0
0.5873	2.44255	1.34501	20.8503	7.6064	3.96569	2.47259	-9.09734	5.98595	0.528595	0
0.5880	0.919923	5.91805	0.404625	14.0127	2.74356	0.653137	-11.8336	-22.0905	2.05565	0
0.5887	0.919923	0.428723	-8.74957	64.6713	3.34216	5.83158	-9.09734	-21.4852	-4.35356	-0.319972
0.5893	-1.23714	-1.09282	-13.0241	87.8624	3.04286	9.79706	-6.94738	-10.7986	-8.01702	0
0.5900	-1.52263	4.39651	-19.128	46.3653	1.82073	12.2696	-8.47545	-1.03876	-4.66191	0
0.5907	0.285493	11.7184	-20.041	1.18322	1.82073	13.7625	-7.87133	5.98595	-0.998456	0
0.5913	0.919923	18.1324	-15.4657	-13.7591	1.22213	11.3366	-6.0412	-0.425967	-0.69011	-0.319972
0.5920	2.12534	18.1324	-9.66603	-7.65711	0.598595	7.04455	-4.21107	0.186827	-0.998456	0
0.5927	0	8.97795	-4.78287	6.99789	-0.623537	5.2251	-3.90901	2.01774	-2.52551	0
0.5933	0.602708	4.39651	-0.511833	6.06822	0	5.55167	-0.852875	-8.66132	-2.52551	0
0.5940	3.33075	3.78285	3.45487	-21.7036	0.922835	2.47259	4.03339	-13.5487	1.13795	-0.319972
0.5947	1.20542	-0.487567	7.42158	-70.8241	-1.52143	-3.31234	4.33545	-9.88691	3.8837	-0.319972
0.5953	-1.52263	-3.53906	9.86316	-111.73	-2.14497	-0.8864	7.69365	-5.6123	4.19205	-0.319972
0.5960	-2.44255	-5.67427	9.86316	-141.327	-0.922835	4.29204	9.82584	2.62306	7.23881	0
0.5967	-0.317215	-12.0799	11.0839	-179.782	-1.22213	-2.70585	5.86352	14.2213	12.121	0
0.5973	2.72805	-18.4939	11.0839	-193.507	-1.22213	-14.9288	4.63751	18.4959	14.8667	0
0.5980	0	-13.9125	4.67566	-174.288	-0.922835	-21.9267	4.33545	15.7458	14.2574	0
0.5987	-4.59961	-5.37164	-5.39499	-154.444	-1.22213	-20.3872	6.46764	13.0032	10.9023	0
0.5993	-6.40774	-5.67427	-13.0241	-124.238	-3.04286	-13.6692	7.08953	9.03498	7.54716	0
0.6000	-1.83985	-7.20422	-13.9405	-98.2916	-3.6664	-9.70375	6.16558	1.09855	6.9378	-0.319972
0.6007	5.77331	-7.20422	-8.74957	-84.5663	-0.922835	-11.2433	11.656	-6.22509	7.54716	-0.319972
0.6013	5.48781	-11.4746	-1.1205	-27.8056	0	-16.7483	20.2025	-2.86967	5.41075	0
0.6020	0.602708	-14.2235	2.54187	31.1017	-1.22213	-21.9267	22.0326	6.89767	-2.52551	0
0.6027	0.602708	-11.172	1.62541	51.2334	-2.14497	-20.1073	18.6744	-1.33768	-14.1179	0
0.6033	5.77331	-5.37164	-4.78287	142.798	-0.922835	-18.5678	19.5984	-23.0097	-22.9718	-0.319972
0.6040	10.3729	1.64764	-19.4324	267.61	-0.623537	-27.4318	19.2963	-25.147	-23.5812	-0.319972
0.6047	10.6584	7.14538	-26.4528	248.07	-0.922835	-26.8253	16.8443	-5.6123	-16.5626	0
0.6053	7.61315	9.28058	-26.145	134.853	0	-6.34476	10.4477	14.2213	-10.1534	0
0.6060	2.12534	8.66692	-20.9575	57.3354	-0.623537	15.3021	-2.683	31.9251	-7.09932	-0.319972
0.6067	0	12.0295	-6.92012	20.419	-1.52143	24.7726	-12.4555	45.3542	-4.05256	-0.319972
0.6073	-2.44255	15.9888	4.97999	44.5228	-1.52143	20.8071	-16.1158	39.5551	-3.13486	-0.319972
0.6080	-12.53	14.4673	31.2253	77.7882	-0.922835	13.7625	-15.8137	38.3295	-3.74421	0
0.6087	-16.178	10.8021	57.1662	61.0034	0.598595	14.369	-11.2295	44.7414	-2.82651	0
0.6093	-12.53	-2.32015	49.2328	100.675	1.52143	22.9531	-8.17339	23.6822	-5.57961	0
0.6100	-5.80503	-17.8803	30.9209	165.989	2.44426	29.3445	-6.64532	-5.6123	-9.85242	0
0.6107	1.80812	-15.4424	12.6125	129.055	2.74356	23.5596	-4.51313	-29.4141	-7.40767	0
0.6113	3.96518	-6.89319	-1.42829	56.4226	0.598595	11.01	-5.43708	-58.7161	-3.44321	-0.319972
0.6120	3.33075	-10.5583	1.32108	23.4615	0	4.01213	-5.73914	-67.5643	-2.82651	-0.319972
0.6127	1.20542	-15.1314	2.23408	9.43194	0.299298	2.19267	-4.81519	-57.1916	-3.74421	0
0.6133	-1.52263	-7.50685	-9.97036	18.2892	0.299298	-2.09937	-4.21107	-45.8998	-4.96292	-0.639944
0.6140	-1.23714	1.64764	-23.3991	40.5506	1.82073	-9.70375	-5.11725	-28.5024	-3.74421	-0.959916
0.6147	-0.317215	-0.790195	-27.9779	27.738	3.04286	-7.60438	-3.60695	-11.105	-1.3068	-0.319972
0.6153	1.52263	-4.15272	-26.7571	-13.4549	3.96569	10.1236	-3.90901	10.5595	0.8296	-0.319972
0.6160	1.20542	-1.40386	-17.9072	-29.9354	4.56429	24.1661	-9.09734	29.7878	2.35665	0
0.6167	-0.317215	-6.59056	0.708958	4.8512	3.6664	20.2006	-11.8336	21.5449	1.7473	0
0.6173	-2.15706	-13.6098	3.76266	48.7993	0	9.79706	-13.9658	9.64777	-0.389104	-0.319972
0.6180	-2.75977	-5.37164	-4.1742	65.5841	-2.44426	4.61861	-14.8898	7.51046	-0.998456	0
0.6187	-0.317215	4.39651	-1.1205	84.4987	-0.623537	2.19267	-10.9275	5.37316	-0.69011	0.319972
0.6193	-2.44255	3.17759	1.62541	94.573	-0.299298	3.40564	-5.11725	9.34137	-3.13486	0
0.6200	-5.51954	1.34501	-0.511833	59.1778	-1.22213	4.94518	-1.457	8.42218	-4.66191	-0.319972
0.6207	-3.96518	1.34501	-1.1205	6.06822	-0.922835	3.07908	-3.28712	-8.66132	-3.44321	0
0.6213	-1.52263	0.126095	-0.2075	-21.7036	-0.299298	3.07908	-7.56927	-25.4459	-2.82651	0.319972
0.6220	0.602708	-1.40386	-3.25775	-18.3399	-0.623537	3.68556	-11.5316	-30.6397	-2.82651	0
0.6227	0.285493	0.428723	-7.83658	-13.1506	-1.84567	4.94518	-14.8898	-30.6397	-2.52551	0
0.6233	-0.919923	7.75063	-6.00366	-21.7036	-1.84567	6.43807	-14.8898	-18.4287	-0.998456	0
0.6240	-3.07698	15.3836	-4.1742	-27.8056	-0.922835	5.55167	-12.7576	3.54225	2.35665	-0.319972
0.6247	-3.36248	14.7699	-4.78287	-23.5291	-1.22213	7.65103	-5.73914	13.0032	3.27435	-0.319972
0.6253	0.919923	4.09388	-2.64908	-17.4271	-1.84567	9.79706	2.50532	2.92945	1.13795	0
0.6260	1.80812	-5.67427	-1.1205	-18.9484	-4.26499	5.55167	4.03339	-28.8088	-0.998456	0
0.6267	2.72805	-3.53906	2.23408	-26.5717	-4.26499	3.07908	4.63751	-44.9806	-0.389104	-0.319972
0.6273	3.33075	0.126095	4.37133	-30.8482	-2.44426	5.55167	7.39159	-11.7178	2.05565	-0.319972
0.6280	-0.317215	-0.487567	0.100292	-10.7166	-2.74356	3.68556	9.22172	36.805	2.05565	0
0.6287	-0.634429	-0.487567	-1.42829	32.9273	-3.04286	0.653137	15.6361	57.2514	0.528595	0
0.6293	-1.23714	-0.487567	1.32108	52.163	-2.74356	0.653137	25.6929	47.4841	-1.60781	-0.319972
0.6300	-3.67969	0.73135	1.01329	36.8995	-3.04286	-6.34476	30.8812	26.4323	-2.21716	-0.319972
0.6307	-4.88511	3.17759	-4.47854	19.5062	-3.96569	-13.6692	23.5607	4.15504	-0.389104	0
0.6313	-4.88511	6.53171	-7.53224	10.0405	-3.3671	-13.6692	11.656	-6.22509	1.13795	0
0.6320	-3.67969	12.0295	-2.34129	3.93843	-0.299298	-13.0627	4.63751	-3.16859	2.05565	0
0.6327	-2.75977	15.6862	2.84621	-2.46786	1.22213	-8.49078	-0.248755	-15.0732	1.13795	0
0.6333	0	11.7184	1.01329	-4.61455	0.299298	-2.70585	-6.34326	-32.1642	-0.0807575	0
0.6340	1.80812	5.3128	-3.56208	-4.91881	0.598595	0.653137	-9.3994	-24.2278	2.05565	0
0.6347	1.80812	3.17759	-5.09066	-12.5421	2.44426	4.01213	-6.64532	-4.08778	3.27435	0
0.6353	2.44255	-1.09282	-6.92012	-28.4141	3.04286	3.40564	-3.28712	14.8341	1.7473	-0.319972
0.6360	3.04526	-12.0799	-9.97036	-41.2267	2.14497	3.68556	-3.60695	19.4076	-0.389104	-0.319972
0.6367	2.72805	-10.861	-15.1613	-32.3864	2.14497	4.61861	-1.75906	7.81686	-1.91616	0
0.6373	1.80812	2.86656	-20.6531	-10.4123	2.74356	2.79916	4.63751	13.0032	-1.3068	0
0.6380	2.12534	12.3321	-9.3617	-1.25083	2.74356	0.326569	9.52378	28.2633	-0.0807575	0
0.6387	2.12534	17.2162	10.7796	-7.35286	1.52143	-0.8864	9.82584	16.9714	1.43895	-0.319972
0.6393	1.80812	20.2676	16.8836	-21.7036	1.82073	0.326569	13.184	-8.96772	2.966	-0.319972
0.6400	4.56789	25.1517	15.6628	-29.9354	2.44426	-0.8864	15.3162	-24.2278	3.8837	0
0.6407	4.25068	27.2869	8.64237	-25.9632	2.74356	-3.63891	11.656	-28.5024	3.8837	0.319972
0.6413	2.44255	19.3514	2.23408	-19.8612	2.14497	7.04455	12.882	-24.8406	2.35665	0
0.6420	3.04526	17.2162	7.42158	-17.1229	0.598595	29.6244	14.108	-3.78139	1.43895	0
0.6427	-1.23714	25.4543	12.0004	-17.4271	-3.04286	46.4194	5.86352	24.295	0.8296	0
0.6433	-3.67969	13.551	11.3917	-21.0782	-4.88853	51.3179	-2.98506	33.4496	0.8296	0
0.6440	-2.15706	-24.5969	5.28779	-19.2527	-3.04286	47.0259	-8.47545	29.7878	1.7473	-0.319972
0.6447	-2.15706	-49.3115	-6.61578	-10.4123	-2.74356	36.9489	-7.26721	11.1723	1.7473	-0.319972
0.6453	-0.317215	-44.7385	-14.8535	-29.9354	-2.14497	32.7035	4.63751	-9.58051	0.8296	0
0.6460	1.52263	-30.6999	-20.9575	-55.5775	-1.52143	33.9165	12.2779	-1.03876	-3.44321	0
0.6467	4.56789	-18.1829	-27.3658	-22.6164	-3.04286	25.9855	9.52378	-6.22509	-6.48997	-0.319972
0.6473	6.40774	-15.4424	-9.97036	14.9255	-4.26499	6.43807	4.03339	-31.5514	-2.82651	-0.959916
0.6480	0.919923	-16.0477	30.3123	-1.85934	-4.58923	-13.6692	2.50532	-13.2423	2.05565	-0.639944
0.6487	-6.72495	-3.23643	37.3292	-23.8334	-4.26499	-30.7908	3.10944	12.3904	2.966	0
0.6493	-10.0874	1.95867	15.3584	-22.3121	-3.3671	-43.6202	-1.457	2.92945	-0.389104	-0.959916
0.6500	-5.80503	-9.94468	4.67566	-27.8056	-1.22213	-46.3261	-10.6254	-13.2423	-1.60781	-0.959916
0.6507	-2.44255	-12.0799	-0.816166	-31.1525	1.52143	-40.8677	-17.9459	-20.2596	0.528595	0
0.6513	-1.23714	-8.72576	-3.86987	-3.07637	3.6664	-35.6426	-18.55	-8.96772	0.528595	0
0.6520	3.96518	-16.3587	-5.39499	17.968	3.6664	-29.2512	-15.4939	-4.39418	-1.3068	-0.639944
0.6527	5.77331	-16.964	-14.2449	9.43194	4.88853	-20.9937	-11.2295	-15.3796	-2.52551	-0.959916
0.6533	1.80812	-3.53906	-16.6864	0.27045	4.88853	-20.7138	-10.6254	-5.6123	-1.3068	-0.959916
0.6540	-1.23714	6.22909	-0.2075	-3.68488	2.14497	-27.7117	-13.3617	1.40494	2.05565	-0.959916
0.6547	0.919923	9.28058	17.1879	-1.55509	2.14497	-31.3972	-8.17339	-12.6295	4.19205	-0.319972
0.6553	2.12534	8.97795	16.2749	5.76396	2.44426	-29.2512	0.373133	-6.53149	2.966	0.319972
0.6560	-0.634429	1.64764	7.72937	0.574706	0.922835	-18.8943	3.42927	10.8659	1.13795	0
0.6567	-1.23714	-6.89319	1.32108	-11.3251	0	-10.6368	0.071073	15.7458	1.43895	-0.319972
0.6573	-4.88511	-5.67427	-2.95341	-14.6719	0	-13.0627	-8.17339	31.6187	2.665	0
0.6580	-10.0874	0.126095	4.067	-15.2804	1.22213	-14.6023	-9.70146	52.9843	2.665	0
0.6587	-7.64488	0.428723	16.8836	-14.3677	3.04286	-13.0627	-2.38094	45.3542	2.35665	0
0.6593	-3.36248	-3.53906	18.4087	-14.3677	1.82073	-9.42384	0.675193	15.7458	0.220248	0
0.6600	2.12534	-3.53906	13.5255	-15.6016	0.299298	-3.03242	-2.38094	-4.70058	-0.0807575	-0.319972
0.6607	5.77331	2.2613	12.3047	-12.2379	0.922835	0.979706	-5.43708	-14.4604	2.966	0
0.6613	4.25068	5.91805	8.0337	-9.78691	0.598595	3.07908	-7.87133	-11.4114	3.8837	0
0.6620	2.12534	5.3128	-3.86987	-11.6293	-0.623537	9.19057	-7.56927	0.792148	2.05565	-0.319972
0.6627	1.20542	6.53171	-16.9908	-11.0208	-1.22213	15.6286	-7.56927	-11.7178	-0.0807575	-0.319972
0.6633	3.04526	6.22909	-22.4826	-3.38062	-1.52143	15.3021	-9.3994	-24.8406	-0.0807575	-0.319972
0.6640	3.04526	4.09388	-15.4657	3.93843	-2.14497	16.8416	-11.2295	-15.686	2.35665	0
0.6647	1.52263	7.75063	2.84621	4.8512	-2.44426	19.5941	-11.8336	-20.2596	3.27435	-0.319972
0.6653	1.52263	9.88584	12.0004	0.574706	-1.84567	14.6956	-10.9275	-29.1152	2.665	0
0.6660	1.20542	1.64764	5.89645	-3.07637	-1.52143	9.79706	-9.70146	-20.8724	0.528595	0
0.6667	2.44255	-3.84169	2.84621	-1.55509	-2.44426	10.4035	-10.0035	-12.6295	-0.0807575	-0.319972
0.6673	3.04526	4.69914	6.20079	-0.0338062	-4.26499	7.04455	-13.6638	-10.7986	0.8296	-0.319972
0.6680	2.44255	9.28058	15.9671	-0.338062	-4.88853	-7.27781	-13.9658	5.37316	1.43895	-0.319972
0.6687	3.33075	-1.09282	31.5331	-3.98914	-3.6664	-26.4987	-5.73914	19.714	1.13795	0
0.6693	1.52263	-7.80948	36.4162	-10.1081	-1.52143	-39.3282	6.46764	9.34137	-2.52551	0
0.6700	0.919923	-6.59056	26.9542	-0.946575	0.922835	-41.7541	19.5984	4.76036	-5.27126	-0.319972
0.6707	-1.52263	-7.50685	11.3917	7.91066	2.14497	-35.6426	29.975	19.1087	-6.18896	0
0.6713	-10.6901	-3.53906	-11.4989	-19.2527	2.44426	-20.1073	27.2209	35.5869	-8.32537	0
0.6720	-11.2928	5.3128	-22.1783	-50.9967	2.44426	-6.06484	16.8443	44.7414	-8.01702	0
0.6727	-1.83985	0.428723	-21.5696	-45.8075	1.52143	-12.7828	11.656	42.9105	-6.18896	0
0.6733	2.72805	-6.59056	-31.9446	-17.4271	1.52143	-23.4663	11.656	34.3613	-5.57961	-0.639944
0.6740	2.72805	-2.32015	-34.3862	-3.38062	2.74356	-16.1418	11.3539	15.7458	-2.52551	-0.639944
0.6747	2.12534	-0.184939	-22.7904	-10.1081	1.52143	-14.3224	5.56146	-10.7986	1.7473	0
0.6753	2.72805	-4.15272	-11.8033	-15.9058	1.22213	-17.3548	-0.852875	-32.4706	4.19205	0
0.6760	3.33075	-9.94468	-0.816166	-30.8482	1.52143	-1.49288	-4.21107	-41.9316	6.62946	-0.319972
0.6767	4.88511	-9.33943	5.89645	-42.4437	2.44426	16.515	-3.28712	-34.9068	9.68356	-0.319972
0.6773	3.96518	-2.00911	3.15054	-26.8929	4.26499	24.1661	-1.15494	-17.2105	11.2106	0
0.6780	-1.83985	2.2613	-1.73262	-11.3251	3.34216	26.9186	-1.75906	5.67955	11.82	0
0.6787	-5.20232	7.75063	-1.73262	-11.9336	2.14497	25.9855	0.977253	16.665	12.121	-0.319972
0.6793	-5.20232	10.1969	-2.34129	-2.77211	1.82073	22.9531	3.73133	2.92945	8.76586	0
0.6800	-3.67969	-2.00911	-5.09066	46.9738	0.922835	15.6286	1.9012	-8.056	4.19205	0
0.6807	-3.36248	-9.33943	-4.1742	81.1519	0	7.65103	1.27931	-5.6123	-0.389104	0
0.6813	-5.51954	0.428723	-4.1742	30.189	0.922835	4.29204	5.56146	-1.64408	-4.96292	0
0.6820	-7.93037	7.14538	-8.44524	-36.646	2.44426	6.76463	11.0518	2.92945	-8.62637	0
0.6827	-7.32766	3.48022	-7.83658	-36.0375	2.14497	11.6165	10.7498	3.23585	-11.9888	0
0.6833	-1.83985	-0.184939	3.45487	0.574706	2.44426	8.91066	11.3539	-0.425967	-11.6805	-0.319972
0.6840	0.919923	-0.184939	5.89645	18.2892	0.922835	-2.09937	12.5799	-7.7496	-6.79831	-0.319972
0.6847	-1.52263	0.428723	-0.816166	17.0552	-2.14497	-6.34476	11.656	-17.2105	-2.82651	0
0.6853	1.52263	-1.70648	8.33803	8.51917	-1.22213	1.86611	15.6361	-20.566	-1.3068	0
0.6860	4.25068	-2.32015	13.2212	2.41715	0	7.9776	15.0142	-20.2596	-2.21716	0
0.6867	3.04526	2.86656	4.67566	4.8512	0.299298	7.37112	8.59983	-19.0415	-2.82651	-0.319972
0.6873	1.20542	9.28058	-3.86987	0.878962	0.299298	5.83158	3.42927	-9.27411	-1.60781	-0.319972
0.6880	-2.15706	12.3321	-13.3284	-10.7166	-1.84567	2.79916	-1.15494	4.76036	-0.998456	0
0.6887	-2.15706	10.4995	-15.77	-15.6016	-1.52143	4.01213	1.9012	14.5277	-1.3068	-0.319972
0.6893	-2.15706	6.53171	-13.9405	-15.9058	-0.623537	9.79706	5.56146	20.6332	-1.91616	-0.319972
0.6900	-0.634429	5.61542	-16.6864	-25.0504	0	12.5496	2.50532	16.9714	-1.60781	-0.319972
0.6907	1.80812	3.17759	-17.6029	-39.0969	0.598595	9.79706	-1.457	5.06676	0.528595	-0.319972
0.6913	-1.52263	-2.00911	-1.1205	-42.4437	0.299298	6.43807	-2.38094	-5.3059	1.7473	-0.319972
0.6920	-5.20232	-1.09282	13.8333	-36.646	0.598595	4.29204	-1.15494	-10.7986	0.220248	-0.319972
0.6927	-4.88511	4.09388	4.97999	-31.761	-0.299298	0.653137	-3.90901	-10.4997	-2.52551	-0.319972
0.6933	-1.52263	4.39651	-7.22445	-33.6034	-0.623537	-3.03242	-11.8336	-4.08778	-3.13486	0
0.6940	-0.317215	4.09388	-4.47854	-31.4567	-1.52143	-2.70585	-18.8521	3.54225	-1.3068	0
0.6947	-2.15706	0.73135	12.0004	-8.26563	-2.74356	0.0466527	-19.7761	5.98595	-0.389104	0
0.6953	-1.52263	-9.02839	20.2416	-1.55509	-2.74356	1.58619	-16.1158	5.67955	0.528595	0
0.6960	0	-13.3072	18.1044	-0.642319	-3.04286	3.07908	-12.1357	2.92945	-0.69011	0
0.6967	0.919923	-7.50685	17.1879	41.176	-2.14497	2.79916	-7.26721	3.84865	-4.05256	-0.319972
0.6973	-0.317215	-4.15272	12.3047	47.5823	-2.14497	-0.8864	-6.0412	7.81686	-1.91616	-0.319972
0.6980	0.285493	-7.20422	11.0839	-5.52732	-2.44426	-3.31234	-4.81519	3.84865	4.49305	0
0.6987	3.64797	-7.20422	12.9169	-47.633	-1.52143	-1.16632	-1.457	-4.39418	8.46486	0
0.6993	1.80812	-2.62277	2.84621	-68.6943	-2.14497	3.40564	-1.75906	-15.9924	8.15651	-0.319972
0.7000	0.602708	2.56393	-9.66603	-83.045	-1.22213	3.07908	-1.15494	-22.0905	8.46486	0
0.7007	1.52263	7.14538	-10.2782	-95.5533	0.922835	-1.16632	2.20326	-15.0732	9.68356	0
0.7013	-0.317215	9.88584	-10.8868	-108.974	0.299298	-3.31234	2.80738	0.186827	9.07421	-0.319972
0.7020	-1.52263	9.28058	-12.7197	-113.555	-1.84567	0.0466527	1.9012	13.9149	5.41075	0
0.7027	-1.52263	5.3128	-1.1205	-108.974	-4.58923	5.2251	1.9012	15.4469	-0.389104	-0.319972
0.7033	-0.634429	3.48022	9.25449	-116.293	-5.81136	4.94518	-0.248755	11.4787	-1.60781	-1.27989
0.7040	-0.317215	2.2613	4.37133	-141.023	-4.26499	1.25962	-2.683	7.81686	2.35665	-0.639944
0.7047	0.285493	-1.70648	1.92975	-121.178	-3.04286	1.25962	-2.98506	2.92945	3.57536	0.319972
0.7053	0.919923	-1.70648	3.45487	3.02566	-2.74356	2.19267	-1.457	-1.95048	-4.05256	0
0.7060	2.72805	-0.790195	-2.34129	91.5304	-1.84567	0.653137	1.27931	-8.66132	-11.6805	0
0.7067	4.88511	-1.09282	-8.74957	48.4951	-1.22213	-5.13179	0.071073	-17.8233	-9.54407	0
0.7073	0	2.56393	-12.4119	49.1036	-2.44426	-10.3569	-7.26721	-26.0587	-4.35356	0
0.7080	-4.88511	4.39651	-11.4989	103.43	-1.22213	-10.9634	-12.1357	-29.1152	1.43895	-0.319972
0.7087	-1.23714	4.39651	-4.78287	81.4561	2.14497	-6.06484	-8.79528	-20.566	7.54716	-0.319972
0.7093	2.12534	5.91805	-2.95341	-0.946575	3.34216	4.61861	-2.98506	-2.86967	5.41075	0
0.7100	3.04526	9.88584	-9.3617	-34.5162	3.34216	8.30417	0.373133	-1.64408	-1.91616	0
0.7107	2.72805	15.9888	-14.2449	47.8865	2.74356	1.25962	0.373133	-18.7351	-6.48997	-0.319972
0.7113	0.919923	9.28058	-11.8033	180.322	1.22213	-0.8864	-1.75906	-18.4287	-9.85242	0
0.7120	0.919923	-9.33943	-8.74957	250.825	0.922835	5.2251	-0.852875	5.37316	-13.5085	0
0.7127	0.285493	-16.6613	-3.25775	202.297	0.598595	9.79706	1.9012	23.6822	-12.2898	0
0.7133	0.602708	-15.4424	13.8333	107.081	4.56429	7.37112	1.27931	27.3441	-5.57961	0
0.7140	2.12534	-13.9125	21.4624	50.6248	11.2985	2.47259	-1.75906	29.4814	0.220248	0
0.7147	0	-7.20422	10.4753	25.304	14.6406	0.979706	-2.38094	36.1922	2.05565	-0.319972
0.7153	-3.36248	-1.40386	4.067	11.866	13.1192	1.25962	1.58137	31.6187	1.7473	-0.319972
0.7160	-1.83985	-2.32015	3.45487	25.6082	9.15352	-0.559832	6.16558	4.45397	-0.69011	-0.319972
0.7167	4.25068	-4.15272	1.01329	55.5098	7.33279	-5.73828	8.29777	-19.6542	-2.52551	0
0.7173	5.1706	-2.9254	-2.03696	53.6843	4.56429	-10.0303	2.80738	-23.9214	-0.69011	0
0.7180	0.919923	-0.184939	-2.34129	33.2315	-2.14497	-13.3893	-4.51313	-23.9214	-0.0807575	0
0.7187	0.602708	3.17759	1.32108	20.7232	-7.0335	-14.9288	-1.75906	-26.0587	-0.998456	-0.319972
0.7193	-0.634429	2.56393	3.15054	14.0127	-7.93139	-8.81735	1.27931	-20.2596	-2.52551	-0.319972
0.7200	0.602708	-2.62277	3.15054	47.8865	-7.33279	-0.8864	0.373133	-12.6295	-5.88061	-0.319972
0.7207	3.04526	-4.45535	-0.816166	89.0794	-7.0335	-4.52531	-2.683	-4.70058	-7.71601	0
0.7213	-0.317215	-3.84169	-8.74957	70.4691	-6.11066	-8.81735	-2.38094	10.2531	-5.57961	-0.319972
0.7220	-3.07698	-1.70648	-5.39499	39.3336	-3.96569	2.19267	3.73133	17.2778	-4.66191	-0.639944
0.7227	0.919923	9.88584	18.713	23.1573	-6.11066	5.55167	7.69365	9.03498	-5.27126	0
0.7233	7.32766	19.9566	38.55	6.37248	-10.9992	-9.09727	8.59983	1.09855	-3.74421	0.319972
0.7240	3.96518	16.9051	27.2586	-11.0208	-15.5635	-23.1397	4.93957	8.12326	-1.91616	0
0.7247	-3.67969	10.4995	13.5255	-27.5014	-13.4435	-31.0707	3.42927	20.6332	1.7473	0
0.7253	-2.75977	7.448	10.4753	-28.4141	-5.18783	-26.8253	10.4477	22.1577	5.41075	0
0.7260	-0.919923	-2.62277	-0.511833	-32.6906	-3.04286	-7.8843	15.9381	15.7458	5.71176	0
0.7267	0.919923	-11.4746	-7.83658	-39.0969	-3.6664	4.94518	18.3724	8.42218	4.49305	0
0.7273	2.44255	-4.45535	-13.9405	-9.78691	-0.922835	5.83158	15.6361	7.51046	2.966	0
0.7280	1.52263	2.56393	-20.041	13.0999	1.82073	16.515	9.22172	10.5595	1.7473	0
0.7287	2.44255	-1.40386	-16.3821	-11.0208	1.82073	31.7705	3.10944	2.92945	2.35665	0
0.7293	2.44255	-1.70648	-4.47854	-39.7054	-0.299298	34.243	-5.43708	-13.5487	1.7473	-0.319972
0.7300	4.56789	-1.70648	15.3584	-45.1989	-1.22213	32.097	-12.1357	-24.8406	0.528595	-0.319972
0.7307	4.56789	-12.0799	19.9338	-39.4012	0.299298	32.097	-15.1918	-21.7841	0.528595	-0.319972
0.7313	-3.07698	-13.6098	5.59212	-34.2119	1.82073	28.4115	-14.5877	-5.3059	-0.69011	-0.319972
0.7320	-7.64488	0.126095	-4.47854	-29.6312	2.14497	19.874	-10.6254	11.4787	-1.91616	-0.319972
0.7327	-4.88511	6.53171	-2.64908	5.76396	2.14497	12.2696	-3.60695	9.95417	-4.66191	0
0.7333	1.20542	2.2613	5.89645	86.9497	1.52143	2.79916	0.977253	2.62306	-8.62637	-0.639944
0.7340	1.52263	0.126095	2.84621	129.968	-0.623537	-6.34476	-3.60695	7.81686	-8.01702	-1.27989
0.7347	-3.67969	2.2613	-6.31145	80.8476	-1.22213	-6.06484	-7.87133	-2.56327	-3.74421	-0.319972
0.7353	-4.88511	0.73135	-2.34129	24.0869	0	-0.8864	-5.11725	-22.3969	-1.91616	0
0.7360	-3.36248	-3.23643	7.72937	11.866	-0.299298	5.83158	-2.683	-26.6715	-3.13486	-0.319972
0.7367	-2.15706	2.2613	9.55882	7.91066	-1.84567	9.51714	-6.34326	-29.7205	-2.82651	0
0.7373	-5.20232	8.97795	-2.95341	-2.77211	-3.3671	5.55167	-10.0035	-31.245	-0.389104	0
0.7380	-4.59961	1.95867	-11.1912	3.32991	-0.299298	4.61861	2.50532	-23.3161	-0.0807575	-0.319972
0.7387	1.20542	-8.72576	-10.2782	21.3317	4.26499	12.5496	18.6744	-6.22509	-1.60781	-0.319972
0.7393	-0.919923	-12.0799	-16.0743	8.21492	4.88853	24.446	14.7121	15.7458	-2.52551	-0.319972
0.7400	0.285493	-9.33943	-15.77	-13.7591	5.48712	29.018	1.27931	27.6505	-1.3068	-0.319972
0.7407	4.25068	-3.84169	-9.3617	-1.25083	5.18783	22.3	-6.34326	25.8196	0.220248	0
0.7413	-1.23714	3.48022	-12.4119	14.3169	2.44426	9.51714	-2.07888	12.6968	-0.69011	0
0.7420	-4.2824	8.36429	-14.8535	12.1702	3.34216	0.653137	11.3539	-1.03876	-1.60781	-0.319972
0.7427	-0.634429	7.14538	-7.22445	3.32991	5.48712	1.25962	16.8443	-2.25688	-2.21716	-0.319972
0.7433	2.72805	4.39651	4.67566	-6.44009	5.78642	-4.24539	10.1279	5.37316	-0.69011	0
0.7440	0.919923	8.97795	7.72937	-11.0208	5.18783	-17.9613	4.33545	8.72858	3.27435	0
0.7447	-2.44255	18.1324	2.54187	-12.2379	3.96569	-14.9288	2.80738	7.51046	4.49305	-0.319972
0.7453	-0.317215	19.9566	3.15054	-20.1654	2.14497	0.0466527	-1.457	7.51046	4.49305	-0.319972
0.7460	2.44255	12.0295	11.0839	-38.1842	-0.922835	9.79706	-8.47545	5.98595	4.19205	-0.319972
0.7467	4.88511	0.73135	17.8	-29.6312	-1.22213	14.0891	-11.2295	7.81686	3.8837	-0.319972
0.7473	4.88511	-8.42314	22.3754	10.3447	1.52143	14.6956	-8.17339	11.1723	4.19205	-0.319972
0.7480	2.12534	-9.94468	20.5459	25.9125	2.44426	12.2696	-5.43708	7.81686	3.8837	-0.319972
0.7487	1.52263	-7.80948	7.11724	12.4745	0.922835	11.01	-7.87133	5.06676	3.27435	-0.639944
0.7493	1.20542	-5.37164	-6.31145	0.574706	0	12.2696	-6.0412	9.64777	1.13795	-0.319972
0.7500	-1.52263	2.2613	-6.31145	-3.07637	-0.299298	7.9776	-2.38094	15.1405	0.8296	-0.319972
0.7507	-4.59961	5.01017	-6.31145	-2.77211	-1.22213	-4.24539	-4.21107	18.1895	3.27435	0
0.7513	-2.75977	0.73135	-14.2449	-2.1636	-1.22213	-17.3548	-5.73914	18.4959	3.8837	0
0.7520	0.602708	0.428723	-18.5159	-0.642319	-0.623537	-23.7462	-4.51313	6.29235	2.05565	-0.319972
0.7527	1.52263	-0.790195	-15.1613	-5.22306	-0.299298	-19.5008	-2.38094	-11.4114	-0.389104	-0.319972
0.7533	4.56789	-6.89319	-16.9908	-18.0356	0.299298	-12.4563	-2.07888	-17.8233	-0.69011	0
0.7540	7.01045	-5.37164	-22.4826	-31.4567	0.922835	-8.49078	-4.81519	-20.566	0.528595	0
0.7547	6.09052	0.73135	-19.128	-44.2862	0.598595	-6.06484	-6.94738	-26.6715	1.13795	-0.319972
0.7553	6.40774	-6.28793	-4.78287	-43.6777	0.598595	-3.31234	-3.60695	-30.9461	-0.69011	-0.319972
0.7560	5.48781	-15.745	5.59212	-20.1654	-0.299298	0.979706	0.373133	-26.0587	-4.96292	-0.319972
0.7567	5.1706	-10.2557	5.28779	-2.1636	-0.623537	3.40564	1.9012	-7.7496	-5.27126	0
0.7573	5.1706	-6.28793	4.37133	-6.44009	-0.299298	-0.279916	2.80738	19.4076	-0.998456	0
0.7580	2.72805	-10.2557	7.72937	-17.1229	-1.52143	-3.91882	2.50532	43.8222	1.13795	-0.319972
0.7587	-1.83985	-4.75798	11.3917	-20.4697	-2.44426	0.653137	4.33545	51.7587	0.220248	-0.319972
0.7593	-7.04217	2.2613	9.86316	-18.6441	-2.44426	4.94518	8.59983	36.805	-1.91616	0
0.7600	-4.2824	-0.487567	6.81291	-17.1229	-2.14497	2.79916	10.1279	4.45397	-2.21716	0
0.7607	0.602708	-3.23643	3.45487	-6.13583	-1.52143	2.79916	9.22172	-26.9779	-0.389104	0
0.7613	-2.15706	-1.70648	-6.92012	11.2575	-1.22213	-1.16632	6.7697	-35.2132	-0.69011	0
0.7620	-3.67969	-0.487567	-8.74957	12.1702	0.299298	-16.1418	10.1279	-22.7033	-2.82651	-0.319972
0.7627	-1.83985	-4.75798	0.100292	2.7214	1.52143	-15.2088	19.5984	-17.2105	-5.57961	-0.319972
0.7633	0.285493	-8.42314	2.54187	3.32991	1.82073	9.51714	18.6744	-23.0097	-4.96292	-0.959916
0.7640	-0.317215	-6.28793	1.01329	2.7214	0.598595	17.4481	5.56146	-18.4287	0.528595	-0.959916
0.7647	-5.51954	-2.9254	-1.42829	-8.87414	-1.84567	-1.7728	-5.73914	-8.3624	4.8014	0
0.7653	-6.72495	-0.184939	-3.25775	-16.8186	-1.52143	-12.4563	-4.21107	-10.4997	5.71176	0
0.7660	-3.67969	3.78285	-1.73262	-18.6441	0.299298	-5.13179	2.80738	-12.9359	3.8837	-0.319972
0.7667	-2.75977	7.14538	-4.78287	-14.9762	-0.922835	-4.52531	1.58137	2.01774	2.665	-0.319972
0.7673	-2.15706	5.91805	-6.31145	-7.35286	-0.299298	-11.8498	-1.75906	18.8023	3.27435	-0.319972
0.7680	0.919923	-1.09282	0.404625	-13.4549	1.82073	-13.3893	-2.98506	17.2778	2.665	-0.319972
0.7687	2.44255	-9.64205	7.11724	-28.4141	1.82073	-9.70375	-7.26721	6.29235	1.43895	0
0.7693	1.52263	-12.3909	10.7796	-29.9354	0.299298	-3.91882	-12.1357	-8.96772	-0.69011	0
0.7700	3.33075	-2.9254	13.2212	-19.5569	1.22213	-0.8864	-10.9275	-30.3333	-2.21716	-0.319972
0.7707	3.96518	7.448	6.81291	-14.3677	2.74356	0.979706	-8.79528	-41.3188	-0.998456	-0.319972
0.7713	0.919923	8.97795	-3.86987	-14.0634	0	6.76463	-12.4555	-26.6715	0.528595	-0.319972
0.7720	0	4.09388	-0.816166	-6.13583	-1.52143	15.9086	-12.1357	5.37316	1.13795	0
0.7727	0.285493	-7.20422	6.81291	-2.46786	-1.22213	24.7726	-8.79528	21.2385	-0.389104	0
0.7733	2.12534	-15.745	-1.73262	-7.96137	-1.84567	25.379	-12.1357	17.8831	-1.3068	-0.319972
0.7740	4.88511	-10.5583	-13.6327	-9.48265	-1.52143	20.2006	-12.7576	16.665	0.8296	-0.319972
0.7747	4.56789	-1.09282	-10.8868	-11.3251	-2.44426	16.8416	-10.6254	12.084	1.7473	0
0.7753	1.52263	1.34501	-3.25775	-20.4697	-4.88853	16.2351	-13.6638	-1.64408	0.220248	-0.319972
0.7760	1.52263	-2.9254	5.59212	-31.4567	-4.88853	29.6244	-8.79528	-9.88691	-0.69011	-0.319972
0.7767	3.96518	-4.15272	9.86316	-36.646	-4.58923	42.174	-2.683	-8.056	-0.0807575	0
0.7773	0.602708	1.64764	2.84621	-36.9502	-4.88853	36.669	-5.11725	-7.7496	2.05565	-0.319972
0.7780	-3.96518	4.69914	-3.25775	-36.9502	-3.04286	26.9186	-3.28712	-9.27411	3.27435	-0.319972
0.7787	-4.88511	6.22909	-3.56208	-42.4437	-2.14497	18.0546	0.675193	-11.105	2.35665	-0.319972
0.7793	-2.75977	11.4158	-2.34129	-53.735	-3.6664	7.04455	7.39159	-13.8551	0.220248	0
0.7800	2.12534	12.3321	-3.86987	-50.0839	-4.58923	-8.21087	20.2025	1.71134	-0.998456	0
0.7807	1.80812	7.75063	-6.92012	-28.7184	-3.6664	-19.7807	29.0511	19.714	-1.60781	-0.319972
0.7813	-1.83985	2.86656	-4.1742	-21.7036	-1.22213	-20.7138	29.673	19.4076	-0.998456	-0.319972
0.7820	-3.67969	-2.62277	0.708958	-25.9632	1.52143	-22.8598	22.0326	17.8831	1.7473	0.319972
0.7827	-4.2824	-5.9769	1.01329	6.37248	3.34216	-28.6447	11.3539	14.2213	0.8296	0.319972
0.7833	-0.634429	-4.15272	1.01329	67.1054	5.48712	-25.2857	3.10944	9.95417	-3.13486	0
0.7840	1.52263	-0.487567	4.67566	80.2391	7.63209	-29.2512	-2.683	7.51046	-4.35356	-0.319972
0.7847	0	0.73135	4.67566	42.393	5.78642	-46.9326	-7.26721	-4.08778	-0.69011	-0.319972
0.7853	-0.634429	-0.487567	1.01329	9.7362	2.74356	-45.4397	-8.79528	-13.5487	4.49305	0
0.7860	0.919923	-3.84169	2.23408	-6.44009	2.14497	-25.2857	-6.34326	-8.3624	5.10241	0
0.7867	3.04526	-5.37164	4.97999	-9.48265	3.04286	-19.1742	-4.51313	-0.732364	3.27435	0
0.7873	2.12534	1.04238	1.01329	-1.85934	2.74356	-19.7807	-4.51313	-4.39418	2.966	0
0.7880	0	9.58321	1.62541	2.11289	2.14497	-12.7828	-3.90901	-8.056	2.05565	-0.319972
0.7887	0.602708	10.1969	9.55882	-4.91881	3.34216	-5.73828	-4.21107	-2.86967	-0.0807575	-0.319972
0.7893	0.285493	5.91805	8.33803	-17.1229	2.44426	-0.559832	-5.11725	0.792148	-1.91616	-0.319972
0.7900	-0.634429	4.39651	4.67566	-19.5569	0.922835	-0.559832	-4.81519	5.67955	-1.60781	-0.319972
0.7907	-3.96518	6.22909	4.97999	-13.4549	-0.299298	-5.45836	-7.26721	10.5595	0.8296	-0.319972
0.7913	-6.12224	5.61542	2.23408	12.4745	-2.44426	-5.73828	-9.09734	6.59127	0.220248	-0.319972
0.7920	-2.75977	1.95867	-1.73262	54.5971	-0.922835	0.0466527	-4.81519	3.23585	-3.44321	0
0.7927	0	-1.40386	-8.44524	58.8736	0.299298	5.83158	-0.852875	-2.56327	-5.27126	-0.319972
0.7933	2.12534	1.04238	-13.0241	26.521	0.299298	7.9776	1.27931	-14.7668	-3.13486	0
0.7940	4.88511	5.01017	-11.8033	4.8512	0.598595	8.30417	3.42927	-20.2596	-0.389104	0.319972
0.7947	3.96518	-0.184939	-10.2782	3.63417	0.299298	7.9776	3.73133	-19.0415	-0.0807575	-0.319972
0.7953	1.20542	-7.20422	-15.1613	10.3447	-0.623537	8.91066	4.93957	-11.7178	-1.60781	-1.27989
0.7960	0.919923	-6.89319	-23.7034	10.649	-2.14497	10.1236	7.08953	5.37316	-3.44321	-0.959916
0.7967	4.56789	-2.00911	-12.7197	5.76396	-1.22213	4.29204	10.7498	20.9396	-2.82651	0
0.7973	3.96518	1.34501	5.89645	6.06822	0.922835	-7.27781	12.882	38.0306	-1.3068	0
0.7980	0	-3.23643	1.62541	8.21492	0.922835	-17.6814	11.958	55.7269	-0.998456	0
0.7987	-2.15706	-5.67427	-8.14091	4.8512	-0.299298	-19.1742	9.82584	42.6041	-1.3068	-0.319972
0.7993	-1.52263	-0.487567	-0.511833	-3.38062	-0.922835	-12.4563	5.2594	11.4787	-1.91616	-0.319972
0.8000	2.44255	3.17759	19.3251	-6.13583	-2.14497	-11.5699	-1.15494	5.67955	-1.60781	-0.319972
0.8007	0	3.48022	22.3754	-3.38062	-4.26499	-19.5008	-6.94738	16.9714	-0.389104	0
0.8013	-3.67969	2.56393	4.97999	-2.1636	-3.04286	-24.0728	-1.75906	10.5595	0.528595	0
0.8020	-0.919923	-0.487567	-4.1742	-1.85934	0	-20.7138	8.59983	-14.7668	0.8296	0
0.8027	-0.634429	-6.28793	-3.25775	-5.22306	-0.299298	-9.09727	9.22172	-31.245	-0.998456	-0.319972
0.8033	0.285493	-11.4746	-2.03696	-4.3103	-0.299298	1.86611	4.63751	-23.3161	-1.60781	-0.319972
0.8040	-0.634429	-14.2235	-0.2075	2.41715	-1.22213	2.19267	-3.90901	-1.03876	-0.0807575	0
0.8047	-3.67969	-15.1314	2.54187	-0.0338062	-2.44426	0.326569	-11.8336	25.8196	1.13795	-0.319972
0.8053	-2.44255	-9.64205	0.708958	-12.8464	-0.623537	2.79916	-9.70146	43.8222	2.665	-0.319972
0.8060	-4.2824	-3.23643	-0.511833	-26.2675	-0.623537	5.83158	-5.43708	31.9251	3.57536	0
0.8067	-3.67969	1.95867	5.89645	-29.9354	-1.52143	5.55167	-3.28712	-4.70058	3.27435	0
0.8073	-0.634429	8.66692	6.20079	-21.0782	-1.52143	1.86611	-3.90901	-42.5369	4.19205	0
0.8080	-2.75977	8.66692	0.404625	-13.1506	-1.84567	-1.16632	-6.34326	-58.1033	6.02011	-0.319972
0.8087	-1.23714	4.69914	-0.2075	-12.8464	-1.52143	0.979706	-3.60695	-54.4415	5.71176	-0.319972
0.8093	2.44255	5.91805	-1.1205	-15.2804	-1.52143	4.61861	0.675193	-56.8852	2.05565	-0.319972
0.8100	5.1706	10.8021	-5.39499	-9.48265	-1.52143	2.79916	-0.248755	-60.8534	1.7473	-0.639944
0.8107	5.77331	15.6862	-7.22445	-10.4123	-1.52143	-0.8864	-4.81519	-52.6106	4.49305	-0.319972
0.8113	0	15.6862	-6.92012	-28.4141	-1.22213	-1.7728	-8.17339	-22.0905	2.05565	-0.319972
0.8120	-3.07698	5.61542	-0.816166	-2.46786	0.922835	4.01213	-2.683	23.3759	-3.44321	0
0.8127	0	-6.89319	17.4922	66.1926	1.52143	9.79706	2.50532	42.9105	-4.66191	0
0.8133	0.919923	-4.75798	33.0582	78.7009	0.299298	5.83158	1.27931	30.6995	-2.52551	0
0.8140	-1.52263	8.97795	27.8707	22.853	0.598595	-1.49288	-0.550815	21.8513	-1.3068	0
0.8147	-0.634429	17.2162	16.5792	-22.9206	0.299298	-3.03242	-0.550815	24.295	1.13795	-0.319972
0.8153	3.96518	19.0487	5.89645	-38.4884	-0.922835	-0.8864	2.50532	30.6995	6.9378	-0.319972
0.8160	3.64797	13.551	-6.61578	-51.6052	-1.22213	3.07908	2.80738	29.4814	9.37521	-0.319972
0.8167	5.48781	-3.23643	-7.53224	-55.8817	-0.922835	3.68556	0.977253	11.4787	6.62946	0
0.8173	8.21586	-21.2428	-9.05737	-51.9095	-1.84567	-2.37929	-1.457	-2.56327	4.49305	0
0.8180	7.32766	-25.8158	-13.6327	-65.3306	-2.44426	-5.13179	-2.07888	1.71134	3.8837	-0.319972
0.8187	7.32766	-15.4424	-4.47854	-98.9002	-2.14497	1.58619	0.977253	4.15504	4.8014	-0.319972
0.8193	3.04526	3.48022	2.84621	-132.774	-1.84567	12.8761	3.42927	-10.1933	1.43895	-0.319972
0.8200	-3.67969	13.551	-0.816166	-133.078	-0.299298	19.5941	3.10944	-24.5342	-5.57961	-0.319972
0.8207	-7.04217	3.48022	-2.95341	-95.5533	-0.299298	16.515	-2.07888	-19.6542	-8.62637	-0.319972
0.8213	-6.72495	-9.94468	-3.25775	-85.1748	-0.922835	14.369	-3.90901	-9.88691	-8.62637	0
0.8220	-2.75977	-10.861	-6.00366	-88.2174	0.299298	14.6956	1.27931	-19.0415	-7.40767	0
0.8227	-0.317215	-2.9254	-2.03696	-14.6719	1.22213	10.7301	3.10944	-38.8751	-8.62637	-0.319972
0.8233	-0.919923	3.17759	3.45487	96.3985	1.22213	6.15815	2.80738	-47.7307	-9.54407	-0.319972
0.8240	-6.12224	-0.184939	-2.03696	123.258	0.598595	1.58619	-1.15494	-43.4561	-6.18896	-0.639944
0.8247	-8.24758	-2.62277	1.32108	73.8159	1.52143	-0.8864	-3.90901	-27.8896	-0.69011	-0.959916
0.8253	-3.07698	-0.487567	14.1377	72.2946	2.74356	0.653137	0.373133	-0.11957	0.528595	-0.319972
0.8260	-0.919923	-6.59056	10.7796	93.3559	1.52143	0.653137	2.50532	24.295	-3.74421	0
0.8267	-1.83985	-8.1121	-1.42829	26.521	0.922835	-6.06484	-0.248755	28.5697	-5.57961	-0.319972
0.8273	-3.36248	6.83434	-8.44524	-9.48265	0.922835	-13.3893	-1.75906	12.6968	-3.44321	-0.319972
0.8280	-5.80503	14.7699	-12.1076	76.5711	-1.22213	-14.6023	-3.60695	-2.25688	-4.35356	-0.319972
0.8287	-5.51954	10.8021	-10.5825	137.304	-3.04286	-12.4563	-4.21107	0.493224	-6.18896	-0.319972
0.8293	-3.67969	10.8021	-4.47854	115.939	-2.74356	-5.45836	2.20326	0.792148	-6.79831	0
0.8300	-1.83985	7.448	-6.61578	64.0628	-2.74356	-1.49288	3.10944	-6.83041	-7.09932	-0.639944
0.8307	-1.83985	0.126095	-12.4119	-13.4549	-3.3671	-3.03242	-4.51313	-9.27411	-5.57961	-0.959916
0.8313	-1.83985	6.22909	-4.78287	-61.6795	-0.922835	0.0466527	-2.38094	-8.96772	-2.82651	-0.639944
0.8320	-0.919923	6.83434	3.76266	-34.5162	1.22213	5.55167	5.2594	-8.66132	-1.3068	0
0.8327	-1.52263	-10.5583	2.54187	1.18322	0.598595	7.37112	10.1279	-6.22509	-3.74421	0
0.8333	1.52263	-16.0477	-2.03696	2.7214	1.82073	6.43807	16.5422	6.29235	-4.05256	0
0.8340	2.72805	-6.59056	-8.74957	28.3465	1.82073	-0.279916	15.0142	25.5132	-3.13486	0
0.8347	-1.23714	-1.09282	-2.34129	63.7586	0	-7.60438	7.39159	22.7705	-4.35356	-0.319972
0.8353	-2.15706	1.95867	13.8333	48.1908	-0.299298	-5.13179	7.08953	3.54225	-3.44321	0
0.8360	-1.23714	0.428723	20.8503	52.163	-0.922835	3.40564	6.7697	5.06676	-5.57961	0
0.8367	1.20542	-4.15272	24.2083	97.0239	0	7.9776	4.93957	19.714	-9.23572	0
0.8373	3.04526	-7.80948	21.1546	87.5582	-0.299298	6.15815	0.675193	24.6014	-7.09932	0
0.8380	1.52263	-11.7773	9.86316	41.176	-2.44426	0.653137	-9.09734	24.6014	-2.82651	0
0.8387	1.20542	-12.0799	2.23408	16.751	-1.84567	-4.24539	-13.0597	21.5449	-0.389104	0
0.8393	2.72805	-7.80948	1.62541	8.82343	-0.922835	-2.09937	-11.2295	7.20407	0.220248	0
0.8400	3.33075	-1.40386	1.01329	9.12769	-2.44426	2.79916	-14.8898	-12.6295	0.528595	-0.319972
0.8407	0	4.09388	-4.1742	-3.38062	-5.18783	0.979706	-20.6822	-24.2278	2.665	-0.319972
0.8413	-3.96518	7.448	-6.92012	-37.2545	-6.11066	-3.03242	-18.248	-29.7205	6.9378	0.319972
0.8420	-2.15706	9.88584	-3.25775	-42.4437	-3.6664	-2.09937	-8.47545	-39.4879	8.15651	0
0.8427	1.20542	5.01017	1.32108	-19.2527	-4.26499	-4.24539	0.071073	-45.287	2.966	-0.319972
0.8433	4.88511	-3.23643	4.067	-35.7332	-6.70926	-11.5699	7.99571	-33.0759	0.220248	0
0.8440	7.61315	-7.50685	6.20079	-79.6813	-6.70926	-17.3548	11.656	-9.27411	1.7473	0
0.8447	4.56789	-5.37164	7.42158	-97.9874	-6.40996	-23.7462	5.56146	8.42218	2.966	-0.319972
0.8453	-0.919923	1.34501	6.50858	-88.8428	-6.70926	-24.6793	1.27931	15.1405	3.57536	-0.319972
0.8460	-2.75977	2.2613	1.62541	-86.0876	-6.11066	-17.9613	7.69365	16.0522	2.966	0
0.8467	-1.52263	-1.09282	-3.56208	-120.874	-5.18783	-13.9958	10.7498	15.7458	3.8837	-0.319972
0.8473	-3.36248	0.428723	-8.14091	-130.644	-5.81136	-6.9979	0.675193	10.5595	5.10241	-0.319972
0.8480	-4.59961	1.34501	-12.1076	-43.6777	-3.04286	10.7301	-0.852875	7.81686	5.41075	-0.319972
0.8487	-0.634429	-1.09282	-12.4119	50.0163	3.04286	25.0525	13.4861	10.2531	4.49305	0
0.8493	2.44255	-1.70648	-10.8868	57.9608	4.88853	14.0891	21.7306	4.15504	0.528595	-0.319972
0.8500	6.69323	-0.790195	-16.6864	32.0145	5.48712	-4.85188	24.1648	5.37316	-1.3068	0
0.8507	7.61315	-2.32015	-25.8406	18.2892	6.70926	-2.37929	17.1464	12.084	0.220248	0
0.8513	0.602708	-5.37164	-12.4119	3.63417	5.48712	4.61861	-4.51313	2.32413	0.8296	-0.319972
0.8520	-3.96518	-5.06061	7.11724	22.853	7.93139	4.61861	-10.9275	-3.78139	-0.389104	0
0.8527	-2.44255	-3.84169	1.01329	97.9367	9.75212	7.65103	6.16558	4.76036	-5.88061	0
0.8533	-0.919923	-2.00911	-9.3617	140.347	5.48712	9.79706	16.2402	9.64777	-8.32537	-0.959916
0.8540	-1.52263	0.428723	-12.4119	100.979	2.44426	16.2351	10.1279	2.92945	-4.05256	-1.27989
0.8547	-0.634429	1.64764	-15.77	50.9291	0.922835	26.592	0.977253	-9.88691	-0.998456	-0.319972
0.8553	1.80812	4.39651	-7.53224	28.3465	0.922835	25.9855	-4.21107	-20.2596	-0.69011	0.319972
0.8560	1.52263	7.448	7.42158	13.7084	2.14497	25.379	-9.3994	-25.7523	-1.3068	0
0.8567	0.285493	8.66692	11.3917	24.6955	3.04286	27.805	-16.4179	-7.7496	-2.52551	0
0.8573	-0.919923	7.448	6.50858	64.6713	4.56429	23.233	-18.55	29.175	-2.21716	0
0.8580	-1.83985	6.83434	3.15054	77.7882	4.56429	18.0546	-14.8898	31.0059	-1.60781	0
0.8587	-2.15706	4.39651	4.067	48.7993	5.48712	18.3345	-12.1357	4.76036	-0.998456	-0.319972
0.8593	-2.15706	-1.40386	5.89645	16.1425	11.2985	19.874	-10.0035	-2.56327	-0.998456	-0.319972
0.8600	-0.317215	-3.23643	4.67566	4.54694	17.0849	16.8416	-10.0035	3.54225	-0.389104	0
0.8607	-0.919923	-0.487567	-1.1205	6.37248	16.1621	11.01	-17.9459	6.29235	1.13795	0
0.8613	-1.83985	4.09388	-2.95341	9.12769	14.0421	8.58409	-20.6822	7.20407	2.05565	-0.319972
0.8620	0.285493	5.61542	2.54187	8.82343	13.1192	10.1236	-7.56927	5.98595	0.8296	-0.319972
0.8627	0.919923	-0.487567	6.20079	3.02566	9.15352	9.51714	0.977253	3.54225	-0.998456	0
0.8633	2.44255	-5.06061	5.28779	-2.1636	3.34216	5.55167	-2.98506	1.71134	-1.3068	-0.319972
0.8640	0.919923	-3.53906	-0.511833	-0.946575	-3.96569	-0.8864	-9.09734	2.32413	-0.0807575	-0.319972
0.8647	-3.96518	-1.09282	-4.78287	-0.0338062	-9.45282	-8.81735	-5.43708	4.76036	0.528595	0
0.8653	-0.317215	1.64764	1.32108	-3.68488	-8.25563	-6.9979	9.52378	4.45397	0.528595	-0.319972
0.8660	4.25068	1.95867	5.28779	-12.5421	-6.40996	3.40564	16.8443	2.32413	-0.0807575	0
0.8667	3.04526	1.04238	3.45487	-21.7036	-5.48712	6.43807	16.5422	3.54225	0.8296	0
0.8673	-0.634429	2.56393	-1.1205	-25.0504	-3.3671	0.979706	13.184	7.51046	3.27435	-0.319972
0.8680	-3.96518	4.69914	-6.31145	-24.7462	-1.84567	-3.91882	4.33545	9.34137	5.41075	-0.319972
0.8687	-2.15706	7.448	-2.95341	-19.2527	-2.44426	-4.24539	-1.75906	8.72858	5.71176	0
0.8693	-0.634429	9.58321	0.100292	-14.9762	-6.70926	-3.63891	-2.07888	8.12326	3.27435	0
0.8700	0.285493	12.9373	-1.1205	-15.9058	-7.33279	-0.279916	0.373133	4.15504	2.05565	0
0.8707	4.25068	18.4351	-0.2075	-25.3547	-2.14497	6.15815	2.80738	-7.44321	3.27435	0.319972
0.8713	4.88511	15.6862	4.37133	-37.2545	-0.299298	10.1236	1.9012	-15.3796	3.8837	0
0.8720	3.96518	1.95867	10.1709	-26.2675	-1.52143	11.6165	1.27931	-11.105	3.27435	0
0.8727	4.88511	-11.7773	9.25449	-5.52732	-1.84567	7.37112	1.58137	-4.08778	0.8296	0
0.8733	6.69323	-11.7773	1.62541	10.0405	-0.922835	0.326569	3.42927	-0.11957	-0.998456	0
0.8740	5.77331	-1.40386	-5.69933	17.968	0.922835	-0.559832	5.2594	0.493224	-1.3068	0
0.8747	2.72805	8.06166	-14.2449	-3.98914	0.598595	0.0466527	1.9012	-1.95048	-0.998456	-0.319972
0.8753	2.12534	13.2484	-20.9575	-22.9206	-0.922835	-0.559832	0.071073	-8.056	-0.69011	-0.319972
0.8760	3.64797	15.0809	-13.3284	4.54694	-2.44426	1.25962	5.56146	-16.2914	-3.74421	0
0.8767	3.96518	14.7699	7.42158	30.189	-3.6664	-1.7728	5.2594	-11.105	-4.96292	0
0.8773	2.44255	9.58321	36.1084	20.1147	-3.3671	-7.60438	2.20326	5.67955	-1.91616	-0.319972
0.8780	3.04526	15.3836	54.4203	6.06822	-1.84567	-9.70375	4.93957	15.4469	-0.0807575	-0.319972
0.8787	5.48781	20.2676	51.0622	1.80863	-1.84567	-10.0303	6.16558	18.4959	-0.389104	-0.319972
0.8793	6.09052	-9.33943	46.4869	-1.25083	-1.84567	-8.49078	6.16558	17.5767	-2.21716	0
0.8800	3.33075	-37.1055	27.2586	-2.1636	-0.922835	-6.9979	5.86352	9.03498	-2.21716	0
0.8807	-6.72495	-27.6484	-9.3617	-2.77211	-1.22213	-6.67133	-1.15494	-2.25688	-0.389104	0
0.8813	-15.5752	-5.67427	-23.3991	-4.91881	-1.84567	-4.85188	-7.26721	-10.4997	0.528595	-0.319972
0.8820	-11.6101	14.4673	-21.8739	-3.98914	-0.922835	-1.7728	-2.07888	-18.7351	0.528595	-0.319972
0.8827	-3.36248	25.757	-25.5363	-5.83158	-0.623537	0.326569	2.20326	-7.44321	-0.0807575	0
0.8833	4.25068	17.8214	-25.8406	-12.5421	-0.623537	-2.09937	1.27931	23.6822	-0.389104	-0.319972
