MR32 ASCII
Name	KneeFJC1
Frequency	1500
Date	28-08-2015 08:51:31
"Time,s"	"RT TIB.ANT.,uV"	"RT MED. GASTRO,uV"	"RT LAT. GASTRO,uV"	"RT BICEPS FEM.,uV"	"RT VMO,uV"	"RT VLO,uV"	"RT RECTUS FEM.,uV"	"RT SOLEUS,uV"	"RT SEMITEND.,uV"	"Channel 12,uV"
0.0000	-1.7923	-0.181122	-2.00151	-1.16492	-2.62057	-2.26908	-3.75425	-34.3507	-1.06481	-9820.91
0.0007	-1.7923	5.31292	0.134892	0.965219	0.714702	1.09672	1.15309	-38.014	0.461417	-10175.3
0.0013	-2.77806	4.69409	-1.69527	1.26477	1.98528	2.00436	3.27156	-33.1357	0.159721	-9546.07
0.0020	-2.77806	0.120748	-3.83168	-0.249626	0.714702	0.79418	1.44807	-27.6315	0.159721	-9901.39
0.0027	-3.04691	-1.4037	-1.69527	-2.39641	-1.66764	-2.26908	-2.52071	-24.5941	-0.141974	-9828.86
0.0033	-1.52345	5.6148	1.9687	-2.99551	-1.66764	-2.57163	-3.13748	-17.5619	-1.06481	-9800.23
0.0040	1.25461	13.8559	5.02019	-1.48111	1.03235	0.491635	0.536321	-8.09984	-0.141974	-9821.86
0.0047	1.52345	9.5844	5.32278	-0.565818	1.66764	1.70181	2.35981	-4.14196	0.461417	-9821.54
0.0053	0.89615	0.422619	2.2713	-0.865369	0.158823	0.18909	1.15309	-4.14196	-0.141974	-9810.73
0.0060	-0.627305	0.120748	-5.053	-2.08021	-2.62057	-2.57163	-2.22573	-6.88487	-1.06481	-9801.82
0.0067	-1.7923	5.91667	-7.1894	-2.08021	-2.30293	-2.26908	-2.52071	-5.96443	-0.461417	-9920.79
0.0073	0.35846	8.36182	-3.83168	-0.565818	0.476468	0.79418	0.831297	-1.08612	-0.141974	-9634.5
0.0080	1.25461	-0.482993	-2.00151	0.349476	1.03235	1.39927	2.06484	0.736349	-0.141974	-9865.76
0.0087	-0.268845	-21.2366	-1.69527	-0.249626	-0.158823	-0.151272	1.44807	0.128861	0.159721	-10423.1
0.0093	-3.04691	-35.2736	-3.52543	-2.08021	-2.62057	-2.57163	-0.992194	-2.61404	-0.141974	-5861.88
0.0100	-3.67421	-30.0965	-4.44051	-2.08021	-2.62057	-2.57163	-1.90394	-3.82902	-0.763113	3.18096
0.0107	-1.7923	-20.014	-1.38903	0.0499251	0.714702	1.09672	1.44807	5.32012	0.159721	105.29
0.0113	-0.268845	-13.3125	2.2713	0.965219	2.62057	2.3069	3.88833	13.8618	1.06481	-274.199
0.0120	-0.627305	-6.89775	3.49262	0.0499251	0.714702	0.79418	2.35981	17.5251	0.461417	81.7508
0.0127	-2.4196	-4.15072	1.66246	-1.48111	-1.34999	-1.664	-0.697217	29.1226	-0.141974	8.5886
0.0133	-1.7923	-6.294	3.18638	-1.16492	-0.476468	-1.05891	-1.31399	31.258	0.159721	-20.0401
0.0140	1.52345	-8.42219	5.93527	0.665668	1.98528	1.39927	2.06484	25.4593	0.461417	1.59048
0.0147	2.77806	-7.51658	-0.780189	0.665668	1.98528	1.70181	2.35981	20.268	0.159721	-0.636193
0.0153	0.627305	-7.19962	-9.32581	-0.565818	0.714702	-0.151272	-0.375425	-16.347	-0.461417	-0.954289
0.0160	-1.52345	-9.04103	-9.32581	-1.78066	-1.66764	-2.26908	-2.81568	-47.4761	-1.06481	-0.954289
0.0167	-2.15076	-8.42219	-5.053	-1.78066	-2.30293	-2.26908	-2.81568	-33.7432	-1.06481	-0.636193
0.0173	-0.268845	-7.81845	-0.167704	-0.249626	0.158823	0.79418	0.536321	-18.1694	-0.141974	-0.636193
0.0180	2.15076	-9.94664	4.10511	0.665668	1.98528	2.60945	2.97658	-16.034	0.763113	-0.636193
0.0187	1.52345	-6.59588	5.62903	0.0499251	1.34999	1.09672	1.74304	-13.8986	0.461417	-0.636193
0.0193	-1.16499	-1.10183	2.57754	-1.48111	-1.34999	-1.96654	-1.90394	-13.6041	-1.06481	-0.318096
0.0200	-1.7923	0.72449	0.441135	-1.48111	-1.34999	-1.664	-2.52071	-9.02028	-1.06481	-0.318096
0.0207	0	1.6452	1.35622	0.0499251	1.34999	1.39927	1.44807	4.10515	0.159721	-0.318096
0.0213	0.89615	3.47151	0.747377	0.965219	1.98528	2.60945	2.97658	13.2543	0.763113	-0.318096
0.0220	-0.268845	3.78848	0.134892	0.665668	0.714702	1.39927	1.74304	7.76848	0.763113	-0.318096
0.0227	-3.31575	1.34332	-0.780189	-1.16492	-1.66764	-1.36145	-0.992194	-2.61404	-0.141974	-0.318096
0.0233	-3.31575	0.72449	-1.38903	-1.78066	-1.98528	-1.664	-1.90394	-5.96443	-0.763113	-0.318096
0.0240	0	2.5659	-0.167704	0.349476	1.34999	1.70181	1.44807	-12.3707	-0.141974	-0.636193
0.0247	1.25461	2.5659	1.05362	1.58096	2.85881	4.46253	4.1833	-20.0103	0.763113	-0.954289
0.0253	-0.627305	2.24894	0.134892	0.349476	1.03235	2.00436	2.06484	-18.7953	0.461417	-0.636193
0.0260	-3.04691	1.6452	-2.30411	-2.08021	-1.98528	-2.87417	-2.81568	-15.4265	-0.141974	-0.318096
0.0267	-3.04691	1.6452	-2.30411	-1.78066	-1.98528	-2.57163	-2.52071	-11.4686	-0.461417	-0.318096
0.0273	-0.268845	3.78848	-0.167704	0.665668	1.34999	1.09672	1.74304	-5.66989	-0.461417	-0.318096
0.0280	0.89615	4.69409	0.441135	0.965219	2.30293	2.3069	2.97658	-2.00655	0.159721	-0.318096
0.0287	-0.268845	3.16964	-1.08279	-0.249626	0.158823	0.491635	0.536321	-2.30109	0.159721	-0.318096
0.0293	-1.7923	1.34332	-2.61035	-1.78066	-2.30293	-1.96654	-2.81568	-4.14196	-1.06481	-0.318096
0.0300	-0.89615	3.47151	-0.473947	-1.48111	-0.794114	-1.05891	-1.90394	-1.39906	-0.763113	-0.318096
0.0307	1.25461	5.91667	4.71394	0.349476	1.66764	2.00436	1.74304	5.32012	0.461417	0
0.0313	2.15076	4.69409	7.15659	0.0499251	1.34999	1.39927	2.06484	3.49766	0.461417	-0.318096
0.0320	0.35846	1.6452	6.54411	-0.865369	-0.158823	-1.05891	-0.697217	-5.35694	0.159721	-0.318096
0.0327	-2.77806	-1.10183	7.15659	-1.48111	-1.98528	-2.57163	-3.13748	-9.62777	-0.763113	0
0.0333	-3.04691	-2.92815	7.45919	-0.865369	-1.11176	-1.664	-1.90394	-8.41279	-0.461417	0
0.0340	0	-2.92815	1.35622	0.665668	1.66764	1.09672	1.74304	-4.74945	0.763113	-0.318096
0.0347	1.88191	-5.97704	-3.52543	0.665668	2.30293	2.3069	2.65479	8.98346	0.461417	-0.636193
0.0353	0.89615	-9.3429	-2.61035	-0.249626	1.03235	1.70181	1.74304	30.9635	-0.141974	-0.636193
0.0360	-1.52345	-4.76956	-0.473947	-1.16492	-1.11176	-1.05891	-1.31399	41.9351	-0.141974	-0.318096
0.0367	-1.52345	2.86777	1.35622	-1.16492	-0.794114	-1.664	-1.90394	47.1264	-0.461417	0
0.0373	1.25461	7.74298	1.05362	0.0499251	1.34999	0.79418	1.15309	35.2343	-0.141974	-0.318096
0.0380	0.35846	12.6333	-3.21919	0.665668	1.66764	1.39927	2.35981	-17.5619	0.461417	-0.318096
0.0387	-1.7923	9.5844	-4.44051	-0.249626	0.476468	-0.151272	1.44807	-59.6811	0.159721	-0.318096
0.0393	-2.4196	-1.4037	-0.780189	-2.08021	-1.98528	-2.57163	-1.90394	-52.0599	-0.763113	0
0.0400	-1.52345	-2.02253	3.18638	-1.78066	-1.98528	-2.57163	-2.52071	-30.6874	-0.763113	0
0.0407	0.35846	5.91667	4.71394	0.0499251	0.476468	-0.756362	0.214528	-17.5619	0.159721	0
0.0413	2.4196	3.78848	5.32278	0.965219	1.34999	-0.756362	2.06484	-11.4686	0.763113	0.318096
0.0420	3.04691	-1.4037	4.4077	0.349476	0.476468	-3.47926	1.15309	-15.7395	0.763113	0.318096
0.0427	-1.7923	-0.181122	1.66246	-1.48111	-1.34999	-6.54253	-1.90394	-26.1036	0.159721	0.318096
0.0433	-4.83921	-2.92815	-7.1894	-1.16492	-1.11176	-6.84507	-2.52071	-16.6599	-0.141974	0
0.0440	-1.52345	-6.89775	-15.4288	0.665668	1.66764	-3.47926	1.15309	33.3934	0.461417	-0.318096
0.0447	0	-3.23002	-10.2409	1.26477	2.62057	-1.96654	2.97658	67.8914	0.763113	-0.318096
0.0453	-1.16499	0.120748	-1.08279	0.349476	1.34999	-3.17672	1.44807	31.258	0.763113	-0.318096
0.0460	-2.4196	-3.54698	-1.69527	-1.48111	-1.34999	-5.93744	-1.60896	-9.62777	-0.461417	-0.318096
0.0467	-1.7923	-7.19962	-3.52543	-2.08021	-1.66764	-6.23998	-3.13748	-0.773167	-1.06481	-0.318096
0.0473	0.627305	-6.89775	-2.30411	-0.865369	1.66764	-1.05891	0.831297	8.98346	-0.461417	-0.318096
0.0480	0.627305	-3.23002	-0.780189	-1.78066	2.85881	4.76508	3.59335	-2.30109	-0.763113	0
0.0487	-1.7923	3.47151	0.134892	-2.69596	0.476468	5.97526	1.44807	-8.09984	-1.3665	0
0.0493	-3.94306	5.6148	-1.38903	-2.39641	-2.62057	1.39927	-2.22573	-5.35694	-0.763113	0
0.0500	-3.31575	2.86777	-3.21919	-0.865369	-2.30293	-0.453817	-1.90394	-1.6936	-0.141974	0
0.0507	0.35846	3.78848	-2.91659	0.965219	0.476468	2.3069	1.44807	4.10515	0.159721	0
0.0513	1.88191	5.31292	-2.91659	0.965219	1.34999	3.21454	1.74304	3.18471	0.159721	0
0.0520	1.25461	2.86777	-3.21919	0.349476	0.158823	1.70181	0.214528	-10.8612	0.461417	0
0.0527	0	0.120748	-3.83168	-0.865369	-1.34999	-0.151272	-2.22573	-25.4961	0.461417	0.318096
0.0533	-0.627305	-2.02253	-1.69527	-0.865369	-1.11176	0.79418	-1.90394	-33.4303	-0.141974	0
0.0540	0.35846	-4.45259	1.66246	0.665668	1.34999	4.76508	2.06484	-25.2016	0.461417	-0.954289
0.0547	1.25461	-4.76956	-0.473947	0.965219	2.30293	5.37017	3.59335	18.4455	1.06481	-0.636193
0.0553	0.35846	-1.10183	-3.83168	-0.565818	0.158823	1.70181	0.536321	48.0468	0.461417	0
0.0560	-3.04691	2.86777	-0.167704	-2.08021	-2.62057	-1.36145	-3.43245	26.3797	-0.763113	-0.318096
0.0567	-3.94306	4.39222	5.62903	-1.78066	-1.34999	0.18909	-2.22573	8.37597	-1.06481	0
0.0573	-0.89615	9.5844	5.32278	0.0499251	0.714702	2.60945	1.15309	8.37597	-0.141974	0
0.0580	0.627305	16.6029	3.18638	0.665668	1.03235	2.00436	1.15309	5.32012	-0.461417	-0.318096
0.0587	-0.89615	13.8559	2.2713	-0.249626	0.158823	0.491635	-0.375425	3.7922	-1.06481	0
0.0593	-2.15076	1.34332	-0.167704	-1.78066	-1.34999	-1.36145	-1.90394	6.84805	-1.06481	0
0.0600	-1.16499	-6.59588	-1.38903	-1.48111	-1.11176	-1.05891	-1.90394	6.5351	-0.461417	-0.318096
0.0607	-0.268845	-5.67517	1.05362	-0.249626	0.476468	1.09672	0.536321	1.36225	0.461417	0
0.0613	-1.7923	-2.62628	3.49262	0.965219	1.66764	2.3069	2.35981	-2.92699	0.461417	0
0.0620	-3.94306	-0.799957	3.49262	0.349476	0.714702	1.70181	1.44807	-3.53448	0.159721	0
0.0627	-3.94306	2.24894	1.35622	-1.16492	-1.98528	-0.756362	-1.90394	-3.53448	-0.461417	0
0.0633	-1.7923	7.44111	0.134892	-1.48111	-1.66764	-1.05891	-1.90394	-9.94071	-0.763113	0
0.0640	0.89615	11.4107	-0.167704	0.0499251	0.714702	1.09672	1.74304	-22.1457	-0.141974	0
0.0647	0.89615	9.5844	-0.780189	0.349476	1.03235	1.70181	2.35981	-29.4724	0.159721	0
0.0653	0	2.86777	0.134892	-0.249626	0.158823	0.491635	0.536321	-28.8649	0.159721	0
0.0660	-2.15076	-5.07143	0.747377	-1.48111	-1.98528	-1.96654	-2.22573	-15.132	-0.763113	0
0.0667	-3.31575	-8.42219	0.134892	-1.48111	-1.98528	-1.664	-2.52071	16.3101	-0.763113	0
0.0673	-2.15076	-3.84885	-0.473947	0.0499251	0.714702	1.39927	1.15309	32.7859	0.461417	0
0.0680	-1.16499	1.6452	-0.780189	0.965219	1.98528	2.60945	3.59335	22.7164	0.763113	0
0.0687	-0.89615	-0.482993	-1.08279	-0.249626	0.158823	0.491635	1.44807	15.9972	0.159721	0
0.0693	-1.16499	-4.45259	-4.13792	-1.78066	-2.30293	-2.26908	-2.81568	15.7026	-0.763113	0
0.0700	-1.16499	-5.3733	-4.13792	-1.16492	-1.11176	-1.05891	-2.22573	21.5014	-0.763113	-0.318096
0.0707	-0.268845	-5.07143	-0.167704	0.665668	1.34999	1.70181	2.06484	37.3697	0.461417	0
0.0713	0.35846	-2.62628	-0.167704	1.26477	1.98528	2.3069	3.27156	33.3934	1.06481	0.318096
0.0720	-0.89615	1.04145	-1.69527	0.349476	1.34999	1.09672	1.74304	5.02558	0.159721	-0.318096
0.0727	-3.67421	-0.482993	0.134892	-1.16492	-1.11176	-1.96654	-1.31399	-2.30109	-0.461417	-0.318096
0.0733	-3.67421	-1.4037	2.57754	-1.16492	-1.66764	-1.36145	-1.90394	19.053	-0.141974	0
0.0740	-1.16499	3.78848	4.71394	0.665668	1.03235	1.70181	1.15309	32.1785	0.159721	0
0.0747	-0.627305	6.5355	5.02019	0.665668	1.66764	1.70181	2.35981	16.3101	0.461417	0
0.0753	-1.7923	4.69409	3.18638	-0.865369	-0.476468	-0.453817	-0.375425	-16.347	-0.461417	-0.318096
0.0760	-3.04691	1.34332	1.9687	-2.39641	-2.30293	-1.96654	-2.52071	-30.6874	-0.763113	0
0.0767	-2.77806	-1.4037	-0.473947	-1.78066	-1.11176	-1.05891	-1.31399	-23.6736	-0.461417	0
0.0773	-0.268845	-1.10183	-2.91659	0.349476	1.34999	1.70181	1.44807	-16.034	-0.141974	0
0.0780	0.627305	0.120748	-2.61035	0.665668	1.98528	1.70181	1.74304	-10.2353	0.159721	0
0.0787	-0.268845	0.72449	-2.61035	-0.565818	-0.158823	-0.756362	-0.375425	-9.33323	0.159721	-0.318096
0.0793	-1.7923	1.94707	-4.44051	-2.08021	-2.62057	-2.87417	-3.75425	-11.1557	-0.763113	-0.318096
0.0800	-1.52345	4.99596	-4.74676	-1.48111	-1.66764	-1.664	-2.52071	-4.4365	-0.141974	0
0.0807	0.627305	6.83737	-4.74676	0.349476	1.34999	1.09672	1.74304	-2.61404	0.763113	0.318096
0.0813	1.52345	4.09035	-4.44051	0.665668	1.66764	1.09672	2.35981	-10.5482	0.159721	0
0.0820	0.89615	3.78848	-0.473947	-0.249626	0.158823	-0.151272	0.831297	-17.2674	-0.461417	-0.318096
0.0827	-1.52345	7.74298	3.49262	-1.48111	-1.66764	-1.36145	-1.60896	-24.2811	-0.461417	0
0.0833	-0.89615	7.74298	3.49262	-1.16492	-0.794114	-0.453817	-0.375425	-23.0661	-0.461417	0
0.0840	2.4196	2.24894	0.747377	0.349476	1.34999	1.39927	2.06484	-12.9966	0.461417	-0.318096
0.0847	3.40537	-5.97704	-1.69527	0.349476	1.34999	2.3069	2.06484	5.32012	0.461417	-0.318096
0.0853	1.25461	-9.94664	-1.08279	0.0499251	0.158823	2.00436	1.15309	30.3376	0.159721	-0.636193
0.0860	-3.67421	-5.3733	1.35622	-1.48111	-1.98528	-1.36145	-1.31399	27.9076	-0.461417	-0.318096
0.0867	-6.09382	0.120748	3.18638	-1.16492	-1.66764	-1.96654	-1.60896	5.32012	-0.141974	0
0.0873	-3.94306	2.5659	3.79886	0.0499251	1.03235	1.09672	1.74304	-4.74945	0.763113	0
0.0880	-1.52345	4.39222	4.10511	0.349476	1.98528	2.3069	3.59335	-4.14196	0.159721	-0.318096
0.0887	-1.7923	3.47151	2.2713	0.0499251	-0.476468	-0.151272	0.831297	-2.61404	-0.461417	-0.318096
0.0893	-3.67421	0.422619	-0.473947	-1.78066	-2.93822	-2.87417	-3.13748	-2.92699	-1.06481	0
0.0900	-3.04691	0.72449	-0.473947	-1.48111	-1.34999	-1.664	-2.52071	-1.6936	-0.763113	0
0.0907	-0.89615	2.5659	1.35622	0.349476	1.34999	1.09672	0.536321	0.736349	0.159721	0
0.0913	-0.268845	2.5659	1.9687	0.665668	1.66764	1.70181	2.06484	1.65679	0.763113	0
0.0920	-0.89615	1.6452	1.05362	-0.249626	0.158823	-0.453817	0.831297	0.128861	0.159721	0
0.0927	-2.77806	0.120748	-1.38903	-1.48111	-1.98528	-2.87417	-2.81568	-2.92699	-0.763113	0
0.0933	-2.15076	0.120748	-1.08279	-0.865369	-0.794114	-1.36145	-2.22573	-2.00655	-0.763113	-0.318096
0.0940	0	0.422619	2.88378	0.965219	1.98528	2.00436	2.06484	1.0493	0.159721	-0.318096
0.0947	0	-2.62628	4.10511	0.965219	2.62057	2.00436	2.97658	1.0493	0.159721	-0.318096
0.0953	0.35846	-6.59588	1.9687	-0.249626	0.476468	-0.151272	1.44807	-0.165679	-0.141974	0
0.0960	0.35846	-9.64477	0.134892	-1.78066	-2.62057	-2.26908	-1.90394	-2.61404	-0.461417	0.318096
0.0967	0.35846	-13.6144	0.441135	-2.08021	-1.98528	-1.96654	-1.90394	-2.92699	-0.461417	0
0.0973	1.52345	-14.2181	0.134892	-0.249626	0.476468	0.491635	0.831297	0.44181	0.159721	-0.318096
0.0980	0.89615	-4.76956	1.05362	0.665668	1.03235	1.09672	2.06484	0.44181	0.461417	0
0.0987	0	9.28253	2.88378	-0.565818	0.158823	-0.453817	0.831297	-5.35694	0.159721	0
0.0993	-0.89615	16.6029	1.66246	-2.08021	-1.66764	-2.57163	-2.52071	-11.4686	-0.763113	0
0.1000	-0.268845	16.301	1.35622	-0.565818	-1.11176	-1.36145	-0.992194	-12.9966	-0.141974	0
0.1007	1.52345	10.49	0.441135	0.965219	1.03235	1.70181	2.65479	-15.7395	1.06481	0.318096
0.1013	1.52345	-0.799957	-3.83168	0.349476	1.98528	2.3069	2.97658	-20.3048	1.38425	0.318096
0.1020	-0.268845	-2.02253	-6.88316	-0.865369	0.158823	0.18909	0.536321	-9.33323	-0.141974	0
0.1027	-3.67421	7.44111	-9.62841	-2.39641	-2.93822	-2.87417	-3.43245	23.9314	-1.3665	-0.318096
0.1033	-5.46651	11.1088	-6.57692	-1.48111	-1.34999	-1.664	-2.81568	62.0926	-0.763113	-0.318096
0.1040	-3.67421	9.88627	-0.780189	0.349476	1.03235	0.79418	0.831297	93.8293	0.159721	0
0.1047	0	7.13924	-1.08279	0.665668	1.34999	0.79418	1.74304	127.701	-0.141974	-0.318096
0.1053	0.35846	5.91667	-1.38903	-0.249626	-0.158823	-0.756362	0.214528	104.506	-0.461417	-0.318096
0.1060	-3.31575	5.6148	-1.69527	-1.78066	-2.30293	-2.57163	-2.22573	-0.165679	-0.763113	0
0.1067	-3.94306	-3.54698	-4.13792	-1.78066	-1.11176	-1.36145	-0.992194	-52.3544	0.159721	0
0.1073	-1.52345	-11.7881	0.441135	0.349476	1.98528	2.00436	2.35981	-16.034	0.763113	0
0.1080	-1.52345	-5.97704	6.85035	0.965219	1.98528	2.00436	2.97658	21.7959	0.763113	0
0.1087	-1.52345	-0.181122	5.62903	-0.565818	-0.476468	-0.453817	0.214528	32.7859	0.159721	0.318096
0.1093	-2.4196	-2.3244	1.35622	-2.08021	-1.98528	-1.96654	-2.81568	23.0293	-1.06481	0
0.1100	-1.7923	-1.10183	-0.167704	-1.78066	-0.794114	-1.05891	-1.90394	-12.0761	-0.763113	0
0.1107	-0.268845	4.39222	-0.167704	-0.249626	1.03235	0.79418	1.74304	-76.4699	0.763113	0.318096
0.1113	0	6.83737	-0.473947	0.665668	1.34999	1.39927	2.65479	-105.151	0.763113	0
0.1120	0.35846	6.21854	-0.473947	0.0499251	0.476468	0.18909	0.831297	-71.5916	-0.141974	0
0.1127	-0.89615	3.47151	-0.167704	-1.48111	-1.34999	-2.26908	-1.31399	-43.4998	-0.461417	0
0.1133	-1.52345	3.16964	2.57754	-0.865369	-0.794114	-1.05891	-0.697217	-36.7991	-0.141974	-0.318096
0.1140	-0.627305	5.6148	4.71394	0.665668	1.34999	1.39927	1.44807	-31.9023	0.763113	0
0.1147	0.35846	8.36182	3.18638	0.965219	2.30293	2.00436	2.65479	-23.0661	0.461417	0
0.1153	-0.627305	10.807	1.9687	-0.565818	0.476468	0.491635	1.15309	-14.819	-0.141974	-0.318096
0.1160	-1.7923	8.36182	0.441135	-2.39641	-2.62057	-2.26908	-2.22573	-15.132	-0.763113	0
0.1167	0	1.6452	-0.473947	-1.48111	-1.11176	-0.756362	-1.31399	-13.6041	-0.461417	-0.318096
0.1173	1.52345	1.34332	-0.780189	0.0499251	1.66764	2.91199	1.74304	-8.70733	-0.141974	-0.636193
0.1180	1.52345	4.09035	-1.69527	-0.249626	1.66764	2.3069	2.06484	-4.14196	0.461417	0
0.1187	0.89615	-3.23002	-1.38903	-0.565818	0.714702	-0.151272	0.831297	-0.773167	0.159721	0.318096
0.1193	-1.52345	-12.6937	-1.69527	-1.48111	-1.66764	-2.26908	-2.52071	-2.92699	-1.06481	-0.318096
0.1200	-1.52345	-10.2485	0.134892	-1.16492	-1.11176	-1.36145	-2.22573	-8.09984	-0.763113	-0.318096
0.1207	-0.268845	-2.62628	3.18638	0.965219	1.34999	1.39927	1.74304	-9.62777	0.461417	0
0.1213	-0.268845	0.72449	3.49262	0.965219	1.98528	2.00436	2.97658	-10.5482	0.461417	0
0.1220	-0.268845	0.422619	0.747377	-0.249626	0.714702	0.491635	0.536321	-25.4961	0.159721	0
0.1227	-2.77806	-0.482993	-1.69527	-2.69596	-2.62057	-2.87417	-2.81568	-57.8586	-0.763113	0
0.1233	-1.52345	0.422619	-0.167704	-2.39641	-1.98528	-2.57163	-1.90394	-80.7407	-1.06481	0
0.1240	1.88191	1.94707	2.88378	-0.249626	1.03235	0.79418	0.831297	-71.5916	0.461417	-0.318096
0.1247	2.15076	1.6452	4.4077	0.349476	1.03235	1.70181	1.74304	-39.542	0.763113	-0.318096
0.1253	1.52345	-0.799957	3.79886	-0.249626	-0.158823	-0.756362	0.831297	12.9597	0.159721	0
0.1260	0	-7.51658	1.9687	-2.08021	-1.98528	-3.17672	-1.90394	73.6901	-0.461417	0
0.1267	0.35846	-11.4711	1.35622	-1.48111	-1.66764	-1.36145	-1.31399	88.0305	-0.141974	0
0.1273	2.15076	-5.97704	1.9687	0.665668	1.03235	1.70181	2.06484	55.9809	0.461417	0
0.1280	-0.627305	1.34332	0.441135	0.349476	1.66764	1.39927	2.35981	29.1226	0.461417	0
0.1287	-4.57036	1.94707	-2.00151	-0.865369	-0.158823	-0.756362	-0.375425	17.5251	0.159721	0
0.1293	-6.98997	-3.23002	-2.30411	-1.78066	-2.30293	-2.87417	-4.3442	9.9039	-0.763113	-0.318096
0.1300	-5.82497	-4.76956	0.747377	-1.16492	-0.794114	-1.664	-2.81568	9.29641	-0.461417	-0.318096
0.1307	-1.16499	-1.10183	1.9687	0.965219	2.30293	2.3069	2.97658	9.29641	0.159721	0
0.1313	0.89615	-3.23002	0.134892	1.26477	2.30293	2.91199	3.88833	5.92761	0.461417	0
0.1320	0	-5.3733	-2.61035	0.349476	-0.158823	-0.151272	0.536321	13.2543	0.159721	0
0.1327	-0.89615	4.39222	-5.3556	-1.48111	-2.30293	-3.17672	-2.22573	22.4034	-0.461417	0
0.1333	0.35846	13.237	-5.053	-0.865369	-1.11176	-1.36145	-1.31399	24.2443	-0.141974	0.318096
0.1340	0.35846	7.74298	-4.44051	0.349476	1.03235	1.39927	1.15309	23.6368	0.461417	0
0.1347	-1.16499	1.6452	-6.27068	0.0499251	1.03235	1.09672	0.831297	6.84805	0.159721	-0.318096
0.1353	-3.04691	0.422619	-3.83168	-0.565818	-0.794114	-0.756362	-0.697217	-14.2115	-0.461417	-0.318096
0.1360	-4.57036	-2.02253	0.441135	-1.16492	-2.30293	-1.96654	-2.81568	-14.5061	-0.763113	-0.318096
0.1367	-3.94306	-2.92815	1.9687	-0.865369	-0.794114	-0.756362	-0.992194	-5.35694	-0.141974	0
0.1373	-1.16499	-3.84885	1.9687	0.0499251	1.66764	1.39927	2.35981	5.92761	0.461417	0
0.1380	-0.268845	-6.294	0.441135	0.665668	2.30293	2.60945	3.59335	12.3338	0.461417	-0.318096
0.1387	-1.7923	-4.45259	-2.61035	0.0499251	0.714702	1.70181	1.74304	5.32012	-0.141974	-0.318096
0.1393	-3.67421	-2.02253	-3.52543	-1.48111	-1.34999	-2.26908	-2.22573	-1.08612	-0.763113	0
0.1400	-2.15076	-0.799957	-1.69527	-0.565818	-0.476468	-1.664	-0.992194	1.0493	-0.141974	0
0.1407	0	-0.181122	-0.167704	0.0499251	1.03235	1.09672	1.44807	2.26427	0.159721	-0.318096
0.1413	-0.627305	-0.181122	-0.167704	-0.249626	0.714702	0.79418	0.214528	1.65679	-0.141974	-0.318096
0.1420	-1.52345	-1.10183	-0.780189	-0.565818	0.158823	-0.151272	-0.697217	0.736349	-0.461417	-0.318096
0.1427	-2.15076	-1.70557	-1.38903	-1.78066	-1.11176	-1.05891	-1.60896	-0.165679	-0.763113	0
0.1433	-1.52345	-1.10183	-0.780189	-1.16492	-1.11176	0.18909	-0.697217	-0.165679	-0.461417	-0.318096
0.1440	-0.627305	-0.181122	0.747377	0.665668	1.34999	3.51708	2.65479	1.0493	0.461417	-0.318096
0.1447	0.627305	0.422619	1.66246	1.26477	2.85881	4.46253	4.5051	1.65679	1.38425	-0.318096
0.1453	-0.268845	0.120748	0.441135	-0.565818	0.476468	0.18909	1.74304	0.736349	-0.141974	0
0.1460	-3.04691	-1.4037	-1.38903	-2.69596	-2.93822	-3.17672	-1.90394	-2.00655	-1.06481	0
0.1467	-3.04691	-1.10183	-0.473947	-1.48111	-1.66764	-1.664	-0.992194	-2.00655	-0.141974	0
0.1473	-1.16499	0.422619	0.441135	0.349476	0.714702	0.79418	1.44807	-0.773167	0.461417	0
0.1480	-1.16499	0.72449	0.747377	0.349476	1.03235	1.09672	1.44807	-0.773167	0.461417	0
0.1487	-0.89615	1.04145	1.05362	-0.865369	-0.158823	-0.453817	0.536321	-1.39906	0.461417	0
0.1493	-0.89615	0.72449	-1.38903	-1.78066	-1.66764	-2.57163	-1.60896	-2.30109	0.159721	0
0.1500	0.35846	1.34332	-2.00151	-0.565818	-0.476468	-1.96654	-1.31399	-3.22153	-0.461417	-0.318096
0.1507	2.77806	2.24894	0.134892	0.665668	1.66764	1.09672	2.35981	-1.39906	-0.141974	-0.636193
0.1513	3.40537	1.04145	0.441135	0.349476	1.98528	2.00436	3.27156	-0.165679	0.159721	-0.318096
0.1520	1.52345	-1.4037	-1.38903	-0.865369	-0.476468	-1.05891	-0.697217	-3.22153	-0.461417	-0.318096
0.1527	0.35846	-2.3244	-2.30411	-2.39641	-2.93822	-3.78181	-3.75425	-5.0624	-1.6682	-0.318096
0.1533	0.627305	-0.181122	-0.780189	-1.16492	-1.11176	-1.96654	-1.31399	-1.39906	-0.763113	0
0.1540	1.25461	2.5659	2.57754	0.965219	1.98528	1.39927	2.35981	4.39969	0.461417	0.318096
0.1547	1.88191	2.5659	3.49262	0.665668	1.98528	2.00436	2.35981	7.45554	-0.141974	0
0.1553	0.35846	0.72449	1.35622	-1.16492	-0.476468	-0.756362	0.214528	5.32012	-0.763113	0
0.1560	-4.30152	0.72449	0.134892	-1.78066	-1.98528	-2.57163	-1.31399	1.36225	-0.763113	0.318096
0.1567	-4.30152	1.94707	0.134892	-1.16492	-0.476468	-1.05891	-0.375425	0.128861	-0.461417	0
0.1573	-1.52345	4.39222	0.441135	0.0499251	1.03235	0.79418	1.44807	-2.30109	0.159721	-0.318096
0.1580	-1.52345	7.74298	5.32278	0.665668	1.03235	1.39927	2.06484	-7.49235	0.159721	-0.318096
0.1587	-3.31575	6.21854	9.90184	-0.249626	-0.158823	-0.453817	0.214528	-13.8986	-0.461417	0
0.1593	-4.57036	-0.482993	10.5107	-1.16492	-1.98528	-2.87417	-2.52071	-7.8053	-0.763113	0
0.1600	-2.4196	-3.54698	15.0897	-0.565818	-1.11176	-1.36145	-0.992194	18.7585	-0.461417	0
0.1607	2.15076	3.47151	16.9199	0.965219	1.66764	2.00436	2.65479	37.3697	0.159721	0
0.1613	3.67421	14.7615	3.18638	0.965219	1.98528	2.3069	2.97658	37.0568	0.461417	0
0.1620	3.04691	15.9841	-12.6799	-0.565818	-0.158823	-0.453817	0.214528	20.8939	0.159721	0
0.1627	1.88191	4.39222	-10.8497	-2.08021	-1.98528	-2.57163	-2.52071	-11.7632	-1.06481	-0.318096
0.1633	1.88191	-11.1692	1.66246	-2.08021	-1.11176	-1.05891	-1.31399	-21.8328	-0.763113	-0.318096
0.1640	2.15076	-22.4592	6.54411	-1.16492	0.714702	1.39927	1.15309	9.9039	-0.141974	0
0.1647	1.88191	-27.0476	-2.91659	-0.249626	0.476468	1.09672	1.74304	60.8593	0.461417	0
0.1653	0.627305	-25.2062	-16.9527	-1.16492	-0.794114	-0.756362	-0.0804481	84.9747	0.461417	0
0.1660	-2.77806	-13.3125	-19.7016	-2.69596	-1.98528	-2.57163	-2.52071	59.0368	-0.763113	0
0.1667	-3.31575	3.16964	-11.7648	-1.16492	-0.476468	-0.756362	-0.697217	41.9351	-0.763113	-0.318096
0.1673	-0.89615	12.9352	-7.492	0.965219	1.66764	1.39927	2.35981	35.5289	0.159721	-0.318096
0.1680	-1.16499	9.5844	-5.66184	0.349476	1.03235	1.09672	2.06484	-31.0003	-0.141974	-0.318096
0.1687	-4.83921	0.422619	-3.21919	-0.865369	-1.34999	-1.05891	-0.375425	-86.834	-0.461417	0
0.1693	-7.61727	-3.23002	-2.61035	-1.48111	-1.98528	-2.57163	-3.13748	-35.8786	-0.461417	0
0.1700	-4.30152	-4.45259	-2.30411	-0.565818	0.158823	-0.151272	-0.697217	53.238	0.159721	0
0.1707	0	-6.59588	-2.00151	0.965219	2.30293	2.60945	3.59335	85.2692	0.763113	0
0.1713	1.25461	-5.67517	-2.00151	0.965219	1.98528	2.3069	2.97658	47.4393	0.763113	0.318096
0.1720	-0.89615	-2.92815	-1.38903	-0.249626	-0.158823	-0.756362	0.536321	-26.4165	0.763113	-0.318096
0.1727	-3.67421	0.72449	-0.167704	-1.16492	-2.30293	-2.26908	-2.52071	-88.9694	-0.141974	-0.318096
0.1733	-1.16499	4.69409	2.57754	-0.249626	-0.158823	-0.453817	-0.992194	-110.029	-0.141974	0
0.1740	2.77806	-1.10183	4.10511	0.665668	1.98528	2.00436	2.06484	-80.7407	0.159721	-0.636193
0.1747	3.04691	-9.3429	1.9687	0.349476	1.66764	3.21454	2.97658	-27.024	0.461417	-0.636193
0.1753	1.88191	-0.799957	-4.44051	-0.565818	-0.158823	1.09672	0.831297	-15.132	0.763113	0
0.1760	-1.52345	12.0145	-6.57692	-2.08021	-2.30293	-2.57163	-3.13748	-41.9719	0.159721	0
0.1767	-3.31575	13.8559	-0.780189	-1.78066	-0.476468	-0.756362	-1.31399	-50.532	0.159721	-0.318096
0.1773	-1.52345	10.807	2.88378	-0.249626	1.66764	1.70181	2.35981	-39.8365	0.763113	0
0.1780	0	8.36182	1.9687	0.349476	1.66764	1.70181	2.97658	-33.7432	0.763113	0
0.1787	-2.77806	5.6148	0.441135	-0.865369	0.158823	-0.756362	0.536321	-32.8228	0.159721	0
0.1793	-6.36266	1.04145	-1.69527	-2.39641	-1.98528	-2.87417	-2.81568	-22.4402	-0.763113	0
0.1800	-3.67421	-0.799957	-0.473947	-1.16492	-0.158823	-0.756362	-0.992194	-0.773167	-0.461417	0
0.1807	0.35846	0.72449	2.57754	0.349476	1.98528	1.70181	2.35981	9.59095	-0.141974	0
0.1813	0.35846	0.422619	3.18638	0.349476	1.98528	1.70181	2.65479	5.32012	-0.461417	-0.318096
0.1820	-1.16499	-2.92815	1.9687	-0.865369	-0.158823	-0.453817	-0.375425	-1.08612	-1.06481	0
0.1827	-2.4196	-2.92815	-0.780189	-2.69596	-2.30293	-2.87417	-3.43245	-5.96443	-1.3665	0
0.1833	-1.52345	4.09035	0.134892	-1.16492	-0.476468	-0.756362	-0.992194	-4.14196	-0.141974	0
0.1840	0.35846	8.05995	1.9687	0.665668	2.30293	2.3069	2.06484	-0.165679	0.763113	0
0.1847	-0.268845	7.44111	0.134892	0.349476	1.66764	1.70181	1.44807	-4.74945	0.461417	0
0.1853	-2.15076	8.05995	-2.00151	-0.865369	-0.794114	-0.756362	0.214528	-30.3928	-0.141974	0
0.1860	-3.04691	10.1881	-1.08279	-2.08021	-2.62057	-3.17672	-1.90394	-61.5036	-0.461417	0.318096
0.1867	-0.268845	10.1881	0.747377	-0.865369	-0.794114	-1.96654	-1.31399	-65.7928	-0.763113	0
0.1873	3.40537	4.39222	1.35622	0.349476	1.34999	0.79418	1.74304	-44.7332	-0.141974	-0.318096
0.1880	1.88191	-1.10183	0.441135	0.665668	1.34999	1.09672	2.06484	-3.82902	0.159721	0
0.1887	-1.52345	2.5659	-1.38903	-0.565818	-0.158823	-1.36145	-0.0804481	40.4256	-0.461417	0
0.1893	-3.94306	5.91667	-1.69527	-1.48111	-2.30293	-3.17672	-2.52071	47.7338	-1.06481	0
0.1900	-3.04691	0.422619	3.49262	-0.865369	-0.476468	-0.756362	-0.992194	40.7201	-0.461417	0
0.1907	1.25461	-6.294	5.02019	0.349476	1.66764	1.39927	2.06484	41.9351	0.461417	-0.318096
0.1913	4.30152	-9.94664	-0.167704	0.0499251	1.66764	1.39927	3.27156	20.581	0.461417	0
0.1920	3.40537	-9.04103	-1.38903	-1.16492	-0.476468	-0.756362	1.15309	-1.6936	-0.141974	-0.318096
0.1927	1.25461	-0.181122	2.88378	-2.39641	-2.30293	-2.57163	-2.22573	17.8381	-1.06481	-0.636193
0.1933	2.4196	6.5355	7.76543	-1.48111	-0.476468	-0.756362	-0.697217	44.9909	-0.461417	-0.318096
0.1940	4.30152	-0.181122	10.8169	-0.249626	1.66764	1.09672	1.74304	29.4356	-0.141974	0
0.1947	3.40537	-8.12032	8.68051	0.0499251	1.98528	1.09672	2.06484	-14.2115	-0.141974	-0.318096
0.1953	-0.627305	-11.4711	2.2713	-0.865369	0.476468	-0.756362	0.214528	-38.6215	-0.141974	0
0.1960	-5.19767	-13.3125	-2.30411	-2.69596	-1.98528	-2.87417	-2.81568	-9.62777	-0.763113	0
0.1967	-3.31575	-2.02253	-2.91659	-1.48111	-0.476468	-1.05891	-0.992194	41.6405	-0.763113	-0.318096
0.1973	0.627305	14.1577	-0.780189	0.349476	1.66764	2.00436	2.65479	43.1685	-0.141974	-0.318096
0.1980	2.4196	14.1577	-0.473947	0.965219	1.98528	2.00436	2.65479	-7.19781	0.461417	0
0.1987	1.25461	-0.482993	1.35622	0.0499251	-0.158823	-0.453817	0.214528	-51.7469	-0.141974	0
0.1993	-1.7923	-11.1692	6.24151	-1.16492	-1.98528	-2.26908	-2.22573	-66.4003	-0.461417	-0.318096
0.2000	-1.7923	-3.84885	4.4077	-0.249626	-0.476468	-0.453817	-0.0804481	-55.7048	-0.141974	0
0.2007	-1.16499	6.5355	-0.473947	1.26477	1.98528	2.3069	2.65479	6.84805	0.159721	0
0.2013	-3.94306	4.69409	-1.69527	0.965219	1.03235	2.00436	1.44807	75.8256	0.159721	-0.318096
0.2020	-7.34843	-3.23002	-4.74676	0.0499251	-0.794114	-0.151272	-0.992194	73.0643	0.159721	0
0.2027	-6.98997	-7.51658	-9.32581	-0.865369	-1.66764	-1.664	-2.81568	41.0331	-0.461417	0
0.2033	-3.04691	-2.92815	-11.156	0.349476	-0.158823	0.18909	-0.697217	24.5388	-0.461417	0
0.2040	0	2.86777	-8.40708	1.88051	1.66764	4.12217	3.59335	14.7822	0.461417	-0.636193
0.2047	0	3.47151	-2.91659	1.88051	1.98528	3.81963	4.5051	9.9039	1.06481	-0.636193
0.2053	-0.627305	3.16964	-0.167704	0.349476	0.158823	-0.453817	0.831297	11.1189	0.461417	-0.318096
0.2060	-2.4196	1.34332	0.747377	-1.16492	-1.66764	-3.17672	-2.52071	11.7264	-0.461417	0
0.2067	-1.7923	0.422619	1.35622	-0.249626	-0.158823	-0.756362	-0.697217	10.5114	-0.141974	0
0.2073	0	1.34332	1.35622	1.26477	1.98528	1.70181	2.35981	8.37597	1.06481	0
0.2080	-0.268845	1.94707	1.35622	0.665668	1.66764	0.79418	1.74304	2.87176	0.461417	-0.318096
0.2087	-1.52345	1.6452	-0.473947	-0.865369	-0.794114	-2.26908	-1.60896	-5.66989	-0.461417	-0.318096
0.2093	-1.52345	0.72449	-3.52543	-2.08021	-1.98528	-3.17672	-3.43245	-10.2353	-0.763113	-0.318096
0.2100	1.25461	-0.482993	-2.61035	-0.565818	0.158823	-0.151272	-0.0804481	-2.30109	-0.763113	-0.318096
0.2107	1.88191	-0.482993	1.35622	0.665668	1.98528	1.70181	3.27156	18.4455	-0.141974	-0.318096
0.2113	-0.627305	0.120748	3.18638	0.965219	1.66764	1.09672	2.35981	34.9214	0.461417	-0.318096
0.2120	-1.52345	1.04145	1.66246	-0.249626	-0.158823	-1.05891	-0.375425	30.6505	0.461417	0
0.2127	-2.77806	1.34332	-2.00151	-1.78066	-1.98528	-2.87417	-2.81568	25.1647	-0.461417	0
0.2133	-0.89615	1.6452	-1.69527	-0.865369	-0.158823	-0.756362	-0.375425	31.8655	-0.461417	-0.318096
0.2140	1.25461	1.94707	0.441135	0.965219	2.30293	1.70181	2.06484	25.1647	0.159721	0
0.2147	0	2.24894	0.747377	0.665668	1.66764	1.70181	1.74304	-3.82902	0.159721	0
0.2153	-1.52345	1.6452	-0.167704	-0.865369	-0.158823	-0.453817	-0.0804481	-29.1594	-0.461417	-0.318096
0.2160	-2.77806	0.422619	-0.780189	-2.08021	-1.98528	-2.57163	-2.81568	-32.8228	-1.3665	-0.318096
0.2167	-2.4196	1.34332	1.05362	-1.16492	-1.11176	-1.05891	-1.90394	-21.8328	-1.06481	0
0.2173	-0.89615	3.16964	2.88378	0.349476	1.03235	1.39927	1.44807	-10.5482	0.461417	0.318096
0.2180	-0.268845	4.39222	2.88378	0.665668	2.30293	2.00436	3.27156	-7.8053	0.763113	0
0.2187	-1.16499	2.24894	0.441135	-0.865369	-0.476468	-0.756362	-0.375425	-11.1557	-0.763113	-0.318096
0.2193	-1.7923	0.120748	-2.61035	-2.08021	-2.62057	-3.17672	-4.04922	-9.62777	-1.3665	-0.318096
0.2200	-0.268845	1.34332	-4.13792	-0.865369	-0.158823	-1.05891	-0.992194	-2.92699	-0.141974	-0.318096
0.2207	0.89615	2.5659	-5.3556	0.665668	1.98528	1.70181	2.65479	0.736349	0.763113	0
0.2213	1.25461	2.24894	-2.00151	0.665668	1.66764	1.70181	3.27156	0.44181	0.159721	0
0.2220	-0.268845	1.6452	2.2713	-0.565818	-0.476468	-0.756362	0.536321	-2.00655	-0.461417	0.318096
0.2227	-2.4196	0.422619	0.747377	-1.78066	-2.62057	-2.57163	-2.52071	-4.74945	-0.763113	0
0.2233	-0.627305	-1.4037	-0.167704	-0.865369	-0.794114	-0.756362	-0.697217	-3.22153	-0.141974	0
0.2240	2.77806	-0.181122	1.66246	0.665668	2.30293	2.00436	2.97658	1.0493	0.763113	0
0.2247	2.4196	3.78848	1.66246	0.349476	1.66764	1.39927	2.65479	-3.22153	0.763113	-0.318096
0.2253	-1.16499	4.69409	-0.167704	-1.16492	-1.34999	-1.36145	-0.697217	-15.4265	-0.461417	-0.318096
0.2260	-3.67421	2.86777	-0.473947	-1.78066	-2.30293	-2.57163	-2.22573	-20.0103	-1.06481	0
0.2267	-2.15076	-2.02253	1.66246	-0.865369	-0.476468	-0.756362	-0.697217	-14.819	0.159721	0
0.2273	-0.627305	-9.04103	2.57754	0.0499251	0.476468	0.79418	0.831297	-1.08612	0.763113	-0.318096
0.2280	-0.268845	-9.04103	1.66246	-0.249626	0.714702	0.79418	1.15309	19.6605	0.159721	0
0.2287	-0.627305	-1.70557	0.134892	-0.865369	-0.476468	-1.05891	-0.375425	19.366	-0.461417	0
0.2293	-0.89615	2.5659	-1.08279	-1.48111	-1.98528	-1.664	-2.22573	-0.478627	-0.461417	0
0.2300	0.89615	1.94707	-0.167704	-0.565818	-0.158823	0.79418	0.536321	-6.88487	0.159721	-0.318096
0.2307	2.77806	0.120748	0.747377	0.665668	1.98528	2.00436	2.35981	-4.74945	0.461417	-0.318096
0.2313	3.94306	-0.181122	-0.473947	0.965219	1.66764	1.70181	2.06484	-3.82902	0.461417	-0.318096
0.2320	2.4196	-0.181122	-2.61035	-0.249626	-0.158823	-0.453817	0.214528	5.92761	-0.141974	-0.318096
0.2327	-1.52345	-1.70557	-2.30411	-2.08021	-1.98528	-2.26908	-2.22573	13.2543	-0.763113	-0.636193
0.2333	-3.67421	-0.799957	0.134892	-1.16492	-1.11176	-1.05891	-0.992194	8.67051	-0.141974	-0.318096
0.2340	-3.67421	0.120748	1.66246	0.349476	1.03235	2.00436	1.44807	3.49766	0.159721	-0.318096
0.2347	-1.52345	-0.482993	2.2713	0.965219	1.98528	4.12217	2.97658	1.96973	0.763113	-0.636193
0.2353	-1.16499	-0.482993	0.747377	-0.249626	-0.158823	1.09672	0.831297	-0.773167	0.461417	-0.636193
0.2360	-3.31575	-1.10183	-1.08279	-1.78066	-2.62057	-2.87417	-2.81568	-9.02028	-1.06481	-0.318096
0.2367	-1.7923	-0.482993	0.747377	-1.16492	-0.476468	-0.453817	-0.0804481	-14.819	-1.06481	0
0.2373	0	-0.482993	2.88378	0.349476	1.03235	1.70181	2.97658	-11.4686	0.159721	0
0.2380	0.35846	-0.799957	2.2713	0.965219	0.476468	0.79418	2.06484	-7.8053	0.461417	0
0.2387	-0.627305	-1.10183	0.441135	-0.865369	-1.11176	-1.36145	-0.375425	-6.88487	-0.461417	0
0.2393	-1.7923	-2.3244	-1.38903	-2.69596	-2.62057	-3.47926	-3.13748	-5.66989	-1.06481	0
0.2400	0	-2.02253	-0.780189	-1.16492	-0.794114	-1.05891	-1.31399	-3.53448	-0.461417	-0.318096
0.2407	2.4196	-2.02253	1.05362	0.665668	2.30293	2.3069	2.65479	-1.39906	0.461417	0
0.2413	2.4196	-2.3244	1.66246	0.665668	1.98528	2.3069	3.59335	-1.6936	0.763113	0
0.2420	-0.268845	-4.15072	-0.473947	-0.865369	-0.476468	-0.453817	0.214528	-4.74945	-0.461417	0
0.2427	-3.31575	-7.19962	-1.38903	-1.48111	-1.66764	-1.96654	-2.22573	-7.19781	-1.06481	-0.318096
0.2433	-3.04691	-2.3244	-0.167704	-0.565818	0.158823	-0.453817	-0.0804481	-4.14196	-0.141974	0
0.2440	-0.627305	8.05995	0.134892	0.349476	1.03235	1.39927	2.06484	0.128861	0.461417	0
0.2447	0.627305	8.66369	0.747377	0.349476	0.714702	1.39927	2.06484	0.44181	0.159721	-0.318096
0.2453	-0.627305	2.86777	0.441135	-0.565818	-0.476468	-0.453817	0.214528	-1.6936	-0.141974	-0.318096
0.2460	-1.52345	-0.482993	-0.473947	-2.08021	-2.30293	-2.57163	-2.81568	-3.53448	-0.763113	-0.318096
0.2467	-0.89615	-0.181122	1.35622	-1.16492	-0.794114	-0.756362	-1.60896	-2.61404	-0.141974	-0.318096
0.2473	0.627305	1.34332	3.18638	0.665668	2.30293	2.3069	2.06484	0.128861	0.763113	0
0.2480	1.52345	0.120748	1.66246	0.665668	2.62057	2.60945	2.97658	0.736349	1.06481	0
0.2487	-0.627305	-2.62628	0.747377	-0.565818	-0.476468	-0.756362	-0.0804481	-2.30109	0.159721	0
0.2493	-4.30152	-4.15072	1.35622	-2.39641	-3.17645	-3.17672	-3.75425	-7.8053	-0.763113	0
0.2500	-3.94306	-0.482993	2.57754	-1.78066	-1.66764	-0.756362	-1.31399	-5.96443	0.159721	0
0.2507	-1.7923	6.21854	2.88378	0.665668	1.34999	1.70181	2.65479	-5.96443	0.763113	0
0.2513	-1.16499	8.66369	1.35622	0.665668	1.34999	1.09672	2.35981	-25.4961	0.461417	0
0.2520	-1.52345	6.5355	-1.69527	-0.565818	-0.476468	-0.756362	-0.0804481	-41.0699	0.159721	0
0.2527	-1.16499	3.78848	-5.66184	-0.865369	-1.98528	-1.664	-1.60896	-41.6774	-0.461417	0
0.2533	1.88191	1.04145	-4.44051	-0.249626	0.158823	0.18909	0.214528	-36.1732	-0.141974	0
0.2540	3.94306	-3.23002	0.134892	0.965219	2.62057	2.91199	3.27156	14.1747	0.763113	0
0.2547	3.67421	-4.45259	1.35622	0.665668	1.34999	1.70181	2.97658	73.6901	0.763113	0
0.2553	1.25461	1.34332	0.747377	-0.865369	-1.11176	-1.05891	-0.375425	53.8455	0.159721	0.318096
0.2560	-2.77806	6.83737	3.18638	-1.48111	-1.98528	-2.26908	-2.81568	10.5114	-1.06481	0
0.2567	-4.30152	6.83737	6.24151	-0.865369	-0.158823	-0.453817	-0.992194	1.36225	-0.461417	0
0.2573	-2.15076	5.6148	5.93527	0.349476	1.66764	1.39927	1.74304	-0.478627	0.763113	0
0.2580	-0.268845	1.04145	3.49262	-0.249626	1.66764	1.70181	1.74304	-7.19781	0.763113	-0.318096
0.2587	0	-7.51658	-3.52543	-1.78066	-0.476468	-1.05891	-0.375425	-16.6599	-0.461417	-0.318096
0.2593	-0.268845	-12.6937	-14.5137	-2.39641	-2.62057	-3.17672	-2.81568	-31.0003	-1.3665	0
0.2600	0.627305	-12.9955	-13.9012	-2.08021	-1.11176	-1.36145	-1.90394	-44.1257	-0.763113	0
0.2607	2.4196	-11.4711	-4.13792	-0.249626	1.34999	1.70181	1.15309	-57.5457	0.159721	-0.318096
0.2613	2.77806	-6.89775	-1.08279	0.349476	1.98528	2.00436	2.65479	-68.2228	0.159721	-0.318096
0.2620	0.89615	-3.54698	-1.69527	-1.16492	-0.158823	0.18909	0.536321	-54.4898	-0.763113	0
0.2627	-2.77806	-5.67517	-0.780189	-2.08021	-1.34999	-1.664	-2.22573	-2.00655	-0.763113	0
0.2633	-3.67421	-9.3429	2.2713	-0.565818	0.476468	-0.151272	-0.375425	69.7139	-0.461417	0
0.2640	-1.52345	-0.799957	4.71394	0.665668	2.30293	3.81963	3.59335	94.7313	0.159721	-0.636193
0.2647	0.89615	8.05995	3.79886	0.349476	1.66764	3.81963	3.27156	61.7797	0.159721	-0.636193
0.2653	1.88191	-9.94664	0.747377	-1.48111	-1.34999	-1.05891	-1.90394	26.0668	-0.763113	-0.318096
0.2660	0	-37.115	0.134892	-2.39641	-2.93822	-3.47926	-4.3442	7.45554	-1.06481	0
0.2667	-1.52345	-52.3746	1.66246	-0.565818	-0.158823	-0.453817	-1.31399	4.10515	0.461417	0
0.2673	-1.7923	-67.6341	4.10511	0.665668	2.85881	2.3069	2.35981	11.4318	1.06481	0
0.2680	-2.15076	-81.3693	7.76543	0.349476	1.66764	1.39927	2.65479	13.5672	0.763113	-0.318096
0.2687	-1.7923	-80.7504	9.293	-0.865369	-1.11176	-1.05891	0.214528	0.44181	0.461417	0
0.2693	-2.4196	-80.4485	6.54411	-1.78066	-1.66764	-2.57163	-1.90394	-10.8612	-0.141974	0
0.2700	-2.4196	-69.1586	6.24151	-0.565818	0.476468	-0.756362	-0.697217	-5.35694	-0.461417	-0.318096
0.2707	-1.52345	-28.8739	9.293	0.665668	2.30293	2.00436	2.06484	10.5114	0.159721	-0.318096
0.2713	-2.15076	-14.8369	3.49262	0.665668	1.66764	1.70181	2.06484	43.1685	1.06481	-0.318096
0.2720	-3.67421	18.1273	-12.0711	-0.249626	-1.11176	-0.756362	-0.697217	66.658	0.461417	0
0.2727	-4.30152	107.843	-17.8678	-1.16492	-2.30293	-2.26908	-2.22573	53.8455	-0.141974	0
0.2733	-1.52345	124.325	-10.8497	-0.249626	-0.158823	-0.756362	-0.992194	36.4493	0.461417	0
0.2740	2.77806	81.5957	-6.88316	0.965219	1.98528	1.09672	1.74304	29.7301	1.38425	0
0.2747	3.94306	78.2449	-9.01957	0.349476	1.66764	1.39927	2.65479	24.5388	1.68595	0.318096
0.2753	2.4196	75.7997	-8.71332	-1.48111	-1.34999	-1.05891	-0.697217	2.57722	0.763113	0
0.2760	1.25461	49.2502	-1.08279	-1.78066	-2.30293	-2.87417	-3.43245	-39.542	0.159721	-0.318096
0.2767	0.89615	25.7496	6.24151	-0.565818	0.158823	-0.756362	-0.375425	-53.2749	0.763113	0
0.2773	-0.89615	3.16964	6.54411	0.665668	2.30293	1.70181	2.97658	-36.7991	1.38425	0
0.2780	-0.627305	-28.5721	0.747377	0.349476	1.66764	1.70181	2.65479	-29.1594	0.763113	0
0.2787	1.88191	-52.6764	-4.13792	-2.39641	-0.476468	-0.453817	-0.0804481	-22.4402	-0.763113	0
0.2793	0.627305	-47.1824	-6.88316	-3.9108	-1.34999	-1.96654	-1.90394	-18.7953	-0.763113	0
0.2800	-1.16499	-34.9717	-7.1894	-2.39641	0.714702	0.18909	0.214528	-17.5619	-0.141974	0
0.2807	-1.52345	-38.6395	-5.66184	-0.865369	2.85881	2.3069	2.06484	5.63307	-0.763113	0
0.2813	-2.4196	-62.7438	-3.52543	-0.865369	2.30293	1.39927	1.15309	24.8518	-1.3665	0
0.2820	-3.31575	-128.054	9.293	-1.48111	0.158823	-0.756362	-1.31399	47.1264	-0.763113	0
0.2827	-6.98997	-136.596	25.7718	-1.48111	0.158823	-1.05891	-2.52071	103.586	-0.461417	0
0.2833	-9.40957	-87.1652	26.078	0.665668	2.85881	1.70181	1.15309	148.761	0.461417	0
0.2840	-6.98997	-148.807	18.4475	1.26477	3.4941	2.91199	2.97658	191.488	1.06481	-0.318096
0.2847	-4.30152	-250.432	14.4809	0.0499251	1.03235	1.09672	1.44807	157.91	0.159721	-0.318096
0.2853	-3.94306	-278.808	12.3445	-1.16492	-1.66764	-1.05891	-0.375425	-6.88487	-1.06481	0
0.2860	-6.09382	-279.11	12.9533	-1.78066	-3.4941	-2.26908	-1.60896	-85.0115	-2.28934	0.318096
0.2867	-7.34843	-205.257	16.0048	-0.865369	-1.98528	-0.756362	-0.375425	-12.6836	-1.3665	0
0.2873	-8.51342	-21.2366	12.6471	0.0499251	0.158823	1.39927	1.44807	61.1722	-0.461417	0
0.2880	-9.40957	78.2449	-0.473947	-0.565818	0.158823	1.09672	1.15309	108.17	-0.763113	0.318096
0.2887	-7.88612	109.066	-7.79824	-1.78066	-1.34999	-1.05891	-0.992194	142.649	-1.06481	0
0.2893	-4.83921	222.901	-9.93465	-2.08021	-2.62057	-2.57163	-2.52071	131.659	-0.763113	0
0.2900	-0.627305	251.277	-17.2589	-0.249626	-0.158823	-0.756362	-0.375425	81.6243	-0.141974	0
0.2907	3.40537	206.721	-16.6501	0.965219	2.30293	1.70181	2.65479	9.29641	0.461417	0
0.2913	5.82497	218.63	-9.32581	0.665668	1.66764	1.39927	3.27156	-57.2327	0.461417	0
0.2920	7.34843	218.932	-12.3773	-1.16492	-1.34999	-2.26908	-0.375425	-91.1048	-0.763113	-0.318096
0.2927	8.87188	189.333	-15.4288	-2.08021	-2.93822	-3.17672	-2.81568	-147.564	-1.3665	0
0.2933	11.9188	169.802	-10.2409	-0.249626	-0.158823	0.491635	0.214528	-208.921	-0.461417	0.318096
0.2940	12.1876	155.765	-9.01957	1.58096	1.34999	3.21454	2.97658	-207.393	-0.461417	-0.318096
0.2947	9.14073	136.234	-13.2924	1.58096	1.34999	3.51708	3.88833	-167.096	-0.763113	-0.636193
0.2953	3.67421	120.054	-15.4288	-0.865369	-1.11176	-0.453817	0.214528	-116.435	-1.3665	0
0.2960	-1.7923	109.987	-8.71332	-2.39641	-2.62057	-2.87417	-2.81568	-79.5257	-1.3665	0
0.2967	-2.77806	75.196	3.49262	-0.249626	-0.158823	-0.151272	0.536321	-93.8661	-0.461417	0
0.2973	-1.7923	17.2066	8.37427	0.349476	1.03235	1.09672	1.44807	-112.79	0.159721	0
0.2980	-0.89615	-11.7881	6.85035	0.0499251	0.714702	0.491635	1.44807	-72.8065	0.461417	0
0.2987	-0.89615	-23.9836	2.57754	-0.249626	-0.476468	-1.05891	-0.375425	-21.2253	0.461417	0
0.2993	-1.7923	-42.2921	-3.83168	-1.48111	-1.98528	-2.57163	-2.81568	4.71264	-0.141974	0
0.3000	0.35846	-43.8316	-3.21919	-0.249626	0.476468	-0.453817	0.536321	12.9597	0.763113	0
0.3007	2.77806	-64.5701	2.57754	1.58096	2.62057	2.3069	3.27156	-24.5941	1.06481	0
0.3013	1.88191	-88.0708	5.32278	1.26477	1.66764	2.00436	2.65479	-80.4277	0.763113	0
0.3020	-2.4196	40.4054	6.24151	-0.565818	-1.11176	-1.05891	-0.375425	-91.4178	0.159721	-0.318096
0.3027	-3.94306	206.117	7.76543	-1.48111	-1.66764	-1.96654	-2.52071	-72.199	-0.461417	-0.318096
0.3033	-0.268845	161.561	5.32278	-0.565818	0.158823	0.18909	-0.375425	-56.6253	0.159721	-0.318096
0.3040	0.89615	47.4239	-1.69527	0.349476	1.34999	0.79418	2.06484	-46.5557	0.763113	-0.318096
0.3047	0	16.9048	-3.52543	0.965219	1.66764	1.09672	2.06484	-39.229	0.461417	-0.318096
0.3053	-1.52345	12.9352	-5.66184	-0.249626	-0.476468	-0.756362	-1.31399	-31.2948	0.159721	-0.318096
0.3060	-2.4196	28.1947	-12.0711	-1.48111	-2.30293	-2.26908	-3.13748	-13.8986	-0.461417	-0.318096
0.3067	-1.7923	62.9853	-13.9012	-0.249626	-0.476468	-0.151272	0.214528	6.24056	-0.461417	0
0.3073	0	62.9853	-9.93465	0.665668	1.66764	2.3069	2.65479	20.581	0.461417	0
0.3080	0	-13.6144	-5.96808	0.0499251	0.714702	0.79418	1.44807	41.9351	0.159721	0
0.3087	-2.15076	-89.9122	-4.74676	-1.78066	-1.98528	-2.26908	-1.60896	61.1722	-0.461417	0
0.3093	-0.627305	-65.7927	-5.96808	-2.69596	-2.62057	-3.17672	-3.13748	61.7797	-0.461417	0.318096
0.3100	5.19767	1.04145	-7.79824	-0.865369	0.476468	-0.151272	0.214528	71.8493	-0.141974	0.318096
0.3107	7.61727	37.6584	-5.96808	0.349476	2.30293	2.00436	3.27156	76.1201	0.461417	0
0.3113	5.46651	44.6769	0.747377	0.349476	1.34999	1.09672	2.97658	37.3697	0.763113	0
0.3120	0.35846	38.881	4.10511	-0.565818	-1.11176	-1.664	-0.697217	-7.8053	-0.461417	0
0.3127	-2.77806	35.8321	2.88378	-1.78066	-1.98528	-2.57163	-2.81568	-40.4624	-1.3665	0
0.3133	-1.16499	33.085	0.747377	-0.565818	0.158823	-0.151272	-0.375425	-52.9619	-0.461417	0
0.3140	0	22.3988	-7.1894	0.665668	1.66764	1.39927	1.74304	-25.2016	-0.141974	-0.318096
0.3147	-0.89615	8.36182	-9.93465	0.349476	1.66764	1.09672	1.74304	6.24056	-0.141974	0
0.3153	-2.15076	-4.15072	-2.61035	-0.249626	-0.158823	-0.756362	-0.0804481	-1.6936	-0.461417	0.318096
0.3160	-3.31575	-23.9836	-1.08279	-1.78066	-1.66764	-2.57163	-2.52071	-2.61404	-1.06481	0
0.3167	-2.4196	-35.5906	-1.69527	-0.565818	0.476468	-0.151272	0.536321	25.7722	-0.763113	0
0.3173	0.35846	-23.6818	1.66246	1.26477	1.34999	1.70181	2.97658	10.8059	0.461417	0
0.3180	0.627305	-11.7881	3.18638	1.26477	0.476468	0.18909	1.74304	-31.2948	0.461417	0.318096
0.3187	-2.77806	-9.3429	4.4077	-0.249626	-0.794114	-1.96654	-0.992194	-33.1357	-0.141974	0
0.3193	-6.09382	-9.3429	7.45919	-1.16492	-1.66764	-2.87417	-2.52071	-19.0899	-0.763113	0
0.3200	-3.94306	-1.4037	10.5107	-0.565818	0.714702	-0.151272	0.536321	-15.4265	0.159721	0
0.3207	-0.89615	21.4781	7.76543	0.0499251	2.62057	2.60945	3.88833	-16.034	1.06481	0.318096
0.3213	-1.52345	24.844	-1.69527	-0.249626	1.66764	1.70181	2.65479	-22.1457	0.461417	0
0.3220	-2.15076	-4.76956	-4.74676	-1.48111	-0.794114	-1.05891	-0.992194	-26.1036	-0.461417	0
0.3227	-0.268845	-22.7611	1.05362	-1.78066	-1.34999	-2.26908	-2.52071	-17.8749	-1.06481	-0.318096
0.3233	2.15076	-20.6329	4.10511	-0.249626	0.714702	0.18909	-0.0804481	-1.39906	-0.461417	-0.318096
0.3240	1.52345	-20.6329	4.10511	0.965219	1.34999	2.00436	2.06484	10.8059	0.461417	-0.318096
0.3247	-0.89615	-23.078	4.4077	0.349476	0.714702	2.60945	2.35981	29.7301	0.461417	-0.636193
0.3253	-2.4196	-32.5266	7.15659	-0.865369	-0.794114	-0.151272	-0.697217	51.3972	-0.141974	-0.318096
0.3260	-3.31575	-43.8316	8.07167	-1.48111	-1.66764	-2.26908	-3.13748	59.0368	-1.06481	0
0.3267	-1.52345	-44.4354	1.05362	-0.249626	0.714702	0.18909	0.214528	62.9947	-0.461417	0
0.3273	1.25461	-35.8924	-3.21919	1.26477	3.17645	2.60945	3.59335	28.2022	0.461417	0
0.3280	0.89615	-23.9836	-3.52543	1.26477	2.30293	2.00436	2.97658	-47.7707	0.461417	0
0.3287	-2.4196	-15.7426	-5.66184	-0.565818	-1.34999	-1.36145	-0.697217	-73.414	-0.461417	0
0.3293	-3.31575	-12.0899	-5.053	-1.78066	-2.30293	-2.87417	-3.43245	-46.2611	-0.763113	0
0.3300	0.89615	-11.1692	-3.21919	-0.249626	0.158823	-0.756362	-0.697217	-15.7395	0.159721	0
0.3307	4.57036	-15.4407	-2.61035	1.26477	2.62057	1.70181	2.06484	29.1226	1.06481	0.318096
0.3313	3.40537	-21.2366	-3.83168	0.665668	1.66764	1.09672	1.15309	65.443	0.461417	0
0.3320	-1.16499	-21.2366	-5.96808	-0.565818	-0.794114	-1.664	-1.31399	70.0268	-0.461417	0
0.3327	-3.67421	-21.8554	-4.74676	-1.16492	-1.11176	-1.96654	-1.60896	73.3772	-0.461417	0.318096
0.3333	-3.67421	-29.4777	0.134892	-0.249626	1.03235	0.79418	1.15309	65.443	0.461417	0.318096
0.3340	-2.77806	-37.7187	3.49262	0.965219	2.30293	1.70181	2.65479	29.7301	0.461417	0
0.3347	-1.52345	-36.8131	5.32278	0.349476	1.34999	0.79418	1.44807	8.06302	-0.141974	-0.318096
0.3353	-2.15076	-29.1758	6.24151	-1.78066	-1.11176	-1.36145	-0.992194	-5.96443	-0.461417	0.318096
0.3360	-3.67421	-18.4896	6.85035	-2.99551	-1.98528	-2.57163	-3.13748	-47.1632	-0.763113	0.318096
0.3367	-1.7923	-3.54698	6.54411	-1.48111	0.476468	0.18909	-0.375425	-67.9282	-0.763113	0
0.3373	1.25461	8.36182	5.02019	0.0499251	2.30293	1.70181	2.65479	-45.6352	0.461417	0.318096
0.3380	3.04691	3.47151	3.79886	-0.249626	1.03235	0.79418	2.35981	-28.8649	0.159721	0.318096
0.3387	1.25461	-13.9162	-0.167704	-1.78066	-1.11176	-1.36145	-0.697217	8.98346	-1.06481	0
0.3393	-2.15076	-22.4592	-2.91659	-2.08021	-1.98528	-2.26908	-2.22573	81.6243	-0.763113	0
0.3400	-2.15076	-21.8554	-1.38903	-0.565818	0.714702	0.491635	0.536321	82.2318	0.159721	0
0.3407	-0.89615	-28.5721	-1.38903	0.665668	2.62057	2.3069	2.35981	30.043	0.461417	0
0.3413	-0.268845	-36.1943	-3.21919	-0.249626	1.34999	1.09672	1.74304	19.6605	0.461417	0
0.3420	-0.627305	-32.2247	-6.27068	-2.08021	-1.66764	-1.96654	-1.31399	22.4034	-0.763113	0
0.3427	0	-23.6818	-6.57692	-1.78066	-1.98528	-1.36145	-1.60896	16.3101	-1.3665	-0.318096
0.3433	2.77806	-20.014	-1.38903	0.0499251	1.03235	1.70181	1.44807	6.24056	0.159721	0
0.3440	3.40537	-19.4103	2.88378	0.665668	2.30293	2.00436	3.27156	-13.6041	0.159721	0.318096
0.3447	2.4196	-18.8065	3.79886	0.965219	1.98528	1.39927	2.65479	-27.9445	-0.141974	0.318096
0.3453	0.627305	-18.8065	1.05362	-1.16492	-0.476468	-1.36145	-0.697217	-34.3507	-0.461417	0
0.3460	-2.15076	-18.4896	-0.780189	-2.39641	-2.62057	-2.87417	-3.13748	-23.3607	-0.763113	0
0.3467	-1.7923	-21.2366	1.35622	0.0499251	0.158823	-0.151272	-0.375425	-3.53448	0.159721	0
0.3473	-0.89615	-26.4288	4.10511	1.26477	2.62057	1.09672	2.06484	-20.0103	0.461417	0
0.3480	-0.89615	-26.1269	5.32278	0.665668	1.34999	0.491635	1.44807	-41.3644	0.461417	0
0.3487	-1.52345	-20.6329	5.02019	-0.865369	-1.66764	-1.96654	-1.31399	-26.7295	0.159721	0
0.3493	-2.15076	-14.8369	6.24151	-2.08021	-1.66764	-2.26908	-1.90394	20.581	-0.141974	0
0.3500	0.35846	-16.0595	9.90184	-0.565818	1.03235	0.79418	1.44807	72.7697	-0.141974	0
0.3507	1.25461	-24.6025	12.3445	0.665668	1.66764	1.70181	2.35981	73.0643	0.159721	0
0.3513	-1.7923	-11.4711	8.37427	0.965219	0.714702	0.491635	1.44807	38.2718	0.159721	0
0.3520	-4.30152	5.31292	-3.52543	-0.565818	-1.11176	-1.36145	0.214528	18.1326	-0.141974	0
0.3527	-3.04691	-30.7003	-13.9012	-1.16492	-1.11176	-1.36145	-0.697217	12.0393	0.159721	0
0.3533	-0.89615	-68.8567	-11.7648	0.665668	1.34999	0.79418	1.44807	9.59095	-0.141974	-0.318096
0.3540	-2.15076	-67.6341	-4.44051	0.965219	2.30293	2.91199	3.27156	13.5672	-0.141974	-0.954289
0.3547	-1.52345	-58.4724	-3.83168	0.349476	1.66764	3.51708	2.35981	17.5251	0.159721	-0.954289
0.3553	-0.268845	-32.5266	-8.10449	-0.865369	-1.11176	-0.453817	-1.31399	11.1189	-0.461417	0
0.3560	0.35846	-10.8673	-9.62841	-2.08021	-2.30293	-2.57163	-2.81568	12.3338	-0.763113	0
0.3567	2.4196	-8.72406	-5.3556	-0.565818	0.476468	0.18909	-0.375425	23.9314	-0.763113	-0.318096
0.3573	2.4196	38.5791	-1.38903	0.349476	1.98528	1.09672	0.831297	18.4455	-0.461417	0
0.3580	-1.16499	99.3004	-0.780189	0.0499251	0.714702	0.18909	0.536321	2.26427	-0.141974	0
0.3587	-3.94306	89.233	0.134892	-0.565818	-0.794114	-1.05891	-0.697217	-9.94071	-0.763113	0
0.3593	-4.30152	59.0157	4.10511	-1.48111	-1.66764	-1.664	-1.90394	-16.347	-1.06481	0
0.3600	-1.52345	59.0157	8.37427	-0.249626	-0.158823	0.491635	0.214528	-9.33323	-0.461417	0
0.3607	3.04691	52.9179	7.76543	1.26477	1.98528	2.91199	3.59335	1.65679	0.461417	0.318096
0.3613	4.30152	17.8255	1.35622	0.965219	1.34999	1.70181	2.35981	16.9176	0.461417	0.318096
0.3620	1.25461	-28.5721	-9.01957	-1.16492	-1.66764	-1.664	-1.90394	23.6368	-0.763113	0
0.3627	0.35846	-49.0087	-11.156	-1.78066	-1.66764	-2.26908	-2.81568	-3.53448	-0.461417	0
0.3633	1.88191	-37.4169	-2.61035	0.0499251	0.714702	0.18909	0.831297	-44.7332	0.461417	0
0.3640	0.627305	-12.3918	2.2713	0.965219	1.98528	1.39927	2.65479	-88.0674	0.763113	-0.318096
0.3647	-2.15076	15.0784	1.66246	0.665668	1.34999	0.79418	1.74304	-107.894	0.461417	0
0.3653	-4.30152	26.6703	-0.473947	-0.865369	-0.794114	-1.96654	-0.992194	-45.9482	0.159721	0
0.3660	-4.83921	23.0025	-2.30411	-1.48111	-1.98528	-2.87417	-3.13748	22.4034	-0.461417	0
0.3667	-1.52345	17.8255	-2.61035	0.349476	0.714702	-0.151272	-0.375425	39.7997	0.159721	0
0.3673	1.88191	14.4596	-2.61035	1.26477	3.17645	2.00436	3.27156	75.1997	1.06481	0
0.3680	1.25461	10.49	-2.30411	0.665668	1.03235	0.79418	2.06484	81.9189	0.763113	0
0.3687	-0.627305	4.99596	-0.167704	-0.565818	-1.66764	-1.96654	-1.60896	30.3376	-0.141974	0
0.3693	-0.627305	0.120748	2.57754	-0.865369	-1.66764	-2.26908	-2.22573	-5.66989	0.159721	0
0.3700	1.52345	-4.76956	4.4077	0.0499251	0.714702	0.18909	1.15309	-9.02028	1.38425	0
0.3707	2.15076	-9.94664	1.9687	1.26477	1.98528	1.70181	2.97658	-6.27738	1.68595	0
0.3713	0.627305	-15.7426	-2.00151	0.965219	1.03235	0.79418	1.74304	-0.773167	0.461417	0
0.3720	-1.52345	-20.014	-5.053	-0.865369	-1.66764	-2.26908	-0.697217	13.8618	-0.461417	0
0.3727	-2.4196	-16.3614	-9.93465	-1.48111	-2.30293	-2.57163	-1.60896	23.9314	-0.763113	0.318096
0.3733	-1.7923	-10.5655	-10.2409	-0.865369	-0.158823	-0.453817	0.536321	17.2306	-0.763113	0
0.3740	-0.89615	1.94707	-2.00151	-0.565818	0.714702	1.09672	2.06484	5.32012	-0.461417	0
0.3747	0	4.99596	1.9687	-0.249626	0.476468	0.79418	1.74304	5.63307	0.461417	0
0.3753	-0.268845	-19.7122	0.441135	-0.565818	-1.11176	-1.05891	-0.697217	14.7822	-0.461417	0
0.3760	-0.89615	-38.3376	2.57754	-0.865369	-1.66764	-1.664	-1.90394	19.053	-1.3665	-0.318096
0.3767	1.52345	-37.115	6.24151	0.349476	0.476468	0.491635	0.831297	21.5014	-0.763113	0
0.3773	1.88191	-22.7611	10.8169	0.665668	1.98528	1.70181	2.65479	18.1326	-0.461417	0
0.3780	-3.67421	-0.181122	17.5324	-2.08021	0.158823	-0.453817	0.831297	-0.773167	-0.763113	0
0.3787	-8.87188	9.88627	16.0048	-4.52654	-1.66764	-3.17672	-2.52071	-16.6599	-1.3665	0
0.3793	-6.36266	0.120748	4.71394	-3.61125	-1.34999	-2.26908	-2.22573	-16.9544	-1.06481	0
0.3800	-1.16499	-15.1388	-3.52543	-1.48111	1.34999	1.09672	1.74304	-14.819	0.461417	0.318096
0.3807	1.25461	-24.6025	-4.13792	-0.249626	2.62057	2.3069	3.88833	-5.35694	0.763113	0
0.3813	2.15076	-23.3799	-5.66184	-0.865369	1.03235	1.39927	2.65479	24.8518	0.159721	0
0.3820	0.627305	-14.2181	-7.1894	-2.39641	-1.66764	-1.36145	-0.697217	42.8555	-1.06481	0
0.3827	-2.15076	-39.2432	-3.52543	-2.99551	-1.98528	-2.26908	-2.22573	24.5388	-1.06481	0.318096
0.3833	-3.67421	-90.2141	2.88378	-0.865369	0.158823	-0.151272	0.536321	12.0393	-0.141974	0
0.3840	-4.83921	-96.3119	6.54411	0.665668	1.03235	2.60945	3.27156	23.6368	-0.141974	-0.636193
0.3847	-5.46651	-65.189	8.37427	0.349476	0.714702	2.91199	3.27156	44.9909	0.159721	-0.636193
0.3853	-6.36266	-51.152	6.24151	-1.78066	-1.11176	-1.05891	-0.697217	43.776	0.159721	0.318096
0.3860	-6.36266	-82.8937	1.66246	-2.39641	-1.98528	-2.87417	-2.81568	-4.4365	-0.461417	0
0.3867	-3.67421	-117.065	-0.167704	-0.249626	0.714702	0.79418	1.15309	-38.9345	-0.141974	-0.318096
0.3873	-1.7923	-72.8112	0.134892	0.665668	1.98528	2.00436	2.97658	-26.7295	0.159721	0
0.3880	-1.52345	-35.5906	-0.167704	-0.865369	0.158823	0.491635	1.15309	-6.27738	0.159721	0
0.3887	-0.268845	-54.8046	-2.91659	-1.48111	-1.66764	-0.453817	-1.60896	5.32012	-0.461417	-0.636193
0.3893	2.15076	9.5844	-4.44051	-1.48111	-1.34999	-0.756362	-1.90394	9.9039	-1.06481	-0.318096
0.3900	3.67421	82.8182	-4.44051	-0.565818	0.158823	-0.151272	0.536321	8.06302	-0.141974	-0.318096
0.3907	3.67421	61.159	-0.780189	0.665668	2.30293	1.70181	2.65479	0.736349	0.461417	0
0.3913	4.30152	106.319	1.9687	0.665668	1.98528	1.09672	2.35981	-16.347	0.159721	0
0.3920	4.92882	195.129	-4.74676	-0.865369	-1.34999	-1.96654	-0.992194	-47.1632	-0.763113	0
0.3927	4.92882	168.882	-9.32581	-1.16492	-1.98528	-1.96654	-1.60896	-60.2886	-1.06481	-0.318096
0.3933	3.40537	99.6022	-3.52543	0.0499251	0.476468	0.491635	1.15309	-33.1357	-0.461417	-0.318096
0.3940	0.627305	74.5772	-0.167704	0.349476	1.66764	2.00436	3.27156	-7.19781	0.159721	0
0.3947	0	64.5098	-1.38903	0.0499251	0.714702	0.79418	2.06484	-6.88487	-0.141974	0
0.3953	-0.627305	53.2198	-3.21919	-2.08021	-1.98528	-1.96654	-1.60896	-19.4028	-0.763113	-0.318096
0.3960	-1.16499	47.4239	-6.88316	-2.69596	-2.62057	-2.57163	-2.81568	-29.1594	-1.06481	0
0.3967	0.89615	40.7073	-9.93465	-1.16492	0.158823	0.18909	-0.0804481	-28.5519	-0.141974	0
0.3973	2.15076	33.085	-7.79824	0.0499251	1.98528	2.00436	2.65479	-27.9445	0.461417	0.318096
0.3980	0	33.3869	-1.69527	0.0499251	1.34999	1.70181	2.35981	-24.2811	0.461417	0
0.3987	-2.77806	29.7192	0.134892	-1.78066	-1.11176	-1.05891	-1.31399	-14.5061	-0.461417	0
0.3993	-3.67421	16.6029	-1.08279	-2.08021	-1.98528	-1.96654	-2.52071	1.36225	-0.763113	0
0.4000	-1.7923	21.1762	3.79886	-0.565818	1.03235	0.79418	1.15309	20.268	-0.141974	0.318096
0.4007	-0.89615	37.9602	8.07167	-0.249626	1.66764	1.70181	2.06484	7.76848	-0.141974	0.318096
0.4013	-0.627305	44.375	3.49262	-0.565818	0.714702	0.491635	1.15309	-27.337	-0.461417	0
0.4020	-0.627305	48.6465	-2.61035	-2.08021	-1.11176	-1.664	-0.992194	-45.9482	-1.3665	-0.318096
0.4027	-0.89615	52.2991	-3.83168	-2.08021	-1.34999	-1.96654	-2.52071	-53.5694	-1.06481	0
0.4033	1.88191	40.4054	-2.91659	0.665668	1.34999	1.09672	1.15309	-59.9941	0.763113	0
0.4040	5.82497	2.5659	0.441135	1.26477	1.98528	2.3069	2.97658	-62.1295	1.06481	0
0.4047	6.45228	-55.1216	7.15659	0.0499251	0.158823	0.18909	0.536321	-39.542	0.461417	0
0.4053	3.67421	-127.752	8.68051	-0.249626	-1.66764	-2.26908	-2.52071	10.5114	0.159721	0
0.4060	3.04691	-189.092	8.07167	-0.249626	-1.66764	-2.26908	-2.52071	38.2718	0.461417	0
0.4067	4.57036	-187.567	12.0382	0.965219	1.03235	0.79418	1.15309	43.776	1.06481	0
0.4073	2.15076	-140.566	13.5658	1.58096	2.30293	2.3069	2.97658	58.1164	1.06481	0
0.4080	-3.94306	-129.578	8.07167	0.665668	0.714702	0.79418	1.15309	56.5884	0.461417	-0.318096
0.4087	-9.76803	-124.084	1.35622	-1.16492	-1.66764	-1.96654	-2.22573	23.0293	-0.461417	0
0.4093	-11.5603	19.3499	-1.08279	-1.16492	-1.66764	-1.664	-2.52071	-5.0624	-0.461417	0
0.4100	-8.24458	177.123	-1.69527	0.665668	0.714702	0.79418	1.15309	-3.53448	0.461417	0
0.4107	-4.83921	138.362	-3.21919	1.58096	1.66764	1.70181	2.35981	-0.165679	0.763113	0
0.4113	-3.31575	17.2066	-4.74676	0.965219	1.34999	0.79418	1.44807	-0.165679	0.461417	0
0.4120	-3.94306	-22.4592	-4.13792	-0.565818	-0.794114	-1.36145	-0.992194	8.06302	-0.461417	0
0.4127	-4.57036	-7.19962	0.441135	-1.16492	-1.11176	-1.05891	-1.31399	15.0952	-0.141974	0
0.4133	-1.16499	-4.15072	0.441135	0.665668	1.03235	1.09672	1.44807	8.37597	0.763113	-0.318096
0.4140	3.04691	-8.12032	-6.27068	1.88051	1.98528	2.60945	2.97658	-7.19781	0.763113	-0.636193
0.4147	3.67421	-33.4473	-5.3556	0.665668	0.714702	2.60945	2.06484	-9.94071	0.461417	-0.636193
0.4153	-0.89615	-68.8567	0.134892	-1.16492	-2.30293	-1.36145	-1.90394	-10.5482	-0.141974	-0.318096
0.4160	-3.67421	-69.7623	6.54411	-1.48111	-1.98528	-2.87417	-3.13748	-7.49235	-0.141974	0
0.4167	-1.7923	-46.8805	9.293	0.0499251	1.34999	0.79418	0.831297	11.4318	0.461417	0
0.4173	0.627305	-30.3984	-1.69527	0.0499251	2.30293	2.60945	2.97658	-3.22153	0.763113	0
0.4180	-0.268845	-35.2736	-5.66184	-1.78066	1.03235	0.79418	1.44807	-45.3407	0.461417	0
0.4187	-2.15076	9.88627	1.05362	-2.99551	-1.34999	-1.96654	-1.31399	-50.8265	0.159721	0.318096
0.4193	1.25461	131.963	-1.38903	-2.39641	-1.98528	-1.96654	-1.60896	-9.33323	0.159721	0.318096
0.4200	6.09382	176.519	-3.21919	-0.565818	0.714702	0.79418	1.44807	74.5922	0.159721	0.318096
0.4207	4.30152	94.4252	-4.13792	0.349476	1.66764	2.00436	2.65479	154.56	0.461417	0
0.4213	-0.268845	23.6214	-5.053	-0.249626	0.158823	0.18909	1.15309	152.111	0.159721	0
0.4220	-2.77806	27.591	1.05362	-1.78066	-1.66764	-2.26908	-2.22573	87.7176	-1.06481	0
0.4227	-4.57036	49.5521	-0.780189	-2.08021	-2.30293	-2.57163	-3.13748	41.9351	-1.06481	0
0.4233	-4.57036	55.9668	-1.08279	-0.249626	0.476468	0.79418	0.536321	-34.0377	0.461417	0
0.4240	-1.52345	43.7562	7.45919	0.349476	2.62057	2.91199	3.59335	-134.144	0.159721	0
0.4247	2.15076	10.49	3.79886	-0.249626	1.66764	1.70181	2.65479	-133.831	-1.06481	0
0.4253	1.52345	3.78848	-8.40708	-1.78066	-1.34999	-2.26908	-1.31399	-78.6053	-1.6682	0
0.4260	-0.89615	24.844	-6.57692	-2.08021	-2.30293	-2.87417	-2.52071	-47.7707	-1.3665	0
0.4267	-1.7923	-18.8065	0.441135	0.0499251	0.158823	0.18909	0.536321	-8.41279	-0.141974	0
0.4273	-2.77806	-69.7623	-3.52543	1.58096	1.98528	1.09672	1.74304	19.6605	0.461417	0
0.4280	-3.04691	-44.4354	-6.57692	0.0499251	0.476468	-0.151272	0.536321	-14.819	0.159721	0
0.4287	-3.31575	-41.9902	-4.13792	-1.78066	-1.98528	-2.26908	-1.90394	-45.3407	-1.06481	0
0.4293	-3.67421	-25.825	-2.91659	-1.48111	-1.11176	-1.96654	-1.90394	-13.2911	-1.6682	0
0.4300	-2.15076	70.6227	-2.61035	0.0499251	1.66764	1.39927	1.74304	30.3376	-0.461417	-0.318096
0.4307	-0.268845	117.307	-3.21919	1.26477	2.30293	3.21454	3.59335	48.9672	1.06481	-0.318096
0.4313	0.35846	88.9311	-2.91659	0.665668	0.714702	0.79418	0.831297	40.1126	1.06481	0
0.4320	-1.52345	57.4913	-2.00151	-1.16492	-1.98528	-2.87417	-2.81568	-13.2911	-0.141974	0
0.4327	-2.15076	50.1709	-1.69527	-0.565818	-1.34999	-1.96654	-1.60896	-84.404	0.159721	0
0.4333	0.35846	58.7139	-0.780189	1.58096	1.66764	1.09672	2.65479	-109.127	1.68595	0
0.4340	2.15076	63.2872	-2.30411	1.88051	2.30293	2.00436	3.59335	-79.2128	1.38425	0.318096
0.4347	1.52345	30.9417	-7.1894	0.665668	0.714702	1.09672	1.44807	-19.6973	0.461417	0
0.4353	-1.52345	-62.7438	-9.01957	-1.78066	-1.66764	-1.96654	-1.60896	36.1363	-0.461417	-0.318096
0.4360	-3.94306	-112.19	-2.61035	-2.69596	-1.98528	-2.57163	-3.13748	50.7897	-0.763113	0
0.4367	-3.04691	-65.4909	4.71394	-1.16492	0.476468	0.79418	0.536321	43.463	0.159721	0.318096
0.4373	-1.52345	-18.1877	3.79886	-0.565818	1.66764	2.3069	2.65479	83.7597	0.763113	0
0.4380	-0.627305	1.94707	-1.69527	-1.48111	0.158823	1.09672	0.831297	120.375	-0.141974	0
0.4387	-0.268845	8.36182	-5.053	-2.08021	-1.66764	-1.05891	-1.31399	40.7201	-0.461417	0
0.4393	0.627305	12.9352	-4.13792	-1.48111	-1.11176	-1.36145	-0.992194	-38.327	-0.141974	0
0.4400	3.04691	22.0969	-1.38903	0.0499251	1.03235	1.39927	1.44807	-18.4824	0.159721	-0.318096
0.4407	3.04691	25.7496	0.747377	0.665668	1.66764	2.00436	2.65479	4.39969	1.06481	0
0.4413	1.25461	28.4966	1.05362	-0.249626	0.476468	0.18909	1.74304	-14.819	0.763113	0
0.4420	0.35846	17.2066	-0.473947	-2.39641	-1.98528	-2.26908	-1.31399	-31.9023	-0.461417	0
0.4427	0.627305	14.1577	1.35622	-2.08021	-1.34999	-1.664	-1.90394	-24.5941	-0.763113	-0.318096
0.4433	1.25461	36.4358	5.02019	-0.865369	0.714702	0.491635	0.831297	-14.2115	-0.141974	0
0.4440	0.89615	28.8136	5.32278	-0.249626	1.98528	1.70181	2.35981	-13.2911	0.461417	0
0.4447	-0.268845	-2.3244	2.2713	-0.249626	0.714702	0.79418	0.831297	-26.7295	0.461417	-0.318096
0.4453	-1.52345	-16.9651	-2.30411	-1.78066	-2.30293	-1.96654	-1.60896	-40.4624	-0.141974	0
0.4460	0	-16.9651	-2.61035	-1.48111	-1.66764	-1.664	-1.60896	-25.809	-0.141974	0.318096
0.4467	3.04691	-14.5351	1.9687	0.349476	1.03235	0.79418	0.831297	-10.8612	0.159721	0
0.4473	3.94306	-26.1269	1.35622	0.665668	1.98528	1.39927	2.06484	-33.4303	0.461417	-0.318096
0.4480	2.15076	-39.2432	-3.52543	0.0499251	0.714702	-0.453817	0.831297	-38.6215	0.461417	-0.318096
0.4487	-1.52345	-46.2617	-4.13792	-1.48111	-1.11176	-2.26908	-0.992194	36.1363	-0.141974	0
0.4493	-3.04691	-53.2802	-0.167704	-1.78066	-0.794114	-1.664	-0.697217	100.236	-0.461417	0
0.4500	-3.94306	-52.0576	5.32278	-0.249626	0.714702	0.18909	1.44807	37.3697	0.159721	0
0.4507	-5.19767	-50.8501	8.98676	0.349476	1.98528	2.00436	2.65479	-62.424	0.763113	-0.318096
0.4513	-2.4196	-52.0576	6.54411	0.349476	1.98528	2.3069	2.65479	-76.7644	0.159721	-0.636193
0.4520	-1.7923	-7.81845	1.9687	-0.865369	-0.158823	-0.453817	0.214528	-43.2053	-0.141974	-0.318096
0.4527	-3.04691	63.2872	-0.780189	-1.48111	-0.794114	-1.664	-1.31399	-20.6178	-0.141974	0
0.4533	-0.627305	67.2568	-2.61035	-0.249626	1.03235	0.79418	1.74304	-8.70733	0.461417	-0.318096
0.4540	0	27.8929	0.441135	0.965219	1.98528	2.00436	3.88833	-0.165679	1.06481	-0.318096
0.4547	-1.16499	8.66369	3.79886	0.349476	0.714702	1.09672	2.35981	2.26427	0.461417	0
0.4553	-2.4196	6.21854	1.35622	-1.48111	-1.66764	-1.96654	-1.31399	-0.478627	-0.461417	-0.318096
0.4560	-1.7923	11.1088	0.134892	-1.78066	-2.30293	-2.57163	-1.90394	-3.53448	-1.06481	-0.318096
0.4567	0.627305	12.0145	-4.74676	-0.565818	0.158823	0.18909	0.536321	-5.0624	-0.141974	0
0.4573	2.4196	9.5844	-11.156	0.349476	1.98528	1.39927	2.97658	-2.92699	1.06481	0.318096
0.4580	1.88191	4.39222	-5.053	0.665668	1.34999	0.491635	2.06484	4.10515	0.763113	0.318096
0.4587	-1.52345	-2.02253	1.9687	-0.865369	-1.66764	-1.96654	-2.52071	10.8059	-0.461417	-0.318096
0.4593	-3.04691	4.69409	3.18638	-1.16492	-1.66764	-1.664	-2.52071	10.1984	-0.461417	-0.318096
0.4600	-1.7923	10.49	4.71394	-0.249626	0.476468	1.09672	1.15309	0.736349	0.159721	0
0.4607	-0.268845	4.09035	4.71394	0.0499251	1.34999	1.70181	1.74304	-5.96443	0.461417	-0.318096
0.4613	-0.268845	1.34332	1.66246	-0.565818	0.476468	0.18909	0.536321	-29.1594	0.159721	0
0.4620	-2.4196	1.6452	-2.00151	-1.78066	-1.98528	-1.96654	-1.31399	-73.1011	-0.461417	0
0.4627	-3.67421	-0.482993	-1.69527	-1.48111	-1.66764	-1.96654	-1.31399	-63.9519	-0.461417	-0.318096
0.4633	-1.52345	-0.799957	1.05362	-0.249626	0.158823	0.18909	0.831297	-0.165679	-0.141974	0
0.4640	2.15076	-2.62628	1.66246	0.665668	0.714702	1.70181	2.65479	41.3276	0.763113	0
0.4647	2.77806	-9.04103	2.88378	0.665668	0.158823	1.09672	1.44807	40.4256	0.763113	0
0.4653	0.89615	-12.9955	4.10511	-1.16492	-1.34999	-1.664	-1.31399	23.6368	0.159721	0
0.4660	0	-11.4711	1.66246	-1.78066	-1.34999	-1.96654	-1.60896	5.02558	0.159721	0
0.4667	0.627305	-8.42219	-1.08279	0.0499251	1.34999	1.09672	2.06484	-8.70733	0.461417	-0.318096
0.4673	0.627305	-7.51658	-2.00151	0.665668	2.30293	2.3069	2.97658	-23.6736	0.461417	0
0.4680	-0.268845	-10.8673	-2.61035	-0.565818	0.476468	0.18909	0.536321	-49.2986	0.461417	0
0.4687	-0.268845	-13.9162	-4.44051	-1.78066	-1.98528	-2.57163	-2.22573	-51.7469	-0.141974	-0.318096
0.4693	-0.268845	-11.7881	-5.053	-1.78066	-1.66764	-1.96654	-2.22573	-27.6315	-0.461417	-0.318096
0.4700	-0.627305	-6.89775	-2.30411	0.0499251	1.03235	0.79418	0.536321	-17.8749	0.159721	-0.318096
0.4707	-0.627305	-6.59588	-0.167704	1.58096	2.62057	1.70181	2.97658	-5.35694	0.461417	0
0.4713	-0.627305	-10.8673	-0.780189	0.665668	1.66764	1.09672	2.65479	37.9772	0.159721	0
0.4720	-1.7923	-15.4407	-1.38903	-1.48111	-1.11176	-1.36145	-1.31399	71.2418	-0.763113	-0.318096
0.4727	-0.89615	-22.1573	0.747377	-1.48111	-0.794114	-1.664	-1.90394	52.6306	-0.461417	0
0.4733	2.4196	-33.4473	4.71394	0.349476	1.98528	0.79418	1.15309	15.7026	0.461417	0
0.4740	3.40537	-47.1824	5.93527	0.665668	2.30293	2.91199	2.35981	-2.61404	0.461417	-0.318096
0.4747	1.25461	-67.936	5.93527	0.0499251	1.03235	2.91199	2.35981	2.87176	0.159721	-0.636193
0.4753	-2.4196	-92.6592	4.71394	-1.48111	-1.11176	-0.453817	-0.697217	17.8381	-0.461417	-0.318096
0.4760	-3.67421	-105.172	1.9687	-1.16492	-1.11176	-1.664	-1.90394	26.0668	-1.06481	0.318096
0.4767	-2.4196	-116.462	1.35622	0.665668	1.03235	0.79418	1.44807	39.5051	-0.461417	0.318096
0.4773	-1.52345	-128.355	-0.780189	0.965219	1.34999	1.70181	2.97658	57.1959	0.159721	0
0.4780	-1.52345	-138.74	-8.40708	0.349476	-0.158823	0.18909	0.536321	53.8455	-0.141974	0
0.4787	-2.77806	-182.073	-12.9861	-1.16492	-1.66764	-2.26908	-2.52071	33.0989	-1.06481	0
0.4793	-2.15076	-162.844	-5.053	-1.16492	-0.476468	-1.664	-1.90394	19.053	-0.763113	0
0.4800	0.89615	-6.294	3.49262	0.349476	1.98528	1.39927	1.15309	26.0668	0.159721	0
0.4807	3.40537	100.221	1.05362	0.665668	1.66764	2.00436	2.06484	41.0331	0.461417	-0.318096
0.4813	5.19767	75.4979	-4.74676	-0.565818	-0.158823	-0.151272	-0.697217	59.3313	-0.141974	-0.318096
0.4820	4.30152	44.375	-5.96808	-1.48111	-1.98528	-1.96654	-2.81568	101.763	-0.763113	0
0.4827	3.40537	37.0395	-6.57692	-1.16492	-1.11176	-0.756362	-1.60896	103.291	-0.461417	0
0.4833	4.57036	28.8136	-8.71332	0.0499251	1.66764	1.70181	1.44807	35.8418	0.461417	-0.318096
0.4840	3.04691	37.6584	-6.88316	0.665668	2.62057	1.70181	2.06484	12.9597	1.38425	0
0.4847	-2.77806	63.2872	0.441135	-0.249626	0.714702	0.18909	0.536321	19.9735	1.06481	0
0.4853	-8.24458	65.1286	8.37427	-2.08021	-2.30293	-2.57163	-2.81568	-39.229	-0.141974	0
0.4860	-7.61727	32.4662	13.5658	-1.78066	-1.34999	-1.96654	-2.22573	-93.2586	-0.461417	-0.318096
0.4867	-3.67421	11.4107	15.396	0.349476	1.98528	1.39927	1.15309	-71.5916	-0.141974	-0.318096
0.4873	-1.7923	17.5085	11.1232	0.665668	2.62057	2.00436	2.35981	-5.66989	-0.141974	0
0.4880	-2.4196	12.6333	2.2713	-0.565818	0.476468	0.18909	-0.375425	55.0605	-1.06481	0
0.4887	-3.94306	-25.825	-2.00151	-2.39641	-2.30293	-2.26908	-3.75425	48.9672	-1.6682	-0.318096
0.4893	-2.77806	-52.9783	-0.167704	-2.08021	-2.30293	-1.96654	-2.22573	-16.034	-1.6682	0
0.4900	-1.52345	-36.1943	3.79886	-0.249626	0.158823	1.09672	1.44807	-59.6811	-1.06481	0
0.4907	-1.7923	-10.2485	5.32278	0.665668	1.03235	1.39927	2.06484	-27.024	-0.763113	-0.318096
0.4913	-0.89615	-1.10183	3.49262	0.0499251	0.476468	-0.453817	0.214528	44.3834	-0.763113	-0.318096
0.4920	-1.7923	-9.04103	1.9687	-1.16492	-1.98528	-2.57163	-2.22573	44.9909	-1.6682	-0.318096
0.4927	-3.04691	3.78848	1.66246	-1.48111	-1.66764	-1.96654	-3.13748	1.36225	-1.6682	-0.318096
0.4933	-0.268845	75.196	-1.69527	-0.249626	0.714702	0.491635	-0.0804481	-12.6836	-0.461417	0
0.4940	3.40537	111.813	-9.01957	0.349476	1.03235	0.79418	1.74304	-15.7395	0.159721	0
0.4947	3.40537	56.2687	-11.4586	-0.865369	-0.158823	-0.453817	-0.0804481	-15.7395	-0.461417	-0.318096
0.4953	0.627305	8.66369	-3.52543	-2.08021	-1.66764	-1.96654	-2.52071	-12.6836	-1.6682	0
0.4960	-1.52345	7.13924	5.93527	-0.865369	-1.11176	-1.36145	-1.90394	-12.6836	-1.06481	0
0.4967	0	7.74298	7.15659	0.0499251	1.34999	1.09672	1.44807	-10.2353	0.159721	0
0.4973	2.4196	5.6148	2.88378	0.349476	1.98528	2.00436	2.97658	-1.6936	0.159721	0
0.4980	2.4196	4.39222	0.747377	0.0499251	0.714702	0.491635	1.15309	2.57722	-0.141974	0
0.4987	0.627305	-4.76956	0.134892	-0.865369	-1.34999	-1.96654	-1.60896	-4.4365	-0.461417	0
0.4993	0.627305	5.31292	2.57754	-0.565818	-1.34999	-1.36145	-1.31399	-14.819	-0.763113	0
0.5000	2.15076	58.7139	9.59559	0.965219	0.714702	1.39927	1.74304	-19.0899	-0.141974	-0.318096
0.5007	2.15076	97.1722	10.5107	1.26477	1.34999	2.3069	2.97658	-20.9307	0.461417	0
0.5013	-0.268845	86.486	5.02019	0.665668	0.714702	2.00436	1.74304	-22.1457	0.159721	0
0.5020	-3.67421	59.6346	-0.780189	-0.865369	-1.34999	-0.453817	-0.697217	-18.7953	-0.763113	0
0.5027	-4.30152	35.5151	-5.3556	-0.249626	-1.11176	-1.05891	-0.697217	-15.132	-0.141974	0.318096
0.5033	-2.77806	21.4781	-8.10449	1.88051	1.98528	1.39927	2.97658	-13.8986	1.06481	0
0.5040	-3.04691	15.6822	-7.492	1.26477	2.30293	3.21454	4.5051	-5.0624	1.06481	-0.318096
0.5047	-3.31575	11.1088	-4.74676	-1.48111	0.476468	1.70181	1.74304	12.6468	0.461417	-0.318096
0.5053	-3.04691	8.96556	-2.91659	-3.61125	-1.66764	-1.96654	-1.90394	10.8059	-0.141974	0
0.5060	-3.31575	8.05995	-1.38903	-3.3117	-1.66764	-2.26908	-1.90394	-9.33323	-0.141974	0
0.5067	-1.52345	8.66369	1.05362	-1.16492	1.03235	1.09672	2.06484	-17.2674	0.461417	-0.318096
0.5073	0.627305	6.83737	1.05362	0.0499251	1.98528	2.3069	3.59335	-11.7632	0.763113	0
0.5080	0	-4.15072	-1.08279	-0.865369	0.158823	-0.151272	1.74304	-2.00655	0.159721	-0.318096
0.5087	-2.15076	-16.9651	-5.96808	-2.39641	-1.66764	-2.57163	-1.31399	11.4318	-1.06481	-0.318096
0.5093	-0.89615	-20.9347	-7.79824	-1.16492	-0.794114	-1.36145	-0.992194	21.7959	-1.3665	-0.318096
0.5100	0.89615	-19.1084	-4.13792	0.0499251	1.34999	1.39927	1.44807	22.4034	-1.3665	-0.318096
0.5107	-0.627305	-19.1084	-0.780189	0.349476	1.34999	1.09672	2.06484	16.3101	-0.461417	-0.318096
0.5113	-1.7923	-20.6329	-0.780189	-0.565818	0.476468	-0.453817	0.831297	3.7922	0.159721	0
0.5120	-2.15076	-21.8554	0.747377	-1.78066	-1.11176	-2.26908	-1.90394	-15.4265	-0.763113	-0.318096
0.5127	-1.52345	-25.825	4.4077	-1.16492	-0.158823	-1.36145	-1.31399	-22.1457	-0.141974	0
0.5133	0	-13.6144	5.62903	0.665668	2.30293	1.70181	2.35981	-12.6836	0.461417	0.318096
0.5140	0.35846	24.2251	4.4077	0.965219	2.62057	2.60945	3.59335	-5.96443	0.159721	-0.318096
0.5147	-0.89615	45.5976	2.88378	0.349476	1.34999	0.79418	1.44807	-6.27738	-0.141974	-0.318096
0.5153	-2.4196	34.9114	-0.473947	-1.78066	-1.66764	-1.96654	-1.90394	-8.41279	-0.461417	0
0.5160	-2.4196	21.4781	-2.61035	-1.78066	-1.34999	-1.36145	-0.992194	-6.27738	-0.141974	0
0.5167	-1.52345	14.7615	-1.69527	0.0499251	1.03235	1.09672	1.74304	-2.92699	0.159721	-0.318096
0.5173	-1.16499	12.0145	-1.69527	0.349476	1.34999	1.39927	2.65479	-2.00655	0.461417	0
0.5180	-1.16499	8.96556	-2.61035	-0.565818	0.158823	-0.453817	1.44807	-3.22153	0.461417	0
0.5187	-2.15076	3.16964	-3.21919	-1.48111	-1.34999	-2.57163	-1.31399	-6.27738	-0.461417	-0.318096
0.5193	-2.15076	1.04145	-1.38903	-0.865369	-0.794114	-1.664	-0.992194	-5.96443	-0.763113	-0.318096
0.5200	-1.52345	5.91667	1.66246	0.349476	1.03235	0.79418	1.74304	-1.08612	0.461417	0
0.5207	-1.52345	9.5844	2.88378	0.349476	1.66764	1.09672	2.65479	5.02558	1.06481	0
0.5213	-0.627305	7.13924	1.9687	-0.565818	1.03235	0.491635	1.44807	9.59095	0.159721	-0.318096
0.5220	-1.16499	3.47151	0.747377	-1.78066	-1.34999	-1.36145	-1.60896	18.1326	-0.763113	-0.318096
0.5227	-0.89615	4.09035	-0.473947	-1.48111	-1.11176	-1.05891	-1.31399	22.1089	-0.763113	0
0.5233	2.4196	6.21854	-0.167704	0.0499251	1.98528	2.00436	2.65479	-1.39906	0.159721	-0.318096
0.5240	3.67421	5.31292	1.66246	0.965219	1.98528	2.3069	3.88833	-27.9445	0.461417	-0.318096
0.5247	3.04691	1.6452	1.66246	0.349476	0.476468	0.491635	2.65479	-27.6315	0.461417	0
0.5253	1.88191	-1.10183	-2.00151	-1.16492	-1.11176	-1.664	-0.992194	-19.0899	-0.141974	-0.318096
0.5260	0	-1.10183	-3.21919	-1.48111	-1.34999	-1.36145	-1.90394	-13.6041	-0.763113	-0.318096
0.5267	-1.52345	-3.54698	-1.38903	0.0499251	0.714702	0.79418	1.15309	-8.09984	0.159721	-0.318096
0.5273	-1.52345	-0.799957	-1.08279	0.665668	1.98528	1.39927	2.65479	-5.96443	0.763113	0
0.5280	-1.16499	8.36182	-1.69527	0.0499251	0.714702	0.18909	0.831297	-5.66989	0.159721	0
0.5287	-3.04691	7.74298	-1.69527	-1.78066	-2.30293	-2.26908	-2.52071	-6.27738	-0.763113	0
0.5293	-3.04691	1.34332	0.747377	-1.16492	-1.34999	-1.664	-1.90394	-4.14196	-0.461417	0
0.5300	0	-1.70557	2.88378	0.665668	1.98528	1.09672	1.15309	-0.165679	0.461417	0
0.5307	1.25461	-2.3244	2.57754	1.26477	2.62057	2.3069	3.27156	1.96973	0.763113	0
0.5313	0	-1.4037	0.441135	-0.249626	0.476468	-0.151272	1.74304	1.65679	0.763113	0.318096
0.5320	-1.52345	0.120748	-1.38903	-1.48111	-1.66764	-2.26908	-1.60896	-0.165679	-0.141974	-0.318096
0.5327	-0.627305	0.422619	-2.00151	-0.565818	-0.476468	-0.756362	-0.0804481	-1.39906	-0.141974	-0.318096
0.5333	0.35846	-0.799957	-2.61035	0.349476	1.66764	1.39927	2.97658	-1.39906	0.461417	0
0.5340	0.35846	-1.70557	-2.61035	0.665668	1.98528	2.00436	3.27156	-1.39906	0.461417	-0.318096
0.5347	0	-3.84885	-2.30411	-0.249626	1.03235	1.70181	2.06484	-4.4365	-0.141974	-0.636193
0.5353	-1.52345	-7.19962	-1.69527	-1.48111	-0.794114	-0.151272	-0.697217	-7.19781	-0.461417	-0.318096
0.5360	-1.16499	-5.97704	0.134892	-0.865369	-0.476468	-0.756362	-0.992194	-2.92699	-0.461417	0.318096
0.5367	0.89615	-3.54698	1.9687	0.349476	1.34999	1.39927	1.74304	-1.08612	0.461417	0
0.5373	1.25461	-3.54698	2.57754	0.349476	1.03235	1.09672	2.06484	-4.14196	0.461417	-0.318096
0.5380	0.35846	-4.76956	2.2713	-0.865369	-0.476468	-1.05891	0.214528	-4.14196	-0.461417	0
0.5387	0	-5.97704	-2.00151	-1.78066	-1.98528	-2.57163	-2.22573	-2.30109	-0.763113	0
0.5393	1.25461	-4.45259	-5.3556	-0.249626	-0.158823	-0.756362	-1.31399	0.736349	-0.141974	-0.318096
0.5400	1.52345	-2.92815	-2.30411	1.26477	1.98528	1.70181	2.97658	3.18471	0.461417	-0.318096
0.5407	0.35846	-3.23002	1.05362	0.349476	1.98528	2.00436	3.59335	3.18471	0.159721	-0.318096
0.5413	-1.16499	-1.70557	-0.473947	-0.565818	0.714702	0.491635	1.15309	1.0493	-0.461417	0
0.5420	-4.57036	-4.15072	-0.780189	-1.78066	-1.98528	-2.26908	-2.22573	-2.00655	-1.06481	0
0.5427	-4.30152	-9.64477	2.2713	-1.78066	-0.794114	-1.664	-1.90394	-3.53448	-0.763113	0
0.5433	-0.627305	-5.07143	3.18638	0.349476	1.34999	1.09672	1.44807	-5.35694	0.461417	-0.318096
0.5440	1.88191	1.04145	4.71394	0.965219	1.66764	2.00436	2.97658	-5.35694	1.06481	-0.318096
0.5447	3.40537	-4.76956	6.24151	0.0499251	0.714702	0.491635	1.74304	-5.35694	0.763113	0
0.5453	0.89615	-12.0899	1.05362	-1.16492	-1.11176	-1.96654	-0.697217	2.57722	-0.141974	0
0.5460	-0.89615	-13.3125	-1.38903	-1.16492	-0.794114	-1.664	-0.697217	17.2306	-0.461417	0
0.5467	0.627305	-12.3918	5.02019	-0.249626	1.66764	0.18909	1.15309	15.0952	0.159721	-0.318096
0.5473	1.88191	-7.19962	7.76543	0.665668	2.62057	0.79418	2.35981	5.63307	0.159721	0
0.5480	1.25461	-4.45259	3.79886	0.0499251	0.476468	-1.36145	-0.0804481	1.96973	-0.141974	0
0.5487	-0.627305	-4.76956	0.441135	-1.48111	-1.98528	-3.78181	-3.43245	-1.08612	-0.763113	0
0.5493	0.89615	-1.10183	-1.08279	-0.865369	-0.794114	-2.87417	-1.90394	-7.49235	-0.141974	0.318096
0.5500	3.04691	-1.4037	-3.21919	0.965219	1.66764	0.491635	1.44807	-18.1694	0.763113	0.318096
0.5507	3.04691	-4.45259	-3.21919	0.665668	2.30293	2.60945	1.44807	-13.8986	0.461417	0
0.5513	1.88191	-0.799957	-2.30411	-0.565818	0.714702	1.39927	-0.992194	1.96973	-0.141974	0
0.5520	-0.268845	-2.02253	-4.74676	-1.78066	-1.34999	-1.05891	-3.75425	9.9039	-0.461417	0
0.5527	-0.89615	-9.64477	-9.32581	-2.39641	-1.11176	0.18909	-2.52071	19.053	-0.461417	0
0.5533	-2.4196	-4.76956	-9.93465	-1.48111	0.714702	2.91199	2.65479	26.6927	-1.06481	0
0.5540	-4.83921	10.1881	-5.96808	-0.565818	2.30293	1.70181	6.32859	27.9076	-0.763113	0
0.5547	-3.94306	17.5085	-5.053	0.0499251	1.03235	-0.151272	3.88833	33.0989	-0.461417	-0.318096
0.5553	-3.31575	14.4596	-7.1894	-0.565818	-1.34999	-1.36145	-1.60896	43.463	-0.461417	0
0.5560	-3.94306	0.422619	-6.27068	-0.865369	-1.34999	-1.36145	-1.60896	35.8418	0.159721	0
0.5567	-3.31575	-14.2181	-2.61035	0.0499251	0.476468	1.09672	1.74304	13.2543	0.461417	0
0.5573	-3.31575	-13.3125	1.05362	0.665668	1.34999	2.00436	2.65479	18.4455	0.159721	0
0.5580	-3.94306	-6.59588	1.66246	0.349476	0.158823	0.79418	1.15309	19.366	0.159721	0
0.5587	-4.57036	-4.76956	-0.473947	-1.48111	-2.62057	-1.664	-1.60896	-16.347	-0.763113	0
0.5593	-2.77806	-1.4037	0.134892	-0.865369	-1.11176	-0.453817	-0.697217	-35.5657	-0.461417	0
0.5600	0	0.422619	0.747377	0.665668	1.34999	1.70181	2.06484	-46.5557	0.763113	0
0.5607	0.89615	-0.799957	0.441135	0.665668	1.66764	1.70181	2.65479	-59.3682	0.763113	0
0.5613	-0.268845	-1.4037	-1.08279	-0.565818	-0.158823	0.18909	0.536321	-46.8686	0.159721	-0.318096
0.5620	-2.4196	-1.70557	-2.30411	-1.78066	-1.66764	-2.26908	-2.81568	-29.1594	-0.141974	0
0.5627	-1.7923	-0.482993	-0.167704	-0.865369	-0.476468	-1.05891	-0.697217	-20.0103	0.159721	0
0.5633	0	1.04145	1.9687	0.349476	1.34999	1.09672	1.74304	-13.8986	0.159721	-0.318096
0.5640	0.35846	2.24894	1.66246	0.665668	1.34999	0.79418	1.44807	-10.5482	0.159721	-0.318096
0.5647	-1.16499	1.34332	0.134892	-0.249626	0.158823	0.491635	0.536321	-10.2353	-0.461417	-0.636193
0.5653	-3.31575	-1.10183	-1.69527	-1.78066	-1.34999	-0.756362	-2.22573	-10.8612	-1.06481	-0.636193
0.5660	-2.15076	-1.10183	-0.473947	-0.865369	-0.476468	-1.05891	-2.22573	-5.66989	0.159721	0
0.5667	0	-1.70557	0.747377	0.665668	1.98528	0.79418	1.15309	0.128861	1.06481	0
0.5673	1.52345	-4.45259	-0.473947	0.349476	1.98528	1.70181	2.35981	1.0493	0.461417	0
0.5680	1.88191	-5.67517	1.35622	-0.865369	-0.476468	-0.151272	0.536321	-1.08612	-0.461417	0
0.5687	0	-4.45259	1.9687	-2.08021	-2.30293	-2.57163	-2.81568	-3.22153	-0.763113	-0.318096
0.5693	-1.16499	-2.3244	-1.69527	-1.48111	-1.11176	-1.96654	-1.60896	-3.53448	-0.461417	-0.636193
0.5700	-0.627305	-0.181122	-3.21919	0.665668	1.34999	0.79418	2.35981	-1.6936	0.159721	-0.318096
0.5707	-0.268845	1.34332	-1.38903	1.26477	1.98528	1.70181	3.88833	1.36225	0.461417	0
0.5713	-1.7923	0.72449	0.747377	0.0499251	0.476468	-0.151272	2.35981	2.26427	0.461417	0
0.5720	-3.04691	-2.3244	1.35622	-1.48111	-1.66764	-2.26908	-0.697217	-1.39906	0.159721	0
0.5727	-1.52345	-2.92815	4.71394	-1.16492	-1.11176	-1.05891	-0.697217	-0.165679	-0.763113	-0.318096
0.5733	0.35846	-1.10183	6.54411	0.665668	1.03235	1.39927	2.35981	9.9039	-0.461417	-0.318096
0.5740	1.88191	-0.799957	4.10511	0.965219	1.98528	1.70181	3.27156	14.7822	0.461417	-0.318096
0.5747	0.89615	-2.3244	1.05362	-0.865369	0.476468	-0.151272	1.15309	11.1189	-0.461417	-0.318096
0.5753	-2.15076	-2.62628	-1.69527	-2.39641	-1.98528	-3.17672	-2.81568	15.0952	-1.6682	-0.318096
0.5760	-2.15076	-0.181122	-1.69527	-1.16492	-1.11176	-1.96654	-2.22573	29.7301	-0.461417	-0.318096
0.5767	0.35846	2.86777	1.05362	0.665668	1.34999	1.09672	1.44807	29.7301	0.461417	0
0.5773	1.88191	4.09035	1.05362	0.665668	1.66764	1.70181	2.65479	2.26427	0.461417	0
0.5780	1.25461	1.94707	-1.69527	-1.16492	-0.158823	-1.05891	0.214528	-25.4961	-0.461417	0
0.5787	-0.268845	-1.10183	-2.61035	-2.39641	-2.30293	-3.47926	-3.43245	-29.7669	-1.06481	0
0.5793	0	-0.181122	-1.08279	-0.865369	-1.11176	-1.664	-2.22573	-17.5619	-0.763113	0
0.5800	1.88191	0.120748	0.134892	0.665668	1.34999	1.39927	1.74304	-2.92699	0.159721	0
0.5807	1.52345	-4.45259	-0.473947	0.665668	1.98528	1.70181	2.35981	9.9039	0.159721	0
0.5813	-0.627305	-8.72406	-5.053	-0.865369	-0.476468	-0.453817	-0.697217	18.4455	-0.461417	0
0.5820	-1.16499	-9.94664	-5.66184	-2.39641	-2.30293	-2.57163	-3.13748	19.6605	-0.763113	-0.318096
0.5827	-0.89615	-4.76956	3.49262	-1.48111	0.158823	-0.756362	-1.31399	20.581	-0.461417	0
0.5833	-1.52345	0.120748	9.90184	0.349476	2.30293	1.39927	2.06484	32.1785	0.159721	0
0.5840	-2.4196	0.72449	8.07167	0.965219	1.66764	1.39927	2.65479	38.2718	0.159721	-0.318096
0.5847	-3.67421	2.5659	3.49262	-0.249626	-0.476468	-0.453817	0.831297	7.45554	0.159721	-0.318096
0.5853	-3.67421	3.47151	-0.780189	-2.39641	-1.98528	-2.87417	-1.90394	-40.4624	-0.461417	-0.318096
0.5860	0	4.69409	-1.08279	-1.48111	-0.794114	-1.36145	-0.697217	-52.9619	-0.461417	0
0.5867	1.52345	4.69409	1.05362	0.665668	1.34999	1.39927	2.35981	-36.7991	0.461417	-0.318096
0.5873	0.35846	2.86777	1.05362	0.349476	1.66764	0.79418	2.06484	-22.4402	0.159721	-0.318096
0.5880	-0.89615	2.24894	0.134892	-0.565818	-0.158823	-0.453817	-0.0804481	-16.6599	-0.461417	-0.318096
0.5887	-1.7923	2.5659	-1.08279	-1.78066	-2.30293	-1.664	-2.22573	-14.819	-1.06481	-0.318096
0.5893	-1.7923	3.78848	-0.473947	-1.48111	-1.11176	-1.05891	-1.31399	-12.3707	-0.461417	-0.318096
0.5900	-2.4196	7.44111	2.2713	0.349476	1.66764	1.39927	1.74304	-10.8612	0.763113	0
0.5907	-3.67421	9.88627	3.18638	0.965219	2.30293	2.00436	3.27156	-12.6836	1.38425	0
0.5913	-3.31575	4.09035	1.35622	-0.865369	0.158823	-0.453817	0.831297	-9.02028	0.159721	0
0.5920	-2.77806	-7.51658	-1.08279	-2.08021	-1.98528	-2.57163	-2.22573	9.29641	-0.763113	0
0.5927	-1.7923	-8.42219	-0.780189	-1.16492	-0.794114	-1.36145	-0.992194	19.366	0.159721	0
0.5933	-0.627305	-0.799957	1.05362	0.349476	1.03235	1.39927	2.06484	11.7264	0.763113	0
0.5940	0.35846	1.94707	1.35622	0.349476	1.98528	2.00436	2.35981	7.161	0.461417	0
0.5947	-0.268845	0.120748	0.134892	-0.865369	0.476468	-0.151272	-0.0804481	5.63307	-0.461417	-0.318096
0.5953	-2.15076	-1.70557	-0.780189	-2.08021	-1.98528	-0.756362	-1.90394	1.36225	-1.06481	-0.636193
0.5960	-1.52345	-1.4037	0.134892	-0.865369	-0.476468	2.00436	0.214528	1.0493	-0.461417	-0.636193
0.5967	0.627305	1.04145	1.66246	0.965219	1.34999	2.91199	2.97658	4.39969	0.461417	-0.318096
0.5973	0.89615	1.6452	1.66246	0.349476	1.03235	1.70181	2.65479	5.02558	0.159721	0
0.5980	0	0.120748	0.441135	-1.16492	-0.158823	-0.151272	-0.0804481	2.26427	-0.461417	0
0.5987	-1.7923	-1.4037	-0.780189	-2.08021	-1.66764	-2.26908	-2.52071	0.128861	-0.763113	0
0.5993	-1.7923	-0.799957	-0.473947	-1.16492	-0.794114	-0.756362	-1.60896	1.36225	-0.461417	0
0.6000	0.89615	1.34332	1.66246	0.349476	1.34999	1.70181	1.44807	4.10515	0.461417	0
0.6007	1.52345	1.6452	2.2713	0.665668	1.98528	1.39927	2.65479	4.71264	0.763113	0
0.6013	0	0.422619	0.441135	-0.249626	0.158823	-0.453817	1.44807	2.87176	0.461417	-0.318096
0.6020	-2.4196	-0.799957	-2.61035	-2.08021	-1.98528	-3.17672	-1.60896	0.44181	-0.763113	-0.318096
0.6027	-2.15076	0.422619	-2.91659	-1.48111	-1.34999	-2.26908	-1.60896	1.36225	-0.763113	0
0.6033	0	1.94707	-1.08279	0.665668	0.714702	0.79418	1.15309	3.7922	-0.141974	-0.318096
0.6040	0.89615	1.6452	0.134892	0.965219	1.98528	1.09672	2.97658	4.10515	0.159721	-0.318096
0.6047	0.627305	1.6452	-0.780189	-0.565818	0.476468	-1.05891	1.74304	3.49766	0.159721	0
0.6053	-0.627305	1.34332	-2.61035	-1.78066	-1.98528	-2.87417	-1.60896	2.26427	-0.141974	0
0.6060	0	1.04145	-1.38903	-0.565818	-0.476468	-1.05891	-0.0804481	3.18471	-0.141974	-0.318096
0.6067	0.627305	1.6452	1.9687	0.349476	1.98528	1.70181	3.59335	5.63307	0.461417	-0.318096
0.6073	-0.268845	2.86777	2.57754	0.349476	2.30293	2.00436	3.59335	5.32012	0.159721	-0.318096
0.6080	-1.52345	0.72449	-0.473947	-0.565818	-0.158823	-0.453817	0.536321	2.26427	-0.141974	-0.318096
0.6087	-2.77806	-3.54698	-2.91659	-1.78066	-2.30293	-2.87417	-2.52071	-1.39906	-1.3665	0
0.6093	-1.52345	-2.62628	-0.780189	-1.16492	-1.11176	-1.05891	-1.31399	-1.08612	-1.06481	-0.318096
0.6100	0	0.120748	2.57754	0.0499251	1.03235	1.70181	1.74304	1.0493	0.159721	-0.318096
0.6107	-0.268845	-0.181122	2.88378	0.349476	1.34999	1.39927	2.06484	1.36225	0.763113	0.318096
0.6113	-2.15076	-2.02253	1.05362	-0.249626	-0.158823	-1.05891	-0.697217	-0.478627	-0.141974	0
0.6120	-3.04691	-1.70557	-0.473947	-1.16492	-1.34999	-2.87417	-2.22573	-1.08612	-0.763113	-0.318096
0.6127	0	0.120748	-0.473947	0.0499251	-0.158823	-0.756362	-0.375425	2.26427	-0.141974	0
0.6133	2.77806	1.04145	0.441135	1.26477	1.34999	2.00436	1.74304	3.7922	0.461417	0
0.6140	1.52345	1.34332	1.05362	0.665668	1.34999	1.39927	1.44807	2.26427	-0.141974	0
0.6147	-0.627305	1.34332	0.134892	-0.865369	-0.158823	-0.756362	-0.0804481	0.128861	-0.141974	0
0.6153	-1.7923	-0.181122	-0.780189	-1.78066	-1.98528	-2.26908	-2.22573	-1.6936	-0.141974	0.318096
0.6160	-1.16499	0.120748	0.134892	-0.865369	-0.476468	-0.756362	-0.992194	-0.478627	-0.141974	0
0.6167	0.89615	1.34332	1.66246	0.965219	1.98528	2.00436	2.35981	2.57722	0.461417	-0.318096
0.6173	1.52345	1.04145	1.05362	0.965219	1.98528	2.00436	2.35981	2.57722	0.159721	-0.318096
0.6180	0	-0.799957	-0.780189	-0.865369	-0.476468	-0.453817	-0.0804481	-0.165679	-0.461417	-0.318096
0.6187	-1.7923	-2.02253	-1.38903	-2.08021	-2.30293	-2.57163	-2.52071	-2.92699	-0.763113	-0.318096
0.6193	-1.16499	0.120748	-0.167704	-0.565818	-0.158823	-0.756362	-0.697217	0.128861	-0.141974	-0.318096
0.6200	1.25461	2.5659	0.441135	0.665668	2.30293	1.39927	2.06484	4.71264	0.159721	-0.318096
0.6207	2.15076	2.86777	-0.167704	0.0499251	1.98528	0.79418	1.44807	5.63307	-0.141974	-0.318096
0.6213	0.627305	1.34332	-2.00151	-1.16492	-0.476468	-1.664	-1.31399	3.49766	-0.461417	0
0.6220	-0.89615	-0.799957	-2.61035	-1.78066	-2.30293	-2.87417	-3.43245	0.44181	-1.06481	0
0.6227	-0.268845	-0.482993	-0.473947	-0.565818	-0.158823	-0.756362	-1.31399	1.36225	-0.461417	0
0.6233	0.89615	0.422619	1.35622	0.0499251	1.98528	1.09672	1.15309	1.96973	0.461417	0
0.6240	1.25461	0.120748	1.35622	0.0499251	1.98528	1.39927	1.15309	-0.478627	0.461417	0
0.6247	1.25461	-1.10183	-0.780189	-0.865369	0.158823	-0.151272	-0.0804481	-2.92699	0.461417	0
0.6253	0	-3.23002	-3.52543	-2.08021	-1.66764	-0.756362	-2.52071	-4.74945	-1.06481	-0.318096
0.6260	0.35846	-2.62628	-2.61035	-1.48111	-0.158823	2.91199	-0.992194	-4.4365	-1.06481	-0.636193
0.6267	2.4196	-0.181122	0.441135	0.349476	2.85881	5.37017	3.27156	-1.39906	0.461417	-0.318096
0.6273	1.52345	-0.181122	1.9687	0.665668	2.85881	3.51708	3.59335	3.18471	0.763113	0.318096
0.6280	-1.52345	-1.4037	2.2713	-0.565818	-0.158823	-0.453817	-0.0804481	2.26427	-0.763113	0
0.6287	-3.31575	3.78848	3.79886	-1.78066	-2.62057	-3.17672	-2.22573	-3.53448	-1.3665	-0.318096
0.6293	-2.77806	12.6333	6.54411	-1.16492	-0.794114	-1.36145	1.44807	-0.773167	-0.763113	0
0.6300	0	15.3803	8.37427	0.665668	1.66764	1.39927	4.5051	5.32012	0.159721	0
0.6307	1.52345	10.49	8.37427	0.965219	1.34999	1.39927	3.27156	-0.478627	0.763113	0.318096
0.6313	-0.627305	7.74298	2.57754	-0.565818	-0.476468	-0.453817	0.831297	-12.6836	-0.141974	0
0.6320	-4.83921	8.96556	-6.88316	-2.08021	-1.34999	-1.96654	-1.60896	-11.7632	-1.06481	0
0.6327	-5.82497	1.04145	-9.01957	-0.865369	0.476468	-0.453817	0.214528	11.1189	0.159721	0
0.6333	-3.67421	-14.5351	-6.27068	0.665668	2.30293	2.00436	3.27156	35.2343	0.763113	0.318096
0.6340	-1.52345	-20.9347	-5.053	0.349476	1.66764	1.09672	2.97658	58.7239	0.159721	0
0.6347	-0.268845	-14.8369	-4.13792	-0.865369	-0.476468	-0.756362	-0.0804481	55.9809	-0.461417	0
0.6353	-2.15076	-7.51658	-4.74676	-2.08021	-2.30293	-1.96654	-2.22573	14.1747	-0.763113	0
0.6360	-1.16499	-1.70557	-4.44051	-1.16492	-0.476468	-0.453817	-0.697217	-1.6936	-0.461417	0
0.6367	0.627305	8.36182	-1.38903	0.349476	1.34999	1.09672	2.06484	-9.62777	0.461417	0.318096
0.6373	-1.52345	14.1577	1.05362	0.0499251	0.714702	0.491635	2.06484	-39.8365	0.461417	0
0.6380	-3.31575	7.13924	0.441135	-1.48111	-0.794114	-1.05891	-0.375425	-40.7569	-0.141974	0
0.6387	-1.52345	-1.70557	-3.52543	-1.48111	-2.30293	-2.26908	-3.13748	-21.5382	-0.461417	0.318096
0.6393	1.52345	-4.15072	-4.74676	0.0499251	-0.476468	-0.453817	-0.697217	-8.70733	0.461417	0.318096
0.6400	3.67421	-1.4037	-2.30411	0.665668	1.98528	1.70181	2.35981	0.128861	1.06481	0.318096
0.6407	3.40537	0.72449	-0.780189	0.665668	1.98528	2.00436	2.06484	-13.2911	0.763113	0
0.6413	-0.89615	-0.799957	-1.08279	-0.565818	-0.476468	-0.151272	-0.697217	-50.8265	0.159721	-0.318096
0.6420	-4.83921	-0.799957	-1.38903	-2.39641	-2.30293	-1.96654	-2.81568	-82.2686	-0.461417	0
0.6427	-3.04691	2.24894	-0.167704	-0.565818	-0.476468	0.18909	-0.697217	-79.2128	-0.141974	0
0.6433	-0.627305	4.69409	1.9687	0.349476	1.66764	2.60945	2.35981	-45.3407	0.461417	0
0.6440	-0.89615	3.16964	3.49262	0.0499251	1.66764	2.00436	2.65479	3.49766	0.159721	0
0.6447	-1.16499	-3.84885	2.2713	-0.565818	-0.794114	-0.756362	0.831297	67.2655	0.159721	0.318096
0.6453	-0.89615	-9.64477	-0.780189	-1.78066	-2.30293	-2.26908	-1.90394	106.329	-0.461417	0
0.6460	0.35846	-6.89775	-0.780189	-0.865369	-0.476468	-0.151272	-0.992194	95.9647	-0.141974	-0.318096
0.6467	0.89615	0.72449	1.05362	1.26477	1.66764	2.60945	2.65479	50.1822	1.06481	0.318096
0.6473	0.35846	6.5355	1.35622	1.26477	1.03235	1.39927	2.06484	-4.14196	0.763113	0.318096
0.6480	-1.7923	6.21854	-0.167704	-1.16492	-1.66764	-1.664	-2.22573	-22.1457	-0.141974	0
0.6487	-3.04691	4.99596	-1.38903	-2.08021	-3.17645	-2.26908	-4.96097	-11.4686	-0.763113	0
0.6493	-1.16499	8.05995	0.134892	-0.565818	-0.794114	0.79418	-2.22573	-4.74945	-0.141974	0
0.6500	0.627305	7.13924	2.2713	0.665668	1.34999	2.91199	1.15309	-2.00655	0.461417	0
0.6507	1.25461	0.422619	3.49262	0.965219	1.66764	2.91199	0.831297	-0.773167	0.763113	-0.318096
0.6513	0	-7.81845	2.88378	-0.249626	-0.158823	1.39927	-1.90394	-2.00655	0.461417	-0.318096
0.6520	-1.16499	-14.8369	0.747377	-1.48111	-1.98528	-0.151272	-4.66599	5.63307	-0.461417	-0.318096
0.6527	1.25461	-12.3918	0.747377	-0.565818	-0.158823	1.39927	-1.31399	26.0668	-0.763113	-0.318096
0.6533	3.94306	-4.45259	0.441135	0.0499251	1.03235	3.51708	3.59335	39.5051	0.159721	0
0.6540	3.94306	0.72449	0.134892	0.0499251	0.714702	3.21454	3.59335	31.571	-0.141974	0
0.6547	1.88191	4.69409	-1.08279	-0.865369	-0.476468	0.79418	0.536321	-4.14196	-1.3665	0
0.6553	-1.7923	6.21854	-4.13792	-2.69596	-2.62057	-1.05891	-2.22573	-39.8365	-1.6682	-0.318096
0.6560	-3.04691	-1.10183	-4.74676	-1.48111	-0.476468	1.70181	-0.375425	-31.9023	-0.763113	-0.954289
0.6567	-1.16499	-5.3733	-4.44051	0.965219	2.30293	3.21454	2.65479	-2.92699	0.159721	-0.318096
0.6573	-0.627305	3.16964	-3.52543	0.0499251	0.714702	1.09672	3.59335	2.87176	-0.141974	0
0.6580	-3.04691	5.31292	0.134892	-1.48111	-1.66764	-1.96654	2.97658	-2.30109	-0.763113	-0.318096
0.6587	-4.30152	-2.92815	2.57754	-2.69596	-2.93822	-5.33235	1.44807	1.36225	-1.3665	-0.318096
0.6593	-1.7923	-3.54698	3.18638	-2.69596	-1.34999	-5.93744	2.35981	-0.773167	-1.3665	0.318096
0.6600	0.35846	1.6452	3.49262	-0.865369	1.66764	-3.47926	4.1833	-11.1557	-0.461417	0.318096
0.6607	-0.89615	0.72449	2.57754	-0.249626	1.34999	-2.26908	3.27156	-24.5941	-0.461417	0
0.6613	-2.4196	-5.3733	1.35622	-1.48111	-1.34999	-2.26908	-0.0804481	-42.5978	-0.763113	0
0.6620	-1.52345	-6.59588	0.134892	-2.39641	-2.30293	-2.57163	-3.13748	-22.4402	-0.461417	0
0.6627	0.89615	-1.70557	-0.167704	-1.48111	-0.794114	-0.756362	-0.375425	23.9314	0.461417	0.318096
0.6633	1.52345	3.16964	-0.780189	0.0499251	0.714702	1.09672	3.88833	26.9872	0.461417	0
0.6640	0.89615	2.5659	-2.30411	-0.249626	-0.158823	1.39927	4.1833	16.9176	0.159721	-0.318096
0.6647	0	-0.799957	-2.91659	-1.48111	-2.30293	0.491635	1.74304	30.9635	-0.461417	-0.318096
0.6653	-1.16499	-3.23002	-2.91659	-2.39641	-3.4941	-1.36145	-0.375425	45.5984	-1.06481	-0.318096
0.6660	-0.89615	-0.799957	-0.780189	-1.48111	-1.66764	-1.05891	2.06484	58.4293	-0.763113	0
0.6667	-0.268845	2.86777	1.9687	-0.249626	0.476468	0.79418	4.80007	62.9947	0.461417	0
0.6673	-0.627305	4.69409	1.66246	-0.249626	-0.158823	1.39927	3.88833	19.366	0.461417	0.318096
0.6680	0	4.09035	-1.08279	-0.865369	-2.62057	-0.756362	-0.0804481	-49.004	-0.461417	0
0.6687	1.25461	-0.181122	-3.52543	-2.08021	-4.76468	-2.26908	-3.75425	-61.8165	-1.3665	-0.318096
0.6693	3.40537	-4.45259	-3.21919	-1.16492	-1.66764	-0.151272	-1.90394	-34.0377	-0.461417	-0.318096
0.6700	4.30152	-5.3733	1.05362	0.349476	2.30293	0.18909	1.15309	-22.4402	0.159721	-0.318096
0.6707	3.40537	-3.23002	7.45919	0.349476	3.17645	-1.05891	1.74304	-13.2911	-0.461417	-0.318096
0.6713	0.627305	0.72449	10.5107	-0.565818	1.98528	-2.26908	0.214528	-2.92699	-0.763113	0
0.6720	-1.16499	2.24894	9.90184	-0.865369	-0.158823	-3.17672	-1.31399	5.92761	-0.461417	0
0.6727	1.25461	1.34332	7.76543	0.0499251	0.476468	-1.96654	1.15309	22.4034	-0.141974	0
0.6733	3.04691	2.24894	2.88378	0.665668	2.62057	-1.05891	4.5051	-4.14196	0.159721	0.318096
0.6740	1.25461	-0.181122	-6.57692	0.349476	1.98528	-1.664	4.1833	-53.8824	-0.141974	0
0.6747	-1.52345	-6.89775	-9.62841	-0.565818	-1.66764	-1.96654	1.44807	-38.014	-0.763113	0
0.6753	-3.94306	-3.23002	0.441135	-1.16492	-3.17645	-1.664	-0.992194	2.26427	-0.763113	0
0.6760	-3.67421	11.4107	11.4294	-0.249626	-1.34999	2.00436	-1.31399	1.96973	0.159721	0
0.6767	-1.7923	21.1762	11.732	1.26477	-0.158823	4.76508	-0.375425	-16.034	0.763113	-0.318096
0.6773	-0.627305	15.0784	3.49262	1.26477	0.158823	4.12217	0.214528	-21.5382	1.06481	0
0.6780	0	4.99596	-4.74676	0.0499251	-0.476468	2.3069	-0.0804481	-14.5061	0.461417	0
0.6787	-2.15076	-1.4037	-8.10449	-1.48111	-1.66764	0.491635	-1.90394	11.7264	-1.06481	0
0.6793	-2.4196	-10.5655	-7.492	-1.16492	0.476468	1.70181	-0.697217	56.9014	-0.461417	0
0.6800	0.35846	-6.59588	-4.74676	0.665668	3.4941	5.37017	3.27156	58.4293	1.06481	0
0.6807	2.4196	12.6333	-0.780189	0.965219	3.81175	5.06762	3.88833	1.0493	0.763113	0
0.6813	1.25461	18.7311	-1.08279	-0.565818	2.30293	-0.151272	0.831297	-22.1457	-0.141974	0
0.6820	-2.4196	2.86777	-8.40708	-2.08021	0.476468	-2.87417	-3.43245	3.18471	-0.141974	0
0.6827	-3.31575	-11.4711	-11.7648	-0.565818	1.98528	-0.756362	-3.13748	19.9735	0.461417	0
0.6833	-1.52345	-18.1877	-7.1894	0.965219	4.44704	1.09672	0.214528	32.1785	1.06481	0.318096
0.6840	-0.89615	-22.7611	-4.74676	0.965219	4.44704	1.70181	1.74304	37.9772	1.06481	-0.318096
0.6847	-3.04691	-18.8065	-5.053	-0.249626	1.34999	1.70181	-0.697217	19.6605	0.461417	-0.636193
0.6853	-3.67421	-7.19962	-2.30411	-0.865369	-1.11176	-0.756362	-3.43245	-14.2115	0.763113	0
0.6860	-0.89615	1.94707	0.134892	0.349476	1.98528	-1.664	-0.375425	-38.327	0.763113	0
0.6867	0.89615	5.91667	-2.30411	1.26477	5.32056	1.39927	3.27156	-44.7332	1.06481	-0.636193
0.6873	0	10.49	-4.13792	0.965219	4.44704	1.70181	2.06484	-43.8128	0.763113	-0.318096
0.6880	-2.4196	9.5844	-3.52543	-0.865369	1.66764	-3.17672	-1.60896	-31.0003	0.159721	0
0.6887	-3.04691	1.34332	-3.21919	-1.48111	0.476468	-5.0298	-3.13748	-5.35694	-0.461417	-0.318096
0.6893	0	-2.62628	-1.08279	0.665668	2.30293	-1.05891	0.214528	11.1189	0.159721	0
0.6900	2.15076	-0.482993	1.05362	2.49626	3.81175	1.70181	3.59335	9.29641	1.38425	0
0.6907	1.52345	1.04145	0.747377	2.18006	2.85881	0.79418	3.59335	1.65679	1.38425	0
0.6913	-0.627305	-0.181122	-0.167704	-0.565818	0.714702	-1.96654	0.831297	-4.74945	-0.141974	0
0.6920	-2.4196	-2.3244	-0.780189	-2.39641	-0.794114	-3.17672	-1.60896	-8.41279	-1.06481	-0.318096
0.6927	-2.4196	-2.92815	0.441135	-0.865369	1.34999	-1.05891	0.831297	-0.165679	-0.141974	-0.318096
0.6933	-2.15076	-2.92815	1.66246	0.665668	3.17645	0.79418	3.88833	17.5251	0.461417	0.318096
0.6940	-2.4196	-3.84885	1.35622	-0.565818	1.66764	-0.453817	2.65479	26.6927	-0.141974	0
0.6947	-2.15076	-6.294	-0.167704	-1.78066	-0.794114	-4.42472	-0.992194	23.9314	-1.6682	-0.318096
0.6953	-2.77806	-9.04103	-1.08279	-2.39641	-1.98528	-5.63489	-2.81568	34.3139	-1.98764	0
0.6960	-0.89615	1.04145	0.134892	-0.565818	0.158823	-0.453817	0.214528	50.4951	-0.763113	0
0.6967	1.25461	13.8559	1.66246	0.965219	2.30293	5.06762	2.65479	1.0493	0.159721	0
0.6973	0.89615	12.0145	1.35622	0.965219	1.66764	4.46253	1.74304	-68.5357	0.461417	0
0.6980	-1.52345	5.6148	-0.780189	-1.48111	-1.66764	1.09672	-1.31399	-64.2649	-0.141974	0
0.6987	-3.31575	4.09035	-1.38903	-2.69596	-3.81175	-0.756362	-4.3442	-33.4303	-1.06481	-0.318096
0.6993	-1.16499	5.6148	0.441135	-0.249626	-1.66764	1.09672	-2.52071	-19.6973	-0.141974	-0.318096
0.7000	0.35846	6.83737	1.05362	1.88051	-0.476468	2.3069	0.214528	-12.9966	0.763113	0
0.7007	0	5.91667	0.747377	1.88051	-1.11176	1.39927	-0.375425	-11.1557	1.38425	-0.318096
0.7013	0	1.04145	-2.61035	0.0499251	-2.62057	-0.756362	-3.13748	-9.33323	0.461417	-0.636193
0.7020	0	-6.59588	-5.3556	-1.16492	-3.81175	-2.57163	-4.3442	-1.39906	-0.763113	-0.318096
0.7027	0.35846	-10.2485	-2.00151	0.349476	-1.98528	-1.05891	-0.375425	13.8618	0.159721	0
0.7033	0.627305	-7.51658	2.57754	1.26477	-0.476468	1.09672	3.27156	16.6047	0.763113	-0.318096
0.7040	0.35846	-2.02253	4.4077	0.665668	-1.34999	1.09672	2.06484	-0.478627	0.763113	-0.318096
0.7047	-1.16499	2.5659	2.88378	-0.565818	-4.12939	-0.756362	-2.52071	-15.4265	0.461417	0
0.7053	-2.15076	4.09035	0.441135	-1.48111	-4.76468	-1.96654	-4.3442	-18.1694	0.159721	0
0.7060	-0.268845	4.39222	-2.30411	-0.565818	-0.794114	-0.151272	-0.0804481	-12.3707	0.159721	0
0.7067	0.89615	3.78848	-2.91659	0.0499251	2.30293	2.00436	5.41684	-5.96443	-0.141974	0
0.7073	-0.627305	2.5659	0.747377	-0.865369	0.476468	1.09672	6.94535	-3.53448	-1.06481	0
0.7080	-2.4196	0.72449	2.2713	-2.69596	-2.30293	-1.36145	4.1833	-4.74945	-1.98764	-0.318096
0.7087	-2.4196	-0.181122	-0.167704	-3.61125	-2.93822	-2.26908	2.35981	-5.66989	-2.89273	-0.318096
0.7093	-0.268845	1.34332	0.441135	-1.48111	0.158823	0.79418	4.5051	-2.61404	-1.6682	-0.318096
0.7100	1.52345	2.5659	2.57754	0.965219	2.85881	3.51708	3.27156	1.0493	0.159721	-0.318096
0.7107	1.52345	1.6452	2.2713	0.965219	2.85881	2.3069	-0.992194	1.0493	0.763113	-0.318096
0.7113	-0.89615	0.72449	1.05362	-0.565818	1.03235	-0.151272	-4.3442	-1.39906	-0.141974	0
0.7120	-3.04691	0.422619	0.134892	-1.16492	-0.158823	-1.664	-5.57774	-2.92699	-0.141974	0
0.7127	-1.52345	0.120748	1.35622	0.0499251	1.66764	0.491635	-1.90394	-1.39906	0.763113	0
0.7133	0.35846	-0.181122	2.57754	1.26477	3.4941	2.91199	0.831297	0.44181	1.06481	0
0.7140	-1.52345	-0.799957	3.18638	0.0499251	3.17645	3.21454	0.831297	-1.39906	0.461417	0
0.7147	-3.04691	-2.62628	1.9687	-1.78066	1.34999	2.3069	-0.375425	-5.0624	-0.763113	-0.954289
0.7153	-2.77806	-2.62628	-0.167704	-2.39641	0.476468	1.70181	-2.22573	-4.74945	-1.3665	-0.636193
0.7160	-0.627305	0.120748	0.134892	-0.565818	3.17645	1.70181	-0.375425	0.44181	-0.141974	0.318096
0.7167	1.25461	1.6452	1.66246	1.58096	5.32056	2.3069	2.97658	2.87176	0.461417	0.318096
0.7173	0.627305	1.94707	0.134892	1.88051	4.44704	1.70181	3.88833	2.26427	0.763113	0
0.7180	-1.52345	0.422619	-2.00151	0.665668	1.03235	0.18909	0.831297	0.44181	0.461417	0
0.7187	-3.04691	-0.482993	-1.08279	-0.249626	-0.476468	-0.756362	-1.90394	-0.478627	0.159721	0
0.7193	-1.7923	1.04145	1.35622	0.0499251	1.34999	0.18909	-1.31399	0.736349	0.763113	-0.318096
0.7200	0.35846	1.6452	2.2713	-0.249626	3.4941	-0.756362	0.831297	-0.478627	-0.141974	0
0.7207	0.627305	1.04145	1.9687	-0.865369	2.85881	-2.26908	1.44807	-2.30109	-1.06481	0
0.7213	-0.89615	0.72449	-0.167704	-1.78066	0.714702	-3.78181	-0.375425	-2.61404	-1.3665	0
0.7220	-1.52345	0.72449	-2.00151	-2.69596	-0.476468	-4.42472	-1.90394	-2.00655	-1.3665	0
0.7227	0.35846	1.94707	-0.473947	-1.16492	1.66764	-1.36145	0.214528	1.36225	-0.461417	0
0.7233	1.52345	2.86777	1.35622	0.665668	3.4941	1.70181	2.06484	3.49766	0.159721	-0.318096
0.7240	1.25461	2.24894	1.66246	0.665668	2.30293	1.09672	1.74304	1.0493	0.159721	0
0.7247	-0.268845	2.24894	-0.780189	-0.565818	-0.476468	-0.151272	-0.697217	-2.92699	-0.141974	0.318096
0.7253	-1.16499	2.24894	-5.053	-2.08021	-2.62057	-0.756362	-2.22573	-4.74945	-1.06481	0
0.7260	0.627305	3.47151	-3.83168	-1.16492	-0.476468	0.18909	3.27156	-2.30109	-1.06481	0
0.7267	1.52345	3.47151	-0.167704	0.0499251	2.62057	1.70181	8.15208	0.44181	-0.141974	0.318096
0.7273	0.627305	2.24894	0.747377	0.0499251	2.62057	1.39927	6.32859	1.65679	-0.141974	0
0.7280	-1.7923	1.04145	-0.780189	-1.48111	-0.158823	-2.26908	2.35981	1.65679	-0.763113	0
0.7287	-3.67421	0.120748	-0.780189	-2.08021	-2.62057	-4.72726	-0.375425	2.57722	-0.461417	0
0.7293	-2.15076	-0.799957	4.4077	-0.565818	-1.98528	-1.664	0.831297	6.5351	0.461417	0
0.7300	0.35846	-2.62628	7.76543	0.665668	0.158823	1.70181	2.06484	7.161	0.763113	0
0.7307	1.52345	-2.3244	4.71394	1.26477	1.03235	1.09672	0.536321	1.96973	0.461417	-0.318096
0.7313	0.35846	-2.92815	-0.473947	-0.249626	-1.34999	-2.57163	-3.75425	-3.53448	-0.141974	-0.318096
0.7320	-2.15076	-4.15072	-2.00151	-1.16492	-2.93822	-3.78181	-5.57774	-3.82902	-0.141974	0
0.7327	-1.7923	1.04145	0.441135	0.665668	0.476468	0.491635	-1.90394	1.0493	0.461417	0
0.7333	0.627305	7.13924	1.66246	1.26477	3.81175	4.12217	1.74304	4.10515	0.763113	-0.318096
0.7340	2.4196	5.31292	1.35622	0.965219	3.4941	4.46253	1.74304	2.26427	0.763113	0
0.7347	0.627305	-0.799957	-0.167704	-0.249626	0.158823	0.79418	-1.60896	-2.30109	-0.461417	0.318096
0.7353	-0.627305	-2.62628	-1.38903	-1.48111	-1.66764	-1.36145	-3.75425	-4.4365	-1.06481	0
0.7360	1.88191	0.72449	0.134892	-0.249626	1.03235	2.00436	-0.697217	-4.4365	-0.141974	-0.318096
0.7367	4.30152	4.39222	1.35622	0.965219	2.85881	5.06762	1.74304	-5.0624	0.461417	0
0.7373	3.94306	2.86777	0.134892	0.349476	1.98528	3.81963	1.15309	-5.96443	-0.141974	0
0.7380	1.52345	-1.4037	-2.30411	-1.48111	-0.476468	1.39927	-0.375425	-10.8612	-1.06481	0
0.7387	-0.268845	-3.54698	-2.61035	-1.78066	-0.794114	0.18909	-0.697217	-4.4365	-1.3665	0
0.7393	-0.268845	-3.23002	0.134892	-0.565818	1.66764	1.70181	1.74304	17.8381	-1.06481	0
0.7400	-0.268845	-0.482993	2.2713	0.349476	2.62057	2.91199	3.27156	29.7301	-0.461417	-0.318096
0.7407	-0.268845	0.72449	1.35622	0.665668	1.34999	0.79418	1.44807	25.1647	0.461417	0
0.7413	-0.627305	-4.45259	-1.38903	-1.16492	-1.11176	-3.78181	-3.13748	8.98346	-0.141974	0
0.7420	-1.16499	-8.72406	-1.69527	-2.69596	-2.30293	-5.33235	-5.25594	-5.96443	-1.3665	-0.318096
0.7427	-1.16499	-3.84885	2.2713	-0.565818	0.714702	-2.26908	-0.0804481	-7.49235	-1.3665	-0.318096
0.7433	-1.16499	2.24894	4.71394	0.965219	2.30293	-1.05891	3.88833	-8.70733	-0.763113	-0.318096
0.7440	-1.7923	4.69409	2.88378	0.0499251	1.03235	-1.664	3.88833	-10.2353	-0.461417	-0.318096
0.7447	-3.31575	5.6148	0.747377	-1.48111	-0.794114	-3.78181	2.97658	-7.19781	-1.06481	-0.636193
0.7453	-4.57036	5.31292	-0.473947	-2.08021	-2.93822	-6.54253	-0.375425	1.36225	-1.6682	-0.318096
0.7460	-2.15076	1.04145	-0.167704	-1.48111	-1.34999	-3.78181	-1.31399	21.5014	-1.3665	0
0.7467	0.627305	-4.45259	0.747377	-0.565818	1.03235	-0.151272	3.27156	44.9909	-1.3665	-0.318096
0.7473	0.89615	-7.81845	1.66246	-1.16492	0.714702	-0.756362	7.56212	63.6022	-1.6682	-0.318096
0.7480	-0.89615	-8.12032	0.441135	-2.39641	-1.34999	-1.36145	4.1833	61.1722	-1.3665	0
0.7487	-2.77806	-3.84885	-2.30411	-2.69596	-2.93822	3.21454	-2.22573	9.9039	-1.98764	-0.318096
0.7493	-1.7923	4.99596	-1.08279	-0.865369	-1.34999	14.8247	-1.90394	-39.8365	-1.06481	0
0.7500	0.627305	10.1881	0.747377	0.349476	-0.158823	20.6109	1.15309	-46.2611	0.461417	0
0.7507	2.15076	7.74298	0.747377	-0.565818	-2.62057	14.5221	0.536321	-42.2849	-0.141974	0
0.7513	0.627305	2.86777	-0.167704	-2.99551	-6.59114	4.76508	-3.75425	-33.7432	-1.6682	0
0.7520	-3.04691	-2.62628	-2.91659	-3.9108	-4.76468	5.06762	-5.87271	-12.9966	-1.98764	-0.318096
0.7527	-2.15076	-8.12032	-4.44051	-2.69596	2.85881	20.9134	-2.22573	9.59095	-1.3665	-0.636193
0.7533	1.52345	-8.12032	-2.91659	-2.08021	5.95585	32.8261	1.15309	26.3797	-1.3665	-0.318096
0.7540	3.04691	-5.07143	-1.38903	-2.08021	3.4941	30.6705	1.15309	38.8976	-1.6682	0
0.7547	0.89615	-9.64477	-3.21919	-3.3117	-1.66764	24.5818	0.831297	25.4593	-1.98764	0
0.7553	-1.16499	-12.3918	-5.66184	-5.44184	-5.32056	18.7956	2.65479	-27.024	-2.89273	-0.318096
0.7560	0	-2.92815	-1.69527	-4.52654	-3.4941	15.1272	7.56212	-56.9382	-2.59103	-0.318096
0.7567	0	4.99596	5.32278	-1.48111	-1.34999	13.312	10.2974	-34.9582	-1.3665	0
0.7573	-2.15076	5.6148	6.24151	0.665668	-2.93822	9.94615	8.47387	-7.8053	-0.141974	0
0.7580	-3.04691	6.83737	1.05362	0.665668	-6.59114	4.76508	2.35981	1.0493	-0.461417	0
0.7587	-3.67421	10.49	-1.69527	-0.565818	-6.90879	-2.87417	-0.375425	2.87176	-1.06481	0
0.7593	-2.4196	9.28253	0.747377	0.0499251	-3.81175	-9.90834	4.5051	-7.49235	-0.461417	0
0.7600	-0.627305	2.24894	-0.167704	0.965219	-1.98528	-10.2109	9.06382	-27.024	0.461417	-0.318096
0.7607	-0.268845	-3.23002	-5.053	1.58096	-1.11176	-10.816	8.76885	-21.5382	1.38425	-0.636193
0.7613	-1.52345	-4.45259	-7.1894	1.58096	-1.11176	-19.3629	2.65479	-9.02028	2.28934	-0.318096
0.7620	-1.7923	-2.3244	-5.66184	1.58096	-1.11176	-25.7541	-3.75425	-1.39906	2.91048	0.318096
0.7627	-0.89615	1.04145	-1.38903	3.7111	0.714702	-25.4516	-2.52071	23.9314	3.21217	0.318096
0.7633	0.35846	2.5659	1.35622	4.32684	4.44704	-25.4516	-0.0804481	19.6605	2.91048	0
0.7640	1.25461	1.94707	1.9687	2.79581	7.78231	-29.1199	-1.31399	-22.1457	3.51387	0
0.7647	-0.627305	0.422619	3.49262	1.26477	7.78231	-33.6959	-3.43245	-32.8228	2.59103	-0.318096
0.7653	-3.31575	-1.10183	4.10511	0.349476	4.44704	-31.2756	-3.43245	-13.6041	1.98764	-0.318096
0.7660	-3.04691	1.04145	2.57754	1.58096	3.81175	-18.7578	-0.0804481	4.71264	1.98764	0
0.7667	-0.89615	4.09035	-0.167704	2.79581	4.44704	-7.14762	1.15309	15.9972	2.28934	0
0.7673	-0.268845	4.39222	-2.00151	2.79581	3.17645	-1.05891	-1.60896	19.366	2.28934	-0.318096
0.7680	-0.89615	2.24894	-3.21919	1.26477	0.476468	0.79418	-4.96097	22.4034	1.68595	0
0.7687	-0.89615	-1.4037	-3.21919	0.0499251	0.714702	-0.151272	-5.25594	18.1326	0.763113	0
0.7693	1.52345	-2.3244	-1.08279	0.965219	5.00292	-0.453817	-0.992194	-3.82902	0.763113	-0.636193
0.7700	2.77806	0.120748	-0.473947	1.26477	5.32056	-0.756362	2.35981	-23.3607	0.763113	-0.318096
0.7707	1.88191	2.24894	-1.08279	0.0499251	3.4941	-2.57163	2.97658	-24.8886	0.159721	0
0.7713	-0.627305	1.04145	-1.08279	-1.48111	1.34999	-5.0298	1.44807	-19.4028	-0.141974	0
0.7720	-1.7923	0.422619	0.441135	-1.78066	0.476468	-4.42472	-0.697217	-13.6041	-0.461417	0
0.7727	-0.627305	1.94707	1.9687	0.0499251	1.98528	-1.05891	-0.375425	-8.41279	0.461417	0
0.7733	0.89615	1.94707	1.66246	0.665668	2.85881	-0.151272	0.214528	-6.27738	0.763113	-0.318096
0.7740	1.88191	0.72449	0.441135	-0.249626	2.62057	1.39927	1.15309	-2.30109	0.159721	-0.636193
0.7747	0.35846	-1.4037	-1.08279	-2.39641	0.476468	1.39927	0.536321	6.24056	-1.06481	-0.318096
0.7753	-3.31575	-2.62628	-2.30411	-3.9108	-0.794114	-1.664	-0.992194	12.0393	-2.28934	0
0.7760	-3.67421	-1.10183	-0.780189	-1.78066	1.66764	-0.453817	0.831297	9.29641	-1.3665	0
0.7767	-1.16499	2.5659	1.35622	0.665668	3.81175	0.491635	3.27156	-1.08612	0.763113	0
0.7773	-0.627305	3.78848	1.05362	1.58096	2.62057	1.09672	2.06484	-8.41279	1.68595	0
0.7780	-2.4196	1.04145	1.05362	0.0499251	-0.794114	2.91199	-1.90394	-8.70733	1.06481	0
0.7787	-3.94306	-2.92815	1.05362	-1.16492	-2.30293	2.91199	-4.3442	-7.49235	0.159721	0
0.7793	-2.77806	-3.54698	1.35622	-0.565818	0.158823	2.91199	-2.81568	-3.82902	0.159721	0
0.7800	0	-2.3244	1.05362	-0.249626	1.03235	4.12217	-0.0804481	1.36225	0.159721	0
0.7807	2.15076	-2.02253	1.05362	0.0499251	1.34999	5.37017	-0.697217	2.26427	-0.461417	0
0.7813	0.627305	-4.15072	-0.473947	-0.865369	-0.476468	3.81963	-4.3442	1.36225	-1.3665	-0.318096
0.7820	-2.77806	-4.45259	-1.69527	-2.08021	-2.30293	3.21454	-6.19451	4.10515	-1.98764	0
0.7827	-1.16499	2.86777	0.134892	-0.249626	-0.476468	6.58035	-3.43245	7.76848	-0.763113	0
0.7833	0.627305	5.6148	2.2713	0.349476	0.476468	6.88289	-1.60896	6.24056	-0.461417	0
0.7840	0	1.94707	0.747377	-1.48111	-1.66764	3.51708	-1.90394	1.65679	-1.6682	0
0.7847	-1.7923	8.05995	-1.08279	-3.3117	-3.81175	-0.151272	-3.75425	1.0493	-2.89273	0
0.7853	-2.77806	18.4292	-0.473947	-2.99551	-4.12939	-1.05891	-5.57774	8.37597	-2.89273	0
0.7860	0.627305	15.6822	-0.780189	-1.48111	-1.66764	1.39927	-3.13748	17.8381	-1.6682	-0.318096
0.7867	3.67421	4.99596	-1.08279	-0.565818	-0.794114	2.91199	-0.375425	14.4693	-1.3665	-0.318096
0.7873	2.77806	-0.799957	0.441135	-1.16492	-2.93822	1.09672	0.214528	3.18471	-1.98764	0
0.7880	-0.89615	-4.45259	0.747377	-2.99551	-6.59114	-0.756362	-0.375425	-0.478627	-2.59103	0
0.7887	-3.67421	-6.59588	0.441135	-3.9108	-7.46467	1.70181	0.831297	6.5351	-3.19443	0
0.7893	-2.15076	-5.67517	1.05362	-3.3117	-3.81175	4.12217	6.32859	10.8059	-3.81556	0
0.7900	0.35846	-6.294	1.66246	-3.3117	0.158823	3.81963	8.47387	16.6047	-4.11726	-0.318096
0.7907	0.89615	-6.59588	0.747377	-3.3117	2.30293	0.18909	3.88833	31.8655	-3.51387	0
0.7913	-0.89615	-4.76956	-1.08279	-3.3117	1.98528	-2.57163	-2.22573	13.5672	-2.59103	0
0.7920	-1.52345	-2.62628	-1.38903	-2.39641	2.62057	1.39927	-2.22573	-29.7669	-1.6682	0
0.7927	-0.627305	-0.799957	0.134892	-0.565818	5.00292	6.58035	3.59335	-33.1357	-0.763113	0
0.7933	-0.627305	0.422619	1.66246	0.0499251	5.32056	7.79052	9.38561	-12.6836	-0.763113	0
0.7940	-1.52345	-0.482993	1.66246	-1.16492	4.68527	4.76508	11.8259	-5.35694	-1.3665	0
0.7947	-3.31575	-2.92815	-0.473947	-2.39641	5.32056	-0.453817	10.2974	-4.4365	-1.6682	0
0.7953	-3.94306	-3.23002	-0.780189	-2.08021	5.63821	0.491635	10.5923	-4.74945	-1.3665	-0.318096
0.7960	-2.77806	-0.799957	1.05362	-0.565818	6.82938	5.37017	15.4729	-3.22153	-1.06481	0
0.7967	-1.7923	0.422619	1.05362	-0.249626	7.14702	5.06762	17.3232	-0.165679	-0.763113	0.318096
0.7973	-2.15076	-0.181122	0.134892	-0.565818	5.00292	-2.57163	13.9712	0.736349	-0.461417	0
0.7980	-4.57036	-1.70557	-1.08279	0.349476	0.714702	-15.0894	7.24033	-1.08612	0.763113	-0.318096
0.7987	-6.09382	-2.02253	-1.69527	1.88051	-3.81175	-20.2705	0.831297	-2.00655	2.91048	0
0.7993	-3.94306	-0.181122	-0.780189	3.41155	-4.44704	-12.6312	-1.31399	0.128861	4.4367	0
0.8000	-1.52345	2.24894	1.05362	4.01065	-1.98528	-3.47926	-0.697217	2.26427	3.51387	-0.318096
0.8007	-0.89615	1.94707	1.05362	1.88051	-1.66764	1.39927	-0.375425	2.57722	1.38425	-0.318096
0.8013	-0.268845	0.422619	-0.473947	-1.16492	-1.66764	0.491635	-2.22573	1.36225	-0.141974	-0.318096
0.8020	1.25461	0.120748	-2.00151	-2.39641	-0.476468	-5.33235	-2.81568	1.36225	-0.461417	-0.318096
0.8027	4.57036	1.6452	-2.00151	-1.48111	1.98528	-7.75271	-0.0804481	4.39969	-0.763113	0
0.8033	8.24458	2.86777	-0.167704	-0.249626	3.81175	-5.33235	1.15309	6.84805	0.159721	0
0.8040	9.49919	2.24894	1.66246	-0.249626	5.00292	-3.17672	1.44807	5.63307	0.461417	-0.318096
0.8047	8.87188	1.04145	-0.167704	-2.08021	4.68527	-4.08435	-0.0804481	2.26427	-0.763113	-0.636193
0.8053	10.3953	-0.181122	-3.52543	-3.3117	3.17645	-5.63489	-1.60896	1.36225	-2.28934	-0.318096
0.8060	12.5461	0.72449	-2.30411	-1.48111	5.00292	-3.47926	0.831297	3.7922	-1.3665	-0.318096
0.8067	6.98997	2.24894	1.35622	0.665668	6.2735	-1.664	-0.697217	4.10515	0.159721	-0.318096
0.8073	-3.31575	4.39222	2.57754	1.26477	3.81175	-1.664	-7.40123	1.65679	1.06481	0
0.8080	-8.51342	3.78848	0.134892	0.349476	-1.34999	-0.151272	-13.5153	-2.61404	0.763113	0
0.8087	-6.36266	3.78848	-0.780189	-0.565818	-1.11176	4.12217	-15.6338	-5.96443	0.159721	0
0.8093	-1.7923	7.74298	1.35622	0.349476	4.12939	9.03852	-11.9868	-5.96443	0.159721	-0.318096
0.8100	1.25461	4.09035	1.66246	0.349476	5.00292	12.6691	-8.018	-1.39906	-0.461417	0
0.8107	2.15076	-7.81845	0.134892	-0.565818	1.98528	23.9767	-8.31297	5.32012	-1.6682	-0.318096
0.8113	-0.268845	-10.8673	-2.30411	-2.99551	-1.98528	37.0995	-8.63477	2.57722	-3.19443	-0.318096
0.8120	-1.16499	-5.3733	-2.91659	-4.8261	-2.93822	39.2173	1.74304	-1.6936	-4.11726	0
0.8127	0	-5.07143	-1.38903	-4.22699	0.714702	37.4021	17.0014	4.71264	-4.11726	0
0.8133	0.35846	-5.97704	-0.167704	-3.61125	1.98528	36.1919	20.9701	10.5114	-3.19443	0
0.8140	-1.16499	-3.54698	1.05362	-4.52654	-0.476468	28.8552	17.3232	7.45554	-2.89273	0
0.8147	-4.30152	-2.62628	0.134892	-6.35713	-2.30293	14.2196	14.8829	-1.08612	-4.41895	0
0.8153	-5.82497	-2.62628	0.134892	-6.35713	-1.34999	2.3069	11.5041	-5.35694	-5.34179	0
0.8160	-3.94306	-2.3244	2.57754	-4.22699	0.158823	2.3069	5.71182	0.736349	-4.41895	-0.318096
0.8167	-2.15076	-2.02253	2.2713	-2.39641	-1.11176	5.06762	-2.22573	5.92761	-2.28934	-0.318096
0.8173	0	-1.10183	1.9687	-0.565818	-4.44704	-0.151272	-11.37	0.128861	0.763113	0
0.8180	-0.268845	0.422619	6.85035	-0.565818	-7.46467	-10.2109	-21.131	-28.5519	1.68595	0
0.8187	-2.4196	0.422619	9.293	-0.865369	-7.14702	-20.573	-23.8931	-76.7644	1.68595	-0.318096
0.8193	-0.89615	2.5659	8.37427	0.665668	-5.08233	-27.0021	-15.6338	-89.2823	2.28934	-0.318096
0.8200	0.627305	8.36182	5.32278	2.18006	-1.34999	-28.8174	-5.57774	-49.2986	2.59103	-0.318096
0.8207	0.35846	6.5355	-8.10449	1.88051	3.81175	-29.4225	0.536321	12.3338	2.91048	0
0.8213	-1.16499	-4.15072	-20.0042	1.58096	5.00292	-33.0908	4.80007	69.1064	2.91048	0
0.8220	-2.77806	-8.42219	-13.9012	0.965219	4.12939	-37.6668	13.9712	78.5685	1.98764	0
0.8227	-2.77806	-4.45259	-3.21919	0.0499251	3.4941	-35.8515	28.2909	49.8693	0.461417	0
0.8233	-1.16499	-1.10183	-1.08279	0.665668	1.34999	-28.5148	29.2295	30.3376	0.763113	0
0.8240	-0.89615	-0.482993	-2.00151	2.79581	-2.30293	-18.7578	15.1779	24.5388	3.21217	0
0.8247	-2.4196	-1.70557	-2.00151	3.09536	-6.2735	-9.90834	1.74304	20.268	3.51387	0
0.8253	-3.67421	-2.62628	-1.69527	1.88051	-8.73525	-0.151272	-4.04922	23.9314	2.59103	-0.318096
0.8260	-1.7923	-0.482993	-0.780189	2.49626	-7.14702	6.58035	-3.43245	36.1363	3.21217	-0.318096
0.8267	0	1.6452	0.134892	3.7111	-5.32056	6.2778	-1.31399	32.4914	3.81556	0
0.8273	0.627305	1.94707	0.441135	3.09536	-5.08233	5.67271	-1.60896	3.7922	2.91048	0
0.8280	-0.268845	0.72449	-1.08279	1.26477	-5.95585	4.46253	-3.13748	-24.8886	1.38425	-0.318096
0.8287	0	0.120748	-2.00151	0.0499251	-4.76468	3.51708	-2.52071	-28.8649	0.763113	0
0.8293	3.40537	1.34332	-0.473947	0.965219	-0.794114	4.46253	0.831297	-16.034	1.06481	-0.318096
0.8300	6.09382	1.34332	0.134892	1.58096	0.476468	3.51708	1.74304	-5.66989	1.06481	-0.318096
0.8307	5.19767	0.72449	-1.08279	0.349476	-0.476468	2.00436	-0.375425	0.128861	0.461417	-0.318096
0.8313	1.25461	-0.799957	-3.21919	-1.16492	-1.11176	1.70181	-5.25594	1.36225	-0.141974	0
0.8320	-2.4196	-0.482993	-2.30411	-1.78066	0.714702	2.91199	-6.78446	-0.773167	-0.141974	0
0.8327	-3.94306	1.34332	1.35622	-1.48111	1.34999	6.2778	-4.04922	0.44181	0.159721	-0.318096
0.8333	-3.31575	1.6452	3.18638	-0.865369	-0.476468	7.18543	-2.52071	0.44181	0.159721	-0.318096
0.8340	-2.15076	0.422619	2.2713	-0.565818	-1.34999	8.09307	1.44807	-4.14196	-0.141974	-0.318096
0.8347	-3.04691	-1.10183	0.747377	-1.78066	-1.98528	13.6145	3.27156	-9.33323	-1.06481	-0.954289
0.8353	-3.31575	-0.181122	0.134892	-0.865369	-1.34999	15.7323	0.536321	-7.8053	-0.763113	-0.318096
0.8360	-0.627305	2.24894	1.66246	0.349476	1.66764	9.03852	0.831297	-2.30109	-0.141974	0
0.8367	1.88191	3.16964	2.2713	0.349476	3.81175	6.88289	3.27156	-0.773167	-0.763113	-0.318096
0.8373	1.52345	2.24894	0.134892	0.0499251	-0.794114	9.64361	2.65479	-2.30109	-1.06481	-0.636193
0.8380	-1.52345	-0.181122	-2.30411	-1.48111	-9.29113	6.88289	-0.0804481	-4.4365	-1.3665	-0.636193
0.8387	-3.04691	-0.799957	-1.69527	-1.78066	-10.8794	5.06762	0.214528	-3.22153	-1.3665	-0.318096
0.8393	-1.16499	0.72449	1.35622	0.349476	-8.4176	8.39561	3.88833	0.736349	-0.461417	-0.318096
0.8400	0	1.04145	2.57754	1.26477	-8.73525	10.2487	5.41684	1.36225	0.159721	-0.318096
0.8407	-0.627305	0.72449	1.35622	0.965219	-8.73525	5.97526	4.5051	-2.00655	0.159721	-0.318096
0.8413	-2.15076	-1.10183	-0.780189	-0.565818	-7.46467	-3.17672	3.59335	-6.27738	-0.461417	-0.318096
0.8420	-1.7923	-2.62628	-2.30411	-2.08021	-7.14702	-7.45016	2.97658	-5.96443	-1.06481	0
0.8427	0.89615	-0.181122	-1.69527	-0.865369	-0.476468	-0.756362	2.06484	0.44181	-0.141974	0
0.8433	2.15076	3.16964	-1.38903	1.58096	14.2146	7.18543	0.831297	4.10515	1.38425	0
0.8440	1.25461	1.34332	-2.30411	1.58096	27.3175	9.03852	-0.0804481	1.96973	2.59103	0
0.8447	-1.7923	-2.3244	-1.08279	-0.565818	35.5763	9.03852	-3.75425	-0.478627	2.28934	0.318096
0.8453	-3.04691	-1.70557	0.441135	-1.48111	40.4204	11.7614	-5.87271	1.0493	1.68595	0
0.8460	0.627305	0.422619	-0.167704	-0.565818	38.5939	9.34107	-0.0804481	5.63307	1.68595	-0.318096
0.8467	1.25461	-0.181122	0.441135	-1.16492	29.4616	-1.36145	3.27156	7.45554	0.763113	0
0.8473	-2.77806	-0.482993	1.9687	-1.78066	23.6646	-10.5134	0.536321	3.18471	-0.141974	0
0.8480	-5.82497	-0.482993	0.441135	-3.3117	24.2205	-18.1527	-4.3442	-10.5482	-0.763113	0
0.8487	-4.57036	-1.10183	-0.780189	-3.3117	20.2499	-21.4807	-6.48948	-25.2016	-0.763113	-0.318096
0.8493	-1.7923	-1.10183	1.05362	0.0499251	9.92642	-14.4843	-4.04922	-27.6315	0.461417	0
0.8500	0.627305	-2.3244	1.9687	2.79581	-0.158823	-6.23998	-0.992194	-28.8649	1.38425	0
0.8507	4.92882	-3.54698	0.441135	3.41155	-6.90879	-4.08435	-2.22573	-10.2353	1.38425	0
0.8513	6.45228	-2.62628	-1.08279	3.41155	-13.5793	-5.0298	-6.48948	35.2343	1.98764	-0.318096
0.8520	3.94306	0.422619	-0.780189	3.7111	-16.9146	-3.47926	-3.75425	54.1585	2.91048	0
0.8527	2.15076	4.39222	0.134892	4.32684	-15.0882	-1.05891	2.35981	47.7338	2.59103	0
0.8533	1.25461	3.78848	0.747377	4.92595	-14.8499	0.491635	1.44807	50.7897	2.59103	-0.318096
0.8540	-0.268845	-3.23002	1.05362	3.7111	-20.3293	1.39927	-3.43245	31.258	2.59103	0
0.8547	-3.04691	-5.67517	-0.167704	0.665668	-24.8558	-1.05891	-7.10625	-21.8328	1.38425	-0.318096
0.8553	-4.57036	0.120748	0.134892	-0.565818	-28.5087	-2.26908	-6.19451	-51.434	0.159721	-0.318096
0.8560	-3.67421	5.31292	3.18638	0.965219	-40.4204	-0.453817	-1.90394	-38.6215	0.763113	0
0.8567	-2.77806	5.91667	4.10511	0.665668	-44.0733	0.79418	-0.375425	-18.7953	1.06481	-0.318096
0.8573	-2.15076	1.04145	3.18638	-1.78066	-35.2586	0.18909	-0.0804481	-8.70733	-0.141974	-0.318096
0.8580	-2.4196	-4.76956	1.05362	-3.61125	-35.8939	-3.47926	-1.90394	5.32012	-1.06481	0
0.8587	-1.7923	-5.67517	-1.69527	-3.3117	-32.4792	-5.63489	-4.04922	16.6047	-1.6682	-0.318096
0.8593	0.627305	-2.92815	-1.08279	-1.78066	-11.7529	-2.26908	0.536321	12.9597	-1.6682	-0.318096
0.8600	2.15076	-0.482993	-0.473947	-1.16492	8.09996	-0.453817	9.06382	8.67051	-1.3665	-0.318096
0.8607	2.4196	1.04145	-2.91659	-1.16492	14.4529	-2.57163	13.9712	5.32012	-1.6682	0
0.8613	1.25461	0.72449	-5.053	-2.69596	16.2793	-5.33235	10.9141	-7.8053	-2.59103	0
0.8620	1.88191	-2.62628	-4.74676	-3.61125	23.3469	-4.72726	6.03361	-13.8986	-2.89273	0
0.8627	4.57036	-4.76956	-0.473947	-2.08021	31.6057	-2.57163	5.09505	-7.19781	-2.28934	-0.318096
0.8633	5.19767	-3.54698	2.57754	0.965219	34.3057	-1.664	6.62356	-3.82902	-0.461417	-0.318096
0.8640	2.15076	-1.4037	0.134892	1.88051	30.9704	-2.26908	6.62356	-6.27738	0.763113	-0.318096
0.8647	-3.31575	0.120748	-2.00151	0.349476	26.3646	19.0981	2.06484	-10.8612	0.763113	-0.954289
0.8653	-5.82497	2.24894	-0.473947	-0.249626	26.6822	75.258	-3.43245	-11.4686	1.38425	-0.636193
0.8660	-2.77806	4.09035	1.66246	0.349476	28.191	118.257	-3.75425	-5.35694	1.68595	0
0.8667	1.52345	3.16964	2.57754	0.349476	20.0117	124.686	-0.992194	-0.478627	1.06481	0.318096
0.8673	1.88191	0.72449	1.66246	-0.865369	8.4176	117.047	-2.81568	-1.6936	0.159721	0
0.8680	-0.627305	-1.70557	-0.167704	-2.08021	1.66764	99.9532	-6.78446	-4.74945	-0.763113	0
0.8687	-2.15076	-2.3244	1.05362	-1.16492	-3.81175	80.439	-4.96097	-3.53448	-1.3665	0
