MR32 ASCII
Name	SORD15_slow
Frequency	1500
Date	28-08-2015 11:07:46
"Time,s"	"RT TIB.ANT.,uV"	"RT MED. GASTRO,uV"	"RT LAT. GASTRO,uV"	"RT BICEPS FEM.,uV"	"RT VMO,uV"	"RT VLO,uV"	"RT RECTUS FEM.,uV"	"RT SOLEUS,uV"	"RT SEMITEND.,uV"	"Channel 12,uV"
0.0000	912.481	-136.985	-47.7973	-238.378	-37.575	-47.2399	-1.49176	79.3374	205.394	-5751.28
0.0007	725.447	-72.2507	3.77411	-125.493	-31.1706	-57.324	-7.90344	94.3051	107.725	-10385.3
0.0013	134.006	-40.8481	56.5873	-86.7242	-22.3179	-35.3524	-7.90344	116.267	-24.3905	-9868.4
0.0020	-420.171	-103.703	87.9977	-61.6814	-13.7846	13.1868	-9.73944	130.922	-67.1275	-9619.6
0.0027	-571.256	-93.0209	100.513	-9.5002	6.97214	43.6911	-10.9587	126.958	79.3762	-9910.55
0.0033	-553.58	68.0966	108.159	45.7197	32.306	49.4894	-5.76621	128.16	168.487	-9793.6
0.0040	-480.904	133.721	99.2957	54.5912	46.9422	51.0214	3.38514	130.611	115.053	-9801.21
0.0047	-281.03	100.439	74.2648	35.975	53.3644	54.9775	13.4545	100.096	120.883	-9812.62
0.0053	-80.8573	92.8231	47.1155	10.6179	56.7174	55.2878	13.7701	43.032	134.576	-9813.57
0.0060	-15.5265	62.3107	15.0721	-16.8349	56.1142	35.4493	0.645471	-32.3408	16.4743	-9792.02
0.0067	-131.199	20.8197	-7.20734	-36.0449	51.2177	7.38851	-9.42388	-94.6169	-123.557	-9818.64
0.0073	-394.254	8.90152	-9.03352	-56.8265	42.6844	10.7434	-11.5611	-103.125	-167.845	-9896.29
0.0080	-581.946	-16.7151	-12.3937	-96.7832	40.8393	37.5825	-13.3971	-84.2376	-121.15	-9540.36
0.0087	-517.272	-80.5093	-25.8101	-157.207	47.8647	44.0014	-12.1779	-71.4082	9.14645	-10156.2
0.0093	-324.683	-128.132	-33.1391	-170.934	56.4158	23.5618	-7.60222	-61.9643	132.169	-9865.23
0.0100	-147.98	-146.727	-29.779	-105.655	59.7688	1.88106	-2.71098	-60.1379	138.587	-4056.58
0.0107	-146.427	-158.348	-22.1577	-34.543	53.9675	-16.1151	0.0286876	-60.717	74.7763	113.783
0.0113	-332.029	-170.514	-16.6548	-5.55342	63.7427	-39.6187	2.46713	-49.7585	28.7231	58.3179
0.0120	-413.782	-154.689	-12.0772	-5.83284	89.0589	-65.8566	3.7007	-30.8262	46.4276	-190.167
0.0127	-415.036	0.0494529	-5.67334	19.175	97.6099	-91.1831	2.16591	-15.8586	140.085	100.789
0.0133	-456.539	174.618	8.66828	57.0012	79.9046	-113.465	-2.71098	-10.6912	264.926	-16.4811
0.0140	-404.645	138.32	34.3079	50.0157	62.217	-123.549	-5.46499	-5.47923	325.314	-8.55752
0.0147	-277.387	35.7545	47.4321	60.9829	82.0512	-120.795	-5.14943	-0.623652	280.491	2.85251
0.0153	-172.404	33.9247	31.2399	126.89	95.7826	-115.908	-8.50588	-15.2349	163.566	0.63389
0.0160	-102.535	53.7553	3.16538	158.325	65.2684	-107.066	-8.20466	-43.6556	13.4255	0.63389
0.0167	-61.0311	48.266	-18.1888	138.486	27.7289	-91.1831	0.344251	-64.6816	-75.3646	0.63389
0.0173	63.4796	38.8205	-30.0955	170.549	0.266112	-73.4973	5.52236	-78.4465	-20.7534	0.63389
0.0180	308.858	31.7982	-33.7479	247.459	-21.4132	-54.26	4.60436	-80.5848	141.636	0.950835
0.0187	438.266	25.3693	-32.847	203.206	-41.2474	-39.3084	4.91993	-70.7845	324.726	1.26778
0.0193	323.489	18.9899	-29.4868	40.5505	-54.9788	-33.5101	8.57759	-71.4082	409.879	0.950835
0.0200	241.736	15.6271	-25.5179	-33.3205	-49.1775	-26.1992	9.79682	-72.6109	308.84	0.950835
0.0207	361.35	7.6652	-22.4742	52.7401	-42.4715	-14.6025	4.00192	-60.717	123.022	0.950835
0.0213	450.15	-12.1654	-20.3315	130.558	-44.902	-8.80416	-3.32776	-50.9613	-17.3836	0.950835
0.0220	402.555	-26.1606	-18.5053	-3.42286	-44.2988	4.32451	-4.24577	-45.1702	-64.0787	1.26778
0.0227	262.458	-23.4407	-13.319	-210.332	-37.2734	24.7835	1.24791	-35.6818	135.806	1.26778
0.0233	33.3223	-14.8853	-7.20734	-211.24	-26.8951	25.3847	2.16591	-23.476	543.866	0.316945
0.0240	-181.541	-11.5225	-8.1326	-90.3916	-14.0862	11.9651	-8.82144	-15.5468	798.683	0.63389
0.0247	-279.537	-16.1216	-15.4373	-22.3185	-0.958004	3.72334	-19.8088	-11.2703	754.128	1.26778
0.0253	-197.426	-23.144	-24.5926	-43.3796	2.39501	-4.51843	-20.7125	-7.30564	519.422	0.950835
0.0260	26.5742	-31.6993	-38.642	-100.136	-0.354816	-7.27216	-18.274	-11.5821	184.052	0.63389
0.0267	214.863	-40.8481	-54.2011	-88.261	-3.10464	5.23595	-11.2599	-17.1059	-186.727	1.26778
0.0273	370.487	-45.101	-64.8904	-40.9347	-14.3878	12.8766	-0.573752	-11.5821	-495.567	1.26778
0.0280	584.155	-46.3374	-67.3253	-19.5942	-33.6188	15.6109	0.344251	-4.27647	-633.512	0.950835
0.0287	790.718	-38.3755	-54.2011	19.4894	-45.8245	36.9813	-3.9302	3.07371	-543.171	1.26778
0.0293	854.854	-27.6936	-32.847	103.419	-41.8506	61.7067	-3.9302	18.3086	-252.036	1.58473
0.0300	630.854	-20.3746	-16.0461	192.204	-30.2658	58.6427	-5.14943	31.1381	9.14645	0.63389
0.0307	102.236	9.54441	1.94793	234.327	-12.2589	41.8682	-6.38299	39.691	79.9646	0.316945
0.0313	-396.702	42.7768	19.041	110.719	9.72196	34.2276	-7.90344	49.1349	29.6324	0.950835
0.0320	-554.774	49.7991	33.0661	-173.099	18.2553	32.0944	-13.6983	51.2731	-79.3227	1.26778
0.0327	-577.347	47.6726	45.5815	-267.996	17.3505	29.0498	-17.9728	42.0965	-185.55	0.950835
0.0333	-598.726	32.7378	38.8855	-95.5608	15.2039	27.5178	-16.4523	21.3824	-279.207	1.26778
0.0340	-417.126	6.47833	21.1837	48.7933	5.14483	26.2961	-10.9587	1.82641	-344.516	1.26778
0.0347	-177.599	-7.56629	18.7245	80.5072	-4.93194	22.0298	-0.573752	9.17659	-320.393	1.26778
0.0353	-17.6763	-2.67046	19.6497	42.9954	-7.98336	16.2315	13.4545	27.7525	-254.175	0.950835
0.0360	148.039	4.94529	7.13429	-37.5817	-5.53513	11.9651	28.1139	24.4115	-181.859	1.26778
0.0367	104.386	-4.50021	-11.1762	-104.432	-1.57893	11.3446	39.1012	3.07371	-97.0273	1.58473
0.0373	-94.5923	-18.5448	-21.8655	-107.785	-11.638	15.6109	38.4844	-10.6912	-27.4394	1.58473
0.0380	-146.785	-19.1877	-21.549	-58.3284	-35.1445	21.1183	29.3331	-4.90012	55.5741	1.26778
0.0387	-136.394	-18.8416	-18.5053	-30.8756	-50.7032	25.9858	26.8946	0.623652	145.273	0.950835
0.0393	-181.242	-24.9737	-16.9713	-43.3796	-51.9273	28.7396	28.1139	-5.1674	162.657	1.26778
0.0400	-237.377	-23.4407	-2.31317	-55.8835	-40.9458	20.4978	21.7022	-4.5883	116.283	1.26778
0.0407	-241.975	-12.4621	26.9788	-44.2877	-25.0678	24.4732	14.3725	6.10288	77.8251	1.26778
0.0413	-151.921	-7.56629	41.3204	-22.6328	-13.1637	59.8644	9.79682	6.72653	53.4345	1.26778
0.0420	-28.6643	-11.5225	36.7428	-11.6308	-7.06084	84.2794	5.83793	-5.1674	-4.86741	1.26778
0.0427	26.5742	-16.1216	33.3826	7.5792	7.27373	76.3479	7.05715	-16.4822	-97.3482	1.26778
0.0433	44.2506	-21.0175	31.8486	-25.0777	28.3321	64.7513	7.96081	-24.7233	-160.518	1.26778
0.0440	28.1269	-20.0779	27.5875	-139.814	33.2108	63.2193	7.05715	-23.2088	-156.827	1.26778
0.0447	-94.8909	-9.69277	16.6061	-137.089	24.9791	54.6866	15.9073	-8.55294	-127.248	1.26778
0.0453	-216.655	-1.48359	-0.486982	9.70976	16.7296	26.9167	24.7574	3.96465	-110.453	1.26778
0.0460	-249.021	-4.84638	-13.6112	76.2461	7.89466	-1.7841	20.483	7.30564	-90.0203	1.26778
0.0467	-210.265	-21.3142	-24.9091	53.6482	0.266112	-11.8488	18.9482	1.51458	-71.9949	1.26778
0.0473	-95.4881	-44.5076	-42.0022	41.1442	-8.88815	-11.5385	21.7022	-14.9676	-62.2601	1.26778
0.0480	7.94241	-63.7448	-55.7351	40.2361	-19.2665	-23.4454	16.2085	-26.2379	-12.7836	1.26778
0.0487	58.6425	-66.7614	-56.636	42.9954	-25.0678	-49.3925	7.96081	-16.7941	83.0134	1.26778
0.0493	117.822	-52.1234	-48.6982	42.0523	-26.8951	-64.6349	0.0286876	11.8939	175.494	1.26778
0.0500	202.979	-32.8862	-43.2197	36.2544	-30.2658	-56.1023	-15.2331	46.0612	217.001	1.26778
0.0507	311.307	-20.3746	-41.077	46.034	-26.5935	-45.7273	-28.0421	69.8936	238.075	1.26778
0.0513	548.743	-18.8416	-45.0459	61.6116	-12.2589	-58.2354	-28.3434	76.6201	279.582	1.58473
0.0520	923.469	-25.2704	-52.0584	48.1646	-5.53513	-60.0583	-26.5217	70.2054	250.27	1.26778
0.0527	1291.21	-20.3746	-32.847	22.528	-4.00942	-19.1791	-16.7536	70.7845	138.855	0.316945
0.0533	1488.69	4.64857	14.7556	20.3975	0.266112	17.1429	1.56347	85.1285	-0.588368	0.316945
0.0540	1232.92	34.8643	57.1961	19.4894	7.27373	25.0744	9.19438	96.1315	-224.008	1.26778
0.0547	666.864	62.6074	83.1279	-13.1676	13.3766	30.8727	11.6328	101.032	-372.277	1.26778
0.0553	190.439	87.6305	100.513	-61.9958	-7.06084	29.3601	14.9893	100.096	-224.917	1.26778
0.0560	-363.141	99.252	107.233	-86.0955	-36.9718	39.7351	13.7701	93.3696	38.4579	1.26778
0.0567	-986.889	91.6362	102.972	-72.9978	-40.0233	90.3881	14.9893	90.9641	181.592	1.58473
0.0573	-1040.63	71.7562	87.9977	-51.9367	-30.5674	133.73	19.2637	83.9257	234.064	1.58473
0.0580	-553.879	43.0735	57.1961	-41.8428	-20.4906	151.125	16.5097	54.3023	264.284	1.26778
0.0587	-197.724	7.36848	14.4634	-28.1164	-4.31102	152.638	13.7701	13.1412	227.966	1.26778
0.0593	-15.2279	-25.2704	-21.8655	-13.1676	8.79944	121.513	17.4277	-17.1059	74.4553	1.26778
0.0600	82.1114	-38.0787	-36.4993	-8.59209	11.5493	76.3479	16.8109	-28.0643	-132.757	1.26778
0.0607	-55.5371	-30.463	-26.7353	10.3384	16.428	46.1346	13.4545	-30.8262	-304.561	1.26778
0.0613	-255.113	-27.1002	-14.5364	65.8727	28.0305	32.715	13.1533	-54.6141	-340.879	1.26778
0.0620	-277.387	-40.8481	-20.3315	172.086	36.8831	28.4293	14.9893	-92.1669	-179.452	1.26778
0.0627	-217.849	-56.7225	-34.6731	266.355	38.7104	34.5379	13.4545	-110.787	0.641856	1.26778
0.0633	-307.306	-64.0415	-44.1206	203.8	23.1518	66.2833	0.645471	-111.366	59.8531	1.26778
0.0640	-562.717	-67.9977	-50.5488	41.4586	-6.45765	99.231	-15.2331	-109.852	107.457	1.26778
0.0647	-776.326	-69.8275	-51.1575	-5.83284	8.19625	101.364	-20.11	-103.125	165.438	1.58473
0.0653	-727.537	-67.9977	-40.7848	55.8136	73.5002	88.2549	-16.1368	-90.3405	169.985	1.26778
0.0660	-480.605	-55.4862	-24.5926	74.1155	104.014	90.6983	-14.6163	-78.7138	140.994	1.26778
0.0667	-354.303	-27.1002	-7.20734	34.1239	83.577	98.0093	-15.5343	-58.8906	41.2393	0.950835
0.0673	-304.559	2.81882	15.0721	-4.33097	62.5186	53.4649	-11.5611	-32.3408	-156.559	0.950835
0.0680	-152.279	24.1825	34.3079	-25.0777	42.986	-35.3524	5.52236	-15.2349	-308.84	1.26778
0.0687	-77.1548	30.8586	33.6992	-28.1164	6.97214	-103.09	23.8394	-10.6912	-302.742	1.26778
0.0693	-57.0301	14.3908	18.1157	-25.3921	-24.163	-136.969	26.2779	-13.7203	-208.443	1.26778
0.0700	15.5862	-13.0556	4.69938	-27.837	-38.7991	-162.605	21.401	-17.3732	-136.074	1.26778
0.0707	-4.83711	-36.249	-4.1637	-36.6735	-56.8061	-176.025	13.7701	-23.7879	-130.885	0.950835
0.0713	-23.7675	-52.1234	-15.1451	-50.7143	-43.3763	-178.468	4.00192	-36.9291	-183.09	1.26778
0.0720	101.34	-56.3763	-30.7042	-57.7346	22.5308	-187.331	-3.32776	-40.8938	-261.503	1.58473
0.0727	220.357	-47.2275	-44.7537	-48.5837	55.7948	-187.02	-12.1779	-25.347	-280.438	1.58473
0.0733	264.608	-33.1829	-51.7662	-20.8166	35.9606	-178.158	-18.8908	-5.1674	-194.696	1.58473
0.0740	303.364	-24.677	-54.8098	18.2669	25.9016	-194.351	-16.1368	5.47923	-79.9646	1.26778
0.0747	370.845	-28.3365	-66.4	41.7729	29.8578	-214.48	-9.73944	7.92929	39.6881	1.26778
0.0753	432.473	-34.1225	-82.2756	42.9954	3.31753	-197.085	-5.46499	10.6912	208.764	1.26778
0.0760	366.247	-29.2267	-81.9835	37.7912	-53.4531	-159.561	-3.62898	20.7587	373.239	1.26778
0.0767	227.105	-13.3523	-53.2759	25.881	-105.629	-132.993	-3.62898	35.7264	380.567	1.26778
0.0773	184.945	9.54441	-0.486982	10.9322	-134.014	-118.972	-2.71098	50.0704	201.436	1.26778
0.0780	137.947	33.9247	53.8359	6.35675	-131.584	-96.07	-0.889316	63.4789	-30.8091	1.26778
0.0787	27.1714	55.2883	89.8482	-0.349272	-119.981	-60.9891	7.65959	81.4757	-218.82	1.58473
0.0793	-136.693	72.9925	112.128	-7.68398	-98.9227	-48.7719	27.7983	105.575	-319.805	1.90167
0.0800	-382.669	80.9544	117.606	-15.0187	-57.1077	-35.0421	52.2114	115.955	-292.366	1.58473
0.0807	-331.372	69.0363	90.1404	-51.308	-17.7408	24.7835	67.4733	98.2697	-188.278	0.950835
0.0813	10.3908	38.8205	34.6001	-63.8469	0.567706	81.836	53.1295	65.3053	-124.788	1.26778
0.0820	205.428	3.11553	-25.5179	-0.0349272	5.74802	125.488	16.8109	38.1319	-125.697	1.58473
0.0827	402.555	-26.1606	-70.9777	48.1646	-0.0532224	187.738	-13.6983	22.8969	-123.29	0.63389
0.0833	843.508	-45.3978	-96.3251	6.67109	-16.2151	206.044	-35.9743	7.92929	-91.518	0.316945
0.0840	1401.69	-50.2936	-99.6853	-51.308	-24.4646	175.831	-54.5925	-3.34099	-60.1205	0.950835
0.0847	1738.31	-38.0787	-68.8593	-61.9958	-24.163	186.516	-58.2502	0.935478	-36.9067	1.26778
0.0853	1624.79	-6.97286	-1.70444	-59.8652	-29.0417	210.02	-43.6052	20.1351	-13.6929	0.950835
0.0860	1052.28	28.4354	64.5008	-61.9958	-45.2213	184.073	-24.0832	43.032	8.23716	1.26778
0.0867	247.528	44.0131	83.1279	-50.0856	-64.7362	153.258	-10.9587	54.035	18.0255	1.58473
0.0873	-510.822	47.9693	70.3202	-29.3388	-65.3571	151.416	3.08392	61.6525	19.8441	1.26778
0.0880	-1173.09	51.9255	69.6872	-8.90643	-56.8061	122.424	14.0713	69.2699	36.9602	1.26778
0.0887	-1435.55	48.9089	73.3639	1.18752	-48.2727	29.0498	15.5917	57.9996	49.7439	1.26778
0.0893	-1209.69	32.3917	56.5873	-7.05529	-15.9135	-76.8521	21.401	28.9998	41.5067	1.58473
0.0900	-889.55	8.01137	25.4448	-17.4287	24.0565	-144.9	33.9088	-3.02917	37.8695	1.26778
0.0907	-737.569	-13.649	-5.38115	-19.2798	32.9092	-165.359	35.4292	-25.9261	41.2393	1.26778
0.0913	-770.235	-34.4192	-42.0022	-15.6125	18.2553	-144.9	22.0034	-33.5881	46.695	1.58473
0.0920	-539.188	-50.2936	-80.7416	4.22619	5.44643	-115.307	5.22114	-29.8908	42.416	1.26778
0.0927	148.935	-53.063	-104.263	25.881	2.6966	-112.864	-10.9587	-14.9676	17.1162	1.26778
0.0933	603.981	-54.2498	-116.462	35.3463	12.1525	-128.727	-26.8229	-0.623652	7.06042	1.58473
0.0940	489.862	-49.0573	-110.667	42.681	32.0044	-125.372	-34.755	3.65282	36.9602	1.58473
0.0947	407.452	-22.2044	-66.4	22.8424	41.4603	-94.2471	-35.9743	6.41471	75.6856	1.58473
0.0953	685.137	10.7313	-2.6297	-5.83284	33.2108	-80.8082	-33.837	8.24112	91.8924	1.26778
0.0960	814.246	42.1833	65.4261	5.1343	32.0044	-96.9815	-17.6716	8.55294	94.032	1.26778
0.0967	437.967	72.6958	127.687	28.326	38.7104	-94.2471	-2.40976	15.5468	82.425	1.26778
0.0973	-87.5457	82.1413	149.966	32.9014	28.953	-68.3001	-7.28665	15.5468	41.2393	1.26778
0.0980	-392.104	70.2726	137.451	30.7709	8.49785	-48.7719	-18.8908	-3.02917	-4.54648	1.26778
0.0987	-537.397	54.9916	116.705	31.9933	-2.18212	-41.7519	-21.028	-25.9261	-4.86741	1.26778
0.0993	-809.588	37.8809	87.9977	30.1771	-9.20748	-27.1106	-13.0959	-36.3055	21.9836	1.58473
0.1000	-1134.63	21.1164	54.1281	25.2873	-16.836	19.8966	-9.42388	-30.2026	33.0021	1.26778
0.1007	-933.502	-0.247265	12.9294	17.9526	-17.4392	55.5981	-15.2331	-30.2026	39.6881	1.26778
0.1013	-310.351	-35.6555	-34.6731	1.46694	-18.9649	40.6465	-23.7677	-58.8906	67.181	1.26778
0.1020	78.17	-69.8275	-70.9777	-4.01663	-25.9903	13.4777	-25.6037	-90.9196	100.397	1.58473
0.1027	73.5718	-82.9325	-84.1018	8.17296	-24.7662	-5.74016	-7.90344	-97.0224	111.095	1.58473
0.1033	-97.0407	-83.2292	-85.6358	15.822	-20.7922	-6.36071	5.22114	-96.7552	104.997	1.58473
0.1040	-193.126	-78.9763	-83.4931	34.1239	-22.9389	20.4978	2.16591	-104.373	98.8994	1.26778
0.1047	-174.255	-65.8713	-71.2942	83.5808	-24.163	36.9813	22.0034	-100.408	71.1391	1.26778
0.1053	-82.3502	-54.8927	-63.3564	143.376	-28.4208	31.183	54.6642	-82.4112	12.8371	1.58473
0.1060	15.8848	-49.354	-65.4991	202.298	-32.9979	19.2761	62.2951	-56.7523	19.2557	1.58473
0.1067	90.651	-40.5514	-63.6729	255.073	-30.869	12.8766	60.7604	-26.5498	115.962	1.26778
0.1073	110.477	-31.3531	-57.2448	274.004	-31.1706	34.2276	59.2399	-7.92929	178.864	1.26778
0.1080	-84.7987	-14.8853	-36.8159	254.48	-30.869	58.0415	37.5664	5.21195	180.362	1.58473
0.1087	-216.655	7.36848	-2.02098	236.457	-17.4392	43.0899	5.52236	23.5206	135.806	1.26778
0.1093	-90.8898	15.0337	13.2459	230.065	2.39501	13.4777	-19.4932	32.3408	-8.5046	1.26778
0.1100	-88.5011	11.3742	7.45083	129.056	16.7296	6.45767	-42.3859	39.0673	-196.515	1.26778
0.1107	-48.7891	8.90152	1.3392	-108.693	29.8578	19.5863	-57.031	51.5849	-278.619	1.58473
0.1113	289.928	5.83544	-1.41225	-327.198	37.1847	34.5379	-48.7976	50.9613	-203.843	1.58473
0.1120	644.231	9.84113	5.6003	-386.085	33.2108	49.7997	-36.8923	49.4467	-59.7996	1.26778
0.1127	768.443	24.1825	22.0846	-299.745	33.8317	68.4164	-38.4127	62.5434	36.6393	0.63389
0.1133	459.346	36.9908	38.2768	-194.754	41.1587	83.368	-40.2487	65.3053	47.9253	0.63389
0.1140	-61.3297	47.3759	55.3455	-146.834	42.0635	88.856	-35.0563	57.9996	5.18834	0.950835
0.1147	-276.133	56.228	65.1095	-107.471	36.8831	71.4611	-23.7677	59.2024	-57.0717	1.26778
0.1153	-180.944	47.3759	50.1592	-88.261	11.5493	49.1792	-10.9587	50.3376	-112.271	1.58473
0.1160	-13.3767	23.5396	19.3332	-124.865	-25.3694	43.0899	1.86469	17.9968	-111.683	1.58473
0.1167	116.329	-0.543982	-9.35006	-150.816	-36.6702	29.651	10.098	-23.2088	-68.3577	1.26778
0.1173	126.063	-19.7812	-26.4431	-129.755	-33.3172	7.98968	13.1533	-55.5496	-58.2485	1.26778
0.1180	-26.8131	-29.8696	-27.6606	-101.673	-29.0417	-3.91727	25.9766	-72.9227	-78.0925	1.58473
0.1187	-218.148	-28.3365	-16.3626	-83.0569	-16.836	-8.49388	39.1012	-85.4403	-67.7158	1.58473
0.1193	-266.101	-22.2044	-3.55497	-65.9775	2.6966	-5.13899	30.5523	-91.2314	-35.9974	1.26778
0.1200	-232.838	-20.6713	1.65574	-54.0673	32.6076	6.16679	13.1533	-85.7522	-23.1603	1.26778
0.1207	-294.168	-19.1877	1.3392	-48.2694	65.57	5.23595	12.2353	-71.4082	-21.3417	1.26778
0.1213	-333.82	-16.4184	-2.6297	-40.0266	77.7757	-9.09504	14.6881	-57.6878	-15.565	1.58473
0.1220	-227.941	-17.358	-9.35006	-26.6145	73.8018	34.8482	4.91993	-52.4759	-12.5162	1.26778
0.1227	-86.9485	-18.2481	-17.8966	-17.1493	67.3973	152.638	9.19438	-42.4083	-11.5534	1.26778
0.1233	60.434	-18.5448	-30.7042	-14.0757	58.5447	269.225	38.7856	-31.1381	-9.14645	1.26778
0.1240	212.415	-22.2044	-40.176	-15.2981	85.4043	372.683	65.9528	-32.029	-7.32786	1.26778
0.1247	276.85	-27.3969	-41.6857	-14.7043	137.58	422.115	60.1579	-29.3116	-1.17674	1.26778
0.1253	202.084	-28.9299	-46.2633	-6.77587	136.675	373.595	33.6075	-6.72653	10.3767	1.58473
0.1260	95.2492	-27.1002	-54.8098	0.87318	112.264	313.478	17.7289	15.8586	17.7045	1.26778
0.1267	44.2506	-21.9076	-54.5177	-0.977961	125.073	266.471	14.6881	22.8969	14.6557	1.26778
0.1273	-42.1007	-13.9952	-46.872	-6.77587	113.169	183.161	11.934	27.1734	6.09764	1.26778
0.1280	-75.3633	-8.15973	-43.5119	-8.27774	37.4863	87.6343	11.6328	38.1319	2.78138	1.58473
0.1287	-2.38869	0.692341	-32.2382	-8.90643	-31.4722	-0.56238	23.2226	58.5787	5.18834	1.58473
0.1293	-17.3778	20.523	1.94793	-13.1676	-76.9596	-94.5574	35.4292	82.9903	6.09764	0.950835
0.1300	-90.8898	49.5024	51.0844	-11.6308	-132.488	-192.819	37.5664	104.684	7.32786	0.950835
0.1307	-68.3167	70.866	82.8113	-2.47983	-165.752	-298.1	40.0049	118.717	15.2976	1.58473
0.1313	-5.13569	68.7395	72.7551	4.81995	-158.425	-395.45	36.046	111.99	26.5835	1.26778
0.1320	14.0933	53.4586	47.1155	10.6179	-130.058	-432.994	24.4418	93.1023	30.5417	1.26778
0.1327	25.3799	41.5404	32.7739	15.822	-79.0885	-402.16	17.1265	78.4465	27.4928	1.26778
0.1333	10.6894	33.628	26.9788	22.2137	-21.7148	-345.398	-3.9302	73.2346	32.3603	1.58473
0.1340	23.8272	33.628	33.6992	28.9546	13.075	-283.75	-32.3166	88.2022	43.0579	1.58473
0.1347	215.162	43.0735	53.5193	32.5871	17.9537	-224.855	-38.1115	108.649	48.5671	1.26778
0.1353	426.979	45.5461	68.7862	35.032	3.92072	-190.375	-41.1667	98.8934	50.0648	1.58473
0.1360	318.95	31.7982	68.1775	34.7526	3.92072	-158.63	-55.2093	63.4789	48.5671	1.58473
0.1367	-140.634	11.028	52.6184	31.679	13.9975	-105.534	-62.2234	21.6496	45.4648	1.58473
0.1373	-580.094	-5.73654	34.9166	27.4178	15.8248	-58.2354	-55.5105	-10.3794	43.3788	1.26778
0.1380	-694.573	-14.2919	24.5439	20.9912	24.9791	-30.7758	-42.0847	-18.3086	38.7788	1.26778
0.1387	-571.555	-17.9514	13.2459	15.822	35.9606	-20.0905	-32.3166	-22.8969	33.2696	1.26778
0.1393	-405.242	-23.7374	-2.6297	15.1933	34.7365	-17.3368	-24.6857	-42.4083	29.8998	1.26778
0.1400	-241.676	-33.8258	-13.319	16.1364	31.3835	-17.0265	-19.4932	-64.1025	28.7231	1.58473
0.1407	32.964	-38.3755	-20.015	18.2669	29.2546	-24.9774	-20.7125	-72.3436	30.2207	1.58473
0.1413	267.653	-32.5895	-27.9528	22.2137	25.2807	-30.4655	-20.4112	-63.7907	31.7719	1.26778
0.1420	220.357	-28.9299	-33.1391	21.9343	16.7296	-25.5786	-17.9728	-52.4759	30.2207	1.26778
0.1427	109.88	-30.7597	-30.3877	17.0445	5.74802	-17.3368	-13.6983	-41.5174	26.5835	0.63389
0.1433	90.0538	-32.5895	-24.3004	10.9322	-10.7332	-18.2483	-10.0407	-34.7909	20.165	0.316945
0.1440	80.917	-35.3588	-23.3751	6.67109	-26.5935	-23.7557	-5.14943	-42.7202	14.9766	1.26778
0.1447	105.341	-39.3151	-26.4431	4.22619	-27.516	-12.4499	8.57759	-54.9259	11.9278	1.90167
0.1453	149.234	-39.9085	-28.2693	1.78129	-25.3694	14.6995	14.3725	-62.5434	8.55808	1.26778
0.1460	163.626	-35.6555	-26.1266	3.91185	-25.9903	32.715	7.96081	-59.5142	8.23716	1.26778
0.1467	166.373	-29.2267	-23.9839	12.469	-19.2665	35.4493	1.86469	-45.1702	16.7952	1.26778
0.1473	170.314	-24.9737	-23.6917	18.8607	1.79182	23.5618	-9.73944	-30.5144	28.7231	1.26778
0.1480	185.243	-21.3142	-23.9839	16.1364	28.0305	5.23595	-24.6857	-19.5114	34.8207	1.26778
0.1487	205.726	-18.2481	-22.7664	10.3384	39.3136	7.07823	-27.1241	-11.8939	37.5486	1.26778
0.1493	140.097	-14.2919	-19.1141	6.67109	31.6851	14.3892	-16.4523	-6.10288	36.9602	1.26778
0.1500	0.955478	-9.98949	-15.1451	-0.349272	10.0236	3.10279	-6.68421	-1.51458	24.1231	1.26778
0.1507	-64.3753	-6.32997	-9.95879	-10.7226	-6.45765	-8.80416	7.35837	2.76189	-7.00693	1.58473
0.1513	-60.6728	-2.67046	-5.67334	-17.743	-18.3617	-16.7357	25.6611	4.90012	-39.9556	1.26778
0.1520	-68.6152	-1.7803	-4.77243	-17.4287	-19.2665	-29.8449	29.9355	4.5883	-40.8649	0.950835
0.1527	-79.9018	-0.543982	-4.45589	-8.59209	31.6851	-32.5987	20.483	6.72653	-12.1953	1.26778
0.1533	-76.2591	0.0494529	-6.28207	2.68939	93.9553	-22.2237	3.7007	7.61746	18.6138	1.58473
0.1540	-51.2375	-1.48359	-9.64225	9.39541	113.47	-13.0705	-12.4791	4.90012	38.7788	1.26778
0.1547	-18.2735	-1.13742	-9.35006	12.1547	105.54	-25.5786	-22.8497	6.10288	52.2043	1.26778
0.1553	-0.597174	-1.48359	-8.1326	6.67109	77.4741	-50.9051	-30.7961	7.30564	68.6786	1.58473
0.1560	20.7816	-3.31334	-8.42479	-5.83284	36.2622	-61.9006	-25.6037	5.79105	62.2601	1.26778
0.1567	68.675	-2.07702	-8.1326	-5.83284	5.44643	-54.5703	-11.8623	6.72653	20.4859	1.26778
0.1573	97.6976	-0.840699	-9.64225	-1.25738	-11.638	-48.1708	-9.12266	7.61746	-40.5974	1.58473
0.1580	77.8714	-2.67046	-13.319	-10.4432	-21.4132	-48.1708	-17.0548	3.96465	-92.4273	1.58473
0.1587	54.94	-2.96717	-12.3937	-10.4432	-22.9389	-28.6232	-21.3292	3.07371	-89.1111	1.26778
0.1593	48.5502	-2.67046	-10.8597	8.48731	-33.3172	0.969621	-8.82144	3.65282	-33.2696	1.58473
0.1600	44.9075	-5.73654	-15.4373	23.4361	-52.2289	24.7835	10.098	0	28.4021	1.58473
0.1607	41.205	-6.32997	-17.8966	27.7322	-50.7032	80.0131	7.65959	2.45006	65.3089	1.26778
0.1613	35.4124	-2.96717	-13.319	26.1954	-36.0493	136.464	-7.28665	7.61746	84.5646	1.58473
0.1620	23.2301	-0.247265	-7.49953	21.9343	-32.3947	131.578	-10.9587	6.41471	113.823	1.58473
0.1627	12.5406	2.81882	-3.55497	18.5813	-32.9979	83.368	-3.9302	3.96465	143.455	1.26778
0.1633	8.89789	4.00569	-1.09571	10.3384	-27.2144	87.0332	0.946691	5.21195	150.141	0.950835
0.1640	8.241	2.5221	-0.194793	-5.23908	-9.81067	210.931	-1.79298	8.24112	170.627	1.26778
0.1647	7.34524	-0.247265	-2.31317	-19.2798	3.31753	327.519	-3.9302	9.17659	202.345	1.26778
0.1653	7.34524	-4.2035	-5.67334	-22.0391	-1.57893	356.51	1.56347	7.92929	153.511	1.26778
0.1660	4.00106	-8.5059	-8.42479	-20.5023	-7.98336	364.733	9.4956	8.24112	-2.13952	1.26778
0.1667	-0.298587	-9.39605	-10.8597	-17.743	-12.2589	346.426	9.19438	9.44387	-171.804	1.26778
0.1673	-1.79152	-6.67614	-13.319	3.31808	-15.3103	291.197	-3.32776	11.8939	-229.464	1.26778
0.1680	-6.38976	-2.07702	-14.2199	35.975	-8.28496	217.951	-14.9176	14.344	-98.5784	1.26778
0.1687	-8.53958	0.0494529	-12.7102	54.8706	3.31753	146.548	-15.5343	15.2795	146.504	1.26778
0.1693	-4.23993	-3.61006	-8.42479	53.9625	6.36895	101.364	-12.7803	11.5821	309.749	1.58473
0.1700	-3.94135	-5.43982	-5.38115	40.5505	-4.00942	51.0214	-11.8623	6.72653	306.7	1.58473
0.1707	-4.23993	-0.543982	-4.77243	8.17296	-8.88815	-31.9975	-9.12266	5.47923	183.143	1.26778
0.1713	1.85124	4.35186	-3.84716	-41.8428	2.6966	-113.775	-1.49176	7.61746	-32.9486	0.950835
0.1720	6.15089	5.83544	-2.6297	-71.7754	13.9975	-170.537	8.27638	9.7557	-252.036	1.26778
0.1727	1.25406	4.35186	-1.70444	-61.6814	27.7289	-219.677	15.2905	11.5821	-326.223	0.950835
0.1733	-6.98693	0.989058	0.730473	-38.8041	49.0888	-263	19.5649	13.1412	-290.814	0.63389
0.1740	-7.28552	-0.247265	1.02266	-21.096	55.1917	-260.867	22.9214	13.7203	-285.626	1.26778
0.1747	-1.19435	2.17593	-4.1637	1.78129	33.8317	-213.879	15.5917	12.8294	-303.652	1.58473
0.1753	10.3908	4.94529	-4.1637	28.326	10.6267	-151.009	5.52236	10.3794	-288.996	1.26778
0.1760	27.8283	6.18161	4.09065	38.6993	-3.10464	-100.045	10.098	9.44387	-247.81	1.26778
0.1767	36.3679	4.35186	7.74302	30.7709	-15.9135	-76.8521	13.1533	7.92929	-197.103	1.26778
0.1773	28.1269	2.17593	6.52556	24.6586	-21.1116	-53.9691	2.7827	5.47923	-132.757	1.26778
0.1780	13.1378	2.81882	10.1779	28.0116	-18.3617	-25.8889	-10.3419	7.03836	-57.981	1.26778
0.1787	-2.38869	4.00569	11.1032	27.7322	-18.6633	-16.4254	-30.4806	7.92929	-12.1953	1.26778
0.1793	-12.4809	3.41225	5.30811	20.9912	-21.7148	-18.5585	-51.8529	6.41471	11.6069	1.26778
0.1800	-7.88269	1.87921	1.65574	17.0445	-24.163	-15.8048	-53.3733	7.30564	32.3603	1.26778
0.1807	3.40389	-0.840699	1.02266	14.5996	-18.0601	-6.96188	-38.1115	7.92929	14.6557	1.26778
0.1813	8.89789	-3.61006	0.730473	5.44864	-12.5605	7.38851	-21.028	3.96465	-57.981	1.58473
0.1820	7.34524	-4.2035	1.65574	-4.61039	-21.4132	15.6109	-6.38299	-1.20276	-129.708	1.26778
0.1827	4.00106	-3.61006	2.26447	-7.36964	-31.1706	10.4331	9.4956	-2.76189	-130.297	0.950835
0.1833	1.55265	-2.96717	1.65574	-7.36964	-33.9204	-4.20815	27.1959	-3.02917	-83.6018	0.950835
0.1840	1.55265	-0.840699	3.16538	-7.05529	-31.7915	-5.42988	49.4718	0.935478	-52.4718	0.950835
0.1847	0.358304	0.692341	5.30811	-6.14719	-33.6188	37.5825	62.2951	3.65282	-32.3068	0.950835
0.1853	-4.23993	-0.247265	4.38284	-1.57172	-35.7477	94.6544	48.2526	0.311826	-14.0139	1.26778
0.1860	-4.53852	0.34617	4.38284	4.81995	-40.3249	119.69	30.5523	-0.311826	-5.77671	1.58473
0.1867	-0.89576	3.11553	6.8421	4.22619	-67.486	130.666	33.292	3.34099	-1.17674	1.26778
0.1873	-3.94135	2.5221	6.23337	-4.61039	-97.6986	117.247	43.9781	2.76189	10.3767	0.950835
0.1880	-9.13676	1.28578	4.69938	-11.3513	-94.044	62.6181	58.6231	0.623652	27.1719	1.26778
0.1887	-6.38976	4.35186	6.8421	-10.1289	-63.5298	3.72334	77.2414	4.5883	35.0881	1.58473
0.1893	-5.13569	4.35186	7.13429	-7.36964	-32.9979	-41.4416	71.7477	5.47923	23.5347	1.58473
0.1900	-10.3311	0.692341	4.69938	-9.5002	-9.50907	-80.207	45.8141	0.311826	-4.27904	1.26778
0.1907	-9.43534	1.58249	5.30811	-11.037	20.1003	-111.022	43.3613	0.311826	-16.4743	1.26778
0.1913	-4.83711	5.53873	8.66828	-11.9451	51.5193	-131.481	61.6784	4.90012	3.69067	1.26778
0.1920	-7.28552	4.35186	7.45083	-16.2411	70.4488	-120.485	56.4859	3.07371	33.2696	1.26778
0.1927	-11.8838	2.17593	4.69938	-7.99833	79.9046	-104.932	22.6202	-0.935478	63.8112	0.950835
0.1933	-10.3311	4.35186	6.23337	17.3588	81.7319	-128.417	-12.4791	1.82641	81.5158	1.26778
0.1940	-8.83817	6.18161	8.05956	35.3463	79.9046	-137.57	-40.5499	5.47923	74.4553	1.58473
0.1947	-12.4809	4.64857	6.23337	33.8095	86.3268	-100.045	-59.1682	2.76189	50.9741	1.26778
0.1953	-13.3767	3.41225	5.6003	29.2341	89.9814	-67.6989	-49.4001	1.51458	19.2557	1.58473
0.1960	-10.9283	4.35186	6.8421	25.881	72.2761	-56.7034	-17.9728	3.96465	-3.04882	1.58473
0.1967	-11.2866	3.70897	5.91683	18.8607	45.7358	-53.3485	1.86469	2.76189	-2.13952	1.58473
0.1973	-11.8838	3.41225	5.6003	13.6915	26.2032	-44.7965	4.00192	2.13824	12.2488	1.58473
0.1980	-13.0781	4.00569	5.6003	10.9322	12.7734	-34.1307	-2.40976	2.45006	22.3045	1.58473
0.1987	-13.0781	3.70897	4.99157	10.3384	2.9982	-22.534	-9.12266	1.51458	25.9417	1.26778
0.1993	-11.8838	4.00569	4.99157	11.2466	-3.10464	0.659342	-7.60222	1.20276	28.7231	0.950835
0.2000	-11.2866	4.35186	5.30811	10.0241	-6.75925	19.5863	-5.76621	0.935478	29.3114	0.950835
0.2007	-10.6297	4.00569	6.23337	6.67109	-6.75925	34.5379	-12.7803	-0.311826	26.5835	1.26778
0.2013	-7.28552	4.35186	7.13429	4.81995	-6.45765	44.0014	-18.8908	-0.623652	24.7115	1.26778
0.2020	-6.68834	3.41225	6.8421	4.54053	-13.483	37.2916	-22.2472	-1.82641	25.6743	1.26778
0.2027	-8.83817	1.58249	5.6003	3.5975	-17.7408	29.0498	-26.5217	-3.96465	25.3533	0.950835
0.2033	-6.98693	1.87921	5.30811	4.81995	-12.5605	31.4933	-24.6857	-4.5883	25.0324	0.63389
0.2040	-3.04559	2.5221	6.23337	7.5792	-9.81067	37.8928	-16.4523	-3.34099	27.1719	1.26778
0.2047	-3.94135	1.58249	4.99157	6.67109	-13.7846	37.8928	-13.9996	-3.96465	26.2626	1.58473
0.2053	-7.58411	-0.247265	2.87319	3.5975	-16.5344	33.9367	-18.274	-6.72653	22.8929	1.58473
0.2060	-6.38976	0.34617	3.16538	4.22619	-11.638	28.4293	-13.6983	-6.72653	21.6627	1.26778
0.2067	-4.83711	1.58249	3.77411	3.91185	-8.58655	19.8966	-4.84821	-5.1674	20.7534	1.26778
0.2073	-8.241	0.692341	1.94793	0.24449	-10.7332	14.0983	-6.38299	-6.10288	17.7045	1.26778
0.2080	-7.88269	-0.247265	0.413935	-2.20041	-9.50907	16.8326	-10.3419	-7.61746	14.9766	1.26778
0.2087	-5.79258	0.0494529	0.413935	-1.88607	-7.36244	14.6995	-9.73944	-7.30564	14.6557	1.58473
0.2093	-14.6308	-0.543982	-1.09571	-2.79418	-13.1637	5.85651	-13.0959	-8.55294	13.7464	1.58473
0.2100	-22.8717	-0.247265	-1.70444	-3.42286	-13.1637	32.715	-16.1368	-8.24112	12.5162	1.26778
0.2107	-18.8707	2.17593	-0.194793	0.24449	-6.15606	94.0532	-12.1779	-3.96465	12.8371	1.26778
0.2113	-14.6308	2.81882	0.121746	3.31808	-37.8944	139.528	-10.0407	-3.34099	12.8371	1.26778
0.2120	-15.5265	1.58249	0.121746	3.91185	-98.9227	168.21	-11.8623	-5.79105	12.5162	0.950835
0.2127	-11.5852	4.35186	7.13429	4.54053	-120.904	176.141	-9.12266	-3.02917	14.0674	1.26778
0.2133	-7.28552	8.01137	16.2896	3.5975	-51.3242	154.771	-2.40976	0.311826	14.9766	1.58473
0.2140	-13.0781	10.7313	23.0099	0.558835	75.0259	121.203	4.60436	1.20276	12.5162	1.26778
0.2147	-19.5276	13.5006	27.5875	-2.20041	139.106	80.0131	18.0445	3.65282	9.14645	1.26778
0.2153	-21.6177	12.8578	26.9788	-6.46153	137.899	22.3401	45.8141	3.96465	4.9209	1.58473
0.2160	-25.9173	10.1378	22.6934	-12.2594	114.091	-31.9975	72.0489	-0.311826	0	1.26778
0.2167	-28.6643	6.77505	17.8235	-13.7962	50.9161	-65.8566	75.7209	-3.34099	-0.588368	0.950835
0.2173	-19.1693	2.81882	10.4945	-7.68398	-16.836	-103.4	59.5411	-7.03836	5.50927	1.26778
0.2180	-3.04559	-2.07702	2.55666	0.24449	-50.7032	-130.569	27.4971	-12.5176	13.1581	1.26778
0.2187	8.89789	-4.84638	0.730473	4.54053	-58.0302	-114.997	-6.38299	-15.2349	16.7952	1.26778
0.2193	16.482	-4.2035	2.87319	7.26486	-50.4016	-94.5574	-26.2061	-14.6558	19.5231	1.26778
0.2200	22.6329	-3.61006	4.99157	12.1547	-24.7662	-97.602	-38.7283	-13.7203	23.8022	1.26778
0.2207	27.1714	-2.96717	6.23337	16.1364	6.97214	-102.489	-48.1808	-12.2058	27.1719	1.26778
0.2213	23.8272	0.0494529	9.5692	16.4158	29.2546	-99.134	-45.4412	-7.92929	28.4021	1.26778
0.2220	13.735	1.28578	10.811	12.1547	46.0374	-99.134	-39.6463	-5.79105	24.444	1.26778
0.2227	10.0922	-2.37374	5.91683	6.0424	49.692	-89.6705	-36.2898	-10.3794	18.6138	1.26778
0.2233	15.8848	-3.90678	2.87319	4.54053	31.6851	-53.9691	-26.8229	-11.003	15.8859	1.26778
0.2240	17.4375	-3.31334	2.87319	4.54053	6.04962	-19.47	-21.3292	-9.13205	14.9766	1.26778
0.2247	11.9435	-3.31334	2.87319	2.68939	-12.2589	-5.74016	-20.4112	-9.44387	14.3348	1.58473
0.2253	7.04665	-2.37374	4.69938	1.78129	-22.9389	0.0581772	-16.1368	-8.86477	14.0674	1.58473
0.2260	4.00106	1.28578	8.05956	3.31808	-25.6887	1.88106	-11.5611	-5.47923	14.0674	1.26778
0.2267	0.955478	1.28578	7.74302	2.68939	-29.6449	-3.29671	-13.9996	-6.10288	13.1581	1.26778
0.2273	5.19541	-1.13742	4.99157	1.18752	-34.222	-5.42988	-15.5343	-9.13205	12.5162	1.26778
0.2280	13.4364	-0.247265	5.6003	2.68939	-25.0678	-0.853266	-8.20466	-5.47923	12.8371	1.26778
0.2287	8.241	-0.543982	4.38284	1.46694	-17.7408	-1.7841	-8.20466	-4.90012	11.0185	0.63389
0.2293	-0.89576	-2.37374	0.413935	-1.25738	-17.4392	-4.82871	-13.3971	-7.92929	9.46738	0.63389
0.2300	1.55265	0.34617	0.730473	0.24449	-10.7332	0.368456	-6.38299	-3.02917	10.3767	1.58473
0.2307	5.19541	2.5221	1.3392	1.78129	-8.58655	5.23595	-0.573752	1.51458	11.0185	1.26778
0.2313	1.85124	-0.247265	-3.55497	-0.977961	-20.4906	2.50162	-8.50588	-2.76189	10.1092	1.58473
0.2320	0.656891	-1.7803	-6.28207	-2.20041	-24.4646	1.88106	-13.3971	-6.10288	8.87901	1.58473
0.2327	5.494	0.692341	-3.23843	-0.0349272	-13.1637	7.6794	-7.28665	-2.76189	9.14645	0.950835
0.2333	4.59824	1.58249	-0.803521	-0.0349272	-7.98336	9.2114	-5.46499	-2.13824	9.46738	0.950835
0.2340	-4.23993	1.87921	2.55666	-0.977961	-10.1123	9.2114	-9.42388	-4.27647	8.55808	0.63389
0.2347	-5.13569	5.24201	11.1032	0.87318	-4.63035	16.8326	-5.14943	-1.20276	8.55808	0.950835
0.2353	-1.79152	5.24201	16.8983	0.87318	-2.78531	17.4532	-1.79298	-0.935478	9.14645	1.26778
0.2360	-3.94135	1.58249	15.3886	-1.57172	-7.98336	10.4331	-3.32776	-4.90012	7.96972	1.26778
0.2367	-3.94135	1.28578	11.4197	-1.25738	-7.68177	10.4331	-1.79298	-4.5883	6.41856	1.26778
0.2373	-1.79152	2.5221	9.5692	-1.25738	-5.53513	14.0983	-0.889316	-1.20276	6.09764	1.26778
0.2380	-4.83711	1.28578	7.13429	-3.42286	-8.58655	12.256	-6.38299	-2.76189	4.9209	1.26778
0.2387	-10.6297	-0.247265	4.38284	-4.61039	-9.50907	8.59084	-7.28665	-6.41471	3.04882	1.26778
0.2393	-13.6753	0.692341	3.77411	-3.70228	-4.93194	7.98968	3.38514	-5.79105	3.36975	1.26778
0.2400	-16.1237	0.0494529	0.413935	-3.70228	-4.63035	7.38851	7.05715	-4.27647	3.69067	1.26778
0.2407	-16.1237	-1.13742	-2.92189	-4.01663	-7.06084	6.16679	-0.272532	-4.90012	2.78138	1.26778
0.2413	-14.9293	-0.247265	-1.09571	-3.10852	-5.53513	5.54623	-5.14943	-3.96465	3.04882	1.26778
0.2420	-14.6308	0.692341	-1.09571	-2.47983	-2.78531	6.76795	-7.60222	-2.76189	4.0116	1.26778
0.2427	-10.6297	0.989058	-5.06461	-2.79418	-2.18212	8.90112	-10.0407	-1.20276	3.04882	1.26778
0.2433	-3.34417	1.87921	-4.1637	-2.47983	-0.354816	10.1228	-9.42388	0.935478	2.46045	1.58473
0.2440	-1.79152	2.5221	4.38284	-2.79418	2.39501	8.90112	-7.60222	1.20276	1.55115	1.58473
0.2447	-6.09117	2.17593	10.4945	-4.01663	-6.45765	7.98968	-6.38299	0.623652	0.320928	1.26778
0.2453	-9.13676	0.989058	8.05956	-4.92473	-23.8436	11.6548	-3.32776	1.82641	0	1.26778
0.2460	-10.6297	1.87921	4.09065	-6.14719	-30.869	22.3401	0.344251	1.51458	-1.17674	1.58473
0.2467	-11.8838	3.70897	2.55666	-8.27774	-22.0163	33.9367	4.30314	1.20276	-4.27904	1.26778
0.2473	-11.2866	1.87921	0.121746	-9.81454	-10.4316	38.8042	1.24791	2.13824	-6.36508	0.950835
0.2480	-10.0325	-0.840699	-2.92189	-10.7226	-3.70783	37.2916	-9.42388	2.13824	-7.32786	1.26778
0.2487	-6.09117	-1.48359	-3.23843	-10.7226	6.67054	58.6427	-16.4523	0.311826	-7.32786	1.26778
0.2493	1.85124	-0.840699	4.69938	-9.22078	17.9537	123.956	-17.6716	0.623652	-6.36508	1.26778
0.2500	6.15089	2.5221	16.2896	-8.90643	16.7296	173.388	-13.9996	3.65282	-5.77671	1.26778
0.2507	6.44948	6.18161	19.041	-11.3513	13.075	171.565	-2.71098	3.96465	-7.5953	1.26778
0.2513	9.19647	5.53873	17.507	-11.3513	15.2039	156.613	14.3725	3.07371	-9.46738	1.26778
0.2520	12.2421	5.24201	19.9663	-7.68398	14.6007	136.154	26.5791	3.07371	-8.82552	1.26778
0.2527	10.988	6.77505	21.4759	-4.33097	10.9461	103.517	27.1959	2.76189	-6.36508	0.950835
0.2533	6.15089	7.36848	16.6061	-1.25738	11.8509	68.7267	22.0034	3.96465	-2.40696	0.950835
0.2540	0.955478	6.47833	8.96047	2.37505	12.4718	29.9613	17.7289	6.41471	2.46045	1.26778
0.2547	1.85124	3.41225	2.26447	5.44864	6.97214	-28.9335	14.0713	3.96465	7.06042	1.26778
0.2553	9.79365	-1.48359	-1.70444	4.22619	5.14483	-90.582	13.1533	-1.82641	8.55808	1.26778
0.2560	13.1378	-2.96717	-3.23843	2.37505	10.3252	-125.682	10.098	1.51458	8.23716	1.26778
0.2567	5.19541	-2.37374	-5.98988	3.5975	16.1264	-145.521	2.7827	8.24112	10.6976	1.58473
0.2573	-1.49293	-3.90678	-7.20734	3.31808	21.3067	-163.517	1.24791	2.76189	11.0185	1.58473
0.2580	2.747	-4.84638	1.02266	3.31808	24.6775	-168.404	2.7827	-7.30564	9.46738	1.58473
0.2587	3.70248	-4.2035	10.4945	4.54053	22.8502	-150.097	-6.38299	-11.5821	9.46738	1.26778
0.2593	-4.53852	-5.43982	12.9294	4.81995	18.2553	-124.15	-18.8908	-10.6912	8.55808	1.26778
0.2600	-9.13676	-6.32997	9.88574	4.54053	15.8248	-104.002	-22.8497	-5.47923	7.64879	1.26778
0.2607	-5.13569	-3.31334	7.74302	5.44864	20.7035	-77.4533	-22.2472	0	7.96972	1.58473
0.2613	-3.94135	0.989058	9.88574	5.44864	20.4019	-40.2199	-21.028	0	7.32786	1.58473
0.2620	-5.13569	2.81882	6.23337	3.00374	10.0236	-7.87332	-17.356	4.5883	5.50927	1.58473
0.2627	0	2.17593	-2.6297	5.1343	7.27373	7.98968	-7.28665	22.2733	4.27904	0.950835
0.2633	7.04665	-2.07702	-5.38115	9.39541	8.19625	9.2114	3.7007	36.3055	2.78138	0.316945
0.2640	8.89789	-6.67614	-5.38115	4.54053	0.8693	4.01423	8.57759	45.7939	1.23022	0.950835
0.2647	7.94241	-5.43982	-1.09571	-1.25738	-2.18212	2.79251	10.098	50.3376	1.55115	1.26778
0.2653	6.15089	-1.13742	3.77411	-0.349272	-0.958004	3.72334	11.3173	24.7233	2.46045	0.950835
0.2660	0.358304	1.87921	2.26447	-0.349272	-1.88053	1.2799	15.2905	4.5883	1.87208	1.26778
0.2667	-0.89576	4.64857	-1.70444	-0.977961	2.09342	0.0581772	25.0586	44.2347	0.320928	1.26778
0.2673	5.494	3.11553	-3.23843	0.24449	-12.2589	1.88106	27.4971	57.0642	0.641856	1.26778
0.2680	4.59824	-4.2035	-2.02098	0.24449	-51.6258	0.969621	14.6881	-11.2703	1.23022	1.26778
0.2687	-3.94135	-7.86301	1.3392	-2.47983	-72.6841	-2.69555	-1.79298	-41.8292	-0.588368	0.950835
0.2693	-4.53852	-7.26958	5.30811	-4.61039	-61.0816	-4.51843	-11.2599	-21.0705	-2.40696	0.950835
0.2700	-3.64276	-7.26958	8.96047	-4.01663	-40.3249	-6.6516	-13.6983	-18.3086	-2.13952	1.26778
0.2707	-8.53958	-2.37374	11.1032	-1.88607	-19.2665	-8.49388	-10.3419	-24.0997	-1.81859	1.26778
0.2713	-7.58411	10.7313	6.23337	-0.0349272	6.97214	-8.1836	-0.889316	-26.8616	-1.81859	1.26778
0.2720	-3.34417	16.8634	-2.92189	-0.663617	35.9606	-12.159	4.91993	-20.1351	-2.40696	1.26778
0.2727	-5.79258	6.77505	-3.23843	-1.57172	54.8901	-15.8048	3.08392	-4.27647	-1.81859	1.26778
0.2733	-7.28552	-8.15973	5.6003	0.24449	62.8202	-13.0705	7.65959	22.5851	-0.909296	1.26778
0.2740	-5.494	-11.8192	15.0721	-0.349272	68.0005	-10.9373	21.7022	31.1381	-2.40696	1.26778
0.2747	-11.2866	-5.43982	19.041	-2.79418	70.1472	-8.80416	23.8394	6.10288	-3.63719	1.26778
0.2753	-14.3322	0.0494529	17.2148	-2.20041	75.9484	-0.853266	14.3725	0.623652	-1.49766	1.58473
0.2760	-4.53852	4.00569	11.1032	-0.0349272	81.7319	11.6548	8.27638	30.2026	1.23022	1.58473
0.2767	4.59824	5.53873	-5.67334	5.1343	61.2945	17.7635	0.645471	33.5881	0.641856	1.26778
0.2773	10.0922	2.81882	-27.0519	12.1547	27.7289	19.8966	-1.49176	-21.0705	-1.49766	1.26778
0.2780	19.8859	4.00569	-32.5304	9.39541	10.0236	54.3763	9.4956	-44.8584	-2.40696	1.58473
0.2787	21.6774	9.84113	-21.549	-5.55342	13.3766	107.783	8.27638	-15.2349	-2.40696	1.58473
0.2793	13.1378	8.01137	-10.5675	-12.2594	47.2615	124.267	-5.76621	-0.623652	-1.49766	1.26778
0.2800	10.988	2.17593	-16.3626	-4.33097	78.9998	120.601	-9.73944	2.13824	-0.909296	1.26778
0.2807	16.8403	3.11553	-28.878	1.18752	70.7503	126.089	-6.38299	5.21195	-0.909296	1.58473
0.2813	28.1269	1.87921	-31.6295	-3.10852	41.7619	112.049	0.645471	-6.41471	-3.63719	1.58473
0.2820	46.699	-6.97286	-33.1391	-6.77587	13.6782	70.5496	15.2905	-23.476	-7.91623	1.26778
0.2827	43.3548	-6.03325	-21.2324	-2.20041	-12.2589	39.7351	23.5382	-28.3762	-6.686	1.58473
0.2833	0.656891	8.30809	8.35174	1.46694	-33.3172	19.5863	14.9893	-14.6558	-3.31626	1.58473
0.2840	-37.8011	16.8634	27.271	3.00374	-42.7731	-1.16354	7.35837	14.9676	-0.26744	1.58473
0.2847	-47.8933	10.1378	34.3079	9.116	-43.9972	-16.7357	7.65959	31.1381	5.18834	1.58473
0.2853	-48.4905	0.989058	38.8855	12.7834	-42.7731	-46.0182	-1.79298	29.3116	9.14645	1.26778
0.2860	-45.1463	3.11553	31.2399	10.6179	-38.196	-79.5865	-14.6163	29.8908	8.55808	1.26778
0.2867	-32.0085	11.3742	13.5381	8.17296	-27.8176	-86.6065	-14.9176	12.2058	6.73949	1.58473
0.2873	-15.8251	12.2643	0.121746	7.5792	-17.1376	-75.3201	-10.9587	-14.9676	5.50927	1.26778
0.2880	-7.58411	3.41225	-3.55497	5.1343	-16.836	-72.2755	-10.6431	-21.3824	3.69067	1.26778
0.2887	-6.38976	-7.86301	7.13429	1.18752	-16.5344	-78.9853	-7.28665	-14.9676	1.55115	1.26778
0.2893	-6.98693	-13.649	31.5564	0.87318	-7.68177	-70.4333	-0.889316	2.76189	0	1.26778
0.2900	-7.58411	-15.182	44.0719	1.78129	-6.45765	-47.2399	1.56347	26.8616	-1.17674	1.26778
0.2907	-4.83711	-12.7588	28.1963	1.18752	-14.3878	-26.8003	1.86469	29.8908	-1.81859	1.58473
0.2913	1.25406	4.64857	13.5381	1.46694	-18.3617	-13.0705	5.22114	-1.20276	-1.49766	1.58473
0.2920	3.1053	24.7759	3.77411	0.558835	-18.0601	-9.40532	6.13915	-27.1734	-2.13952	1.58473
0.2927	2.747	26.0122	-17.8966	-0.0349272	-14.3878	-11.2282	7.05715	-20.4469	-4.27904	0.950835
0.2933	5.8523	16.2206	-31.0208	2.37505	-6.75925	-8.80416	13.7701	-15.5468	-4.54648	0.316945
0.2940	5.494	2.81882	-33.1391	1.46694	-4.63035	-6.6516	14.0713	16.7941	-3.95811	1.26778
0.2947	3.40389	-32.8862	-33.7479	-0.663617	-7.98336	-7.58243	2.46713	121.167	-4.27904	1.58473
0.2953	8.241	-66.168	-24.5926	0.87318	-7.36244	-6.36071	-4.24577	162.64	-3.63719	1.26778
0.2960	14.6905	-49.7002	-11.1762	2.09563	-4.00942	-5.42988	-3.32776	54.035	-2.72789	1.58473
0.2967	13.4364	-16.4184	3.16538	1.78129	-3.40624	-3.91727	-3.32776	-37.82	-3.31626	1.58473
0.2973	8.89789	-0.543982	19.9663	3.00374	-2.18212	0.969621	-0.889316	-22.2733	-3.04882	1.26778
0.2980	4.00106	12.561	24.8361	4.54053	-1.2596	4.01423	1.86469	-17.1059	-2.13952	1.58473
0.2987	-3.04559	18.6932	14.7556	3.00374	-5.23354	1.88106	-3.32776	-63.167	-2.13952	1.26778
0.2993	-5.13569	11.028	4.38284	1.78129	-6.75925	1.2799	-7.28665	-79.6493	-2.72789	1.26778
0.3000	2.747	4.35186	0.730473	2.37505	-3.70783	3.72334	-4.54699	-50.6495	-2.72789	1.26778
0.3007	8.89789	2.5221	1.94793	0.87318	-3.10464	3.41307	-3.62898	-23.7879	-2.72789	1.58473
0.3013	9.49506	0.0494529	2.87319	-2.47983	-3.40624	2.19134	-3.0122	-16.1704	-3.31626	1.58473
0.3020	6.44948	-0.840699	5.6003	-3.70228	-2.18212	1.88106	0.344251	-12.2058	-3.95811	1.26778
0.3027	-6.09117	-0.840699	14.1468	-3.10852	-3.10464	0.368456	3.08392	-7.92929	-4.27904	1.26778
0.3033	-16.4223	-3.61006	14.7556	-3.42286	-6.15606	-1.16354	2.46713	-1.82641	-4.86741	1.26778
0.3040	-9.73393	-3.61006	12.9294	-2.47983	-5.23354	1.2799	0.645471	15.5468	-4.86741	1.26778
0.3047	-1.49293	0.989058	22.0846	-1.88607	-2.78531	4.63479	0.645471	11.3148	-3.63719	1.26778
0.3053	-3.34417	0.989058	21.7925	-5.55342	-5.23354	3.72334	-3.0122	-17.1059	-3.04882	1.58473
0.3060	-5.494	-0.543982	12.6372	-8.27774	-5.23354	3.72334	-5.14943	-19.5114	-3.95811	1.58473
0.3067	-7.58411	0.692341	6.8421	-7.36964	-3.40624	5.54623	-3.62898	5.47923	-4.54648	1.26778
0.3073	-12.4809	2.81882	2.55666	-8.27774	-5.23354	4.01423	-5.14943	20.7587	-5.18834	1.26778
0.3080	-15.5265	10.1378	-0.803521	-9.22078	-5.83673	3.72334	-5.46499	8.55294	-4.86741	1.26778
0.3087	-11.8838	21.7098	-9.95879	-7.68398	-2.18212	6.45767	-1.49176	-3.34099	-4.54648	1.26778
0.3093	3.40389	32.3917	-26.4431	-7.05529	-1.2596	7.38851	-0.573752	-2.13824	-4.27904	1.26778
0.3100	24.4244	29.0289	-39.2508	-7.05529	-1.57893	6.76795	-1.49176	-2.76189	-4.27904	1.26778
0.3107	29.0226	11.3742	-28.5615	-5.83284	-0.65641	7.07823	0.0286876	-0.935478	-4.27904	1.58473
0.3113	13.4364	-2.07702	-0.486982	-6.46153	-2.48371	4.32451	-0.889316	-3.34099	-4.86741	1.58473
0.3120	2.44841	-14.2919	17.8235	-9.22078	-4.93194	1.59018	-3.62898	-2.76189	-5.45578	1.58473
0.3127	11.9435	-32.8862	26.6623	-3.10852	-3.40624	2.79251	-3.0122	12.5176	-5.77671	1.58473
0.3133	28.1269	-40.5514	22.6934	11.8403	-2.18212	2.50162	-2.10854	20.1351	-7.00693	1.26778
0.3140	36.3679	-50.5903	2.26447	15.1933	-1.88053	2.19134	-0.272532	61.6525	-7.00693	1.58473
0.3147	32.3668	-86.9382	-2.92189	7.5792	-0.354816	3.41307	3.08392	146.469	-5.77671	1.58473
0.3153	12.8392	-125.363	18.4323	6.98544	-1.2596	2.79251	3.38514	132.437	-5.18834	1.58473
0.3160	-9.73393	-128.132	25.4448	9.39541	-5.53513	0.969621	0.0286876	46.9966	-5.77671	1.26778
0.3167	-14.3322	-45.101	16.8983	7.26486	-7.36244	1.2799	-2.40976	48.5112	-6.09764	1.26778
0.3173	0.955478	88.2734	16.8983	4.81995	-5.23354	2.79251	-1.19054	45.7939	-5.18834	1.58473
0.3180	23.2301	141.336	11.7119	3.00374	-4.93194	1.88106	-0.573752	-21.6496	-5.45578	1.26778
0.3187	31.7696	102.911	-1.41225	1.18752	-7.06084	-1.7841	-2.10854	-41.5174	-6.36508	1.26778
0.3193	15.8848	46.4363	-6.28207	1.46694	-7.06084	-3.91727	-0.573752	-51.5849	-5.45578	1.58473
0.3200	-7.88269	16.8634	-6.8908	2.09563	-7.36244	-2.38527	2.7827	-96.7552	-4.86741	1.58473
0.3207	-10.6297	20.2262	-17.2879	0.87318	-7.36244	0.368456	4.00192	-100.408	-4.86741	1.58473
0.3213	9.19647	28.1387	-32.847	-0.349272	-3.10464	3.10279	2.46713	-63.7907	-4.86741	1.58473
0.3220	29.0226	22.3527	-39.2508	-0.0349272	2.39501	2.50162	-0.272532	-31.1381	-4.54648	1.26778
0.3227	38.1594	7.07177	-34.6731	3.91185	3.61912	-0.252101	-1.79298	-38.1319	-3.95811	0.950835
0.3233	32.3668	9.84113	-32.847	6.35675	1.79182	-3.60699	-2.40976	-105.887	-3.04882	1.26778
0.3240	12.5406	31.7982	-34.3566	2.68939	2.09342	-2.69555	-0.272532	-145.266	-2.40696	1.26778
0.3247	-9.43534	30.2652	-13.6112	0.558835	4.22231	6.45767	2.7827	-111.678	-2.40696	1.26778
0.3253	-17.6763	-0.840699	10.4945	0.24449	4.22231	15.32	0.344251	-56.4405	-2.40696	1.26778
0.3260	-7.28552	-25.5672	6.23337	1.46694	7.27373	19.8966	0.344251	-25.0352	-1.49766	1.26778
0.3267	4.59824	-29.8696	-2.92189	3.31808	10.3252	21.1183	2.7827	-53.0995	-0.588368	1.58473
0.3273	4.29965	-3.61006	-3.55497	2.68939	8.49785	18.3646	0.645471	-97.9579	-1.17674	1.58473
0.3280	3.70248	26.3089	1.65574	1.46694	6.97214	13.4777	-2.10854	-84.2376	-1.49766	1.58473
0.3287	4.59824	13.2039	13.8546	0.558835	4.22231	8.90112	-2.40976	9.17659	-1.17674	1.58473
0.3293	-1.79152	-27.3969	5.6003	-1.25738	-0.0532224	4.32451	-4.54699	133.684	-2.13952	1.26778
0.3300	-8.83817	-89.6581	-3.84716	0.87318	1.47249	4.94507	-3.62898	227.989	-2.40696	0.63389
0.3307	-14.0336	-158.645	13.2459	6.0424	6.97214	9.81256	1.86469	231.954	-0.909296	0.63389
0.3313	-22.8717	-221.203	20.8672	3.31808	5.14483	7.38851	2.16591	184.334	-0.909296	1.26778
0.3320	-26.2159	-293.503	21.7925	-1.57172	1.47249	3.41307	-0.889316	135.823	-1.49766	1.26778
0.3327	-19.1693	-353.638	31.5564	-1.25738	2.39501	4.63479	-0.272532	54.9259	-1.81859	1.26778
0.3333	-11.8838	-391.469	29.7303	-1.25738	1.17089	3.41307	-2.10854	17.4177	-3.04882	0.950835
0.3340	-3.04559	-374.408	21.4759	-1.57172	-0.65641	0.969621	-4.54699	57.9996	-3.31626	0.950835
0.3347	10.6894	-266.947	5.6003	0.24449	3.31753	4.01423	-0.889316	93.6814	-2.40696	1.26778
0.3353	28.1269	-168.387	-28.2693	0.24449	3.31753	4.32451	0.0286876	99.7843	-2.40696	1.26778
0.3360	51.2972	-110.132	-60.6049	-1.88607	-0.65641	1.2799	-3.62898	136.09	-2.72789	1.26778
0.3367	71.1234	25.7155	-70.6855	-0.977961	1.17089	3.10279	-1.49176	184.022	-2.72789	1.26778
0.3373	68.675	204.537	-56.9526	-0.0349272	2.09342	4.01423	-0.272532	146.202	-3.31626	1.26778
0.3380	37.5622	293.355	-26.7353	-1.57172	-1.57893	0.659342	-3.62898	41.2056	-4.27904	1.58473
0.3387	-11.5852	311.949	8.96047	-1.25738	-0.958004	1.2799	-1.79298	-68.0672	-3.63719	1.58473
0.3393	-48.1919	315.905	35.8175	0.24449	1.79182	3.41307	1.56347	-126.334	-3.04882	1.58473
0.3400	-53.0887	297.608	42.5379	-0.0349272	1.17089	2.19134	0.0286876	-138.54	-2.40696	1.26778
0.3407	-38.7566	244.198	37.6437	-0.0349272	1.47249	2.50162	0.0286876	-162.372	-0.588368	1.26778
0.3413	-23.1703	104.148	32.4574	-0.349272	1.47249	2.19134	-0.889316	-175.157	1.23022	1.26778
0.3420	-17.9749	-79.9159	30.6312	-2.20041	-1.57893	-0.252101	-5.46499	-150.167	0	1.26778
0.3427	-17.3778	-178.772	29.1215	-0.977961	-0.354816	1.2799	-3.9302	-102.858	-0.588368	1.26778
0.3433	-8.241	-202.262	27.271	1.46694	4.22231	5.23595	1.86469	-63.4789	0.909296	1.58473
0.3440	4.00106	-221.796	24.5439	0.87318	2.39501	3.10279	0.344251	-42.0965	0.320928	1.26778
0.3447	11.6449	-218.137	22.0846	-0.0349272	-0.65641	0.969621	-2.10854	-11.8939	-0.909296	1.26778
0.3453	14.9891	-150.98	21.1837	-0.349272	-1.57893	0.659342	-0.889316	15.2795	-0.909296	1.58473
0.3460	11.6449	57.4148	30.6312	-0.977961	-2.18212	-0.56238	-1.79298	33.8554	-1.49766	1.58473
0.3467	7.34524	347.06	32.7739	-0.0349272	0.266112	0.659342	0.344251	71.0963	-1.81859	1.26778
0.3473	8.5993	434.938	-12.0772	1.18752	2.09342	2.50162	2.16591	89.405	-2.13952	1.26778
0.3480	3.40389	275.008	-76.4806	0.24449	-0.354816	0.969621	-1.49176	77.1992	-2.72789	1.26778
0.3487	-13.6753	111.764	-95.7164	-2.20041	-3.70783	-2.69555	-6.38299	54.3023	-3.63719	0.950835
0.3493	-35.6513	80.6082	-61.2137	-2.47983	-3.70783	-2.38527	-6.98543	-48.1994	-3.31626	0.950835
0.3500	-52.4916	103.802	-16.3626	-1.88607	-2.78531	-0.853266	-5.14943	-153.507	-2.72789	1.58473
0.3507	-48.7891	98.3124	11.4197	-1.25738	-2.48371	-0.853266	-3.0122	-117.781	-2.40696	1.58473
0.3513	-33.5612	94.3561	23.6186	0.87318	-0.65641	0.368456	1.24791	-21.3824	-2.40696	1.26778
0.3520	-24.0661	113.89	24.5439	2.09563	1.17089	1.59018	3.7007	21.0705	-2.13952	1.26778
0.3527	-17.0792	125.511	13.8546	0.87318	-0.354816	-0.56238	1.24791	-38.1319	-2.13952	1.26778
0.3533	-13.3767	111.121	3.77411	-0.0349272	-1.88053	-1.7841	-0.573752	-112.926	-2.72789	1.26778
0.3540	-14.3322	98.9553	6.52556	1.18752	-0.65641	0.0581772	2.16591	-111.99	-2.13952	1.26778
0.3547	-13.0781	94.9496	12.0285	0.24449	-0.354816	0.0581772	3.08392	-82.4112	-0.909296	1.26778
0.3553	-12.7795	56.228	14.7556	1.18752	-0.958004	-0.853266	0.344251	-54.6141	-0.909296	0.950835
0.3560	-15.8251	-1.13742	19.6497	6.67109	1.17089	2.19134	1.24791	-21.6496	-0.26744	0.316945
0.3567	-17.0792	-4.50021	21.4759	4.81995	2.6966	3.41307	3.38514	1.51458	0.909296	0.950835
0.3573	-14.9293	9.84113	8.35174	-0.0349272	-0.0532224	0.0581772	0.0286876	6.41471	-0.909296	0.950835
0.3580	-4.83711	-15.182	-11.785	3.5975	-0.0532224	0.659342	-2.71098	9.7557	-1.81859	0.316945
0.3587	7.94241	-75.0201	-12.3937	3.31808	2.6966	1.59018	-3.32776	-1.51458	-0.909296	0.950835
0.3593	10.6894	-169.03	7.74302	-2.79418	2.39501	-0.853266	-4.84821	-26.5498	-1.49766	1.26778
0.3600	9.49506	-169.327	25.1526	-3.10852	2.39501	-0.252101	-3.9302	-18.9323	-1.49766	0.950835
0.3607	11.3463	-66.168	29.4137	-0.977961	4.52391	2.19134	1.86469	16.7941	-0.26744	1.26778
0.3613	7.04665	-34.7159	15.0721	-2.47983	1.79182	0.0581772	2.46713	31.7617	-1.17674	1.58473
0.3620	3.70248	-137.578	-4.1637	-4.33097	-1.88053	-3.00582	-2.10854	24.0997	-3.31626	1.26778
0.3627	12.8392	-365.556	-11.1762	-3.42286	0.266112	-0.56238	-1.79298	126.958	-3.31626	1.26778
0.3633	15.8848	-360.66	-16.6548	-2.47983	2.39501	1.59018	0.946691	395.217	-2.13952	1.58473
0.3640	0	23.2429	-11.785	-2.47983	0.8693	0.0581772	0.0286876	510.86	-1.81859	1.26778
0.3647	-15.8251	213.389	-1.41225	-2.20041	1.47249	0.0581772	0.0286876	238.948	-2.13952	0.950835
0.3653	-18.8707	44.3098	-5.67334	-1.88607	0.8693	-0.252101	-0.573752	-124.508	-2.40696	1.26778
0.3660	-17.9749	-133.622	-3.84716	-2.47983	-1.88053	-2.69555	-4.84821	-203.266	-2.40696	1.58473
0.3667	-17.0792	-251.122	13.8546	-1.25738	1.79182	0.0581772	-3.0122	-146.469	-1.81859	1.58473
0.3673	-21.9163	-279.458	27.5875	0.558835	5.74802	3.41307	2.46713	-206.295	-1.17674	0.950835
0.3680	-42.1007	-46.3374	40.103	-0.349272	2.39501	0.969621	1.24791	-208.122	-1.17674	1.26778
0.3687	-64.6739	208.79	52.9106	-1.57172	1.17089	-0.252101	-0.272532	-64.9935	-1.17674	1.58473
0.3693	-63.4198	53.4586	50.1592	-1.88607	3.61912	1.2799	0.645471	125.755	-0.909296	1.26778
0.3700	-45.7435	-180.899	34.6001	-2.79418	2.09342	0.368456	-1.79298	349.112	-0.909296	1.58473
0.3707	-29.8587	-52.7168	31.5564	-3.42286	2.09342	0.659342	-3.0122	461.413	-0.909296	1.26778
0.3713	-14.3322	-27.6936	42.2214	-2.47983	4.52391	3.10279	0.0286876	373.523	-0.909296	1.26778
0.3720	0.656891	-269.123	41.0039	-2.47983	2.39501	1.59018	-0.573752	229.504	-1.49766	1.26778
0.3727	10.0922	-366.149	28.4885	-2.47983	0.266112	-0.252101	-2.10854	142.816	-2.72789	0.950835
0.3733	19.8859	-243.457	2.55666	-2.20041	1.79182	0.659342	0.344251	127.581	-3.31626	0.950835
0.3740	21.0802	-155.579	-21.549	-1.88607	0.266112	-0.252101	0.0286876	144.331	-3.63719	1.26778
0.3747	11.3463	-335.637	-23.083	-4.61039	-3.70783	-3.00582	-3.9302	167.228	-4.86741	1.26778
0.3753	13.735	-336.527	-44.4371	-8.27774	-3.40624	-3.00582	-4.24577	104.684	-5.77671	1.58473
0.3760	28.1269	17.7536	-74.0456	-9.5002	-3.70783	-3.29671	-4.84821	-11.8939	-5.45578	1.58473
0.3767	34.8152	196.921	-70.0767	-9.5002	-4.63035	-3.91727	-6.38299	-36.6173	-5.18834	1.26778
0.3773	32.3668	185.003	-37.4246	-7.99833	-0.354816	-0.853266	-2.10854	-84.5494	-3.95811	0.950835
0.3780	22.6329	240.836	3.77411	-6.46153	1.47249	0.659342	0.946691	-202.331	-3.04882	1.26778
0.3787	7.94241	318.032	13.2459	-7.99833	-3.10464	-2.38527	-1.79298	-272.536	-4.54648	1.26778
0.3793	-1.79152	371.787	14.1468	-7.36964	-2.78531	-1.7841	-0.573752	-246.253	-5.18834	1.58473
0.3800	-7.28552	464.214	20.2585	-4.61039	-1.57893	-0.252101	3.08392	-162.64	-5.18834	1.58473
0.3807	-15.8251	500.266	-8.74133	-3.42286	-5.53513	-3.29671	1.56347	-111.366	-5.18834	1.26778
0.3813	-22.5732	345.231	-33.1391	-2.20041	-6.15606	-4.82871	0.0286876	-102.858	-5.18834	1.26778
0.3820	-23.4689	85.2074	-19.1141	-0.0349272	-4.00942	-3.60699	1.24791	-79.0256	-5.18834	0.950835
0.3827	-24.6633	-36.8424	-0.486982	4.54053	-4.31102	-2.38527	0.0286876	-45.4821	-5.18834	0.316945
0.3833	-21.6177	77.8883	6.8421	6.98544	-3.10464	-0.56238	-0.573752	-58.5787	-5.18834	0.63389
0.3840	-17.6763	231.39	14.4634	3.91185	-1.57893	-0.252101	1.24791	-91.855	-5.45578	1.26778
0.3847	-25.6187	223.132	16.2896	2.37505	-4.31102	-3.60699	-0.889316	-100.096	-6.09764	1.26778
0.3853	-29.5601	42.7768	-5.06461	3.91185	-5.23354	-5.42988	-3.9302	-100.408	-4.54648	0.950835
0.3860	-21.6177	-160.475	-28.2693	6.67109	-0.958004	-2.38527	-0.573752	-99.1607	-0.588368	1.26778
0.3867	-16.4223	-210.224	-46.872	8.17296	-0.0532224	-1.47382	0.946691	-101.032	2.78138	1.26778
0.3873	-0.89576	-200.136	-83.2009	7.26486	-0.354816	-2.38527	-0.889316	-85.1285	3.04882	1.58473
0.3880	32.0682	-296.866	-109.133	6.35675	1.47249	-0.56238	0.0286876	-13.7203	2.46045	1.58473
0.3887	43.0562	-419.262	-113.102	3.31808	0.567706	-1.16354	-0.272532	57.376	2.13952	1.58473
0.3893	21.3788	-320.059	-107.307	1.18752	-0.354816	-2.07499	-2.40976	75.061	2.78138	1.26778
0.3900	9.19647	30.5619	-87.1698	2.09563	2.9982	0.659342	-0.889316	107.402	3.69067	0.950835
0.3907	15.8848	277.48	-74.6544	2.09563	4.22231	0.969621	-0.573752	189.501	4.0116	1.26778
0.3913	9.19647	247.858	-51.7662	0.558835	0.8693	-0.56238	-2.10854	217.61	3.04882	1.26778
0.3920	-15.2279	-49.9969	30.339	0.24449	-0.65641	-1.47382	-2.10854	169.054	2.13952	1.26778
0.3927	-36.0096	-499.227	109.376	0.24449	-1.88053	-3.29671	-3.32776	196.228	1.55115	1.26778
0.3933	-40.2495	-653.619	67.2522	-0.977961	-4.31102	-5.13899	-5.46499	251.154	0.909296	1.26778
0.3940	-24.3647	-327.082	-23.083	-0.977961	-3.70783	-3.29671	-2.71098	197.163	0.641856	1.26778
0.3947	-3.34417	239.006	0.121746	0.24449	-2.78531	-2.07499	1.86469	116.578	0.641856	1.26778
0.3953	-1.79152	572.566	56.5873	-0.0349272	-4.93194	-3.91727	0.946691	13.4085	0.641856	0.950835
0.3960	-14.9293	499.029	37.6437	-0.349272	-5.23354	-4.51843	0.0286876	-157.472	0	1.26778
0.3967	-15.2279	389.145	19.3332	-0.663617	-4.63035	-4.82871	0.0286876	-292.359	0	1.26778
0.3973	-0.89576	329.653	21.1837	-1.25738	-5.23354	-6.36071	-2.71098	-335.703	0.909296	1.26778
0.3980	16.482	212.746	14.1468	-0.977961	-3.40624	-4.82871	-2.10854	-345.771	2.13952	1.26778
0.3987	29.0226	98.3124	14.7556	0.24449	0.266112	-1.7841	1.56347	-324.388	3.04882	1.26778
0.3993	23.5286	-2.37374	38.569	-0.0349272	1.17089	-1.16354	1.86469	-236.81	2.78138	1.26778
0.4000	11.9435	-142.128	74.2648	-1.57172	2.6966	-0.56238	1.56347	-114.44	2.13952	1.58473
0.4007	12.8392	-352.401	63.8921	-1.88607	4.84324	1.2799	2.7827	-14.9676	0.909296	1.58473
0.4013	8.5993	-530.926	-4.77243	-3.70228	2.39501	-1.16354	-0.272532	7.92929	-1.17674	1.58473
0.4020	-7.28552	-527.91	-53.2759	-4.92473	-0.0532224	-3.29671	-3.9302	-36.6173	-1.49766	1.58473
0.4027	-12.7795	-384.447	-67.934	-2.20041	2.6966	-1.16354	-1.49176	-47.3085	0	1.26778
0.4033	2.44841	-220.906	-93.8658	-1.25738	3.61912	-0.56238	-1.19054	-35.6818	0	0.950835
0.4040	17.7361	-17.9514	-60.6049	-2.20041	2.09342	-1.47382	-3.62898	-28.688	-0.909296	1.26778
0.4047	0.955478	365.952	44.3641	-2.20041	1.17089	-1.47382	-0.272532	101.923	-0.26744	1.26778
0.4053	-28.9629	558.818	95.3268	-2.47983	-2.78531	-4.82871	-0.573752	263.359	-0.909296	1.26778
0.4060	-34.4569	203.301	78.8424	-1.25738	-5.53513	-6.96188	-4.54699	254.806	-1.49766	1.26778
0.4067	-25.0216	11.028	33.6992	0.87318	-2.78531	-4.20815	-3.0122	140.366	-0.588368	1.58473
0.4073	-11.5852	282.327	-54.5177	2.09563	1.17089	-1.7841	0.0286876	37.5528	1.23022	1.58473
0.4080	1.85124	425.79	-71.9029	2.09563	2.6966	-1.7841	-1.19054	13.1412	2.78138	1.26778
0.4087	6.44948	401.36	23.6186	0.24449	2.09342	-2.69555	-4.84821	14.9676	4.0116	1.26778
0.4093	9.79365	463.621	66.9601	-1.57172	2.39501	-3.00582	-6.38299	-69.5817	4.59997	1.26778
0.4100	19.5873	521.629	32.4574	-1.88607	4.22231	-1.7841	-6.38299	-120.231	4.59997	1.26778
0.4107	23.8272	426.086	13.2459	-0.663617	6.97214	-0.252101	-4.24577	-96.4433	5.50927	1.26778
0.4113	14.6905	221.945	24.5439	0.24449	8.19625	0.659342	0.344251	-77.1992	5.83019	1.58473
0.4120	2.44841	-52.4201	9.88574	-0.349272	6.04962	0.368456	2.7827	-12.8294	5.50927	1.26778
0.4127	5.8523	-258.441	-31.9217	1.18752	4.84324	1.2799	3.08392	3.96465	4.27904	0.63389
0.4133	20.1845	-165.964	-14.8286	1.78129	3.61912	1.88106	3.38514	-95.196	4.0116	0.63389
0.4140	27.8283	-2.07702	28.1963	-4.01663	-0.354816	-1.7841	0.645471	-157.16	3.36975	1.26778
0.4147	36.0096	26.3089	35.8175	-7.99833	-1.2596	-3.91727	-2.10854	-155.334	0.909296	1.26778
0.4153	41.8619	-15.5282	33.6992	-5.83284	-0.354816	-3.29671	-1.49176	-163.263	-0.588368	0.950835
0.4160	35.1138	-68.2945	-32.2382	-4.01663	-2.18212	-4.20815	-0.272532	-115.955	0	1.26778
0.4167	37.5622	29.6717	-128.369	-3.42286	-4.00942	-5.42988	-2.10854	-52.164	-0.26744	1.26778
0.4173	52.193	167.596	-157.344	-4.01663	-4.00942	-5.13899	-4.84821	-52.164	-0.26744	1.26778
0.4180	57.9856	135.55	-152.474	-4.92473	-4.31102	-5.74016	-7.60222	-34.7909	-0.588368	0.950835
0.4187	50.7	31.2048	-92.0396	-5.23908	-3.70783	-6.6516	-8.50588	1.20276	-0.588368	0.950835
0.4193	40.3092	-79.273	16.8983	-3.42286	0.266112	-3.29671	-4.24577	9.44387	0.909296	0.950835
0.4200	44.2506	-187.328	27.8797	-2.20041	3.92072	-0.252101	0.645471	-14.6558	2.13952	1.26778
0.4207	45.5046	-268.777	-54.8098	-2.79418	4.52391	0.368456	1.86469	-64.3698	2.78138	1.26778
0.4213	3.40389	-311.85	-81.3747	-3.10852	4.22231	0.368456	2.7827	-84.8167	5.18834	1.26778
0.4220	-52.1333	-312.147	-23.3751	-4.01663	3.31753	-0.252101	2.16591	-113.505	8.55808	1.26778
0.4227	-63.1213	-310.317	25.4448	-5.83284	3.31753	-0.252101	0.0286876	-170.613	10.1092	1.26778
0.4233	-36.0096	-197.367	33.9914	-7.05529	6.04962	1.88106	0.344251	-152.884	10.1092	1.26778
0.4240	-8.53958	111.467	42.2214	-6.46153	7.89466	2.50162	2.46713	-99.4725	9.78831	1.26778
0.4247	4.59824	326.884	43.1466	-6.46153	5.74802	0.969621	1.24791	-59.2024	8.87901	1.26778
0.4253	11.6449	177.041	6.8421	-8.27774	2.6966	-0.56238	-2.40976	114.752	6.73949	0.950835
0.4260	16.1834	-97.62	-32.847	-8.59209	2.9982	0.368456	-2.71098	299.977	5.83019	1.26778
0.4267	8.241	-151.919	0.413935	-7.36964	4.84324	2.79251	-1.49176	275.565	5.50927	1.26778
0.4273	1.25406	-138.171	30.339	-5.83284	7.27373	6.16679	1.24791	242.333	5.50927	1.26778
0.4280	1.85124	-142.771	-27.0519	-3.70228	9.42037	7.6794	3.38514	315.88	6.41856	1.26778
0.4287	2.44841	-62.2118	-62.7477	-3.70228	8.79944	5.23595	0.344251	301.803	4.9209	1.58473
0.4293	15.8848	-96.3837	-64.2817	-3.70228	8.19625	4.32451	-2.40976	159.922	2.13952	1.26778
0.4300	35.711	-260.271	-92.9649	-3.70228	8.79944	4.32451	-2.10854	71.72	0.320928	1.26778
0.4307	32.6654	-270.606	-91.7474	-4.92473	8.49785	2.79251	-2.40976	-49.4467	-2.40696	1.26778
0.4313	17.7361	-152.216	-29.779	-5.55342	7.27373	1.88106	-1.19054	-290.533	-6.09764	1.26778
0.4320	12.8392	-201.076	71.8299	-5.23908	6.67054	1.88106	1.56347	-295.388	-8.5046	1.58473
0.4327	15.2876	-196.476	188.706	-4.01663	5.74802	1.59018	3.08392	-17.685	-8.5046	1.26778
0.4333	26.8728	126.995	227.177	-1.57172	4.22231	0.969621	3.7007	176.404	-7.00693	0.950835
0.4340	55.8955	279.607	143.855	-2.79418	2.9982	0.0581772	3.38514	218.189	-6.09764	1.26778
0.4347	80.6184	182.234	43.4632	-6.46153	2.09342	-2.07499	0.344251	166.916	-5.18834	1.26778
0.4353	76.916	199.938	-3.23843	-7.36964	1.17089	-3.29671	-1.49176	-3.34099	-3.31626	1.26778
0.4360	71.422	162.403	-16.9713	-5.55342	3.92072	-1.16354	2.46713	-175.469	-2.13952	1.58473
0.4367	92.5022	-13.3523	-31.6295	-3.70228	6.36895	0.368456	5.83793	-296.012	-1.49766	1.58473
0.4373	111.731	-50.5903	-15.1451	-4.61039	5.74802	-0.56238	3.38514	-341.494	-1.49766	1.26778
0.4380	105.939	122.149	14.4634	-4.33097	6.04962	-0.56238	-0.573752	-245.986	-0.588368	1.26778
0.4387	65.6294	253.644	8.05956	-3.10852	6.36895	-0.853266	-3.62898	-67.1317	1.23022	1.26778
0.4393	-11.8838	193.559	52.9106	-2.47983	5.44643	-2.38527	-3.9302	32.029	1.87208	1.26778
0.4400	-64.9725	118.143	93.2084	-2.20041	7.27373	-3.00582	-0.889316	-50.0258	2.13952	1.26778
0.4407	-64.3753	84.2677	46.799	-0.663617	10.0236	-2.38527	1.24791	-76.5756	3.04882	1.26778
0.4413	-55.1788	32.0949	-0.486982	0.24449	10.0236	-4.51843	0.946691	74.4819	3.69067	1.58473
0.4420	-50.9389	94.3561	-33.1391	0.24449	7.57533	-7.58243	-0.889316	97.9579	3.36975	1.26778
0.4427	-38.3983	159.337	-83.4931	3.31808	6.97214	-8.49388	-1.49176	-38.7555	2.78138	0.950835
0.4433	-22.8717	22.9461	-126.835	5.44864	6.97214	-8.1836	-2.10854	-82.9903	3.04882	1.26778
0.4440	-18.2735	-179.712	-142.394	2.37505	7.89466	-8.1836	-2.40976	1.82641	4.27904	1.58473
0.4447	-17.6763	-326.191	-117.071	2.37505	11.8509	-6.36071	0.344251	58.5787	6.41856	1.26778
0.4453	-11.8838	-396.068	-86.5611	4.22619	13.6782	-6.05043	1.24791	49.7585	7.96972	1.58473
0.4460	-3.94135	-400.964	-131.12	3.00374	11.2477	-6.96188	-1.79298	188.298	8.23716	1.26778
0.4467	-2.09011	-396.068	-147.896	3.00374	11.5493	-5.74016	-1.79298	452.281	9.14645	1.26778
0.4473	-10.9283	-292.91	-56.636	3.91185	12.7734	-3.91727	0.645471	442.214	11.286	1.58473
0.4480	-23.7675	-186.685	1.02266	3.91185	12.7734	-4.20815	0.645471	158.408	12.5162	1.58473
0.4487	-32.6057	-303.888	-23.6917	5.44864	13.3766	-4.20815	1.24791	60.717	13.4255	1.26778
0.4493	-40.8467	-451.901	-10.251	7.5792	13.9975	-3.29671	4.30314	116.89	13.4255	0.950835
0.4500	-54.2831	-455.857	77.625	6.98544	11.8509	-4.51843	4.30314	53.4113	11.9278	1.26778
0.4507	-54.8803	-416.196	105.091	5.44864	7.27373	-6.36071	1.86469	7.61746	9.78831	1.58473
0.4513	-36.6067	-270.31	56.5873	4.81995	3.61912	-7.58243	1.56347	48.823	8.23716	1.26778
0.4520	-24.6633	32.3917	-6.59861	3.91185	0.266112	-9.7156	0.645471	35.4145	6.41856	1.26778
0.4527	-20.1248	219.472	-111.884	3.5975	-0.65641	-10.0065	-0.573752	-34.7909	4.59997	1.26778
0.4533	-12.4809	202.411	-211.375	5.44864	2.9982	-7.58243	2.46713	-12.8294	5.18834	1.26778
0.4540	-0.597174	163.936	-194.282	5.44864	4.22231	-6.96188	3.38514	145.89	6.09764	1.26778
0.4547	21.3788	129.764	-92.0396	4.22619	2.39501	-8.1836	0.645471	233.157	6.09764	1.26778
0.4553	46.4004	96.7793	4.38284	2.68939	2.39501	-7.58243	0.645471	148.028	5.50927	1.58473
0.4560	54.6414	116.313	67.861	1.46694	1.47249	-6.6516	0.946691	2.13824	5.18834	1.58473
0.4567	51.2972	129.468	37.9603	1.46694	2.39501	-5.13899	0.645471	-67.7553	5.50927	1.26778
0.4573	46.4004	186.536	24.8361	4.22619	8.19625	0.0581772	4.30314	57.9996	6.73949	1.26778
0.4580	25.0813	400.47	99.9044	5.1343	9.72196	1.59018	5.83793	188.298	7.32786	1.58473
0.4587	-6.98693	535.031	99.9044	3.31808	4.84324	-2.07499	0.344251	16.4822	6.41856	1.58473
0.4593	-35.6513	421.19	80.3764	3.91185	5.74802	-0.56238	0.0286876	-226.742	6.73949	1.26778
0.4600	-50.3417	292.712	124.935	4.22619	8.19625	2.50162	2.7827	-245.363	7.06042	1.58473
0.4607	-22.8717	231.984	107.233	1.78129	5.44643	0.659342	0.946691	-227.678	5.83019	1.26778
0.4613	26.2756	139.507	-5.98988	1.46694	8.49785	3.10279	5.22114	-207.81	6.73949	0.950835
0.4620	44.6089	39.7107	-55.7351	1.46694	12.1525	5.85651	11.6328	-75.6846	7.96972	1.26778
0.4627	43.6534	-127.786	2.55666	-0.349272	8.79944	2.79251	7.35837	89.0931	7.32786	1.58473
0.4633	48.2516	-315.51	30.6312	-1.57172	9.72196	2.79251	1.56347	339.044	7.06042	1.58473
0.4640	31.1725	-475.688	4.09065	-1.25738	12.4718	3.72334	0.946691	586.545	7.32786	1.58473
0.4647	10.988	-545.911	-20.9402	-1.88607	6.97214	-0.252101	0.0286876	501.104	6.41856	1.26778
0.4653	13.1378	-192.52	8.35174	-0.977961	3.31753	-1.47382	2.46713	213.334	4.9209	1.26778
0.4660	-12.1823	165.173	84.954	0.558835	3.61912	0.368456	5.52236	-3.65282	4.59997	1.26778
0.4667	-64.3753	157.211	136.842	-0.0349272	0.8693	-1.7841	1.24791	-262.468	3.69067	0.950835
0.4673	-81.4545	258.243	187.488	0.87318	0.567706	-1.47382	0.344251	-514.825	4.0116	0.950835
0.4680	-55.1788	393.151	245.488	1.46694	2.09342	-0.56238	1.56347	-325.012	6.09764	1.58473
0.4687	-10.6297	240.242	244.562	-0.349272	0.567706	-2.38527	-1.49176	-12.5176	5.18834	1.26778
0.4693	28.7241	125.511	160.948	-0.663617	2.09342	-0.853266	-0.889316	-239.883	3.04882	0.950835
0.4700	45.206	171.255	42.8544	0.24449	5.74802	2.19134	2.16591	-490.101	3.04882	1.26778
0.4707	40.9064	85.2074	-89.2882	-0.349272	3.61912	0.659342	0.344251	-247.813	3.36975	1.58473
0.4713	23.8272	-49.7002	-177.505	-2.47983	0.8693	-0.56238	-2.10854	97.9579	1.87208	1.58473
0.4720	10.3908	-175.706	-122.257	-4.33097	0.567706	0.0581772	-2.40976	204.157	0	1.58473
0.4727	16.8403	-283.464	-2.02098	-1.57172	-1.2596	0.0581772	-1.19054	41.2056	-1.17674	0.950835
0.4733	26.8728	-136.638	79.4755	3.31808	-0.958004	2.19134	2.16591	-190.125	-0.909296	0.950835
0.4740	10.988	98.3124	89.2395	0.558835	1.47249	5.23595	4.91993	-265.186	-0.26744	1.26778
0.4747	-14.3322	86.0975	8.05956	-4.92473	2.9982	6.45767	4.60436	-297.259	0.320928	1.26778
0.4753	-12.1823	7.07177	-82.2756	-7.68398	1.79182	5.54623	0.645471	-222.466	0	0.950835
0.4760	12.5406	19.2866	-126.226	-11.037	1.17089	5.23595	-2.71098	-86.3758	-1.49766	0.950835
0.4767	26.5742	-62.2118	-133.847	-12.8532	3.61912	7.98968	-2.10854	-184.913	-1.81859	1.26778
0.4773	-1.19435	-70.7177	-114.928	-12.8532	5.44643	9.2114	-2.10854	-182.507	-2.72789	1.26778
0.4780	-76.2591	-17.358	-24.3004	-11.9451	5.74802	8.29995	-2.71098	40.5819	-3.04882	1.26778
0.4787	-133.05	-75.3168	121.283	-9.81454	6.67054	9.2114	-0.573752	49.7585	-1.49766	1.26778
0.4793	-122.062	-36.5457	182.618	-7.99833	5.14483	8.90112	0.645471	-118.405	-0.909296	1.26778
0.4800	-82.3502	66.9098	152.085	-7.99833	1.47249	5.54623	-3.0122	-144.643	-1.81859	1.26778
0.4807	-42.1007	121.506	91.0657	-4.33097	2.9982	5.85651	-1.79298	25.347	-1.17674	1.26778
0.4813	-4.53852	158.447	39.7864	0.24449	6.36895	8.90112	3.38514	139.475	0	1.58473
0.4820	5.19541	141.683	22.0846	-0.349272	4.52391	7.07823	2.16591	56.1732	-0.588368	1.58473
0.4827	-7.88269	22.6494	-27.0519	-3.42286	2.6966	6.45767	-0.573752	-8.24112	-2.40696	1.26778
0.4833	-21.9163	-148.26	-90.8222	-5.55342	3.61912	9.52168	2.16591	89.0931	-4.86741	1.26778
0.4840	-49.0877	-237.967	-70.9777	-9.22078	2.39501	9.52168	2.7827	268.259	-6.36508	1.26778
0.4847	-73.2135	-103.109	-29.779	-11.6308	1.17089	8.59084	1.86469	331.115	-7.00693	1.26778
0.4853	-64.9725	111.764	-52.9837	-11.9451	1.47249	9.52168	3.38514	214.536	-7.5953	1.26778
0.4860	-53.6859	116.659	-58.7788	-11.9451	0.266112	8.59084	5.22114	61.9643	-7.91623	1.58473
0.4867	-59.7771	61.4205	24.8361	-11.037	0.266112	7.6794	6.44037	-109.852	-6.686	1.26778
0.4873	-50.0432	82.7842	108.451	-9.22078	2.9982	9.2114	7.35837	-166.337	-4.27904	1.26778
0.4880	-13.3767	-42.3811	146.606	-7.36964	5.44643	9.52168	8.57759	9.7557	-2.13952	1.26778
0.4887	28.1269	-247.413	182.911	-5.23908	8.19625	9.52168	10.4136	152.305	0.320928	1.26778
0.4893	51.8944	-188.514	169.494	-2.79418	10.6267	10.4331	12.5508	93.6814	1.23022	1.26778
0.4900	47.3559	175.558	20.8672	-2.20041	7.57533	7.98968	11.3173	-27.7525	-0.588368	1.26778
0.4907	36.965	306.46	-204.654	-3.10852	2.9982	2.19134	6.13915	-50.6495	-2.72789	1.26778
0.4913	31.4711	-114.681	-254.4	-3.10852	2.39501	-0.252101	3.38514	150.167	-3.95811	1.26778
0.4920	28.1269	-354.874	-129.586	-2.79418	2.39501	-0.252101	3.38514	650.335	-5.77671	1.26778
0.4927	39.1149	-403.684	-69.468	-2.79418	0.8693	-1.7841	3.08392	1227.12	-6.36508	1.58473
0.4933	45.206	-891.685	-126.542	-0.663617	2.9982	-1.7841	4.30314	1096.83	-6.09764	1.58473
0.4940	17.4375	-999.097	-233.338	0.87318	3.31753	-2.07499	3.7007	339.979	-6.686	1.26778
0.4947	-33.8597	-200.729	-217.778	0.24449	-1.88053	-5.74016	-1.19054	159.61	-7.32786	1.26778
0.4953	-71.3623	416.937	-13.6112	-0.0349272	-6.15606	-9.7156	-4.84821	172.128	-6.686	1.26778
0.4960	-58.2841	495.37	169.494	2.09563	-4.93194	-9.40532	-2.40976	-336.282	-5.18834	1.26778
0.4967	-21.6177	524.052	139.886	5.1343	-2.18212	-7.87332	3.7007	-559.371	-2.40696	1.26778
0.4973	-6.38976	231.984	17.2148	5.1343	-2.78531	-10.9373	5.22114	-335.079	-1.17674	1.58473
0.4980	-10.6297	-150.386	12.9294	4.81995	-3.70783	-15.2037	1.56347	-65.9289	0	1.58473
0.4987	-34.7555	-105.533	36.4263	8.17296	-0.958004	-17.6471	-0.573752	82.4112	2.78138	1.26778
0.4993	-63.1213	-105.236	-6.8908	11.5609	0.8693	-20.4008	-2.10854	-46.6848	6.09764	1.26778
0.5000	-70.4665	-179.366	-29.779	12.1547	1.47249	-21.002	-2.71098	-248.704	8.55808	1.26778
0.5007	-44.8477	-35.0127	61.7737	12.469	4.84324	-17.3368	0.344251	-355.214	9.14645	1.58473
0.5013	9.19647	-158.645	255.252	12.7834	5.14483	-17.0265	1.86469	-450.143	8.87901	1.58473
0.5020	52.193	-404.624	216.804	13.9709	-2.48371	-22.2237	-0.272532	-427.246	7.96972	1.58473
0.5027	54.0442	-97.9167	-14.8286	18.2669	-7.36244	-23.7557	-0.272532	-252.356	7.32786	1.26778
0.5033	49.446	237.473	-78.0145	20.9912	-5.53513	-20.6917	3.7007	-235.295	8.87901	1.26778
0.5040	59.8368	332.076	-164.673	16.7301	-6.15606	-20.4008	4.30314	-89.7168	10.6976	1.58473
0.5047	45.206	640.019	-181.474	14.9139	-4.31102	-17.3368	6.44037	506.895	11.9278	1.58473
0.5053	29.9184	805.093	84.3453	16.1364	-0.958004	-13.3808	9.4956	619.197	11.9278	1.26778
0.5060	40.0106	570.143	264.699	13.3771	-2.48371	-13.9819	4.00192	10.0675	8.87901	1.26778
0.5067	10.0922	297.608	257.687	10.0241	-2.48371	-11.8488	-0.889316	-438.828	6.09764	1.26778
0.5073	-43.5937	124.275	197.569	9.116	-1.57893	-8.1836	1.56347	-657.329	5.18834	1.58473
0.5080	-60.0757	-58.2061	30.6312	7.5792	-4.63035	-8.1836	3.38514	-667.397	4.59997	1.58473
0.5087	-59.4785	-192.52	-175.362	4.54053	-3.70783	-5.42988	3.38514	-290.845	3.69067	1.58473
0.5093	-53.3873	-113.445	-282.182	0.558835	0.266112	0.368456	3.7007	10.3794	0.320928	1.58473
0.5100	-39.9509	4.00569	-296.816	-4.01663	-0.958004	3.41307	1.86469	-86.9549	-3.95811	1.58473
0.5107	-21.3191	-100.34	-260.511	-6.77587	-2.18212	5.23595	0.344251	-257.88	-7.00693	1.58473
0.5113	1.85124	-150.386	-226.325	-8.27774	-2.18212	7.07823	0.0286876	-245.674	-8.23716	1.26778
0.5120	22.6329	-1.48359	-262.63	-9.81454	-3.70783	6.76795	-1.19054	-120.855	-9.14645	1.26778
0.5127	46.9976	-0.840699	-364.871	-10.7226	-2.18212	7.6794	-1.19054	10.3794	-9.46738	1.58473
0.5133	68.0778	-194.35	-323.064	-10.4432	0.266112	8.90112	0.645471	30.8262	-9.73482	1.58473
0.5140	69.929	-292.91	2.55666	-11.037	-0.65641	7.98968	1.24791	-100.72	-10.965	1.26778
0.5147	52.8499	-122	332.146	-13.4819	-4.31102	4.32451	-2.10854	-190.125	-12.5162	0.950835
0.5153	32.6654	-50.5903	373.345	-13.7962	-7.06084	0.969621	-3.9302	-47.6203	-12.7836	1.26778
0.5160	24.4244	-28.9299	181.084	-12.2594	-5.53513	0.969621	-2.10854	229.504	-11.5534	1.90167
0.5167	29.6198	235.05	-7.49953	-10.4432	-2.78531	2.79251	-0.272532	407.423	-10.6441	1.26778
0.5173	19.8859	261.606	-96.6173	-8.90643	-2.48371	2.79251	1.24791	341.182	-10.965	1.26778
0.5180	-27.4103	171.898	-128.977	-7.99833	-3.10464	1.88106	3.38514	92.1669	-11.5534	1.58473
0.5187	-86.6499	169.426	-15.7539	-7.05529	-7.06084	-1.47382	2.7827	-40.5819	-12.7836	1.58473
0.5193	-117.165	58.6511	179.258	-7.68398	-11.9573	-6.36071	-1.19054	22.5851	-14.9232	1.58473
0.5200	-98.8322	65.9702	233.581	-6.46153	-9.50907	-6.05043	-1.19054	-41.2056	-15.565	1.58473
0.5207	-35.3527	194.152	178.942	-3.42286	-4.00942	-2.38527	3.08392	-158.987	-13.4255	1.58473
0.5213	38.1594	280.497	24.2274	-0.349272	-2.48371	-1.47382	4.91993	-63.167	-10.3767	1.58473
0.5220	82.41	233.22	-170.785	2.09563	-1.2596	-1.7841	4.91993	12.5176	-7.00693	1.26778
0.5227	102.594	61.7172	-201.002	4.81995	1.47249	-1.47382	6.13915	-61.6525	-3.04882	0.950835
0.5233	111.433	-108.302	-207.406	4.22619	0.567706	-4.20815	3.7007	101.611	-1.17674	1.26778
0.5240	107.432	-156.815	-244.027	3.5975	0.8693	-5.74016	2.7827	591.757	0	1.58473
0.5247	102.594	-1.13742	-210.766	6.67109	5.74802	-3.00582	8.57759	831.016	3.36975	1.26778
0.5253	79.9615	74.2288	-205.872	9.116	3.31753	-5.74016	8.87881	743.126	5.83019	1.58473
0.5260	0.358304	39.7107	-105.164	9.70976	-4.00942	-11.8488	4.91993	394.905	5.18834	1.26778
0.5267	-86.3513	175.212	129.196	11.5609	-4.93194	-11.8488	7.05715	-234.36	5.18834	0.950835
0.5273	-108.029	121.209	275.997	13.0628	-4.63035	-11.8488	7.96081	-423.282	7.06042	1.26778
0.5280	-93.9951	-226.692	293.382	13.6915	-6.15606	-14.2922	4.91993	24.4115	9.46738	1.26778
0.5287	-83.6043	-265.117	297.059	14.9139	-4.93194	-13.6717	3.7007	409.873	11.9278	1.26778
0.5293	-69.5707	-0.247265	287.587	14.5996	-5.83673	-12.7602	4.00192	185.225	13.1581	1.26778
0.5300	-33.8597	78.7785	236.332	12.7834	-9.81067	-12.7602	4.30314	-316.459	13.1581	1.26778
0.5307	10.0922	-28.3365	251.283	12.1547	-7.36244	-9.40532	6.74159	-325.012	13.4255	1.26778
0.5313	40.0106	-109.785	266.233	12.469	-1.88053	-4.51843	10.098	-12.8294	13.7464	1.26778
0.5320	63.181	-51.5299	185.053	10.0241	-1.57893	-2.38527	11.016	-23.7879	13.4255	1.26778
0.5327	82.7085	19.8801	57.4883	10.6179	-1.2596	-0.252101	11.934	-175.781	13.1581	1.26778
0.5333	84.5598	-51.2332	-120.431	13.9709	-1.88053	-0.252101	9.19438	-113.505	11.0185	1.26778
0.5340	43.952	-30.463	-175.362	10.3384	-7.06084	-4.20815	-1.19054	-54.035	6.73949	1.26778
0.5347	-6.68834	108.104	-4.77243	6.35675	-10.7332	-6.05043	-6.68421	-139.163	3.36975	0.950835
0.5353	-12.1823	113.89	114.563	7.89354	-9.20748	-2.69555	-1.79298	-159.299	2.13952	0.950835
0.5360	-3.64276	7.07177	104.482	7.89354	-7.36244	-0.56238	1.24791	-9.7557	1.87208	1.26778
0.5367	-28.0672	21.7098	91.9666	6.67109	-6.75925	-0.56238	-0.573752	8.24112	0.641856	0.950835
0.5373	-69.8693	62.0139	109.668	6.67109	-5.83673	-1.47382	-2.71098	-177.607	0	0.950835
0.5380	-79.9018	24.1825	131.047	5.44864	-6.45765	-3.60699	-4.24577	-323.497	0.320928	1.58473
0.5387	-47.2962	64.1404	73.9726	2.37505	-9.20748	-5.42988	-9.12266	-358.867	-2.13952	1.58473
0.5393	-3.34417	65.08	-18.5053	0.87318	-9.20748	-4.82871	-12.1779	-275.877	-3.31626	1.26778
0.5400	37.5622	44.0131	-59.704	3.31808	-4.63035	-1.16354	-7.28665	-97.9579	-1.17674	1.58473
0.5407	69.6304	244.198	-54.8098	4.54053	-3.40624	1.59018	-0.889316	133.372	-0.588368	1.58473
0.5413	79.9615	352.846	-73.4369	2.68939	-7.36244	-0.252101	1.86469	320.735	-2.13952	1.26778
0.5420	50.1029	100.785	-115.537	1.46694	-11.3364	-3.00582	3.38514	398.87	-1.81859	1.26778
0.5427	-8.83817	-60.382	-88.3873	3.00374	-11.638	-3.91727	5.83793	375.082	-0.26744	1.26778
0.5433	-47.8933	54.6949	-59.3875	2.09563	-11.9573	-6.6516	4.60436	193.198	-0.909296	0.950835
0.5440	-44.2506	20.2262	-6.28207	-0.0349272	-10.4316	-7.27216	2.46713	-7.03836	-2.40696	1.26778
0.5447	-2.747	-160.771	154.227	-0.0349272	-6.45765	-4.20815	5.83793	-8.55294	-2.72789	1.26778
0.5453	62.2852	-66.7614	252.5	-1.25738	-8.58655	-6.36071	4.30314	93.1023	-1.49766	1.58473
0.5460	131.856	136.144	279.041	-1.57172	-11.0348	-9.09504	1.86469	165.09	-0.588368	1.26778
0.5467	163.327	31.7982	196.351	0.24449	-7.06084	-6.96188	5.22114	193.466	0	1.26778
0.5473	136.753	-202.559	-63.6729	1.18752	-6.45765	-8.49388	4.91993	114.128	1.87208	1.58473
0.5480	108.984	-202.905	-176.58	3.00374	-7.36244	-10.3168	1.86469	95.5079	3.36975	1.26778
0.5487	83.0071	-175.706	-98.1513	5.76299	-4.31102	-8.80416	3.08392	148.296	4.27904	0.950835
0.5493	14.6905	-375.595	-27.9528	5.1343	-7.68177	-12.7602	-0.272532	-158.363	3.04882	1.26778
0.5500	-57.9258	-429.301	24.2274	3.91185	-13.483	-16.4254	-6.68421	-577.101	1.23022	1.26778
0.5507	-94.8909	-123.237	16.2896	4.54053	-12.5605	-13.0705	-5.76621	-827.319	0.320928	1.26778
0.5513	-120.808	123.632	49.867	4.54053	-13.1637	-12.4499	-4.84821	-905.142	0	1.26778
0.5520	-110.417	155.678	104.482	4.22619	-14.3878	-12.4499	-5.76621	-584.406	0.641856	1.58473
0.5527	-25.9173	127.638	-2.6297	5.76299	-8.58655	-6.05043	0.0286876	-250.53	2.78138	1.26778
0.5533	41.8619	-68.2945	-94.7911	5.76299	-5.53513	-2.69555	3.08392	22.2733	3.69067	1.26778
0.5540	30.217	-376.238	-42.0022	3.91185	-7.06084	-3.00582	-0.272532	507.831	3.69067	1.58473
0.5547	-0.298587	-544.378	-23.9839	3.31808	-5.83673	-0.56238	0.946691	590.821	3.69067	1.26778
0.5553	-17.0792	-433.9	-90.8222	1.46694	-6.75925	-0.252101	0.946691	321.359	2.78138	1.58473
0.5560	-29.2615	-137.578	-79.5242	-0.0349272	-6.75925	-0.252101	-0.889316	92.7905	2.46045	1.58473
0.5567	-35.3527	-22.2044	33.3826	0.558835	-1.57893	3.41307	2.16591	-137.337	2.46045	1.26778
0.5573	-29.2615	-66.7614	103.581	-0.349272	-0.354816	4.01423	0.645471	68.6463	0.320928	1.26778
0.5580	-18.5721	-87.5316	44.0719	-3.70228	-6.15606	0.969621	-6.06743	312.494	-2.40696	1.26778
0.5587	-8.53958	23.8858	-96.9338	-5.23908	-9.50907	0.0581772	-6.06743	167.228	-3.63719	1.26778
0.5593	8.89789	263.436	-222.04	-4.92473	-11.0348	-0.252101	-3.9302	67.1317	-5.45578	1.26778
0.5600	16.1834	257.946	-247.387	-5.23908	-13.1637	-1.47382	-4.84821	-1.20276	-7.32786	1.58473
0.5607	-1.49293	150.831	-212.884	-4.92473	-12.5605	-0.56238	-3.62898	-55.8614	-7.5953	1.58473
0.5613	4.59824	261.606	-258.368	-4.92473	-11.0348	2.19134	-0.272532	-26.2379	-7.00693	1.26778
0.5620	42.1605	407.146	-270.884	-5.83284	-12.5605	1.2799	-0.272532	6.72653	-6.36508	1.26778
0.5627	51.2972	387.018	-154.3	-5.23908	-12.8621	0.969621	-2.10854	72.3436	-6.09764	1.26778
0.5633	44.9075	162.107	-88.3873	-4.92473	-11.3364	2.79251	-3.0122	122.369	-5.45578	1.26778
0.5640	56.4926	-60.9754	-127.76	-7.36964	-10.7332	3.10279	-5.46499	226.742	-5.45578	1.26778
0.5647	54.94	-78.0861	-117.071	-7.05529	-8.28496	3.72334	-6.06743	445.555	-5.45578	1.26778
0.5653	36.3679	3.70897	-49.94	-4.61039	-6.15606	5.23595	-2.71098	336.015	-4.86741	0.950835
0.5660	26.5742	47.3759	-20.3315	-4.61039	-6.15606	5.85651	-0.573752	-198.054	-5.18834	1.26778
0.5667	-12.4809	49.5024	47.7243	-6.46153	-8.58655	3.41307	-2.71098	-510.236	-6.36508	1.58473
0.5673	-97.9365	71.4594	151.184	-7.99833	-9.81067	1.88106	-5.14943	-449.208	-7.32786	1.26778
0.5680	-129.049	83.0809	163.09	-7.68398	-8.58655	2.50162	-4.24577	-570.686	-7.00693	1.26778
0.5687	-70.7651	13.7974	103.581	-7.68398	-8.58655	2.79251	-3.9302	-745.843	-7.00693	1.58473
0.5693	-29.2615	-33.1829	113.637	-6.77587	-7.06084	4.01423	-2.40976	-397.044	-7.00693	1.26778
0.5700	-45.7435	52.2223	156.37	-5.55342	-4.63035	6.45767	1.24791	10.0675	-6.686	1.26778
0.5707	-58.5827	138.616	116.705	-7.05529	-7.36244	5.23595	0.645471	155.958	-7.00693	1.58473
0.5713	-40.2495	96.4826	109.376	-8.27774	-9.81067	2.50162	-2.10854	318.597	-7.91623	1.58473
0.5720	-9.13676	55.2883	129.513	-7.36964	-7.68177	4.01423	-0.573752	257.256	-6.686	1.58473
0.5727	27.8283	82.438	77.3328	-6.14719	-5.23354	6.16679	1.56347	0.935478	-6.09764	1.26778
0.5733	37.5622	116.313	36.7428	-5.23908	-4.31102	6.16679	1.86469	-87.8904	-5.77671	1.26778
0.5740	23.2301	72.3991	-49.3313	-4.61039	-3.40624	6.45767	2.7827	123.617	-4.27904	1.26778
0.5747	28.4255	-76.8498	-202.828	-4.92473	-2.48371	6.45767	3.08392	429.384	-4.27904	1.58473
0.5753	45.206	-165.667	-217.778	-7.05529	-6.15606	3.41307	-0.272532	520.037	-4.86741	1.58473
0.5760	65.6294	-164.728	-110.35	-7.05529	-6.75925	3.10279	0.0286876	533.133	-4.86741	1.26778
0.5767	65.928	-153.749	-20.9402	-5.55342	-2.48371	7.07823	4.00192	504.134	-4.54648	0.950835
0.5773	28.4255	-108.599	48.6495	-4.61039	-2.48371	6.76795	3.7007	266.745	-4.27904	0.950835
0.5780	-8.241	-100.34	89.2395	-5.23908	-4.93194	4.01423	1.24791	-35.1027	-4.54648	1.58473
0.5787	-10.0325	-122	85.8793	-5.83284	-4.31102	4.01423	1.24791	-332.317	-4.54648	1.26778
0.5793	20.7816	-13.9952	41.6126	-6.14719	-5.83673	2.19134	-2.10854	-652.786	-5.45578	0.950835
0.5800	33.9195	123.978	-5.67334	-6.46153	-7.06084	0.969621	-4.24577	-666.194	-5.18834	1.26778
0.5807	2.747	171.255	-20.6237	-4.92473	-2.78531	3.41307	-0.272532	-205.672	-3.95811	1.26778
0.5813	-20.7219	126.402	-51.7662	-4.01663	-2.18212	3.41307	0.0286876	165.713	-4.27904	0.950835
0.5820	-31.4113	-12.4621	-81.0582	-4.92473	-4.63035	0.969621	-1.79298	62.5434	-3.95811	0.950835
0.5827	-54.2831	-91.1912	-101.195	-4.01663	-2.18212	2.79251	0.946691	69.5817	-2.72789	1.26778
0.5833	-76.5577	-102.466	-139.35	-4.01663	-1.57893	2.79251	1.24791	532.822	-2.72789	1.58473
0.5840	-85.3958	-123.237	-98.4435	-5.23908	-4.93194	0.368456	-2.10854	762.637	-3.63719	1.58473
0.5847	-74.4078	-81.3995	25.4448	-4.33097	-2.18212	3.10279	0.344251	219.436	-2.72789	0.950835
0.5853	-51.2375	-13.649	112.736	-3.42286	-0.65641	4.63479	3.38514	-495.002	-1.81859	1.26778
0.5860	-25.3202	29.375	109.376	-4.33097	-4.31102	1.2799	0.645471	-567.612	-2.40696	1.26778
0.5867	7.04665	116.659	52.3019	-5.23908	-4.31102	0.969621	-0.573752	-305.5	-3.04882	1.26778
0.5873	38.458	170.662	0.413935	-4.61039	-1.88053	2.50162	0.344251	-224.604	-3.31626	1.26778
0.5880	48.8488	105.038	-0.194793	-4.92473	-2.78531	0.969621	-1.19054	-101.923	-3.31626	1.26778
0.5887	27.8283	37.2875	-15.7539	-4.01663	-2.18212	0.969621	-1.79298	81.7875	-3.31626	0.950835
0.5893	-2.747	25.0726	-90.2135	-1.88607	1.17089	3.72334	1.56347	-47.3085	-1.49766	1.26778
0.5900	-21.6177	-30.463	-74.3378	-2.20041	-0.0532224	2.50162	2.16591	-253.915	-0.26744	1.58473
0.5907	-28.3657	-255.968	39.1777	-2.79418	-1.57893	0.969621	1.24791	-64.6816	-0.588368	1.26778
0.5913	-12.1823	-442.752	88.3142	-0.977961	1.79182	3.41307	3.7007	388.491	-0.588368	1.26778
0.5920	17.7361	-316.4	76.724	-0.977961	1.79182	2.50162	3.7007	613.406	-0.909296	1.26778
0.5927	30.8739	-55.7829	98.0782	-1.88607	-0.0532224	0.969621	1.24791	346.973	-1.81859	0.950835
0.5933	19.8859	88.8669	118.531	-0.349272	2.9982	4.01423	4.00192	-156.537	-1.81859	0.950835
0.5940	1.85124	1.58249	73.0473	-1.25738	2.9982	4.32451	4.91993	-424.484	-1.49766	1.26778
0.5947	-5.13569	-197.07	15.6808	-3.70228	0.266112	1.88106	2.16591	-191.951	-3.31626	1.58473
0.5953	-4.23993	-171.157	-9.35006	-4.33097	1.17089	3.41307	2.7827	329.912	-5.18834	1.26778
0.5960	-0.597174	59.2446	-32.5304	-3.70228	2.6966	5.23595	4.91993	560.307	-5.18834	0.950835
0.5967	-6.98693	166.36	-16.3626	-2.79418	2.9982	4.63479	5.22114	180.993	-4.27904	1.26778
0.5973	-17.3778	175.855	8.66828	-1.25738	4.84324	5.23595	5.52236	-289.597	-3.31626	1.26778
0.5980	0.656891	189.899	-24.5926	-1.57172	3.92072	4.32451	3.08392	-419.317	-2.72789	1.26778
0.5987	35.711	79.1246	-33.1391	-2.47983	0.266112	0.368456	-1.79298	-280.777	-2.13952	1.26778
0.5993	46.4004	-53.9531	-13.0024	-0.977961	1.47249	0.969621	-1.19054	-45.4821	-1.17674	1.26778
0.6000	32.3668	-47.2275	-38.9342	2.09563	4.52391	3.41307	2.16591	-36.9291	0.641856	0.950835
0.6007	18.0346	-3.31334	-89.8969	2.09563	2.9982	1.59018	1.86469	-75.9965	1.23022	1.26778
0.6013	7.34524	-34.4192	-103.63	0.558835	1.79182	0.659342	0.946691	38.4437	0.641856	1.26778
0.6020	-2.09011	-113.445	-100.586	0.558835	1.79182	0.969621	0.0286876	20.7587	0	0.950835
0.6027	5.19541	-152.809	-82.5922	-0.663617	-0.0532224	-0.56238	-2.40976	-91.855	-0.26744	1.26778
0.6033	28.7241	-142.771	-8.42479	-0.349272	1.79182	0.0581772	-1.19054	17.1059	-0.588368	1.26778
0.6040	36.0096	-121.11	48.6495	0.87318	4.22231	2.19134	1.56347	241.086	-0.588368	0.950835
0.6047	17.4375	-89.9548	18.7245	0.558835	3.31753	0.969621	0.645471	183.398	0.641856	1.26778
0.6053	8.89789	-20.3746	-34.3566	0.24449	3.61912	0.0581772	-0.889316	-77.1992	1.23022	1.58473
0.6060	10.0922	66.6131	-41.6857	1.18752	4.22231	0.0581772	-1.49176	-221.575	0.909296	1.58473
0.6067	0.358304	57.4148	-55.4186	0.558835	2.09342	-1.47382	-4.54699	-158.675	1.23022	1.58473
0.6073	0.656891	-6.97286	-88.6795	0.87318	2.39501	-0.853266	-3.62898	34.479	1.87208	1.58473
0.6080	19.229	8.30809	-74.9466	3.00374	5.44643	0.969621	0.0286876	113.816	3.36975	1.26778
0.6087	28.1269	8.30809	-49.94	3.31808	4.52391	-1.16354	-1.19054	75.9965	4.27904	1.26778
0.6093	-2.747	-17.358	-32.847	2.68939	2.6966	-3.29671	-2.71098	-6.41471	4.27904	1.26778
0.6100	-55.5371	49.7991	-0.803521	3.5975	3.61912	-2.38527	-2.40976	-181.26	4.27904	1.26778
0.6107	-76.2591	103.208	14.1468	3.5975	2.6966	-3.60699	-3.9302	-337.841	4.27904	1.26778
0.6113	-53.6859	89.757	12.3207	3.00374	1.47249	-5.13899	-5.46499	-473.931	4.59997	1.26778
0.6120	-14.0336	58.6511	-4.45589	3.00374	3.31753	-2.69555	-3.62898	-483.108	4.27904	1.26778
0.6127	13.4364	25.7155	-41.077	3.00374	4.52391	-1.47382	-2.10854	-191.639	3.69067	1.26778
0.6133	18.3332	40.6503	-32.847	2.09563	3.61912	-2.07499	-3.32776	202.954	2.13952	1.26778
0.6140	12.5406	69.9264	-26.4431	1.18752	4.84324	-0.853266	-3.32776	374.458	1.23022	1.26778
0.6147	5.8523	40.6503	-77.0893	0.87318	4.22231	-0.56238	-3.32776	301.536	0.320928	0.950835
0.6153	-0.597174	22.9461	-92.0396	1.18752	2.9982	-2.38527	-4.54699	202.954	0.641856	1.26778
0.6160	-13.0781	26.6057	-48.0895	3.00374	5.14483	-2.07499	-3.62898	166.649	3.04882	1.26778
0.6167	-22.8717	-66.168	24.8361	5.1343	7.27373	-1.7841	-2.40976	351.873	4.9209	1.26778
0.6173	-17.6763	-154.985	79.7677	4.81995	6.97214	-3.60699	-6.06743	586.857	3.69067	1.26778
0.6180	-5.79258	-132.682	56.5873	3.5975	6.04962	-5.42988	-10.6431	308.841	2.78138	1.26778
0.6187	1.25406	-92.0813	8.96047	3.5975	4.22231	-7.27216	-11.5611	-291.736	3.36975	1.26778
0.6193	4.29965	-78.3829	26.3701	5.1343	3.92072	-6.6516	-9.42388	-636.303	4.59997	1.26778
0.6200	16.482	-83.8721	56.5873	6.98544	4.84324	-3.29671	-2.71098	-580.754	6.09764	1.58473
0.6207	33.3223	-58.5522	26.3701	7.5792	4.52391	-1.16354	3.38514	-208.433	6.41856	1.58473
0.6213	44.6089	9.54441	19.041	6.67109	3.61912	-1.16354	3.7007	180.993	4.59997	1.26778
0.6220	55.2386	28.7321	84.6619	3.5975	2.9982	-0.853266	3.08392	261.845	1.87208	0.950835
0.6227	76.916	20.523	218.631	1.46694	4.22231	1.2799	4.60436	179.745	-0.26744	1.26778
0.6233	115.971	11.6709	350.165	0.87318	5.44643	2.50162	5.83793	224.604	-0.909296	1.26778
0.6240	133.11	-49.7002	225.643	0.24449	5.74802	3.10279	4.60436	381.452	-1.49766	1.26778
0.6247	88.8594	-76.5531	-45.3624	0.87318	6.36895	3.72334	3.7007	533.445	-1.49766	0.950835
0.6253	17.7361	-90.5977	-164.064	2.37505	7.57533	3.72334	2.7827	665.303	-0.26744	1.26778
0.6260	-23.1703	-240.737	-190.629	1.78129	6.36895	1.88106	0.0286876	821.216	0.909296	1.26778
0.6267	-32.0085	-478.457	-178.406	1.78129	4.52391	0.0581772	-2.71098	783.396	1.55115	1.26778
0.6273	-42.9965	-573.654	-130.803	4.22619	5.14483	0.368456	-0.889316	430.008	2.46045	0.950835
0.6280	-72.6163	-352.105	-75.2631	5.1343	5.74802	0.969621	0.0286876	-101.032	3.36975	1.26778
0.6287	-105.58	93.466	-2.31317	3.91185	4.84324	1.2799	-1.19054	-714.705	2.78138	1.26778
0.6293	-114.12	391.618	49.867	2.68939	5.44643	2.50162	-0.272532	-971.383	1.55115	0.950835
0.6300	-92.7411	376.633	56.5873	1.18752	6.04962	2.79251	-0.272532	-760.499	-0.588368	1.26778
0.6307	-63.7781	286.332	28.1963	0.24449	5.44643	0.969621	-3.32776	-502.931	-0.909296	1.58473
0.6313	-44.2506	249.391	1.02266	1.18752	5.14483	-0.252101	-6.38299	-315.256	0	1.26778
0.6320	-28.6643	212.153	-2.6297	2.68939	4.84324	-2.07499	-9.42388	-163.575	0.641856	0.950835
0.6327	-12.4809	176.448	1.65574	4.54053	4.84324	-3.60699	-11.2599	-57.9996	2.78138	1.26778
0.6333	-11.8838	152.958	3.48192	5.76299	6.04962	-3.29671	-10.6431	-15.8586	4.9209	1.26778
0.6340	-28.3657	119.973	4.69938	5.44864	5.74802	-3.60699	-10.3419	-29.5789	5.50927	1.26778
0.6347	-40.2495	100.785	21.1837	4.54053	3.92072	-5.13899	-10.6431	-24.7233	5.50927	1.26778
0.6353	-37.5025	95.2957	34.9166	4.81995	2.6966	-6.05043	-10.9587	2.76189	6.09764	1.26778
0.6360	-24.0661	69.333	15.6808	6.67109	3.31753	-6.05043	-9.73944	13.4085	7.32786	1.26778
0.6367	-8.83817	44.9032	-8.1326	9.70976	5.74802	-4.20815	-6.06743	14.9676	8.87901	1.26778
0.6373	-1.79152	42.1833	-9.95879	10.6179	6.67054	-2.38527	-0.889316	5.79105	9.14645	1.26778
0.6380	-2.09011	45.2494	-6.8908	8.17296	3.61912	-3.00582	0.645471	-9.7557	7.32786	0.950835
0.6387	-0.89576	39.7107	-5.38115	4.81995	1.79182	-2.07499	2.7827	-15.8586	4.0116	1.26778
0.6393	1.85124	28.1387	-1.09571	1.78129	3.31753	2.50162	9.79682	-11.5821	0.320928	1.26778
0.6400	0.656891	21.1164	-0.194793	-1.57172	5.14483	7.6794	16.5097	0	-3.31626	1.26778
0.6407	-1.79152	21.1164	-0.803521	-3.70228	6.97214	11.3446	17.7289	11.8939	-7.32786	1.26778
0.6413	-2.747	19.8801	0.121746	-5.55342	6.97214	11.3446	14.0713	23.5206	-9.73482	1.26778
0.6420	-3.94135	15.3304	-0.194793	-6.77587	4.22231	8.59084	9.4956	39.9583	-10.3767	1.26778
0.6427	-4.83711	5.53873	0.730473	-5.83284	3.31753	6.45767	6.44037	51.2731	-9.14645	1.26778
0.6433	-5.79258	-12.4621	1.3392	-4.61039	3.61912	5.85651	4.00192	38.4437	-6.686	1.26778
0.6440	-7.58411	-31.0564	4.09065	-1.88607	6.04962	7.38851	5.22114	17.4177	-3.95811	1.58473
0.6447	-7.88269	-42.3811	8.35174	0.558835	7.27373	6.45767	6.13915	3.65282	-2.13952	1.58473
0.6453	-1.49293	-44.5076	4.09065	0.87318	4.22231	1.59018	-0.272532	-10.6912	-2.13952	1.26778
0.6460	7.94241	-38.7216	-1.70444	0.558835	3.31753	0.0581772	-6.38299	-18.9323	-1.81859	1.26778
0.6467	9.79365	-33.1829	2.26447	0.87318	4.84324	0.969621	-8.20466	-17.3732	-1.17674	1.26778
0.6473	2.44841	-30.463	11.4197	1.78129	4.52391	0.969621	-8.82144	-28.9998	-0.909296	0.950835
0.6480	-5.494	-32.8862	14.4634	1.78129	3.92072	0.659342	-9.42388	-48.1994	0.320928	1.26778
0.6487	-9.13676	-35.0127	11.1032	1.78129	4.84324	1.2799	-10.0407	-30.8262	0.320928	1.26778
0.6493	-11.8838	-24.677	10.811	2.09563	6.36895	2.50162	-10.3419	6.41471	0.641856	1.26778
0.6500	-10.6297	-12.4621	3.77411	1.78129	6.97214	3.10279	-9.42388	22.8969	0.320928	1.58473
0.6507	-2.747	-9.69277	-9.95879	1.18752	7.27373	3.41307	-8.50588	33.5881	-1.17674	1.58473
0.6513	1.55265	-7.26958	-9.35006	0.87318	6.97214	2.79251	-8.20466	49.4467	-1.81859	1.26778
0.6520	1.25406	4.64857	-5.67334	-0.977961	4.84324	0.969621	-7.60222	59.5142	-2.40696	0.950835
0.6527	9.19647	22.6494	-5.67334	-0.663617	4.22231	0.969621	-6.38299	62.5434	-2.72789	0.950835
0.6533	14.3919	32.7378	0.730473	-0.977961	3.31753	0.0581772	-6.38299	55.2378	-2.72789	0.950835
0.6540	9.19647	31.2048	4.09065	-2.47983	2.39501	-0.56238	-4.54699	31.7617	-3.04882	1.26778
0.6547	10.3908	29.6717	7.45083	-1.57172	3.31753	0.969621	1.24791	18.9323	-2.40696	0.950835
0.6553	10.6894	31.5015	11.7119	-1.25738	1.47249	0.0581772	6.13915	37.8646	-2.13952	0.950835
0.6560	8.241	36.9908	1.3392	-1.57172	-0.354816	-1.47382	12.852	63.167	-3.04882	1.58473
0.6567	18.9304	44.0131	-18.5053	-1.57172	2.39501	1.59018	19.5649	72.0318	-4.27904	1.58473
0.6573	22.3343	34.2214	-15.4373	-1.57172	4.84324	4.32451	17.7289	63.4789	-4.54648	1.26778
0.6580	3.1053	5.83544	7.45083	-0.977961	4.84324	4.01423	8.87881	49.4467	-3.04882	1.26778
0.6587	-10.0325	-15.5282	15.9974	0.558835	7.27373	5.23595	4.91993	43.6556	-1.49766	1.26778
0.6593	-3.04559	-21.0175	9.5692	1.46694	9.10104	6.45767	7.65959	41.2056	-0.909296	1.26778
0.6600	6.15089	-21.3142	4.38284	-0.0349272	7.57533	5.85651	8.57759	31.7617	-1.49766	1.26778
0.6607	5.494	-22.2044	3.16538	-0.663617	7.57533	6.45767	7.35837	23.7879	-1.81859	1.26778
0.6613	3.40389	-18.5448	8.35174	1.18752	9.72196	7.98968	10.098	24.4115	-1.17674	1.26778
0.6620	3.1053	-9.69277	15.0721	2.68939	9.42037	6.76795	10.4136	28.3762	-0.588368	1.26778
0.6627	-3.94135	-4.84638	17.2148	2.37505	6.67054	3.10279	5.52236	29.6235	0.641856	0.950835
0.6633	-12.1823	-7.56629	17.507	0.24449	3.92072	0.0581772	12.5508	27.1734	0.320928	1.26778
0.6640	-13.0781	-9.69277	18.1157	-0.977961	3.92072	0.0581772	26.5791	25.0352	-1.17674	1.26778
0.6647	-13.3767	-12.4621	18.7245	0.558835	6.97214	1.2799	28.1139	22.8969	-0.588368	1.26778
0.6653	-15.5265	-18.2481	14.1468	0.24449	6.36895	-0.252101	18.9482	16.1704	-0.26744	1.26778
0.6660	-11.5852	-14.8853	8.05956	1.78129	7.57533	0.969621	18.0445	16.1704	0.641856	1.26778
0.6667	-6.68834	-2.67046	5.30811	5.76299	10.6267	4.32451	21.401	25.0352	3.36975	1.26778
0.6673	-8.241	0.34617	2.87319	4.54053	7.57533	3.10279	14.6881	25.6588	2.46045	1.26778
0.6680	-6.98693	-8.5059	7.13429	1.78129	5.44643	1.88106	7.05715	17.685	0	1.26778
0.6687	-1.49293	-13.649	18.1157	1.18752	6.04962	3.41307	3.38514	11.3148	-0.588368	1.26778
0.6693	-2.747	-9.98949	18.4323	-1.25738	2.39501	1.59018	-1.19054	6.72653	-1.49766	1.26778
0.6700	-7.28552	-3.61006	11.4197	-2.20041	0.8693	0.969621	2.7827	5.79105	-1.49766	1.26778
0.6707	-6.68834	0.0494529	10.4945	-0.349272	6.67054	6.45767	14.9893	11.8939	-0.909296	1.26778
0.6713	-10.6297	-9.39605	8.66828	-2.79418	6.04962	7.07823	15.2905	14.6558	-2.72789	1.58473
0.6720	-14.9293	-27.6936	6.52556	-5.83284	2.39501	5.23595	7.05715	13.1412	-4.27904	1.58473
0.6727	-7.28552	-32.8862	8.96047	-4.33097	4.22231	7.38851	-0.889316	17.1059	-3.63719	1.26778
0.6733	-1.49293	-25.8639	8.96047	-3.70228	2.6966	6.45767	-17.9728	16.7941	-2.72789	0.950835
0.6740	-2.38869	-17.6547	4.69938	-3.42286	-1.88053	2.19134	-40.8655	4.90012	-1.17674	1.26778
0.6747	-1.79152	-9.39605	3.77411	-0.349272	-0.958004	1.88106	-51.5373	0.311826	0.909296	0.950835
0.6753	0.656891	-2.37374	7.13429	1.78129	1.79182	3.72334	-44.5232	9.7557	2.46045	1.26778
0.6760	2.14983	0.34617	6.52556	1.46694	0.266112	1.2799	-63.4426	14.344	2.46045	1.26778
0.6767	-0.298587	-1.7803	3.77411	0.558835	-1.88053	-1.16354	-133.326	13.7203	1.87208	0.950835
0.6773	-3.04559	-6.03325	4.38284	0.24449	-1.57893	-0.56238	-185.824	13.1412	1.87208	0.950835
0.6780	-3.04559	-8.5059	5.30811	-0.0349272	-0.958004	-0.252101	-174.837	10.6912	1.23022	1.26778
0.6787	-4.53852	1.28578	6.23337	-0.977961	-1.88053	-1.47382	-147.368	13.1412	0.320928	1.26778
0.6793	-7.28552	21.7098	5.91683	-1.57172	-3.40624	-2.38527	-129.969	18.3086	-0.588368	1.26778
0.6800	-6.09117	20.523	5.91683	-0.977961	-2.18212	-2.07499	-89.6918	19.2441	0.320928	1.26778
0.6807	-6.68834	-10.6324	7.45083	-0.663617	-2.18212	-2.07499	-33.837	13.7203	0.320928	1.26778
0.6813	-9.43534	-21.9076	7.13429	-0.663617	-3.40624	-3.00582	15.5917	4.27647	-0.26744	1.26778
0.6820	-5.494	-16.7151	4.99157	-0.977961	-2.48371	-3.29671	68.6925	-1.51458	-0.588368	1.26778
0.6827	0.656891	-25.2704	4.38284	-1.88607	-1.57893	-3.91727	105.312	-1.51458	-2.40696	1.26778
0.6833	0	-2.67046	6.52556	-2.47983	-2.48371	-3.60699	104.71	0.935478	-3.95811	1.26778
0.6840	-2.747	29.0289	7.45083	-0.977961	-0.0532224	-0.56238	91.5852	9.44387	-1.49766	1.26778
0.6847	-4.83711	-6.32997	5.6003	1.46694	2.39501	1.88106	88.53	27.7525	1.23022	1.26778
0.6853	-6.38976	-53.6564	5.91683	1.18752	0.567706	0.969621	89.448	46.6848	0.909296	1.26778
0.6860	-4.53852	-29.5234	8.05956	-0.663617	0.8693	1.88106	87.612	44.2347	-0.909296	1.26778
0.6867	-0.89576	5.53873	7.13429	-3.42286	3.31753	5.23595	83.6531	13.7203	-3.63719	1.26778
0.6873	0	6.18161	4.99157	-5.83284	2.6966	6.16679	78.1594	-9.13205	-5.77671	1.26778
0.6880	-0.597174	5.24201	6.23337	-4.92473	3.61912	6.76795	77.2414	-5.1674	-5.18834	1.26778
0.6887	-6.09117	6.77505	7.45083	-4.33097	3.92072	6.76795	73.5837	3.07371	-4.86741	0.950835
0.6893	-13.3767	3.70897	10.4945	-4.33097	4.52391	8.29995	61.0616	5.47923	-4.27904	1.26778
0.6900	-15.8251	-1.7803	16.6061	-2.47983	6.04962	9.81256	46.1153	3.96465	-2.40696	1.26778
0.6907	-14.0336	-2.07702	12.6372	-1.25738	2.9982	6.76795	33.6075	1.51458	-0.909296	1.26778
0.6913	-5.79258	8.30809	-3.23843	-1.25738	0.567706	4.63479	13.7701	6.72653	-0.26744	1.26778
0.6920	2.747	15.3304	-11.4684	0.558835	2.6966	5.85651	-17.6716	14.0322	0.909296	0.950835
0.6927	0.955478	9.84113	-9.03352	0.87318	0.8693	3.10279	-49.0988	14.344	1.55115	0.950835
0.6933	-3.34417	4.00569	-3.84716	0.558835	-1.2596	0.0581772	-79.3069	12.2058	1.55115	0.950835
0.6940	0	6.47833	6.8421	4.54053	7.57533	6.45767	-121.119	17.685	3.69067	0.950835
0.6947	-1.79152	4.64857	13.8546	4.54053	8.79944	7.6794	-221.827	17.1059	4.0116	0.950835
0.6953	-10.0325	-2.96717	11.1032	-1.88607	-0.0532224	2.19134	-366.484	6.41471	-1.17674	0.950835
0.6960	-6.68834	-1.13742	10.811	-3.10852	3.92072	6.45767	-447.656	7.61746	-3.95811	1.26778
0.6967	0	3.11553	9.27701	-2.20041	8.19625	8.59084	-445.519	13.1412	-3.95811	1.58473
0.6973	0.955478	1.58249	2.26447	-4.33097	2.9982	3.72334	-427.517	10.3794	-4.86741	1.58473
0.6980	4.00106	4.94529	-1.41225	-3.70228	2.6966	2.19134	-392.418	9.7557	-4.54648	1.26778
0.6987	5.8523	15.3304	-3.55497	-1.88607	6.36895	2.19134	-299.656	15.5468	-3.95811	1.26778
0.6993	1.25406	18.9899	-3.84716	-1.25738	7.89466	-0.56238	-171.781	18.6205	-3.63719	1.26778
0.7000	-5.494	13.2039	2.55666	-1.25738	7.27373	-2.69555	-47.2628	16.1704	-3.31626	1.26778
0.7007	-9.73393	8.90152	8.96047	-1.25738	6.36895	-3.29671	72.9669	14.0322	-3.04882	1.26778
0.7013	-10.9283	7.6652	8.66828	-0.663617	6.97214	-3.29671	173.976	17.1059	-1.17674	0.950835
0.7020	-11.2866	4.35186	6.8421	0.87318	10.3252	-1.47382	238.38	23.2088	0.320928	0.950835
0.7027	-13.0781	-2.67046	8.66828	1.46694	12.1525	-0.56238	264.012	25.347	0.320928	0.950835
0.7033	-14.6308	-5.73654	8.66828	0.87318	8.79944	-3.91727	237.763	21.9615	0	1.26778
0.7040	-13.6753	0.0494529	2.26447	1.18752	6.97214	-8.1836	181.607	20.7587	0.641856	1.26778
0.7047	-17.6763	3.70897	-2.02098	2.09563	6.04962	-10.0065	141.33	20.4469	1.87208	1.26778
0.7053	-25.6187	-1.7803	-0.194793	2.37505	5.14483	-9.40532	116.3	17.685	2.78138	0.950835
0.7060	-25.9173	-4.50021	1.3392	3.00374	7.27373	-6.05043	116.615	18.6205	3.04882	1.26778
0.7067	-21.6177	0.692341	0.121746	2.68939	8.49785	-4.20815	136.137	22.5851	2.78138	1.26778
0.7073	-27.4103	5.53873	2.26447	2.37505	7.27373	-4.20815	128.506	24.0997	2.46045	1.26778
0.7080	-39.3537	6.77505	8.05956	1.46694	6.04962	-3.00582	109.587	24.0997	1.55115	1.26778
0.7087	-46.9976	7.07177	12.9294	-0.349272	6.97214	-0.252101	98.5993	26.2379	-0.909296	1.26778
0.7093	-53.9845	8.01137	12.0285	-1.25738	8.19625	2.19134	43.0601	31.1381	-2.40696	1.58473
0.7100	-63.4198	12.2643	1.65574	-1.88607	9.10104	4.32451	-41.1667	36.3055	-3.31626	1.26778
0.7107	-70.1679	17.4569	-12.0772	-3.42286	9.42037	5.85651	-73.2108	40.5819	-4.27904	1.26778
0.7113	-81.7531	11.6709	-16.9713	-4.92473	5.44643	2.79251	-61.0042	38.1319	-5.18834	1.26778
0.7120	-95.7867	4.94529	-8.74133	-4.33097	3.92072	-0.252101	-20.11	35.4145	-4.54648	1.58473
0.7127	-112.269	14.6875	-5.06461	-0.977961	5.14483	-1.16354	54.0475	41.2056	-2.13952	1.26778
0.7133	-132.393	26.6057	-14.8286	1.18752	2.39501	-4.51843	119.972	48.5112	-1.17674	0.950835
0.7140	-143.083	25.3693	-20.3315	0.87318	2.9982	-7.58243	171.853	54.035	-1.49766	0.950835
0.7147	-138.544	13.7974	-13.319	-0.663617	4.22231	-10.627	217.624	56.1732	-2.13952	1.26778
0.7153	-97.0407	5.24201	-2.92189	-2.20041	1.47249	-14.6025	235.927	55.2378	-2.13952	1.26778
0.7160	-35.3527	7.07177	4.09065	-0.977961	0.8693	-14.2922	239.9	58.8906	-0.909296	1.26778
0.7167	21.976	12.2643	8.35174	1.46694	2.9982	-11.2282	250.887	67.4435	0.320928	1.58473
0.7173	91.2481	12.561	9.27701	-0.663617	-0.958004	-13.6717	244.777	68.9581	-0.909296	1.26778
0.7180	182.198	13.7974	12.0285	-3.42286	-3.10464	-15.8048	206.938	67.7553	-3.04882	0.950835
0.7187	276.491	21.7098	20.575	-0.977961	4.22231	-9.40532	162.687	73.2346	-2.13952	1.26778
0.7193	332.685	27.5453	27.271	-0.977961	3.92072	-7.87332	130.959	72.6555	-1.17674	1.26778
0.7200	356.752	29.9685	35.5254	-3.10852	-1.57893	-11.8488	108.066	64.4143	-1.81859	1.26778
0.7207	392.761	37.5842	49.867	-0.663617	4.52391	-8.1836	94.9416	65.9289	-0.588368	0.950835
0.7213	392.164	43.0735	57.8048	-0.349272	6.97214	-6.6516	90.6672	67.4435	0	1.26778
0.7220	262.159	41.2437	55.9543	-3.42286	0.8693	-10.3168	89.448	61.3406	-1.49766	0.950835
0.7227	118.121	40.3536	55.6621	-3.70228	1.17089	-9.09504	86.3927	56.7523	-2.40696	1.26778
0.7233	62.5838	40.0569	52.9106	-1.88607	6.04962	-4.51843	67.7888	51.5849	-1.81859	1.58473
0.7240	-20.4233	33.9247	41.0039	-1.88607	6.04962	-3.29671	28.7163	41.5174	-1.49766	1.26778
0.7247	-180.944	20.8197	22.0846	-3.70228	2.39501	-4.82871	-7.60222	24.7233	-2.72789	1.26778
0.7253	-321.339	4.94529	1.3392	-4.01663	1.47249	-3.29671	-23.1652	8.24112	-3.31626	1.26778
0.7260	-319.189	-10.6324	-19.7228	-4.61039	-0.0532224	-0.853266	-35.3718	-3.96465	-3.31626	1.58473
0.7267	-197.724	-20.6713	-34.9653	-5.55342	-1.57893	0.659342	-48.4964	-11.5821	-3.95811	1.58473
0.7273	-81.7531	-24.677	-39.2508	-6.46153	-1.57893	1.88106	-52.1541	-17.1059	-4.54648	1.26778
0.7280	-54.8803	-29.2267	-40.176	-7.36964	-3.70783	1.2799	-53.0721	-27.7525	-4.54648	1.26778
0.7287	-120.51	-35.9523	-44.1206	-7.05529	-4.63035	-1.16354	-51.2361	-41.8292	-4.27904	1.26778
0.7293	-187.035	-39.3151	-45.6546	-7.05529	-5.83673	-4.51843	-47.8796	-46.6848	-3.95811	0.950835
0.7300	-197.426	-32.2927	-35.5984	-7.05529	-8.28496	-6.6516	-50.9348	-35.9936	-4.27904	0.950835
0.7307	-175.748	-17.0118	-13.6112	-5.83284	-7.36244	-6.05043	-57.3465	-17.9968	-2.72789	1.26778
0.7313	-146.128	-3.90678	8.05956	-4.61039	-5.23354	-4.82871	-59.1682	-6.10288	-1.17674	1.26778
0.7320	-98.2351	1.58249	23.9108	-4.92473	-6.45765	-6.05043	-56.113	-7.03836	-1.81859	1.26778
0.7327	-36.0096	6.47833	38.8855	-5.23908	-8.58655	-8.1836	-52.7565	-9.13205	-1.49766	0.950835
0.7333	-11.5852	11.9676	48.9417	-4.92473	-8.58655	-8.49388	-43.6052	-6.10288	0	1.26778
0.7340	-39.9509	11.3742	44.6806	-4.61039	-8.88815	-8.49388	-30.1794	-7.92929	0.320928	1.26778
0.7347	-97.9365	3.11553	26.6623	-4.61039	-11.9573	-9.09504	-28.6589	-15.5468	-0.909296	0.950835
0.7353	-121.405	-6.97286	5.30811	-4.61039	-13.1637	-9.09504	-25.6037	-18.6205	-0.588368	1.26778
0.7360	-49.3863	-15.182	-11.785	-4.92473	-11.0348	-8.1836	-10.0407	-17.3732	-0.26744	1.58473
0.7367	68.3764	-22.8472	-23.9839	-4.92473	-11.9573	-9.7156	-4.24577	-21.0705	-1.17674	1.26778
0.7373	211.817	-28.6332	-26.7353	-4.61039	-14.6894	-12.159	-0.272532	-34.1672	-0.909296	1.26778
0.7380	371.741	-28.3365	-19.4062	-3.70228	-11.9573	-10.627	16.8109	-46.373	0.641856	1.58473
0.7387	369.591	-24.677	-13.9277	-4.01663	-10.4316	-9.7156	21.7022	-50.9613	0.641856	1.26778
0.7393	142.545	-21.6109	-12.0772	-5.23908	-15.0087	-10.627	5.83793	-48.823	-0.588368	1.26778
0.7400	-92.1439	-15.182	-7.49953	-4.92473	-15.6119	-8.80416	-6.06743	-39.3792	0.320928	1.26778
0.7407	-165.357	-5.73654	-1.09571	-3.10852	-11.9573	-5.13899	-6.38299	-29.5789	1.55115	0.63389
0.7413	-122.062	-2.37374	0.413935	-3.70228	-13.1637	-4.82871	-7.90344	-26.5498	1.23022	0.63389
0.7420	-56.4329	-6.97286	-3.23843	-4.61039	-16.5344	-6.36071	-10.3419	-28.3762	0.641856	1.26778
0.7427	33.9195	-13.9952	-3.84716	-3.42286	-15.9135	-5.74016	-11.5611	-36.9291	0.909296	1.58473
0.7433	95.5478	-24.9737	-7.20734	-4.33097	-16.836	-6.6516	-13.3971	-55.8614	0.641856	1.26778
0.7440	56.4926	-32.2927	-17.2879	-4.92473	-16.836	-6.05043	-6.98543	-69.2699	0.320928	1.26778
0.7447	23.2301	-32.5895	-25.2013	-5.23908	-15.3103	-4.82871	4.60436	-70.7845	-0.588368	1.58473
0.7453	80.2601	-34.1225	-28.5615	-7.99833	-17.4392	-3.91727	10.098	-73.5464	-2.40696	0.950835
0.7460	138.604	-35.9523	-28.2693	-9.5002	-17.7408	-1.16354	9.4956	-74.17	-3.95811	0.316945
0.7467	123.018	-32.5895	-25.8101	-8.59209	-14.0862	3.10279	6.44037	-60.4052	-3.04882	0.950835
0.7473	83.3654	-31.3531	-28.2693	-8.27774	-13.483	3.41307	-1.19054	-48.823	-2.40696	1.58473
0.7480	84.2612	-34.4192	-32.2382	-10.4432	-18.3617	-1.7841	-13.9996	-52.164	-3.31626	1.26778
0.7487	106.536	-31.0564	-29.1702	-10.1289	-16.836	-1.7841	-15.5343	-53.0995	-3.63719	1.26778
0.7493	96.145	-25.8639	-26.1266	-7.99833	-12.5605	0.969621	-10.9587	-50.0258	-2.40696	1.58473
0.7500	68.9736	-24.677	-27.3441	-9.5002	-16.836	-3.29671	-18.8908	-52.4759	-3.31626	1.58473
0.7507	20.4831	-19.1877	-22.1577	-10.1289	-18.6633	-5.13899	-27.4397	-49.7585	-3.31626	1.58473
0.7513	-36.3082	-5.1431	-7.49953	-6.14719	-11.3364	0.969621	-23.1652	-34.7909	-0.588368	1.26778
0.7520	0.358304	4.35186	0.413935	-5.55342	-10.7332	1.59018	-24.0832	-21.9615	0	1.26778
0.7527	81.5142	1.87921	-5.67334	-8.90643	-18.0601	-4.20815	-32.9334	-19.5114	-1.49766	1.26778
0.7533	123.018	2.17593	-10.251	-7.99833	-15.3103	-1.7841	-29.2614	-15.5468	-1.17674	1.26778
0.7540	177.958	5.83544	-9.64225	-5.55342	-8.58655	3.10279	-20.11	-7.30564	-0.588368	1.26778
0.7547	241.139	0.34617	-15.4373	-7.36964	-11.9573	-0.252101	-23.1652	-6.72653	-2.13952	1.26778
0.7553	255.172	-2.67046	-17.5801	-8.59209	-14.0862	-2.69555	-25.9049	-4.90012	-2.40696	1.26778
0.7560	224	7.07177	-7.49953	-5.55342	-8.58655	1.2799	-16.7536	8.55294	0	1.58473
0.7567	177.659	12.561	-1.09571	-4.61039	-8.88815	0.969621	-13.6983	13.1412	0.320928	1.58473
0.7573	79.0658	6.77505	-4.77243	-6.14719	-13.483	-2.69555	-19.8088	1.51458	-1.17674	1.26778
0.7580	-103.43	1.28578	-8.74133	-6.46153	-12.8621	-3.60699	-22.2472	-9.13205	-1.49766	1.26778
0.7587	-206.562	3.41225	-7.20734	-5.55342	-10.1123	-2.69555	-21.6305	-8.86477	-1.49766	1.58473
0.7593	-162.909	8.30809	-3.23843	-4.61039	-9.81067	-3.29671	-20.7125	-3.65282	-1.81859	1.58473
0.7600	-164.163	11.3742	-1.41225	-4.92473	-10.1123	-4.20815	-18.5896	-2.13824	-1.49766	1.58473
0.7607	-258.158	11.9676	-1.70444	-4.33097	-8.58655	-3.00582	-16.4523	-5.1674	-1.49766	1.58473
0.7613	-300.259	9.54441	-5.38115	-3.70228	-7.98336	-2.38527	-15.5343	-13.7203	-1.17674	1.58473
0.7620	-210.265	6.47833	-10.8597	-4.01663	-8.58655	-3.60699	-16.4523	-23.7879	-1.81859	1.26778
0.7627	-67.7195	2.5221	-15.4373	-3.70228	-8.58655	-3.91727	-20.7125	-30.8262	-3.04882	0.950835
0.7633	-4.83711	-1.7803	-20.9402	-3.10852	-6.75925	-3.29671	-25.9049	-29.3116	-2.72789	0.950835
0.7640	-25.6187	-5.43982	-27.6606	-2.47983	-4.63035	-2.07499	-27.1241	-24.7233	-2.40696	0.950835
0.7647	-58.8813	-10.3357	-31.313	-1.25738	-1.88053	-0.56238	-24.3845	-28.3762	-1.49766	0.950835
0.7653	-80.5587	-12.4621	-29.4868	-0.663617	-1.88053	-0.56238	-23.4665	-35.1027	-1.17674	1.26778
0.7660	-92.4425	-9.39605	-25.2013	-1.25738	-3.40624	-2.38527	-24.0832	-35.4145	-1.81859	1.58473
0.7667	-92.1439	-2.67046	-19.1141	-1.25738	-0.65641	-1.16354	-20.11	-28.0643	-1.81859	1.58473
0.7673	-89.6955	2.81882	-12.0772	-0.663617	0.567706	-0.56238	-20.7125	-23.2088	-1.81859	1.26778
0.7680	-97.6379	8.6048	-2.92189	-0.977961	-1.2596	-2.69555	-27.4397	-21.6496	-2.13952	1.58473
0.7687	-91.2481	11.9676	2.26447	-2.20041	-1.88053	-3.00582	-28.9601	-18.3086	-2.72789	1.58473
0.7693	-31.1127	10.4346	-1.70444	-2.20041	-1.88053	-3.00582	-24.6857	-18.3086	-2.72789	1.58473
0.7700	54.6414	10.1378	-2.31317	-1.57172	-3.10464	-4.20815	-21.946	-16.4822	-2.13952	1.58473
0.7707	95.2492	13.2039	4.69938	-0.663617	-1.57893	-3.00582	-18.274	-5.1674	-1.17674	1.26778
0.7713	84.5598	17.4569	9.88574	0.558835	2.09342	0.0581772	-10.6431	7.61746	-0.588368	1.26778
0.7720	66.2266	19.8801	11.1032	0.24449	0.8693	-1.47382	-6.68421	12.2058	-0.909296	1.26778
0.7727	78.4686	19.2866	13.2459	-0.663617	-1.57893	-3.91727	-4.84821	11.5821	-2.13952	0.316945
0.7733	120.569	19.8801	17.8235	0.24449	0.567706	-1.47382	0.344251	11.5821	-1.17674	0
0.7740	141.65	23.2429	23.9108	1.78129	4.22231	0.969621	6.13915	12.2058	0.909296	1.26778
0.7747	113.224	24.4792	27.8797	0.87318	3.61912	-0.252101	7.05715	10.6912	0.641856	1.58473
0.7753	20.1845	20.2262	26.6623	0.558835	3.31753	-0.252101	8.27638	7.30564	0.320928	1.58473
0.7760	-82.6488	15.6271	22.4012	2.37505	6.67054	2.50162	13.1533	5.21195	0.909296	1.26778
0.7767	-84.2015	11.028	15.9974	2.37505	7.27373	2.50162	13.7701	2.45006	1.23022	0.950835
0.7773	-19.8262	6.47833	8.35174	1.46694	5.14483	0.659342	9.19438	0.935478	0.909296	1.26778
0.7780	-10.9283	6.77505	2.55666	3.00374	7.89466	2.79251	10.098	5.79105	0.909296	1.58473
0.7787	-68.0181	4.35186	-7.81606	2.68939	6.97214	2.19134	7.65959	4.5883	0.320928	1.26778
0.7793	-100.982	-0.543982	-17.2879	1.18752	3.61912	-0.56238	0.0286876	0.311826	-0.588368	0.950835
0.7800	-118.658	1.28578	-17.5801	2.37505	5.44643	1.2799	0.344251	5.21195	0.909296	1.26778
0.7807	-158.072	-0.840699	-19.1141	3.5975	8.19625	4.94507	3.7007	4.90012	1.23022	1.26778
0.7813	-159.565	-7.86301	-22.4742	2.09563	6.67054	4.32451	1.24791	-3.34099	0.320928	1.26778
0.7820	-120.211	-5.73654	-15.7539	1.46694	5.74802	3.41307	-0.889316	-1.82641	0.641856	1.26778
0.7827	-93.9951	5.83544	-0.194793	3.31808	8.49785	4.94507	2.7827	3.65282	1.55115	1.26778
0.7833	-85.0972	8.90152	8.96047	3.00374	6.67054	3.41307	3.38514	-3.65282	1.55115	1.26778
0.7840	-64.6739	2.17593	7.74302	2.37505	3.31753	0.659342	1.56347	-15.2349	1.55115	1.26778
0.7847	-43.8923	-0.247265	6.23337	3.5975	4.52391	0.659342	3.38514	-17.3732	2.13952	1.26778
0.7853	-36.0096	3.41225	10.811	3.91185	4.84324	0.0581772	4.00192	-15.8586	1.87208	0.950835
0.7860	-21.9163	6.47833	17.8235	4.22619	4.52391	0.0581772	3.08392	-14.344	1.87208	1.26778
0.7867	-2.09011	8.01137	22.0846	6.35675	8.79944	4.01423	5.83793	-10.6912	3.69067	1.58473
0.7873	31.1725	6.47833	20.8672	5.76299	9.72196	4.63479	5.52236	-10.6912	3.36975	1.26778
0.7880	77.8714	3.11553	15.6808	4.22619	6.04962	2.19134	1.24791	-11.8939	2.13952	1.26778
0.7887	101.938	1.87921	10.811	4.81995	6.67054	2.79251	0.344251	-7.03836	2.13952	1.58473
0.7893	70.5262	1.58249	7.74302	3.5975	6.04962	1.59018	-2.40976	-3.65282	1.23022	1.26778
0.7900	-9.73393	1.28578	6.23337	2.68939	3.61912	0.0581772	-6.38299	-1.20276	0	1.26778
0.7907	-21.3191	2.81882	6.52556	4.54053	5.44643	2.50162	-3.62898	5.47923	1.23022	1.58473
0.7913	68.9736	3.11553	7.13429	6.67109	8.79944	5.85651	1.56347	8.24112	2.78138	1.26778
0.7920	123.914	-2.67046	2.87319	5.44864	6.97214	3.72334	-1.19054	0.935478	1.55115	1.26778
0.7927	100.743	-8.80262	-5.06461	3.5975	2.6966	0.969621	-6.06743	-5.79105	-0.26744	1.58473
0.7933	42.1605	-8.5059	-8.1326	3.5975	4.22231	2.79251	-3.62898	-2.45006	-0.26744	1.58473
0.7940	4.29965	-6.67614	-7.81606	3.5975	4.84324	3.10279	-2.71098	1.51458	-0.909296	1.26778
0.7947	13.4364	-5.43982	-5.98988	2.68939	2.9982	1.2799	-5.76621	3.65282	-1.81859	1.26778
0.7953	-2.747	-3.90678	-2.92189	3.91185	5.14483	3.10279	-3.0122	8.24112	-0.909296	1.58473
0.7960	-42.6979	-4.84638	-4.1637	5.44864	6.04962	5.23595	0.946691	9.44387	-0.588368	1.58473
0.7967	-19.1693	-8.15973	-9.64225	3.00374	-0.0532224	0.969621	-2.71098	5.79105	-2.40696	1.58473
0.7973	15.2876	-6.03325	-12.0772	3.00374	-0.958004	0.659342	-4.24577	9.17659	-3.04882	1.26778
0.7980	-14.0336	0.989058	-9.03352	6.0424	3.61912	5.23595	1.86469	22.5851	-1.49766	1.26778
0.7987	-33.8597	0.692341	-11.1762	4.22619	-0.65641	2.79251	-1.49176	28.0643	-2.13952	1.58473
0.7993	-0.89576	-5.73654	-16.0461	1.46694	-4.93194	-0.252101	-7.90344	21.6496	-3.95811	1.58473
0.8000	38.7566	-3.90678	-9.35006	4.81995	1.17089	5.54623	-2.71098	18.3086	-3.63719	1.26778
0.8007	56.194	0.0494529	-3.55497	6.67109	3.92072	8.29995	1.24791	17.1059	-3.04882	1.26778
0.8013	103.789	-0.543982	-8.42479	3.00374	-2.78531	1.88106	-6.06743	14.0322	-4.86741	1.26778
0.8020	205.129	0.989058	-10.5675	2.37505	-4.00942	0.368456	-9.42388	16.1704	-5.77671	1.26778
0.8027	284.434	4.94529	-5.67334	4.22619	-0.354816	3.72334	-4.84821	22.2733	-4.86741	0.63389
0.8033	317.995	7.6652	2.26447	3.00374	-2.78531	0.969621	-5.14943	22.8969	-4.86741	0.63389
0.8040	336.627	17.7536	20.575	3.5975	-2.18212	0.659342	-3.62898	27.1734	-4.54648	1.26778
0.8047	351.914	36.3973	47.1155	7.5792	6.36895	7.6794	6.74159	41.8292	-1.81859	1.26778
0.8053	325.042	48.5628	63.8921	8.17296	6.67054	7.07823	8.87881	48.5112	-0.909296	0.950835
0.8060	244.781	51.0354	67.2522	6.35675	0.567706	2.19134	4.30314	45.7939	-1.49766	1.26778
0.8067	193.186	47.9693	64.8173	7.26486	1.47249	4.32451	7.05715	41.5174	-0.909296	1.26778
0.8073	159.326	38.5238	57.1961	8.80165	4.22231	6.45767	9.79682	28.9998	-0.26744	1.58473
0.8080	62.2852	21.7098	42.8544	6.67109	-0.0532224	2.50162	3.7007	8.55294	-1.81859	1.58473
0.8087	-79.3047	2.5221	24.2274	5.76299	-0.0532224	2.19134	0.946691	-10.3794	-3.31626	1.26778
0.8093	-215.102	-17.9514	3.48192	7.5792	3.61912	5.85651	6.74159	-26.5498	-2.72789	1.26778
0.8100	-282.583	-37.782	-14.8286	6.67109	-0.354816	3.41307	4.60436	-40.8938	-3.31626	1.26778
0.8107	-300.856	-43.8647	-23.083	4.54053	-4.93194	0.368456	-0.573752	-42.7202	-4.86741	1.26778
0.8113	-337.523	-38.3755	-23.3751	4.22619	-4.63035	1.59018	-0.272532	-35.4145	-4.86741	1.26778
0.8120	-363.738	-32.2927	-22.1577	3.91185	-5.23354	1.59018	-1.49176	-27.4852	-5.18834	1.26778
0.8127	-338.12	-28.0398	-20.9402	3.31808	-6.45765	0.368456	-3.9302	-20.7587	-6.09764	0.950835
0.8133	-255.71	-24.677	-19.7228	5.1343	-3.10464	2.79251	-0.889316	-17.1059	-5.18834	1.26778
0.8140	-130.303	-24.3308	-18.7975	5.76299	-1.2596	4.63479	1.86469	-13.7203	-4.86741	1.26778
0.8147	-2.09011	-25.5672	-20.6237	3.31808	-5.23354	1.2799	-1.19054	-8.24112	-6.36508	1.26778
0.8153	81.2156	-24.3308	-23.083	1.78129	-7.36244	-0.56238	-4.54699	-0.623652	-7.32786	1.26778
0.8160	150.189	-19.7812	-21.2324	1.78129	-5.83673	0.368456	-4.84821	6.41471	-6.686	1.26778
0.8167	226.747	-13.3523	-13.0024	2.09563	-4.93194	0.368456	-4.84821	10.3794	-6.09764	1.26778
0.8173	274.103	-3.61006	1.3392	3.31808	-2.78531	1.2799	-3.9302	13.7203	-5.18834	1.26778
0.8180	325.042	8.90152	15.9974	5.76299	1.17089	4.63479	0.0286876	21.0705	-3.95811	1.26778
0.8187	331.133	13.7974	22.4012	4.81995	-0.0532224	3.41307	-0.573752	24.0997	-4.54648	1.26778
0.8193	148.338	8.90152	20.575	2.37505	-3.70783	0.368456	-4.24577	15.5468	-5.77671	1.26778
0.8200	-71.0637	2.81882	16.8983	1.46694	-4.93194	0.368456	-5.46499	2.76189	-5.77671	1.26778
0.8207	-169.358	5.24201	20.575	2.09563	-2.18212	1.59018	-3.62898	0	-5.45578	1.58473
0.8213	-234.331	13.7974	27.5875	2.68939	-0.65641	2.19134	-2.40976	3.07371	-5.18834	1.58473
0.8220	-212.355	18.0503	30.0225	2.37505	-1.88053	1.88106	-3.32776	1.82641	-5.18834	1.26778
0.8227	-104.625	17.4569	29.7303	2.68939	-0.958004	3.10279	-3.0122	-0.935478	-4.54648	1.26778
0.8233	-36.3082	15.0337	23.9108	3.31808	0.266112	3.41307	-2.10854	-5.47923	-4.54648	1.26778
0.8240	-2.09011	10.1378	14.1468	2.68939	-0.958004	2.19134	-3.9302	-8.86477	-4.54648	1.26778
0.8247	11.9435	0.0494529	3.77411	1.78129	-3.10464	0.0581772	-6.98543	-10.3794	-4.86741	1.58473
0.8253	-5.494	-12.4621	-7.81606	0.87318	-6.15606	-2.07499	-9.12266	-17.1059	-5.45578	1.58473
0.8260	-27.7686	-20.3746	-12.3937	1.46694	-5.53513	-1.47382	-8.82144	-28.3762	-5.18834	1.26778
0.8267	-48.1919	-20.6713	-8.42479	3.00374	-1.57893	1.88106	-3.62898	-31.4499	-4.27904	1.26778
0.8273	-86.0527	-19.7812	-10.5675	2.09563	-2.48371	0.659342	-2.71098	-28.9998	-5.18834	1.58473
0.8280	-132.393	-19.7812	-18.1888	0.558835	-5.53513	-2.69555	-6.98543	-29.3116	-6.36508	1.58473
0.8287	-170.254	-17.0118	-20.9402	0.24449	-5.53513	-2.38527	-7.28665	-26.8616	-6.686	0.950835
0.8293	-187.035	-13.9952	-22.7664	-0.349272	-6.45765	-2.38527	-7.90344	-19.8232	-6.686	1.26778
0.8300	-171.508	-10.9291	-26.7353	-1.25738	-7.36244	-3.60699	-9.42388	-12.2058	-6.686	1.58473
0.8307	-128.153	-4.50021	-25.5179	0.558835	-3.70783	-0.56238	-5.46499	-3.65282	-6.36508	1.26778
0.8313	-76.5577	3.11553	-18.7975	2.09563	-1.57893	1.59018	-1.19054	7.03836	-5.45578	0.950835
0.8320	-40.8467	8.6048	-7.20734	-0.0349272	-4.31102	-0.853266	-3.32776	12.2058	-5.77671	1.26778
0.8327	-17.9749	12.8578	8.05956	-0.349272	-6.45765	-2.69555	-4.84821	13.1412	-6.36508	0.63389
0.8333	7.94241	18.9899	24.2274	0.87318	-6.45765	-2.69555	-4.24577	16.4822	-5.45578	0.316945
0.8340	39.4135	27.1991	45.8981	0.558835	-4.63035	-1.16354	-2.71098	20.7587	-4.27904	1.26778
0.8347	72.9746	31.2048	61.7737	1.18752	-1.2596	0.659342	0.0286876	25.0352	-3.31626	1.26778
0.8353	97.9962	30.8586	59.631	2.68939	0.8693	2.19134	3.08392	28.688	-2.40696	1.26778
0.8360	118.718	24.4792	47.4321	3.00374	-0.0532224	1.59018	4.30314	23.2088	-2.72789	1.58473
0.8367	109.581	11.028	34.6001	3.31808	-0.354816	1.2799	5.52236	8.55294	-3.04882	1.58473
0.8373	28.4255	1.87921	23.6186	3.00374	0.266112	1.2799	5.83793	0	-3.63719	1.26778
0.8380	-72.6163	-3.90678	10.4945	1.18752	-2.48371	-1.16354	1.86469	-2.76189	-3.95811	1.26778
0.8387	-118.658	-10.6324	-3.23843	-0.349272	-4.63035	-3.00582	-0.889316	-4.27647	-4.54648	1.58473
0.8393	-97.0407	-15.5282	-10.8597	-0.977961	-4.00942	-3.00582	-1.79298	-5.47923	-5.77671	1.26778
0.8400	-38.3983	-19.1877	-16.0461	-0.663617	-2.48371	-2.38527	-0.889316	-8.55294	-5.45578	1.26778
0.8407	26.2756	-23.144	-22.7664	-0.0349272	-1.57893	-1.16354	0.344251	-11.5821	-4.86741	1.26778
0.8413	58.941	-27.6936	-28.2693	-0.663617	-1.88053	-0.853266	-0.573752	-17.685	-5.45578	0.950835
0.8420	31.1725	-29.2267	-29.779	-1.25738	-3.40624	-2.38527	-1.79298	-22.8969	-5.45578	1.26778
0.8427	-7.88269	-27.1002	-28.5615	-2.79418	-6.45765	-5.13899	-2.40976	-20.1351	-6.36508	1.26778
0.8433	-12.7795	-23.144	-25.5179	-3.42286	-6.75925	-5.74016	-1.49176	-14.344	-7.32786	0.63389
0.8440	2.14983	-15.5282	-18.5053	-0.663617	-2.48371	-0.853266	4.30314	-8.24112	-5.18834	0.63389
0.8447	6.74806	-10.3357	-15.7539	0.558835	-1.2596	0.969621	8.27638	-5.79105	-3.95811	1.58473
0.8453	0.358304	-12.1654	-17.8966	-1.57172	-4.00942	-2.07499	6.13915	-8.55294	-4.86741	1.58473
0.8460	-8.83817	-11.2258	-15.1451	-1.88607	-4.63035	-3.00582	4.30314	-10.3794	-4.86741	0.950835
0.8467	-35.6513	-6.97286	-9.03352	-1.57172	-4.31102	-3.00582	4.00192	-5.79105	-4.27904	1.26778
0.8473	-56.1343	-0.247265	1.3392	-2.20041	-4.63035	-3.29671	3.7007	2.13824	-4.54648	1.26778
0.8480	-3.34417	9.84113	16.8983	-0.663617	-1.88053	-0.252101	7.05715	10.0675	-3.31626	1.26778
0.8487	84.8584	20.8197	31.2399	1.18752	1.79182	2.19134	11.3173	20.1351	-1.81859	1.26778
0.8493	104.685	26.6057	35.8175	1.18752	1.47249	1.59018	11.3173	28.688	-1.49766	1.26778
0.8500	85.4556	22.9461	28.805	-0.0349272	-0.354816	0.659342	10.4136	29.8908	-2.13952	1.58473
0.8507	77.8714	14.6875	16.6061	-1.57172	-2.48371	-0.56238	8.57759	26.8616	-2.72789	1.58473
0.8513	57.0898	7.07177	7.45083	-2.47983	-5.23354	-2.07499	5.22114	21.9615	-3.31626	1.58473
0.8520	34.5166	0.692341	1.3392	-2.47983	-5.83673	-3.00582	3.38514	14.9676	-3.95811	1.26778
0.8527	7.64382	-2.37374	-1.09571	-1.88607	-3.10464	-1.16354	4.91993	12.2058	-3.63719	0.950835
0.8533	-61.9269	-1.13742	1.02266	-1.57172	-1.57893	0.368456	6.44037	13.1412	-3.04882	1.26778
0.8540	-111.373	3.11553	4.99157	-1.88607	-1.88053	-0.56238	5.83793	10.6912	-2.72789	1.58473
0.8547	-103.132	8.30809	8.66828	-1.57172	-1.2596	-0.56238	5.52236	7.61746	-2.40696	1.26778
0.8553	-92.4425	9.19824	8.35174	-2.79418	-3.40624	-1.7841	3.08392	4.90012	-3.04882	1.26778
0.8560	-81.4545	6.18161	4.09065	-4.61039	-6.15606	-4.20815	0.344251	4.5883	-3.63719	1.26778
0.8567	-58.2841	6.47833	1.02266	-4.01663	-4.31102	-3.00582	1.24791	7.61746	-3.31626	1.26778
0.8573	-23.7675	8.30809	-0.803521	-2.79418	-1.2596	-0.252101	3.7007	9.17659	-3.31626	1.58473
0.8580	5.19541	4.35186	-4.77243	-4.33097	-2.48371	-1.47382	2.16591	2.76189	-3.63719	1.26778
0.8587	3.1053	-2.96717	-11.4684	-5.55342	-4.00942	-3.00582	-1.79298	-7.92929	-3.95811	1.26778
0.8593	-4.53852	-8.15973	-16.9713	-5.55342	-4.63035	-3.60699	-4.24577	-12.5176	-4.54648	1.26778
0.8600	-6.68834	-9.69277	-20.3315	-6.46153	-6.45765	-4.51843	-5.14943	-11.2703	-4.86741	1.26778
0.8607	-15.8251	-8.80262	-21.549	-6.77587	-7.06084	-4.82871	-5.76621	-7.92929	-4.54648	1.58473
0.8613	7.94241	-3.90678	-16.0461	-5.83284	-5.23354	-3.00582	-3.9302	-0.935478	-3.95811	1.26778
0.8620	65.928	2.5221	-8.42479	-4.92473	-3.40624	-1.7841	-0.889316	6.41471	-3.63719	1.26778
0.8627	106.834	5.53873	-5.67334	-5.55342	-3.40624	-3.29671	-0.889316	8.55294	-3.95811	0.950835
