MR32 ASCII
Name	USMC15_fast
Frequency	1500
Date	09-09-2015 09:55:03
"Time,s"	"RT TIB.ANT.,uV"	"RT MED. GASTRO,uV"	"RT LAT. GASTRO,uV"	"RT BICEPS FEM.,uV"	"RT VMO,uV"	"RT VLO,uV"	"RT RECTUS FEM.,uV"	"RT SOLEUS,uV"	"RT SEMITEND.,uV"	"Channel 12,uV"
0.0000	116.458	4.38608	-2.54025	-7.26683	-2.77606	0.460255	-0.556625	-3.28406	26.1453	-8449.48
0.0007	76.7846	5.00013	-1.32232	-19.1603	-1.25004	0.767092	0.66795	-2.36222	6.30858	-10492.9
0.0013	73.4529	7.13468	1.14833	-29.8468	2.11046	1.35008	1.5771	-1.49799	-22.0687	-9558.9
0.0020	41.3653	6.54987	0.52197	-36.2587	4.5456	-0.767092	0.0556625	-2.99598	-25.4393	-9808.09
0.0027	1.74278	5.61418	-0.69596	-29.2433	5.1625	-2.30128	-1.46578	-6.04958	-76.3862	-9870.87
0.0033	5.68965	6.22823	-1.00914	-11.8432	5.47095	-1.99444	-1.46578	-6.33766	-122.163	-9785.23
0.0040	39.2637	6.22823	-1.60071	3.41968	4.5456	-0.460255	-0.556625	-3.28406	-80.053	-9814.53
0.0047	68.2245	6.84228	-0.382778	6.16046	3.63648	2.57743	1.89252	-0.23046	-25.7354	-9814.53
0.0053	73.4529	6.22823	-0.69596	2.81621	2.72736	2.27059	2.18939	0.691381	27.0563	-9813.56
0.0060	70.0698	4.09367	-3.445	0.0502895	1.49355	-0.460255	-0.259758	-0.864226	55.4335	-9784.91
0.0067	68.8396	3.47962	-3.75818	-3.89743	1.80201	-1.07393	-1.16891	-1.78607	0.501043	-9886
0.0073	86.8825	3.80127	-3.445	-3.89743	2.11046	-0.767092	-0.556625	-1.49799	-63.8829	-9772.68
0.0080	70.3774	4.70772	-1.91389	-4.22431	2.72736	0.460255	0.964817	-0.57615	-63.268	-9598.83
0.0087	-62.3811	6.54987	0.208788	12.5724	2.72736	1.04325	1.5771	1.26753	-28.7872	-10549.2
0.0093	-138.961	7.45633	-0.69596	49.4848	0.892885	0.153418	0.964817	2.18937	15.7601	-7944.02
0.0100	-39.4687	5.93582	-3.13182	75.4342	-0.633137	1.04325	0.66795	1.9013	77.115	-1358.93
0.0107	61.5097	3.18722	-4.66293	103.823	-0.941588	1.96376	0.352529	0.34569	145.781	110.106
0.0113	81.3466	1.95911	-4.34975	134.323	0.584434	2.88427	1.28024	-1.49799	140.269	-256.591
0.0120	70.3774	2.86557	-3.13182	138.925	2.72736	3.80478	3.71083	-3.62975	39.5596	-5.47308
0.0127	49.3103	3.18722	-2.81864	145.94	3.01958	1.96376	2.80168	-7.2595	-41.9054	56.6625
0.0133	22.451	3.47962	-3.13182	168.52	3.32803	0.460255	0.66795	-9.39125	-99.5936	-29.2971
0.0140	4.45946	3.80127	-3.75818	111.14	4.5456	0.153418	0.66795	-9.73694	-139.563	0
0.0147	6.30475	3.47962	-3.13182	-49.686	5.76317	1.04325	1.5771	-8.8151	-113.327	-0.321946
0.0153	11.7894	4.38608	-0.69596	-120.795	6.07162	4.11161	4.02625	-7.2595	-63.8829	-0.321946
0.0160	12.4045	5.00013	0.208788	-24.3652	3.94493	3.1911	3.71083	-6.33766	-2.23192	-0.643892
0.0167	13.0196	4.70772	-1.32232	39.1252	1.80201	-0.460255	0.66795	-6.68335	69.1667	-0.965839
0.0173	8.40633	4.09367	-2.81864	-9.10239	0.584434	-2.91495	-1.7812	-7.89326	121.047	-0.965839
0.0180	-0.410065	3.18722	-3.75818	-7.56856	-0.324686	-3.22179	-2.69035	-8.46941	165.299	-0.643892
0.0187	-2.87045	3.47962	-2.54025	42.1677	-0.633137	-1.07393	-0.556625	-6.04958	194.61	-0.321946
0.0193	-8.04752	4.38608	-1.32232	17.4504	-0.0324686	-1.38077	0.964817	-3.28406	166.21	-0.643892
0.0200	-20.247	3.47962	-1.91389	-18.2551	0.892885	-4.75597	-0.556625	-3.91782	89.0034	-0.643892
0.0207	-28.192	2.25152	-3.75818	14.1062	1.80201	-5.33896	-1.7812	-6.33766	16.6711	-0.643892
0.0213	-33.9841	1.66671	-4.97611	54.388	1.80201	-2.91495	-1.46578	-7.2595	-29.0833	-0.321946
0.0220	-34.5992	2.25152	-3.13182	62.9121	2.72736	0.767092	1.28024	-5.41581	-23.9134	0
0.0227	-31.5237	3.47962	-1.00914	97.1089	2.72736	4.11161	3.71083	-3.28406	-22.9796	-0.321946
0.0233	-36.7521	4.09367	-1.32232	166.081	0.584434	3.80478	2.48626	-3.62975	-94.1049	-0.643892
0.0240	-37.3672	3.47962	-3.13182	201.485	-0.0324686	2.57743	0.66795	-5.41581	-102.031	-0.321946
0.0247	-12.3019	3.47962	-3.445	148.077	0.275983	3.1911	0.352529	-5.41581	25.8265	-0.321946
0.0253	24.6039	5.93582	-1.60071	-19.1603	0.275983	5.33896	1.28024	-3.28406	56.3445	-0.321946
0.0260	45.0559	7.13468	-0.104394	-222.732	-0.941588	8.37665	3.41397	-0.57615	-126.445	0
0.0267	50.848	5.32177	-1.00914	-249.888	-3.08451	9.29716	4.02625	-0.23046	-193.881	0.321946
0.0273	57.2553	3.18722	-2.81864	-160.172	-4.90275	7.1493	1.89252	-1.1523	85.0406	0
0.0280	76.7846	1.34506	-4.66293	-202.893	-5.2112	5.03212	-1.16891	-2.36222	333.763	-0.321946
0.0287	99.697	3.47962	-2.81864	-259.041	-3.68518	5.6458	-1.16891	-1.49799	196.135	-0.321946
0.0293	106.719	6.84228	0.835152	-172.971	-1.55849	8.37665	1.5771	1.26753	-72.1274	-0.321946
0.0300	102.106	5.32177	-0.104394	-69.5252	0.584434	9.29716	2.80168	-2.07414	-188.711	-0.643892
0.0307	70.9925	1.05266	-4.34975	-32.5876	1.20134	5.95264	0.66795	-11.523	-196.34	-0.965839
0.0313	23.0661	1.95911	-5.56768	-28.6398	-0.324686	0.767092	0.0556625	-14.0005	-169.785	-0.643892
0.0320	14.2498	5.93582	-3.13182	-53.9606	-1.25004	-1.99444	2.18939	-6.04958	-119.726	-0.321946
0.0327	22.1435	6.84228	-1.00914	-80.8151	-1.25004	0.460255	4.02625	-1.49799	-59.6013	-0.321946
0.0333	-1.33271	5.61418	-0.104394	-61.2777	-0.324686	3.1911	4.32312	-1.1523	-65.1128	-0.321946
0.0340	-28.192	3.47962	-2.22707	-31.0789	-0.941588	0.153418	2.18939	-4.2059	-100.801	-0.321946
0.0347	-20.862	2.25152	-4.66293	-24.3652	-2.77606	-4.1423	-0.259758	-8.8151	-6.80963	-0.965839
0.0353	7.84249	5.32177	-2.81864	-23.7366	-2.77606	-4.1423	0.66795	-11.523	162.862	-0.321946
0.0360	32.5489	8.07038	-1.00914	-11.8432	-2.77606	-3.83546	1.5771	-15.4984	302.015	0
0.0367	49.9254	10.2049	1.14833	6.76393	-2.77606	-3.83546	3.41397	-19.4739	456.131	-0.321946
0.0373	41.9804	12.3395	2.95783	0.0502895	-2.77606	-6.87315	3.71083	-22.5275	523.886	-0.321946
0.0380	-14.1472	11.433	0.208788	-18.2551	-2.77606	-12.0587	-0.259758	-25.293	367.014	-0.321946
0.0387	-94.1099	11.7254	-1.91389	0.678908	-0.941588	-12.0587	-1.16891	-14.5766	224.194	0
0.0393	-140.191	14.4741	-1.60071	27.2066	1.49355	-8.10049	0.964817	6.74096	290.423	-0.321946
0.0400	-112.409	12.9535	-2.81864	26.6031	4.23715	-4.75597	2.18939	22.0089	166.21	-0.321946
0.0407	-83.1406	4.70772	-4.97611	34.8506	3.63648	-0.460255	2.80168	25.9844	-255.532	-0.321946
0.0413	-108.155	-4.15215	-7.09879	85.5172	-10.0977	3.80478	2.80168	22.3546	-428.87	-0.321946
0.0420	-90.163	-7.51481	-8.6299	142.269	-24.4488	7.45614	3.71083	12.5601	-347.701	-0.321946
0.0427	16.0438	-4.44456	-8.6299	162.108	-30.5529	8.68348	2.80168	1.9013	-309.849	-0.321946
0.0433	98.1593	3.47962	-4.34975	160.574	-33.5887	9.29716	0.0556625	8.00849	-218.91	0
0.0440	75.5544	9.88329	3.27101	152.955	-29.6276	11.7519	0.66795	21.7209	-81.8977	0.321946
0.0447	1.99907	9.88329	6.61162	133.116	-24.1404	11.7519	1.28024	21.0871	3.55285	0
0.0453	-50.7968	6.54987	5.70687	76.3394	-18.637	15.4032	1.89252	11.3502	-60.5351	-0.643892
0.0460	-60.5358	4.38608	6.33323	23.2589	-9.1886	23.6264	4.32312	3.11121	-249.132	-0.321946
0.0467	-40.3914	1.95911	4.48894	36.3844	-1.25004	21.8161	3.41397	-2.70791	-279.035	0
0.0473	-28.192	-1.69595	-0.69596	17.1487	4.5456	14.7895	0.66795	-5.41581	-165.503	-0.321946
0.0480	-30.3448	-1.0819	-1.32232	-86.9253	11.575	13.2554	4.32312	-5.41581	-77.32	0
0.0487	-23.0149	2.57316	0.208788	-158.336	17.3707	13.2554	10.1306	-5.76151	26.7602	0
0.0493	-6.50978	3.47962	-2.22707	-155.57	18.2798	12.6417	12.8766	-2.36222	92.9662	-0.321946
0.0500	-2.25536	2.57316	-3.13182	-122.002	18.2798	12.3348	14.398	4.32113	57.5744	-0.321946
0.0507	-8.66262	1.34506	-3.13182	-59.4421	17.6791	6.84246	10.4274	1.55561	17.9009	-0.321946
0.0513	-6.20223	-1.69595	-4.07137	-1.15666	16.4453	3.49794	4.32312	-3.28406	1.11596	0
0.0520	-0.102516	-3.83051	-3.13182	10.4351	13.1011	5.6458	5.25083	4.95489	-7.74339	0
0.0527	-8.04752	-5.05861	-1.91389	-3.89743	5.1625	5.33896	7.38456	13.1938	78.6409	0
0.0533	-51.9757	-4.7662	-1.91389	-26.5025	-0.324686	2.88427	6.45685	12.5601	201.009	0
0.0540	-108.77	-3.21646	-3.13182	-46.9452	-2.15916	1.04325	4.02625	12.8482	251.66	0.321946
0.0547	-112.717	-3.21646	-5.56768	-46.6435	-2.46761	-0.460255	0.66795	13.1938	240.068	0
0.0553	-73.6579	-3.21646	-4.66293	-33.8197	0.584434	0.767092	0.0556625	4.32113	128.677	0
0.0560	-31.2162	-1.0819	0.52197	-5.733	4.23715	1.65692	0.66795	-1.78607	-30.3131	0
0.0567	-1.33271	-1.0819	4.17576	52.8542	5.47095	1.65692	-0.259758	18.6673	-60.5351	0
0.0573	4.767	-8.71367	2.05308	110.234	3.94493	0.153418	-2.39349	49.7794	99.6847	0
0.0580	10.8667	-17.866	-1.60071	151.723	2.11046	-2.30128	-3.00577	62.3395	350.844	-0.321946
0.0587	34.0866	-23.6848	-3.13182	205.432	1.49355	-2.91495	-0.259758	56.8084	542.493	-0.321946
0.0593	44.7483	-22.1351	-4.97611	263.718	0.892885	-3.83546	0.352529	23.5646	498.56	0
0.0600	39.8788	-6.28671	-5.88086	299.423	2.11046	-3.52862	-0.259758	-35.0299	158.58	-0.321946
0.0607	15.1211	11.7254	-5.56768	299.423	4.23715	-2.30128	0.66795	-75.9366	-245.169	-0.965839
0.0613	-24.5526	17.2227	-4.97611	268.319	4.85405	-1.99444	0.964817	-83.2537	-387.055	-0.965839
0.0620	13.3271	10.2049	-3.13182	206.966	4.85405	-0.460255	1.89252	-63.7222	-279.65	0.321946
0.0627	117.689	-0.789494	-2.81864	113.579	3.63648	1.96376	4.02625	-24.9473	-208.229	0.321946
0.0633	186.631	-3.5381	-3.445	6.76393	2.72736	6.84246	6.15998	18.0335	-275.368	0
0.0640	218.718	1.34506	-3.13182	-71.9642	1.49355	10.5245	6.45685	45.5159	-342.804	0
0.0647	203.443	5.93582	-3.13182	-83.8577	0.584434	8.68348	2.48626	29.9598	-293.998	0
0.0653	172.022	7.13468	-0.382778	-96.3797	0.892885	9.29716	0.964817	4.95489	-207.022	0
0.0660	204.674	5.61418	2.64465	-201.661	-1.55849	12.9485	3.09855	20.799	-170.4	0
0.0667	229.688	5.93582	2.36626	-310.613	-5.51966	13.869	4.32312	47.6476	-153.296	0
0.0673	179.916	10.4973	4.48894	-311.518	-4.61054	14.1759	4.93541	52.833	-156.052	0
0.0680	141.165	18.1291	11.5181	-253.534	-0.941588	14.4827	4.93541	36.7008	-127.971	-0.321946
0.0687	129.58	26.989	18.8257	-201.057	1.49355	13.2554	2.18939	7.6628	-46.187	-0.321946
0.0693	108.513	33.1003	20.3568	-172.971	2.41891	16.0169	-0.853492	-0.864226	19.4268	0
0.0700	57.5628	30.6441	12.1097	-149.787	-0.324686	21.5093	-1.7812	11.9839	61.2411	0
0.0707	-60.2283	23.0123	0.835152	-83.2542	-7.9548	22.4298	-1.46578	18.9554	47.804	-0.321946
0.0713	-174.073	19.6496	-2.22707	-12.4466	-17.4194	20.8956	-0.556625	18.9554	-57.4833	0
0.0720	-214.669	16.901	2.95783	15.3131	-22.3059	20.2819	-1.7812	19.5891	-176.504	0
0.0727	-214.054	10.2049	8.45591	47.0458	-18.637	20.2819	-3.59951	20.511	-203.97	-0.321946
0.0733	-182.325	2.86557	7.82955	87.9563	-10.4062	21.8161	-4.2118	15.6137	-113.942	0
0.0740	-107.847	-1.0819	2.36626	110.234	-11.9322	26.6948	-6.34552	7.37473	81.6927	0
0.0747	-46.4911	1.05266	-0.382778	113.579	-33.2965	30.3462	-8.49781	2.18937	293.474	0.321946
0.0753	-19.9394	3.47962	-0.69596	91.904	-51.6088	25.1606	-10.6315	-2.70791	332.852	0
0.0760	15.1211	-2.92405	-2.54025	70.5561	-48.2483	17.8272	-11.8561	-7.2595	151.269	0
0.0767	44.4408	-14.5325	-5.28929	4.92837	-36.0401	19.0546	-12.7653	-10.3131	-81.2828	0
0.0773	76.4771	-16.3454	-6.19404	-67.9913	-29.6276	21.5093	-14.899	-14.9223	-197.251	-0.321946
0.0780	128.35	-7.51481	-2.22707	-0.553184	-24.4488	22.4298	-12.153	-19.4739	-168.874	0
0.0787	107.898	1.05266	3.27101	136.46	-12.2406	28.8427	-4.82408	-16.1322	-78.231	0.321946
0.0793	-19.9394	5.00013	6.33323	258.84	1.49355	37.6796	0.964817	5.87674	-34.8908	0
0.0800	-156.081	8.07038	6.61162	340.636	14.9193	34.6419	7.99684	23.8526	-52.2906	-0.321946
0.0807	-188.732	6.22823	1.42672	323.235	23.1663	14.7895	22.3392	11.3502	-17.4909	0
0.0813	-107.232	-4.7662	-6.50722	281.42	21.6403	-2.30128	33.6201	-6.97142	85.3367	0
0.0820	-56.5889	-12.398	-10.4742	293.037	21.9487	-1.99444	31.7833	-6.68335	128.996	0
0.0827	-119.431	-11.1699	-8.03834	352.529	21.3318	-6.56631	20.5024	0.691381	94.8109	-0.321946
0.0833	-193.602	-11.4623	-4.34975	314.988	9.43212	-16.3237	6.77227	-8.8151	40.7894	-0.321946
0.0840	-174.688	-16.053	-7.72515	23.5606	-4.61054	-12.0587	-6.04866	-33.82	-27.8762	0
0.0847	-100.517	-14.2109	-10.161	-288.033	-11.3153	-10.5245	-11.2438	-46.6106	-24.2095	0
0.0853	-69.4035	-7.19317	-3.13182	-370.13	-18.9454	-14.5134	-8.49781	-47.5324	95.107	0
0.0860	-73.9654	-2.63165	5.1153	-319.464	-26.2671	-16.6306	-5.43637	-61.5905	204.061	0
0.0867	-84.3196	2.25152	9.08228	-276.743	-28.41	-28.229	-5.43637	-75.9366	237.631	0
0.0873	-110.564	6.54987	10.8918	-293.213	-25.3579	-50.1985	-7.88552	-56.1171	188.802	-0.321946
0.0880	-60.2283	8.36279	10.3002	-324.04	-14.6758	-75.5432	-9.70383	-17.3421	37.7376	-0.321946
0.0887	50.848	10.2049	7.55116	-260.575	1.20134	-86.2212	-8.18239	3.39929	-108.43	-0.321946
0.0893	30.3961	8.68443	5.1153	-121.7	13.3933	-72.7817	-6.34552	21.0871	-51.3796	0
0.0900	-73.6579	1.66671	3.27101	-8.80065	23.4748	-56.3046	-4.52722	50.1251	91.1442	0
0.0907	-65.7129	-2.63165	3.27101	29.9725	30.7964	-45.9335	-1.46578	58.9402	40.4934	-0.643892
0.0913	2.61416	0.116962	5.1153	3.72142	31.7055	-39.2138	-0.853492	37.2769	-59.0092	-0.965839
0.0920	5.07455	4.38608	7.23798	-12.1449	30.7964	-35.5624	-0.853492	16.2474	-41.6093	-0.321946
0.0927	-15.0699	2.86557	5.70687	-12.4466	30.7964	-31.911	-1.16891	8.29657	21.5676	0
0.0933	-14.7623	-3.5381	-1.32232	-39.3012	24.0754	-28.5358	-4.2118	2.47745	160.106	0
0.0940	-15.3774	-6.90076	-4.07137	-90.873	10.9581	-20.3126	-8.18239	-2.07414	270.905	0.321946
0.0947	-38.8536	-6.90076	-1.60071	-208.374	2.72736	-8.10049	-9.40696	-4.83966	218.705	0.321946
0.0953	-43.7744	-5.96506	-1.60071	-348.154	0.275983	-1.07393	-10.3161	-3.28406	95.4258	0
0.0960	16.3513	-4.44456	-4.66293	-380.792	-5.2112	-4.1423	-12.4498	1.26753	-15.0541	-0.321946
0.0967	80.7828	-5.05861	-8.6299	-292.609	-10.4062	-13.8997	-14.6021	-1.1523	-56.8683	0
0.0973	113.998	-7.19317	-9.53465	-167.791	-19.5623	-20.6194	-15.1959	-4.2059	-25.7354	0
0.0980	150.34	-6.28671	-6.50722	-86.2967	-41.5273	-21.5399	-14.2867	0.691381	37.7376	0
0.0987	165.922	-0.789494	0.52197	-63.7167	-57.096	-20.9263	-12.7653	8.00849	134.484	-0.321946
0.0993	138.448	6.22823	9.08228	-74.4032	-49.7743	-18.1647	-10.9284	10.7164	155.232	-0.321946
0.1000	101.799	8.07038	10.8918	-71.3607	-47.0307	-21.5399	-10.3161	4.32113	45.0711	-0.321946
0.1007	46.5936	5.93582	5.39369	-24.3652	-65.343	-35.8692	-12.4498	-4.49397	-38.8536	-0.321946
0.1013	-71.1975	5.00013	0.208788	47.9761	-78.4603	-40.1343	-12.7653	-5.41581	-104.171	-0.321946
0.1020	-194.217	5.00013	-1.60071	138.296	-69.6126	-29.1495	-1.46578	-5.12774	-226.54	0
0.1027	-217.386	4.38608	-2.54025	228.943	-46.7223	-22.1229	16.8472	-7.2595	-243.028	0
0.1033	-183.196	1.66671	-4.34975	296.683	-22.3059	-24.5776	28.7404	-7.89326	-123.689	-0.321946
0.1040	-166.743	-2.92405	-8.03834	346.746	2.41891	-30.3769	30.5773	-6.04958	-24.8244	0
0.1047	-52.8984	-5.67266	-8.31672	376.341	23.1663	-31.911	27.8312	-0.864226	14.553	0
0.1053	176.277	-4.7662	-4.66293	390.372	37.8096	-23.0434	23.5452	4.95489	8.13056	0
0.1060	286.123	-5.05861	-3.75818	391.604	22.8579	-6.56631	20.5024	3.11121	-6.51355	0
0.1067	237.325	-7.51481	-4.66293	322.934	-36.0401	6.53563	18.3686	-3.28406	-10.4763	-0.321946
0.1073	135.988	-9.32772	-5.56768	183.783	-75.0998	4.41845	13.7857	-6.97142	-98.3638	-0.321946
0.1080	32.2413	-10.2342	-8.6299	-0.553184	-76.0089	-1.38077	8.29371	-8.46941	-268.058	-0.321946
0.1087	0.512581	-10.2342	-11.0658	-241.641	-68.9957	4.72529	3.71083	-9.10318	-385.233	-0.321946
0.1093	37.4184	-9.32772	-9.53465	-405.207	-42.4526	12.3348	0.0556625	-7.54757	-373.026	-0.321946
0.1100	76.4771	-8.09962	-4.66293	-441.541	-7.9548	16.3237	-3.00577	0.691381	-228.384	-0.321946
0.1107	61.5097	-9.03532	0.52197	-414.058	12.7926	15.0964	-5.75179	10.1402	-51.6757	-0.321946
0.1113	13.0196	-9.64937	2.95783	-327.083	32.3225	8.68348	-4.52722	13.4819	11.7973	0
0.1120	57.5628	-7.80722	2.36626	-226.68	48.8002	4.41845	0.0556625	5.24297	-37.9426	0
0.1127	166.538	-7.19317	-2.22707	-130.25	50.3263	3.80478	1.89252	-7.54757	-58.6903	-0.321946
0.1133	135.988	-4.44456	-6.78561	-75.0067	41.787	5.33896	-0.853492	-7.89326	-25.7354	0
0.1140	1.74278	3.47962	-5.28929	-75.6353	34.4654	-1.38077	-6.95781	-0.864226	-20.2467	0
0.1147	-31.8313	4.38608	-3.13182	-64.0185	34.1569	-12.0587	-16.1236	5.24297	-48.6239	0
0.1153	-1.64026	-7.19317	-7.09879	-28.9416	28.3613	-7.17998	-24.0462	12.5601	-102.031	0
0.1160	-19.9394	-18.8016	-14.4412	3.11795	14.0102	-1.07393	-26.7922	15.3256	-132.549	-0.321946
0.1167	-19.3243	-19.0941	-17.7818	-4.22431	-0.633137	-4.1423	-21.3002	6.74096	-49.2388	-0.321946
0.1173	49.3103	-21.2286	-20.2176	-36.8622	-16.2018	-4.75597	-14.2867	-13.3667	47.508	0
0.1180	85.0372	-32.223	-24.4978	-42.3689	-25.6664	-8.40733	-15.1959	-39.6392	13.3232	-0.321946
0.1187	-7.43243	-36.7846	-22.9667	-92.4069	-15.2927	-14.8202	-16.7359	-49.088	-73.6533	-0.321946
0.1193	-145.983	-28.8604	-15.9723	-208.676	-5.2112	-10.2484	-14.899	-30.4784	-120.637	0
0.1200	-153.313	-20.0005	-8.31672	-265.151	-7.35413	-1.38077	-17.3481	-2.99598	-123.097	-0.321946
0.1207	-73.6579	-16.053	0.208788	-230.351	-13.7667	4.11161	-20.391	10.1402	-143.526	-0.965839
0.1213	-122.199	10.4973	8.45591	-154.967	-36.6408	3.1911	-13.3776	15.6137	-180.466	-0.643892
0.1220	-235.428	42.8666	13.0492	-77.4458	-58.3135	-7.48682	-4.52722	24.7745	-142.615	-0.321946
0.1227	-215.284	32.7786	15.7635	-25.8739	-52.8263	-3.52862	-4.82408	32.3797	-56.2534	0
0.1233	33.4715	14.7665	17.2946	-8.17204	-28.1015	22.4298	-10.0192	42.1742	-2.23192	0
0.1240	385	16.3162	13.6408	-18.5568	2.11046	38.9069	-13.3776	54.0429	6.9235	0
0.1247	532.418	13.5676	4.80212	-25.2705	33.8485	45.013	-13.6744	54.3886	3.25678	0
0.1253	451.225	6.84228	-1.00914	-14.5839	59.174	51.119	-13.0621	37.2769	-27.2613	-0.321946
0.1260	164.077	7.45633	1.42672	-7.56856	70.7815	47.1301	-11.5407	19.301	-99.2748	-0.321946
0.1267	-96.8778	8.97684	5.70687	-5.733	73.2166	34.918	-13.3776	9.79456	-116.06	0
0.1273	-70.89	6.84228	5.1153	3.41968	59.4824	21.2024	-21.9125	-3.62975	-28.7872	0
0.1280	8.15004	5.00013	4.80212	11.3403	36.2836	5.33896	-27.4045	-17.9759	49.6488	0
0.1287	37.726	7.13468	11.205	19.5877	25.6015	-15.4339	-27.7199	-20.6838	42.0193	0
0.1293	3.84436	12.3395	18.5125	46.4423	25.9099	-34.0282	-28.6291	-15.4984	-9.56536	-0.321946
0.1300	-152.698	14.4741	16.0767	84.8886	21.3318	-40.1343	-23.7493	-6.33766	-42.5203	-0.321946
0.1307	-249.114	14.7665	7.55116	118.457	1.49355	-39.2138	-12.4498	8.00849	-42.5203	-0.321946
0.1313	-250.96	15.3805	-0.382778	145.311	-21.3968	-31.2974	-3.91493	25.0625	-21.1577	0
0.1320	-296.426	12.3395	-6.78561	152.654	-29.936	-22.7366	7.38456	34.5114	15.1452	0
0.1327	-307.446	6.84228	-9.53465	152.352	-22.3059	-26.7255	21.4115	25.4082	44.7522	-0.321946
0.1333	-156.645	1.66671	-12.9101	166.081	-4.90275	-25.4981	20.1869	12.8482	61.5371	-0.321946
0.1340	26.7567	-7.19317	-15.6591	174.303	19.2052	-15.7407	3.71083	13.77	50.8558	0
0.1347	65.5079	-15.439	-12.5969	188.661	38.4265	-12.0587	-10.6315	19.301	9.36039	-0.321946
0.1353	19.7344	-14.2109	-4.97611	186.825	50.0178	1.04325	-16.7359	20.799	-2.55076	0
0.1360	10.8667	-8.09962	-0.382778	132.513	55.2128	29.1188	-17.3481	7.37473	17.286	-0.321946
0.1367	50.848	-2.0176	1.14833	99.8497	47.2742	47.7438	-18.2573	-29.8446	19.4268	-0.965839
0.1373	65.2003	9.26924	4.48894	100.755	31.7055	52.0089	-20.0942	-57.615	14.553	-0.321946
0.1380	45.3634	19.0356	9.36066	120.896	15.2278	73.3954	-24.0462	-49.3761	23.3896	0
0.1387	115.228	19.0356	12.7361	111.743	5.76317	120.372	-17.645	-39.9272	42.9302	0
0.1393	240.042	3.18722	6.61162	50.1134	10.049	137.77	6.77227	-32.322	63.3819	-0.321946
0.1400	307.19	-27.3399	-8.03834	52.2507	19.2052	118.255	27.8312	-8.18134	75.8852	0
0.1407	302.32	-52.6622	-16.877	83.053	25.0008	106.963	36.6816	-0.864226	74.3593	0
0.1413	226.305	-57.5453	-17.1902	69.324	32.014	105.122	47.0534	-8.8151	44.4562	-0.321946
0.1420	200.368	-56.0248	-13.8148	43.7015	42.6962	96.8684	59.262	-12.7905	-2.23192	-0.321946
0.1427	222.665	-62.1361	-12.2837	-23.1331	48.4918	81.0049	62.008	-30.4784	-34.5947	0
0.1433	48.3876	-66.4052	-16.5638	-133.619	47.2742	61.4901	55.5883	-51.2198	-48.009	0
0.1440	-202.162	-71.5808	-22.0619	-204.401	44.5306	40.1343	43.6951	-43.2689	-34.5947	0
0.1447	-217.386	-75.2358	-24.4978	-195.877	32.3225	17.8272	22.0238	-17.6302	-2.23192	0
0.1453	-104.156	-34.65	-24.811	-110.41	4.23715	-3.22179	-1.7812	4.03305	26.4414	-0.321946
0.1460	0.82013	30.3516	-19.9392	11.9689	-21.9974	-24.5776	-11.2438	23.8526	53.6116	0
0.1467	111.281	52.3113	-4.07137	86.7242	-31.1536	-53.8806	-11.5407	54.9648	69.1667	0.321946
0.1473	23.3737	41.9309	10.3002	109.933	-27.5009	-76.4637	-15.5113	100.481	65.2039	0
0.1480	-249.729	25.7609	5.39369	103.219	-21.9974	-72.1987	-18.2573	113.271	56.3445	-0.321946
0.1487	-160.643	6.22823	-8.6299	55.595	-17.1109	-66.7063	-16.1236	54.0429	58.4853	0
0.1493	340.149	-2.31	-18.095	26.9049	-4.30208	-82.5698	-7.5701	-30.7664	83.5147	-0.321946
0.1500	601.719	0.116962	-20.844	48.2779	11.8673	-100.274	7.99684	-75.0148	118.314	-0.321946
0.1507	370.955	8.68443	-14.128	34.2471	21.9487	-109.725	15.9195	-62.2243	121.047	-0.643892
0.1513	-3.178	19.3572	0.52197	-82.9525	27.7444	-111.873	14.1012	-27.0791	111.892	-0.965839
0.1520	-171.92	20.8777	11.5181	-185.493	26.8353	-97.8196	16.2349	-10.025	137.217	-0.321946
0.1527	-221.384	15.0881	17.0162	-130.853	22.5494	-76.7706	16.5318	-10.025	158.284	0
0.1533	-297.963	15.3805	26.1681	29.6708	24.6923	-68.8235	11.3366	0.34569	131.433	-0.321946
0.1540	-291.249	17.8367	31.353	126.704	30.1795	-71.2782	9.81515	21.0871	42.9302	0
0.1547	-251.882	9.88329	22.7927	70.2544	30.7964	-69.744	15.0103	20.511	-54.7275	0
0.1553	-287.917	4.09367	14.2672	10.4351	28.6535	-66.0927	27.8312	2.47745	-39.7646	-0.321946
0.1560	-242.4	4.38608	14.8587	24.7676	25.9099	-69.1303	41.8582	-3.62975	37.4416	-0.321946
0.1567	68.2245	-12.0763	18.8257	66.5832	14.9193	-73.3954	48.8902	5.87674	84.7445	0
0.1573	417.651	-39.5332	19.7305	114.182	-1.25004	-61.7969	45.8288	20.511	114.329	0
0.1580	430.466	-59.3875	15.1719	99.548	-16.8187	-35.5624	25.9944	26.9062	97.5439	0
0.1587	129.58	-81.6687	11.5181	84.5869	-33.5887	-10.5245	0.0556625	19.8772	54.2265	0
0.1593	-121.892	-101.201	13.3276	105.96	-43.9787	0.153418	-13.3776	7.37473	2.34579	0
0.1600	-208.262	-118.892	14.8587	20.493	-46.1054	-0.153418	-15.8081	3.11121	-61.1272	0
0.1607	-293.094	-140.559	16.703	-125.372	-44.2709	1.35008	-14.899	14.1157	-51.6757	-0.321946
0.1613	-192.372	-66.4052	13.954	-135.128	-34.2056	-9.021	-15.5113	19.8772	13.0271	-0.321946
0.1620	76.4771	104.184	-6.19404	-78.6778	-17.7278	-29.4563	-14.6021	3.39929	35.9156	0
0.1627	93.5973	147.226	-28.7779	-143.375	1.49355	-34.0282	-9.40696	-6.68335	14.8491	-0.321946
0.1633	-40.6989	63.5981	-31.527	-206.539	21.0234	-33.4145	-7.5701	-6.04958	-20.5427	-0.321946
0.1640	45.0559	36.4337	-23.593	-142.143	33.2316	-29.7632	-6.95781	-19.4739	-52.9056	-0.321946
0.1647	306.575	48.3346	-14.4412	-91.1999	40.261	-1.99444	-1.7812	-14.2885	-62.972	0
0.1653	498.229	40.118	-5.28929	-78.9796	31.4133	35.8385	-0.556625	7.6628	-59.3052	0
0.1660	349.016	30.3516	-1.00914	-36.5604	-1.55849	75.5126	-1.7812	-3.28406	-58.6903	0
0.1667	-10.8155	14.4741	2.95783	17.4504	-21.3968	121.906	2.18939	-26.5029	-52.2906	0
0.1673	-128.607	-23.3632	9.08228	51.949	-16.5103	145.41	7.38456	-31.0545	-37.3277	0
0.1680	-168.28	-32.223	11.5181	45.2354	-21.0883	160.66	3.09855	-30.1327	-21.1577	0
0.1687	-416.677	4.09367	7.55116	33.6185	-24.4488	219.879	-3.91493	-46.9563	-12.3211	0
0.1693	-635.498	29.1235	4.80212	22.9571	-10.0977	301.038	0.964817	-77.1466	-18.7208	-0.321946
0.1700	-478.033	43.159	3.27101	-53.0554	7.90609	340.712	8.906	-98.8098	-30.6092	-0.321946
0.1707	-86.78	56.902	-4.66293	-122.631	24.0754	344.394	8.906	-105.205	-37.9426	0.321946
0.1713	66.4305	41.6385	-15.6591	-89.3644	32.9394	361.485	13.4889	-75.3029	-38.8536	0
0.1720	8.15004	-10.5558	-25.1242	-6.66335	32.014	367.253	22.6361	-24.3712	-32.1351	-0.321946
0.1727	42.903	-57.867	-28.4648	46.1406	24.3839	326.689	16.2349	7.08665	-22.6836	0
0.1733	212.875	-58.1594	-23.2799	51.949	19.4974	301.651	-3.00577	33.6472	-18.7208	0
0.1740	390.228	-34.3576	-17.4686	-1.78528	19.2052	307.757	-13.6744	71.4427	-16.2839	-0.321946
0.1747	472.292	-19.0941	-9.25627	-123.234	-53.1348	271.428	-16.7359	101.691	-12.9132	-0.321946
0.1753	327.027	-6.90076	0.52197	-194.645	-192.295	205.826	-15.1959	93.7397	-15.3729	-0.321946
0.1760	-124.608	5.61418	3.27101	-145.513	-256.68	116.721	-6.34552	45.804	-21.7726	-0.321946
0.1767	-376.081	8.97684	0.52197	-76.8423	-236.241	-14.8202	-1.46578	10.4283	-22.6836	0
0.1773	-119.431	2.86557	-4.66293	-44.8079	-224.325	-111.873	1.89252	1.9013	-23.2985	0
0.1780	43.8257	-5.05861	-9.53465	-23.7366	-200.834	-176.554	14.1012	-0.57615	-27.5573	-0.321946
0.1787	-47.4137	-2.63165	-2.81864	-7.8703	-124.842	-230.557	25.9944	28.1161	-32.75	-0.321946
0.1793	-57.7679	8.68443	15.1719	-13.0753	-39.6928	-207.698	21.7269	60.1501	-36.1206	-0.321946
0.1800	-91.0344	15.9946	29.1955	-22.8314	31.4133	-164.956	0.0556625	33.0134	-27.2613	-0.321946
0.1807	-380.95	17.8367	35.6331	8.5995	93.964	-183.274	-26.1985	-10.9469	-5.60257	-0.965839
0.1813	-560.712	16.6086	30.4134	80.3123	136.076	-250.41	-40.5408	-18.264	12.7083	-0.965839
0.1820	-250.345	10.2049	6.61162	147.147	165.996	-294.962	-33.8242	-2.70791	20.9527	0
0.1827	118.304	3.80127	-12.9101	182.249	177.278	-263.235	-21.9125	25.0625	30.1081	-0.321946
0.1833	384.385	2.25152	-12.9101	181.344	99.4674	-207.974	-17.9604	53.4668	38.3525	-0.321946
0.1840	619.095	2.57316	-9.53465	163.315	-36.3486	-155.812	-19.7787	54.3886	31.634	-0.321946
0.1847	470.447	5.61418	-5.28929	134.65	-115.685	-116.445	-28.3322	27.54	20.0417	-0.321946
0.1853	55.1025	16.6086	4.17576	76.6663	-120.264	-92.0204	-33.8242	2.47745	17.286	-0.321946
0.1860	-195.14	22.7199	10.3002	0.352026	-66.2521	-59.0661	-28.9445	-25.5811	22.4786	-0.321946
0.1867	-249.422	11.7254	3.86258	-65.5523	9.12367	-30.3769	-8.79467	-65.2778	27.3524	-0.643892
0.1873	-222.306	-8.71367	-5.28929	-110.41	55.8135	-5.03212	29.0373	-72.2493	28.8783	-0.321946
0.1880	-272.642	-22.7491	-5.88086	-150.089	93.6556	14.4827	51.9331	-47.5324	30.723	-0.321946
0.1887	-443.536	-18.8016	-0.69596	-172.971	130.28	-1.99444	41.8582	-33.532	32.8638	-0.321946
0.1893	-501.817	-9.94177	3.86258	-147.046	140.053	-35.2556	27.5158	-32.8982	27.6712	0
0.1900	-368.751	-8.71367	7.23798	-82.9525	128.153	-29.1495	23.5452	-31.6883	19.4268	0
0.1907	-180.787	-10.8482	11.5181	-9.10239	95.49	6.53563	24.4729	-17.6302	19.7229	0
0.1913	-97.7492	-18.48	10.3002	44.6067	42.3877	23.6264	27.8312	-2.36222	20.6566	0
0.1920	-122.814	-24.5913	0.835152	65.0494	-4.61054	29.7325	35.1416	-11.523	9.9753	0
0.1927	-108.155	-19.4157	-5.56768	75.1324	-19.8708	38.6001	42.1736	-31.9764	-1.93585	-0.321946
0.1933	-51.9757	-16.6671	-9.25627	91.6022	-11.6237	35.8385	36.6816	-32.6101	-5.28372	-0.321946
0.1940	53.3084	-21.5503	-12.0053	94.3682	-0.941588	34.335	27.8312	-23.1612	-12.6172	0
0.1947	261.416	-20.6146	-7.09879	78.4767	17.0622	61.4901	35.457	-23.1612	-19.9278	0.321946
0.1953	459.478	-14.5325	1.14833	79.7088	34.1569	83.1528	41.5613	-20.1077	-12.9132	-0.321946
0.1960	521.756	-9.32772	4.48894	82.1478	33.8485	52.3157	37.2939	-2.70791	1.11596	-0.321946
0.1967	426.826	-5.67266	1.14833	4.02316	31.4133	-2.91495	28.4435	9.21841	7.21957	0
0.1973	235.787	-2.0176	-3.445	-102.188	33.8485	-60.6003	8.906	15.6137	9.04154	-0.321946
0.1980	-21.7847	7.74873	1.42672	-127.207	35.066	-157.315	-11.5407	33.3015	13.0271	-0.321946
0.1987	-358.089	17.5151	9.98702	-103.395	37.5174	-287.629	-21.9125	51.9112	10.2714	0
0.1993	-499.1	20.5853	12.7361	-81.1169	34.4654	-365.75	-25.8831	58.364	-1.63978	0
0.2000	-346.812	25.1468	15.1719	-59.4421	20.1143	-309.292	-27.7199	55.3104	-12.3211	-0.321946
0.2007	-255.522	24.5328	18.5125	-35.3535	3.94493	-185.698	-29.5568	47.0715	-16.876	-0.321946
0.2013	-264.697	14.1524	16.3899	-20.0906	-3.68518	-107.577	-26.1985	25.9844	-19.0168	-0.321946
0.2020	-189.604	5.61418	10.3002	-20.0906	6.38007	-65.7858	-15.1959	-7.54757	-22.6836	-0.321946
0.2027	-23.3224	4.38608	4.80212	-23.1331	19.2052	-26.7255	-6.04866	-24.6592	-26.0314	0
0.2033	189.706	1.66671	3.86258	-14.5839	17.9713	-11.445	-1.46578	-15.2104	-31.5429	0
0.2040	337.74	-18.48	9.98702	4.32489	21.0234	-23.3503	2.18939	6.45289	-36.4167	0
0.2047	333.742	-45.352	18.8257	18.6825	27.7444	-35.5624	1.89252	22.6427	-29.4021	0
0.2053	244.962	-56.9313	13.0492	25.6979	20.4227	-36.7897	0.352529	26.2725	-15.3729	0
0.2060	180.531	-56.0248	-4.34975	42.4694	10.9581	-26.1118	0.0556625	33.6472	-6.21748	-0.321946
0.2067	191.552	-53.2762	-12.9101	90.697	7.59764	-10.5245	-3.30264	19.8772	1.41203	-0.321946
0.2073	181.454	-57.5453	-12.5969	138.296	1.20134	-1.38077	-3.59951	-34.1081	7.51564	0
0.2080	60.6383	-63.6566	-9.53465	149.284	-7.04568	7.45614	2.48626	-68.9076	2.93793	0
0.2087	-49.5666	-32.5154	-3.445	155.998	-14.0589	22.4298	4.63854	-58.825	-5.28372	-0.321946
0.2093	-98.3643	34.0067	2.95783	171.562	-13.4582	18.4409	6.15998	-36.2399	-2.23192	-0.321946
0.2100	-84.6271	61.4636	4.17576	179.81	-9.78927	-6.56631	11.652	-31.9764	4.46383	0
0.2107	31.9338	43.159	-1.32232	169.123	-19.5623	-2.91495	8.29371	-51.8535	3.55285	-0.965839
0.2113	31.0112	31.5505	-6.78561	156.3	-33.5887	26.388	2.48626	-64.6441	-0.113873	-0.965839
0.2120	-113.332	25.7609	-15.3459	150.516	-35.7317	49.5848	1.89252	-53.9853	-2.84683	0
0.2127	-85.8573	10.2049	-33.6497	46.744	-24.1404	66.9825	-0.259758	-38.3716	-5.89864	0.321946
0.2133	115.536	-9.64937	-45.5506	-156.199	-5.82811	66.9825	-1.46578	-36.2399	-6.51355	0
0.2140	325.797	-19.4157	-25.1242	-260.877	1.49355	52.0089	2.80168	-39.6392	0.204972	0
0.2147	558.047	-16.053	-5.28929	-219.664	-4.61054	45.9335	4.32312	-33.1863	9.04154	-0.321946
0.2153	765.283	-7.19317	-29.9959	-150.692	-8.5717	66.6757	-1.46578	-36.2399	12.4122	-0.321946
0.2160	808.904	15.3805	-44.959	-107.066	-7.35413	116.107	-4.52722	-50.586	11.7973	0
0.2167	740.833	50.1767	-18.095	-69.5252	-5.82811	152.743	-10.3161	-32.6101	16.0789	0
0.2173	731.402	79.4757	9.36066	-23.4349	-7.35413	127.092	-21.9125	17.7454	23.3896	0
0.2180	770.461	102.049	6.02005	19.286	-10.4062	77.6604	-28.3322	64.7593	26.4414	0
0.2187	793.937	95.9674	-23.593	44.6067	-9.1886	5.33896	-34.1211	95.2953	23.0935	0
0.2193	687.422	19.6496	-31.527	68.4188	-2.77606	-119.482	-35.0488	93.4516	20.9527	-0.321946
0.2200	96.0064	-72.8089	-6.50722	90.0936	-2.46761	-193.031	-30.4659	65.3355	23.7084	0
0.2207	-855.498	-71.9024	22.2011	80.3123	-10.0977	-175.633	-32.3028	43.0961	21.8637	0
0.2213	-1431.69	-7.51481	50.8747	47.3475	-7.66258	-111.873	-37.7948	43.0961	12.4122	-0.321946
0.2220	-1372.49	20.2637	71.9275	23.2589	-0.633137	-16.6306	-33.8242	51.335	2.93793	-0.321946
0.2227	-1044.13	12.9535	71.9275	3.41968	-2.77606	70.9407	-14.2867	40.9643	-3.46175	-0.321946
0.2233	-638.522	-0.789494	41.4096	-35.0266	1.49355	126.785	7.68142	26.2725	-9.86143	-0.321946
0.2240	-196.011	-33.7435	-9.25627	-55.4944	17.3707	138.077	13.7857	18.9554	-14.4391	0
0.2247	18.1966	-32.8371	-33.3365	-7.56856	23.7832	118.869	8.906	14.6918	-18.7208	0
0.2253	-37.0596	13.86	-39.7741	64.4459	6.07162	105.122	6.15998	7.08665	-25.7354	0
0.2260	-256.752	1.66671	-51.3618	96.5055	-12.2406	98.4026	17.4409	-40.2153	-26.9652	-0.321946
0.2267	-490.54	-47.1649	-45.8638	96.5055	-12.2406	105.122	36.0693	-83.5418	-23.2985	0
0.2273	-448.713	-42.6034	-28.1516	93.4378	-9.1886	122.52	44.9196	-79.624	-20.5427	-0.321946
0.2280	-226.868	0.731013	-9.53465	84.5869	-11.3153	138.69	48.8902	-89.0729	-15.0541	-0.321946
0.2287	-37.3672	15.0881	-0.104394	66.5832	-17.7278	154.861	50.4117	-94.5463	-8.03946	-0.321946
0.2293	123.788	-1.40354	2.95783	74.8307	-13.4582	152.437	49.1871	-49.6642	-3.16568	0
0.2300	182.684	-9.64937	6.9248	30.576	-0.0324686	126.171	47.0534	-17.6302	-1.32093	0
0.2307	86.8825	-17.866	-0.104394	-140.936	-0.633137	111.535	39.1122	-39.0054	-3.16568	0
0.2313	-74.5805	-17.866	-5.56768	-208.676	-13.1498	2.27059	21.7269	-64.356	-1.32093	-0.321946
0.2320	-183.196	-6.28671	-5.88086	-67.6896	-16.5103	-216.535	-16.4204	-61.8786	4.46383	-0.321946
0.2327	-179.25	-7.51481	-19.9392	64.4459	3.94493	-265.353	-55.7924	-46.6106	9.65646	-0.321946
0.2333	-138.961	-17.866	-32.7449	100.453	11.2666	-158.236	-65.8673	-36.2399	13.3232	0.321946
0.2340	-149.93	-23.3632	-25.7157	109.002	-14.0589	-129.547	-64.9396	-39.0054	13.6193	0
0.2347	-146.906	-15.439	-11.6921	106.563	-22.3059	-153.664	-62.8058	-35.9518	12.7083	0
0.2353	-148.443	1.95911	-2.81864	25.3962	-9.1886	-133.229	-52.7495	-8.46941	10.5674	-0.321946
0.2360	-252.19	12.3395	4.17576	-90.5713	6.38007	-97.5128	-51.5249	25.6963	4.46383	-0.321946
0.2367	-339.175	19.3572	12.7361	-127.207	25.6015	-80.4219	-51.8218	37.565	0.501043	0
0.2373	-290.633	26.3749	9.36066	-150.391	37.8096	-65.479	-28.6291	9.21841	-2.55076	0
0.2380	-89.5479	21.1994	-1.00914	-180.313	42.6962	-66.0927	18.0532	-14.9223	-4.37274	-0.965839
0.2387	172.637	9.26924	-3.445	-107.368	54.9043	-82.263	84.2916	0.979456	-2.23192	-0.965839
0.2393	362.754	-1.40354	-11.3789	31.4812	57.9564	-88.0622	131.271	16.8236	-1.93585	0
0.2400	570.554	-14.5325	-24.811	124.567	-11.0068	-53.2669	116.335	22.6427	-6.21748	0
0.2407	881.844	-27.9539	-31.527	179.81	-107.146	19.3614	70.5429	20.2229	-9.26929	-0.321946
0.2413	1051.82	-33.7435	-34.276	231.08	-144.371	80.6981	31.1896	-15.7865	-2.23192	0
0.2420	1062.84	-31.609	-35.1808	230.778	-156.58	104.815	0.352529	-44.8245	8.4494	0
0.2427	1157.41	-29.182	-35.1808	183.456	-158.414	82.5391	-18.2573	-17.0541	13.3232	-0.321946
0.2433	1202.26	-26.1118	-30.6222	150.215	-141.011	42.8651	-17.0327	40.9643	12.0933	-0.321946
0.2440	1094.87	-19.4157	-15.6591	114.509	-107.455	32.8009	-6.04866	81.8134	7.21957	-0.643892
0.2447	708.182	-13.3044	2.64465	-14.8857	-45.7969	20.2819	8.906	83.6571	2.02695	-0.965839
0.2453	50.2329	-4.44456	13.0492	-242.873	26.5268	-4.44913	31.1896	83.369	-1.32093	-0.643892
0.2460	-490.848	4.38608	12.7361	-388.436	82.6812	35.8385	37.2939	106.242	-3.75782	0
0.2467	-812.8	0.116962	6.61162	-349.663	111.659	135.346	12.8766	100.135	-1.02486	0
0.2473	-922.031	-0.467848	4.80212	-238.598	110.75	211.319	-19.1665	75.13	5.69367	0
0.2480	-885.432	15.9946	11.5181	-158.035	93.6556	241.849	-33.8242	98.3489	10.5674	0
0.2487	-691.626	28.2171	22.2011	-106.438	81.7558	223.531	-24.3616	107.798	11.5012	0.321946
0.2493	-273.564	20.2637	28.9171	-63.415	73.5251	179.285	-7.27323	52.5449	8.74547	0
0.2500	33.164	-1.40354	21.8879	-39.9298	75.3433	136.849	-0.259758	3.11121	6.30858	0
0.2507	105.182	-17.5735	10.5786	-37.4908	74.1257	102.974	-2.69035	-13.6548	9.36039	0
0.2513	130.196	-25.2053	6.9248	-28.6398	17.6791	102.085	-16.7359	-57.0389	15.464	0
0.2520	161.002	-45.9661	-2.81864	-8.80065	-62.5832	106.656	-28.9445	-134.531	17.6048	0
0.2527	107.898	-47.779	-13.8148	3.41968	-87.6164	127.706	-24.3616	-148.589	11.7973	-0.321946
0.2533	-85.8573	6.84228	-3.445	8.5995	-64.7261	199.106	-21.9125	-95.7562	6.30858	-0.643892
0.2540	-166.435	51.6972	16.3899	16.847	-36.3486	235.436	-35.6425	-82.0438	7.21957	-0.321946
0.2547	14.5573	55.9663	28.2908	20.493	-5.2112	204.599	-53.6586	-77.7803	10.2714	0
0.2553	178.122	56.288	37.7558	29.9725	32.6309	175.91	-67.0919	-18.552	12.4122	0
0.2560	49.0027	47.7498	37.1295	40.9608	57.9564	146.637	-78.0759	15.3256	12.0933	-0.321946
0.2567	-253.113	26.0825	25.8549	-29.5451	72.9082	34.0282	-78.0759	4.6092	10.5674	-0.321946
0.2573	-394.687	-18.1876	12.7361	-125.673	93.964	-93.5546	-58.2415	19.301	11.1824	0
0.2580	-380.386	-67.0192	-0.69596	-105.834	84.2072	-61.1833	-35.6425	38.1988	11.5012	0
0.2587	-333.69	-67.0192	-0.382778	-26.1757	14.3186	59.6491	-19.7787	23.2765	13.0271	0
0.2593	-299.194	-41.0829	12.7361	26.9049	-73.5738	145.41	11.3366	3.74498	16.375	-0.321946
0.2600	-354.142	-6.90076	18.5125	47.3475	-141.936	168.607	48.8902	1.55561	13.9381	-0.321946
0.2607	-479.827	7.45633	17.0162	45.2354	-177.635	97.7889	52.23	25.9844	7.51564	-0.321946
0.2613	-593.056	-47.1649	14.8587	26.3014	-168.187	-46.2403	46.7379	68.101	2.34579	-0.321946
0.2620	-635.805	-45.0304	13.3276	-6.36162	-113.851	-320.583	58.0374	93.1059	-1.63978	0
0.2627	-582.702	46.2	15.1719	-30.4503	-43.6702	-566.574	57.4251	72.9983	-1.63978	0
0.2633	-338.252	110.909	17.6078	-26.1757	17.6791	-454.272	45.8288	24.7745	3.25678	-0.321946
0.2640	33.7791	130.442	13.0492	-6.03473	67.1125	-205.243	33.9356	-15.2104	8.74547	-0.321946
0.2647	164.385	73.6861	4.80212	5.85872	97.9414	-141.759	16.8472	-50.0099	12.4122	0
0.2653	-39.4687	-31.609	4.80212	11.9689	121.741	-165.262	0.66795	-75.9366	17.286	0
0.2660	-196.319	-86.8443	7.55116	17.7522	138.219	-176.861	-9.40696	-79.9121	20.0417	0
0.2667	-80.3727	-70.6743	2.05308	18.6825	135.475	-192.417	-14.899	-72.883	18.197	0.321946
0.2673	95.0838	-22.1351	-3.75818	22.9571	115.328	-189.073	-21.6156	-59.4587	19.7229	-0.321946
0.2680	107.027	-4.7662	-3.13182	29.0422	76.2686	-144.827	-28.6291	-39.6392	22.4786	0
0.2687	55.1025	-28.2463	-4.34975	27.8352	49.1087	-99.9675	-24.9739	-24.0255	17.9009	0
0.2693	11.1743	-48.6854	-10.161	24.7676	58.2648	-82.5698	-5.43637	-19.1858	13.0271	-0.321946
0.2700	-25.424	-48.1006	-16.5638	24.4658	69.8561	-76.7706	15.0103	-19.1858	13.0271	0
0.2707	-28.8071	-48.1006	-20.844	22.3285	64.0605	-76.7706	21.4115	-17.0541	11.1824	-0.643892
0.2713	-72.1201	-28.2463	-19.3129	23.8623	57.0473	-85.9143	25.3821	-10.6012	9.36039	-0.965839
0.2720	-137.731	30.6441	-8.03834	25.0693	58.2648	-95.6717	30.2618	-1.49799	8.4494	0
0.2727	-147.213	31.5505	5.1153	21.1216	52.1607	-92.3272	18.3686	1.26753	5.98974	0
0.2733	-121.892	-23.0708	9.36066	18.3556	35.3745	-70.0509	-1.16891	-2.99598	2.34579	-0.321946
0.2740	-84.9347	-44.4163	8.76909	16.5452	26.2184	-47.4677	-11.2438	-3.28406	-1.63978	-0.321946
0.2747	-30.0372	-63.3349	7.23798	14.7097	7.59764	-33.7214	-16.7359	0.057615	-3.75782	0
0.2753	15.7362	-59.3875	3.27101	16.2435	-32.0627	-27.6153	-22.2279	0.34569	-1.32093	0.321946
0.2760	45.671	12.9535	3.58419	19.8895	-56.4791	-21.8161	-22.5248	4.6092	2.02695	0
0.2767	77.0922	77.0195	2.36626	14.1062	-74.7913	15.0964	-19.4819	9.21841	-0.113873	0
0.2773	93.9048	67.2532	-6.19404	1.58412	-97.6817	73.0885	-16.1236	0.979456	-8.33553	-0.321946
0.2780	95.0838	34.0067	-5.56768	-0.854921	-99.2077	104.815	7.38456	-7.54757	-11.0913	-0.321946
0.2787	87.19	36.4337	5.70687	-1.15666	-82.4214	133.505	40.6336	-10.3131	-11.0913	-0.321946
0.2793	74.068	8.68443	11.5181	-6.66335	-59.5311	155.167	47.0534	-15.2104	-17.4909	0
0.2800	81.6542	-39.5332	8.45591	-1.78528	-29.3191	134.425	48.2779	-6.68335	-15.669	0
0.2807	96.6215	-8.09962	1.14833	16.2435	-1.55849	88.6452	66.8878	9.50648	-2.55076	-0.321946
0.2813	96.0064	24.8544	-8.03834	31.1795	23.1663	65.4483	72.0829	10.7164	7.21957	-0.321946
0.2820	94.4687	-31.9014	-12.5969	35.1523	51.5438	78.8878	52.5454	9.50648	10.8863	-0.321946
0.2827	92.3671	-84.0957	-8.31672	31.1795	69.2554	30.3462	31.1896	12.272	12.4122	-0.321946
0.2833	84.7296	-9.94177	-4.34975	26.9049	71.3821	-46.854	9.20287	10.1402	13.6193	0
0.2840	79.5526	109.389	-7.72515	26.6031	63.4436	-29.1495	-16.1236	7.37473	15.7601	0
0.2847	75.2469	106.64	-8.31672	28.4387	51.8523	-21.5399	-34.4365	11.0621	16.9899	0
0.2853	71.3	21.7842	-1.60071	29.3439	39.3357	-92.3272	-46.0329	11.9839	14.553	0.321946
0.2860	71.6076	-54.5043	-0.382778	26.6031	24.3839	-149.706	-51.8218	8.93033	10.2714	0.321946
0.2867	77.3997	-94.4761	-6.78561	23.2589	11.575	-150.626	-50.3003	17.4574	8.4494	0.321946
0.2873	85.6523	-83.8033	-6.78561	19.8895	3.01958	-110.952	-44.4929	25.4082	7.83449	0
0.2880	90.8294	-47.4866	0.208788	13.4776	0.275983	-68.2098	-27.4045	18.0335	4.46383	0
0.2887	91.1369	14.4741	6.33323	5.25525	-7.66258	-41.0548	4.63854	10.1402	-0.409944	0.321946
0.2893	88.0614	52.3113	5.39369	3.72142	-34.8225	-10.8313	23.2484	8.29657	-3.16568	0
0.2900	87.7539	22.3982	-6.19404	11.3403	-57.096	12.9485	16.8472	8.93033	-0.409944	-0.321946
0.2907	88.9841	-27.6323	-17.1902	13.1758	-61.0571	16.6306	12.8766	12.272	4.46383	0
0.2913	86.8825	-75.8499	-16.5638	6.76393	-59.5311	19.0546	12.8766	24.4864	4.78268	0
0.2920	78.0148	-113.395	-9.25627	11.3403	-47.6314	23.9333	7.06914	27.54	3.87169	-0.321946
0.2927	54.5386	-105.471	-0.104394	15.6149	-26.5755	27.0016	4.93541	-9.10318	2.93793	-0.321946
0.2933	36.1882	-69.7679	6.33323	10.7368	-7.9548	25.4675	3.41397	-53.6396	-1.63978	0
0.2940	43.5181	-84.7098	3.27101	12.2706	3.32803	13.2554	2.80168	-55.4833	-2.84683	-0.321946
0.2947	59.1006	-115.529	-1.32232	15.9166	7.59764	1.96376	4.93541	-17.0541	0.204972	0
0.2953	62.4324	-20.0005	1.42672	17.4504	1.20134	-4.75597	-6.04866	13.1938	2.64186	-0.321946
0.2960	59.4081	134.419	5.39369	15.6149	-10.0977	-0.460255	-14.899	14.6918	5.07875	-0.321946
0.2967	56.6402	152.109	6.33323	6.16046	-10.4062	26.388	-7.88552	13.4819	4.46383	-0.321946
0.2973	49.6178	75.8206	6.33323	10.1333	-7.35413	63.9141	-10.6315	14.4038	3.87169	0
0.2980	37.4184	26.989	6.61162	26.3014	-12.5329	85.3007	-20.0942	1.26753	6.30858	-0.321946
0.2987	27.6794	10.2049	4.17576	27.2066	-15.5849	69.7133	-12.4498	-40.8491	5.3976	-0.321946
0.2993	28.8583	21.4918	-1.60071	24.4658	-12.8413	48.9712	-0.556625	-89.3609	2.93793	0
0.3000	37.4184	23.6263	-2.54025	27.2066	-7.66258	12.3348	2.48626	-75.3029	1.73087	-0.321946
0.3007	41.3653	-7.80722	-3.75818	22.3285	-1.85071	-64.2516	2.48626	-16.1322	-2.23192	-0.965839
0.3013	41.3653	-33.4511	-7.41197	14.7097	-0.0324686	-100.581	4.63854	-0.23046	-2.84683	-0.643892
0.3020	39.5713	-52.9838	-7.09879	17.7522	0.275983	-86.2212	7.68142	15.6137	-0.706015	0
0.3027	31.3187	-76.4639	-4.97611	32.7133	0.584434	-64.8653	1.5771	77.2618	-2.55076	-0.321946
0.3033	26.7567	-86.5519	0.835152	30.2743	-0.941588	-28.8427	-9.40696	114.481	-2.55076	0
0.3040	25.8341	-51.7557	8.14273	0.678908	-6.13656	3.49794	-10.9284	98.637	-3.16568	0
0.3047	21.2721	-5.96506	6.9248	-11.5414	-14.9842	19.6682	-8.49781	56.8084	-6.21748	-0.321946
0.3053	22.7586	24.8544	2.36626	6.76393	-17.7278	41.9446	-3.00577	29.6718	-5.89864	0
0.3060	27.6794	109.389	2.05308	30.2743	-13.1498	57.1944	7.38456	31.1697	-6.51355	0
0.3067	25.8341	142.343	2.05308	38.8235	-12.5329	69.0997	10.7429	25.6963	-7.42454	-0.321946
0.3073	27.0643	64.8262	3.27101	12.5724	-14.9842	103.588	10.4274	-11.2349	-6.51355	0
0.3080	27.3718	25.1468	7.23798	-32.5876	-18.3447	108.467	13.7857	-43.2689	-8.33553	0
0.3087	25.219	6.84228	10.8918	-42.9723	-21.689	74.592	14.398	-41.1371	-6.21748	0
0.3093	28.5508	-42.8958	10.3002	-13.6787	-19.8708	76.4331	8.59058	-17.9759	3.87169	0
0.3100	27.3718	-74.037	0.208788	24.4658	-20.163	129.853	-1.16891	6.74096	9.04154	-0.321946
0.3107	21.2721	-86.8443	-13.8148	51.0187	-28.7184	201.254	-4.82408	20.799	6.30858	-0.321946
0.3113	21.2721	-103.336	-16.2507	40.0304	-34.8225	260.136	-1.7812	23.2765	4.16776	-0.321946
0.3120	17.8891	-72.8089	-11.6921	8.90123	-35.7317	286.708	-3.30264	18.3792	-0.706015	0
0.3127	9.94407	20.8777	-3.445	23.2589	-32.9881	267.163	-6.34552	14.6918	-5.28372	0
0.3133	8.15004	89.8561	8.45591	76.968	-28.7184	200.334	-0.853492	13.77	-0.706015	0
0.3140	13.6347	68.8029	7.82955	112.975	-25.0495	80.0844	5.5477	14.9799	5.69367	0.321946
0.3147	18.8117	-68.5398	-1.91389	119.991	-22.9228	-156.425	4.63854	21.4328	5.69367	0
0.3153	22.7586	-191.525	-8.94308	92.2309	-21.9974	-366.056	-1.46578	23.8526	3.55285	-0.321946
0.3160	25.219	-106.085	-12.9101	32.7133	-22.3059	-311.746	-7.88552	16.2474	1.41203	-0.321946
0.3167	20.9646	-59.3875	-13.2232	9.20297	-20.4714	-150.626	-9.70383	4.6092	0.501043	0
0.3173	17.5815	-227.842	-4.97611	40.9608	-16.5103	-83.4903	-7.27323	2.82314	2.64186	0
0.3180	25.219	-190.619	9.98702	15.6149	-13.1498	-70.0509	-4.2118	8.00849	1.73087	0
0.3187	40.1864	89.242	19.4521	-47.2469	-11.3153	-62.4106	-3.91493	6.74096	-1.02486	-0.321946
0.3193	47.5163	150.267	10.3002	-10.6362	-9.1886	-57.8387	-3.91493	14.4038	0.204972	-0.321946
0.3200	33.4715	16.6086	-8.03834	63.5407	-7.35413	-55.1079	-2.07807	33.6472	0.204972	-0.321946
0.3207	15.4287	41.9309	-2.22707	83.6816	-7.04568	-52.3464	-1.7812	33.6472	-2.23192	0
0.3213	13.0196	137.752	18.8257	90.3953	-5.82811	-49.0018	-3.91493	17.7454	-1.02486	-0.321946
0.3220	13.0196	106.318	17.2946	102.59	-3.37673	-41.3616	-6.34552	8.00849	2.34579	-0.321946
0.3227	5.07455	85.587	14.5456	98.9445	-3.08451	-36.7897	-8.49781	-4.2059	1.73087	0
0.3233	-7.43243	120.354	15.7635	99.548	-2.46761	-37.0966	-10.3161	-24.0255	-0.409944	-0.321946
0.3240	-14.7623	150.589	-25.7157	4.92837	-0.0324686	-34.0282	-9.70383	-44.8245	-0.409944	0
0.3247	-8.97017	144.185	-65.6986	-251.095	0.584434	-33.1077	-8.18239	-57.9031	-3.75782	0.321946
0.3253	2.61416	49.2703	-36.0855	-389.039	-0.633137	-36.4829	-3.00577	-50.586	-7.42454	0
0.3260	9.02143	-18.1876	14.5456	-299.323	-0.324686	-36.7897	2.80168	-16.1322	-5.89864	-0.321946
0.3267	13.0196	18.7432	31.353	-187.932	-0.324686	-36.7897	4.02625	46.1497	-1.93585	0
0.3273	13.3271	49.2703	14.8587	-122.002	-0.941588	-34.9487	6.77227	105.666	0.501043	0
0.3280	3.53681	29.7376	-13.5016	-81.4186	-0.633137	-29.4563	9.51829	52.833	-1.02486	-0.321946
0.3287	-6.81733	13.5676	-25.7157	-66.4827	0.892885	-24.2708	5.84456	-95.1801	-1.93585	-0.321946
0.3293	-4.97204	19.9713	-13.5016	-62.2081	3.01958	-17.5511	2.80168	-167.775	0.819888	0
0.3300	2.92171	21.7842	1.7399	-56.3996	4.85405	-9.94151	1.89252	-123.872	2.02695	-0.321946
0.3307	2.61416	0.731013	14.5456	-49.9877	6.68852	-5.95264	-0.259758	-10.9469	0.819888	-0.321946
0.3313	2.92171	-21.5503	22.2011	-46.0148	7.59764	-9.63468	-3.91493	90.9742	0.204972	0
0.3320	8.15004	0.438608	-16.877	-41.1368	6.68852	-16.0476	-8.18239	87.6325	0.204972	-0.643892
0.3327	13.9422	23.9187	-55.9204	-32.8893	8.523	-14.2065	-3.00577	59.574	1.73087	-0.965839
0.3333	15.1211	-13.5968	-8.31672	-25.2705	10.6497	-16.0476	7.38456	82.7352	2.93793	-0.321946
0.3340	5.9972	-50.5276	54.2153	-22.8314	8.523	-19.6989	8.906	72.3645	1.11596	0.321946
0.3347	-1.94781	-42.8958	61.2445	-20.6941	8.21455	-4.1423	6.15998	34.2233	-1.32093	-0.321946
0.3353	4.45946	-33.7435	49.0304	-17.9533	10.049	11.1382	3.41397	23.5646	-2.23192	-0.321946
0.3360	13.6347	-43.2175	29.1955	-14.5839	12.1757	5.6458	3.41397	20.799	-2.23192	0
0.3367	10.5592	-20.3222	4.48894	-9.70586	11.2666	3.1911	11.0397	11.0621	-0.409944	0
0.3373	2.30661	38.2758	12.4229	-6.36162	1.20134	15.0964	14.398	-36.5856	1.11596	0
0.3380	-3.48555	57.1944	4.48894	-4.22431	-7.66258	26.6948	11.3366	-74.7267	1.73087	0
0.3387	-4.4082	30.03	-61.7316	-2.69049	-6.13656	30.653	9.81515	-35.0299	1.11596	-0.321946
0.3393	2.61416	-4.7662	-78.2259	-2.08701	-3.08451	35.5317	4.32312	-0.57615	0.204972	-0.321946
0.3400	9.94407	-20.0005	-23.9062	1.58412	-1.55849	55.3841	-1.46578	-9.10318	1.73087	0
0.3407	11.7894	-3.21646	-12.5969	4.62663	-0.633137	79.7776	-2.07807	4.95489	2.34579	0
0.3413	11.7894	20.8777	-48.2996	0.980644	-1.55849	105.736	-5.75179	35.7789	-1.02486	-0.643892
0.3420	14.5573	48.0422	-28.4648	1.58412	-0.0324686	133.505	-10.9284	73.5744	-1.93585	-0.643892
0.3427	16.6589	55.9663	34.6936	7.69429	0.584434	149.982	-10.9284	61.9938	-1.02486	-0.321946
0.3433	13.3271	32.7786	54.5285	9.52985	-5.51966	142.342	-6.66094	-40.2153	-2.55076	-0.321946
0.3440	10.2516	26.989	30.1351	9.52985	-8.88015	77.9672	3.41397	-84.4637	-1.02486	-0.321946
0.3447	10.2516	23.3339	-29.0911	8.5995	-7.04568	-15.7407	12.8766	-54.8495	1.11596	-0.321946
0.3453	7.53494	4.70772	-68.7608	7.69429	-1.85071	-93.2477	10.4274	-84.4637	1.11596	-0.321946
0.3460	2.61416	-6.90076	-43.4279	9.52985	3.32803	-132.922	3.09855	-102.497	2.93793	-0.321946
0.3467	-1.94781	-24.2989	-23.593	9.83159	1.20134	-128.043	0.0556625	-45.4007	2.34579	0
0.3473	-2.25536	-46.2585	-28.1516	9.20297	-2.77606	-103.312	2.80168	-4.49397	-1.32093	0
0.3480	4.767	-42.8958	-30.6222	10.4351	0.275983	-59.9866	7.38456	19.8772	-2.23192	-0.321946
0.3487	7.84249	-21.8427	-26.6553	9.52985	3.94493	-27.6153	1.89252	57.0965	-2.55076	-0.321946
0.3493	4.767	-15.439	-3.445	9.52985	5.76317	-25.805	-5.43637	47.0715	-2.84683	-0.321946
0.3500	4.45946	-12.9828	2.05308	13.7793	11.575	-28.5358	-6.04866	7.6628	-0.706015	0
0.3507	2.61416	10.2049	2.05308	15.3131	15.2278	-28.8427	-9.70383	37.565	0.819888	0
0.3513	0.512581	32.1646	60.3397	14.7097	13.7017	-21.8161	-11.8561	52.2569	2.02695	0
0.3520	7.22739	-2.0176	151.893	14.4079	10.6497	-17.8579	-8.49781	-31.4002	3.55285	0
0.3527	21.2721	-1.40354	210.18	11.642	5.47095	-24.2708	-5.75179	-67.0639	1.73087	0
0.3533	35.2656	126.173	205.587	10.7368	2.41891	-22.4298	0.0556625	-2.70791	1.41203	-0.321946
0.3540	34.3942	158.22	146.708	11.642	2.41891	-15.1271	4.02625	74.4963	2.64186	0
0.3547	17.5815	-2.92405	37.4426	10.7368	5.1625	-14.2065	0.352529	115.691	1.73087	0
0.3553	7.22739	-107.283	-65.3854	11.9689	11.2666	-12.0587	0.0556625	98.925	1.41203	-0.321946
0.3560	4.15191	-67.9257	-81.5665	12.8741	14.0102	-11.445	0.964817	84.0027	2.34579	-0.321946
0.3567	0.205032	-10.2342	-35.1808	11.3403	11.575	-13.286	-1.46578	200.846	2.34579	0
0.3573	4.767	-2.31	4.80212	11.3403	9.74057	-9.63468	-2.39349	401.058	2.93793	0
0.3580	12.4045	-35.8781	-46.4901	11.3403	9.12367	-7.17998	-2.69035	502.979	2.64186	-0.321946
0.3587	5.68965	-60.6156	-164.594	11.0385	9.12367	-6.56631	-1.7812	535.359	2.02695	-0.321946
0.3593	-11.3793	-46.2585	-203.638	11.3403	9.74057	-4.1423	0.964817	431.594	2.34579	-0.321946
0.3600	-20.862	-23.0708	-116.678	9.83159	9.12367	-5.95264	-0.556625	12.8482	0.819888	0
0.3607	-14.4548	-26.1118	-25.7157	8.90123	8.21455	-7.79366	-3.00577	-468.698	0.204972	-0.965839
0.3613	-7.12488	-38.0127	-25.1242	9.52985	8.523	-6.87315	-3.91493	-657.272	1.41203	-0.965839
0.3620	-6.20223	-30.9949	-48.2996	9.52985	8.523	-8.40733	-5.1395	-563.014	2.02695	-0.321946
0.3627	5.07455	-13.3044	-51.9534	9.83159	9.12367	-6.25947	-3.59951	-383.831	2.34579	0
0.3633	11.7894	20.2637	-36.3987	9.52985	10.049	-2.30128	-1.16891	-185.52	2.34579	-0.321946
0.3640	1.74278	46.8141	-19.9392	7.06567	9.43212	-3.52862	-2.69035	-3.62975	0.501043	0
0.3647	-11.3793	-5.96506	-34.276	5.85872	8.523	-5.33896	-4.52722	96.1595	-0.706015	0
0.3653	-34.5992	-76.4639	-40.6789	5.55698	7.90609	-6.56631	-5.1395	47.9933	-1.02486	0
0.3660	-47.4137	-56.6389	-17.4686	6.76393	9.74057	-7.79366	-4.52722	-123.872	-0.113873	-0.321946
0.3667	-31.5237	-10.2342	-4.66293	6.76393	12.1757	-5.6458	-1.46578	-187.307	0.819888	-0.321946
0.3673	-18.7092	-29.4744	-14.128	3.41968	10.6497	-0.153418	0.352529	-140.638	-1.32093	0
0.3680	-19.0168	-35.5857	-1.00914	1.88585	8.81521	2.27059	0.0556625	-181.199	-2.23192	0
0.3687	-19.9394	47.1357	33.4757	2.48933	7.90609	-0.767092	-2.07807	-255.062	-2.55076	-0.321946
0.3693	-16.9152	79.4757	24.9502	3.41968	6.99697	-0.460255	-3.91493	-242.847	-2.84683	-0.321946
0.3700	-11.123	34.9132	-9.84783	7.06567	6.38007	4.41845	-0.853492	-164.145	-1.02486	0
0.3707	-7.43243	7.13468	-12.0053	8.5995	5.76317	2.57743	0.964817	-81.4101	0.204972	0
0.3713	-5.58713	-20.6146	11.5181	6.46219	4.85405	-1.6876	-3.00577	-27.4248	-2.23192	-0.321946
0.3720	-10.2004	-30.3809	41.4096	8.29776	5.76317	3.80478	-5.1395	55.5985	-1.63978	-0.321946
0.3727	-13.8397	-21.5503	41.4096	12.5724	6.07162	9.91083	-3.00577	99.2131	0.501043	0
0.3733	-4.4082	-21.5503	0.835152	14.7097	6.07162	10.5245	-2.07807	-40.8491	1.73087	0
0.3740	6.91984	-18.1876	-27.56	13.7793	6.99697	10.8313	-2.07807	-143.98	2.93793	-0.643892
0.3747	10.2516	-33.1295	-33.0581	6.46219	6.38007	8.06981	-3.30264	-70.1175	1.41203	-0.321946
0.3753	11.4818	-28.2463	-36.3987	-0.553184	4.85405	4.72529	-4.2118	-21.6056	-0.706015	0
0.3760	17.274	-11.4623	-42.21	-1.45839	4.23715	4.11161	-3.59951	-22.8156	-0.113873	0
0.3767	10.5592	-31.9014	-35.494	-2.08701	4.23715	2.88427	-1.16891	14.9799	0.819888	0
0.3773	-10.5079	-21.2286	-12.2837	-5.733	5.1625	3.1911	3.41397	48.8576	2.02695	0
0.3780	-20.5545	10.819	2.64465	-7.56856	5.47095	2.88427	4.93541	44.306	2.34579	0
0.3787	-23.3224	8.36279	8.14273	-0.854921	3.63648	0.153418	1.28024	35.7789	2.64186	0
0.3793	-24.8089	-14.8249	13.6408	10.1333	2.72736	0.460255	-1.7812	-24.3712	3.87169	0
0.3800	-15.0699	3.47962	15.7635	12.8741	2.11046	1.04325	-3.00577	-141.56	3.25678	-0.321946
0.3807	-2.25536	66.9608	7.23798	12.5724	2.41891	2.57743	-1.16891	-122.029	2.93793	-0.321946
0.3813	-1.02516	69.0953	-12.2837	16.5452	3.63648	6.53563	3.41397	32.7253	3.87169	0
0.3820	-7.43243	43.773	-37.3034	22.3285	3.32803	5.95264	3.71083	142.597	3.55285	0
0.3827	-8.04752	55.0599	-25.4025	29.9725	2.41891	3.49794	1.28024	175.841	2.34579	-0.321946
0.3833	-3.48555	8.07038	29.5087	25.3962	1.49355	3.49794	-0.259758	103.189	1.11596	-0.321946
0.3840	-5.89468	-71.2884	43.8455	-6.66335	0.892885	2.88427	-2.07807	-28.6347	-1.32093	0
0.3847	-15.685	-66.0835	32.8841	-28.6398	1.80201	4.41845	-1.46578	-60.3806	-1.63978	0
0.3853	-15.3774	-15.1173	49.0304	-16.7212	1.80201	4.72529	0.0556625	-13.3667	-0.409944	-0.321946
0.3860	-5.58713	22.7199	63.4019	-6.66335	0.275983	2.57743	-0.853492	-11.8687	-1.02486	-0.321946
0.3867	2.30661	42.8666	49.9699	-13.0753	0.275983	1.65692	-1.46578	-45.7463	-1.32093	-0.321946
0.3873	6.30475	30.3516	12.1097	-17.3499	-0.0324686	1.65692	-2.39349	-64.9322	-1.63978	-0.643892
0.3880	2.92171	4.38608	4.48894	-15.2126	-0.941588	2.57743	-2.39349	-75.3029	-1.32093	-0.321946
0.3887	-0.410065	4.09367	18.5125	-12.7484	0.275983	4.41845	0.352529	-58.825	-0.113873	-0.321946
0.3893	1.74278	3.18722	-3.75818	-13.0753	1.20134	5.03212	1.28024	-26.791	0.819888	0
0.3900	1.12768	8.36279	-30.9006	-15.2126	-0.0324686	3.80478	-0.556625	-37.7955	0.204972	0
0.3907	-0.410065	47.4281	-23.9062	-15.816	-1.85071	2.57743	-2.07807	-56.6932	-1.02486	-0.965839
0.3913	-0.102516	27.2814	-3.445	-13.0753	-1.85071	2.57743	-2.39349	-3.28406	-1.32093	-0.965839
0.3920	1.74278	-44.4163	2.05308	-8.49892	-0.941588	5.6458	0.352529	61.4176	-0.706015	0.321946
0.3927	6.91984	-35.8781	-5.56768	6.46219	-0.324686	5.95264	1.5771	57.7303	0.501043	0.321946
0.3933	9.32897	15.3805	-13.2232	24.1641	-1.25004	2.88427	-1.46578	50.7012	1.73087	-0.321946
0.3940	7.22739	21.4918	-9.53465	22.9571	-2.46761	1.35008	-3.30264	9.21841	1.41203	-0.321946
0.3947	3.22926	7.45633	4.17576	11.0385	-2.77606	1.35008	-3.00577	-55.7714	0.501043	0
0.3953	1.12768	11.433	14.5456	5.55698	-2.46761	3.1911	-2.07807	-28.0009	0.204972	-0.321946
0.3960	5.68965	41.9309	42.9407	5.55698	-1.85071	5.95264	0.352529	-1.49799	1.41203	-0.321946
0.3967	8.15004	59.329	87.4822	4.62663	-1.85071	5.6458	0.964817	-18.552	1.73087	-0.321946
0.3973	3.22926	29.7376	86.5774	2.81621	-2.46761	3.49794	-1.7812	9.79456	0.819888	-0.321946
0.3980	0.512581	-21.5503	24.637	1.88585	-3.68518	2.27059	-3.59951	65.3355	-0.113873	-0.321946
0.3987	2.30661	-55.1184	-47.708	1.88585	-3.99363	1.04325	-2.69035	111.139	-0.113873	0
0.3993	3.22926	-54.7967	-84.3155	2.18759	-2.46761	2.57743	0.964817	123.642	0.204972	-0.321946
0.4000	3.53681	-55.1184	-44.959	2.18759	-1.55849	4.11161	2.80168	69.9447	1.11596	0
0.4007	8.40633	-42.2818	22.2011	1.88585	-2.46761	3.49794	0.352529	2.18937	0.819888	0
0.4013	13.0196	12.6319	34.102	0.980644	-3.37673	1.96376	-1.7812	12.272	0.204972	-0.321946
0.4020	10.5592	44.3871	22.4795	0.678908	-3.99363	1.04325	-2.69035	37.2769	0.204972	0
0.4027	3.22926	60.5571	4.17576	1.88585	-3.68518	3.1911	-1.7812	7.37473	0.819888	0
0.4033	-1.02516	56.5804	-32.4317	3.11795	-2.77606	5.95264	0.352529	8.00849	1.41203	0
0.4040	-1.64026	-34.9716	-36.0855	2.81621	-2.77606	5.03212	0.964817	44.9397	1.41203	0
0.4047	-3.178	-83.8033	3.27101	0.980644	-3.37673	2.57743	0.352529	73.5744	0.501043	-0.321946
0.4053	-2.87045	3.80127	32.2577	-0.251447	-4.90275	1.04325	-0.259758	126.984	-0.409944	0
0.4060	-1.94781	62.9841	24.9502	0.352026	-4.90275	1.96376	-0.556625	166.392	-0.113873	0
0.4067	-1.33271	37.9834	7.82955	1.28238	-3.37673	3.80478	-0.259758	96.7933	0.819888	-0.321946
0.4073	0.205032	9.26924	0.835152	-0.553184	-3.08451	3.80478	-0.556625	-36.2399	0.501043	-0.321946
0.4080	3.84436	-6.90076	-13.2232	-2.99222	-4.30208	1.96376	-1.7812	-132.111	-0.113873	0
0.4087	10.8667	0.731013	-27.8732	-3.89743	-4.90275	1.04325	-3.30264	-176.648	-0.706015	0
0.4093	16.6589	11.7254	-13.8148	-3.29396	-4.61054	1.35008	-3.30264	-153.429	-1.02486	0
0.4100	18.1966	1.66671	4.48894	-2.69049	-3.68518	2.88427	-2.07807	-81.7558	-0.409944	-0.321946
0.4107	20.9646	-6.28671	2.36626	-1.45839	-3.08451	4.11161	-1.46578	-22.2394	0.501043	-0.321946
0.4113	21.2721	0.438608	2.64465	-2.08701	-3.37673	2.88427	-1.7812	-0.23046	0.204972	-0.321946
0.4120	18.1966	10.4973	6.9248	-3.29396	-4.30208	1.35008	-3.00577	-5.41581	-0.706015	0
0.4127	15.7362	11.433	4.80212	1.58412	-4.61054	0.767092	-3.59951	-4.83966	-1.02486	-0.321946
0.4133	6.30475	11.433	14.2672	7.39255	-4.30208	1.65692	-2.39349	15.3256	0.501043	-0.321946
0.4140	-4.4082	13.86	34.3804	6.46219	-3.08451	4.11161	0.66795	33.0134	2.02695	-0.321946
0.4147	2.30661	2.25152	56.6859	3.72142	-3.08451	4.11161	1.28024	22.6427	2.34579	-0.321946
0.4153	13.0196	-5.96506	73.4586	1.58412	-3.99363	1.04325	-1.16891	1.26753	0.204972	-0.321946
0.4160	9.63652	12.0178	46.9077	-0.553184	-4.30208	-0.153418	-2.69035	9.50648	-0.706015	-0.321946
0.4167	9.02143	23.6263	-4.97611	-0.553184	-4.30208	0.767092	-2.69035	19.301	-0.113873	0
0.4173	13.6347	10.2049	-23.2799	0.980644	-3.68518	2.27059	-1.16891	-6.97142	1.11596	0
0.4180	11.1743	-10.2342	-19.6261	1.28238	-3.08451	2.57743	-0.556625	-55.4833	1.41203	0
0.4187	8.40633	-47.1649	-13.5016	0.678908	-3.37673	1.04325	-2.07807	-91.4927	0.204972	-0.321946
0.4193	6.6123	-65.1771	-16.877	-0.251447	-4.30208	-0.460255	-3.00577	-89.3609	-0.706015	-0.321946
0.4200	-8.04752	-11.7839	-29.3695	-0.251447	-4.30208	-0.767092	-2.39349	-71.3274	-0.113873	0
0.4207	-18.7092	31.2581	-40.3657	0.980644	-3.37673	1.35008	-0.853492	-13.3667	0.501043	-0.643892
0.4213	-4.97204	17.2227	-73.6326	2.48933	-2.46761	3.1911	0.964817	94.9496	1.11596	-0.965839
0.4220	10.2516	7.74873	-108.431	1.58412	-2.77606	1.96376	0.964817	120.012	1.11596	-0.321946
0.4227	13.6347	3.18722	-105.995	-0.553184	-3.68518	0.153418	-0.259758	64.4712	0.204972	0
0.4233	17.8891	-10.2342	-56.2336	-0.553184	-3.99363	-0.153418	-1.46578	9.21841	-0.409944	0
0.4240	20.9646	-19.4157	7.55116	0.352026	-3.37673	0.767092	-1.16891	-43.557	0.204972	0
0.4247	18.1966	-33.7435	39.8785	0.980644	-2.77606	2.27059	1.28024	2.18937	1.41203	0
0.4253	18.1966	-31.9014	42.9407	1.28238	-2.46761	2.88427	3.09855	82.7352	2.02695	0
0.4260	18.1966	3.18722	26.4465	1.28238	-2.77606	1.96376	2.80168	62.6276	1.41203	0
0.4267	13.0196	17.5151	15.7635	0.352026	-3.08451	0.767092	2.18939	42.808	0.204972	-0.321946
0.4273	8.40633	3.80127	28.9171	-0.251447	-3.08451	0.153418	1.5771	70.8665	0.204972	0
0.4280	14.5573	12.3395	56.3727	0.352026	-3.08451	0.767092	2.48626	87.0563	1.11596	0
0.4287	25.5265	0.731013	106.725	1.28238	-2.46761	2.57743	3.71083	80.9491	1.73087	0
0.4293	25.8341	-39.5332	165.325	1.28238	-2.46761	2.27059	3.41397	76.3399	1.73087	0
0.4300	16.3513	-18.8016	180.88	-0.251447	-3.08451	0.460255	1.28024	114.481	0.501043	-0.321946
0.4307	5.07455	25.4685	147.926	-1.45839	-3.08451	-0.767092	0.0556625	164.26	-0.409944	-0.321946
0.4313	-4.10065	25.7609	100.636	-1.15666	-3.08451	-0.153418	0.0556625	103.822	-0.113873	0
0.4320	-16.3001	1.95911	60.9313	0.352026	-2.46761	2.27059	1.5771	-2.36222	1.11596	-0.321946
0.4327	-31.2162	-11.4623	74.3633	0.678908	-1.55849	3.1911	3.09855	-13.6548	1.41203	0
0.4333	-26.6542	16.6086	108.57	-1.45839	-2.46761	0.767092	0.964817	-37.1617	-0.409944	-0.321946
0.4340	-8.66262	37.9834	24.9502	-2.69049	-3.37673	-0.460255	-1.16891	-71.6731	-1.02486	-0.321946
0.4347	-4.4082	11.433	-70.2919	-1.78528	-3.08451	0.460255	-0.259758	1.26753	0.204972	0
0.4353	-6.81733	-47.1649	-89.1873	-0.251447	-2.15916	1.96376	0.66795	150.202	0.819888	0
0.4360	-1.02516	-88.0724	-185.334	0.980644	-1.25004	3.80478	2.48626	194.163	1.73087	0
0.4367	4.45946	-12.0763	-192.363	-0.854921	-2.46761	1.65692	1.5771	-14.2885	0.204972	-0.321946
0.4373	1.12768	105.704	-51.675	-2.08701	-4.30208	-1.99444	-1.46578	-221.53	-1.02486	-0.321946
0.4380	-12.917	104.184	-16.5638	-0.553184	-3.08451	0.153418	-0.556625	-238.872	0.501043	0
0.4387	-38.5461	-4.44456	-3.13182	0.0502895	-1.85071	3.1911	1.5771	-169.619	2.02695	0.321946
0.4393	-50.4892	-94.7685	60.3397	0.352026	-1.25004	4.11161	1.5771	-51.8535	1.73087	0
0.4400	-36.4445	-88.9789	54.2153	0.352026	-1.25004	3.1911	1.28024	52.2569	0.501043	-0.321946
0.4407	-22.3998	-58.7734	-0.382778	-0.553184	-1.85071	1.65692	0.0556625	81.2372	-0.409944	0
0.4413	-16.3001	-46.8725	-42.21	-0.854921	-1.25004	2.27059	0.66795	98.925	0.204972	0
0.4420	-11.6868	-60.908	-45.8638	-0.251447	-0.324686	2.57743	1.89252	182.524	0.501043	0
0.4427	-6.20223	-86.8443	-18.9997	-0.251447	-0.324686	1.65692	1.5771	302.767	-0.113873	0
0.4433	4.15191	11.7254	28.9171	-0.251447	0.275983	3.1911	1.5771	228.617	-0.113873	-0.965839
0.4440	16.3513	125.559	130.527	0.980644	2.11046	4.11161	2.48626	-113.156	0.819888	-0.321946
0.4447	21.5797	75.2066	218.114	-0.553184	1.20134	0.767092	0.964817	-304.496	-0.113873	0
0.4453	26.7567	39.5039	206.213	-2.69049	-0.941588	-3.83546	1.89252	-191.282	-1.63978	-0.321946
0.4460	30.0885	72.1363	139.679	-2.38875	-1.85071	-5.03212	5.84456	-72.883	-1.32093	0
0.4467	20.0419	92.6047	15.4851	-1.45839	-1.25004	-1.6876	5.5477	-64.6441	-0.706015	0
0.4473	18.8117	149.361	-156.034	-0.553184	-0.633137	1.35008	3.41397	-117.419	0.204972	0
0.4480	29.1659	159.419	-242.994	-1.45839	-1.85071	-0.460255	0.66795	-126.58	-0.409944	0
0.4487	24.2963	88.3356	-240.245	-1.78528	-2.15916	-0.460255	-0.259758	-83.2537	-0.706015	-0.321946
0.4493	3.84436	2.86557	-196.017	-0.854921	-1.25004	1.04325	1.28024	-43.557	0.204972	0
0.4500	-22.0922	-95.7042	-98.9655	-1.78528	-1.55849	0.153418	1.28024	56.2323	-0.113873	0
0.4507	-38.8536	-110.968	-33.6497	-1.45839	-0.941588	0.767092	0.352529	140.754	-0.706015	-0.965839
0.4513	-41.6216	-43.2175	-31.527	-0.854921	-1.25004	1.65692	-1.46578	101.057	-0.706015	-0.965839
0.4520	-36.4445	-21.8427	-24.1846	-1.78528	-2.15916	0.153418	-3.30264	-5.12774	-0.706015	0
0.4527	-24.8089	-36.4922	-12.5969	-1.45839	-1.55849	1.04325	-2.07807	-68.3315	-0.113873	0
0.4533	-5.58713	-70.0603	-13.8148	-0.553184	-0.941588	1.96376	0.352529	-74.093	0.204972	0
0.4540	13.9422	-118.6	3.27101	-0.251447	0.275983	2.27059	1.5771	-77.7803	0.819888	-0.321946
0.4547	27.0643	-82.5752	65.5246	0.0502895	0.584434	2.57743	2.48626	-134.819	0.819888	-0.321946
0.4553	31.0112	-11.7839	123.185	-0.251447	-0.324686	1.96376	1.89252	-216.287	0.501043	0
0.4560	9.63652	-49.9136	103.976	-0.553184	-0.941588	1.96376	1.28024	-168.697	0.204972	0
0.4567	-31.5237	-137.518	61.5576	-1.78528	-1.55849	0.153418	-0.556625	-45.7463	-0.706015	0
0.4573	-30.6523	-128.658	64.6199	-2.08701	-0.633137	-0.153418	-0.556625	-7.89326	-0.409944	-0.321946
0.4580	14.2498	31.5505	49.3436	-1.15666	0.275983	1.35008	0.66795	0.979456	0.819888	-0.321946
0.4587	38.3411	176.525	33.4757	-0.854921	-0.324686	1.65692	0.964817	1.55561	0.819888	0
0.4593	36.4958	153.951	86.2642	-0.553184	-0.941588	1.65692	1.89252	-61.8786	1.11596	0
0.4600	24.9114	54.7675	80.1746	-1.45839	-2.77606	-0.767092	0.352529	-116.21	0.204972	-0.321946
0.4607	0.205032	51.0832	-10.161	-2.38875	-3.37673	-2.60811	-1.7812	-107.683	-1.32093	-0.321946
0.4613	-25.7316	125.237	-40.0525	-0.251447	-1.55849	1.35008	1.28024	32.3797	0.501043	-0.321946
0.4620	-30.3448	79.7681	-17.1902	0.352026	-1.25004	1.96376	2.80168	238.987	1.41203	0
0.4627	-13.8397	-42.2818	-13.5016	-1.15666	-2.77606	-0.767092	1.28024	306.743	0.204972	-0.321946
0.4633	-0.410065	-146.349	-37.9298	-1.78528	-3.37673	-1.6876	0.352529	235.646	-0.113873	0
0.4640	-2.56291	-247.989	-59.8873	-1.78528	-3.08451	-2.60811	-0.853492	33.9353	-1.02486	0
0.4647	-11.9944	-167.11	-69.074	0.0502895	-0.633137	0.153418	1.5771	-150.375	-0.409944	0
0.4653	-18.0941	129.828	-55.9204	1.28238	0.892885	1.96376	3.71083	-111.658	1.41203	0
0.4660	-16.9152	295.241	-75.1637	-0.854921	-0.633137	-0.767092	0.964817	44.9397	-0.113873	0
0.4667	-8.97017	193.309	-135.573	-2.69049	-2.46761	-3.22179	-1.7812	188.977	-1.93585	0
0.4673	3.84436	0.116962	-82.4712	-2.38875	-2.77606	-4.1423	-3.00577	279.894	-1.93585	0
0.4680	21.836	-117.05	125.934	-0.854921	-1.55849	-1.6876	-1.46578	261.918	-1.02486	0
0.4687	38.6486	-81.6687	350.868	0.352026	-0.324686	0.460255	0.66795	41.2524	-0.113873	0
0.4693	29.1659	-27.6323	383.195	0.0502895	-0.941588	-0.460255	0.964817	-150.721	0.204972	0
0.4700	3.84436	-34.3576	161.637	-0.854921	-1.85071	-1.99444	2.18939	-41.4252	0.204972	0
0.4707	3.53681	-23.0708	-97.4344	-1.15666	-2.77606	-3.52862	2.80168	78.4717	-0.113873	0
0.4713	-4.10065	-7.51481	-146.882	-1.15666	-3.08451	-3.83546	1.89252	41.8861	-0.409944	-0.321946
0.4720	-43.4669	-32.5154	-30.6222	-0.854921	-2.46761	-1.07393	1.89252	7.6628	0.501043	-0.321946
0.4727	-63.9189	-52.3698	27.0728	-0.251447	-2.15916	0.767092	1.89252	40.0425	1.11596	0
0.4733	-52.8984	7.45633	-50.4571	-0.854921	-2.46761	-0.153418	0.66795	121.51	0.501043	0
0.4740	-29.4221	39.5039	-157.565	-2.08701	-2.77606	-1.6876	-1.16891	87.6325	-0.113873	0
0.4747	9.02143	-103.014	-217.07	-2.69049	-2.77606	-2.60811	-2.39349	-121.107	-0.706015	0
0.4753	28.8583	-261.089	-266.205	-0.553184	-0.633137	-0.153418	0.0556625	-279.779	0.204972	0
0.4760	8.40633	-192.432	-275.043	0.352026	0.892885	1.35008	2.48626	-244.979	0.819888	-0.321946
0.4767	-21.4771	-49.2995	-142.289	-0.553184	-0.0324686	-0.153418	1.5771	-124.16	0.204972	-0.321946
0.4773	-50.4892	-74.9434	24.9502	-1.15666	-0.941588	-1.6876	-0.259758	-61.8786	-0.409944	-0.321946
0.4780	-75.5032	-133.22	15.7635	-1.78528	-2.15916	-2.60811	-1.16891	-48.7999	-1.02486	-0.321946
0.4787	-80.3727	-121.319	-50.1439	-1.15666	-1.85071	-1.07393	-0.259758	-9.10318	-0.113873	-0.321946
0.4793	-76.7334	-8.09962	38.9738	0.678908	0.275983	1.96376	1.5771	15.9018	0.819888	-0.321946
0.4800	-68.1733	221.994	143.959	0.0502895	-0.324686	0.767092	0.0556625	-63.7222	-0.113873	-0.321946
0.4807	-48.9515	296.762	129.901	-2.08701	-1.25004	-1.99444	-2.69035	-145.824	-0.706015	-0.321946
0.4813	-38.5461	181.408	151.267	-2.99222	-0.941588	-3.52862	-6.34552	-64.0103	-2.23192	-0.965839
0.4820	-24.8089	138.366	195.217	-2.08701	-0.0324686	-1.99444	-6.95781	134.646	-2.23192	-0.965839
0.4827	5.9972	125.851	118.626	-0.854921	1.20134	1.04325	-3.59951	305.533	-0.409944	0
0.4833	29.4734	-2.31	10.8918	-1.15666	0.584434	0.460255	-3.00577	477.629	-0.113873	0
0.4840	51.1556	-30.3809	-78.2259	-2.08701	-0.324686	-1.6876	-5.1395	589.978	-1.02486	0
0.4847	74.6318	134.097	-131.328	-2.99222	0.275983	-3.52862	-6.66094	510.008	-1.93585	0
0.4853	60.0232	180.794	-62.9496	-2.99222	0.892885	-4.1423	-7.27323	399.848	-2.23192	-0.321946
0.4860	10.2516	45.2935	18.5125	-1.15666	1.20134	-1.07393	-4.82408	213.982	-1.02486	-0.321946
0.4867	-26.9618	-31.3166	-13.5016	0.352026	0.892885	0.767092	-1.7812	-119.263	0.501043	-0.321946
0.4873	-39.1612	6.84228	-46.4901	0.0502895	-0.633137	0.153418	-1.16891	-238.008	0.819888	0
0.4880	-33.369	19.3572	0.52197	0.0502895	-1.85071	0.153418	-0.556625	-95.4681	1.11596	0
0.4887	-31.5237	-31.609	66.151	0.0502895	-2.15916	-0.153418	-0.556625	-22.5275	1.11596	0
0.4893	-45.876	-57.2529	62.7756	0.0502895	-1.55849	1.65692	0.964817	-136.951	2.02695	0.321946
0.4900	-48.0288	20.5853	-44.6458	0.678908	-0.633137	4.11161	2.80168	-275.515	2.93793	0
0.4907	-37.931	130.12	-97.1212	0.980644	-0.324686	3.1911	1.89252	-328.291	2.93793	-0.321946
0.4913	-34.9068	115.178	-64.4807	0.352026	0.275983	1.65692	0.352529	-335.665	2.02695	-0.321946
0.4920	-33.6766	37.0477	-49.8307	-1.45839	0.892885	-0.460255	-2.69035	-267.91	-0.113873	0
0.4927	-32.7539	12.9535	6.61162	-1.45839	1.80201	-1.6876	-3.91493	-152.853	-0.706015	0
0.4933	-37.3672	8.68443	59.7134	0.0502895	3.01958	0.153418	-1.16891	-56.1171	0.501043	-0.321946
0.4940	-42.5442	16.3162	25.5417	0.0502895	3.01958	0.460255	0.352529	-31.0545	0.819888	0
0.4947	-34.9068	41.0244	-18.7213	-0.854921	2.41891	-0.460255	0.352529	-136.663	0.501043	0
0.4953	-26.3467	3.47962	-12.9101	-1.45839	2.11046	-2.60811	-0.259758	-219.686	-0.409944	0
0.4960	-21.7847	-91.4351	47.2209	-1.15666	2.41891	-2.91495	-0.259758	-126.58	-1.02486	0
0.4967	-0.717613	-112.781	131.432	0.678908	4.5456	0.767092	4.02625	34.5114	0.204972	0
0.4973	14.8649	-104.242	200.123	0.678908	5.76317	1.04325	6.45685	110.506	1.11596	0
0.4980	22.451	-87.4584	181.193	-0.854921	5.1625	-1.07393	5.25083	112.637	0.204972	0
0.4987	41.9804	-38.9484	36.5379	-0.854921	4.23715	-1.38077	5.25083	184.368	-0.409944	0.321946
0.4993	40.8014	-64.563	-54.1109	-0.854921	3.63648	-2.30128	5.5477	315.615	-0.409944	0
0.5000	25.8341	-6.90076	-36.3987	-0.251447	4.23715	-1.38077	5.84456	333.303	-0.113873	-0.321946
0.5007	38.0335	118.541	-109.335	1.28238	4.85405	0.460255	7.06914	230.46	0.819888	-0.321946
0.5013	69.1472	-21.2286	-320.524	0.980644	3.32803	-0.153418	6.77227	183.446	1.11596	-0.321946
0.5020	77.0922	-203.719	-439.847	0.0502895	1.20134	-0.460255	4.32312	234.436	1.11596	-0.321946
0.5027	31.9338	-188.484	-309.841	-1.15666	0.275983	-0.767092	1.28024	363.493	0.204972	-0.321946
0.5033	-13.5321	-220.21	-246.057	-1.15666	1.20134	0.153418	0.964817	454.467	0.501043	0
0.5040	-6.81733	-303.516	-442.596	0.678908	3.01958	2.57743	3.41397	201.768	2.02695	-0.321946
0.5047	-2.25536	-325.505	-399.551	0.352026	2.72736	2.57743	2.80168	-167.487	1.73087	-0.321946
0.5053	-30.3448	-227.842	17.0162	-1.45839	2.11046	0.460255	0.66795	-291.359	0.501043	-0.321946
0.5060	-54.7437	-52.9838	171.415	-2.38875	1.20134	-0.460255	0.66795	-483.621	-0.113873	0
0.5067	-52.8984	-27.6323	6.61162	-1.45839	1.80201	0.767092	2.18939	-716.213	0.501043	0
0.5073	-34.5992	5.32177	50.8747	1.58412	5.1625	3.49794	5.5477	-624.662	2.02695	0
0.5080	-24.8089	173.776	294.113	1.28238	6.68852	2.57743	6.45685	-280.124	1.41203	0
0.5087	-15.9925	120.354	356.645	-0.553184	6.68852	-0.153418	4.93541	120.876	-0.409944	0
0.5093	10.8667	-126.202	235.826	0.0502895	6.99697	-1.38077	4.93541	140.754	-1.02486	0
0.5100	39.5713	-224.187	206.526	0.0502895	6.99697	-1.6876	4.63854	-209.604	-1.32093	-0.321946
0.5107	45.3634	-60.908	237.949	0.352026	7.28919	-1.07393	3.41397	-252.93	-1.02486	-0.965839
0.5113	40.1864	232.053	160.14	1.88585	8.21455	1.04325	2.80168	-62.2243	0.204972	-0.643892
0.5120	30.3961	334.599	101.854	2.18759	6.99697	1.65692	1.89252	-12.4449	0.501043	0
0.5127	20.0419	276.323	125.934	0.678908	5.1625	-0.153418	0.66795	182.524	0.204972	0.321946
0.5133	36.1882	216.204	30.1351	-0.251447	3.94493	-1.38077	-0.259758	365.049	0.204972	0
0.5140	62.1248	109.389	-111.18	0.678908	4.23715	1.04325	0.352529	110.218	0.501043	0
0.5147	66.123	59.0366	-96.8428	1.58412	5.47095	3.80478	1.5771	-48.4543	1.73087	-0.321946
0.5153	57.2553	126.465	-13.5016	0.678908	5.76317	2.27059	1.28024	230.46	1.41203	-0.321946
0.5160	53.616	138.98	63.9935	-0.553184	5.47095	-0.767092	0.352529	416.902	-0.113873	-0.321946
0.5167	70.3774	36.4337	136.93	-1.15666	4.85405	-2.30128	-0.853492	264.972	-1.32093	-0.321946
0.5173	86.8825	-37.1062	199.184	-0.854921	4.85405	-1.99444	-1.7812	-55.7714	-1.02486	0
0.5180	58.1779	-49.6211	219.645	0.678908	5.47095	1.35008	0.964817	-280.989	0.819888	0
0.5187	-3.178	-101.201	118	0.980644	5.1625	3.49794	3.71083	-278.569	1.73087	-0.321946
0.5193	-35.2143	-272.083	-37.9298	-0.251447	3.94493	2.57743	3.09855	-257.827	1.11596	-0.321946
0.5200	-21.4771	-438.111	-149.318	-1.15666	3.32803	1.96376	2.80168	-261.457	0.819888	0
0.5207	-5.58713	-364.863	-180.462	-1.45839	3.63648	2.27059	2.18939	-225.793	0.501043	0
0.5213	-11.9944	-208.602	-156.661	-0.854921	4.85405	3.49794	1.5771	-216.633	1.11596	0
0.5220	-13.2246	-139.039	-168.561	0.352026	6.07162	5.6458	2.18939	-217.209	2.64186	0
0.5227	11.4818	-50.5276	-104.777	-0.553184	5.76317	4.72529	2.18939	-150.375	2.02695	0
0.5233	43.5181	69.0953	53.3105	-1.78528	5.1625	2.88427	1.5771	82.4471	0.819888	0
0.5240	55.7176	142.957	119.531	-2.38875	4.5456	2.27059	2.80168	471.867	0.204972	0
0.5247	39.8788	8.97684	65.8378	-1.78528	4.23715	2.88427	7.06914	751.992	0.501043	-0.321946
0.5253	12.712	-190.911	-70.2919	0.980644	5.47095	5.6458	13.7857	723.933	2.02695	0.321946
0.5260	-23.9375	-122.547	-168.84	1.88585	6.07162	4.72529	15.0103	445.595	2.02695	0
0.5267	-57.204	78.5693	-157.252	0.678908	4.5456	1.04325	11.9489	81.2372	0.501043	-0.321946
0.5273	-41.314	172.256	-193.581	0.0502895	5.1625	-1.38077	11.652	-217.842	0.204972	-0.321946
0.5280	-1.33271	196.672	-269.545	0.352026	3.94493	-3.83546	12.5612	-348.744	-0.409944	0
0.5287	9.63652	245.503	-156.661	1.28238	-5.2112	-4.75597	15.0103	-388.153	-1.02486	0
0.5293	6.6123	318.429	74.3633	1.88585	-14.3673	-4.75597	16.5318	-455.562	-0.706015	-0.321946
0.5300	-2.87045	287.288	206.213	0.352026	-18.637	-5.95264	6.77227	-414.079	-1.02486	0
0.5307	-26.0391	100.851	271.529	-0.251447	-18.9454	-6.25947	-4.52722	-225.16	-1.63978	0.321946
0.5313	-23.9375	-49.2995	264.813	-0.553184	-14.3673	-7.17998	-12.153	-108.259	-2.23192	0
0.5320	4.15191	-103.628	144.864	-1.45839	-7.35413	-5.6458	-21.6156	-54.2734	-2.84683	0
0.5327	3.84436	-157.343	53.3105	-0.854921	0.275983	1.65692	-25.8831	-8.18134	-2.23192	0
0.5333	-13.5321	-183.601	71.9275	-1.15666	5.76317	7.1493	-26.4953	-88.151	-1.93585	-0.321946
0.5340	9.94407	-173.835	125.342	-2.08701	10.9581	8.37665	-28.3322	-144.902	-1.63978	-0.321946
0.5347	70.3774	-68.2181	134.494	-1.78528	17.3707	5.03212	-26.4953	-106.127	-1.32093	0
0.5353	114.921	125.559	25.5417	-1.45839	22.8579	-0.153418	-24.0462	-71.6731	-1.63978	-0.321946
0.5360	119.841	122.81	-174.964	-0.251447	27.4359	-0.460255	-23.137	62.6276	-0.706015	-0.321946
0.5367	92.9822	48.3346	-244.525	-0.854921	27.4359	1.04325	-35.6425	307.376	-0.409944	0
0.5373	44.7483	211.906	-156.034	-2.69049	19.2052	1.96376	-62.1936	485.58	-2.84683	-0.321946
0.5380	-9.58527	244.275	-154.19	-4.22431	11.2666	3.1911	-71.6562	486.501	-4.37274	0
0.5387	-43.4669	-2.31	-156.034	-6.03473	10.9581	1.04325	-58.2415	285.713	-5.60257	-0.321946
0.5393	-53.821	-70.6743	27.0728	-6.03473	12.4842	-0.153418	-46.6452	-135.453	-5.28372	-0.321946
0.5400	-51.9757	0.116962	149.457	-4.22431	11.8673	5.33896	-43.2869	-431.133	-2.84683	-0.321946
0.5407	-23.9375	-17.2811	130.527	-4.22431	13.3933	11.7519	-39.0009	-335.665	-2.55076	-0.965839
0.5413	17.274	-37.3986	150.675	-4.82779	12.4842	9.29716	-35.0488	-182.467	-4.07667	-0.965839
0.5420	34.7017	-70.0603	208.962	-4.82779	-14.9842	-0.460255	-39.3163	-85.6736	-5.60257	0
0.5427	32.2413	-67.0192	307.231	-5.43126	-58.3135	-9.63468	-47.2389	35.4333	-6.51355	0
0.5433	34.7017	70.6158	307.231	-5.733	-75.7167	-15.7407	-52.4341	74.8419	-4.69158	0
0.5440	54.7949	182.929	-1.00914	-3.29396	-67.7781	-19.0853	-57.6292	68.3891	-2.55076	0
0.5447	56.3327	60.2355	-316.557	-1.78528	-59.5311	-16.0476	-57.0169	166.968	-4.07667	0
0.5453	19.1193	-39.5332	-343.7	-2.99222	-49.4659	-1.99444	-45.7175	387.922	-6.21748	0
0.5460	-15.0699	155.15	-314.713	-3.29396	-25.0495	21.5093	-40.2254	432.17	-5.60257	0
0.5467	-33.0615	237.55	-332.112	-2.08701	-3.08451	41.3309	-50.5972	278.05	-4.98765	0
0.5473	-58.6905	-19.4157	-283.29	-3.29396	-7.9548	41.3309	-56.4047	273.211	-7.12847	0
0.5480	-75.1956	-202.812	-264.987	-7.56856	-22.9228	26.0811	-30.4659	-68.9076	-11.3873	-0.321946
0.5487	-68.1733	-172.607	-279.01	-11.5414	-16.5103	4.41845	29.965	-732.979	-14.4391	-0.321946
0.5493	-77.6048	-195.502	-251.868	-12.1449	-0.0324686	-23.0434	96.1848	-748.535	-13.847	0
0.5500	-79.4501	-283.077	-175.869	-12.1449	8.81521	-50.5053	144.407	-184.599	-14.758	0
0.5507	-35.5219	-345.038	57.9039	-16.7212	14.3186	-76.4637	174.613	275.63	-18.7208	-0.321946
0.5513	5.68965	-205.853	286.77	-20.3924	15.8447	-92.9409	182.239	381.527	-19.6318	-0.321946
0.5520	12.712	279.656	370.077	-13.9805	19.8058	-74.0091	156.3	282.314	-13.2321	-0.321946
0.5527	16.9664	522.586	471.095	-0.553184	32.9394	-25.4981	104.126	161.783	-1.32093	-0.321946
0.5533	34.958	183.221	326.753	8.90123	46.6573	14.1759	56.8129	18.9554	10.8863	-0.321946
0.5540	45.0559	-108.219	-106.273	9.83159	51.5438	35.8385	44.9196	-111.024	14.8491	0
0.5547	47.2087	-17.5735	-303.752	6.16046	47.8911	43.4788	55.9037	-44.4788	10.8863	0
0.5553	26.7567	39.1823	-293.347	5.55698	44.8391	39.5206	58.0374	423.01	7.83449	-0.321946
0.5560	-39.1612	-83.1892	-282.386	9.83159	44.5306	35.5317	46.4411	886.004	11.1824	0
0.5567	-99.2869	19.0356	-168.84	13.7793	49.1087	27.9222	30.5773	780.108	16.6711	0.321946
0.5573	-113.024	220.766	-29.9959	15.9166	62.226	9.91083	20.1869	425.487	19.7229	0
0.5580	-103.593	41.3168	-8.94308	14.4079	67.1125	0.460255	14.1012	71.7884	18.197	0
0.5587	-77.2972	-202.198	-12.0053	8.90123	57.0473	8.68348	1.89252	-397.89	13.6193	0
0.5593	-44.9534	-112.167	93.9198	4.92837	44.8391	18.1341	-11.2438	-655.141	9.36039	0
0.5600	-34.5992	-41.3753	186.691	3.72142	35.3745	21.5093	-14.2867	-698.467	7.83449	0
0.5607	-33.6766	-84.7098	139.679	4.02316	35.3745	23.3503	-6.04866	-753.72	8.13056	0
0.5613	-28.192	57.1944	128.091	4.62663	42.0793	20.2819	7.38456	-536.742	8.13056	0.321946
0.5620	-31.5237	120.968	175.695	3.72142	41.4786	10.5245	22.9515	-177.224	6.60465	0
0.5627	-48.0288	-154.595	117.095	2.48933	34.7576	5.03212	36.6816	77.2618	4.78268	0
0.5633	-67.8657	-268.135	22.7927	1.58412	28.962	5.03212	38.4999	214.27	2.93793	0
0.5640	-74.8881	-103.014	-52.2666	-1.45839	24.6923	-0.153418	30.8741	92.8178	-0.113873	0
0.5647	-57.204	-67.0192	-98.0607	-4.52605	21.6403	-9.32784	30.8741	-19.1858	-2.55076	-0.321946
0.5653	-20.5545	-2.31	-70.5703	-6.03473	19.8058	-15.4339	34.2324	48.8576	-3.16568	-0.321946
0.5660	1.12768	135.003	-37.6166	-6.66335	15.8447	-17.8579	19.5932	110.218	-3.46175	-0.321946
0.5667	17.8891	33.6851	14.5456	-5.12952	8.81521	-6.56631	-9.40696	207.875	-1.02486	0
0.5673	40.8014	-77.9844	139.679	-2.38875	3.01958	18.4409	-20.391	218.534	2.02695	0
0.5680	16.3513	88.0139	338.341	0.0502895	-0.324686	35.5317	-13.6744	86.1345	3.25678	-0.321946
0.5687	-26.6542	38.8899	476.906	2.48933	-2.46761	31.2667	-14.899	6.16481	5.69367	-0.643892
0.5693	-33.369	-387.758	324.63	5.25525	-2.15916	17.5511	-21.9125	-115.921	9.04154	-0.321946
0.5700	-16.9152	-471.357	46.5945	4.92837	-0.0324686	6.25947	-28.9445	-209.892	9.65646	-0.321946
0.5707	19.4268	-87.4584	-104.15	3.41968	0.584434	-0.767092	-39.9286	-67.4096	7.83449	-0.965839
0.5713	43.5181	73.072	-213.416	4.02316	0.584434	-6.25947	-44.196	83.6571	7.83449	-0.965839
0.5720	34.7017	-159.185	-336.079	4.32489	-0.633137	-16.9374	-34.4365	65.6812	8.74547	0
0.5727	24.6039	-264.773	-388.589	1.28238	-1.25004	-28.8427	-19.1665	34.8571	6.60465	0
0.5733	-10.5079	-120.412	-313.495	-2.38875	-1.55849	-26.7255	-3.91493	101.691	3.25678	-0.321946
0.5740	-66.0204	63.5981	-91.3447	-0.251447	-2.77606	-12.6724	8.59058	248.148	2.93793	-0.321946
0.5747	-94.725	295.534	93.6066	2.18759	-4.30208	-3.83546	13.1735	280.528	4.46383	0.321946
0.5753	-97.4417	564.693	71.6143	3.11795	-6.73723	2.88427	19.8901	104.744	5.98974	0
0.5760	-81.9104	640.689	59.7134	3.11795	-7.04568	13.2554	32.3956	-84.4637	5.98974	-0.643892
0.5767	-77.0409	345.272	152.798	1.88585	-2.46761	12.6417	32.0987	-250.165	6.30858	-0.321946
0.5773	-75.8107	-15.1173	200.715	3.11795	-0.324686	2.57743	18.9809	-306.051	7.83449	0
0.5780	-33.0615	-127.43	199.497	3.41968	-3.68518	-4.44913	7.68142	-120.819	7.83449	-0.321946
0.5787	17.5815	-193.367	118.626	2.81621	-6.42878	-8.10049	4.93541	66.2573	6.30858	0
0.5793	41.109	-228.456	-79.4438	3.41968	-5.2112	-8.10049	13.1735	242.041	5.98974	0
0.5800	40.1864	-160.706	-205.169	4.32489	-4.30208	-5.33896	20.7992	507.877	6.60465	0
0.5807	-8.66262	-28.2463	-135.295	3.72142	-6.13656	-5.33896	17.144	453.258	5.98974	0
0.5813	-80.3727	251.907	7.82955	1.88585	-7.66258	-7.79366	6.45685	-33.532	4.16776	-0.321946
0.5820	-113.947	404.192	117.408	0.678908	-7.35413	-9.021	-2.39349	-516.922	2.34579	-0.321946
0.5827	-91.0344	283.955	69.8048	0.980644	-7.04568	-5.95264	-6.04866	-583.756	2.64186	0
0.5833	-33.0615	89.8561	-23.2799	1.58412	-7.9548	0.153418	-7.27323	-246.823	2.93793	0
0.5840	9.02143	-92.3415	5.70687	0.352026	-10.0977	5.33896	-9.1101	-42.3471	2.02695	0
0.5847	15.4287	-184.508	-35.494	-1.45839	-10.4062	5.33896	-13.6744	11.6382	0.204972	0
0.5853	13.3271	-233.953	-106.273	-1.45839	-8.5717	-0.460255	-20.0942	224.353	-1.02486	-0.321946
0.5860	18.8117	-88.9789	-11.6921	0.678908	-7.35413	-5.6458	-25.2708	369.024	0.204972	-0.321946
0.5867	13.6347	156.992	120.157	2.48933	-6.73723	-3.52862	-23.4525	200.558	1.73087	0
0.5873	-19.6319	117.635	152.485	3.72142	-7.04568	2.57743	-16.7359	-38.7173	2.64186	-0.321946
0.5880	-50.1817	57.8085	74.6765	2.81621	-10.0977	2.88427	-10.0192	-28.9228	2.34579	0
0.5887	-47.4137	177.753	-40.0525	1.58412	-11.9322	-0.767092	-5.43637	129.173	2.34579	0.321946
0.5893	-33.9841	290.972	-41.3052	1.88585	-11.0068	-1.38077	-2.07807	191.397	3.25678	0
0.5900	-32.4464	311.704	15.4851	3.11795	-10.4062	-0.460255	0.66795	64.7593	3.55285	0
0.5907	-29.4221	203.982	-5.56768	4.62663	-10.0977	1.96376	4.32312	-187.94	4.46383	-0.321946
0.5913	-0.410065	92.6047	-91.6579	3.72142	-11.3153	2.27059	6.77227	-249.3	5.3976	0
0.5920	28.8583	90.1485	-26.9336	0.980644	-14.6758	-0.460255	5.84456	31.8035	4.16776	0
0.5927	17.8891	14.1524	203.151	0.678908	-13.7667	0.460255	6.15998	302.767	4.16776	-0.321946
0.5933	-2.25536	-222.345	198.592	2.18759	-10.7146	2.57743	7.99684	370.868	4.46383	-0.321946
0.5940	2.61416	-263.545	29.1955	3.11795	-8.26325	2.88427	7.68142	362.917	4.16776	0
0.5947	-0.102516	34.0067	56.9643	3.41968	-7.04568	1.35008	5.84456	270.733	3.55285	0
0.5953	-36.4445	284.861	131.432	1.88585	-8.26325	-1.07393	3.09855	47.6476	2.93793	-0.321946
0.5960	-77.2972	229.304	73.1454	-1.45839	-8.5717	-2.60811	0.66795	-189.15	0.819888	0
0.5967	-85.2422	-19.0941	43.2539	-2.38875	-7.04568	-3.22179	1.89252	-306.339	-0.706015	0
0.5973	-69.4035	-118.892	50.8747	-0.553184	-6.13656	-3.83546	4.93541	-387.519	-1.32093	0
0.5980	-59.6132	-60.2939	-109.648	-0.854921	-4.61054	-4.44913	4.93541	-447.957	-1.63978	0
0.5987	-47.4137	-85.9379	-382.186	-1.78528	-3.68518	-6.56631	4.93541	-241.638	-1.93585	0
0.5993	-15.9925	-66.6976	-477.985	0.0502895	-3.99363	-7.17998	7.06914	65.0474	-1.32093	0.321946
0.6000	21.836	-140.559	-212.198	1.88585	-3.68518	-5.03212	9.51829	177.685	-0.113873	0.321946
0.6007	53.0009	-327.318	254.443	1.28238	-3.99363	-5.03212	8.29371	223.777	-0.113873	-0.965839
0.6013	87.19	-181.759	485.432	0.678908	-4.90275	-4.75597	4.63854	307.376	-0.706015	-0.965839
0.6020	139.371	-81.9612	336.218	1.58412	-4.30208	-1.6876	5.5477	388.556	0.501043	-0.321946
0.6027	139.986	-343.488	121.375	1.28238	-3.68518	-0.460255	7.68142	304.899	1.11596	0.321946
0.6033	67.6607	-461.912	100.009	0.0502895	-3.37673	-1.99444	6.15998	334.225	0.204972	0
0.6040	29.781	-371.588	91.1707	-2.08701	-3.08451	-4.1423	2.48626	630.539	-1.63978	-0.321946
0.6047	16.0438	-272.697	23.6974	-3.5957	-3.68518	-5.6458	-0.556625	416.614	-2.55076	-0.321946
0.6053	-23.0149	-149.419	56.3727	-2.99222	-3.37673	-3.22179	-0.556625	-316.134	-1.32093	0
0.6060	-14.7623	-218.982	-35.8071	-1.15666	-3.08451	-1.07393	0.0556625	-646.614	-0.409944	-0.321946
0.6067	20.657	-439.017	-252.181	0.0502895	-3.08451	-1.38077	-0.556625	-361.592	-0.409944	-0.965839
0.6073	6.30475	-244.304	-247.901	0.352026	-1.85071	-2.30128	-0.853492	255.465	-0.409944	0
0.6080	1.43523	141.436	-111.18	-1.78528	-1.85071	-5.03212	-2.07807	923.8	-1.63978	0.321946
0.6087	9.02143	88.9204	-62.6364	-2.08701	-1.85071	-5.6458	-2.39349	1158.52	-2.55076	0
0.6093	-34.2917	-113.102	-45.2722	0.678908	-0.633137	-1.99444	1.28024	849.649	-1.02486	0.321946
0.6100	-82.218	62.6917	-80.9749	1.58412	-1.85071	0.460255	3.09855	201.768	0.501043	0
0.6107	-83.1406	395.332	-186.239	0.352026	-3.99363	0.153418	1.28024	-486.674	-0.113873	-0.643892
0.6113	-43.7744	437.146	-327.553	-0.553184	-4.61054	-1.38077	-0.853492	-758.329	-1.63978	-0.321946
0.6120	10.8667	346.822	-434.035	-0.854921	-4.30208	-3.52862	-2.69035	-663.38	-2.23192	0
0.6127	45.9785	290.972	-242.09	0.0502895	-2.77606	-2.91495	-2.07807	-695.126	-1.63978	0
0.6133	46.5936	143.571	93.2934	0.0502895	-1.85071	-1.6876	-0.259758	-797.392	-1.02486	0
0.6140	53.9235	76.113	263.282	-1.45839	-2.15916	-2.60811	-1.46578	-624.317	-1.63978	0
0.6147	77.3997	197.871	317.288	-1.15666	-2.46761	-2.60811	-3.00577	-448.245	-1.93585	-0.321946
0.6153	56.3327	135.325	250.476	-0.854921	-3.37673	-2.91495	-3.30264	-410.738	-1.63978	0
0.6160	6.6123	-67.0192	89.0133	-2.08701	-2.46761	-3.83546	-3.30264	-238.872	-1.93585	0
0.6167	-5.89468	-117.664	-139.262	-1.45839	-0.941588	-1.07393	-1.7812	-127.502	-0.706015	0
0.6173	-2.87045	-142.401	-344.013	-0.553184	-3.08451	-0.153418	-1.16891	-53.0635	0.204972	0
0.6180	-30.3448	-146.349	-222.255	-1.45839	-4.90275	-2.30128	-3.91493	-8.18134	-0.706015	0
0.6187	-64.4827	-1.0819	70.7095	-2.69049	-4.30208	-3.83546	-6.04866	-435.455	-1.93585	0
0.6193	-71.8126	253.427	209.867	-2.69049	-3.68518	-3.83546	-6.34552	-676.516	-1.93585	0
0.6200	-47.1062	402.057	265.717	-1.15666	-3.68518	-1.07393	-4.2118	-328.002	-0.409944	0
0.6207	-6.50978	310.505	300.829	0.352026	-3.68518	0.153418	-3.00577	-149.453	0.501043	-0.321946
0.6213	27.0643	86.201	251.694	-0.553184	-3.68518	-1.99444	-4.2118	-55.7714	-0.706015	0
0.6220	48.6952	-193.046	175.382	-2.08701	-4.30208	-3.83546	-5.75179	243.596	-1.93585	0
0.6227	55.1025	-410.946	119.531	-1.45839	-3.68518	-4.44913	-5.43637	287.211	-1.93585	-0.321946
0.6233	45.3634	-450.304	-20.5308	0.352026	-1.55849	-2.91495	-3.30264	7.08665	-1.32093	0
0.6240	34.958	-473.492	-137.73	1.28238	-1.55849	-1.07393	-1.46578	-187.307	-1.02486	-0.321946
0.6247	27.0643	-544.312	-147.474	-0.251447	-3.99363	-1.38077	-3.30264	-192.838	-1.63978	0
0.6253	22.1435	-225.707	-321.429	-1.45839	-4.90275	-1.6876	-4.82408	-88.4391	-2.84683	0
0.6260	29.781	415.478	-525.589	-1.78528	-4.61054	-1.6876	-4.52722	168.178	-3.16568	-0.321946
0.6267	49.0027	621.77	-374.531	-1.78528	-3.99363	-0.767092	-3.30264	490.765	-2.23192	0
0.6273	49.3103	305.3	-194.173	-1.45839	-3.99363	0.767092	-1.7812	470.945	-1.63978	0
0.6280	22.7586	20.2637	-293.973	-1.78528	-5.2112	0.153418	-2.69035	192.953	-1.93585	0
0.6287	17.5815	99.9148	-274.73	-2.69049	-5.82811	-1.6876	-4.52722	154.466	-2.55076	0
0.6293	34.7017	216.789	102.445	-3.29396	-6.42878	-2.60811	-5.43637	259.441	-2.23192	0.321946
0.6300	67.0456	43.4514	394.192	-3.29396	-5.82811	-2.30128	-4.82408	311.352	-1.63978	0
0.6307	131.733	8.97684	260.219	-0.854921	-4.30208	-0.767092	-3.59951	360.785	-1.02486	-0.965839
0.6313	155.517	198.485	5.1153	0.678908	-5.51966	-1.38077	-4.2118	400.77	-0.409944	-0.643892
0.6320	91.4445	166.759	-3.445	-0.553184	-7.35413	-3.52862	-6.04866	120.876	-0.706015	0
0.6327	30.3961	27.2814	107.039	-1.15666	-6.42878	-3.22179	-6.34552	-264.223	-1.32093	0
0.6333	5.07455	-126.524	2.05308	-0.251447	-6.42878	-1.6876	-5.43637	-27.0791	-0.706015	0
0.6340	-4.97204	-293.75	-136.513	1.58412	-7.66258	1.04325	-3.30264	260.65	0.819888	0
0.6347	19.4268	-180.238	-64.7939	1.58412	-8.26325	1.96376	-2.39349	-61.8786	1.11596	0
0.6353	31.6262	128.307	-38.8346	-1.45839	-9.78927	0.153418	-5.1395	-406.417	-1.02486	0
0.6360	10.2516	304.072	-48.926	-3.29396	-10.4062	0.153418	-5.75179	-396.392	-2.84683	0
0.6367	-28.4995	285.475	46.9077	-2.99222	-9.1886	1.96376	-4.52722	-344.48	-2.84683	0
0.6373	-81.2953	198.806	122.593	-1.45839	-7.66258	4.11161	-3.00577	-458.328	-1.93585	0
0.6380	-92.8797	93.5111	211.398	-0.251447	-7.66258	5.03212	-1.16891	-286.174	-0.706015	0
0.6387	-38.5461	18.7432	247.414	-1.15666	-9.1886	2.27059	-3.00577	92.8178	-1.32093	0
0.6393	12.0969	-64.2706	135.399	-2.38875	-10.0977	-1.07393	-5.75179	-35.0299	-2.23192	0
0.6400	16.0438	-220.21	-5.88086	-2.08701	-9.78927	-2.30128	-5.75179	-349.954	-2.84683	0
0.6407	-1.02516	-280.621	-198.766	-0.854921	-9.1886	-0.767092	-4.82408	-240.428	-2.84683	0
0.6413	-23.9375	-201.584	-368.128	1.28238	-7.9548	2.27059	-3.30264	46.1497	-1.32093	0
0.6420	-38.8536	-67.6333	-225.317	1.28238	-8.88015	-0.153418	-4.82408	84.0027	-0.113873	0
0.6427	-31.2162	191.467	82.2972	0.0502895	-9.1886	-4.1423	-7.88552	-56.1171	-0.706015	0.321946
0.6433	-18.7092	339.775	160.419	0.980644	-8.88015	-3.22179	-8.49781	-29.2684	-0.706015	0
0.6440	-1.33271	167.373	162.889	2.48933	-8.88015	-1.6876	-8.18239	131.881	0.501043	0
0.6447	13.6347	35.5272	284.334	3.41968	-8.26325	-0.460255	-7.5701	34.8571	2.34579	0
0.6453	3.22926	41.0244	330.72	2.81621	-9.48082	-1.07393	-9.40696	-113.156	1.41203	0
0.6460	-6.20223	31.2581	282.212	0.678908	-11.0068	-4.1423	-12.4498	-83.8875	-0.113873	-0.321946
0.6467	3.53681	-16.6671	211.398	0.352026	-10.7146	-4.44913	-11.8561	-205.916	0.501043	0
0.6473	11.7894	-55.1184	108.57	0.980644	-9.78927	-1.99444	-10.3161	-337.163	0.819888	0.321946
0.6480	10.2516	-9.32772	85.0463	1.28238	-9.1886	0.767092	-9.40696	-185.809	0.204972	-0.643892
0.6487	0.512581	5.61418	148.518	1.28238	-8.26325	2.57743	-8.79467	48.2814	0.501043	-0.643892
0.6493	-5.89468	-72.8089	54.5285	0.352026	-8.88015	0.460255	-10.0192	178.261	0.204972	0
0.6500	2.30661	-53.5686	-131.328	-0.854921	-10.0977	-1.38077	-11.2438	401.98	0.204972	0
0.6507	7.22739	115.471	-69.9788	-1.15666	-10.0977	-0.767092	-11.5407	625.354	1.11596	0
0.6513	-0.102516	211.321	110.066	-0.854921	-9.1886	-1.07393	-11.5407	406.244	0.819888	0
0.6520	10.8667	138.688	203.464	-0.553184	-7.66258	-1.07393	-11.2438	-75.0148	0.204972	0
0.6527	32.8564	72.7504	205.308	-0.854921	-6.73723	-2.30128	-11.8561	-278.569	0.204972	0
0.6533	33.4715	85.2653	143.959	-0.854921	-6.13656	-3.52862	-12.4498	-285.31	0.819888	0
0.6540	35.8807	74.3001	33.4757	0.352026	-4.61054	-2.91495	-11.5407	-438.162	2.02695	0
0.6547	51.1556	16.901	-225.909	1.28238	-3.99363	-2.91495	-11.2438	-346.036	2.64186	0.321946
0.6553	40.1864	-56.9313	-395.305	-0.251447	-4.90275	-2.60811	-11.5407	137.988	1.41203	0.321946
0.6560	7.22739	-91.4351	-251.555	-1.78528	-5.2112	-1.99444	-11.2438	432.804	-0.113873	0
0.6567	-20.247	14.4741	-79.757	-2.08701	-4.90275	-1.6876	-11.2438	568.315	-1.02486	-0.321946
0.6573	-39.7763	123.717	-56.5467	-2.38875	-4.90275	-2.30128	-10.0192	679.051	-1.93585	-0.321946
0.6580	-40.3914	83.4524	-107.526	-2.99222	-3.99363	-3.22179	-8.79467	386.712	-3.16568	0
0.6587	-22.3998	37.0477	-161.845	-3.29396	-2.15916	-3.83546	-8.18239	-185.809	-4.07667	0
0.6593	-13.5321	58.1009	-148.1	-2.38875	-0.941588	-5.33896	-7.27323	-575.229	-4.07667	0
0.6600	-12.6095	95.0317	-81.8797	-1.45839	-1.55849	-7.79366	-8.18239	-639.297	-3.75782	0
0.6607	1.74278	61.7852	7.55116	-1.45839	-3.08451	-10.5245	-10.0192	-436.953	-3.75782	-0.643892
0.6613	15.7362	-29.4744	16.0767	0.352026	-2.77606	-12.6724	-8.49781	-182.467	-3.16568	-0.965839
0.6620	16.0438	-14.8249	-110.866	1.88585	-2.77606	-13.5929	-5.75179	-43.9027	-1.63978	-0.321946
0.6627	14.2498	51.6972	-121.549	2.48933	-3.37673	-13.286	-3.59951	-32.322	-0.409944	0
0.6633	3.53681	24.5328	107.317	3.72142	-3.37673	-12.0587	-3.00577	-9.10318	0.501043	0
0.6640	-7.43243	-38.9484	352.086	4.62663	-3.08451	-10.8313	-2.69035	38.4869	1.41203	0
0.6647	0.205032	-97.2247	360.333	4.62663	-2.77606	-10.5245	-2.69035	-78.0684	1.11596	-0.321946
0.6653	19.4268	-143.6	145.769	4.02316	-2.46761	-11.445	-3.30264	-195.891	0.501043	0
0.6660	35.8807	-98.7452	-32.4317	4.62663	-1.85071	-9.32784	-2.69035	-124.16	1.41203	0.321946
0.6667	38.9562	-33.1295	-84.6287	5.85872	-0.941588	-6.56631	-0.853492	24.4864	2.34579	0
0.6673	33.7791	-87.7508	-112.989	5.25525	-2.15916	-5.33896	0.352529	102.267	2.02695	-0.321946
0.6680	24.9114	-197.637	-103.837	3.11795	-2.77606	-0.767092	3.71083	80.0273	1.73087	0
0.6687	16.0438	-198.543	-57.7647	0.980644	-2.77606	6.25947	7.68142	62.3395	0.819888	0
0.6693	14.5573	-72.5165	-22.9667	-0.251447	-3.08451	12.6417	11.9489	106.588	-1.32093	0
0.6700	5.07455	33.1003	8.14273	-1.15666	-2.77606	16.3237	16.8472	116.325	-2.23192	0
0.6707	-10.2004	8.68443	32.2577	-2.69049	-2.77606	16.9374	16.5318	1.55561	-2.84683	0.321946
0.6713	-11.3793	-32.5154	32.8841	-4.22431	-2.15916	16.9374	14.398	-90.8589	-3.75782	0.321946
0.6720	-4.10065	33.1003	-17.4686	-4.52605	-1.55849	15.71	15.6226	-74.7267	-4.07667	0
0.6727	7.22739	33.1003	-61.7316	-3.89743	-1.85071	15.0964	19.8901	-63.4342	-3.46175	0
0.6733	23.0661	-60.908	-21.1572	-3.89743	-1.25004	16.9374	24.7698	-34.1081	-3.16568	0
0.6740	30.7036	-92.0491	75.8944	-3.89743	-0.941588	17.2442	28.1281	29.038	-4.69158	0
0.6747	36.1882	-83.4817	128.683	-4.82779	-0.941588	17.2442	28.1281	33.6472	-7.74339	0
0.6753	45.671	-40.7613	124.438	-7.26683	-0.941588	18.1341	22.3392	126.695	-11.7062	0
0.6760	38.9562	70.3234	124.438	-9.70586	-0.633137	19.3614	13.1735	328.118	-15.0541	0
0.6767	18.1966	122.81	82.2972	-10.6362	-0.633137	20.5888	4.32312	390.976	-15.3729	0
0.6773	17.8891	30.03	-77.008	-10.0076	-1.55849	18.1341	-8.18239	442.541	-14.4391	0
0.6780	40.8014	-9.03532	-281.168	-8.49892	-2.46761	14.7895	-18.8696	543.886	-12.9132	0
0.6787	38.3411	8.68443	-362.038	-7.26683	-3.08451	11.445	-23.137	374.786	-11.0913	0
0.6793	-2.25536	-52.9838	-310.468	-5.43126	-3.37673	8.68348	-23.7493	45.804	-9.56536	0
0.6800	-42.5442	-64.2706	-217.07	-2.38875	-2.15916	8.68348	-20.7064	-121.107	-7.74339	0
0.6807	-58.383	-26.1118	-136.513	-1.45839	-1.55849	7.1493	-19.7787	-197.389	-6.51355	0
0.6813	-42.8518	-31.609	-92.2495	-2.38875	-2.77606	4.72529	-22.8402	-324.949	-6.21748	0
0.6820	-15.9925	-28.568	-55.9204	-1.78528	-2.77606	4.41845	-20.0942	-412.236	-5.28372	-0.321946
0.6827	-0.410065	-4.7662	-49.5175	-0.854921	-2.46761	2.88427	-5.1395	-315.5	-4.07667	0
0.6833	4.767	7.45633	-58.391	0.678908	-1.55849	2.27059	13.4889	-147.322	-1.63978	0.321946
0.6840	-1.64026	6.84228	-55.642	2.48933	-0.633137	1.65692	17.7563	-103.707	0.819888	0
0.6847	-1.02516	3.80127	-65.6986	1.58412	-0.633137	1.04325	13.4889	-121.107	1.73087	0.321946
0.6853	8.15004	-26.1118	-102.306	0.980644	-0.0324686	3.49794	18.6655	-89.3609	1.73087	0.321946
0.6860	1.12768	-59.3875	-83.724	0.0502895	0.275983	6.25947	30.2618	-50.586	1.41203	0
0.6867	-4.10065	-19.4157	59.7134	-1.78528	0.275983	7.45614	36.3662	-56.6932	0.501043	0
0.6873	0.512581	30.03	185.752	-2.69049	0.275983	8.37665	29.0373	-81.4101	0.204972	0.321946
0.6880	1.12768	-1.69595	221.768	-2.69049	0.275983	4.72529	18.0532	-80.2001	-0.409944	0
0.6887	1.12768	-47.4866	237.949	-2.38875	-0.0324686	-0.460255	13.4889	-62.2243	-0.113873	0
0.6893	3.53681	-54.7967	188.501	-0.553184	0.584434	-3.52862	9.20287	-35.318	1.11596	0
0.6900	12.4045	-18.8016	65.8378	2.18759	1.80201	-5.03212	2.18939	43.0961	2.02695	0
0.6907	15.1211	23.6263	14.8587	1.58412	1.20134	-7.79366	-3.00577	87.9206	1.73087	-0.643892
0.6913	2.61416	-3.83051	36.8511	0.0502895	0.275983	-11.1382	-8.79467	40.3305	0.501043	-0.965839
0.6920	-5.89468	-43.5099	26.1681	0.980644	0.892885	-12.9792	-4.82408	30.8817	-0.706015	-0.321946
0.6927	-3.48555	-26.4334	11.5181	1.88585	-0.0324686	-16.9374	-3.00577	36.7008	-1.93585	0
0.6933	4.15191	-7.51481	3.86258	4.02316	0.275983	-17.5511	-54.8832	28.1161	-1.32093	0
0.6940	11.4818	-7.51481	-8.6299	6.76393	1.80201	-15.4339	-131.79	33.6472	0.819888	-0.321946
0.6947	12.0969	-3.21646	21.2616	6.46219	0.892885	-16.6306	-166.264	-12.1568	1.11596	-0.321946
0.6953	10.5592	-1.40354	47.2209	5.25525	-0.633137	-17.8579	-161.384	-55.4833	1.41203	0
0.6960	9.94407	-8.71367	25.2285	4.32489	-1.25004	-18.4716	-124.461	-33.1863	1.73087	0.321946
0.6967	8.40633	-11.7839	7.82955	5.25525	-0.633137	-16.9374	-72.8808	-5.41581	2.93793	0
0.6973	7.53494	-8.42127	6.9248	7.69429	0.892885	-15.1271	-33.212	1.26753	5.98974	0
0.6980	6.30475	-6.90076	6.9248	8.5995	1.20134	-13.8997	-8.49781	17.7454	7.21957	0
0.6987	5.3821	-4.15215	4.48894	7.99602	-0.0324686	-11.445	4.02625	28.4618	7.21957	0
0.6993	5.3821	-4.44456	-2.22707	6.46219	-2.15916	-9.63468	10.4274	31.1697	5.98974	0
0.7000	6.91984	-6.90076	-3.445	7.39255	-1.55849	-4.1423	21.1146	37.565	5.98974	0
0.7007	6.91984	-7.19317	0.208788	9.83159	-0.324686	0.153418	30.2618	29.6718	7.83449	0
0.7013	1.43523	-5.05861	-0.69596	9.52985	-0.941588	-3.52862	37.2939	21.0871	7.83449	0
0.7020	-3.48555	-1.40354	-1.60071	9.20297	-1.85071	-5.6458	62.008	23.8526	6.60465	0
0.7027	-2.87045	-2.31	-3.75818	7.99602	-2.77606	-3.52862	90.3773	20.799	5.07875	-0.321946
0.7033	-0.717613	-5.67266	-5.28929	6.16046	-2.77606	1.96376	100.768	18.3792	2.93793	0
0.7040	1.74278	-5.96506	-2.81864	5.25525	-2.15916	9.29716	102.586	23.8526	0.204972	0
0.7047	1.43523	-6.57911	-2.81864	2.81621	-2.46761	11.7519	98.3185	24.1407	-2.84683	0
0.7053	0.82013	-6.57911	-2.22707	3.11795	-1.85071	12.9485	82.4547	22.9308	-2.84683	0
0.7060	0.82013	-5.05861	-3.75818	3.72142	-2.46761	10.2177	58.0374	20.2229	-1.32093	0
0.7067	1.43523	-2.92405	-5.88086	4.32489	-2.46761	7.1493	38.8153	17.1693	-0.409944	0
0.7073	5.68965	-1.0819	-2.54025	7.99602	-0.324686	10.2177	30.5773	19.8772	3.25678	0
0.7080	5.9972	-5.96506	-7.41197	7.39255	-1.25004	6.84246	21.1146	15.3256	4.16776	0
0.7087	3.22926	-11.4623	-12.9101	6.76393	-1.55849	5.33896	6.45685	8.58464	2.64186	-0.321946
0.7093	3.53681	-13.5968	-8.6299	7.39255	-0.324686	9.60399	-5.43637	8.29657	2.34579	0
0.7100	3.84436	-15.439	-8.03834	4.02316	-1.55849	8.68348	-7.88552	4.6092	0.501043	0
0.7107	6.6123	-12.6904	-8.03834	4.32489	-0.633137	8.68348	-6.04866	3.39929	0.501043	-0.321946
0.7113	6.6123	-9.94177	-6.78561	4.32489	-0.0324686	6.25947	-29.2414	2.82314	-0.113873	0
0.7120	1.43523	-11.4623	-8.31672	0.980644	-1.85071	3.80478	-55.1801	-0.57615	-2.84683	0
0.7127	0.82013	-9.64937	-5.88086	-0.553184	-1.55849	11.7519	-17.0327	0.691381	-3.46175	0
0.7133	2.92171	-7.19317	-5.28929	-1.78528	-0.941588	15.71	50.0962	0.979456	-4.07667	0
0.7140	3.53681	-5.96506	-8.31672	-2.99222	-1.25004	14.7895	86.4253	4.95489	-4.98765	0
0.7147	3.22926	-4.7662	-10.4742	-3.89743	-1.55849	14.4827	100.452	10.4283	-6.51355	-0.321946
0.7153	0.512581	-4.15215	-11.3789	-5.733	-2.46761	12.0587	103.811	8.93033	-8.95044	0
0.7160	-1.94781	-2.63165	-8.94308	-5.43126	-1.85071	11.445	106.26	7.6628	-8.95044	0
0.7167	-2.56291	-0.467848	-7.09879	-3.29396	-0.941588	11.7519	109.915	9.50648	-8.65437	-0.321946
0.7173	-3.178	-0.789494	-7.41197	-2.08701	-1.25004	11.1382	105.035	9.79456	-8.65437	-0.321946
0.7180	-3.48555	-3.21646	-4.34975	-3.29396	-1.85071	8.68348	94.0511	3.11121	-9.26929	0
0.7187	-4.71575	-5.05861	-1.00914	-6.03473	-2.46761	5.03212	84.5884	-4.83966	-10.7952	-0.321946
0.7193	-4.97204	-3.21646	-1.32232	-4.22431	-2.15916	2.88427	74.2167	-1.49799	-8.65437	-0.321946
0.7200	-4.4082	-1.40354	-1.60071	1.28238	-0.941588	1.96376	58.9466	9.79456	-3.16568	0
0.7207	-3.7931	-1.40354	-0.69596	4.92837	-0.941588	1.04325	51.6362	16.8236	0.501043	-0.321946
0.7213	-4.97204	-1.40354	-1.60071	5.55698	-1.85071	1.35008	43.3982	15.3256	0.819888	-0.965839
0.7220	-8.35507	-1.40354	-1.60071	5.55698	-2.46761	5.6458	12.2643	14.6918	-0.113873	-0.643892
0.7227	-9.58527	-1.40354	-0.69596	4.02316	-3.08451	12.0587	-28.9445	15.6137	-1.63978	0
0.7233	-8.97017	-1.40354	-1.91389	2.18759	-3.99363	17.5511	-51.5249	11.6382	-3.75782	-0.321946
0.7240	-7.73997	-0.789494	-1.00914	1.28238	-3.08451	22.7366	-46.3297	9.50648	-4.69158	-0.643892
0.7247	-7.73997	0.116962	0.835152	1.88585	-2.46761	24.8538	-27.7199	11.9839	-3.46175	-0.321946
0.7253	-9.27772	1.05266	0.835152	2.18759	-3.08451	23.0434	-13.9898	13.1938	-2.55076	0
0.7260	-8.35507	0.731013	0.835152	1.88585	-2.46761	18.7477	-7.88552	13.4819	-2.55076	0
0.7267	-7.43243	0.438608	1.14833	2.18759	-1.55849	13.2554	-8.18239	10.1402	-1.63978	-0.321946
0.7273	-7.43243	2.25152	2.64465	4.02316	-0.324686	10.5245	-10.9284	6.74096	0.501043	-0.321946
0.7280	-7.73997	1.95911	3.86258	4.32489	0.892885	8.68348	-20.7064	12.8482	1.73087	-0.321946
0.7287	-8.66262	0.438608	3.27101	3.72142	0.584434	6.25947	-42.0623	21.4328	2.34579	-0.321946
0.7293	-8.97017	0.438608	1.42672	2.81621	-0.0324686	3.1911	-63.7336	17.1693	2.02695	0
0.7300	-8.97017	0.116962	0.208788	0.678908	-0.324686	0.460255	-83.568	8.00849	1.73087	-0.321946
0.7307	-6.50978	1.05266	2.36626	1.58412	2.11046	1.96376	-100.953	10.4283	3.87169	-0.321946
0.7313	-5.27958	1.34506	3.27101	2.18759	3.32803	-0.153418	-108.894	11.9839	4.46383	-0.321946
0.7320	-6.50978	0.731013	2.05308	0.980644	3.01958	-3.83546	-104.312	10.1402	3.25678	-0.321946
0.7327	-6.20223	1.66671	3.27101	0.980644	3.32803	-3.52862	-99.7472	11.3502	4.16776	-0.321946
0.7333	-7.73997	0.731013	2.05308	-0.251447	2.72736	-8.10049	-87.8354	9.21841	3.55285	-0.321946
0.7340	-7.12488	1.05266	1.42672	-0.553184	3.32803	-11.7519	-51.2095	9.21841	3.25678	0
0.7347	-5.89468	2.57316	2.64465	-0.553184	4.23715	-13.8997	-33.5088	11.6382	3.87169	0
0.7353	-9.27772	1.95911	2.64465	-2.38875	3.63648	-19.0853	-64.6427	10.4283	2.02695	0
0.7360	-8.66262	3.18722	5.1153	-1.15666	5.47095	-19.0853	-122.94	14.4038	2.64186	-0.321946
0.7367	-7.73997	4.09367	5.39369	-1.78528	5.76317	-21.5399	-190.978	15.9018	2.64186	-0.643892
0.7373	-9.27772	3.47962	5.1153	-2.38875	5.76317	-24.2708	-267.885	13.77	1.41203	-0.321946
0.7380	-8.66262	5.32177	6.61162	-0.854921	6.99697	-23.0434	-332.899	16.5355	2.02695	0
0.7387	-14.4548	4.70772	4.48894	-2.69049	5.76317	-27.3392	-340.209	15.6137	1.73087	-0.321946
0.7393	-20.247	4.38608	4.17576	-2.69049	5.76317	-27.6153	-284.973	15.9018	1.11596	-0.321946
0.7400	-18.4017	5.93582	5.70687	-0.553184	8.21455	-23.964	-209.606	19.301	1.41203	0
0.7407	-17.5303	6.22823	5.39369	-1.45839	9.12367	-27.0323	-137.282	18.6673	1.11596	-0.321946
0.7413	-20.247	5.93582	4.80212	-4.22431	8.21455	-28.5358	-71.6562	16.5355	-0.113873	-0.321946
0.7420	-24.2451	5.61418	5.1153	-6.96509	6.99697	-25.805	-44.4929	14.9799	-2.55076	0
0.7427	-26.6542	5.32177	4.48894	-8.49892	6.99697	-29.1495	-32.3028	14.4038	-4.98765	-0.321946
0.7433	-23.9375	5.32177	4.17576	-8.80065	7.59764	-35.8692	2.80168	14.9799	-5.60257	0
0.7440	-17.5303	6.22823	6.02005	-7.56856	8.21455	-35.5624	11.652	15.3256	-5.28372	-0.321946
0.7447	-13.5321	6.22823	6.61162	-7.26683	7.90609	-30.6837	-22.5248	13.77	-5.89864	-0.321946
0.7453	-13.8397	5.00013	4.48894	-8.80065	6.68852	-24.2708	-17.3481	10.4283	-7.74339	-0.321946
0.7460	-15.0699	4.09367	2.64465	-10.0076	6.38007	-17.5511	44.9196	8.58464	-8.95044	-0.321946
0.7467	-19.9394	3.18722	1.7399	-10.3093	6.38007	-14.8202	90.0805	9.21841	-9.56536	-0.321946
0.7473	-30.6523	3.80127	2.36626	-9.40413	6.38007	-12.0587	126.391	10.4283	-9.56536	-0.321946
0.7480	-39.4687	6.22823	4.17576	-6.96509	7.28919	-5.33896	212.761	12.5601	-8.33553	0
0.7487	-47.1062	8.07038	3.58419	-4.22431	6.68852	-2.60811	333.307	16.5355	-7.12847	-0.321946
0.7493	-59.6132	8.97684	2.64465	-1.45839	6.68852	-4.75597	426.078	20.799	-5.28372	0
0.7500	-72.7352	4.70772	-0.104394	-0.553184	6.38007	-4.44913	448.974	19.5891	-3.46175	0
0.7507	-75.5032	-2.31	-3.445	0.980644	6.07162	0.460255	470.942	16.8236	-1.32093	-0.643892
0.7513	-70.0186	-3.83051	-3.445	4.32489	5.76317	3.1911	501.76	18.3792	2.02695	-0.643892
0.7520	-66.0204	-2.63165	-2.54025	2.81621	3.01958	1.04325	398.915	16.8236	1.41203	0
0.7527	-57.204	1.05266	1.14833	2.81621	1.49355	1.96376	232.595	18.6673	1.11596	-0.321946
0.7533	-46.7986	3.47962	3.27101	4.92837	0.275983	-2.91495	101.065	20.511	2.93793	-0.321946
0.7540	-33.6766	4.38608	2.95783	4.92837	-0.941588	-11.7519	-23.7493	19.301	3.87169	-0.321946
0.7547	-10.2004	8.97684	7.23798	7.69429	1.80201	-17.8579	-82.9557	23.5646	6.9235	0
0.7553	12.0969	13.5676	11.7965	9.20297	2.11046	-25.4981	-121.103	25.4082	7.83449	0.321946
0.7560	28.5508	15.9946	15.1719	7.69429	0.275983	-17.5511	-201.053	23.5646	5.69367	-0.321946
0.7567	44.7483	15.7022	17.2946	7.06567	0.275983	6.53563	-290.169	21.0871	4.78268	-0.965839
0.7573	58.793	10.819	12.4229	4.92837	-2.15916	20.5888	-313.361	12.272	2.64186	-0.643892
0.7580	69.4547	6.22823	7.23798	4.62663	-3.68518	26.6948	-221.203	8.00849	2.02695	0
0.7587	68.8396	4.70772	4.17576	5.25525	-2.15916	25.1606	-96.3889	10.1402	3.55285	0
0.7593	51.4631	2.86557	-0.69596	2.81621	-0.941588	9.91083	-6.66094	9.50648	2.34579	0
0.7600	33.164	2.86557	-2.54025	3.72142	1.80201	-3.52862	27.219	14.4038	3.55285	0
0.7607	25.219	5.93582	0.208788	8.29776	5.47095	-5.95264	33.9356	25.9844	7.51564	-0.321946
0.7613	18.8117	6.84228	2.05308	9.20297	6.99697	-1.6876	75.4412	31.5154	9.04154	-0.321946
0.7620	5.9972	5.61418	1.42672	6.46219	5.1625	3.1911	181.627	29.3261	7.83449	-0.321946
0.7627	-2.56291	5.61418	1.7399	4.62663	4.5456	4.72529	337.89	28.7499	6.60465	0
0.7633	-5.89468	5.61418	2.36626	4.02316	5.76317	5.6458	431.885	32.0916	5.07875	0
0.7640	-10.5079	4.09367	1.14833	2.18759	5.1625	2.57743	410.826	33.9353	1.73087	0.321946
0.7647	-10.2004	2.86557	-0.382778	0.0502895	3.94493	-3.22179	326.294	30.8817	-0.706015	0
0.7653	-7.12488	2.86557	-0.69596	-1.78528	1.80201	-4.1423	233.82	24.1407	-1.63978	0
0.7660	-3.48555	2.86557	-1.00914	-3.29396	-1.25004	-7.17998	175.226	19.301	-4.07667	0.321946
0.7667	-4.97204	2.25152	-1.00914	-3.29396	-3.08451	-14.5134	120.899	19.5891	-5.28372	0
0.7673	-22.7073	1.34506	-1.00914	-2.08701	-4.30208	-16.3237	53.77	21.0871	-4.37274	-0.321946
0.7680	-48.9515	1.95911	-0.382778	-0.553184	-5.51966	-13.8997	-5.43637	22.0089	-3.75782	0
0.7687	-75.1956	4.09367	1.42672	0.352026	-6.42878	-8.40733	-50.9126	23.5646	-3.75782	0
0.7693	-91.957	4.70772	1.7399	2.18759	-7.35413	0.767092	-84.4771	26.2725	-1.63978	-0.321946
0.7700	-78.5274	3.18722	0.52197	4.62663	-7.35413	3.80478	-117.745	29.6718	1.41203	-0.321946
0.7707	-47.7213	0.116962	-2.54025	4.32489	-8.26325	-2.60811	-148.563	25.9844	2.34579	0
0.7713	-25.7316	-2.0176	-3.445	4.32489	-8.26325	-5.03212	-172.071	18.3792	2.64186	0
0.7720	-5.89468	0.731013	0.208788	6.76393	-6.42878	5.03212	-173.277	18.0335	4.46383	0
0.7727	9.94407	4.09367	3.58419	6.16046	-7.66258	19.0546	-144.593	20.799	3.87169	0
0.7733	7.22739	7.74873	6.9248	3.72142	-11.0068	33.7214	-112.55	25.9844	1.73087	0
0.7740	-1.02516	11.7254	10.3002	2.48933	-13.1498	46.8233	-95.1643	33.9353	0.501043	0
0.7747	10.2516	12.0178	8.76909	-0.553184	-15.2927	50.1985	-86.9263	35.4333	-2.23192	0
0.7753	-22.0922	12.9535	8.45591	-1.45839	-14.0589	46.8233	-78.0759	37.565	-3.75782	0
0.7760	-135.014	12.9535	8.45591	-0.553184	-12.5329	40.4104	-68.2979	41.5405	-2.55076	0
0.7767	-207.339	7.74873	2.05308	-1.78528	-12.5329	29.4257	-61.2844	36.7008	-3.16568	0
0.7773	-178.634	2.57316	-2.81864	-0.251447	-9.1886	23.6264	-50.9126	31.8035	-2.55076	0
0.7780	-115.792	-1.40354	-5.88086	0.980644	-7.04568	19.0546	-41.45	26.2725	-1.93585	0
0.7787	-66.9431	-5.67266	-10.161	-1.15666	-8.26325	14.4827	-38.704	18.3792	-4.69158	-0.321946
0.7793	-16.9152	-3.21646	-7.09879	0.0502895	-6.42878	16.6306	-32.5997	21.7209	-4.69158	-0.321946
0.7800	67.917	-0.175443	-5.56768	-0.553184	-7.04568	13.869	-43.5837	25.0625	-4.98765	-0.643892
0.7807	162.847	-2.63165	-8.94308	-2.38875	-9.48082	8.37665	-71.0439	21.0871	-7.42454	-0.321946
0.7813	257.777	-3.21646	-7.41197	0.352026	-8.26325	11.445	-81.1188	19.5891	-5.60257	0.321946
0.7820	298.373	-2.63165	-6.78561	0.678908	-7.9548	10.8313	-81.7311	14.1157	-5.28372	-0.321946
0.7827	255.932	-0.175443	-5.88086	-1.15666	-7.66258	5.6458	-72.8808	10.1402	-6.80963	-0.965839
0.7833	186.938	5.93582	-0.104394	-0.251447	-6.13656	3.80478	-56.0892	14.4038	-5.60257	-0.321946
0.7840	85.0372	9.26924	2.05308	-1.78528	-7.66258	-1.99444	-45.7175	17.4574	-6.21748	0
0.7847	-1.02516	8.36279	-0.104394	-3.5957	-10.0977	-10.2484	-35.958	18.0335	-7.74339	-0.321946
0.7853	-45.2609	5.32177	-2.22707	-3.89743	-10.4062	-14.2065	-44.8083	16.8236	-7.74339	-0.321946
0.7860	-106.002	2.57316	-3.13182	-3.89743	-8.5717	-11.7519	-78.6882	16.2474	-8.03946	0
0.7867	-158.183	0.116962	-4.34975	-4.52605	-7.04568	-6.87315	-125.686	15.3256	-8.33553	0
0.7873	-158.798	-5.35101	-10.4742	-5.43126	-7.66258	-6.87315	-165.039	10.1402	-8.65437	-0.643892
0.7880	-136.244	-11.4623	-17.4686	-5.733	-7.66258	-9.021	-167.488	7.08665	-8.33553	-0.643892
0.7887	-129.529	-14.8249	-22.0619	-5.43126	-6.73723	-11.7519	-155.892	10.4283	-8.03946	0
0.7893	-160.028	-16.6671	-25.7157	-5.12952	-5.51966	-15.4339	-135.445	14.1157	-8.65437	0
0.7900	-183.812	-16.053	-26.3421	-3.89743	-3.37673	-16.6306	-85.3863	19.8772	-8.03946	0
0.7907	-120.969	-12.398	-23.9062	-4.22431	-2.15916	-18.1647	-46.6452	25.4082	-8.03946	0
0.7913	-25.424	-9.64937	-21.1572	-4.52605	-2.46761	-22.1229	-53.9555	22.6427	-8.65437	0
0.7920	31.0112	-7.51481	-18.7213	-3.29396	-2.46761	-27.0323	-67.0919	17.4574	-8.03946	0
0.7927	75.5544	-2.0176	-13.2232	-2.38875	-3.68518	-32.8315	-42.9714	16.8236	-7.42454	0.321946
0.7933	116.151	10.2049	-0.382778	-1.45839	-4.61054	-34.0282	15.0103	19.8772	-6.21748	0.321946
0.7940	108.206	21.4918	13.0492	0.678908	-3.37673	-29.7632	88.8559	25.4082	-4.07667	0
0.7947	-3.48555	24.2404	16.3899	0.980644	-3.68518	-28.8427	130.974	27.1943	-4.69158	0
0.7953	-57.7679	22.1058	12.1097	0.980644	-3.99363	-30.3769	103.514	27.54	-4.69158	0
0.7960	82.8844	16.6086	4.80212	1.28238	-3.99363	-29.1495	91.305	26.2725	-3.46175	-0.321946
0.7967	210.158	10.4973	-2.22707	0.352026	-5.82811	-27.3392	149.899	20.799	-4.69158	-0.321946
0.7973	260.494	6.84228	-4.66293	0.980644	-6.13656	-19.6989	143.795	14.1157	-3.46175	0
0.7980	320.927	1.05266	-7.72515	2.18759	-4.30208	-12.3655	33.0079	5.24297	-0.409944	0
0.7987	396.02	-4.44456	-12.0053	1.88585	-3.37673	-14.5134	-75.6268	0.057615	-0.113873	-0.321946
0.7993	491.514	-6.28671	-11.3789	0.980644	-3.37673	-17.2442	-125.37	-1.1523	-1.32093	-0.321946
0.8000	591.313	-4.44456	-7.41197	-0.854921	-4.61054	-17.8579	-86.314	-13.0786	-3.16568	-0.321946
0.8007	648.364	1.66671	-0.104394	-1.78528	-4.61054	-19.3921	-7.88552	-25.293	-4.98765	-0.321946
0.8013	483.876	12.0178	10.8918	-1.15666	-2.77606	-19.6989	65.0509	-17.0541	-4.98765	-0.643892
0.8020	95.3913	21.7842	19.1389	-2.99222	-4.30208	-22.1229	119.081	3.11121	-5.89864	0
0.8027	-212.516	28.2171	22.2011	-2.38875	-6.42878	-21.2331	144.704	24.1407	-5.89864	0
0.8033	-341.584	25.4685	17.2946	0.352026	-5.2112	-20.0058	211.536	34.8571	-3.75782	-0.321946
0.8040	-281.766	16.3162	7.55116	-0.553184	-4.61054	-26.1118	286.309	27.1943	-3.16568	-0.321946
0.8047	-41.6216	10.819	4.48894	0.980644	-3.68518	-25.1913	288.443	11.3502	-1.32093	-0.321946
0.8053	154.902	5.32177	3.58419	3.41968	-3.37673	-9.63468	255.491	-13.0786	0.501043	-0.321946
0.8060	114.613	-4.44456	-4.07137	1.28238	-7.35413	8.06981	214.894	-42.3471	-0.706015	-0.321946
0.8067	-145.676	-11.4623	-9.84783	0.678908	-8.5717	19.6682	156.616	-54.8495	-0.706015	0
0.8073	-380.643	-14.5325	-12.2837	1.58412	-7.04568	21.2024	97.4094	-57.615	0.204972	-0.321946
0.8080	-429.492	-16.6671	-15.6591	-0.854921	-7.9548	20.5888	55.9037	-61.3024	-2.55076	-0.321946
0.8087	-363.881	-17.866	-16.5638	-1.15666	-8.88015	30.3462	22.3392	-53.6396	-3.46175	0
0.8093	-252.19	-20.3222	-18.9997	-0.854921	-10.7146	42.2514	11.9489	-41.7709	-2.55076	0
0.8100	-144.445	-21.2286	-22.0619	-3.5957	-15.2927	46.5165	15.6226	-38.3716	-4.69158	-0.643892
0.8107	-124.608	-15.439	-17.7818	-3.5957	-15.8934	42.5583	2.80168	-31.6883	-5.28372	-0.965839
0.8113	-182.018	-9.03532	-13.2232	-1.45839	-11.9322	30.0393	27.8312	-18.8401	-3.46175	-0.643892
0.8120	-218.308	-5.67266	-10.7874	-1.78528	-8.26325	19.9751	102.901	-7.2595	-3.16568	0
0.8127	-213.439	0.438608	-4.97611	0.0502895	-4.90275	22.7366	181.942	3.11121	-1.93585	0
0.8133	-152.39	6.84228	-1.60071	2.48933	-2.46761	24.5469	259.146	5.53104	0.819888	-0.321946
0.8140	19.1193	10.2049	-1.91389	1.88585	-2.77606	17.2442	324.457	1.26753	0.819888	0
0.8147	207.698	13.246	2.64465	1.88585	-2.77606	11.445	340.32	2.47745	0.819888	-0.321946
0.8153	236.71	14.1524	5.70687	2.48933	-3.37673	3.80478	265.863	1.55561	1.11596	-0.321946
0.8160	172.022	15.9946	5.39369	2.81621	-4.61054	-6.87315	127.003	-0.57615	1.11596	-0.321946
0.8167	155.21	20.2637	10.3002	4.92837	-5.2112	-6.25947	-3.59951	8.00849	2.93793	-0.321946
0.8173	37.4184	16.901	11.205	4.32489	-8.26325	3.49794	-103.699	14.4038	2.93793	0
0.8180	-221.384	6.84228	2.95783	1.88585	-11.9322	11.445	-188.232	10.4283	1.11596	0
0.8187	-318.415	0.731013	-3.13182	1.88585	-12.5329	14.7895	-253.543	4.03305	1.11596	-0.321946
0.8193	-229.893	0.731013	-1.60071	3.11795	-11.6237	14.4827	-285.901	-2.99598	2.64186	-0.321946
0.8200	-190.526	1.95911	1.14833	3.11795	-10.4062	14.1759	-283.767	-10.9469	3.55285	0
0.8207	-191.141	0.116962	-0.382778	2.81621	-9.1886	14.7895	-265.454	-22.8156	3.25678	0
0.8213	-183.196	-2.31	-3.445	0.980644	-9.78927	13.869	-243.783	-31.4002	2.02695	0
0.8220	-148.136	-4.15215	-5.88086	0.352026	-8.88015	12.6417	-226.992	-23.4493	2.02695	0
0.8227	-36.4445	-6.90076	-8.94308	0.0502895	-7.35413	12.9485	-223.021	-15.4984	2.34579	-0.321946
0.8233	10.5592	-7.80722	-10.4742	-0.251447	-5.51966	14.7895	-201.368	-13.3667	2.34579	-0.321946
0.8240	-62.0736	-5.05861	-7.09879	1.28238	-3.99363	15.71	-176.636	-10.025	3.25678	0
0.8247	-85.2422	-5.67266	-5.88086	0.678908	-3.99363	11.445	-180.309	-12.4449	3.25678	0
0.8253	-65.4053	-8.42127	-8.31672	-0.854921	-2.77606	8.06981	-168.101	-13.6548	2.34579	-0.321946
0.8260	-83.4482	-8.09962	-8.94308	-0.854921	-2.15916	6.84246	-131.475	-10.025	1.73087	-0.321946
0.8267	-53.5135	-6.57911	-6.78561	-1.78528	-2.15916	4.41845	-106.148	-11.8687	0.501043	-0.321946
0.8273	50.5405	-2.31	-1.91389	-1.78528	-0.0324686	4.72529	-85.9986	-9.73694	0.204972	0
0.8280	128.965	2.25152	2.05308	-0.553184	1.49355	6.84246	-65.8673	-1.49799	0.204972	0
0.8287	119.841	4.09367	2.36626	-1.15666	0.892885	4.72529	-52.7495	-2.70791	-0.409944	-0.321946
0.8293	55.7176	6.84228	5.39369	-2.08701	-0.324686	0.460255	-40.5408	-10.025	-1.32093	-0.321946
0.8300	15.7362	8.36279	7.55116	-2.38875	-0.941588	-3.22179	-31.6905	-15.7865	-1.93585	-0.321946
0.8307	32.8564	5.61418	5.70687	-2.08701	-0.941588	-4.1423	-32.5997	-19.1858	-1.93585	-0.321946
0.8313	80.4752	4.70772	5.39369	-1.15666	0.584434	-1.99444	-30.1505	-14.2885	-1.32093	0
0.8320	68.8396	7.74873	7.23798	-2.08701	-0.0324686	-2.60811	-21.6156	-7.2595	-1.63978	0
0.8327	-24.5526	10.819	9.08228	-3.29396	-1.25004	-2.91495	-20.391	-5.41581	-2.84683	0
0.8333	-42.2367	11.7254	10.5786	-2.99222	-0.941588	1.65692	-28.6291	-4.83966	-2.55076	0
0.8340	26.4492	9.88329	10.5786	-2.99222	-0.941588	2.88427	-40.5408	-6.68335	-2.23192	0
0.8347	53.616	8.36279	10.3002	-2.38875	0.275983	3.1911	-46.942	-11.2349	-1.32093	0
0.8353	47.5163	6.84228	9.98702	-0.854921	1.80201	4.72529	-44.196	-17.0541	0.204972	0
0.8360	29.781	3.47962	6.9248	-2.08701	0.584434	1.65692	-38.704	-27.0791	0.204972	0
0.8367	1.43523	0.116962	3.86258	-2.69049	-0.0324686	-1.07393	-28.3322	-36.2399	0.819888	0
0.8373	-6.81733	-2.0176	2.05308	-2.08701	0.584434	-1.6876	-14.2867	-35.9518	1.41203	-0.321946
0.8380	3.84436	-2.63165	-0.104394	-2.08701	0.275983	-3.22179	-2.39349	-33.82	1.73087	-0.321946
0.8387	16.9664	-1.69595	-0.69596	-1.78528	1.49355	-4.44913	14.1012	-42.059	2.02695	-0.643892
0.8393	18.5042	-1.40354	-1.00914	-1.15666	2.72736	-3.83546	40.0399	-42.9808	2.64186	-0.321946
0.8400	3.84436	-2.31	-3.13182	-0.553184	1.80201	-4.44913	63.8449	-31.9764	3.25678	-0.321946
0.8407	-8.35507	-3.83051	-3.75818	-0.553184	1.80201	-5.33896	72.6952	-33.82	3.55285	-0.965839
0.8413	-19.9394	-3.21646	-1.32232	0.0502895	3.01958	-2.91495	72.0829	-42.059	4.46383	-0.965839
0.8420	-33.9841	-0.467848	2.05308	-0.553184	4.23715	-0.460255	66.2755	-41.4252	5.3976	0.321946
0.8427	-17.8378	3.18722	6.61162	-0.553184	5.47095	1.04325	54.6791	-36.2399	5.69367	0.321946
0.8433	20.657	7.45633	10.5786	-0.553184	6.38007	2.88427	40.3368	-26.791	5.3976	0
0.8440	51.7707	7.13468	9.08228	-2.08701	6.99697	2.88427	26.6067	-17.0541	3.55285	0
0.8447	79.5526	2.86557	3.58419	-3.29396	8.523	1.96376	16.8472	-14.2885	1.73087	0
0.8453	98.4668	-0.467848	0.208788	-4.22431	8.81521	0.767092	14.398	-16.7084	0.204972	0
0.8460	108.821	-0.789494	1.14833	-5.12952	9.12367	0.767092	16.2349	-18.264	-1.32093	0
0.8467	130.503	1.34506	4.17576	-4.52605	10.9581	2.27059	17.7563	-17.0541	-1.93585	0
0.8473	117.074	1.95911	5.1153	-4.52605	11.575	1.96376	17.144	-18.552	-1.93585	-0.321946
0.8480	56.0251	0.731013	4.80212	-5.733	10.6497	1.35008	16.5318	-22.5275	-2.23192	0
0.8487	66.123	-0.789494	2.95783	-7.26683	9.74057	1.04325	1.5771	-22.5275	-3.46175	0
0.8493	143.318	-0.789494	1.7399	-7.8703	9.43212	0.767092	-19.1665	-17.9759	-5.28372	0
0.8500	172.33	1.66671	3.86258	-7.56856	9.74057	2.88427	23.5452	-13.3667	-5.28372	-0.321946
0.8507	157.67	2.57316	5.1153	-8.17204	9.43212	3.1911	94.6633	-11.523	-5.28372	0
0.8513	145.778	2.57316	4.17576	-9.40413	8.21455	1.04325	105.035	-9.10318	-6.21748	0
0.8520	131.118	2.57316	4.17576	-9.10239	6.68852	-0.767092	77.2595	-6.04958	-5.89864	-0.321946
0.8527	95.6989	3.47962	4.80212	-8.80065	6.38007	-2.91495	45.8288	-4.83966	-4.98765	-0.965839
0.8533	44.7483	4.70772	6.61162	-7.26683	6.99697	-2.60811	8.59058	-1.1523	-3.46175	-0.321946
0.8540	-37.0596	4.09367	7.23798	-5.733	6.68852	-1.07393	-33.212	0.691381	-1.93585	0.321946
0.8547	-152.083	3.18722	6.33323	-6.36162	5.47095	-3.52862	-61.5998	-3.62975	-2.23192	-0.321946
0.8553	-205.186	3.80127	7.23798	-7.26683	4.5456	-6.87315	-63.4181	-7.2595	-3.16568	-0.321946
0.8560	-153.621	5.61418	9.08228	-8.49892	3.94493	-8.10049	-53.3432	-10.6012	-3.75782	0
0.8567	-87.3951	6.54987	9.67384	-9.70586	2.72736	-7.17998	-48.4635	-14.0005	-3.46175	-0.321946
0.8573	-26.9618	7.13468	10.8918	-8.80065	3.32803	-3.22179	-40.5408	-11.8687	-1.32093	0
0.8580	49.9254	8.07038	11.5181	-7.8703	3.32803	-1.6876	-21.3002	-8.46941	-0.113873	0.321946
0.8587	101.491	6.54987	9.98702	-10.0076	1.80201	-4.75597	-12.7653	-9.39125	-1.02486	0
0.8593	128.965	4.09367	7.82955	-12.4466	1.49355	-5.33896	-18.2573	-11.523	-1.32093	-0.321946
0.8600	155.825	1.66671	5.1153	-13.377	2.11046	-3.83546	-11.2438	-15.2104	-0.113873	-0.643892
0.8607	150.648	-0.175443	3.27101	-13.377	3.01958	-3.52862	-20.0942	-20.1077	-0.113873	0
0.8613	116.151	0.438608	3.86258	-12.4466	4.23715	-0.460255	-75.0145	-19.762	0.819888	0.321946
0.8620	129.273	0.438608	3.58419	-11.5414	3.63648	2.27059	-121.715	-17.3421	1.11596	0
0.8627	184.529	-1.0819	1.14833	-10.3093	2.72736	3.80478	-119.582	-16.7084	0.501043	0
0.8633	140.55	-1.69595	-0.104394	-10.0076	2.11046	5.03212	-101.881	-14.9223	-0.113873	-0.321946
0.8640	-21.4771	-0.175443	0.52197	-9.10239	2.11046	2.88427	-98.8195	-6.68335	-0.409944	-0.321946
0.8647	-198.164	2.25152	2.36626	-6.66335	2.72736	-1.6876	-95.7766	2.82314	0.501043	0
0.8653	-365.727	4.09367	4.17576	-3.89743	3.32803	-4.75597	-83.568	3.74498	2.34579	0
0.8660	-389.51	6.22823	6.02005	-0.854921	3.32803	-6.25947	-61.2844	2.18937	3.55285	0
0.8667	-225.331	7.74873	7.23798	1.28238	3.94493	-8.40733	-14.2867	4.6092	4.16776	0
0.8673	-71.1975	6.22823	6.61162	1.28238	3.94493	-11.1382	47.9625	4.95489	3.55285	0
0.8680	7.53494	2.57316	5.39369	0.352026	4.23715	-12.3655	100.155	1.55561	1.41203	0
0.8687	43.5181	0.438608	5.70687	1.28238	5.47095	-11.445	138.915	-5.76151	0.819888	0
0.8693	92.6747	0.116962	6.61162	4.32489	5.1625	-7.48682	172.776	-15.4984	2.64186	-0.321946
0.8700	166.23	0.116962	6.61162	6.16046	2.41891	-1.99444	192.926	-19.762	3.55285	0
0.8707	173.816	1.05266	7.82955	7.06567	0.275983	1.04325	185.3	-20.6838	3.25678	-0.643892
0.8713	75.5544	3.47962	9.08228	10.1333	0.584434	-0.153418	145.316	-18.8401	5.3976	-0.965839
0.8720	-69.711	5.32177	8.45591	14.4079	0.275983	-5.6458	89.1713	-13.6548	9.04154	-0.321946
0.8727	-104.464	6.84228	9.67384	17.7522	-0.0324686	-6.56631	49.1871	-9.10318	11.7973	0
0.8733	-29.4221	8.36279	13.3276	18.6825	-0.941588	-1.07393	30.5773	-8.46941	13.6193	-0.321946
0.8740	-16.6076	6.54987	12.4229	18.0539	-1.85071	3.1911	22.9515	-11.523	14.2342	0
0.8747	-48.9515	2.25152	8.14273	18.0539	-1.25004	5.6458	18.9809	-13.6548	14.2342	0.321946
0.8753	-63.3038	-0.175443	6.33323	18.3556	-1.25004	8.68348	11.9489	-10.9469	13.9381	0
0.8760	-86.78	-0.789494	5.39369	17.4504	-2.46761	12.6417	7.99684	-9.73694	12.7083	-0.321946
0.8767	-120.969	-1.40354	2.95783	15.3131	-3.08451	12.3348	7.68142	-12.1568	11.1824	-0.321946
0.8773	-138.038	-2.31	1.42672	12.8741	-2.46761	6.84246	8.906	-15.4984	9.9753	0
0.8780	-106.309	-2.0176	3.27101	11.642	-0.0324686	2.27059	11.3366	-13.3667	9.65646	-0.321946
0.8787	-42.8518	-1.40354	5.1153	10.4351	1.80201	-0.460255	10.7429	-6.04958	9.65646	0
0.8793	-6.81733	-2.31	5.39369	9.52985	1.80201	-2.60811	9.20287	-2.36222	8.13056	0
0.8800	-35.2143	-1.69595	5.39369	8.90123	2.41891	-1.6876	10.7429	-1.49799	6.9235	-0.321946
0.8807	-85.2422	-0.175443	5.1153	8.29776	2.11046	0.153418	11.0397	-1.78607	6.30858	-0.321946
0.8813	-102.362	-1.0819	3.86258	7.39255	1.80201	0.460255	9.81515	-5.41581	5.3976	-0.321946
0.8820	-87.0875	-3.83051	1.7399	5.55698	1.49355	-0.460255	9.20287	-10.6012	4.78268	0
0.8827	-57.5116	-5.67266	0.208788	4.02316	1.20134	-1.99444	7.68142	-14.2885	3.55285	-0.321946
