MR32 ASCII
Name	TYR30_slow
Frequency	1500
Date	10-09-2015 09:44:11
"Time,s"	"RT TIB.ANT.,uV"	"RT MED. GASTRO,uV"	"RT LAT. GASTRO,uV"	"RT BICEPS FEM.,uV"	"RT VMO,uV"	"RT VLO,uV"	"RT RECTUS FEM.,uV"	"RT SOLEUS,uV"	"RT SEMITEND.,uV"	"Channel 12,uV"
0.0000	2.27834	-532.533	-875.211	-13.8493	2.8134	-4.95639	-1.916	-131.401	-15.6483	-6968.65
0.0007	-31.5813	-762.943	-817.533	-14.7651	2.19617	-4.062	-2.22305	-79.8236	-22.3513	-10541.1
0.0013	-34.0349	-641.777	-537.382	-12.9335	0.976077	-3.42848	-1.3019	-22.4839	-24.1881	-9703.09
0.0020	-5.0474	-301.82	-188.913	-7.75114	-0.545455	-4.062	-3.43897	-92.9863	-24.4982	-9704.06
0.0027	-0.455668	109.548	164.194	-2.56882	-1.16268	-4.36013	-4.36012	-315.114	-26.001	-9904.47
0.0033	-25.7978	207.235	476.703	-3.48466	0.0574163	-2.53409	-0.994844	-505.888	-28.7681	-9788.66
0.0040	-42.5874	-152.856	698.248	-10.8114	0.674641	0.223596	0.528127	-539.445	-34.5646	-9811.18
0.0047	-43.1833	-418.971	793.141	-15.9937	0.0574163	1.7515	4.18817	-489.675	-41.2676	-9816.33
0.0053	-28.5318	-302.732	574.98	-23.0077	-1.46412	1.45338	11.2135	-379.233	-45.2274	-9817.62
0.0060	-12.969	-243.244	196.553	-37.3484	-1.76555	1.45338	13.9524	-168.968	-44.0108	-9790.59
0.0067	10.8309	-137.65	-17.0797	-46.8196	-0.545455	2.34776	15.4876	-13.8971	-40.9575	-9849.14
0.0073	61.7956	261.553	-76.8858	-37.6611	0.976077	2.64589	17.6247	-1.12985	-36.3775	-9862.33
0.0080	100.562	626.814	-31.1036	-24.2363	2.19617	3.57754	16.7036	1.01686	-29.9846	-9530.34
0.0087	105.75	716.898	58.8785	-20.5729	3.11483	3.57754	13.3506	-67.9602	-24.4982	-10366.1
0.0093	84.3687	471.221	158.683	-18.4285	3.41627	1.7515	7.84822	-268.734	-20.5145	-9211.86
0.0100	54.1544	61.0695	260.342	-11.4145	4.03349	1.45338	2.6652	-356.918	-15.9345	-2843.18
0.0107	35.5421	-172.442	230.112	-0.73714	3.41627	2.04963	1.44928	-303.25	-12.595	108.734
0.0113	26.3937	-98.2343	2.45555	6.27686	1.89474	0.819853	-0.380743	-291.952	-11.0683	-112.916
0.0120	27.6205	151.701	-283.206	7.81815	1.89474	0.521725	-2.82487	-302.629	-8.30123	-111.63
0.0127	20.8906	377.791	-388.795	6.90231	2.19617	-0.0745321	-1.916	-263.254	-5.55801	89.1107
0.0133	3.8206	476.999	-254.831	5.98647	0.976077	-2.53409	-1.916	-192.752	-5.27176	-27.3444
0.0140	3.50514	461.427	-6.38442	5.98647	1.29187	-4.36013	-11.3732	-116.769	-3.7451	-4.50379
0.0147	-0.455668	370.492	224.601	7.1927	1.89474	-4.65826	-22.6603	67.5647	-0.978019	0.643398
0.0153	-16.6494	308.571	347.596	8.42126	0.674641	-7.41594	-22.6603	318.729	0.238541	-0.643398
0.0160	-8.69274	310.396	371.115	10.2529	-0.545455	-7.41594	-15.0332	431.318	1.7652	-0.321699
0.0167	12.3731	309.788	286.862	10.5657	0.674641	-4.95639	-7.71311	332.457	3.88822	-0.643398
0.0173	16.6144	312.829	113.228	8.42126	2.51196	-5.29178	-6.79196	-16.9477	5.10478	-0.643398
0.0180	19.6989	274.387	68.0459	7.81815	4.03349	-4.95639	-7.09901	-483.574	6.63144	-0.643398
0.0187	26.7092	172.746	160.211	8.42126	4.63637	-4.062	-6.48491	-849.813	7.87186	-0.321699
0.0193	26.0782	42.1526	208.721	8.10854	3.11483	-5.58991	-8.32722	-1080.53	8.15811	-0.321699
0.0200	26.0782	-158.696	155.954	8.42126	1.5933	-5.88804	-8.32722	-1200.12	9.68477	0
0.0207	7.18553	-312.16	-90.6369	9.33711	2.19617	-4.062	-4.65489	-1179.39	11.8316	0
0.0213	-35.2617	-299.082	-365.876	9.94022	1.89474	-4.65826	-4.65489	-930.653	13.0482	-0.321699
0.0220	-53.243	-302.428	-460.224	11.7719	0.0574163	-5.29178	-4.96194	-477.811	13.3583	-0.321699
0.0227	-36.173	-319.52	-484.015	13.9163	-0.545455	-4.36013	-4.36012	15.3659	13.0482	-0.321699
0.0233	-19.6989	-104.378	-443.417	14.8321	0.0574163	-4.36013	-6.79196	426.742	12.1417	-0.321699
0.0240	-11.4618	165.386	-214.506	15.748	0.976077	-1.93783	-5.57604	637.911	11.8316	-0.321699
0.0247	24.571	211.797	146.787	15.748	2.19617	1.45338	0.528127	574.752	13.0482	0
0.0253	89.5563	190.751	310.981	14.8321	1.89474	0.521725	-0.0859742	300.991	11.8316	0
0.0260	119.49	138.258	191.642	14.8321	1.29187	-0.0745321	-3.43897	-61.2376	9.39852	-0.321699
0.0267	86.8223	-65.6315	72.0293	13.3132	1.89474	2.34776	-2.82487	-374.318	8.77831	0
0.0273	32.8081	-134.548	14.0239	13.0005	2.51196	2.64589	-3.13192	-613.619	6.94155	0
0.0280	-6.55461	43.0649	-75.0851	14.8321	2.8134	3.57754	-4.05307	-834.221	5.10478	-0.321699
0.0287	-16.0185	62.5902	-147.387	12.0846	3.73206	5.70171	-2.22305	-955.058	5.41488	0
0.0293	-28.2164	-106.203	-143.731	7.50542	2.8134	4.1738	-5.26899	-861.111	5.72499	0
0.0300	-81.3192	-86.6773	-14.3513	6.27686	1.5933	2.98128	-9.23609	-659.039	4.81853	0
0.0307	-128.008	47.3228	209.976	6.27686	1.89474	4.47193	-7.09901	-443.012	5.10478	0
0.0313	-120.086	-29.2574	315.565	5.36102	1.29187	3.87567	-7.71311	-168.629	5.10478	0.321699
0.0320	-76.7625	-212.709	259.415	4.7579	1.29187	4.1738	-10.1572	88.2974	4.81853	0.321699
0.0327	-27.936	-233.755	188.913	4.44518	2.51196	6.63336	-6.19014	279.072	4.81853	0
0.0333	-1.05154	-96.4095	107.717	2.92622	2.51196	5.99983	-12.8961	433.465	3.29187	0
0.0340	8.09687	51.2765	4.58368	-0.73714	1.89474	5.70171	-40.3587	519.842	1.4551	0
0.0347	19.6989	86.3732	-70.5014	-5.91946	2.19617	7.86314	-61.4224	486.285	0.834894	0
0.0353	16.9298	-98.8426	-115.629	-10.4987	1.89474	7.22961	-64.4684	307.148	-0.978019	-0.321699
0.0360	-9.91954	-346.953	-93.3653	-11.4145	2.8134	7.86314	-59.2854	116.092	-1.59823	0
0.0367	-18.1566	-266.419	18.935	-10.1859	4.33493	10.5836	-45.8611	41.6348	-0.691769	0
0.0373	16.6144	28.4058	180.346	-10.1859	4.03349	9.35378	-30.9016	47.397	-1.28812	0
0.0380	43.1833	108.331	237.751	-10.1859	2.51196	7.22961	-16.5562	107.561	-1.59823	0.321699
0.0387	31.5813	126.944	32.0312	-8.06386	0.674641	7.52774	-4.65489	124	-0.691769	0
0.0393	9.91954	264.594	-292.646	-5.31634	-1.16268	5.10545	2.0511	29.7149	-0.691769	-0.321699
0.0400	-23.6597	171.53	-608.211	-2.56882	-1.16268	3.87567	13.0435	-113.436	0.238541	0
0.0407	-55.1008	-166.603	-847.49	1.40727	-0.545455	5.10545	28.2978	-399.061	2.07531	0
0.0413	-55.3812	-354.313	-783.101	4.44518	-0.545455	3.87567	43.8591	-828.459	2.98176	0
0.0420	-45.9173	-245.069	-378.099	6.90231	-0.545455	1.7515	60.0346	-1194.98	2.36156	0
0.0427	-29.4432	-64.6582	91.2371	11.1688	0.0574163	1.7515	78.04	-1387.51	2.98176	0
0.0433	-10.5154	-7.60327	415.969	14.8321	-0.84689	0.223596	90.2484	-1310	5.10478	0
0.0440	3.8206	78.7699	570.396	16.0607	-1.46412	-0.708055	80.1771	-988.049	5.72499	0
0.0447	28.8473	113.867	499.567	16.3511	-1.46412	-0.409927	60.0346	-541.252	6.34519	0
0.0453	43.1833	-104.682	292.374	14.8321	-2.68421	-2.23596	49.0544	30.3363	6.63144	0
0.0460	27.936	-315.566	110.772	12.0846	-3.60287	-4.95639	34.709	494.816	6.03509	0
0.0467	-1.367	-305.165	-115.629	11.1688	-2.38278	-4.062	17.3177	547.015	6.03509	0
0.0473	-27.305	-217.575	-355.836	10.2529	-1.16268	-3.42848	16.3965	362.341	6.34519	0
0.0480	-36.4534	-150.119	-392.123	8.73399	-1.16268	-3.42848	19.1477	149.93	6.03509	0
0.0487	-34.6308	-98.8426	-260.943	8.10854	0.373206	-0.409927	4.80227	-177.499	5.41488	0
0.0493	-41.641	-144.949	-186.13	5.67374	3.11483	2.98128	-11.6802	-394.485	5.10478	0
0.0500	-47.775	-214.534	-164.194	3.23895	3.73206	4.1738	-15.9544	-307.205	4.50843	0
0.0507	-23.9401	-116.847	14.6787	5.36102	2.51196	3.87567	-14.7262	-332.231	3.57812	0
0.0513	15.703	26.581	320.749	5.36102	0.0574163	2.04963	-16.2614	-655.988	3.88822	0
0.0520	32.8081	149.572	396.107	2.32311	-1.16268	0.521725	-20.8303	-840.661	5.41488	0
0.0527	27.936	319.824	187.385	3.23895	0.0574163	2.64589	-22.3533	-655.988	7.56175	0.321699
0.0533	16.0185	276.212	-13.4236	4.44518	0.674641	2.98128	-19.9215	-424.709	9.08842	0.321699
0.0540	5.95873	-8.21154	-101.932	4.44518	0.976077	2.04963	-15.0332	-412.506	9.99487	0
0.0547	16.3339	-212.405	-110.445	4.7579	2.51196	4.1738	-6.79196	-442.108	11.5215	0
0.0553	41.3606	-314.654	-157.482	4.15479	2.51196	3.57754	-3.43897	-328.276	12.7381	0
0.0560	49.9132	-353.096	-261.543	2.6135	1.5933	1.11798	-4.36012	-139.988	13.0482	0.321699
0.0567	37.0844	-259.971	-231.312	2.32311	2.19617	2.64589	-1.3019	71.2367	13.6684	0
0.0573	30.67	-125.728	-185.53	5.07063	1.5933	3.57754	6.01819	247.323	12.7381	0
0.0580	41.641	-86.6773	-261.543	5.07063	-0.545455	2.34776	18.5336	279.354	10.6151	-0.321699
0.0587	23.3442	-61.0087	-187.058	-0.134025	-1.16268	3.27941	33.186	104.511	9.99487	0
0.0593	-23.6597	21.6541	-57.0778	-1.96571	-2.06699	2.04963	39.892	-230.601	9.39852	0
0.0600	-50.8245	76.276	-59.4788	-1.34025	-2.38278	0.223596	37.1531	-490.918	8.46821	0
0.0607	-74.9048	165.082	41.526	-1.04987	-2.06699	2.04963	31.9578	-533.626	9.08842	0
0.0613	-93.2367	208.755	157.155	-1.65298	-2.06699	2.64589	25.2519	-447.871	9.99487	-0.321699
0.0620	-87.4182	103.161	127.579	-2.56882	-2.06699	1.11798	10.9064	-234.273	8.15811	0
0.0627	-74.9048	70.1934	85.1256	-3.48466	-1.76555	2.04963	-8.32722	97.4491	3.88822	0.321699
0.0633	-55.1008	127.248	124.196	-3.17194	-2.06699	2.34776	-22.9674	337.654	-0.0715623	0
0.0640	-29.1277	148.963	299.686	-2.85921	-3.28708	2.04963	-19.3074	420.359	-3.43499	0
0.0647	-5.0474	227.672	502.023	-3.17194	-2.68421	3.87567	-8.32722	413.636	-4.65155	0
0.0653	12.0577	263.377	544.149	-3.48466	-1.46412	3.57754	-8.92904	250.995	-5.27176	-0.321699
0.0660	24.571	86.3732	455.313	-4.69089	-1.46412	2.04963	-9.85019	-19.4333	-5.86811	0
0.0667	43.4988	-17.7004	351.252	-5.31634	-1.46412	3.87567	-15.6473	-277.264	-5.27176	0.321699
0.0673	51.7358	114.171	234.368	-4.69089	-1.16268	3.87567	-52.5671	-551.025	-4.03135	0
0.0680	40.7297	191.663	93.3653	-3.77505	-1.46412	2.98128	-86.748	-801.569	-2.21843	0.321699
0.0687	25.1669	138.258	29.9031	-2.56882	-0.84689	5.99983	-83.702	-947.771	-0.691769	0
0.0693	19.068	72.9306	41.7988	-2.25609	-0.545455	7.86314	-66.0036	-944.72	-0.0715623	0
0.0700	31.5813	2.12892	46.7099	-3.48466	0.0574163	7.22961	-52.8741	-763.436	-0.0715623	0
0.0707	35.8576	-33.2719	48.5107	-2.56882	1.29187	8.45939	-47.6911	-428.946	1.4551	0.321699
0.0713	20.8906	-12.5302	17.6799	-1.96571	1.89474	7.52774	-35.1757	-72.1971	2.07531	0.321699
0.0720	4.73194	30.2306	-34.4868	-2.56882	0.373206	4.80732	-9.54314	86.7721	0.834894	0.321699
0.0727	-16.9298	110.46	-35.6873	-2.56882	-1.46412	4.80732	-0.380743	115.47	0.834894	0.321699
0.0733	-38.3112	153.221	-19.2078	-2.56882	-2.68421	5.10545	-15.6473	173.431	1.145	0
0.0740	-41.0452	61.6778	-40.5983	-3.17194	-1.76555	4.1738	-23.2744	167.951	-0.0715623	0
0.0747	-43.4988	-6.99501	-54.022	-3.77505	-0.244019	4.80732	-4.36012	88.2974	-0.0715623	0.321699
0.0753	-53.874	55.8384	-34.1594	-3.17194	-1.16268	3.27941	16.3965	-1.41231	1.145	0.321699
0.0760	-38.907	63.8067	-42.3991	-2.25609	-1.46412	1.45338	27.0819	-222.975	1.4551	0.321699
0.0767	-1.05154	-1.21652	-73.5572	-1.96571	0.674641	4.47193	44.4732	-522.327	1.4551	0.321699
0.0773	32.2122	51.2765	-71.4291	-3.77505	2.19617	6.33523	50.8844	-575.43	-0.691769	0
0.0780	50.1936	178.829	-42.3991	-7.75114	3.73206	6.93149	42.3362	-488.489	-4.96166	0.321699
0.0787	43.4988	204.194	57.678	-9.58282	5.25359	9.05565	36.232	-566.617	-6.79842	0.321699
0.0793	29.1277	97.3827	168.45	-9.58282	4.03349	7.52774	26.4678	-676.438	-5.27176	0.321699
0.0800	24.571	-79.6215	134.564	-7.75114	2.8134	5.99983	15.4876	-604.75	-2.81479	0.321699
0.0807	19.068	-205.045	27.4475	-5.60673	3.41627	7.86314	7.55345	-374.657	-0.0715623	0
0.0813	1.68247	-176.092	-34.7596	-5.31634	1.5933	5.70171	-4.05307	-194.898	0.238541	0.321699
0.0820	-25.4824	-124.815	-63.1894	-5.31634	-0.545455	2.34776	-10.452	-120.441	-1.59823	0
0.0827	-38.907	-163.866	-76.8858	-3.48466	-0.545455	3.27941	-8.32722	41.0134	-1.28812	0
0.0833	-39.2225	-199.267	-79.3414	-3.77505	-1.16268	3.27941	-9.23609	214.049	-0.381666	0
0.0840	-40.7297	-174.267	-99.8043	-4.4005	-1.46412	2.64589	-8.62198	208.569	-0.381666	0
0.0847	-35.2617	-131.202	-128.452	-2.85921	-0.244019	4.80732	-0.687794	88.6363	0.834894	0
0.0853	-22.1174	-106.811	-115.356	-2.25609	-0.244019	4.1738	3.58635	24.8566	0.548645	0.321699
0.0860	-12.3731	-89.1104	-61.0067	-3.48466	-0.84689	1.7515	3.58635	76.9989	-1.59823	0
0.0867	-8.69274	-58.2715	9.16737	-2.56882	-0.545455	2.34776	6.93935	142.022	-0.381666	0.321699
0.0873	-11.1463	-14.0509	66.518	0.781815	-2.06699	1.7515	8.46232	131.062	2.98176	0
0.0880	-23.9401	17.0922	104.661	4.15479	-2.98565	1.7515	8.76937	48.9223	4.50843	-0.321699
0.0887	-40.7297	15.5715	132.436	1.69766	-1.16268	5.10545	11.8153	-48.6963	4.81853	0
0.0893	-43.4988	-14.0509	106.843	-2.25609	-0.84689	4.1738	10.2923	-119.82	4.19832	0.321699
0.0900	-27.6205	-46.0454	51.5664	-1.34025	-1.76555	1.11798	5.71114	-168.064	6.03509	0.321699
0.0907	-2.90926	-45.4372	24.1189	2.01038	-1.76555	2.04963	5.10932	-202.525	12.1417	0.321699
0.0913	19.3834	-43.3083	-19.8081	2.01038	-2.38278	1.45338	8.15527	-211.959	14.5749	0
0.0920	27.936	-37.5298	-56.1501	-0.424414	-2.68421	1.45338	14.5665	-238.849	12.1417	-0.321699
0.0927	20.2948	12.5302	-32.9589	-1.04987	-1.76555	5.40358	24.9448	-329.802	12.1417	0
0.0933	12.0577	19.2211	-35.4144	-0.424414	-2.38278	5.40358	35.9249	-403.016	13.6684	0.321699
0.0940	4.73194	-32.0554	-69.5738	-0.424414	-3.60287	1.7515	43.5644	-439.058	12.1417	0
0.0947	-8.69274	-28.9533	-58.8785	1.69766	-4.20574	2.64589	49.6562	-464.084	11.5215	0
0.0953	-18.4721	-6.99501	-24.3917	2.6135	-6.04307	1.45338	48.4403	-421.658	11.5215	0
0.0960	-17.8412	-14.0509	9.16737	1.09454	-7.86603	-0.708055	44.1662	-332.513	9.08842	0.321699
0.0967	-14.1958	2.73718	24.1189	0.781815	-6.96173	2.98128	53.0215	-224.218	7.56175	0.321699
0.0973	-18.4721	36.3132	4.25628	0.781815	-6.04307	5.10545	58.2045	-114.34	5.10478	0.321699
0.0980	-27.0246	48.5393	4.58368	0.781815	-6.04307	3.27941	50.8844	-115.244	1.7652	0
0.0987	-20.6102	24.7563	8.83996	2.01038	-4.50718	3.57754	41.4273	-230.601	0.834894	0
0.0993	-8.69274	16.4839	-25.6468	2.32311	-3.60287	3.27941	24.0236	-357.257	1.4551	0.321699
0.1000	-6.23915	67.4562	-78.7411	1.40727	-3.60287	2.34776	1.44928	-457.022	-1.28812	0.321699
0.1007	6.23915	63.1984	-135.819	1.40727	-2.98565	3.57754	-6.48491	-494.251	-5.55801	0
0.1013	27.305	-2.73718	-142.804	0.781815	-2.98565	2.04963	-13.8173	-422.845	-7.39478	0.321699
0.1020	29.1277	16.788	-80.5419	-0.134025	-3.90431	-0.409927	-34.2669	-352.681	-10.4481	0
0.1027	12.0577	68.3686	-28.9754	-1.96571	-2.98565	1.45338	-45.247	-404.541	-13.8115	0
0.1033	-3.8206	50.9724	-8.23972	-5.60673	0.0574163	4.47193	-33.9598	-498.827	-14.718	0
0.1040	-13.5649	29.3182	38.743	-5.91946	1.89474	6.33523	-7.71311	-608.704	-15.6483	0.321699
0.1047	-22.7483	40.5711	75.6854	-2.85921	1.29187	5.10545	9.98529	-686.55	-13.8115	0.321699
0.1053	-25.7978	45.498	6.71182	-0.134025	-0.545455	1.45338	8.15527	-618.195	-9.54165	0.321699
0.1060	-19.9793	29.3182	-93.9655	2.32311	-2.98565	-0.708055	9.98529	-479.619	-6.79842	0.321699
0.1067	-12.969	8.57649	-89.109	2.92622	-4.20574	-1.00618	16.0895	-335.282	-6.79842	0.321699
0.1073	-11.1463	3.04131	-37.8154	2.6135	-3.28708	-0.0745321	13.9524	-173.544	-6.48832	0
0.1080	-10.5154	6.14345	-31.7584	2.32311	-2.98565	0.521725	10.2923	-35.5901	-4.65155	0
0.1087	-9.00821	0.912393	-36.0147	1.69766	-4.20574	-1.60244	8.15527	68.4686	-5.55801	0.321699
0.1093	-11.1463	-2.12892	-20.1355	1.09454	-4.50718	-2.53409	-10.1572	115.753	-7.08467	0
0.1100	-14.7917	4.25783	-3.32863	1.69766	-4.20574	-1.93783	-49.8282	78.5242	-5.86811	0
0.1107	-14.7917	8.27236	2.45555	1.09454	-3.28708	-2.23596	-81.872	8.64332	-6.17822	0.321699
0.1113	-9.91954	14.9632	4.58368	-0.424414	-0.84689	-0.0745321	-94.0803	-36.494	-7.70488	0.321699
0.1120	-6.87007	32.6637	3.98344	0.178701	0.976077	2.34776	-96.2174	-79.5411	-6.79842	0.321699
0.1127	-9.91954	45.8021	-2.12814	1.40727	-0.545455	-0.708055	-95.6033	-154.902	-5.55801	0.643398
0.1133	-9.91954	58.5756	-12.496	2.6135	-3.28708	-2.53409	-93.1592	-205.858	-4.65155	0.321699
0.1140	-5.64327	79.6823	-17.4071	4.7579	-4.20574	-0.708055	-83.702	-204.671	-1.90833	0
0.1147	-3.18968	93.0641	-10.3679	4.44518	-5.72728	-1.60244	-73.0167	-213.823	2.07531	0.321699
0.1153	1.68247	82.7236	2.12814	4.44518	-6.64594	-2.83222	-59.2854	-241.9	4.81853	0
0.1160	7.46594	41.2402	5.78417	6.27686	-6.3445	-2.23596	-35.4828	-264.497	7.56175	0.321699
0.1167	8.09687	3.04131	-5.78417	6.27686	-6.64594	-3.76387	-14.4191	-305.341	7.87186	0.321699
0.1173	11.4268	-24.0872	-15.2789	7.81815	-8.18182	-4.65826	-0.0859742	-365.166	6.94155	-0.321699
0.1180	19.068	-46.9578	-17.6799	10.2529	-8.48326	-5.29178	9.67824	-402.394	6.63144	-0.321699
0.1187	17.2453	-29.8657	-25.3194	8.10854	-7.5646	-6.48429	19.7495	-406.066	5.41488	0
0.1193	5.0474	-7.29914	-23.5187	8.10854	-6.3445	-6.18616	37.4602	-367.934	7.56175	0.321699
0.1200	-4.13606	-10.3405	-9.76761	10.5657	-6.64594	-6.48429	51.4986	-285.229	13.6684	0.321699
0.1207	-12.3731	-10.3405	-3.05579	9.64983	-6.96173	-8.64572	56.3745	-218.399	17.008	0.643398
0.1213	-21.5215	-0.912393	1.8553	10.5657	-5.1244	-7.11782	51.1915	-180.832	18.8448	0.321699
0.1220	-22.4329	5.47436	5.78417	10.5657	-3.90431	-5.88804	12.7365	-153.094	16.7217	0.321699
0.1227	-16.6494	4.8661	2.12814	6.90231	-3.90431	-7.71407	-34.8687	-158.574	7.87186	0.321699
0.1233	-12.0577	5.17023	-0.272838	6.27686	-2.68421	-6.48429	-42.4958	-190.944	2.07531	0.321699
0.1240	-9.91954	6.75171	0.327406	7.81815	-2.98565	-5.29178	-33.0387	-234.273	-0.978019	0.321699
0.1247	-8.09687	4.8661	-0.92765	7.50542	-6.3445	-8.94385	-31.8227	-268.112	-4.34145	0
0.1253	-7.78141	7.05584	-1.52789	7.50542	-7.26316	-9.83824	-26.6274	-279.75	-5.27176	0
0.1260	-7.78141	14.9632	-0.92765	7.1927	-5.1244	-7.11782	-18.6932	-287.659	-4.65155	0.321699
0.1267	-7.18553	19.2211	-1.52789	4.44518	-3.90431	-5.88804	-13.8173	-295.906	-3.12489	0
0.1273	-7.46594	21.0459	-0.272838	2.92622	-3.90431	-4.062	-4.96194	-301.725	0.834894	0
0.1280	-10.5154	23.5397	2.12814	2.6135	-4.20574	-3.13035	2.0511	-310.538	3.29187	0.321699
0.1287	-11.4618	22.8706	-0.600244	1.09454	-5.1244	-3.76387	2.6652	-312.402	2.67166	0.321699
0.1293	-9.00821	21.35	-4.25628	0.491427	-5.42584	-3.42848	13.9524	-304.776	1.145	0.321699
0.1300	-5.95873	20.1335	-5.18393	1.40727	-6.64594	-6.18616	35.3231	-316.074	1.4551	0.321699
0.1307	-1.367	18.0046	-4.58368	3.84206	-7.86603	-9.24198	50.8844	-329.18	4.50843	0.321699
0.1313	-0.77113	16.1798	-0.600244	6.58958	-7.86603	-8.64572	52.1004	-310.255	5.72499	0
0.1320	-5.95873	12.2261	3.05579	8.10854	-8.18182	-9.54011	40.5061	-286.755	4.19832	0.321699
0.1327	-5.64327	7.6641	1.8553	9.02438	-7.86603	-12.2978	34.0949	-273.648	4.50843	0.321699
0.1333	0.140206	6.75171	-0.272838	9.64983	-7.86603	-12.2978	32.5719	-252.238	5.10478	0
0.1340	-0.140206	10.4013	1.52789	8.73399	-7.5646	-11.3661	23.1148	-219.02	6.03509	0
0.1347	-4.73194	14.355	6.11158	7.50542	-6.96173	-10.7699	16.7036	-194.898	6.94155	0.321699
0.1353	-7.78141	17.0922	9.76761	6.90231	-6.64594	-10.1736	19.1477	-201.282	6.03509	0.321699
0.1360	-13.8803	18.0046	8.23972	6.27686	-5.72728	-10.1736	23.1148	-226.026	5.72499	0.321699
0.1367	-19.3834	16.4839	4.25628	5.67374	-3.60287	-9.83824	31.9578	-236.985	6.03509	0.321699
0.1373	-16.9298	14.355	5.18393	4.15479	-1.76555	-7.71407	44.7803	-226.929	3.57812	0.321699
0.1380	-13.5649	13.4426	8.23972	3.23895	0.674641	-6.18616	50.8844	-230.601	1.7652	0
0.1387	-11.1463	15.5715	9.76761	3.84206	3.41627	-4.36013	50.8844	-258.96	3.57812	0
0.1393	-7.18553	15.5715	9.44021	2.92622	4.33493	-3.76387	50.5774	-277.603	0.238541	0
0.1400	-4.13606	12.2261	7.96688	0.178701	5.25359	-4.36013	53.0215	-283.704	-6.79842	0
0.1407	-2.27834	12.2261	8.83996	0.178701	7.69378	-2.23596	56.9886	-285.851	-5.27176	0
0.1413	-2.90926	11.3137	9.44021	1.40727	9.21532	-1.30431	54.2374	-276.078	-0.0715623	0
0.1420	-6.55461	8.57649	7.63947	0.491427	8.61244	-3.13035	46.3033	-261.107	-4.03135	0.321699
0.1427	-7.78141	9.48889	8.23972	-1.34025	8.61244	-1.60244	39.2902	-252.577	-13.5014	0
0.1433	-3.8206	11.6178	9.44021	-3.17194	8.61244	1.7515	27.9907	-244.611	-18.0814	0.321699
0.1440	-0.77113	10.7054	7.96688	-5.31634	7.99522	1.45338	-8.32722	-236.703	-16.2447	0.321699
0.1447	-1.99793	10.0971	8.56712	-6.8353	7.99522	1.11798	-69.9707	-240.375	-13.8115	0.321699
0.1453	-5.0474	11.0095	10.6953	-5.91946	7.99522	2.34776	-118.792	-250.713	-11.0683	0.321699
0.1460	-7.18553	7.35997	7.96688	-4.4005	7.07656	1.11798	-134.66	-258.678	-7.08467	0.321699
0.1467	-9.60408	4.8661	6.11158	-2.56882	6.47369	-0.0745321	-128.261	-267.83	-3.7451	0
0.1473	-12.3731	6.44758	7.63947	2.92622	5.85646	-1.30431	-114.825	-274.835	-0.0715623	0
0.1480	-13.5649	6.14345	8.23972	7.50542	4.95216	-4.36013	-103.23	-273.027	2.07531	-0.321699
0.1487	-13.8803	6.75171	9.76761	5.67374	5.55503	-4.062	-87.6691	-262.011	4.19832	0
0.1493	-15.703	7.96823	10.3679	2.01038	6.17225	-2.83222	-69.6637	-254.102	7.56175	0.321699
0.1500	-17.2453	8.57649	9.16737	0.781815	6.17225	-3.13035	-49.5211	-256.249	10.9252	0.321699
0.1507	-15.703	10.4013	8.23972	1.40727	5.25359	-4.95639	-23.5815	-261.446	16.4116	-0.321699
0.1513	-12.3731	11.3137	6.43898	2.01038	3.73206	-8.0122	6.01819	-263.536	20.3714	0
0.1520	-10.5154	9.79302	3.3832	0.491427	3.41627	-8.0122	35.6179	-250.713	18.2484	0.321699
0.1527	-10.5154	7.6641	1.8553	-3.17194	4.03349	-6.18616	56.0675	-253.82	10.305	0.321699
0.1533	-13.5649	7.05584	2.12814	-2.56882	4.33493	-5.88804	64.0017	-235.799	1.7652	-0.321699
0.1540	-17.5607	7.6641	1.8553	0.178701	4.95216	-5.88804	61.8646	-88.9753	-2.50468	-0.321699
0.1547	-18.1566	8.27236	0.600244	-3.17194	7.39235	-3.76387	53.0215	32.7655	-7.70488	0
0.1553	-16.6494	10.4013	1.20049	-6.23218	8.91388	-1.60244	36.8461	26.3819	-15.3382	0
0.1560	-15.703	12.2261	1.8553	-5.00362	9.21532	-2.23596	12.4294	20.2807	-16.5548	0.321699
0.1567	-14.5113	12.2261	1.52789	-3.17194	9.83254	-3.76387	-15.3403	30.6188	-13.5014	0
0.1573	-11.1463	11.9219	2.45555	-2.25609	10.134	-4.062	-43.1099	31.8616	-13.1913	0
0.1580	-7.78141	11.6178	2.45555	-1.65298	7.69378	-6.18616	-57.4553	34.9122	-13.1913	0.321699
0.1587	-5.0474	11.3137	1.20049	-0.424414	4.95216	-8.64572	-57.7624	39.4881	-8.92144	0.321699
0.1593	-2.90926	11.9219	0.92765	0.781815	3.73206	-9.83824	-57.1483	42.5387	-3.12489	0
0.1600	-1.05154	12.5302	0.600244	0.178701	3.73206	-9.54011	-52.5671	50.7865	0.548645	0
0.1607	0.455668	15.2674	1.20049	-1.04987	5.25359	-6.18616	-37.6199	63.8927	-0.691769	0.321699
0.1613	-1.68247	16.4839	2.72838	-3.48466	7.07656	-3.13035	-13.5102	66.9433	-3.7451	0.321699
0.1620	-3.50514	14.6591	3.98344	-4.08778	5.85646	-3.76387	19.7495	62.9889	-4.65155	0.321699
0.1627	0.140206	14.355	4.91109	-1.96571	4.03349	-4.36013	61.2628	61.746	-6.17822	0
0.1633	3.50514	16.4839	4.58368	0.781815	4.33493	-4.062	91.7713	59.0344	-8.30123	0
0.1640	2.5938	16.4839	2.72838	2.01038	4.63637	-6.18616	97.2737	53.2157	-6.48832	0.321699
0.1647	-0.140206	15.5715	0.600244	2.32311	4.33493	-7.71407	102.764	49.2612	-4.34145	0.321699
0.1653	-8.37728	17.7004	0.600244	1.40727	6.77512	-4.36013	121.985	51.069	-6.48832	0
0.1660	-26.7092	17.0922	-1.80073	-1.04987	9.53111	-2.23596	137.559	51.9729	-11.9748	0
0.1667	-21.5215	14.9632	-6.71182	-2.56882	8.91388	-3.42848	125.043	49.5437	-15.0281	0
0.1673	44.4101	14.6591	-7.03923	-1.65298	7.39235	-2.83222	94.8296	49.5437	-10.7582	0
0.1680	119.49	13.4426	-3.98344	0.491427	5.85646	-3.13035	62.7857	50.4476	-4.34145	0.321699
0.1687	143.29	10.0971	-1.80073	2.01038	3.41627	-5.29178	28.2978	50.4476	-0.978019	0.321699
0.1693	142.659	7.05584	-3.05579	1.69766	3.11483	-5.88804	6.6323	49.2612	-1.90833	0
0.1700	141.748	7.35997	-6.11158	-0.134025	6.17225	-4.062	2.97225	46.8321	-6.48832	0
0.1707	117.037	10.0971	-7.31207	-0.73714	8.91388	-3.13035	-0.380743	43.4425	-8.30123	0
0.1713	87.4182	11.6178	-6.38442	-1.96571	8.61244	-3.76387	-10.1572	40.7309	-4.03135	0
0.1720	76.7625	13.7467	-3.98344	-2.25609	7.07656	-3.42848	-22.3533	38.2453	2.98176	0.321699
0.1727	48.9668	17.0922	-0.600244	0.178701	15.3158	-4.36013	-35.7898	33.6694	9.68477	0
0.1733	-30.67	20.4376	3.65603	2.32311	31.1914	-6.48429	-39.4499	29.4325	13.6684	0
0.1740	-179.603	24.7563	7.03923	2.92622	38.2105	-6.81969	-24.4904	27.5682	13.9547	-0.321699
0.1747	-278.483	27.1893	8.56712	4.44518	35.4689	-7.71407	-27.5486	25.4215	13.9547	0
0.1753	-247.042	27.4934	9.16737	6.27686	27.2297	-8.64572	-56.2394	24.8566	13.6684	0.321699
0.1760	-222.611	27.4934	7.63947	5.67374	16.8517	-7.11782	-53.7953	25.7605	14.5749	0
0.1767	-177.15	25.6687	3.3832	2.01038	7.99522	-4.95639	-31.8227	24.2352	16.1015	0
0.1773	-69.4368	18.9169	-2.12814	0.781815	1.29187	-3.42848	-26.0256	24.2352	16.7217	0
0.1780	-59.0616	11.6178	-7.91231	2.01038	-2.98565	-0.409927	-23.2744	32.7655	17.3181	-0.321699
0.1787	-181.426	3.04131	-14.0239	1.69766	-6.96173	-0.0745321	-16.5562	47.736	16.7217	0.321699
0.1793	-294.957	-4.8661	-18.0073	1.40727	-12.1435	-2.83222	-18.6932	58.6955	17.6282	0
0.1800	-301.652	-2.43305	-15.5518	2.6135	-13.0622	-2.83222	-43.724	56.2663	20.3714	0
0.1807	-235.756	3.04131	-12.496	3.23895	-11.5263	-1.00618	-67.8336	43.4425	22.2082	0
0.1813	-128.639	3.04131	-14.0239	2.6135	-11.5263	-1.60244	-71.1866	28.4721	20.3714	0
0.1820	-29.1277	3.9537	-14.6241	2.92622	-9.40192	-1.93783	-66.6054	16.8912	16.7217	0
0.1827	0.140206	7.96823	-12.2232	4.15479	-7.26316	-1.30431	-47.077	6.21415	13.3583	0.321699
0.1833	-2.5938	13.4426	-9.16737	4.44518	-7.26316	-1.60244	-27.8556	-5.70572	10.6151	0.321699
0.1840	-6.87007	23.8439	-1.20049	4.44518	-7.5646	-0.409927	-28.7645	-15.7613	8.46821	0
0.1847	61.7956	37.5298	14.0239	3.23895	-6.64594	3.57754	-28.7645	-19.7158	5.10478	0
0.1853	145.428	48.2352	29.3028	0.491427	-3.90431	4.80732	-20.5233	-20.6197	1.4551	0
0.1860	127.412	53.4054	39.0704	0.781815	-0.545455	2.04963	-7.09901	-21.8625	2.67166	0
0.1867	142.659	52.1889	42.1262	3.84206	0.976077	0.819853	6.01819	-20.6197	9.08842	0
0.1873	181.426	45.498	39.6707	5.07063	0.674641	1.45338	25.2519	-13.6146	15.1951	0.321699
0.1880	182.653	35.4008	33.2863	3.52934	-0.84689	1.45338	58.5116	-2.65514	17.008	0
0.1887	154.261	27.1893	28.3752	2.6135	-1.16268	2.34776	86.8954	11.129	19.465	0
0.1893	82.546	20.7417	26.247	2.6135	-1.16268	2.34776	99.1037	27.2858	22.5183	0.321699
0.1900	105.75	10.7054	21.0631	2.92622	-2.98565	-1.00618	94.5225	39.7705	24.0449	0.321699
0.1907	209.818	-1.21652	14.0239	4.7579	-3.28708	-2.23596	78.3471	50.1651	28.0047	0.321699
0.1913	261.378	-13.4426	6.11158	6.58958	-2.38278	-0.0745321	62.4787	63.2713	29.5314	0.321699
0.1920	289.454	-27.4326	-5.51133	5.67374	-3.60287	-1.93783	40.5061	73.6659	27.0983	0
0.1927	341.961	-37.8339	-13.0962	3.84206	-4.82297	-4.36013	18.5336	85.5858	24.9514	0.321699
0.1933	348.06	-41.4835	-14.0239	3.84206	-3.60287	-1.93783	10.2923	108.748	20.6815	0.321699
0.1940	274.522	-45.133	-15.8792	3.84206	-2.98565	-0.409927	-0.380743	133.491	14.2648	0
0.1947	149.985	-51.2765	-19.8081	2.92622	-4.50718	-2.83222	-17.4773	146.315	10.9252	0
0.1953	17.8412	-52.1889	-21.9908	1.69766	-4.50718	-4.062	-26.9345	144.168	11.8316	0
0.1960	-49.2822	-44.5248	-18.935	1.40727	-3.60287	-2.53409	-28.7645	127.955	13.0482	0
0.1967	-46.2328	-36.6174	-14.6241	1.40727	-4.20574	-2.83222	-29.3786	101.743	6.63144	-0.321699
0.1973	5.64327	-30.5347	-11.2955	0.781815	-4.20574	-4.062	-25.1045	70.3329	-3.12489	0
0.1980	63.9337	-23.1748	-7.31207	0.781815	-2.98565	-2.23596	-13.8173	49.8827	-7.70488	0.321699
0.1987	110.938	-21.6541	-5.51133	0.178701	-2.98565	-1.93783	-5.88309	47.1145	-11.0683	0.321699
0.1993	127.727	-24.6954	-6.38442	-1.96571	-4.20574	-2.83222	-3.13192	52.9332	-15.0281	0.321699
0.2000	40.7297	-23.783	-5.51133	-3.77505	-3.28708	-1.60244	1.44928	56.8877	-14.4079	0.321699
0.2007	-49.2822	-17.3963	1.52789	-4.69089	-1.16268	0.521725	4.80227	57.5091	-8.01498	0.321699
0.2013	-73.0821	-8.51567	9.76761	-3.77505	-0.244019	2.04963	4.80227	54.741	-3.43499	0
0.2020	-139.61	0.912393	12.496	-2.85921	-0.84689	1.7515	4.18817	40.392	-4.65155	0
0.2027	-228.745	11.3137	12.496	-3.77505	-0.84689	1.11798	2.97225	18.134	-6.79842	0.321699
0.2033	-207.995	14.9632	10.9681	-5.31634	0.0574163	1.7515	1.14223	4.97132	-8.92144	0
0.2040	-81.6347	7.05584	3.98344	-5.31634	0.0574163	3.27941	1.44928	8.0219	-9.23154	0
0.2047	-54.4698	-2.73718	-5.18393	-5.31634	-0.545455	3.27941	0.528127	13.2192	-5.55801	0
0.2053	-234.844	-4.56196	-7.91231	-5.31634	-1.16268	1.11798	-5.57604	4.06744	-0.381666	0.321699
0.2060	-347.149	0	-0.600244	-5.60673	-0.545455	0.223596	-11.3732	-6.60959	2.07531	0.321699
0.2067	-202.492	3.04131	8.83996	-5.60673	0.976077	1.7515	-11.9873	1.35581	-0.978019	0.321699
0.2073	-20.8906	3.9537	15.8792	-5.31634	2.19617	2.34776	-11.9873	13.5581	-2.50468	0.321699
0.2080	58.4307	7.35997	22.591	-5.91946	2.8134	1.45338	-14.7262	16.2698	-4.34145	0
0.2087	78.9007	11.3137	31.1581	-6.52257	3.73206	2.04963	-16.8632	20.2807	-15.3382	-0.321699
0.2093	140.241	12.5302	39.3979	-7.14802	5.25359	4.1738	-19.0003	31.5227	-25.7147	-0.643398
0.2100	236.036	8.57649	43.0539	-8.66698	6.47369	5.10545	-19.3074	50.4476	-26.9313	0
0.2107	272.384	0.608262	41.526	-8.9797	6.47369	4.80732	-14.4191	69.7114	-24.1881	0
0.2113	267.197	-3.04131	36.0147	-7.14802	6.17225	4.47193	-9.23609	76.434	-18.0814	0
0.2120	203.403	-7.60327	21.6634	-6.23218	4.95216	3.87567	-8.02017	71.2367	-12.2849	0
0.2127	145.113	-18.3087	3.98344	-6.52257	4.33493	2.34776	-8.92904	62.3674	-11.6647	0
0.2133	239.121	-31.4471	-8.23972	-6.23218	4.33493	3.57754	-5.57604	62.6499	-14.1216	0
0.2140	357.209	-45.7413	-16.152	-5.60673	5.25359	5.99983	2.6652	83.7215	-16.5548	0
0.2147	319.353	-56.1426	-20.1355	-6.23218	5.25359	5.10545	5.10932	107.222	-13.8115	0.321699
0.2153	197.9	-58.2715	-18.6076	-5.91946	4.95216	4.47193	3.58635	118.238	-6.48832	0
0.2160	116.125	-55.8384	-14.6241	-5.60673	4.63637	5.70171	4.49522	122.193	-0.691769	0
0.2167	73.0821	-53.1013	-10.0405	-7.14802	3.41627	3.57754	2.0511	122.475	1.145	0.321699
0.2173	-5.64327	-46.6537	-3.65603	-6.8353	2.8134	1.7515	-1.3019	123.718	2.98176	0
0.2180	-96.6016	-37.8339	3.3832	-6.23218	3.11483	3.27941	-0.687794	127.39	4.19832	0
0.2187	-132.284	-33.5761	9.16737	-6.52257	3.73206	4.47193	0.528127	127.955	2.07531	0
0.2193	-160.08	-34.4885	10.3679	-6.52257	3.73206	3.57754	-3.74602	123.379	0.834894	0
0.2200	-148.758	-36.3132	7.96688	-5.31634	4.33493	2.98128	-8.02017	116.995	6.34519	0
0.2207	-64.8451	-37.2256	3.3832	-4.4005	4.63637	3.57754	-8.02017	106.036	10.305	0.321699
0.2213	-9.91954	-38.7463	-3.98344	-4.69089	2.51196	2.34776	-8.92904	90.7266	8.15811	0.321699
0.2220	14.1958	-38.7463	-10.3679	-4.4005	0.674641	2.34776	-9.54314	80.3885	9.08842	0
0.2227	50.8245	-39.6587	-15.2789	-3.48466	0.0574163	2.34776	-10.7591	71.2367	13.0482	0
0.2233	82.2305	-40.5711	-17.0797	-3.17194	-0.84689	0.819853	-12.2943	65.418	14.2648	0
0.2240	161.271	-38.7463	-14.3513	-3.17194	-0.84689	1.7515	-13.2032	69.3725	12.1417	0.321699
0.2247	261.694	-34.1843	-8.23972	-2.56882	0.0574163	4.1738	-13.2032	73.0445	5.72499	0.321699
0.2253	231.795	-25.6078	0.327406	-2.56882	0.373206	3.87567	-12.5891	69.7114	-0.691769	0
0.2260	94.7439	-14.0509	9.16737	-2.25609	0.373206	1.45338	-13.2032	59.3169	3.29187	0
0.2267	-15.703	-1.82479	16.2066	-0.134025	1.5933	2.64589	-9.23609	49.8827	14.5749	0.321699
0.2273	4.73194	4.56196	18.0073	1.69766	1.29187	2.98128	-5.88309	47.1145	22.5183	0.321699
0.2280	93.5521	1.82479	12.496	1.40727	-1.16268	0.223596	-9.23609	50.4476	26.7882	0
0.2287	79.812	-4.25783	7.31207	1.69766	-2.06699	1.45338	-6.48491	63.6103	29.2213	0.321699
0.2293	24.2556	-10.9487	2.72838	3.52934	-0.244019	5.10545	0.528127	79.1456	31.6544	0
0.2300	6.55461	-18.3087	-4.85652	3.52934	-0.244019	3.57754	-0.0859742	76.7165	31.9645	0
0.2307	-74.6244	-20.7417	-10.3679	1.69766	-1.76555	1.45338	-2.82487	59.9383	24.6413	0.321699
0.2313	-184.791	-16.788	-9.44021	0.178701	-2.38278	2.64589	-0.994844	48.3574	7.87186	0.321699
0.2320	-200.95	-13.1385	-7.91231	-1.65298	-2.06699	4.47193	1.44928	42.8211	-12.2849	0
0.2327	-194.851	-11.2528	-7.31207	-3.48466	-2.68421	2.34776	-1.916	35.5336	-22.6614	0.321699
0.2333	-258.329	-5.77849	-2.72838	-3.48466	-2.38278	1.11798	-3.74602	31.2402	-26.001	0.321699
0.2340	-306.84	-0.912393	1.52789	-4.08778	-1.46412	3.57754	-0.380743	34.5733	-30.581	0.321699
0.2347	-232.391	-2.12892	-0.272838	-4.69089	-1.16268	3.87567	-0.687794	32.7655	-29.9846	0
0.2353	-133.195	-3.9537	-2.12814	-4.4005	-0.84689	2.64589	-3.43897	25.1391	-21.7311	0
0.2360	-119.771	-2.43305	-1.52789	-4.08778	-1.76555	2.04963	-4.36012	22.3709	-15.0281	0
0.2367	-80.0924	-0.304131	0.600244	-3.17194	-2.98565	1.7515	-4.05307	20.5632	-11.0683	0.321699
0.2373	14.5113	0	2.45555	-2.25609	-3.60287	0.521725	-4.65489	14.462	-7.08467	-0.321699
0.2380	76.7625	-1.82479	2.72838	-1.96571	-3.28708	1.11798	-4.05307	10.5076	-6.79842	-0.321699
0.2387	132.915	-4.56196	1.8553	-2.25609	-2.38278	3.87567	-1.3019	8.0219	-10.4481	0
0.2393	179.884	-6.69088	0.600244	-2.25609	-2.38278	3.87567	-2.22305	1.35581	-12.2849	0.321699
0.2400	146.34	-3.64957	5.18393	-2.25609	-2.68421	2.64589	-4.05307	-4.18043	-13.1913	0
0.2407	33.1236	5.47436	16.2066	-2.56882	-2.38278	2.98128	-3.43897	-0.169477	-14.4079	0
0.2413	-75.8512	13.4426	26.5745	-2.56882	-1.46412	3.27941	-3.43897	15.7048	-14.1216	0
0.2420	-102.981	14.6591	28.7026	-2.25609	-1.46412	2.98128	-4.65489	29.0935	-11.3546	0
0.2427	-105.119	14.0509	25.6468	-1.34025	-1.76555	4.1738	-3.74602	31.5227	-10.4481	0
0.2433	-103.927	10.7054	19.2078	-1.04987	-1.46412	4.47193	-3.13192	32.1441	-11.9748	0
0.2440	-33.404	2.43305	10.095	-1.04987	-2.06699	3.87567	-4.05307	31.2402	-7.70488	0.321699
0.2447	1.05154	-6.08262	1.8553	-1.34025	-3.28708	2.98128	-5.57604	31.8616	-0.691769	0.321699
0.2453	-70.6636	-13.7467	-4.25628	-0.424414	-3.90431	1.7515	-6.48491	40.1095	1.7652	-0.321699
0.2460	-146.935	-18.0046	-8.23972	-0.73714	-4.50718	0.819853	-6.79196	50.4476	1.145	0
0.2467	-174.1	-17.7004	-9.16737	-1.04987	-3.60287	1.45338	-6.19014	58.074	2.07531	0
0.2473	-146.024	-14.355	-7.63947	0.178701	-2.38278	2.64589	-4.36012	59.9383	5.41488	0.321699
0.2480	-111.253	-10.6446	-6.11158	1.09454	-3.60287	2.34776	-4.05307	52.3118	5.72499	0
0.2487	-124.678	-7.90741	-5.78417	1.40727	-5.1244	2.64589	-4.05307	40.392	0.834894	0
0.2493	-157.03	-6.69088	-6.11158	1.40727	-6.3445	2.98128	-2.82487	31.2402	-5.55801	0.321699
0.2500	-117.352	-8.51567	-7.91231	1.09454	-8.18182	1.45338	-2.82487	25.4215	-14.4079	0
0.2507	8.69274	-9.42806	-7.91231	0.781815	-8.18182	1.45338	-3.43897	20.8456	-22.0412	0
0.2513	77.0429	-4.56196	-2.12814	1.09454	-7.26316	2.98128	-1.60895	15.9873	-18.6778	0
0.2520	53.243	2.73718	3.98344	0.491427	-6.04307	4.47193	-0.687794	9.54719	-7.39478	0
0.2527	36.173	7.96823	5.18393	-1.04987	-5.72728	4.47193	-1.916	-0.169477	-2.21843	0
0.2533	15.4226	14.0509	7.31207	-1.34025	-5.42584	4.1738	-0.994844	-9.66018	1.4551	0
0.2540	-37.9957	20.4376	11.2955	0.178701	-6.04307	5.40358	-0.380743	-14.5185	7.87186	0.321699
0.2547	-99.3356	19.8293	10.6953	0.781815	-6.64594	4.80732	-6.48491	-15.1399	8.77831	0
0.2553	-98.4243	13.1385	7.31207	0.491427	-6.96173	2.64589	-12.8961	-12.7108	6.03509	0
0.2560	20.6102	7.6641	5.18393	1.40727	-6.64594	3.27941	-12.8961	-7.79593	5.41488	0
0.2567	192.117	3.9537	3.3832	2.01038	-6.3445	3.57754	-12.2943	-4.74535	2.07531	-0.643398
0.2573	258.329	2.12892	2.72838	0.781815	-6.96173	2.64589	-14.7262	-5.70572	-5.55801	-0.321699
0.2580	146.34	5.47436	7.63947	0.178701	-6.3445	3.87567	-13.2032	-4.74535	-7.39478	0
0.2587	-30.3545	13.4426	16.2066	2.32311	-5.42584	4.47193	-11.3732	-4.18043	-2.81479	0
0.2593	-126.185	21.35	24.1189	3.84206	-5.42584	2.64589	-12.2943	-6.60959	-0.691769	0
0.2600	-93.2367	25.0604	28.7026	3.52934	-5.72728	2.34776	-9.54314	-5.36676	-2.50468	0
0.2607	-13.8803	24.4521	29.6302	2.92622	-5.72728	4.1738	-3.74602	1.92074	-2.21843	0
0.2613	55.1008	21.35	27.4475	2.6135	-6.3445	3.87567	-1.3019	2.8811	0.548645	0
0.2620	81.0388	14.9632	21.9908	2.32311	-7.26316	2.98128	-0.380743	0.395446	2.36156	0
0.2627	9.91954	6.44758	15.5518	2.32311	-7.26316	3.27941	0.835178	6.21415	2.07531	0
0.2633	-77.0429	-0.304131	11.6229	1.69766	-7.5646	3.57754	6.32525	17.7951	0.834894	0
0.2640	-98.1088	-4.25783	10.3679	1.40727	-6.96173	3.87567	14.2594	30.3363	1.145	0.321699
0.2647	-65.1605	-6.38675	7.96688	1.69766	-6.3445	3.87567	18.2265	36.72	2.98176	0.321699
0.2653	-8.09687	-8.8198	2.45555	2.01038	-6.96173	4.1738	19.7495	34.9122	2.36156	0
0.2660	39.5029	-13.7467	-3.32863	1.09454	-8.48326	2.64589	16.0895	32.483	1.4551	0
0.2667	48.0554	-16.788	-4.58368	0.781815	-9.40192	1.45338	9.67824	36.0985	2.36156	0
0.2673	48.6864	-15.2674	-0.92765	2.01038	-8.18182	3.27941	7.2464	41.0134	1.4551	-0.321699
0.2680	128.008	-11.2528	4.25628	2.6135	-6.64594	3.87567	3.58635	37.9628	-0.381666	-0.321699
0.2687	271.753	-6.38675	9.44021	2.32311	-6.3445	2.64589	-1.60895	34.0083	-0.381666	0
0.2693	368.811	-2.43305	13.7511	2.6135	-4.82297	4.47193	-0.994844	39.4881	-0.0715623	0
0.2700	372.771	-1.52065	15.2789	1.69766	-2.98565	5.40358	0.528127	43.7815	-2.50468	-0.321699
0.2707	322.122	-2.12892	13.7511	-0.424414	-2.06699	3.87567	-2.22305	39.4881	-5.55801	-0.321699
0.2713	184.791	1.82479	14.6787	-1.04987	-1.46412	5.40358	-2.22305	33.3869	-5.55801	-0.321699
0.2720	4.73194	6.14345	17.4071	-0.73714	-1.16268	7.22961	-0.380743	26.3819	-3.7451	-0.321699
0.2727	-51.4204	5.47436	16.4794	-0.73714	-2.06699	5.10545	-1.916	16.6087	-3.12489	0
0.2733	-70.6636	4.8661	14.9515	-0.134025	-2.68421	4.47193	-2.51782	11.4114	-4.96166	0.321699
0.2740	-205.541	5.17023	13.4236	0.781815	-1.76555	6.33523	-0.380743	11.6939	-6.79842	0.321699
0.2747	-356.893	2.73718	10.6953	0.178701	-1.46412	5.40358	-0.994844	8.98227	-7.70488	0
0.2753	-358.12	1.82479	10.9681	0.178701	-1.46412	3.57754	-3.13192	8.64332	-8.30123	0.321699
0.2760	-208.906	4.56196	14.3513	1.09454	-0.84689	4.1738	-3.13192	17.5126	-7.39478	0.321699
0.2767	-60.2884	4.8661	14.6787	2.01038	-1.46412	3.87567	-3.43897	26.0429	-5.86811	0
0.2773	19.6989	5.17023	12.496	2.32311	-2.98565	2.64589	-5.26899	21.4671	-4.03135	0.321699
0.2780	46.2328	7.96823	12.8234	2.92622	-2.98565	2.04963	-4.05307	11.129	0.548645	0.321699
0.2787	9.00821	10.0971	14.9515	4.15479	-2.38278	3.27941	-0.994844	7.11802	6.34519	0.321699
0.2793	-36.173	7.05584	13.4236	5.07063	-2.98565	2.04963	-2.51782	7.45698	8.15811	0.321699
0.2800	-6.87007	-0.608262	8.56712	5.36102	-4.20574	0.223596	-5.88309	15.9873	8.77831	0.321699
0.2807	33.1236	-3.9537	7.03923	6.58958	-3.90431	1.7515	-4.65489	32.483	12.428	0
0.2813	12.0577	-1.82479	8.23972	7.1927	-4.20574	2.04963	-4.36012	38.5842	14.885	0
0.2820	-64.2492	0.912393	9.44021	6.90231	-4.50718	0.819853	-6.19014	34.2908	14.5749	0
0.2827	-201.861	3.9537	11.8958	7.1927	-3.90431	1.45338	-4.36012	35.8161	13.6684	0
0.2833	-249.776	2.73718	11.8958	6.27686	-4.20574	2.04963	-3.13192	41.6348	13.6684	0.321699
0.2840	-122.54	-2.43305	9.76761	5.07063	-4.50718	0.223596	-4.65489	42.2562	12.428	0.321699
0.2847	-24.2556	-3.64957	10.3679	5.07063	-3.60287	0.223596	-3.74602	44.3464	9.99487	0.321699
0.2853	9.60408	-3.34544	10.9681	5.36102	-2.98565	1.7515	-0.0859742	50.4476	7.87186	0.321699
0.2860	109.115	-4.8661	10.3679	5.36102	-3.28708	1.11798	0.528127	53.2157	6.63144	0
0.2867	206.768	-6.69088	9.16737	5.36102	-3.28708	0.819853	-0.380743	52.9332	5.72499	0
0.2873	201.861	-6.99501	7.96688	5.07063	-2.68421	2.34776	0.835178	53.8371	4.50843	0.321699
0.2880	131.688	-6.08262	7.03923	3.23895	-2.38278	2.04963	0.528127	49.5437	1.4551	0.321699
0.2887	49.5977	-6.38675	6.43898	2.32311	-2.38278	0.223596	-2.22305	42.8211	-2.21843	0.321699
0.2893	-13.2845	-8.51567	4.58368	2.92622	-2.68421	0.223596	-2.82487	41.0134	-3.12489	0
0.2900	-19.6989	-11.557	1.20049	2.32311	-2.68421	1.45338	-1.60895	39.4881	-2.81479	0
0.2907	25.4824	-14.0509	-2.72838	2.01038	-2.06699	2.04963	-0.687794	35.8161	-2.21843	0
0.2913	36.7689	-13.1385	-3.65603	2.92622	-2.06699	2.34776	-0.0859742	33.048	-0.691769	0.321699
0.2920	-21.5215	-10.6446	-1.52789	3.52934	-2.68421	2.98128	1.74405	31.8616	-0.691769	0.321699
0.2927	-71.5749	-9.42806	-1.20049	2.6135	-3.60287	1.7515	0.221077	29.4325	-2.81479	0
0.2933	-65.476	-6.38675	0.600244	2.32311	-3.60287	0.819853	-1.60895	25.1391	-4.03135	0
0.2940	-14.1958	-0.912393	4.91109	4.15479	-2.38278	2.98128	0.835178	24.5176	-1.90833	0
0.2947	39.8184	1.82479	7.96688	4.7579	-2.38278	2.64589	1.14223	22.7099	-0.691769	0
0.2953	21.5215	4.56196	11.6229	4.44518	-1.76555	0.521725	-1.916	18.4165	-1.28812	0.321699
0.2960	-38.907	10.4013	19.2078	5.98647	0.0574163	1.45338	-2.22305	17.2301	-0.978019	0.321699
0.2967	-13.5649	11.9219	22.2636	5.98647	0.674641	2.34776	-0.994844	15.9873	-1.90833	0.321699
0.2973	81.9501	4.56196	16.8068	4.15479	-0.244019	0.223596	-3.13192	16.8912	-4.34145	-0.321699
0.2980	156.399	-3.34544	10.9681	4.15479	-0.84689	0.223596	-3.74602	25.7605	-3.12489	-0.321699
0.2987	205.857	-6.38675	7.96688	5.07063	-0.545455	2.34776	-0.687794	33.3869	-0.381666	0
0.2993	225.976	-8.51567	3.65603	4.7579	-0.84689	2.04963	-0.687794	32.1441	-0.0715623	0
0.3000	202.176	-9.73219	0.92765	4.15479	-1.16268	1.7515	-1.60895	28.8111	-0.381666	0
0.3007	154.892	-10.0363	0.600244	3.23895	0.0574163	3.57754	0.528127	29.9974	-0.0715623	0.321699
0.3013	94.4635	-14.6591	-2.45555	1.69766	0.373206	3.87567	1.14223	34.2908	-0.0715623	0
0.3020	31.8968	-16.788	-3.65603	1.69766	-0.244019	2.98128	0.528127	35.8161	1.145	0
0.3027	-9.60408	-13.4426	-2.72838	3.23895	-1.16268	2.34776	0.835178	34.5733	4.19832	0
0.3033	-38.3112	-11.2528	-3.65603	3.23895	-1.76555	1.11798	0.221077	30.9578	5.10478	0.321699
0.3040	-60.2884	-8.8198	-3.98344	2.92622	-1.46412	0.521725	-0.380743	24.5176	2.36156	0
0.3047	-55.3812	-4.25783	-1.20049	3.84206	-0.545455	1.7515	1.44928	21.806	-0.691769	0.321699
0.3053	-6.55461	-3.04131	0.327406	4.44518	-0.244019	2.34776	4.18817	22.9923	-1.59823	0.321699
0.3060	56.0121	-5.77849	-1.52789	2.92622	-0.84689	1.11798	3.88112	20.8456	-1.59823	0
0.3067	95.9707	-7.60327	-2.45555	1.40727	-1.16268	1.45338	3.88112	19.3204	0.548645	0
0.3073	84.6841	-7.60327	-1.52789	0.178701	-0.84689	2.98128	4.80227	21.1846	1.4551	0.321699
0.3080	23.0288	-7.29914	-1.20049	-1.65298	-1.16268	2.34776	3.58635	22.7099	0.834894	0.321699
0.3087	-41.0452	-5.17023	0.600244	-2.56882	-0.545455	1.7515	1.44928	20.8456	2.36156	0
0.3093	-94.148	1.21652	6.11158	-1.04987	0.0574163	3.57754	2.35815	15.7048	5.10478	0
0.3100	-153.665	8.88062	13.4236	1.09454	-0.244019	3.57754	3.2793	9.26473	10.305	0
0.3107	-243.993	15.2674	20.4629	1.40727	-0.244019	2.34776	2.6652	5.59273	18.5346	0.321699
0.3113	-334.32	16.1798	23.1913	1.09454	0.373206	3.87567	3.58635	12.0329	22.8045	0
0.3120	-322.122	10.7054	19.5352	0.781815	0.373206	4.47193	4.80227	23.6138	21.8981	0
0.3127	-126.816	1.52065	11.2955	0.781815	0.373206	1.7515	2.35815	30.6188	23.1146	0.321699
0.3133	113.672	-6.08262	5.51133	1.40727	0.0574163	1.11798	1.44928	35.5336	23.1146	0.321699
0.3140	186.929	-8.8198	2.72838	2.01038	0.674641	2.98128	3.88112	39.7705	11.5215	0
0.3147	138.102	-11.2528	-2.72838	1.09454	0.373206	3.57754	5.10932	37.6238	-2.21843	0.321699
0.3153	108.799	-14.0509	-7.63947	0.178701	0.674641	3.57754	5.10932	35.1947	-5.86811	0.321699
0.3160	106.346	-13.4426	-6.38442	-0.424414	2.19617	4.47193	5.41638	36.4375	-8.30123	0.321699
0.3167	93.8326	-11.557	-5.18393	-2.56882	2.19617	3.87567	4.18817	35.1947	-19.9182	0.321699
0.3173	56.9234	-10.9487	-5.51133	-6.23218	0.976077	2.64589	2.6652	33.6694	-34.8509	0
0.3180	-64.5296	-10.0363	-5.18393	-6.52257	1.29187	3.27941	2.6652	37.0589	-36.6876	0
0.3187	-206.453	-7.29914	-4.58368	-5.00362	1.5933	3.87567	3.88112	37.3414	-28.7681	0.321699
0.3193	-214.094	-5.77849	-3.65603	-4.69089	1.5933	3.27941	2.97225	30.6188	-25.4046	0
0.3200	-137.472	-6.08262	-3.98344	-4.69089	0.976077	2.98128	1.74405	29.7149	-22.0412	0
0.3207	-99.3356	-7.29914	-5.18393	-4.4005	0.674641	2.64589	2.0511	37.3414	-18.6778	0
0.3213	-89.8717	-9.12393	-6.71182	-4.4005	0.373206	2.04963	1.14223	42.8211	-19.6081	0
0.3220	-80.4079	-11.557	-9.16737	-5.00362	-0.545455	1.45338	-0.0859742	41.9173	-20.2044	0
0.3227	-78.9007	-12.5302	-11.8958	-4.4005	-0.545455	2.34776	0.835178	37.3414	-19.9182	0.321699
0.3233	-72.8017	-13.1385	-14.9515	-3.77505	-1.16268	2.64589	1.14223	31.8616	-19.6081	0.321699
0.3240	-34.6308	-13.4426	-16.7523	-3.48466	-2.38278	1.7515	0.221077	27.9072	-17.7713	0
0.3247	48.0554	-9.73219	-14.0239	-3.17194	-1.76555	1.45338	0.221077	23.6138	-15.9345	0
0.3253	120.682	-4.56196	-9.16737	-3.77505	-1.16268	1.11798	-0.0859742	21.4671	-15.6483	0
0.3260	107.573	0	-4.85652	-3.77505	-1.16268	0.819853	-0.0859742	23.6138	-15.0281	0
0.3267	34.6308	5.47436	0.600244	-3.77505	0.0574163	2.04963	0.528127	23.6138	-14.1216	0
0.3273	-26.7092	13.7467	8.56712	-4.4005	1.89474	3.87567	2.0511	18.4165	-13.8115	-0.321699
0.3280	-16.0185	19.5252	13.1508	-5.31634	2.8134	5.40358	2.97225	12.3153	-13.8115	-0.321699
0.3287	24.8865	22.2624	15.5518	-5.00362	2.51196	5.40358	3.2793	8.36085	-12.8812	0
0.3293	8.09687	22.2624	17.6799	-4.69089	2.19617	4.1738	2.35815	8.64332	-11.6647	0
0.3300	-0.455668	16.788	14.6787	-4.4005	1.5933	2.64589	1.14223	12.6543	-10.7582	0
0.3307	10.5154	8.88062	7.96688	-3.48466	0.674641	2.04963	0.528127	19.0379	-10.4481	0
0.3313	8.37728	2.12892	1.8553	-1.96571	0.373206	2.64589	1.44928	28.4721	-10.4481	0.321699
0.3320	53.243	-2.43305	-3.65603	-0.424414	0.373206	2.98128	2.0511	35.8161	-9.54165	0.321699
0.3327	107.573	-5.47436	-6.71182	0.491427	-0.545455	0.819853	0.221077	34.5733	-7.70488	0
0.3333	64.8451	-8.21154	-7.03923	1.09454	-1.16268	-0.708055	-0.687794	33.6694	-4.34145	0
0.3340	-70.6636	-10.3405	-6.38442	0.781815	-1.16268	-0.409927	0.528127	40.392	-0.978019	0
0.3347	-194.255	-9.42806	-6.11158	-0.134025	-1.46412	-0.708055	-0.0859742	43.7815	0.238541	0
0.3353	-256.191	-6.38675	-5.78417	1.09454	-1.76555	-0.0745321	0.221077	42.8211	1.145	0
0.3360	-243.993	-5.47436	-6.71182	1.69766	-1.76555	0.819853	3.2793	45.3068	-0.0715623	0
0.3367	-142.379	-8.8198	-10.6953	0.781815	-2.38278	-0.0745321	3.88112	46.8321	-4.03135	0
0.3373	-66.9832	-11.8611	-13.4236	0.781815	-2.98565	-0.708055	3.58635	47.736	-5.86811	0
0.3380	-77.6739	-12.5302	-12.8234	2.01038	-3.60287	-1.30431	2.97225	50.1651	-4.03135	0
0.3387	-79.812	-11.557	-11.8958	1.40727	-3.28708	-2.53409	1.14223	51.069	-4.03135	0
0.3393	-58.4307	-7.90741	-10.6953	-0.73714	-2.38278	-1.60244	2.0511	48.6398	-10.4481	0.321699
0.3400	-35.5421	-2.12892	-8.51256	-1.96571	-2.06699	1.11798	5.10932	40.1095	-16.2447	0
0.3407	-1.367	0	-8.51256	-1.65298	-2.06699	1.11798	5.41638	28.4721	-12.595	0
0.3413	-11.7422	0.304131	-9.16737	-1.65298	-2.06699	0.223596	2.97225	20.8456	-7.70488	0.321699
0.3420	-86.8223	3.04131	-7.31207	-2.56882	-1.76555	0.819853	3.2793	19.9418	-7.08467	0.321699
0.3427	-119.49	6.75171	-4.85652	-3.17194	-1.46412	0.819853	2.97225	21.1846	-7.70488	0
0.3433	-58.7461	9.48889	-3.32863	-2.25609	-0.84689	0.819853	2.0511	23.3313	-7.70488	0
0.3440	28.5318	11.3137	-1.52789	-1.65298	-0.244019	2.34776	3.88112	24.8566	-7.39478	0
0.3447	118.859	12.5302	0.327406	-2.85921	0.0574163	2.34776	4.49522	23.8962	-6.79842	0
0.3453	217.143	13.4426	0.92765	-2.85921	-0.545455	1.45338	3.2793	23.8962	-4.03135	0
0.3460	225.065	11.6178	0.327406	-2.25609	-0.545455	2.04963	3.2793	26.3819	-0.381666	0
0.3467	153.034	7.05584	-0.272838	-1.65298	-0.545455	1.7515	2.6652	26.6643	-0.381666	0
0.3473	141.152	0.608262	0	-1.04987	-0.545455	0.521725	1.74405	24.5176	-5.86811	0.321699
0.3480	124.958	-3.64957	0.327406	-1.34025	-0.545455	2.04963	3.58635	23.3313	-12.2849	0.321699
0.3487	53.5585	-3.04131	0.600244	-1.65298	-0.545455	2.98128	4.80227	22.7099	-15.6483	0.321699
0.3493	-9.32367	-1.82479	-0.600244	-1.96571	-0.84689	2.04963	2.97225	28.8111	-16.5548	0
0.3500	-110.938	-3.64957	-3.05579	-2.56882	-1.16268	1.7515	2.35815	43.7815	-15.9345	0
0.3507	-182.653	-5.47436	-4.25628	-2.25609	-0.84689	1.7515	3.2793	56.2663	-13.5014	0
0.3513	-120.402	-6.69088	-4.58368	-2.25609	-0.545455	0.819853	2.97225	59.9383	-11.6647	0.321699
0.3520	-65.1605	-7.90741	-6.11158	-3.17194	-0.244019	0.819853	2.35815	64.1752	-10.4481	0.321699
0.3527	-119.771	-8.51567	-6.71182	-2.56882	0.373206	2.04963	3.58635	69.7114	-9.54165	0
0.3533	-157.03	-7.60327	-7.03923	-2.25609	0.0574163	2.34776	4.49522	67.8472	-8.61134	0.321699
0.3540	-106.661	-7.60327	-9.16737	-2.25609	-0.84689	2.04963	3.2793	57.5091	-7.70488	0
0.3547	-46.2328	-6.99501	-9.76761	-1.65298	-1.16268	2.34776	3.58635	48.3574	-6.79842	0
0.3553	23.6597	-3.9537	-7.63947	-1.65298	-0.84689	2.34776	4.18817	43.7815	-6.17822	0
0.3560	114.898	1.52065	-3.65603	-1.65298	-0.84689	2.04963	4.49522	39.7705	-5.86811	0
0.3567	130.461	6.75171	0	-1.65298	-0.84689	2.34776	5.10932	37.3414	-4.34145	0.321699
0.3573	22.7483	8.57649	0.92765	-1.34025	-1.16268	2.98128	6.01819	38.2453	-3.43499	0.321699
0.3580	-96.2861	6.44758	-0.92765	-1.34025	-1.46412	2.34776	4.80227	41.0134	-3.43499	0
0.3587	-59.342	0.304131	-5.51133	-1.34025	-2.06699	0.223596	2.35815	43.7815	-3.12489	0
0.3593	67.2987	-5.47436	-9.44021	-1.65298	-3.60287	-0.708055	0.835178	46.4931	-2.50468	-0.321699
0.3600	83.1769	-5.17023	-9.44021	-1.04987	-3.90431	-0.708055	1.14223	46.4931	-2.50468	-0.321699
0.3607	43.4988	-0.304131	-5.18393	-0.424414	-3.28708	-0.0745321	3.58635	44.9678	-1.28812	0
0.3613	71.2595	5.47436	0.92765	0.491427	-2.38278	1.45338	5.71114	41.6348	0.834894	0.321699
0.3620	105.75	10.4013	6.11158	1.09454	-2.68421	1.11798	4.49522	35.8161	2.07531	0
0.3627	83.4573	12.5302	8.23972	0.781815	-3.90431	-1.60244	1.44928	27.5682	2.07531	0
0.3633	54.7853	14.0509	9.44021	1.09454	-3.60287	-2.53409	-0.0859742	19.6593	2.98176	0
0.3640	59.9729	13.4426	7.63947	1.69766	-3.60287	-1.60244	0.221077	15.3659	3.29187	0
0.3647	57.5193	8.27236	0.92765	2.01038	-4.50718	-2.23596	-0.0859742	12.9367	3.29187	-0.321699
0.3653	50.8245	4.8661	-3.32863	2.92622	-4.82297	-2.23596	0.528127	12.0329	3.88822	0
0.3660	40.1338	4.8661	-4.58368	3.23895	-4.50718	-1.60244	1.74405	11.129	4.19832	0
0.3667	-8.69274	3.9537	-5.78417	2.01038	-5.42584	-2.83222	-0.380743	8.98227	1.7652	-0.321699
0.3673	-13.2845	4.25783	-5.18393	1.09454	-6.04307	-3.42848	-2.51782	8.0219	1.145	-0.643398
0.3680	103.612	7.6641	-1.52789	2.6135	-5.72728	-3.13035	-2.22305	10.79	3.29187	-0.321699
0.3687	201.581	10.4013	1.8553	3.52934	-5.42584	-2.53409	-0.687794	14.462	4.50843	0
0.3693	125.589	13.1385	5.18393	2.92622	-4.82297	-1.30431	0.221077	14.7445	3.88822	0
0.3700	-19.3834	15.2674	9.16737	2.6135	-4.20574	-0.409927	0.835178	17.5126	3.57812	0
0.3707	-56.0121	11.9219	8.23972	2.6135	-4.50718	-1.60244	0.528127	23.8962	4.19832	0.321699
0.3713	-39.538	7.6641	3.98344	1.69766	-5.1244	-3.42848	-0.380743	29.4325	2.98176	0
0.3720	-62.3915	7.35997	3.05579	1.40727	-5.1244	-3.42848	-0.0859742	35.5336	2.36156	0
0.3727	-48.6864	6.44758	2.72838	1.69766	-5.42584	-3.42848	-0.0859742	38.5842	2.36156	0.321699
0.3733	16.0185	5.17023	0.92765	1.09454	-4.50718	-3.76387	0.221077	39.7705	1.7652	0
0.3740	47.4596	5.83931	1.52789	1.09454	-2.98565	-1.93783	2.97225	41.2958	1.7652	0
0.3747	31.2658	6.75171	2.72838	1.09454	-2.68421	-1.93783	3.2793	39.7705	1.7652	0
0.3753	11.1463	4.8661	1.52789	0.491427	-3.60287	-3.76387	0.528127	40.7309	0.834894	0
0.3760	11.1463	2.43305	0.327406	0.491427	-4.20574	-4.36013	-0.380743	49.2612	0.548645	0.321699
0.3767	16.0185	1.21652	-0.272838	-0.134025	-4.20574	-3.42848	-0.0859742	55.9838	0.238541	0.321699
0.3773	-6.55461	1.21652	-1.20049	-1.04987	-3.90431	-3.13035	-0.0859742	55.6449	0.834894	0
0.3780	-45.9173	3.04131	-0.92765	-0.134025	-3.28708	-2.23596	1.44928	51.6904	3.57812	0
0.3787	-67.8945	4.8661	-0.92765	0.781815	-3.28708	-1.60244	2.97225	46.2107	6.03509	0
0.3793	-77.6739	3.9537	-2.72838	-0.424414	-4.50718	-3.76387	0.528127	37.3414	7.87186	0
0.3800	-69.4368	3.04131	-4.25628	-1.65298	-4.82297	-5.29178	-0.687794	30.3363	13.0482	0
0.3807	-56.0121	4.56196	-3.32863	-2.25609	-4.20574	-3.76387	1.74405	29.0935	19.1549	0
0.3813	-59.0616	6.75171	-1.52789	-3.48466	-3.90431	-2.23596	3.2793	32.7655	21.8981	0
0.3820	-33.1236	7.6641	0	-4.4005	-3.90431	-1.93783	3.2793	37.3414	22.5183	0.321699
0.3827	0.455668	7.96823	0.92765	-4.08778	-3.28708	-1.00618	2.97225	38.5842	24.6413	0
0.3833	-6.23915	6.44758	-0.600244	-4.08778	-3.60287	-2.53409	0.835178	37.9628	25.8579	0.321699
0.3840	-6.87007	3.9537	-3.05579	-4.69089	-4.50718	-4.062	-0.380743	39.1491	23.7348	0.321699
0.3847	39.2225	4.56196	-3.32863	-1.65298	-3.60287	-2.23596	0.221077	40.7309	20.0613	0
0.3853	83.7728	6.14345	-0.92765	2.92622	-2.06699	-1.60244	2.0511	41.0134	12.7381	0.321699
0.3860	71.5749	6.44758	0	3.84206	-1.46412	-1.93783	2.97225	41.6348	1.7652	0.643398
0.3867	49.5977	6.75171	-0.92765	-0.424414	-1.16268	-1.30431	3.2793	40.392	-3.7451	0.321699
0.3873	39.8184	7.35997	-0.92765	-6.8353	-1.46412	-2.23596	1.44928	34.9122	11.2114	-0.321699
0.3880	-15.4226	9.79302	1.20049	-12.0176	-1.46412	-3.76387	-0.380743	28.8111	37.7611	-0.321699
0.3887	-27.0246	14.0509	4.58368	-12.9335	-0.84689	-2.53409	0.835178	26.6643	54.5544	0
0.3893	68.5255	14.355	6.11158	-12.9335	-2.38278	-1.30431	1.74405	26.3819	68.2943	0
0.3900	88.0491	13.4426	5.51133	-15.3906	-4.20574	-1.00618	1.14223	26.6643	45.7045	0
0.3907	-17.2453	14.9632	6.11158	-14.162	-4.82297	0.819853	2.0511	27.9072	-35.161	0
0.3913	-81.3192	14.355	5.18393	-3.77505	-5.42584	0.223596	2.35815	28.8111	-90.4071	0.321699
0.3920	-45.9173	7.6641	0.92765	6.27686	-5.1244	-1.93783	0.528127	32.1441	-79.1241	0.643398
0.3927	27.6205	2.43305	-2.72838	10.8561	-3.90431	-2.23596	0.528127	38.5842	-57.4407	0.321699
0.3933	61.4801	1.52065	-3.05579	19.7017	-2.38278	-1.30431	1.14223	42.5387	-54.6975	0
0.3940	50.509	2.73718	-2.45555	30.0887	0.0574163	-0.708055	1.14223	43.4425	-58.371	0
0.3947	42.8678	5.17023	-0.92765	30.0887	2.51196	0.819853	2.6652	43.7815	-50.7377	0.321699
0.3953	20.6102	7.05584	-0.600244	21.8461	2.51196	1.45338	3.58635	41.6348	-30.8911	0
0.3960	-37.3998	5.83931	-3.98344	11.1688	-0.244019	-0.0745321	1.44928	37.6238	11.8316	0
0.3967	-82.546	4.8661	-6.11158	-1.96571	-2.06699	-0.0745321	1.14223	34.2908	84.1573	0.321699
0.3973	-85.5955	6.44758	-4.25628	-14.7651	-1.76555	2.98128	3.88112	35.5336	120.773	0.321699
0.3980	-71.2595	8.27236	-2.72838	-20.8856	-1.46412	4.80732	6.32525	41.2958	92.6971	0
0.3987	-63.9337	7.6641	-2.72838	-19.6571	-2.68421	4.1738	5.71114	46.2107	49.6643	0
0.3993	-71.8553	6.44758	-3.05579	-10.1859	-3.60287	2.04963	3.2793	46.4931	12.7381	0
0.4000	-88.3645	5.83931	-4.25628	9.64983	-2.68421	-1.00618	1.14223	45.5892	6.94155	0.321699
0.4007	-84.0883	6.14345	-4.58368	38.0185	-0.244019	-1.93783	0.835178	44.064	59.4445	0
0.4013	-45.6369	7.96823	-2.45555	62.1431	3.41627	-0.409927	2.6652	43.4425	137.877	0.321699
0.4020	-6.87007	10.0971	0	63.6621	5.55503	-1.00618	2.35815	41.0134	194.936	0.321699
0.4027	10.8309	10.4013	0.600244	43.5136	5.55503	-2.83222	-0.0859742	35.8161	210.202	0
0.4033	21.5215	12.2261	2.45555	16.6638	5.55503	-1.60244	1.14223	35.8161	196.773	0
0.4040	27.6205	13.4426	4.91109	-12.3303	4.95216	1.7515	4.18817	40.7309	138.783	0
0.4047	19.3834	10.4013	2.12814	-34.6009	0.674641	2.34776	2.97225	42.5387	7.87186	0
0.4053	0.77113	8.88062	-1.20049	-48.0258	-3.90431	3.57754	2.97225	42.2562	-134.656	0.321699
0.4060	-30.3545	10.4013	-0.600244	-61.7634	-6.04307	5.99983	5.41638	42.5387	-231.385	0.321699
0.4067	-59.342	8.88062	-1.80073	-57.8096	-7.26316	4.47193	3.58635	39.7705	-257.648	0.321699
0.4073	-39.2225	9.18476	-2.72838	-46.8196	-4.50718	3.27941	2.0511	36.72	-226.519	0
0.4080	17.8412	10.4013	-1.80073	-57.8096	0.674641	4.1738	2.97225	36.72	-192.336	0
0.4087	31.5813	7.35997	-3.98344	-55.978	4.03349	2.98128	1.74405	36.0985	-167.623	0.321699
0.4093	-0.77113	6.14345	-5.18393	-32.4788	5.55503	2.64589	1.14223	37.3414	-143.196	0.321699
0.4100	-9.00821	6.75171	-4.25628	-20.5729	7.99522	5.40358	4.49522	42.2562	-123.063	0.321699
0.4107	7.18553	5.17023	-5.51133	-30.0217	10.7512	6.93149	6.01819	44.3464	-104.743	0
0.4113	4.13606	5.17023	-5.78417	-41.0118	11.9713	6.93149	5.71114	43.7815	-42.1979	0.321699
0.4120	-14.7917	7.6641	-4.25628	-31.8534	12.2727	6.93149	6.6323	43.7815	74.0909	0.321699
0.4127	-26.0782	6.75171	-5.51133	-21.4887	11.0526	3.87567	4.18817	41.2958	139.093	0
0.4133	-34.0349	4.25783	-7.31207	-13.8493	8.91388	-0.409927	-0.0859742	38.2453	128.407	0
0.4140	-42.8678	5.17023	-7.03923	-2.25609	7.69378	-1.60244	-0.687794	38.8667	150.997	0.321699
0.4147	-45.006	5.83931	-7.31207	-12.6431	7.69378	-3.42848	-0.994844	40.392	244.982	0.321699
0.4153	-26.7092	3.9537	-9.44021	-36.1422	7.07656	-5.29178	-2.51782	41.0134	325.561	-0.321699
0.4160	43.4988	3.64957	-9.44021	-44.6751	3.41627	-3.42848	-0.994844	40.1095	269.098	0
0.4167	117.632	5.83931	-8.51256	-36.7453	-4.20574	-2.23596	0.528127	36.72	30.748	0.321699
0.4173	120.997	9.48889	-5.51133	-19.6571	-7.5646	1.7515	1.74405	31.8616	-237.802	-0.321699
0.4180	118.263	14.355	0.600244	2.01038	-6.96173	7.86314	4.80227	29.0935	-359.267	-0.321699
0.4187	144.517	18.0046	3.98344	18.4955	-8.18182	6.33523	5.41638	27.2858	-342.474	0.321699
0.4193	96.6016	18.9169	3.98344	23.3651	-7.5646	1.45338	1.44928	23.8962	-250.921	0
0.4200	-27.0246	20.4376	5.78417	13.6036	-2.68421	1.7515	-0.687794	23.6138	-124.59	0
0.4207	-119.771	22.5665	7.96688	3.52934	2.8134	5.40358	1.74405	27.5682	-2.50468	0.321699
0.4213	-169.228	22.2624	7.31207	11.1688	4.63637	5.99983	1.44928	29.0935	85.9941	0.321699
0.4220	-188.436	21.35	6.43898	5.98647	4.03349	3.87567	-0.380743	29.4325	141.216	0
0.4227	-141.152	18.3087	4.25628	-21.176	4.95216	2.98128	-0.0859742	30.6188	150.686	0
0.4233	-46.8286	11.6178	-0.92765	-16.3064	7.39235	1.11798	-2.22305	30.6188	118.34	0.321699
0.4240	31.5813	6.14345	-4.85652	14.8321	9.83254	0.521725	-4.05307	33.3869	133.297	0.321699
0.4247	54.1544	4.56196	-5.18393	2.92622	10.4354	4.80732	-0.0859742	38.8667	130.554	0.321699
0.4253	30.0741	4.8661	-4.58368	-30.3344	8.31101	8.45939	3.2793	40.392	16.4116	0
0.4260	5.0474	4.56196	-4.58368	-16.5968	5.85646	8.45939	3.88112	38.8667	-91.6237	0
0.4267	-7.18553	4.56196	-5.51133	20.6176	4.95216	8.16127	2.6652	38.2453	-165.166	0
0.4273	-15.4226	4.8661	-6.11158	37.7282	5.55503	6.63336	1.14223	39.4881	-213.399	0
0.4280	-23.6597	3.34544	-6.71182	42.9105	4.63637	3.57754	0.528127	45.8717	-152.356	0.321699
0.4287	-23.3442	1.21652	-7.91231	40.4757	3.11483	2.98128	1.14223	55.9838	-55.914	0.321699
0.4293	-14.1958	1.21652	-8.23972	18.4955	2.19617	5.70171	4.18817	61.746	-7.08467	0.321699
0.4300	1.05154	3.34544	-8.23972	-11.4145	3.41627	5.70171	5.10932	55.6449	55.1746	0
0.4307	26.7092	6.14345	-6.38442	-16.9095	6.47369	4.47193	3.2793	43.7815	80.4838	0
0.4313	48.0554	7.96823	-4.58368	7.81815	7.39235	2.98128	2.35815	38.8667	10.9252	0
0.4320	51.4204	7.35997	-5.18393	15.748	7.07656	-1.30431	0.528127	39.4881	-25.7147	0
0.4327	39.8184	6.14345	-6.71182	-16.3064	7.69378	-5.58991	-2.82487	38.5842	38.3813	0
0.4333	-2.90926	7.6641	-4.85652	-42.8435	7.69378	-6.48429	-2.82487	37.3414	117.41	0
0.4340	-91.6944	11.9219	-1.20049	-55.978	5.55503	-4.65826	-1.3019	34.9122	179.979	0
0.4347	-136.56	14.9632	1.52789	-73.982	3.41627	-3.13035	-2.51782	30.9578	219.339	0
0.4353	-99.0202	16.1798	4.25628	-84.0563	1.29187	-0.708055	-3.43897	28.4721	165.023	0
0.4360	-66.0719	17.0922	6.43898	-89.8417	-2.98565	2.34776	-3.43897	26.6643	-28.458	0.321699
0.4367	-39.538	15.8756	4.58368	-83.1404	-7.26316	5.99983	-0.994844	25.4215	-246.652	0.321699
0.4373	2.5938	12.2261	1.20049	-50.4829	-6.3445	9.35378	2.35815	25.7605	-320.504	0.321699
0.4380	81.0388	8.27236	-0.92765	-15.3906	-2.06699	9.05565	2.0511	28.8111	-255.812	0
0.4387	153.665	6.44758	-0.92765	4.7579	3.11483	7.52774	0.835178	35.8161	-139.547	0
0.4393	158.222	3.34544	-3.32863	12.3974	7.07656	5.99983	0.221077	42.2562	-57.1306	0.321699
0.4400	175.642	0.304131	-7.91231	10.8561	6.77512	4.1738	0.221077	43.7815	-26.9313	0
0.4407	242.17	1.21652	-8.83996	1.09454	4.03349	4.1738	1.74405	41.9173	-23.878	0.321699
0.4413	264.428	3.04131	-7.03923	-0.424414	2.8134	5.10545	3.2793	38.5842	-51.9543	0
0.4420	178.376	5.47436	-6.11158	13.0005	4.33493	3.57754	3.88112	33.6694	-73.9239	0
0.4427	-15.1071	7.96823	-4.58368	24.5937	6.77512	0.521725	1.74405	27.5682	-73.9239	0
0.4433	-250.407	9.48889	-3.32863	23.9906	8.31101	-2.23596	-1.916	24.8566	-76.6671	0.321699
0.4440	-391.699	10.4013	-3.32863	8.10854	7.07656	-3.76387	-2.82487	27.9072	-67.5071	0
0.4447	-359.347	10.4013	-4.58368	-20.8856	4.03349	-2.53409	-0.0859742	32.7655	-27.5276	0
0.4453	-245.815	7.6641	-7.03923	-41.6372	0.674641	-2.23596	1.14223	35.8161	31.9645	0
0.4460	-190.89	4.25783	-10.3679	-42.8435	-2.68421	-4.95639	-0.0859742	34.5733	100.641	0
0.4467	-165.548	2.43305	-11.2955	-45.9037	-6.04307	-6.81969	-0.380743	31.5227	112.234	0
0.4473	-125.87	2.43305	-7.63947	-46.8196	-7.86603	-6.81969	-0.0859742	29.7149	58.204	0
0.4480	-103.612	4.56196	-1.80073	-32.4788	-7.5646	-7.11782	-1.916	30.9578	60.9711	-0.321699
0.4487	-82.2305	8.57649	3.65603	-19.9698	-6.64594	-5.29178	-1.916	35.1947	138.473	0
0.4493	-77.3584	11.3137	7.03923	-17.5127	-5.72728	-3.76387	0.221077	34.9122	212.636	0.321699
0.4500	-120.086	10.0971	5.78417	-17.2223	-6.64594	-6.18616	-1.916	27.9072	213.256	0.321699
0.4507	-149.985	8.27236	6.43898	-15.0779	-8.78469	-7.11782	-4.65489	25.1391	81.7242	0
0.4513	-115.81	10.7054	11.2955	2.01038	-5.1244	-4.36013	-2.51782	26.3819	-73.9239	0
0.4520	-64.8451	12.2261	12.496	51.7562	1.5933	-4.36013	-0.380743	25.4215	-96.2037	0.321699
0.4527	-35.2617	8.57649	9.16737	111.576	4.33493	-4.95639	-1.916	28.4721	-20.8246	0.321699
0.4533	1.68247	5.47436	6.43898	138.113	6.77512	-2.53409	-1.916	38.5842	27.6946	0.321699
0.4540	16.3339	5.47436	6.11158	122.857	11.3541	0.521725	-0.687794	45.8717	8.77831	0.321699
0.4547	18.1566	3.64957	4.91109	92.0308	11.0526	-1.00618	-0.994844	48.9223	-3.7451	0.321699
0.4553	111.849	-1.21652	2.72838	62.1431	7.39235	-4.95639	-3.43897	48.6398	36.2344	0
0.4560	240.312	-3.04131	1.52789	23.9906	5.85646	-4.65826	-3.13192	39.1491	88.7373	0
0.4567	287.001	-0.912393	0.600244	-20.5729	1.89474	-2.23596	-1.3019	22.7099	78.3608	0
0.4573	237.894	0.912393	-0.600244	-56.2683	-4.50718	-1.60244	0.528127	13.8406	-19.298	0.321699
0.4580	136.56	-0.304131	-0.92765	-70.006	-9.70335	-1.30431	2.0511	22.3709	-5.27176	0
0.4587	84.9996	-2.43305	-0.92765	-70.9218	-13.0622	-1.60244	2.0511	35.8161	186.706	0
0.4593	108.799	-5.17023	-4.58368	-51.086	-13.3636	-1.30431	1.14223	47.1145	294.121	0.321699
0.4600	130.777	-9.12393	-10.3679	6.27686	-7.86603	0.819853	2.0511	54.741	151.283	0
0.4607	83.1769	-9.12393	-10.9681	71.2792	2.19617	13.0431	2.35815	52.5943	-61.4243	-0.321699
0.4613	32.4926	-6.08262	-8.83996	123.772	11.6555	35.6263	-0.0859742	45.8717	2.67166	-0.321699
0.4620	44.4101	-6.08262	-9.44021	140.861	15.933	51.5017	-2.51782	44.6854	212.636	0.321699
0.4627	63.9337	-9.12393	-11.2955	103.021	15.933	51.7998	-3.13192	51.9729	209.892	0
0.4633	99.3356	-11.557	-10.9681	47.7801	13.4928	43.2286	-3.13192	61.1246	113.45	0
0.4640	78.5852	-11.2528	-8.83996	-6.52257	7.69378	31.0426	-2.51782	64.1752	145.2	0
0.4647	-47.4596	-9.42806	-7.63947	-64.5109	-0.244019	19.751	-1.60895	61.746	275.491	0.321699
0.4653	-113.987	-7.60327	-7.63947	-103.892	-6.64594	12.745	0.221077	58.074	343.547	0
0.4660	-67.8945	-5.17023	-5.78417	-93.1924	-10.622	5.99983	1.44928	53.4982	201.949	0
0.4667	29.7586	-3.34544	-3.32863	-34.3105	-14.5837	-5.29178	-1.916	46.2107	-54.0773	0.321699
0.4673	142.659	-1.21652	0	38.3313	-15.8038	-14.7201	-3.13192	41.0134	-249.395	0.321699
0.4680	212.867	0.912393	3.98344	94.7783	-10.3062	-19.9373	-0.380743	39.7705	-342.784	0
0.4687	191.801	0	3.3832	128.352	-2.06699	-23.2913	-1.3019	37.6238	-308.911	0
0.4693	103.612	-2.12892	0.327406	128.664	-1.46412	-26.3471	-2.51782	36.72	-203.619	0
0.4700	56.9234	-2.73718	-1.52789	107.6	-9.40192	-29.701	-0.380743	36.72	-147.156	0.321699
0.4707	113.356	-3.64957	-4.58368	96.61	-13.0622	-27.5396	0.221077	35.1947	-134.656	0.321699
0.4713	102.701	-3.64957	-6.38442	92.0308	-9.70335	-22.0615	-0.0859742	37.3414	-43.1044	0
0.4720	-81.6347	-1.82479	-3.98344	92.9466	-9.08613	-21.4652	2.0511	44.3464	65.5511	0.321699
0.4727	-222.927	-2.43305	-2.45555	101.189	-14.2823	-29.4029	-0.994844	48.3574	30.4379	0.321699
0.4733	-197.9	-6.69088	-3.98344	99.6702	-19.7656	-36.7071	-8.62198	46.8321	-85.8271	0
0.4740	-131.057	-7.60327	-3.65603	88.9929	-22.2201	-35.4773	-10.7591	46.8321	-202.402	0.321699
0.4747	-102.385	-4.8661	-0.272838	73.1109	-18.8613	-29.0675	-9.54314	52.9332	-227.425	0.321699
0.4753	-73.0821	-2.12892	3.98344	43.2009	-13.0622	-22.9932	-10.452	59.3169	-86.1372	0
0.4760	-19.3834	-0.912393	6.71182	-2.85921	-6.64594	-22.3596	-10.452	59.0344	48.1376	0.321699
0.4767	19.6989	0	7.96688	-57.4969	0.0574163	-26.6452	-8.92904	52.5943	8.46821	0.321699
0.4773	13.5649	-1.21652	7.63947	-100.832	2.51196	-28.4713	-7.09901	47.736	-88.2602	-0.321699
0.4780	-13.8803	-5.47436	2.72838	-131.055	-1.16268	-27.875	-5.57604	48.0184	-87.974	-0.321699
0.4787	-14.1958	-10.0363	-4.85652	-152.722	-7.26316	-28.1731	-6.19014	49.5437	-17.1511	0.321699
0.4793	19.6989	-11.2528	-7.63947	-154.554	-11.2249	-27.875	-7.71311	51.069	51.1909	0.321699
0.4800	42.5874	-10.9487	-6.71182	-148.433	-12.445	-23.2913	-8.32722	51.6904	70.7275	0
0.4807	25.1669	-10.3405	-6.11158	-142.022	-13.6651	-16.5834	-7.40606	51.408	53.6479	0
0.4813	-0.140206	-9.12393	-4.85652	-120.668	-12.7464	-9.54011	-5.88309	48.3574	72.2541	-0.321699
0.4820	-32.2122	-8.21154	-3.05579	-104.808	-6.04307	-4.062	-5.57604	42.2562	100.951	0
0.4827	-76.7625	-7.60327	-1.52789	-104.495	1.29187	-1.30431	-6.79196	37.3414	42.6512	0.321699
0.4833	-67.6141	-6.99501	-1.20049	-85.2625	6.77512	0.521725	-8.02017	34.9122	-39.4309	0.321699
0.4840	-15.4226	-7.29914	-3.98344	-50.1702	11.0526	1.11798	-5.88309	34.0083	-32.7278	0
0.4847	14.5113	-9.42806	-7.31207	-1.34025	10.4354	-1.60244	-3.13192	35.1947	43.8677	0
0.4853	49.9132	-10.3405	-7.91231	57.8543	2.8134	-4.36013	-0.0859742	36.72	103.694	0
0.4860	89.5563	-10.0363	-8.23972	85.9326	-6.64594	-5.88804	3.58635	36.4375	127.786	0
0.4867	81.0388	-9.12393	-8.51256	87.4516	-7.86603	-5.29178	3.88112	34.2908	135.73	0
0.4873	66.0719	-7.29914	-5.51133	81.063	-3.28708	2.98128	1.74405	33.048	33.8013	0
0.4880	76.7625	-6.08262	-2.72838	84.101	-3.28708	13.3412	0.528127	32.1441	-161.206	0
0.4887	80.4079	-6.38675	-2.45555	106.081	-4.20574	15.7635	-0.0859742	32.1441	-248.488	0.321699
0.4893	69.7172	-8.8198	-3.98344	103.021	-4.50718	8.16127	-4.96194	32.483	-174.636	0
0.4900	37.6802	-9.73219	-4.85652	74.9426	-9.08613	-3.76387	-10.1572	33.6694	-121.227	0
0.4907	-16.6494	-5.17023	0.600244	73.4236	-8.78469	-15.0555	-7.09901	36.4375	-124.28	0
0.4913	-72.8017	-0.912393	8.23972	85.3295	4.63637	-25.7136	-2.82487	36.0985	-11.9748	0
0.4920	-92.9212	0	10.9681	72.195	18.0718	-29.9992	-3.13192	32.1441	152.523	0.321699
0.4927	-71.5749	0.912393	10.6953	34.0648	21.4306	-21.1299	-2.51782	29.4325	251.995	0.321699
0.4933	-60.2884	0.912393	9.16737	-9.27009	16.5502	-7.41594	0.528127	30.9578	351.49	0.321699
0.4940	-91.6944	-1.82479	4.25628	-30.0217	10.7512	1.7515	2.35815	31.5227	384.457	0.321699
0.4947	-133.511	-4.25783	-0.600244	-26.0679	20.512	16.6952	3.88112	30.3363	262.682	0.321699
0.4953	-139.014	-4.25783	-1.52789	-12.0176	28.7512	38.9803	5.41638	31.5227	35.3279	0
0.4960	-117.352	-6.08262	-0.92765	5.98647	15.6316	54.5202	-0.0859742	32.1441	-236.895	0
0.4967	-72.8017	-7.90741	-1.52789	28.5698	-0.545455	51.5017	-10.1572	33.048	-395.883	0
0.4973	10.5154	-5.47436	-0.272838	53.9006	-9.08613	43.2286	-14.4191	38.2453	-346.457	0
0.4980	91.0985	-2.73718	0.600244	63.0366	-13.9809	63.0914	-14.7262	43.4425	-208.199	0
0.4987	124.047	-2.43305	-0.600244	41.3692	-17.3254	86.569	-15.9544	45.5892	-76.9772	0
0.4993	102.385	-2.73718	-2.45555	9.33711	-20.6842	77.1035	-15.6473	42.2562	27.3845	0
0.5000	32.8081	-4.8661	-3.05579	-13.8493	-21.6029	62.1598	-14.4191	34.5733	66.4576	0
0.5007	-38.3112	-6.08262	-3.05579	-30.3344	-23.1244	62.7933	-9.85019	30.3363	46.3247	0
0.5013	-27.0246	-4.25783	-2.72838	-28.8155	-26.1818	67.9733	-4.05307	33.048	89.0474	0
0.5020	44.4101	-3.34544	-2.45555	-26.6711	-28.622	72.557	0.835178	41.9173	176.33	0
0.5027	67.2987	-6.38675	-3.05579	-43.7593	-31.3637	74.6812	2.97225	51.069	136.636	0.321699
0.5033	59.342	-12.8343	-4.58368	-57.8096	-27.1005	65.2156	-0.0859742	56.2663	72.8743	0.321699
0.5040	74.9048	-15.5715	-4.25628	-65.4268	-20.0814	40.8063	-1.916	57.1702	75.9277	0.321699
0.5047	81.9501	-14.9632	-4.25628	-73.0662	-27.7034	20.0491	-2.22305	53.2157	-6.48832	0.321699
0.5053	63.9337	-14.0509	-7.63947	-52.3146	-30.7608	25.5645	-6.48491	45.5892	-87.974	0.321699
0.5060	20.2948	-11.557	-9.44021	7.50542	-11.5263	46.2844	-8.92904	40.1095	-22.3513	0
0.5067	7.46594	-7.90741	-7.91231	56.9385	4.03349	51.7998	-5.88309	37.9628	29.8415	0
0.5073	88.9604	-5.77849	-7.31207	76.1711	12.2727	66.4454	-3.74602	35.8161	-62.3308	0.321699
0.5080	160.36	-4.8661	-8.51256	90.5118	23.5694	88.3951	-2.51782	32.7655	-174.326	0.321699
0.5087	137.787	-2.12892	-5.18393	80.7503	26.311	68.2714	-2.51782	27.9072	-197.226	0
0.5093	96.2861	0.608262	0	28.8601	15.0144	85.6747	-4.65489	20.8456	-152.976	-0.321699
0.5100	72.7667	3.04131	2.12814	-32.4788	-2.68421	172.02	-0.687794	15.3659	-112.377	0
0.5107	39.2225	4.8661	4.25628	-81.5992	-17.0239	204.702	6.93935	15.3659	-7.08467	0.321699
0.5113	-39.2225	5.47436	7.03923	-102.351	-23.7416	185.138	6.32525	14.1796	245.888	0
0.5120	-190.89	4.8661	6.43898	-95.6495	-28.622	171.424	3.2793	13.5581	404.28	0
0.5127	-327.906	3.04131	4.91109	-94.1082	-30.1436	139.077	6.32525	20.8456	345.384	0.321699
0.5133	-336.458	1.21652	5.78417	-115.173	-24.0431	73.7495	11.2135	28.1896	252.615	0.321699
0.5140	-203.999	2.43305	7.96688	-140.816	-19.7656	6.93149	12.4294	27.2858	110.087	0
0.5147	11.7422	4.25783	7.63947	-151.181	-23.4402	-33.9494	10.2923	24.5176	-219.506	0
0.5153	202.492	5.17023	4.58368	-141.732	-26.1818	-57.7624	7.55345	22.9923	-500.245	0.321699
0.5160	269.019	4.56196	2.72838	-114.86	-23.4402	-90.4074	5.10932	22.3709	-507.282	0.321699
0.5167	186.018	0	1.8553	-91.9861	-21.3014	-142.282	1.14223	25.7605	-405.043	0
0.5173	50.1936	-4.25783	3.05579	-69.6932	-17.0239	-193.56	-2.51782	37.9628	-312.871	0.321699
0.5180	4.13606	-6.99501	5.51133	-37.058	-11.2249	-228.366	-4.36012	48.9223	-232.315	0.321699
0.5187	24.8865	-10.0363	3.98344	-16.9095	-8.78469	-237.832	-8.02017	45.8717	-163.639	0
0.5193	31.2658	-9.73219	2.72838	-6.23218	-0.84689	-220.429	-11.0661	40.1095	-84.6105	0
0.5200	28.5318	-8.21154	4.25628	6.58958	11.3541	-192.964	-11.9873	40.7309	-18.3915	0.321699
0.5207	28.2164	-9.12393	3.05579	7.50542	16.8517	-159.387	-15.0332	41.6348	41.4346	0
0.5213	24.8865	-11.557	-1.52789	-6.8353	14.0957	-124.282	-17.7844	43.7815	133.297	0
0.5220	9.91954	-11.2528	-3.05579	-23.6332	9.83254	-93.4633	-15.0332	52.5943	223.919	0
0.5227	-37.6802	-7.90741	0.600244	-36.1422	6.47369	-63.2778	-10.7591	60.5597	254.452	0
0.5233	-84.3687	-5.47436	1.8553	-58.7255	0.976077	-44.6447	-7.71311	61.746	170.509	0
0.5240	-93.5521	-3.9537	1.52789	-72.1504	-2.38278	-37.9368	-3.43897	61.4636	56.081	0
0.5247	-113.987	-3.9537	1.52789	-29.4186	1.29187	-35.1792	-2.51782	57.1702	36.2344	0
0.5253	-135.333	-6.99501	-0.272838	32.2331	7.07656	-29.9992	-7.40606	49.8827	41.4346	0
0.5260	-138.698	-8.21154	-0.600244	60.3114	6.47369	-29.9992	-8.92904	47.1145	-13.8115	0
0.5267	-160.991	-6.38675	0.327406	97.2355	-3.28708	-27.2415	-5.26899	45.3068	-30.2947	0.321699
0.5273	-136.876	-7.29914	-3.65603	147.272	-12.1435	31.6389	-5.26899	43.1601	55.7709	0.321699
0.5280	-53.5585	-10.0363	-7.63947	159.781	-10.622	113.14	-8.62198	44.9678	119.247	0.321699
0.5287	-12.969	-9.12393	-7.31207	144.524	-6.3445	139.673	-7.71311	46.4931	123.207	0
0.5293	-15.703	-7.90741	-6.71182	129.58	-7.86603	136.021	-7.09901	43.1601	136.04	0
0.5300	-34.6308	-9.73219	-7.63947	120.109	-7.86603	118.618	-10.1572	40.392	228.499	0
0.5307	-45.006	-10.9487	-7.31207	121.025	-10.0048	74.0849	-13.5102	41.2958	405.21	0
0.5313	-23.3442	-7.60327	-4.25628	111.576	-21	25.2291	-11.0661	41.9173	415.586	0
0.5320	-11.1463	0.304131	0.92765	81.3534	-32.8995	-9.54011	-0.380743	40.7309	173.276	0
0.5327	-46.8286	7.05584	6.11158	71.9046	-39.9187	-43.415	9.98529	39.1491	-48.9009	0
0.5333	-147.847	10.7054	12.496	95.6942	-40.5216	-77.2898	18.2265	35.8161	-149.923	0.321699
0.5340	-240.628	14.355	19.5352	109.119	-30.4593	-93.1651	28.6048	30.9578	-186.539	0.321699
0.5347	-185.387	14.6591	19.5352	94.1752	-15.201	-102.034	29.8208	26.3819	-183.796	0
0.5353	-14.7917	8.27236	10.9681	78.3155	-4.50718	-116.68	21.2848	25.1391	-174.636	0
0.5360	137.472	-1.21652	0.92765	59.9987	1.5933	-122.754	13.6453	28.1896	-102.907	0.321699
0.5367	265.654	-11.557	-10.9681	40.4757	3.41627	-116.046	-0.380743	29.7149	108.274	0
0.5373	310.52	-17.7004	-19.5352	44.4294	2.19617	-117.276	-17.7844	31.8616	268.788	-0.321699
0.5380	231.479	-16.1798	-19.5352	60.9146	0.976077	-122.456	-24.1956	40.7309	201.353	-0.321699
0.5387	210.729	-14.355	-19.5352	59.9987	3.73206	-104.457	-28.1627	44.6854	101.547	0.321699
0.5393	265.97	-12.2261	-20.4629	49.9245	11.6555	-82.8052	-33.6528	37.3414	89.0474	0
0.5400	195.762	-6.69088	-15.5518	44.1167	18.9904	-71.5136	-36.0969	26.9468	81.7242	0
0.5407	34.9462	-0.304131	-7.31207	8.10854	25.3924	-53.1787	-35.4828	15.0834	103.384	0.321699
0.5413	-52.3317	8.57649	1.8553	-59.6413	32.7129	-27.5396	-30.2998	1.01686	149.78	0.321699
0.5420	-89.8717	20.7417	15.8792	-125.559	38.512	-3.76387	-22.3533	-11.4679	171.129	0
0.5427	-147.847	29.6224	28.1024	-187.189	42.1723	10.8817	-18.3862	-19.0944	167.17	0
0.5433	-252.826	29.0141	28.7026	-223.822	37.6077	16.0989	-16.5562	-19.7158	132.366	0
0.5440	-312.027	23.8439	21.6634	-214.664	29.6699	15.7635	-18.0914	-12.9932	126.57	0
0.5447	-196.077	14.6591	14.0239	-173.764	21.7321	9.9873	-27.5486	-0.169477	95.1541	0
0.5453	39.8184	5.17023	7.31207	-103.267	10.134	8.16127	-31.5157	14.462	-62.0207	0
0.5460	180.83	-0.608262	0.600244	1.09454	-1.76555	12.4096	-22.6603	28.1896	-211.252	0
0.5467	136.245	-7.29914	-6.38442	88.077	-11.2249	11.5152	-14.1243	41.9173	-242.692	0
0.5473	59.0616	-14.355	-10.3679	113.095	-15.5024	24.3347	-4.96194	57.1702	-155.41	-0.321699
0.5480	48.6864	-16.1798	-10.0405	96.0069	-6.3445	51.1663	9.38347	69.7114	49.9744	0
0.5487	70.6636	-14.6591	-7.91231	55.4195	19.2919	59.4394	15.7824	74.2873	261.155	0.321699
0.5493	136.56	-10.0363	-4.58368	24.2809	36.9904	57.5761	10.9064	71.5192	289.541	0
0.5500	264.743	-3.64957	-1.20049	18.8082	36.3732	63.0914	6.6323	67.8472	119.557	0
0.5507	309.609	0.912393	-0.92765	5.98647	40.3493	66.4454	3.88112	63.2713	-128.24	0
0.5513	181.741	2.73718	-2.12814	-2.56882	51.646	66.1472	-3.43897	56.8877	-377.587	0
0.5520	2.5938	4.8661	1.20049	5.07063	54.689	67.9733	-10.452	52.3118	-515.511	0
0.5527	-86.8223	6.75171	5.18393	7.81815	45.8469	71.6254	-8.62198	45.3068	-478.275	0.321699
0.5533	-26.3937	3.64957	2.72838	1.69766	31.1914	67.3398	-5.88309	37.0589	-365.063	0.643398
0.5540	33.404	-0.304131	0	-16.3064	18.0718	50.2719	-11.3732	32.7655	-284.198	0.321699
0.5547	-33.404	-0.304131	0.600244	-50.7733	13.7943	30.4464	-18.3862	32.1441	-217.979	0.321699
0.5553	-106.661	-0.304131	-1.20049	-97.4812	14.7129	12.745	-19.0003	31.5227	-149.303	0.321699
0.5560	-9.91954	-2.12892	-6.11158	-152.097	8.61244	2.98128	-21.7515	26.9468	-119.08	0
0.5567	261.378	-1.52065	-8.51256	-194.516	0.674641	7.22961	-22.6603	22.7099	-133.13	-0.321699
0.5573	417.322	1.52065	-7.03923	-218.64	-4.82297	13.6394	-10.7591	21.1846	-163.043	0
0.5580	354.159	3.9537	-5.51133	-246.406	-10.3062	11.8133	2.0511	17.2301	-188.972	0.321699
0.5587	305.017	3.9537	-7.03923	-262.578	-1.16268	6.63336	2.97225	14.462	-255.501	0.321699
0.5593	278.764	1.52065	-8.23972	-255.251	19.8947	-1.60244	2.6652	18.7554	-328.757	0.321699
0.5600	207.679	-1.82479	-10.3679	-229.318	31.1914	-4.062	3.58635	23.3313	-344.62	0.321699
0.5607	141.432	0	-10.9681	-178.343	29.6699	2.04963	0.528127	24.8566	-342.474	0
0.5613	-70.944	6.44758	-4.85652	-116.401	22.9522	-3.42848	-0.994844	28.8111	-307.694	0
0.5620	-445.713	8.57649	0.92765	-63.9078	14.7129	21.8752	1.44928	32.1441	-216.142	0
0.5627	-563.206	6.75171	3.05579	-45.3006	-1.76555	104.27	2.6652	31.2402	-108.727	-0.321699
0.5633	-282.129	8.27236	6.43898	-70.9218	-17.3254	156.778	2.0511	31.8616	-38.2143	-0.321699
0.5640	-1.68247	9.48889	6.43898	-103.892	-10.9235	147.909	-0.380743	32.1441	-42.7943	0
0.5647	92.9212	3.34544	-0.600244	-107.243	7.39235	124.431	-1.3019	26.6643	-81.2471	0.321699
0.5653	128.323	-5.17023	-9.16737	-100.832	25.6938	99.0904	6.32525	27.2858	-96.2037	0.321699
0.5660	22.7483	-6.99501	-13.0962	-96.2526	34.8517	60.0356	16.3965	28.4721	-85.2069	0.321699
0.5667	-161.271	-2.43305	-12.8234	-64.5109	21.1148	15.4654	18.5336	17.7951	-54.3874	0
0.5673	-117.632	2.43305	-10.9681	-22.4046	-0.545455	2.34776	16.0895	11.4114	-9.8279	0
0.5680	-75.8512	6.75171	-3.98344	6.58958	-13.3636	27.3905	14.2594	13.2192	49.6643	0.321699
0.5687	-257.417	11.6178	7.03923	34.6679	-23.4402	36.5207	13.6453	5.31027	141.216	0
0.5693	-300.145	18.6128	16.4794	47.7801	-33.5024	22.5087	20.9777	-11.4679	225.755	-0.321699
0.5700	-180.199	22.2624	23.1913	34.9806	-31.6794	14.2729	32.879	-16.3828	244.075	-0.321699
0.5707	-166.179	14.0509	20.7357	33.7521	-21	-8.31033	33.4931	-4.18043	231.242	0.321699
0.5713	-224.154	-1.21652	8.23972	59.3956	-11.5263	-50.4582	24.3307	13.5581	207.149	0
0.5720	-148.478	-12.5302	-5.51133	92.9466	-6.04307	-86.7554	25.2519	32.7655	135.42	0
0.5727	21.837	-15.2674	-10.6953	124.085	-9.08613	-114.519	31.6508	42.8211	59.1344	0
0.5733	3.50514	-7.60327	-2.12814	134.763	-10.9235	-138.332	32.5719	37.3414	-7.70488	0
0.5740	-167.405	3.34544	9.16737	132.618	-9.70335	-130.394	30.4349	31.2402	-83.394	0
0.5747	-382.551	9.18476	12.2232	145.753	-19.1627	-85.5256	25.5589	24.8566	-75.7607	0
0.5753	-535.725	7.6641	5.51133	167.42	-25.5646	-50.7564	19.4547	16.2698	30.748	0.321699
0.5760	-442.033	-1.82479	-9.76761	174.747	-13.9809	-43.415	18.5336	21.806	96.3706	0.321699
0.5767	-189.663	-14.355	-28.0478	153.995	-3.28708	-42.5206	20.0566	38.2453	78.0507	0.321699
0.5773	22.7483	-23.4789	-39.6707	109.432	10.4354	-33.3531	26.1607	54.4585	43.2714	0.321699
0.5780	159.133	-24.6954	-37.5426	77.087	48.2871	-25.4154	32.2649	59.0344	31.9645	0
0.5787	183.88	-15.5715	-22.2636	61.2273	85.5072	-20.2355	22.8077	48.0184	73.1606	0
0.5793	56.608	0.608262	-2.12814	20.6176	96.201	3.57754	6.6323	31.2402	134.203	0.321699
0.5800	-24.8865	11.9219	11.6229	-25.4425	91.3063	29.2166	-1.916	14.7445	149.16	0
0.5807	98.1088	15.2674	16.8068	-42.8435	71.4689	35.9245	-7.71311	7.73944	178.453	0.321699
0.5813	225.661	19.8293	21.3905	-64.2205	38.2105	32.5705	-9.23609	0.734399	244.672	0
0.5820	191.801	26.8852	26.5745	-73.6693	13.4928	17.925	-3.13192	-20.9586	284.341	-0.321699
0.5827	181.426	27.7976	25.6468	-41.6372	-7.86603	-7.11782	5.10932	-37.1154	293.191	0
0.5833	292.188	17.7004	17.0797	-16.9095	-32.2823	-31.5271	11.8153	-24.2917	224.849	0
0.5840	379.186	2.12892	4.25628	-4.08778	-46.0192	-67.5261	15.4876	13.2192	69.2008	0
0.5847	422.194	-7.90741	-5.78417	40.4757	-40.823	-89.2149	17.3177	49.2612	-40.6713	0
0.5853	575.404	-15.2674	-10.9681	95.091	-32.5837	-17.7759	22.8077	66.9433	-48.9009	0
0.5860	666.958	-21.0459	-11.2955	118.277	-39.3015	91.1528	30.1278	77.6204	38.3813	0
0.5867	481.115	-16.1798	-4.25628	103.334	-42.9617	125.661	28.9119	77.6204	204.692	0
0.5873	338.912	-1.82479	7.96688	70.3634	-20.6842	118.022	19.7495	54.4585	295.648	0
0.5880	440.21	8.88062	15.2789	49.9245	14.0957	100.32	11.8153	36.0985	285.868	0
0.5887	422.509	8.88062	11.8958	33.7521	38.8278	65.5137	9.38347	39.7705	255.979	0
0.5893	19.6989	7.05584	10.095	5.36102	64.1484	28.9185	7.55345	42.2562	184.249	0
0.5900	-377.048	5.83931	9.76761	-32.7692	78.4881	-17.1797	2.6652	40.392	48.1376	0
0.5907	-348.376	2.73718	6.11158	-74.2724	68.1244	-69.3521	2.6652	48.0184	-146.87	0
0.5913	-175.923	0.608262	6.11158	-93.5051	57.7464	-109.935	8.76937	58.6955	-315.017	0.321699
0.5920	-16.0185	-1.52065	3.65603	-77.6454	40.0479	-144.741	8.76937	66.0394	-326.3	0
0.5927	150.616	-6.38675	-3.98344	-44.6751	13.1914	-173.436	5.71114	71.5192	-236.585	0.321699
0.5933	52.3317	-13.7467	-11.2955	-19.6571	-2.06699	-183.498	9.07642	79.1456	-138.926	0.321699
0.5940	-192.117	-21.35	-20.4629	-6.8353	-12.7464	-205.783	10.9064	85.8682	-24.7844	0.321699
0.5947	-262.92	-24.6954	-25.9196	-5.91946	-33.8038	-225.907	9.07642	86.7721	-1.28812	0
0.5953	-221.7	-18.6128	-19.5352	-33.0819	-56.0814	-183.2	13.3506	86.4896	-108.417	0
0.5960	-234.529	-12.8343	-7.91231	-62.992	-57	-126.742	20.9777	91.0655	-201.782	0.321699
0.5967	-201.861	-13.4426	-0.600244	-52.0019	-48.1579	-76.06	24.0236	90.4441	-151.45	0
0.5973	-102.981	-11.557	5.78417	-26.0679	-53.3397	-17.7759	21.5918	69.09	-44.6311	-0.321699
0.5980	-142.659	-7.29914	10.9681	-13.5589	-52.7369	5.70171	13.3506	47.397	-79.4104	-0.321699
0.5987	-249.496	-3.9537	10.9681	5.67374	-46.9378	26.757	6.93935	41.6348	-117.267	0
0.5993	-298.007	1.52065	10.9681	43.5136	-46.9378	58.2096	2.6652	34.5733	-15.0281	0
0.6000	-310.836	6.14345	10.3679	81.3534	-23.4402	51.1663	-8.62198	24.5176	21.2779	0
0.6007	-220.473	7.6641	6.11158	99.0671	19.8947	30.7445	-17.1703	20.5632	-35.7812	0.321699
0.6013	-74.9048	6.75171	1.20049	96.61	47.067	22.5087	-13.5102	28.1896	-22.3513	0
0.6020	-12.6535	2.43305	-1.52789	78.9186	47.067	9.9873	-11.9873	40.7309	46.3247	0
0.6027	-48.6864	-1.21652	-1.52789	60.9146	32.4115	8.16127	-14.7262	41.9173	117.124	0.321699
0.6033	-124.047	-3.04131	-0.92765	48.6959	20.2105	8.45939	-13.8173	37.3414	168.696	0.321699
0.6040	-143.29	-2.73718	-3.65603	6.58958	9.83254	-3.42848	-13.2032	36.72	130.554	0.321699
0.6047	-92.3253	0	-5.18393	-46.8196	0.0574163	8.45939	-10.452	38.2453	11.8316	0.321699
0.6053	-31.5813	4.25783	-2.72838	-36.1422	3.11483	41.1045	2.97225	38.5842	-67.2209	0.321699
0.6060	16.3339	5.17023	-0.92765	-8.35425	7.07656	130.208	15.1806	28.8111	-66.6007	0.321699
0.6067	30.67	2.43305	-2.12814	-22.4046	6.77512	283.408	18.2265	17.5126	-3.43499	0
0.6073	30.0741	1.21652	-3.32863	-45.591	18.0718	351.456	21.5918	24.8566	37.4748	0.321699
0.6080	41.0452	-0.912393	-4.85652	-64.5109	21.7321	338.339	19.7495	43.1601	-16.5548	0
0.6087	39.8184	-2.12892	-4.85652	-66.0522	12.2727	309.979	6.01819	57.1702	-44.6311	0
0.6093	-16.9298	2.12892	-3.98344	-39.8056	0.373206	226.95	-3.74602	60.2207	-19.298	0
0.6100	-103.927	6.14345	-5.51133	-11.7272	-25.5646	142.729	-3.43897	47.1145	-1.90833	0.321699
0.6107	-115.81	8.27236	-5.78417	10.2529	-45.4019	102.743	0.221077	31.8616	61.5675	0
0.6113	-52.0163	10.4013	-0.272838	22.1589	-42.3589	64.6193	5.10932	30.9578	153.74	0.321699
0.6120	-14.7917	8.27236	2.12814	5.36102	-41.1388	-3.42848	6.01819	31.5227	196.152	0
0.6127	-22.7483	3.04131	-0.272838	-33.9978	-49.9809	-81.5754	3.2793	23.8962	186.706	-0.321699
0.6133	-13.2845	1.82479	0	-69.6932	-55.1771	-125.81	2.97225	16.8912	142.147	0
0.6140	37.9957	4.56196	0.327406	-100.229	-57.6173	-151.449	-0.994844	13.5581	56.7012	0
0.6147	30.67	9.18476	1.8553	-121.583	-53.957	-224.379	-4.05307	12.6543	-32.4177	0
0.6153	-104.839	14.9632	6.71182	-101.435	-48.1579	-211.895	-0.380743	12.9367	-89.1905	0
0.6160	-217.143	13.4426	7.63947	-41.9276	-60.9761	23.4031	1.74405	10.5076	-189.282	-0.321699
0.6167	-140.241	5.17023	2.12814	15.748	-68.5981	224.826	6.01819	10.1686	-320.504	-0.321699
0.6173	55.1008	3.34544	-2.12814	66.7	-52.7369	275.806	13.6453	14.462	-324.177	0
0.6180	184.475	6.44758	-5.51133	135.366	-35.0383	332.562	13.6453	11.6939	-200.565	0
0.6187	189.979	7.35997	-5.51133	197.017	-14.2823	380.151	13.0435	5.59273	-54.6975	0.321699
0.6193	95.6552	5.17023	-0.92765	207.695	-3.28708	398.784	18.5336	7.73944	69.2008	0.321699
0.6200	-26.3937	1.21652	1.20049	181.158	-12.7464	384.735	22.8077	9.88614	133.583	0
0.6207	-55.3812	-2.12892	1.20049	150.622	-17.9426	310.277	21.8866	14.462	127.5	0
0.6213	1.99793	-3.04131	4.58368	125.001	-10.9235	199.485	20.0566	30.3363	85.3739	0.321699
0.6220	38.5916	-3.34544	5.18393	114.324	2.19617	70.0974	17.9195	38.8667	43.5576	0
0.6227	61.1997	-3.04131	0.92765	110.035	11.0526	-63.2778	13.9524	34.5733	20.0613	0
0.6233	132.004	0.912393	0.327406	98.1513	11.3541	-193.262	16.0895	37.9628	-1.59823	0
0.6240	181.741	3.9537	1.52789	89.9087	23.5694	-304.352	19.7495	47.736	-31.5113	0
0.6247	154.261	6.14345	2.72838	88.077	53.7704	-378.213	18.2265	44.6854	-59.8977	0
0.6253	113.076	12.8343	8.23972	82.582	77.268	-440.746	17.0106	29.7149	-81.5572	0
0.6260	74.3089	16.4839	14.9515	45.9484	76.6651	-496.607	8.46232	20.2807	-82.4637	0
0.6267	60.8843	15.5715	20.1355	-16.5968	57.7464	-496.309	-9.85019	16.8912	-65.9805	0
0.6273	92.3253	16.4839	22.2636	-70.6091	29.6699	-470.074	-25.4115	12.3153	-37.9042	-0.321699
0.6280	71.8553	18.9169	17.0797	-119.752	4.63637	-443.205	-24.7974	8.36085	-14.4079	-0.321699
0.6287	-20.8906	18.9169	3.98344	-173.161	-7.26316	-376.052	-3.13192	7.45698	-21.4449	0
0.6293	-70.944	9.48889	-10.3679	-201.53	-12.7464	-273.831	18.2265	11.4114	-56.2242	0
0.6300	-61.4801	-8.21154	-17.0797	-179.862	-16.4211	-174.666	27.3889	13.8406	-81.2471	0
0.6307	-61.7956	-18.6128	-15.2789	-137.153	-11.2249	-105.985	34.402	12.6543	-70.8706	0
0.6313	-45.9173	-19.2211	-8.51256	-107.846	-3.28708	-53.4768	24.6378	13.2192	-63.5474	0
0.6320	-2.27834	-16.788	-0.272838	-86.8038	0.373206	-16.8815	-5.57604	20.5632	-92.5301	0
0.6327	0.140206	-8.8198	6.71182	-50.4829	10.4354	-31.229	-35.7898	40.7309	-98.6368	0
0.6333	-27.0246	7.05584	11.2955	15.1449	21.7321	-62.6442	-61.1154	61.746	-36.3775	0.321699
0.6340	-39.8184	20.7417	12.2232	81.3534	11.3541	-63.874	-80.9509	67.8472	28.3148	0
0.6347	-59.9729	25.3645	7.31207	106.684	-12.445	-69.3521	-88.578	64.5142	56.9875	0
0.6353	-94.148	14.6591	-12.496	97.5258	-21.9043	-93.4633	-78.8138	39.4881	48.4477	0
0.6360	-115.214	-11.557	-39.3433	85.9326	-22.823	-96.5191	-52.5671	-13.8971	31.3682	0.321699
0.6367	-113.672	-20.1335	-34.7596	86.2454	-21.3014	-53.4768	-19.9215	-65.1921	86.2803	0.321699
0.6373	-88.3645	-10.3405	-10.6953	92.0308	-10.622	7.22961	1.44928	-97.8446	139.69	0.321699
0.6380	-51.1049	-20.4376	-10.9681	107.287	-2.98565	91.7863	11.2135	-109.143	115.287	0.321699
0.6387	-7.46594	-34.7926	-19.8081	128.039	-8.48326	241.298	17.6247	-76.773	73.4707	0.321699
0.6393	24.8865	-24.9996	-11.8958	128.664	-18.5455	341.394	24.3307	-11.8069	50.5946	0
0.6400	22.1174	-10.6446	-3.65603	104.249	-17.0239	335.283	30.1278	46.4931	42.031	0
0.6407	12.3731	-6.08262	-3.32863	63.0366	4.63637	328.277	33.4931	93.7771	-3.7451	0
0.6413	-2.27834	-4.8661	-3.32863	27.3412	33.0287	311.507	34.709	130.441	-50.4276	0
0.6420	-30.9854	-3.04131	-1.52789	3.84206	58.3493	255.645	25.2519	150.552	-48.5908	0
0.6427	-39.538	-1.21652	0	-33.3947	75.7465	179.958	9.38347	159.421	-87.3538	0.321699
0.6433	-29.1277	-3.04131	-1.52789	-78.8516	68.7273	90.8546	3.88112	156.653	-148.396	0
0.6440	-25.4824	-5.17023	-3.65603	-105.411	53.1675	94.2086	4.80227	147.219	-113.903	0
0.6447	-23.3442	-5.47436	-4.25628	-123.102	61.1053	167.772	6.6323	134.678	-30.581	0
0.6453	-27.936	-4.25783	-6.38442	-138.672	69.646	133.897	12.4294	111.798	-6.48832	0
0.6460	-28.8473	-2.73718	-8.23972	-132.886	60.1866	69.5012	30.4349	91.9694	-18.0814	0
0.6467	-3.50514	-2.12892	-6.38442	-108.159	42.1723	67.9733	52.4074	83.7215	-15.0281	0
0.6473	30.0741	-4.56196	-5.78417	-70.006	17.4546	42.9305	48.4403	75.8126	2.67166	0.321699
0.6480	51.4204	-5.47436	-6.38442	-37.6611	11.0526	-20.2355	28.2978	69.09	17.008	0.321699
0.6487	45.9173	-3.9537	-4.85652	-29.7313	19.5933	-63.5759	9.67824	69.7114	34.7077	0.321699
0.6493	10.5154	-5.77849	-5.18393	-16.3064	6.77512	-59.8865	-19.6144	71.2367	42.9613	0
0.6500	0.140206	-6.69088	-6.11158	11.1688	-31.9809	-40.3591	-44.3381	69.3725	6.34519	0
0.6507	49.2822	-4.25783	-5.51133	35.5838	-73.1771	-26.9434	-47.9982	65.418	-42.7943	0.321699
0.6513	97.1975	-2.12892	-3.32863	50.2372	-85.378	-42.1852	-49.5211	59.9383	-79.7205	0.321699
0.6520	86.5068	0.608262	-0.272838	50.2372	-59.4402	-71.8117	-46.77	56.8877	-85.8271	0.321699
0.6527	44.4101	1.82479	1.20049	27.6539	-16.1053	-73.6377	-33.6528	52.5943	-67.8173	0.321699
0.6533	33.7194	-0.608262	-0.272838	-7.43841	1.5933	-98.6432	-30.2998	44.064	-59.8977	0.321699
0.6540	12.6535	0.304131	-0.272838	-24.2363	-10.0048	-143.81	-34.8687	40.392	-47.6844	0
0.6547	-46.2328	2.73718	0.600244	-25.4425	-27.4019	-126.444	-34.8687	41.2958	-25.7147	0.321699
0.6553	-22.7483	-1.21652	-2.45555	-35.8295	-32.5837	-29.9992	-39.4499	37.0589	3.29187	0.321699
0.6560	40.7297	-1.82479	-1.80073	-54.4367	-2.06699	67.9733	-48.3052	30.9578	35.6381	0.321699
0.6567	-11.1463	2.73718	3.05579	-65.7395	20.2105	56.6817	-57.4553	28.8111	51.1909	0.321699
0.6573	-110.622	0.912393	3.05579	-61.1603	9.83254	-13.8257	-69.9707	30.6188	46.921	-0.321699
0.6580	-86.5068	-4.56196	-1.52789	-48.0258	-0.84689	-58.0605	-78.212	30.3363	29.5314	-0.643398
0.6587	34.3153	-7.90741	-8.83996	-36.7453	-22.5215	-120.034	-67.5266	23.8962	-17.4612	0
0.6593	79.1811	-10.9487	-17.0797	-33.3947	-46.9378	-212.491	-32.7316	23.6138	-80.937	0
0.6600	61.7956	-12.2261	-22.591	-48.3385	-52.7369	-318.401	0.221077	26.9468	-120.606	0
0.6607	131.373	-10.3405	-22.2636	-70.6091	-61.8804	-353.17	25.2519	25.4215	-125.186	0.321699
0.6613	298.007	-6.69088	-13.4236	-76.4168	-75.9187	-184.094	65.2299	27.9072	-99.257	0.321699
0.6620	451.497	-1.52065	-1.80073	-69.6932	-64.335	63.3896	88.1113	31.8616	-43.1044	0
0.6627	384.969	4.25783	5.78417	-57.4969	-39.9187	184.84	72.5499	26.9468	41.7447	0
0.6633	70.6636	10.4013	10.9681	-37.058	-37.7799	166.244	68.2758	17.7951	72.8743	0
0.6640	-196.393	18.6128	16.2066	-13.5589	-47.8421	16.6952	94.5225	10.79	-17.1511	0.321699
0.6647	-260.782	25.9728	20.1355	-3.48466	-77.4546	8.75752	116.495	5.31027	-105.054	0.321699
0.6653	-203.403	27.4934	21.3905	-8.66698	-142.751	284.042	132.056	-1.12985	-80.0306	0
0.6660	-90.1872	27.4934	24.1189	-20.2602	-184.866	456.77	169.897	-9.94264	-8.01498	-0.321699
0.6667	38.3112	25.3645	25.6468	-41.3245	-176.325	503.129	220.254	-17.5691	36.2344	0
0.6673	57.8348	16.788	21.9908	-65.1364	-136.349	570.879	236.736	-12.3718	67.9842	0.321699
0.6680	-28.2164	6.44758	16.2066	-68.487	-55.1771	528.47	194.007	5.31027	86.5904	0.321699
0.6687	-33.1236	-3.04131	10.6953	-53.8335	17.1531	369.791	117.109	24.8566	57.6077	-0.321699
0.6693	10.235	-9.12393	7.31207	-37.3484	21.7321	176.604	41.4273	40.392	-12.2849	-0.321699
0.6700	-24.2556	-15.8756	1.52789	-26.0679	-11.8421	0.223596	-0.0859742	50.4476	-87.3538	0.321699
0.6707	-59.342	-21.9583	-9.76761	-26.9838	-31.6794	-172.803	20.0566	59.5993	-133.13	0.321699
0.6713	-78.2697	-19.2211	-11.2955	-32.7692	15.6316	-383.989	76.8241	68.1861	-131.913	0
0.6720	-104.839	-12.8343	-2.12814	-28.19	174.014	-480.136	124.736	67.5647	-98.6368	0
0.6727	-55.1008	-10.6446	1.52789	-13.8493	368.713	-323.283	124.429	60.8422	-62.3308	0
0.6733	2.5938	-10.9487	-0.92765	5.07063	470.34	-127.338	57.6027	58.6955	-35.4711	0.321699
0.6740	-42.8678	-10.6446	-1.20049	22.1589	441.962	-135.909	-38.234	59.0344	-16.5548	0.321699
0.6747	-114.583	-10.0363	0.600244	36.1869	347.656	-271.073	-119.713	53.2157	6.03509	0.321699
0.6753	-121.628	-10.3405	1.20049	44.4294	278.081	-400.461	-161.214	41.0134	29.8415	0.321699
0.6760	-81.6347	-11.2528	-0.92765	39.2471	229.249	-521.315	-154.803	25.7605	36.5445	0.321699
0.6767	-47.775	-12.2261	-3.05579	28.257	155.096	-588.766	-121.236	7.73944	30.4379	0
0.6773	-29.4432	-14.355	-4.58368	25.1968	90.0862	-593.35	-71.4937	-21.8625	24.0449	0
0.6780	-7.18553	-17.0922	-7.31207	28.257	64.4498	-593.946	-14.4191	-48.4139	24.0449	0
0.6787	4.73194	-15.8756	-9.44021	31.6077	45.8469	-571.699	17.9195	-33.4434	41.1245	0
0.6793	-8.09687	-9.73219	-9.16737	36.4996	7.39235	-492.657	-0.687794	11.6939	50.5946	0.321699
0.6800	-29.1277	-5.77849	-4.85652	44.4294	-46.9378	-371.17	-61.4224	61.4636	24.0449	0.321699
0.6807	-47.1441	-6.08262	0.600244	52.3593	-69.8182	-259.185	-120.929	109.369	2.98176	0.321699
0.6813	-40.7297	-7.60327	2.72838	54.191	-66.7752	-183.796	-128.556	127.672	10.9252	0.321699
0.6820	-9.32367	-10.9487	1.20049	48.4055	-74.6986	-159.685	-84.0091	124	17.3181	0.321699
0.6827	24.2556	-13.7467	-1.52789	45.9484	-68.8996	-192.665	-49.2141	121.289	21.588	0.321699
0.6833	45.9173	-10.6446	-2.72838	49.0086	-89.957	-188.082	-50.7371	97.7881	29.5314	0.321699
0.6840	38.907	-2.12892	-1.20049	54.191	-162.904	-122.158	-55.6253	71.2367	38.0712	0.321699
0.6847	12.0577	7.35997	2.45555	59.686	-202.88	-85.2275	-52.5671	70.6153	45.7045	0
0.6853	-4.41647	10.4013	4.91109	54.8164	-185.182	-62.9424	-55.3183	73.0445	45.3944	0.321699
0.6860	-7.78141	9.79302	4.58368	45.0325	-142.45	-17.1797	-58.0694	72.4231	39.9079	0.321699
0.6867	-9.91954	10.7054	3.3832	40.163	-101.254	16.3971	-56.2394	74.2873	39.2877	0
0.6873	-8.69274	14.6591	3.05579	36.1869	-96.9761	108.854	-50.43	72.762	39.5978	-0.321699
0.6880	-3.18968	10.0971	2.45555	31.0046	-100.952	274.576	-35.4828	57.1702	35.3279	-0.321699
0.6887	-0.77113	-12.8343	4.91109	29.776	-75.3158	365.207	-0.0859742	27.9072	34.7077	0
0.6893	-1.367	-31.4471	7.63947	32.8362	-53.0383	426.845	43.8591	8.64332	43.5576	0.321699
0.6900	-2.5938	-31.4471	1.8553	35.8965	-43.8804	515.352	63.0928	6.21415	48.4477	0
0.6907	-2.5938	-25.6078	-3.98344	40.4757	-19.1627	555.637	49.6562	14.1796	45.0843	0
0.6913	0.455668	-18.9169	1.8553	45.0325	13.1914	532.122	19.7495	31.2402	43.5576	0.321699
0.6920	1.68247	-15.8756	6.11158	43.5136	22.6507	496.719	-8.92904	48.6398	42.031	0.321699
0.6927	0.77113	-14.9632	3.98344	39.5598	14.4115	550.755	-22.9674	61.746	40.8144	0.321699
0.6933	0.140206	-10.6446	2.72838	38.0185	20.8134	577.624	-17.1703	72.4231	42.3411	0.321699
0.6940	0.77113	-7.90741	2.72838	35.8965	41.5694	465.9	0.835178	74.2873	40.218	0.321699
0.6947	3.8206	-6.99501	3.05579	31.0046	47.6699	429.603	16.7036	64.1752	34.7077	0.321699
0.6953	7.18553	-5.77849	4.25628	22.4493	49.1914	472.31	27.3889	50.7865	27.3845	0.321699
0.6960	7.46594	-6.08262	3.3832	16.3511	73.3063	396.026	35.9249	41.6348	27.0983	0.321699
0.6967	5.64327	-7.29914	0.327406	17.5797	80.6268	240.068	31.049	36.72	33.1811	0.321699
0.6973	3.18968	-6.99501	-0.272838	21.8461	36.0718	95.7365	12.7365	36.72	26.4781	0.321699
0.6980	1.99793	-4.25783	0.600244	27.0285	7.69378	-19.3038	5.41638	37.9628	16.7217	0.321699
0.6987	0.77113	-3.04131	0.92765	31.0046	30.2727	-126.742	13.3506	35.5336	23.1146	0.321699
0.6993	-0.140206	-2.12892	2.45555	30.4014	40.9522	-249.422	7.55345	39.1491	35.9482	0.321699
0.7000	1.05154	3.34544	2.12814	27.3412	28.134	-322.351	-19.3074	48.9223	44.798	0
0.7007	0.77113	11.9219	-3.65603	25.8222	15.0144	-269.545	-37.6199	54.1196	45.3944	0.321699
0.7013	-1.05154	17.7004	-7.31207	26.4253	2.8134	-205.783	-32.4246	52.9332	38.6914	0.321699
0.7020	-1.68247	18.3087	-6.71182	23.9906	6.17225	-216.441	-17.7844	45.8717	32.8948	0.321699
0.7027	-1.367	15.8756	-4.25628	20.3272	19.5933	-218.901	-9.23609	38.2453	25.5716	0.321699
0.7033	2.5938	11.6178	-2.12814	21.243	28.7512	-224.379	-6.19014	18.134	6.34519	0
0.7040	8.37728	9.48889	0	20.3272	36.0718	-247.596	8.15527	-29.2065	2.98176	0.321699
0.7047	10.5154	15.8756	0.600244	15.4353	40.3493	-225.012	22.1936	-51.4644	34.1114	0.643398
0.7053	10.5154	18.9169	2.45555	9.64983	29.9713	-158.157	20.6707	-37.3979	56.3911	0.321699
0.7060	9.91954	6.14345	4.25628	5.07063	8.31101	-136.804	11.2135	-49.6567	49.6643	0.321699
0.7067	10.5154	-10.6446	2.45555	7.1927	-10.622	-187.448	-0.380743	-85.0208	43.8677	0.321699
0.7073	14.7917	-17.3963	-0.92765	10.8561	-15.201	-233.844	-5.57604	-115.866	70.4174	0
0.7080	19.068	-14.6591	2.12814	10.5657	-11.5263	-236.602	-0.0859742	-140.892	111.327	0.321699
0.7087	16.6144	-5.17023	7.03923	10.2529	-14.2823	-217.075	3.88112	-121.628	122.3	0.321699
0.7093	7.78141	-2.12892	10.9681	8.73399	-23.1244	-194.79	2.35815	-46.5496	102.477	0.321699
0.7100	3.8206	-8.8198	21.3905	5.36102	-36.2584	-167.026	-2.82487	14.462	81.104	0.321699
0.7107	9.91954	-10.9487	25.0466	3.23895	-46.3206	-134.68	-17.4773	5.93169	45.3944	0
0.7113	14.7917	-7.90741	14.9515	5.98647	-46.622	-99.873	-26.6274	-49.6567	-25.4046	0
0.7120	16.6144	0	14.6787	9.94022	-48.4594	-65.1038	-17.7844	-84.117	-69.3439	0.321699
0.7127	21.2061	22.8706	10.095	12.3974	-49.378	-26.6452	-8.62198	-59.3734	-53.791	0.321699
0.7133	23.3442	51.5806	-16.7523	13.0005	-35.6412	10.5836	-5.88309	-0.169477	-33.9444	0
0.7140	19.9793	57.9674	-26.8473	9.94022	-24.6603	25.8626	-0.687794	37.3414	-32.7278	0
0.7147	12.6535	33.5761	-18.935	5.98647	-26.4833	24.3347	3.58635	31.8616	-40.9575	0.321699
0.7153	6.87007	0	-16.152	3.52934	-21.9043	29.2166	4.49522	46.8321	-50.1175	0.321699
0.7160	1.367	-9.73219	-8.23972	2.01038	-15.201	55.1538	3.2793	91.348	-47.3743	0
0.7167	-4.73194	-2.73718	1.20049	3.23895	-16.1053	81.3891	6.32525	73.0445	-31.2012	0
0.7173	-8.09687	-1.21652	6.71182	4.44518	-15.8038	76.2091	11.8153	61.746	-16.8649	-0.321699
0.7180	-8.69274	12.2261	10.3679	3.84206	-10.3062	56.6817	7.55345	170.098	-11.0683	-0.321699
0.7187	-9.91954	39.6587	4.91109	3.84206	-1.76555	36.5207	1.74405	274.439	-6.48832	0
0.7193	-9.91954	46.4104	-4.58368	2.01038	10.134	15.7635	4.18817	281.162	-6.17822	0.321699
0.7200	-5.64327	22.5665	-3.98344	-1.96571	23.2536	11.2171	6.32525	220.433	-12.595	0
0.7207	2.27834	-3.9537	3.05579	-2.85921	24.7895	23.105	-0.0859742	135.92	-16.5548	0
0.7213	10.235	-29.5615	-4.25628	-1.96571	12.8756	36.2226	-12.2943	85.5858	-18.9879	0
0.7220	15.4226	-46.3496	-21.9908	-2.25609	-0.244019	35.3282	-14.7262	70.6153	-26.001	0
0.7227	15.1071	-39.9628	-19.8081	-1.96571	-8.18182	13.3412	-5.57604	71.8581	-26.6212	0
0.7233	10.8309	-35.4008	-4.85652	1.69766	-8.48326	-4.36013	-6.79196	92.2519	-11.9748	0
0.7240	7.18553	-40.8752	-0.600244	6.27686	-5.1244	-7.41594	-16.8632	120.95	15.1951	0
0.7247	6.87007	-34.7926	-2.12814	5.67374	-4.20574	-19.0057	-23.2744	134.395	32.8948	0.321699
0.7253	11.1463	-18.9169	-3.05579	0.781815	-7.5646	-25.1173	-22.6603	119.764	28.6249	0.321699
0.7260	13.2845	-13.4426	-4.25628	-1.34025	-9.40192	5.10545	-16.5562	85.5858	16.4116	0
0.7267	8.09687	-19.2211	-3.98344	-1.96571	11.3541	43.564	-8.62198	53.4982	18.8448	0.321699
0.7273	4.13606	-20.7417	-1.52789	-5.91946	44.311	56.9798	2.35815	42.2562	42.031	0.643398
0.7280	3.8206	-17.3963	0	-9.89555	58.3493	60.0356	11.5205	46.8321	47.5413	0.321699
0.7287	-1.68247	-14.355	0.327406	-10.1859	59.5694	66.1472	9.98529	56.5487	24.3312	0
0.7293	-9.32367	-9.12393	2.72838	-8.9797	46.7512	69.7993	3.58635	69.3725	10.9252	0.321699
0.7300	-11.7422	-0.912393	6.71182	-6.52257	20.8134	65.2156	-2.82487	67.2258	14.2648	0.321699
0.7307	-9.32367	7.96823	6.43898	0.491427	1.5933	68.8677	-9.23609	50.7865	7.25165	0.321699
0.7313	-2.90926	18.3087	7.03923	7.50542	-6.3445	80.7928	-10.1572	40.1095	8.15811	0.321699
0.7320	2.5938	25.3645	14.0239	5.67374	-8.78469	75.6128	-2.82487	29.7149	38.3813	0.321699
0.7327	3.18968	26.2769	20.7357	2.01038	-9.70335	81.6872	5.41638	19.9418	47.2311	0.321699
0.7333	5.32781	31.143	21.9908	9.02438	-13.3636	95.7365	7.84822	18.134	24.0449	0
0.7340	7.18553	33.8802	14.6787	13.0005	-17.6412	106.096	7.2464	17.7951	36.8546	0.321699
0.7347	6.23915	20.4376	0	1.09454	-22.2201	195.237	-0.687794	7.73944	71.6339	0
0.7353	6.23915	6.44758	-0.92765	-9.89555	-32.5837	303.271	-17.1703	-14.5185	48.4477	0
0.7360	6.55461	-1.52065	9.44021	-5.91946	-42.6603	314.227	-23.5815	-31.2967	-0.0715623	0
0.7367	7.18553	-21.6541	1.20049	6.90231	-42.0431	283.706	-18.3862	-42.3127	-13.5014	0
0.7373	4.73194	-43.6124	-12.8234	15.4353	-31.0622	247.707	-16.2614	-39.8835	-9.8279	0
0.7380	-2.5938	-49.1476	-10.0405	16.9766	-13.0622	190.653	-12.8961	-3.22006	2.98176	0.321699
0.7387	-6.87007	-43.9165	-4.25628	14.229	0.373206	134.791	6.93935	25.4215	24.9514	0.321699
0.7393	-5.64327	-36.9215	-0.600244	7.50542	0.373206	92.0844	26.1607	10.5076	37.1647	0
0.7400	-0.77113	-43.3083	-2.72838	3.52934	-3.60287	54.5202	24.6378	-27.6812	42.3411	0
0.7407	7.46594	-46.3496	-18.0073	3.23895	-1.46412	33.4649	16.3965	-74.6263	52.7176	0.321699
0.7413	9.91954	-4.8661	-19.8081	-0.73714	4.33493	16.3971	10.9064	-88.6928	67.364	0
0.7420	1.68247	57.6632	4.58368	-8.66698	11.9713	-35.8127	5.41638	-54.515	79.8874	0.321699
0.7427	-3.18968	85.1567	22.2636	-22.0919	13.4928	-102.034	-0.994844	-31.9181	81.7242	0
0.7433	4.41647	66.2397	3.05579	-37.6611	3.41627	-147.797	-3.43897	-13.8971	109.8	0
0.7440	11.4268	35.0967	-28.0478	-50.7733	-2.68421	-174.964	-3.13192	3.16357	194.936	0.321699
0.7447	10.235	18.3087	-23.7915	-60.8475	-1.76555	-169.784	-4.05307	8.36085	183.033	0.321699
0.7453	4.73194	9.79302	-3.65603	-54.1463	-9.08613	-133.748	-7.09901	30.3363	-24.7844	0
0.7460	1.05154	-1.82479	-10.0405	-16.9095	-20.3828	-99.873	-10.452	48.3574	-184.702	0.321699
0.7467	-1.68247	-44.8289	-29.3028	15.748	-24.6603	-81.5754	-13.2032	82.8176	-153.883	0
0.7473	-5.32781	-94.5847	-34.1594	24.5937	-16.4211	-65.1038	-15.9544	86.4896	-76.6671	-0.321699
0.7480	-6.87007	-90.9352	-31.431	36.4996	-0.545455	-34.5829	-18.0914	-27.9637	-30.581	0
0.7487	-0.77113	-96.1054	-33.8865	48.4055	8.31101	-4.062	-19.3074	-117.391	3.88822	0.321699
0.7493	9.32367	-135.156	-40.2709	48.4055	7.99522	31.937	-18.3862	-40.166	23.1146	0.321699
0.7500	9.91954	-127.553	-46.9828	39.2471	2.8134	68.2714	-18.3862	121.289	-34.2545	0.321699
0.7507	-2.90926	-64.3541	-24.1189	33.149	-3.60287	65.8119	-22.9674	254.611	-123.66	0.321699
0.7513	-14.5113	-27.4326	27.7749	45.658	-8.48326	46.6198	-26.9345	289.41	-122.443	0.321699
0.7520	-16.6494	-67.4562	56.4775	56.6481	-11.5263	36.2226	-25.7186	227.777	-76.9772	0.643398
0.7527	-15.703	-72.3223	46.3825	57.8543	-13.9809	27.6887	-25.7186	129.198	-55.3177	0.643398
0.7533	-14.1958	30.5347	20.7357	62.4335	-14.2823	20.6454	-26.3327	42.8211	-11.9748	0.321699
0.7540	-4.41647	116.3	6.43898	58.4798	-10.622	9.35378	-19.6144	21.4671	27.0983	0.321699
0.7547	9.00821	116.908	6.11158	41.9946	-8.48326	-4.65826	-12.5891	31.2402	-1.90833	0.321699
0.7553	17.8412	86.9815	-0.600244	21.8461	-10.0048	-11.7015	-10.7591	24.5176	-42.1979	0.321699
0.7560	19.3834	52.7971	-16.152	-1.96571	-9.40192	-20.2355	-8.32722	41.2958	-41.8878	0.321699
0.7567	14.7917	21.35	-15.5518	-22.7173	-7.86603	-33.3531	-6.19014	81.2924	-29.9846	0.321699
0.7573	7.78141	9.18476	2.12814	-39.4928	-8.18182	-42.8187	-9.54314	104.793	-17.7713	0
0.7580	2.90926	-6.38675	13.7511	-52.0019	-6.64594	-46.4708	-12.2943	113.323	-1.90833	0.321699
0.7587	2.5938	-89.1104	14.9515	-61.1603	-3.28708	-30.2973	-8.92904	126.147	9.39852	0.643398
0.7593	2.90926	-213.926	11.8958	-60.8475	-2.98565	0.521725	-5.26899	139.875	17.3181	0.321699
0.7600	-3.50514	-216.055	9.44021	-36.7453	-4.82297	5.70171	-5.26899	129.198	20.0613	0
0.7607	-9.60408	-104.074	9.16737	-6.52257	-3.90431	-8.94385	-3.43897	97.7881	35.9482	0
0.7613	-8.09687	-44.5248	9.16737	13.3132	-4.20574	-16.5834	-0.687794	71.8581	88.7373	0.321699
0.7620	-4.73194	25.6687	10.9681	26.4253	-4.82297	-22.9932	-0.0859742	58.074	110.087	0.321699
0.7627	-3.8206	150.484	0.327406	39.5598	-1.76555	-24.5211	-0.687794	55.9838	91.7906	0.321699
0.7633	-3.8206	202.673	-34.4868	53.2751	-1.16268	-14.422	-4.05307	57.7916	113.76	0
0.7640	-4.73194	173.051	-61.6615	59.9987	-3.90431	3.87567	-7.71311	54.1196	142.743	0
0.7647	-6.23915	72.0182	-65.5903	63.0366	-3.28708	19.1548	-10.1572	46.8321	116.504	0.321699
0.7653	-3.8206	-38.4422	-61.0067	64.2652	2.19617	23.7012	-9.54314	41.0134	74.9973	0.321699
0.7660	-0.140206	-5.17023	-42.3991	54.5037	5.85646	21.8752	-8.62198	33.6694	69.821	0
0.7667	1.05154	99.5117	-0.600244	28.5698	3.73206	21.2789	-8.92904	20.2807	9.39852	0
0.7673	3.50514	107.115	37.5426	-2.56882	-0.244019	19.1548	-7.40606	6.83556	-67.8173	0.321699
0.7680	3.50514	45.8021	29.3028	-30.9375	-4.20574	11.2171	-8.02017	-6.27064	-21.4449	0.321699
0.7687	3.18968	41.5443	-28.0478	-52.605	-7.26316	5.99983	-12.8961	-18.8119	-7.70488	-0.321699
0.7693	6.87007	106.203	-95.2206	-53.8335	-7.5646	7.52774	-13.8173	-10.8465	-113.593	0
0.7700	8.37728	130.046	-108.044	-39.8056	-8.48326	7.22961	-9.54314	16.2698	-181.339	0.321699
0.7707	7.46594	3.9537	-79.9416	-43.1562	-7.86603	2.04963	-11.6802	28.8111	-165.166	0.321699
0.7713	10.5154	-240.142	-78.7411	-79.4771	-2.38278	-0.409927	-12.8961	29.7149	-137.09	0.321699
0.7720	15.4226	-329.86	-68.0459	-99.916	3.41627	1.45338	-5.26899	19.3204	-109.634	0.321699
0.7727	15.703	-142.516	4.91109	-72.4408	4.03349	1.45338	0.221077	-39.2621	-80.0306	0.321699
0.7733	7.46594	74.7554	91.5645	-52.0019	2.19617	1.11798	-0.687794	-97.5621	-58.6573	0.321699
0.7740	-0.77113	138.258	129.707	-52.3146	1.89474	6.63336	0.528127	-86.5461	-35.161	0.321699
0.7747	-7.78141	102.553	110.5	-38.2643	1.5933	10.8817	2.6652	-62.4239	-17.4612	0.321699
0.7753	-11.7422	58.2715	74.4849	-19.3443	-0.244019	9.68917	-0.380743	-49.0353	11.5215	0.321699
0.7760	-5.0474	-22.2624	77.8135	-9.58282	-1.16268	9.68917	-3.74602	1.35581	44.1778	0
0.7767	4.13606	-216.055	101.932	-1.65298	-0.244019	11.5152	-4.36012	62.085	15.1951	0.321699
0.7773	6.23915	-412.28	98.6038	-3.48466	-0.244019	9.05565	-4.96194	83.4391	-47.3743	0
0.7780	5.32781	-366.174	79.3414	-26.0679	-1.76555	5.10545	-6.19014	47.736	-81.2471	-0.321699
0.7787	1.99793	-45.7413	62.5891	-47.4227	-2.06699	7.22961	-2.22305	1.35581	-85.2069	0
0.7793	-4.13606	259.424	46.3825	-51.6891	-1.76555	10.2854	2.0511	23.8962	-69.9641	0.321699
0.7800	-6.87007	313.742	33.5591	-52.3146	-0.84689	10.5836	1.44928	82.1962	-44.6311	0
0.7807	-4.41647	142.516	28.7026	-53.2304	-0.244019	10.8817	0.528127	103.55	-21.4449	0
0.7813	-3.8206	-50.3641	30.8307	-45.591	0.0574163	9.05565	0.835178	99.5958	-12.595	0.321699
0.7820	-5.32781	-30.2306	31.431	-35.5167	-0.244019	7.52774	0.835178	81.0099	-16.2447	0.321699
0.7827	-2.90926	104.682	6.71182	-31.8534	-2.06699	10.5836	1.44928	39.4881	-9.8279	0.321699
0.7833	-3.50514	111.373	-61.3341	-27.8996	-2.98565	13.0431	3.2793	13.2192	2.07531	0.321699
0.7840	-10.235	49.7558	-136.419	-29.1059	-3.28708	13.6394	4.49522	20.2807	24.0449	0.321699
0.7847	-10.8309	25.9728	-166.923	-41.3245	-4.82297	16.9933	6.32525	24.2352	65.241	0.321699
0.7853	-7.18553	26.581	-158.355	-51.3988	-5.72728	17.6268	7.2464	8.36085	77.4305	0.321699
0.7860	-6.23915	69.5852	-129.38	-59.3286	-4.82297	11.2171	6.01819	0.734399	58.204	0.321699
0.7867	-3.8206	96.1662	-89.109	-70.006	-3.90431	2.34776	4.18817	20.2807	31.0581	0
0.7873	1.68247	23.5397	-40.8712	-64.5109	-3.28708	-3.13035	2.6652	65.1356	-14.718	0
0.7880	3.18968	-53.1013	49.4383	-39.4928	-2.06699	-4.36013	2.6652	117.278	-62.0207	0
0.7887	1.367	-1.52065	153.226	-12.0176	-2.98565	-6.18616	1.14223	135.016	-70.8706	0.321699
0.7893	-0.140206	99.2075	187.713	10.2529	-4.50718	-8.31033	-0.0859742	103.268	-47.6844	0.321699
0.7900	-6.87007	99.5117	160.811	20.3272	-5.72728	-11.3661	-0.994844	50.7865	-47.9945	0
0.7907	-13.2845	82.1154	113.555	16.9766	-6.04307	-8.0122	-1.60895	12.9367	-60.1839	0.321699
0.7913	-10.5154	185.277	66.8454	9.33711	-6.04307	2.34776	-1.60895	-17.2866	-38.5244	0.321699
0.7920	-6.87007	248.414	37.2151	2.01038	-5.72728	6.63336	-0.994844	-56.9442	10.6151	0.321699
0.7927	-6.87007	83.9401	22.2636	-6.52257	-5.42584	-0.409927	-0.687794	-87.789	48.1376	0.321699
0.7933	0.77113	-173.659	14.0239	-11.4145	-5.42584	-9.83824	-1.60895	-53.6111	52.7176	0
0.7940	16.0185	-299.387	11.8958	-10.4987	-3.90431	-13.5276	-1.916	44.064	31.9645	0
0.7947	26.3937	-208.755	12.496	-11.7272	0.0574163	-11.068	-1.60895	114.227	6.94155	0
0.7953	29.7586	-58.5756	13.4236	-12.9335	2.51196	-7.71407	-1.60895	145.072	13.6684	0.321699
0.7960	33.7194	-63.4417	14.3513	-5.91946	3.11483	-4.36013	0.221077	151.795	18.2484	0.321699
0.7967	38.3112	-157.175	6.43898	2.32311	3.41627	-1.30431	2.0511	124.904	-22.6614	0
0.7973	37.9957	-192.272	-1.52789	2.32311	2.8134	-2.23596	0.835178	92.8733	-39.1446	0.321699
0.7980	38.3112	-170.253	6.43898	-5.00362	1.29187	-2.53409	0.528127	52.3118	-31.5113	0.321699
0.7987	43.7792	-199.267	7.96688	-9.89555	0.976077	-1.30431	2.0511	12.0329	-44.3209	0
0.7993	38.907	-301.515	-36.0147	-1.65298	0.373206	-2.23596	1.14223	-22.4839	-32.7278	0
0.8000	21.837	-300.603	-90.3095	9.33711	-1.16268	-4.36013	0.221077	-90.8395	-11.0683	0
0.8007	10.8309	-114.718	-105.916	9.94022	-1.46412	-3.13035	3.2793	-155.806	-14.1216	0.321699
0.8013	5.95873	79.6823	-125.124	6.27686	-2.06699	-2.23596	5.41638	-164.054	-18.3915	0.321699
0.8020	0.77113	97.3827	-168.778	8.73399	-2.98565	-4.36013	4.18817	-140.892	-16.2447	0.321699
0.8027	1.99793	83.636	-201.737	16.0607	-3.28708	-4.36013	4.49522	-79.2586	-11.9748	0.321699
0.8033	5.0474	185.277	-209.322	19.4114	-3.28708	-3.76387	3.88112	12.3153	-8.92144	0
0.8040	-1.05154	149.572	-179.146	21.5334	-4.50718	-4.36013	1.14223	63.2713	-10.4481	0
0.8047	-12.6535	-54.6219	-105.261	23.0747	-6.64594	-4.95639	0.221077	71.8581	2.67166	0.321699
0.8053	-24.2556	-154.742	-27.1747	19.0986	-7.26316	-3.76387	1.44928	28.4721	37.1647	0.321699
0.8060	-32.8081	-106.203	34.8142	13.6036	-6.64594	-3.76387	0.835178	-76.1516	47.2311	0.321699
0.8067	-28.8473	6.75171	109.845	13.0005	-6.3445	-4.36013	-0.687794	-148.801	19.7751	0
0.8073	-13.5649	43.3691	169.378	16.0607	-5.1244	-2.53409	-0.0859742	-146.993	12.428	-0.321699
0.8080	-0.77113	11.0095	179.146	16.0607	-3.60287	-1.60244	0.528127	-121.628	28.3148	-0.321699
0.8087	-0.77113	90.631	165.395	15.4353	-2.68421	-2.23596	1.14223	-85.3598	21.2779	0.321699
0.8093	-5.32781	182.783	122.395	13.9163	-1.16268	-1.93783	2.97225	-59.9948	2.67166	0
0.8100	-0.455668	160.216	62.5891	9.02438	-0.84689	-1.93783	2.35815	-73.4399	-4.96166	-0.321699
0.8107	4.73194	109.852	43.927	8.42126	-2.38278	-3.13035	-0.687794	-75.5866	0.238541	0
0.8113	2.5938	73.2347	66.2451	13.0005	-2.68421	-2.83222	-1.3019	-69.4855	27.3845	0.321699
0.8120	-1.05154	71.7141	88.8362	16.9766	-1.76555	-2.23596	-0.687794	-106.092	70.4174	0
0.8127	-0.455668	162.345	82.9974	23.0747	-0.84689	-3.42848	-2.51782	-37.1154	97.8973	0
0.8133	6.87007	240.811	57.0778	28.257	0.0574163	-4.36013	-3.13192	248.509	86.9005	0.321699
0.8140	14.1958	161.129	31.1581	27.9443	0.976077	-2.53409	-1.3019	470.411	81.7242	0.321699
0.8147	17.2453	25.6687	-6.71182	23.0747	-0.545455	-2.53409	-0.687794	478.602	100.02	0.321699
0.8153	18.1566	-10.3405	-47.583	20.3272	-1.46412	-2.23596	0.221077	458.491	91.7906	0.321699
0.8160	13.8803	10.7054	-53.0943	26.1126	-1.16268	0.521725	2.0511	464.31	45.0843	0
0.8167	6.23915	-11.557	-32.0312	30.0887	-0.244019	0.223596	2.35815	417.308	-19.298	0
0.8173	4.41647	-61.6169	-15.5518	23.9906	0.373206	-0.708055	2.6652	306.809	-55.6039	0
0.8180	5.0474	-99.1467	-3.65603	13.3132	0.674641	0.521725	4.49522	182.301	-44.0108	0.321699
0.8187	-3.18968	-152.552	11.2955	4.15479	0.976077	-0.0745321	4.80227	69.9939	-23.5679	0.321699
0.8193	-16.3339	-256.322	3.3832	-0.73714	0.0574163	-3.13035	1.74405	-32.822	-14.4079	0.321699
0.8200	-23.0288	-295.372	-26.5199	2.92622	-1.76555	-5.29178	-0.380743	-132.926	-6.17822	0.321699
0.8207	-30.9854	-96.7136	-7.91231	9.02438	-2.68421	-4.95639	0.221077	-257.153	4.19832	0.321699
0.8213	-45.3214	147.078	56.4775	11.1688	-3.60287	-4.95639	-0.0859742	-395.389	12.428	0
0.8220	-48.3709	270.677	77.2132	13.6036	-3.60287	-5.88804	-1.60895	-405.445	8.77831	0.321699
0.8227	-32.4926	361.977	47.9104	12.0846	-1.46412	-5.29178	-0.380743	-262.011	-6.48832	0.643398
0.8233	-9.60408	290.263	0.600244	4.7579	0.674641	-4.36013	-0.687794	-111.29	-19.9182	0.321699
0.8240	7.78141	132.175	-75.0851	9.02438	1.5933	-4.062	-1.916	8.0219	-29.0543	0
0.8247	12.3731	110.764	-133.636	20.6176	1.89474	-2.23596	0.835178	85.2468	-27.5276	0.321699
0.8253	9.32367	124.815	-127.852	21.243	2.19617	-2.23596	3.2793	118.803	-13.5014	0.321699
0.8260	14.5113	50.3641	-107.116	13.9163	1.5933	-4.062	2.35815	195.407	2.98176	0.321699
0.8267	30.67	-123.295	-97.6761	14.8321	2.51196	-3.13035	3.58635	278.111	21.8981	0.321699
0.8273	42.272	-227.064	-77.4861	20.0145	2.8134	-1.30431	7.2464	266.813	31.9645	0.321699
0.8280	33.1236	-112.589	-66.8454	22.1589	1.5933	-3.13035	6.32525	206.423	13.6684	0.321699
0.8287	8.09687	34.1843	-61.0067	25.5095	0.674641	-4.65826	3.58635	157.274	-16.2447	0.321699
0.8293	-7.46594	69.5852	-34.4868	24.9064	0.674641	-3.42848	3.2793	145.072	-29.3644	0
0.8300	-3.18968	49.7558	14.0239	21.243	-0.244019	-4.062	1.14223	174.053	-32.1076	0.321699
0.8307	4.41647	-0.912393	73.2298	19.7017	-1.46412	-5.58991	-1.3019	163.715	-38.5244	0.321699
0.8313	1.367	-75.6678	81.7969	17.8924	-1.46412	-4.062	-0.994844	88.0149	-48.2807	0.321699
0.8320	-8.69274	-115.631	50.9662	18.8082	0.0574163	-2.23596	0.221077	43.7815	-40.9575	0.321699
0.8327	-15.703	-111.373	47.6376	13.0005	2.19617	-2.53409	0.528127	62.6499	-18.0814	0.321699
0.8333	-16.0185	-175.484	28.7026	-15.9937	4.33493	-2.23596	1.74405	92.5908	-18.9879	0.321699
0.8340	-14.5113	-318.608	-40.2709	-48.0258	3.73206	-2.53409	1.44928	136.542	-33.6343	0.321699
0.8347	-13.5649	-274.326	-98.5492	-58.4128	1.89474	-3.42848	0.835178	170.72	-9.54165	0.321699
0.8353	-13.8803	4.56196	-111.7	-57.4969	0.976077	-2.83222	2.35815	143.829	39.2877	0
0.8360	-13.5649	195.009	-76.2856	-56.8938	-0.545455	-0.409927	5.71114	94.7375	55.1746	0.321699
0.8367	-12.6535	246.894	11.2955	-54.1463	-2.68421	0.819853	6.01819	63.6103	39.2877	0.321699
0.8373	-12.3731	188.622	97.6761	-43.1562	-2.06699	0.521725	4.49522	30.3363	30.4379	-0.321699
0.8380	-11.1463	-33.5761	160.811	-21.8015	0.373206	-0.0745321	4.18817	-16.9477	21.8981	-0.321699
0.8387	-8.69274	-286.856	206.593	4.15479	2.19617	-1.60244	4.18817	-47.51	1.4551	0
0.8393	-2.90926	-454.676	196.225	33.7521	3.41627	-3.13035	3.58635	-57.2831	4.19832	0
0.8400	9.91954	-397.621	97.0759	61.2273	3.73206	-2.23596	6.01819	-77.7333	26.7882	0
0.8407	19.6989	-189.169	-83.9251	58.167	3.73206	-0.0745321	7.84822	-102.703	31.6544	0.321699
0.8413	16.6144	-32.6637	-230.385	25.1968	4.03349	0.819853	6.6323	-118.012	23.7348	0.643398
0.8420	12.0577	136.737	-246.591	8.73399	4.63637	0.521725	4.49522	-101.517	16.7217	0.643398
0.8427	12.6535	245.373	-186.458	16.9766	4.03349	-0.708055	2.6652	-42.5952	10.305	0.321699
0.8433	10.8309	78.4658	-104.061	17.2669	1.89474	-2.53409	-0.0859742	7.11802	2.98176	0
0.8440	9.32367	-155.35	-4.25628	7.81815	0.674641	-2.83222	-1.60895	48.0184	0.238541	0.321699
0.8447	13.2845	-79.9256	95.548	0.178701	1.89474	-1.30431	0.528127	99.3134	5.72499	0.321699
0.8453	12.0577	167.88	155.027	-3.48466	2.19617	-0.409927	2.0511	118.238	11.2114	0.321699
0.8460	2.90926	254.862	163.266	-7.75114	1.29187	-2.53409	1.74405	105.415	7.56175	0.321699
0.8467	-1.367	251.76	142.531	-18.1381	1.29187	-6.18616	0.528127	77.9593	-0.381666	0.321699
0.8473	5.64327	245.069	95.548	-36.1422	1.5933	-7.11782	0.528127	43.7815	-5.27176	0.643398
0.8480	11.1463	137.65	37.2151	-61.473	2.19617	-5.29178	1.44928	43.4425	-17.7713	0.321699
0.8487	6.87007	64.4149	-2.45555	-87.7197	3.11483	-2.53409	3.58635	74.5698	-30.581	0.321699
0.8493	2.5938	187.71	-13.4236	-99.3129	4.63637	-0.0745321	6.6323	93.4947	-25.4046	0.321699
0.8500	0.140206	349.142	14.0239	-88.01	4.03349	0.223596	6.6323	98.692	-24.1881	0.643398
0.8507	-0.77113	351.575	50.0386	-68.7774	2.51196	-0.0745321	5.41638	96.8277	-44.9412	0.643398
0.8513	-2.27834	273.475	30.2305	-52.3146	2.51196	0.223596	5.10932	76.9989	-61.1142	0
0.8520	-9.32367	220.373	-19.5352	-36.7453	0.674641	-1.30431	3.88112	45.3068	-46.7541	0.321699
0.8527	-18.7525	100.12	-89.4364	-22.7173	-2.06699	-3.76387	2.6652	21.4671	-18.3915	0.321699
0.8533	-23.0288	-137.954	-205.393	-11.1018	-2.68421	-3.76387	3.58635	16.6087	-7.70488	0.321699
0.8540	-22.1174	-344.52	-283.206	-9.89555	-1.76555	-2.83222	3.2793	22.0885	-11.9748	0.321699
0.8547	-17.5607	-373.23	-285.662	-19.0539	-0.545455	-2.23596	0.835178	20.5632	-17.4612	0
0.8553	-10.8309	-321.041	-228.584	-24.2363	1.5933	-0.708055	0.221077	8.36085	-14.4079	0.321699
0.8560	-2.90926	-302.428	-114.156	-20.2602	1.5933	0.521725	0.528127	-16.0438	-6.48832	0.321699
0.8567	5.64327	-228.281	19.8626	-8.9797	0.674641	0.223596	-0.994844	-57.2831	-3.43499	0.321699
0.8573	15.1071	-161.129	165.122	20.0145	1.89474	1.11798	-1.916	-109.143	6.03509	0.321699
0.8580	22.7483	-245.677	290.518	70.3634	3.41627	3.27941	-1.60895	-149.704	22.5183	0.321699
0.8587	26.3937	-382.353	323.805	117.362	3.41627	3.87567	-1.60895	-138.463	34.1114	0.321699
0.8593	24.571	-383.874	273.766	134.159	2.19617	2.64589	-0.994844	-74.0613	51.1909	0.321699
0.8600	20.8906	-212.101	189.241	128.352	-0.84689	0.521725	-0.687794	17.2301	76.8341	0
0.8607	26.0782	-105.29	100.077	117.674	-4.50718	-2.83222	-1.3019	98.0706	92.1007	0.321699
0.8613	38.3112	-166.299	33.5591	103.334	-6.3445	-4.062	0.835178	131.062	75.3074	0.321699
0.8620	42.272	-110.46	-5.18393	93.2594	-5.1244	-2.83222	3.58635	138.971	35.9482	0.321699
0.8627	39.8184	166.36	-20.1355	88.6802	-3.60287	-1.60244	4.18817	152.077	10.305	0.643398
0.8633	39.2225	417.511	-10.6953	80.1472	-3.60287	-0.409927	3.2793	167.669	11.2114	0.321699
0.8640	39.5029	456.561	9.16737	73.1109	-2.38278	-0.708055	1.44928	174.392	30.1516	0
0.8647	40.1338	390.93	26.247	53.2751	-0.244019	-0.0745321	-0.380743	159.139	50.2845	0
0.8653	34.0349	383.327	41.7988	4.7579	1.29187	1.45338	-0.687794	134.113	54.8645	0
0.8660	18.4721	386.672	56.4775	-38.2643	1.29187	2.64589	1.74405	113.662	38.3813	0
0.8667	6.55461	340.262	64.117	-59.9317	1.5933	4.1738	3.88112	104.172	4.50843	0
0.8673	4.73194	268.548	51.5664	-86.4911	2.51196	3.87567	1.74405	111.177	-32.7278	-0.321699
0.8680	7.78141	215.142	18.6076	-113.028	3.11483	3.27941	-0.687794	98.692	-55.914	-0.321699
0.8687	15.1071	132.479	-24.992	-108.762	2.51196	2.98128	-0.687794	51.9729	-63.8575	0
0.8693	22.1174	-76.276	-85.1256	-88.3228	1.5933	2.98128	0.221077	27.2858	-82.7738	0.321699
0.8700	24.8865	-268.852	-147.715	-83.7436	2.19617	3.87567	1.44928	27.5682	-94.0568	0.321699
0.8707	28.8473	-254.497	-209.049	-91.3607	2.8134	4.1738	2.35815	-2.31618	-86.4473	0.643398
0.8713	26.7092	-115.631	-270.71	-99.0001	2.19617	2.64589	1.44928	-66.9998	-83.9903	0.321699
0.8720	10.235	-14.0509	-260.615	-89.8417	1.29187	1.11798	-0.380743	-113.436	-70.5605	0.321699
0.8727	-1.367	-4.8661	-168.45	-66.6553	1.89474	0.521725	-1.60895	-120.724	-58.6573	0.321699
0.8733	1.367	-28.9533	-100.677	-53.5208	2.51196	-0.409927	-2.82487	-120.724	-52.5745	0.321699
0.8740	5.32781	-26.2161	-66.1906	-43.1562	2.19617	-0.409927	-3.74602	-106.714	-19.6081	0.643398
0.8747	1.05154	3.9537	19.5352	-19.0539	1.29187	1.11798	-4.36012	-67.3388	-1.28812	0.321699
0.8753	-12.3731	47.931	150.77	2.01038	0.976077	0.223596	-5.88309	-14.5185	-15.9345	0.321699
0.8760	-25.4824	63.1984	240.152	-1.34025	0.0574163	-1.93783	-7.71311	52.5943	-20.5145	0.643398
0.8767	-27.6205	-25.3037	245.664	-12.9335	-0.84689	-1.30431	-8.02017	98.0706	-9.54165	0.321699
0.8773	-23.9401	-294.155	199.609	2.92622	0.373206	2.04963	-4.96194	125.243	0.238541	0
0.8780	-29.4432	-513.008	125.451	30.4014	0.976077	3.27941	-2.51782	163.376	5.10478	0
0.8787	-43.4988	-358.57	5.51133	37.7282	0.373206	2.64589	-0.380743	139.592	7.56175	0.321699
0.8793	-47.775	-103.161	-146.187	43.8263	0.0574163	2.98128	4.49522	34.2908	8.46821	0.321699
0.8800	-35.8576	9.18476	-270.983	52.672	-0.545455	2.64589	6.6323	-26.1559	6.34519	0.321699
0.8807	-14.7917	181.87	-339.356	44.7422	-0.244019	2.04963	5.41638	13.8406	7.25165	0
0.8813	0.77113	344.276	-357.637	30.0887	0.976077	4.80732	7.55345	49.8827	12.428	0
0.8820	-2.27834	282.598	-339.957	20.9303	1.29187	5.99983	9.07642	22.0885	11.8316	0.321699
0.8827	-14.1958	97.6869	-255.431	14.229	0.373206	4.80732	5.71114	3.44603	9.08842	0
0.8833	-15.4226	38.138	-103.46	8.10854	-0.244019	4.1738	3.2793	24.8566	13.3583	0
0.8840	-6.55461	162.345	72.6296	-2.56882	0.0574163	3.27941	2.0511	32.483	22.2082	0.321699
0.8847	1.68247	255.774	251.175	-19.6571	0.373206	1.7515	-0.687794	-0.50843	26.168	0.321699
0.8853	5.64327	197.442	318.893	-32.7692	0.373206	2.04963	-0.380743	-49.6567	23.4247	0
0.8860	2.5938	185.277	231.64	-39.4928	0.0574163	2.04963	1.44928	-80.1625	9.99487	0
0.8867	-7.78141	308.875	128.78	-40.7214	-0.545455	0.223596	-1.3019	-87.789	-16.8649	0
0.8873	-18.1566	270.068	90.9643	-30.6472	-0.84689	0.521725	-2.82487	-76.773	-33.3481	0
0.8880	-26.7092	-171.165	71.1017	-13.8493	-0.244019	2.98128	0.528127	-54.7975	-30.8911	0
0.8887	-36.7689	-684.477	36.6149	-1.96571	-0.244019	2.04963	0.221077	-55.4189	-22.0412	0.321699
0.8893	-55.1008	-672.008	45.182	5.07063	-0.84689	0.521725	-1.60895	-93.2687	-14.1216	0.321699
0.8900	-76.1316	-196.834	116.557	10.8561	-1.16268	1.11798	0.221077	-116.148	-9.8279	0.321699
0.8907	-76.4471	96.1662	154.754	10.2529	-2.38278	-0.409927	0.528127	-101.178	-7.08467	0.321699
0.8913	-59.9729	-17.0922	58.6057	6.27686	-1.16268	-0.0745321	-0.687794	-84.3994	-4.96166	0.321699
