MR32 ASCII
Name	USMC15_fast
Frequency	1500
Date	10-09-2015 10:51:00
"Time,s"	"RT TIB.ANT.,uV"	"RT MED. GASTRO,uV"	"RT LAT. GASTRO,uV"	"RT BICEPS FEM.,uV"	"RT VMO,uV"	"RT VLO,uV"	"RT RECTUS FEM.,uV"	"RT SOLEUS,uV"	"RT SEMITEND.,uV"	"Channel 12,uV"
0.0000	22.4531	-7.05553	-6.53839	5.07518	-3.12714	-1.27687	-5.97696	-6.03616	-0.0560336	-7438.67
0.0007	34.0418	-3.35651	-2.21945	5.37489	-2.5223	-0.696477	-4.75401	-7.86857	-0.0560336	-10555.7
0.0013	23.9821	0.616503	1.73957	5.07518	-2.21345	-0.0580398	-3.8411	-12.1442	0.252151	-9646.98
0.0020	27.0403	2.39751	2.33942	5.37489	-3.43599	-0.0580398	-3.53106	-16.7072	0.868521	-9736.53
0.0027	67.319	0	-0.419896	5.67461	-4.95452	-1.91531	-4.75401	-20.3721	0.560336	-9896.32
0.0033	131.379	-2.12351	-2.8193	6.29402	-5.57223	-3.13415	-5.06405	-20.9829	0.560336	-9786.46
0.0040	169.525	-3.35651	-4.07899	7.51286	-5.57223	-2.49571	-4.13392	-19.1504	1.76506	-9812.56
0.0047	146.669	-4.31552	-4.37892	8.7317	-4.95452	-1.91531	-3.53106	-16.4198	3.92235	-9816.42
0.0053	85.6275	-4.31552	-4.37892	9.35111	-5.26338	-1.56707	-2.30811	-12.1442	6.05163	-9817.07
0.0060	66.9971	-3.97302	-3.77907	9.03142	-5.57223	-1.91531	-1.3952	-7.86857	6.05163	-9788.08
0.0067	109.408	-3.35651	-3.17922	8.43199	-5.26338	-1.27687	-1.99806	-6.35953	1.45687	-9860.56
0.0073	144.215	-2.74001	-3.17922	7.51286	-5.57223	-1.27687	-1.99806	-8.47937	-6.1637	-9840.26
0.0080	153.993	-0.342502	-1.31967	6.89345	-5.57223	-0.696477	-0.482291	-12.1442	-9.8339	-9538.09
0.0087	170.45	1.23301	2.0395	7.21315	-4.95452	0.522358	0.430617	-13.0424	-9.52572	-10438.5
0.0093	213.183	0.274001	3.53913	7.51286	-4.95452	-1.27687	-1.70524	-14.5874	-7.98479	-8878.66
0.0100	218.978	1.78101	4.79882	7.21315	-4.95452	-1.91531	-3.22101	-19.1504	-5.85551	-2369.38
0.0107	53.2757	5.48002	6.8983	7.51286	-4.65854	-0.986676	-2.61815	-18.5396	-4.62277	108.563
0.0113	-195.438	7.60353	8.75784	11.7888	-3.74485	-0.696477	-3.53106	-11.21	-3.72624	-169.449
0.0120	-318.729	8.83654	11.5172	14.2265	-1.9046	1.1608	-2.30811	-3.91632	-1.87713	-78.6036
0.0127	-360.255	7.60353	11.8171	8.13227	-2.21345	1.45099	0.137797	-3.59295	-2.18531	81.1807
0.0133	-387.094	1.78101	8.15799	3.53664	-2.5223	0.232159	-0.172247	-3.59295	-4.34261	-28.9931
0.0140	-261.349	-4.31552	2.93928	3.85634	-1.9046	1.74119	0.430617	4.95828	-4.62277	-2.57717
0.0147	-21.4873	-9.45304	-1.31967	3.85634	-2.21345	2.08943	1.34352	11.6771	-4.93096	0.644291
0.0153	86.8346	-12.8096	-4.97877	3.53664	-2.81829	1.1608	1.05071	11.9645	-5.54733	-0.644291
0.0160	64.2609	-13.7686	-7.73809	3.85634	-2.21345	2.08943	1.65357	13.1861	-5.23914	-0.644291
0.0167	63.3354	-16.5086	-11.3972	3.85634	-2.21345	1.1608	0.137797	15.306	-5.23914	-0.322146
0.0173	89.5709	-18.6321	-13.5567	4.15605	-2.5223	-0.348239	-0.482291	15.0185	-4.93096	-0.322146
0.0180	104.218	-16.7826	-11.6971	4.77546	-2.21345	0.870597	1.34352	13.1861	-4.34261	0
0.0187	88.6856	-13.1521	-8.63787	4.15605	-2.5223	1.74119	1.96361	11.3537	-4.62277	0
0.0193	3.21908	-9.17904	-6.17848	1.71837	-2.21345	2.37963	1.34352	6.17988	-7.08825	-0.322146
0.0200	-158.54	-4.58952	-3.77907	0.499525	-1.29976	3.30827	1.96361	-0.538943	-8.60116	-0.322146
0.0207	-293.097	-0.616503	-2.51938	0.499525	-0.990905	3.59847	1.65357	-4.81456	-8.60116	-0.322146
0.0213	-286.699	1.50701	-1.01975	0.179829	-0.990905	3.59847	2.56648	-5.74873	-8.29298	0
0.0220	-215.598	0.274001	-1.6196	-1.63844	-1.9046	2.96003	2.56648	-6.03616	-8.90935	0
0.0227	-175.319	-2.12351	-2.51938	-2.55757	-2.5223	2.37963	1.34352	-6.03616	-10.1421	-0.322146
0.0233	-170.732	-2.46601	-0.719822	-1.33873	-1.60861	3.88866	2.27366	-2.08391	-9.21753	-0.322146
0.0240	-207.671	-3.97302	-0.11997	0.179829	-1.60861	3.30827	2.56648	3.73667	-7.36842	0
0.0247	-221.07	-4.58952	0.839793	0.499525	-3.12714	2.08943	1.34352	7.07812	-6.1637	0
0.0253	-162.483	-1.84951	5.09874	1.71837	-4.34969	0.870597	0.137797	4.95828	-4.62277	-0.322146
0.0260	-85.5872	0.890504	8.75784	2.63749	-4.65854	-1.56707	-1.3952	1.90427	-3.72624	0
0.0267	-15.4113	3.63052	12.7169	2.93721	-3.12714	-1.27687	-0.792335	2.1917	-3.72624	0
0.0273	50.5395	7.32953	16.076	4.15605	-1.60861	0.522358	1.65357	3.73667	-3.72624	0
0.0280	82.8913	6.37053	16.076	4.77546	-1.9046	0.522358	1.96361	4.95828	-2.80168	0
0.0287	75.246	1.50701	10.5574	3.85634	-2.21345	0.232159	1.05071	7.68892	-3.72624	0
0.0293	66.0716	-3.97302	2.0395	1.71837	-1.9046	0.232159	0.740661	9.23389	-6.1637	0
0.0300	74.0388	-8.56254	-4.67885	0.499525	-1.60861	0.870597	0.430617	8.62309	-7.67661	0
0.0307	93.2326	-11.6451	-8.33794	0.179829	-0.682051	2.37963	1.34352	12.8987	-7.67661	0
0.0313	120.715	-14.0426	-9.53765	-0.419601	0.23164	3.88866	3.18656	22.0248	-8.60116	0
0.0320	126.832	-14.6591	-9.23772	-2.55757	1.45418	4.8173	3.18656	25.0788	-11.655	0
0.0327	99.9524	-13.1521	-7.73809	-4.07613	1.75017	4.5271	2.87652	23.2464	-13.7843	0
0.0333	81.9658	-8.83654	-5.57862	-4.69554	1.45418	3.59847	2.56648	20.5158	-13.4761	0
0.0340	83.7765	-4.58952	-4.97877	-4.99525	1.14533	3.88866	2.87652	14.1203	-12.5795	0.322146
0.0347	88.0418	-3.69902	-5.87855	-4.07613	0.836478	4.8173	3.47938	8.62309	-11.0386	0
0.0353	84.0984	-6.43903	-8.63787	-2.85728	-0.0772134	3.88866	3.47938	6.79068	-10.4223	0
0.0360	67.9226	-9.79554	-10.7973	-2.85728	-0.682051	2.37963	1.96361	7.68892	-11.0386	-0.322146
0.0367	59.392	-11.6451	-11.3972	-2.85728	-1.60861	1.74119	1.34352	12.2879	-10.4223	-0.322146
0.0373	52.0686	-11.6451	-9.83757	-2.25785	-2.21345	1.45099	3.47938	15.6294	-9.21753	0
0.0380	41.0835	-9.17904	-6.53839	-1.63844	-2.81829	1.74119	4.40952	16.2402	-7.36842	0.322146
0.0387	43.8197	-5.48002	-4.07899	-1.03901	-3.12714	1.74119	5.01238	15.9168	-5.23914	0.322146
0.0393	37.7035	-3.69902	-4.37892	-0.719316	-4.04083	0.870597	5.32242	13.1861	-4.93096	0
0.0400	28.5693	-3.97302	-4.97877	-0.719316	-4.65854	-0.986676	3.47938	10.7429	-4.34261	0
0.0407	41.9687	-4.58952	-5.87855	-1.03901	-5.26338	-1.91531	1.65357	11.3537	-3.72624	0
0.0413	66.9971	-5.20602	-7.13824	2.3178	-6.48592	-2.49571	-1.08515	12.2879	-3.10987	-0.966437
0.0420	91.4218	-5.48002	-6.83831	8.7317	-6.79478	-2.78591	-4.13392	15.306	-1.28877	-0.644291
0.0427	104.218	-5.48002	-5.87855	7.21315	-7.39961	-3.71455	-3.8411	17.7492	0.868521	0.322146
0.0433	84.702	-4.58952	-4.97877	2.63749	-8.3133	-5.57182	-3.22101	15.0185	0.868521	0
0.0440	36.1744	-1.57551	-2.21945	3.23692	-8.62216	-5.86202	-2.92819	10.7429	1.45687	0
0.0447	-12.3532	1.23301	-0.11997	3.85634	-8.3133	-4.64318	-1.08515	8.01229	2.68961	0
0.0453	-37.6632	2.39751	1.13972	3.53664	-8.01732	-4.00474	-0.482291	7.07812	2.68961	0
0.0460	-37.9851	2.12351	1.43964	3.53664	-7.09076	-3.71455	-1.70524	8.62309	1.76506	0
0.0467	-41.0433	0	0.479882	2.93721	-5.88108	-4.35298	-2.61815	12.2879	0.252151	0
0.0473	-43.4576	-1.84951	-0.719822	2.01808	-4.04083	-3.71455	-1.70524	18.6834	-0.672404	0
0.0480	-2.89717	-4.58952	-3.47914	0.499525	-1.9046	-2.20551	1.05071	26.9112	-2.80168	-0.322146
0.0487	62.1282	-10.412	-8.33794	-1.33873	-1.29976	-0.348239	3.18656	37.0074	-4.93096	-0.322146
0.0493	96.8943	-15.0016	-11.997	-1.93816	-0.990905	1.45099	5.01238	49.1875	-5.23914	0.322146
0.0500	99.3488	-17.3991	-14.7564	-3.17698	-1.60861	0.870597	3.47938	56.5172	-5.85551	0.322146
0.0507	81.3622	-16.7826	-16.5559	-4.99525	-2.21345	-0.696477	1.05071	54.074	-6.78007	0
0.0513	55.0865	-11.6451	-15.6561	-4.69554	-2.21345	-0.0580398	1.05071	45.5227	-4.93096	0
0.0520	45.0269	-4.31552	-11.6971	-2.85728	-2.5223	-0.0580398	0.740661	32.121	-2.18531	0
0.0527	34.6453	6.09653	-4.37892	-1.33873	-2.5223	-0.696477	-0.172247	8.91053	-1.28877	0
0.0533	-0.120715	18.5636	3.53913	0.79924	-1.9046	-0.696477	0.430617	-17.9288	-0.672404	-0.322146
0.0540	-56.2936	28.7016	10.2575	4.45577	-1.29976	-0.696477	0.430617	-37.4745	0.868521	0
0.0547	-114.559	37.1957	17.5757	9.03142	-1.29976	-0.0580398	0.430617	-52.1338	2.68961	0
0.0553	-150.572	42.1277	20.9348	12.7079	-1.9046	-0.986676	0.740661	-60.9724	5.12708	0
0.0560	-184.453	40.8947	20.335	17.2836	-3.12714	-3.42435	-1.3952	-62.194	7.25635	0
0.0567	-221.07	40.2782	20.9348	22.7784	-4.04083	-4.00474	-2.30811	-60.3616	9.10546	0
0.0573	-215.276	38.4287	19.4352	27.0543	-4.65854	-3.71455	-1.3952	-57.631	9.69382	0
0.0580	-173.186	32.6061	14.5764	29.492	-4.34969	-3.71455	-0.482291	-47.5348	9.69382	0
0.0587	-117.014	26.2356	10.2575	26.1352	-3.74485	-3.42435	0.137797	-33.8097	9.10546	0
0.0593	-66.3533	21.3721	5.69859	13.3074	-2.5223	-3.42435	-0.172247	-28.9233	5.74345	0
0.0600	-47.1193	18.9061	2.63935	-9.27119	-0.682051	-2.20551	-0.172247	-30.7557	2.38143	-0.322146
0.0607	-37.0596	18.0156	1.73957	-21.7793	0.23164	0.232159	1.34352	-28.3125	2.9978	0
0.0613	-23.3383	17.0566	1.13972	-15.6851	0.23164	0.870597	2.27366	-24.0369	4.81889	0
0.0620	-20.8838	17.6731	1.13972	-26.355	-0.0772134	0.522358	2.27366	-28.3125	2.38143	-0.322146
0.0627	-22.0909	20.7556	2.33942	-36.4254	0.527625	0.232159	1.96361	-40.816	-0.672404	0
0.0633	-26.6781	25.0026	4.49889	-18.1228	1.45418	-0.696477	1.65357	-51.8104	2.38143	0
0.0640	-48.9702	28.7016	6.29845	0.79924	2.05902	-0.986676	1.65357	-54.2536	9.69382	0
0.0647	-71.8659	28.0851	6.59837	8.43199	2.36788	-0.0580398	1.65357	-48.469	15.4933	-0.322146
0.0653	-67.5604	25.0026	5.09874	10.57	2.36788	1.45099	2.56648	-40.2052	12.4675	-0.322146
0.0660	-51.3845	22.5366	3.2392	9.35111	2.05902	1.45099	2.56648	-34.4205	8.79728	0
0.0667	-36.7377	21.6461	2.33942	8.13227	1.75017	-0.986676	-0.482291	-31.9773	19.4717	0
0.0673	-0.442623	22.5366	3.53913	7.21315	1.14533	-1.56707	-2.30811	-29.2467	23.4501	0
0.0680	35.5708	23.1531	5.39867	5.37489	1.45418	-0.0580398	-1.99806	-25.5818	1.45687	0.322146
0.0687	48.085	22.5366	5.39867	-7.75263	2.05902	-0.348239	-2.92819	-24.0369	-18.6872	0
0.0693	47.7631	21.0296	3.83905	-28.4929	2.05902	-1.56707	-4.44397	-20.9829	-14.0925	-0.644291
0.0700	34.6453	19.5226	2.33942	-38.5634	2.36788	-2.20551	-4.44397	-14.8748	3.30598	0
0.0707	25.7929	18.0156	0.839793	-30.0315	2.66386	-2.49571	-1.99806	-9.70098	21.601	0.322146
0.0713	23.6602	15.5496	-0.419896	-6.21409	2.97271	-1.56707	-0.792335	-4.52712	56.706	0
0.0720	-0.764531	14.9331	-0.11997	12.0885	4.19526	1.45099	1.34352	0.970098	88.4491	0
0.0727	-41.9285	14.9331	-0.419896	17.5833	3.88641	2.37963	1.65357	0.970098	68.9214	0
0.0733	-66.6752	12.8096	-3.17922	32.2294	1.14533	0.870597	-2.30811	-2.98215	18.2389	-0.966437
0.0740	-63.2951	12.4671	-3.47914	55.4273	-0.386067	1.45099	-2.92819	-2.69472	-18.9674	-0.322146
0.0747	-48.6483	13.7001	-2.51938	65.4978	0.836478	3.30827	0.430617	-1.14975	-46.4519	0.322146
0.0753	-30.6617	13.4261	-2.51938	57.2656	2.36788	3.30827	1.34352	-0.862309	-71.1627	0
0.0760	-1.97169	12.1931	-3.17922	44.1381	2.97271	3.59847	1.34352	0.359295	-73.9084	0
0.0767	20.924	10.96	-5.2787	34.3673	3.59042	3.59847	-0.172247	-0.251507	-67.4925	0
0.0773	28.5693	9.72704	-6.53839	22.1589	5.72666	3.30827	-1.08515	-0.538943	-65.6714	0
0.0780	30.0581	10.0695	-5.2787	24.9163	7.86289	3.59847	2.27366	1.5809	-13.7843	0
0.0787	31.3055	10.0695	-5.2787	44.1381	7.24519	2.08943	4.40952	1.90427	90.5784	0.322146
0.0793	33.4382	9.11054	-6.17848	38.943	5.4178	1.45099	4.40952	1.90427	152.832	0
0.0800	31.5872	9.72704	-4.67885	6.89345	5.4178	2.66983	5.01238	4.34748	140.028	0
0.0807	14.8078	10.0695	-4.37892	-21.7793	7.24519	2.08943	3.78943	5.24571	102.486	0
0.0813	-23.62	10.686	-4.67885	-33.688	11.5177	2.37963	1.96361	4.63491	98.1989	0
0.0820	-59.0299	11.5766	-3.47914	-35.2065	16.099	2.96003	0.137797	4.34748	137.282	0
0.0827	-59.9553	11.3026	-2.51938	-67.5558	18.5441	0.522358	-2.61815	2.51507	170.538	0
0.0833	-43.4576	10.686	-3.47914	-133.473	17.6175	-2.78591	-4.44397	1.29346	164.739	0
0.0840	-32.4725	10.0695	-4.07899	-171.937	15.7901	-2.49571	-3.22101	1.90427	136.974	0.322146
0.0847	-24.2638	10.3435	-3.47914	-170.398	12.1354	3.59847	1.34352	4.63491	156.502	0
0.0853	-18.1476	9.11054	-4.37892	-178.331	2.36788	10.6213	5.92529	6.79068	120.192	0
0.0860	-1.36811	7.60353	-4.97877	-188.401	-10.1536	12.7687	7.14824	7.07812	-87.9448	0
0.0867	18.4695	8.22004	-4.37892	-142.624	-18.6985	8.18361	4.70234	4.95828	-293.336	0
0.0873	7.80627	9.11054	-3.77907	-58.4045	-21.7484	2.37963	1.34352	3.41331	-354.665	0
0.0880	-1.64978	10.0695	-3.77907	4.45577	-16.8582	1.45099	0.430617	4.02411	-301.881	0
0.0887	20.3204	10.0695	-4.97877	38.3436	-7.70847	1.74119	-0.482291	4.63491	-199.34	0
0.0893	32.8346	7.94603	-6.83831	56.0268	1.14533	1.74119	-1.08515	6.17988	-105.035	0.322146
0.0900	27.0403	6.71303	-7.43817	50.2323	7.24519	4.5271	-0.482291	9.23389	-64.1585	0
0.0907	20.924	7.32953	-7.13824	23.9972	9.07257	6.03614	-0.172247	11.0663	-62.9258	0
0.0913	9.33533	7.32953	-6.17848	-7.75263	10.2951	5.45574	-0.172247	11.6771	-29.0534	0
0.0920	-1.97169	6.98703	-5.57862	-45.277	9.99913	4.5271	0.137797	11.6771	29.8379	0
0.0927	-4.7079	5.13752	-6.17848	-73.67	6.93633	2.37963	-0.172247	10.1321	26.7841	0
0.0933	-3.17884	5.13752	-6.83831	-65.7375	3.28157	1.74119	0.430617	8.29973	-6.1637	0.322146
0.0940	-1.64978	6.09653	-6.17848	-25.4358	1.45418	2.37963	1.34352	8.91053	40.8485	0.322146
0.0947	-1.97169	6.09653	-5.87855	12.0885	2.66386	1.45099	-0.482291	9.23389	106.156	-0.322146
0.0953	-3.17884	6.09653	-5.57862	38.943	2.66386	2.08943	-0.482291	9.8447	82.0332	-0.322146
0.0960	-5.63339	5.75403	-5.57862	69.7737	1.75017	2.37963	0.740661	11.9645	30.1461	0
0.0967	-10.8242	3.97302	-6.53839	87.7766	2.66386	-0.0580398	-0.482291	12.8987	1.45687	0.322146
0.0973	-17.8256	3.35651	-6.83831	88.6957	4.8001	0.232159	-0.482291	11.9645	-3.10987	0
0.0980	-28.8108	4.58952	-5.87855	88.6957	5.72666	2.66983	0.740661	10.4555	75.9256	0
0.0987	-39.7959	5.13752	-5.2787	73.1305	4.50411	3.59847	-0.172247	9.52133	137.563	0
0.0993	-39.1923	6.09653	-4.07899	43.8383	1.14533	4.17886	-0.172247	9.23389	13.0558	0
0.1000	-26.3964	6.37053	-3.77907	35.5862	-1.9046	2.66983	-0.482291	7.40149	-194.773	0
0.1007	-11.1058	5.75403	-4.67885	55.1276	-3.43599	0.232159	-2.30811	4.02411	-292.411	-0.322146
0.1013	-8.08793	6.09653	-4.37892	70.6928	-1.60861	0.232159	-2.61815	2.8025	-238.087	-0.644291
0.1020	-9.89867	6.71303	-3.47914	74.3493	4.50411	1.1608	-2.61815	2.8025	-117.867	0
0.1027	6.88078	6.71303	-2.51938	80.1438	11.2088	3.59847	-1.08515	5.56908	-36.9822	0.644291
0.1033	44.1014	6.09653	-2.51938	58.1647	12.7402	5.45574	-0.792335	9.23389	-6.1637	0
0.1040	77.9822	5.75403	-3.47914	-24.5367	9.99913	5.45574	-1.99806	8.91053	21.601	0
0.1047	96.009	5.48002	-3.77907	-98.6862	8.77658	5.74594	-0.792335	5.56908	84.4707	0
0.1053	90.8183	3.97302	-5.57862	-87.0972	9.38142	3.88866	0.740661	3.12587	178.775	0
0.1060	56.012	2.12351	-7.13824	-41.6204	9.38142	0.522358	0.137797	1.90427	210.518	-0.322146
0.1067	27.0403	1.78101	-6.53839	-23.9173	6.93633	-0.696477	-0.172247	1.90427	148.881	-0.322146
0.1073	20.6021	2.39751	-5.2787	-27.2741	1.14533	-0.348239	0.137797	3.41331	63.4301	0
0.1080	-13.8823	3.35651	-4.07899	-50.7718	-7.09076	0.522358	0.740661	4.34748	-36.0576	0.322146
0.1087	-80.0746	3.63052	-3.77907	-65.7375	-12.8946	0.232159	-1.08515	2.51507	-123.358	0.322146
0.1093	-104.499	3.63052	-3.77907	-44.3578	-11.0672	-0.986676	-3.53106	0.0718591	-162.722	0
0.1100	-85.9092	4.24702	-3.47914	-16.6042	-4.95452	-1.27687	-5.06405	-2.08391	-147.144	0
0.1107	-64.2206	4.58952	-4.07899	2.3178	3.28157	-0.696477	-3.8411	-3.91632	-51.3268	0
0.1113	-46.234	3.97302	-5.57862	4.45577	9.07257	-1.27687	-1.99806	-4.20376	30.7625	-0.322146
0.1120	-50.1774	1.23301	-8.03802	-12.3283	9.07257	-3.42435	-1.08515	-3.91632	19.1635	0
0.1127	-71.2221	-0.616503	-8.9378	-21.7793	6.93633	-4.93338	-1.70524	-3.91632	-2.80168	0
0.1133	-84.0582	-0.342502	-7.13824	-24.217	6.02264	-5.86202	-2.92819	-3.30552	31.9952	0
0.1140	-77.0567	0.616503	-5.2787	-46.4958	5.72666	-5.28162	-3.8411	-1.76055	61.581	0
0.1147	-42.854	2.12351	-4.37892	-68.4749	3.88641	-3.42435	-1.99806	-1.76055	52.7276	0
0.1153	2.29359	4.24702	-1.91953	-57.1857	-0.990905	-2.49571	-0.172247	-1.14975	44.4907	0
0.1160	22.4531	3.63052	-0.11997	-35.5063	-8.3133	-2.49571	-1.3952	0.359295	-40.3442	0
0.1167	27.3219	2.12351	-0.719822	-11.4092	-12.8946	-0.696477	-2.61815	0.682661	-120.612	0.322146
0.1173	44.1014	2.39751	-0.419896	26.1352	-11.6721	2.08943	-1.08515	0.970098	-34.2365	0
0.1180	40.158	3.01401	1.73957	48.0943	-7.09076	1.1608	-1.08515	1.5809	70.4343	0
0.1187	-4.10433	3.35651	3.53913	42.9192	-3.12714	-0.986676	-1.3952	4.63491	82.0332	0.322146
0.1193	-54.161	3.97302	3.2392	26.1352	-2.21345	-0.986676	-0.482291	7.40149	44.1825	0
0.1200	-83.4546	2.12351	0.179956	14.2265	-3.12714	-1.56707	-0.792335	7.07812	12.1593	0
0.1207	-70.6185	-0.616503	-3.17922	16.3644	-2.5223	-1.27687	-1.3952	6.17988	-17.1463	0.322146
0.1213	-8.97318	-2.74001	-5.57862	19.7213	-4.04083	-0.348239	0.740661	6.17988	-154.177	0
0.1220	49.2921	-5.82253	-9.23772	23.0781	-8.01732	-0.696477	1.34352	8.29973	-268.009	0
0.1227	50.2176	-9.17904	-12.8968	32.5291	-8.93101	-1.91531	0.137797	11.3537	-179.196	0.322146
0.1233	65.7899	-11.3026	-16.256	41.081	-7.09076	-3.71455	-0.792335	10.4555	-2.4935	0.322146
0.1240	137.495	-11.9191	-17.2158	48.7137	-4.34969	-2.20551	-0.482291	7.68892	129.942	0
0.1247	183.568	-8.56254	-13.5567	46.276	-1.29976	1.45099	1.05071	5.56908	113.468	0
0.1253	176.245	-2.46601	-7.73809	27.9534	1.45418	2.08943	0.430617	-2.69472	-46.1437	0.322146
0.1260	97.5381	4.86352	-1.91953	18.5024	5.10895	18.2245	0.430617	-16.7072	-154.485	0.322146
0.1267	21.8495	11.5766	4.49889	28.8726	7.86289	50.2624	3.47938	-27.0909	-107.164	0
0.1273	98.1417	16.1661	10.2575	32.5291	8.77658	62.5088	4.09947	-31.3665	29.5577	0
0.1280	189.684	18.5636	13.9166	6.29402	10.2951	54.5574	2.87652	-33.8097	140.616	0
0.1287	115.203	19.5226	16.376	-24.217	11.2088	42.369	1.65357	-36.8637	180.288	0.322146
0.1293	-19.6766	16.7826	16.6759	-27.8935	7.86289	29.8324	-0.172247	-29.8575	181.829	0.322146
0.1300	-90.1744	10.3435	15.1763	-32.4691	4.19526	21.881	-0.792335	-6.97033	171.743	0.322146
0.1307	-144.778	5.13752	13.6166	-42.8393	-0.0772134	13.9876	1.65357	14.6952	100.636	0
0.1313	-186.586	3.63052	9.65762	-46.1961	-7.09076	1.74119	1.34352	16.5276	-10.7304	-0.644291
0.1320	-119.75	0	0.839793	-44.6775	-12.8946	-9.51852	-1.99806	10.4555	1.76506	-0.322146
0.1327	-16.2966	-10.686	-10.1975	-29.7118	-13.8083	-21.1265	-5.06405	19.2942	47.2363	0.644291
0.1333	9.617	-21.3721	-17.8156	-12.628	-13.2035	-31.8058	-7.49273	36.6841	-27.5125	0.322146
0.1340	-14.7675	-24.4546	-19.6152	-5.91438	-10.1536	-38.5384	-8.40564	45.2353	-49.1975	0
0.1347	-36.7377	-22.6051	-17.5157	-7.75263	-5.88108	-41.5565	-8.40564	45.5227	63.4301	0
0.1353	-48.3667	-19.2486	-14.4564	-5.61466	-0.990905	-40.9761	-7.80278	41.2471	171.155	0
0.1360	-84.9837	-15.2756	-10.4974	9.03142	7.55404	-36.6811	-7.19991	34.8517	225.479	0.322146
0.1367	-157.292	-12.5356	-7.13824	25.8155	15.7901	-29.3681	-6.57982	31.7976	245.315	0.322146
0.1373	-198.175	-9.79554	-3.17922	45.0572	17.9264	-22.0551	-5.35687	32.7318	213.264	0
0.1380	-138.058	-6.09653	1.43964	66.7166	15.4813	-15.6127	-3.22101	29.9652	140.028	0
0.1387	-25.149	-5.48002	1.73957	78.925	10.2951	-8.58989	-1.70524	24.1806	28.9414	0
0.1393	25.1893	-9.45304	-2.21945	98.4464	2.05902	-2.78591	-1.70524	22.3482	-40.3442	0
0.1400	12.0715	-12.5356	-5.2787	127.439	-7.09076	-1.91531	-1.70524	21.7374	45.4153	0
0.1407	5.67363	-13.4261	-7.13824	141.486	-15.0309	-1.27687	-0.172247	18.9708	187.32	0
0.1413	15.4113	-14.6591	-9.83757	144.842	-22.6621	0.232159	1.96361	20.5158	284.062	0
0.1420	26.3964	-15.2756	-11.0973	153.394	-29.3797	-5.28162	1.96361	27.2346	282.83	0.322146
0.1427	30.702	-14.3851	-8.63787	176.572	-32.7256	-18.0504	-2.61815	29.3544	141.233	0
0.1433	33.7198	-13.1521	-6.17848	202.528	-29.6757	-26.0018	-7.49273	25.6896	-32.7236	0
0.1440	38.9106	-10.0695	-4.07899	209.241	-18.9945	-19.9076	-5.97696	22.6356	-54.6888	0
0.1447	38.6289	-4.31552	-2.21945	192.137	-4.95452	-11.0276	-1.08515	13.5095	28.0168	0
0.1453	26.3964	-1.57551	-3.17922	152.175	4.50411	-9.80872	0.430617	0.682661	13.9804	0.322146
0.1460	-9.57676	-3.97302	-5.57862	104.561	9.38142	-10.157	1.05071	0.359295	-41.8571	0.322146
0.1467	-50.781	-6.09653	-7.43817	63.0601	11.5177	-9.51852	0.740661	4.95828	-4.03442	0
0.1473	-47.7228	-5.48002	-7.13824	28.2731	12.7402	-9.22832	-0.172247	3.12587	130.867	0
0.1480	7.20269	-5.20602	-6.17848	6.89345	9.99913	-10.157	1.34352	3.12587	303.898	0.322146
0.1487	34.9672	-6.43903	-6.83831	-9.8906	-3.12714	-12.5946	3.47938	1.90427	345.699	0
0.1493	-26.0745	-6.43903	-6.83831	-24.217	-19.3033	-12.5946	4.70234	-2.98215	224.863	0
0.1500	-79.471	-4.93202	-5.87855	-19.3416	-26.0209	-10.4472	6.54538	-4.20376	136.05	0
0.1507	-44.383	-4.93202	-7.43817	8.13227	-28.1571	-11.0276	6.23533	-4.20376	-5.54733	0
0.1513	-0.442623	-7.32953	-8.63787	54.5082	-31.5159	-16.2511	3.78943	-2.98215	-194.157	0.322146
0.1520	-12.3532	-10.412	-9.53765	103.642	-33.3433	-25.7116	0.430617	3.41331	-184.995	0
0.1527	-52.0284	-13.7686	-11.997	131.715	-27.2434	-30.587	-1.3952	11.0663	-112.964	0.322146
0.1533	-60.8808	-13.7686	-11.3972	138.748	-10.7584	-23.5641	-0.172247	13.7969	-144.707	0.322146
0.1540	-35.5306	-8.83654	-6.17848	147.899	2.97271	-14.7421	2.27366	11.0663	-173.396	0
0.1547	18.4695	-2.74001	-1.01975	149.418	9.38142	-12.5946	1.34352	4.34748	-152.944	0
0.1553	115.847	1.23301	3.53913	120.126	9.69028	-6.50045	-1.70524	-2.37135	-105.651	0.322146
0.1560	181.435	1.50701	5.39867	90.2143	3.59042	8.47381	-1.99806	-3.30552	-14.4006	0.322146
0.1567	159.787	-0.959004	2.93928	92.3522	-3.12714	25.8857	-0.482291	-3.59295	43.8743	0
0.1573	122.245	-3.69902	0.179956	107.298	-5.26338	51.4813	1.65357	-6.64697	36.8701	0.322146
0.1580	123.774	-4.58952	-0.719822	137.21	-3.12714	76.8447	3.47938	-7.25777	27.4004	0
0.1587	141.76	-5.20602	-0.719822	177.491	1.75017	78.0635	1.96361	-3.30552	-5.85551	0
0.1593	148.48	-5.20602	1.73957	171.097	6.64035	62.1606	-1.08515	-1.76055	6.94817	0
0.1600	106.391	-3.35651	5.99852	124.082	8.15888	49.0436	-4.13392	-6.97033	98.1989	0
0.1607	5.07005	-0.959004	9.65762	75.8679	7.24519	44.5165	-8.11282	-11.5334	62.1973	-0.322146
0.1613	-80.7184	0.616503	9.65762	27.0543	5.10895	46.0255	-12.6946	-8.80274	-91.3068	-1.28858
0.1620	-67.5604	-0.342502	6.8983	-22.079	0.836478	45.3871	-16.6563	-2.98215	-100.776	-0.966437
0.1627	44.7452	-3.97302	1.73957	-88.9155	-5.88108	30.1226	-18.172	6.17988	21.9091	0.322146
0.1633	160.391	-8.56254	-5.57862	-183.226	-9.53585	5.74594	-17.2591	12.8987	43.286	0.322146
0.1640	183.568	-10.0695	-10.1975	-247.305	-5.26338	-14.7421	-16.3462	8.91053	-58.6392	0
0.1647	112.185	-10.686	-11.997	-250.962	2.97271	-20.8363	-12.9874	1.5809	-160.873	0
0.1653	46.5559	-11.9191	-11.6971	-226.245	7.55404	-11.666	-4.75401	-2.69472	-220.408	0
0.1660	40.158	-12.5356	-11.6971	-192.377	5.10895	-6.79065	1.05071	-3.91632	-227.412	0
0.1667	18.4695	-12.1931	-11.0973	-149.338	2.66386	-13.8135	1.96361	0.970098	-221.921	0
0.1673	-59.6334	-10.686	-8.33794	-99.9051	3.28157	-23.5641	0.740661	7.68892	-166.084	0.322146
0.1680	-135.322	-9.45304	-6.17848	-72.7509	-1.9046	-35.1721	-2.92819	7.40149	22.2173	0
0.1687	-156.085	-8.28854	-4.97877	-90.7538	-10.4495	-40.0474	-4.44397	5.56908	207.156	0
0.1693	-131.057	-6.43903	-2.8193	-138.368	-13.4995	-38.5384	-3.53106	5.56908	252.011	-0.644291
0.1700	-95.6469	-6.09653	-1.31967	-174.374	-15.3397	-40.6278	-6.26978	3.73667	247.136	-0.644291
0.1707	-59.0299	-5.20602	1.13972	-182.606	-18.6985	-40.6278	-4.13392	2.51507	187.937	0.322146
0.1713	-19.073	-3.69902	1.73957	-162.765	-21.1307	-34.8819	2.27366	4.02411	-17.7627	0
0.1720	4.74814	-4.93202	-1.31967	-119.127	-22.0444	-29.0779	4.09947	6.46732	-237.779	0
0.1727	-2.89717	-5.82253	-2.21945	-77.0268	-22.3533	-25.4214	1.96361	8.91053	-347.352	0
0.1733	-19.9583	-4.31552	0.179956	-46.4958	-18.9945	-27.8591	-2.92819	8.62309	-387.949	0
0.1740	-21.8093	-3.35651	0.479882	-24.217	-10.7584	3.88866	-10.2487	4.02411	-414.789	-0.322146
0.1747	-8.08793	-3.69902	-1.01975	-12.3283	-2.5223	88.1044	-15.1233	-1.14975	-376.042	0
0.1753	25.5112	-3.97302	-1.6196	-16.6042	-2.5223	149.452	-16.9663	-5.74873	-264.955	0.322146
0.1760	57.8629	-3.69902	-0.719822	-45.277	-2.81829	165.936	-17.8792	-10.9226	-183.762	0.322146
0.1767	72.5097	-1.84951	1.13972	-78.5454	9.69028	168.373	-17.5692	-12.755	-151.431	0.322146
0.1773	86.2311	-1.57551	-0.11997	-102.662	19.4578	146.725	-17.8792	-10.3118	-155.689	0
0.1780	78.3041	-3.08251	-2.21945	-136.53	21.594	115.905	-17.2591	-6.64697	-148.993	0
0.1787	48.085	-4.58952	-2.8193	-179.549	26.7802	97.5648	-12.6946	-3.30552	-76.3458	0.322146
0.1793	33.4382	-6.71303	-4.97877	-209.781	31.9663	77.1349	-8.71568	-1.47311	4.20252	0.322146
0.1800	21.8495	-8.28854	-6.53839	-213.437	30.4349	47.2444	-7.80278	-1.76055	65.2512	0
0.1807	5.35172	-6.43903	-5.57862	-191.758	22.1988	21.0104	-7.49273	-2.37135	143.67	0
0.1813	5.9553	-4.58952	-6.17848	-171.017	8.77658	1.1608	-8.11282	-4.52712	226.992	0.322146
0.1820	19.3949	-4.58952	-8.03802	-159.409	-5.57223	-12.8848	-8.40564	-7.25777	242.57	0.322146
0.1827	14.5261	-3.97302	-7.13824	-119.127	-13.2035	-17.1798	-10.8515	-8.19194	140.336	0
0.1833	-10.5022	-2.46601	-2.51938	-38.5634	-13.2035	-17.7602	-14.8304	-7.86857	32.3034	0.322146
0.1840	-35.2489	0.274001	3.2392	48.414	-6.48592	-30.2968	-13.9003	-7.25777	8.18091	0
0.1847	-77.3384	4.24702	9.35769	99.0659	4.50411	-71.505	-10.8515	-6.64697	-17.4545	0
0.1853	-115.806	6.98703	13.9166	123.782	8.15888	-79.6886	-7.49273	-7.58113	-53.1479	0.322146
0.1860	-94.1178	5.75403	13.3167	170.178	-0.682051	17.0057	-3.53106	-6.97033	-38.8033	0.322146
0.1867	-43.4576	2.12351	8.15799	228.763	-4.65854	114.396	-1.08515	-1.47311	16.1097	0
0.1873	-36.7377	-2.74001	1.13972	266.906	-10.7584	120.2	2.87652	0.970098	74.4127	0
0.1880	-58.1044	-5.20602	-3.47914	287.667	-30.2934	95.4754	9.90419	-3.30552	63.1219	0.322146
0.1887	-23.9419	-4.58952	-4.67885	317.878	-32.7256	89.9616	17.8275	-6.64697	-2.4935	0.322146
0.1893	70.9807	-3.69902	-4.37892	353.284	-22.6621	85.0863	19.0505	-9.41354	19.4717	0
0.1900	152.142	-2.12351	-2.21945	370.068	-21.1307	63.7277	17.2247	-14.5874	155.269	0.322146
0.1907	176.848	-0.959004	1.13972	364.873	-21.4396	34.1274	19.6706	-17.9288	286.5	0.322146
0.1913	124.377	-0.959004	2.63935	337.1	-18.9945	1.1608	19.3605	-16.7072	313.06	-0.322146
0.1920	31.3055	0.890504	4.79882	305.969	-12.5858	-27.8591	12.6429	-10.9226	289.862	-0.966437
0.1927	-6.55887	2.74001	5.69859	278.196	-2.81829	-56.8209	8.97405	-5.42536	332.279	0
0.1933	12.6751	-0.959004	2.0395	227.843	0.23164	-86.4212	8.97405	-2.37135	364.331	0.644291
0.1940	28.5693	-4.93202	-0.419896	136.61	-5.88108	-102.614	7.76833	-1.14975	310.314	0
0.1947	-0.120715	-3.97302	-0.419896	-5.91438	-11.3632	-112.075	8.97405	-2.37135	227.917	0
0.1953	-49.8957	1.50701	0.179956	-129.517	-14.426	-127.339	14.7788	-1.14975	168.409	0.322146
0.1960	-61.1625	4.86352	0.839793	-151.796	-15.3397	-138.309	16.6046	1.90427	116.83	0
0.1967	-49.5738	0.274001	-1.6196	-121.884	-15.0309	-130.706	13.8659	0.0718591	25.8875	-0.322146
0.1973	-20.2802	-2.74001	-5.87855	-106.319	-17.1671	-121.825	8.68124	-2.69472	-71.1627	0
0.1980	51.4248	-8.56254	-9.83757	-115.77	-21.1307	-127.339	-0.172247	-4.81456	-138.599	0.322146
0.1987	121.923	-33.9076	-10.4974	-156.371	-20.8347	-136.161	-5.97696	-8.47937	-132.8	0.322146
0.1993	171.979	-51.5807	-6.17848	-208.542	-12.5858	-142.894	-3.22101	-13.0424	-45.5273	0.322146
0.2000	231.814	-32.4006	-1.01975	-249.743	-5.88108	-144.403	1.34352	-20.0846	-20.2001	0.322146
0.2007	226.623	4.58952	3.53913	-267.146	-2.81829	-137.09	4.40952	-25.2585	-95.5653	0
0.2013	61.8063	28.7016	7.85806	-217.094	8.77658	-116.95	5.32242	-28.025	-142.578	0
0.2020	-89.2489	29.8661	11.8171	-131.335	22.8165	-92.5154	3.18656	-33.1989	-114.505	0.322146
0.2027	-40.7213	25.6191	15.4762	-86.4778	26.1625	-64.7724	-1.70524	-36.5403	-5.85551	0.322146
0.2033	-20.5619	24.1121	14.8763	-70.9126	23.4214	-30.8772	-12.0745	-34.4205	172.359	0
0.2040	-246.42	19.5226	5.69859	-61.1419	10.604	-14.1037	-24.2868	-33.1989	285.884	0
0.2047	-501.251	12.4671	-6.53839	-84.9593	-6.17707	-12.2464	-26.7327	-30.7557	287.424	0
0.2053	-521.088	4.58952	-16.9158	-144.463	-6.17707	-5.86202	-20.928	-20.3721	312.752	0.322146
0.2060	-352.932	-0.616503	-19.6152	-201.528	6.93633	2.08943	-14.5204	-5.13793	337.463	0.322146
0.2067	-149.043	-3.08251	-18.1155	-247.605	24.0262	2.96003	-6.26978	9.23389	165.047	0
0.2073	43.4978	-7.94603	-19.9151	-272.341	29.8301	-7.71929	2.56648	13.1861	-181.325	-0.322146
0.2080	147.555	-8.83654	-18.4155	-247.005	18.5441	-20.488	8.97405	4.63491	-466.06	0
0.2087	51.4248	-3.97302	-13.8566	-195.734	4.8001	-18.6888	11.42	-0.538943	-560.981	0.322146
0.2093	-188.115	0.890504	-12.297	-141.106	1.14533	-0.696477	5.63247	4.95828	-507.272	0.322146
0.2100	-295.23	6.37053	-5.87855	-55.9668	2.05902	14.568	1.65357	4.34748	-423.334	0.322146
0.2107	-177.733	14.9331	9.65762	49.6328	2.05902	20.372	7.45828	-11.5334	-366.88	0
0.2113	-41.6468	20.1391	20.9348	125.92	10.604	27.685	13.8659	-30.4683	-271.651	0
0.2120	125.303	19.1801	24.294	155.832	27.089	40.5118	26.681	-39.3069	-139.832	0
0.2127	372.166	18.0156	26.7534	182.067	47.5248	55.7762	51.3984	-44.1933	-18.9674	0
0.2133	476.263	16.7826	27.9531	217.773	62.1825	78.9921	66.9695	-47.8582	77.7747	0.322146
0.2140	398.441	14.0426	25.5537	215.335	45.3886	133.898	64.2136	-46.0257	134.817	0
0.2147	296.477	11.3026	20.6349	185.124	7.24519	183.057	47.1267	-46.6366	158.631	0.322146
0.2153	126.832	11.3026	17.2757	152.175	-17.476	177.834	19.3605	-48.7564	150.394	0.322146
0.2160	-74.2802	9.72704	15.7761	122.564	-31.5159	153.109	-3.8411	-38.3728	117.727	0
0.2167	-102.367	4.58952	11.8171	104.261	-48.9018	137.554	-14.2104	-17.0306	88.4491	0.322146
0.2173	21.8495	-3.08251	5.69859	79.8441	-66.6094	179.053	-15.1233	8.01229	71.0506	0
0.2180	190.006	-10.686	1.43964	53.5891	-81.859	255.085	-9.33577	29.067	59.1435	-0.322146
0.2187	309.917	-17.1251	-2.21945	45.6566	-87.0581	255.955	3.47938	46.1335	76.8501	0
0.2193	334.623	-21.9886	-8.33794	34.0676	-78.2043	224.266	19.3605	63.8468	129.634	0.322146
0.2200	299.857	-21.9886	-11.0973	-20.5605	-61.4232	212.309	25.4581	73.0088	147.032	0
0.2207	211.051	-14.3851	-5.57862	-94.1106	-43.1108	169.012	27.5939	64.745	101.869	0
0.2213	113.392	-3.97302	4.79882	-134.093	-37.9246	86.3051	33.3986	50.7325	-5.85551	0.322146
0.2220	-2.89717	1.78101	12.7169	-115.77	-48.297	-1.91531	30.0398	44.0137	-137.703	0
0.2227	-158.54	3.01401	15.7761	-51.9906	-50.1243	-73.9427	17.2247	36.3966	-151.431	-0.644291
0.2233	-213.747	3.63052	16.6759	-33.0686	-34.8618	-130.067	5.32242	22.3482	-93.1279	0.322146
0.2240	-148.158	0.890504	10.8573	-84.0401	-20.5259	-184.683	-10.2487	9.52133	-154.793	0.644291
0.2247	-102.97	-3.69902	2.63935	-80.0639	-6.48592	-216.43	-19.395	1.29346	-257.615	0
0.2253	-111.823	-5.82253	-2.21945	3.23692	15.7901	-221.944	-12.3845	0.0718591	-235.958	0
0.2260	-134.397	-9.79554	-9.53765	67.0163	26.1625	-218.578	-1.3952	4.63491	-131.287	0.322146
0.2267	-108.161	-15.2756	-17.8156	81.063	29.8301	-183.754	13.2458	6.17988	-45.8355	0.322146
0.2273	-25.149	-19.2486	-24.8339	57.5653	45.6974	-126.12	30.6427	4.95828	-17.4545	0.322146
0.2280	51.4248	-22.6051	-29.3927	26.1352	63.405	-89.1491	34.6216	10.4555	-14.0925	0
0.2287	41.9687	-22.6051	-25.7337	16.6642	67.0598	-83.0549	19.3605	21.414	2.68961	0
0.2293	-26.3964	-16.7826	-17.8156	26.1352	56.9963	-90.426	-7.19991	22.6356	-0.672404	0.644291
0.2300	23.0567	-10.412	-13.5567	56.9459	37.1525	-103.833	-33.1403	14.4077	-33.0038	0.322146
0.2307	150.613	-5.48002	-11.3972	64.2789	15.7901	-112.365	-48.6942	9.8447	-79.0915	0
0.2313	126.51	1.50701	-6.83831	10.8697	19.4578	-101.976	-55.7218	5.24571	-132.492	0
0.2320	-28.5291	10.686	-1.31967	-49.2532	43.2523	-80.9655	-53.8788	-6.97033	-142.578	0
0.2327	-138.702	22.2626	6.8983	-86.7775	56.9963	-58.33	-40.7708	-20.3721	-130.67	0.322146
0.2333	-162.201	32.9486	17.2757	-100.205	53.9335	-41.2663	-25.8026	-28.3125	-133.724	0.322146
0.2340	-138.38	33.8391	20.0351	-88.9155	44.1789	-37.3196	-17.5692	-35.6421	-116.018	0
0.2347	-106.954	22.8791	12.4169	-105.1	39.9064	-38.8286	-11.7645	-43.5825	-98.311	0
0.2353	-136.529	9.45304	6.29845	-167.96	42.9564	-34.2435	-11.1616	-45.7024	-128.541	0
0.2360	-117.014	-0.342502	0.479882	-240.292	51.1925	-26.6403	-18.4821	-38.0853	-162.413	0
0.2367	91.4218	-11.3026	-14.1565	-270.503	58.206	-28.7297	-22.1509	-18.5396	-152.327	0
0.2373	222.64	-21.0981	-23.9341	-228.683	61.2688	-33.6631	-20.6179	7.68892	-127.308	0
0.2380	125.584	-22.2626	-18.4155	-155.752	65.8372	-34.5337	-12.9874	33.3426	-116.326	0
0.2387	101.2	-17.1251	-10.7973	-107.238	64.3187	-17.1798	2.87652	44.9119	-114.197	0
0.2393	222.64	-11.9191	-9.83757	-84.6396	53.0198	30.7611	13.8659	34.2409	-103.83	0
0.2400	195.197	-5.82253	-11.997	-49.2532	40.5113	59.7229	21.1863	10.7429	-77.8867	0.322146
0.2407	31.3055	2.12351	-11.997	-10.7897	25.5576	47.5346	24.8552	-13.6532	-51.0186	0.322146
0.2413	-68.2042	4.24702	-10.4974	-9.27119	7.24519	35.9266	21.4964	-28.025	-27.5125	0
0.2420	-117.939	-1.84951	-14.7564	-25.4358	-18.6985	34.7078	21.4964	-25.2585	-7.08825	0.322146
0.2427	21.2459	-10.686	-25.1338	-23.9173	-30.8982	33.1987	19.3605	-15.1982	-14.0925	0.322146
0.2433	365.164	-18.9061	-33.3518	0.499525	-0.990905	28.0332	11.42	-3.91632	-16.5299	0
0.2440	466.766	-20.1391	-31.2523	40.1618	28.0027	11.8401	8.68124	-5.74873	36.8701	-0.322146
0.2447	253.784	-11.9191	-15.0563	77.4064	37.1525	-5.86202	7.45828	-20.6954	127.196	0
0.2453	54.4829	1.78101	9.35769	91.1334	49.0562	-10.157	13.2458	-21.917	241.029	0.322146
0.2460	-220.467	17.6731	29.8126	71.2923	43.5612	-6.79065	30.0398	-28.3125	400.024	0
0.2467	-668.16	33.5651	42.2896	21.2398	15.1853	5.74594	35.5345	-53.032	514.473	0
0.2473	-866.817	40.2782	42.2896	-49.5529	-10.4495	21.5908	21.1863	-62.4815	483.346	0.322146
0.2480	-616.896	28.9756	23.9941	-114.551	-17.7719	15.7868	1.05071	-54.577	337.771	0.322146
0.2487	-191.495	13.0836	5.69859	-141.725	-14.426	-8.29969	-12.6946	-50.5888	77.1583	0.322146
0.2493	201.876	3.97302	-2.21945	-121.265	-19.3033	-23.8543	-18.172	-48.1456	-183.174	0
0.2500	304.726	-8.83654	-12.297	-43.139	-36.3932	-31.8058	-20.6179	-29.8575	-297.006	0
0.2507	24.5857	-17.7416	-15.9561	52.0705	-43.1108	-46.7801	-13.9003	8.91053	-301.265	0.322146
0.2513	-251.008	-13.1521	-5.57862	116.469	-19.6122	-40.0474	3.78943	47.9659	-191.103	0
0.2520	-189.644	-5.48002	6.59837	172.316	5.4178	-7.37105	16.9146	52.2416	-55.6134	-0.322146
0.2527	-55.0865	4.24702	17.8756	208.322	17.3215	6.67457	22.0993	12.5753	15.4933	-0.966437
0.2533	-173.186	16.7826	28.253	206.184	21.594	7.25497	18.4476	-31.0791	99.7399	-0.322146
0.2540	-205.82	18.0156	27.0533	206.484	8.77658	9.69264	8.68124	-35.9295	183.034	0.322146
0.2547	86.8346	7.32953	14.5764	196.114	-6.48592	3.59847	1.65357	-20.0846	186.396	0
0.2553	357.841	-0.959004	4.49889	141.785	-15.6357	-32.096	-5.06405	-15.4856	111.647	0
0.2560	349.592	-4.58952	2.0395	89.2951	-5.26338	-47.6507	-7.19991	-6.35953	82.0332	-0.966437
0.2567	242.799	-6.71303	3.2392	86.5577	26.1625	53.3385	-4.44397	10.1321	132.071	-0.322146
0.2573	266.58	-7.32953	1.73957	119.826	37.7702	164.427	-6.88987	16.851	154.064	0.644291
0.2580	361.503	-7.67203	-2.21945	142.105	28.9164	171.159	-5.97696	26.3004	91.1947	0
0.2587	359.37	-10.0695	-3.17922	144.842	15.1853	151.6	-1.3952	41.2471	-51.3268	0
0.2593	244.006	-11.0285	-1.6196	162.546	-3.12714	139.702	-1.08515	53.4632	-130.362	0.322146
0.2600	43.2161	-12.1931	-1.6196	178.71	-9.8447	96.9845	-2.61815	62.3378	-25.9996	0.322146
0.2607	-204.613	-12.1931	3.53913	153.394	-5.88108	38.3643	4.70234	62.9486	165.355	0.322146
0.2613	-408.783	-8.83654	13.6166	124.701	-7.39961	7.25497	17.5175	60.7928	289.246	0.322146
0.2620	-482.017	-11.3026	10.5574	111.894	2.97271	0.870597	15.6917	61.4036	284.062	0
0.2627	-273.26	-14.0426	-0.719822	52.3702	24.6439	-9.80872	5.63247	52.5649	173.9	0
0.2633	91.0999	-14.0426	-5.57862	-62.3807	38.0662	-36.9713	-0.792335	44.9119	20.3962	0
0.2640	267.827	-18.3581	-9.53765	-170.718	56.0698	-66.5716	-7.49273	50.1217	-105.651	0
0.2647	199.462	-21.0981	-14.1565	-209.781	56.6875	-106.271	-4.75401	49.1875	-107.781	0
0.2653	20.3204	-17.1251	-15.0563	-202.148	30.7438	-153.573	11.73	31.5102	32.5836	0.322146
0.2660	-56.5753	-9.79554	-11.6971	-225.026	12.4313	-138.947	17.5175	5.56908	158.015	0.322146
0.2667	18.1878	-1.23301	-5.87855	-248.844	-9.227	-102.614	1.34352	-13.9766	155.269	0
0.2673	-20.2802	3.63052	-1.31967	-241.211	-43.7156	-76.0321	-14.5204	-21.5937	24.0384	0
0.2680	-163.69	5.13752	0.479882	-225.945	-63.8554	114.687	-11.7645	-17.6414	-194.773	0
0.2687	-286.096	2.12351	-0.11997	-195.734	-76.068	371.048	-2.61815	-7.86857	-359.26	0
0.2693	-386.813	-3.08251	-1.6196	-145.082	-88.8854	441.857	-0.482291	-2.37135	-348.277	0
0.2700	-264.729	-2.74001	-2.21945	-94.4103	-92.8491	401.519	-0.792335	-2.37135	-273.808	0
0.2707	-49.5738	0	-3.17922	-42.8393	-98.3441	412.198	-7.80278	-16.0964	-280.813	0.322146
0.2713	-38.5887	4.24702	-1.6196	13.9268	-80.0316	560.258	-18.4821	-38.9836	-246.94	0.322146
0.2720	-73.0731	10.96	3.53913	37.1247	-26.0209	715.572	-22.1509	-49.3672	-70.2382	0
0.2727	12.0715	11.3026	6.29845	26.7346	5.72666	686.262	-29.7815	-37.762	81.725	0
0.2733	58.1446	7.94603	9.95754	34.6671	1.45418	545.922	-31.0044	-11.5334	126.888	0
0.2740	-34.927	7.60353	13.3167	44.7375	-13.8083	363.387	-18.172	-0.538943	125.683	0
0.2747	-99.9121	7.94603	11.5172	38.6433	-15.6357	138.483	-3.22101	-12.1442	46.0316	0.322146
0.2753	-142.042	10.3435	8.15799	54.2085	6.3315	-20.1978	19.9634	-24.6477	-89.1775	0.322146
0.2760	-213.143	7.32953	2.33942	92.3522	17.3215	-57.7496	47.4367	-32.5881	-180.708	0
0.2767	-204.894	0.274001	-2.21945	134.153	19.4578	-68.1387	63.3007	-30.1449	-200.264	0.322146
0.2773	-185.701	-0.959004	-1.31967	162.546	43.2523	-145.912	52.3113	-23.4261	-185.303	0.322146
0.2780	-222.599	0.890504	0.479882	164.684	58.8237	-253.344	19.6706	-27.7017	-162.105	0
0.2787	-223.525	1.78101	4.19896	163.145	46.92	-312.892	-1.99806	-28.6358	-110.218	0
0.2793	-150.572	1.23301	8.45791	167.741	42.6475	-365.651	-15.7434	-14.5874	-15.3252	0
0.2800	-64.5425	2.39751	11.2172	157.97	41.7338	-453.871	-30.6944	3.41331	118.651	0.322146
0.2807	23.9821	8.83654	16.076	124.701	8.77658	-501.754	-35.569	16.5276	186.396	0.322146
0.2813	119.79	11.5766	15.4762	98.4464	-29.9845	-488.056	-29.1614	18.9708	140.028	0.322146
0.2820	234.832	9.45304	7.19822	100.285	-36.3932	-480.395	-5.66692	11.6771	129.017	0
0.2827	515.616	4.24702	-3.17922	95.709	-15.6357	-476.158	15.6917	0.970098	143.362	0.322146
0.2833	865.65	-3.35651	-13.1967	74.0496	18.8401	-453.871	15.0888	-7.58113	98.1989	-0.322146
0.2840	944.397	-4.31552	-16.5559	42.2998	29.5212	-414.81	12.953	-13.3658	69.2295	-0.644291
0.2847	719.786	-2.46601	-11.6971	-3.4767	13.345	-343.363	14.4687	-15.1982	23.4501	0.322146
0.2853	418.883	-3.97302	-6.53839	-31.2503	14.5676	-261.005	12.3329	-3.59295	-53.4561	0.644291
0.2860	194.553	-3.97302	-2.8193	-28.7926	5.72666	-201.456	3.18656	11.0663	-34.5447	0
0.2867	-11.1058	-0.616503	1.43964	-21.7793	-29.0708	-168.547	-6.57982	5.85652	28.0168	0
0.2873	-260.745	7.60353	8.15799	-8.65178	-44.0245	-147.479	-9.02573	-5.13793	62.5055	0
0.2880	-482.298	14.9331	12.7169	29.1723	-35.1707	-134.362	-19.395	-5.13793	100.356	0
0.2887	-619.351	15.2071	8.45791	89.2951	-29.3797	-128.268	-30.6944	-7.86857	144.287	0
0.2893	-543.944	10.0695	-3.47914	137.21	-31.8119	-130.067	-31.0044	-21.3062	178.159	0
0.2900	-300.421	3.35651	-14.4564	148.819	-18.3896	-136.8	-27.9384	-24.6477	108.285	0.322146
0.2907	-126.47	-3.08251	-17.8156	128.058	23.1125	-113.294	-12.0745	-3.30552	8.79728	0.322146
0.2913	-18.1476	-10.412	-20.8749	93.5711	44.4749	-66.9199	9.59414	14.1203	10.6184	0
0.2920	14.8078	-13.4261	-23.2743	77.0867	27.6939	-48.2891	23.0122	8.29973	2.07324	0
0.2927	-93.2326	-5.82253	-15.3562	76.1876	24.3351	-69.0093	29.1269	-1.47311	-66.596	0.322146
0.2933	-185.982	3.97302	-0.719822	58.1647	55.1561	-133.724	28.214	-6.35953	-81.8371	0.322146
0.2940	-224.128	13.4261	15.1763	38.3436	90.2495	-208.189	26.0782	-15.1982	-25.3832	0
0.2947	-306.537	28.9756	29.8126	37.1247	90.5584	-226.181	19.3605	-33.5223	-17.4545	0.322146
0.2953	-326.052	37.5382	35.6312	18.5024	54.5512	-193.214	5.92529	-49.0798	-87.3284	0.322146
0.2960	-285.492	33.5651	28.253	-25.1361	14.8764	-143.823	2.27366	-55.1878	-141.345	0
0.2967	-216.201	22.5366	12.7169	-57.7851	-23.8847	-89.4973	19.9634	-46.6366	-149.302	0.322146
0.2973	4.42623	7.32953	-2.51938	-69.0943	-47.3833	-78.1796	45.5937	-15.4856	-130.979	0.322146
0.2980	328.829	-5.20602	-10.4974	-77.9259	-44.9382	-80.9655	65.1265	13.5095	-56.2017	0
0.2987	644.097	-11.0285	-13.1967	-93.8109	-51.6557	112.829	81.0076	20.8032	58.5271	0
0.2993	719.182	-14.0426	-13.1967	-110.275	-57.4467	427.811	99.6103	21.414	105.848	0
0.3000	448.176	-14.3851	-10.1975	-120.965	-48.9018	553.235	100.833	16.851	96.0696	0
0.3007	171.979	-8.56254	-4.97877	-113.632	-37.3069	528.22	66.3494	5.24571	82.3414	0.322146
0.3013	52.6722	-0.616503	1.13972	-87.6967	-15.0309	493.396	20.8763	4.34748	51.5229	0.322146
0.3020	-89.2489	0.274001	5.69859	-86.7775	-12.5858	447.022	-14.5204	14.1203	70.7425	0.322146
0.3027	-214.069	-2.74001	3.53913	-120.046	-46.1607	369.829	-29.7815	13.1861	123.834	0
0.3033	-190.569	-5.20602	-2.51938	-125.541	-63.2506	204.068	-20.6179	0.682661	107.977	0
0.3040	-175.319	-8.83654	-4.07899	-82.2019	-37.3069	156.765	-6.26978	4.02411	38.9994	0.322146
0.3047	-182.642	-12.5356	-3.77907	-34.9068	8.46773	416.784	-0.172247	19.905	13.6722	0
0.3053	-69.7333	-15.0016	-5.87855	-14.766	50.8836	594.443	5.01238	10.7429	34.1245	0
0.3060	2.89717	-18.6321	-10.1975	-7.13322	76.5184	528.51	-2.61815	-10.3118	-16.5299	0
0.3067	7.80627	-19.2486	-13.5567	11.7888	89.027	435.705	-43.5095	6.17988	-64.1585	0.322146
0.3073	61.5246	-14.3851	-13.8566	25.8155	79.5684	329.55	-96.9232	49.1875	-29.6698	0
0.3080	91.4218	-11.3026	-14.1565	22.4587	24.6439	201.63	-125.292	78.5061	-58.0508	0
0.3087	120.715	-8.83654	-12.5969	34.6671	-44.3333	51.4813	-113.39	86.7339	-156.614	0.322146
0.3093	185.419	-2.12351	-5.87855	55.4273	-57.1508	6.32633	-68.537	70.5656	-211.555	0.322146
0.3100	182.683	4.86352	1.13972	55.727	-35.7884	123.857	-16.6563	39.4147	-188.049	0
0.3107	54.2012	8.83654	5.69859	58.1647	-24.1806	147.305	16.9146	21.1266	-129.466	0
0.3113	-113.955	9.45304	6.29845	53.9088	-1.9046	60.6516	25.7681	15.6294	-103.214	-0.644291
0.3120	-234.188	4.86352	-0.419896	12.7079	17.9264	39.9314	10.197	14.1203	-81.8371	-0.644291
0.3127	-209.482	-1.57551	-9.23772	-31.8497	26.7802	-22.0551	-22.1509	11.9645	-37.2904	0.322146
0.3133	-8.97318	-7.94603	-18.4155	-50.472	31.0526	-196.581	-55.4118	7.40149	-22.3294	0.322146
0.3140	182.964	-17.3991	-26.6334	-57.7851	4.50411	-228.967	-81.3521	14.6952	-44.6028	-0.322146
0.3147	276.036	-26.2356	-28.7929	-48.0344	-51.038	-132.215	-87.1568	24.7914	-65.3632	0
0.3153	298.006	-26.5781	-24.8339	-21.4796	-92.5402	-177.37	-62.1294	17.7492	-68.1089	0
0.3160	270.242	-21.9886	-20.5749	-8.65178	-80.6493	-311.035	-26.1126	3.41331	-69.3416	-0.322146
0.3167	250.404	-15.0016	-13.5567	-24.217	-29.3797	-357.409	6.8382	-5.13793	-65.3632	0
0.3173	166.788	-3.08251	-2.21945	-61.7613	9.99913	-229.837	31.8656	-7.58113	-27.5125	0
0.3180	-138.984	6.37053	4.19896	-92.8917	40.8201	-49.5079	16.6046	-7.58113	9.10546	0
0.3187	-535.091	7.32953	1.73957	-101.124	93.6083	-29.6583	-19.705	3.73667	13.9804	0
0.3193	-691.056	4.24702	-1.91953	-107.238	141.223	-85.8408	-27.0255	17.7492	35.049	0
0.3200	-639.188	2.74001	-6.53839	-112.113	135.728	-103.195	-20.6179	9.23389	74.1045	0.322146
0.3207	-538.471	2.12351	-13.5567	-104.181	89.027	-135.233	4.40952	-14.264	79.5958	0
0.3213	-348.626	-0.959004	-18.4155	-83.121	47.2288	-185.611	71.8441	-23.7494	48.4691	0
0.3220	-115.484	-6.71303	-21.7746	-46.8155	28.6075	-185.901	116.094	-23.4261	13.364	0.322146
0.3227	112.788	-11.9191	-27.5932	-11.4092	30.4349	-89.7875	89.8439	-35.3187	3.30598	0.322146
0.3233	365.446	-11.9191	-26.3335	-0.419601	20.3715	18.8629	54.7572	-48.469	15.2131	0.322146
0.3240	452.441	-5.48002	-13.8566	-5.61466	-5.26338	48.7534	41.322	-56.6968	33.1999	0
0.3247	247.064	3.01401	3.53913	-5.61466	-21.4396	9.11224	22.4093	-64.6373	65.5593	0
0.3253	74.924	10.0695	20.6349	-4.99525	-44.0245	-10.157	12.3329	-64.6373	94.5567	0
0.3260	122.848	18.5636	35.9311	-17.2037	-87.0581	58.2139	21.8064	-68.5895	89.962	-0.322146
0.3267	223.565	29.5921	46.9084	-36.4254	-117.261	91.1805	36.1374	-72.8651	63.1219	-0.322146
0.3273	191.817	32.3321	45.3488	-50.472	-120.311	30.1226	62.3878	-55.4752	8.79728	0
0.3280	-13.2385	21.3721	28.253	-50.472	-109.334	-27.8591	97.4744	-29.8575	-57.4345	0.322146
0.3287	-162.483	7.32953	7.85806	-26.355	-90.108	-69.0093	113.356	-14.264	-84.5828	0
0.3293	-111.823	-3.97302	-7.13824	13.0076	-84.3041	-164.833	94.7357	-4.52712	-91.615	0.322146
0.3300	62.1282	-12.5356	-13.1967	37.7242	-73.9318	-233.842	70.6212	13.7969	-101.981	0.322146
0.3307	282.474	-19.8651	-15.0563	39.8621	-11.6721	-200.876	57.806	33.6301	-103.522	0.322146
0.3313	423.148	-29.0441	-17.8156	39.2427	66.7509	-193.214	32.7786	46.4569	-80.016	0
0.3320	321.827	-36.3052	-13.5567	35.2865	113.143	-112.075	-2.30811	61.727	-48.273	0
0.3327	74.3205	-38.4972	-3.77907	23.9972	130.542	104.588	-33.1403	85.2249	-33.312	0.322146
0.3333	-12.3532	-35.4147	5.09874	23.3778	101.844	177.544	-53.8788	110.555	-28.1289	0.322146
0.3340	22.4531	-22.6051	14.8763	22.1589	38.0662	92.6895	-64.5581	105.345	-22.0212	0
0.3347	-46.5157	-11.3026	19.4352	-2.85728	-22.0444	16.1351	-74.9445	74.2304	-12.5795	0
0.3353	-214.069	-14.0426	15.1763	-23.3178	-66.6094	-92.8636	-81.0421	76.0629	0.868521	0.322146
0.3360	-385.283	-18.9061	9.95754	-23.3178	-72.1044	-224.382	-60.5964	89.7879	13.0558	0
0.3367	-455.459	-12.8096	10.2575	-28.1932	-50.1243	-214.283	-14.8304	70.2423	10.6184	-0.322146
0.3373	-337.963	-1.57551	10.8573	-30.6309	-52.2606	-68.7191	15.0888	47.0677	-0.364219	0
0.3380	-113.352	0	5.99852	-18.1228	-56.533	-6.50045	13.5558	29.9652	-7.36842	0
0.3387	39.5544	-7.67203	0.839793	-4.69554	-74.8455	-92.5154	8.68124	5.24571	-17.1463	0
0.3393	79.5112	-13.7686	-0.719822	2.93721	-135.265	-180.446	6.23533	-2.98215	-23.254	0
0.3400	63.0537	-17.7416	-2.21945	6.59373	-102.308	-194.781	5.01238	14.1203	-13.1679	0
0.3407	-4.42623	-22.2626	-5.57862	11.1694	32.5712	-197.509	21.1863	27.8454	7.56454	0
0.3413	-101.763	-25.6191	-9.53765	18.8021	139.692	-208.827	44.0779	34.2409	26.5039	-0.644291
0.3420	-143.853	-24.4546	-9.23772	23.6975	220.264	-170.637	47.4367	45.2353	38.6912	-0.322146
0.3427	-113.674	-20.4816	-5.2787	26.1352	229.723	-87.0597	14.7788	49.5109	35.3292	0.322146
0.3433	-70.6185	-18.3581	-4.37892	30.0914	150.682	-53.4546	-34.9661	41.5705	15.4933	0
0.3440	-48.3667	-17.7416	-4.67885	34.3673	80.4821	-136.161	-36.7919	34.2409	21.601	0
0.3447	-32.1908	-17.3991	-3.77907	34.6671	38.375	-230.186	24.8552	31.5102	50.9065	0
0.3453	-19.9583	-17.7416	-2.21945	27.9534	-4.95452	-203.313	112.735	25.0788	51.2147	0
0.3460	-24.8674	-15.8921	-1.91953	25.216	-24.1806	-123.335	174.383	17.4618	34.7408	0.322146
0.3467	-16.2966	-14.3851	-1.31967	32.2294	10.9128	-40.3376	137.453	13.7969	31.0706	0.322146
0.3473	21.8495	-13.7686	-1.01975	44.7375	46.92	36.8553	13.2458	11.6771	33.5081	0
0.3480	56.6155	-15.8921	-3.17922	58.1647	30.1389	16.7155	-115.233	9.52133	35.049	0.322146
0.3487	68.2445	-18.6321	-4.67885	64.8783	-17.1671	-23.2739	-189.988	8.91053	49.982	0.322146
0.3493	62.1282	-17.7416	-7.13824	66.1172	-78.8091	5.1075	-205.869	7.07812	82.0332	0
0.3500	47.4814	-15.0016	-8.63787	71.592	-114.829	7.89341	-190.901	4.34748	98.5071	0
0.3507	34.0418	-12.8096	-1.6196	85.0192	-87.9717	48.173	-156.124	4.95828	89.6538	0
0.3513	26.3964	-13.1521	5.09874	100.904	-41.2705	221.77	-115.233	5.85652	63.1219	-0.322146
0.3520	20.924	-13.1521	3.53913	108.217	-15.6357	336.863	-79.2163	5.24571	22.5255	0
0.3527	16.3368	-13.4261	0.839793	110.975	-9.53585	340.519	-49.6071	5.85652	3.61417	0.322146
0.3533	18.1878	-14.6591	0.479882	104.261	-15.6357	433.905	-37.1019	4.95828	19.1635	0.322146
0.3540	22.1312	-13.4261	1.13972	85.3389	-13.4995	559.039	-32.5202	4.95828	37.1783	0
0.3547	23.0567	-12.1931	0.479882	67.336	3.28157	531.528	-20.0151	8.29973	59.7599	0
0.3553	23.6602	-12.1931	0.839793	57.2656	4.50411	497.981	-13.2974	9.23389	83.8543	0
0.3560	24.9076	-11.9191	1.73957	54.8079	-11.0672	622.477	-25.5097	5.56908	72.8717	0
0.3567	22.1312	-12.1931	0.479882	43.5186	-28.4531	654.514	-41.3737	-0.538943	40.5403	0
0.3573	19.7169	-11.9191	-0.11997	16.0647	-56.8419	504.075	-41.6837	-3.59295	29.2496	0
0.3580	21.2459	-10.412	2.0395	4.15605	-70.8819	407.962	-31.0044	-1.47311	38.6912	0
0.3587	22.4531	-9.45304	1.43964	15.1456	-49.8155	327.402	-20.3079	-0.862309	54.8849	0
0.3593	21.8495	-9.45304	-0.11997	21.8592	-22.3533	143.068	-9.33577	-2.69472	71.9752	0.322146
0.3600	21.2459	-7.67203	0.839793	18.5024	-9.227	-19.6174	9.2841	-0.862309	76.5419	0.322146
0.3607	19.9985	-6.43903	1.73957	10.8697	-10.4495	-79.1082	36.4474	0.970098	59.7599	0
0.3613	17.5842	-7.67203	1.13972	2.93721	-15.3397	-128.558	56.583	-0.538943	36.2538	0
0.3620	16.6587	-8.56254	0.479882	0.179829	-11.9809	-208.189	62.3878	-2.69472	6.05163	0
0.3627	17.8659	-6.71303	0.839793	3.53664	-5.57223	-266.809	68.7953	-2.98215	-16.8381	0.322146
0.3633	16.3368	-6.43903	0.179956	14.5262	-5.57223	-269.246	65.1265	-4.20376	-17.4545	0
0.3640	13.6006	-7.32953	-1.01975	27.0543	1.14533	-268.028	41.632	-4.52712	-34.5447	0
0.3647	14.5261	-4.93202	0.479882	36.5053	27.6939	-332.684	11.73	-1.14975	-53.1479	0.322146
0.3653	15.7332	-3.35651	0.839793	43.8383	46.92	-412.373	-20.928	0.0718591	-34.8529	0
0.3660	15.7332	-3.69902	0.179956	51.7708	46.6111	-441.334	-34.9661	-0.538943	-4.62277	0
0.3667	16.6587	-3.97302	0.839793	53.9088	46.6111	-444.701	-23.6667	-0.862309	21.9091	0
0.3673	15.7332	-4.58952	-0.419896	41.3807	37.1525	-449.576	-15.4333	-2.69472	49.982	0
0.3680	15.1297	-3.97302	-1.31967	32.5291	12.7402	-407.787	-17.2591	-4.52712	72.5635	0
0.3687	17.2623	-1.57551	0.479882	35.8859	-2.21345	-320.205	-21.238	-1.47311	88.7573	0
0.3693	19.073	-0.342502	0.839793	35.8859	1.45418	-246.321	-25.1997	2.51507	103.41	0
0.3700	18.7914	0.616503	-0.719822	29.1723	5.72666	-190.777	-24.5968	2.51507	68.9214	0
0.3707	18.4695	3.63052	-2.21945	24.5966	-1.29976	-140.166	-24.2868	-1.76055	-13.4761	0
0.3713	16.3368	5.75403	-3.17922	26.7346	-9.227	-98.3194	-25.8026	-8.19194	-54.0724	-0.644291
0.3720	13.2787	10.96	-0.11997	29.1723	-9.227	-70.5764	-20.6179	-8.47937	-57.4345	-0.322146
0.3727	11.468	18.2896	3.83905	27.6537	-7.09076	-58.6782	-10.5587	-5.42536	-41.2688	0.322146
0.3733	13.6006	18.2896	3.53913	25.5158	-13.4995	-58.6782	-3.53106	-17.0306	17.9588	0
0.3740	17.5842	8.22004	-0.719822	28.2731	-26.3169	-55.6021	-1.08515	-40.816	62.1973	0
0.3747	18.7914	2.74001	-1.91953	33.1485	-16.2534	-48.5793	-0.172247	-44.8041	63.4301	0.322146
0.3753	16.3368	6.09653	2.0395	19.7213	18.5441	-49.7981	2.56648	-33.5223	71.667	0
0.3760	13.2787	0.890504	4.79882	-9.27119	44.1789	-25.4214	9.2841	-20.3721	75.3092	-0.644291
0.3767	13.2787	-10.412	5.39867	-16.9039	52.415	28.0332	19.3605	-8.80274	56.706	0
0.3773	15.7332	-11.3026	6.59837	-6.53379	38.6839	47.5346	23.3222	-37.4745	42.3614	0.322146
0.3780	16.6587	-1.23301	9.05777	-4.69554	41.1161	40.802	19.9634	-100.639	3.30598	0
0.3787	12.0715	8.22004	12.117	-4.07613	97.5719	41.1502	15.3816	-130.245	-57.4345	0
0.3793	6.2772	9.11054	8.75784	3.23692	142.137	38.0741	10.197	-121.406	-69.0334	0.322146
0.3800	4.42623	10.0695	3.83905	5.9943	133.592	33.1987	11.42	-113.142	-41.5489	0
0.3807	5.9553	11.3026	5.99852	3.85634	102.462	33.4889	20.2734	-116.807	-20.2001	0
0.3813	5.9553	8.83654	2.63935	4.45577	68.2823	30.7611	20.8763	-114.364	-12.8877	0
0.3820	8.08793	9.45304	-0.719822	-0.119886	30.4349	22.8096	19.0505	-73.7993	-14.7088	-0.322146
0.3827	13.2787	14.0426	0.839793	-9.5709	-8.62216	21.5908	26.371	-23.1386	-14.4006	0
0.3833	13.9225	15.8236	-15.0563	-13.5471	-16.8582	28.6136	29.4197	-3.59295	-9.8339	0.322146
0.3840	10.5425	12.1931	-37.9706	-12.9277	7.86289	38.7125	22.0993	-8.19194	-4.34261	0.322146
0.3847	5.9553	6.98703	-32.7519	-9.5709	23.4214	51.1911	11.1099	-32.9115	1.76506	0
0.3853	1.08644	3.63052	-10.7973	-7.43294	25.8665	63.0892	3.78943	-53.3554	6.668	0
0.3860	2.6155	-0.342502	1.13972	-4.99525	20.6803	65.2367	5.92529	-61.8707	11.2347	0
0.3867	3.54099	-9.45304	1.13972	-0.419601	-7.39961	46.9542	14.1759	-69.2003	16.4179	0
0.3873	-0.120715	-21.0981	-3.47914	1.09896	-55.9282	33.4889	21.1863	-59.4275	20.0881	0.322146
0.3880	-1.0462	-21.0981	-0.11997	2.63749	-87.0581	24.6669	24.5452	-16.7072	23.4501	0.322146
0.3887	-1.97169	-11.6451	6.8983	5.07518	-75.1543	48.7534	18.4476	42.4687	27.4004	0
0.3893	-5.31148	-7.67203	5.99852	2.63749	-50.742	192.17	7.45828	99.2374	26.5039	0
0.3900	-3.17884	-10.412	3.53913	-1.63844	-40.3568	326.474	5.92529	160.282	21.601	0.322146
0.3907	4.42623	-9.79554	4.49889	-4.07613	-37.3069	345.685	10.197	238.105	19.7799	0
0.3913	7.20269	-6.43903	2.93928	-3.4767	-34.8618	321.308	8.37119	278.705	20.7044	0
0.3920	4.74814	-5.48002	-0.419896	2.01808	-37.9246	260.831	5.01238	232.32	13.6722	0.322146
0.3927	7.20269	-0.959004	-1.01975	9.95054	-43.7156	193.389	4.70234	164.557	1.14869	0
0.3933	8.40984	10.686	-0.11997	14.8459	-41.8882	139.702	1.96361	121.837	-6.1637	0
0.3940	2.89717	15.8236	0.839793	13.6271	-30.8982	79.5725	-4.13392	85.8357	-1.28877	0
0.3947	4.14456	8.49404	6.8983	9.03142	-19.6122	27.1046	-6.26978	40.0255	24.0384	0
0.3953	11.468	7.60353	5.99852	2.3178	-14.1172	-17.47	-7.49273	-17.0306	50.5984	0
0.3960	12.0715	15.5496	-5.87855	-4.69554	-10.4495	-62.9151	-13.9003	-63.4156	51.8311	0
0.3967	9.01342	18.0156	-3.47914	-7.43294	-5.57223	-99.248	-16.3462	-88.1352	27.0923	0.322146
0.3973	8.40984	19.7966	14.8763	-5.61466	-4.65854	-119.388	-15.4333	-87.201	-7.08825	0.322146
0.3980	7.20269	27.1261	29.8126	-2.25785	-6.17707	-123.335	-16.0362	-63.0923	-7.36842	0.322146
0.3987	6.55887	26.8521	25.8536	1.09896	-4.04083	-119.388	-12.9874	-28.6358	20.0881	0
0.3993	8.73175	13.7001	8.15799	3.23692	-2.21345	-109.927	-8.40564	21.414	20.7044	0
0.4000	8.73175	13.0836	1.13972	2.63749	-3.43599	-92.2252	-7.49273	87.0573	5.74345	0
0.4007	5.67363	25.0026	-8.03802	1.09896	-4.34969	-72.3756	-9.33577	131.897	13.364	-0.322146
0.4013	7.20269	12.1931	-26.9334	7.51286	-3.12714	-47.6507	-11.7645	130.676	27.0923	-0.966437
0.4020	13.6006	-22.6051	-35.2113	16.6642	-1.29976	-21.4167	-10.8515	96.7942	9.41365	0
0.4027	13.6006	-50.0737	-33.6517	13.3074	-1.29976	-10.7374	-7.49273	28.4562	-20.5083	0.644291
0.4033	8.73175	-56.7868	-21.4747	5.67461	-0.990905	-8.00949	-5.06405	-50.3014	-21.4329	0.322146
0.4040	5.35172	-63.4998	-8.9378	5.67461	-0.0772134	-1.56707	-3.8411	-67.6913	4.51071	0
0.4047	2.29359	-72.3363	-8.03802	7.51286	-0.386067	2.08943	-5.35687	-18.5396	34.1245	0.322146
0.4053	0.764531	-50.9642	-4.37892	7.21315	-0.0772134	5.45574	-6.26978	33.3426	51.5229	0
0.4060	1.08644	-27.1946	3.53913	1.41865	1.45418	9.11224	-3.53106	60.5054	51.2147	0
0.4067	1.40835	-38.7712	3.53913	-7.13322	0.836478	8.47381	-5.06405	75.1287	37.4865	0
0.4073	3.21908	-54.0467	5.09874	-11.7089	-0.990905	8.76401	-7.80278	89.4646	23.4501	0
0.4080	4.74814	-52.8137	8.75784	-8.35206	-0.990905	10.9115	-6.57982	85.8357	24.6548	0
0.4087	5.67363	-28.7016	0.839793	2.01808	-0.0772134	11.5499	-7.49273	56.5172	21.2928	0
0.4093	7.48436	7.94603	-2.51938	15.745	1.14533	15.4966	-6.88987	27.522	0.252151	0
0.4100	9.617	8.83654	2.33942	24.9163	2.66386	18.8629	-6.26978	11.9645	-7.08825	0
0.4107	12.3935	-14.3851	-7.43817	28.5728	3.28157	17.9343	-9.02573	12.8987	0.560336	0.322146
0.4113	18.1878	2.39751	-15.9561	30.0914	2.97271	19.1531	-9.02573	7.40149	12.1593	0
0.4120	24.5857	55.2112	-9.83757	31.3102	2.97271	21.0104	-7.80278	-9.70098	47.8527	0
0.4127	29.1729	62.5408	-10.1975	30.0914	1.14533	19.7916	-9.02573	-20.9829	66.7641	0.322146
0.4133	32.5127	11.8506	-14.4564	25.216	-0.990905	19.4433	-8.71568	-31.6899	28.6332	0
0.4140	27.9255	-33.2911	-14.1565	25.8155	-3.74485	19.7916	-9.02573	-44.4808	42.0532	-0.322146
0.4147	17.5842	-103.504	-13.8566	35.2865	-5.88108	20.0818	-9.62859	-94.2432	95.4533	-0.322146
0.4153	9.33533	-186.184	-8.63787	47.4949	-5.57223	20.0818	-8.11282	-172.067	37.1783	0
0.4160	3.54099	-132.137	2.33942	56.9459	-3.12714	20.6622	-6.57982	-212.02	-60.7965	0
0.4167	-1.97169	-17.1251	1.43964	60.6224	-0.990905	20.0818	-6.88987	-220.284	-69.6498	0
0.4173	-7.76603	-54.6632	-11.997	54.8079	0.23164	18.2245	-9.02573	-187.912	-35.7775	0
0.4180	-12.0313	-150.153	-6.83831	38.3436	0.527625	17.6441	-9.02573	-87.8118	-2.80168	0
0.4187	-10.8242	-170.292	10.2575	19.1018	-0.0772134	18.2245	-8.71568	24.7914	38.9994	0
0.4193	-5.02981	-117.204	12.7169	5.37489	-0.0772134	18.5727	-9.02573	110.843	53.344	0
0.4200	-0.120715	29.2496	7.49815	-6.83351	1.14533	19.7916	-7.80278	153.563	31.0706	0
0.4207	1.40835	169.333	3.53913	-25.1361	0.836478	18.2245	-8.71568	122.735	15.2131	0
0.4213	-0.120715	177.621	-0.11997	-45.8964	-0.990905	15.4966	-10.8515	78.7935	8.18091	0
0.4220	-0.442623	88.5024	0.839793	-54.1286	-1.29976	15.2064	-9.62859	95.2852	-7.36842	0
0.4227	0.764531	21.0296	4.49889	-68.7746	-0.682051	15.4966	-8.40564	153.275	-31.1827	0
0.4233	5.35172	68.6373	6.8983	-102.043	-0.386067	15.7868	-8.40564	189.888	-21.4329	0
0.4240	7.80627	162.62	-0.419896	-109.376	-0.990905	14.568	-8.11282	170.665	10.002	0
0.4247	2.6155	181.868	-19.0153	-73.67	-1.9046	12.7687	-8.71568	125.179	-24.1785	0
0.4253	-2.57526	157.756	-24.8339	-29.412	-2.21345	13.0589	-8.11282	61.727	-71.1627	0
0.4260	-1.0462	144.604	-14.1565	-9.5709	-0.990905	13.3491	-7.49273	-17.0306	-49.1975	0
0.4267	5.35172	115.971	-1.91953	-15.3654	0.836478	12.4205	-7.49273	-55.4752	2.9978	0
0.4273	11.1461	45.4842	11.5172	-23.3178	0.23164	12.7687	-5.66692	-60.9724	25.5793	0
0.4280	13.6006	-15.8921	1.73957	-25.1361	-2.5223	11.8401	-5.66692	-65.2481	10.9266	0
0.4287	14.8078	-4.31552	-36.411	-24.8364	-4.65854	10.3311	-6.88987	-53.6428	21.601	0
0.4293	14.2042	18.5636	-59.6253	-19.6413	-4.34969	11.2017	-6.57982	-60.6491	27.7086	0
0.4300	11.1461	-10.0695	-59.3254	-7.75263	-4.04083	12.4205	-5.97696	-81.1289	-29.978	0.322146
0.4307	8.73175	-19.8651	-48.9479	5.07518	-4.34969	13.6393	-4.44397	-61.5832	-73.9084	0
0.4313	3.21908	-4.31552	-17.8156	9.03142	-3.74485	12.4205	-4.44397	-44.8041	-70.5463	-0.966437
0.4320	-8.97318	-54.0467	29.5127	6.59373	-2.5223	11.2017	-4.44397	-37.762	-51.3268	-0.644291
0.4327	-14.7675	-144.399	53.0269	3.23692	-1.60861	11.5499	-3.22101	18.6834	-19.5838	0.322146
0.4333	-8.3696	-213.652	42.9494	-3.17698	-2.21345	7.89341	-5.35687	63.236	5.43526	0
0.4340	0.160954	-311.265	29.5127	-3.4767	-3.43599	6.32633	-5.35687	47.9659	16.4179	-0.322146
0.4347	0.160954	-371.135	9.65762	4.77546	-4.95452	6.96477	-1.3952	39.4147	21.2928	0
0.4353	-8.08793	-230.709	-2.21945	9.65083	-6.79478	3.30827	-2.30811	31.5102	5.74345	0
0.4360	-11.4277	58.2938	31.3123	15.4453	-7.39961	2.08943	-3.22101	2.51507	-15.9135	0
0.4367	-3.50075	252.972	69.1629	27.9534	-8.01732	1.45099	-2.30811	-12.755	-33.312	0.322146
0.4373	4.74814	170.566	74.0817	40.7812	-7.70847	-0.986676	-4.44397	-9.98841	-51.3268	-0.322146
0.4380	10.2608	-41.5112	57.8857	48.7137	-4.34969	2.37963	-2.30811	-14.264	-44.6028	-0.322146
0.4387	12.6751	-126.041	23.9941	48.7137	-3.12714	3.30827	-0.792335	-24.971	-24.7669	0.322146
0.4393	11.468	-93.0919	-3.47914	43.8383	-4.65854	-0.696477	-4.13392	-7.25777	-14.4006	0
0.4400	12.3935	15.5496	-12.297	38.0239	-4.65854	-0.0580398	-2.92819	42.1813	-2.80168	0
0.4407	12.3935	174.539	-17.8156	33.4482	-4.65854	-0.348239	-1.99806	73.0088	9.69382	0.322146
0.4413	9.01342	271.604	-19.6152	33.7679	-4.95452	-1.56707	-3.22101	64.745	10.6184	0.322146
0.4420	5.07005	302.086	-12.8968	34.6671	-4.34969	0.232159	-0.792335	34.2409	-0.980588	0
0.4427	-6.55887	320.718	-4.97877	34.0676	-4.04083	0.232159	-0.792335	0.359295	-11.0386	0.322146
0.4433	-21.4873	296.332	3.53913	26.4349	-2.81829	0.522358	-2.92819	1.90427	-9.52572	0
0.4440	-22.0909	156.523	8.45791	2.63749	-0.682051	1.45099	-2.92819	37.0074	-1.59696	0
0.4447	-10.8242	-41.2372	9.95754	-34.2874	-0.0772134	0.870597	-2.61815	61.727	3.92235	0
0.4453	-1.64978	-160.565	11.2172	-63.5996	0.527625	2.66983	0.430617	58.9604	5.74345	0
0.4460	-0.120715	-269.823	8.45791	-66.6367	0.527625	2.37963	1.65357	42.1813	7.25635	0
0.4467	-5.91506	-446.211	7.19822	-52.61	-0.0772134	-1.27687	-1.3952	26.3004	6.668	0
0.4473	-12.6349	-503.546	9.05777	-36.7451	0.23164	-1.91531	-1.99806	2.8025	3.92235	0
0.4480	-12.0313	-413.81	1.73957	-23.6176	-0.682051	-1.91531	-1.08515	-21.917	13.6722	0
0.4487	-10.2206	-356.75	0.839793	-11.1094	-0.682051	-0.986676	-0.482291	-28.6358	36.5619	0
0.4493	-16.6185	-309.484	16.9758	3.85634	0.836478	1.1608	2.56648	-24.3602	37.4865	-0.322146
0.4500	-23.62	-222.489	27.3533	13.6271	0.527625	-1.91531	1.65357	-15.809	14.2886	-0.322146
0.4507	-24.8674	-272.837	17.5757	16.6642	-0.386067	-4.93338	-0.792335	-1.47311	1.45687	0
0.4513	-29.7362	-503.272	-10.4974	18.5024	0.23164	-4.93338	-0.172247	-5.42536	2.07324	0.322146
0.4520	-39.1923	-459.637	-33.0518	16.6642	-0.682051	-5.28162	0.137797	-45.7024	1.45687	0
0.4527	-37.6632	25.6191	-33.3518	11.4891	-2.21345	-4.64318	1.96361	-85.9794	-2.4935	-0.322146
0.4533	-23.0164	456.555	-29.0928	6.29402	-2.81829	-5.28162	2.27366	-83.8596	-1.28877	0
0.4540	-7.16245	596.569	-25.7337	0.79924	-2.81829	-7.37105	-0.172247	-43.5825	12.4675	0
0.4547	3.54099	578.896	-15.6561	-4.99525	-2.5223	-6.79065	0.430617	6.79068	24.0384	0
0.4553	9.617	485.804	6.59837	-12.9277	-2.81829	-5.86202	0.740661	31.5102	13.9804	0
0.4560	12.997	379.629	38.0306	-22.9981	-1.60861	-4.35298	1.34352	8.91053	0.560336	-0.322146
0.4567	11.7496	309.758	51.7672	-31.8497	-0.386067	-3.71455	3.18656	-22.2045	0.252151	-0.322146
0.4573	9.33533	270.987	29.5127	-34.2874	-1.60861	-6.50045	1.34352	-15.809	3.30598	0.322146
0.4580	10.2608	241.395	-29.6927	-30.0315	-2.21345	-7.08085	-0.172247	-1.47311	3.92235	0
0.4587	6.55887	243.793	-83.4394	-25.4358	-1.29976	-6.50045	0.137797	-18.863	4.20252	0
0.4593	-3.50075	302.429	-87.0985	-20.8602	-1.29976	-6.15222	1.05071	-45.4149	6.94817	-0.322146
0.4600	-8.08793	297.839	-60.2251	-15.6851	-0.682051	-3.42435	4.09947	-68.3021	10.9266	-0.322146
0.4607	-11.7496	176.046	-31.5522	-12.3283	-0.386067	-2.78591	4.09947	-112.244	12.1593	-0.644291
0.4613	-19.073	66.7878	-0.419896	-10.7897	-0.990905	-5.57182	1.05071	-164.737	9.10546	-0.966437
0.4620	-18.7511	-63.4998	44.449	-7.75263	-0.682051	-5.86202	0.740661	-158.306	6.668	-0.644291
0.4627	-14.1639	-254.821	73.7218	-4.39582	-0.386067	-5.28162	1.65357	-64.3139	8.18091	0.322146
0.4633	-11.1058	-343.94	42.9494	-1.33873	-0.386067	-4.35298	3.47938	63.5234	13.0558	-0.322146
0.4640	-7.76603	-291.743	-18.1155	8.13227	0.23164	-2.78591	5.63247	123.059	17.6506	-0.322146
0.4647	-10.5022	-158.099	-43.1294	16.9839	-0.0772134	-4.00474	4.09947	80.3385	16.4179	0
0.4653	-17.8256	-45.8267	-41.3298	19.1018	-1.29976	-5.86202	1.65357	17.4618	8.48909	0
0.4660	-23.62	-134.329	-63.8842	19.4215	-1.60861	-6.79065	0.740661	-4.20376	2.38143	0.644291
0.4667	-23.0164	-292.359	-92.8571	20.3407	-1.29976	-6.15222	2.27366	13.5095	1.45687	0.644291
0.4673	-13.8823	-190.157	-84.939	21.2398	-1.9046	-4.64318	5.32242	62.3378	2.07324	0
0.4680	-5.91506	103.435	-34.3115	21.2398	-2.81829	-4.35298	6.23533	117.238	3.30598	0
0.4687	-5.31148	299.963	27.6532	16.9839	-3.12714	-5.28162	5.01238	115.729	8.18091	0
0.4693	-8.97318	291.4	50.8675	12.7079	-2.81829	-4.93338	5.01238	70.5656	12.4675	0
0.4700	-6.84054	131.521	66.7036	10.8697	-2.5223	-4.64318	5.32242	44.0137	8.18091	0
0.4707	-1.36811	-15.5496	114.332	2.3178	-1.29976	-4.64318	4.70234	14.1203	-0.364219	0
0.4713	0.482862	-42.1277	128.968	-9.8906	-0.386067	-3.71455	4.40952	-19.1504	-4.93096	0
0.4720	2.29359	17.0566	79.8403	-12.628	-0.386067	-4.00474	4.09947	-14.5874	-6.78007	0
0.4727	4.42623	39.9357	24.5939	-5.91438	-0.0772134	-5.57182	1.96361	3.73667	-6.78007	-0.322146
0.4733	2.29359	16.1661	10.2575	2.93721	0.23164	-5.86202	0.137797	-27.0909	-4.62277	-0.322146
0.4740	-2.57526	39.6617	35.2713	5.67461	0.836478	-5.57182	0.740661	-84.7578	-2.18531	0
0.4747	-8.08793	17.0566	16.9758	1.71837	1.14533	-3.71455	3.18656	-127.514	-0.980588	0
0.4753	-16.9002	-176.114	-80.3802	-3.77641	0.836478	-2.49571	3.78943	-143.071	-1.59696	0
0.4760	-24.8674	-370.792	-159.681	-8.65178	-0.0772134	-3.71455	1.65357	-63.7031	-4.62277	0
0.4767	-23.9419	-394.904	-185.354	-11.7089	-1.29976	-5.28162	0.137797	77.8953	-5.85551	-0.322146
0.4773	-15.4113	-324.691	-186.554	-9.8906	-2.81829	-5.86202	-0.482291	168.222	-4.62277	0
0.4780	-8.08793	-220.982	-137.726	-9.5709	-3.12714	-4.93338	0.137797	193.229	-3.41805	0
0.4787	-9.89867	-141.042	-53.8067	-10.49	-2.81829	-5.28162	0.430617	173.719	-1.28877	-0.644291
0.4793	-20.8838	-150.495	-5.2787	-4.99525	-2.21345	-5.86202	0.137797	112.064	2.38143	0
0.4800	-33.3979	-231.668	41.6897	3.53664	-2.21345	-5.57182	-0.792335	14.1203	4.51071	0.322146
0.4807	-39.7959	-452.307	123.51	12.3882	-1.9046	-5.86202	-1.70524	-77.4641	8.79728	0
0.4813	-40.1178	-728.158	138.446	20.9401	-1.29976	-4.00474	2.27366	-112.531	17.9588	0
0.4820	-41.6468	-683.017	67.3634	28.2731	-0.990905	-0.986676	7.76833	-120.795	25.2712	0.322146
0.4827	-44.9866	-95.2154	5.99852	34.6671	-1.60861	-0.696477	8.06115	-148.569	25.8875	0.322146
0.4833	-44.9866	724.802	3.83905	38.3436	-3.12714	-2.49571	6.54538	-161.683	26.1957	0.322146
0.4840	-38.9106	1126.42	51.4673	36.5053	-4.04083	-3.42435	6.54538	-137.251	28.325	0
0.4847	-29.4143	995.172	99.9953	34.6671	-4.04083	-2.78591	5.92529	-110.411	17.0342	0
0.4853	-23.62	692.127	108.213	42.2998	-2.81829	-1.27687	7.76833	-114.364	-0.980588	0.322146
0.4860	-25.471	414.701	81.1	57.865	-2.81829	-0.986676	8.37119	-131.754	-0.0560336	0.322146
0.4867	-38.9106	193.787	61.8447	63.6595	-4.65854	-3.71455	5.32242	-88.4226	10.3102	0.322146
0.4873	-50.781	-40.6207	72.2222	60.003	-4.65854	-4.64318	3.18656	-2.98215	13.9804	0
0.4880	-51.7064	-145.563	81.9998	58.7841	-4.04083	-4.35298	2.27366	26.6238	25.2712	0
0.4887	-50.4993	-37.8807	74.9815	49.0134	-3.12714	-3.42435	1.65357	24.1806	40.5403	0
0.4893	-50.4993	12.8096	71.6223	34.0676	-1.60861	-0.696477	2.56648	23.5698	25.8875	0
0.4900	-48.3667	-16.7826	67.9632	19.7213	-1.60861	-1.56707	0.430617	-16.0964	-0.980588	0
0.4907	-43.1759	-37.5382	46.0087	-6.53379	-1.60861	-3.13415	-3.8411	-53.032	-6.47188	0
0.4913	-37.3815	-137.069	23.6942	-27.5738	-0.990905	-2.78591	-4.44397	-53.9662	-5.23914	-0.644291
0.4920	-36.7377	-222.489	20.335	-28.1932	-0.386067	-1.56707	-1.99806	-46.924	-4.03442	-0.644291
0.4927	-41.0433	-192.897	27.0533	-27.2741	-0.386067	0.870597	1.96361	-45.4149	-1.28877	0.322146
0.4933	-44.9866	-69.5963	26.7534	-35.2065	-2.21345	-0.348239	2.27366	-56.4094	-6.78007	0
0.4940	-46.234	55.5537	13.3167	-43.4587	-4.65854	-4.00474	-0.482291	-24.971	-11.9632	0
0.4947	-46.5157	29.8661	9.65762	-45.8964	-4.95452	-3.71455	-1.08515	45.5227	-3.72624	0.322146
0.4953	-45.9121	-49.7312	17.2757	-52.3103	-3.43599	-1.56707	-0.482291	81.2367	-0.672404	0.322146
0.4960	-44.705	-84.8719	2.93928	-55.6671	-0.990905	0.870597	1.05071	73.9071	-12.5795	0.322146
0.4967	-44.0611	-302.429	-34.6115	-47.4149	-0.386067	1.45099	2.27366	24.7914	-23.5621	0
0.4973	-41.3249	-556.976	-63.8842	-41.9202	-3.12714	-0.986676	0.430617	-35.9295	-26.616	0
0.4980	-35.5306	-374.765	-76.0612	-38.5634	-5.26338	-3.13415	-1.08515	-52.7446	-26.3078	0
0.4987	-33.7198	44.8677	-92.5572	-26.6747	-6.48592	-4.35298	-0.792335	-30.1449	-26.616	0
0.4993	-35.5306	231.6	-105.994	-12.0086	-6.79478	-4.00474	-1.08515	-1.14975	-24.1785	0
0.5000	-34.0015	186.115	-68.1432	0.499525	-6.17707	-2.78591	-0.792335	17.7492	-20.2001	0
0.5007	-29.4143	152.893	5.09874	10.57	-6.17707	-4.35298	-1.99806	30.2886	-17.1463	0
0.5013	-21.4873	186.458	43.5493	16.0647	-7.70847	-6.15222	-3.8411	43.0795	-14.4006	0
0.5020	-9.89867	111.381	40.49	19.4215	-7.70847	-4.35298	-3.53106	32.4085	-11.9632	0
0.5027	0.482862	-32.9486	23.9941	20.6404	-5.57223	0.232159	-1.99806	-2.37135	-10.7304	0
0.5033	7.48436	20.1391	-9.53765	9.03142	-4.04083	1.74119	-1.99806	-34.0971	-10.4223	0
0.5040	8.73175	278.591	-53.2069	-8.35206	-4.34969	-0.696477	-3.53106	-58.8167	-11.655	0
0.5047	6.55887	469.638	-77.021	-9.8906	-4.95452	-2.49571	-4.13392	-83.8596	-8.90935	0
0.5053	8.40984	409.221	-97.176	-1.93816	-4.34969	-1.56707	-2.61815	-112.244	-1.59696	0
0.5060	13.6006	199.267	-107.553	-1.03901	-3.43599	-0.0580398	-1.3952	-137.251	0.868521	0
0.5067	15.1297	51.2382	-84.3392	0.179829	-3.74485	0.232159	-1.70524	-135.131	-5.85551	0
0.5073	12.6751	16.1661	-48.9479	5.37489	-4.34969	-0.986676	-1.99806	-93.309	-13.7843	-0.322146
0.5080	9.9389	51.5807	13.6166	9.03142	-4.34969	-1.56707	-1.3952	-48.7564	-14.0925	0
0.5087	10.5425	19.1801	78.9405	9.03142	-3.12714	-0.348239	-1.08515	-21.5937	-10.1421	0.322146
0.5093	12.3935	-131.863	60.645	9.03142	-2.21345	0.870597	-1.08515	20.1924	-5.85551	0.322146
0.5100	10.8644	-163.305	-3.17922	8.7317	-2.21345	0.522358	-1.3952	69.0207	-4.62277	-0.322146
0.5107	10.5425	58.9103	-9.83757	4.77546	-3.12714	0.522358	-0.792335	102.615	-7.36842	-0.322146
0.5113	8.73175	390.315	27.6532	-10.7897	-4.34969	1.1608	-0.792335	106.89	-11.0386	0.322146
0.5120	7.20269	559.647	22.1945	-29.7118	-4.65854	1.1608	-1.3952	86.7339	-11.9632	0.322146
0.5127	16.3368	501.354	-43.4293	-34.9068	-4.04083	0.522358	-1.08515	77.5719	-9.21753	0
0.5133	27.6438	402.234	-115.172	-28.4929	-4.34969	-0.348239	-1.3952	69.6315	-5.85551	0.322146
0.5140	30.0581	327.431	-147.504	-18.1228	-4.95452	-0.986676	-1.3952	53.7865	-2.80168	0
0.5147	26.7184	257.835	-129.508	-5.61466	-4.95452	-0.986676	-0.172247	59.2837	0.252151	0
0.5153	17.5842	108.641	-97.176	4.15605	-5.57223	-1.27687	-0.482291	68.4099	1.14869	0.322146
0.5160	4.74814	-165.702	-70.6026	12.0885	-5.57223	-0.0580398	-0.172247	56.2297	1.14869	0.322146
0.5167	-5.31148	-329.281	-14.1565	25.8155	-5.57223	0.870597	-0.172247	48.2893	2.68961	0
0.5173	-8.97318	-297.291	64.6041	42.9192	-4.95452	0.522358	-0.482291	38.8398	6.05163	0
0.5180	-5.91506	-241.738	87.4584	49.9325	-4.65854	1.45099	1.96361	4.95828	7.87272	0.322146
0.5187	-5.31148	-179.745	44.449	44.1381	-4.34969	1.45099	1.96361	-35.9295	6.668	0.322146
0.5193	-6.84054	-160.839	12.4169	36.2056	-3.74485	0.522358	-0.792335	-63.4156	3.92235	0
0.5200	-4.42623	-248.108	-0.419896	34.3673	-2.5223	-0.0580398	-2.30811	-74.0867	2.9978	0
0.5207	2.89717	-253.931	-11.3972	36.5053	-2.5223	-1.27687	-3.8411	-70.4219	5.43526	0.322146
0.5213	15.7332	-172.415	25.8536	37.7242	-2.5223	-1.56707	-5.35687	-61.2599	8.48909	-0.322146
0.5220	24.5857	-133.713	73.4219	31.3102	-1.29976	1.45099	-5.35687	-56.6968	10.3102	-0.322146
0.5227	27.9255	-116.93	66.4036	10.57	0.527625	4.5271	-4.13392	-42.9717	10.9266	0.644291
0.5233	29.7765	-149.262	47.8082	-11.4092	0.836478	4.5271	-3.22101	-9.70098	10.3102	0.322146
0.5240	24.5857	-227.353	57.5858	-17.5034	0.836478	2.96003	-4.44397	20.1924	11.2347	0
0.5247	23.0567	-266.124	86.8586	-11.4092	0.23164	2.66983	-5.06405	41.2471	12.4675	0
0.5253	28.851	-284.756	104.554	-12.628	-0.386067	2.66983	-2.92819	67.5116	10.9266	-0.322146
0.5260	28.5693	-322.568	98.1358	-15.9848	-1.29976	2.08943	-0.172247	90.3987	8.18091	0.322146
0.5267	22.1312	-292.085	94.4767	-8.35206	-1.29976	1.45099	1.65357	65.6792	7.25635	0.322146
0.5273	18.4695	-268.59	89.318	-9.8906	-1.29976	-0.0580398	3.18656	-0.538943	7.87272	0
0.5280	18.1878	-357.366	78.0407	-22.9981	-1.29976	1.1608	6.23533	-22.5278	9.41365	0
0.5287	7.80627	-421.14	65.8038	-29.7118	-0.990905	3.59847	8.68124	-0.538943	9.41365	0
0.5293	-6.55887	-398.261	10.2575	-36.1257	-0.682051	3.59847	6.8382	-17.0306	6.668	0
0.5300	-10.2206	-229.819	-84.0393	-41.6204	-0.990905	2.37963	4.09947	-84.147	3.61417	0
0.5307	-10.8242	110.422	-138.026	-30.3312	-2.81829	-1.27687	0.740661	-137.574	2.38143	0.322146
0.5313	-2.89717	275.234	-154.222	-9.8906	-4.34969	-2.20551	-1.70524	-108.579	1.76506	0
0.5320	19.9985	170.908	-221.645	2.3178	-3.74485	-0.0580398	-0.172247	-32.3007	1.14869	0.322146
0.5327	44.7452	279.207	-308.024	3.85634	-2.81829	-0.696477	-0.172247	-3.30552	0.560336	0.322146
0.5333	61.2027	616.434	-303.765	3.53664	-2.81829	-2.20551	-1.3952	-24.971	1.45687	0
0.5340	62.1282	754.051	-243.96	5.67461	-1.9046	-2.49571	-1.08515	-38.9836	2.9978	0.322146
0.5347	50.8212	649.999	-184.455	6.59373	-0.682051	-1.56707	-0.482291	-9.98841	2.07324	0.322146
0.5353	37.0999	439.155	-93.4569	5.07518	0.23164	1.1608	1.65357	32.121	0.560336	0
0.5360	23.3786	222.42	30.7124	11.1694	0.527625	2.37963	3.47938	52.5649	-0.0560336	0
0.5367	9.01342	-33.5651	154.342	24.2969	0.23164	1.45099	2.87652	62.6252	-0.672404	0
0.5373	-13.8823	-446.211	259.916	33.7679	-1.29976	-0.986676	0.430617	63.236	-1.87713	0
0.5380	-35.2489	-744.667	298.666	35.5862	-3.12714	-2.78591	-1.70524	38.5165	-2.80168	0
0.5387	-37.9851	-584.719	248.639	28.2731	-3.12714	-1.27687	-1.08515	-3.91632	-2.18531	0.322146
0.5393	-28.5291	-204.816	166.819	14.5262	-1.9046	0.232159	-0.172247	-28.9233	-3.41805	0.322146
0.5400	-6.23696	7.32953	70.4226	0.499525	-2.21345	-1.27687	-3.8411	-28.3125	-7.08825	0
0.5407	30.9836	118.369	-45.8887	-12.9277	-2.81829	-3.13415	-8.11282	-18.863	-9.52572	0
0.5413	61.8063	254.479	-133.767	-15.6851	-0.386067	-3.13415	-10.2487	3.73667	-8.60116	0.322146
0.5420	77.7005	274.96	-168.258	-9.27119	2.66386	-1.27687	-9.33577	9.8447	-5.85551	0
0.5427	81.9658	230.093	-214.627	-0.119886	4.19526	2.37963	-4.44397	5.24571	-0.980588	0
0.5433	75.5679	285.646	-280.851	9.35111	5.10895	3.59847	-0.482291	77.2845	9.69382	0.322146
0.5440	66.7154	305.169	-295.847	10.2503	5.4178	2.08943	2.56648	181.66	22.5255	0.322146
0.5447	58.7482	227.353	-261.056	9.35111	5.72666	1.45099	5.63247	191.397	31.687	0
0.5453	50.2176	115.629	-170.418	20.021	5.4178	2.08943	6.8382	128.556	38.0748	0
0.5460	45.6304	-78.4328	-4.67885	38.943	4.19526	2.66983	7.76833	64.4576	42.6696	0.322146
0.5467	36.778	-279.892	153.982	54.8079	3.28157	2.96003	7.45828	5.24571	43.286	0
0.5473	17.5842	-378.738	220.566	60.9221	2.36788	1.1608	3.78943	-40.5285	39.924	0
0.5480	-2.25336	-460.802	242.82	67.336	1.14533	-1.91531	-0.172247	-68.9129	35.6374	0.322146
0.5487	-23.62	-578.006	274.552	81.3627	0.23164	-2.78591	-2.30811	-109.19	33.8163	0
0.5493	-48.9702	-615.544	249.239	91.4331	0.836478	-0.986676	0.137797	-132.077	34.4327	0
0.5500	-63.0135	-464.501	124.409	92.3522	1.75017	0.870597	3.18656	-98.8063	32.5836	0
0.5507	-60.5589	-167.552	-22.3745	89.2951	1.75017	0.232159	1.65357	-62.194	26.5039	0
0.5513	-51.3845	141.248	-98.9756	84.4198	1.45418	-1.27687	-1.08515	-41.4268	19.7799	0.322146
0.5520	-40.3994	294.483	-133.167	74.0496	1.75017	-0.986676	-1.70524	-10.5992	10.002	0
0.5527	-28.8108	310.032	-180.136	54.2085	4.50411	1.45099	0.137797	31.5102	-2.80168	-0.644291
0.5533	-13.8823	303.045	-203.95	22.7784	8.15888	3.88866	2.87652	68.7332	-13.1679	0.322146
0.5540	-1.64978	187.074	-176.476	-8.05235	9.99913	3.59847	1.96361	57.128	-19.2756	0.644291
0.5547	-1.36811	31.0991	-125.549	-27.5738	11.2088	2.08943	-1.3952	-24.3602	-21.1247	0
0.5553	-12.6349	-29.3181	-98.3757	-43.4587	11.8265	1.74119	-1.99806	-119.861	-21.1247	0
0.5560	-27	-28.7016	-75.7613	-62.6804	12.4313	3.30827	-0.482291	-118.352	-23.5621	0
0.5567	-32.1908	66.5138	12.4169	-85.259	13.9627	6.67457	3.47938	-88.746	-29.978	0.322146
0.5573	-33.3979	183.992	89.318	-104.181	13.0491	6.96477	4.40952	-115.909	-37.9067	0.644291
0.5580	-44.9866	99.8049	85.9588	-94.1106	9.38142	2.96003	-1.08515	-82.638	-40.6524	0.322146
0.5587	-68.8078	-105.627	65.5038	-48.6338	6.02264	1.74119	-2.61815	-38.3728	-33.9284	0
0.5593	-89.8525	-62.6093	-12.5969	6.59373	3.59042	2.08943	1.05071	-131.466	-22.9458	0
0.5600	-98.705	281.331	-166.399	46.5757	2.66386	2.08943	2.87652	-273.999	-15.6334	0
0.5607	-101.16	598.145	-259.796	65.198	2.05902	1.74119	1.96361	-353.619	-11.9632	0
0.5613	-84.9837	656.438	-239.041	68.5548	0.836478	-0.0580398	-1.99806	-369.212	-9.8339	0.322146
0.5620	-53.2355	507.519	-171.318	66.4169	0.527625	-0.696477	-4.44397	-273.065	-7.98479	0.322146
0.5627	-37.0596	319.485	-96.8161	60.6224	1.45418	1.1608	-2.92819	-88.4226	-3.41805	0.322146
0.5633	-31.2653	142.207	-9.53765	48.414	3.88641	2.37963	-0.482291	66.9008	3.92235	0.322146
0.5640	-19.9583	-103.161	116.791	33.7679	7.55404	3.88866	0.137797	159.994	10.9266	0.322146
0.5647	-17.8256	-331.473	292.248	20.021	10.604	3.59847	0.137797	161.503	17.0342	0
0.5653	-29.1327	-386.684	355.712	-6.83351	12.4313	1.74119	1.96361	78.7935	23.1419	0
0.5660	-32.7944	-424.496	185.114	-57.4854	11.5177	1.45099	4.09947	40.3489	26.1957	0.322146
0.5667	-27	-547.18	-19.0153	-98.9859	8.46773	1.74119	1.96361	100.459	26.1957	0
0.5673	-21.8093	-622.599	-73.6618	-88.6158	5.4178	1.1608	-2.61815	164.234	24.3466	0
0.5680	-14.4859	-669.248	-42.8294	-35.5063	2.97271	1.45099	-3.53106	117.849	22.2173	0.322146
0.5687	-19.9583	-768.162	5.69859	5.37489	-0.0772134	1.45099	-2.61815	-20.3721	18.8553	0
0.5693	-45.9121	-874.338	104.254	3.85634	-1.29976	0.522358	-2.92819	-169.3	11.5429	-0.322146
0.5700	-73.0731	-825.223	274.852	0.499525	-2.21345	-0.348239	-4.13392	-229.734	8.48909	0
0.5707	-95.9688	-541.7	446.05	9.65083	-4.95452	-2.49571	-6.57982	-149.179	8.48909	0.322146
0.5713	-103.574	-107.751	506.155	0.79924	-6.79478	-1.56707	-5.35687	-70.1345	2.38143	0
0.5720	-83.1327	476.694	381.086	-18.4225	-6.79478	1.45099	-2.61815	-96.9738	-5.23914	0
0.5727	-51.7064	1058.33	137.846	-25.7555	-6.79478	1.1608	-3.53106	-80.1947	-10.4223	0.322146
0.5733	-22.7347	1155.05	-85.239	-26.9744	-5.88108	-0.0580398	-5.06405	92.8419	-13.7843	0
0.5740	7.48436	782.136	-273.533	-36.1257	-4.34969	-2.20551	-6.88987	225.602	-15.3252	0
0.5747	36.1744	483.064	-379.766	-59.3236	-1.9046	-2.78591	-8.71568	224.057	-17.7627	-0.322146
0.5753	49.8957	379.629	-352.293	-86.1781	0.23164	0.522358	-7.49273	227.111	-19.5838	-0.322146
0.5760	46.8778	351.27	-268.374	-80.6833	0.23164	2.66983	-5.66692	247.267	-19.5838	0
0.5767	38.6289	375.039	-199.691	-44.6775	-1.29976	0.232159	-6.88987	249.998	-18.6872	0
0.5773	25.1893	148.577	-155.122	-30.0315	-2.21345	-2.20551	-8.71568	247.555	-18.6872	0
0.5780	4.14456	-391.274	-76.7211	-48.9535	-2.81829	-3.13415	-8.11282	209.721	-21.1247	0
0.5787	-10.2206	-574.033	30.1126	-64.4987	-2.81829	-1.91531	-4.44397	106.567	-21.713	0.322146
0.5793	-13.5604	-124.534	58.4856	-59.6233	-3.43599	-0.696477	-1.3952	-9.09017	-17.7627	-0.322146
0.5800	-12.9568	243.176	-42.2296	-42.5396	-3.43599	-2.49571	-2.92819	-44.1933	-9.8339	-0.644291
0.5807	-14.7675	127.274	-167.359	-22.9981	-2.81829	-4.00474	-4.44397	-23.1386	0.868521	0.322146
0.5813	-34.3234	37.5382	-180.136	-14.4663	-2.81829	-4.64318	-3.8411	-24.6477	7.56454	0.322146
0.5820	-56.5753	222.763	-65.3839	-17.8231	-2.81829	-4.35298	-4.13392	-48.7564	10.6184	0
0.5827	-56.5753	334.144	89.9178	-19.0419	-1.9046	-0.696477	-4.75401	-60.9724	13.9804	0
0.5833	-47.1193	352.434	196.751	-10.7897	-0.0772134	1.74119	-5.97696	-14.5874	15.2131	-0.322146
0.5840	-44.705	340.241	268.434	-1.03901	0.836478	0.522358	-9.02573	77.2845	15.2131	0.322146
0.5847	-44.383	21.3721	360.631	3.85634	0.836478	0.522358	-11.4716	132.832	14.2886	0.322146
0.5853	-40.3994	-336.61	441.191	8.43199	1.14533	2.08943	-12.0745	139.838	12.7477	-0.966437
0.5860	-36.1342	-309.142	451.569	14.5262	2.97271	3.88866	-9.33577	101.393	12.7477	-0.322146
0.5867	-30.6617	-210.57	356.972	16.0647	2.36788	3.88866	-6.26978	-12.4316	11.8511	0.322146
0.5873	-21.4873	-170.908	190.633	14.5262	-0.990905	2.66983	-5.66692	-151.91	8.48909	0
0.5880	-13.8823	-123.301	6.29845	21.8592	-4.04083	1.74119	-3.22101	-250.177	7.56454	0
0.5887	-3.78242	-216.392	-241.8	39.2427	-4.95452	1.1608	0.740661	-300.551	8.48909	0
0.5893	7.20269	-329.897	-586.655	50.552	-4.04083	1.74119	2.27366	-313.665	9.10546	0
0.5900	3.54099	-369.902	-910.156	59.7033	-3.74485	2.66983	2.27366	-286.79	10.3102	0
0.5907	-2.89717	-273.179	-1033.43	76.1876	-5.26338	0.232159	-0.792335	-248.058	10.002	0
0.5913	9.617	-11.6451	-902.837	85.9383	-7.39961	-1.56707	-3.22101	-247.123	7.87272	0
0.5920	22.1312	101.928	-586.055	86.258	-8.3133	-0.0580398	-2.30811	-210.511	6.94817	0
0.5927	24.5857	36.3052	-251.278	88.376	-7.39961	1.45099	-1.3952	-56.4094	10.3102	0.322146
0.5933	36.4963	43.9087	-40.0701	89.9146	-5.26338	3.30827	-0.172247	132.832	15.8015	0
0.5940	40.4397	130.288	125.609	82.9012	-3.43599	3.59847	-0.792335	237.782	18.2389	-0.322146
0.5947	19.9985	279.55	319.721	78.925	-4.04083	2.37963	-3.22101	233.219	17.0342	0
0.5953	1.08644	328.664	454.028	87.4769	-5.57223	2.66983	-2.30811	185.612	14.2886	0.322146
0.5960	-1.97169	180.978	422.236	96.0088	-6.17707	3.88866	0.137797	133.119	11.2347	0.322146
0.5967	4.14456	107.066	269.394	90.2143	-4.95452	3.59847	1.05071	40.0255	6.94817	0.322146
0.5973	12.997	3.35651	106.414	75.5682	-3.12714	2.96003	0.137797	-7.25777	2.38143	0
0.5980	16.9404	-319.554	-80.98	58.4844	-4.04083	0.522358	-2.61815	54.3973	-1.59696	0
0.5987	12.0715	-604.241	-201.19	21.5595	-5.57223	-0.348239	-5.35687	77.2845	-5.85551	0
0.5993	-9.57676	-655.548	-116.071	-28.4929	-4.34969	2.08943	-5.66692	38.5165	-12.8877	0
0.6000	-43.1759	-449.567	41.3898	-40.4016	-3.12714	3.59847	-6.26978	18.0726	-18.6872	0
0.6007	-58.7482	-225.846	58.4856	-18.7222	-3.74485	4.17886	-7.49273	-3.91632	-18.379	0
0.6013	-54.7646	-132.137	-10.7973	-3.4767	-5.26338	5.1075	-3.22101	-11.8208	-15.017	0
0.6020	-46.8376	154.126	17.8756	-10.7897	-7.09076	5.74594	3.18656	24.468	-13.1679	-0.322146
0.6027	-33.7198	599.926	116.491	-48.3341	-6.79478	5.74594	4.40952	33.3426	-13.4761	0
0.6033	-24.8674	713.773	156.441	-70.9126	-6.17707	4.17886	-0.482291	-7.58113	-12.5795	0.322146
0.6040	-15.0894	317.636	216.247	-50.472	-6.17707	3.59847	-3.22101	-35.9295	-8.90935	0
0.6047	11.1461	-188.65	410.659	-32.7689	-4.34969	6.03614	0.430617	-78.9731	-7.08825	0
0.6053	39.2325	-317.978	643.221	-39.7822	-2.5223	6.67457	5.63247	-139.407	-4.93096	0
0.6060	47.7631	-258.178	741.777	-55.3474	-2.5223	4.8173	7.45828	-122.628	-1.59696	0
0.6067	31.3055	-436.141	609.63	-57.4854	-4.04083	2.66983	5.32242	-64.6373	-2.4935	0
0.6073	6.55887	-574.992	342.935	-51.0715	-6.79478	1.1608	2.56648	-48.7564	-7.36842	0
0.6080	-2.57526	-253.931	78.6406	-51.9906	-8.01732	1.74119	3.18656	-49.6906	-10.4223	0
0.6087	8.73175	233.107	-173.417	-49.8526	-7.09076	3.88866	5.92529	-36.8637	-11.3468	0
0.6093	31.5872	392.712	-354.093	-43.7584	-5.26338	3.59847	5.01238	5.56908	-14.4006	0
0.6100	57.8629	136.384	-366.63	-50.1723	-2.81829	2.37963	2.27366	61.4036	-18.9674	0.322146
0.6107	83.7765	-54.3207	-238.741	-57.7851	-0.990905	1.1608	-1.3952	97.405	-22.0212	0
0.6113	96.009	200.158	-138.026	-41.9202	-0.990905	-0.986676	-5.66692	74.8412	-21.713	-0.644291
0.6120	87.1565	597.802	-189.913	-18.7222	1.14533	0.870597	-4.75401	-36.8637	-18.6872	0
0.6127	74.3205	710.417	-389.484	-10.7897	4.19526	2.66983	-3.53106	-126.903	-16.5299	0.644291
0.6133	74.924	504.436	-567.7	-4.69554	5.4178	0.870597	-6.26978	-148.569	-15.017	0
0.6140	67.9226	335.994	-550.304	1.71837	6.3315	0.522358	-6.88987	-190.966	-11.3468	0
0.6147	37.0999	342.707	-456.667	17.5833	5.10895	2.37963	-2.61815	-241.015	-7.36842	0
0.6153	9.617	-7.32953	-341.616	53.9088	2.05902	4.8173	3.18656	-295.952	-3.10987	0
0.6160	-2.89717	-833.443	-1.91953	81.9821	-2.21345	5.74594	7.45828	-383.225	0.560336	0
0.6167	-11.7496	-1351.92	468.364	88.376	-7.09076	3.30827	6.54538	-396.662	1.45687	0
0.6173	-28.5291	-1075.18	721.322	91.4331	-9.8447	1.1608	2.27366	-275.831	1.14869	-0.322146
0.6180	-38.2668	-288.112	693.549	94.4902	-10.7584	0.870597	0.430617	-159.851	1.76506	-0.322146
0.6187	-8.69151	274.618	407.899	91.1334	-9.53585	2.08943	2.56648	-109.801	5.74345	0
0.6193	25.7929	307.909	-131.608	78.6253	-6.48592	4.8173	5.01238	31.5102	14.5968	0.322146
0.6200	30.0581	136.11	-615.328	65.198	-5.26338	4.5271	3.47938	314.994	21.9091	0
0.6207	31.5872	-1.57551	-849.391	55.4273	-4.95452	2.66983	-0.792335	502.367	24.3466	0
0.6213	27.9255	-56.4442	-913.815	40.4815	-3.43599	2.66983	-2.92819	481.312	25.2712	0
0.6220	9.9389	24.3861	-805.181	16.0647	-2.5223	3.59847	-2.61815	390.698	30.7625	-0.322146
0.6227	3.82266	121.109	-475.863	-15.0657	-2.21345	5.74594	-2.30811	255.208	40.8485	-0.322146
0.6233	5.67363	32.3321	30.7124	-41.001	-2.5223	6.67457	-4.75401	84.9015	49.982	0
0.6240	5.35172	-52.8137	457.687	-39.4825	-2.81829	3.88866	-8.71568	18.6834	56.3978	0
0.6247	11.7496	23.1531	645.321	-11.1094	0.836478	1.45099	-12.3845	86.7339	60.6844	0
0.6253	24.9076	15.2071	643.821	17.883	4.8001	1.45099	-13.9003	170.342	57.6306	0
0.6260	34.6453	-192.006	402.141	37.1247	5.4178	4.5271	-10.2487	184.39	49.0855	0
0.6267	27.3219	-424.839	-114.572	42.5995	5.72666	7.25497	-2.92819	182.271	39.924	0
0.6273	11.1461	-357.366	-655.338	37.4244	5.72666	3.88866	-1.70524	191.109	31.687	0
0.6280	4.14456	107.682	-885.082	33.4482	4.8001	0.232159	-3.53106	180.115	24.6548	0
0.6287	12.3935	475.735	-694.689	31.9297	3.88641	1.45099	-1.3952	176.773	18.8553	0
0.6293	25.7929	551.153	-174.377	35.5862	4.19526	2.37963	0.430617	144.113	14.2886	0
0.6300	27.3219	364.696	460.087	41.3807	4.50411	1.1608	0.137797	53.7865	8.18091	0
0.6307	12.0715	-336.953	1033.84	24.5966	2.05902	-2.49571	-0.482291	37.6182	-4.34261	-0.322146
0.6313	-3.50075	-1262.8	1422.61	-29.7118	-0.682051	-6.15222	-0.482291	114.795	-20.5083	0
0.6320	-19.073	-1723.95	1452.84	-91.9726	-3.12714	-6.50045	1.65357	20.1924	-36.674	0
0.6327	-32.1908	-1394.05	1115.01	-104.181	-7.09076	-6.15222	3.78943	-302.347	-49.1975	-0.322146
0.6333	-17.8256	-675.07	646.281	-79.4645	-11.9809	-6.50045	3.78943	-523.925	-59.8719	0
0.6340	16.6587	-255.164	182.715	-68.1752	-15.9446	-6.79065	4.09947	-497.049	-68.1089	0.322146
0.6347	37.0999	-143.44	-207.009	-62.9801	-16.2534	-6.15222	3.78943	-360.948	-66.2878	0
0.6353	35.8927	154.126	-334.298	-59.0239	-12.5858	-2.78591	5.01238	-179.684	-61.3848	0
0.6360	51.1431	738.844	-241.201	-61.1419	-9.53585	0.522358	7.14824	53.1757	-58.359	0
0.6367	91.4218	1214.58	-176.177	-59.3236	-8.3133	1.1608	5.92529	205.158	-52.2514	0
0.6373	104.218	1342.13	-153.622	-49.2532	-7.39961	-0.0580398	1.34352	239.938	-45.2191	0
0.6380	74.0388	1044.9	-115.172	-32.1494	-7.09076	-0.0580398	-0.792335	277.771	-39.4197	0
0.6387	26.3964	309.142	-247.619	-15.6851	-7.09076	0.232159	-0.172247	327.821	-30.5663	0
0.6393	-31.2653	-159.332	-625.706	-1.33873	-6.48592	-0.348239	-0.792335	382.757	-18.0708	0
0.6400	-80.7184	27.1261	-911.955	20.6404	-7.09076	-1.91531	-1.99806	358.649	-3.10987	0.322146
0.6407	-90.778	297.223	-847.891	39.5624	-9.227	-2.78591	-0.172247	222.548	10.6184	0
0.6413	-73.6767	506.902	-513.713	51.1514	-11.3632	-3.42435	2.87652	138.293	18.2389	-0.966437
0.6420	-54.161	660.685	-56.2661	66.4169	-11.3632	-2.78591	4.70234	134.341	24.6548	-0.966437
0.6427	-32.1908	553.551	340.776	80.4436	-9.8447	-1.27687	4.09947	80.3385	29.8379	0.322146
0.6433	-20.8838	336.61	488.819	88.0763	-9.8447	-1.56707	-0.172247	-35.3187	27.0923	0.322146
0.6440	-17.8256	355.174	418.877	93.5711	-10.1536	-1.91531	-1.70524	-85.692	23.1419	-0.322146
0.6447	5.9553	526.082	294.107	89.9146	-8.01732	0.232159	2.27366	-12.4316	24.0384	0
0.6453	38.307	244.135	162.86	73.7299	-6.48592	1.1608	1.96361	83.6799	23.7583	0
0.6460	53.2757	-334.829	46.6085	65.4978	-4.04083	0.522358	-4.13392	105.956	24.0384	0
0.6467	65.7899	-449.567	-28.193	80.1438	-0.386067	0.870597	-6.57982	90.3987	24.3466	0
0.6473	97.2162	-149.879	-72.7621	98.1467	1.14533	1.45099	-5.66692	51.3433	23.4501	0
0.6480	127.435	223.379	-96.5162	81.9821	0.836478	2.96003	-4.13392	-42.0376	25.8875	0
0.6487	128.039	509.642	-131.008	44.4378	-0.0772134	4.17886	-0.172247	-119.25	28.0168	0
0.6493	99.0671	468.405	-251.878	11.7888	-1.29976	4.17886	5.01238	-178.175	23.7583	0
0.6500	55.7303	-28.0851	-406.28	-39.1828	-0.386067	3.88866	5.92529	-266.957	13.6722	0
0.6507	1.40835	-568.895	-402.321	-95.0297	1.45418	3.59847	4.70234	-265.735	3.92235	0.322146
0.6513	-62.6916	-635.066	-266.814	-127.379	3.59042	4.8173	6.23533	-113.142	-4.34261	0
0.6520	-110.897	-481.283	-139.885	-145.981	8.15888	8.47381	9.90419	6.79068	-11.3468	0
0.6527	-110.897	-329.281	-59.6253	-140.187	9.99913	8.47381	9.59414	1.29346	-10.7304	0
0.6533	-57.5008	-142.823	-88.5982	-107.238	7.55404	5.45574	6.23533	-35.3187	-1.28877	-0.322146
0.6540	-7.76603	-131.247	-125.849	-75.808	4.19526	3.88866	4.09947	-96.9738	8.48909	0
0.6547	1.40835	-158.099	-48.3481	-75.1885	0.836478	2.37963	2.87652	-139.083	9.69382	0
0.6553	11.468	-7.67203	48.1081	-85.5587	-1.29976	3.30827	5.01238	-142.748	7.25635	-0.322146
0.6560	21.8495	162.346	34.3715	-50.7718	-2.5223	5.45574	8.97405	-183.025	7.56454	0
0.6567	-5.02981	405.864	-112.712	16.3644	-4.34969	2.66983	6.8382	-194.63	7.56454	0
0.6573	-35.5306	472.995	-196.931	60.003	-4.04083	-3.13415	1.96361	-125.682	9.10546	0
0.6580	-30.9434	-79.0493	-75.7613	58.4844	-2.81829	-7.71929	-0.482291	-33.1989	10.002	0
0.6587	-15.4113	-468.748	130.528	45.6566	-1.9046	-9.80872	0.740661	57.128	7.25635	0.322146
0.6593	-6.23696	-138.234	384.085	52.3702	-0.0772134	-8.58989	5.32242	146.233	6.94817	0.322146
0.6600	4.42623	78.4328	739.977	57.5653	-0.682051	-8.93812	5.92529	159.994	9.10546	0
0.6607	21.2459	-220.023	1062.52	53.2894	-2.21345	-9.51852	3.18656	55.0081	14.2886	-0.322146
0.6613	35.8927	-350.037	1035.04	49.6328	-1.60861	-7.71929	1.96361	-120.184	22.8337	-0.322146
0.6620	41.0835	-35.4147	674.654	43.8383	-0.386067	-6.79065	1.96361	-292.61	31.3788	-0.322146
0.6627	41.0835	153.509	304.785	39.5624	-0.386067	-4.64318	3.18656	-251.399	37.1783	0.322146
0.6633	30.3801	104.668	-36.411	43.2189	-0.0772134	-3.13415	1.65357	-40.5285	35.9456	0.322146
0.6640	20.6021	286.537	-379.406	42.5995	1.14533	-4.00474	-2.30811	36.3966	29.2496	-0.322146
0.6647	25.5112	492.517	-586.655	31.3102	2.05902	-3.71455	-1.99806	81.8475	23.1419	0
0.6653	15.1297	286.263	-655.938	22.1589	0.836478	-4.64318	-1.3952	245.435	17.6506	0.322146
0.6660	-20.2802	178.512	-716.643	17.5833	-0.990905	-5.28162	1.05071	319.593	13.6722	0
0.6667	-40.3994	360.997	-749.335	9.35111	-1.9046	-5.57182	8.37119	221.326	12.4675	0
0.6673	-29.1327	68.6373	-652.279	-1.03901	-3.74485	-8.29969	16.0017	30.576	6.35982	0
0.6680	-18.1476	-520.671	-370.289	-9.8906	-5.26338	-8.00949	23.0122	-169.3	-4.34261	0
0.6687	-10.8242	-594.514	32.272	-18.7222	-6.17707	-5.57182	24.8552	-268.501	-11.9632	0
0.6693	2.6155	-375.998	366.39	-24.5367	-4.34969	-1.56707	25.7681	-283.736	-10.4223	0
0.6700	1.08644	-258.52	591.034	-19.0419	-0.990905	2.96003	29.4197	-221.506	-0.0560336	0
0.6707	6.2772	-9.17904	681.672	-9.27119	2.36788	1.1608	26.371	-24.6477	7.56454	0
0.6713	35.8927	308.183	401.481	-4.99525	6.64035	-1.56707	19.3605	176.163	9.10546	0
0.6720	47.1595	433.607	-220.746	-2.85728	9.69028	-1.27687	16.3118	260.381	4.81889	-0.322146
0.6727	45.0269	509.3	-782.267	-2.85728	11.5177	0.870597	16.0017	274.43	-2.18531	-0.966437
0.6733	64.2609	562.113	-991.016	-6.83351	14.2716	4.17886	16.9146	257.327	-4.93096	0
0.6740	94.7616	451.348	-781.967	-8.05235	13.6539	2.96003	13.5558	278.993	-7.08825	0.644291
0.6747	95.3652	230.093	-247.919	-8.05235	9.07257	-0.696477	8.68124	378.194	-13.4761	-0.322146
0.6753	54.8048	83.2964	447.01	-8.97147	6.93633	-0.986676	9.59414	444.089	-14.4006	-0.966437
0.6760	15.1297	185.499	1069.24	-5.61466	6.3315	-0.986676	9.59414	421.525	-4.62277	0.322146
0.6767	0.160954	412.577	1384.76	-6.53379	3.88641	-0.348239	8.68124	362.314	5.43526	0.322146
0.6773	-1.64978	435.799	1283.74	-8.97147	1.45418	0.232159	7.14824	224.667	12.1593	0
0.6780	5.35172	236.189	812.56	0.179829	1.75017	0.232159	3.18656	40.6363	18.8553	0
0.6787	15.4113	-28.4276	314.862	12.3882	3.59042	0.870597	0.740661	-8.80274	21.9091	0.322146
0.6793	14.8078	-386.958	54.8265	19.4215	4.19526	2.66983	-1.70524	8.91053	17.9588	0
0.6800	8.08793	-689.387	-155.122	23.3778	4.8001	6.67457	-4.13392	-120.472	8.79728	-0.322146
0.6807	13.9225	-580.472	-319.301	16.0647	6.64035	9.40244	-5.35687	-327.067	-3.10987	0
0.6813	29.7765	-407.714	-273.832	4.77546	7.86289	8.76401	-8.71568	-415.274	-14.4006	0
0.6820	39.5544	-678.427	-131.008	5.9943	9.38142	8.76401	-9.62859	-305.725	-20.8165	0
0.6827	31.9091	-851.459	-43.7292	15.745	9.99913	8.47381	-4.44397	-84.4704	-24.7669	-0.644291
0.6833	10.8644	-537.453	17.2757	21.8592	11.2088	9.69264	4.70234	36.0733	-33.6202	-0.644291
0.6840	-4.42623	-173.648	247.379	15.1456	11.2088	12.7687	13.5558	19.2942	-41.2688	0
0.6847	-26.0745	-11.6451	461.046	12.0885	6.64035	9.69264	15.6917	-24.0369	-37.2904	0
0.6853	-56.2936	92.1329	320.321	29.7917	2.05902	5.45574	13.8659	-53.3554	-30.8745	0
0.6860	-55.9717	246.875	49.6678	44.4378	1.75017	3.88866	13.5558	-38.3728	-30.5663	0.322146
0.6867	-20.8838	204.473	-90.4577	39.2427	3.59042	3.30827	13.5558	-2.08391	-36.3658	0
0.6873	7.20269	-123.917	-81.8798	27.354	6.02264	4.17886	15.6917	-15.4856	-39.4197	0
0.6880	14.8078	-293.592	55.1264	13.0076	8.15888	5.45574	16.9146	10.4555	-37.5986	0
0.6887	22.7347	77.1998	173.837	-8.35206	7.86289	5.45574	14.4687	173.396	-42.7817	0
0.6893	28.851	560.607	171.078	-30.9306	6.93633	4.8173	13.2458	300.371	-48.273	0.322146
0.6900	38.0254	619.517	48.4081	-39.1828	8.77658	2.37963	12.3329	302.203	-44.3226	0
0.6907	57.8629	528.548	-183.195	-37.0448	10.9128	1.45099	10.197	285.712	-36.674	0
0.6913	69.4516	533.754	-454.808	-39.7822	10.9128	1.45099	9.90419	260.058	-29.978	0
0.6920	68.848	349.42	-759.353	-35.5063	8.77658	-1.27687	7.76833	216.116	-22.6376	0
0.6927	62.1282	-63.1573	-993.475	-11.4092	9.07257	-2.78591	4.70234	52.2416	-8.90935	0
0.6933	45.3488	-220.982	-934.27	11.7888	10.2951	-2.49571	4.40952	-262.681	5.43526	-0.322146
0.6940	29.1729	5.13752	-681.552	20.6404	10.604	-2.49571	5.01238	-490.654	10.002	0
0.6947	33.4382	234.682	-359.911	18.5024	11.8265	-1.27687	5.63247	-562.693	6.668	0
0.6953	39.8361	383.876	-11.997	10.8697	13.9627	-1.27687	5.01238	-525.757	-0.672404	0
0.6960	20.924	430.867	213.547	2.63749	16.099	-1.91531	4.09947	-350.565	-5.85551	0
0.6967	-16.2966	117.136	341.976	-3.77641	17.0127	-2.20551	2.87652	-191.289	-4.34261	0.322146
0.6973	-48.6483	-336.953	395.422	-0.419601	16.099	-4.64318	1.34352	-183.348	2.68961	0
0.6980	-53.8391	-283.249	296.807	12.7079	14.8764	-6.79065	2.56648	-217.517	16.1097	-0.322146
0.6987	-50.1774	141.864	137.846	20.3407	11.8265	-9.22832	1.96361	-89.6442	27.0923	0.322146
0.6993	-57.5008	250.506	68.5631	18.2027	8.46773	-12.8848	-1.70524	223.158	30.1461	0.322146
0.7000	-57.8227	129.397	130.528	16.0647	7.86289	-12.2464	-1.99806	470.964	30.7625	0
0.7007	-56.5753	190.431	281.571	17.2836	8.77658	-11.3758	-1.70524	505.133	30.7625	0
0.7013	-65.4278	294.757	388.404	20.3407	10.2951	-10.4472	-1.08515	312.264	28.9414	-0.322146
0.7020	-53.5574	242.628	289.789	18.8021	11.2088	-8.00949	0.740661	-4.20376	24.6548	-0.644291
0.7027	-19.9583	179.402	-47.6882	7.51286	10.9128	-7.08085	-1.08515	-252.333	16.4179	0.322146
0.7033	1.08644	247.492	-402.621	-4.07613	11.5177	-5.28162	-3.53106	-457.096	6.668	0
0.7040	5.35172	364.079	-496.917	-5.61466	14.5676	-1.91531	-2.61815	-606.634	1.76506	-0.322146
0.7047	10.2608	286.263	-432.253	-0.419601	16.4078	0.522358	-2.92819	-613.641	2.38143	0.322146
0.7053	23.0567	16.7826	-342.516	-0.119886	16.099	2.08943	-4.13392	-575.196	2.38143	0
0.7060	30.0581	-119.944	-91.0575	-4.99525	14.2716	1.74119	-4.13392	-434.819	-2.4935	0
0.7067	6.2772	-208.446	200.71	-7.75263	11.2088	1.1608	-3.8411	-81.1289	-2.80168	0.322146
0.7073	-40.3994	-428.812	326.739	-11.1094	8.15888	0.870597	-4.13392	318.659	2.68961	0.322146
0.7080	-66.3533	-505.669	351.153	-14.1466	5.4178	1.74119	-4.44397	532.296	4.81889	0
0.7087	-59.9553	-531.973	388.404	-10.7897	6.02264	4.5271	-1.3952	500.247	4.81889	0
0.7093	-47.1193	-812.071	425.595	-6.53379	8.15888	4.5271	-1.08515	367.487	5.12708	0
0.7100	-27	-929.892	370.409	-5.91438	9.38142	3.30827	-4.13392	253.663	4.81889	0.322146
0.7107	4.42623	-524.301	220.566	-5.91438	10.604	3.88866	-5.97696	162.725	3.92235	0
0.7113	23.0567	22.8791	16.376	-3.77641	12.1354	5.45574	-6.88987	67.799	3.92235	0
0.7120	27.3219	311.265	-102.335	-1.03901	13.0491	8.18361	-6.26978	2.8025	9.41365	0
0.7127	42.8942	356.75	-68.1432	0.499525	12.7402	8.18361	-7.49273	15.9168	16.726	0
0.7133	72.7914	342.365	-54.4066	2.93721	10.604	4.8173	-11.4716	89.4646	20.0881	0
0.7140	88.9673	259.685	-44.9889	6.29402	9.07257	2.96003	-13.2974	149.611	20.0881	0
0.7147	61.2027	52.4712	22.7944	8.7317	9.07257	2.08943	-12.9874	117.238	22.2173	0.322146
0.7153	18.7914	-76.3093	27.6532	10.8697	9.38142	2.37963	-9.93864	60.182	28.325	0
0.7160	10.5425	-74.8023	71.9223	13.0076	9.07257	2.08943	-8.40564	65.6792	31.9952	0
0.7167	13.9225	-155.975	188.174	13.9268	9.69028	1.1608	-9.33577	60.5054	33.1999	0
0.7173	3.54099	-285.372	141.505	14.2265	11.2088	1.74119	-7.49273	-9.70098	39.3076	0
0.7180	0.482862	-257.561	-29.6927	15.1456	11.8265	2.37963	-3.22101	-82.3505	44.4907	0
0.7187	13.9225	-199.884	-132.567	16.0647	11.2088	3.30827	0.430617	-112.855	41.7451	0
0.7193	23.3786	-324.143	-172.517	15.1456	9.38142	3.59847	1.96361	-151.91	34.7408	0
0.7200	16.6587	-363.189	-179.836	13.6271	7.86289	2.37963	0.740661	-253.231	29.2496	0
0.7207	7.48436	-157.208	-133.767	14.2265	8.15888	1.1608	-0.172247	-338.061	26.7841	0
0.7213	10.8644	-166.661	-28.193	14.8459	9.99913	1.45099	-0.482291	-403.058	24.963	-0.322146
0.7220	19.7169	-390.315	89.9178	14.5262	11.5177	3.30827	0.430617	-438.772	24.0384	-0.322146
0.7227	14.5261	-221.256	136.946	15.1456	12.1354	5.1075	2.56648	-273.999	23.4501	0
0.7233	-5.02981	111.381	74.6816	14.2265	10.9128	4.17886	4.40952	-4.20376	19.4717	0.322146
0.7240	-23.0164	209.953	-4.07899	12.0885	9.38142	4.17886	9.2841	113.573	13.0558	0.322146
0.7247	-31.8689	350.311	17.8756	9.95054	8.77658	5.1075	12.3329	159.06	8.18091	0
0.7253	-20.5619	490.394	74.6816	9.35111	8.46773	5.74594	11.1099	357.715	7.25635	0
0.7260	-8.97318	453.198	120.75	9.65083	7.86289	6.67457	9.90419	584.178	8.48909	0.322146
0.7267	-23.0164	392.438	155.842	9.03142	7.86289	6.32633	7.45828	609.796	8.48909	0
0.7273	-30.6617	409.837	110.373	7.51286	8.15888	5.1075	4.70234	557.914	7.25635	0.322146
0.7280	-11.1058	386.616	-28.493	7.21315	6.64035	3.30827	2.87652	522.523	6.35982	0.322146
0.7287	19.3949	239.546	-265.315	7.51286	4.50411	2.66983	1.05071	417.537	5.43526	0.322146
0.7293	56.3339	174.539	-495.418	8.43199	4.50411	4.8173	2.87652	190.175	8.18091	0
0.7300	80.4367	227.01	-498.777	8.43199	5.10895	5.1075	6.23533	-61.2599	11.8511	-0.322146
0.7307	65.7899	204.473	-346.175	7.21315	4.50411	3.88866	9.2841	-55.4752	11.2347	0.322146
0.7313	22.4531	142.823	-281.451	5.37489	4.50411	4.8173	11.1099	144.724	5.74345	0.644291
0.7320	-10.2206	114.396	-213.727	4.45577	4.50411	4.8173	6.54538	146.557	0.868521	0
0.7327	-23.9419	66.1713	-56.566	5.37489	4.19526	4.17886	3.78943	-19.1504	2.9978	-0.644291
0.7333	-37.6632	-16.1661	18.2355	6.89345	4.19526	3.88866	2.56648	-105.848	6.668	0
0.7340	-43.7795	-77.5423	15.4762	6.89345	3.88641	2.96003	-8.40564	-101.249	7.56454	0.322146
0.7347	-52.0284	-104.668	41.0899	6.59373	2.36788	1.74119	-16.6563	-89.6442	7.87272	0
0.7353	-68.2042	-182.485	146.364	7.51286	0.23164	1.1608	-13.6075	-136.029	8.79728	0
0.7360	-73.6767	-362.572	312.703	8.13227	-0.990905	2.37963	-8.11282	-205.014	8.18091	0
0.7367	-91.0597	-503.546	374.968	7.21315	-1.9046	2.96003	-5.35687	-287.113	6.668	0
0.7373	-108.483	-468.131	307.544	5.07518	-3.43599	1.74119	-5.97696	-301.161	7.25635	-0.322146
0.7380	-85.5872	-307.018	237.601	3.53664	-3.12714	1.74119	-4.44397	-82.638	9.10546	0
0.7387	-51.1029	-133.096	175.397	2.3178	-0.990905	2.66983	-4.44397	173.396	10.3102	0.322146
0.7393	-39.1923	-48.8407	125.309	2.63749	1.75017	4.8173	-23.9767	191.397	12.4675	0
0.7400	-40.1178	-23.4956	98.7956	2.3178	4.19526	6.67457	-48.3841	102.004	12.7477	0
0.7407	-40.1178	72.8843	19.4352	1.09896	4.8001	5.74594	-52.673	50.4092	10.6184	0
0.7413	-32.4725	184.608	-81.8798	0.499525	5.4178	5.74594	-42.5966	-77.4641	7.87272	0
0.7420	-7.16245	155.016	-103.834	0.79924	6.64035	6.03614	-33.7431	-212.344	6.05163	-0.322146
0.7427	21.5276	36.5792	-69.7028	1.09896	8.15888	6.96477	-30.0743	-140.916	6.35982	0
0.7433	17.2623	0.274001	-11.997	0.79924	9.69028	9.40244	-26.7327	-1.14975	6.35982	0
0.7440	-10.2206	28.0851	39.2903	-2.25785	12.7402	11.5499	-20.6179	-9.98841	1.14869	-0.322146
0.7447	-24.2638	21.0296	-9.83757	-6.83351	15.7901	13.6393	-18.4821	-90.255	-3.72624	0
0.7453	-29.4143	-15.8921	-113.012	-7.13322	15.1853	12.7687	-20.928	-159.24	-2.18531	0.322146
0.7460	-25.7526	-27.1946	-146.904	-4.07613	13.345	11.2017	-22.4437	-205.301	3.30598	0
0.7467	-5.02981	-20.4816	-93.8169	-1.93816	10.2951	10.3311	-16.3462	-156.797	6.668	0
0.7473	6.55887	-79.3919	63.4044	-0.719316	6.02264	6.67457	11.73	-68.9129	7.25635	0.322146
0.7480	-1.64978	-103.778	293.148	0.179829	2.97271	3.59847	55.3601	-39.3069	7.87272	0
0.7487	-12.9568	-22.6051	426.255	0.499525	0.836478	1.45099	82.5234	-51.1996	7.87272	-0.322146
0.7493	-14.7675	3.63052	365.79	1.71837	0.527625	2.37963	88.931	-100.028	8.48909	-0.322146
0.7500	-6.23696	-43.0182	201.61	2.3178	0.23164	3.59847	80.3876	-64.0265	8.48909	0.322146
0.7507	6.2772	-89.7354	80.4402	1.09896	-1.60861	1.74119	72.4642	131.287	6.94817	0.322146
0.7513	27.6438	-120.835	15.4762	0.499525	-3.43599	1.1608	77.6488	242.381	6.94817	0.322146
0.7520	40.7616	-86.1049	-138.626	0.179829	-4.34969	1.45099	80.6976	169.12	7.25635	0
0.7527	26.3964	-37.8807	-389.784	1.71837	-3.43599	3.30827	81.0076	91.6203	9.69382	0
0.7533	12.3935	-35.1407	-572.319	2.93721	-2.5223	4.8173	79.1646	2.8025	11.2347	0.322146
0.7540	25.7929	19.7966	-601.292	2.93721	-2.5223	2.96003	69.7083	-172.067	10.6184	0.322146
0.7547	42.5723	99.8049	-462.426	2.93721	-1.29976	1.74119	58.7189	-227.29	11.5429	0
0.7553	30.702	90.8999	-176.476	3.23692	1.14533	2.66983	42.855	-50.3014	12.4675	0
0.7560	2.89717	49.1147	198.851	3.85634	4.50411	6.03614	17.5175	105.345	12.1593	0.322146
0.7567	-17.8256	60.6913	482.101	3.85634	7.55404	7.89341	-17.2591	191.109	10.002	0.322146
0.7573	-34.3234	96.9964	461.646	3.53664	8.15888	5.74594	-40.1507	310.719	8.18091	-0.322146
0.7580	-44.705	92.7494	214.447	4.45577	7.86289	3.59847	-52.673	312.264	9.10546	0
0.7587	-35.5306	64.6643	-7.43817	4.45577	8.15888	3.88866	-91.4286	186.223	10.6184	0.322146
0.7593	-19.3547	47.6077	-82.4797	4.15605	8.46773	7.89341	-117.662	130.388	10.6184	0
0.7600	-5.91506	-13.4261	-96.5162	4.77546	9.07257	9.11224	-105.157	161.18	9.69382	0
0.7607	8.40984	-109.258	-129.208	4.45577	7.86289	5.45574	-90.4984	145.012	8.79728	0
0.7613	15.1297	-127.274	-142.285	4.15605	5.72666	3.30827	-87.7597	55.9064	9.41365	0.322146
0.7620	13.2787	-77.8163	-109.953	2.93721	3.88641	3.30827	-96.6132	-36.2529	7.87272	0.644291
0.7627	7.48436	-49.7312	-63.5843	2.63749	3.28157	4.8173	-95.0802	-109.19	4.81889	-0.644291
0.7633	-0.120715	-49.4572	-98.0758	3.23692	3.28157	5.45574	-77.3905	-129.634	2.9978	-0.644291
0.7640	-1.97169	-32.4006	-178.036	2.3178	2.97271	4.17886	-61.8194	-118.963	-0.672404	0.322146
0.7647	-4.10433	8.49404	-116.071	0.79924	2.05902	2.96003	-68.2269	-160.461	-2.18531	0.322146
0.7653	-12.3532	30.8251	47.2084	0.499525	-0.0772134	2.37963	-101.488	-201.062	-0.0560336	0
0.7660	-25.149	36.3052	128.668	1.71837	-2.21345	4.17886	-116.146	-212.954	1.76506	0
0.7667	-36.7377	51.2382	126.569	1.41865	-4.04083	5.1075	-95.0802	-251.112	2.07324	0
0.7673	-35.2489	44.8677	140.605	0.179829	-4.95452	2.66983	-66.7112	-201.673	1.76506	0.322146
0.7680	-22.7347	9.11054	170.178	0.79924	-4.04083	2.08943	-30.3843	-32.9115	4.51071	0.322146
0.7687	-24.2638	-3.97302	150.023	2.01808	-4.34969	0.870597	7.45828	86.4465	7.87272	0
0.7693	-36.7377	13.0836	107.314	2.63749	-3.43599	2.96003	49.5726	177.995	9.10546	0
0.7700	-34.3234	1.23301	79.2405	2.01808	-0.990905	5.1075	101.746	328.145	8.18091	0
0.7707	-21.2057	-31.1676	54.5266	-0.419601	-0.0772134	2.37963	126.774	424.579	3.92235	0
0.7713	-15.4113	-23.4956	54.2266	-1.33873	-0.0772134	0.232159	119.143	386.422	1.14869	0
0.7720	-16.9002	6.37053	72.822	0.179829	-0.386067	-0.986676	101.143	284.167	1.14869	0
0.7727	-24.5455	26.8521	74.3817	2.01808	-0.682051	0.870597	88.3281	184.714	3.92235	0
0.7733	-40.7213	13.7001	60.645	1.09896	-0.682051	4.17886	84.6593	121.837	7.56454	0
0.7740	-51.3845	-19.2486	54.2266	-1.03901	-2.5223	2.66983	79.7847	104.447	8.79728	0
0.7747	-47.1193	-7.32953	48.1081	-1.03901	-4.04083	1.74119	76.7359	94.9618	10.002	0
0.7753	-39.5142	32.0581	17.2757	0.179829	-4.34969	1.1608	68.1925	81.2367	12.1593	0
0.7760	-33.076	55.2112	-11.6971	1.09896	-2.81829	2.37963	58.4261	72.398	13.9804	0
0.7767	-22.0909	79.9398	-4.67885	0.79924	-0.990905	3.30827	50.4855	81.2367	15.2131	0
0.7773	-14.1639	94.2564	-2.21945	-0.719316	-0.682051	1.45099	28.5068	92.5186	15.2131	0
0.7780	-12.3532	62.8148	-28.193	0.499525	0.23164	2.66983	1.65357	30.8994	16.1097	0.322146
0.7787	-15.0894	9.11054	-49.8477	2.63749	-0.0772134	1.74119	-19.705	-53.9662	17.0342	0.322146
0.7793	-18.7511	-3.97302	-56.2661	4.77546	-0.0772134	-0.0580398	-28.2485	-64.6373	18.2389	0
0.7800	-21.2057	31.7156	-46.7885	8.7317	1.14533	-0.0580398	-26.1126	-46.924	20.7044	0
0.7807	-26.3964	35.6887	-24.234	8.7317	-0.386067	-1.91531	-27.3356	-60.3616	19.7799	0
0.7813	-28.8108	-23.2216	-12.8968	7.21315	-1.29976	-0.986676	-28.2485	-93.9198	17.0342	0
0.7820	-20.5619	-54.9372	-19.3152	5.9943	-0.990905	1.1608	-28.2485	-103.693	15.8015	0
0.7827	-7.44412	-27.8111	-15.3562	4.45577	0.23164	2.96003	-27.9384	-119.25	13.0558	0
0.7833	0.160954	-4.93202	-6.17848	2.63749	1.75017	3.88866	-17.2591	-164.126	8.48909	0
0.7840	-4.42623	-15.0016	-12.8968	1.09896	3.28157	2.08943	-3.22101	-180.582	5.74345	0.322146
0.7847	-13.2385	-39.6617	-24.8339	2.01808	5.10895	1.1608	0.740661	-158.306	5.12708	0.322146
0.7853	-13.2385	-46.3747	-31.2523	4.77546	4.8001	-0.986676	-2.61815	-123.849	5.12708	-0.322146
0.7860	-5.63339	-26.8521	-35.5112	7.81258	3.88641	-3.13415	-5.66692	-66.1463	6.94817	-0.644291
0.7867	-1.36811	-10.686	-36.7109	6.89345	3.28157	-2.20551	-9.02573	23.8572	7.25635	0
0.7873	0.160954	-14.0426	-32.7519	2.93721	0.836478	-1.27687	-9.62859	79.7277	5.43526	0.322146
0.7880	3.82266	-19.5226	-28.7929	2.01808	-0.682051	-1.56707	-5.66692	94.6744	4.51071	0
0.7887	4.14456	-14.3851	-24.234	3.53664	0.23164	-1.91531	0.137797	107.178	5.12708	0
0.7893	0.764531	-6.09653	-14.7564	5.07518	1.45418	-0.348239	13.2458	84.9015	6.668	0
0.7900	-2.57526	-0.959004	-8.03802	5.37489	1.75017	-0.986676	26.371	40.0255	6.05163	0
0.7907	-7.16245	3.35651	-8.03802	5.67461	1.75017	-2.49571	32.1757	9.8447	2.68961	0.322146
0.7913	-10.8242	6.37053	-7.73809	5.67461	0.23164	-3.71455	33.7087	-8.80274	-1.87713	0.322146
0.7920	-10.2206	6.09653	-4.37892	5.9943	-1.60861	-5.57182	29.7298	-17.6414	-5.85551	-0.644291
0.7927	-9.89867	6.71303	-0.419896	7.21315	-1.9046	-6.15222	22.7193	-18.2522	-7.08825	-0.322146
0.7933	-12.0313	8.22004	1.13972	7.21315	-2.5223	-5.28162	0.430617	-20.0846	-7.67661	0.644291
0.7940	-10.5022	7.94603	1.73957	7.51286	-4.65854	-7.37105	-38.6349	-23.7494	-3.72624	0.322146
0.7947	-4.10433	7.32953	1.73957	9.65083	-6.48592	-9.22832	-61.5093	-26.8034	5.43526	0.322146
0.7953	1.40835	8.49404	1.43964	11.4891	-7.70847	-8.00949	-60.9064	-28.9233	11.8511	0.322146
0.7960	4.74814	10.686	0.479882	12.3882	-9.227	-6.50045	-49.3142	-30.4683	12.1593	0
0.7967	7.20269	10.686	-2.21945	11.4891	-10.1536	-6.50045	-24.5968	-32.3007	10.6184	0
0.7973	7.80627	9.11054	-3.77907	9.65083	-12.2898	-6.50045	4.70234	-33.8097	10.002	0
0.7980	7.48436	6.71303	-4.67885	9.35111	-13.8083	-7.37105	26.0782	-33.8097	10.6184	0
0.7987	6.88078	6.98703	-2.8193	11.7888	-14.1172	-6.15222	38.2732	-32.3007	14.5968	-0.322146
0.7993	3.54099	8.83654	2.0395	13.6271	-15.6357	-4.35298	30.0398	-31.9773	18.8553	0
0.8000	-0.442623	9.72704	6.8983	13.3074	-16.2534	-4.35298	12.04	-32.5881	18.2389	0.322146
0.8007	-2.57526	12.1931	12.117	14.2265	-15.0309	-4.93338	18.4476	-31.0791	15.2131	0.322146
0.8013	-1.64978	12.1931	11.5172	15.4453	-13.8083	-8.29969	44.0779	-31.0791	14.5968	0.322146
0.8020	3.82266	13.7001	9.35769	16.0647	-10.4495	-7.71929	64.5236	-33.5223	16.726	0.322146
0.8027	7.48436	17.6731	9.65762	14.5262	-4.34969	-3.13415	62.3878	-36.8637	15.2131	0
0.8033	0.764531	17.3991	9.65762	9.35111	0.836478	-0.986676	34.9144	-41.1393	9.10546	0
0.8040	-6.55887	17.0566	10.2575	5.9943	5.4178	2.96003	12.3329	-41.4268	4.81889	0
0.8047	-9.29509	16.7826	8.45791	3.23692	7.55404	5.1075	1.65357	-41.7501	0.868521	0
0.8053	-11.7496	17.3991	9.35769	2.01808	7.24519	4.8173	-19.1022	-41.4268	-1.87713	0
0.8060	-13.5604	18.5636	13.3167	2.93721	4.8001	5.1075	-44.4224	-39.5944	-0.672404	0
0.8067	-12.9568	15.2071	12.117	2.01808	1.45418	4.17886	-56.6347	-41.1393	-0.672404	0.322146
0.8073	-11.1058	13.4261	8.45791	0.499525	-0.682051	4.17886	-52.673	-42.3609	-0.672404	0.322146
0.8080	-10.5022	12.8096	5.09874	2.01808	-1.60861	3.59847	-41.6837	-42.9717	2.07324	0
0.8087	-10.8242	9.45304	4.79882	4.15605	-1.9046	3.30827	-26.4226	-43.87	2.38143	0
0.8093	-13.2385	6.98703	6.59837	4.77546	-2.5223	2.66983	-6.88987	-42.6484	-1.28877	0
0.8100	-16.2966	9.11054	6.8983	5.07518	-2.81829	0.870597	8.37119	-39.9177	-3.72624	0
0.8107	-16.9002	11.8506	7.49815	5.67461	-2.21345	-0.348239	16.3118	-38.6961	-1.87713	0
0.8113	-15.0894	12.4671	8.45791	5.07518	-3.12714	-0.986676	16.0017	-38.3728	-3.10987	0
0.8120	-12.6349	13.4261	9.05777	4.77546	-3.74485	-0.986676	9.2841	-36.8637	-8.60116	0
0.8127	-11.7496	14.3166	9.35769	5.07518	-4.04083	-2.20551	1.96361	-35.9295	-13.7843	0
0.8133	-11.7496	15.5496	9.35769	5.67461	-4.65854	-3.42435	-0.792335	-36.2529	-13.4761	0
0.8140	-11.7496	15.8236	9.65762	5.37489	-4.34969	-4.00474	-4.13392	-35.9295	-9.8339	0
0.8147	-11.1058	16.1661	9.35769	5.37489	-4.34969	-4.93338	-11.1616	-35.6421	-9.8339	0
0.8153	-10.8242	19.1801	10.5574	6.89345	-4.65854	-3.71455	-12.6946	-34.0971	-8.90935	0.322146
0.8160	-11.1058	21.3721	10.8573	8.7317	-4.65854	-3.71455	-10.8515	-32.9115	-4.03442	0.322146
0.8167	-12.0313	21.3721	10.8573	9.65083	-5.57223	-5.86202	-11.1616	-33.1989	0.868521	0
0.8173	-13.2385	21.0296	10.8573	9.95054	-6.79478	-7.37105	-6.88987	-33.1989	4.20252	0.322146
0.8180	-15.0894	19.5226	8.75784	11.1694	-8.3133	-9.80872	3.78943	-33.1989	6.668	0.322146
0.8187	-16.0149	22.2626	10.5574	14.2265	-8.3133	-9.51852	16.9146	-31.3665	11.8511	0
0.8193	-17.544	24.3861	11.8171	15.1456	-7.70847	-8.93812	19.9634	-31.3665	15.8015	-0.322146
0.8200	-22.0909	23.7696	9.05777	13.3074	-6.79478	-8.29969	16.9146	-34.0971	16.4179	-0.322146
0.8207	-23.3383	26.8521	9.05777	13.0076	-6.17707	-5.57182	16.0017	-34.4205	17.3424	0
0.8213	-15.693	26.2356	8.15799	11.7888	-7.39961	-7.37105	7.76833	-37.4745	15.4933	-0.322146
0.8220	-4.7079	25.8931	8.45791	10.2503	-7.39961	-6.79065	1.96361	-39.3069	11.2347	-0.644291
0.8227	-3.17884	28.0851	10.8573	9.65083	-5.57223	-3.13415	2.56648	-35.0313	10.002	0
0.8233	-7.16245	25.6191	9.35769	8.7317	-6.79478	-5.28162	-0.482291	-31.0791	10.3102	0.322146
0.8240	0.482862	24.7286	8.45791	9.65083	-7.09076	-5.86202	-2.30811	-28.025	10.002	0
0.8247	31.3055	25.8931	7.49815	9.35111	-4.95452	-3.71455	-6.26978	-25.2585	5.43526	0
0.8253	64.8644	24.7286	5.99852	7.21315	-3.74485	-3.42435	-15.7434	-22.8153	-0.364219	-0.322146
0.8260	78.9077	24.7286	6.8983	6.59373	-3.12714	-4.00474	-24.8897	-19.1504	-2.80168	0
0.8267	93.2326	25.0026	4.79882	5.67461	-2.21345	-4.35298	-35.879	-17.9288	-5.23914	0
0.8273	96.009	24.3861	0.479882	3.53664	-1.9046	-2.78591	-48.0913	-20.6954	-7.98479	0
0.8280	56.3339	24.7286	0.839793	3.23692	-2.81829	-1.91531	-52.363	-24.0369	-6.78007	-0.322146
0.8287	19.073	25.3451	3.2392	2.63749	-3.43599	-1.27687	-35.2761	-25.2585	-4.62277	-0.322146
0.8293	9.9389	25.0026	2.0395	2.63749	-4.34969	-0.348239	-9.93864	-24.0369	-3.41805	0
0.8300	4.42623	21.6461	-2.21945	2.93721	-6.48592	-0.696477	4.70234	-22.8153	-0.672404	0
0.8307	-33.3979	20.1391	-5.2787	3.53664	-8.3133	-1.91531	18.4476	-17.9288	3.92235	0
0.8313	-104.821	20.1391	-8.9378	5.07518	-10.1536	-4.00474	4.09947	-11.8208	9.41365	0
0.8320	-110.616	18.5636	-11.997	6.89345	-12.2898	-7.08085	-94.4773	-9.09017	14.2886	0
0.8327	-93.2326	18.5636	-11.3972	7.21315	-11.6721	-7.08085	-205.249	-8.47937	14.5968	0
0.8333	-155.16	21.3721	-9.23772	4.77546	-9.227	-4.64318	-217.462	-12.755	5.74345	0
0.8340	-202.158	24.3861	-6.83831	2.01808	-8.01732	-1.56707	-194.88	-21.917	-5.23914	0
0.8347	-214.994	28.0851	-3.17922	1.41865	-8.3133	-0.696477	-231.5	-31.6899	-8.29298	0
0.8353	-231.452	33.2226	2.63935	1.71837	-8.01732	-1.27687	-269.945	-40.2052	-10.1421	0
0.8360	-200.951	37.8122	9.95754	0.179829	-7.39961	-0.986676	-268.722	-45.0916	-16.5299	0
0.8367	-149.365	42.1277	16.6759	-1.93816	-6.17707	0.870597	-269.652	-44.8041	-20.5083	0.322146
0.8373	-122.204	46.0322	21.8946	-2.25785	-4.34969	1.45099	-229.364	-43.5825	-19.2756	0.322146
0.8380	-120.394	45.1417	22.7944	-2.25785	-4.95452	-0.986676	-122.864	-43.87	-19.5838	0.322146
0.8387	-193.628	40.8947	19.4352	-2.85728	-5.26338	-3.71455	-45.3353	-39.3069	-21.713	0.322146
0.8393	-264.729	40.5522	19.4352	-3.4767	-2.81829	-1.91531	-38.6349	-30.1449	-21.713	0
0.8400	-193.628	43.0182	23.6942	-2.55757	0.23164	0.870597	-21.5308	-21.917	-20.8165	0
0.8407	-19.073	39.6617	20.9348	-2.55757	1.45418	-0.696477	67.8824	-14.5874	-22.9458	-0.322146
0.8413	181.435	32.6061	15.1763	-2.85728	3.59042	-1.91531	142.345	-0.862309	-25.6914	-0.322146
0.8420	341.343	25.6191	8.75784	-1.03901	6.93633	-2.78591	155.763	10.4555	-24.1785	0
0.8427	461.294	13.7001	-3.17922	2.93721	7.24519	-7.71929	180.187	16.851	-19.5838	0
0.8433	478.395	4.86352	-11.3972	8.43199	6.3315	-12.2464	172.247	22.3482	-12.8877	0
0.8440	345.005	2.12351	-14.1565	10.57	6.02264	-13.4652	107.861	15.0185	-7.08825	0
0.8447	254.991	1.50701	-14.7564	8.7317	5.72666	-11.666	86.1923	0.359295	-4.93096	0
0.8453	280.623	7.60353	-7.43817	8.13227	6.64035	-6.15222	118.85	-4.20376	-2.18531	0
0.8460	324.885	13.0836	0.839793	8.13227	9.99913	0.522358	143.86	-1.14975	1.45687	0
0.8467	251.33	14.0426	6.29845	8.13227	15.4813	4.5271	136.54	4.63491	4.81889	0
0.8473	-32.7944	18.5636	16.376	9.65083	19.1489	5.74594	114.268	14.6952	8.79728	0
0.8480	-301.346	22.5366	22.4945	11.1694	18.5441	2.96003	117.627	16.851	13.0558	0
0.8487	-313.538	21.0296	19.1353	13.3074	17.3215	-0.986676	120.986	12.2879	19.4717	0
0.8493	-135.04	18.2896	14.2165	15.1456	17.6175	-2.20551	111.22	17.7492	25.2712	0
0.8500	52.3503	16.4401	13.6166	15.745	17.6175	-0.696477	155.763	25.6896	27.4004	0
0.8507	143.008	10.96	12.7169	13.9268	17.9264	1.74119	202.149	29.9652	26.5039	0
0.8513	163.449	0.616503	7.49815	11.1694	19.4578	5.1075	168.285	34.8517	24.3466	-0.644291
0.8520	100.556	-9.79554	2.0395	11.4891	20.3715	7.54517	108.464	40.6363	24.963	-0.644291
0.8527	-77.6603	-15.0016	-0.719822	12.7079	17.6175	4.8173	77.3388	50.1217	28.9414	0.644291
0.8533	-209.2	-15.0016	-2.21945	12.0885	12.1354	1.1608	53.5343	58.9604	32.8917	0.322146
0.8540	-149.969	-17.1251	-6.17848	10.57	8.15888	0.232159	30.0398	64.1342	34.7408	-0.322146
0.8547	-25.7526	-20.7556	-9.23772	9.35111	7.24519	-0.696477	16.6046	65.6792	35.3292	0
0.8553	51.7467	-23.8381	-12.5969	8.43199	5.72666	-2.78591	3.78943	58.6729	36.5619	0.322146
0.8560	106.994	-27.1946	-16.256	9.35111	2.97271	-4.35298	-4.13392	49.5109	37.7947	-0.322146
0.8567	101.481	-28.7016	-16.5559	11.4891	1.75017	-5.28162	1.34352	45.2353	38.9994	-0.966437
0.8573	75.246	-28.0851	-15.6561	12.0885	1.75017	-6.15222	15.0888	45.5227	38.9994	0
0.8580	137.495	-25.0711	-12.8968	11.4891	0.836478	-5.57182	27.5939	44.9119	38.9994	0.644291
0.8587	196.082	-18.6321	-8.63787	11.7888	1.14533	-5.57182	40.4091	36.3966	41.7451	0
0.8593	142.364	-11.3026	-5.2787	11.4891	3.59042	-5.28162	52.6214	20.8032	43.8743	0
0.8600	-15.4113	-2.46601	0.479882	10.2503	6.3315	-2.49571	61.1648	7.07812	42.3614	0
0.8607	-233.906	6.71303	7.19822	9.35111	7.55404	-1.91531	62.6978	-3.30552	38.9994	0
0.8613	-380.374	10.96	8.45791	8.43199	7.86289	-2.49571	55.6701	-9.70098	36.8701	0
0.8620	-274.185	8.83654	5.39867	8.43199	8.46773	0.232159	48.3497	-9.70098	35.049	0
0.8627	32.231	3.01401	2.33942	8.43199	9.69028	2.08943	36.1374	-9.09017	31.9952	0.322146
0.8633	219.903	0.890504	4.49889	6.89345	11.2088	2.96003	13.8659	-14.5874	29.2496	0
0.8640	171.376	1.23301	6.29845	4.77546	12.4313	4.5271	-7.49273	-21.917	27.0923	0
0.8647	-47.1193	0.890504	4.79882	2.3178	12.4313	2.96003	-16.9663	-31.0791	26.7841	0
0.8653	-330.962	7.32953	8.15799	2.3178	12.7402	3.59847	-19.1022	-41.7501	27.7086	0
0.8660	-437.754	14.6591	13.6166	3.85634	13.0491	4.8173	-21.5308	-46.924	28.325	0
0.8667	-323.638	12.1931	14.2165	2.93721	12.1354	2.37963	-26.1126	-41.1393	26.5039	0.322146
0.8673	-124.659	5.13752	12.7169	2.01808	10.604	2.08943	-24.8897	-25.2585	24.963	0
0.8680	114.318	-3.97302	6.8983	2.3178	8.15888	1.74119	-20.3079	-10.3118	27.4004	0
0.8687	334.342	-10.412	2.93928	2.3178	5.4178	-0.348239	-19.705	0.0718591	31.687	0
0.8693	438.72	-9.17904	9.05777	2.93721	4.8001	1.45099	1.96361	8.29973	37.4865	0
0.8700	462.219	-8.56254	15.1763	4.77546	4.8001	1.45099	34.6216	12.2879	43.5942	0
0.8707	445.722	-9.17904	17.8756	5.67461	3.28157	-2.20551	37.3603	15.306	46.9282	0
0.8713	332.209	-3.08251	26.4535	6.29402	2.66386	0.232159	33.0886	18.0726	50.5984	0
0.8720	220.829	-1.23301	32.272	4.77546	2.05902	2.96003	40.7191	27.8454	50.5984	0.322146
0.8727	209.844	-7.94603	30.4125	1.71837	1.14533	1.1608	27.5939	47.6785	43.5942	0
0.8733	264.769	-11.0285	28.9129	1.09896	2.66386	3.30827	-19.1022	58.6729	41.7451	0
0.8740	297.403	-18.6321	19.1353	0.499525	2.05902	3.30827	-65.1782	56.8405	43.5942	0
0.8747	154.596	-34.1817	1.43964	-1.03901	-1.9046	-0.696477	-84.0909	52.5649	43.286	0
0.8753	-117.939	-45.4842	-11.997	-0.119886	-4.34969	-0.348239	-87.7597	52.2416	47.2363	0.322146
0.8760	-301.668	-51.3067	-18.1155	1.71837	-3.74485	1.45099	-87.1568	54.6848	48.1609	0.322146
0.8767	-300.139	-54.0467	-21.4747	-0.419601	-4.95452	0.870597	-88.0698	51.9541	31.3788	0
0.8773	-180.188	-54.6632	-26.0336	-4.39582	-7.09076	-0.0580398	-89.5855	46.1335	10.3102	-0.322146
0.8780	-94.1178	-51.3067	-27.2333	-4.69554	-7.09076	0.232159	-85.9339	46.4569	7.87272	0
0.8787	-53.8391	-43.0182	-22.0746	-2.85728	-5.26338	-0.0580398	-79.8191	47.9659	11.5429	0.322146
0.8793	42.8942	-32.6746	-13.1967	-2.55757	-3.74485	-0.348239	-74.0316	44.3011	5.43526	0
0.8800	153.671	-21.7146	-0.719822	-2.55757	-2.21345	0.522358	-54.8089	39.1273	-2.18531	0
0.8807	199.744	-11.9191	10.5574	-1.93816	-1.29976	1.45099	-15.7434	34.5642	-3.72624	0.322146
0.8813	140.231	-9.17904	12.117	-1.63844	-0.990905	-0.986676	15.0888	27.2346	-2.80168	0.322146
0.8820	43.8197	-9.79554	9.95754	-1.03901	-1.60861	-2.49571	32.4857	20.8032	-2.18531	0
0.8827	7.80627	-11.0285	9.05777	-0.719316	-2.5223	-1.56707	41.0292	21.1266	2.38143	0
0.8833	-31.2653	-15.2756	4.19896	-0.419601	-2.81829	-1.91531	31.2628	25.4022	6.35982	0.322146
0.8840	-84.6618	-20.4816	-0.11997	-0.419601	-3.43599	-2.20551	16.6046	33.3426	6.05163	0.322146
0.8847	-80.0746	-24.1121	-1.31967	-0.419601	-4.04083	-1.56707	7.45828	34.8517	5.12708	0
0.8853	-38.2668	-24.4546	-3.47914	-0.419601	-4.65854	-0.986676	-1.08515	27.2346	4.20252	0
0.8860	-32.4725	-18.0156	-2.21945	-1.03901	-4.95452	-0.348239	-4.75401	15.0185	2.38143	0
0.8867	-95.6469	-7.32953	4.19896	-1.03901	-5.26338	0.522358	-3.8411	-6.03616	1.76506	0.322146
0.8873	-151.498	-3.35651	6.29845	-1.03901	-6.48592	-0.0580398	-5.97696	-20.9829	2.9978	0
0.8880	-144.778	-7.05553	3.53913	-1.63844	-7.09076	0.522358	-3.53106	-14.264	2.9978	0
0.8887	-107.236	-11.6451	1.73957	-2.55757	-7.39961	0.522358	5.92529	-0.538943	0.560336	-0.322146
0.8893	-63.8987	-14.3851	0.479882	-2.55757	-7.70847	-1.56707	7.45828	2.1917	0.252151	-0.644291
0.8900	21.5276	-15.2756	0.179956	-0.419601	-6.48592	-0.696477	5.63247	1.29346	4.51071	0
0.8907	142.364	-20.1391	-3.17922	-0.119886	-7.09076	-0.986676	4.40952	9.52133	5.74345	0.322146
0.8913	177.774	-21.7146	-4.97877	-0.419601	-7.70847	-1.27687	2.56648	17.1384	4.81889	0
0.8920	132.304	-14.6591	0.179956	-1.33873	-5.88108	1.74119	4.70234	13.5095	5.12708	-0.322146
0.8927	84.702	-8.56254	4.79882	-1.93816	-5.26338	1.74119	2.56648	-1.47311	2.07324	-0.966437
0.8933	13.9225	-3.97302	6.8983	-1.33873	-4.04083	2.96003	-1.70524	-13.9766	1.76506	0
0.8940	-84.3801	-4.31552	5.99852	-1.93816	-3.74485	4.17886	-3.53106	-14.264	1.76506	0.644291
0.8947	-149.043	-9.79554	2.63935	-3.4767	-5.57223	1.1608	-9.02573	-11.21	-3.10987	0
