MR32 ASCII
Name	NA_fast
Frequency	1500
Date	04-09-2015 09:40:59
"Time,s"	"RT TIB.ANT.,uV"	"RT MED. GASTRO,uV"	"RT LAT. GASTRO,uV"	"RT BICEPS FEM.,uV"	"RT VMO,uV"	"RT VLO,uV"	"RT RECTUS FEM.,uV"	"RT SOLEUS,uV"	"RT SEMITEND.,uV"	"Channel 12,uV"
0.0000	31.9261	61.6009	26.8866	-2.86901	12.8057	-5.14331	-1.83258	271.992	-1.1826	-7740.75
0.0007	38.6313	13.0842	-78.4032	-2.55716	10.6785	-3.6073	-1.52715	112.404	-1.4892	-10548.2
0.0013	10.2484	-60.7731	-220.95	1.40332	10.3777	0.0465458	1.22172	-7.52351	0.3504	-9616.22
0.0020	-31.2403	-69.6233	-396.097	1.40332	9.15304	0.349093	0.305429	42.5004	-0.876001	-9758.18
0.0027	-46.2128	-248.473	-273.715	-1.62162	6.70363	-2.39711	-3.05429	-116.789	-3.6354	-9889.2
0.0033	-40.9934	-413.251	154.742	-1.62162	6.70363	-2.09456	-3.05429	-480.857	-2.7156	-9785.22
0.0040	-6.81953	-452.313	400.418	-1.0291	6.10203	-1.16364	-2.74886	-449.119	-2.1024	-9812.91
0.0047	30.4022	-437.35	305.499	-0.405404	4.87732	-0.558549	-2.13801	-38.3649	-2.1024	-9815.16
0.0053	20.6491	-319.56	372.043	0.498959	3.05101	0.977461	-0.610859	-88.3888	-1.4892	-9815.81
0.0060	-12.6485	-178.563	749.223	-1.62162	0	-0.861097	-2.13801	-657.236	-3.3288	-9786.51
0.0067	-19.3538	-103.209	931.428	-2.86901	0.300804	-1.76874	-3.66515	-822.354	-4.2486	-9867.31
0.0073	-22.4016	19.1647	770.301	-2.86901	0.601608	-2.09456	-3.05429	-259.636	-3.6354	-9822.57
0.0080	-39.4695	166.593	549.639	-1.93347	0.601608	-2.09456	-2.44343	403.529	-4.2486	-9550.55
0.0087	-40.3838	321.311	313.757	1.12266	2.72872	0.977461	0.610859	478.316	-2.1024	-10478.3
0.0093	-31.2403	528.526	-173.034	-0.717254	0.902412	0.651641	0.305429	179.518	-2.409	-8633.09
0.0100	-36.7264	574.305	-689.353	-2.86901	-1.52551	0.349093	-1.83258	135.274	-4.81801	-2071.2
0.0107	-45.6033	386.923	-779.999	-2.86901	-2.75021	2.18765	-2.13801	255.849	-5.73781	109.129
0.0113	-22.7064	186.108	-681.431	-3.46153	-3.97491	3.09529	-2.44343	220.424	-6.35101	-198.299
0.0120	19.7347	-31.4849	-487.943	-1.93347	-2.75021	4.93385	-0.916288	143.844	-4.5114	-56.6569
0.0127	38.0218	-253.662	-102.217	-1.0291	-3.05101	4.02621	-1.52715	97.7558	-4.2486	74.6841
0.0133	41.6792	-218.866	106.202	-1.93347	-4.89881	2.79275	-4.27601	-71.6477	-5.43121	-29.2942
0.0140	58.7851	-9.51869	81.524	-1.62162	-5.50042	3.09529	-4.88687	-181.81	-5.12461	-1.60957
0.0147	67.9287	160.481	26.8866	-1.62162	-7.32673	1.8851	-5.1923	86.4456	-5.73781	0.321914
0.0153	46.8605	253.566	-5.76141	-1.34095	-6.42432	1.8851	-4.58144	476.771	-4.5114	-0.643828
0.0160	12.9914	207.787	76.0026	-1.93347	-3.67411	1.28001	-3.97058	503.328	-2.7156	-0.643828
0.0167	-16.6107	171.75	142.547	-2.55716	-2.4494	-0.256002	-4.58144	285.146	-3.3288	-0.321914
0.0173	-19.6585	293.519	-24.39	-2.24532	0.300804	-1.16364	-4.58144	328.444	-3.0222	-0.321914
0.0180	-2.85735	338.693	-295.992	-4.08523	0.601608	-3.30475	-7.31423	382.154	-2.7156	-0.643828
0.0187	-3.7717	132.402	-367.722	-4.67774	-0.32229	-3.0022	-7.92509	64.7719	-2.1024	-0.643828
0.0193	-8.03867	-90.9846	-169.674	-4.08523	0	-1.76874	-6.09251	-205.576	-1.1826	-0.643828
0.0200	12.6866	-25.9774	31.4477	-5.61329	0.601608	-3.30475	-5.78708	-179.069	-0.569401	-0.321914
0.0207	31.0117	206.864	-19.4928	-5.89395	0.902412	-3.30475	-5.48165	-0.199298	0.0438	0
0.0213	21.2587	237.362	-201.697	-5.61329	-0.923898	-2.69965	-5.1923	59.8891	-2.1024	-0.321914
0.0220	12.6866	164.746	-203.522	-5.30144	-3.3733	-1.46619	-3.35972	-48.1305	-3.942	0
0.0227	22.173	171.464	10.0825	-3.46153	-5.50042	1.58256	0.305429	59.2912	-3.942	-0.321914
0.0233	29.7926	77.1682	242.939	-3.46153	-10.3777	3.39784	0.610859	298.848	-6.04441	-0.321914
0.0240	37.1074	-90.0614	302.426	-2.55716	-14.6535	4.6313	-0.305429	370.246	-7.88401	0
0.0247	38.9361	-184.994	270.402	-2.55716	-16.179	3.72366	-1.52715	237.813	-8.80381	0
0.0253	26.44	-285.401	191.663	-3.77338	-15.8782	2.79275	-1.83258	-137.217	-9.11041	0
0.0260	2.62876	-397.079	-157.767	-1.34095	-13.4288	3.39784	1.52715	-489.427	-6.65761	0
0.0267	-25.7542	-327.806	-566.059	-0.0935548	-14.0518	1.8851	2.44343	-606.315	-6.65761	0
0.0273	-20.2681	-152.012	-607.301	-1.62162	-14.9543	-0.256002	-0.610859	-564.463	-7.88401	-0.321914
0.0280	10.2484	-155.069	-307.899	-1.62162	-13.4288	-1.46619	-2.74886	-415.537	-7.27081	-0.321914
0.0287	16.0392	-258.214	-90.3101	-2.55716	-13.4288	-3.6073	-4.58144	-128.697	-6.96421	0
0.0293	3.84789	-305.521	-32.9361	-1.34095	-10.3777	-4.51494	-5.48165	266.512	-5.73781	0
0.0300	-7.12432	-196.9	122.094	0.498959	-6.72512	-6.3535	-6.09251	391.621	-4.5114	-0.321914
0.0307	-4.68605	14.6123	155.03	0.18711	-6.42432	-8.4946	-7.0088	136.519	-5.12461	0
0.0313	18.8204	-63.511	96.4556	0.18711	-6.10203	-9.40225	-7.31423	-166.514	-4.2486	0.321914
0.0320	25.2208	-302.178	228.92	-1.0291	-7.62753	-10.9383	-9.14681	-268.455	-4.81801	0
0.0327	-6.81953	-289.062	314.333	0.498959	-7.62753	-10.6357	-9.45224	-113.152	-5.12461	-0.321914
0.0333	-34.8977	-313.162	229.208	4.45945	-4.57652	-9.40225	-6.39794	-17.2891	-3.942	0
0.0340	-20.8777	-442.858	15.2677	4.45945	-4.89881	-9.40225	-6.09251	-91.7768	-5.12461	0
0.0347	13.9058	-183.147	-265.793	3.86693	-5.50042	-9.40225	-7.31423	-193.07	-6.65761	0
0.0353	23.6969	183.37	-258.159	2.65072	-4.57652	-10.0306	-8.84138	-309.66	-6.96421	0.321914
0.0360	8.72443	222.432	7.05773	1.71517	-2.1486	-9.40225	-8.84138	-410.355	-6.35101	0
0.0367	5.06703	257.514	70.1932	3.24323	2.12711	-6.05095	-6.09251	-370.396	-3.942	0
0.0373	10.2484	297.499	42.1543	3.24323	2.72872	-5.44586	-5.1923	-180.564	-3.3288	0.321914
0.0380	6.59095	179.104	163.288	1.40332	0.902412	-5.44586	-4.27601	-248.924	-5.12461	-0.965742
0.0387	-0.419078	101.586	266.753	1.40332	-0.32229	-3.90984	-1.52715	-501.933	-5.43121	-0.965742
0.0393	-4.99083	121.101	217.301	2.02702	-1.52551	-3.6073	-0.305429	-448.82	-4.2486	0.321914
0.0400	-1.63821	125.685	7.63387	3.86693	-0.623094	-1.76874	0.610859	-162.877	-2.409	0
0.0407	11.4675	68.9229	-138.226	3.24323	-0.923898	0.651641	1.52715	57.7467	-1.7958	-0.321914
0.0413	27.0495	47.8481	-42.6824	0.498959	-4.89881	0.977461	4.27601	181.66	-2.7156	0.321914
0.0420	23.0874	140.329	44.2668	-1.62162	-9.47533	0.977461	7.94116	291.822	-2.409	0
0.0427	1.40962	191.615	-47.2916	-3.14968	-10.3777	0.651641	9.46831	190.529	-1.7958	0
0.0433	-5.6004	173.597	-130.88	-1.62162	-7.02592	2.18765	9.46831	15.9439	-0.2628	0.321914
0.0440	-0.723861	137.591	-22.5655	0.18711	-7.32673	5.2364	7.02488	115.145	1.8834	0
0.0447	-3.16213	28.9381	59.5346	-1.62162	-12.5263	3.72366	0.610859	227.15	0.963601	0
0.0453	-9.56259	-4.32957	-89.1098	-2.86901	-17.4037	0.0465458	-4.58144	289.381	-2.1024	0
0.0460	-8.03867	31.3894	-144.323	-1.34095	-23.8065	-2.09456	-7.31423	339.455	-4.2486	0
0.0467	-5.29562	17.6366	16.516	1.71517	-27.1798	-1.46619	-9.14681	223.463	-3.942	0
0.0473	-6.20997	79.3012	151.669	3.55508	-20.1539	0.349093	-9.75766	161.531	-1.7958	0
0.0480	2.32398	198.619	163.576	2.65072	-11.0008	-2.09456	-11.8957	213.1	-2.1024	0
0.0487	4.76224	197.696	111.723	1.71517	-5.80122	-6.65604	-16.7825	158.791	-4.2486	0
0.0493	-10.7817	68.9229	90.9823	1.71517	-1.2247	-9.0997	-21.364	6.47719	-6.65761	0
0.0500	-16.3059	-4.93444	125.119	3.55508	3.65262	-9.0997	-22.5857	-165.617	-6.65761	0
0.0507	1.40962	15.5037	122.718	7.20372	3.05101	-8.4946	-20.7531	-200.095	-4.5114	0
0.0513	24.3065	23.4624	64.4318	7.20372	-3.97491	-9.0997	-20.7531	-97.2576	-4.81801	0
0.0520	40.7648	71.6607	77.2509	5.39499	-11.6024	-9.40225	-20.7531	-64.9214	-7.88401	0
0.0527	48.4225	146.441	66.5443	4.45945	-14.6535	-6.65604	-16.7825	-65.5193	-8.80381	0.321914
0.0533	46.2509	105.852	-155.606	4.45945	-14.3527	-2.69965	-13.1174	-90.8302	-8.80381	0.321914
0.0540	35.8883	-21.1066	-310.348	7.82742	-14.6535	1.28001	-14.0337	-175.681	-7.27081	0.321914
0.0547	24.9161	-118.458	-160.791	8.45112	-17.7045	2.4902	-16.1717	-139.359	-6.04441	0
0.0553	13.9058	-112.059	-43.6427	2.33887	-18.0053	0.349093	-17.088	15.346	-6.35101	0
0.0560	4.15268	-57.717	-131.216	0.18711	-13.751	-1.46619	-15.5608	36.4218	-5.73781	0.321914
0.0567	2.62876	-43.0728	-212.692	2.02702	-10.0769	-3.30475	-15.5608	-78.9719	-5.12461	0.321914
0.0573	1.71441	-20.1834	-210.868	3.86693	-8.55143	-2.09456	-14.95	-230.937	-4.2486	0
0.0580	-1.943	-19.5786	-212.068	5.39499	-9.47533	-0.256002	-9.75766	-380.759	-2.7156	0
0.0587	0.495273	-97.4153	-203.234	2.93138	-10.0769	-2.39711	-3.66515	-337.761	-3.3288	0
0.0593	16.6488	-121.801	-53.3891	1.12266	-9.47533	-5.14331	-1.52715	-156.449	-4.2486	0.321914
0.0600	32.5357	-36.674	133.089	1.71517	-8.55143	-7.58696	-6.09251	-116.49	-5.12461	0
0.0607	29.4878	12.4475	94.9192	4.17878	-6.10203	-9.0997	-15.8663	-174.785	-5.43121	0
0.0613	12.3818	-36.3556	-82.9643	6.29936	-3.97491	-9.0997	-22.8911	-178.721	-3.942	0.321914
0.0620	-10.7817	-80.9247	-138.514	4.45945	-4.27572	-11.5434	-18.9205	-133.281	-3.942	0.321914
0.0627	-28.4973	-49.4717	-7.92194	2.33887	-4.57652	-13.6845	-7.92509	10.7621	-5.12461	0.321914
0.0633	-25.4494	2.10111	175.819	1.12266	-3.3733	-13.6845	-3.66515	235.072	-5.43121	0.321914
0.0640	-14.4772	25.277	211.492	2.33887	0	-12.451	-20.7531	376.375	-4.5114	0.321914
0.0647	-10.4769	34.7321	114.172	6.61121	4.87732	-10.3332	-53.4019	317.482	-3.6354	0.321914
0.0653	-12.039	6.97188	35.0966	5.39499	5.77974	-10.9383	-72.017	90.1326	-5.43121	0
0.0660	-16.0011	-47.6571	-67.4085	1.40332	3.95343	-10.9383	-63.465	-87.4919	-6.35101	0
0.0667	-11.6961	-55.2975	-184.893	0.18711	1.82631	-7.88951	-49.1259	-73.1425	-4.2486	0.321914
0.0673	-3.7717	-19.8969	-166.313	-0.0935548	-1.52551	-5.7484	-38.7574	9.86526	-2.1024	0
0.0680	-0.723861	-18.9737	-46.6674	0.498959	-4.27572	-0.558549	-25.9293	53.8105	0.963601	-1.60957
0.0687	3.23833	-63.8293	34.8085	-0.717254	-5.50042	4.32876	-24.7076	102.938	3.723	-0.965742
0.0693	10.2484	-83.9809	56.7979	-3.77338	-5.80122	4.6313	-36.9248	146.584	2.8032	0
0.0700	14.8201	-62.3012	49.164	-5.30144	-8.85223	3.72366	-40.59	143.844	2.19	0
0.0707	13.2962	-43.3912	29.6233	-5.89395	-13.1279	4.32876	-35.3977	94.0688	3.4164	0
0.0713	13.2962	-27.5055	18.9646	-4.08523	-9.77613	6.46986	-25.3185	27.8519	6.43861	0
0.0720	16.9536	-6.74903	21.0772	-2.55716	-4.57652	7.68005	-14.0337	-16.0933	6.74521	0.321914
0.0727	17.2584	-5.22095	17.0922	-4.36589	-8.85223	11.3339	-8.84138	-40.8063	4.3362	0.321914
0.0733	18.2108	-23.558	14.3555	-4.67774	-20.1539	16.8263	0.916288	-53.6112	3.4164	0.321914
0.0740	13.2962	-30.2752	79.3634	-1.34095	-28.7053	20.5034	38.452	-24.9123	2.19	0
0.0747	-0.723861	-12.2565	203.57	2.65072	-26.8575	24.7624	73.8496	21.1256	3.4164	0
0.0753	-3.7717	-4.01122	276.212	-0.405404	-25.0312	28.4395	67.7571	29.9944	5.21221	0
0.0760	5.06703	-19.5786	285.67	-6.2058	-24.4296	28.4395	64.0919	37.9165	4.94941	0
0.0767	11.7723	-39.4118	255.471	-7.42201	-14.9543	28.4395	83.6233	9.86526	6.74521	0
0.0773	11.7723	-65.039	160.551	-9.26193	-6.42432	27.206	89.4265	-68.5586	8.89141	0
0.0780	6.89573	-63.8293	20.1649	-9.88562	-3.05101	26.6009	87.5939	-63.9747	10.731	0
0.0787	-1.943	-23.558	-108.026	-9.26193	-0.923898	25.6933	92.4647	20.5277	11.3442	0
0.0793	-11.6961	-7.06739	-128.143	-10.79	-0.923898	23.5522	86.6776	127.053	8.89141	-0.321914
0.0800	-9.2578	-21.1066	-64.0477	-9.88562	-1.2247	22.3187	67.7571	167.61	7.66501	0
0.0807	-2.24778	-26.2958	-29.5752	-9.26193	-2.75021	20.2009	48.5311	102.34	5.82541	0
0.0813	-8.03867	-5.85765	-23.7658	-6.51765	-3.67411	19.8983	37.2302	55.953	4.6428	0
0.0820	-16.6107	15.822	-20.1169	-1.0291	-2.1486	20.5034	31.7486	31.5389	5.82541	0
0.0827	-15.0868	2.38763	-12.195	-1.34095	-4.27572	18.0598	25.64	-7.22456	3.1098	0
0.0833	-7.12432	-18.3688	4.8972	-2.24532	-5.50042	18.0598	37.2302	-18.8337	2.19	0
0.0840	-3.16213	-15.3127	6.72165	-4.67774	-5.19961	16.8263	56.1508	11.7088	4.6428	0
0.0847	-4.68605	-4.93444	-5.18527	-7.42201	-5.50042	14.7085	55.8453	58.9923	5.21221	0
0.0853	-3.7717	-4.61609	-0.912223	-4.98959	-3.05101	17.1521	51.28	78.8225	7.05181	0.321914
0.0860	-2.85735	-12.8614	9.45832	-5.30144	-3.97491	14.7085	40.59	55.953	6.13201	0
0.0867	-2.85735	-13.4662	13.1552	-4.36589	-4.89881	12.5674	17.088	27.8519	4.94941	0
0.0873	-2.24778	-8.27712	13.1552	-1.0291	-3.97491	16.2212	-2.74886	7.72281	3.723	0
0.0880	-3.16213	-8.59547	12.243	-1.93347	-6.42432	18.0598	-12.812	-26.1579	-0.876001	0
0.0887	-2.24778	-9.8052	21.0772	1.12266	-4.89881	20.2009	-10.9794	-40.5074	-0.569401	0
0.0893	-1.02864	-11.3333	33.2721	2.02702	-3.97491	19.5725	-8.53595	-22.8197	0.3504	0.321914
0.0900	-1.33343	-12.2565	39.3696	0.18711	-5.50042	18.0598	-11.5902	-6.62667	-1.4892	0.321914
0.0907	-0.114294	-12.2565	40.6179	0.498959	-4.27572	16.8263	-13.4228	-1.44491	-0.2628	0
0.0913	0.495273	-15.9175	42.7305	-2.24532	-4.57652	11.3339	-15.8663	-7.22456	-0.569401	0
0.0920	1.10484	-13.7846	50.7004	-1.62162	-3.05101	8.89024	-12.812	-12.1074	0.0438	0
0.0927	2.01919	-4.93444	37.5452	0.18711	-2.4494	6.46986	-7.61966	-10.2639	0.3504	0
0.0933	0.495273	-1.87827	-0.288071	-1.34095	-4.89881	0.0465458	-9.45224	-8.47018	-3.3288	0
0.0940	1.71441	-6.14417	-18.0044	2.33887	-3.05101	-3.30475	-10.9794	-5.08211	-3.3288	0.321914
0.0947	4.45746	-16.5224	-9.74639	4.7713	-1.8478	-7.88951	-14.3391	-7.52351	-4.5114	0.321914
0.0953	5.06703	-18.6553	-2.73667	5.67566	-2.4494	-11.2408	-10.3685	-11.2105	-6.65761	0.321914
0.0960	5.06703	-13.1797	-0.912223	8.13927	-1.2247	-13.6845	24.4183	-9.96491	-6.65761	0
0.0967	3.23833	-13.1797	-0.912223	5.98751	-3.05101	-18.5718	57.9834	-11.8084	-8.80381	0
0.0973	2.32398	-11.6516	3.36082	6.29936	-2.1486	-17.9434	59.8159	-9.06807	-7.88401	0.321914
0.0980	2.32398	-8.27712	7.05773	6.29936	-1.2247	-15.8256	49.142	-5.72983	-6.04441	0
0.0987	0.800057	-10.1236	6.72165	3.24323	-2.75021	-17.3383	40.8954	-10.2639	-7.27081	-0.965742
0.0993	2.32398	-8.27712	9.7944	5.98751	-0.32229	-16.4307	29.916	-10.9116	-5.73781	-0.643828
0.1000	3.23833	-6.74903	8.54609	5.67566	-1.2247	-18.2692	6.41402	-11.8084	-6.65761	0
0.1007	3.23833	-8.27712	7.3458	4.7713	-2.4494	-21.318	-11.8957	-13.6519	-8.19061	0
0.1013	4.76224	-9.51869	11.3308	8.13927	-0.32229	-22.5282	-18.0043	-10.2639	-8.49721	0
0.1020	2.32398	-10.7284	7.05773	8.45112	-0.923898	-27.718	-28.3728	-11.2105	-12.1764	0
0.1027	-0.723861	-6.74903	2.4486	11.4761	0.300804	-31.0693	-35.0922	-11.2105	-13.0962	0
0.1033	-2.24778	-7.06739	2.78468	10.8835	-0.923898	-34.7464	-38.1465	-9.36702	-13.9722	-0.321914
0.1040	-4.07648	-12.2565	2.78468	6.61121	-3.97491	-34.7464	-42.4225	-11.2105	-15.5052	-1.60957
0.1047	-2.55256	-11.0468	7.05773	5.67566	-2.4494	-22.5282	-41.2008	-8.47018	-10.95	-0.965742
0.1053	-0.723861	-8.27712	14.3555	5.98751	-1.8478	-8.79715	-49.1259	-4.48421	-7.27081	0.321914
0.1060	-0.723861	-7.67225	28.711	6.92306	-2.4494	-3.6073	-64.6867	-3.28842	-7.27081	-0.321914
0.1067	-1.02864	-7.38574	31.7358	5.98751	-3.3733	-6.3535	-70.1844	-4.18526	-7.57741	-0.643828
0.1073	-1.63821	-7.38574	1.87246	3.24323	-4.57652	-9.70479	-77.2093	-6.32772	-8.80381	0
0.1080	-3.46691	-5.5393	-16.7561	5.39499	-3.3733	-7.88951	-76.9039	-4.48421	-10.3368	0
0.1087	-5.29562	-3.088	-2.11252	9.04363	-1.2247	-4.51494	-56.7616	-0.498246	-10.0302	0.321914
0.1093	-5.6004	-1.55992	6.72165	9.35548	-0.623094	-4.51494	-50.9585	-0.498246	-9.72361	0.321914
0.1100	-5.6004	-1.2734	3.69691	8.13927	-0.623094	-7.26114	-63.1757	-2.93965	-11.2566	0.321914
0.1107	-5.90518	-1.87827	2.78468	6.61121	-0.923898	-9.0997	-64.0759	-5.08211	-12.483	0
0.1113	-5.90518	-3.088	3.07275	5.67566	-1.2247	-10.0306	-55.5399	-5.08211	-12.1764	0
0.1120	-5.29562	-2.48314	4.27305	7.20372	-0.32229	-8.19206	-45.7662	-3.88632	-10.0302	0
0.1127	-3.16213	-0.668536	4.8972	9.35548	0.601608	-5.7484	-37.2302	-6.02877	-8.19061	0
0.1133	-3.46691	-0.668536	3.98498	9.04363	0.300804	-6.65604	-34.1759	-4.48421	-9.11041	0
0.1140	-4.99083	-1.55992	3.36082	7.82742	0.902412	-9.0997	-26.5402	4.68351	-9.11041	0.321914
0.1147	-5.29562	-2.19662	3.07275	6.61121	1.20322	-11.5434	-23.1966	9.26737	-7.27081	0
0.1153	-6.51475	-1.87827	1.87246	4.7713	0.902412	-11.8459	-41.5062	8.02176	-5.73781	-0.321914
0.1160	-7.4291	0.254681	0.912223	5.08314	1.82631	-10.3332	-60.1214	10.1642	-5.12461	0
0.1167	-8.64824	1.1779	0	6.92306	2.12711	-11.2408	-55.8453	10.7621	-6.96421	0
0.1173	-8.95302	1.46441	-0.288071	7.51557	3.05101	-10.3332	-43.6442	9.86526	-7.57741	0
0.1180	-8.03867	3.6292	0.336082	7.51557	4.87732	-5.44586	-53.7073	11.7088	-4.81801	0
0.1187	-8.34345	3.6292	0.336082	6.61121	6.10203	-2.69965	-77.8202	12.6056	-4.81801	0
0.1193	-8.64824	2.9925	0.912223	6.61121	7.00444	2.79275	-95.519	12.6056	-5.12461	0
0.1200	-8.95302	3.91571	1.53638	6.92306	7.92834	7.68005	-105.888	12.6056	-3.6354	0
0.1207	-10.4769	4.52058	0.912223	3.86693	9.15304	6.77241	-110.164	10.7621	-1.1826	0
0.1213	-11.0865	4.52058	0.624153	-0.717254	9.15304	5.53895	-90.0213	9.56632	2.4966	0.321914
0.1220	-11.0865	4.23406	-0.288071	-2.86901	8.52994	5.2364	-28.0674	9.56632	4.3362	0.321914
0.1227	-10.1722	5.76215	0.624153	-0.0935548	11.2802	5.53895	36.9248	12.3067	6.13201	0
0.1233	-9.56259	7.29023	2.4486	2.02702	14.0304	4.32876	74.4605	15.9439	8.27821	0
0.1240	-10.7817	6.36701	2.16053	1.40332	14.0304	0.0465458	104.682	15.9439	7.35841	0
0.1247	-12.3437	3.6292	-0.576141	-0.717254	11.9032	-5.14331	131.222	11.7088	4.6428	0
0.1253	-12.6485	2.70598	-1.82445	-3.77338	11.581	-6.05095	128.795	9.26737	4.6428	0
0.1260	-13.8677	5.76215	0	-3.77338	13.7296	-1.16364	94.9082	11.36	9.19801	0
0.1267	-16.9155	5.76215	0.912223	-4.98959	13.7296	1.58256	72.0331	12.6056	11.9574	0.321914
0.1273	-19.6585	3.91571	1.87246	-5.30144	12.8057	3.39784	81.4853	15.047	12.5706	-0.321914
0.1280	-22.4016	3.6292	1.53638	-4.98959	12.2041	6.77241	107.125	15.9439	11.6508	-1.60957
0.1287	-26.3638	2.70598	-0.576141	-5.89395	10.9793	10.4263	132.749	13.2035	9.19801	-1.28766
0.1293	-27.5829	4.52058	1.24831	-3.14968	11.9032	17.1521	147.41	16.2428	11.3442	0.321914
0.1300	-26.3638	4.23406	0.336082	-4.67774	9.75465	19.5725	152.892	17.1895	11.0376	0
0.1307	-23.9255	4.52058	-1.20029	-6.2058	8.52994	21.4111	156.557	17.1895	10.4244	-0.321914
0.1313	-19.3538	9.42318	0	-2.55716	10.0555	26.9035	137.636	21.4744	12.8772	0
0.1320	-17.8298	8.49996	-4.27305	-3.77338	5.17813	27.5086	89.4265	17.7874	8.27821	0
0.1327	-17.8298	8.18161	-4.27305	-1.0291	3.65262	30.8831	50.3637	15.9439	6.74521	0.321914
0.1333	-17.2203	9.42318	0	2.93138	5.47893	31.7908	21.364	18.3853	7.97161	0.321914
0.1340	-17.2203	6.36701	-1.20029	0.498959	3.35182	28.742	-15.5608	15.6449	3.723	0
0.1347	-14.4772	7.57675	1.24831	3.86693	6.70363	34.2344	-53.4019	19.3319	5.21221	-0.321914
0.1353	-17.5251	7.57675	3.07275	3.86693	7.62753	38.8192	-79.0419	20.2288	7.66501	0
0.1360	-27.5829	5.12545	0.336082	-1.0291	5.47893	40.3319	-93.9919	14.1502	7.05181	0
0.1367	-37.0312	6.97188	0.912223	-1.0291	7.62753	43.3807	-110.469	15.9439	9.50461	0
0.1373	-48.0415	5.4438	1.53638	-4.98959	6.70363	37.8883	-111.996	15.6449	9.81121	0
0.1380	-59.0137	2.9925	1.24831	-8.95008	6.40283	28.742	-54.6236	13.2035	9.81121	0
0.1387	-66.3285	2.9925	3.07275	-8.04571	8.85223	22.9471	59.2051	13.5025	11.6508	0.321914
0.1393	-72.4623	1.1779	5.52135	-8.35756	9.75465	15.3136	151.67	12.0077	13.1838	0.321914
0.1400	-81.301	-1.55992	9.17025	-9.26193	10.6785	5.2364	193.787	13.2035	15.2862	0
0.1407	-91.0541	-4.32957	10.4186	-9.57377	10.0555	-4.51494	198.368	14.1502	14.9796	-0.321914
0.1413	-100.502	-5.22095	8.88217	-8.95008	8.85223	-12.7768	169.369	12.9046	13.1838	0
0.1420	-107.246	-3.088	6.43358	-9.57377	8.52994	-23.4358	122.686	14.7481	12.8772	0
0.1427	-70.9003	0.573031	5.80942	-9.88562	9.15304	-33.2104	73.2387	22.3712	15.5928	0.321914
0.1433	6.28616	5.12545	4.60913	-9.88562	10.0555	-39.6105	-17.3934	29.9944	18.3522	0.321914
0.1440	47.1653	5.76215	1.87246	-12.6299	7.92834	-46.0338	-164.176	29.9944	16.206	0
0.1447	31.9261	6.36701	0.912223	-12.6299	6.70363	-45.7312	-224.603	28.4498	13.797	-0.321914
0.1453	-2.24778	8.78648	-0.576141	-10.79	5.77974	-45.7312	-164.482	26.9551	11.6508	-0.321914
0.1460	-31.5451	10.6329	-2.40059	-9.57377	4.25423	-53.3647	-98.5733	24.5137	10.1178	0
0.1467	-40.079	13.6891	-4.56112	-7.14135	3.95343	-57.0186	-35.7031	25.4105	10.4244	0
0.1473	-20.2681	17.0318	-9.45832	-4.08523	3.05101	-51.5262	7.94116	24.8126	5.21221	0
0.1480	9.94357	17.0318	-11.5708	0.18711	3.65262	-37.7952	-16.7825	19.033	-2.1024	0
0.1487	23.6969	13.0842	-8.54609	3.24323	5.17813	-25.8794	-10.3685	14.7481	-4.81801	0
0.1493	22.4778	7.29023	-3.93696	2.02702	4.87732	-23.1332	93.6864	14.4491	-4.5114	0.321914
0.1500	27.3543	3.91571	2.16053	0.498959	5.47893	-20.387	164.192	18.3853	0.0438	0.321914
0.1507	28.8783	4.23406	4.60913	0.18711	7.00444	-21.0154	177.615	23.2681	3.723	0
0.1513	13.2962	6.65353	1.87246	0.810808	7.62753	-32.9079	197.147	29.9944	2.19	0
0.1520	-8.64824	9.10483	0	0.498959	7.62753	-44.4978	153.808	38.8632	0.963601	0.321914
0.1527	-46.2128	8.18161	0.624153	-0.405404	6.40283	-46.6389	64.7028	42.2014	0.657001	0.321914
0.1533	-80.3867	7.29023	2.4486	2.65072	7.30524	-40.8439	5.1923	38.8632	1.2702	0
0.1540	-84.9584	6.97188	4.8972	6.61121	9.45384	-34.7464	-60.7322	34.2793	3.1098	0.321914
0.1547	-86.7871	4.52058	7.63387	6.61121	9.45384	-28.3231	-113.523	30.2933	5.51881	0.321914
0.1553	-68.7668	2.10111	8.54609	5.39499	7.00444	-25.2744	-135.804	26.3572	6.43861	0
0.1560	-37.9456	3.91571	3.07275	3.24323	1.82631	-31.3718	-137.331	23.9158	3.4164	-0.321914
0.1567	-49.8702	13.3707	-2.40059	6.61121	1.20322	-23.1332	-79.0419	28.4498	2.19	0
0.1573	-77.0341	20.4063	-6.67363	11.1954	3.35182	0.977461	-70.4899	30.8912	0.963601	0.321914
0.1580	-67.2429	19.8014	-11.8589	9.66733	2.42792	13.475	-93.6864	27.553	-5.12461	-0.965742
0.1587	-24.2303	23.1441	-11.8589	12.0998	3.35182	18.9674	36.9248	34.8772	-6.04441	-1.60957
0.1593	-5.90518	25.277	-10.0345	12.4116	2.12711	24.7624	163.582	45.8884	-4.81801	-0.321914
0.1600	3.84789	20.0879	-12.8191	6.92306	-1.2247	27.5086	137.942	47.6821	-6.04441	-0.321914
0.1607	54.2134	14.8988	-8.21001	7.82742	2.12711	30.2548	93.0756	47.9811	-1.4892	-1.28766
0.1613	88.0825	7.29023	2.4486	8.13927	3.05101	29.6497	50.9746	42.2014	0.3504	-0.321914
0.1620	69.7574	-1.87827	8.88217	4.45945	-0.923898	25.0649	-32.9542	31.8379	-2.7156	0.643828
0.1627	44.1174	-1.87827	12.8191	5.39499	-1.2247	18.6649	-73.2387	34.2793	-1.4892	0
0.1633	37.4122	0.254681	10.4186	4.17878	-0.623094	11.0313	-28.6782	40.059	-1.4892	-0.321914
0.1640	27.3543	2.70598	6.1455	2.93138	1.20322	10.1237	3.97058	43.0982	-2.409	-0.321914
0.1647	1.40962	8.49996	4.60913	5.98751	0.300804	11.6597	-1.22172	46.7853	0.0438	0
0.1653	-14.782	11.5561	-0.288071	4.7713	-9.77613	6.14404	8.55202	49.8246	-0.2628	0
0.1660	-7.73388	13.9756	-4.27305	5.08314	-17.7045	3.39784	26.8617	62.3305	0.0438	0
0.1667	18.2108	12.7659	-3.36082	6.61121	-21.0563	4.02621	25.0291	73.0428	1.2702	0.321914
0.1673	24.3065	6.97188	-1.82445	4.7713	-20.7555	6.46986	-2.74886	63.8751	-0.2628	0
0.1680	9.94357	6.65353	2.16053	6.29936	-15.5774	13.7775	-39.0628	52.266	-0.876001	-0.321914
0.1687	35.5835	6.04866	4.27305	5.98751	-11.6024	18.3623	-63.1757	44.9418	-0.876001	0
0.1693	103.017	-0.668536	4.27305	1.12266	-6.10203	27.5086	-81.1799	36.4218	-3.3288	0.321914
0.1700	153.687	-4.32957	7.63387	0.18711	-0.923898	48.5705	-89.105	36.7207	-2.409	0.321914
0.1707	122.866	-5.22095	12.5311	2.93138	1.20322	63.8375	-81.1799	42.5004	0.963601	0
0.1713	26.1352	-10.1236	14.3555	2.02702	5.17813	66.2812	-72.6279	42.2014	2.19	0
0.1720	-74.291	-16.8408	14.9797	-1.0291	8.22914	61.6964	-59.5105	36.4218	1.5768	0.643828
0.1727	-142.639	-20.5018	19.2527	-1.34095	8.85223	51.9218	-43.3388	29.9944	0.963601	0.321914
0.1733	-158.183	-21.7115	23.8138	0.18711	8.22914	38.4934	-43.0334	25.4105	0.657001	0
0.1740	-133.8	-21.425	24.1499	1.12266	2.42792	25.6933	-39.6737	26.6561	0.3504	0
0.1747	-106.027	-17.1273	23.1897	4.17878	-6.72512	19.8983	-18.0043	33.0337	-0.2628	0
0.1753	-90.7493	-13.1797	21.9894	6.29936	-16.8021	18.9674	-3.05429	37.3186	-0.2628	0
0.1760	-95.6259	-13.7846	20.1649	2.93138	-27.4806	17.7572	-0.305429	36.4218	-0.2628	0
0.1767	-150.258	-11.6516	17.4283	-0.717254	-32.3579	16.8263	4.88687	37.9165	0.963601	0
0.1773	-217.082	-7.38574	14.0674	-2.24532	-29.9085	15.3136	9.77374	40.059	2.4966	0
0.1780	-190.871	-6.74903	12.243	-3.77338	-21.6794	14.7085	7.94116	40.3579	2.19	0.321914
0.1787	-69.3764	-8.91382	14.3555	-3.46153	-13.751	16.8263	4.88687	42.5004	1.8834	0.321914
0.1793	42.5935	-10.1236	15.6038	-3.46153	-11.6024	15.9187	-1.83258	46.4863	1.5768	0
0.1800	100.274	-9.20033	14.3555	-3.77338	-12.2255	11.6597	-13.4228	48.9277	1.5768	0
0.1807	108.541	-6.14417	12.8191	-2.24532	-11.0008	9.51861	-9.75766	47.3832	2.4966	0
0.1813	76.7674	-3.088	11.3308	-1.34095	-9.77613	6.14404	13.7443	47.3832	2.19	0
0.1820	146.372	-3.088	12.243	-1.34095	-9.47533	4.6313	32.3594	55.654	0.657001	0
0.1827	346.882	-3.7247	15.6038	-0.0935548	-7.62753	10.7288	39.0628	63.2772	1.8834	-0.321914
0.1833	501.293	-1.87827	13.1552	-1.62162	-7.62753	18.6649	47.004	62.9783	3.4164	-0.321914
0.1840	558.973	1.46441	7.3458	-4.67774	-9.47533	22.0161	45.4768	62.3305	4.3362	0
0.1847	527.238	4.23406	2.78468	-4.98959	-9.77613	17.7572	24.7237	59.5902	4.3362	0.321914
0.1853	405.172	7.8951	-4.27305	-5.61329	-9.77613	9.82116	10.3846	52.5649	3.1098	0
0.1860	286.459	14.8988	-11.2828	-5.61329	-8.85223	7.07496	18.0043	50.4225	4.3362	0.321914
0.1867	294.992	22.2209	-14.9317	-4.98959	-7.62753	6.77241	27.778	51.6681	5.21221	0.321914
0.1873	353.282	24.0673	-18.0044	-6.2058	-8.25063	4.93385	21.6694	51.3691	4.0296	0
0.1880	244.627	21.0111	-20.7411	-8.63823	-9.17453	2.79275	7.94116	47.3832	2.8032	-1.28766
0.1887	29.4878	16.1404	-19.8289	-11.1018	-10.0769	-1.76874	-7.61966	37.9165	1.5768	-0.965742
0.1893	-49.2607	8.78648	-11.5708	-9.57377	-8.85223	-5.14331	-32.0379	19.3319	2.4966	0
0.1900	-16.0011	1.78276	-3.02474	-6.8295	-6.42432	-6.05095	-49.7368	-1.74386	4.3362	0
0.1907	-64.8046	-1.2734	-2.40059	-8.35756	-6.42432	-11.5434	-51.2639	-8.47018	3.1098	0
0.1913	-220.473	-0.955052	-1.48836	-8.04571	-4.89881	-14.2896	-35.7031	-2.34175	4.0296	0.321914
0.1920	-429.821	0.859547	-0.288071	-7.73386	-2.4494	-11.2408	-10.3685	-3.58737	4.3362	0.321914
0.1927	-606.519	4.83893	-6.09749	-9.88562	-3.05101	-9.40225	0	-13.6519	0.963601	0
0.1933	-536.61	10.3146	-8.54609	-7.73386	-0.623094	-8.19206	-9.14681	-16.6912	2.19	0
0.1940	-248.513	7.57675	-3.02474	-6.8295	2.12711	-7.58696	-25.0131	-19.7305	4.94941	0
0.1947	-66.6333	-3.088	1.87246	-11.4137	0.601608	-6.95859	-32.6488	-33.4821	4.94941	0
0.1953	-79.1675	-11.0468	5.18527	-12.6299	-0.623094	-3.90984	-35.7031	-40.5074	4.94941	0
0.1960	-145.077	-18.9737	7.96995	-13.8461	-2.4494	-3.30475	-25.3185	-42.6498	4.0296	0
0.1967	-192.09	-25.086	10.7066	-13.5343	-2.4494	-3.90984	22.5857	-49.6751	2.4966	0.321914
0.1973	-217.387	-25.9774	16.516	-7.73386	3.05101	-2.09456	41.2008	-51.1698	4.3362	0
0.1980	-258.609	-30.2752	21.0772	-6.2058	4.25423	-8.4946	-2.44343	-53.3123	2.4966	0
0.1987	-304.06	-36.3556	20.7891	-9.26193	1.20322	-18.8743	-18.6151	-61.2344	-2.409	0
0.1993	-306.498	-32.6946	18.6286	-6.8295	2.72872	-20.0845	11.3009	-58.494	-2.409	0
0.2000	-272.324	-24.1628	12.8191	-5.30144	4.57652	-21.0154	43.9497	-49.3263	-1.7958	0
0.2007	-166.145	-14.7078	2.4486	-6.8295	4.57652	-21.9231	87.8994	-43.8456	-1.7958	0.321914
0.2013	9.94357	-3.088	-4.56112	-4.67774	7.30524	-18.8743	134.276	-35.9235	2.19	0
0.2020	137.838	5.12545	-12.195	-5.89395	5.17813	-24.9718	147.41	-31.0407	2.19	0
0.2027	127.438	8.78648	-18.5805	-8.35756	1.20322	-35.3515	137.331	-30.4428	-2.1024	0.321914
0.2033	24.9161	10.028	-14.6436	-4.36589	4.57652	-33.513	122.381	-27.0547	-2.409	0.321914
0.2040	26.1352	1.78276	-4.27305	-3.46153	7.00444	-29.8591	84.8451	-28.5993	-3.0222	0
0.2047	134.752	-7.38574	3.69691	-4.08523	7.00444	-29.254	41.8117	-29.7951	-4.81801	-0.321914
0.2053	112.808	-10.1236	9.45832	-1.34095	10.3777	-25.5769	24.4183	-27.0547	-3.3288	-0.321914
0.2060	-27.2781	-16.2359	12.5311	-2.86901	10.9793	-24.0642	3.66515	-35.0267	-4.2486	0
0.2067	-158.183	-24.1628	16.8041	-5.30144	10.6785	-21.9231	-17.3934	-45.0912	-6.04441	0.321914
0.2073	-262.571	-29.9568	24.438	-4.08523	11.2802	-17.3383	-10.9794	-45.3902	-6.04441	0
0.2080	-235.712	-34.541	28.423	-3.77338	9.15304	-13.3819	-18.3097	-43.8456	-6.35101	0
0.2087	-72.1575	-33.2995	27.4627	-4.36589	7.92834	-6.3535	-50.3476	-36.5214	-4.81801	0
0.2093	91.7399	-25.6909	21.0772	-5.89395	7.92834	-0.861097	-60.7322	-21.574	-1.7958	0.321914
0.2100	203.748	-12.5749	5.52135	-9.88562	6.10203	1.8851	-50.3476	-10.9116	-2.7156	0.321914
0.2107	205.577	4.52058	-11.8589	-11.1018	4.25423	9.51861	-50.653	-1.14596	-3.942	0
0.2113	50.8608	19.1647	-24.39	-10.4781	2.72872	18.3623	-56.7616	5.8793	-3.942	0
0.2120	-132.581	31.6759	-32.0238	-9.26193	1.82631	22.6445	-64.6867	11.0611	-3.3288	0
0.2127	-137.762	43.5822	-36.921	-8.04571	2.12711	22.6445	-94.2973	21.1256	-2.409	-0.321914
0.2133	-18.1346	48.1665	-39.9458	-9.57377	1.52551	21.4111	-61.3431	26.9551	-1.7958	0
0.2140	79.8533	43.5822	-37.4972	-11.1018	0.902412	21.4111	68.6734	24.2147	-1.1826	0.321914
0.2147	168.66	33.8407	-26.2144	-12.0062	0	20.5034	149.837	20.2288	-0.876001	0
0.2153	173.536	22.2209	-12.4831	-13.2224	-1.2247	20.5034	130.917	14.7481	-0.2628	0
0.2160	110.37	11.5561	-5.18527	-12.6299	0.300804	24.4598	56.7616	3.13895	3.1098	0
0.2167	86.8633	4.52058	-5.76141	-11.6944	0.601608	30.2548	-35.0922	-10.9116	5.51881	0
0.2173	22.4778	0.573031	-5.18527	-12.318	-1.8478	32.0933	-49.1259	-17.5881	4.6428	0
0.2180	-89.2254	-0.668536	-0.576141	-11.6944	-1.8478	22.3187	10.9955	-22.4709	3.723	-0.965742
0.2187	-151.173	-2.80149	0.624153	-12.0062	-1.2247	5.2364	48.8365	-35.0267	4.0296	-1.28766
0.2193	-174.679	-5.22095	3.07275	-11.6944	0	-3.30475	69.2842	-41.7032	4.3362	0
0.2200	-172.241	-4.93444	6.72165	-8.35756	2.42792	-1.16364	86.6776	-38.6639	5.51881	0.321914
0.2207	-124.009	-1.55992	3.07275	-6.8295	1.20322	0.977461	83.0125	-39.9095	2.8032	-0.321914
0.2213	-56.2707	4.23406	-4.27305	-5.30144	-0.923898	0.349093	72.6279	-37.1193	-1.1826	0
0.2220	-12.3437	6.97188	-5.76141	-1.93347	-0.923898	-4.51494	53.0965	-33.7811	-2.7156	0
0.2227	-7.12432	5.12545	-5.18527	-1.62162	-1.8478	-11.2408	14.95	-41.1053	-3.6354	0
0.2233	-28.4973	5.4438	-5.47334	0.810808	-1.8478	-10.6357	-26.8456	-45.0912	-3.6354	0
0.2240	-35.8121	7.57675	-5.18527	5.67566	-0.32229	-6.3535	-44.5445	-40.5074	-3.3288	0
0.2247	-7.12432	8.49996	-7.58586	6.61121	-2.4494	-9.70479	-40.2845	-38.3649	-7.88401	0
0.2253	17.5632	8.78648	-10.9467	6.29936	-3.3733	-17.0358	-33.2597	-41.4042	-12.483	0
0.2260	11.4675	9.10483	-11.5708	7.51557	-0.623094	-25.5769	-37.5357	-44.7923	-12.1764	0
0.2267	-12.6485	7.8951	-10.6586	6.61121	0.902412	-32.9079	-64.6867	-44.4435	-11.2566	0
0.2273	-34.5929	9.10483	-8.83416	8.13927	3.65262	-30.4642	-101.322	-37.1193	-9.41701	-0.321914
0.2280	-15.6964	11.2378	-9.45832	9.66733	5.77974	-23.1332	-116.272	-29.4961	-8.49721	0
0.2287	3.54311	11.5561	-12.4831	6.92306	4.25423	-16.7332	-66.5193	-25.56	-10.95	0
0.2293	-68.7668	10.9513	-10.9467	7.20372	4.25423	-6.95859	11.3009	-23.1186	-11.2566	0
0.2300	-117.913	6.97188	-7.29779	8.13927	4.25423	1.58256	38.7574	-27.0547	-10.95	0
0.2307	-59.3185	4.52058	-4.84919	8.45112	5.17813	5.84149	43.9497	-30.7418	-11.2566	0
0.2313	-5.90518	6.65353	-2.40059	11.1954	8.22914	6.77241	43.6442	-26.1579	-9.41701	0.321914
0.2320	18.2108	5.76215	-2.40059	8.73178	7.92834	5.53895	14.0498	-22.8197	-9.41701	0.321914
0.2327	36.1931	2.70598	-2.11252	3.86693	4.57652	10.4263	-22.8911	-22.1719	-10.0302	0
0.2333	44.4222	2.9925	-0.288071	2.93138	3.35182	21.7136	-53.7073	-18.2358	-7.57741	0.321914
0.2340	51.7751	4.83893	-0.288071	3.24323	3.35182	27.5086	-71.4062	-12.7053	-6.04441	0
0.2347	62.4425	6.65353	-0.288071	3.86693	4.57652	27.5086	-71.7116	-6.92561	-3.942	0
0.2353	86.5586	7.8951	-0.576141	2.33887	4.87732	25.0649	-71.4062	-3.28842	-2.409	0
0.2360	129.266	7.57675	-3.64889	-1.93347	1.82631	20.806	-66.2139	-3.88632	-3.0222	0
0.2367	154.602	10.6329	-8.21001	-2.24532	-0.32229	15.9187	-53.0965	-4.48421	-3.942	0
0.2373	70.0621	15.822	-10.9467	-1.0291	-0.623094	9.51861	-51.8748	-2.93965	-4.81801	0.321914
0.2380	-94.4067	18.5598	-12.195	-1.62162	-1.2247	6.14404	-58.8996	-0.498246	-5.12461	0
0.2387	-127.057	19.8014	-13.1072	-1.62162	-0.32229	9.51861	-58.2888	0.0996491	-3.6354	0.321914
0.2393	-31.5451	18.2733	-13.1072	-3.14968	0.601608	11.3339	-52.7911	-4.48421	-2.409	0.643828
0.2400	-12.039	13.9756	-10.3705	-4.67774	0.601608	7.07496	-46.9879	-8.17123	-3.3288	0.321914
0.2407	-63.5855	10.3146	-6.09749	-4.08523	1.52551	2.79275	-36.9248	-8.76912	-3.6354	0
0.2413	-55.3563	9.10483	-4.84919	-4.98959	1.82631	0.651641	-27.7619	-8.47018	-2.7156	0
0.2420	17.5632	10.3146	-6.09749	-4.98959	1.82631	-0.256002	-20.1423	-2.93965	-1.7958	0
0.2427	48.7273	11.2378	-7.58586	-2.55716	3.05101	-1.46619	-12.812	3.4379	-0.2628	0
0.2433	4.76224	10.9513	-11.5708	-3.46153	3.35182	-3.90984	-10.9794	3.13895	-0.569401	0
0.2440	-48.0415	12.4475	-14.6436	-3.77338	2.72872	-4.51494	-8.84138	-0.498246	-1.7958	0
0.2447	-77.9484	11.8426	-14.0194	-3.77338	3.05101	-4.84076	-3.97058	-5.72983	-1.7958	0
0.2453	-58.709	8.78648	-11.5708	-4.67774	3.65262	-4.84076	-3.05429	-8.76912	-1.4892	0
0.2460	6.59095	8.18161	-9.12223	-2.55716	5.77974	-2.09456	-3.66515	-7.52351	0.3504	0
0.2467	52.6895	8.49996	-7.58586	-1.34095	6.40283	-1.16364	-7.61966	-9.66597	1.5768	0.321914
0.2473	93.2638	6.65353	-8.21001	-2.86901	4.25423	-3.0022	-15.8663	-20.0295	0.0438	0
0.2480	132.009	4.83893	-9.12223	-4.36589	3.65262	-4.21239	-18.9205	-32.5853	-1.1826	-1.28766
0.2487	141.191	3.6292	-8.21001	-4.98959	3.65262	-4.51494	-17.3934	-39.2618	-1.7958	-0.965742
0.2493	135.057	3.31085	-5.18527	-2.55716	4.87732	-3.0022	-25.3185	-40.2084	-0.876001	0.321914
0.2500	119.209	2.9925	-2.40059	-0.0935548	5.17813	1.58256	-43.9497	-38.9628	0.963601	0
0.2507	124.695	2.38763	-2.11252	-0.717254	2.42792	3.72366	-55.8453	-35.9235	0.963601	0
0.2513	158.564	1.1779	-2.11252	-0.0935548	1.20322	4.02621	-55.8453	-28.3004	0.657001	0
0.2520	163.745	0.573031	-3.36082	0.810808	1.20322	3.39784	-57.9834	-20.9761	-0.2628	0
0.2527	128.962	3.91571	-7.92194	1.40332	0.601608	1.28001	-60.1214	-17.9368	-1.4892	-0.321914
0.2533	117.989	8.78648	-11.8589	4.7713	2.12711	-0.558549	-55.2345	-18.5347	-0.569401	0
0.2540	132.314	10.6329	-14.0194	7.51557	3.35182	-3.0022	-48.8205	-21.873	-1.4892	0
0.2547	116.77	10.3146	-15.8439	7.82742	1.82631	-6.3535	-36.9248	-23.1186	-4.2486	0.321914
0.2553	107.322	10.028	-16.1319	8.73178	0.300804	-8.19206	-16.4771	-20.3782	-6.04441	0
0.2560	117.989	8.49996	-14.9317	10.5717	-0.32229	-8.79715	4.88687	-20.0295	-7.57741	-0.321914
0.2567	106.065	7.8951	-12.8191	13.316	1.20322	-7.88951	25.64	-21.2751	-8.80381	0
0.2573	74.0243	9.10483	-10.6586	16.3721	3.65262	-5.44586	38.7574	-21.574	-8.49721	0
0.2580	42.5935	10.3146	-12.8191	15.4677	2.12711	-5.44586	43.9497	-23.1186	-8.49721	0
0.2587	70.6717	9.10483	-16.1319	10.8835	-0.923898	-6.95859	51.28	-24.9123	-10.0302	0
0.2593	141.496	5.4438	-14.0194	9.66733	-0.923898	-6.05095	60.4268	-24.0154	-9.72361	0
0.2600	148.811	4.23406	-11.8589	9.94799	0.601608	-5.44586	67.7571	-20.6772	-8.19061	0
0.2607	84.1203	5.4438	-10.0345	10.2598	2.12711	-4.51494	72.9333	-17.5881	-6.35101	0
0.2613	20.6491	4.52058	-6.38556	11.1954	2.72872	-2.69965	78.1256	-17.9368	-4.5114	-0.321914
0.2620	-40.6886	2.10111	-5.47334	9.35548	0.601608	-2.39711	79.3473	-19.4316	-5.43121	0
0.2627	-129.19	0.254681	-4.56112	7.51557	-0.32229	-3.30475	70.8114	-17.9368	-5.43121	0.321914
0.2633	-176.203	-3.088	-0.576141	7.82742	0.300804	-8.79715	55.8453	-14.8477	-5.43121	0
0.2640	-150.258	-5.5393	3.07275	8.13927	0.601608	-13.6845	38.452	-13.6519	-5.73781	0
0.2647	-138.067	-3.7247	3.98498	9.94799	2.12711	-9.40225	21.0585	-11.5095	-3.3288	0
0.2653	-144.163	-1.55992	1.53638	9.35548	2.42792	-4.51494	3.35972	-7.22456	-2.409	0.321914
0.2660	-96.2354	0.254681	-4.56112	6.61121	1.52551	-4.51494	-9.75766	-0.498246	-3.3288	0.321914
0.2667	-1.02864	7.57675	-11.2828	6.61121	1.20322	-5.44586	-14.6445	4.98246	-3.0222	0.321914
0.2673	71.5861	10.9513	-14.9317	5.98751	0.300804	-6.95859	-14.3391	4.98246	-3.3288	0
0.2680	86.2538	7.29023	-11.5708	5.98751	0.300804	-5.7484	-5.78708	2.24211	-3.0222	0
0.2687	61.5282	2.38763	-4.84919	6.61121	1.20322	-3.90984	-0.916288	-0.847018	-1.7958	0
0.2693	-3.16213	-0.350186	-2.11252	5.98751	0.601608	-4.51494	-6.70337	-3.58737	-2.1024	0.321914
0.2700	-86.7871	1.1779	-4.56112	6.29936	0.300804	-4.84076	28.9997	-4.48421	-2.7156	0
0.2707	-124.923	3.31085	-7.58586	5.98751	0.601608	-5.7484	96.4353	-4.18526	-3.3288	0
0.2713	-117.608	3.6292	-7.92194	4.7713	-0.623094	-5.7484	116.272	-4.48421	-3.942	0
0.2720	-94.102	6.36701	-7.92194	6.92306	0	-2.39711	97.3516	-4.48421	-2.7156	0
0.2727	-91.9685	9.7097	-11.8589	7.82742	0.300804	-1.16364	76.5985	-6.02877	-1.7958	0
0.2733	-140.2	10.9513	-19.2047	5.67566	-1.2247	-3.0022	52.7911	-7.82246	-2.7156	0.321914
0.2740	-159.707	14.2939	-22.5655	5.08314	-1.2247	-2.69965	29.6106	-3.58737	-2.409	0
0.2747	-50.4798	16.7452	-22.8536	4.7713	-1.2247	-2.09456	6.10859	1.94316	-2.1024	0
0.2753	93.2638	16.1404	-21.6533	4.45945	-1.2247	-1.76874	-13.1174	1.94316	-1.7958	0
0.2760	123.171	13.6891	-17.3803	5.67566	0.300804	-0.256002	-24.1128	-0.847018	-0.569401	0
0.2767	111.589	8.18161	-12.195	4.7713	0.300804	-2.09456	-39.0628	-6.92561	-1.1826	0.321914
0.2773	104.846	1.1779	-8.21001	3.55508	0.300804	-4.51494	-50.653	-16.9902	-0.876001	0
0.2780	47.4701	-3.40635	-7.58586	2.65072	0.601608	-5.7484	-45.4607	-25.2611	-0.569401	-0.965742
0.2787	-0.114294	-4.93444	-7.92194	0.810808	-0.32229	-5.7484	-33.8705	-24.9123	-1.1826	-0.965742
0.2793	8.11486	-2.80149	-4.84919	2.65072	1.20322	-3.30475	-31.4271	-18.2358	0.963601	0
0.2800	12.0771	-1.87827	-1.48836	4.17878	2.42792	-1.76874	-32.0379	-16.6912	2.4966	0
0.2807	-8.34345	-3.7247	-0.912223	2.33887	1.52551	-2.69965	-26.2348	-18.5347	2.4966	0
0.2813	-15.3916	-5.22095	-0.912223	1.40332	1.20322	-2.69965	-22.2803	-20.6772	1.5768	0
0.2820	-6.20997	-6.74903	-0.912223	0.810808	0	-3.6073	-21.364	-24.9123	0.3504	0
0.2827	0.19049	-5.85765	-0.288071	1.40332	-0.623094	-3.0022	-16.7825	-25.56	0.3504	0.321914
0.2833	2.01919	-2.80149	0.912223	3.55508	1.82631	-1.46619	-11.2848	-20.6772	2.4966	0
0.2840	10.2484	-2.48314	0.624153	1.71517	1.82631	-2.09456	-9.14681	-15.1467	3.4164	0
0.2847	24.3065	-4.32957	0.912223	-3.46153	0.300804	-3.30475	-10.0631	-9.66597	2.8032	0
0.2853	33.1452	-6.14417	3.69691	-7.73386	0.601608	-3.0022	-10.3685	-6.02877	2.4966	0
0.2860	38.6313	-7.38574	5.52135	-10.1663	1.20322	-2.69965	-8.53595	-3.28842	3.4164	0
0.2867	43.2031	-5.22095	0.912223	-11.1018	2.12711	-1.76874	-6.70337	0.398597	4.0296	0.321914
0.2873	34.9739	-2.19662	-6.38556	-12.0062	3.05101	-2.09456	-6.09251	2.84	4.3362	0.321914
0.2880	16.0392	-1.2734	-8.83416	-11.4137	2.12711	-3.6073	-6.39794	3.73684	4.3362	0.321914
0.2887	3.54311	0.254681	-7.58586	-10.1663	0.902412	-3.90984	-6.39794	6.47719	4.0296	0
0.2893	13.601	2.10111	-6.67363	-12.0062	0.902412	-3.0022	-6.09251	9.86526	4.94941	0
0.2900	34.9739	2.9925	-7.92194	-12.0062	2.72872	-1.16364	-4.58144	9.56632	6.43861	0.321914
0.2907	33.7548	6.36701	-11.8589	-8.95008	4.57652	0.0465458	-2.13801	7.12491	8.89141	0
0.2913	10.2484	6.36701	-14.9317	-9.57377	3.95343	-0.558549	-1.22172	2.84	10.4244	0
0.2920	-12.3437	0.859547	-13.1072	-12.0062	1.82631	-1.76874	-2.13801	-5.72983	10.1178	0
0.2927	-18.4394	-4.01122	-9.45832	-12.318	1.52551	-1.76874	-2.13801	-11.8084	9.81121	0
0.2933	-8.34345	-7.06739	-5.47334	-10.79	1.82631	-0.861097	-0.610859	-12.1074	10.4244	-0.321914
0.2940	3.23833	-7.67225	-1.20029	-7.73386	2.12711	0.349093	2.74886	-9.06807	11.6508	-0.321914
0.2947	9.334	-7.38574	1.24831	-5.89395	1.82631	0.977461	5.80316	-7.52351	13.1838	0
0.2953	-1.02864	-8.59547	0.336082	-7.14135	-0.623094	-0.861097	5.49773	-9.06807	12.264	0
0.2960	-12.9533	-8.27712	-2.11252	-5.30144	-2.4494	-3.0022	4.27601	-7.82246	10.731	0
0.2967	5.6766	-5.5393	-3.02474	-2.24532	-1.2247	-3.0022	4.88687	-4.18526	10.731	0
0.2973	38.0218	-4.32957	-2.40059	-1.62162	0.601608	-2.09456	5.80316	-2.34175	11.3442	0
0.2980	54.823	-4.32957	-1.20029	1.12266	1.52551	-1.76874	5.80316	-1.14596	9.81121	0
0.2987	49.3369	-3.7247	-3.02474	4.7713	0.601608	-2.69965	4.58144	0.398597	7.05181	-0.321914
0.2993	40.46	-2.19662	-6.67363	6.29936	-1.2247	-3.90984	3.66515	0.996491	3.723	0
0.3000	52.3847	-2.19662	-8.21001	7.82742	-1.52551	-4.51494	4.58144	0.0996491	1.2702	0
0.3007	65.4904	-4.93444	-4.27305	10.8835	0	-4.51494	4.58144	-0.847018	-0.569401	0
0.3013	53.6038	-7.38574	0	13.6278	1.52551	-4.21239	3.35972	-0.847018	-0.876001	0
0.3020	31.6213	-7.67225	0.912223	13.316	1.82631	-4.51494	2.13801	1.29544	-0.876001	0.321914
0.3027	20.9539	-9.20033	1.53638	11.4761	1.52551	-5.7484	-0.610859	-0.498246	-1.7958	0
0.3033	15.7345	-11.0468	1.87246	10.5717	0.902412	-6.95859	-1.83258	-6.62667	-2.1024	-0.321914
0.3040	9.63878	-11.6516	1.24831	9.94799	0.601608	-8.19206	-1.83258	-9.36702	-1.7958	0
0.3047	9.02922	-11.6516	0.912223	8.73178	1.20322	-8.4946	-3.35972	-8.76912	-1.1826	-0.321914
0.3053	10.5531	-11.3333	2.78468	9.94799	2.72872	-7.26114	-3.97058	-4.48421	0.0438	0
0.3060	13.2962	-9.51869	3.98498	12.0998	3.65262	-5.44586	-1.83258	1.94316	1.2702	0
0.3067	27.6591	-9.8052	1.87246	8.73178	1.82631	-4.84076	-1.22172	1.59439	0.657001	0
0.3073	51.1656	-8.59547	0	5.08314	1.52551	-3.90984	-0.610859	0.398597	1.2702	0
0.3080	59.3947	-4.32957	-1.48836	3.86693	1.82631	-2.39711	1.22172	4.68351	2.8032	-0.321914
0.3087	58.7851	-3.7247	-3.36082	0.498959	0.902412	-2.69965	1.22172	6.17825	3.1098	-1.28766
0.3093	74.9387	-4.32957	-1.48836	-1.0291	2.42792	-1.16364	2.74886	6.47719	5.82541	-1.28766
0.3100	98.1403	-4.01122	0	-1.62162	3.05101	0.0465458	2.74886	8.61965	6.74521	0
0.3107	108.541	-7.67225	-0.288071	-4.36589	0.601608	-1.76874	0	9.26737	4.94941	0.321914
0.3113	107.627	-10.1236	1.53638	-4.08523	0.902412	-1.76874	-0.305429	11.0611	5.21221	0
0.3120	101.798	-9.51869	3.07275	-2.24532	2.12711	-0.861097	0.305429	12.9046	6.13201	0
0.3127	65.7952	-8.59547	3.07275	-2.55716	2.12711	-0.558549	1.52715	12.3067	6.74521	0
0.3133	-6.20997	-5.85765	2.16053	-2.86901	3.05101	-0.256002	3.66515	10.4632	7.35841	0
0.3140	-71.2432	-2.48314	-1.82445	-4.08523	2.12711	-1.46619	3.35972	10.4632	6.43861	0
0.3147	-114.561	-0.955052	-5.18527	-5.61329	0.902412	-2.09456	3.66515	12.6056	5.51881	0
0.3153	-132.581	-2.19662	-4.27305	-6.2058	0.300804	-2.69965	3.97058	12.6056	4.94941	0.321914
0.3160	-126.447	-5.22095	-0.288071	-6.2058	0.601608	-2.69965	3.35972	12.9046	5.51881	0
0.3167	-99.2833	-7.06739	3.69691	-4.08523	2.42792	-0.861097	3.97058	16.8905	7.66501	-0.321914
0.3173	-52.9181	-8.91382	4.8972	-4.36589	2.12711	-0.861097	2.74886	16.2428	9.19801	-0.321914
0.3180	-13.5629	-9.20033	2.16053	-7.73386	0	-2.39711	-1.22172	12.9046	9.19801	0
0.3187	13.601	-6.46252	0	-8.35756	0.300804	-2.39711	-2.74886	14.4491	10.1178	0
0.3193	15.7345	-5.5393	-0.576141	-6.51765	0.300804	-2.69965	-1.83258	14.7481	10.4244	-0.321914
0.3200	-18.7442	-6.46252	0.336082	-3.14968	0.300804	-1.76874	0	12.0077	10.731	-0.321914
0.3207	-41.9459	-5.5393	0.336082	1.40332	1.20322	-0.256002	3.05429	12.6056	10.731	-0.321914
0.3213	-22.4016	-3.7247	-3.64889	4.17878	0	-2.39711	2.74886	10.7621	6.13201	0
0.3220	0.495273	-0.955052	-8.21001	8.13927	-0.923898	-4.51494	-0.610859	8.61965	0.963601	0.321914
0.3227	-23.6207	2.10111	-9.45832	12.7235	0.902412	-4.51494	-3.66515	13.2035	-0.876001	0
0.3233	-101.76	0.859547	-6.38556	13.6278	2.12711	-4.21239	-4.88687	16.5916	-0.569401	0
0.3240	-177.422	-2.48314	0.336082	14.5322	3.95343	-3.6073	-2.74886	14.1502	1.2702	0
0.3247	-132.886	-7.06739	6.1455	14.2203	5.47893	-4.84076	-1.22172	8.02176	1.8834	0
0.3253	3.84789	-9.8052	5.18527	11.1954	3.95343	-7.26114	-2.74886	3.4379	0.3504	0
0.3260	85.949	-7.67225	0	9.35548	1.82631	-6.3535	-3.05429	2.54105	0.0438	0.321914
0.3267	104.236	-4.32957	-3.64889	8.73178	1.20322	-3.90984	-1.52715	0.697544	0.3504	0.321914
0.3273	100.883	-2.19662	-5.18527	9.66733	1.82631	-1.46619	0.610859	-2.04281	1.2702	0
0.3280	70.3669	1.78276	-6.09749	9.66733	1.20322	0.977461	3.05429	-3.28842	3.1098	0
0.3287	44.1174	3.91571	-6.38556	6.92306	-1.2247	1.58256	1.83258	-4.78316	3.1098	0
0.3293	30.4022	2.38763	-4.56112	4.7713	-1.8478	1.28001	0.610859	-5.08211	3.4164	0
0.3300	-21.1825	0.859547	-2.40059	4.45945	-0.923898	0.977461	0.916288	-3.28842	4.6428	0
0.3307	-60.2329	-2.80149	0	1.71517	-0.623094	0.0465458	-0.916288	-2.6407	4.94941	0
0.3313	-37.336	-7.9906	4.8972	-0.0935548	0.902412	0.0465458	-0.916288	-1.44491	6.74521	0.321914
0.3320	-4.99083	-11.6516	10.0825	-1.0291	2.12711	0.651641	0.916288	1.29544	9.50461	0
0.3327	34.6691	-12.5749	9.17025	-2.86901	0.902412	0.977461	0.610859	2.24211	9.50461	0
0.3333	79.5485	-8.27712	4.60913	-3.46153	-0.32229	2.4902	-0.305429	4.98246	9.81121	0
0.3340	104.846	-4.01122	0.624153	-4.08523	-1.8478	3.09529	-0.305429	7.72281	8.89141	0
0.3347	142.715	-2.80149	-1.20029	-4.67774	-2.75021	3.09529	-1.22172	8.3207	7.97161	0
0.3353	194.566	-1.2734	-2.40059	-3.77338	-1.8478	4.32876	-2.44343	9.56632	9.19801	0
0.3360	219.292	1.78276	-4.84919	-3.46153	-1.52551	5.53895	-2.74886	12.9046	9.19801	-0.321914
0.3367	223.254	6.04866	-6.38556	-2.86901	-1.8478	7.07496	-1.83258	19.3319	8.89141	0
0.3373	247.065	6.04866	-6.09749	-3.77338	-3.05101	6.46986	-1.52715	21.4744	7.66501	-0.643828
0.3380	312.975	1.46441	-4.56112	-4.98959	-3.3733	4.02621	-2.13801	18.6842	5.82541	-1.93148
0.3387	322.461	2.38763	-3.02474	-3.14968	-1.52551	3.39784	-0.305429	22.3712	6.43861	-0.965742
0.3393	161.307	5.4438	-1.82445	-2.24532	-0.623094	3.39784	0.610859	29.0975	8.58481	0.321914
0.3400	-70.5955	2.70598	2.4486	-2.24532	-0.923898	3.09529	0	28.4498	8.58481	0
0.3407	-243.636	0.573031	7.05773	-1.34095	-0.32229	3.09529	0	27.553	8.89141	0
0.3413	-328.481	3.6292	3.98498	-2.55716	-1.8478	2.18765	-1.83258	30.5923	6.74521	0
0.3420	-312.937	7.29023	-1.48836	-3.77338	-3.67411	0.651641	-3.35972	34.8772	4.94941	0
0.3427	-233.579	9.42318	-1.48836	-1.34095	-1.8478	2.18765	-1.52715	37.6175	7.05181	0
0.3433	-165.84	8.49996	-2.11252	-0.0935548	-0.623094	3.72366	0.305429	31.24	9.19801	0
0.3440	-151.782	7.57675	-6.38556	-1.93347	-2.4494	3.39784	-0.305429	18.3853	8.58481	0
0.3447	-164.621	10.028	-13.7314	-3.77338	-4.27572	2.4902	-1.52715	16.8905	7.35841	0
0.3453	-152.087	14.2939	-20.405	-4.67774	-4.27572	1.58256	-2.44343	28.7986	7.66501	0
0.3460	-130.752	16.7452	-21.6533	-4.08523	-2.75021	2.18765	-0.916288	37.0197	9.19801	0.321914
0.3467	-200.014	17.3501	-19.2047	-1.93347	-1.2247	3.39784	1.22172	37.0197	10.1178	0.321914
0.3473	-271.105	16.1404	-15.2197	-1.0291	-1.2247	3.09529	1.52715	34.5782	10.1178	0
0.3480	-185.042	11.8426	-10.6586	-2.55716	-2.1486	2.18765	0.610859	28.1509	8.89141	0
0.3487	-29.7164	6.65353	-7.58586	-3.46153	-3.05101	0.977461	-0.610859	19.3319	6.74521	0
0.3493	104.236	5.12545	-6.09749	-1.93347	-2.4494	0.977461	-0.610859	14.4491	5.82541	0
0.3500	168.05	4.83893	-5.18527	0.18711	0	2.18765	1.22172	9.86526	6.74521	0
0.3507	135.362	4.52058	-5.47334	1.12266	1.52551	2.4902	2.44343	5.58035	6.74521	0
0.3513	50.8608	4.52058	-7.00972	0.498959	0.902412	1.58256	1.52715	4.68351	5.82541	0
0.3520	-33.3738	2.38763	-9.12223	-0.717254	-0.623094	0.0465458	-0.305429	2.84	4.3362	0
0.3527	-24.2303	0.254681	-10.9467	-2.24532	-1.2247	-1.16364	-0.916288	1.29544	3.4164	0.321914
0.3533	43.8126	1.46441	-10.0345	-1.62162	0	0.0465458	0.305429	5.2814	4.3362	0.321914
0.3540	64.8808	1.46441	-4.84919	0.18711	2.12711	1.8851	1.52715	7.42386	5.21221	0
0.3547	46.5557	-1.55992	-0.576141	-0.405404	1.20322	1.58256	1.52715	2.84	5.21221	0
0.3553	20.6491	-5.22095	1.24831	-2.24532	-0.32229	0.977461	0.610859	-2.6407	4.94941	0
0.3560	-2.85735	-7.06739	0.624153	-4.08523	-0.32229	0.651641	-0.610859	-4.48421	4.6428	0
0.3567	-28.8021	-6.14417	0	-4.36589	-0.623094	1.8851	0	-3.58737	5.21221	-0.321914
0.3573	-66.3285	-3.40635	0.336082	-3.77338	0.300804	3.39784	1.83258	-0.498246	7.35841	0
0.3580	-88.9206	-0.350186	-1.20029	-3.46153	1.20322	3.39784	1.52715	4.38456	7.66501	0.321914
0.3587	-80.3867	1.78276	-4.56112	-4.67774	0	2.79275	-0.305429	7.42386	6.13201	0
0.3593	-69.0716	2.38763	-6.67363	-5.61329	-1.2247	2.4902	-0.610859	8.3207	5.82541	-0.321914
0.3600	-63.5855	1.1779	-5.76141	-5.30144	-0.623094	2.18765	-0.610859	5.8793	7.05181	0.321914
0.3607	-53.2228	0.254681	-3.64889	-3.46153	0.601608	3.09529	0.305429	4.03579	7.97161	0
0.3613	-41.2982	0.573031	-1.82445	-2.55716	0.902412	3.39784	1.22172	4.03579	7.97161	0
0.3620	-30.6308	0.254681	-1.82445	-3.77338	0	2.18765	0.610859	4.38456	6.43861	0
0.3627	-22.4016	-0.668536	-1.20029	-4.36589	0	1.8851	0.610859	5.2814	6.13201	0.321914
0.3633	-17.8298	-0.350186	-0.288071	-4.36589	0.300804	1.8851	3.05429	7.12491	6.43861	0
0.3640	-15.6964	1.1779	0.912223	-3.14968	1.52551	3.09529	5.80316	10.1642	7.66501	0
0.3647	-15.0868	2.38763	0.912223	-1.62162	2.12711	4.02621	5.80316	12.3067	7.97161	0.321914
0.3653	-15.0868	1.78276	-0.912223	-2.24532	1.52551	2.4902	2.74886	12.3067	6.43861	0.321914
0.3660	-15.6964	1.1779	-1.82445	-3.46153	0.902412	0.651641	0.305429	12.0077	5.51881	0.321914
0.3667	-17.8298	1.46441	-1.82445	-3.14968	1.20322	0.651641	-0.305429	12.6056	4.94941	0.321914
0.3673	-19.6585	1.46441	-1.48836	-2.24532	1.82631	0.349093	-0.305429	12.9046	4.6428	0
0.3680	-18.7442	0.859547	-1.20029	-1.34095	2.42792	-0.861097	0.305429	12.6056	4.94941	-1.28766
0.3687	-20.2681	1.1779	-0.288071	-0.717254	3.35182	-0.861097	1.22172	12.3067	4.6428	-1.28766
0.3693	-28.4973	2.10111	-0.288071	-0.405404	3.35182	0.0465458	0.610859	13.5025	4.3362	0
0.3700	-34.2882	1.78276	-0.912223	-0.717254	2.72872	0.0465458	-0.610859	13.2035	4.0296	0
0.3707	-36.1169	0.859547	-1.20029	-1.0291	2.12711	-0.558549	-1.52715	11.7088	3.4164	0
0.3713	-38.5551	1.1779	-0.912223	-0.0935548	2.42792	-0.256002	-0.916288	12.0077	4.0296	0.321914
0.3720	-31.5451	2.38763	-0.288071	1.12266	3.65262	0.977461	1.22172	13.2035	4.6428	0
0.3727	-23.6207	2.10111	-0.288071	0.498959	3.05101	0.977461	1.52715	13.5025	4.6428	0
0.3733	-25.1447	0.859547	-1.20029	-0.0935548	1.82631	0.0465458	0.305429	12.6056	3.4164	0.321914
0.3740	-19.3538	0.573031	-0.912223	0.498959	2.12711	0.349093	-0.305429	12.3067	2.8032	0.321914
0.3747	0.19049	0.254681	-0.288071	0.810808	2.12711	0.0465458	-0.610859	12.3067	2.8032	-0.321914
0.3753	15.4297	1.1779	0	1.40332	3.05101	0.0465458	0.305429	12.9046	3.4164	0
0.3760	4.76224	2.10111	0.624153	2.93138	3.95343	0.349093	1.52715	15.047	4.0296	0.321914
0.3767	-16.3059	1.1779	-0.912223	2.02702	2.72872	-1.16364	0	15.6449	2.4966	0
0.3773	-21.792	1.1779	-1.82445	1.12266	2.42792	-1.46619	-1.52715	15.9439	1.2702	0
0.3780	-22.7064	2.70598	-1.20029	2.65072	3.05101	-0.861097	-0.610859	17.7874	2.4966	0
0.3787	-30.9355	4.52058	-1.82445	4.45945	3.95343	-0.558549	0.610859	20.8267	3.1098	0.321914
0.3793	-29.4116	6.65353	-1.20029	5.98751	5.77974	0.651641	2.74886	23.2681	3.723	0
0.3800	7.5053	6.97188	-3.36082	5.39499	4.57652	-0.256002	1.83258	23.2681	2.8032	-0.321914
0.3807	61.833	6.97188	-6.09749	3.86693	2.42792	-2.09456	-0.305429	22.3712	1.2702	0
0.3813	62.4425	7.57675	-4.56112	4.7713	3.35182	-1.16364	0.305429	22.3712	1.8834	0
0.3820	19.43	7.57675	-3.93696	5.08314	3.95343	-0.861097	0.610859	21.4744	1.8834	0
0.3827	20.3443	9.10483	-3.93696	5.67566	4.87732	-0.256002	0.916288	22.6702	2.8032	0
0.3833	54.823	9.10483	-3.64889	6.29936	5.17813	0.349093	1.22172	22.0723	4.3362	0
0.3840	62.4425	6.04866	-5.18527	4.17878	3.95343	-1.46619	-0.610859	18.3853	2.4966	0
0.3847	51.1656	4.52058	-3.64889	3.86693	4.57652	-2.09456	-1.22172	16.2428	1.8834	0
0.3853	41.0696	2.10111	0	4.7713	4.87732	-1.46619	-0.610859	15.047	1.5768	0
0.3860	23.3921	-0.668536	1.53638	5.08314	4.57652	-1.46619	-0.916288	10.7621	1.2702	-0.321914
0.3867	6.59095	-0.0636701	2.4486	6.61121	6.10203	-1.46619	0.610859	10.4632	2.4966	0
0.3873	1.71441	1.1779	1.24831	6.61121	5.47893	-2.09456	0.305429	13.5025	2.19	0.321914
0.3880	-1.33343	0.254681	-1.82445	4.45945	3.05101	-3.6073	-3.05429	10.4632	-0.569401	0
0.3887	-8.03867	-0.668536	-1.48836	4.45945	3.05101	-3.90984	-3.05429	3.4379	-3.3288	0
0.3893	-11.3913	-1.87827	0	6.29936	4.57652	-2.69965	-1.22172	-3.28842	-6.04441	0
0.3900	-21.4872	-2.19662	1.53638	6.29936	4.87732	-1.16364	-1.52715	-9.66597	-2.1024	0
0.3907	-43.7746	-2.19662	2.4486	4.7713	4.25423	-0.861097	-1.83258	-9.06807	-1.4892	0
0.3913	-51.6989	-3.40635	1.53638	5.08314	2.72872	-1.76874	-1.83258	-3.58737	-60.0937	0
0.3920	-28.1925	-2.80149	1.24831	10.5717	2.42792	-2.09456	-1.22172	0.996491	-197.1	-0.321914
0.3927	8.41965	-1.2734	0.624153	15.7484	1.20322	-1.76874	-0.305429	4.98246	-341.465	-0.321914
0.3933	18.2108	-0.955052	-0.288071	16.0602	-0.623094	-1.76874	-0.305429	4.03579	-436.029	0
0.3940	-17.5251	-2.48314	1.87246	13.316	-0.623094	-0.558549	0.305429	0.0996491	-493.408	0
0.3947	-58.4042	-4.93444	3.36082	-1.34095	-1.52551	0.651641	0.916288	-4.78316	-394.551	0
0.3953	-37.336	-6.46252	3.36082	-25.4469	-2.1486	0.977461	0.305429	-7.82246	-20.4108	0
0.3960	43.8126	-5.85765	2.4486	-35.5196	-0.923898	0.349093	-0.305429	-6.62667	285.401	-0.321914
0.3967	117.38	-5.22095	0.336082	-33.9916	0.601608	-0.861097	-1.83258	-6.02877	211.248	-0.321914
0.3973	146.982	-4.01122	0	-32.1517	3.95343	0.349093	-0.610859	-5.72983	54.9691	0
0.3980	118.904	-3.7247	0.624153	-27.2556	6.10203	1.8851	2.44343	-6.62667	122.115	-0.965742
0.3987	69.4526	-4.93444	0.912223	-14.158	4.25423	2.79275	2.44343	-11.2105	228.33	-0.965742
0.3993	44.1174	-5.85765	2.4486	6.61121	2.12711	3.72366	1.22172	-15.7944	208.795	0
0.4000	31.9261	-8.91382	3.07275	21.8606	-0.32229	2.4902	-0.610859	-19.7305	148.351	0
0.4007	31.0117	-9.51869	4.27305	31.9334	-0.923898	2.79275	0	-18.5347	19.8852	-0.321914
0.4013	37.4122	-7.38574	6.72165	38.3575	-0.923898	4.32876	2.13801	-13.054	-158.031	0
0.4020	35.8883	-7.38574	6.1455	37.7338	-3.3733	2.18765	1.22172	-13.054	-260.566	0
0.4027	28.8783	-8.59547	4.8972	33.4614	-4.89881	-0.256002	-1.52715	-14.8477	-330.471	0
0.4033	24.0017	-8.59547	4.27305	17.2765	-3.67411	-0.558549	-2.74886	-13.9509	-370.154	0
0.4040	20.3443	-8.91382	3.69691	-15.686	-2.1486	-1.16364	-4.27601	-13.6519	-122.027	0
0.4047	16.9536	-8.59547	4.27305	-37.3284	1.82631	-0.256002	-3.35972	-13.353	301.563	0
0.4053	13.2962	-7.06739	5.52135	-31.528	5.77974	0.977461	-0.916288	-11.8084	406.859	0
0.4060	10.2484	-6.46252	5.80942	-5.89395	4.87732	2.4902	-0.610859	-12.1074	225.57	-0.321914
0.4067	7.81008	-6.74903	6.43358	41.1017	2.72872	4.02621	-1.52715	-13.054	80.5921	0
0.4073	6.59095	-6.74903	5.80942	58.7836	1.52551	2.79275	-2.74886	-12.4063	20.1918	0.321914
0.4080	5.98138	-6.14417	4.60913	0.810808	-0.923898	0.651641	-4.58144	-12.4063	-13.0962	0
0.4087	4.45746	-4.93444	5.52135	-66.0185	-1.2247	1.28001	-3.66515	-11.2105	15.2862	0
0.4093	4.76224	-3.40635	5.52135	-66.0185	0	1.28001	-3.05429	-10.2639	119.355	0
0.4100	11.7723	-4.01122	3.98498	-23.9188	-0.32229	-0.256002	-3.35972	-11.8084	177.346	0
0.4107	20.0395	-5.22095	5.18527	13.9397	0.902412	-0.861097	-2.44343	-13.054	161.797	0
0.4113	19.1252	-6.74903	7.96995	37.4219	2.72872	-0.558549	-2.13801	-12.7053	162.411	0
0.4120	12.0771	-7.38574	9.17025	59.7192	5.47893	0.0465458	-1.22172	-12.1074	118.435	0
0.4127	5.98138	-6.14417	10.4186	121.06	7.62753	0.977461	1.22172	-10.2639	33.5946	0.321914
0.4133	2.62876	-5.22095	9.45832	217.484	6.10203	0.349093	2.74886	-9.06807	-79.5847	0
0.4140	0.800057	-5.5393	8.54609	313.627	3.05101	0.349093	4.27601	-8.76912	-322.237	0
0.4147	-8.64824	-6.74903	8.25802	364.583	1.52551	1.58256	5.80316	-11.5095	-521.483	0
0.4153	-22.0968	-6.74903	3.98498	276.673	0	2.79275	5.80316	-13.054	-518.155	0
0.4160	-30.326	-4.01122	0.336082	95.7066	-1.2247	3.39784	5.49773	-11.2105	-459.55	-0.321914
0.4167	-34.8977	-1.87827	0	9.35548	-2.75021	2.18765	4.27601	-9.06807	-371.95	-0.321914
0.4173	-32.4595	-2.19662	0.912223	25.2286	-3.05101	1.28001	2.13801	-8.47018	-115.326	0.321914
0.4180	-9.86737	-3.088	2.16053	10.2598	-1.8478	1.28001	0	-9.36702	210.634	0.321914
0.4187	22.7826	-3.7247	2.4486	-92.5881	-1.2247	1.28001	-0.610859	-10.9116	315.579	0
0.4193	34.0596	-2.19662	4.27305	-278.419	-1.52551	2.4902	0.916288	-9.96491	206.342	0
0.4200	25.8304	-0.668536	4.27305	-403.564	-2.4494	2.18765	1.52715	-9.66597	65.0431	0
0.4207	17.5632	-1.2734	1.53638	-317.182	-3.97491	-1.16364	0	-10.6126	-30.7914	-0.321914
0.4213	15.1249	-2.48314	0.336082	-127.983	-6.10203	-0.861097	0	-11.5095	-52.4287	0
0.4220	19.43	-2.80149	0.624153	22.4843	-8.25063	1.28001	2.13801	-10.6126	-84.1837	0
0.4227	18.5156	-1.87827	1.53638	115.54	-5.80122	1.58256	3.35972	-6.92561	-170.557	-0.321914
0.4233	4.45746	-0.350186	3.98498	212.9	-2.75021	1.58256	4.27601	-3.88632	-269.414	0
0.4240	-26.3638	-1.55992	4.60913	350.831	-1.8478	1.28001	4.27601	-3.88632	-374.403	0.321914
0.4247	-61.1472	-3.7247	0.624153	401.506	-1.2247	-0.558549	2.74886	-5.72983	-442.161	0
0.4253	-56.8802	-4.93444	-2.73667	356.943	0.300804	-3.0022	0.916288	-6.32772	-436.949	0
0.4260	-28.4973	-5.5393	-2.73667	384.417	2.72872	-4.21239	1.52715	-5.72983	-421.707	-0.321914
0.4267	-18.1346	-3.088	-2.40059	415.539	6.70363	-3.0022	4.88687	-3.58737	-412.859	-0.321914
0.4273	-22.0968	0.254681	3.36082	297.13	8.22914	-3.6073	5.80316	-2.93965	-349.7	0.321914
0.4280	-25.7542	-0.0636701	10.7066	182.089	5.47893	-7.26114	3.35972	-7.52351	-264.552	-0.643828
0.4287	-24.2303	2.10111	10.0825	247.39	1.52551	-6.05095	3.35972	-12.4063	-153.475	-1.28766
0.4293	-20.2681	6.04866	13.4433	337.733	-1.8478	2.79275	6.71945	-11.8084	46.7346	0
0.4300	-16.9155	6.36701	32.3599	84.1058	-3.67411	14.4059	10.9955	-8.17123	248.784	0.321914
0.4307	-15.3916	3.91571	34.1844	-480.747	-6.42432	25.9958	14.3391	-6.92561	392.799	0
0.4313	-16.0011	-1.2734	-3.36082	-736.806	-8.85223	30.2548	13.4389	-8.47018	444.395	-0.321914
0.4320	-16.6107	-4.93444	-37.8333	-500.612	-6.10203	23.2496	10.0792	-8.76912	437.65	0
0.4327	-16.9155	-5.85765	-26.2144	-196.652	-2.75021	14.7085	7.02488	-8.17123	486.181	0.321914
0.4333	-18.4394	-5.5393	0.336082	-22.0789	-3.97491	12.5674	7.94116	-7.22456	486.794	0.321914
0.4340	-19.049	-1.2734	-3.93696	64.584	-9.77613	12.5674	9.77374	-4.78316	320.178	0
0.4347	-17.5251	-3.088	-10.6586	64.584	-10.3777	9.21606	7.02488	-4.78316	25.6668	0
0.4353	-14.4772	-12.2565	1.53638	18.4927	-0.32229	5.84149	2.13801	-6.32772	-246.55	0
0.4360	-11.3913	-10.1236	3.69691	-3.77338	6.70363	4.32876	0	-6.62667	-350.313	0
0.4367	-10.4769	-2.48314	-6.09749	33.7733	7.62753	5.53895	1.83258	-6.32772	-399.106	0
0.4373	-10.1722	-0.0636701	-8.83416	101.507	11.9032	9.82116	5.49773	-3.58737	-345.714	0
0.4380	-10.1722	0.859547	7.05773	38.95	14.9543	9.82116	5.49773	-2.6407	7.66501	0
0.4387	-10.7817	1.46441	34.8085	-233.575	14.0304	4.93385	1.22172	-4.48421	344.575	0.321914
0.4393	-10.7817	2.38763	54.3493	-437.119	13.7296	0.349093	-0.916288	-3.58737	470.325	0
0.4400	-10.4769	4.52058	57.086	-335.799	15.5559	-3.30475	-1.83258	-0.498246	533.178	0
0.4407	-9.86737	7.57675	54.0132	-162.162	14.632	-2.69965	-0.916288	1.59439	469.405	0
0.4413	-10.1722	7.57675	51.6126	-90.1245	5.17813	0.651641	1.22172	0.697544	213.657	0
0.4420	-11.3913	6.65353	38.7935	-18.4303	-7.94982	2.4902	1.52715	-0.498246	-120.494	0
0.4427	-12.3437	12.4475	7.3458	-36.7359	-14.3527	4.32876	2.13801	0.0996491	-345.407	0
0.4433	-15.0868	21.9344	-39.6577	-179.251	-17.4037	6.46986	3.66515	1.94316	-426.569	0
0.4440	-21.792	19.1647	-65.9201	-221.663	-19.5308	6.77241	4.58144	4.68351	-451.316	-0.321914
0.4447	-27.5829	9.42318	-40.858	-122.494	-19.8531	6.46986	4.27601	4.68351	-366.782	-0.321914
0.4453	-30.326	6.65353	-23.7658	-26.3513	-19.23	6.46986	2.13801	0.398597	-114.099	0
0.4460	-30.0212	10.9513	-37.8333	37.1101	-14.6535	5.84149	0.610859	-3.28842	101.967	0
0.4467	-12.6485	18.5598	-1.48836	128.669	-8.25063	6.46986	0.916288	-4.48421	183.172	-0.321914
0.4473	20.9539	24.0673	77.539	200.083	-7.62753	7.9826	3.05429	-2.93965	349.174	0
0.4480	46.5557	24.0673	123.006	154.615	-5.50042	7.9826	3.35972	0.996491	507.248	-0.321914
0.4487	60.6138	19.1647	127.567	84.1058	-1.8478	9.21606	1.52715	6.82597	403.179	-0.321914
0.4493	72.5004	14.6123	97.3678	94.1785	-7.62753	11.9623	0	12.3067	123.648	-0.321914
0.4500	74.9387	12.7659	69.617	142.11	-6.72512	16.2212	0.305429	15.346	-145.197	-0.321914
0.4507	72.8052	5.4438	34.5205	135.686	6.70363	23.8547	1.52715	17.1895	-263.939	0
0.4513	56.6517	2.10111	-96.7437	-44.9687	16.4798	27.5086	2.74886	17.1895	-216.022	0
0.4520	1.10484	8.49996	-177.307	-261.049	24.7089	23.5522	1.52715	13.5025	-123.56	0
0.4527	-62.9759	13.0842	-32.648	-288.18	37.2138	22.6445	-2.74886	11.36	1.2702	0
0.4533	-93.4924	7.8951	157.815	-247.92	46.3883	26.2984	-5.48165	15.047	268.275	0.321914
0.4540	-77.0341	-2.19662	219.126	-229.615	46.9899	29.0446	-5.78708	22.9691	569.795	0
0.4547	-31.8499	-4.93444	209.667	-185.644	38.1377	33.0009	-6.09251	28.7986	580.175	0
0.4553	-14.1724	3.91571	217.925	-159.729	25.0097	37.5857	-2.44343	26.9551	412.334	0
0.4560	-35.2025	17.0318	231.945	-117.006	15.5559	37.5857	0	20.8267	288.117	0
0.4567	-44.6889	30.4662	192.911	-37.6402	5.17813	40.0294	-1.52715	17.1895	123.954	0
0.4573	-26.059	40.8444	112.924	-17.4947	-9.77613	48.5705	-1.52715	14.1502	-20.4108	-0.321914
0.4580	-10.1722	41.1627	89.4459	-43.7525	-25.0312	51.0142	-3.66515	5.8793	-177.565	-1.28766
0.4587	-15.0868	35.6553	149.845	-61.4343	-36.0105	49.804	-6.70337	2.24211	-347.247	-0.965742
0.4593	-23.6207	35.6553	165.737	-91.6525	-47.3122	50.4091	-6.70337	6.17825	-292.628	0
0.4600	-2.85735	41.1627	76.2907	-90.1245	-60.7409	51.3167	-6.70337	10.1642	-78.7087	-0.321914
0.4607	29.183	49.3762	31.4477	-5.61329	-68.9701	51.0142	-7.0088	13.2035	117.822	-0.321914
0.4613	27.3543	61.2825	76.2907	65.8002	-70.4956	35.1421	-5.1923	11.7088	276.553	0
0.4620	14.8201	68.3181	79.6515	65.2077	-68.0677	8.58769	-3.35972	6.82597	382.112	-0.321914
0.4627	25.2208	65.5484	39.0816	56.9749	-58.9146	-15.8256	-2.44343	7.12491	370.855	-0.321914
0.4633	16.9536	60.3911	10.0825	112.203	-39.0616	-39.0054	-2.44343	8.9186	183.741	0
0.4640	-44.6889	53.6739	-44.2188	226.028	-16.179	-59.7648	-2.44343	8.61965	-46.647	0
0.4647	-102.369	24.6722	-108.026	227.556	1.82631	-85.714	-1.83258	10.7621	-168.718	0
0.4653	-145.687	-23.558	-153.782	84.7295	12.5049	-102.191	-3.97058	15.346	-161.71	0
0.4660	-216.777	-48.8668	-291.719	19.4282	21.9587	-89.6704	-4.27601	22.6702	-135.736	0
0.4667	-244.551	-43.6777	-451.358	14.844	28.383	-68.6085	-3.66515	26.0084	-232.491	0.321914
0.4673	-179.86	-44.3144	-410.452	-30.6236	25.9336	-54.8775	-7.0088	20.8267	-306.951	0.321914
0.4680	-80.9963	-57.717	-260.896	-73.0351	20.4332	-42.3567	-9.75766	12.6056	-219.088	0
0.4687	-21.1825	-57.717	-163.864	-134.095	12.5049	-32.6053	-10.0631	6.17825	-117.735	-0.321914
0.4693	-25.7542	-40.0167	-95.2073	-206.413	-3.05101	-25.2744	-7.92509	4.98246	-117.121	0
0.4700	-31.8499	-42.468	-39.6577	-308.637	-8.85223	-19.4794	-3.66515	7.72281	-154.395	0.321914
0.4707	21.2587	-76.0221	20.1649	-346.496	18.9077	-15.523	-0.610859	9.86526	-139.722	0.321914
0.4713	91.4351	-72.3611	99.5284	-221.07	64.6944	-16.1281	0.305429	14.4491	-66.7951	0
0.4720	100.883	-23.558	141.011	-138.96	92.4543	-21.6205	-0.916288	19.9298	120.582	-0.321914
0.4727	57.2612	7.57675	102.841	-111.798	101.307	-26.182	-1.52715	19.9298	356.182	0
0.4733	18.8204	6.65353	15.8919	-19.0228	101.93	-26.8104	0.916288	16.2428	447.417	0
0.4740	-19.049	-3.7247	-39.3696	64.8959	92.7551	-28.6256	2.74886	11.0611	388.55	0
0.4747	-55.0515	-15.3127	-50.0282	125.925	84.2251	-34.7464	0.916288	1.94316	216.109	0
0.4753	-49.2607	-24.4493	-110.763	190.633	81.1741	-39.3079	0	-8.47018	57.4219	0
0.4760	-5.90518	-27.8238	-194.688	248.014	75.0721	-38.4003	5.1923	-11.2105	21.4182	0
0.4767	86.8633	-33.9362	-170.25	287.681	68.0462	-37.4926	14.95	-7.22456	37.887	-0.321914
0.4773	195.176	-46.129	-80.2276	297.13	57.0668	-36.5617	25.0291	-4.48421	116.333	0
0.4780	215.634	-54.3743	-43.0185	279.136	34.485	-31.6977	31.7486	-4.78316	200.56	0
0.4787	159.478	-47.0522	-46.0433	238.534	-1.52551	-24.6693	30.2214	-2.6407	145.898	0
0.4793	133.838	-29.0336	-53.101	277.92	-36.3328	-20.6896	20.1423	0.697544	36.354	0
0.4800	172.012	-15.3127	-70.4813	413.107	-57.9907	-14.8946	6.10859	3.73684	-8.80381	0
0.4807	156.43	-7.38574	-96.7437	482.68	-78.4454	-3.6073	-4.58144	9.86526	-65.8753	0
0.4813	72.1956	-4.01122	-103.417	442.389	-95.8276	4.6313	-7.61966	19.6309	-190.092	0
0.4820	54.823	-6.46252	-80.8518	315.436	-83.9243	13.1725	-9.14681	29.6954	-252.639	0.321914
0.4827	67.0143	-7.06739	-59.4866	134.158	-42.1126	24.4598	-14.0337	36.1228	-201.086	0.321914
0.4833	42.5935	-3.7247	-45.4671	-16.5904	-4.89881	23.5522	-19.226	37.0197	-116.859	0
0.4840	39.8505	-3.088	-25.3022	-64.4904	10.9793	12.8699	-21.6694	34.5782	-30.4848	0
0.4847	114.942	-4.61609	-7.00972	-59.9374	23.4842	6.46986	-22.2803	32.7347	6.13201	0.321914
0.4853	302.612	-4.01122	3.36082	-156.673	31.1117	7.68005	-20.7531	33.9804	-36.8796	0.321914
0.4860	566.898	-0.350186	10.4186	-340.384	30.5101	13.475	-17.3934	37.9165	-68.0215	0.321914
0.4867	788.132	5.4438	6.1455	-455.113	41.7903	13.475	-17.3934	37.0197	-31.4046	0
0.4873	805.848	15.822	-16.1319	-374.562	46.6891	2.18765	-19.5314	32.4358	19.5786	0
0.4880	616.044	22.5392	-30.8235	-113.638	36.0105	-15.8256	-19.226	23.9158	76.0369	-0.965742
0.4887	398.428	16.7452	-21.9414	56.663	67.4446	-27.718	-11.8957	8.61965	123.341	-1.60957
0.4893	271.791	7.57675	-13.1072	21.8606	125.414	-32.3028	2.74886	0.0996491	63.8167	0
0.4900	152.773	5.12545	14.6916	-0.405404	132.741	-37.1901	11.6063	0.697544	-71.0437	0.643828
0.4907	-3.46691	4.83893	75.7145	55.7275	101.006	-30.7668	11.3009	4.03579	-207.481	0
0.4913	-156.354	6.04866	92.8067	107.307	66.8215	-10.9383	7.3303	12.6056	-318.251	0
0.4920	-309.584	6.97188	46.7154	86.8812	28.383	4.93385	3.35972	20.5277	-322.544	-0.321914
0.4927	-383.113	2.70598	-14.3075	-0.717254	-26.2559	10.7288	-1.83258	7.42386	-187.639	0
0.4933	-354.73	10.028	-55.2135	-83.4197	-82.098	12.5674	-4.88687	-17.2891	33.9012	0
0.4940	-262.571	25.8819	-76.8668	-204.573	-114.757	18.3623	0.305429	-17.9368	288.117	0
0.4947	-164.621	17.955	-157.767	-334.271	-140.39	27.8111	7.94116	-8.47018	469.712	0
0.4953	-157.878	1.1779	-237.082	-423.086	-167.849	31.7908	17.088	-6.92561	478.866	0
0.4960	-213.12	-2.48314	-187.054	-478.626	-185.252	26.2984	21.9748	-3.28842	358.941	0
0.4967	-262.266	0.573031	-112.588	-442.92	-186.778	17.4547	16.1717	-2.34175	229.556	0
0.4973	-303.145	5.12545	-99.4804	-322.982	-175.175	9.21606	6.41402	-6.32772	178.573	0
0.4980	-269.581	7.29023	-85.749	-178.035	-163.573	2.4902	-4.27601	-6.92561	197.494	0
0.4987	-137.457	10.6329	-47.9157	-79.1474	-149.843	3.39784	-12.812	-1.74386	230.169	0.321914
0.4993	-65.719	17.3501	-10.9467	-78.8355	-128.787	7.3775	-14.95	-1.14596	206.649	0
0.5000	-101.455	16.1404	10.7066	-102.661	-115.681	1.58256	-12.5065	-9.66597	127.896	0
0.5007	-126.142	12.161	34.1844	-32.4635	-94.3021	-8.79715	-7.0088	-16.0933	60.4879	0
0.5013	-111.513	15.2172	50.3643	110.987	-39.0616	-15.8256	-6.09251	-15.1467	17.739	0
0.5020	-92.578	17.0318	56.7979	216.579	13.1065	-18.5718	-8.23052	-6.92561	53.4361	0
0.5027	-64.8046	-5.85765	91.8945	240.685	42.1126	-13.3819	-2.13801	7.42386	147.738	0
0.5033	-41.6411	-40.9399	132.176	236.694	57.6684	-6.05095	9.16288	13.5025	161.184	0
0.5040	-46.8224	-48.262	133.089	226.933	52.7911	-3.0022	14.95	6.17825	126.714	0.321914
0.5047	-28.8021	-33.6178	119.933	213.211	39.964	0.349093	15.2554	-0.498246	129.429	0
0.5053	26.1352	-19.5786	108.363	215.051	23.4842	-0.558549	14.3391	-9.66597	138.583	-0.321914
0.5060	67.6239	-11.0468	83.6365	190.633	-7.62753	7.9826	13.1335	-22.1719	148.044	0
0.5067	66.4047	-6.46252	74.8023	81.6733	-45.1851	50.7116	11.6063	-15.4954	152.643	0
0.5073	-6.51475	-2.80149	97.0798	-77.0268	-69.5932	93.7432	6.71945	3.13895	116.333	0
0.5080	-147.82	2.10111	118.733	-164.906	-80.8733	88.2508	-1.83258	8.9186	49.1875	0.321914
0.5087	-263.485	10.6329	128.191	-198.18	-101.027	59.5553	-10.3685	-2.34175	-12.483	0.321914
0.5093	-294.611	19.1647	120.558	-194.812	-128.486	51.3167	-15.2554	-13.353	-59.7871	0
0.5100	-317.508	23.4624	99.1923	-151.465	-152.293	52.8527	-10.674	-16.9902	-105.865	0
0.5107	-332.748	17.3501	81.524	-155.457	-150.767	46.4294	-5.1923	-26.1579	-149.183	0.321914
0.5113	-284.554	2.70598	12.243	-150.873	-109.256	38.8192	-5.78708	-29.7951	-132.408	0
0.5120	-191.176	-8.91382	-97.0318	-100.509	-72.0211	29.0446	-5.78708	-19.1326	-38.106	0
0.5127	-116.389	-18.3688	-95.2073	-57.4738	-55.5413	19.5725	-7.61966	-9.36702	52.5163	0
0.5133	-59.9281	-23.558	-8.83416	2.65072	-28.383	15.011	-7.31423	-0.847018	80.5921	0
0.5140	99.6643	-17.1273	20.7891	76.4966	-1.2247	12.2648	-0.305429	7.42386	60.1813	-0.321914
0.5147	275.143	-7.06739	2.4486	110.363	8.52994	16.8263	2.74886	5.8793	51.9469	0
0.5153	331.3	-1.55992	-11.5708	57.2555	6.70363	31.7908	-1.83258	1.29544	65.3497	0.321914
0.5160	375.57	2.38763	-19.2047	-37.9521	14.0304	48.8731	-6.09251	1.29544	31.4922	0
0.5167	418.277	5.76215	-23.7658	-70.9145	48.2146	53.4578	-11.2848	1.29544	-65.5687	0
0.5173	369.131	6.65353	-23.1897	-77.3074	67.4446	40.3319	-20.4477	3.13895	-122.947	0
0.5180	304.441	2.9925	-14.6436	-91.06	54.3166	19.8983	-24.7076	5.8793	-144.934	-0.965742
0.5187	296.516	0.254681	-5.47334	-65.1141	38.7393	1.58256	-19.5314	10.1642	-252.332	-1.28766
0.5193	304.746	2.10111	-4.84919	-24.2307	22.8826	-8.79715	-12.5065	22.3712	-350.619	0
0.5200	405.477	2.10111	-3.64889	42.0061	2.42792	-17.6408	-2.74886	28.4498	-367.395	0.321914
0.5207	599.548	-0.350186	4.8972	149.719	-14.6535	-26.5078	10.9955	24.2147	-342.341	0
0.5213	611.777	-3.40635	14.6916	209.563	-30.5316	-24.3667	20.7531	19.9298	-227.629	0
0.5220	309.622	-10.4101	19.2527	204.355	-44.8628	-0.256002	23.502	5.58035	-133.021	0
0.5227	-37.336	-17.764	19.5408	195.81	-50.9648	43.3807	21.0585	-11.5095	-122.947	0
0.5233	-112.122	-15.3127	18.3405	151.559	-53.1134	73.2863	13.1335	-15.1467	-60.4003	0
0.5240	33.45	-4.32957	10.9947	14.5322	-53.4142	65.0477	2.74886	-15.1467	36.6606	0
0.5247	207.71	7.57675	3.07275	-98.981	-49.1385	49.5014	-0.916288	-9.66597	66.2695	0
0.5253	341.358	21.9344	-1.82445	-120.031	-37.5361	43.6832	2.13801	4.68351	48.5742	0
0.5260	277.886	38.7114	-9.12223	-147.505	-22.5818	29.3471	2.74886	18.3853	45.5082	0
0.5267	-25.1447	30.7845	-17.0922	-150.561	-18.0053	15.6161	-1.83258	25.7095	20.1918	0
0.5273	-243.941	9.42318	-18.5805	-142.64	-6.10203	23.2496	-8.84138	24.8126	-46.0338	0
0.5280	-248.818	18.2733	-9.12223	-170.083	37.8369	40.0294	-11.5902	21.7733	-82.6507	0
0.5287	-261.962	27.1235	3.69691	-122.775	87.8778	38.8192	-6.09251	18.3853	-92.4181	0.321914
0.5293	-341.929	5.12545	9.17025	-58.4094	111.684	22.9471	-2.13801	7.42386	-59.4805	0
0.5300	-402.353	-14.3895	13.1552	-70.9145	126.037	19.2699	-0.610859	-4.18526	39.42	-0.321914
0.5307	-387.075	-12.5749	18.0044	-73.6588	142.817	24.7624	3.35972	-8.76912	104.726	-0.321914
0.5313	-270.8	-8.27712	20.453	-21.7671	151.971	8.89024	9.46831	-10.2639	80.0227	0
0.5320	-167.669	-7.38574	20.7891	55.135	155.022	-25.5769	12.828	-13.6519	17.4324	0
0.5327	-128.885	-6.14417	21.0772	127.453	153.797	-67.3983	8.55202	-20.6772	-36.8796	0
0.5333	-95.0163	-15.3127	22.2775	184.833	146.771	-102.494	7.94116	-31.0407	-76.8691	0
0.5340	-141.724	-29.9568	21.3652	220.54	135.19	-113.176	10.69	-41.1053	-100.039	0
0.5347	-227.788	-33.013	19.5408	183.898	110.159	-122.322	10.3846	-46.287	-90.5785	0
0.5353	-191.48	-29.6384	13.1552	78.0247	71.6988	-140.033	9.46831	-43.8456	-45.4206	0
0.5360	-73.6814	-28.4287	3.36082	-33.9916	40.2648	-138.194	7.3303	-40.2084	29.6526	0
0.5367	-0.114294	-29.0336	1.24831	-151.777	57.6684	-112.245	6.41402	-39.9095	121.808	0
0.5373	-41.9459	-38.4886	3.69691	-228.991	104.658	-84.7831	10.9955	-40.5074	157.812	0
0.5380	-105.112	-18.0505	3.69691	-218.295	107.709	-67.0957	16.7825	-44.4435	113.267	0
0.5387	-46.8224	35.0504	5.80942	-168.555	84.8268	-53.0389	9.77374	-49.3263	56.8087	0.321914
0.5393	70.0621	33.8407	12.5311	-93.8043	73.5466	-49.0825	-7.61966	-52.1165	24.4404	0.643828
0.5400	146.372	-14.7078	20.7891	1.40332	64.6944	-60.3699	-16.7825	-53.9102	17.4324	0.321914
0.5407	76.1578	-35.1459	22.2775	86.2575	55.5413	-64.3495	-16.4771	-55.7537	26.28	0
0.5413	-172.546	-15.9175	16.516	145.166	40.5871	-54.2724	-17.088	-56.9993	43.0554	0
0.5420	-356.864	1.46441	10.7066	172.609	12.2041	-49.9902	-19.5314	-53.9102	56.5021	0
0.5427	-377.322	-13.7846	6.1455	172.328	0.601608	-50.2927	-13.4228	-46.8849	42.7488	0
0.5433	-373.665	-22.3164	0	177.816	11.2802	-31.3718	5.49773	-44.1446	25.9734	0
0.5440	-377.322	0.859547	-12.8191	230.924	-11.6024	-4.51494	24.1128	-38.9628	24.1338	0
0.5447	-333.662	19.4831	-27.4627	278.824	-66.5422	12.2648	27.4726	-25.8589	3.1098	-0.321914
0.5453	-290.954	31.071	-23.7658	298.658	-108.354	33.9319	20.1423	-5.38105	-40.8654	0
0.5460	-391.647	49.0897	-14.6436	267.847	-130.613	43.0781	11.6063	15.6449	-64.9555	0.321914
0.5467	-533.562	59.1496	-23.7658	48.1184	-138.563	20.5034	10.3846	28.1509	0.3504	0.321914
0.5473	-412.41	53.0372	-23.1897	-266.226	-134.588	8.58769	18.0043	35.774	94.3453	0.321914
0.5480	3.23833	33.8407	3.98498	-394.396	-94.0013	15.6161	20.4477	33.0337	99.2071	-0.965742
0.5487	416.144	17.0318	19.2527	-296.132	38.7393	22.0161	16.1717	20.5277	55.2757	-1.28766
0.5493	584.613	5.12545	9.17025	-165.218	209.338	30.8831	12.2172	13.8014	32.1054	0.321914
0.5500	529.066	-5.22095	-2.73667	-118.222	295.089	27.5086	5.49773	1.59439	21.7248	0.321914
0.5507	407	16.1404	-7.58586	-114.542	307.615	6.77241	4.27601	-19.7305	7.05181	0
0.5513	298.65	50.0129	-3.36082	-119.75	284.41	-12.7768	5.49773	-25.56	-9.11041	0
0.5520	188.471	38.1066	5.80942	-121.559	227.343	-24.9718	-0.610859	-13.6519	-9.11041	0
0.5527	58.4804	2.38763	12.8191	-106.621	174.552	-27.718	-1.22172	-9.06807	10.4244	0
0.5533	-59.9281	-29.3519	16.18	-87.3802	117.185	6.77241	6.41402	-17.9368	28.1196	0.321914
0.5540	-89.2254	-46.129	14.6916	-67.8584	32.6372	67.7939	10.69	-17.9368	31.4922	0.321914
0.5547	-5.90518	-30.2752	8.54609	-25.7276	-54.3381	105.636	3.97058	-10.9116	20.1918	0.321914
0.5553	121.952	-6.74903	-2.40059	28.8772	-129.41	161.188	-12.5065	-16.6912	-3.0222	0.321914
0.5560	186.032	4.83893	-10.0345	62.1516	-176.701	293.029	-25.9293	-23.7165	-21.024	0.321914
0.5567	154.906	9.42318	-10.0345	78.6172	-180.053	401.667	-26.5402	-21.873	-22.2504	0.321914
0.5573	72.8052	9.7097	-9.12223	89.6255	-160.844	410.813	-19.226	-19.1326	-12.7896	0
0.5580	12.3818	7.57675	-8.83416	102.443	-137.639	395.243	-13.4228	-16.6912	-10.95	0
0.5587	131.705	1.78276	-0.912223	119.532	-131.838	377.253	-10.674	-14.5488	-18.5712	0.321914
0.5593	350.234	-1.55992	7.63387	118.908	-144.665	326.286	-1.22172	-7.82246	-23.433	0.321914
0.5600	382.275	4.52058	-0.912223	94.4903	-137.639	251.51	13.7443	2.84	-22.8636	0.321914
0.5607	298.955	12.161	-17.3803	42.9105	-116.884	158.139	20.1423	18.3853	-20.1042	0.321914
0.5613	249.199	10.3146	-18.2925	-65.426	-92.7766	53.4578	15.5608	37.0197	-17.3448	0
0.5620	200.395	8.18161	-7.29779	-139.272	-72.0211	-39.0054	2.13801	43.447	-21.3306	0.321914
0.5627	197.347	20.4063	-0.576141	-104.158	-83.3227	-127.21	-17.6988	27.254	-33.507	0.321914
0.5633	230.912	15.822	13.4433	-52.609	-110.782	-209.898	-32.9542	4.98246	-46.3404	0.321914
0.5640	193.652	-23.2396	30.2474	-21.7671	-137.038	-270.338	-39.3682	9.26737	-54.2683	0.321914
0.5647	140.277	-43.0728	21.0772	6.29936	-158.395	-319.164	-39.6737	9.86526	-51.5089	0
0.5653	62.7473	-30.88	5.52135	24.2931	-176.701	-341.134	-40.2845	-21.873	-36.8796	0
0.5660	-108.77	-20.7883	4.8972	39.8543	-200.507	-311.833	-38.7574	-34.379	-26.8056	0
0.5667	-162.488	-15.9175	9.17025	57.2555	-202.635	-264.845	-25.9293	-13.054	-24.6594	0
0.5673	-105.112	-16.5224	14.0674	68.5445	-167.247	-234.335	-10.3685	8.9186	-20.7174	0
0.5680	-68.1572	-22.0299	16.516	49.0227	-118.732	-201.66	0	21.1256	-20.7174	0
0.5687	49.0321	-30.88	24.1499	-20.239	-71.4195	-154.066	2.44343	15.047	-30.4848	0.321914
0.5693	135.972	-37.5972	41.2421	-95.9249	-29.6077	-121.112	0.305429	-6.92561	-37.1862	0.321914
0.5700	101.188	-33.2995	48.828	-124.022	-7.62753	-111.035	5.1923	-23.7165	-35.6532	0.321914
0.5707	60.3091	-27.219	37.5452	-106.309	-2.1486	-106.45	9.16288	-27.0547	-41.7852	0.321914
0.5713	41.6792	-19.5786	18.0044	-68.7628	3.05101	-101.865	2.74886	-13.6519	-53.0419	0
0.5720	35.5835	-0.955052	-1.48836	-36.1122	8.85223	-89.3679	-1.83258	10.7621	-60.4003	0
0.5727	-73.6814	16.7452	-16.1319	-18.1184	18.0053	-68.911	-6.39794	25.4105	-60.0937	0
0.5733	-452.375	20.4063	-17.3803	-4.36589	32.9595	-57.9262	-14.0337	26.3572	-46.9536	0
0.5740	-862.538	7.57675	-4.56112	1.40332	46.6891	-49.9902	-15.2554	18.6842	-33.507	0.321914
0.5747	-958.964	-13.4662	13.1552	1.12266	51.8672	-23.1332	-15.5608	6.47719	-30.7914	0
0.5753	-793.58	-23.2396	23.1897	5.39499	70.1733	1.58256	-20.1423	5.2814	-32.0178	0
0.5760	-446.889	-16.8408	18.9646	8.73178	114.134	1.28001	-22.8911	19.9298	-35.04	0
0.5767	-27.8877	-6.74903	11.6188	11.7879	145.568	-1.76874	-16.1717	37.9165	-35.04	0.321914
0.5773	269.353	-3.7247	8.88217	17.2765	147.394	-7.58696	-11.8957	36.4218	-29.565	-0.321914
0.5780	437.212	-5.85765	7.3458	20.3326	136.415	-19.4794	-19.8368	7.12491	-32.0178	-1.60957
0.5787	511.351	-3.7247	7.96995	24.6049	125.715	-14.2896	-17.6988	-27.3537	-39.3324	-0.965742
0.5793	534.552	-3.088	8.88217	28.2847	112.286	-4.51494	-7.31423	-48.4295	-16.7316	0.321914
0.5800	587.966	-3.7247	10.0825	27.9729	92.4543	-11.2408	-7.92509	-50.8709	20.805	0
0.5807	614.52	2.38763	13.4433	28.2847	79.9494	-32.9079	-15.8663	-33.4821	19.5786	0
0.5813	406.086	5.76215	10.4186	19.1164	68.6478	-58.8571	-14.95	0.0996491	8.27821	0
0.5820	31.6213	1.78276	8.25802	8.73178	48.2146	-87.2268	7.94116	29.3965	28.7328	0
0.5827	-148.734	-3.088	11.3308	8.73178	27.1583	-95.7679	40.2845	25.7095	36.6606	0
0.5833	-160.354	-2.19662	10.7066	8.13927	12.2041	-56.1109	69.8951	2.24211	9.50461	0
0.5840	-256.78	5.76215	8.88217	-2.86901	17.683	9.51861	84.8451	-3.88632	-5.43121	0
0.5847	-425.516	13.6891	2.78468	-28.503	27.4591	104.728	67.4517	1.59439	-10.3368	0
0.5853	-482.587	14.8988	-2.40059	-46.8086	36.3114	216.415	39.6737	2.24211	-45.114	0
0.5860	-342.539	6.04866	5.52135	-46.1849	74.449	304.316	18.3097	0.0996491	-94.8709	0
0.5867	-212.51	-5.5393	11.6188	-50.4572	108.934	361.986	-3.66515	-6.62667	-133.327	0
0.5873	-247.294	-3.088	4.8972	-63.2742	105.281	373.576	-13.7282	-11.5095	-103.105	0
0.5880	-291.564	10.9513	-14.0194	-68.7628	81.4749	350.094	-14.6445	-17.2891	22.0314	0
0.5887	-181.384	24.9905	-33.2241	-54.7296	51.2656	298.824	-15.5608	-26.1579	128.816	0
0.5893	-53.5276	27.1235	-38.7455	-22.7026	21.6579	200.542	-12.812	-38.9628	119.049	0
0.5900	13.601	14.6123	-33.5602	6.61121	-11.0008	76.0325	-14.0337	-52.7144	43.6686	0
0.5907	115.246	4.52058	-21.3652	25.5405	-43.0365	-21.9231	-17.6988	-47.5326	3.4164	0
0.5913	194.566	0.859547	-7.92194	32.2452	-65.0167	-67.3983	-24.1128	-35.0267	-5.12461	0.321914
0.5920	206.491	-6.46252	1.24831	31.6215	-78.1231	-104.309	-37.5357	-38.6639	-19.1844	0.321914
0.5927	189.69	-12.8614	9.45832	35.8939	-90.3487	-151.623	-44.239	-42.0021	-22.8636	0
0.5933	139.362	-15.5992	11.3308	32.5571	-113.532	-168.1	-37.2302	-43.8456	-21.9438	0
0.5940	19.1252	-12.8614	5.18527	28.8772	-137.038	-181.831	-22.5857	-52.4154	-27.1122	0.321914
0.5947	-112.732	-2.48314	-3.93696	37.1101	-137.94	-206.244	-6.70337	-58.1951	-27.1122	0
0.5953	-179.251	2.10111	-10.9467	34.0851	-111.405	-164.144	4.88687	-58.1951	-14.5854	0
0.5960	-213.73	-0.955052	-8.83416	27.661	-80.2717	-104.635	17.3934	-56.9993	3.4164	0.321914
0.5967	-274.153	-3.7247	-5.18527	42.318	-71.1187	-137.589	26.2508	-60.3375	4.94941	0
0.5973	-316.594	-3.7247	-5.47334	61.8397	-65.6183	-145.525	21.364	-63.3768	-7.27081	0
0.5980	-276.896	-1.2734	-3.02474	57.5674	-53.715	-39.6105	19.5314	-58.494	-8.19061	0
0.5987	-238.76	-2.80149	-1.20029	35.582	-50.664	57.74	32.054	-59.4407	-1.1826	0
0.5993	-204.891	-5.85765	1.24831	34.9895	-35.7097	96.1868	43.9497	-65.5193	3.1098	0.321914
0.6000	-111.208	-8.27712	4.8972	27.9729	1.82631	101.679	40.59	-61.8821	0.657001	0.321914
0.6007	-24.2303	-11.9382	7.3458	-23.9188	30.2093	80.9198	28.3889	-49.974	-4.5114	0
0.6013	9.63878	-10.1236	10.0825	-35.8003	39.3624	34.537	18.6151	-36.2225	-10.95	0
0.6020	3.23833	-8.59547	11.3308	25.8211	29.5862	-27.4155	7.3303	-31.6386	-23.1264	0
0.6027	-1.33343	-12.8614	12.243	72.5362	11.9032	-81.1293	0.916288	-37.767	-33.8136	0.321914
0.6033	31.9261	-15.5992	16.516	81.6733	7.30524	-152.833	3.97058	-42.0021	-41.172	0.321914
0.6040	74.3291	-18.0505	20.1649	87.7856	11.9032	-276.133	5.49773	-41.4042	-47.2603	0
0.6047	106.369	-17.4456	21.3652	89.3137	23.1834	-356.704	9.77374	-35.0267	-46.3404	0
0.6053	150.03	-12.8614	16.516	66.1121	32.0356	-310.018	18.6151	-29.1972	-37.4928	0
0.6060	208.624	-9.51869	9.45832	34.6776	29.9085	-219.37	23.502	-26.1579	-24.966	0
0.6067	274.839	-5.85765	10.9947	9.04363	36.913	-151.018	21.364	-16.3923	-10.0302	0.321914
0.6073	320.023	-7.06739	13.7314	-8.04571	56.1429	-99.7476	3.35972	-8.17123	-1.7958	0
0.6080	271.181	-10.4101	14.0674	-4.08523	77.1992	-61.9059	-19.226	-7.52351	1.2702	-0.965742
0.6087	170.793	-9.20033	16.18	6.29936	95.5053	-28.3231	-29.5945	-6.32772	12.264	-0.965742
0.6093	73.4148	-9.51869	15.8919	10.2598	101.307	-10.0306	-40.59	-4.18526	18.3522	-0.321914
0.6100	-58.4042	-11.6516	18.6286	-1.0291	95.2045	-8.4946	-47.9042	-2.93965	17.739	-0.643828
0.6107	-196.662	-14.3895	25.0621	-34.8959	88.1786	-21.0154	-45.4607	-5.08211	25.3602	-0.321914
0.6113	-331.224	-18.6553	27.7988	-46.4967	97.3531	-53.9698	-36.3139	-8.76912	27.813	0.643828
0.6120	-400.829	-19.8969	28.9991	-30.9355	97.3531	-75.0318	-24.1128	-5.72983	18.6588	0.321914
0.6127	-302.536	-18.0505	26.8866	-24.5114	98.2555	-69.5394	-29.2891	0.398597	10.1178	0.321914
0.6133	-139.591	-13.7846	20.1649	-22.0789	175.777	-63.1161	-38.1465	7.72281	6.74521	0.321914
0.6140	21.8682	-4.61609	10.7066	-17.4947	273.13	-68.6085	-28.9836	16.8905	11.0376	0.321914
0.6147	184.813	6.36701	-0.288071	-8.04571	327.447	-82.0369	-6.70337	23.567	17.1258	-0.321914
0.6153	243.408	11.5561	-3.02474	-3.46153	341.778	-105.543	25.3346	26.9551	19.5786	0
0.6160	207.71	2.38763	7.96995	-17.8066	292.038	-117.738	47.3094	24.8126	23.871	0.321914
0.6167	240.665	-8.91382	20.7891	-33.9916	214.215	-78.0805	52.5017	22.9691	30.2658	0.321914
0.6173	372.788	-8.91382	20.7891	-40.6963	131.817	-17.9434	53.7073	26.0084	25.3602	0.321914
0.6180	400.867	-0.955052	12.243	-41.0082	50.9648	22.6445	34.7868	30.8912	13.797	0
0.6187	128.657	6.36701	4.8972	-17.8066	0.902412	51.3167	-12.5065	35.4751	3.723	-0.321914
0.6193	-283.335	9.7097	0	23.3887	-35.7097	58.0426	-47.5988	37.6175	-7.57741	0
0.6200	-478.625	7.57675	1.53638	52.7025	-58.5923	54.668	-30.8162	37.3186	-9.41701	0
0.6207	-488.721	-0.350186	7.63387	51.767	-55.8636	75.1249	12.828	31.8379	0.657001	0.321914
0.6213	-473.748	-10.1236	14.0674	26.4448	-47.613	89.7635	48.5311	21.1256	14.9796	0.321914
0.6220	-336.1	-17.764	19.5408	8.45112	-39.0616	71.7736	81.4853	12.0077	27.813	0
0.6227	-132.886	-19.8969	18.9646	7.20372	-55.2405	76.3351	101.933	8.9186	32.412	0.321914
0.6233	-33.9834	-9.51869	7.96995	-1.0291	-112.007	136.472	87.2885	17.4884	31.4922	0.321914
0.6240	-0.723861	4.23406	-3.93696	-27.8793	-174.574	202.078	47.004	27.8519	26.8932	0.321914
0.6247	-24.5351	5.12545	-6.09749	-12.0062	-217.589	217.043	4.88687	28.4498	9.81121	0.321914
0.6253	-129.19	3.31085	-1.20029	78.0247	-251.472	191.094	-26.2348	26.3572	-12.7896	0.321914
0.6260	-253.123	6.04866	-2.73667	150.966	-297.259	183.46	-37.8411	21.7733	-25.5792	0.321914
0.6267	-336.71	5.4438	-5.47334	152.494	-324.095	198.727	-24.4183	18.3853	-27.1122	0
0.6273	-280.896	4.52058	-3.36082	129.605	-304.263	181.319	-12.812	25.1116	-26.1924	0
0.6280	-42.8602	6.97188	-4.84919	115.54	-272.829	150.203	-25.0131	33.9804	-31.7112	0
0.6287	233.045	9.7097	-8.21001	67.3283	-250.248	124.254	-29.5945	39.76	-32.5872	0
0.6293	440.87	9.10483	-4.27305	-34.3034	-190.753	50.1065	-10.9794	43.746	-20.1042	0.321914
0.6300	568.117	0.573031	3.07275	-105.093	-62.8681	-25.5769	2.74886	38.2154	-7.27081	0
0.6307	492.759	-11.6516	8.88217	-110.27	44.2397	-44.4978	-0.916288	24.8126	-5.43121	0
0.6313	273.924	-17.4456	14.3555	-78.8355	75.9745	-31.3718	-14.6445	15.6449	-11.5632	0
0.6320	137.534	-13.4662	15.8919	-32.4635	86.9754	7.3775	-32.9542	16.5916	-13.6656	0
0.6327	68.2334	-8.27712	9.45832	-3.46153	88.5009	56.204	-45.4607	18.6842	-9.72361	0
0.6333	-0.114294	-5.85765	4.27305	5.98751	80.8733	87.9482	-49.1259	14.7481	-6.96421	0
0.6340	-12.3437	0.859547	0.624153	12.7235	71.6988	105.938	-49.4313	15.047	-4.5114	0
0.6347	24.0017	9.10483	-9.74639	7.82742	39.0616	120.298	-41.2008	18.0863	-2.409	0.321914
0.6353	-1.02864	13.0842	-17.3803	-4.98959	0	129.141	-22.5857	17.4884	-2.409	0.321914
0.6360	-125.228	15.822	-19.4928	-1.62162	-29.3069	118.156	-12.5065	22.9691	-6.96421	0
0.6367	-194.223	16.1404	-22.5655	2.33887	-72.6442	81.8275	-14.0337	32.1368	-11.2566	0.643828
0.6373	-154.525	17.0318	-24.1019	-8.04571	-108.354	6.46986	3.97058	43.447	-6.04441	0
0.6380	-129.8	20.4063	-25.9263	-26.0394	-70.8179	-93.3243	43.9497	54.4084	-0.2628	-1.28766
0.6387	-103.893	22.2209	-25.9263	-39.792	33.2603	-160.164	67.4517	51.6681	-4.2486	-0.965742
0.6393	-42.2506	27.7283	-22.8536	-4.67774	108.332	-172.685	69.2842	46.7853	-10.95	0.321914
0.6400	-22.4016	32.3126	-25.9263	44.4385	132.44	-88.4602	65.3137	47.3832	-13.4028	-0.321914
0.6407	-1.943	28.3332	-29.5752	42.318	139.466	77.5685	52.5017	39.76	-10.3368	-0.965742
0.6413	75.2435	23.4624	-23.7658	27.9729	118.71	204.522	28.6943	34.8772	-8.80381	-0.321914
0.6420	46.2509	20.0879	-19.4928	26.133	78.4239	270.431	-0.916288	37.0197	-16.7316	0.643828
0.6427	-93.7972	15.822	-16.7561	24.2931	39.964	322.306	-24.7076	32.7347	-26.1924	0.321914
0.6433	-153.001	10.028	-11.2828	36.5176	-11.0008	335.13	-29.8999	14.4491	-30.7914	0
0.6440	-134.714	2.38763	-15.8439	58.1911	-72.945	297.59	-21.0585	-10.6126	-33.8136	0
0.6447	-98.3689	-0.0636701	-22.5655	77.7129	-104.68	267.08	-11.5902	-23.4175	-29.8716	0
0.6453	-55.9659	-0.0636701	-17.3803	97.2346	-108.956	254.559	-2.74886	-28.5993	-21.9438	0.321914
0.6460	-36.1169	-3.40635	-10.6586	90.218	-98.277	212.761	11.6063	-31.6386	-16.1184	0.321914
0.6467	-28.1925	-4.01122	-7.92194	53.2951	-42.7357	152.344	30.8323	-27.3537	-7.88401	0
0.6473	-10.7817	-4.32957	-4.27305	30.7172	35.3875	102.587	39.6737	-25.56	-1.1826	0
0.6480	-11.6961	-6.74903	-2.73667	37.4219	90.0264	14.4059	36.0085	-27.3537	-2.409	0.321914
0.6487	-55.6611	-3.40635	-7.29779	41.1017	132.139	-104.007	39.6737	-17.9368	-0.2628	-0.321914
0.6493	-96.2354	2.70598	-17.3803	-9.26193	153.496	-174.5	55.5399	0.398597	14.9796	0
0.6500	-98.9785	3.91571	-23.1897	-89.2201	121.46	-258.748	63.1757	8.61965	26.28	0.321914
0.6507	-102.369	0.859547	-30.8235	-117.91	65.5968	-343.275	54.6236	6.17825	19.272	0
0.6513	-99.2833	-0.0636701	-45.7552	-104.158	26.8575	-240.432	51.5854	5.2814	11.6508	0
0.6520	-52.0037	1.1779	-59.1985	-84.6359	4.57652	-21.318	54.9291	6.47719	10.1178	0
0.6527	-18.1346	1.78276	-68.9449	-53.8252	-29.3069	127.605	33.2757	6.17825	2.19	0
0.6533	-24.2303	0.573031	-61.9352	-11.6944	-72.945	224.956	-17.088	7.42386	-9.72361	0.321914
0.6540	-23.9255	-0.668536	-46.0433	13.0041	-97.9762	288.747	-68.0464	9.56632	-16.425	0
0.6547	-15.0868	0.573031	-51.8527	20.3326	-112.307	294.239	-90.3267	11.0611	-17.3448	0
0.6553	-8.95302	6.04866	-55.8377	27.0373	-130.613	250.602	-82.9964	13.5025	-12.7896	0.321914
0.6560	1.40962	5.12545	-12.195	35.3013	-141.614	184.368	-68.0464	13.2035	-7.88401	0.321914
0.6567	20.3443	-6.46252	45.1791	45.9666	-144.364	68.7248	-53.7073	3.73684	-6.96421	0
0.6573	38.6313	-12.8614	59.8226	32.8377	-152.293	-158.954	-25.6239	-8.17123	-3.3288	0.321914
0.6580	45.6413	-11.0468	43.3546	7.51557	-155.344	-353.655	11.9117	-10.9116	3.4164	0.321914
0.6587	38.3265	-6.46252	28.9991	16.6839	-125.135	-407.369	26.5563	-2.93965	4.3362	0
0.6593	23.0874	0.859547	26.2624	38.3575	-77.8223	-479.677	26.8617	8.61965	1.8834	0
0.6600	14.5153	4.83893	26.2624	62.4634	-46.0875	-526.386	33.8705	10.7621	-3.0222	0
0.6607	17.8679	3.91571	22.2775	115.26	-29.3069	-392.102	31.4431	2.24211	-9.72361	0
0.6613	21.8682	1.78276	14.6916	178.721	-26.8575	-198.611	8.24659	-5.08211	-16.1184	0
0.6620	20.0395	-0.668536	7.96995	212.9	-27.7814	-48.1749	-21.9748	-6.62667	-20.7174	0
0.6627	17.5632	-0.668536	5.80942	222.38	-20.7555	54.9938	-35.0922	-5.38105	-19.491	0
0.6633	19.1252	0.573031	3.36082	214.428	-18.9292	85.5046	-25.3185	-5.38105	-12.1764	0
0.6640	20.9539	0.254681	-4.27305	141.486	-25.6328	83.9686	-6.09251	-5.72983	0.657001	0
0.6647	17.2584	0.254681	-8.54609	-3.14968	-19.5308	89.1584	4.27601	-3.88632	11.0376	0
0.6653	11.1627	-0.350186	-7.00972	-210.062	-1.8478	94.9534	-0.916288	-1.14596	19.8852	0
0.6660	7.20051	1.78276	-14.6436	-377.93	8.22914	96.7919	-5.1923	2.54105	31.1856	0
0.6667	7.5053	4.83893	-26.2144	-340.072	13.1065	80.9198	-0.610859	4.68351	31.7988	0.321914
0.6673	10.5531	3.6292	-28.663	-179.563	14.632	50.4091	-0.305429	3.4379	20.805	0
0.6680	13.2962	3.91571	-22.8536	-53.8252	12.8057	16.2212	-5.48165	6.82597	8.27821	-1.28766
0.6687	18.2108	5.12545	-14.9317	5.39499	28.6838	-21.318	-7.31423	5.8793	-3.6354	-1.28766
0.6693	26.44	1.46441	-0.576141	11.7879	67.7454	-39.0054	-2.13801	-17.5881	-10.95	0.321914
0.6700	36.8026	1.46441	17.0922	10.8835	93.9798	-34.118	6.71945	-45.3902	-14.5854	0.321914
0.6707	41.9839	3.31085	22.2775	9.04363	84.8268	-32.9079	8.85745	-54.8568	-19.491	0
0.6713	42.8983	1.1779	26.8866	0.810808	58.2701	-44.8003	3.97058	-40.8063	-16.425	0
0.6720	45.9461	0.254681	37.5452	14.5322	39.3624	-44.8003	6.10859	0.398597	-4.81801	0
0.6727	45.3366	-2.19662	37.5452	40.478	30.8109	-22.5282	11.6063	32.7347	0.0438	0
0.6733	39.5457	-2.48314	27.7988	30.7172	15.5559	-20.6896	16.4771	34.8772	0.0438	0.321914
0.6740	34.0596	3.91571	15.8919	-19.0228	-8.85223	-52.7364	26.5563	33.0337	3.1098	0
0.6747	30.4022	6.36701	7.05773	-50.1454	-36.0105	-79.5933	23.8074	26.9551	2.19	0
0.6753	30.4022	5.76215	8.25802	-36.424	-62.2664	-129.956	10.3846	17.4884	-0.2628	0
0.6760	32.2309	10.3146	11.9069	25.2286	-83.9243	-245.925	6.41402	15.047	-3.0222	0
0.6767	31.9261	12.4475	9.45832	107.931	-103.154	-306.038	-1.52715	9.56632	-11.5632	0
0.6773	31.0117	2.38763	6.1455	134.469	-112.007	-237.081	-17.088	3.4379	-16.7316	0
0.6780	31.0117	-6.46252	-0.912223	113.42	-111.405	-150.389	-27.4565	4.38456	-19.1844	0
0.6787	30.707	-2.19662	-14.6436	86.8812	-104.078	-101.865	-34.7868	8.3207	-22.8636	0.321914
0.6793	34.3644	-2.48314	-11.2828	65.8002	-79.047	-73.7983	-41.5062	9.56632	-19.1844	0
0.6800	44.4222	-10.1236	15.2677	64.2721	-50.0624	-58.2288	-39.6737	3.4379	-10.6434	0
0.6807	50.8608	-10.7284	31.7358	22.1725	-37.8583	-54.8775	-33.5651	-3.58737	-6.35101	0.321914
0.6813	46.8605	-6.46252	25.6383	-85.2596	-35.7097	-57.0186	-31.4271	4.68351	-4.81801	0.321914
0.6820	37.4122	-1.87827	14.9797	-232.047	-29.9085	-53.3647	-28.9836	27.553	2.8032	0.321914
0.6827	31.9261	-0.668536	9.7944	-316.278	-14.3527	-46.3363	-23.8074	51.0702	13.797	0
0.6833	30.4022	-4.01122	9.45832	-220.446	3.65262	-43.5901	-21.9748	62.0316	11.9574	0
0.6840	29.183	-6.74903	9.7944	-61.4343	11.9032	-42.985	-23.502	50.4225	3.1098	0.321914
0.6847	30.707	-5.5393	7.3458	21.8606	11.9032	-38.0977	-22.8911	28.1509	4.6428	0.321914
0.6853	32.8404	-4.01122	4.8972	33.1496	10.0555	-33.2104	-22.8911	19.3319	10.4244	0.321914
0.6860	34.0596	-2.19662	3.69691	12.0998	12.8057	-30.1617	-23.502	17.4884	11.9574	0
0.6867	35.8883	0.254681	3.98498	1.71517	21.3571	-24.0642	-20.4477	-0.199298	9.19801	-0.321914
0.6873	33.7548	-0.668536	3.07275	8.13927	26.5352	-20.0845	-16.4771	-20.3782	1.2702	0
0.6880	29.4878	-4.93444	2.78468	13.316	27.4591	-20.6896	-11.8957	-21.574	-6.96421	0
0.6887	29.183	-4.93444	4.27305	23.7006	28.9846	-17.6408	-7.61966	-18.5347	-6.96421	0
0.6893	30.4022	-2.19662	8.25802	36.5176	30.5101	-13.3819	-8.23052	-10.2639	-2.1024	0
0.6900	30.707	-4.32957	10.7066	39.5737	32.3364	-9.70479	-7.61966	11.36	4.6428	0
0.6907	31.3165	-0.955052	-3.36082	26.4448	32.3364	-6.05095	-2.44343	23.567	12.8772	0
0.6913	31.0117	5.76215	-19.8289	-14.4386	28.6838	-4.84076	0.305429	29.0975	15.5928	0.321914
0.6920	30.0974	-0.668536	-16.1319	-55.9458	26.8575	1.8851	-1.22172	42.5004	13.797	0
0.6927	30.4022	-10.1236	-9.45832	-62.9624	23.1834	13.7775	-4.27601	41.6035	8.89141	-0.321914
0.6933	31.6213	-10.1236	-9.12223	-58.0975	17.3822	18.3623	-5.78708	20.5277	0.657001	0
0.6940	31.3165	-6.74903	-3.93696	-86.164	19.5308	16.5237	-3.66515	5.58035	-0.569401	0.321914
0.6947	26.1352	-3.7247	-2.11252	-114.23	23.785	14.0801	-3.66515	-1.74386	3.4164	0
0.6953	19.1252	-1.87827	-21.0291	-69.0746	22.5818	12.8699	-6.70337	-20.9761	0.657001	0
0.6960	16.9536	0.859547	-37.4972	-8.63823	19.2085	13.7775	-5.78708	-31.3397	-3.942	0
0.6967	17.5632	10.028	-11.8589	-8.35756	24.4081	13.7775	-3.35972	-23.1186	-3.3288	0.321914
0.6973	17.2584	19.1647	23.8138	-15.9667	40.8879	11.9623	1.83258	-11.2105	0.657001	0
0.6980	17.8679	10.3146	20.7891	1.12266	53.0919	8.89024	14.6445	5.2814	7.05181	-1.28766
0.6987	20.0395	-7.06739	2.4486	22.1725	55.8421	3.39784	24.4183	12.3067	11.9574	-1.28766
0.6993	24.3065	-7.06739	-3.64889	34.0851	55.5413	4.02621	20.4477	1.94316	13.797	0
0.7000	31.3165	-0.350186	-26.5505	29.8128	53.0919	13.475	11.9117	-5.38105	15.2862	0.321914
0.7007	36.8026	-6.46252	-89.3979	31.029	50.9648	20.806	7.3303	6.82597	14.9796	0
0.7013	35.5835	-15.9175	-107.114	37.1101	47.9138	22.9471	6.10859	29.9944	12.264	0
0.7020	32.5357	-14.3895	-20.405	30.7172	40.8879	22.3187	4.27601	29.6954	7.05181	0
0.7027	30.4022	-4.32957	43.6427	35.582	34.1628	22.6445	1.52715	15.047	0.963601	0.321914
0.7033	24.9161	15.5037	4.27305	48.4302	28.6838	23.5522	0.610859	23.9158	-1.4892	0
0.7040	21.2587	34.1272	-32.0238	42.0061	19.5308	21.7136	0.916288	33.0337	-0.2628	0
0.7047	25.5256	27.41	-24.678	21.2681	7.92834	21.7136	3.05429	14.1502	3.4164	0
0.7053	29.4878	9.42318	-29.2872	-0.405404	-0.32229	24.1573	5.1923	-15.1467	6.13201	0
0.7060	25.8304	-1.55992	-14.0194	-13.5343	-3.67411	25.0649	4.27601	-11.2105	6.13201	0.321914
0.7067	20.3443	-19.8969	-5.18527	-8.95008	-5.19961	27.5086	4.27601	67.5123	7.05181	0
0.7073	16.6488	-24.1628	-56.1257	1.71517	-5.19961	26.9035	5.49773	170.4	8.27821	0
0.7080	16.6488	-10.7284	-25.3022	1.71517	-3.05101	18.6649	5.80316	227.15	7.35841	0
0.7087	22.7826	0.254681	77.827	1.12266	4.25423	15.9187	10.3846	271.992	8.89141	0
0.7093	27.0495	22.5392	83.9245	2.93138	13.1065	16.5237	16.7825	248.525	11.0376	0
0.7100	26.1352	24.0673	63.8076	0.18711	17.683	12.8699	18.0043	100.795	10.1178	0
0.7107	20.0395	-2.48314	96.1675	-0.0935548	20.1324	15.3136	14.3391	-50.8709	9.19801	0
0.7113	7.5053	-17.4456	105.914	0.810808	21.9587	22.6445	8.24659	-164.421	6.74521	0.321914
0.7120	-1.33343	-20.7883	68.7048	0.810808	21.9587	26.2984	1.52715	-224.808	2.4966	0.321914
0.7127	-0.114294	-19.5786	28.9991	5.67566	21.9587	28.4395	2.44343	-194.615	2.8032	-0.965742
0.7133	3.84789	-20.7883	29.6233	7.82742	18.9077	27.8111	4.88687	-187.589	3.723	-0.321914
0.7140	4.15268	-29.0336	53.101	2.93138	14.632	24.4598	1.52715	-185.447	1.8834	0.321914
0.7147	6.28616	-24.4493	38.4574	0.810808	15.5559	22.6445	1.52715	-89.6344	1.8834	0
0.7153	11.7723	-7.67225	-18.2925	1.71517	17.3822	23.5522	1.22172	-15.7944	2.4966	0
0.7160	19.1252	4.23406	-36.585	2.65072	16.7806	28.4395	-2.44343	-13.353	3.723	0.321914
0.7167	23.0874	33.5223	-11.5708	4.7713	20.1324	29.6497	-3.05429	-22.4709	7.05181	0
0.7173	17.8679	51.8275	-4.27305	6.29936	26.2344	21.7136	-0.610859	-63.6758	5.82541	0
0.7180	14.2105	10.9513	14.0674	5.98751	30.8109	17.7572	2.13801	-136.32	3.4164	0
0.7187	18.8204	-21.425	10.9947	5.67566	33.5611	21.7136	2.44343	-145.189	4.94941	0
0.7193	20.3443	-19.5786	-21.3652	3.55508	31.7348	24.7624	-2.44343	-53.0133	3.4164	0
0.7200	22.173	-25.6909	4.27305	5.98751	31.1117	27.5086	-3.66515	56.8498	3.1098	0
0.7207	24.9161	-24.1628	-10.3705	9.66733	31.1117	25.0649	-1.52715	126.106	5.21221	0.321914
0.7213	19.43	4.83893	-121.758	6.29936	25.3105	14.4059	-1.83258	102.34	2.4966	0
0.7220	17.2584	47.2432	-163.576	4.45945	22.5818	9.82116	2.44343	48.3298	1.5768	0
0.7227	23.3921	72.2656	-122.046	5.08314	22.5818	11.0313	8.24659	104.482	3.4164	0
0.7233	24.6113	67.7132	-135.777	3.55508	18.3061	11.0313	8.24659	142.299	3.1098	0
0.7240	26.7448	49.3762	-156.854	5.08314	16.1575	13.1725	8.85745	84.9509	4.94941	0.321914
0.7247	32.5357	9.7097	-36.585	5.08314	14.0304	11.9623	6.41402	51.6681	4.3362	0.321914
0.7253	31.9261	-13.1797	126.991	0.810808	7.92834	6.46986	2.44343	-24.9123	1.2702	0.321914
0.7260	27.3543	-2.48314	183.117	-0.717254	4.25423	5.53895	7.02488	-111.009	4.3362	0
0.7267	22.173	-38.2021	185.277	-1.93347	0.601608	7.07496	10.0792	-84.4526	6.13201	0
0.7273	16.344	-66.5671	146.484	-2.24532	-3.67411	9.82116	7.63573	-111.009	4.3362	0.321914
0.7280	12.3818	-20.7883	85.1729	-1.62162	-4.57652	15.9187	7.63573	-230.339	5.51881	-0.965742
0.7287	7.5053	13.9756	61.0709	-1.62162	-3.3733	17.4547	6.71945	-308.115	5.51881	-1.60957
0.7293	4.76224	24.0673	-1.48836	4.17878	0.902412	15.3136	3.66515	-271.195	2.4966	0
0.7300	8.41965	34.7321	-116.573	11.1954	7.30524	15.3136	1.52715	-32.8842	1.5768	0.321914
0.7307	11.7723	36.865	-197.424	9.04363	10.6785	13.7775	-1.83258	178.322	1.2702	0
0.7313	14.2105	27.7283	-229.16	7.20372	12.5049	11.3339	-2.74886	157.246	1.5768	0
0.7320	16.6488	3.31085	-208.707	7.82742	13.4288	10.4263	-0.916288	110.561	2.4966	0
0.7327	15.4297	-5.22095	-90.022	5.08314	8.85223	7.68005	-1.83258	145.986	0.963601	0
0.7333	13.9058	-14.9943	97.6559	3.86693	3.65262	6.14404	-1.22172	214.943	1.2702	0.321914
0.7340	11.1627	-46.7339	235.93	3.55508	1.82631	6.46986	0.916288	186.543	2.8032	0.321914
0.7347	4.76224	-31.1665	242.651	0.18711	0.601608	7.07496	0.916288	40.059	2.4966	0.321914
0.7353	-1.33343	39.3163	143.171	1.71517	1.20322	10.7288	1.52715	-77.7263	3.723	0
0.7360	-5.29562	74.112	55.5496	3.24323	1.20322	11.6597	1.22172	-120.775	4.3362	0
0.7367	-1.63821	39.6347	40.6179	0.810808	0.300804	9.21606	-1.83258	-95.1151	2.8032	0
0.7373	5.98138	-5.85765	37.2571	-0.405404	1.82631	7.9826	-3.35972	-57.8961	2.19	0.321914
0.7380	9.63878	-35.4643	27.1747	0.810808	2.72872	7.3775	-4.58144	-17.2891	0.657001	0.321914
0.7387	12.0771	-40.0167	73.8901	3.55508	4.25423	7.68005	-4.27601	32.7347	0.0438	0.321914
0.7393	11.7723	-4.01122	109.563	5.98751	6.40283	8.89024	-1.83258	32.1368	1.8834	0
0.7400	9.02922	21.9344	60.7349	3.86693	5.47893	7.3775	-1.83258	-6.92561	2.19	0
0.7407	10.5531	-3.40635	5.52135	1.12266	3.35182	5.84149	-3.35972	-61.2344	0.657001	0.321914
0.7413	17.2584	-30.88	-29.5752	-0.717254	2.42792	4.6313	-3.97058	-82.3102	-0.2628	0.321914
0.7420	22.4778	-15.3127	-61.6471	-0.717254	3.35182	4.32876	-4.27601	-33.7811	0.3504	0.321914
0.7427	20.9539	17.6366	-92.7587	4.45945	6.10203	5.84149	-1.52715	41.6035	2.19	0.321914
0.7433	13.9058	15.822	-102.841	7.51557	6.40283	6.14404	-0.610859	142	2.4966	0.321914
0.7440	8.41965	-3.7247	-42.1063	6.29936	4.87732	5.2364	-2.74886	197.853	1.2702	0.321914
0.7447	5.37181	-5.85765	44.891	6.61121	3.65262	4.93385	-3.66515	112.105	1.2702	0
0.7453	-0.419078	-6.14417	93.3829	5.08314	2.12711	3.09529	-4.27601	0.996491	1.5768	0.321914
0.7460	-3.16213	-3.40635	104.089	1.40332	3.05101	4.32876	-2.74886	-33.1832	5.21221	0
0.7467	1.71441	4.52058	67.7926	0.18711	5.17813	7.68005	0	-13.6519	8.89141	0
0.7473	7.5053	12.161	23.5258	-2.24532	3.95343	6.46986	-0.916288	34.5782	8.89141	0.321914
0.7480	10.5531	14.2939	24.7261	-2.86901	2.42792	4.32876	-2.74886	49.5256	7.97161	0.321914
0.7487	12.6866	-0.350186	39.0816	-4.36589	2.12711	4.02621	-3.35972	76.68	7.66501	0
0.7493	13.9058	-15.9175	33.6082	-4.36589	1.52551	3.09529	-3.66515	178.621	6.74521	0
0.7500	15.1249	-24.7677	22.9016	19.4282	3.05101	4.32876	-2.74886	238.411	5.82541	0
0.7507	13.9058	-39.4118	14.0674	55.4468	3.95343	5.2364	-1.52715	152.961	-0.569401	0
0.7513	8.11486	-30.2752	6.1455	74.0642	2.12711	3.39784	-2.74886	-34.08	-10.0302	0
0.7520	5.6766	5.4438	3.98498	77.401	1.52551	2.79275	-3.66515	-166.862	-11.5632	-0.321914
0.7527	8.72443	23.1441	-15.5558	75.5611	0.601608	2.4902	-4.27601	-187.888	-8.80381	0
0.7533	12.3818	22.2209	-60.6869	77.401	1.52551	3.09529	-3.35972	-152.513	-4.81801	0.321914
0.7540	14.5153	19.4831	-76.5788	81.0808	3.95343	4.6313	-1.52715	-97.5565	-1.1826	0
0.7547	13.2962	15.5037	-45.7552	87.4737	3.05101	3.39784	-2.74886	-70.1032	-0.876001	0
0.7553	10.2484	13.3707	-20.1169	68.2638	0.601608	2.4902	-4.27601	-67.3628	-0.876001	0.321914
0.7560	9.63878	6.36701	-32.0238	-18.711	-0.623094	2.79275	-3.97058	-62.1811	0.963601	0
0.7567	8.11486	-3.40635	-42.1063	-112.422	-0.923898	2.79275	-3.35972	-67.0639	2.8032	0
0.7573	4.76224	-6.14417	-4.56112	-141.112	-0.32229	2.79275	-2.74886	-93.9193	4.3362	-0.321914
0.7580	3.84789	-2.19662	25.6383	-119.438	-1.2247	3.09529	-2.74886	-112.803	5.21221	-1.60957
0.7587	8.41965	-9.51869	7.05773	-80.9873	-1.8478	3.39784	-2.74886	-96.0618	5.51881	-0.965742
0.7593	14.8201	-26.6141	8.88217	-51.9853	-2.1486	3.39784	-2.74886	-41.4042	5.82541	0.643828
0.7600	14.2105	-13.1797	36.633	-38.8564	-2.1486	2.4902	-3.66515	44.9418	6.43861	0.321914
0.7607	7.81008	21.2977	23.1897	-31.8398	-0.923898	2.79275	-3.35972	110.262	7.05181	0
0.7613	3.54311	33.204	-6.09749	-21.7671	0.601608	3.39784	-2.13801	124.91	5.82541	0.321914
0.7620	2.62876	28.0149	-11.2828	8.13927	0.601608	2.4902	-2.44343	80.666	1.5768	0
0.7627	3.54311	37.1834	-17.0922	52.7025	0	1.58256	-3.35972	4.68351	-4.5114	-0.321914
0.7633	6.28616	27.1235	-29.5752	76.1848	-0.623094	2.4902	-3.35972	-25.56	-8.80381	0
0.7640	6.28616	-23.2396	-32.9361	77.0892	-1.2247	1.8851	-3.66515	-43.5467	-8.19061	0
0.7647	5.98138	-40.9399	-16.7561	79.2409	-0.623094	2.18765	-2.74886	-57.5972	-5.43121	0
0.7653	9.334	-18.0505	19.8769	82.8896	0	2.79275	-1.22172	-38.066	-10.95	0
0.7660	12.9914	-0.668536	37.8813	88.6899	-0.623094	2.4902	-1.83258	-36.5214	-23.433	0.321914
0.7667	13.9058	9.7097	10.0825	92.3698	-1.52551	2.18765	-2.74886	-48.1305	-26.8056	0.321914
0.7673	11.4675	13.6891	-24.39	52.9832	-2.75021	2.18765	-3.97058	-39.5607	-20.1042	0.321914
0.7680	10.8579	21.0111	-33.8483	-34.3034	-2.4494	3.72366	-3.05429	-24.9123	-13.0962	0
0.7687	12.3818	33.5223	-30.1994	-101.133	-0.32229	4.6313	-0.916288	-7.82246	-2.7156	0
0.7693	11.7723	37.1834	-26.8386	-123.087	-0.32229	3.39784	-1.83258	1.59439	21.4182	-0.321914
0.7700	9.334	31.6759	-26.5505	-116.694	-1.8478	2.79275	-3.35972	-18.2358	40.0332	0
0.7707	7.20051	14.6123	-29.2872	-82.5153	-2.1486	1.8851	-3.66515	-39.5607	26.5866	0
0.7713	5.06703	-15.9175	-23.1897	-47.4011	-2.4494	1.8851	-4.58144	-41.4042	8.58481	0
0.7720	6.89573	-37.2789	-3.36082	-33.9916	-1.52551	3.09529	-3.35972	-44.4435	6.43861	0
0.7727	9.94357	-32.6946	10.0825	-34.5841	-0.923898	4.02621	-1.52715	-46.586	4.6428	0
0.7733	9.63878	-25.9774	8.54609	-30.6236	-1.52551	3.09529	-1.52715	-31.9375	0.963601	0
0.7740	8.72443	-26.9006	-0.576141	-19.9584	-2.1486	1.8851	-3.05429	-1.74386	0.3504	-0.321914
0.7747	8.11486	-20.7883	-14.3075	-14.7505	-2.75021	0.349093	-4.58144	15.9439	0.657001	0
0.7753	8.72443	-7.9906	-25.0141	-12.6299	-1.8478	1.28001	-3.05429	4.98246	2.4966	0.321914
0.7760	10.8579	3.6292	-30.1994	-9.88562	-0.32229	3.72366	0.305429	-7.82246	3.723	0
0.7767	11.1627	16.1404	-43.6427	-4.67774	-0.923898	3.39784	0	-13.6519	1.8834	-0.321914
0.7773	12.9914	21.0111	-61.6471	2.65072	-1.8478	1.58256	-2.13801	-21.574	-1.4892	0
0.7780	18.2108	-14.9943	-54.5894	7.82742	-2.75021	0.977461	-3.05429	-23.7165	-4.81801	0
0.7787	24.6113	-58.0353	-31.7358	11.1954	-2.4494	1.58256	-2.44343	-14.2498	-7.88401	0.321914
0.7793	29.7926	-37.2789	-14.0194	18.8045	-0.32229	2.79275	-0.610859	-3.28842	-11.8698	0
0.7800	27.9639	12.7659	10.0825	28.2847	0.902412	2.18765	-0.610859	-3.58737	-17.3448	0
0.7807	18.5156	27.1235	22.6135	33.7733	0	0.977461	-2.13801	1.94316	-24.0462	0
0.7813	8.11486	7.57675	3.36082	38.95	-1.2247	0.651641	-2.13801	29.3965	-33.507	0
0.7820	6.89573	-19.2602	-8.21001	34.3658	-1.52551	0.651641	-2.44343	41.6035	-32.8938	0
0.7827	14.2105	-26.6141	5.52135	4.45945	-0.923898	2.18765	-1.83258	15.346	-5.73781	0
0.7833	17.2584	-16.2359	-6.38556	-46.1849	-0.32229	4.02621	0	-6.92561	14.4102	0
0.7840	12.6866	-18.6553	-40.5699	-77.9312	-1.52551	3.39784	0.305429	-2.04281	2.19	0
0.7847	8.72443	-26.6141	-31.1116	-51.0809	-1.8478	2.4902	-0.916288	22.3712	-6.35101	0
0.7853	8.41965	-19.5786	7.63387	-14.7505	-1.2247	1.58256	-1.83258	57.7467	7.05181	0.321914
0.7860	7.5053	-29.3519	-3.36082	-11.4137	-0.923898	0.651641	-2.13801	60.8358	19.8852	0
0.7867	9.334	-69.9416	-23.7658	-12.0062	0	1.28001	-0.610859	22.3712	22.338	0.321914
0.7873	16.0392	-71.1514	19.8769	-6.51765	0.902412	1.28001	-0.305429	-10.6126	19.5786	0.321914
0.7880	17.5632	-11.0468	46.4274	-2.24532	-0.623094	0.349093	-1.83258	-51.1698	14.4102	0
0.7887	10.5531	34.4455	16.18	0.810808	-0.923898	0.349093	-2.44343	-104.283	11.9574	0
0.7893	1.40962	37.5017	9.45832	-1.34095	-1.2247	-0.256002	-2.74886	-114.646	9.19801	-0.321914
0.7900	-3.16213	23.4624	17.4283	-2.86901	-1.2247	0.651641	-1.83258	-58.793	5.21221	-1.60957
0.7907	3.23833	7.29023	-18.9166	-0.405404	0	2.79275	0.305429	33.3326	4.3362	-0.965742
0.7913	11.7723	-0.668536	-45.7552	0.18711	-0.32229	1.58256	-0.610859	74.8365	4.3362	0.643828
0.7920	12.3818	0.254681	-21.3652	-0.405404	-1.52551	-0.256002	-1.52715	51.6681	3.723	0.321914
0.7927	12.9914	2.10111	-11.8589	0.498959	-1.52551	-0.558549	-2.13801	46.1874	3.4164	-0.321914
0.7933	19.7347	4.52058	-40.2819	2.02702	0.300804	0.0465458	-1.83258	59.8891	4.3362	-0.321914
0.7940	21.5634	12.7659	-50.9405	3.55508	1.82631	1.28001	0.305429	60.1881	7.05181	0
0.7947	18.2108	14.8988	-14.3075	3.24323	0.902412	0.349093	0.305429	22.3712	7.66501	0.321914
0.7953	17.8679	2.38763	12.8191	2.65072	0.300804	-0.861097	-1.22172	-31.0407	5.82541	0
0.7960	17.5632	8.18161	-32.9361	3.24323	0.300804	-0.558549	-1.52715	-31.0407	3.723	0
0.7967	19.1252	38.7114	-120.509	4.7713	0.601608	-0.256002	-0.916288	-12.7053	3.4164	0
0.7973	24.6113	42.0541	-169.049	5.67566	1.20322	-0.558549	-0.305429	-27.3537	3.4164	0.321914
0.7980	23.3921	-12.2565	-133.665	5.08314	0.601608	-0.558549	-1.22172	-33.7811	2.8032	0
0.7987	16.9536	-59.5634	-53.101	4.45945	0	-1.46619	-2.13801	9.26737	1.5768	-0.321914
0.7993	19.1252	-31.4849	11.9069	5.08314	0.300804	-1.46619	-1.83258	102.639	1.5768	0
0.8000	22.173	15.2172	37.2571	5.67566	0.300804	-0.861097	-0.610859	236.318	1.8834	0.321914
0.8007	14.8201	34.7321	36.0088	5.98751	0.601608	-0.558549	-0.305429	289.082	0.963601	0
0.8013	9.02922	62.2057	50.7004	5.67566	0.902412	-0.256002	-0.305429	189.582	0.3504	0
0.8020	19.1252	57.335	47.9157	5.08314	0	-0.558549	-0.916288	98.9516	-0.876001	0
0.8027	34.6691	-4.01122	-39.6577	5.67566	0	-0.256002	-1.22172	38.5642	-2.409	0
0.8033	37.717	-11.0468	-126.607	5.98751	-0.32229	-0.558549	-1.83258	-17.9368	-1.7958	0
0.8040	27.6591	62.8106	-78.1151	5.39499	-0.923898	-0.861097	-2.13801	18.3853	1.2702	0
0.8047	19.43	71.0559	99.8164	5.67566	-0.32229	0.0465458	-0.610859	-25.56	3.1098	0
0.8053	20.3443	-12.2565	223.399	5.98751	-0.623094	0.349093	-0.305429	-176.927	3.723	0
0.8060	14.2105	-52.8462	143.459	5.08314	-0.923898	-0.861097	-1.52715	-239.457	3.1098	0
0.8067	-0.419078	-43.9961	14.0674	3.86693	-1.2247	-1.16364	-2.44343	-221.171	1.8834	0
0.8073	0.19049	-45.2058	-21.6533	3.24323	-1.52551	-1.16364	-2.13801	-170.5	1.5768	0
0.8080	17.2584	-40.9399	-14.0194	3.55508	-0.923898	-0.558549	-1.22172	-169.304	1.8834	0
0.8087	27.3543	-26.9006	15.2677	4.17878	0	0.651641	0	-173.24	2.4966	0
0.8093	18.5156	-12.5749	59.8226	3.55508	-1.8478	0.977461	-0.305429	-57.5972	2.19	0
0.8100	-0.114294	-0.668536	83.0123	2.02702	-3.97491	-0.256002	-2.13801	44.3439	1.5768	0.321914
0.8107	-14.782	4.83893	56.1738	2.02702	-3.67411	-0.256002	-1.83258	21.7733	0.0438	0
0.8113	-18.4394	2.70598	28.9991	2.93138	-3.3733	0.651641	-0.610859	-13.353	1.5768	0
0.8120	-9.2578	-17.1273	36.9691	3.86693	-3.05101	1.58256	0.916288	-17.9368	0.963601	0
0.8127	-0.723861	-88.2468	45.1791	5.39499	-2.4494	2.4902	2.74886	-43.8456	-35.6532	0
0.8133	-8.95302	-147.142	43.6427	3.86693	-3.67411	1.28001	0.916288	-66.4161	-105.252	0
0.8140	-24.8399	-80.9247	11.6188	2.93138	-3.3733	0.0465458	0	-60.0386	-143.095	0
0.8147	-21.4872	-10.4101	-42.1063	4.45945	-1.8478	0.349093	1.22172	-25.2611	-134.554	0.321914
0.8153	-3.16213	-32.6946	-75.3785	4.45945	-0.623094	-0.558549	0.916288	-6.62667	-108.274	0
0.8160	2.62876	-10.4101	-94.8712	3.24323	1.82631	0.349093	2.13801	-13.9509	-6.96421	-0.965742
0.8167	2.32398	63.4155	-106.49	1.12266	3.65262	0.977461	2.74886	3.13895	136.744	-0.321914
0.8173	12.9914	76.8499	-113.5	-1.34095	1.82631	-1.16364	0.305429	34.8772	151.723	0.321914
0.8180	26.1352	32.5991	-145.572	-1.0291	0.601608	-1.16364	0.610859	93.4709	72.6643	0
0.8187	31.0117	-15.9175	-176.971	-0.717254	0	-0.558549	0.916288	154.805	33.288	0
0.8193	34.6691	-28.1104	-91.5104	-0.0935548	0	0.349093	0.610859	147.481	30.5724	0
0.8200	39.8505	-9.51869	61.0709	1.40332	-0.32229	1.28001	1.52715	89.8337	29.9592	0
0.8207	32.8404	10.3146	71.4415	0.810808	-2.4494	-0.558549	0	29.9944	24.4404	-1.28766
0.8213	18.8204	65.5484	-15.8439	1.12266	-2.1486	-0.861097	-0.305429	-1.44491	17.1258	-0.965742
0.8220	16.6488	136.986	-24.678	4.45945	0.601608	0.651641	0.916288	27.553	13.797	0.321914
0.8227	21.2587	94.2636	14.6916	5.98751	0.601608	0.651641	0.305429	6.82597	14.1036	0
0.8233	16.344	-23.558	4.8972	6.29936	0	0.651641	-0.305429	-64.6225	15.2862	0
0.8240	8.11486	-72.6795	5.52135	4.7713	-0.623094	-0.558549	-0.916288	-63.9747	15.2862	0.321914
0.8247	9.63878	-69.9416	101.017	3.55508	-0.923898	-1.16364	-1.52715	-136.32	14.9796	0
0.8253	7.20051	-62.3012	195.648	4.45945	-1.2247	0.0465458	-0.305429	-188.835	15.5928	0
0.8260	-7.73388	-7.38574	149.557	3.24323	-2.75021	-0.558549	-0.916288	-86.5951	14.1036	0
0.8267	-17.8298	100.058	1.53638	3.24323	-1.8478	0.349093	-0.916288	-59.4407	13.797	0
0.8273	-13.8677	116.835	-88.4857	4.45945	-0.32229	0.977461	0.610859	-29.1972	14.4102	0
0.8280	-4.99083	26.2003	-14.9317	2.93138	-1.2247	-0.256002	0.305429	98.6526	12.264	0
0.8287	2.62876	-5.85765	80.2757	2.33887	-1.52551	0.0465458	0.305429	116.041	10.4244	0
0.8293	7.5053	11.8426	77.539	1.71517	-2.1486	-0.558549	0	38.5642	9.50461	0.321914
0.8300	7.81008	-14.3895	97.992	1.12266	-2.75021	-1.16364	-0.610859	6.17825	7.97161	0
0.8307	6.28616	-53.1646	104.714	2.33887	-1.52551	0.0465458	-0.305429	33.9804	8.27821	-0.321914
0.8313	-3.16213	-74.2075	53.4371	2.02702	-1.8478	0.0465458	-0.610859	51.0702	7.35841	-0.321914
0.8320	-20.2681	-77.8686	16.18	1.12266	-2.75021	-0.861097	-0.916288	55.0063	5.82541	0
0.8327	-29.4116	-87.0371	-49.4041	1.71517	-3.97491	-0.256002	-1.83258	33.6814	4.94941	0
0.8333	-21.4872	-152.936	-100.056	1.71517	-5.80122	-0.256002	-2.13801	-47.8316	3.4164	0
0.8340	-8.95302	-257.928	-78.7393	1.71517	-5.50042	-0.558549	-0.610859	4.98246	3.4164	0
0.8347	-6.81953	-307.972	-70.1932	2.33887	-2.4494	-0.558549	0.610859	161.531	4.6428	0
0.8353	-8.34345	-204.508	-66.2082	2.93138	-0.623094	-0.256002	1.22172	178.023	4.3362	0
0.8360	-3.46691	-104.101	-33.2241	3.24323	-0.923898	0.0465458	2.13801	212.203	3.4164	0
0.8367	-1.02864	-127.627	-9.45832	2.65072	-1.2247	-0.558549	2.13801	255.201	2.8032	0
0.8373	-7.4291	-124.857	-6.38556	1.12266	-0.623094	-2.39711	0.610859	48.6288	1.8834	0
0.8380	-5.90518	-47.9754	-23.1897	1.40332	1.20322	-1.76874	0.305429	-198.252	2.8032	0
0.8387	12.3818	58.863	4.27305	2.65072	1.82631	-0.861097	1.22172	-183.006	3.1098	0
0.8393	28.2687	82.6438	43.9788	1.71517	1.20322	-1.46619	1.22172	-55.7537	2.19	0
0.8400	30.707	90.2843	-34.1364	1.40332	0.902412	-1.46619	0.610859	58.0954	2.19	0
0.8407	32.8404	189.164	-139.426	0.810808	0.300804	-2.39711	-0.305429	244.838	0.963601	0
0.8413	39.2409	200.465	-114.748	0.498959	-0.32229	-2.69965	-1.22172	239.955	0.3504	-0.321914
0.8420	31.9261	119.286	8.88217	1.71517	-1.2247	-1.46619	-0.610859	-46.287	0.963601	-0.321914
0.8427	5.6766	68.3181	161.175	2.33887	-2.4494	-0.558549	-0.916288	-250.169	0.3504	0
0.8433	-23.3159	31.3894	220.374	1.12266	-3.97491	-0.256002	-2.44343	-330.437	-0.876001	0
0.8440	-39.1647	-1.55992	120.269	0.18711	-3.67411	-0.861097	-2.44343	-241.599	-1.4892	0
0.8447	-37.336	15.5037	32.3599	0.18711	-1.8478	-1.16364	-1.83258	81.2639	-0.876001	0
0.8453	-30.326	123.552	28.0869	0.498959	-0.923898	-0.558549	-1.22172	246.681	-0.569401	0
0.8460	-29.7164	200.752	0.912223	0.810808	-1.8478	-0.256002	0	27.254	-0.876001	0
0.8467	-30.0212	134.853	-52.4768	1.71517	-2.75021	0.0465458	1.22172	-247.429	-1.4892	0.321914
0.8473	-24.8399	24.9905	-79.9396	0.810808	-4.57652	-0.256002	1.52715	-313.347	-1.7958	0.321914
0.8480	-13.2581	-31.7714	-83.3004	-0.405404	-5.50042	-1.46619	1.52715	-257.792	-3.6354	-1.28766
0.8487	1.71441	0.254681	-58.8624	0.498959	-3.05101	-0.558549	3.35972	-120.476	-3.6354	-1.28766
0.8493	14.5153	92.0989	-72.0176	1.71517	0	1.28001	4.27601	45.8884	-1.1826	0
0.8500	25.2208	173.278	-110.763	0.498959	0.300804	0.349093	2.74886	97.7558	-1.4892	0.321914
0.8507	31.9261	222.113	-27.1266	-1.93347	-1.2247	-1.46619	1.52715	46.7853	-3.3288	-0.965742
0.8513	21.5634	151.917	86.9973	-1.34095	-0.923898	-0.861097	2.13801	53.8105	-3.3288	-1.28766
0.8520	1.40962	-43.9961	101.353	0.810808	0.300804	0.349093	2.74886	134.676	-1.7958	0
0.8527	-0.419078	-144.69	111.723	0.810808	0.601608	-0.256002	2.13801	111.458	-1.4892	0.321914
0.8533	12.0771	-77.8686	141.299	-0.405404	0.601608	-1.16364	1.22172	27.553	-1.4892	0
0.8540	16.344	-39.1253	145.284	-1.34095	0	-2.39711	-0.610859	102.639	-2.409	0.321914
0.8547	10.8579	-11.3333	183.453	-1.0291	-0.923898	-2.09456	-1.52715	168.258	-2.7156	0
0.8553	6.28616	100.949	151.093	-0.0935548	-1.2247	-0.256002	-0.916288	-28.0014	-2.7156	0
0.8560	-4.99083	133.612	-9.74639	0.18711	-1.52551	0.349093	-0.305429	-232.78	-2.409	0
0.8567	-27.5829	55.202	-97.3198	-0.717254	-2.4494	-0.558549	-0.610859	-304.478	-2.1024	0
0.8573	-38.2503	-19.2602	-101.593	-2.55716	-3.3733	-2.39711	-2.74886	-342.644	-2.7156	0
0.8580	-27.5829	-37.2789	-115.036	-2.86901	-3.05101	-2.69965	-3.66515	-262.376	-3.0222	0
0.8587	-19.049	9.10483	-120.221	-1.93347	-2.75021	-1.76874	-2.13801	-116.49	-3.0222	0
0.8593	-22.0968	68.3181	-112.588	-0.405404	-2.4494	0.0465458	0.305429	-54.5579	-2.7156	0
0.8600	-12.3437	114.702	-76.2907	1.12266	-1.8478	1.28001	1.22172	-72.8435	-1.7958	0
0.8607	9.334	122.342	-4.84919	-0.0935548	-2.75021	-0.558549	-0.610859	-60.6365	-2.7156	0
0.8613	15.7345	82.3573	58.2863	-1.34095	-3.05101	-2.09456	-2.13801	49.8246	-4.2486	0
0.8620	10.5531	31.071	100.729	-1.0291	-2.1486	-1.46619	-2.13801	159.688	-3.942	0
0.8627	8.41965	-10.4101	90.9823	-0.405404	-0.923898	-0.861097	-1.22172	238.112	-2.1024	0.321914
0.8633	3.23833	-31.1665	1.53638	1.12266	0.601608	-0.256002	0	359.584	-0.569401	0.321914
0.8640	-11.3913	-21.425	-80.2276	-0.405404	-0.623094	-1.46619	-1.52715	408.711	-1.4892	0
0.8647	-21.792	9.10483	-103.417	-2.86901	-2.75021	-3.30475	-4.27601	261.928	-3.0222	0
0.8653	-24.5351	10.3146	-159.879	-1.62162	-1.2247	-3.0022	-3.97058	76.3811	-2.409	0.321914
0.8660	-36.1169	30.7845	-291.719	-0.0935548	0.902412	-1.76874	-2.74886	-33.4821	-1.1826	0.321914
0.8667	-35.2025	90.6026	-299.065	0.810808	1.20322	-1.16364	-1.83258	-182.408	0.0438	-0.321914
0.8673	-8.64824	34.1272	-90.9343	0.498959	0	-1.16364	-1.22172	-159.189	-0.569401	-0.321914
0.8680	0.19049	-45.5241	32.696	-1.62162	-1.8478	-2.09456	-2.44343	265.914	-2.409	0
0.8687	-15.6964	-8.59547	6.1455	-1.62162	-3.05101	-1.76874	-1.22172	664.759	-3.0222	0
0.8693	-31.5451	5.12545	80.5637	-0.717254	-3.05101	-1.16364	0	604.322	-3.6354	0
0.8700	-40.079	3.31085	132.753	0.810808	-1.2247	0.0465458	-0.305429	164.571	-1.7958	0
0.8707	-34.2882	44.5054	17.0922	0.810808	0.902412	-0.558549	-1.52715	-197.953	0.963601	0
0.8713	-24.5351	41.1627	-12.195	-1.93347	0.601608	-2.69965	-4.58144	-234.275	0.657001	0.321914
0.8720	-30.9355	15.2172	99.1923	-3.14968	0	-3.0022	-6.09251	-253.806	-0.876001	0
0.8727	-40.079	24.9905	163	-1.93347	0.300804	-2.09456	-6.09251	-338.359	-1.1826	0
0.8733	-34.5929	22.2209	99.8164	-1.0291	0.601608	-1.16364	-4.88687	-294.114	-0.876001	0
0.8740	-25.1447	33.8407	-22.2775	0.18711	0.601608	0.0465458	-3.05429	-130.54	-0.2628	0.321914
0.8747	-10.7817	58.5447	40.906	-1.0291	-0.32229	-0.558549	-3.35972	140.455	-0.569401	0.321914
0.8753	6.89573	-39.4118	346.981	-2.24532	-0.32229	-2.39711	-4.27601	338.857	-1.7958	0
0.8760	0.495273	-191.711	447.085	-1.93347	1.52551	-1.76874	-2.74886	336.714	-2.409	-0.321914
0.8767	-24.5351	-306.763	210.916	-0.405404	3.05101	0.0465458	-0.305429	274.135	-1.4892	0
0.8773	-28.1925	-411.723	107.114	1.40332	3.05101	1.28001	1.22172	82.1607	-0.876001	0.321914
0.8780	-23.6207	-366.581	68.9929	1.12266	0.902412	0.0465458	0	-168.955	-2.409	-0.643828
0.8787	-21.792	-215.81	-148.308	-0.717254	-0.923898	-0.256002	-0.610859	-259.287	-3.942	-1.28766
0.8793	2.62876	-87.0371	-286.246	-0.0935548	-0.923898	0.349093	0	-144.541	-3.3288	0
0.8800	27.0495	43.5822	-284.998	0.498959	0	0.651641	0.305429	124.611	-3.6354	0
0.8807	16.344	63.4155	-220.614	0.810808	0.902412	0.349093	1.22172	299.794	-2.7156	-0.321914
0.8813	-19.9633	-62.6196	-58.2863	1.71517	1.20322	0.651641	2.44343	317.183	-1.1826	0
0.8820	-50.7846	-193.844	61.359	1.12266	0	0.651641	2.13801	121.871	-1.4892	0
0.8827	-59.3185	-154.782	90.0701	-0.0935548	-0.623094	-0.256002	0.305429	-324.607	-2.409	0
0.8833	-50.175	18.2733	112.924	-0.717254	-0.32229	-0.558549	-0.916288	-479.96	-2.409	0.321914
0.8840	-30.326	-14.3895	91.8945	-0.0935548	-0.923898	-0.861097	-0.916288	-195.512	-2.1024	0.321914
0.8847	-13.8677	-205.75	-36.0088	2.02702	-0.923898	0.651641	0.610859	139.559	-0.876001	0.321914
0.8853	-18.4394	-86.1139	-211.444	1.71517	-1.2247	0.977461	0	326.002	-1.1826	0
0.8860	-31.5451	212.658	-245.964	-0.405404	-2.4494	-0.558549	-2.44343	302.535	-2.7156	0
0.8867	-32.7642	241.66	-158.967	-0.405404	-3.05101	-0.256002	-2.13801	276.875	-2.409	0
0.8873	-32.7642	101.872	-34.1364	-0.0935548	-2.75021	0.349093	-2.13801	351.662	-2.1024	-0.321914
0.8880	-42.8602	1.46441	99.5284	0.810808	-1.2247	0.349093	-2.74886	274.733	-1.4892	-0.321914
0.8887	-39.7743	-43.0728	90.6462	0.498959	0.902412	-0.256002	-3.05429	-29.1972	0.3504	-0.321914
0.8893	-3.7717	-71.7562	46.7154	-1.93347	2.42792	-2.39711	-4.27601	-236.418	1.2702	0
0.8900	37.1074	-121.801	59.8226	-2.55716	3.95343	-4.51494	-4.58144	-202.836	1.2702	0
0.8907	50.8608	-30.5617	-12.4831	-1.93347	4.57652	-5.14331	-3.66515	-134.775	0.657001	0
0.8913	47.1653	206.864	-85.1248	-0.0935548	5.47893	-3.6073	-2.13801	-72.8435	0.963601	-0.321914
0.8920	44.4222	164.428	-47.2916	1.71517	6.40283	-1.16364	0.305429	-44.1446	1.5768	-0.321914
0.8927	34.9739	-146.537	12.5311	0.18711	5.47893	-1.16364	0.916288	-61.2344	0.657001	0
0.8933	10.5531	-259.742	-23.1897	-1.0291	5.17813	-2.69965	0	-17.2891	-0.2628	0.321914
0.8940	-7.73388	-170.954	-58.5743	-0.405404	6.10203	-2.69965	-0.305429	-10.9116	-0.2628	0
0.8947	-19.049	-64.7525	66.8324	0.498959	5.77974	-2.39711	0.610859	-53.6112	-0.2628	-0.321914
0.8953	-40.3838	110.118	187.726	2.93138	6.70363	-1.16364	2.74886	49.8246	1.5768	0
0.8960	-52.9181	320.07	156.902	3.55508	8.22914	-0.558549	2.44343	162.428	2.19	0
0.8967	-53.5276	358.527	0.624153	1.12266	7.62753	-2.39711	-0.610859	5.8793	-0.2628	-0.321914
0.8973	-56.5755	233.096	-26.2144	0.18711	7.00444	-3.0022	-2.13801	-359.086	-1.4892	-0.321914
0.8980	-46.8224	119.573	191.039	0.810808	7.62753	-2.09456	-2.13801	-634.665	-0.569401	0
0.8987	-23.0112	114.383	227.384	1.40332	9.15304	-0.558549	-3.05429	-480.857	1.2702	0.321914
0.8993	-9.2578	118.649	30.8235	2.33887	9.15304	0.651641	-5.1923	-71.9467	1.8834	0
0.9000	-6.51475	28.6516	-155.03	1.12266	6.10203	-0.558549	-8.84138	90.7305	0.3504	-0.321914
0.9007	-1.943	-42.7863	-214.228	-1.62162	4.87732	-1.76874	-13.4228	92.2751	-0.569401	0
0.9013	-4.99083	-118.458	-15.5558	-2.86901	6.40283	-2.09456	-15.8663	28.1509	0.0438	0
0.9020	-12.6485	-219.153	202.37	-1.93347	7.62753	-1.16364	-14.95	-179.069	1.2702	0
0.9027	-7.73388	-229.849	140.098	0.498959	8.85223	0.349093	-11.8957	-247.728	3.1098	0
0.9033	0.19049	-186.203	44.2668	0.18711	7.92834	-0.558549	-11.2848	-74.986	3.1098	0
