MR32 ASCII
Name	USMC30_fast
Frequency	1500
Date	04-09-2015 14:23:12
"Time,s"	"RT TIB.ANT.,uV"	"RT MED. GASTRO,uV"	"RT LAT. GASTRO,uV"	"RT BICEPS FEM.,uV"	"RT VMO,uV"	"RT VLO,uV"	"RT RECTUS FEM.,uV"	"RT SOLEUS,uV"	"RT SEMITEND.,uV"	"Channel 12,uV"
0.0000	-2.03244	-17.9289	3.4637	113.146	-22.0962	6.72359	-2.17177	-38.6347	-28.8484	-7496.63
0.0007	7.71738	-0.509825	54.4004	116.191	-19.9789	8.24348	-0.65153	-17.597	-69.7494	-10557.1
0.0013	11.3993	25.1089	37.6117	68.8743	-20.2718	8.24348	-1.55972	14.7461	-69.7494	-9641.74
0.0020	8.04139	22.3898	-35.0037	21.8924	-19.0555	9.48	-2.48766	27.2802	-66.0559	-9741.3
0.0027	-0.500746	11.6835	-58.1901	13.9454	-19.0555	7.93435	-4.61994	11.4036	-30.3647	-9895.95
0.0033	0.706936	27.2332	-45.68	14.8588	-18.7401	7.93435	-5.84403	-80.4644	99.0255	-9786.73
0.0040	9.24907	45.8843	-41.1161	-29.3827	-16.3075	11.6181	-3.0997	-223.894	188.137	-9813.79
0.0047	8.04139	26.9358	-58.8013	-90.7058	-17.8391	10.6908	-1.55972	-206.494	138.682	-9816.69
0.0053	6.5097	-12.4057	-67.0327	-81.8758	-19.9789	9.48	-3.71175	61.147	55.0919	-9817.01
0.0060	11.3993	-36.2401	-31.051	-44.3329	-18.4473	11.309	-4.91609	264.397	31.881	-9788.34
0.0067	12.9016	-54.2114	22.6567	-36.9948	-16.9157	11.9015	-4.61994	243.949	43.1949	-9862.44
0.0073	13.8442	-54.8487	111.776	-30.6006	-14.1677	13.138	-5.52814	139.891	38.6071	-9837.31
0.0080	6.80426	-15.1673	175.263	-18.9998	-12.3432	14.6579	-5.52814	44.9755	9.01999	-9540.26
0.0087	-9.98547	8.32715	104.155	-12.9101	-14.483	12.5198	-6.45607	37.6516	-7.46482	-10446.9
0.0093	-17.6145	-18.5237	-21.5564	-4.96309	-14.483	11.9015	-5.84403	84.0034	5.94853	-8836.28
0.0100	-24.3304	-24.6416	-80.154	-3.13619	-12.3432	13.4472	-3.39586	86.4611	21.8113	-2314.26
0.0107	-35.6119	0.382369	-46.2913	2.34453	-12.0279	13.4472	-3.39586	-45.6637	14.502	107.932
0.0113	-37.7327	1.91184	45.2726	30.7529	-9.91064	13.7305	-3.39586	-165.008	-61.507	-174.303
0.0120	-37.7327	-8.752	91.0341	43.5717	-8.67181	11.9015	-4.0079	-123.818	-181.139	-74.425
0.0127	-37.1436	-0.509825	67.2365	20.6745	-8.67181	7.65098	-6.45607	-56.969	-249.488	79.9022
0.0133	-28.6014	12.6182	47.3915	-6.18103	-6.2392	6.41446	-4.61994	-13.9105	-248.555	-28.9968
0.0140	-21.5615	20.2231	32.1513	-20.8267	-5.02289	5.51283	0.572557	-2.35937	-114.577	-2.57749
0.0147	-18.2036	35.8152	4.36018	-27.2513	-4.0994	6.41446	5.44916	-15.1393	124.958	0.322186
0.0153	-13.9325	54.1264	-15.77	-20.2177	-1.66679	9.48	7.28529	-6.29166	220.795	-0.322186
0.0160	-12.1063	67.5518	-47.5138	-18.9998	-1.9596	8.55261	5.15301	4.66959	143.892	-0.322186
0.0167	-7.8352	56.8455	-41.7274	-50.4226	-1.05864	6.41446	2.09279	9.24087	82.5407	-0.644372
0.0173	-3.56413	-1.4445	34.5555	-60.8055	2.00465	6.41446	0.572557	6.83234	63.0233	-0.644372
0.0180	-5.7144	-59.4371	51.3442	-14.1281	4.43726	8.55261	-0.35538	-7.22557	24.5717	0
0.0187	-0.20619	-55.1461	3.1377	25.2417	5.65357	11.9015	-0.967424	-31.9498	14.502	0
0.0193	9.24907	-45.077	10.1466	26.1552	3.5363	14.0397	-0.0394867	-46.3027	66.0559	-0.322186
0.0200	9.24907	-60.0319	46.169	20.6745	0.473008	14.3488	0.572557	-25.2158	91.4052	-0.322186
0.0207	6.5097	-33.4785	37.6117	24.3283	0.180193	14.3488	0.256663	8.94595	48.9879	-0.322186
0.0213	-1.41387	6.79767	15.6478	31.0574	0.788346	13.138	0.256663	10.4697	-12.9857	0
0.0220	-13.9325	13.213	9.25011	31.9708	1.3965	10.3816	0.868707	-49.0061	-34.6414	-0.322186
0.0227	-18.8222	17.1641	0.0814987	25.5462	3.5363	9.17087	0.572557	-107.007	-1.67181	-0.322186
0.0233	-18.2036	31.8216	-8.43512	22.1969	4.7526	8.55261	0.572557	-84.1017	21.5002	-0.322186
0.0240	-15.1697	33.3511	-15.1588	19.4565	5.36075	9.17087	1.1846	-28.9023	-1.98284	-0.322186
0.0247	-13.3434	23.5794	-35.0037	-6.78999	7.18521	9.48	0.572557	-5.40689	-4.43224	0
0.0253	-19.1167	40.701	-45.3948	-38.2432	7.50055	7.65098	-0.967424	11.1087	20.9171	0
0.0260	-24.0064	61.4339	-9.9836	-43.4194	8.1087	7.03272	-1.87562	45.2704	15.3962	0
0.0267	-26.4512	33.9459	30.3175	-36.3858	9.64035	7.93435	-1.87562	68.7658	23.3276	-0.322186
0.0273	-32.8725	-2.3367	23.8791	-27.5558	8.71686	7.93435	-2.48766	47.7281	47.7438	-0.322186
0.0280	-38.3513	-15.7621	0.0814987	-15.6505	7.18521	6.72359	-2.48766	24.5276	41.3676	-0.322186
0.0287	-39.2644	-17.2916	-11.8173	-9.83483	6.8924	5.51283	-2.17177	41.5839	35.8467	0
0.0293	-32.5485	-7.51992	-9.9836	-10.1393	7.50055	5.79619	-2.17177	68.4709	32.192	0
0.0300	-21.5615	2.84652	-1.75222	-12.9101	7.18521	5.79619	-1.87562	68.7658	14.1909	0
0.0307	-16.7014	25.7462	-4.80843	-14.4325	7.50055	4.58543	-2.17177	27.8701	-16.6403	0
0.0313	-13.0194	53.1918	-14.5475	-14.1281	9.93316	4.89456	-2.48766	-23.1022	-58.4356	0
0.0320	-9.07234	44.0574	-21.5564	-20.2177	10.2485	4.2763	-2.48766	-42.9111	-48.6769	0
0.0327	-9.98547	13.5104	-21.8824	-25.4244	9.93316	3.06554	-3.0997	-49.94	20.295	0
0.0333	-10.28	5.26819	-22.4937	-22.3491	9.64035	3.96717	-3.0997	-67.9302	71.2657	0
0.0340	-11.1931	26.6384	-30.4398	-10.1393	8.71686	4.58543	-2.17177	-76.7779	90.4721	-0.322186
0.0347	-16.9959	52.8944	-13.651	8.46466	7.79337	3.96717	-1.87562	-59.4267	48.0548	-0.322186
0.0353	-22.7987	29.3999	-10.5948	16.0768	5.36075	2.44728	-4.0079	-3.88313	-43.1949	0
0.0360	-23.3878	-30.4196	-51.4665	15.7723	5.96891	1.82902	-4.32379	81.3	-74.6093	0.322186
0.0367	-22.4747	-49.6655	-54.2374	20.37	8.71686	1.82902	-2.48766	120.967	-47.4716	0
0.0373	-24.0064	-51.7897	-26.1611	21.8924	9.64035	2.13815	-0.65153	54.7079	-5.32646	0
0.0380	-20.3539	-57.9077	-4.80843	14.8588	11.4648	3.96717	0.572557	-66.4065	31.881	0
0.0387	-15.1697	-21.5826	28.1578	5.7243	10.2485	2.44728	-0.65153	-99.0936	23.0554	-0.322186
0.0393	-18.2036	27.573	34.2702	2.9535	8.40152	0.30913	-1.87562	-39.2737	22.4333	0
0.0400	-25.2435	15.6346	1.30398	3.8974	11.1495	1.82902	-0.65153	15.68	48.3658	0.322186
0.0407	-32.5485	-36.8349	-33.7812	4.50636	13.2893	3.06554	-0.0394867	85.8713	34.6414	0
0.0413	-36.2305	-51.4924	-38.9564	6.63775	13.2893	3.06554	-0.0394867	131.043	10.2253	-0.322186
0.0420	-31.3408	-18.821	-18.8262	8.46466	12.073	2.44728	-0.0394867	84.0034	-0.777586	0
0.0427	-25.5381	21.1577	-10.5948	6.33327	9.64035	0.30913	-1.26357	5.30858	-29.7426	0
0.0433	-22.7987	34.2857	-14.5475	0.517623	8.40152	0	-2.48766	-51.4638	-46.2275	0
0.0440	-24.6249	25.4063	-17.6037	-6.18103	9.00967	1.23652	-2.17177	-64.2929	-16.0183	0
0.0447	-29.5146	25.1089	-19.7634	-9.53035	9.00967	1.54565	-1.55972	-26.1497	9.29215	0
0.0453	-31.6354	26.9358	-0.203747	-10.4743	9.32501	1.82902	-0.967424	33.3753	19.9839	0
0.0460	-36.8196	15.6346	38.8342	-11.3877	9.64035	1.23652	-0.65153	74.271	42.5728	0
0.0467	-43.5355	-15.1673	38.5489	-7.70345	9.32501	0.30913	-0.65153	86.1662	40.4345	0
0.0473	-41.0906	-36.5375	-15.1588	-1.30928	9.00967	0.30913	-1.26357	63.8996	9.60318	-0.322186
0.0480	-37.4381	-13.6378	-48.7363	1.12659	8.40152	0	-0.967424	7.12727	-10.8473	0
0.0487	-38.0567	10.154	-27.0576	3.28843	9.32501	0.927391	0.572557	-30.721	-15.7072	0.322186
0.0493	-38.3513	3.73872	0.407494	12.4229	10.2485	1.54565	0.572557	-35.2923	-17.5346	0
0.0500	-41.7092	18.3962	-6.92739	23.7193	8.71686	0	-0.967424	-35.5872	-24.2607	-0.322186
0.0507	-45.6857	40.9984	-28.6061	22.5014	7.79337	-0.28337	-1.55972	-22.1683	-28.5374	0
0.0513	-44.154	9.26183	-30.725	10.9005	8.71686	-0.28337	-1.26357	4.66959	-22.1223	0
0.0520	-39.883	-16.6968	-20.9859	3.8974	8.71686	-0.90163	-0.967424	22.3649	-19.9839	0
0.0527	-37.7327	7.09507	-34.1072	2.04004	9.00967	0.30913	-0.0394867	44.3365	-10.8473	0.322186
0.0533	-40.5015	22.3898	-66.4215	-3.44067	7.79337	0.30913	-1.26357	76.6796	13.8799	0
0.0540	-42.6223	10.154	-53.0149	-8.31241	7.18521	-0.90163	-2.48766	86.1662	17.8456	0
0.0547	-40.1775	-4.50346	-0.814987	-8.00793	7.79337	-0.5925	-1.55972	56.2317	7.46482	0.322186
0.0553	-41.4146	-6.92513	-11.8173	-6.18103	6.8924	-0.5925	-1.55972	20.8411	5.32646	0
0.0560	-43.2409	-3.27138	-57.9049	-1.0048	7.50055	0.618261	-0.967424	52.2994	8.39792	-0.322186
0.0567	-43.2409	-4.80085	-60.3498	7.24672	6.8924	1.54565	-0.65153	84.9373	12.3636	0
0.0573	-46.8934	-15.4647	-40.5049	11.5095	3.82911	-0.5925	-2.48766	50.1366	11.1195	0
0.0580	-47.512	-27.0632	-18.215	10.2916	2.92814	-1.21076	-3.0997	58.3944	8.39792	-0.322186
0.0587	-39.2644	-27.3606	-9.9836	4.50636	2.6128	-1.51989	-3.0997	94.0799	4.43224	0
0.0593	-27.6589	-20.9453	-18.8262	1.43107	2.29747	-1.51989	-2.78381	83.1187	-0.777586	0.322186
0.0600	-19.4407	-13.9352	-8.43512	2.34453	3.5363	0.30913	-1.87562	59.6233	-0.777586	0
0.0607	-20.0298	2.54913	-18.8262	0.213139	2.00465	-1.21076	-2.48766	71.2235	-5.32646	0
0.0613	-24.9195	26.9358	-62.1835	0.517623	0.180193	-3.65804	-3.71175	165.205	-22.7444	0
0.0620	-24.3304	47.0739	-67.0327	4.81085	0.788346	-3.03978	-2.78381	215.882	-42.8838	0
0.0627	-22.4747	57.7802	-54.5227	6.33327	1.3965	-2.42152	-2.17177	72.1083	-63.0233	0.322186
0.0633	-19.7353	18.6936	-52.6889	8.16017	3.82911	0	-0.65153	-110.35	-85.3011	0
0.0640	-17.6145	-62.4536	-28.6061	11.814	3.5363	0.30913	-0.35538	-110.694	-71.2657	0
0.0647	-23.0932	-78.6405	24.4904	13.6409	0.180193	-2.42152	-2.17177	5.30858	-37.0908	-0.322186
0.0653	-24.0064	-15.7621	76.0791	12.1185	-0.743298	-1.82902	-1.55972	50.4807	-59.3687	-0.322186
0.0660	-19.7353	28.4652	76.9756	5.11533	-0.743298	-1.51989	-0.35538	31.8515	-82.5407	0
0.0667	-26.7457	30.9294	23.8791	-0.395829	1.68931	-1.51989	-0.35538	19.0224	-73.4041	0
0.0673	-38.0567	37.9395	-18.8262	-1.0048	3.22096	-0.28337	-0.0394867	1.32715	-48.3658	0
0.0680	-42.6223	40.0638	-36.5114	-5.57206	-1.35145	-2.13815	-0.967424	-18.8258	8.39792	-0.322186
0.0687	-45.3617	31.8216	-78.3203	-9.83483	-4.41474	-3.65804	-1.87562	-35.5872	42.5728	-0.322186
0.0693	-43.2409	37.9395	-124.123	-4.35412	-4.0994	-2.73065	-1.55972	-52.9875	27.6043	0
0.0700	-32.8725	38.8317	-76.8126	3.28843	-2.56776	-0.90163	-0.967424	-58.7877	5.01543	0
0.0707	-25.5381	12.2783	44.0501	5.7243	0.473008	1.82902	-0.0394867	-44.1399	21.5002	0
0.0713	-27.3643	-22.1774	86.7554	0.822107	0.180193	1.54565	-0.967424	-34.0634	77.6808	0
0.0720	-32.5485	-24.3017	33.0477	-3.74515	-2.27494	-0.90163	-2.78381	-10.2731	101.475	0
0.0727	-33.7856	6.50027	-24.6126	-0.700313	-2.56776	-0.90163	-3.0997	39.7652	64.2286	-0.322186
0.0733	-31.3408	24.2167	-45.68	4.20188	-3.17591	-0.90163	-3.39586	11.9935	26.399	0
0.0740	-23.0932	21.7525	-8.76112	7.24672	-2.27494	0.618261	-1.87562	-47.1874	20.606	0
0.0747	-18.2036	1.91184	53.7892	5.7243	-1.66679	1.23652	-0.967424	26.0514	19.6729	0
0.0753	-23.0932	-28.5927	57.1714	2.64901	-4.70755	-1.51989	-2.48766	170.71	14.813	0
0.0760	-23.7118	-30.717	6.80515	2.04004	-5.02289	-1.51989	-2.17177	196.958	14.1909	0
0.0767	-16.9959	1.31705	-19.7634	1.12659	-4.70755	-1.21076	-1.26357	88.2798	13.8799	0
0.0773	-5.39038	24.2167	-37.4487	0.822107	-5.02289	-1.21076	-1.26357	4.96451	13.8799	0
0.0780	5.59657	40.701	-94.8238	1.73556	-4.0994	0	-0.35538	18.7275	14.813	0.322186
0.0787	12.3125	71.2056	-104.278	0.822107	-5.63104	-1.51989	-0.65153	123.375	12.6746	0.322186
0.0793	22.9754	-0.212427	-48.7363	-0.0913452	-6.84735	-2.42152	-1.87562	196.958	10.2253	0.322186
0.0800	26.0388	-159.83	-7.53863	0.213139	-6.84735	-1.82902	-2.78381	130.109	11.4305	0.322186
0.0807	12.607	-220.542	93.7643	1.43107	-7.4555	-2.13815	-3.0997	27.2802	7.15379	0
0.0813	-1.11931	-202.868	246.982	4.81085	-5.31571	-0.28337	-2.48766	-70.3879	-6.88163	0
0.0820	-11.1931	-129.283	274.121	4.20188	-6.55454	-1.51989	-3.39586	-174.741	-20.9171	0
0.0827	-21.267	12.2783	224.081	1.43107	-9.27996	-4.25054	-4.61994	-204.675	-23.3276	0
0.0833	-29.5146	80.34	202.728	1.43107	-7.77084	-3.65804	-4.0079	-120.426	-13.8799	0
0.0840	-31.6354	96.8243	131.62	1.12659	-5.63104	-2.42152	-3.71175	54.1181	12.3636	0
0.0847	-20.3539	119.129	30.9288	1.43107	-3.49125	-0.28337	-3.0997	165.205	45.0222	0
0.0853	-0.20619	105.364	-30.1138	1.43107	-3.17591	0.30913	-2.17177	88.6239	37.674	-0.322186
0.0860	12.9016	95.5922	-72.2486	-1.91825	-6.55454	-2.73065	-3.0997	0.737303	-1.67181	0
0.0867	15.3464	80.9772	-101.833	-3.44067	-7.16269	-3.65804	-3.0997	21.136	-13.5689	0
0.0873	12.9016	34.2857	-107.945	-3.74515	-5.92386	-2.42152	-2.48766	-1.72037	2.60491	0
0.0880	4.68345	-8.752	-86.8777	-1.30928	-4.70755	-0.90163	-1.26357	-59.7216	8.08689	0.322186
0.0887	-4.47726	-12.7456	-66.1362	1.43107	-4.0994	-0.5925	0.256663	-88.0832	-1.67181	0
0.0893	-9.66145	11.6835	-60.6351	-1.30928	-6.2392	-2.73065	-1.26357	-157.046	-5.94853	0
0.0900	-14.2565	40.701	-47.5138	-2.8317	-7.16269	-3.03978	-2.78381	-185.751	-2.60491	0
0.0907	-12.1063	68.444	-40.5049	1.73556	-6.55454	-2.13815	-3.0997	-152.769	-10.8473	0
0.0913	-1.41387	48.6033	-63.08	6.33327	-5.63104	-2.13815	-3.0997	-87.1984	-20.9171	0
0.0920	9.54363	-2.3367	-87.8149	5.11533	-4.70755	-1.51989	-3.0997	0.737303	-1.67181	0
0.0927	12.9016	8.02975	-103.666	0.822107	-5.02289	-2.13815	-3.71175	-22.8073	18.4677	0
0.0933	4.97801	47.0739	-122.9	0.213139	-4.0994	-2.13815	-4.0079	-87.1984	8.08689	-0.322186
0.0940	-3.85869	21.1577	-143.642	3.28843	-3.17591	-1.82902	-4.0079	-85.6747	-7.15379	-0.322186
0.0947	-2.94557	-19.7557	-145.801	4.20188	-4.70755	-1.82902	-3.71175	-115.855	-10.8473	0
0.0953	11.3993	8.32715	-79.2575	3.28843	-5.63104	-1.21076	-1.87562	-171.398	-6.5706	0
0.0960	26.6574	12.2783	1.30398	1.43107	-5.92386	-1.51989	-1.26357	-149.722	-2.29388	0
0.0967	30.9284	-68.5715	4.68618	0.213139	-6.55454	-3.34891	-2.78381	-42.3212	-3.49914	0
0.0973	33.3733	-120.446	-11.8173	0.517623	-4.41474	-2.42152	-3.39586	63.2606	-4.1212	0
0.0980	37.0258	-114.966	-39.8936	0.517623	-1.35145	-0.28337	-2.78381	30.3277	-0.466551	-0.322186
0.0987	36.4072	-120.149	-76.8126	-0.0913452	0.473008	0	-2.17177	-121.36	3.49914	-0.322186
0.0993	27.5705	-105.491	-54.2374	0.517623	0.788346	0	-2.48766	-180.246	2.91595	0
0.1000	15.965	-78.0458	-43.5611	1.12659	0.180193	-0.5925	-2.48766	-91.7697	0.155517	0
0.1007	12.9016	-93.0006	-32.8847	0.822107	-0.450484	-1.51989	-2.48766	88.9188	-0.777586	0
0.1013	16.8781	-63.9831	61.4501	0.822107	-0.135145	-1.82902	-2.78381	229.596	-1.98284	0
0.1020	20.8546	26.9358	130.398	1.43107	0.180193	-1.21076	-2.78381	161.519	-2.60491	0
0.1027	25.7442	72.0978	108.108	1.12659	-0.743298	-0.90163	-2.17177	85.2323	-1.36077	0
0.1033	30.9284	60.4993	15.9738	0.213139	-3.17591	-3.03978	-2.78381	87.9849	-1.04974	0
0.1040	35.4941	-78.9379	-56.3564	-0.0913452	-3.80659	-2.73065	-3.0997	27.8701	-1.67181	0
0.1047	34.2864	-284.015	13.2028	1.73556	-1.05864	-0.5925	-1.87562	0.393228	-0.777586	0
0.1053	27.865	-220.245	69.6814	1.12659	-1.9596	-1.21076	-1.55972	14.1562	-0.777586	0
0.1060	27.2465	15.9745	24.2051	0.213139	-3.80659	-2.42152	-1.87562	3.78482	-0.466551	0
0.1067	30.0153	138.63	23.2679	1.12659	-3.17591	-2.42152	-2.17177	29.3938	-0.155517	0
0.1073	34.2864	138.63	27.5466	1.43107	-1.9596	-2.13815	-3.0997	75.4999	-0.777586	0
0.1080	45.8624	57.7802	18.0927	2.34453	-1.05864	-0.90163	-3.0997	93.4901	-0.466551	0
0.1087	54.11	-2.97398	44.0501	1.73556	-2.27494	-2.13815	-3.71175	105.68	-0.466551	0
0.1093	55.3472	-35.3054	34.5555	-0.0913452	-2.88309	-3.03978	-5.23199	98.9953	-1.36077	0
0.1100	55.6417	-89.007	55.0117	1.12659	-0.135145	-1.21076	-5.23199	24.2327	-0.155517	-0.322186
0.1107	51.6652	-77.1111	153.299	1.12659	-0.135145	-1.82902	-6.14018	-77.4169	0.466551	-0.322186
0.1113	47.0996	-19.1184	178.319	0.517623	-0.135145	-2.42152	-6.45607	-111.284	1.36077	0.322186
0.1120	37.6443	-29.8248	86.7554	-0.395829	0.180193	-2.73065	-6.75222	-66.1115	0.466551	0.322186
0.1127	18.1152	-95.4223	-24.9386	-1.61377	-0.135145	-3.03978	-7.68016	7.42219	-1.98284	0
0.1133	3.77032	-145.47	-102.159	0.517623	2.92814	-0.5925	-5.84403	96.5376	-1.04974	0.322186
0.1140	2.23863	-161.36	-146.413	2.34453	4.7526	0	-3.39586	200.301	-0.466551	0
0.1147	10.7808	-163.187	-156.478	2.64901	3.5363	-0.90163	-1.87562	245.178	-1.36077	-0.322186
0.1153	15.3464	-93.298	-116.502	2.9535	2.92814	-0.90163	-0.65153	177.739	-1.67181	-0.322186
0.1160	7.71738	45.247	-37.4487	1.73556	0.788346	-2.13815	-0.65153	66.3082	-2.91595	0
0.1167	4.97801	115.433	29.3803	2.04004	0.788346	-1.51989	-0.0394867	18.7275	-2.60491	0.322186
0.1173	10.7808	133.149	46.495	2.9535	2.6128	-0.5925	0.868707	55.9367	-1.36077	0
0.1180	10.1622	176.782	41.8904	3.28843	2.29747	-1.21076	-0.0394867	54.1181	-1.36077	0
0.1187	0.706936	181.073	46.169	3.59291	2.00465	-0.5925	-0.65153	-21.8733	-0.466551	0
0.1193	-13.9325	155.752	47.7175	1.73556	0.788346	-1.82902	-1.87562	-34.0634	-1.67181	0
0.1200	-19.4407	163.059	54.1152	0.822107	-0.450484	-2.73065	-3.0997	-24.9209	-2.91595	0
0.1207	-7.8352	169.772	90.1376	2.34453	1.68931	-1.51989	-2.48766	-77.7118	-1.36077	0
0.1213	3.77032	160	120.333	2.9535	3.82911	0	-1.87562	-131.732	-0.466551	0
0.1220	2.53319	138.035	77.3016	2.04004	4.14445	0	-1.87562	-158.913	-1.04974	0
0.1227	-7.21663	90.7489	31.8253	1.43107	3.5363	-0.90163	-3.0997	-124.703	-2.29388	-0.322186
0.1233	-13.9325	29.3999	71.8004	2.04004	4.14445	-1.21076	-3.39586	-23.3971	-2.60491	-0.322186
0.1240	-13.638	4.9708	97.1465	2.34453	5.96891	-0.28337	-2.17177	36.7177	-1.98284	-0.322186
0.1247	-13.638	20.5205	75.7938	2.34453	7.50055	-0.90163	-2.48766	37.0126	-1.98284	0
0.1253	-16.0828	23.8768	79.1353	2.9535	9.00967	-0.5925	-1.87562	49.8417	-2.29388	0
0.1260	-15.7588	40.0638	45.8838	2.04004	9.93316	0	-1.87562	35.1939	-3.1881	0
0.1267	-15.4642	79.1504	-67.3587	0.822107	10.2485	0	-2.78381	-25.2158	-3.81017	0
0.1273	-13.0194	108.423	-190.626	1.73556	11.4648	0.618261	-2.17177	-62.7691	-2.91595	0
0.1280	-6.62752	150.526	-275.466	1.73556	11.4648	0.618261	-2.48766	-86.5594	-2.60491	0
0.1287	-2.03244	169.772	-193.682	0.517623	10.5413	-0.5925	-4.0079	-101.846	-3.49914	0
0.1293	0.088367	81.8694	50.4477	0.517623	11.4648	-0.28337	-4.0079	16.9088	-3.49914	0
0.1300	1.62006	-78.9379	115.443	0.822107	10.8567	0.30913	-3.39586	305.883	-2.60491	0
0.1307	-2.65101	-144.875	10.1466	0.822107	7.50055	-0.5925	-4.0079	532.923	-0.777586	0
0.1313	-7.21663	-48.7308	32.4365	0.517623	5.65357	-1.21076	-4.61994	389.837	-0.155517	-0.322186
0.1320	-6.62752	35.8152	0.692739	1.43107	5.04542	-1.21076	-4.0079	4.07975	-0.155517	-0.322186
0.1327	-14.5511	-37.1323	-224.529	3.28843	2.92814	-1.51989	-3.71175	-210.77	0.777586	0
0.1333	-31.3408	-165.608	-372.205	3.8974	0.788346	-1.82902	-4.32379	-188.209	1.04974	0.322186
0.1340	-38.9698	-200.106	-349.018	4.50636	0.788346	-1.82902	-4.0079	-60.3114	1.67181	0
0.1347	-37.1436	-184.854	-212.019	5.11533	2.00465	-1.21076	-4.0079	48.3179	1.67181	0
0.1353	-31.9594	-143.941	5.29742	4.50636	2.92814	-1.21076	-4.61994	98.6512	0.155517	0
0.1360	-24.6249	0.382369	198.449	4.20188	3.22096	-0.5925	-5.23199	102.928	-0.155517	-0.322186
0.1367	-23.3878	125.205	261.611	3.59291	2.92814	-0.28337	-5.23199	17.4987	-0.155517	0
0.1373	-27.3643	108.125	191.726	2.9535	3.22096	-0.28337	-5.23199	-88.0832	0.466551	0
0.1380	-31.0168	63.5582	132.517	3.28843	4.43726	0.618261	-5.23199	-122.884	1.98284	0
0.1387	-39.5884	53.4892	93.7643	2.04004	3.82911	0.927391	-5.23199	-97.8647	1.67181	0
0.1393	-54.5224	47.7111	7.09039	-0.0913452	1.68931	0.30913	-4.91609	-61.2453	0.466551	-0.322186
0.1400	-56.3487	71.503	-67.3587	-0.395829	2.00465	0.618261	-4.32379	-54.2164	1.36077	0
0.1407	-37.4381	118.492	-149.143	0.213139	3.82911	2.44728	-3.39586	-68.2743	3.49914	0
0.1413	-21.267	159.405	-242.214	-0.700313	3.5363	2.44728	-3.0997	-42.6161	4.1212	0
0.1420	-17.6145	157.578	-199.794	-2.8317	1.68931	0.30913	-4.0079	25.7565	2.91595	0.322186
0.1427	-8.45377	84.3336	-88.1002	-2.52722	2.92814	0.927391	-4.32379	71.5184	2.29388	0.322186
0.1433	3.77032	8.02975	-39.2824	-0.700313	5.04542	2.44728	-4.0079	64.7844	3.49914	0
0.1440	6.21514	-32.5438	74.2454	-1.61377	3.82911	1.82902	-4.91609	52.0045	3.49914	0
0.1447	-2.65101	-35.3054	161.816	-1.30928	4.43726	3.06554	-4.91609	85.5763	4.1212	0
0.1453	-22.4747	12.6182	91.0341	-0.395829	5.65357	3.6838	-4.32379	112.414	4.1212	0
0.1460	-41.7092	55.0186	48.8993	-2.22273	3.5363	2.13815	-5.84403	30.6227	2.29388	0.322186
0.1467	-50.8699	62.3686	63.243	-1.61377	3.22096	1.54565	-6.75222	-146.969	2.29388	0.322186
0.1473	-51.783	48.0085	14.7513	-0.395829	3.5363	2.44728	-6.75222	-244.637	2.60491	0.322186
0.1480	-51.1645	43.7175	-39.2824	-0.395829	3.22096	2.44728	-7.06812	-180.246	2.60491	0
0.1487	-51.4885	85.5232	-88.7114	-0.0913452	3.22096	2.13815	-7.36427	-56.0351	2.60491	0.322186
0.1493	-47.512	112.714	-114.954	-1.30928	2.00465	1.23652	-7.97631	32.7363	2.91595	0.322186
0.1500	-35.3173	78.8105	43.4388	-1.91825	2.29747	1.82902	-8.27246	21.4801	2.91595	0
0.1507	-23.7118	30.5895	234.757	-1.91825	2.92814	2.44728	-8.27246	-68.2743	2.60491	0.322186
0.1513	-25.8326	-8.752	227.137	-2.22273	2.92814	2.13815	-7.97631	-42.3212	3.1881	0.322186
0.1520	-30.7222	-43.5476	159.086	-2.8317	2.00465	1.54565	-7.68016	147.805	3.1881	0
0.1527	-31.6354	-50.8551	155.744	-2.22273	2.29747	2.75641	-6.45607	224.091	2.91595	0
0.1533	-40.7961	-37.1323	202.402	-0.395829	3.22096	3.6838	-3.39586	121.852	3.1881	0
0.1540	-47.2174	-58.5024	236.591	-0.0913452	1.68931	3.06554	0.256663	23.5937	2.29388	-0.322186
0.1547	-31.9594	-125.035	281.171	-0.0913452	1.08116	3.37467	3.31688	-41.6822	0.777586	0
0.1553	-16.0828	-182.39	376.687	-0.0913452	1.08116	3.96717	4.54097	-51.1689	0.777586	0
0.1560	-16.0828	-161.36	270.168	-0.395829	0.180193	3.6838	3.00099	3.44075	0.466551	0
0.1567	-18.5276	-54.8487	-49.0622	0.517623	0.473008	4.2763	1.48075	93.4901	1.36077	0
0.1573	-21.5615	-17.2916	-206.803	-0.700313	0.473008	3.6838	-0.967424	213.13	2.91595	0
0.1580	-27.0697	-101.838	-186.999	-1.0048	1.3965	3.6838	-3.71175	216.472	4.1212	0
0.1587	-36.525	-139.99	-189.403	-0.700313	2.92814	4.2763	-5.23199	16.2698	5.01543	0
0.1593	-47.2174	-30.4196	-121.963	-3.13619	1.3965	2.75641	-7.06812	-214.113	4.1212	-0.322186
0.1600	-35.9064	97.4616	54.1152	-4.04964	0.788346	2.44728	-7.36427	-304.457	4.74327	0
0.1607	-6.30351	138.63	115.158	-3.44067	0.180193	3.37467	-4.91609	-182.999	5.01543	0.322186
0.1613	18.1152	92.8732	45.8838	-3.13619	-0.743298	3.37467	-3.71175	64.7844	4.43224	0.322186
0.1620	27.5705	-13.9352	-58.1901	-2.22273	-0.135145	4.2763	-2.17177	326.625	5.32646	0.322186
0.1627	28.1596	37.9395	-193.682	-1.91825	0.473008	4.2763	-0.0394867	389.837	3.49914	0
0.1633	28.1596	139.565	-114.343	-1.0048	2.00465	4.89456	2.09279	42.2229	0.155517	0
0.1640	2.23863	34.5831	116.665	0.213139	4.43726	6.10532	4.22508	-72.2066	0.155517	0.322186
0.1647	-45.3617	-24.3017	125.834	-0.395829	2.29747	5.20369	4.83712	158.176	0.155517	0.322186
0.1653	-64.3017	4.9708	44.0501	-0.700313	-1.9596	4.58543	4.54097	111.775	0.155517	0
0.1660	-52.9907	-10.8763	-49.6327	-0.0913452	-4.41474	3.96717	4.54097	238.739	0.777586	0
0.1667	-37.4381	43.4201	-274.855	0.822107	-5.02289	2.75641	4.54097	585.419	-0.155517	0
0.1673	-32.2539	119.724	-424.731	3.28843	-4.70755	3.6838	5.15301	535.675	-0.777586	0
0.1680	-35.3173	139.862	-418.007	5.41982	-4.70755	4.2763	5.76506	223.206	-1.36077	0
0.1687	-22.4747	131.62	-316.989	5.11533	-6.2392	3.37467	5.15301	-172.332	-2.60491	-0.322186
0.1693	-0.20619	98.3538	-136.021	5.11533	-6.84735	2.75641	5.15301	-505.249	-2.91595	0
0.1700	-2.65101	30.9294	-73.1451	5.7243	-5.92386	3.06554	5.15301	-511.394	-2.29388	0
0.1707	-19.1167	-61.8588	-120.455	5.41982	-5.02289	3.96717	3.61303	-327.068	-1.36077	0
0.1713	-23.7118	-125.629	1.01873	3.8974	-4.41474	4.58543	1.48075	-103.37	-1.04974	-0.322186
0.1720	-25.5381	-129.623	204.847	2.04004	-4.70755	3.6838	-0.967424	95.9477	-1.36077	-0.322186
0.1727	-28.2774	-85.948	206.07	1.73556	-6.2392	2.75641	-3.71175	44.3365	-1.36077	-0.322186
0.1733	-26.1566	-8.752	78.8093	1.12659	-6.2392	2.75641	-5.52814	-121.36	-1.04974	-0.322186
0.1740	-26.7457	61.7313	18.704	1.12659	-5.02289	3.06554	-6.75222	-107.941	-0.466551	-0.322186
0.1747	-21.267	54.7212	-8.43512	1.73556	-4.70755	3.6838	-7.06812	-61.2453	0.777586	-0.322186
0.1753	-6.00895	-37.4297	-73.4711	0.822107	-6.55454	3.37467	-6.75222	-101.502	1.04974	0
0.1760	6.5097	-108.55	-118.621	-0.395829	-8.06366	3.06554	-6.14018	-63.064	0.466551	0
0.1767	10.7808	-116.198	-160.756	-0.700313	-7.77084	2.44728	-4.32379	94.0799	0.155517	-0.322186
0.1773	11.0753	-156.474	-228.197	-0.700313	-7.77084	1.82902	-0.65153	230.186	-1.04974	-0.322186
0.1780	21.4732	-154.01	-234.268	0.517623	-7.16269	3.37467	2.40869	323.283	-1.04974	0
0.1787	41.0023	-13.3404	-169.599	1.12659	-6.2392	3.96717	3.31688	355.331	0.155517	-0.322186
0.1793	48.9258	13.8078	-157.374	0.822107	-5.63104	2.75641	3.61303	123.081	0.155517	0
0.1800	39.1466	-67.9767	-248.327	-0.395829	-6.84735	1.82902	3.92893	-137.532	-1.04974	0
0.1807	34.8755	-31.0569	-238.262	0.517623	-6.55454	3.6838	6.06121	-76.4829	-0.466551	0
0.1813	43.1231	-17.589	2.52646	1.73556	-3.80659	6.10532	7.89734	4.37467	-0.155517	-0.322186
0.1820	30.9284	-48.4334	195.719	-0.700313	-3.80659	4.89456	5.76506	60.8521	-2.91595	-0.322186
0.1827	-10.5746	6.79767	125.508	-1.0048	-2.88309	4.89456	3.31688	173.758	-3.1881	0
0.1833	-47.8065	62.0287	-33.17	0.517623	-0.743298	6.72359	3.61303	72.7473	-1.67181	0
0.1840	-58.7935	15.6346	-141.808	0.517623	-0.450484	7.03272	3.92893	-141.513	-1.36077	-0.322186
0.1847	-56.9672	-160.722	-135.41	0.517623	-1.05864	7.03272	3.31688	-243.113	-1.36077	-0.644372
0.1853	-47.8065	-378.63	23.8791	0.213139	-1.9596	5.79619	2.09279	-256.876	-1.98284	0
0.1860	-21.5615	-500.988	243.926	-0.0913452	-3.17591	5.20369	0.256663	-270.59	-2.29388	0
0.1867	1.91462	-482.38	402.93	1.12659	-5.02289	6.10532	-0.0394867	-219.618	-0.777586	-0.322186
0.1873	3.15175	-336.527	389.197	2.34453	-7.4555	6.41446	1.1846	-103.37	-0.777586	-0.322186
0.1880	-7.8352	-131.153	262.548	3.28843	-9.27996	7.03272	2.40869	-112.807	0.777586	-0.322186
0.1887	-28.2774	46.4791	172.818	2.9535	-13.2667	5.79619	3.61303	-163.78	3.1881	0
0.1893	-43.2409	202.103	160.308	0.517623	-19.0555	2.44728	2.40869	-85.9696	2.29388	0
0.1900	-28.6014	255.21	119.396	0.517623	-19.9789	2.44728	0.868707	-49.6451	1.98284	0
0.1907	-3.56413	170.069	-99.3877	1.12659	-26.3758	2.44728	0.256663	-153.408	1.67181	0
0.1913	11.3993	147.509	-269.679	0.213139	-38.5839	2.75641	-0.65153	-192.78	1.04974	0.322186
0.1920	27.2465	201.211	-108.556	0.213139	-41.6472	3.96717	-1.87562	-69.454	2.29388	0
0.1927	46.481	176.187	68.4589	-0.700313	-44.0798	3.06554	-3.39586	61.7369	1.98284	0.322186
0.1933	58.7051	130.09	73.3489	-1.30928	-44.0798	1.82902	-1.26357	98.6512	0.777586	0.322186
0.1940	44.0362	60.4993	129.787	-0.700313	-36.1513	3.06554	2.09279	106.614	0.777586	-0.322186
0.1947	20.8546	-119.851	246.982	-1.61377	-27.5921	4.89456	1.48075	70.2896	1.04974	0
0.1953	17.7912	-160.722	347.062	-3.13619	-20.8799	5.79619	-1.26357	-61.2453	1.36077	0
0.1960	-2.65101	-24.0043	280.233	-3.44067	-15.6994	6.10532	-4.0079	-148.198	1.36077	-0.322186
0.1967	-37.4381	61.4339	-11.4913	-2.52722	-12.9514	6.41446	-5.23199	-105.484	1.67181	0
0.1973	-22.1801	149.931	-326.158	-2.22273	-8.37899	5.79619	-7.36427	-18.5309	2.29388	0
0.1980	22.9754	271.694	-485.121	-3.44067	-4.0994	3.6838	-10.1086	-74.6643	2.91595	0
0.1987	36.7312	269.867	-351.463	-3.74515	-7.16269	0	-8.58835	-282.191	2.91595	0
0.1993	22.3863	133.744	4.68618	-3.13619	-13.2667	-2.42152	-8.27246	-258.4	3.81017	0.322186
0.2000	6.5097	-5.39565	371.186	-3.44067	-18.7401	-2.13815	-17.7493	-123.474	5.01543	0
0.2007	-5.39038	-118.322	643.107	-2.52722	-21.8034	1.82902	-29.9507	61.7369	5.01543	0
0.2013	-30.7222	-94.1902	775.542	-0.395829	-23.0197	6.72359	-42.7641	448.723	3.49914	0
0.2020	-69.1913	29.3999	662.626	-2.22273	-27.2993	6.72359	-54.9655	544.228	1.04974	0
0.2027	-83.5068	49.2406	248.49	-5.26757	-35.836	4.89456	-55.8934	404.141	1.67181	0
0.2033	-56.9672	117.897	-136.021	-7.09448	-50.4992	6.10532	-50.7009	152.671	5.32646	0.322186
0.2040	-11.4877	329.092	-195.516	-10.7787	-72.4603	4.89456	-46.1205	-221.142	8.70896	0.322186
0.2047	21.7677	438.62	-253.217	-14.737	-99.3091	0.618261	-37.8875	-180.246	10.2253	0.322186
0.2053	32.7547	355.008	-550.157	-15.955	-129.829	-6.10532	-30.8588	127.357	10.2253	0.322186
0.2060	45.2733	90.7489	-566.62	-15.955	-153.029	-13.7305	-20.7897	187.472	11.4305	0
0.2067	56.2603	-363.378	-214.464	-14.4325	-147.533	-20.1192	-3.0997	135.615	13.2578	0
0.2073	36.1126	-683.803	-37.1227	-10.4743	-122.216	-32.639	22.5469	254.91	14.1909	0
0.2080	0.412379	-783.601	132.232	-11.3877	-95.953	-51.2641	64.6595	401.388	16.6403	0
0.2087	-31.6354	-877.282	427.95	-19.6088	-69.7123	-66.2054	104.028	235.396	18.1566	-0.322186
0.2093	-50.8699	-685.63	423.997	-20.5222	-45.0033	-56.4421	109.22	-257.761	15.7072	0
0.2100	-53.9038	-46.6065	111.776	-7.70345	-14.7759	-6.69782	89.3781	-597.756	9.60318	0
0.2107	-47.2174	468.827	-244.374	2.34453	29.4616	42.7373	65.5676	-463.764	3.49914	0
0.2113	-24.0064	525.927	-429.295	2.64901	70.9737	53.1189	41.461	-170.17	-2.91595	0.322186
0.2120	10.4862	392.565	-374.976	3.8974	99.9623	44.5663	20.0987	-61.2453	-11.4305	0
0.2127	34.5809	211.577	-294.088	11.205	134.131	39.9809	-0.0394867	-78.6457	-18.4677	-0.322186
0.2133	30.3099	77.281	-231.253	17.6296	161.904	36.632	-17.1372	-44.1399	-23.0554	0
0.2140	4.06488	11.6835	-153.421	17.6296	158.255	31.1449	-17.4334	47.7281	-23.0554	-0.322186
0.2147	-20.9724	-96.0596	-113.12	15.7723	137.51	29.9084	-12.8529	137.728	-17.2624	-0.322186
0.2153	-31.6354	-179.671	34.5555	11.5095	122.239	30.8358	-27.2063	88.2798	-13.8799	0.322186
0.2160	-44.4486	-211.11	170.088	6.02878	103.318	27.7702	-45.5084	-19.1207	-11.7415	0
0.2167	-74.6701	-269.358	138.955	3.59291	62.7298	29.3159	-51.925	67.537	-7.77586	0
0.2173	-73.757	-286.777	154.807	2.04004	21.2178	33.5922	-52.537	44.3365	-5.05431	0
0.2180	-21.8855	-237.324	192.663	1.73556	4.14445	27.7702	-49.1807	-251.666	-2.91595	-0.322186
0.2187	15.965	-130.515	143.234	1.12659	3.82911	17.1052	-40.928	-529.974	-1.67181	0
0.2193	23.2994	65.0877	114.832	-1.0048	1.68931	13.138	-28.7266	-448.821	-2.60491	0
0.2200	30.9284	58.6724	143.234	-1.0048	-6.84735	16.1778	-22.3297	112.414	-2.60491	0.322186
0.2207	29.1022	-105.194	62.3465	-2.52722	-6.84735	19.8359	-20.1777	554.6	-2.91595	0
0.2213	12.3125	26.0436	-124.408	-5.87654	1.68931	20.145	-6.14018	606.506	-1.04974	-0.322186
0.2220	4.06488	230.484	-254.439	-4.65861	3.22096	15.2762	15.8342	676.353	2.29388	0
0.2227	14.7573	195.391	-299.304	0.213139	1.08116	5.20369	38.4008	857.975	-0.155517	0
0.2233	8.95452	163.654	-71.9226	-0.395829	5.04542	-4.25054	58.2429	710.859	-1.36077	-0.322186
0.2240	-34.6988	225.003	415.44	-6.78999	9.32501	-10.3559	59.7631	70.8794	0.777586	0
0.2247	-78.028	223.473	520.736	-10.4743	8.71686	-6.69782	43.5933	-442.087	1.67181	0
0.2253	-89.3095	231.121	170.699	-8.00793	7.50055	4.2763	26.1994	-389.296	2.29388	0
0.2260	-75.5832	334.573	8.63887	-2.52722	12.073	0.927391	15.2221	-137.532	1.36077	0
0.2267	-43.8595	425.832	-2.36346	1.73556	20.0015	-10.665	14.2942	-189.094	-1.04974	0.322186
0.2273	-14.8456	406.288	-20.9859	0.213139	25.8127	-9.45424	22.5469	-381.382	-2.60491	0
0.2280	-11.1931	280.234	98.9802	-2.22273	29.777	0.30913	28.6476	-285.238	-3.49914	-0.322186
0.2287	-13.638	138.333	-8.43512	-0.0913452	28.2453	4.89456	30.7799	51.3655	-5.94853	0
0.2293	11.3993	23.282	-460.712	3.59291	21.8485	4.89456	32.004	338.865	-9.01999	0.322186
0.2300	55.3472	-5.39565	-586.139	7.5512	16.9607	11.6181	25.5874	307.701	-12.3636	0.322186
0.2307	66.0101	36.7074	-187.895	9.98708	11.1495	19.5525	13.6821	-126.226	-16.6403	0.322186
0.2313	24.8311	91.9385	96.8205	9.68259	3.5363	16.1778	7.28529	-613.289	-18.1566	0
0.2320	-31.3408	65.0877	102.648	7.5512	-3.17591	7.34185	9.12142	-825.387	-16.3293	0
0.2327	-53.3147	-163.187	166.706	4.50636	-9.27996	0.618261	16.1303	-777.167	-14.502	-0.322186
0.2333	-37.7327	-249.22	278.4	3.59291	-10.2035	-1.82902	22.5469	-246.161	-12.0526	0
0.2340	-27.9829	-90.2391	385.53	3.59291	-6.84735	-1.82902	22.843	585.419	-10.2253	0
0.2347	-39.5884	-79.5752	581.127	3.28843	-7.16269	-1.82902	19.4867	906.49	-8.70896	0
0.2353	-63.0646	-256.272	763.643	1.73556	-12.3432	-4.25054	14.9062	641.896	-7.15379	0
0.2360	-72.5198	-425.917	652.234	-0.0913452	-14.7759	-7.00696	10.6417	136.205	-7.15379	0
0.2367	-52.4016	-322.464	418.496	1.12659	-9.91064	-7.31609	5.76506	-340.487	-6.88163	0
0.2373	-37.4381	62.9634	327.543	1.12659	-2.56776	-7.93435	1.79664	-400.307	-6.88163	0
0.2380	-32.8725	196.325	19.03	-0.395829	1.08116	-8.52685	2.09279	-320.629	-5.94853	0
0.2387	-9.66145	25.1089	-372.205	-1.61377	1.68931	-7.93435	6.06121	-457.964	-5.05431	0
0.2393	14.7573	-6.03293	-366.418	-1.30928	0.180193	-7.62522	10.6417	-461.65	-5.05431	0.322186
0.2400	12.3125	-22.8147	-266.623	1.12659	-3.49125	-7.00696	11.2537	-353.611	-4.1212	0
0.2407	-5.7144	-144.875	-307.821	2.9535	-9.5953	-7.31609	9.12142	-248.914	-3.49914	0
0.2413	-15.1697	-177.844	-459.205	1.73556	-13.8749	-8.21772	6.9694	-26.4446	-4.43224	0
0.2420	-16.0828	-94.1902	-600.198	1.12659	-12.0279	-6.10532	5.76506	48.3179	-5.05431	0
0.2427	-6.00895	36.7074	-495.227	-0.0913452	-7.4555	-2.42152	3.31688	60.8521	-5.32646	0
0.2433	22.3863	21.4551	-288.587	-2.52722	-4.70755	0	-1.87562	430.389	-4.43224	0.322186
0.2440	37.9389	-235.497	-67.97	-2.22273	-3.17591	0.30913	-5.23199	669.963	-1.67181	0.322186
0.2447	11.9885	-429.273	147.187	-0.700313	-1.05864	-1.21076	-2.48766	178.624	-1.67181	-0.322186
0.2453	-20.6484	-434.796	275.344	-1.0048	4.14445	-3.34891	-0.0394867	-426.555	-3.81017	0
0.2460	-18.8222	-472.013	399.874	-2.22273	7.50055	-4.8688	-2.48766	-437.811	-4.74327	0.322186
0.2467	3.77032	-417.674	265.604	-1.91825	8.1087	-5.79619	-3.71175	28.804	-5.94853	0
0.2473	19.6175	-243.144	-187.284	0.517623	8.71686	-4.55967	0.868707	361.426	-5.94853	-0.322186
0.2480	33.9624	-196.75	-374.65	2.04004	4.7526	-3.34891	6.06121	320.235	-4.43224	0
0.2487	38.5574	-235.794	-135.695	-0.395829	-3.17591	-6.38869	6.06121	258.302	-5.6375	0
0.2493	20.236	-258.396	145.964	-1.91825	-6.55454	-9.14511	4.22508	208.214	-6.25956	-0.322186
0.2500	4.68345	-238.556	219.517	-1.30928	-6.84735	-8.83598	5.44916	162.747	-3.81017	0
0.2507	8.95452	-85.948	102.648	-2.52722	-7.4555	-8.52685	6.35736	140.776	-0.777586	0
0.2513	3.77032	186.851	40.0566	-5.87654	-7.77084	-7.00696	5.76506	-30.721	3.49914	0
0.2520	-32.8725	373.022	54.4004	-9.53035	-10.5188	-7.31609	3.00099	-351.448	3.81017	0.322186
0.2527	-68.8673	355.943	-102.444	-10.4743	-12.0279	-8.52685	-1.87562	-595.889	1.36077	0.322186
0.2533	-44.4486	255.21	-145.475	-8.92138	-8.06366	-7.62522	-3.71175	-494.288	0.777586	0.322186
0.2540	31.8416	126.139	214.953	-7.09448	-5.02289	-8.21772	-5.23199	-277.324	-1.04974	0.322186
0.2547	70.8998	-122.273	485.325	-3.74515	-2.88309	-7.93435	-5.23199	-208.657	-0.155517	0
0.2553	37.3203	-223.006	392.539	-2.22273	-2.27494	-7.00696	-3.71175	65.7183	3.49914	0
0.2560	-5.09583	-110.675	368.741	-4.04964	-5.92386	-8.83598	-4.91609	644.01	3.81017	0
0.2567	-39.2644	-119.851	390.705	-3.74515	-8.06366	-7.93435	-4.61994	913.47	5.32646	0
0.2573	-76.8203	-15.4647	92.8678	-1.61377	-8.37899	-5.79619	-0.35538	485.047	7.77586	0
0.2580	-85.3625	246.076	-245.27	-0.700313	-10.5188	-5.48706	0.572557	-300.181	6.25956	0
0.2587	-75.5832	318.683	-247.715	-0.395829	-13.5596	-6.10532	-0.0394867	-797.025	5.01543	0
0.2593	-60.3252	279.002	-78.3203	-1.61377	-15.6994	-7.31609	1.1846	-670.995	2.91595	0
0.2600	-34.3747	199.087	13.5288	-3.74515	-14.483	-6.69782	5.44916	-249.553	2.29388	0
0.2607	-20.0298	3.73872	39.1601	-3.74515	-10.8116	-4.8688	9.12142	-13.0257	4.43224	0.322186
0.2613	-30.4277	-148.232	-48.451	-4.35412	-10.8116	-5.17793	10.0296	66.6522	5.01543	0
0.2620	-54.2279	-91.7685	-182.72	-4.96309	-10.8116	-4.8688	9.41757	225.615	6.25956	-0.322186
0.2627	-62.1514	73.0325	-70.7002	-4.65861	-10.5188	-4.55967	7.28529	289.416	5.6375	0
0.2633	-48.7197	256.442	109.942	-2.8317	-10.8116	-4.55967	4.83712	16.9088	4.1212	0
0.2640	-42.3278	338.821	29.7063	-1.0048	-10.5188	-4.25054	3.61303	-358.477	3.1881	0.322186
0.2647	-39.883	304.026	-67.0327	-1.30928	-11.4198	-5.17793	2.09279	-407.286	1.67181	0
0.2653	-30.7222	354.414	45.5578	-1.91825	-12.6361	-4.8688	0.572557	-174.741	1.98284	0
0.2660	-34.9933	496.91	59.0051	-1.61377	-13.8749	-4.55967	-0.65153	-24.9209	2.91595	0
0.2667	-46.8934	505.747	-266.012	-0.700313	-12.0279	-3.96717	-0.967424	-99.0936	2.60491	0
0.2673	-42.6223	380.33	-673.424	-0.700313	-11.1269	-3.34891	-0.967424	-261.743	2.29388	0
0.2680	-28.896	319.618	-786.667	-3.13619	-15.0912	-6.38869	-3.39586	-311.486	1.98284	0.322186
0.2687	-17.2905	208.816	-703.945	-4.04964	-16.6228	-8.21772	-4.91609	-176.265	1.36077	0
0.2693	-8.74833	-30.717	-669.146	-1.61377	-13.2667	-6.69782	-3.0997	91.3273	2.91595	0
0.2700	-12.7248	-155.837	-417.396	-1.61377	-14.7759	-7.00696	-3.0997	314.73	3.81017	0
0.2707	-33.7856	-95.1249	8.31287	-4.04964	-18.4473	-9.14511	-4.61994	380.645	3.1881	0
0.2713	-64.5962	-151.291	307.699	-4.35412	-17.5238	-9.45424	-2.78381	308.635	2.60491	0
0.2720	-91.4598	-435.391	532.309	-4.65861	-14.483	-9.14511	-0.967424	201.53	1.36077	0
0.2727	-93.9046	-614.212	514.909	-4.65861	-10.5188	-7.31609	0.256663	128.586	2.29388	0
0.2733	-78.6466	-477.196	273.836	-3.13619	-7.16269	-4.8688	3.31688	43.7467	1.98284	0
0.2740	-79.2357	-158.598	130.113	-1.0048	-5.92386	-3.34891	7.28529	-90.5409	-0.155517	-0.322186
0.2747	-94.4937	-29.1875	-16.3812	0.213139	-6.2392	-3.34891	9.12142	-151.884	-1.98284	-0.322186
0.2753	-111.607	-75.879	-234.268	-1.30928	-6.84735	-4.8688	7.58144	150.262	-2.60491	0.322186
0.2760	-123.802	44.6522	-231.253	-1.0048	-5.02289	-3.65804	7.58144	562.218	-1.98284	0.322186
0.2767	-107.012	-45.3744	48.8993	1.12659	-1.9596	-0.90163	9.71373	349.236	-1.36077	0.322186
0.2773	-82.0045	-487.903	287.854	-0.395829	-1.66679	-1.21076	9.71373	-198.285	-1.98284	0
0.2780	-85.3625	-667.021	190.218	-3.13619	-3.49125	-2.73065	7.89734	-298.952	-1.98284	0
0.2787	-119.826	-581.583	-79.5428	-5.57206	-7.16269	-4.55967	5.44916	-50.2349	-2.29388	-0.322186
0.2793	-152.492	-388.402	-124.734	-5.87654	-8.98715	-4.55967	3.61303	162.747	-1.04974	-0.322186
0.2800	-154.024	75.1567	-55.1339	-3.44067	-7.16269	-2.42152	3.92893	279.045	1.98284	-0.322186
0.2807	-161.653	459.692	-123.797	-2.8317	-7.4555	-2.73065	3.00099	458.16	1.67181	-0.322186
0.2813	-188.811	414.233	-200.12	-3.44067	-8.98715	-3.65804	0.572557	302.835	0.466551	0
0.2820	-207.103	139.862	-91.1563	-3.13619	-8.67181	-3.34891	-0.65153	-418.297	-0.777586	0
0.2827	-234.29	-165.311	101.099	-2.8317	-8.67181	-3.34891	-2.17177	-708.204	-2.29388	0
0.2833	-288.901	-506.511	181.049	-1.0048	-9.91064	-2.13815	-2.17177	-318.515	-0.777586	0
0.2840	-323.394	-861.435	224.081	1.12659	-12.0279	-1.51989	-2.17177	-83.5119	1.36077	0
0.2847	-302.951	-779.31	264.993	0.517623	-14.1677	-2.73065	-4.91609	-106.712	-0.466551	0
0.2853	-263.275	-164.419	356.231	-0.0913452	-14.7759	-3.34891	-6.75222	-8.15949	-1.67181	0
0.2860	-256.264	127.669	515.52	-0.395829	-16.3075	-3.65804	-8.58835	137.138	-1.67181	0
0.2867	-281.567	59.3097	419.393	-0.0913452	-15.384	-2.73065	-10.4245	130.404	-0.466551	0
0.2873	-309.049	155.752	97.4318	1.43107	-11.1269	0.30913	-9.81244	6.83234	0.777586	0
0.2880	-319.123	213.404	-39.5676	0.213139	-8.98715	0.618261	-10.1086	-134.189	-1.04974	0
0.2887	-318.209	215.869	-36.5114	-1.30928	-8.67181	-0.28337	-11.6486	-120.77	-2.60491	0
0.2893	-322.775	297.016	-103.992	-2.22273	-10.2035	-0.90163	-12.5568	130.109	-3.81017	0
0.2900	-316.972	421.541	-165.931	-1.0048	-8.98715	0.30913	-12.5568	374.845	-3.49914	0
0.2907	-303.246	556.729	-296.248	0.822107	-3.49125	3.37467	-11.0365	387.969	-1.04974	0
0.2913	-310.58	573.511	-447.306	-1.0048	-1.35145	3.06554	-11.9447	322.054	-2.91595	-0.322186
0.2920	-338.033	406.288	-383.818	-2.22273	-1.9596	1.82902	-12.5568	239.378	-5.32646	-0.322186
0.2927	-345.368	187.786	-259.9	-1.0048	-0.743298	2.44728	-11.0365	36.7177	-5.6375	-0.322186
0.2933	-334.675	222.581	-114.343	0.213139	2.6128	3.96717	-9.2004	-59.4267	-5.6375	0
0.2940	-343.217	415.125	90.1376	2.9535	6.57706	6.10532	-7.06812	86.1662	-3.49914	0
0.2947	-349.02	390.399	103.544	2.34453	7.18521	5.20369	-7.06812	180.443	-5.05431	-0.322186
0.2953	-331.023	155.412	-20.3747	0.517623	5.65357	3.06554	-7.97631	32.4413	-7.15379	-0.322186
0.2960	-311.788	-98.1838	-43.2351	0.822107	5.96891	2.75641	-7.36427	-186.685	-7.46482	-0.322186
0.2967	-306.309	-89.007	-56.3564	0.517623	5.36075	1.82902	-7.36427	-287.352	-8.39792	-0.322186
0.2973	-309.343	133.447	-65.8102	2.04004	5.36075	2.44728	-5.84403	-248.914	-6.88163	0
0.2980	-304.778	70.5683	118.499	3.59291	5.96891	2.44728	-3.71175	-228.171	-5.05431	0.322186
0.2987	-289.814	-154.944	294.292	2.64901	5.36075	1.23652	-2.78381	-300.82	-5.6375	0
0.2993	-284.925	-58.2051	196.942	0.517623	1.3965	-1.82902	-3.39586	-268.133	-5.6375	0
0.3000	-283.422	278.407	47.3915	-1.91825	-2.56776	-4.8688	-3.71175	-72.8456	-3.81017	0
0.3007	-256.559	409.347	45.2726	1.12659	-0.743298	-3.34891	0.572557	35.1939	1.67181	0.322186
0.3013	-238.237	192.332	-29.5025	2.34453	-0.450484	-3.65804	3.31688	-148.493	1.98284	0
0.3020	-259.593	111.184	-317.275	0.213139	-2.27494	-6.38869	2.70484	-346.287	-1.36077	0
0.3027	-279.151	248.795	-402.726	1.43107	-1.05864	-5.79619	4.54097	-323.971	-0.466551	0
0.3033	-275.793	195.73	-88.1002	0.822107	-1.9596	-5.79619	6.06121	-226.647	-0.777586	0.322186
0.3040	-267.84	92.8732	256.762	1.43107	1.08116	-3.65804	7.28529	-200.399	-1.36077	0
0.3047	-249.843	84.3336	570.165	3.8974	5.36075	-1.21076	7.28529	-151.884	-1.04974	0
0.3053	-233.966	84.631	748.974	3.28843	5.04542	-2.73065	2.09279	136.844	-3.49914	0
0.3060	-251.051	173.128	520.125	3.59291	6.8924	-2.13815	0.868707	305.883	-5.32646	0
0.3067	-271.198	95.5922	141.686	4.20188	9.00967	-1.21076	5.76506	54.413	-7.46482	0
0.3073	-252.906	-100.011	3.74894	4.81085	10.5413	-0.90163	10.6417	-242.229	-8.70896	0
0.3080	-220.534	-14.2326	15.6478	7.5512	14.5056	0.927391	13.386	-224.189	-7.46482	0.322186
0.3087	-198.561	49.2406	-64.5878	6.63775	16.3526	0.618261	12.4778	67.2421	-9.29215	0.322186
0.3093	-177.824	-102.772	-196.453	5.7243	16.6454	0.618261	10.9378	185.948	-11.1584	0
0.3100	-149.429	-171.726	-342.009	6.33327	15.7444	0.30913	9.12142	20.2513	-11.7415	0
0.3107	-113.728	-119.851	-461.324	7.5512	16.3526	0.927391	7.89734	-168.941	-10.8473	0
0.3113	-85.9516	-64.2805	-400.892	8.76914	18.7852	2.44728	6.9694	-220.552	-8.08689	-0.322186
0.3120	-90.2227	-21.2852	-297.144	6.94224	16.9607	0.927391	2.40869	-74.0744	-10.2253	-0.322186
0.3127	-111.283	-6.92513	-326.158	6.63775	17.5689	-0.28337	-3.0997	79.1372	-11.4305	0
0.3133	-102.447	-21.2852	-385.326	6.33327	18.7852	-0.5925	-8.58835	76.3846	-11.1584	0
0.3140	-78.3226	-13.9352	-429.906	6.02878	18.177	-1.51989	-13.7809	20.5462	-11.1584	0
0.3147	-67.9542	46.1817	-330.396	8.46466	20.6096	0	-17.1372	27.2802	-8.08689	0
0.3153	-56.9672	86.7553	-44.1723	6.94224	20.3168	-0.90163	-21.7177	52.2994	-9.60318	0
0.3160	-49.3382	46.7765	76.0791	3.8974	19.3933	-1.82902	-24.7582	49.2519	-11.4305	0
0.3167	-57.8804	22.0499	-52.6889	3.8974	21.5331	0.30913	-25.3702	-23.3971	-9.29215	0
0.3173	-60.6197	44.0574	-181.172	2.34453	22.4566	1.23652	-25.9822	-209.247	-8.70896	0
0.3180	-38.6458	-66.4472	-172.329	1.73556	23.9657	2.75641	-27.2063	-338.029	-7.15379	0
0.3187	-13.638	-210.175	-66.4215	0.213139	22.7494	1.54565	-30.8588	-267.543	-6.25956	-0.322186
0.3193	-9.07234	-156.176	13.5288	-1.61377	19.3933	-2.42152	-33.9191	-6.29166	-8.39792	-0.322186
0.3200	-12.7248	-42.3155	40.6679	0.822107	18.4698	-4.8688	-34.5311	256.778	-9.60318	0
0.3207	-4.77182	19.0335	30.9288	3.8974	17.8617	-6.69782	-35.1432	328.149	-9.91422	0
0.3213	6.21514	73.3299	-21.2712	6.02878	17.2535	-7.00696	-34.8273	286.369	-9.01999	0.322186
0.3220	0.706936	77.281	-112.509	4.81085	14.8209	-8.52685	-35.4393	225.91	-11.4305	0
0.3227	5.89113	64.7903	-218.091	4.20188	12.3883	-10.0725	-35.1432	180.148	-14.502	0
0.3233	41.0023	123.08	-288.302	5.41982	13.8974	-8.21772	-31.4709	98.0613	-13.5689	0
0.3240	74.5523	130.388	-269.394	5.7243	15.7444	-6.38869	-29.9507	-36.816	-11.4305	0.322186
0.3247	94.9945	41.8906	-262.67	5.7243	16.6454	-4.8688	-29.3386	-102.436	-9.29215	0.322186
0.3253	117.587	-34.0733	-304.153	3.8974	16.3526	-4.55967	-22.0138	-26.1497	-9.29215	0
0.3260	131.313	-84.4611	-83.5362	0.517623	13.8974	-5.17793	-8.58835	158.815	-9.29215	0
0.3267	101.416	-16.3994	267.723	-1.91825	11.4648	-3.65804	-0.967424	349.531	-6.5706	0
0.3273	49.839	46.7765	371.186	-3.13619	13.2893	0.927391	-6.45607	410.875	-1.04974	0
0.3280	33.3733	-85.3532	362.629	-4.35412	15.4291	5.20369	-24.7582	350.76	3.1881	0
0.3287	36.1126	-165.608	384.022	-6.18103	14.2128	5.51283	-49.4768	272.016	3.81017	0
0.3293	33.0492	-63.3883	324.487	-8.00793	11.7576	4.2763	-58.6377	99.88	2.91595	0
0.3300	41.5914	40.701	154.522	-9.22587	9.64035	4.2763	-50.4048	-255.353	3.49914	0
0.3307	63.8893	89.2194	42.5016	-7.39896	9.64035	6.41446	-54.0573	-529.384	5.6375	0
0.3313	93.1682	145.343	-53.9114	-4.96309	10.2485	9.76337	-65.6466	-470.498	9.60318	-0.322186
0.3320	111.784	114.838	-218.091	-7.09448	8.40152	10.3816	-65.0543	-276.685	10.2253	-0.322186
0.3327	109.045	-93.0006	-165.931	-9.83483	8.1087	11.6181	-53.7611	-98.4546	9.60318	0
0.3333	106.6	-262.985	95.3128	-13.2146	7.79337	13.138	-42.7641	94.424	10.8473	0.322186
0.3340	101.121	-222.071	220.128	-14.737	7.79337	15.5853	-33.0109	128.291	12.6746	-0.322186
0.3347	88.308	-109.782	166.706	-10.7787	11.7576	18.9342	-13.1688	-16.0732	14.813	-0.644372
0.3353	82.5053	-80.4674	32.4365	-10.1393	10.8567	15.5853	10.6417	-49.6451	11.7415	-0.322186
0.3360	83.4184	-37.4297	-64.3025	-10.7787	8.1087	9.48	37.8085	-18.5309	6.88163	0.322186
0.3367	87.0709	131.322	-38.6712	-7.70345	7.50055	6.10532	82.3495	-187.865	4.43224	0
0.3373	92.5791	188.083	31.8253	-6.18103	5.96891	5.20369	114.709	-389.935	2.29388	-0.322186
0.3380	101.71	33.3511	148.409	-4.65861	6.57706	7.03272	108.904	-313.6	1.67181	0
0.3387	109.045	-81.9969	220.413	-4.04964	5.36075	6.41446	83.2774	-22.8073	-0.155517	0
0.3393	106.895	-99.7133	124.612	-4.65861	2.6128	5.20369	50.9181	90.1476	-2.91595	0
0.3400	96.5262	-85.6506	-50.57	-2.8317	3.82911	8.24348	14.6101	-66.4065	-1.04974	0
0.3407	77.6156	-31.6517	-181.498	-0.700313	5.65357	11.9015	-25.9822	-89.0171	2.29388	0
0.3413	64.8024	24.2167	-200.731	-0.700313	5.36075	12.8289	-57.1175	27.8701	3.49914	0
0.3420	75.1708	10.7913	-128.401	-2.22273	3.22096	10.0725	-47.0484	97.4715	1.36077	0.322186
0.3427	105.068	-38.3643	67.2365	-2.8317	2.6128	5.20369	-16.5252	233.578	-1.36077	0
0.3433	129.487	-63.3883	327.258	-2.22273	4.43726	3.37467	-21.4018	372.731	-1.98284	0
0.3440	123.095	-93.5954	346.451	-1.61377	5.04542	2.44728	-50.4048	286.664	-2.60491	0
0.3447	99.2655	-88.4122	103.259	0.517623	4.7526	1.82902	-54.0573	-81.9881	-1.36077	0
0.3453	84.9501	-36.5375	-80.7653	0.213139	2.6128	-0.5925	-36.3672	-384.725	-1.04974	0
0.3460	83.713	-9.38928	-99.3877	-2.22273	-0.743298	-7.00696	-16.2093	-289.22	-2.60491	-0.322186
0.3467	86.4523	11.3861	-36.5114	-1.61377	-0.450484	-10.0725	3.92893	-18.1868	-2.91595	0
0.3473	84.6261	37.6421	129.176	-1.30928	1.3965	-7.31609	12.7739	131.338	-1.67181	0
0.3480	85.2447	7.09507	294.903	0.822107	5.04542	-1.82902	11.5499	128.586	1.67181	0
0.3487	91.0474	-65.5125	270.494	2.9535	6.8924	-0.90163	11.2537	99.5851	2.91595	-0.322186
0.3493	100.797	-75.2842	146.29	2.9535	5.36075	-4.8688	27.1274	171.005	1.36077	-0.322186
0.3500	111.195	-16.9942	6.1939	2.04004	4.14445	-6.38869	61.3031	148.1	0.155517	0
0.3507	119.737	17.504	-168.662	3.28843	5.96891	-2.42152	53.9783	-185.751	0.777586	0
0.3513	132.55	-15.4647	-225.752	5.41982	9.93316	3.96717	-11.3327	-442.726	3.81017	0
0.3520	143.213	-96.9518	-173.552	4.50636	9.64035	2.44728	-63.2182	-302.638	1.36077	0
0.3527	140.798	-115.263	-145.801	4.20188	9.32501	-0.28337	-68.0948	11.6985	-1.98284	0
0.3533	124.008	-30.1222	-54.8487	4.81085	9.93316	0.618261	-50.4048	229.006	-3.49914	0
0.3540	106.895	46.7765	59.0051	4.81085	10.5413	3.06554	-22.3297	275.063	-4.43224	0
0.3547	102.034	52.2571	28.1578	7.24672	14.8209	9.48	21.9349	249.454	0.155517	0
0.3553	99.2655	5.90548	0.692739	4.50636	12.9965	10.9999	28.6476	95.6037	1.98284	0
0.3560	102.948	-17.2916	86.4702	0.822107	8.71686	8.55261	-55.8934	-65.2268	-1.04974	0
0.3567	119.413	6.50027	66.014	2.04004	9.93316	8.86174	-142.567	32.7363	-2.29388	0
0.3573	131.019	-6.03293	-132.069	2.04004	10.2485	8.86174	-132.794	266.806	-2.91595	0
0.3580	137.44	-62.7935	-222.369	5.41982	14.5056	11.6181	-66.2587	393.769	-1.67181	0
0.3587	135.908	-70.101	-74.0824	6.94224	16.6454	12.5198	-14.3929	293.693	-0.777586	0
0.3593	113.021	-33.4785	62.0613	2.9535	13.2893	9.76337	20.7108	90.1476	-2.29388	0
0.3600	90.7234	-16.102	66.014	3.28843	13.6046	9.48	58.2429	-53.9215	-0.155517	0
0.3607	88.6026	-6.03293	41.8904	5.41982	14.5056	6.72359	94.2547	-157.39	0.155517	0
0.3613	96.5262	-6.03293	26.0389	6.33327	15.7444	3.37467	114.709	-197.941	1.36077	-0.322186
0.3620	105.068	-27.3606	21.1489	6.33327	17.5689	-0.5925	116.841	-136.303	4.1212	0
0.3627	108.132	-32.5438	31.214	4.81085	15.4291	-7.93435	113.169	-63.703	1.67181	-0.322186
0.3633	105.068	-14.8699	36.3892	6.02878	15.4291	-13.4214	109.22	-43.845	-0.466551	-0.322186
0.3640	102.034	-4.16357	30.9288	8.46466	16.3526	-18.0068	116.525	-51.4638	-1.36077	0
0.3647	105.981	-3.56878	27.2613	11.5095	18.4698	-18.9085	150.721	-63.064	-1.04974	0
0.3653	108.75	-6.92513	25.7129	13.0319	19.7087	-15.8687	166.575	-63.703	-1.98284	0
0.3660	104.479	-10.8763	23.8791	12.4229	19.1005	-14.0397	111.037	-52.9875	-5.94853	0
0.3667	100.797	-12.4057	23.2679	12.4229	18.177	-14.6322	28.3317	-47.4823	-9.29215	0
0.3673	102.329	-12.4057	22.6567	14.5543	18.7852	-13.7305	-24.462	-44.1399	-9.91422	0
0.3680	104.479	-9.98408	24.4904	18.8476	21.8485	-8.52685	-41.54	-30.4261	-9.29215	0
0.3687	102.034	-9.38928	24.2051	18.8476	20.925	-5.17793	-40.928	-10.2731	-11.1584	0
0.3693	101.416	-10.5789	23.8791	16.3812	18.7852	-4.8688	-45.8243	8.06118	-13.5689	0
0.3700	102.623	-10.8763	23.2679	16.3812	17.8617	-7.00696	-62.6061	10.4697	-14.813	-0.322186
0.3707	101.71	-8.4546	20.2524	16.7162	17.2535	-7.62522	-86.4166	1.91699	-15.3962	0
0.3713	101.71	-2.3367	17.8075	16.7162	19.1005	-1.82902	-104.107	2.85091	-11.1584	0
0.3720	97.4393	2.54913	13.814	12.4229	18.177	1.23652	-100.454	5.30858	-7.77586	0
0.3727	93.4922	5.90548	11.9803	7.24672	15.4291	0.30913	-78.1639	4.07975	-7.15379	0
0.3733	94.9945	5.26819	17.8075	5.41982	15.4291	2.13815	-52.2211	9.24087	-5.32646	0
0.3740	97.7633	1.01965	22.6567	4.20188	16.9607	6.10532	-24.462	14.7461	0.155517	0
0.3747	100.503	-1.4445	20.8229	2.34453	19.3933	8.86174	14.6101	9.58494	6.88163	0
0.3753	99.2655	-2.3367	14.7513	-1.61377	18.4698	8.55261	52.4383	4.07975	9.01999	0
0.3760	95.9371	-2.6341	7.09039	-4.65861	15.4291	6.41446	68.0158	5.30858	8.39792	0
0.3767	92.8737	0.0849709	2.52646	-4.96309	14.2128	5.51283	71.0563	2.85091	8.08689	0
0.3773	91.6365	4.376	7.09039	-2.52722	15.7444	8.24348	75.0247	-1.42545	9.60318	0
0.3780	92.5791	4.6734	10.1466	-0.700313	15.7444	9.17087	80.2172	4.96451	10.8473	0
0.3787	90.1343	1.61445	8.31287	-4.04964	11.4648	7.34185	93.6427	16.5647	8.70896	0
0.3793	89.5157	0.722252	20.2524	-6.18103	9.93316	8.55261	104.936	23.8886	9.01999	0
0.3800	90.1343	-3.27138	29.7063	-7.39896	9.32501	7.65098	84.7977	24.2327	9.91422	-0.322186
0.3807	87.984	-9.38928	24.2051	-7.39896	10.2485	6.72359	56.4067	23.5937	10.8473	0
0.3813	85.8632	-9.68668	18.0927	-4.96309	13.6046	9.17087	51.5301	24.8225	14.1909	0
0.3820	78.2342	-9.38928	12.3063	-8.31241	11.1495	7.34185	57.6308	18.7275	12.6746	0
0.3827	71.5183	-9.98408	10.4726	-12.3012	9.64035	8.55261	77.769	13.2223	13.8799	-0.322186
0.3833	71.5183	-11.5136	11.0838	-13.2146	9.93316	12.2106	114.097	11.1087	18.4677	0
0.3840	72.4314	-13.6378	10.4726	-13.5191	6.28425	10.3816	135.755	7.42219	16.6403	0.322186
0.3847	76.3785	-9.0494	14.14	-8.00793	6.57706	11.6181	138.815	11.6985	14.813	0
0.3853	75.7894	-4.80085	13.814	-4.35412	5.65357	10.9999	127.522	14.4511	11.1195	-0.322186
0.3860	71.5183	-4.50346	9.25011	-5.57206	2.00465	8.24348	93.9586	7.42219	7.15379	-0.322186
0.3867	70.2812	-2.3367	5.90866	-5.57206	0.788346	9.17087	57.9467	1.62207	6.88163	0
0.3873	70.2812	1.91184	3.4637	-4.04964	1.3965	13.4472	47.8776	4.07975	7.77586	-0.322186
0.3880	72.1074	4.9708	-1.75222	-3.13619	2.29747	18.9342	58.8549	11.4036	11.1195	-0.322186
0.3887	76.3785	1.31705	-9.6576	-6.48551	0.473008	20.7633	62.8233	13.8122	11.4305	0.322186
0.3893	80.9736	-2.3367	-10.5948	-8.6169	-1.66679	19.5525	53.0504	13.8122	9.01999	0
0.3900	82.5053	-1.7419	-6.64215	-8.00793	-3.49125	16.1778	41.1649	10.7646	7.46482	-0.322186
0.3907	86.4523	-0.509825	-4.48243	-7.39896	-4.0994	12.8289	27.4235	5.30858	8.08689	-0.322186
0.3913	91.0474	1.31705	-4.19719	-6.78999	-3.49125	9.76337	3.00099	5.60351	9.01999	-0.322186
0.3920	88.308	4.9708	-7.82388	-7.39896	-5.31571	4.58543	-40.3159	9.58494	8.08689	-0.322186
0.3927	85.2447	8.92194	-12.7138	-10.4743	-8.67181	0.30913	-94.6496	0.393228	6.25956	0
0.3933	84.9501	15.6346	-13.651	-11.3877	-9.27996	-0.28337	-125.469	-12.3867	6.88163	0
0.3940	83.0944	20.8603	-9.9836	-9.22587	-8.37899	1.23652	-122.725	-11.207	9.60318	-0.322186
0.3947	83.4184	15.9745	-5.41967	-7.09448	-9.91064	0.927391	-94.9457	-7.52049	9.01999	-0.644372
0.3953	87.3655	6.50027	0.407494	-4.96309	-11.1269	-2.13815	-72.3594	-2.0153	6.88163	0
0.3960	85.2447	-2.0393	5.29742	-3.13619	-12.6361	-5.17793	-125.173	19.6123	4.43224	0.322186
0.3967	76.3785	-9.98408	4.07494	-3.13619	-15.6994	-7.62522	-213.05	43.4517	-1.04974	0
0.3973	71.8129	-11.5136	3.1377	-0.0913452	-16.0147	-5.79619	-238.085	50.4807	-1.67181	0
0.3980	71.1943	-7.22252	6.47915	2.64901	-15.0912	-3.34891	-222.823	47.0891	1.67181	0
0.3987	68.1604	-7.85981	7.41639	-2.22273	-18.7401	-6.10532	-188.332	37.0126	1.04974	0
0.3993	66.0101	-8.752	6.1939	-5.57206	-21.8034	-9.14511	-123.337	30.3277	-0.466551	0.322186
0.4000	62.6522	-4.16357	2.85246	-4.65861	-23.335	-9.76337	-111.431	36.1279	-1.36077	0
0.4007	60.8259	1.91184	1.62997	-1.91825	-22.0962	-7.93435	-158.421	41.928	0.466551	0
0.4013	65.7156	5.26819	1.01873	0.213139	-19.9789	-7.93435	-168.194	40.4042	2.60491	0
0.4020	69.3681	8.02975	-6.03091	-1.61377	-21.8034	-14.323	-141.639	35.1939	-2.29388	-0.322186
0.4027	71.5183	11.9809	-13.0398	-2.52722	-23.335	-18.9085	-108.687	34.6041	-4.74327	-0.322186
0.4033	75.4654	13.5104	-16.7072	-3.13619	-23.9432	-18.9085	-95.5578	34.26	-3.1881	0
0.4040	85.5392	15.6346	-16.096	-1.91825	-23.0197	-13.4214	-71.155	36.1279	-1.04974	0
0.4047	93.4922	18.0988	-13.325	0.517623	-20.5871	-6.38869	21.3228	41.289	1.36077	0
0.4053	96.2316	15.3372	-15.4848	-1.61377	-21.4881	-0.90163	119.585	37.3567	0.466551	0
0.4060	102.623	12.2783	-19.4375	-3.13619	-23.0197	2.13815	155.893	28.804	-1.67181	0
0.4067	106.895	10.4514	-19.4375	-1.30928	-24.5514	-2.13815	129.97	25.7565	-4.43224	0.322186
0.4073	108.75	9.26183	-14.8735	3.8974	-23.9432	-7.31609	72.2804	24.5276	-5.32646	0.322186
0.4080	109.045	9.26183	-11.4913	6.63775	-22.0962	-9.76337	-1.87562	21.4801	-5.05431	0
0.4087	103.861	9.26183	-13.651	5.7243	-23.9432	-13.4214	-68.0948	19.6123	-7.77586	0
0.4093	100.503	10.154	-15.1588	6.63775	-25.1595	-19.5267	-85.4887	19.0224	-10.2253	0
0.4100	99.2655	10.7913	-13.325	8.76914	-23.9432	-28.3627	-98.3021	19.0224	-9.60318	0
0.4107	98.971	10.154	-7.25339	10.596	-20.2718	-33.2573	-136.762	22.0699	-6.5706	0
0.4113	99.5896	8.32715	-1.75222	9.68259	-18.7401	-36.2971	-154.156	28.5091	-3.49914	0
0.4120	98.6764	5.90548	1.30398	4.81085	-19.6636	-38.4352	-120.888	39.7652	-2.91595	0
0.4127	97.1447	3.44132	2.24122	0.822107	-19.3708	-34.1589	-85.4887	45.8603	-1.04974	-0.322186
0.4133	97.4393	2.54913	-2.03747	-1.30928	-19.3708	-30.1917	-60.4739	39.7652	0.155517	0
0.4140	103.861	8.02975	-6.03091	1.73556	-16.9157	-27.4611	-2.48766	35.4889	1.67181	0
0.4147	108.75	13.5104	-6.92739	6.02878	-15.0912	-23.1848	-0.967424	35.4889	2.91595	0
0.4153	101.416	8.92194	-7.53863	4.81085	-19.0555	-22.8756	-61.0859	30.0328	-2.29388	0.322186
0.4160	94.9945	4.376	-4.48243	6.02878	-18.4473	-20.4284	-26.8904	30.0328	-5.94853	0.322186
0.4167	97.4393	2.84652	-0.203747	9.68259	-14.7759	-10.3559	71.3722	31.5566	-7.46482	0
0.4173	105.392	0.0849709	1.30398	9.07362	-13.8749	0.618261	159.862	25.4124	-10.5363	0
0.4180	116.674	2.84652	2.24122	10.596	-8.98715	5.79619	229.753	23.2988	-7.77586	0
0.4187	121.563	5.26819	0.407494	11.205	-7.77084	4.2763	242.567	18.7275	-9.01999	-0.322186
0.4193	124.597	3.73872	-1.42623	9.98708	-10.2035	5.20369	232.814	9.87987	-16.3293	0
0.4200	132.845	3.14392	-1.75222	8.16017	-9.91064	6.72359	237.078	4.96451	-17.8456	0
0.4207	144.127	6.50027	-5.41967	7.85569	-5.92386	4.2763	246.535	1.62207	-15.7072	0
0.4213	150.842	16.8667	-13.9363	12.1185	-0.450484	4.58543	230.365	4.37467	-15.124	0
0.4220	136.203	24.5141	-24.0014	10.2916	-0.135145	5.79619	179.092	10.7646	-17.8456	0
0.4227	118.824	26.0436	-28.6061	4.81085	-0.450484	9.17087	126.614	14.7461	-19.3619	-0.322186
0.4233	122.477	24.8115	-26.7723	1.12659	2.6128	12.8289	80.8292	17.2037	-16.6403	0
0.4240	133.464	19.9257	-17.9297	1.43107	5.36075	13.138	44.8174	19.3173	-12.3636	0
0.4247	143.537	14.7424	-3.25995	7.24672	7.50055	17.1052	30.4837	18.0885	-9.60318	-0.322186
0.4253	151.166	7.09507	2.52646	6.02878	5.65357	18.9342	27.4235	7.71711	-11.1584	0
0.4260	154.524	0.0849709	2.24122	0.517623	3.82911	12.5198	6.67325	-3.53906	-12.9857	0
0.4267	156.969	-2.6341	4.07494	0.213139	3.82911	4.2763	-34.5311	-6.93065	-11.7415	-0.322186
0.4273	160.622	-2.6341	4.36018	0.213139	2.00465	0.927391	-77.2557	-5.40689	-10.5363	-0.322186
0.4280	166.424	4.376	3.1377	1.73556	4.14445	4.2763	-125.765	-0.491536	-6.25956	0
0.4287	170.696	9.85662	0.407494	3.28843	5.36075	5.79619	-146.831	0.737303	-6.25956	-0.322186
0.4293	172.227	11.0887	-2.03747	4.81085	4.14445	5.20369	-109.595	1.32715	-9.01999	0
0.4300	173.729	14.1477	-3.25995	6.33327	5.65357	1.23652	-74.8075	6.19335	-9.60318	0
0.4307	177.411	15.6346	-5.09367	5.7243	5.04542	-6.10532	-48.2527	10.1748	-11.7415	0
0.4313	186.867	17.504	-2.03747	7.85569	7.79337	-3.34891	9.41757	17.4987	-8.70896	0
0.4320	194.496	18.0988	1.62997	7.85569	10.8567	-0.28337	62.5272	18.0885	-4.1212	-0.322186
0.4327	200.593	11.0887	-0.203747	2.04004	5.36075	-6.38869	95.775	7.12727	-7.46482	0
0.4333	209.135	7.09507	3.4637	1.12659	4.43726	-8.21772	130.582	6.19335	-7.77586	0
0.4340	207.309	10.154	9.53535	2.64901	8.40152	-4.25054	162.014	10.1748	-4.43224	-0.322186
0.4347	194.79	10.154	10.7578	-0.395829	7.79337	-1.21076	163.83	4.37467	-4.74327	-0.322186
0.4353	184.716	10.7913	11.9803	1.43107	10.8567	2.44728	148.273	-0.835611	-3.81017	0
0.4360	171.903	7.09507	10.4726	4.20188	12.6811	3.96717	138.815	-3.88313	-5.6375	0
0.4367	156.351	-3.86617	6.80515	3.59291	9.64035	8.55261	112.577	-5.70181	-12.0526	0
0.4373	146.277	-5.09825	8.63887	4.20188	10.2485	13.7305	58.5588	-1.42545	-15.7072	0
0.4380	135.908	3.14392	8.92411	5.11533	14.8209	12.5198	-7.06812	5.30858	-15.124	0
0.4387	117.882	10.7913	5.58266	6.02878	20.3168	18.0068	-53.7611	14.4511	-12.6746	0
0.4393	85.5392	14.445	0.0814987	3.59291	23.3576	31.7374	-36.6634	19.0224	-11.1584	0
0.4400	56.8494	15.0398	-5.41967	-2.22273	25.2046	42.119	20.3949	19.9563	-10.5363	0
0.4407	59.6182	17.504	-7.53863	-3.13619	28.8535	46.3953	57.3347	24.5276	-7.77586	0
0.4413	73.3446	20.8603	-10.2688	-2.8317	30.3851	40.5991	67.0879	28.5091	-5.32646	0
0.4420	74.2577	22.3898	-13.325	-5.57206	29.4616	31.1449	51.846	26.0514	-4.1212	0
0.4427	76.7025	22.9846	-13.325	-6.48551	29.4616	26.2503	21.619	19.3173	-2.60491	0
0.4433	82.7998	21.4551	-14.5475	-6.18103	29.1688	21.974	-11.3327	14.1562	-4.43224	0
0.4440	101.121	16.8667	-13.0398	-5.26757	27.029	17.6977	-56.5055	8.65103	-7.46482	0
0.4447	119.119	9.26183	-5.70491	-3.44067	23.9657	14.6579	-103.495	-0.835611	-8.70896	0
0.4453	95.3185	0.382369	4.68618	-1.91825	22.4566	11.6181	-123.021	-5.99673	-8.39792	0
0.4460	49.5444	-6.62773	15.3625	0.213139	21.8485	7.93435	-115.084	-1.72037	-8.39792	0
0.4467	28.1596	-11.2162	20.2524	-1.0048	19.1005	2.75641	-105.943	2.85091	-10.8473	0
0.4473	5.27256	-11.5136	20.5377	-4.04964	17.5689	0.618261	-100.75	7.42219	-12.3636	0
0.4480	-13.9325	-7.51992	20.5377	-4.65861	17.2535	3.96717	-85.1925	12.9274	-11.7415	0
0.4487	38.5574	-5.09825	17.4815	-5.26757	14.8209	8.55261	-69.3189	11.1087	-12.9857	0.322186
0.4493	126.129	-3.27138	15.3625	-4.35412	15.7444	10.9999	-55.2814	8.06118	-12.9857	0
0.4500	135.584	-0.212427	15.3625	-1.0048	19.1005	12.2106	-35.4393	10.7646	-11.1584	0
0.4507	75.4654	1.01965	11.3691	-1.61377	17.8617	11.6181	-47.0484	13.2223	-13.8799	0
0.4513	61.4445	4.0786	7.41639	-2.52722	16.9607	10.3816	-76.6437	16.2698	-15.7072	0
0.4520	106.895	4.9708	6.1939	-3.74515	16.3526	8.86174	-51.925	17.2037	-15.3962	0
0.4527	131.313	2.20924	4.07494	-7.39896	14.2128	8.24348	-36.3672	11.1087	-16.6403	0.322186
0.4533	140.798	4.9708	4.36018	-6.48551	19.1005	17.4143	-109.299	10.4697	-11.7415	0
0.4540	154.524	5.26819	6.80515	-4.65861	22.1413	24.1122	-168.806	10.7646	-7.46482	-0.322186
0.4547	150.548	-2.3367	7.41639	-7.39896	16.6454	19.2434	-158.124	3.78482	-12.9857	-0.322186
0.4553	129.192	-2.3367	8.31287	-6.78999	16.0372	16.1778	-174.294	4.07975	-14.502	0
0.4560	82.7998	0.722252	8.92411	-5.87654	18.4698	14.9671	-228.924	6.83234	-11.4305	0
0.4567	40.6783	-4.80085	9.53535	-8.6169	15.4291	8.55261	-233.189	1.91699	-12.6746	0.322186
0.4573	49.2204	-6.62773	14.4253	-6.78999	15.1137	5.51283	-197.493	3.78482	-11.1584	0.322186
0.4580	46.7756	-3.56878	18.0927	-3.13619	16.6454	3.96717	-137.67	6.83234	-8.70896	0
0.4587	8.04139	-5.69305	17.1962	-4.65861	13.6046	-2.73065	5.15301	1.32715	-11.4305	0
0.4593	-12.1063	-10.2815	17.4815	-6.78999	9.64035	-6.38869	160.474	-3.24413	-13.8799	0
0.4600	-27.9829	-13.6378	21.7602	-5.57206	7.79337	-2.73065	230.069	-5.70181	-15.124	0
0.4607	-29.1906	-20.0531	29.3803	-2.22273	7.18521	0.30913	241.955	-13.3206	-16.9514	0
0.4613	-0.20619	-26.4684	37.6117	-0.395829	7.18521	-1.82902	254.472	-23.1022	-16.9514	0
0.4620	-0.20619	-27.7005	37.3264	-0.700313	5.36075	-4.8688	286.831	-30.1311	-19.6729	0
0.4627	-23.7118	-21.2852	29.9915	1.43107	4.43726	-3.96717	253.564	-27.3785	-21.8113	0
0.4633	-26.4512	-13.9352	22.9826	3.28843	3.5363	-4.8688	161.086	-19.1207	-22.1223	0
0.4640	-11.1931	-12.1083	17.8075	0.822107	0.473008	-11.2833	88.7661	-15.1393	-24.5717	-0.322186
0.4647	39.4706	-9.98408	20.8229	2.34453	2.00465	-12.494	20.0987	-7.81542	-21.2281	-0.322186
0.4653	133.758	-8.4546	25.1016	3.8974	3.5363	-13.7305	-33.0109	-3.53906	-16.3293	0
0.4660	240.27	-12.1083	22.6567	-0.395829	0.180193	-20.1192	-46.7325	-10.2731	-17.8456	0
0.4667	329.373	-16.3994	24.4904	-1.61377	-1.05864	-20.1192	-29.0425	-13.9105	-18.4677	0
0.4673	362.334	-18.821	28.4838	-1.0048	-0.135145	-18.2902	-1.26357	-13.0257	-17.5346	-0.322186
0.4680	343.718	-20.0531	27.5466	-2.52722	0.180193	-18.2902	-2.48766	-14.5495	-17.2624	-0.322186
0.4687	335.5	-16.102	24.4904	-1.0048	3.82911	-12.1849	-39.1116	-13.3206	-14.1909	0.322186
0.4693	313.821	-5.09825	13.5288	-1.0048	5.04542	-7.62522	-112.656	-8.45441	-14.813	0.322186
0.4700	223.804	10.154	-4.48243	-2.52722	3.82911	-9.45424	-195.36	-3.88313	-19.9839	0
0.4707	130.106	23.282	-14.8735	-0.395829	4.7526	-7.93435	-202.073	1.91699	-21.5002	-0.322186
0.4713	33.6678	27.2332	-16.9925	1.12659	3.22096	-6.10532	-127.305	8.06118	-21.2281	0
0.4720	-159.208	23.5794	-16.3812	-0.395829	-1.35145	-5.79619	-38.7957	11.4036	-21.5002	-0.322186
0.4727	-320.654	16.2719	-8.14987	-0.0913452	-3.17591	-1.82902	36.5844	10.4697	-20.295	0
0.4733	-283.098	6.79767	0.692739	-0.395829	-5.02289	0.927391	84.1856	10.1748	-18.7787	0.322186
0.4740	-145.481	0.382369	2.24122	-2.22273	-5.63104	3.37467	111.352	10.1748	-17.2624	0.322186
0.4747	-50.2513	-0.212427	0.692739	-3.13619	-3.17591	8.24348	162.014	2.85091	-14.502	0.322186
0.4753	-52.9907	0.382369	-3.87119	-4.65861	-1.35145	8.24348	226.713	-16.3681	-12.9857	0
0.4760	-139.06	0.0849709	-6.92739	-5.26757	-1.05864	5.20369	253.564	-37.1109	-11.1584	0
0.4767	-222.39	2.84652	-6.92739	-2.8317	-0.450484	2.75641	230.365	-45.3687	-8.70896	0
0.4773	-200.092	8.32715	-12.7138	-2.52722	-2.27494	-3.34891	180.928	-42.3212	-10.5363	0
0.4780	-117.381	13.5104	-18.8262	-4.04964	-3.49125	-8.21772	118.361	-42.0263	-12.9857	0
0.4787	-114.641	14.445	-17.6037	-2.8317	-1.9596	-12.494	34.7483	-46.3027	-11.7415	-0.322186
0.4793	-153.405	10.7913	-14.8735	-1.61377	-1.35145	-23.4939	-58.3218	-53.9215	-12.9857	-0.322186
0.4800	-170.489	5.56559	-9.37236	0.213139	1.08116	-29.5992	-112.952	-60.0165	-12.6746	0
0.4807	-161.329	1.31705	-2.64871	3.59291	3.5363	-25.0138	-92.8135	-57.2639	-11.1584	0.322186
0.4813	-62.1514	-2.6341	-2.9747	4.20188	-0.450484	-18.5993	-28.1145	-55.1503	-16.6403	0
0.4820	121.239	-7.22252	-4.80843	3.8974	-3.80659	-11.2833	19.4867	-59.7216	-23.0554	0
0.4827	254.909	-9.68668	-2.03747	5.7243	-2.56776	-2.73065	14.9062	-64.5878	-23.3276	0.322186
0.4833	215.232	-9.98408	-0.529742	6.02878	0.788346	4.2763	-34.5311	-64.5878	-21.2281	0
0.4840	75.7894	-9.38928	3.1377	5.7243	5.04542	12.5198	-75.4196	-62.7691	-16.9514	-0.322186
0.4847	-4.77182	-13.043	9.53535	5.41982	6.57706	18.0068	-83.6525	-64.8827	-12.3636	0
0.4853	-19.1167	-22.4748	13.814	1.43107	2.29747	18.0068	-85.8046	-73.4354	-11.1584	0
0.4860	-1.11931	-31.3543	17.1962	-3.44067	-1.9596	16.7961	-87.621	-85.3306	-9.29215	0
0.4867	23.594	-35.3054	19.03	-5.87654	-5.92386	12.8289	-83.9684	-90.8358	-4.74327	0
0.4873	17.2021	-33.7759	18.4187	-7.09448	-10.2035	9.48	-78.7759	-83.217	-0.466551	-0.322186
0.4880	23.8885	-28.5927	19.3152	-5.26757	-10.8116	10.9999	-65.0543	-67.0455	4.43224	-0.322186
0.4887	76.084	-24.939	18.4187	-6.18103	-11.1269	10.3816	-50.9971	-50.8739	7.15379	0
0.4893	136.497	-23.7069	14.7513	-10.1393	-13.2667	4.58543	-49.4768	-36.816	7.77586	0
0.4900	191.432	-20.9453	12.5916	-11.6922	-14.7759	-0.28337	-50.0889	-26.7395	9.60318	0
0.4907	209.754	-17.2916	10.1466	-12.9101	-16.0147	-3.34891	-41.8559	-22.1683	9.91422	0.322186
0.4913	192.964	-8.4546	5.58266	-12.6056	-14.1677	-2.13815	-22.922	-13.0257	10.8473	0
0.4920	211.58	3.44132	0.0814987	-9.53035	-9.91064	1.23652	-2.48766	1.03222	12.9857	-0.322186
0.4927	240.27	4.376	-2.03747	-9.53035	-10.5188	0.618261	7.28529	1.62207	9.60318	0
0.4933	217.677	-1.7419	2.24122	-9.22587	-9.91064	0.30913	11.5499	-6.58658	6.25956	0
0.4940	151.461	0.0849709	1.91522	-7.39896	-5.92386	0.927391	17.0385	-6.58658	5.32646	0.322186
0.4947	64.1839	8.32715	-5.09367	-6.18103	-2.56776	-0.5925	25.9033	2.55598	3.49914	0
0.4953	1.91462	21.4551	-12.7138	-2.52722	3.22096	0.618261	36.2685	17.4987	3.81017	0
0.4960	-29.8091	39.1716	-28.6061	-0.0913452	6.8924	0.618261	37.1965	33.3753	3.81017	-0.322186
0.4967	-53.3147	51.3649	-46.9025	-1.91825	4.7526	-2.73065	28.6476	37.0126	-0.155517	-0.322186
0.4973	-33.1671	52.2571	-48.7363	-2.22273	4.7526	-3.96717	20.7108	29.6887	-0.777586	0
0.4980	22.0623	41.5932	-37.4487	-2.22273	5.04542	-3.96717	13.386	19.9563	1.04974	0
0.4987	62.9762	23.5794	-19.4375	-1.30928	4.7526	-4.55967	6.9694	4.37467	1.98284	0
0.4993	85.5392	8.32715	-3.58594	1.73556	7.18521	-3.34891	6.9694	-13.3206	3.81017	0
0.5000	80.355	0.722252	-0.529742	1.12659	7.79337	-4.25054	10.3258	-24.331	4.1212	0
0.5007	41.0023	-0.509825	-3.25995	-0.395829	6.57706	-5.79619	12.1619	-27.0345	1.67181	0
0.5013	11.3993	0.382369	-2.03747	1.12659	7.50055	-4.25054	15.2221	-26.4446	1.04974	0
0.5020	3.44631	1.01965	-1.42623	1.12659	6.28425	-5.48706	17.3544	-31.0159	-0.466551	-0.322186
0.5027	15.6704	4.376	-2.03747	1.73556	3.82911	-6.38869	16.4462	-32.2447	-0.466551	-0.322186
0.5033	47.3941	13.5104	-3.25995	5.7243	3.82911	-3.34891	14.9062	-15.1393	3.1881	0
0.5040	51.0761	21.7525	-9.9836	6.02878	0.473008	-2.42152	11.2537	5.60351	4.1212	0
0.5047	28.7782	22.6872	-14.5475	3.8974	-4.70755	-0.90163	6.9694	10.4697	4.43224	0
0.5053	19.6175	15.9745	-9.6576	2.64901	-8.06366	1.82902	4.22508	-1.42545	7.15379	0.322186
0.5060	24.8311	5.56559	-4.48243	-1.0048	-12.0279	0	-2.78381	-21.8733	8.39792	0
0.5067	45.2733	1.01965	-0.529742	-1.61377	-13.2667	-1.51989	-10.4245	-31.9498	10.2253	-0.322186
0.5073	64.8024	4.0786	2.52646	1.73556	-11.1269	0.618261	-13.1688	-28.6074	15.3962	0
0.5080	52.2838	6.20287	-0.529742	2.04004	-11.1269	-1.21076	-17.1372	-27.6735	16.0183	0.322186
0.5087	30.6044	7.09507	-5.70491	0.517623	-13.2667	-4.25054	-19.8815	-27.6735	14.502	0
0.5093	41.0023	6.20287	-7.82388	-1.30928	-14.1677	-5.48706	-21.1056	-25.5107	14.1909	0
0.5100	57.7625	4.376	-7.25339	-2.22273	-13.2667	-6.10532	-24.1461	-25.8548	14.502	0
0.5107	58.7051	5.90548	-4.19719	0.822107	-8.37899	-4.25054	-19.5657	-23.3971	17.2235	0
0.5113	44.3602	6.79767	-2.03747	1.43107	-5.31571	-3.65804	-10.4245	-20.9394	20.606	0
0.5120	-0.824758	2.54913	-2.9747	-2.22273	-5.31571	-5.17793	-13.1688	-23.692	19.3619	0
0.5127	-40.5015	-0.807223	-4.80843	-3.44067	-5.02289	-4.55967	-18.3613	-27.6735	14.502	0
0.5133	-30.1037	-0.509825	-5.41967	-2.52722	-5.02289	-3.96717	-6.14018	-27.0345	11.7415	0
0.5140	-3.56413	1.01965	-4.48243	-0.395829	-4.70755	-3.03978	4.83712	-23.9869	13.5689	0
0.5147	5.27256	1.91184	-2.64871	2.04004	-4.0994	-0.28337	14.6101	-21.5784	16.0183	0
0.5153	10.4862	2.20924	-2.9747	1.73556	-5.63104	0.618261	58.5588	-21.8733	16.9514	0
0.5160	15.965	0.722252	-5.41967	-0.0913452	-10.2035	-1.51989	89.9902	-24.9209	15.3962	-0.322186
0.5167	18.4098	-0.509825	-7.25339	-1.0048	-12.0279	-2.42152	69.5361	-27.0345	12.6746	-0.322186
0.5173	27.865	-1.4445	-6.31615	-1.61377	-10.8116	-1.51989	37.8085	-26.1497	12.0526	0
0.5180	31.8416	-0.509825	-4.19719	1.12659	-7.77084	-0.5925	0.572557	-22.4632	13.8799	0
0.5187	-0.824758	2.20924	-4.48243	4.50636	-4.41474	-0.28337	-49.1807	-17.3021	13.8799	0
0.5193	-42.0038	2.54913	-6.03091	4.50636	-4.41474	-2.13815	-92.2014	-15.1393	11.1195	0
0.5200	-45.9803	0.382369	-6.92739	3.8974	-5.02289	-3.03978	-113.88	-15.4834	9.29215	0
0.5207	-28.6014	-2.0393	-6.64215	3.28843	-3.49125	-3.03978	-112.34	-16.0732	7.77586	-0.322186
0.5213	-2.94557	-4.50346	-4.19719	3.8974	-0.135145	-1.82902	-95.5578	-16.3681	6.5706	0
0.5220	30.6044	-4.50346	-0.203747	6.02878	3.82911	0.618261	-92.5173	-14.5495	7.15379	0
0.5227	60.2074	-2.97398	-0.814987	6.02878	5.65357	1.54565	-87.0089	-15.1393	7.15379	0
0.5233	76.9971	-2.6341	-4.19719	5.11533	6.57706	1.23652	-13.7809	-18.1868	6.25956	0
0.5240	76.9971	-2.6341	-6.31615	4.50636	6.57706	0.30913	86.3179	-17.597	5.32646	0
0.5247	102.948	-1.7419	-6.92739	3.28843	5.96891	-0.5925	127.818	-12.0918	5.94853	0
0.5253	223.185	-0.212427	-6.92739	2.34453	6.8924	-0.90163	126.298	-5.06282	7.46482	0
0.5260	351.347	-0.807223	-5.41967	2.64901	9.00967	-0.90163	102.804	-2.0153	9.01999	0
0.5267	332.142	-1.7419	-2.64871	4.81085	10.8567	-0.28337	28.3317	-1.72037	9.60318	-0.322186
0.5273	238.149	-2.97398	-2.36346	5.41982	9.93316	-2.73065	-41.54	-0.196614	7.77586	0
0.5280	211.58	-4.50346	-4.80843	4.81085	6.8924	-5.17793	-33.6032	1.62207	3.81017	0
0.5287	235.999	-5.39565	-5.41967	5.7243	4.7526	-3.96717	5.76506	-2.0153	1.04974	0
0.5293	264.983	-5.09825	-5.09367	8.46466	5.36075	-1.51989	64.9556	-8.45441	-0.466551	0
0.5300	246.073	-2.6341	-7.25339	11.205	6.57706	-0.28337	121.718	-11.5019	-0.777586	0
0.5307	102.948	0.722252	-8.14987	13.3364	7.18521	-0.5925	112.261	-14.8444	1.04974	0
0.5313	-99.7074	-2.0393	-6.92739	12.1185	5.04542	-4.8688	82.6654	-21.8733	1.04974	0
0.5320	-213.524	-6.03293	-7.25339	8.76914	1.08116	-7.62522	66.7917	-23.9869	-0.777586	0.322186
0.5327	-219.945	-3.27138	-10.2688	7.85569	-0.135145	-6.10532	32.616	-16.6631	-0.155517	0
0.5333	-167.131	1.61445	-14.2623	7.85569	2.00465	-5.79619	-12.2409	-9.68325	2.29388	-0.322186
0.5340	-110.37	3.44132	-12.7138	9.68259	5.36075	-5.79619	-14.689	-7.22557	5.01543	0
0.5347	-102.741	-0.212427	-9.6576	10.2916	4.43726	-5.17793	25.5874	-10.8629	3.49914	0
0.5353	-112.815	-6.92513	-9.04636	8.76914	-0.450484	-5.48706	42.9813	-19.1207	-2.29388	0
0.5360	-106.099	-8.752	-9.04636	9.98708	-0.450484	-5.17793	6.67325	-25.2158	-4.1212	-0.322186
0.5367	-99.7074	-7.51992	-8.43512	10.9005	2.00465	-4.25054	-49.7927	-29.7871	-1.36077	-0.322186
0.5373	-92.6675	-7.22252	-6.64215	10.596	3.5363	-1.51989	-76.9398	-32.2447	1.36077	0
0.5380	-75.2887	-7.22252	-4.19719	11.205	5.36075	0.927391	-67.4827	-32.5397	3.81017	0
0.5387	-56.3487	-10.5789	-6.64215	7.24672	2.92814	-0.90163	-55.2814	-38.3398	1.36077	-0.322186
0.5393	-38.6458	-12.1083	-8.43512	3.28843	0.180193	-2.13815	-45.2123	-42.3212	-0.466551	0
0.5400	-24.9195	-9.68668	-5.70491	4.81085	2.6128	0.927391	-27.5025	-34.9973	3.49914	0
0.5407	-24.9195	-9.38928	-4.19719	4.50636	3.5363	2.44728	-9.49655	-27.9684	4.74327	0
0.5413	-33.7856	-8.752	-3.25995	3.8974	4.14445	4.2763	9.12142	-20.9394	4.74327	0
0.5420	-33.4616	-6.62773	-4.19719	3.8974	5.36075	5.51283	23.1589	-11.7969	4.74327	-0.322186
0.5427	-34.0802	-7.51992	-8.43512	0.213139	3.22096	3.6838	19.1905	-7.81542	1.36077	0.322186
0.5433	-32.2539	-7.85981	-6.92739	-1.0048	5.36075	6.41446	9.71373	-4.47297	1.98284	0.322186
0.5440	-10.8986	-7.22252	-2.64871	0.213139	6.8924	9.17087	7.58144	-1.42545	5.01543	0
0.5447	0.412379	-6.03293	-2.9747	-1.30928	3.82911	7.34185	5.15301	1.62207	5.01543	-0.644372
0.5453	-7.21663	-3.56878	-2.36346	-1.61377	2.92814	6.41446	0.572557	8.65103	6.88163	0
0.5460	-5.09583	-4.80085	-3.25995	-3.44067	0.180193	3.96717	-4.61994	9.24087	6.88163	0.322186
0.5467	10.1622	-7.85981	-4.80843	-5.87654	-2.88309	0.618261	-8.27246	3.44075	3.81017	0.322186
0.5473	31.223	-8.1572	-3.87119	-6.48551	-2.56776	0	-8.27246	3.44075	2.29388	0
0.5480	49.5444	-5.09825	-6.31615	-6.78999	-1.9596	-0.28337	-7.68016	12.2884	1.36077	-0.322186
0.5487	61.739	3.14392	-12.1026	-4.96309	0.180193	0.927391	-7.06812	25.1175	1.67181	0
0.5493	69.9866	10.7913	-19.1522	-4.35412	0.788346	0.927391	-6.75222	33.0803	2.29388	0
0.5500	67.2473	12.9156	-24.0014	-5.87654	-1.05864	-0.90163	-7.68016	33.9651	1.04974	0.322186
0.5507	6.80426	12.6182	-21.5564	-4.04964	-0.135145	-0.28337	-6.14018	31.5566	2.29388	0
0.5513	-61.8569	8.02975	-16.3812	-3.13619	0.180193	0	-4.61994	18.7275	3.1881	0
0.5520	-68.2487	-1.14711	-12.7138	-5.26757	-1.9596	-2.73065	-4.91609	0.0983071	0.155517	0
0.5527	-81.386	-5.09825	-8.76112	-5.87654	-0.450484	-3.03978	-4.32379	-9.97817	-1.36077	-0.322186
0.5533	-83.2122	-5.39565	-8.14987	-5.87654	0.473008	-3.34891	-3.0997	-13.9105	-1.04974	0
0.5540	-42.6223	-5.69305	-9.37236	-7.09448	-1.05864	-4.25054	-2.48766	-19.1207	-1.98284	0
0.5547	-42.3278	-3.56878	-8.43512	-6.18103	-0.743298	-2.42152	-1.26357	-20.6445	-0.466551	0
0.5553	-80.1783	-1.4445	-6.64215	-4.96309	-0.743298	-0.28337	0.572557	-17.3021	2.29388	0.322186
0.5560	-95.1123	-2.97398	-5.09367	-5.87654	-3.17591	-0.90163	0.256663	-17.8919	2.60491	0
0.5567	-80.7674	-5.09825	-5.09367	-5.87654	-5.31571	-1.82902	-0.0394867	-18.5309	1.67181	-0.322186
0.5573	-63.0646	-4.16357	-7.53863	-4.65861	-6.2392	-2.13815	0.256663	-14.2545	1.36077	0
0.5580	-51.1645	-2.97398	-8.76112	-2.8317	-6.84735	-2.42152	-0.0394867	-10.8629	0.466551	0
0.5587	-32.5485	-3.86617	-6.03091	-0.700313	-8.37899	-2.13815	-0.0394867	-10.568	-0.155517	0
0.5593	-13.9325	-6.03293	-2.64871	0.517623	-8.98715	-2.73065	0.868707	-10.2731	-1.04974	0
0.5600	1.3255	-6.33033	-0.529742	2.04004	-7.4555	-2.13815	1.79664	-8.74933	-0.777586	0
0.5607	15.6704	-7.22252	-0.814987	2.9535	-7.4555	-2.73065	1.79664	-10.8629	-1.98284	-0.322186
0.5613	24.8311	-6.92513	-4.48243	0.822107	-8.06366	-3.65804	1.48075	-12.7308	-3.1881	0
0.5620	29.6913	-2.6341	-8.76112	-0.700313	-6.55454	-2.73065	2.40869	-7.22557	-2.29388	0
0.5627	21.1492	0.382369	-12.7138	-3.13619	-6.55454	-3.96717	1.79664	1.03222	-3.1881	0
0.5633	8.63051	1.31705	-14.5475	-4.65861	-5.31571	-4.55967	1.1846	8.94595	-4.1212	0
0.5640	9.24907	0.722252	-12.1026	-4.04964	-1.66679	-2.42152	2.70484	11.4036	-1.98284	-0.322186
0.5647	5.89113	-2.97398	-7.25339	-3.13619	-1.35145	-2.13815	3.92893	5.30858	-1.98284	0
0.5653	0.706936	-5.69305	-4.19719	-2.52722	-1.66679	-2.13815	3.31688	-0.196614	-3.1881	0.322186
0.5660	3.44631	-7.85981	-5.41967	-3.13619	-2.56776	-3.34891	2.09279	-3.24413	-3.81017	0
0.5667	6.5097	-9.98408	-5.70491	-3.13619	-2.56776	-4.25054	1.79664	-6.58658	-4.1212	0
0.5673	7.12827	-9.98408	-1.14098	-1.30928	-0.135145	-2.13815	3.31688	-4.47297	-2.29388	0.322186
0.5680	8.63051	-9.38928	1.62997	-0.395829	0.180193	-1.82902	4.22508	1.91699	-2.29388	0.322186
0.5687	8.63051	-10.2815	0.692739	-2.52722	-1.9596	-4.55967	3.31688	6.19335	-5.32646	-0.322186
0.5693	2.53319	-11.5136	-0.814987	-4.04964	-3.49125	-6.38869	2.09279	6.83234	-7.46482	-0.322186
0.5700	-10.5746	-10.5789	-1.14098	-2.8317	-1.9596	-6.10532	2.70484	11.9935	-6.5706	0
0.5707	-34.0802	-7.22252	-1.42623	-1.0048	-0.743298	-4.55967	3.61303	17.2037	-4.1212	0
0.5713	-49.9568	-5.09825	-3.58594	-1.61377	-1.35145	-3.65804	3.31688	16.5647	-3.49914	0
0.5720	-52.6962	-5.39565	-4.48243	-1.91825	-0.743298	-3.96717	4.22508	19.0224	-2.91595	0
0.5727	-72.5198	-7.51992	-3.25995	-2.52722	-0.450484	-3.96717	3.92893	22.3649	-2.29388	0.322186
0.5733	-97.2626	-9.68668	-2.9747	-2.8317	-0.135145	-3.34891	1.48075	19.6123	-2.29388	0
0.5740	-105.186	-7.85981	-3.58594	-0.395829	1.68931	-2.13815	1.1846	17.7936	-2.29388	0
0.5747	-116.468	-5.09825	-4.19719	1.43107	3.82911	-0.90163	1.1846	18.0885	-1.67181	0
0.5753	-126.865	-6.92513	-4.48243	1.43107	2.6128	-2.42152	-0.35538	13.8122	-3.49914	-0.322186
0.5760	-108.25	-10.2815	-3.58594	1.12659	0.473008	-4.55967	-1.55972	8.3561	-5.94853	-0.644372
0.5767	-43.2409	-10.8763	-1.14098	2.9535	0.473008	-3.96717	-2.17177	11.4036	-5.6375	0
0.5773	53.8155	-9.38928	0.692739	5.11533	1.68931	-2.73065	-2.17177	20.2513	-5.05431	0
0.5780	132.55	-7.51992	1.62997	4.50636	0.473008	-2.73065	-2.78381	24.5276	-4.74327	-0.322186
0.5787	139.266	-7.85981	1.01873	2.9535	-1.66679	-4.25054	-4.32379	21.136	-5.6375	-0.322186
0.5793	74.8763	-7.85981	-1.14098	2.9535	-1.66679	-5.48706	-4.0079	17.7936	-7.15379	0
0.5800	4.68345	-4.50346	-4.48243	2.64901	-1.05864	-5.17793	-3.71175	15.68	-6.88163	0.322186
0.5807	-35.3173	-1.7419	-9.04636	1.73556	-1.05864	-4.55967	-4.61994	12.2884	-5.94853	0
0.5813	-45.3617	-2.0393	-9.37236	1.73556	-0.743298	-3.96717	-4.61994	8.94595	-5.05431	-0.322186
0.5820	-26.7457	-4.80085	-2.36346	3.8974	2.00465	-1.21076	-2.48766	7.71711	-1.36077	-0.322186
0.5827	-13.638	-12.7456	4.07494	2.64901	0.473008	-1.82902	-1.87562	1.32715	-0.466551	0
0.5833	-20.0298	-20.9453	8.02763	-0.700313	-3.49125	-4.25054	-4.32379	-7.22557	-2.91595	0
0.5840	-25.8326	-23.4095	11.3691	-0.395829	-2.88309	-3.96717	-4.61994	-5.70181	-2.29388	0
0.5847	-24.9195	-21.2852	11.6951	1.12659	-2.56776	-3.65804	-4.0079	1.03222	-0.777586	0
0.5853	-32.2539	-16.6968	9.25011	0.517623	-4.0994	-3.65804	-5.23199	5.30858	-0.777586	0
0.5860	-36.525	-14.2326	6.80515	-0.0913452	-4.0994	-3.65804	-5.84403	8.06118	-1.04974	0
0.5867	-20.9724	-13.6378	4.36018	-0.395829	-3.49125	-4.25054	-4.91609	11.1087	-0.466551	0
0.5873	2.23863	-8.752	0.0814987	-0.700313	-3.17591	-3.34891	-4.61994	16.2698	1.36077	0
0.5880	47.3941	-3.86617	-1.14098	-0.0913452	-1.9596	-0.90163	-3.71175	21.4801	3.1881	-0.322186
0.5887	106.6	-4.80085	1.91522	-1.0048	-1.05864	0.30913	-1.55972	22.3649	5.32646	0
0.5893	126.748	-5.39565	2.85246	-2.22273	-1.35145	-0.28337	-0.65153	22.0699	5.6375	0
0.5900	74.8763	-3.86617	-1.75222	-3.13619	-2.56776	-1.51989	-2.17177	20.5462	4.43224	0
0.5907	22.6809	-1.7419	-4.48243	-2.22273	-1.9596	-0.5925	-2.17177	18.0885	4.74327	0.322186
0.5913	12.9016	1.01965	-4.80843	-0.0913452	0.473008	0.927391	-1.26357	18.0885	5.6375	0
0.5920	-11.8117	0.722252	-5.41967	1.12659	-0.135145	0.30913	-2.17177	13.8122	5.32646	-0.322186
0.5927	-33.7856	-3.86617	-3.25995	2.04004	-2.27494	-0.5925	-3.71175	6.19335	4.74327	-0.322186
0.5933	-40.7961	-8.4546	-2.9747	2.64901	-2.27494	-1.51989	-4.0079	6.19335	3.81017	0
0.5940	-82.2991	-6.92513	-6.92739	3.28843	-0.743298	-0.5925	-3.0997	15.3851	4.1212	0
0.5947	-140.592	-2.6341	-9.6576	3.28843	-1.05864	-0.28337	-3.0997	23.8886	4.43224	0
0.5953	-133.876	-0.509825	-10.8801	1.73556	-3.17591	-2.13815	-4.32379	23.8886	1.98284	-0.322186
0.5960	-78.6466	1.31705	-9.6576	2.64901	-2.88309	-2.13815	-4.61994	21.4801	1.04974	-0.322186
0.5967	-68.5728	3.73872	-6.92739	5.41982	-0.743298	-1.51989	-3.71175	22.0699	2.60491	-0.322186
0.5973	-108.544	4.0786	-5.70491	5.7243	-0.450484	-1.51989	-3.39586	21.4801	3.1881	-0.322186
0.5980	-116.173	3.14392	-2.36346	6.02878	0.180193	-0.28337	-2.48766	17.7936	4.74327	-0.322186
0.5987	-62.1514	0.382369	0.407494	4.50636	-1.05864	-1.21076	-1.55972	13.2223	4.74327	0
0.5993	-25.2435	-2.97398	-0.814987	2.64901	-4.0994	-3.96717	-3.39586	9.58494	2.29388	0.322186
0.6000	-44.154	-2.3367	0.692739	4.81085	-2.27494	-2.13815	-3.39586	8.3561	3.81017	0
0.6007	-83.2122	-0.509825	1.62997	6.02878	-1.05864	-0.5925	-1.87562	6.48827	4.74327	0
0.6013	-115.555	-0.212427	-2.03747	3.59291	-3.17591	-2.42152	-2.78381	3.78482	2.91595	0
0.6020	-122.889	-2.0393	-5.09367	1.12659	-5.63104	-4.25054	-4.91609	-0.196614	1.36077	-0.322186
0.6027	-107.926	-4.80085	-4.48243	-1.0048	-5.92386	-5.17793	-5.84403	-2.0153	0.777586	0
0.6033	-89.9281	-2.97398	-0.814987	0.822107	-2.27494	-1.82902	-3.71175	4.96451	5.32646	0
0.6040	-95.4363	-2.6341	1.01873	2.64901	-0.743298	-0.28337	-1.55972	5.89843	8.39792	-0.322186
0.6047	-110.37	-4.80085	1.62997	2.34453	-1.66679	-1.21076	-1.26357	-0.196614	7.46482	-0.322186
0.6053	-87.4833	-3.56878	1.62997	2.04004	-1.35145	-0.5925	-1.26357	1.32715	8.39792	0
0.6060	-59.1175	-3.56878	-1.14098	-0.0913452	-3.17591	-1.82902	-2.78381	1.91699	6.25956	0.322186
0.6067	-63.0646	-3.86617	-2.03747	-0.0913452	-3.49125	-2.42152	-3.39586	1.32715	5.01543	0
0.6073	-66.4225	-1.4445	-0.203747	2.64901	-1.05864	-0.28337	-2.17177	7.12727	7.77586	0
0.6080	-64.8908	0.722252	-0.814987	4.20188	-0.135145	0.30913	-2.17177	11.6985	8.70896	-0.322186
0.6087	-98.4702	1.01965	-2.36346	3.59291	-0.743298	-0.28337	-2.17177	11.4036	7.46482	0
0.6093	-136.939	-0.509825	-2.64871	1.12659	-2.27494	-1.51989	-2.78381	12.6325	5.94853	0.322186
0.6100	-128.692	1.01965	-2.64871	0.517623	-3.49125	-2.73065	-3.71175	19.9563	5.94853	0
0.6107	-97.2626	4.6734	-3.87119	1.73556	-2.88309	-2.13815	-3.39586	26.9361	7.15379	0
0.6113	-63.9777	5.90548	-4.80843	2.34453	-1.9596	-1.21076	-2.78381	27.8701	7.77586	0
0.6120	-35.9064	4.6734	-5.09367	2.64901	-1.9596	-1.51989	-3.0997	24.2327	7.77586	0
0.6127	-27.0697	2.20924	-6.92739	1.12659	-4.0994	-3.34891	-4.0079	18.0885	5.94853	-0.322186
0.6133	-27.9829	1.01965	-6.31615	0.517623	-4.41474	-3.03978	-2.78381	15.68	5.94853	-0.322186
0.6140	-32.8725	1.31705	-4.19719	0.517623	-2.56776	-1.21076	-2.48766	16.9088	8.70896	0
0.6147	-39.5884	1.91184	-5.09367	-0.0913452	-2.56776	-1.21076	-3.39586	16.9088	9.01999	0
0.6153	-41.4146	3.14392	-5.41967	0.517623	-1.9596	-0.90163	-2.48766	19.0224	9.91422	0
0.6160	-42.9463	3.14392	-4.80843	-0.0913452	-2.56776	-0.5925	-1.87562	21.136	10.5363	0.322186
0.6167	-41.0906	1.01965	-5.41967	-1.91825	-3.80659	-0.90163	-2.78381	19.3173	9.01999	0
0.6173	-24.6249	0.722252	-4.19719	-1.61377	-2.27494	0.30913	-2.48766	21.775	10.2253	-0.322186
0.6180	-11.1931	1.31705	-2.36346	-0.395829	-1.9596	0.927391	-1.26357	26.3463	12.0526	0
0.6187	-21.5615	0.0849709	-1.42623	-1.0048	-2.27494	0.927391	-1.55972	25.1175	12.0526	0
0.6193	-35.3173	-1.7419	-1.42623	-2.52722	-2.56776	0.927391	-2.17177	21.775	12.0526	-0.322186
0.6200	-29.5146	-2.0393	-0.814987	-2.8317	-1.9596	1.54565	-1.55972	21.136	12.6746	0
0.6207	-22.7987	-0.212427	0.0814987	-2.22273	-1.05864	2.44728	-0.0394867	21.775	13.8799	0
0.6213	-39.5884	0.722252	-1.14098	-2.52722	-1.05864	2.13815	-0.35538	22.0699	13.2578	0
0.6220	-48.4251	1.31705	-1.42623	-2.22273	-0.135145	2.75641	-0.65153	23.8886	13.5689	0
0.6227	-43.5355	1.61445	-1.75222	-2.8317	-0.743298	2.44728	-0.967424	24.8225	13.2578	0
0.6233	-49.0437	1.61445	-4.48243	-4.35412	-2.88309	0.30913	-1.55972	25.4124	11.1195	0
0.6240	-34.9933	4.0786	-4.48243	-3.13619	-1.35145	0.927391	-1.26357	30.9176	11.4305	0
0.6247	-0.500746	6.79767	-3.87119	-1.91825	-0.450484	1.82902	-0.35538	36.1279	13.2578	0.322186
0.6253	32.1361	6.20287	-4.19719	-2.22273	-1.66679	1.23652	-0.35538	36.1279	12.6746	0.322186
0.6260	40.3837	2.84652	-1.42623	-2.22273	-1.9596	1.54565	-0.65153	32.7363	11.7415	0.322186
0.6267	22.9754	-1.4445	1.30398	-3.13619	-2.88309	0.30913	-2.17177	27.2802	10.2253	0
0.6273	21.1492	-3.56878	1.91522	-3.13619	-3.49125	-0.5925	-2.17177	22.3649	9.91422	-0.322186
0.6280	35.1995	-2.0393	1.91522	-2.22273	-2.27494	0.618261	-0.967424	20.8411	11.1195	0
0.6287	37.3203	-1.14711	0.0814987	-3.13619	-2.56776	0.30913	-1.87562	18.7275	10.2253	0
0.6293	-1.41387	0.382369	-3.87119	-4.35412	-3.49125	-0.90163	-2.78381	15.9749	9.01999	0
0.6300	-75.2887	3.73872	-6.92739	-4.65861	-3.49125	-0.5925	-2.17177	17.2037	9.91422	0.322186
0.6307	-136.939	5.26819	-6.92739	-4.65861	-2.56776	0	-2.17177	17.2037	10.8473	-0.322186
0.6313	-162.242	4.9708	-3.58594	-4.65861	-1.66679	0.927391	-1.26357	14.4511	12.3636	-0.322186
0.6320	-127.16	1.91184	-0.814987	-5.87654	-1.9596	1.54565	-0.967424	11.1087	12.6746	0
0.6327	-54.8464	-1.4445	1.30398	-7.09448	-3.17591	1.54565	-2.17177	8.94595	12.3636	0
0.6333	-20.6484	-4.80085	4.36018	-8.00793	-3.17591	0.927391	-2.78381	7.71711	12.9857	0
0.6340	-18.8222	-9.38928	7.41639	-8.6169	-3.80659	0	-2.48766	4.07975	12.6746	-0.322186
0.6347	-5.39038	-10.5789	10.1466	-8.31241	-2.56776	0.927391	-0.967424	5.89843	14.502	0
0.6353	18.7043	-9.38928	9.53535	-9.22587	-1.66679	2.75641	-1.26357	10.1748	14.813	0
0.6360	50.4575	-8.4546	5.90866	-10.1393	-2.56776	1.82902	-2.17177	11.9935	13.5689	-0.322186
0.6367	72.1074	-4.80085	4.07494	-8.6169	-2.27494	2.13815	-0.967424	18.7275	15.7072	0
0.6373	51.9892	-1.4445	0.0814987	-8.6169	-1.66679	3.06554	-0.35538	26.3463	16.9514	0
0.6380	25.7442	0.0849709	-3.87119	-10.1393	-1.66679	3.06554	-0.65153	27.8701	16.6403	0
0.6387	10.1622	2.54913	-3.87119	-9.22587	-0.450484	4.2763	0.572557	28.165	17.8456	0
0.6393	-6.00895	2.54913	-2.9747	-8.31241	-0.450484	4.89456	0.256663	27.8701	17.2235	0
0.6400	12.3125	0.0849709	-3.25995	-9.53035	-1.66679	3.6838	-0.35538	24.8225	15.3962	0.322186
0.6407	48.3073	-2.3367	-2.9747	-10.1393	-1.9596	3.37467	-0.35538	22.3649	13.8799	0
0.6413	22.9754	-0.212427	-2.03747	-8.31241	-0.743298	4.89456	0.868707	26.0514	14.502	0
0.6420	-69.4859	2.20924	-2.9747	-8.00793	-0.450484	4.89456	1.48075	31.5566	13.8799	0
0.6427	-127.16	2.54913	-4.48243	-10.1393	-1.35145	3.37467	0.572557	34.899	12.9857	0.322186
0.6433	-113.728	4.376	-4.19719	-10.1393	-1.05864	4.58543	-0.0394867	38.5364	14.502	0.322186
0.6440	-90.2227	5.26819	-3.58594	-8.31241	-0.135145	5.20369	0.868707	41.289	14.813	0.322186
0.6447	-89.9281	3.44132	-3.87119	-8.31241	-1.9596	3.96717	-0.0394867	38.8805	14.813	0
0.6453	-102.741	2.84652	-4.48243	-9.53035	-4.70755	3.37467	-1.87562	34.899	16.0183	0
0.6460	-98.7648	2.54913	-5.09367	-9.83483	-4.0994	2.44728	-1.26357	34.899	15.7072	0.322186
0.6467	-86.2756	1.61445	-4.19719	-8.31241	-1.9596	2.75641	0.256663	35.8329	15.3962	0.322186
0.6473	-78.6466	1.91184	-1.75222	-6.48551	-1.35145	4.58543	1.1846	36.1279	15.3962	0
0.6480	-39.5884	2.54913	-2.9747	-6.48551	-2.56776	3.96717	1.1846	36.4228	13.2578	0
0.6487	23.8885	3.14392	-3.58594	-6.18103	-2.27494	3.96717	1.1846	36.7177	11.4305	0
0.6493	40.6783	3.14392	-2.64871	-5.87654	-2.56776	3.6838	1.1846	35.4889	8.39792	-0.322186
0.6500	11.9885	1.91184	-3.87119	-7.09448	-4.41474	1.82902	0.572557	31.8515	-15.7072	0
0.6507	-10.5746	2.20924	-2.64871	-3.74515	-3.17591	2.44728	0.868707	29.6887	-58.4356	0.322186
0.6513	-20.6484	1.91184	-1.42623	-0.395829	-2.56776	3.06554	1.79664	26.3463	-93.8546	0
0.6520	-27.6589	0.0849709	-2.9747	-1.61377	-2.56776	1.54565	1.1846	22.3649	-149.685	0
0.6527	-28.6014	-0.509825	-2.9747	-7.39896	-1.66679	0.618261	0.572557	21.136	-183.86	0.322186
0.6533	-26.1566	0.0849709	-3.25995	-18.0864	-1.35145	1.23652	0.868707	20.5462	-112.439	0.322186
0.6540	-21.5615	1.91184	-4.48243	-22.9581	0.473008	1.82902	2.40869	21.136	-64.5396	0.322186
0.6547	-16.0828	1.91184	-4.48243	-23.2626	2.00465	1.82902	2.40869	20.8411	-77.9918	0
0.6553	-13.9325	1.61445	-4.19719	-23.5671	1.3965	1.23652	2.09279	20.5462	-25.1938	0.322186
0.6560	-11.8117	1.31705	-3.58594	-18.9998	-0.743298	0.927391	1.79664	20.8411	24.2607	0
0.6567	-6.62752	-0.212427	-3.58594	-12.3012	-3.80659	-0.5925	-0.0394867	19.0224	-16.3293	-0.322186
0.6573	-1.11931	-0.212427	-2.03747	-3.44067	-5.31571	0	0.256663	18.7275	-49.8821	0
0.6580	2.23863	-0.212427	-1.42623	-0.0913452	-6.55454	1.54565	0.868707	19.3173	60.2629	0
0.6587	3.77032	-1.14711	-2.9747	-4.35412	-8.37899	1.82902	-0.65153	18.7275	177.756	-0.322186
0.6593	9.24907	-0.509825	-2.36346	-3.13619	-5.31571	2.44728	-0.65153	19.3173	48.6769	0
0.6600	13.8442	-0.212427	-1.42623	2.64901	-0.450484	1.82902	-1.26357	19.3173	-258.625	-0.322186
0.6607	10.7808	-0.807223	-1.42623	4.81085	2.6128	0	-2.17177	18.4326	-492.406	-0.322186
0.6613	7.71738	-1.7419	-1.14098	-1.91825	3.5363	-1.51989	-2.17177	17.7936	-467.99	-0.322186
0.6620	10.7808	-1.7419	-1.14098	-16.8684	2.6128	-1.51989	-2.17177	17.2037	-290.7	0
0.6627	11.3993	1.01965	-3.58594	-27.5558	0.788346	-1.51989	-1.87562	17.2037	-167.997	0.322186
0.6633	13.8442	3.14392	-6.64215	-24.8154	-2.56776	-2.13815	-1.87562	16.9088	-48.3658	0.322186
0.6640	21.4732	3.14392	-4.80843	-19.3043	-4.41474	-1.51989	-1.55972	17.4987	139.615	-0.322186
0.6647	21.7677	2.84652	-2.03747	-19.9133	-6.84735	-1.51989	-2.78381	17.4987	264.146	0
0.6653	11.0753	2.20924	-2.9747	-18.0864	-11.4198	-1.82902	-4.91609	15.68	256.176	0
0.6660	4.68345	1.91184	-2.9747	-6.78999	-13.2667	-0.90163	-4.61994	14.7461	194.863	-0.322186
0.6667	5.59657	2.84652	-2.03747	4.50636	-12.0279	-0.28337	-4.61994	14.7461	128.34	-0.322186
0.6673	3.15175	4.376	-2.03747	10.596	-11.1269	0.927391	-5.23199	15.68	91.0942	0.322186
0.6680	2.8572	6.20287	-2.03747	14.8588	-9.27996	3.6838	-3.71175	18.7275	63.0233	0.322186
0.6687	10.7808	6.20287	-2.9747	21.5879	-8.06366	3.37467	-2.48766	18.0885	12.3636	0
0.6693	21.4732	4.0786	-3.87119	31.6663	-7.4555	0.927391	-3.39586	13.8122	12.6746	0
0.6700	30.6044	3.14392	-3.58594	32.2753	-5.31571	0.927391	-4.32379	12.9274	74.9204	0
0.6707	31.5175	2.20924	-3.87119	35.3201	-5.31571	0.30913	-4.61994	11.1087	127.096	0
0.6713	26.3334	0.722252	-3.25995	46.312	-5.02289	-1.51989	-4.91609	7.71711	136.272	0
0.6720	20.8546	0.382369	-2.03747	29.2	-4.70755	-2.13815	-4.61994	7.42219	16.9514	0
0.6727	15.6704	-0.509825	-2.9747	-13.5191	-5.92386	-3.34891	-4.32379	6.83234	-173.207	0
0.6733	13.8442	-0.807223	-3.87119	-29.6872	-5.31571	-3.65804	-3.39586	6.83234	-247.972	0
0.6740	13.5201	0.722252	-3.87119	-7.09448	-5.31571	-2.73065	-2.48766	8.06118	-254.348	0
0.6747	11.6939	1.31705	-4.19719	9.68259	-8.06366	-2.42152	-2.17177	7.71711	-186.932	0
0.6753	10.7808	1.61445	-4.19719	-11.0832	-8.06366	-0.90163	-0.967424	7.71711	66.678	0.322186
0.6760	12.3125	2.84652	-4.19719	-39.7656	-6.55454	0.618261	0.868707	8.3561	214.069	0
0.6767	12.607	3.73872	-5.09367	-43.1149	-7.4555	0.927391	0.868707	8.65103	147.547	0
0.6773	14.1387	4.376	-4.48243	-32.732	-7.16269	1.54565	1.1846	8.65103	139.304	0
0.6780	13.5201	3.73872	-3.58594	-13.8236	-7.16269	0.927391	0.868707	7.12727	138.099	0
0.6787	11.3993	3.73872	-2.64871	3.8974	-6.84735	-0.28337	-0.0394867	7.42219	24.8827	0
0.6793	8.63051	4.0786	-2.03747	2.9535	-5.63104	-0.28337	-1.87562	7.12727	-111.545	0
0.6800	3.44631	3.73872	-2.64871	1.43107	-4.41474	-0.5925	-3.71175	6.83234	-163.721	0
0.6807	1.62006	2.84652	-3.58594	7.85569	-3.49125	-2.13815	-4.91609	6.19335	-119.165	0
0.6813	2.23863	1.91184	-4.19719	-1.91825	-4.41474	-3.03978	-5.52814	5.30858	8.08689	0
0.6820	0.412379	3.73872	-3.87119	-28.4693	-5.02289	-1.82902	-4.91609	6.83234	135.961	0
0.6827	-4.1827	4.0786	-4.19719	-51.9754	-6.2392	-2.13815	-5.52814	6.83234	162.204	0.322186
0.6833	-6.62752	2.54913	-4.80843	-64.7942	-7.77084	-3.65804	-6.75222	4.66959	153.029	0.322186
0.6840	-1.73788	3.14392	-4.19719	-51.6709	-7.16269	-3.34891	-5.23199	4.96451	100.853	0
0.6847	9.54363	2.84652	-5.09367	-8.00793	-8.06366	-3.65804	-4.91609	3.44075	-64.5396	0
0.6853	27.2465	3.44132	-4.48243	38.365	-6.55454	-2.73065	-4.0079	4.07975	-244.279	0.322186
0.6860	35.1995	4.9708	-3.87119	67.6563	-2.27494	-2.13815	-2.78381	6.48827	-381.639	0
0.6867	27.5705	5.26819	-6.03091	82.911	1.68931	-3.96717	-3.39586	5.60351	-536.34	-0.322186
0.6873	19.6175	4.6734	-7.25339	106.722	5.04542	-4.25054	-3.71175	4.66959	-583.345	0
0.6880	13.2256	4.0786	-7.25339	157.083	5.65357	-4.55967	-3.0997	3.44075	-419.469	0.322186
0.6887	8.95452	2.84652	-7.25339	213.839	3.5363	-4.8688	-2.78381	1.32715	-312.667	-0.322186
0.6893	8.63051	2.20924	-7.25339	243.739	1.3965	-4.25054	-1.55972	0.737303	-276.626	-0.322186
0.6900	7.42282	2.20924	-7.25339	248.946	-1.9596	-2.73065	0.572557	0.737303	-117.649	0
0.6907	3.44631	2.20924	-6.92739	230.312	-6.2392	-0.5925	0.868707	-1.42545	-9.29215	0
0.6913	3.77032	3.73872	-5.70491	183.33	-8.67181	0.927391	2.40869	-0.196614	32.192	0.322186
0.6920	7.71738	4.9708	2.85246	154.343	-10.5188	2.44728	5.44916	4.37467	234.209	0.322186
0.6927	8.63051	5.26819	13.5288	168.684	-12.9514	3.06554	5.76506	5.89843	509.202	0
0.6933	3.44631	4.376	11.9803	183.025	-15.6994	0	3.92893	2.55598	565.655	0
0.6940	1.00149	4.6734	3.4637	85.6818	-15.0912	-1.51989	4.83712	0.0983071	425.262	-0.644372
0.6947	1.91462	6.50027	-3.25995	-179.524	-10.2035	1.54565	7.58144	3.44075	334.012	-0.644372
0.6953	-6.00895	6.50027	-9.9836	-412.667	-7.4555	1.82902	6.06121	5.89843	327.597	0
0.6960	-9.3669	6.20287	-14.2623	-429.17	-6.55454	1.23652	3.61303	4.66959	304.114	0
0.6967	8.95452	5.90548	-17.6037	-304.027	-6.2392	0.618261	2.40869	3.44075	226.899	0
0.6973	22.3863	4.6734	-21.5564	-185.644	-7.4555	-0.90163	0.868707	2.55598	141.443	0
0.6980	18.7043	5.90548	-16.9925	-101.698	-5.92386	-1.51989	0.572557	4.07975	84.6791	0
0.6987	11.9885	8.62454	3.4637	-18.9998	-2.56776	-1.21076	1.1846	6.19335	-23.0554	0
0.6993	2.23863	8.92194	20.8229	35.3201	-2.56776	-2.42152	0.256663	7.42219	-189.381	0.322186
0.7000	0.706936	9.26183	13.814	41.4098	-3.49125	-4.25054	-1.55972	7.71711	-284.285	0
0.7007	15.3464	11.6835	0.0814987	32.5798	-2.56776	-4.8688	-2.78381	7.71711	-327.597	-0.322186
0.7013	31.8416	15.0398	-4.80843	26.4597	-2.27494	-5.48706	-3.0997	8.65103	-368.498	-0.322186
0.7020	13.2256	19.0335	-1.42623	7.24672	-1.9596	-5.17793	-2.78381	11.6985	-328.53	0
0.7027	-56.3487	20.5205	4.36018	-21.7402	-2.27494	-5.17793	-2.48766	14.1562	-152.446	0.322186
0.7033	-93.286	16.5693	3.4637	-35.7769	-3.49125	-7.62522	-3.71175	14.4511	62.4012	0.322186
0.7040	-42.9463	7.43495	9.25011	-18.9998	-2.27494	-8.52685	-4.91609	11.9935	134.134	0
0.7047	32.4601	-2.97398	23.8791	5.11533	-0.135145	-6.10532	-4.91609	8.65103	119.476	0.322186
0.7053	42.8285	-7.85981	31.214	-34.8634	0.180193	-4.55967	-4.0079	5.89843	123.753	0
0.7060	-15.7588	-6.33033	18.0927	-90.4013	1.08116	-5.17793	-4.91609	3.44075	42.2618	0
0.7067	-56.0541	-0.807223	-13.325	-70.8839	0.473008	-7.31609	-5.84403	-0.196614	-27.3321	0
0.7073	-40.5015	4.9708	-34.1072	-30.2962	-4.41474	-8.83598	-5.84403	-2.35937	28.8484	0
0.7080	-10.5746	7.73235	-26.1611	-1.61377	-10.2035	-9.14511	-3.0997	-1.13053	-129.546	0
0.7087	2.53319	8.92194	-10.5948	16.3812	-9.91064	-8.52685	0.572557	2.26106	-383.466	0
0.7093	0.706936	9.85662	-9.6576	5.41982	-6.2392	-7.31609	2.09279	5.30858	-327.286	0
0.7100	-7.21663	10.154	-14.8735	-14.1281	-7.4555	-6.69782	1.1846	5.30858	-217.141	-0.322186
0.7107	-16.3773	8.92194	-18.541	-29.0782	-10.8116	-8.21772	0.256663	2.26106	-166.481	0
0.7113	-25.5381	7.09507	-19.1522	-44.6374	-9.91064	-10.3559	0.868707	0.0983071	34.9525	0
0.7120	-42.3278	5.56559	-16.096	-54.4113	-6.84735	-9.14511	2.70484	2.55598	254.348	0
0.7127	-61.2383	1.91184	-11.8173	-41.288	-5.31571	-6.38869	4.83712	8.06118	325.458	0
0.7133	-71.6067	-0.807223	-6.64215	0.822107	-1.66679	-4.55967	6.9694	15.68	274.488	0
0.7140	-82.9177	1.61445	-3.58594	46.921	1.08116	-4.55967	7.89734	19.0224	136.583	-0.322186
0.7147	-88.3964	4.6734	-6.92739	71.6451	2.00465	-4.8688	10.3258	15.9749	-43.7781	-0.322186
0.7153	-73.4624	3.73872	-18.215	71.9496	6.8924	-1.82902	12.1619	14.7461	-213.486	-0.322186
0.7160	-56.9672	0.382369	-31.3363	40.1919	10.5413	-2.73065	7.28529	14.4511	-298.904	0
0.7167	-30.4277	-0.509825	-40.7901	-16.5639	8.40152	-7.93435	1.1846	12.2884	-237.902	0
0.7173	16.2595	5.56559	-53.9114	-68.7525	6.8924	-9.45424	-0.967424	14.1562	-6.25956	0
0.7180	87.3655	10.7913	-74.3676	-91.9542	6.28425	-8.21772	-1.55972	17.4987	200.034	0
0.7187	192.669	9.26183	-81.9877	-83.7027	5.65357	-6.69782	-0.0394867	20.2513	99.3366	0.322186
0.7193	248.812	6.50027	-68.8664	-54.1068	4.43726	-6.69782	1.1846	17.7936	-98.4035	0
0.7200	210.372	5.90548	-32.2735	-16.8684	3.22096	-6.69782	0.256663	10.4697	-120.681	-0.322186
0.7207	123.684	17.8014	92.8678	8.16017	8.71686	-2.42152	1.1846	11.9935	-74.9204	0
0.7213	-5.09583	35.4753	274.447	12.4229	13.6046	-0.28337	2.70484	21.775	-40.7455	0.322186
0.7220	-179.031	45.247	390.705	11.205	12.073	-1.21076	0.572557	30.3277	-70.0216	0.322186
0.7227	-323.07	42.8253	445.024	-12.9101	8.71686	-2.73065	-2.48766	35.8329	-155.789	0
0.7233	-362.157	28.1678	431.291	-65.0987	2.00465	-8.52685	-6.14018	34.6041	-149.685	-0.322186
0.7240	-300.183	24.2167	343.11	-94.0856	-2.56776	-10.9741	-8.58835	33.3753	-23.6386	0
0.7247	-162.86	34.5831	230.193	-85.2251	-1.66679	-6.38869	-6.45607	38.8805	79.1971	0
0.7253	-49.3382	37.6421	26.6501	-56.8472	-0.743298	-3.34891	-4.91609	41.5839	24.5717	-0.322186
0.7260	-2.03244	28.7626	-209.248	-11.6922	-0.743298	-4.25054	-1.87562	35.8329	-163.721	-0.644372
0.7267	30.9284	11.0887	-237.65	31.0574	-0.450484	-7.00696	1.79664	26.6412	-169.514	-0.322186
0.7273	40.6783	-13.6378	-126.242	69.7877	0.788346	-10.665	-0.0394867	21.136	171.341	0
0.7280	45.5679	-37.1323	-81.7025	144.569	4.14445	-13.4214	-0.65153	16.9088	300.459	0.322186
0.7287	47.0996	-35.6028	-61.8576	211.099	5.65357	-14.323	0.868707	6.19335	91.7162	0
0.7293	13.2256	-13.6378	-36.2262	208.358	3.5363	-13.7305	-1.87562	-6.29166	122.509	0
0.7300	-16.3773	-4.16357	-89.6486	146.7	2.29747	-13.4214	-4.91609	-11.7969	252.21	0.322186
0.7307	-22.1801	0.382369	-181.498	64.0025	1.08116	-10.3559	-4.61994	-13.6155	176.24	0
0.7313	-22.4747	23.8768	-205.295	39.8874	-3.49125	3.37467	-2.48766	-15.1393	-13.5689	0
0.7320	-19.7353	33.3511	-185.776	68.5698	-8.06366	18.316	0.256663	-11.7969	-208.898	0
0.7327	-19.4407	19.0335	-168.376	51.4883	-11.7351	21.6649	0.572557	-3.88313	-168.93	0.322186
0.7333	-20.9724	45.247	-168.376	5.7243	-15.384	19.8359	-1.26357	4.07975	241.246	0.322186
0.7340	-16.0828	96.5269	-164.709	38.6695	-18.132	18.6251	-3.0997	9.87987	677.044	0.322186
0.7347	-9.98547	109.952	-98.7765	106.417	-19.0555	18.316	-4.0079	14.7461	680.076	0.322186
0.7353	-9.66145	95.2948	-31.051	103.068	-20.8799	18.316	-3.0997	18.7275	403.606	0
0.7360	-14.8456	73.3299	-28.6061	77.7348	-21.1953	15.2762	-0.967424	15.3851	224.761	0
0.7367	-21.267	29.1025	-39.5676	98.8051	-16.9157	11.6181	1.1846	8.65103	156.1	0
0.7373	-24.9195	-24.3017	-48.125	99.7185	-11.1269	12.2106	2.40869	7.71711	118.271	0
0.7380	-26.1566	-42.9528	-70.0889	24.9372	-4.41474	13.138	1.79664	9.58494	133.2	0
0.7387	-25.8326	-39.5964	-74.9789	-59.283	5.65357	13.4472	1.48075	10.4697	173.79	0
0.7393	-23.0932	-45.3744	-46.9025	-113.603	17.8617	15.5853	3.00099	14.1562	149.996	0
0.7400	-19.7353	-58.5024	0.407494	-103.525	26.4209	12.8289	2.40869	19.0224	75.2314	0.322186
0.7407	-22.1801	-74.0521	34.8815	-10.7787	31.3086	0.927391	-0.967424	19.3173	21.5002	0.322186
0.7413	-26.4512	-71.9278	27.2613	70.7316	40.7688	-9.76337	-3.71175	20.5462	17.5346	0
0.7420	-27.3643	-54.8487	-0.203747	96.0343	45.9493	-14.6322	-4.61994	24.5276	124.958	-0.322186
0.7427	-27.9829	-53.3192	-4.48243	90.858	42.886	-20.7375	-4.91609	26.6412	254.659	0
0.7433	-28.896	-18.821	8.63887	94.8163	39.5299	-37.5336	-4.61994	30.3277	175.929	0.322186
0.7440	-32.8725	44.0574	-2.03747	109.158	32.8177	-52.4749	-5.23199	31.5566	-61.8181	0
0.7447	-38.3513	-24.939	-27.6688	78.3437	25.2046	-48.8168	-5.52814	28.804	-223.556	0
0.7453	-40.5015	-149.124	-37.7339	23.7193	18.7852	-38.4352	-4.32379	29.0989	-283.974	0
0.7460	-40.7961	-121.083	-42.9498	-12.9101	12.073	-31.7374	-3.0997	27.8701	-260.18	0.322186
0.7467	-39.5884	-37.7696	-35.0037	-24.8154	8.71686	-24.0864	-2.78381	16.2698	-123.442	0.322186
0.7473	-38.9698	-17.9289	11.0838	5.11533	1.3965	-18.0068	-2.78381	-5.99673	-104.507	0
0.7480	-42.9463	-13.9352	67.2365	69.7877	-6.55454	-17.6977	-4.0079	-18.5309	-323.048	0
0.7487	-44.7726	-24.0043	103.259	134.491	-4.0994	-18.5993	-5.23199	-4.7679	-569.931	0
0.7493	-43.5355	-121.678	112.713	141.22	2.92814	-18.0068	-4.61994	11.6985	-691.701	-0.322186
0.7500	-49.0437	-186.978	93.7643	101.241	3.5363	-15.2504	-4.91609	3.78482	-564.099	0
0.7507	-57.5858	-92.0659	82.8027	55.4465	1.08116	-12.494	-4.0079	-9.97817	-232.692	0
0.7513	-54.5224	5.26819	69.6814	-36.6903	5.65357	-11.9015	1.1846	-8.15949	-58.7466	0
0.7520	-44.154	53.1918	-1.14098	-159.702	16.9607	-9.14511	5.15301	-0.196614	-59.0576	-0.322186
0.7527	-40.7961	81.572	-64.3025	-234.757	22.4566	-5.17793	2.40869	1.32715	136.855	0
0.7533	-44.154	50.1328	-51.4665	-240.268	16.0372	-4.25054	-2.17177	-8.45441	334.323	-0.322186
0.7540	-45.0672	15.3372	-33.496	-217.676	1.3965	-0.28337	-0.0394867	-16.0732	241.557	-0.644372
0.7547	-45.3617	16.2719	-41.1161	-220.112	-16.6228	5.20369	3.00099	-10.8629	101.164	-0.322186
0.7553	-49.9568	13.8078	-35.615	-192.952	-30.9482	5.20369	-1.26357	-3.24413	45.3332	0
0.7560	-53.6093	-1.4445	-19.4375	-78.5264	-41.94	1.82902	-6.14018	-4.47297	63.9175	0
0.7567	-60.0306	-12.4057	-19.7634	56.36	-54.4635	-1.21076	-7.97631	-9.04426	173.168	0
0.7573	-74.0515	-10.5789	-34.3925	140.915	-59.644	-0.90163	-6.14018	-7.22557	233.315	0
0.7580	-79.2357	2.84652	-36.8374	158.301	-52.0083	0	-0.35538	-7.52049	189.964	0
0.7587	-64.5962	13.5104	-20.0487	112.233	-40.4084	-3.96717	2.70484	-10.568	182.033	0
0.7593	-39.883	6.20287	5.58266	-18.3908	-30.3401	-7.31609	5.44916	-5.06282	244.279	0
0.7600	-7.21663	-9.38928	26.3241	-159.702	-20.8799	-7.31609	7.28529	5.30858	297.388	0.322186
0.7607	43.1231	-20.3505	31.54	-199.985	-5.92386	-6.10532	6.06121	11.1087	320.91	0.322186
0.7613	97.7633	-42.9528	28.7691	-206.075	15.1137	-2.73065	7.58144	13.5172	339.183	0
0.7620	145.982	-63.0909	22.6567	-246.054	30.6779	5.51283	10.9378	14.1562	351.119	0
0.7627	201.212	-71.6304	15.3625	-248.185	42.886	13.7305	8.50938	11.1087	319.665	0
0.7633	265.896	-51.195	7.41639	-166.096	59.6891	15.8687	0.572557	10.7646	249.799	0.322186
0.7640	291.847	22.6872	-13.651	-48.9001	72.7981	14.3488	-6.75222	15.68	193.036	0.322186
0.7647	213.112	65.3851	-35.9002	25.8507	76.4696	15.2762	-9.49655	24.8225	156.722	0
0.7653	58.9997	38.8317	-29.8285	42.9322	80.7267	17.1052	-7.68016	31.2125	142.376	0.322186
0.7660	-85.3625	8.32715	-11.2061	48.7479	81.6501	17.1052	-6.75222	27.2802	139.615	0
0.7667	-131.431	5.26819	-2.64871	53.9241	72.19	30.2175	-7.36427	23.2988	152.446	0
0.7673	-46.8934	27.573	1.01873	63.0891	50.5217	55.5404	-6.75222	23.5937	191.791	0.322186
0.7680	23.8885	51.0675	3.74894	111.319	20.3168	65.9221	-6.14018	19.3173	163.099	0
0.7687	-6.30351	27.573	7.09039	203.152	3.5363	72.6456	-4.32379	14.4511	7.15379	0
0.7693	-12.1063	-20.9453	6.1939	224.831	-0.743298	87.5869	-1.87562	11.6985	-197.896	0.322186
0.7700	47.7182	-18.821	2.52646	107.331	-3.17591	97.9686	-1.26357	9.24087	-319.354	0
0.7707	73.0206	13.213	2.52646	42.3233	2.6128	107.732	-0.0394867	2.85091	-292.8	0
0.7713	16.2595	25.7462	2.52646	136.926	8.40152	109.87	0.256663	-18.8258	-204.311	0
0.7720	-87.4833	26.6384	4.07494	204.37	12.3883	101.627	2.40869	-37.1109	-208.276	0
0.7727	-197.647	27.8704	5.58266	151.907	18.177	79.6526	10.3258	-30.721	-308.39	0
0.7733	-306.309	26.0436	0.0814987	85.9863	28.5607	23.2105	18.5785	-18.1868	-341.049	0
0.7740	-414.029	20.5205	-2.36346	-41.288	40.1381	-51.5732	25.2912	-15.7783	-253.143	-0.322186
0.7747	-447.608	12.9156	1.91522	-244.836	18.177	-98.5611	23.771	-18.1868	-117.649	0.322186
0.7753	-339.565	3.14392	6.80515	-311.061	-28.5156	-94.5939	12.4778	-24.9209	42.8838	0.322186
0.7760	-172.316	-5.69305	12.5916	-245.749	-56.6033	-64.0673	4.22508	-34.3583	247.661	0
0.7767	-89.3095	-11.811	16.8702	-204.552	-68.7888	-49.7442	-2.17177	-34.3583	391.981	0
0.7773	-82.9177	-12.1083	18.704	-169.445	-68.496	-45.4679	-7.97631	-13.9105	377.673	0.322186
0.7780	-49.6328	-11.5136	19.3152	-109.949	-53.54	-37.2244	-8.8845	3.44075	285.802	0
0.7787	-4.77182	-12.7456	18.4187	-80.6578	-25.7677	-36.9153	-6.45607	-3.53906	183.549	0
0.7793	-0.500746	-12.1083	20.5377	-63.5458	5.04542	-40.2642	-0.0394867	-10.8629	96.5761	0.322186
0.7800	-32.5485	-9.98408	19.9264	-24.2065	11.7576	-43.0206	6.35736	-18.1868	73.9873	0.322186
0.7807	-32.2539	1.01965	11.0838	22.5014	6.57706	-39.0535	6.06121	-37.7499	102.991	0
0.7813	35.1995	19.3309	1.01873	53.3152	9.64035	-28.6718	-0.35538	-52.6926	95.9929	0
0.7820	80.0605	26.0436	-2.36346	48.4434	14.8209	-23.1848	-11.3327	-75.8931	10.8473	0
0.7827	64.8024	21.7525	4.36018	35.9291	30.3851	-18.2902	-17.4334	-90.2459	-110.923	0
0.7833	50.4575	15.6346	10.4726	-16.5639	51.738	-13.1123	-15.5972	-54.8062	-175.618	0.322186
0.7840	78.2342	7.73235	12.9176	-139.545	53.585	-11.2833	-11.3327	-11.207	-96.2651	0
0.7847	69.9866	1.91184	16.585	-199.072	59.3737	-7.93435	-6.45607	2.26106	41.9507	-0.322186
0.7853	-95.1123	1.61445	11.3691	-142.59	83.4746	-4.8688	-7.06812	-3.24413	143.581	0
0.7860	-283.717	11.6835	-2.03747	-43.1149	18.7852	-1.82902	-12.2409	-15.7783	183.549	-0.322186
0.7867	-327.665	24.5141	-9.04636	39.8874	-121.901	-0.28337	-14.077	-23.9869	126.513	-0.322186
0.7873	-329.785	26.341	-8.76112	53.0107	-170.733	-3.34891	-15.9131	-23.3971	42.8838	0.322186
0.7880	-334.057	22.3898	-6.92739	22.5014	-167.67	-5.17793	-20.1777	-19.1207	-52.3315	0.322186
0.7887	-303.54	15.3372	-3.87119	25.2417	-206.119	-4.8688	-20.1777	-21.5784	-215.313	-0.322186
0.7893	-255.322	6.20287	4.36018	67.6563	-214.07	-1.82902	-15.0049	-29.1972	-405.744	-0.322186
0.7900	-193.7	1.01965	15.3625	83.8549	-153.637	2.75641	-7.68016	-34.9973	-535.756	0
0.7907	-145.481	-5.39565	22.6567	63.0891	-84.9837	0	0.868707	-42.3212	-487.196	0.322186
0.7913	-77.4095	-12.1083	27.5466	33.4932	-62.392	-5.48706	8.19349	-41.0924	-255.281	0
0.7920	70.6052	-14.8699	28.1578	20.6745	-61.7838	-6.10532	6.9694	-31.3108	26.399	0
0.7927	218.001	-14.2326	25.7129	26.7641	-31.8717	-7.62522	-1.26357	-30.721	263.524	0.322186
0.7933	266.809	-6.92513	23.8791	-21.1312	27.3218	-4.25054	-5.52814	-40.1585	327.286	-0.322186
0.7940	268.341	-2.0393	20.2524	-76.0601	99.647	36.0137	-9.49655	-52.6926	249.488	-0.322186
0.7947	268.046	-2.97398	19.3152	-47.6822	150.011	100.725	-16.5252	-60.6063	182.344	0.322186
0.7953	202.125	-2.97398	20.8229	-9.22587	145.439	137.64	-20.7897	-60.3114	78.264	0
0.7960	59.9128	-3.27138	17.1962	-17.1729	112.17	145.266	-21.4018	-54.2164	-35.5357	0
0.7967	-34.3747	1.31705	12.3063	-45.8553	96.2909	143.746	-19.5657	-34.9973	-60.5739	0
0.7973	-9.07234	8.62454	7.09039	-64.7942	106.675	130.015	-16.5252	-13.3206	-40.1234	0.322186
0.7980	55.6417	15.0398	0.0814987	-65.0987	79.2175	106.521	-16.8213	-7.22557	-25.4659	0.322186
0.7987	74.5523	22.6872	-7.25339	-66.0121	26.1055	76.6128	-19.8815	-11.5019	-11.1584	0.322186
0.7993	5.59657	29.1025	-13.651	-44.3329	21.2178	45.7771	-16.5252	-12.7308	14.502	0
0.8000	-67.3356	30.5895	-12.4286	36.8426	35.5657	22.2831	5.44916	-5.70181	30.0537	0
0.8007	-45.0672	26.0436	-5.09367	144.265	38.9218	3.96717	39.3287	-1.13053	19.0897	0
0.8013	16.5835	16.8667	1.01873	216.884	45.9493	-3.03978	56.4067	-0.491536	-22.7444	0
0.8020	54.11	10.154	4.36018	237.041	51.4452	3.96717	51.234	-5.06282	-93.8546	0
0.8027	86.7764	3.44132	3.74894	232.169	72.7981	9.17087	39.9408	-17.8919	-147.858	0
0.8033	183.214	1.91184	1.91522	212.926	116.45	13.4472	30.1678	-24.331	-196.379	0
0.8040	296.736	5.56559	3.1377	184.243	151.543	4.58543	16.7424	-23.9869	-318.771	0
0.8047	329.992	-0.509825	6.1939	205.314	175.351	-25.6321	-0.0394867	-32.8346	-416.125	0
0.8053	374.853	-13.3404	15.9738	278.542	185.712	-32.9481	-11.0365	-46.8925	-308.39	0.322186
0.8060	449.611	-19.7557	24.8164	277.933	181.455	-7.00696	-18.0454	-64.5878	-127.718	0.322186
0.8067	411.466	-12.1083	24.8164	121.672	180.531	13.4472	-18.3613	-83.217	-34.0194	0
0.8073	353.497	-1.4445	28.1578	-128.553	172.603	26.2503	-6.14018	-87.1984	35.2635	0
0.8080	366.929	-4.16357	35.4927	-350.735	143.299	45.1846	3.92893	-72.8456	83.7848	0
0.8087	313.821	-6.33033	34.8815	-427.648	93.2501	57.0861	3.61303	-44.1399	94.4378	0
0.8093	162.153	2.20924	24.4904	-341.266	34.3494	54.3297	-1.87562	-12.7308	88.0616	0
0.8100	-15.7588	4.0786	15.0365	-202.117	-3.49125	44.8754	-10.1086	6.83234	63.6454	0
0.8107	-150.342	4.6734	8.31287	-112.994	-16.3075	39.9809	-15.3011	16.9088	26.7101	0.322186
0.8113	-268.753	15.9745	-4.48243	-85.834	-24.236	48.2243	-18.3613	20.8411	-35.5357	0
0.8120	-430.494	22.0499	-8.76112	-63.2413	-32.7952	47.0136	-25.6861	19.9563	-136.855	-0.322186
0.8127	-449.729	13.5104	-0.814987	-28.1648	-40.7237	14.9671	-35.1432	22.3649	-230.865	0
0.8133	-268.459	-1.7419	6.80515	-9.83483	-46.2196	-17.0795	-41.54	32.7363	-228.105	0
0.8140	-107.336	-14.5725	14.7513	7.85569	-43.7645	-31.4283	-39.1116	31.5566	-68.8163	-0.322186
0.8147	-20.3539	-24.6416	18.704	38.974	-39.5074	-58.8893	-24.7582	4.37467	156.1	0
0.8153	38.5574	-28.8901	13.5288	81.9976	-34.0115	-95.5213	0.868707	-26.7395	289.767	0
0.8160	92.8737	-27.7005	5.58266	126.574	-18.7401	-122.364	17.3544	-42.9111	292.528	-0.322186
0.8167	140.798	-23.4095	-3.87119	47.8344	-10.5188	-144.647	12.4778	-52.1028	161.893	0
0.8173	43.1231	-2.6341	-13.0398	-138.023	-27.9075	-147.378	8.50938	-57.5588	16.0183	-0.322186
0.8180	-185.453	21.1577	-19.7634	-192.952	-45.0033	-129.397	7.89734	-59.4267	-8.39792	0
0.8187	-293.172	23.282	-24.3274	-129.771	-41.6472	-103.456	-2.48766	-67.3404	-23.6386	0
0.8193	-312.701	15.9745	-25.8351	-87.052	-41.3319	-76.5871	-9.49655	-71.0269	-52.6425	0
0.8200	-342.628	10.154	-22.4937	-47.6822	-60.8603	-70.1726	-7.97631	-55.1503	42.5728	0
0.8207	-251.051	7.43495	-14.5475	-15.0415	-86.8082	-61.3366	4.22508	-30.721	181.722	0
0.8213	-121.976	6.20287	-9.37236	28.2866	-106.021	-42.4024	22.231	-20.9394	191.208	0
0.8220	-82.5937	3.14392	-4.48243	119.54	-109.085	-35.9879	29.2596	-30.721	114.888	0
0.8227	-47.512	-2.97398	3.4637	187.288	-99.9173	44.8754	24.6792	-42.9111	71.2657	-0.322186
0.8233	10.1622	-13.043	8.92411	179.067	-87.7092	191.043	14.6101	-44.1399	60.2629	0
0.8240	62.0631	-15.4647	15.9738	147.918	-71.5368	258.485	4.22508	-31.0159	66.989	0
0.8247	30.3099	-9.68668	19.6412	152.821	-63.3155	245.681	-3.71175	-20.0547	66.678	0
0.8253	-149.134	-2.97398	11.3691	174.469	-59.9594	228.293	-10.4245	-22.8073	45.6054	0
0.8260	-327.046	2.54913	2.85246	120.149	-50.4992	215.773	-14.077	-25.8548	47.1606	0
0.8267	-353.91	-4.80085	4.36018	-36.3858	-41.94	178.239	-15.3011	-28.2633	67.8832	0
0.8273	-261.448	-14.5725	17.1962	-161.529	-26.083	124.837	-17.4334	-28.6074	78.575	0
0.8280	-182.713	-4.80085	29.3803	-178.001	-4.70755	72.0274	-27.5025	-18.1868	90.161	0
0.8287	-149.753	5.56559	24.8164	-160.615	8.71686	18.316	-39.4077	-6.58658	106.063	0
0.8293	1.3255	4.0786	8.92411	-156.931	15.4291	-25.3229	-40.0198	1.03222	107.268	0
0.8300	255.822	8.92194	-10.8801	-165.792	13.2893	-52.4749	-30.5627	2.55598	98.4035	0
0.8307	344.631	20.8603	-29.8285	-186.557	17.2535	-52.1658	-18.0454	0.737303	106.063	0
0.8313	275.675	2.20924	-39.8936	-198.463	34.034	-36.6062	-11.0365	-0.491536	111.545	0.322186
0.8320	238.149	-27.7005	-40.5049	-167.923	38.0208	-34.468	-12.5568	-6.29166	87.4395	0.322186
0.8327	182.301	-3.56878	-33.496	-117.561	35.881	-28.0536	-9.49655	-1.13053	63.3343	-0.322186
0.8333	83.0944	47.4137	-20.0487	-94.6945	24.5739	-15.2504	-2.78381	13.5172	34.3304	0
0.8340	66.6287	76.6862	-6.92739	-79.4399	-0.743298	-22.8756	-0.967424	14.7461	-7.15379	0
0.8347	98.6764	71.2056	-8.76112	-57.4561	-13.5596	-39.6717	-3.71175	-0.196614	-30.0537	0
0.8353	-0.824758	8.92194	-16.096	-46.1598	-31.8717	-68.6527	-10.7206	-28.2633	-44.4001	0
0.8360	-122.594	-47.2013	-13.651	-37.9387	-59.9594	-146.167	-15.0049	-37.7499	-39.5402	0.322186
0.8367	-25.5381	-33.7759	-11.4913	-32.732	-68.7888	-258.175	-15.9131	-26.7395	-8.39792	0
0.8373	174.672	-4.16357	-11.8173	-29.6872	-57.2114	-322.861	-15.9131	-27.3785	-5.94853	0
0.8380	230.52	11.3861	-4.19719	-17.7819	-37.6604	-277.393	-9.49655	-26.7395	-44.0891	0
0.8387	154.524	15.9745	3.4637	-8.31241	-25.7677	-188.595	-2.17177	-34.0634	-84.0959	0
0.8393	101.416	8.02975	0.692739	-1.30928	-20.5871	-146.476	6.67325	-58.1978	-104.819	0.322186
0.8400	127.042	-2.0393	-3.87119	2.34453	-17.8391	-143.127	14.9062	-75.8931	-102.68	0
0.8407	131.019	-17.2916	4.36018	-18.3908	-4.41474	-139.16	11.2537	-80.4644	-65.1617	0
0.8413	52.5783	-16.102	23.5939	-39.7656	38.3136	-116.568	1.79664	-67.6353	-23.9496	0.322186
0.8420	11.6939	1.91184	31.214	-22.0446	65.4778	-97.3503	-9.49655	-53.2825	-40.4345	0.322186
0.8427	29.6913	-1.7419	33.985	10.9005	68.8339	-94.2848	-17.4334	-42.6161	-51.4373	0
0.8433	-16.9959	-28.2953	44.3353	23.1103	62.7298	-85.1397	-12.2409	-25.8548	-33.4362	-0.322186
0.8440	-23.0932	-50.5577	47.7175	25.8507	-31.5789	-68.6527	-8.27246	-19.1207	-51.1263	-0.322186
0.8447	83.713	-50.8551	48.3288	39.8874	-193.618	-49.7442	-10.7206	-11.5019	-80.7134	-0.322186
0.8453	161.535	-40.4886	44.3353	57.3039	-320.564	-37.2244	-8.58835	4.37467	-99.6476	0
0.8460	247.604	-33.7759	30.6028	65.2205	-391.673	-30.1917	3.92893	11.9935	-93.8546	0
0.8467	280.86	-21.5826	17.1962	59.4353	-438.366	-21.974	26.8115	19.6123	-59.6797	0
0.8473	111.49	-2.97398	-5.09367	42.0188	-453.322	-27.7702	46.6535	33.6702	-63.0233	0
0.8480	-63.3886	19.0335	-28.2801	13.3364	-396.561	-31.1191	54.5903	54.413	-83.4738	0
0.8487	-114.052	33.9459	-37.1227	-11.6922	-278.444	-17.0795	51.5301	70.2896	-52.9536	0
0.8493	-77.1149	30.9294	-35.9002	4.50636	-120.977	9.76337	29.5558	64.4895	-46.5385	0
0.8500	39.1466	25.7462	-32.8847	38.0605	52.6615	62.8823	-11.3327	48.3179	-70.0216	0
0.8507	152.698	30.5895	-39.5676	50.8793	208.304	120.252	-45.8243	42.2229	-15.3962	0
0.8513	227.751	38.8317	-44.7836	60.6532	320.609	135.193	-49.4768	50.7756	49.8821	0
0.8520	210.667	43.1227	-42.6238	70.7316	386.222	82.409	-36.9595	54.413	25.4659	0
0.8527	12.607	35.8152	-38.3452	67.0474	421.315	4.2763	-34.2152	37.9465	-21.8113	0
0.8533	-137.234	19.0335	-27.0576	48.1389	429.851	-39.0535	-35.1432	8.65103	-20.9171	0.322186
0.8540	-14.2565	3.73872	-13.325	4.50636	393.858	-65.8963	-22.6259	-25.2158	1.36077	0
0.8547	60.2074	-2.97398	-2.9747	-52.5844	320.294	-90.6267	-1.26357	-49.3502	19.6729	0
0.8553	-28.896	-3.86617	-1.14098	-92.5631	237.608	-97.3503	7.58144	-56.33	29.7426	0.322186
0.8560	-7.8352	-4.16357	-5.41967	-91.9542	142.083	-91.5541	0.868707	-52.1028	27.6043	0
0.8567	36.7312	-4.80085	-6.92739	-50.4226	45.9493	-86.0413	-1.87562	-48.1213	20.606	0
0.8573	-20.3539	-3.56878	-4.80843	-0.700313	-12.6361	-60.4092	10.6417	-48.7112	9.60318	0
0.8580	-98.1757	1.91184	-4.19719	32.2753	-48.6522	48.5335	17.6505	-46.3027	-2.29388	0
0.8587	-175.379	7.43495	-7.53863	52.4017	-99.9173	198.977	9.71373	-44.4348	-9.29215	0
0.8593	-233.966	5.56559	-8.14987	67.6563	-146.925	277.11	11.8657	-49.3502	-13.5689	0
0.8600	-221.772	0.0849709	-4.48243	91.467	-149.065	274.662	20.0987	-53.6265	-18.7787	0
0.8607	-169.576	-2.3367	-0.203747	123.803	-117.621	255.136	17.9664	-49.3502	-24.2607	0
0.8613	-177.205	-2.0393	3.1377	142.133	-79.1725	229.194	22.231	-36.816	-31.2978	0
0.8620	-190.637	-1.14711	1.30398	140.915	-34.0115	174.865	39.0128	-27.3785	-39.8124	0
0.8627	-146.689	0.0849709	-3.25995	131.446	-13.2667	116.285	67.0879	-23.692	-35.8467	0
0.8633	-148.515	-2.3367	-0.814987	85.6818	-34.0115	68.9876	101.58	-18.1868	-27.0211	0
0.8640	-141.505	-9.0494	10.7578	-7.39896	-35.5432	32.9739	114.393	-15.7783	-25.777	0
0.8647	-57.2618	-11.811	21.7602	-103.22	-4.70755	-5.48706	108.608	-13.9105	-28.8484	-0.322186
0.8653	1.00149	-11.2162	22.0454	-166.096	6.28425	-40.2642	90.6022	-7.22557	-40.4345	-0.322186
0.8660	31.223	-12.7456	19.6412	-153.582	7.50055	4.58543	54.8865	-2.94921	-59.3687	0
0.8667	62.6522	-12.7456	19.03	-78.8309	3.22096	90.0342	16.4462	-0.491536	-76.4367	0
0.8673	70.8998	-8.1572	16.585	-19.9133	-77.6408	118.732	-12.8529	7.12727	-75.8535	0.322186
0.8680	100.208	-2.0393	16.8702	-5.57206	-203.078	93.3831	-33.6032	14.1562	-58.1245	0
0.8687	150.842	1.91184	13.814	-20.5222	-252.203	29.5992	-48.2527	7.71711	-42.8838	0
0.8693	129.811	5.90548	4.97142	-40.3746	-221.39	-4.55967	-38.4995	-1.13053	-26.399	0.322186
0.8700	33.3733	10.154	-1.75222	-45.8553	-186.906	25.0396	-7.06812	0.393228	-4.43224	0.322186
0.8707	-16.7014	12.2783	0.407494	-41.288	-179.27	93.3831	4.54097	7.12727	21.5002	0
0.8713	-2.94557	11.6835	5.58266	-39.7656	-175.621	186.766	-16.5252	11.9935	39.2292	0
0.8720	-8.12976	7.09507	6.47915	-45.2463	-170.418	268.248	-52.8332	11.6985	36.4688	0.322186
0.8727	14.7573	0.722252	8.31287	-40.0701	-153.322	304.571	-90.6812	5.89843	31.57	0.322186
0.8733	108.426	-4.16357	11.0838	-22.0446	-77.348	278.32	-109.595	-5.70181	33.3973	0
0.8740	190.843	-1.4445	13.2028	-12.3012	-15.384	220.951	-80.9082	-10.2731	42.2618	-0.322186
0.8747	216.764	5.56559	14.14	-8.6169	-90.7724	143.746	-18.6575	0.0983071	53.8478	-0.322186
0.8753	209.135	8.32715	12.3063	-1.91825	-183.55	47.0136	45.7256	13.2223	65.1617	0
0.8760	196.322	8.32715	13.814	4.81085	-179.585	-49.4351	104.324	20.8411	80.7134	0
0.8767	186.248	2.20924	14.4253	2.9535	-159.426	-137.022	147.976	14.7461	88.3337	0
0.8773	174.053	-2.3367	19.3152	-2.52722	-129.829	-144.956	164.442	9.87987	98.4035	-0.322186
0.8780	178.325	0.722252	25.4276	8.76914	-68.7888	-51.5732	154.077	18.7275	117.96	0
0.8787	199.974	1.61445	19.9264	36.2336	-1.35145	39.0792	136.367	23.2988	119.787	0.322186
0.8793	203.332	4.6734	12.9176	31.6663	53.2697	42.4281	121.106	25.4124	105.13	0
0.8800	162.153	9.55922	6.47915	-1.30928	17.5689	-12.8032	95.775	28.5091	83.4738	0
0.8807	128.279	13.213	2.85246	-8.92138	-82.8439	-80.5542	66.4956	33.9651	49.5711	0
0.8813	138.353	15.3372	5.90866	41.1053	-166.161	-173.937	38.1047	41.289	11.1195	0
0.8820	96.8502	10.154	4.68618	136.926	-220.467	-288.985	11.5499	37.3567	-12.3636	0
0.8827	-40.7961	5.56559	3.1377	191.581	-193.01	-367.736	7.89734	34.899	-16.0183	0
0.8833	-110.076	6.50027	2.85246	187.593	-98.0928	-364.98	11.8657	40.6991	-21.8113	0
0.8840	19.3229	5.90548	5.90866	165.03	-1.9596	-334.453	-3.71175	41.928	-29.7426	0.322186
0.8847	171.609	1.61445	14.14	136.013	82.8664	-328.348	-32.0829	30.6227	-35.2635	0
0.8853	209.459	-6.33033	14.14	111.624	171.679	-322.861	-66.8707	12.6325	-52.6425	0
0.8860	225.925	-10.5789	10.4726	51.4883	244.32	-311.269	-93.1294	1.62207	-73.093	-0.322186
0.8867	243.628	-9.68668	11.3691	-21.7402	215.624	-290.814	-95.8737	-4.17805	-85.9232	0
0.8873	196.322	-8.752	11.3691	-45.5508	102.102	-256.939	-79.0918	-12.0918	-88.9558	0.322186
0.8880	115.466	-7.51992	6.47915	-110.863	84.7134	-223.372	-39.4077	-19.1207	-75.5424	0
0.8887	85.2447	-7.22252	4.07494	-165.183	141.474	-178.832	17.0385	-15.7783	-60.2629	0.322186
0.8893	96.8502	-5.39565	3.1377	-48.9001	143.299	-125.43	60.079	-3.24413	-56.9193	0.322186
0.8900	96.5262	1.31705	-4.19719	79.2572	137.195	-74.4489	69.852	11.1087	-50.5042	0
0.8907	67.8364	11.0887	-13.0398	55.751	156.723	0	40.5528	26.6412	-34.6414	-0.322186
0.8913	8.95452	18.0988	-18.215	-46.1598	188.167	95.8304	-16.5252	37.3567	-25.4659	0
0.8920	-86.5702	15.9745	-16.9925	-107.513	241.572	166.93	-59.8618	35.8329	-23.9496	0
0.8927	-135.084	1.61445	-5.41967	-78.8309	300.765	205.701	-53.4452	20.8411	-26.399	0
0.8933	5.59657	-14.8699	9.86135	-25.1199	330.069	238.649	-4.0079	3.14583	-24.8827	0
0.8940	196.94	-18.821	15.9738	15.4678	324.889	270.103	37.1965	-4.7679	-15.124	0
0.8947	242.096	-16.9942	7.41639	55.751	299.549	291.768	45.4294	-9.33918	-15.7072	0
0.8953	221.948	-15.7621	1.62997	82.302	171.679	278.63	62.8233	-13.6155	-23.9496	-0.322186
0.8960	211.58	-12.7456	-1.14098	103.372	-47.7513	213.635	86.9299	-15.1393	-28.2264	0
0.8967	194.496	-7.51992	-10.5948	124.138	-178.054	121.772	82.3495	-15.4834	-27.3321	0
0.8973	155.113	-0.212427	-14.8735	141.22	-207.042	-6.69782	63.1195	-8.74933	-17.8456	-0.322186
0.8980	70.2812	2.20924	-16.9925	180.285	-221.075	-180.352	44.5212	-3.53906	-13.5689	-0.322186
0.8987	-52.0776	1.01965	-19.1522	244.044	-202.763	-247.175	24.3633	0.737303	-11.7415	0
