MR32 ASCII
Name	CORE15_fast
Frequency	1500
Date	16-09-2015 11:38:01
"Time,s"	"RT TIB.ANT.,uV"	"RT MED. GASTRO,uV"	"RT LAT. GASTRO,uV"	"RT BICEPS FEM.,uV"	"RT VMO,uV"	"RT VLO,uV"	"RT RECTUS FEM.,uV"	"RT SOLEUS,uV"	"RT SEMITEND.,uV"	"Channel 12,uV"
0.0000	29.3587	4.80843	16.1573	58.509	179.208	145.959	28.3916	-1.42716	51.2436	-7032.04
0.0007	41.2515	-1.32646	12.4642	44.7854	136.783	130.707	34.7957	-15.1173	40.8634	-10544
0.0013	54.9854	-5.30585	9.77133	22.8041	95.8748	174.649	44.2595	-14.5359	31.106	-9694.84
0.0020	49.5117	-5.91381	8.84805	22.187	64.7589	227.449	42.1248	-5.97293	34.4623	-9707.71
0.0027	35.4295	-4.08993	11.2332	29.2104	43.4043	230.799	38.1578	-4.17576	41.763	-9903.03
0.0033	29.6573	-2.54239	12.772	22.187	30.5788	168.55	33.8795	-7.82295	36.8843	-9788.16
0.0040	36.0764	-3.75831	9.15581	15.4868	39.7399	78.824	15.8769	-12.1044	20.103	-9811
0.0047	41.55	-4.08993	7.30926	15.1636	53.7657	29.9951	-12.5058	-9.93726	1.79924	-9815.83
0.0053	44.9337	-3.15035	20.0812	11.1963	52.5337	12.9106	-26.2391	-0.47572	-3.39087	-9816.79
0.0060	51.0045	-2.81873	36.3155	6.02428	47.0687	-14.2526	-16.7752	5.60292	4.25588	-9789.44
0.0067	49.8103	-4.97423	40.5472	2.05707	46.7528	-50.2634	-9.15254	3.48861	6.36652	-9849.94
0.0073	35.1309	-5.5822	43.9325	2.67419	45.8367	-84.7472	-15.2542	2.85432	6.36652	-9859.27
0.0080	15.9234	-0.718501	51.2418	10.9025	43.4043	-110.689	-20.4398	8.66867	12.1794	-9530.08
0.0087	7.36455	5.08477	57.0122	17.0149	44.6047	-123.507	-13.422	17.2316	13.7019	-10375.4
0.0093	15.0277	10.888	52.4728	16.3978	44.6047	-125.339	-1.52098	28.1732	10.9684	-9170.97
0.0100	21.397	22.7709	36.931	13.6354	32.411	-100.619	-1.21856	40.3833	8.82317	-2781.54
0.0107	17.1176	23.1026	18.0039	10.9025	21.4178	-53.9283	-8.53882	34.6218	5.1555	109.408
0.0113	17.4659	6.02435	-15.311	14.2526	11.3407	-27.6814	-12.5058	8.98582	3.01026	-120.349
0.0120	23.8353	-5.5822	-40.0086	18.8369	-26.7881	-24.0165	-19.2212	-9.35583	4.84409	-107.155
0.0127	22.3425	-4.08993	-27.7752	18.8369	-74.3938	4.96988	-27.76	-16.0688	6.36652	88.4918
0.0133	17.7645	0.497423	-15.6187	15.1636	-92.1156	48.9214	-27.76	-12.1044	6.98934	-27.0302
0.0140	17.7645	-1.60281	-27.7752	8.46338	-93.0317	48.3106	-20.4398	-3.85862	4.84409	-4.50504
0.0147	15.0277	-6.79812	-40.3163	7.84626	-118.651	34.8817	-16.7752	-2.32574	4.84409	0.643577
0.0153	12.2411	-4.97423	-28.3907	18.543	-139.09	50.1338	-22.8858	-2.64289	14.6015	-0.321788
0.0160	11.644	3.26089	-0.307758	25.2432	-115.903	44.3402	-26.5415	1.05716	18.5806	-0.643577
0.0167	12.888	9.06416	21.9278	17.0149	-104.309	4.35906	-16.1704	8.03438	11.868	-0.965365
0.0173	16.5205	7.24027	29.237	2.35094	-118.051	-24.3219	3.66458	8.66867	5.46691	-0.965365
0.0180	17.4659	3.5925	26.8519	-6.78834	-112.238	-36.2237	14.6583	3.48861	-1.55703	-0.643577
0.0187	19.2573	6.02435	27.1597	-4.67249	-79.6061	-48.1255	11.9099	3.80576	-5.84751	-0.321788
0.0193	23.5367	9.67212	29.237	2.05707	-39.9294	-56.9824	11.9099	1.63859	-4.29048	-0.321788
0.0200	23.5367	4.20046	26.5442	5.70103	-12.162	-59.4165	13.4308	-8.40439	-2.76805	-0.965365
0.0207	24.1836	-5.30585	17.0806	9.37437	4.64369	-52.7067	7.94288	-14.2187	-1.55703	-0.965365
0.0213	27.8161	-4.36627	-6.15517	11.5196	18.9854	-33.1788	-4.87424	-13.6373	0.588211	-0.643577
0.0220	28.7616	2.04496	-40.3163	11.5196	38.192	-16.6958	-7.00895	-6.29007	1.17642	-0.321788
0.0227	28.1147	4.80843	-71.0922	10.2854	51.0174	-9.98604	7.63157	15.6988	0.276805	-0.321788
0.0233	27.8161	2.04496	-72.0155	4.79004	40.656	-3.26698	14.6583	37.6347	-4.29048	-0.321788
0.0240	28.1147	-5.5822	-40.0086	4.79004	22.6498	-6.93192	18.6253	45.8805	-6.12432	-0.643577
0.0247	30.2544	-12.325	-15.311	15.1636	8.9083	-13.9471	28.9964	54.7607	-0.0346007	-0.321788
0.0253	27.8161	-13.2094	-10.6946	17.9259	-4.20143	1.61961	33.5771	76.1152	6.98934	-0.321788
0.0260	25.3779	-10.4459	-5.23189	10.2854	-8.78194	22.3691	31.7448	108.147	14.6015	-0.643577
0.0267	29.3587	-10.7775	3.61616	4.49617	0.347487	24.507	24.727	126.172	21.9368	-0.643577
0.0273	32.0955	-7.40608	5.46271	3.87905	13.7731	18.3987	9.16144	99.9012	23.1479	-0.321788
0.0280	36.3749	9.67212	-0.307758	7.55239	-6.03364	9.24565	-3.9581	43.4491	27.7497	-0.321788
0.0287	43.0926	28.2979	-4.92413	8.75725	-82.6387	-4.48863	-10.3711	12.9502	25.2931	-0.321788
0.0293	39.1118	20.6707	-2.15431	3.58518	-141.838	-10.893	-16.4728	38.269	-8.26956	-0.643577
0.0300	30.5529	-2.21077	7.30926	0.205707	-148.251	-3.26698	-13.7244	74.5823	-37.2649	0
0.0307	20.5013	-0.386885	7.0015	-0.0881602	-141.838	6.19153	-6.40411	86.4753	-25.9851	0
0.0313	9.50426	12.104	-31.1605	-0.382028	-118.051	7.71859	-4.87424	85.8939	-6.12432	-0.643577
0.0320	7.96168	16.0834	-58.3202	0.205707	-84.7868	3.74824	3.36216	49.8449	-4.60189	-0.643577
0.0327	7.96168	21.555	-16.7728	2.05707	-63.1163	-3.8778	13.1284	9.56726	-9.79199	-0.321788
0.0333	5.87174	25.2581	32.3146	2.67419	-47.5425	-9.37522	7.63157	39.1676	-8.89237	-0.321788
0.0340	13.4851	22.163	65.8603	6.02428	-21.0072	-3.8778	-0.604833	92.6068	-2.17984	-0.321788
0.0347	15.3262	9.06416	123.257	10.6086	18.9854	3.74824	-12.2034	99.9012	3.32166	-0.321788
0.0353	11.0468	-1.32646	168.729	13.3416	53.1655	7.71859	-22.5745	101.117	5.77831	-0.321788
0.0360	21.0985	5.08477	162.343	13.6354	76.0364	30.3006	-14.3381	134.999	7.30074	-0.321788
0.0367	26.9204	8.4562	124.796	9.0805	83.9655	61.4341	-3.65568	162.802	4.53269	-0.321788
0.0373	20.5013	2.04496	93.3277	6.31815	78.1845	54.715	-1.21856	154.82	1.17642	-0.321788
0.0380	19.9042	-6.52177	54.0116	7.84626	75.1203	25.7286	1.52987	116.71	1.17642	-0.321788
0.0387	18.6602	-10.4459	-38.162	6.6414	67.5072	9.24565	12.2123	58.0907	-0.934218	-0.321788
0.0393	14.3808	3.5925	-96.79	5.11329	54.3659	1.00878	33.5771	-25.5303	-2.76805	-0.643577
0.0400	10.7483	20.3391	-57.0892	5.40716	48.2691	1.61961	45.7805	-118.877	-0.657413	-0.643577
0.0407	0.94545	13.3199	-45.7791	4.49617	29.0625	9.85647	33.5771	-163.436	0.588211	-0.321788
0.0413	-7.26503	-8.62201	-84.5566	3.26193	-2.68513	12.9106	22.8947	-161.005	0.276805	-0.321788
0.0420	-8.50905	-22.0524	-68.7071	3.58518	-19.175	9.55106	17.7092	-187.857	3.63307	-0.321788
0.0427	-7.5636	-6.79812	2.38513	3.87905	-18.2589	7.71859	2.75733	-254.722	10.0342	-0.321788
0.0433	-0.845929	23.3789	64.0907	4.79004	-11.2459	15.0392	-3.9581	-281.573	17.6809	-0.321788
0.0440	7.66312	23.7105	84.1719	4.79004	-9.41374	24.507	1.52987	-227.236	24.6703	-0.321788
0.0447	7.66312	-0.386885	66.4758	3.26193	-16.1108	20.2312	1.84118	-181.144	25.6045	0
0.0453	3.73204	-15.3649	36.0077	2.35094	-24.9559	11.0781	-1.21856	-191.821	23.7707	-0.643577
0.0460	0.0497605	-24.2079	6.69375	4.49617	-28.336	13.216	-0.604833	-177.179	23.7707	-0.965365
0.0467	0.0497605	-43.4417	-21.0814	6.6414	-27.104	21.1475	2.1436	-131.404	13.7019	-0.643577
0.0473	5.87174	-56.5405	-17.6961	7.84626	-24.6716	29.6897	1.84118	-116.129	-10.4148	0
0.0480	13.4851	-56.2641	32.9301	6.93527	-23.1237	41.5915	-1.21856	-115.864	-25.3623	-0.321788
0.0487	19.9042	-53.8323	78.4015	5.11329	-22.5235	50.4392	-4.57183	-88.6953	-15.9163	-0.321788
0.0493	25.6764	-38.2463	99.4829	3.87905	-21.9233	50.1338	-6.70653	-32.8247	6.67793	-0.321788
0.0500	33.9367	-33.051	105.561	4.79004	-20.3754	45.5619	-6.70653	47.7306	26.5041	-0.321788
0.0507	42.1471	-53.5007	49.703	6.93527	-20.0911	37.6304	-3.9581	149.958	33.5281	-0.321788
0.0513	39.7089	-63.8913	-37.5465	7.22914	-22.2076	27.2464	-3.35326	231.464	32.0056	0
0.0520	33.6381	-59.3039	-48.2411	5.70103	-23.4396	19.315	-4.87424	267.777	29.8604	0
0.0527	32.0955	-26.9714	3.00064	5.11329	-22.8394	13.216	-6.40411	261.646	29.2722	-0.321788
0.0533	25.0793	13.9279	4.84719	1.43995	-23.1237	8.63482	-8.53882	198.798	5.1555	-0.321788
0.0540	11.644	-0.718501	-85.4799	-5.26023	-23.7555	6.49694	-9.15254	151.173	-56.1915	0
0.0547	-3.28419	-62.0674	-205.429	-6.2006	-23.4396	5.88612	-6.40411	141.395	-87.0207	-0.321788
0.0553	-24.3826	-128.888	-244.437	-1.91014	-23.7555	3.74824	-6.0928	9.25011	-56.7797	-0.321788
0.0560	-39.0122	-125.24	-147.416	0.528961	-24.9559	0.397961	-7.32026	-204.665	-26.5733	-0.321788
0.0567	-35.9768	-32.4431	-36.0077	0.822829	-24.6716	-2.04533	-7.62267	-258.369	-19.2726	-0.321788
0.0573	-29.8563	31.9456	-2.46207	0.528961	-24.6716	-3.8778	-8.2364	-138.752	-16.1931	-0.321788
0.0580	-22.8401	40.1808	19.8504	0.528961	-23.7555	-5.40486	-7.92509	-20.0331	-11.003	-0.321788
0.0587	-9.40473	28.2979	51.2418	2.05707	-22.8394	-5.40486	-6.40411	11.9987	-7.36994	-0.321788
0.0593	2.18946	-19.9522	84.4797	2.35094	-22.5235	-6.62651	-5.48797	-13.9016	-7.64675	-0.321788
0.0600	5.22485	-11.1091	138.491	1.73382	-21.6074	-8.45898	-5.79039	-48.7349	-3.39087	-0.321788
0.0607	2.18946	118.939	167.497	1.14608	-21.9233	-9.37522	-6.40411	-59.4121	7.61215	-0.321788
0.0613	0.348324	192.779	117.179	0.205707	-21.9233	-10.2822	-6.70653	-61.5264	9.41138	-0.321788
0.0620	2.18946	145.192	28.6985	-0.705282	-20.6913	-10.2822	-5.18555	-67.0237	-2.45665	-0.321788
0.0627	-2.98563	103.685	-9.77133	-2.23339	-20.3754	-9.98604	-4.26941	-65.4908	-18.3384	-0.321788
0.0633	-14.8784	86.8833	29.0062	-2.23339	-21.0072	-10.893	-4.87424	-78.9167	-24.1513	0
0.0640	-17.9635	57.8669	75.3239	-0.382028	-19.7752	-10.5876	-3.9581	-114.913	-17.1273	-0.321788
0.0647	-10.6487	38.9648	96.0976	0.822829	-19.4909	-11.1984	-3.35326	-118.613	-9.79199	-0.321788
0.0653	0.646887	39.2965	88.1728	1.43995	-18.8591	-11.1984	-2.43712	-63.0593	-6.74713	-0.321788
0.0660	8.60857	6.02435	6.07823	2.67419	-16.7425	-9.98604	0.311311	-4.44005	-4.9133	-0.321788
0.0667	5.22485	-23.6	-113.255	0.528961	-16.7425	-10.893	-0.302416	25.4246	-4.9133	-0.321788
0.0673	-2.68707	27.3583	-164.497	-1.61627	-17.6587	-12.4201	-1.82339	64.2222	-5.84751	-0.321788
0.0680	-8.21048	52.7269	-115.717	-1.91014	-17.943	-13.0309	-2.43712	92.6068	-7.64675	-0.321788
0.0687	-8.50905	-8.62201	-46.3946	-1.61627	-17.6587	-13.3363	-0.604833	66.0194	-9.79199	-0.965365
0.0693	-2.3885	-33.9906	-16.4651	-0.0881602	-15.8264	-10.893	4.2783	39.1676	-9.48059	-0.643577
0.0700	-2.98563	-49.8529	-5.84741	-0.999149	-14.9103	-10.5876	2.44602	49.2634	-9.79199	0
0.0707	-11.5444	-133.475	-7.30926	-4.67249	-16.7425	-13.6417	-0.302416	61.1564	-7.05854	-0.321788
0.0713	-8.21048	-99.8716	-36.0077	-4.34924	-15.8264	-13.3363	3.66458	56.875	5.77831	-0.643577
0.0720	2.18946	77.4323	-70.5536	-4.05537	-14.9103	-12.1147	3.05974	30.0232	21.0372	-0.643577
0.0727	8.60857	136.626	-110.178	-4.05537	-14.5944	-12.4201	-0.302416	-15.1173	28.0265	-0.321788
0.0733	11.644	95.1184	-167.574	0.528961	-13.0781	-11.8093	1.22745	-38.639	23.7707	0
0.0740	6.76743	115.236	-192.58	2.67419	-13.3625	-13.6417	0.613727	-54.8135	12.4908	-0.321788
0.0747	-3.63252	128.998	-155.957	0.528961	-13.3625	-14.558	-1.21856	-140.285	1.79924	-0.321788
0.0753	-10.9473	61.57	-88.5575	-1.91014	-11.8461	-11.8093	0.0088946	-244.309	-12.56	0
0.0760	-14.8784	-48.029	-24.4668	-4.05537	-11.5302	-10.893	0.925039	-245.524	-20.4836	0
0.0767	-11.2459	-152.377	17.3883	-1.29302	-10.0139	-9.98604	1.84118	-162.538	-7.64675	-0.321788
0.0773	-4.52821	-183.826	34.1612	2.96806	-9.41374	-9.98604	1.22745	-67.3408	3.63307	-0.321788
0.0780	-4.82677	-99.5952	58.8588	1.14608	-11.2459	-13.6417	-3.04195	17.4959	-0.346007	-0.321788
0.0787	-7.26503	-58.696	111.639	-1.29302	-11.5302	-14.558	-3.65568	72.468	-4.9133	0
0.0793	-7.26503	-164.26	154.418	-1.61627	-11.5302	-13.6417	-1.82339	76.6966	-5.2247	0
0.0800	-2.08994	-234.784	168.729	-2.82113	-11.8461	-13.3363	-1.82339	51.0606	-4.60189	0
0.0807	13.7837	-188.689	143.108	-2.52726	-9.69804	-10.5876	1.22745	55.0249	-2.45665	0
0.0813	24.4822	-135.576	95.482	-1.61627	-9.69804	-10.893	2.44602	113.327	-2.45665	0
0.0820	19.9042	-115.458	94.8665	-1.91014	-11.2459	-13.3363	0.0088946	187.169	-3.39087	0
0.0827	9.20569	-36.6988	104.946	-0.999149	-10.0139	-12.4201	0.613727	200.912	-1.86844	-0.321788
0.0833	-6.07078	100.314	100.098	-0.999149	-9.41374	-12.1147	0.925039	169.198	-1.24562	-0.321788
0.0840	-17.0181	156.467	105.561	-0.382028	-9.09784	-11.1984	1.52987	180.774	-0.0346007	-0.321788
0.0847	-24.3826	141.821	77.4782	2.05707	-8.18174	-10.893	3.05974	222.003	1.48783	-0.321788
0.0853	-37.4697	213.505	32.0069	4.49617	-9.09784	-13.6417	0.613727	256.783	-0.0346007	0
0.0860	-39.6094	293.48	-54.6271	9.66824	-10.0139	-14.8634	-0.604833	221.051	-0.934218	0
0.0867	-23.4372	165.31	-228.895	14.5758	-8.78194	-12.7255	1.84118	35.8376	0.588211	-0.321788
0.0873	-10.0019	14.8674	-338.15	16.0745	-7.86584	-10.2822	3.05974	-180.245	1.48783	-0.321788
0.0880	-6.36934	25.5344	-284.753	21.5699	-6.94974	-8.76439	3.97589	-287.071	3.01026	0
0.0887	-10.6487	35.5934	-185.271	31.3556	-6.34953	-9.68063	3.66458	-296.215	3.32166	0
0.0893	-22.2429	-11.1091	-129.72	37.4387	-6.66543	-11.5038	0.613727	-262.65	1.48783	0
0.0900	-30.4534	-10.4459	-104.407	39.5839	-6.34953	-11.5038	0.311311	-259.585	0.899618	0
0.0907	-32.5931	59.4145	-80.5558	43.5511	-5.74933	-11.1984	1.84118	-261.699	1.79924	-0.321788
0.0913	-28.0152	105.177	-68.0915	38.6729	-4.51733	-9.37522	3.66458	-232.733	2.42205	-0.321788
0.0920	-15.8238	83.2355	-60.4745	21.5699	-3.60123	-7.54275	5.19445	-196.737	1.48783	0
0.0927	-6.36934	38.9648	-22.6202	3.87905	-4.51733	-8.76439	3.05974	-138.435	-0.346007	-0.321788
0.0933	-1.49282	-0.386885	20.0812	-21.1291	-5.11753	-9.37522	0.613727	-83.1981	-0.346007	-0.321788
0.0940	2.48803	-34.2669	29.0062	-24.5085	-4.51733	-9.06981	0.311311	-39.5376	1.17642	0
0.0947	2.48803	-42.2257	25.6209	0.528961	-4.83323	-9.68063	0.0088946	14.7473	1.48783	0
0.0953	0.646887	-3.75831	37.2388	-17.1619	-4.20143	-7.84816	0.311311	46.5148	1.17642	0
0.0960	-5.42389	23.7105	53.0883	-62.3293	-3.28533	-6.62651	1.22745	46.1977	0.276805	-0.321788
0.0967	-17.3664	2.92927	58.551	-51.0448	-4.20143	-8.15357	-0.302416	34.3047	0.588211	-0.321788
0.0973	-22.8401	-28.7953	65.5525	-10.7555	-4.20143	-7.84816	0.0088946	29.3889	2.69885	0
0.0980	-23.1386	-42.2257	51.8573	-1.61627	-3.28533	-6.3211	1.52987	33.6704	2.69885	-0.321788
0.0987	-21.5961	1.71335	-8.5403	-4.05537	-2.08492	-3.8778	4.2783	24.8432	3.63307	-0.643577
0.0993	-16.421	79.2561	-52.7806	4.17292	-0.568615	-1.1291	7.32915	18.1302	7.30074	-0.321788
0.1000	-15.2267	20.0627	-49.1644	5.70103	-1.48472	-2.35075	3.66458	31.8732	6.36652	-0.321788
0.1007	-17.3664	-167.024	-27.7752	-2.52726	-2.68513	-5.09945	-1.52098	48.312	2.69885	-0.643577
0.1013	-12.7884	-271.096	-0.307758	5.11329	-2.40082	-5.40486	-2.12581	91.6554	1.79924	-0.321788
0.1020	-5.42389	-259.821	28.6985	1.43995	-1.48472	-4.48863	-0.604833	165.233	2.11064	-0.321788
0.1027	-0.248803	-186.534	51.2418	-38.2321	0.0631794	-1.73992	3.36216	203.08	2.11064	-0.643577
0.1033	1.29377	-64.1676	58.2433	-54.101	0.979281	-0.823686	6.11059	204.877	2.69885	-0.321788
0.1040	-1.14449	9.94847	64.0907	-41.2884	-0.252718	-3.26698	4.2783	212.224	2.69885	0
0.1047	-1.49282	12.4356	97.3286	-39.1431	-1.48472	-4.79404	3.05974	201.864	2.69885	0
0.1053	-2.98563	42.3363	132.413	-30.2977	-2.08492	-4.48863	4.2783	173.479	2.69885	-0.321788
0.1060	-6.36934	71.9053	97.6364	-16.2509	-2.40082	-4.48863	4.89203	171.946	1.17642	-0.321788
0.1067	-4.22964	68.8655	15.5418	-15.046	-2.68513	-3.26698	5.80817	161.533	-2.45665	-0.321788
0.1073	-3.93108	-1.60281	-13.1567	7.84626	-3.60123	-4.18322	4.58072	87.3739	-4.29048	-0.321788
0.1080	-4.22964	-103.851	13.6952	43.845	-4.83323	-6.3211	0.613727	-5.65578	-4.60189	0
0.1087	5.22485	-12.325	41.7782	21.5699	-3.91712	-4.48863	0.925039	-43.8191	-4.9133	0
0.1093	14.6793	205.602	62.2441	-21.1291	-2.68513	-2.65616	2.44602	-14.2187	-3.70227	0
0.1100	15.9234	245.561	82.7101	-16.5741	-2.40082	-3.26698	1.84118	32.1375	-0.346007	0
0.1107	16.2219	142.429	81.479	-5.87735	-1.16882	-2.65616	2.44602	41.9162	0.588211	0
0.1113	16.5205	118	58.8588	-10.4617	-0.252718	-2.04533	2.44602	25.7417	-0.346007	0
0.1120	18.3616	144.861	72.631	-10.1678	-0.252718	-1.1291	2.1436	-8.72153	-0.346007	-0.321788
0.1127	19.6056	133.586	93.6355	-7.40546	-0.852922	-1.73992	1.22745	-65.1736	-0.346007	-0.321788
0.1133	14.6793	122.587	25.9286	-5.58348	-1.16882	-2.35075	0.311311	-98.474	-0.657413	0
0.1140	8.31	100.59	-88.8652	-4.05537	-0.252718	-0.518275	1.52987	-128.973	-0.346007	-0.321788
0.1147	-0.547366	62.1779	-124.257	-3.43825	0.663384	0.703373	3.36216	-208.63	0.276805	-0.321788
0.1153	-11.843	56.9826	-91.5581	-3.7615	0.0631794	0.092549	2.75733	-238.811	-0.346007	-0.321788
0.1160	-16.421	70.0814	-69.9381	-3.7615	-0.852922	-0.823686	1.52987	-159.789	-1.24562	-0.321788
0.1167	-16.7195	61.2384	-40.9319	-3.43825	-0.568615	-0.823686	0.311311	-60.3107	-1.55703	-0.321788
0.1173	-16.1224	13.9279	13.3875	-3.43825	-0.252718	-0.518275	-0.302416	-6.29007	-1.55703	0
0.1180	-12.4401	-26.0318	49.703	-2.23339	0.0631794	0.092549	0.925039	-24.896	-0.934218	0
0.1187	-8.50905	3.86885	68.0146	-1.91014	0.0631794	0.397961	1.84118	-96.9412	-0.657413	0
0.1193	-5.42389	57.5906	93.02	-1.61627	-0.568615	0.703373	1.52987	-139.016	-0.934218	0
0.1200	-6.07078	75.8847	115.332	-0.999149	-0.568615	0.397961	1.22745	-125.326	-0.657413	-0.321788
0.1207	-10.3004	77.7086	125.412	-0.999149	-0.852922	-0.212863	0.0088946	-88.6953	-1.55703	-0.321788
0.1213	-8.21048	85.0594	123.257	-0.999149	-0.252718	0.397961	0.311311	-44.1362	-1.55703	-0.321788
0.1220	-4.52821	75.6084	111.639	-0.0881602	0.347487	1.91577	2.75733	10.5187	-0.0346007	0
0.1227	-14.2813	39.9044	79.017	-0.382028	0.0631794	0.703373	1.84118	74.2652	-0.346007	-0.321788
0.1233	-24.3826	-3.4267	22.8511	-0.705282	0.0631794	0.092549	-0.302416	118.243	-1.86844	-0.643577
0.1240	-23.1386	-27.5794	-29.9295	-0.0881602	0.347487	0.703373	-0.302416	111.213	-1.55703	-0.321788
0.1247	-19.8047	-4.97423	-43.9325	0.205707	0.663384	1.3142	-0.302416	56.875	-0.657413	0
0.1253	-17.9635	30.3981	-8.84805	0.822829	2.81148	4.05365	2.1436	-26.4289	0.276805	0
0.1260	-19.4564	37.7489	18.3116	1.14608	4.32779	5.58071	3.05974	-101.223	0.276805	-0.321788
0.1267	-20.9989	20.0627	28.3907	0.528961	3.41169	5.27529	2.1436	-126.542	-0.0346007	-0.321788
0.1273	-17.0181	2.32131	86.634	-0.0881602	2.49559	4.35906	0.613727	-118.613	-1.24562	0
0.1280	-12.1416	-9.56158	184.578	-1.91014	0.347487	1.3142	-2.43712	-108.834	-3.07946	0
0.1287	-5.72246	-77.9297	264.903	-0.999149	0.347487	1.91577	-1.82339	-84.0967	-1.24562	-0.643577
0.1293	0.348324	-188.689	255.747	0.822829	1.89538	4.96988	2.1436	-39.5376	2.11064	-0.321788
0.1300	2.78659	-210.686	107.715	-0.0881602	1.89538	4.66447	2.1436	13.5316	0.899618	0
0.1307	4.62773	-143.203	-25.9286	-0.705282	1.89538	4.05365	0.925039	76.4323	-1.24562	0
0.1313	1.29377	-105.675	3.3084	0.205707	1.26359	3.13741	0.0088946	145.359	-1.55703	-0.321788
0.1320	-7.5636	-92.576	47.3179	-0.382028	0.347487	1.61961	-1.52098	188.121	-1.86844	-0.321788
0.1327	-9.7033	-42.8337	-16.4651	1.14608	1.57949	3.13741	1.22745	174.695	-0.934218	-0.321788
0.1333	-10.0019	6.63231	-97.7133	2.96806	2.81148	4.35906	3.66458	154.239	-0.0346007	-0.321788
0.1340	-12.7884	22.7709	-126.027	2.67419	1.57949	3.13741	2.1436	169.198	-0.934218	0
0.1347	-10.0019	22.163	-138.26	1.73382	0.347487	1.91577	0.311311	179.558	-1.86844	-0.321788
0.1353	-12.1416	4.47681	-170.652	0.205707	-0.852922	1.00878	-1.52098	160.952	-3.39087	-0.321788
0.1360	-17.3664	-17.1887	-225.279	-0.0881602	0.0631794	1.3142	-2.43712	84.0439	-3.39087	0
0.1367	-16.7195	-37.3068	-275.29	2.05707	1.89538	4.05365	-0.302416	-41.7048	-1.24562	-0.321788
0.1373	-22.8401	-83.125	-253.285	2.67419	1.89538	5.27529	1.52987	-123.476	-0.657413	-0.321788
0.1380	-31.6974	-161.828	-149.263	0.822829	0.979281	4.35906	0.311311	-179.029	-1.55703	-0.321788
0.1387	-32.5931	-202.451	-53.3961	-0.0881602	0.663384	3.13741	-1.52098	-209.528	-2.17984	0
0.1393	-30.4534	-189.629	-18.3116	-0.0881602	0.347487	2.22118	-2.43712	-165.921	-2.45665	-0.321788
0.1400	-25.2783	-238.763	-6.77068	1.43995	2.17969	3.44282	0.311311	-120.41	-0.657413	-0.321788
0.1407	-19.4564	-254.294	2.38513	2.05707	3.72759	5.58071	3.36216	-97.2583	0.588211	-0.321788
0.1413	-17.0181	-117.613	18.0039	1.43995	2.81148	4.35906	1.52987	-47.7834	-0.657413	0
0.1420	-15.2267	-29.4033	50.934	1.14608	1.26359	2.22118	-2.12581	23.3103	-2.45665	-0.321788
0.1427	-11.843	45.3761	42.086	1.14608	0.663384	1.61961	-3.04195	78.5466	-2.76805	0
0.1433	-2.98563	248.325	-0.307758	1.14608	1.26359	2.832	-0.907249	127.704	-1.86844	0
0.1440	11.3454	339.574	37.5465	2.35094	1.89538	4.66447	1.22745	203.978	-1.55703	-0.321788
0.1447	18.9588	217.816	139.107	1.73382	0.347487	3.13741	0.0088946	268.359	-3.07946	-0.643577
0.1453	19.6056	88.0992	179.731	0.528961	-1.16882	0.092549	-1.21856	290.031	-4.29048	-0.321788
0.1460	24.1836	108.217	119.641	0.528961	-0.852922	0.092549	0.0088946	296.162	-4.29048	-0.321788
0.1467	32.0955	176.585	43.6248	-0.0881602	-0.852922	1.00878	0.311311	263.813	-4.29048	-0.321788
0.1473	41.2515	92.0786	22.2355	0.205707	-0.852922	1.91577	1.84118	170.731	-4.01368	-0.321788
0.1480	49.8103	-38.8543	-7.30926	0.822829	-0.568615	2.22118	3.36216	61.7379	-3.70227	-0.321788
0.1487	53.7413	-65.3836	-50.7032	-0.382028	-0.852922	1.00878	0.613727	-60.8922	-4.60189	-0.643577
0.1493	52.5471	-55.3245	-54.6271	-0.999149	-1.16882	0.092549	-1.21856	-189.707	-4.60189	-0.643577
0.1500	39.1118	-53.169	-25.9286	-0.0881602	-1.48472	-0.518275	-1.21856	-254.986	-4.29048	-0.321788
0.1507	22.3425	-48.9133	69.2456	1.14608	-0.852922	1.00878	-0.604833	-261.435	-3.39087	-0.321788
0.1513	14.0822	-26.9714	174.807	1.73382	1.57949	4.05365	1.52987	-258.95	-2.17984	-0.321788
0.1520	7.06599	33.4932	222.432	0.822829	1.57949	3.74824	1.52987	-225.703	-2.17984	0
0.1527	-3.28419	85.3358	253.285	-0.382028	0.0631794	1.61961	-0.302416	-164.969	-3.70227	0
0.1533	-7.5636	106.117	196.196	-0.999149	0.347487	0.703373	-1.52098	-148.477	-4.01368	-0.321788
0.1540	-6.66791	137.234	-36.3155	-0.0881602	1.26359	1.91577	-0.604833	-141.5	-2.76805	-0.321788
0.1547	-17.3664	128.998	-298.756	0.528961	1.89538	3.74824	1.84118	-87.1625	-1.55703	0
0.1553	-38.7137	53.3349	-371.387	0.205707	1.89538	4.05365	1.84118	-44.4534	-1.86844	0
0.1560	-51.8504	-13.2094	-296.679	-0.0881602	1.57949	3.44282	0.311311	-62.425	-2.45665	0
0.1567	-56.4284	-36.6988	-197.812	-0.705282	0.663384	2.22118	-0.907249	-92.6597	-2.45665	0
0.1573	-60.6581	-9.83793	-84.5566	-1.29302	0.0631794	1.3142	-2.73954	-73.4194	-2.76805	0
0.1580	-56.0801	33.4932	14.3108	-0.999149	0.663384	1.61961	-2.43712	-18.8174	-2.76805	-0.321788
0.1587	-45.7299	36.2014	87.865	-0.705282	0.979281	1.61961	-0.907249	48.312	-1.24562	-0.643577
0.1593	-49.7107	16.6913	113.486	-0.382028	0.979281	1.61961	-0.907249	127.704	-0.346007	-0.321788
0.1600	-67.3757	15.4754	90.3271	-0.705282	0.347487	0.092549	-2.73954	190.552	-1.86844	0
0.1607	-81.1096	28.2979	66.7836	-0.999149	-1.16882	-2.04533	-3.65568	247.322	-3.70227	0
0.1613	-78.6714	14.5358	24.0821	0.205707	-1.48472	-0.823686	-0.302416	304.355	-3.70227	-0.321788
0.1620	-66.48	-29.6796	-51.9342	1.43995	-0.252718	1.3142	4.2783	240.926	-2.17984	-0.321788
0.1627	-61.3049	-50.7372	-157.495	2.35094	1.26359	2.22118	6.41301	39.8019	-0.934218	-0.321788
0.1633	-57.6227	-31.5035	-241.436	1.73382	0.347487	0.703373	4.2783	-123.476	-1.55703	-0.643577
0.1640	-55.1844	-18.0731	-208.429	0.528961	-0.252718	-1.1291	1.84118	-178.395	-2.45665	-0.321788
0.1647	-60.0609	-7.40608	-111.716	0.205707	0.0631794	-1.1291	2.1436	-161.956	-1.86844	-0.321788
0.1653	-58.5183	7.84824	-39.3931	0.822829	0.979281	0.397961	3.66458	-96.9412	-1.24562	-0.321788
0.1660	-49.0639	-18.7363	17.0806	2.35094	1.89538	1.91577	5.19445	-30.0761	-0.657413	-0.321788
0.1667	-38.4151	-50.4608	50.3185	1.14608	0.0631794	-0.823686	2.44602	-12.1044	-1.55703	-0.321788
0.1673	-25.5769	-52.2847	62.2441	-0.705282	-1.76902	-3.57239	-1.21856	-50.8492	-2.76805	-0.321788
0.1680	-11.843	-44.6576	65.014	0.205707	-0.852922	-1.73992	0.311311	-103.654	-1.86844	-0.321788
0.1687	3.08515	-13.2094	22.8511	0.528961	-0.252718	-1.1291	0.613727	-119.511	-1.24562	-0.643577
0.1693	20.2028	15.4754	-47.6256	0.528961	-0.252718	-2.04533	-0.907249	-84.0967	-1.86844	-0.643577
0.1700	34.5338	12.4356	-72.631	1.14608	0.347487	-1.43451	0.311311	31.5561	-1.24562	-0.321788
0.1707	33.9367	-5.91381	-43.3939	0.528961	-0.252718	-1.73992	0.613727	214.973	-1.55703	0
0.1713	15.3262	9.34051	-16.4651	-0.705282	-2.08492	-3.8778	-1.82339	355.046	-2.76805	-0.321788
0.1720	7.06599	41.1203	-15.6187	-0.999149	-2.40082	-3.8778	-1.21856	396.856	-2.45665	-0.321788
0.1727	9.80282	-8.62201	4.23168	-0.0881602	-0.852922	-1.43451	2.44602	358.693	-0.934218	-0.321788
0.1733	-2.08994	-58.9723	57.9355	0.822829	0.663384	0.397961	4.58072	296.744	-0.0346007	-0.321788
0.1740	-14.8784	-34.5986	142.8	0.205707	0.0631794	-1.1291	3.05974	236.909	-0.657413	-0.321788
0.1747	-13.3856	-53.169	227.972	-0.705282	-1.76902	-3.57239	-0.302416	101.751	-2.45665	-0.643577
0.1753	-7.5636	-106.006	218.508	0.205707	-1.48472	-3.8778	-0.302416	-21.2488	-2.45665	-0.643577
0.1760	-3.93108	-95.2842	181.577	1.14608	-1.48472	-3.8778	2.1436	35.2033	-2.17984	-0.643577
0.1767	3.08515	-25.0923	215.123	1.14608	-2.08492	-4.18322	3.66458	171.629	-2.45665	-0.643577
0.1773	21.6956	25.5344	240.744	1.14608	-1.76902	-3.26698	4.2783	263.179	-1.86844	-0.321788
0.1780	42.794	-1.93442	294.756	1.14608	-1.48472	-2.96157	3.05974	305.624	-1.86844	-0.321788
0.1787	49.1634	-14.7569	391.546	1.43995	-1.48472	-4.18322	2.1436	257.1	-1.86844	-0.321788
0.1793	41.8486	60.6304	404.01	-0.382028	-2.40082	-6.01569	1.22745	138.382	-2.76805	-0.321788
0.1800	35.4295	97.2739	403.702	-1.61627	-2.68513	-6.93192	-0.302416	35.5204	-3.39087	-0.321788
0.1807	24.1836	19.4548	472.409	-0.382028	-1.16882	-4.48863	1.52987	-107.936	-1.86844	0
0.1813	0.94545	-56.2641	492.567	-0.0881602	-1.16882	-4.18322	0.613727	-316.671	-1.24562	0
0.1820	-7.26503	-56.5405	487.951	-1.29302	-2.08492	-6.3211	-5.79039	-424.078	-3.07946	-0.321788
0.1827	9.80282	-45.5419	466.254	-2.23339	-3.00102	-7.23733	-10.9759	-378.303	-3.70227	-0.321788
0.1833	25.6764	-50.7372	175.73	-3.43825	-4.83323	-9.37522	-15.8591	-284.322	-4.9133	0
0.1840	24.1836	-12.325	-208.429	-2.82113	-4.51733	-8.45898	-16.1704	-173.532	-4.29048	0
0.1847	17.1176	67.6496	-349.767	-0.382028	-2.40082	-4.79404	-9.45496	-67.0237	-1.55703	0
0.1853	15.6248	107.941	-519.419	0.205707	-1.76902	-4.18322	-5.18555	-60.3107	-0.346007	-0.321788
0.1860	10.7483	70.6894	-760.856	0.528961	-2.08492	-4.18322	-1.52098	-128.973	-0.0346007	-0.321788
0.1867	-23.1386	-2.81873	-737.004	0.822829	-3.00102	-4.79404	3.36216	-109.733	0.276805	0
0.1873	-75.9345	-57.48	-576.201	0.205707	-2.68513	-5.40486	6.41301	-2.0086	0.276805	0
0.1880	-91.8081	-87.0491	-503.57	1.43995	-1.16882	-2.65616	9.46386	67.8694	1.48783	0
0.1887	-60.0609	-73.0107	-448.019	2.05707	0.347487	-1.43451	11.6075	64.2222	2.42205	-0.643577
0.1893	-24.3826	-8.01404	-350.075	1.14608	0.347487	-3.8778	10.6913	40.119	1.48783	-0.965365
0.1900	-9.10617	56.9826	-229.511	0.205707	-0.568615	-5.09945	9.16144	48.6292	0.588211	-0.643577
0.1907	-6.36934	78.9245	-101.637	-0.382028	-1.48472	-6.62651	6.11059	45.5634	-0.346007	-0.643577
0.1913	-12.4401	25.2581	2.38513	-0.0881602	-1.16882	-7.23733	3.05974	-42.6034	-0.657413	-0.965365
0.1920	-37.4697	-67.8707	104.022	1.14608	-0.568615	-4.79404	2.44602	-182.994	-0.346007	-0.321788
0.1927	-68.3212	-120.929	281.06	0.822829	-1.16882	-4.79404	0.925039	-264.447	-0.0346007	0
0.1933	-62.2006	-127.948	437.632	-1.29302	-2.68513	-7.54275	-3.9581	-156.142	-1.55703	0
0.1940	-24.9798	-95.6158	474.256	-2.23339	-3.91712	-9.06981	-7.00895	136.532	-2.76805	0
0.1947	-5.12533	-22.3841	453.482	-2.82113	-4.51733	-9.06981	-7.62267	377.034	-2.76805	0
0.1953	-28.3137	55.1587	355.23	-2.52726	-3.60123	-6.93192	-5.18555	414.828	-1.86844	-0.321788
0.1960	-76.5317	87.8229	162.035	-1.29302	-1.76902	-4.79404	-1.21856	382.796	-0.346007	-0.321788
0.1967	-80.8111	39.5728	3.00064	-1.29302	-2.68513	-5.40486	-1.21856	393.209	-0.657413	-0.321788
0.1973	-37.1711	-8.62201	-43.9325	-1.29302	-3.91712	-6.62651	-2.12581	354.729	-0.934218	0
0.1980	-13.6841	59.0829	-40.0086	-1.29302	-3.60123	-6.62651	-3.35326	168.563	-0.346007	-0.321788
0.1987	-26.174	111.312	-36.931	-0.705282	-2.40082	-5.40486	-5.48797	-81.3481	-0.346007	-0.321788
0.1993	-46.9242	11.8276	-33.3148	0.205707	-1.48472	-3.8778	-3.9581	-268.147	0.588211	-0.321788
0.2000	-68.3212	-108.107	-8.84805	-0.382028	-2.40082	-4.18322	-2.73954	-373.44	0.899618	-0.321788
0.2007	-84.7919	-147.182	5.46271	-1.29302	-3.00102	-6.01569	-4.57183	-349.02	-0.346007	0
0.2013	-75.636	-83.125	-95.559	-1.91014	-3.28533	-7.54275	-6.70653	-170.149	-1.86844	0
0.2020	-62.4992	41.3967	-185.271	-1.91014	-3.28533	-6.93192	-5.48797	75.4809	-1.24562	-0.321788
0.2027	-71.9537	66.7653	-82.7101	0.205707	-1.16882	-4.18322	0.613727	342.201	0.588211	-0.643577
0.2033	-70.1623	26.1424	-44.8558	0.822829	-0.568615	-4.18322	3.66458	529.582	1.17642	-0.321788
0.2040	-41.4505	31.9456	-211.815	-0.382028	-1.76902	-6.3211	0.0088946	503.047	0.276805	0
0.2047	-20.9989	44.7681	-378.774	-1.61627	-3.00102	-7.54275	-2.12581	326.661	-0.657413	-0.321788
0.2053	-26.8209	34.3775	-374.465	-2.52726	-3.28533	-7.23733	-0.907249	100.218	-0.346007	-0.321788
0.2060	-39.3108	13.9279	-166.036	-1.61627	-1.76902	-4.79404	0.311311	-154.292	0.588211	0
0.2067	-25.8755	-3.4267	47.3179	-0.0881602	-0.568615	-2.35075	1.22745	-359.38	1.48783	-0.321788
0.2073	16.819	-43.11	173.96	-1.29302	-2.08492	-4.18322	-0.302416	-438.138	0.899618	-0.321788
0.2080	58.6676	-107.499	270.981	-3.14438	-3.91712	-7.84816	-4.57183	-398.125	-0.934218	-0.321788
0.2087	79.0694	-88.265	248.361	-2.82113	-4.51733	-9.06981	-6.40411	-303.826	-1.24562	-0.321788
0.2093	89.7679	42.3363	166.882	-1.91014	-3.28533	-7.84816	-4.87424	-255.62	-0.346007	-0.321788
0.2100	111.464	145.8	246.591	-1.29302	-1.76902	-6.3211	-2.73954	-200.384	0.899618	-0.321788
0.2107	125.496	147.293	348.152	-2.23339	-2.08492	-7.23733	-3.35326	-30.3932	-0.0346007	-0.321788
0.2113	109.921	65.8257	232.511	-3.14438	-3.60123	-9.06981	-5.48797	150.856	-1.24562	0
0.2120	78.1738	12.4356	22.8511	-1.91014	-4.20143	-8.76439	-3.9581	266.245	-0.934218	0
0.2127	44.2868	17.6309	-70.2458	-0.705282	-4.20143	-7.54275	0.613727	362.34	-0.0346007	0
0.2133	5.52342	-89.5362	-90.3271	0.822829	-3.28533	-5.71028	4.58072	500.616	1.17642	0
0.2140	-46.6256	-253.078	-284.446	1.43995	-2.40082	-4.18322	5.80817	486.556	1.79924	-0.321788
0.2147	-98.8244	-280.547	-631.135	-0.0881602	-3.60123	-5.09945	3.05974	110.896	0.899618	-0.321788
0.2153	-123.257	-210.079	-749.546	-1.29302	-4.83323	-6.62651	-0.604833	-294.365	0.276805	0
0.2160	-118.032	-156.633	-535.884	-2.23339	-4.83323	-7.54275	-5.48797	-526.622	-0.657413	0
0.2167	-100.964	-143.811	-231.357	-2.52726	-3.60123	-7.54275	-10.6735	-750.898	-1.24562	-0.321788
0.2173	-74.0934	-28.1873	86.0185	-1.91014	-2.40082	-6.01569	-12.8082	-850.112	-1.24562	-0.321788
0.2180	-40.5548	176.309	414.089	-3.14438	-3.28533	-7.23733	-13.7244	-670.342	-1.24562	-0.321788
0.2187	-17.3664	184.82	678.376	-4.96636	-4.20143	-7.84816	-11.5897	-414.299	-0.934218	-0.643577
0.2193	15.0277	31.0061	831.563	-4.05537	-3.28533	-5.40486	-6.40411	-191.239	-0.0346007	-0.643577
0.2200	69.3164	-79.422	773.32	-3.43825	-2.68513	-3.26698	-3.9581	132.567	-0.0346007	0
0.2207	123.356	-99.2636	580.125	-3.14438	-2.08492	-2.04533	-3.04195	420.642	-0.346007	0
0.2213	166.698	12.104	443.711	-3.14438	-1.76902	-2.96157	-4.26941	488.406	-1.24562	-0.321788
0.2220	186.204	82.6276	283.215	-3.7615	-2.68513	-6.3211	-6.70653	539.044	-2.76805	-0.321788
0.2227	181.327	7.24027	-11.3101	-4.05537	-3.28533	-8.15357	-6.40411	662.678	-2.76805	0
0.2233	163.613	-82.1854	-267.981	-3.7615	-4.20143	-7.23733	-4.57183	637.623	-2.76805	0
0.2240	130.373	-217.706	-384.236	-2.82113	-4.83323	-6.93192	-4.57183	368.154	-2.45665	0
0.2247	81.5575	-279.331	-418.705	-1.29302	-4.20143	-6.3211	-6.0928	-132.62	-1.86844	0
0.2253	38.2161	-86.7728	-247.207	-0.999149	-4.83323	-5.71028	-7.92509	-656.599	-1.55703	0
0.2260	26.6219	100.922	-13.7722	-1.61627	-6.66543	-6.62651	-9.15254	-865.335	-2.17984	0
0.2267	24.4822	97.2739	69.5534	-2.23339	-7.86584	-7.54275	-10.0687	-713.686	-2.76805	-0.321788
0.2273	17.1176	23.9869	41.7782	-0.999149	-7.58153	-7.54275	-12.2034	-330.678	-2.17984	-0.321788
0.2280	27.5176	-6.79812	-148.032	-0.0881602	-6.03364	-7.54275	-13.7244	-5.65578	-1.24562	-0.321788
0.2287	17.1176	1.437	-320.761	0.822829	-4.20143	-6.62651	-8.2364	65.7551	0.276805	0
0.2293	-38.1165	-77.3217	-324.147	2.96806	-2.68513	-5.09945	0.613727	39.1676	2.42205	0
0.2300	-67.3757	-221.63	-265.211	3.87905	-2.40082	-6.01569	4.2783	-7.82295	2.42205	-0.321788
0.2307	-45.4313	-284.803	-142.569	2.67419	-3.28533	-8.76439	3.66458	-45.6691	0.276805	-0.643577
0.2313	-26.8209	-276.567	44.8558	1.43995	-3.60123	-8.76439	3.97589	19.3459	-1.24562	-0.321788
0.2320	-20.9989	-210.355	268.519	0.205707	-1.76902	-3.26698	3.36216	199.697	-0.657413	-0.321788
0.2327	25.6764	-54.4402	449.789	-0.999149	-1.48472	1.3142	-1.52098	473.447	-0.657413	-0.643577
0.2333	106.537	136.018	476.025	-1.91014	-3.28533	2.52659	-3.65568	703.22	-1.24562	-0.321788
0.2340	138.284	362.456	466.254	-1.91014	-3.60123	1.91577	-5.48797	775.899	-2.17984	0
0.2347	122.112	490.957	593.82	-3.14438	-3.91712	2.22118	-22.8858	735.569	-3.07946	-0.321788
0.2353	136.792	282.813	676.222	-2.82113	-3.60123	7.10777	-33.5593	511.293	-1.86844	-0.321788
0.2360	153.859	-28.7953	567.891	0.528961	-2.08492	12.9106	-17.0865	137.747	1.79924	-0.321788
0.2367	116.639	-148.398	339.611	1.14608	-6.94974	11.9944	-2.73954	-39.5376	2.69885	-0.321788
0.2373	23.2382	-95.0079	-81.1713	-0.999149	-18.5748	8.32941	-5.79039	84.6253	1.17642	-0.321788
0.2380	-111.961	36.533	-430.015	-1.61627	-24.9559	18.0933	-15.5567	113.961	-0.934218	-0.321788
0.2387	-170.231	10.6117	-677.838	-1.61627	-24.9559	41.8969	-21.9697	-304.778	-2.17984	-0.321788
0.2393	-93.0024	-143.534	-1094.7	-0.999149	-23.1237	55.3258	-45.4603	-792.127	-1.24562	-0.321788
0.2400	-14.8784	-195.101	-1134.09	-0.999149	-22.2076	47.0889	-98.8724	-843.716	-1.86844	-0.321788
0.2407	-18.5607	-166.747	-572.2	-3.14438	-23.1237	30.3006	-128.171	-674.307	-6.12432	-0.321788
0.2413	-73.4963	-109.323	-47.3179	-4.34924	-29.2521	14.123	-110.16	-601.997	-8.26956	-0.321788
0.2420	-118.032	-134.36	214.2	-3.7615	-35.3489	-2.35075	-79.3398	-549.509	-7.64675	-0.321788
0.2427	-127.835	-182.61	386.929	-2.23339	-34.4328	-10.893	-46.3764	-478.68	-5.2247	0
0.2433	-118.679	35.5934	411.935	-1.61627	-33.5167	-18.5283	-20.4398	-495.806	-3.70227	0
0.2440	-61.9021	347.478	266.365	-2.82113	-32.9165	-34.6966	-30.2061	-500.087	-5.2247	-0.321788
0.2447	20.2028	475.371	87.865	-3.43825	-29.5364	-45.386	-51.5709	-260.8	-6.12432	-0.643577
0.2453	31.4984	497.037	30.4681	-2.52726	-25.2718	-48.4309	-48.8225	228.716	-4.60189	-0.321788
0.2460	-42.6945	473.547	223.356	0.205707	-17.943	-55.7608	-32.3408	746.88	-1.86844	-0.321788
0.2467	-114.101	410.043	458.637	2.67419	-6.03364	-66.441	0.0088946	1063.02	-0.0346007	-0.321788
0.2473	-115.594	341.675	590.819	0.528961	8.9083	-66.441	48.8314	901.278	-1.86844	-0.321788
0.2480	-62.2006	331.008	578.278	-2.52726	13.4888	-50.2634	79.0463	409.383	-4.29048	-0.321788
0.2487	-16.1224	346.87	244.745	-4.05537	-2.08492	-30.7355	71.4147	135.633	-5.53611	-0.321788
0.2493	-16.1224	302.323	-126.95	-5.26023	-17.943	-8.15357	59.5138	170.731	-5.53611	-0.321788
0.2500	-46.9242	208.034	-254.516	-5.26023	-16.1108	23.2853	51.5798	176.492	-2.45665	-0.643577
0.2507	-71.058	78.0402	-350.383	-4.34924	-3.91712	41.2861	3.05974	-153.076	2.69885	-0.965365
0.2513	-61.3049	-33.051	-604.899	-3.14438	5.8441	45.5619	-59.5049	-522.658	6.05512	-0.643577
0.2520	-24.9798	-91.0285	-1046.76	-3.43825	11.9725	50.7446	-76.289	-333.744	6.67793	0.321788
0.2527	5.87174	-191.453	-1325.67	-4.34924	16.2371	49.5322	-60.1097	135.633	5.46691	-0.321788
0.2533	1.8909	-310.448	-1056.23	-1.91014	22.6498	41.5915	-29.5923	171.629	6.05512	-0.643577
0.2540	-13.087	-381.579	-575.893	0.205707	26.9144	30.3006	10.38	-229.086	6.67793	-0.321788
0.2547	2.78659	-513.728	-166.036	-1.61627	17.1532	19.9258	40.8974	-637.412	3.63307	-0.321788
0.2553	38.5146	-535.67	390.315	-7.40546	1.57949	19.0096	73.247	-817.763	-3.39087	-0.321788
0.2560	51.95	-133.144	964.053	-16.868	-19.4909	26.941	98.2764	-672.192	-11.3144	-0.321788
0.2567	51.6514	307.518	1170.94	-22.3633	-53.355	31.8276	96.1328	-160.688	-14.0825	-0.321788
0.2573	94.6445	285.576	1107.16	-18.69	-79.2902	26.3302	77.5253	407.533	-9.48059	-0.321788
0.2580	169.136	97.8819	1091	-12.9008	-85.7029	41.2861	54.3282	633.659	-4.01368	-0.321788
0.2587	231.685	82.9039	760.471	-7.40546	-85.387	70.8926	57.0767	557.068	-0.657413	-0.321788
0.2593	236.263	132.646	-328.07	-1.61627	-80.2063	75.4645	90.3425	617.167	3.63307	-0.321788
0.2600	137.389	108.217	-1324.82	3.87905	-62.516	67.2276	119.632	938.543	8.51177	0
0.2607	-21.9444	29.1822	-1202.41	6.6414	-24.3557	48.616	130.315	826.537	11.5566	0
0.2613	-157.094	14.5358	-532.884	2.67419	22.6498	19.9258	125.743	-10.2544	9.13458	-0.321788
0.2620	-203.172	10.888	-247.207	-6.78834	53.1655	8.94024	118.111	-749.1	2.42205	-0.321788
0.2627	-186.104	-78.814	-139.491	-11.0788	69.9396	7.10777	110.177	-768.023	-1.24562	0
0.2633	-187	-190.237	114.101	-8.6397	78.7848	-15.7796	79.66	-476.566	0.588211	0
0.2640	-207.75	-280.878	113.794	3.87905	70.5398	-47.8201	21.3648	-484.811	6.98934	-0.321788
0.2647	-213.274	-264.685	-303.373	21.8931	54.0816	-70.0966	-33.8706	-596.817	15.2243	-0.321788
0.2653	-205.312	-61.1278	-407.164	27.6823	46.4369	-89.9392	-68.6574	-389.615	17.6809	0
0.2660	-183.965	111.92	-17.0806	24.9493	51.6176	-92.9933	-89.7109	-84.731	15.8471	0
0.2667	-122.013	19.7311	182.193	22.187	62.9267	-70.7075	-97.9562	141.13	13.7019	0
0.2673	-25.5769	-254.626	201.966	18.543	76.6682	-44.7752	-91.2408	440.781	13.0791	0
0.2680	69.3164	-473.105	443.711	17.6027	68.4233	-35.002	-74.1543	579.057	15.5357	-0.321788
0.2687	142.265	-438.949	942.048	13.9587	25.3981	-42.0265	-57.0589	478.046	14.0133	0
0.2693	180.083	-234.452	1386.68	6.6414	-12.162	-37.1399	-51.2596	498.449	8.51177	0
0.2700	198.395	-118.829	1323.21	2.05707	-15.5106	-17.9175	-51.5709	499.982	5.46691	-0.643577
0.2707	229.247	-24.8159	953.051	-1.29302	-12.7622	-17.3067	-44.8555	245.471	2.11064	-0.321788
0.2713	227.704	310.282	710.768	-3.7615	-30.7684	-28.5977	-21.9697	-32.5604	-1.24562	-0.321788
0.2720	129.427	561.149	470.563	-6.2006	-36.265	-35.3075	11.2961	-211.695	-2.76805	-0.321788
0.2727	-9.10617	428.061	-9.46357	-10.7555	-7.26564	-41.1103	24.1133	-331.313	-4.9133	0
0.2733	-91.5096	297.736	-653.679	-11.6959	25.3981	-38.0562	12.2123	-252.554	-4.01368	0
0.2740	-110.12	209.249	-979.98	-9.22744	44.9206	-29.2085	1.52987	142.927	-0.346007	0
0.2747	-119.574	17.9072	-796.863	-5.87735	55.5979	-1.1291	-11.5897	380.047	4.84409	-0.321788
0.2753	-140.026	-16.2492	-658.911	-0.705282	57.746	53.4933	-23.7931	187.169	10.9684	-0.321788
0.2760	-160.179	109.488	-852.722	4.17292	46.7528	90.7258	-21.9697	145.095	14.6015	-0.321788
0.2767	-187	98.7662	-1184.41	10.9025	25.3981	99.2681	-14.6405	298.594	15.8471	0
0.2773	-224.271	-33.3826	-1475.24	15.7807	-2.40082	96.2232	-9.45496	185.954	14.6015	-0.321788
0.2780	-266.667	17.2993	-1480.7	13.9587	-32.0004	77.9078	-0.302416	-2.96004	14.0133	-0.321788
0.2787	-264.527	118	-907.349	10.9025	-49.3747	56.2421	25.6431	-20.6145	14.9129	-0.643577
0.2793	-174.212	-116.673	-48.8566	9.0805	-48.7745	44.0348	53.1097	-174.431	12.4908	-0.643577
0.2800	-59.1652	-474.929	482.488	7.22914	-45.7103	28.1627	56.1605	-566.001	9.13458	-0.321788
0.2807	11.9425	-616.86	696.38	5.70103	-47.2582	-2.35075	42.7297	-798.205	7.30074	-0.321788
0.2813	43.6897	-496.594	847.413	6.02428	-43.8781	-25.2381	28.694	-689.582	7.30074	-0.321788
0.2820	56.5279	-287.29	751.315	6.02428	-34.4328	-28.9031	15.2631	-476.249	7.61215	-0.321788
0.2827	103.502	-219.198	157.111	3.26193	-22.8394	-37.1399	15.2631	-280.622	5.46691	-0.321788
0.2833	166.051	-167.024	-276.213	2.67419	-17.0269	-50.5688	30.215	-105.451	2.42205	-0.321788
0.2840	114.499	-137.123	-85.4799	6.02428	-10.93	-51.1796	43.6458	44.6648	0.899618	0
0.2847	6.46887	-160.005	204.736	6.31815	-2.40082	-41.7211	55.8581	145.095	0.588211	0
0.2853	-21.9444	21.2787	367.694	2.05707	6.15999	-35.9183	57.9928	-39.2733	2.11064	-0.321788
0.2860	0.646887	228.483	325.301	0.205707	15.321	-42.3319	47.9152	-377.669	6.05512	-0.321788
0.2867	-19.1578	252.912	77.7859	2.35094	21.7337	-48.7363	34.7957	-251.022	8.20036	-0.321788
0.2873	-121.416	357.592	-173.653	4.17292	29.9786	-44.4698	20.1463	293.995	8.82317	0
0.2880	-209.293	530.309	-591.127	3.26193	38.192	-34.0858	9.46386	492.687	8.82317	0
0.2887	-190.981	499.192	-844.72	0.205707	44.6047	-21.5824	10.6913	268.359	8.20036	-0.321788
0.2893	-132.711	323.988	-437.325	-0.382028	52.5337	-3.8778	11.2961	1.95574	11.2452	-0.321788
0.2900	-125.048	232.739	130.566	0.528961	53.7657	16.2609	-1.21856	-284.586	14.3247	-0.321788
0.2907	-118.38	309.674	470.563	0.205707	44.3204	33.3547	-14.6405	-472.601	12.8022	-0.321788
0.2913	-55.483	399.984	798.941	-0.705282	28.4307	44.3402	-18.6075	-408.802	10.9684	-0.643577
0.2920	2.78659	397.828	1085.16	-2.23339	6.47589	40.6753	-24.1044	-165.603	8.20036	-0.321788
0.2927	18.6602	367.928	1180.1	-2.82113	-8.49763	36.1034	-26.8528	176.228	5.1555	-0.321788
0.2933	39.7089	283.697	949.05	-2.52726	-10.6141	57.4637	-17.6914	469.483	4.84409	-0.321788
0.2940	79.4178	174.153	414.089	-3.14438	-7.86584	76.9915	-8.53882	585.453	4.25588	-0.321788
0.2947	72.4015	95.45	92.4814	-3.7615	-0.252718	71.198	5.80817	747.515	3.32166	-0.321788
0.2953	18.6602	-1.32646	19.5427	0.205707	10.7405	60.8232	36.9304	1024.91	4.25588	-0.321788
0.2960	-8.80761	-190.237	-116.025	6.93527	18.9854	46.4781	62.5646	1054.2	4.25588	-0.321788
0.2967	6.1703	-402.913	-146.493	5.40716	15.6053	23.5907	53.7145	810.045	3.01026	-0.321788
0.2973	27.219	-344.659	-292.986	-0.705282	6.15999	5.88612	26.5593	779.864	2.42205	0
0.2980	22.3425	-121.869	-711.691	-0.705282	7.39199	-3.26698	20.76	1068.26	1.48783	0
0.2987	20.7999	-120.929	-939.048	0.822829	11.3407	-14.2526	25.6431	912.272	0.899618	0
0.2993	41.2515	-176.198	-906.118	-0.705282	0.979281	-16.6958	13.1284	-101.223	1.17642	-0.321788
0.3000	48.2677	-65.1072	-653.987	-4.67249	-10.6141	-8.45898	-4.87424	-1152.83	1.48783	-0.321788
0.3007	68.4207	74.6688	-213.969	-6.2006	-14.2786	-8.76439	-18.9188	-1492.81	1.79924	-0.321788
0.3013	102.905	109.157	54.3194	-1.91014	-13.3625	-23.4057	-32.3408	-1285.61	4.53269	-0.321788
0.3020	49.5117	65.4941	223.048	3.58518	-3.60123	-49.0417	-39.9723	-916.342	7.61215	0
0.3027	-42.9931	44.7681	308.836	5.70103	8.9083	-63.6922	-40.5861	-566.001	8.51177	-0.321788
0.3033	-12.7884	1.10539	-12.8489	8.46338	22.9341	-46.5984	-39.0562	-326.397	9.13458	-0.321788
0.3040	34.8324	-108.438	-266.442	8.75725	36.6757	-19.4446	-34.1731	-262.333	8.82317	0
0.3047	-46.327	-166.084	-101.022	2.35094	31.7793	-2.35075	-31.4246	-264.765	4.84409	0
0.3053	-114.399	-193.277	63.7829	-1.29302	10.7405	17.1771	-27.76	-223.271	0.899618	-0.321788
0.3060	-90.5641	-227.157	-38.7776	-3.14438	-2.40082	32.4384	-13.422	-240.979	-2.17984	-0.643577
0.3067	-86.3345	-55.3245	-362.539	-4.67249	6.7602	26.941	-0.604833	-273.909	-3.70227	-0.321788
0.3073	-95.789	224.227	-513.033	0.528961	28.1464	12.9106	1.22745	-193.037	-0.657413	-0.321788
0.3080	-62.7978	261.424	-333.302	5.11329	47.9532	5.88612	-2.43712	-80.7667	2.42205	-0.321788
0.3087	-17.0181	117.116	-117.487	1.43995	56.8299	5.58071	-1.52098	-49.9506	2.11064	-0.643577
0.3093	15.9234	60.962	-26.2364	-2.52726	55.5979	16.8717	8.85902	-15.7516	1.17642	-0.965365
0.3100	22.9396	118.332	65.3217	-4.67249	51.3333	30.606	14.347	93.5054	-1.24562	-0.643577
0.3107	17.4659	175.369	289.293	-6.2006	40.0242	31.8276	10.6913	105.081	-4.29048	-0.321788
0.3113	54.9854	247.385	319.53	-4.34924	27.2303	19.0096	7.63157	-41.0705	-6.12432	-0.321788
0.3120	115.395	284.029	-41.2396	-2.23339	16.8373	5.27529	5.49686	-78.5995	-6.12432	-0.321788
0.3127	86.7326	233.071	-281.368	-1.91014	0.663384	3.74824	1.52987	137.747	-6.43573	-0.321788
0.3133	-22.2429	126.235	-152.648	-0.999149	-8.78194	4.35906	-1.52098	242.723	-5.53611	-0.321788
0.3140	-78.0742	-78.5376	-31.4683	0.822829	-7.58153	-1.1291	-4.87424	128.286	-3.07946	-0.321788
0.3147	-48.4667	-240.587	-95.8667	2.35094	-8.18174	-5.40486	-5.79039	204.295	-0.346007	-0.321788
0.3153	-14.2813	-258.881	-81.479	1.43995	-16.1108	-2.04533	-0.302416	373.652	-1.55703	-0.321788
0.3160	-1.79138	-411.148	130.874	-1.61627	-23.4396	4.05365	1.52987	317.517	-7.05854	-0.321788
0.3167	4.32916	-511.849	346.69	-2.82113	-26.5038	7.10777	-4.87424	123.106	-11.9372	-0.321788
0.3173	5.87174	-161.552	485.181	-1.29302	-32.9165	7.71859	-9.15254	-85.0482	-13.1483	-0.321788
0.3180	30.8515	98.1582	600.898	1.14608	-31.3686	9.85647	-4.57183	-278.19	-12.8369	-0.321788
0.3187	73.8943	2.32131	628.673	2.35094	-20.6913	13.8268	-1.52098	-402.723	-13.1483	-0.321788
0.3193	112.658	12.4356	552.042	0.528961	-15.5106	15.3446	-4.26941	-333.11	-14.9821	-0.643577
0.3200	149.879	-20.5602	515.726	0.528961	-9.09784	17.1771	-1.82339	-140.549	-13.4597	-0.321788
0.3207	149.282	-277.783	473.64	1.73382	-3.00102	19.6204	2.75733	-114.913	-11.003	0
0.3213	83.6474	-347.367	336.918	3.26193	-5.74933	22.6745	2.44602	-224.17	-9.20378	-0.321788
0.3220	15.0277	-190.237	180.654	5.40716	-9.09784	22.0637	1.22745	-181.778	-6.74713	-0.321788
0.3227	29.3587	-60.8515	59.1665	2.96806	-10.6141	15.65	-2.73954	-40.7533	-8.89237	-0.321788
0.3233	105.343	211.073	100.406	-0.999149	-10.0139	15.65	-7.62267	57.7735	-10.1034	-0.321788
0.3240	135.249	449.118	348.152	-2.23339	-8.18174	20.5366	-10.6735	164.599	-7.36994	-0.321788
0.3247	111.464	314.261	515.726	-3.43825	-5.74933	20.842	-17.0865	250.969	-6.74713	0
0.3253	114.499	118.332	313.375	-3.7615	0.347487	20.842	-20.1374	186.588	-7.64675	0
0.3260	117.236	13.9279	-320.761	-4.34924	4.01189	18.0933	-18.9188	-88.3782	-9.20378	-0.321788
0.3267	50.1088	-38.2463	-1010.45	-6.78834	7.0761	13.216	-17.3889	-119.511	-12.56	-0.321788
0.3273	-25.5769	32.8852	-1129.47	-8.02258	15.321	10.7727	-14.0357	332.74	-14.9821	-0.321788
0.3280	-65.236	24.9264	-825.254	-7.72871	21.4178	8.94024	-13.7244	443.847	-15.6049	-0.321788
0.3287	-84.7919	-138.947	-683.916	-4.67249	17.1532	8.32941	-14.3381	-106.984	-12.56	-0.321788
0.3293	-73.1977	-417.891	-672.606	-1.61627	9.8244	6.80235	-15.5567	-371.907	-9.20378	0
0.3300	-67.3757	-726.128	-528.883	0.528961	8.9083	4.05365	-18.9188	-93.2411	-7.95816	0
0.3307	-89.6684	-546.06	-433.093	2.96806	10.7405	4.35906	-20.1374	-39.2733	-5.84751	-0.321788
0.3313	-95.4904	24.6501	-546.271	4.17292	10.4246	4.35906	-20.4398	-270.579	-4.29048	-0.321788
0.3320	-66.7786	276.678	-540.193	4.79004	10.4246	5.27529	-18.3051	-341.99	-4.60189	0
0.3327	-38.1165	205.602	-306.758	3.58518	9.2242	4.66447	-17.3889	-274.543	-7.36994	0
0.3333	-11.2459	112.528	-104.715	0.205707	6.47589	1.3142	-19.8261	-195.204	-10.4148	0
0.3340	30.8515	98.4898	-7.61702	-1.29302	5.8441	-1.1291	-20.1374	-118.877	-10.7262	0
0.3347	46.7251	179.349	83.3256	-2.82113	5.8441	-4.48863	-21.6584	-84.731	-11.6258	-0.321788
0.3353	14.3808	324.596	228.28	-3.14438	6.15999	-6.3211	-19.8261	-0.47572	-11.6258	-0.321788
0.3360	-40.5548	456.137	362.539	-1.61627	7.6763	-6.3211	-12.8082	184.738	-11.3144	0
0.3367	-72.6006	424.413	359.154	-2.52726	7.9922	-7.84816	-10.9759	351.98	-14.9821	-0.321788
0.3373	-31.6974	263.248	209.045	-4.05537	7.39199	-9.68063	-9.15254	445.38	-18.027	-0.321788
0.3380	48.2677	115.844	77.1704	-3.43825	6.7602	-11.8093	-6.40411	391.94	-18.3384	0
0.3387	91.012	23.7105	-73.5543	-3.14438	7.6763	-10.2822	-1.82339	224.751	-15.6049	0
0.3393	76.034	13.0435	-246.591	-3.43825	10.1403	-5.71028	7.32915	174.959	-10.7262	-0.643577
0.3400	35.4295	-21.4445	-154.418	-3.14438	10.7405	-3.8778	7.32915	224.434	-7.64675	-0.321788
0.3407	15.3262	-128.28	83.0178	-0.999149	11.0564	-2.35075	1.22745	131.034	-5.84751	0.321788
0.3413	4.62773	-139.279	209.66	-1.61627	11.0564	-0.212863	-2.43712	-53.9149	-5.84751	-0.321788
0.3420	-17.3664	-36.6988	302.065	-0.705282	12.5727	4.35906	-3.9581	-149.112	-5.84751	-0.321788
0.3427	-17.665	69.8051	410.473	2.67419	16.2371	10.1619	-3.9581	-201.917	-5.53611	0
0.3433	24.4822	101.806	298.449	1.43995	16.8373	11.0781	-5.48797	-285.855	-10.1034	0
0.3440	74.1929	-8.34566	-97.0978	0.205707	15.9212	11.0781	-5.48797	-362.446	-12.2486	-0.321788
0.3447	89.7679	-169.456	-437.325	1.73382	15.0051	9.55106	-6.0928	-335.594	-8.26956	0
0.3453	78.7709	-200.572	-614.67	2.35094	14.6892	9.24565	-6.0928	-239.763	-4.9133	-0.321788
0.3460	68.7193	-128.28	-701.304	2.96806	16.5214	12.6052	-1.52098	-197.318	-2.76805	-0.321788
0.3467	61.1059	-91.0285	-650.678	1.43995	15.321	12.6052	0.0088946	-147.579	-2.45665	-0.321788
0.3473	46.4265	-94.0683	-467.254	-0.0881602	15.0051	11.3835	1.84118	-41.0705	-2.45665	-0.643577
0.3480	26.6219	-155.749	-236.82	-0.382028	15.321	10.7727	2.75733	27.9089	-3.39087	-0.321788
0.3487	6.1703	-219.198	31.6991	-0.705282	13.7731	10.1619	-0.604833	62.3722	-4.60189	0
0.3493	-26.5223	-155.749	299.987	-0.382028	14.4049	12.2998	0.613727	105.716	-3.70227	0
0.3500	-60.6581	-215.55	441.556	-1.29302	13.4888	11.0781	-0.907249	119.723	-5.2247	0
0.3507	-51.8504	-427.674	442.172	-2.82113	10.4246	7.71859	-6.0928	106.297	-6.74713	-0.321788
0.3513	-6.07078	-358.974	364.078	-3.14438	7.39199	5.27529	-8.53882	122.207	-5.84751	0
0.3520	22.641	-120.045	271.905	-3.7615	4.32779	1.91577	-11.2872	147.526	-6.43573	0
0.3527	18.9588	-76.7138	200.812	-2.52726	3.41169	2.52659	-9.75738	117.609	-3.70227	-0.321788
0.3533	-1.49282	-136.183	113.794	-0.382028	2.17969	2.832	-9.45496	96.8354	-0.0346007	-0.321788
0.3540	-16.421	28.2979	-4.92413	0.205707	0.979281	2.22118	-11.5897	142.927	-0.0346007	-0.321788
0.3547	-19.4564	388.709	-142.261	-0.705282	1.57949	4.05365	-9.15254	175.594	-0.657413	0
0.3553	-19.1578	434.803	-278.06	-2.52726	0.979281	4.05365	-9.45496	140.496	-3.07946	0.321788
0.3560	-8.21048	182.72	-343.381	-2.23339	2.17969	5.58071	-6.0928	65.1208	-3.39087	0
0.3567	7.66312	90.8627	-332.687	-1.91014	3.09579	6.49694	1.52987	16.9145	-2.45665	0
0.3573	16.2219	108.549	-263.364	-2.52726	0.979281	3.74824	0.925039	23.9446	-3.07946	0
0.3580	16.819	101.53	-105.023	-3.14438	-0.568615	1.3142	-1.52098	14.483	-4.01368	0
0.3587	15.0277	103.077	63.7829	-3.14438	-2.40082	-2.35075	-2.73954	-26.1117	-5.84751	-0.321788
0.3593	21.397	78.0402	156.803	-1.91014	-2.40082	-2.04533	-1.21856	-39.2733	-4.9133	-0.321788
0.3600	29.3587	51.1793	205.044	-3.14438	-1.16882	0.092549	1.52987	-30.3932	-4.29048	0
0.3607	21.0985	110.096	253.593	-5.87735	-1.76902	-0.823686	1.52987	-29.8118	-7.05854	0
0.3613	18.0631	188.8	283.753	-5.87735	-2.08492	-1.1291	3.05974	-24.5789	-7.64675	0
0.3620	29.9558	163.763	252.362	-6.49447	-3.91712	-3.8778	4.2783	-11.4701	-6.74713	-0.321788
0.3627	24.4822	104.569	194.657	-7.72871	-3.28533	-4.79404	7.32915	-14.5359	-6.74713	0
0.3633	10.7483	91.139	147.109	-8.02258	-1.48472	-2.04533	9.46386	-31.0275	-7.36994	0
0.3640	8.60857	86.5517	85.7107	-9.22744	-2.08492	-1.1291	5.80817	-7.18866	-6.74713	-0.321788
0.3647	0.646887	69.8051	31.6991	-9.84456	-1.16882	1.91577	4.2783	41.3348	-4.29048	0
0.3653	-5.12533	51.7873	-2.15431	-10.7555	-1.48472	2.52659	0.925039	43.1319	-3.70227	0
0.3660	13.4851	34.3775	-48.2411	-9.84456	-2.40082	1.3142	-7.00895	24.2089	-2.17984	0
0.3667	39.1118	16.3597	-111.716	-3.7615	-0.252718	3.13741	-10.6735	27.5918	4.25588	-0.321788
0.3673	49.5117	0.221077	-141.954	0.822829	0.663384	1.91577	-12.8082	20.8788	8.82317	0
0.3680	47.372	-2.81873	-114.794	1.73382	0.0631794	0.092549	-13.1195	-21.2488	9.41138	0
0.3687	34.5338	8.4562	-170.344	0.205707	-0.568615	-1.1291	-10.9759	-83.1981	9.41138	-0.643577
0.3693	23.8353	19.7311	-313.452	0.822829	-0.568615	-0.823686	-8.53882	-145.782	11.2452	-0.965365
0.3700	23.5367	-1.32646	-361.924	3.58518	0.0631794	2.52659	-3.9581	-186.324	12.8022	-0.321788
0.3707	16.819	-36.0908	-307.912	1.14608	-1.76902	2.52659	-0.302416	-180.826	8.20036	0
0.3713	10.1014	8.12458	-170.344	-0.705282	-1.76902	2.832	3.05974	-130.189	6.67793	-0.321788
0.3720	7.36455	74.0608	-12.2334	-0.0881602	-0.568615	4.35906	6.11059	-63.0593	7.88895	-0.321788
0.3727	10.7483	44.7681	52.4728	-1.61627	-0.252718	4.66447	10.38	2.53717	5.77831	-0.321788
0.3733	29.0601	-11.1091	97.3286	0.528961	1.26359	5.88612	19.8439	53.2278	5.46691	-0.321788
0.3740	33.3395	-11.1091	176.961	2.35094	0.347487	3.13741	23.1971	74.5823	2.69885	0
0.3747	20.7999	13.0435	231.588	3.87905	-0.852922	0.397961	19.5414	77.9124	-0.0346007	0
0.3753	7.96168	24.6501	248.669	5.70103	-0.852922	-1.1291	16.1793	69.9837	0.899618	-0.321788
0.3760	-6.96647	28.5742	261.518	4.17292	-2.40082	-2.65616	11.9099	50.4792	0.588211	0
0.3767	-5.72246	25.5344	252.977	3.58518	-0.852922	2.832	12.826	31.2389	2.11064	-0.321788
0.3773	8.31	15.4754	170.883	4.79004	0.347487	6.49694	11.2961	20.8788	4.53269	0
0.3780	16.819	7.51662	38.3929	5.40716	-0.852922	4.35906	2.44602	29.3889	5.46691	0
0.3787	20.2028	-4.08993	-83.3256	7.84626	-1.48472	2.832	-3.35326	55.6592	6.98934	-0.321788
0.3793	16.819	-23.8763	-164.805	9.0805	-1.76902	1.3142	-6.0928	80.0795	7.30074	-0.321788
0.3800	12.2411	-38.5227	-170.344	8.75725	0.347487	2.832	-2.73954	89.5411	8.82317	0
0.3807	11.3454	-51.0688	-127.566	8.14013	0.979281	4.05365	1.84118	85.5767	8.82317	-0.321788
0.3813	11.644	-65.9915	-93.7124	6.02428	-0.568615	2.22118	2.1436	77.9124	4.84409	-0.321788
0.3820	11.9425	-70.3025	-56.7814	3.87905	-0.252718	4.05365	3.97589	67.5522	2.42205	0
0.3827	11.0468	-64.4992	-26.5442	1.43995	0.663384	7.71859	5.80817	48.0477	1.48783	-0.321788
0.3833	14.6793	-58.696	-23.2358	2.05707	3.09579	13.216	9.16144	19.0288	3.01026	-0.321788
0.3840	15.6248	-55.3245	-38.7776	2.35094	4.32779	14.7338	7.02673	-13.003	3.32166	-0.321788
0.3847	11.644	-53.169	-60.7823	0.205707	2.17969	10.4673	-2.12581	-35.8904	0.899618	-0.321788
0.3853	15.3262	-50.7372	-62.8596	-0.0881602	1.57949	8.94024	-1.82339	-42.9205	0.588211	0
0.3860	18.0631	-49.8529	-43.6248	-1.61627	0.979281	7.10777	2.75733	-42.2862	-1.24562	0
0.3867	19.2573	-49.8529	-19.8504	-1.61627	0.979281	7.10777	5.80817	-26.746	-1.24562	0
0.3873	20.7999	-48.637	3.3084	-0.999149	3.09579	9.85647	9.16144	0.105716	-0.0346007	0
0.3880	11.0468	-50.1292	21.9278	-4.05537	2.49559	8.024	7.63157	13.2144	-3.39087	0.321788
0.3887	5.87174	-50.4608	32.6224	-2.52726	1.89538	6.19153	7.32915	10.783	-4.01368	0
0.3893	13.1865	-48.637	34.4689	0.822829	1.57949	5.58071	8.54771	3.17147	-1.24562	-0.321788
0.3900	19.9042	-43.718	37.2388	2.67419	1.26359	8.024	7.02673	5.02149	2.42205	-0.321788
0.3907	21.397	-35.8145	44.2403	3.87905	0.979281	9.24565	4.89203	14.483	5.77831	-0.321788
0.3913	14.6793	-30.0112	50.3185	4.17292	-2.40082	4.66447	-0.907249	12.9502	7.61215	0
0.3920	6.76743	-26.9714	56.1659	4.79004	-3.00102	5.88612	-3.35326	12.3159	10.9684	0
0.3927	2.48803	-26.3634	56.1659	4.49617	-1.76902	8.63482	-4.26941	19.3459	12.4908	0
0.3933	3.08515	-26.0318	55.8581	3.58518	-2.08492	8.63482	-2.43712	23.6274	11.868	0
0.3940	6.46887	-23.6	63.4752	4.49617	-2.40082	10.4673	4.89203	24.8432	13.7019	-0.321788
0.3947	4.0306	-24.8159	65.5525	3.26193	-4.51733	8.024	5.19445	23.3103	13.3905	-0.321788
0.3953	-0.547366	-26.3634	63.7829	2.96806	-6.03364	7.10777	1.84118	23.6274	12.1794	-0.321788
0.3960	-2.08994	-25.0923	65.3217	4.49617	-6.94974	7.71859	-0.302416	22.9931	13.7019	-0.321788
0.3967	-0.845929	-22.992	65.3217	6.6414	-7.58153	6.19153	-3.04195	22.676	17.3695	-0.321788
0.3973	-0.547366	-21.7761	62.2441	9.99149	-6.03364	5.88612	-2.73954	28.1732	21.6254	0
0.3980	-6.36934	-22.6604	59.1665	9.99149	-6.94974	2.22118	-6.70653	28.8075	20.103	0
0.3987	-10.6487	-21.1681	62.8596	4.49617	-8.18174	-1.73992	-9.45496	20.5617	12.8022	-0.643577
0.3993	-8.50905	-16.2492	67.3991	-3.14438	-7.86584	-2.35075	-4.57183	14.1659	5.77831	-0.965365
0.4000	-4.82677	-9.83793	65.3217	-4.67249	-6.34953	-0.518275	-0.907249	16.5973	-0.346007	-0.321788
0.4007	-3.63252	-5.30585	62.2441	-0.999149	-3.28533	2.52659	2.1436	22.4117	-1.86844	0
0.4013	-12.1416	-9.83793	59.4743	1.14608	-2.08492	1.00878	4.89203	23.9446	1.17642	-0.321788
0.4020	-25.2783	-17.4651	54.0116	0.822829	-2.40082	-0.823686	6.11059	26.0589	3.32166	0
0.4027	-30.4534	-18.4047	51.2418	0.528961	-2.08492	2.22118	7.63157	28.4903	4.84409	0
0.4033	-24.6812	-14.4253	53.7038	1.43995	-0.568615	6.19153	9.16144	27.2746	7.30074	0
0.4040	-19.1578	-10.7775	55.8581	1.73382	0.347487	8.024	8.54771	25.7417	8.20036	-0.321788
0.4047	-20.7004	-11.1091	54.3194	-0.705282	0.347487	6.19153	4.58072	22.0945	5.46691	-0.321788
0.4053	-23.4372	-11.9934	50.934	-3.14438	0.663384	5.88612	0.311311	17.4959	1.48783	-0.321788
0.4060	-22.8401	-11.1091	48.4719	-4.96636	2.81148	8.94024	-2.43712	16.9145	-1.86844	0
0.4067	-20.1032	-8.62201	49.703	-4.67249	6.7602	13.8268	-3.35326	19.3459	-3.07946	0
0.4073	-19.8047	-7.12974	50.0107	-3.43825	8.9083	14.7338	-3.35326	19.9802	-3.70227	0
0.4080	-24.0343	-6.52177	47.3179	-3.43825	7.6763	9.85647	-6.0928	18.4474	-4.9133	-0.321788
0.4087	-25.8755	-4.97423	47.3179	-2.23339	7.39199	7.10777	-9.45496	19.3459	-4.29048	-0.321788
0.4093	-24.9798	-3.4267	47.5487	-0.0881602	7.39199	6.80235	-11.8921	20.5617	-3.70227	-0.321788
0.4100	-23.7358	-2.81873	47.0101	-0.0881602	6.47589	5.88612	-11.5897	20.2445	-5.2247	-0.643577
0.4107	-22.2429	-1.93442	46.7023	-1.29302	5.55979	5.27529	-8.84123	20.5617	-5.53611	-0.321788
0.4113	-23.4372	-1.60281	44.2403	-1.61627	4.32779	3.74824	-12.2034	19.6631	-5.84751	-0.321788
0.4120	-24.3826	-2.21077	41.7782	-0.382028	3.09579	1.91577	-21.0535	16.9145	-6.74713	-0.321788
0.4127	-23.4372	-2.21077	39.6239	1.43995	2.49559	0.092549	-28.9875	14.483	-6.12432	-0.643577
0.4133	-21.5961	-1.60281	38.7006	3.58518	2.49559	-1.1291	-37.2239	13.5316	-3.39087	-0.321788
0.4140	-20.4018	-1.32646	38.162	5.40716	2.81148	-1.73992	-52.1757	13.2144	-0.346007	-0.321788
0.4147	-21.9444	-1.93442	36.0077	5.70103	1.57949	-2.96157	-66.2203	11.9987	-0.0346007	0
0.4153	-21.9444	-1.60281	34.7767	4.79004	0.979281	-1.43451	-62.5557	11.1001	-0.346007	-0.321788
0.4160	-20.9989	-0.718501	34.4689	3.58518	1.26359	0.703373	-50.9572	10.783	-0.346007	-0.321788
0.4167	-20.4018	-0.110539	33.2379	2.67419	0.663384	0.397961	-39.6699	11.7344	-0.657413	-0.643577
0.4173	-18.2621	1.437	34.4689	3.26193	0.979281	-1.43451	-30.2061	14.1659	0.276805	-0.321788
0.4180	-18.8592	2.92927	35.0845	2.96806	-0.252718	-2.96157	-24.4068	16.2802	1.48783	0
0.4187	-20.9989	3.5925	33.5457	1.43995	-2.08492	-3.57239	-24.4068	16.2802	2.11064	-0.321788
0.4193	-22.5415	3.26089	32.3146	1.43995	-3.00102	-5.40486	-43.3256	15.3816	3.63307	-0.321788
0.4200	-21.5961	4.47681	33.2379	3.87905	-3.00102	-6.3211	-61.0259	17.2316	6.05512	0
0.4207	-18.8592	6.63231	35.0845	5.11329	-2.08492	-5.40486	-58.2863	20.2445	7.88895	0
0.4213	-22.2429	6.3007	34.1612	3.26193	-2.68513	-8.15357	-54.3104	20.2445	6.98934	-0.321788
0.4220	-27.1195	6.02435	32.9301	2.67419	-3.91712	-10.2822	-50.9572	20.5617	6.67793	-0.321788
0.4227	-30.4534	5.69274	32.3146	2.96806	-5.11753	-9.68063	-38.4425	20.5617	8.51177	-0.321788
0.4233	-37.4697	6.02435	31.3914	3.58518	-5.43343	-7.54275	-19.5236	20.5617	8.82317	-0.643577
0.4240	-43.2916	8.12458	33.2379	4.49617	-3.28533	-5.09945	-7.92509	23.9446	9.72279	-0.643577
0.4247	-47.2725	8.73255	33.8534	3.26193	-3.00102	-7.54275	-11.8921	26.0589	8.51177	0
0.4253	-50.3079	8.73255	32.3146	1.73382	-3.91712	-10.893	-14.0357	26.6932	7.88895	0
0.4260	-53.0447	8.4562	30.4681	2.35094	-5.43343	-13.0309	-7.00895	27.2746	8.20036	-0.643577
0.4267	-60.6581	7.51662	29.0062	2.05707	-5.74933	-13.3363	-10.3711	26.9575	6.98934	-0.643577
0.4273	-61.9021	9.06416	29.5448	1.14608	-3.60123	-9.68063	-28.9875	30.0232	6.05512	0
0.4280	-47.571	8.73255	28.3907	0.205707	-3.28533	-9.06981	-40.5861	30.3404	3.94448	0
0.4287	-31.3989	7.24027	26.5442	0.205707	-3.28533	-9.98604	-25.0205	28.1732	3.63307	-0.643577
0.4293	-24.9798	7.51662	25.9286	1.43995	-2.08492	-9.06981	2.44602	29.3889	4.84409	-0.321788
0.4300	-20.9989	5.69274	21.9278	0.822829	-4.20143	-10.5876	9.16144	29.1246	2.42205	-0.321788
0.4307	-12.4401	5.08477	20.6968	1.14608	-4.83323	-9.06981	12.5147	28.8075	3.63307	-0.643577
0.4313	-1.79138	6.02435	22.2355	1.73382	-3.00102	-6.62651	19.2301	30.3404	5.1555	-0.321788
0.4320	17.4659	3.86885	19.5427	-0.382028	-2.40082	-7.23733	10.9937	29.3889	0.276805	-0.321788
0.4327	36.6735	3.26089	19.8504	-2.23339	1.26359	-1.73992	21.3648	32.1375	-2.76805	-0.321788
0.4333	54.6868	6.02435	25.0054	-5.58348	4.64369	3.44282	48.8314	38.8505	-4.9133	0
0.4340	81.2091	8.73255	29.5448	-8.93357	4.64369	3.74824	58.2952	44.6648	-7.64675	0
0.4347	79.0694	9.06416	31.6991	-6.49447	4.64369	3.74824	47.9152	49.5806	-4.9133	-0.321788
0.4353	61.4045	6.02435	28.3907	-3.14438	1.26359	-2.35075	16.4817	48.6292	-2.45665	-0.321788
0.4360	83.0503	4.80843	25.9286	-0.999149	-0.568615	-5.09945	-9.75738	45.2991	-0.934218	0
0.4367	84.8914	5.08477	28.6985	-0.382028	0.663384	-0.518275	-13.7244	42.2334	2.69885	-0.321788
0.4373	1.8909	2.65293	29.0062	-2.82113	-1.16882	-1.43451	-16.4728	35.5204	1.48783	-0.321788
0.4380	-95.4904	3.5925	30.7758	-4.34924	-1.76902	-0.212863	-9.45496	31.5561	0.588211	-0.321788
0.4387	-175.107	7.84824	38.7006	-6.78834	0.0631794	5.27529	5.19445	32.1375	-0.0346007	-0.321788
0.4393	-292.293	9.67212	44.2403	-9.55069	0.0631794	3.44282	14.6583	33.4061	-4.29048	-0.321788
0.4400	-371.363	13.6515	48.7797	-6.49447	0.979281	2.832	26.248	39.1676	-4.01368	-0.321788
0.4407	-342.651	18.5152	53.0883	-4.34924	2.81148	5.88612	16.793	44.3477	-0.934218	0
0.4413	-271.842	19.1232	50.6263	-5.26023	1.26359	3.44282	-14.6405	42.8677	-0.657413	-0.321788
0.4420	-160.776	18.2389	45.4713	-5.58348	-0.852922	-0.823686	-19.8261	39.1676	-1.24562	-0.321788
0.4427	-26.5223	15.4754	39.9317	-7.11159	-1.76902	-2.96157	-10.6735	35.8376	-2.76805	-0.321788
0.4433	47.0734	8.73255	32.0069	-8.31645	-2.40082	-3.8778	-23.1882	30.9218	-5.2247	0
0.4440	35.4295	2.32131	21.9278	-8.6397	-3.00102	-3.57239	-41.1909	25.7417	-6.74713	0
0.4447	-20.7004	-2.81873	13.6952	-8.6397	-3.00102	-2.65616	-42.107	22.0945	-7.05854	0
0.4453	-69.5154	-10.1695	5.15495	-7.40546	-2.08492	-2.35075	-22.8858	13.5316	-7.36994	0
0.4460	-42.9931	-20.2286	-5.84741	-7.72871	-2.40082	-4.48863	4.2783	-4.7572	-9.20378	0
0.4467	62.3001	-29.0716	-16.4651	-8.31645	-3.28533	-6.62651	14.0446	-20.9317	-10.4148	0
0.4473	149.879	-35.4829	-25.9286	-9.22744	-4.20143	-9.37522	-1.21856	-25.2132	-10.4148	-0.321788
0.4480	154.457	-37.3068	-31.1605	-10.4617	-4.83323	-12.4201	-16.1704	-19.0817	-11.003	-0.321788
0.4487	29.0601	-31.8351	-24.4668	-11.6959	-4.83323	-11.5038	-34.7868	-5.65578	-10.7262	-0.643577
0.4493	-118.679	-20.8365	-8.84805	-13.1946	-5.11753	-11.1984	-70.1873	6.23722	-10.7262	-0.965365
0.4500	-113.802	-9.22997	7.0015	-14.4289	-3.91712	-12.7255	-86.0553	8.66867	-11.003	-0.643577
0.4507	-7.26503	0.829039	21.3123	-14.7228	-2.40082	-13.3363	-95.8215	9.8844	-11.3144	-0.321788
0.4513	136.145	10.888	35.0845	-14.135	-2.08492	-15.1688	-129.995	15.963	-11.003	0
0.4520	291.497	17.2993	44.8558	-11.6959	-2.40082	-16.085	-134.273	25.7417	-8.58097	-0.321788
0.4527	391.914	20.9471	50.6263	-7.11159	-1.76902	-15.4742	-87.8876	34.8861	-4.60189	0
0.4533	423.313	27.6899	58.551	-1.91014	-1.16882	-17.3067	-44.2417	41.9162	-0.934218	0
0.4540	375.742	37.7489	68.6301	2.35094	1.26359	-20.0554	-33.2569	43.7662	2.11064	-0.321788
0.4547	141.37	36.533	65.014	5.70103	2.49559	-23.1002	-41.1909	30.9218	3.63307	-0.321788
0.4553	-228.202	18.8468	42.7015	11.5196	0.0631794	-25.5435	-40.8885	5.92007	5.77831	-0.321788
0.4560	-441.525	3.86885	25.0054	18.543	-1.76902	-24.6273	-18.9188	-10.2544	7.88895	-0.321788
0.4567	-470.237	3.26089	26.8519	17.0149	-2.40082	-22.7948	18.9277	-3.54147	6.67793	-0.321788
0.4573	-421.72	9.67212	39.0084	9.99149	-3.28533	-18.5283	56.4629	14.7473	3.63307	0
0.4580	-340.213	13.9279	45.1635	5.70103	-1.76902	-13.0309	88.8126	25.1603	0.899618	-0.321788
0.4587	-282.839	11.8276	40.2394	1.73382	-0.252718	-12.1147	117.498	21.196	-2.45665	-0.643577
0.4593	-175.406	4.80843	31.3914	-0.382028	1.26359	-9.68063	137.333	11.1001	-2.45665	-0.965365
0.4600	-53.9404	-3.15035	20.6968	-0.999149	1.89538	-5.40486	140.997	6.23722	-0.934218	-0.321788
0.4607	-0.845929	-7.12974	13.3875	-2.52726	2.17969	-3.26698	134.593	9.8844	-2.17984	0.321788
0.4613	149.282	-6.19016	14.003	-3.7615	3.72759	-2.35075	123.297	10.5187	-2.45665	0
0.4620	456.901	-8.62201	7.0015	-7.40546	2.49559	-7.23733	77.214	-2.32574	-5.84751	-0.321788
0.4627	679.679	-12.6014	-1.23103	-11.9898	1.89538	-9.37522	14.0446	-18.5002	-10.4148	-0.321788
0.4633	614.045	-9.56158	6.69375	-12.2837	4.928	-0.212863	-18.3051	-26.746	-10.4148	-0.321788
0.4640	263.432	-4.69789	16.1573	-14.135	5.24389	4.35906	-25.3229	-31.9261	-11.3144	-0.321788
0.4647	-169.932	-0.994847	19.5427	-17.1619	4.64369	3.44282	-10.9759	-27.9618	-12.2486	-0.321788
0.4653	-493.425	6.90866	25.9286	-17.4851	5.8441	5.27529	18.0116	-12.6859	-9.79199	0
0.4660	-610.014	14.5358	31.3914	-19.9242	3.09579	2.22118	36.628	-6.29007	-9.79199	0
0.4667	-456.204	19.7311	35.7	-24.5085	0.663384	-0.518275	58.9089	-9.35583	-10.1034	0
0.4673	-286.521	23.7105	39.0084	-26.9476	1.26359	-0.212863	98.2764	-11.4701	-8.26956	0
0.4680	-313.342	21.555	36.6232	-25.7134	-0.852922	-4.18322	111.094	-22.7817	-7.95816	-0.321788
0.4687	-458.643	16.9677	34.7767	-21.7462	-2.08492	-6.3211	108.648	-39.2733	-7.64675	-0.321788
0.4693	-649.673	13.9279	37.2388	-16.868	-0.252718	-5.09945	117.8	-46.2505	-5.2247	0
0.4700	-718.94	8.73255	37.8543	-11.3727	-1.16882	-9.68063	102.243	-43.8191	-3.07946	-0.321788
0.4707	-596.579	5.08477	36.0077	-4.67249	-2.08492	-15.1688	78.7439	-35.8904	-0.934218	-0.321788
0.4713	-455.856	1.71335	31.6991	-0.0881602	-1.48472	-16.6958	96.7466	-32.5604	1.17642	-0.321788
0.4720	-396.392	-8.34566	18.6194	1.14608	-4.20143	-20.6662	133.063	-42.6034	1.17642	-0.321788
0.4727	-319.761	-22.6604	-0.923275	2.67419	-6.66543	-21.277	137.644	-55.1307	1.48783	0
0.4733	-129.974	-35.4829	-17.6961	5.11329	-6.94974	-17.9175	112.615	-57.5621	3.63307	0
0.4740	17.4659	-44.9339	-31.4683	4.79004	-7.26564	-17.3067	74.1632	-57.5621	3.63307	-0.321788
0.4747	78.1738	-49.2449	-43.0862	4.79004	-6.66543	-18.2229	35.7118	-56.9278	3.32166	-0.643577
0.4753	289.059	-49.2449	-46.7023	2.96806	-6.66543	-18.8337	8.24529	-49.3163	1.48783	0
0.4760	574.385	-44.326	-42.4707	-0.705282	-6.94974	-19.1391	-17.3889	-31.6089	-1.55703	0
0.4767	736.455	-34.8749	-37.8543	-2.23339	-5.43343	-16.6958	-36.0053	-9.35583	-2.45665	-0.321788
0.4773	859.712	-21.1681	-34.5459	-2.23339	-1.48472	-12.1147	-35.3916	9.56726	-2.17984	-0.321788
0.4780	976.898	0.497423	-20.1582	-2.23339	4.32779	-6.62651	-18.9188	28.1732	-0.934218	-0.321788
0.4787	908.278	23.9869	3.92392	-2.52726	7.39199	-2.35075	-4.87424	47.4134	-0.934218	-0.321788
0.4793	707.146	36.8093	23.4666	-3.43825	6.7602	-1.73992	-7.32026	58.0907	-1.55703	-0.321788
0.4800	565.528	42.3363	32.9301	-4.34924	6.15999	-2.35075	-15.8591	57.1921	-1.55703	0
0.4807	239	47.8079	37.5465	-4.34924	7.0761	-0.518275	-19.2212	53.5449	-1.24562	-0.321788
0.4813	-318.567	47.5316	36.3155	-4.96636	8.3081	1.00878	-14.9429	48.6292	-1.86844	-0.321788
0.4820	-658.829	42.9442	36.6232	-5.87735	7.6763	0.092549	-20.1374	39.4848	-2.17984	-0.321788
0.4827	-800.746	44.7681	51.5495	-5.87735	6.15999	-1.1291	-45.4603	33.6704	-2.45665	-0.321788
0.4833	-917.932	51.4557	77.7859	-4.96636	4.928	-1.43451	-49.7386	30.9218	-2.45665	0
0.4840	-721.677	52.0637	93.3277	-3.14438	3.72759	-1.1291	-30.5085	20.2445	-1.55703	-0.321788
0.4847	-266.667	40.1808	81.7868	-2.23339	1.89538	-1.73992	-21.9697	-9.35583	-1.55703	-0.321788
0.4853	-11.2459	21.555	55.5504	-1.91014	1.26359	-1.73992	-13.7244	-51.4306	-2.17984	0
0.4860	16.819	6.3007	30.1603	-1.61627	0.979281	1.00878	-3.04195	-77.0666	-1.86844	-0.321788
0.4867	-13.9827	-2.21077	14.6185	-1.61627	0.347487	1.91577	-3.9581	-78.5995	-2.45665	-0.321788
0.4873	-148.585	-5.91381	13.6952	-4.34924	0.0631794	2.22118	-11.2872	-78.5995	-1.86844	0
0.4880	-327.723	-8.01404	17.6961	-11.3727	-0.852922	3.13741	-25.9367	-88.6953	7.61215	-0.321788
0.4887	-370.716	-9.22997	19.8504	-17.1619	-1.16882	4.35906	-32.3408	-98.474	22.5596	-0.643577
0.4893	-271.245	-8.95362	21.62	-15.957	0.347487	7.41318	-7.62267	-99.6898	28.6494	-0.643577
0.4900	-158.935	-5.5822	20.6968	-14.4289	0.979281	8.63482	17.7092	-90.2282	23.1479	-0.321788
0.4907	-75.636	0.221077	18.6194	-15.046	0.347487	7.10777	15.5744	-77.3838	11.2452	-0.643577
0.4913	-30.1549	-0.994847	11.5409	-13.8118	0.347487	6.49694	7.63157	-68.8737	1.17642	-0.643577
0.4920	-63.7432	-9.56158	-0.307758	-12.9008	-1.16882	4.96988	7.02673	-67.0237	-7.95816	0
0.4927	-104.945	-13.8173	-7.61702	-11.0788	-1.48472	4.66447	3.66458	-65.1736	-22.9056	0
0.4933	-81.1096	-13.8173	-14.0799	-7.40546	-0.568615	7.10777	-4.26941	-57.5621	-36.0539	-0.321788
0.4940	-27.7166	-16.8571	-28.3907	-4.34924	-2.08492	4.96988	-8.84123	-43.8191	-41.244	-0.321788
0.4947	28.4132	-19.9522	-44.2403	0.528961	-3.60123	2.22118	-16.7752	-25.8475	-40.3098	-0.321788
0.4953	93.4502	-21.1681	-56.4737	4.49617	-3.60123	2.22118	-17.0865	-16.9673	-32.9744	-0.321788
0.4960	157.542	-23.6	-61.3978	7.84626	-3.28533	1.3142	17.7092	-20.3502	-23.8399	-0.321788
0.4967	162.717	-20.5602	-53.3961	15.7807	-0.852922	2.832	56.4629	-18.5002	-7.95816	0
0.4973	96.4856	-13.2094	-39.7008	19.1308	1.57949	6.49694	46.3942	-10.8887	10.3456	0
0.4980	30.2544	-10.1695	-32.6993	13.9587	1.57949	7.10777	0.925039	-9.03868	14.9129	-0.321788
0.4987	23.8353	-6.79812	-26.8519	10.6086	1.26359	8.024	-26.5415	-4.7572	10.9684	0
0.4993	96.7842	2.04496	-14.6955	9.0805	0.347487	7.10777	-60.421	3.17147	6.36652	0
0.5000	165.155	10.888	-0.923275	9.37437	0.0631794	7.71859	-118.094	8.35153	3.63307	0
0.5007	181.924	14.8674	6.07823	10.9025	1.57949	10.4673	-141.291	12.9502	6.36652	0
0.5013	202.077	13.3199	4.53944	9.66824	0.0631794	7.71859	-132.441	18.1302	6.36652	-0.321788
0.5020	228.301	9.34051	4.23168	8.46338	-1.16882	4.05365	-121.144	19.9802	4.84409	-0.321788
0.5027	233.825	5.08477	6.69375	8.46338	-0.252718	5.27529	-119.926	15.0645	5.46691	-0.321788
0.5033	166.698	1.437	10.3868	6.93527	-0.852922	3.13741	-125.111	7.45295	4.53269	0
0.5040	56.5279	1.437	18.0039	7.22914	-0.852922	1.61961	-98.8724	5.92007	4.84409	0.321788
0.5047	98.6253	3.5925	22.8511	9.37437	1.26359	4.96988	-48.8225	9.25011	7.61215	0
0.5053	306.425	1.71335	12.772	8.14013	-0.252718	3.74824	-23.4906	7.1358	6.67793	-0.321788
0.5060	457.797	-2.21077	-6.77068	6.6414	-2.40082	0.092549	-9.45496	4.07005	5.46691	-0.643577
0.5067	430.329	-0.994847	-17.0806	7.55239	-1.16882	-0.212863	38.1578	9.25011	6.67793	-0.321788
0.5073	307.072	2.65293	-18.9271	7.84626	-0.852922	-1.1291	93.6957	17.8131	6.05512	0
0.5080	281.445	5.41639	-21.0814	7.84626	0.0631794	0.092549	125.743	27.9089	5.46691	0
0.5087	394.949	7.24027	-22.0047	7.84626	1.26359	2.832	137.946	36.1547	6.05512	-0.321788
0.5093	481.93	7.51662	-19.5427	5.70103	-0.252718	1.91577	115.363	32.7718	4.25588	0
0.5100	430.677	9.94847	-11.6179	5.40716	1.57949	4.96988	83.627	25.1603	3.01026	-0.321788
0.5107	327.822	13.3199	-1.84655	5.70103	6.15999	9.85647	86.3755	21.196	2.42205	-0.321788
0.5113	147.142	15.1438	3.3084	3.58518	7.0761	9.24565	105.597	18.1302	-0.346007	0
0.5120	-253.878	21.2787	11.5409	4.79004	8.3081	11.6889	110.782	18.7117	0.588211	0
0.5127	-508.055	27.9663	21.9278	7.22914	9.5085	13.5214	101.63	21.7774	4.53269	-0.321788
0.5133	-299.011	31.9456	27.7752	7.84626	7.0761	9.24565	77.8278	21.4603	6.05512	0
0.5140	-38.1165	36.8093	34.1612	9.37437	5.8441	8.024	42.4272	20.5617	6.98934	0
0.5147	-54.2887	38.6885	38.162	10.2854	7.0761	7.71859	8.24529	15.6988	7.88895	-0.321788
0.5153	-149.779	32.8852	30.4681	9.37437	5.8441	4.66447	-29.5923	8.66867	6.67793	-0.321788
0.5160	-126.889	24.3185	17.0806	9.66824	5.24389	5.88612	-58.8912	-0.792867	6.67793	-0.321788
0.5167	-92.7038	11.496	4.23168	9.37437	3.41169	6.19153	-64.6904	-20.3502	6.05512	-0.321788
0.5173	-164.757	-2.21077	-6.77068	7.22914	1.57949	4.96988	-81.777	-37.4233	3.94448	0
0.5180	-223.972	-9.22997	-16.7728	6.6414	1.89538	5.88612	-114.127	-41.3876	3.94448	0
0.5187	-141.22	-13.2094	-30.545	5.70103	0.979281	4.35906	-117.791	-42.2862	2.69885	-0.643577
0.5193	-29.5577	-14.7569	-43.9325	5.40716	0.0631794	4.35906	-105.588	-40.1719	1.48783	-0.965365
0.5200	-40.2065	-12.933	-50.7032	6.6414	0.0631794	5.88612	-103.142	-31.9261	3.63307	-0.321788
0.5207	-103.999	-14.1489	-55.2426	5.11329	-2.08492	3.74824	-94.2917	-27.0632	3.94448	-0.643577
0.5213	-106.438	-18.0731	-59.859	2.96806	-3.60123	1.91577	-68.9598	-24.5789	2.42205	-0.321788
0.5220	-89.6684	-19.9522	-61.3978	3.58518	-2.40082	0.397961	-40.2748	-18.8174	2.11064	0
0.5227	-95.789	-18.0731	-60.7823	2.67419	-1.48472	-2.04533	-13.1195	-9.67297	1.48783	-0.321788
0.5233	-59.1652	-12.325	-55.8581	-0.999149	-0.852922	0.092549	21.6761	1.95574	0.276805	-0.321788
0.5240	20.5013	-7.7377	-49.7799	-4.96636	-0.252718	4.96988	43.6458	9.56726	-0.657413	-0.321788
0.5247	89.4694	-6.52177	-43.0862	-7.72871	0.0631794	7.71859	45.7805	11.1001	-2.17984	-0.321788
0.5253	163.314	-2.21077	-29.314	-9.22744	0.979281	8.024	74.4656	10.5187	-4.9133	0
0.5260	217.354	5.69274	-13.1567	-7.72871	3.09579	8.024	122.381	14.1659	-6.12432	0
0.5267	213.074	15.7517	0.923275	-1.61627	5.55979	8.63482	128.794	24.8432	-3.07946	-0.321788
0.5273	243.578	25.2581	10.6946	5.11329	7.9922	9.85647	113.833	31.2389	2.11064	-0.321788
0.5280	390.67	32.5536	18.6194	9.0805	10.4246	7.71859	119.028	29.1246	4.53269	-0.321788
0.5287	551.794	39.2965	29.237	9.37437	13.1729	2.832	111.094	26.0589	3.63307	-0.321788
0.5293	594.538	41.3967	35.3922	7.55239	14.6892	1.00878	69.28	22.9931	0.899618	-0.321788
0.5300	470.635	38.0253	32.0069	4.79004	14.6892	2.832	23.5084	21.4603	-2.17984	0
0.5307	199.639	36.8093	26.2364	5.11329	14.6892	4.96988	5.80817	23.6274	-2.17984	0
0.5313	13.7837	35.3171	18.6194	7.22914	13.1729	4.96988	13.4308	19.9802	-1.24562	0
0.5320	-44.1873	28.5742	7.30926	7.84626	10.1403	1.00878	23.1971	12.3159	-1.86844	0
0.5327	-135.15	21.8866	-1.53879	8.14013	8.3081	-1.43451	28.3916	10.5187	-1.55703	-0.321788
0.5333	-117.136	16.3597	-6.77068	9.37437	7.39199	-2.65616	25.9456	9.25011	0.588211	-0.321788
0.5340	57.1251	8.4562	-13.1567	11.1963	6.47589	-2.96157	22.281	-0.211431	3.01026	0
0.5347	147.739	0.829039	-18.3116	13.0477	5.8441	-1.1291	28.3916	-17.6016	5.1555	-0.321788
0.5353	107.781	-4.08993	-20.7737	12.7245	4.01189	-1.1291	34.7957	-39.2733	5.1555	-0.321788
0.5360	102.905	-8.95362	-23.2358	9.66824	0.663384	-1.73992	27.7778	-56.3464	1.48783	0
0.5367	146.545	-11.1091	-23.5435	5.40716	-2.40082	0.092549	17.0954	-59.9936	-2.17984	-0.321788
0.5373	174.908	-9.83793	-21.3892	1.73382	-4.20143	3.44282	24.4246	-54.4964	-4.9133	-0.321788
0.5380	199.042	-7.7377	-20.4659	0.822829	-5.43343	6.80235	36.3256	-48.7349	-6.74713	-0.321788
0.5387	197.499	-7.7377	-21.0814	-0.705282	-6.03364	7.41318	38.7627	-45.9863	-8.89237	-0.321788
0.5393	109.324	-8.34566	-21.0814	-3.14438	-7.86584	6.80235	49.4451	-43.2377	-10.4148	0
0.5400	-71.6551	-6.19016	-19.2349	-3.14438	-9.09784	7.41318	53.4121	-35.8904	-10.4148	0
0.5407	-225.166	-4.97423	-19.2349	-2.82113	-9.09784	6.49694	30.215	-28.5432	-10.4148	-0.321788
0.5413	-245.618	-5.91381	-21.3892	-4.05537	-8.78194	4.35906	6.11059	-25.5303	-11.6258	0
0.5420	-182.123	-6.19016	-20.4659	-4.96636	-7.86584	4.66447	3.36216	-24.5789	-12.56	0
0.5427	-110.717	-1.32646	-13.7722	-4.05537	-5.74933	4.66447	15.8769	-20.6145	-14.6707	-0.321788
0.5433	7.96168	6.02435	-5.53965	-4.34924	-3.91712	3.13741	6.72432	-11.4701	-16.8159	0
0.5440	167.593	8.4562	-4.30862	-5.87735	-2.08492	2.52659	-64.6904	-4.44005	-16.5045	0
0.5447	272.289	5.69274	-11.0024	-5.87735	-1.16882	0.703373	-140.375	-5.07435	-14.9821	-0.643577
0.5453	332.699	1.71335	-17.3883	-3.14438	-1.16882	-3.26698	-159.605	-6.29007	-12.56	-0.321788
0.5460	367.183	-0.994847	-21.3892	3.26193	-1.16882	-6.01569	-151.662	-3.85862	-7.36994	-0.321788
0.5467	335.436	-4.08993	-24.4668	13.9587	-1.16882	-9.37522	-133.357	1.05716	1.17642	-0.321788
0.5473	291.198	-4.08993	-18.9271	24.9493	-1.76902	-14.2526	-100.393	7.1358	8.20036	0.321788
0.5480	308.266	0.829039	-4.00086	32.2666	-0.852922	-17.9175	-46.074	9.25011	12.8022	0
0.5487	352.852	6.02435	7.0015	35.9106	0.347487	-17.6121	23.5084	11.1001	16.7467	-0.321788
0.5493	362.605	8.4562	7.0015	36.5277	1.57949	-13.6417	65.9268	17.2316	20.4144	-0.321788
0.5500	208.497	7.84824	2.07737	33.1776	0.979281	-12.4201	55.2444	19.6631	20.103	0
0.5507	-196.156	6.90866	-0.307758	27.3884	-1.16882	-13.9471	34.7957	16.9145	17.6809	0
0.5513	-577.67	9.67212	2.69289	21.5699	-2.08492	-11.8093	29.9125	17.4959	16.4353	-0.321788
0.5520	-644.15	12.7119	7.0015	17.9259	-3.28533	-9.98604	18.0116	20.5617	14.0133	-0.643577
0.5527	-513.877	17.2993	13.0797	21.8931	-2.68513	-10.2822	19.5414	22.0945	10.657	-0.643577
0.5533	-347.527	21.8866	17.6961	29.5043	-0.852922	-10.5876	21.9786	20.2445	10.657	-0.321788
0.5540	-178.789	20.9471	13.6952	34.0886	-0.568615	-12.4201	-0.907249	10.783	11.2452	-0.321788
0.5547	-141.867	20.3391	7.61702	35.9106	0.347487	-13.3363	-19.5236	4.70434	10.657	-0.321788
0.5553	-225.166	23.1026	7.61702	35.9106	1.26359	-11.5038	-50.3434	8.03438	10.0342	-0.321788
0.5560	-230.988	27.0819	14.6185	34.4119	1.89538	-7.84816	-87.8876	11.7344	8.82317	-0.321788
0.5567	-153.76	27.9663	21.62	36.5277	3.09579	-3.26698	-81.1721	10.5187	7.88895	0
0.5573	-88.7727	19.7311	18.9271	40.2011	0.979281	-2.65616	-52.487	0.105716	5.46691	-0.321788
0.5580	-22.8401	5.69274	8.5403	41.112	-4.20143	-5.40486	-36.6102	-17.2845	0.276805	-0.965365
0.5587	50.706	-5.30585	0	38.6729	-6.94974	-5.09945	-16.1704	-27.0632	-4.01368	-0.643577
0.5593	102.606	-11.3855	-5.84741	32.2666	-7.86584	-2.96157	14.6583	-29.1775	-6.74713	0
0.5600	126.392	-16.2492	-11.6179	24.6261	-8.78194	-2.65616	59.8251	-34.0404	-8.89237	0
0.5607	125.795	-19.6206	-12.8489	16.0745	-8.18174	0.092549	113.833	-37.4233	-8.89237	0
0.5613	119.077	-20.8365	-11.0024	4.49617	-8.49763	2.52659	135.812	-34.6747	-11.003	-0.321788
0.5620	106.886	-19.9522	-8.23254	-3.14438	-9.09784	3.44282	144.35	-26.746	-13.1483	-0.321788
0.5627	77.5766	-15.0332	-3.07758	-3.43825	-6.34953	4.96988	159	-18.5002	-11.3144	0
0.5633	55.2839	-10.1695	2.69289	-5.87735	-3.00102	3.44282	140.081	-13.9016	-9.48059	-0.321788
0.5640	66.5796	-6.52177	6.69375	-8.93357	0.0631794	2.22118	86.6779	-8.40439	-7.64675	-0.321788
0.5647	83.6474	-3.75831	8.5403	-8.93357	1.26359	1.00878	36.9304	-1.42716	-4.60189	0
0.5653	75.4369	-2.81873	7.30926	-15.046	0.347487	-2.65616	22.5923	2.53717	-4.60189	0
0.5660	77.2781	-1.60281	8.5403	-20.8352	0.979281	-2.96157	30.5263	4.70434	-6.12432	-0.321788
0.5667	112.061	0.829039	11.8487	-23.2743	3.09579	0.703373	25.6431	6.81865	-6.12432	-0.321788
0.5673	117.833	2.04496	14.003	-31.8258	5.24389	5.58071	10.0776	7.1358	-7.95816	-0.321788
0.5680	72.7001	2.92927	14.9263	-33.6478	6.7602	7.71859	5.19445	8.66867	-5.53611	-0.321788
0.5687	41.8486	2.92927	13.6952	-24.5085	5.24389	1.61961	10.38	10.783	0.899618	0
0.5693	36.6735	1.10539	10.9254	-18.1022	2.17969	-7.23733	20.76	10.783	5.1555	0
0.5700	22.3425	0.221077	11.2332	-12.6069	1.57949	-11.1984	32.0472	11.1001	7.61215	0
0.5707	4.0306	-1.32646	11.8487	-5.87735	1.26359	-13.3363	41.2087	7.45295	9.72279	-0.321788
0.5713	3.08515	-3.75831	11.2332	-0.0881602	0.663384	-14.558	57.6815	2.85432	12.8022	0
0.5720	6.76743	-4.36627	9.77133	4.17292	1.26359	-13.9471	72.6422	4.07005	14.3247	0
0.5727	34.2352	-5.91381	5.77047	6.02428	1.26359	-15.4742	63.7921	7.1358	11.868	-0.321788
0.5733	104.099	-8.01404	2.69289	10.9025	0.663384	-15.7796	34.4933	9.25011	10.3456	-0.321788
0.5740	146.246	-8.01404	2.69289	18.543	1.26359	-12.7255	1.22745	12.3159	11.2452	-0.321788
0.5747	158.139	-4.97423	6.38599	22.5102	3.09579	-8.15357	-25.0205	16.2802	10.0342	-0.321788
0.5753	190.185	-0.110539	12.4642	22.5102	4.32779	-4.79404	-28.9875	20.2445	6.98934	-0.321788
0.5760	198.395	2.65293	15.5418	22.187	3.09579	-3.57239	-17.3889	21.7774	5.1555	0
0.5767	178.59	4.80843	20.0812	20.6589	0.663384	-3.26698	-12.8082	22.9931	3.01026	0.321788
0.5773	188.344	9.34051	27.7752	18.2198	0.979281	-1.43451	-18.3051	26.0589	0.899618	0
0.5780	226.211	12.104	29.5448	16.6917	2.17969	-0.212863	-29.5923	26.9575	-0.657413	-0.321788
0.5787	205.411	12.4356	27.1597	15.4868	2.81148	1.3142	-34.7868	25.4246	-0.934218	-0.965365
0.5793	94.6445	12.7119	27.1597	11.5196	3.41169	3.44282	-28.9875	23.9446	-2.45665	-0.965365
0.5800	13.1865	11.8276	25.0054	2.05707	2.49559	2.832	-22.2721	20.8788	-5.84751	-0.321788
0.5807	-56.727	9.06416	19.2349	-8.6397	1.26359	2.52659	-17.3889	17.8131	-8.89237	0
0.5813	-151.322	8.12458	16.7728	-18.3961	1.26359	4.05365	-10.0687	16.5973	-11.003	-0.321788
0.5820	-143.061	8.12458	18.6194	-29.3867	1.57949	5.27529	-1.52098	15.6988	-12.8369	0
0.5827	-68.3212	7.84824	19.5427	-34.2649	2.81148	4.96988	3.36216	10.783	-9.79199	0
0.5833	10.1014	9.06416	21.3123	-28.7696	3.09579	2.832	5.49686	3.17147	-5.2247	-0.321788
0.5840	69.9135	12.4356	23.1588	-20.5413	3.09579	-0.823686	10.38	1.32144	-1.24562	-0.643577
0.5847	5.87174	13.6515	21.0045	-12.9008	2.49559	-5.40486	11.2961	2.85432	3.94448	-0.321788
0.5853	-85.6876	10.6117	14.6185	-3.14438	0.347487	-10.5876	7.02673	-0.211431	10.3456	0
0.5860	-74.0934	8.12458	11.8487	7.84626	-0.568615	-12.7255	6.72432	-3.85862	16.1585	0
0.5867	-48.4667	9.34051	13.3875	15.7807	-0.852922	-11.5038	11.2961	-2.0086	19.5148	-0.321788
0.5873	-52.7461	11.2197	13.0797	17.0149	-3.00102	-12.4201	13.1284	5.28578	18.5806	-0.321788
0.5880	-45.7299	9.34051	9.46357	15.4868	-4.83323	-13.9471	10.9937	8.03438	15.8471	-0.321788
0.5887	-24.0343	4.20046	3.61616	15.1636	-5.43343	-13.0309	10.6913	0.105716	14.9129	-0.321788
0.5893	5.52342	-1.93442	-1.84655	15.4868	-5.74933	-12.1147	11.9099	-9.03868	15.2243	-0.321788
0.5900	31.4984	-4.36627	-3.38534	16.3978	-5.11753	-10.5876	13.1284	-10.5716	16.7467	0
0.5907	41.55	-4.08993	-2.76983	16.3978	-4.83323	-9.06981	10.6913	-14.2187	16.4353	-0.321788
0.5913	33.3395	-5.5822	-3.07758	13.0477	-6.03364	-9.98604	2.44602	-23.0988	13.7019	-0.321788
0.5920	18.6602	-4.97423	-2.46207	9.37437	-6.34953	-9.06981	-6.40411	-23.6803	11.5566	-0.321788
0.5927	17.7645	-2.54239	-1.84655	5.40716	-6.03364	-6.62651	-18.0027	-16.9673	9.72279	-0.321788
0.5933	36.3749	-1.32646	-1.53879	2.67419	-5.43343	-5.40486	-23.7931	-12.1044	7.61215	0
0.5940	54.9854	-0.994847	-0.615517	4.79004	-3.28533	-3.57239	-13.7244	-7.5058	7.61215	-0.321788
0.5947	56.8265	-1.93442	-1.23103	6.02428	-3.28533	-2.96157	-10.0687	-3.22432	5.77831	0
0.5953	45.8294	-2.81873	-1.53879	5.11329	-4.51733	-4.18322	-16.1704	-1.69145	3.01026	0
0.5960	33.9367	-2.54239	0.615517	6.6414	-3.91712	-2.96157	-14.3381	0.105716	1.48783	-0.321788
0.5967	35.4295	-1.93442	-0.307758	8.75725	-3.28533	-1.43451	-8.2364	2.53717	-0.346007	-0.321788
0.5973	43.9883	-1.93442	-2.46207	8.14013	-3.28533	0.092549	-3.35326	6.50151	-2.45665	0
0.5980	57.1251	-2.21077	-3.6931	4.79004	-2.40082	2.52659	-2.73954	9.8844	-4.29048	-0.321788
0.5987	105.94	-3.75831	-6.46293	-2.82113	-2.08492	3.74824	-11.8921	10.5187	-7.05854	-0.321788
0.5993	174.908	-3.75831	-7.30926	-12.6069	-2.40082	4.96988	-20.7422	12.9502	-10.1034	0
0.6000	168.489	-0.994847	-4.61638	-20.2181	-1.48472	5.88612	-23.4906	16.2802	-12.56	-0.321788
0.6007	69.9135	3.86885	-0.307758	-21.1291	-0.568615	5.58071	-22.8858	18.4474	-13.1483	-0.321788
0.6013	35.1309	9.67212	5.46271	-17.4851	1.26359	6.49694	-18.0027	22.0945	-11.6258	-0.321788
0.6020	59.5633	12.104	8.5403	-14.135	1.89538	6.49694	-12.5058	24.8432	-9.20378	-0.321788
0.6027	-19.4564	12.7119	11.8487	-10.1678	0.979281	4.96988	-9.75738	27.2746	-6.12432	-0.321788
0.6033	-84.4933	13.6515	16.1573	-7.11159	0.347487	3.13741	-9.45496	30.9218	-3.70227	0
0.6040	-32.2946	13.6515	15.8496	-7.40546	-0.568615	0.397961	-10.0687	33.089	-3.07946	-0.321788
0.6047	18.3616	13.0435	12.772	-6.78834	-0.852922	-1.1291	-7.92509	34.6218	-1.24562	-0.321788
0.6053	24.1836	10.6117	8.5403	-4.34924	-2.08492	-1.43451	-9.15254	31.5561	3.32166	0
0.6060	-10.9473	5.69274	4.53944	-2.82113	-3.60123	-3.57239	-14.6405	22.4117	7.30074	0
0.6067	-30.752	6.90866	8.5403	1.73382	-3.91712	-6.62651	-18.9188	19.9802	11.2452	-0.321788
0.6073	7.96168	13.9279	18.0039	7.55239	-3.28533	-7.23733	-22.8858	26.6932	13.7019	-0.321788
0.6080	-24.9798	18.2389	25.0054	10.6086	-3.60123	-6.62651	-24.7092	30.0232	13.3905	-0.321788
0.6087	-165.354	21.2787	32.6224	11.1963	-3.00102	-5.40486	-23.4906	23.6274	14.0133	-0.643577
0.6093	-278.261	23.9869	37.5465	11.8135	-1.48472	-4.18322	-24.4068	9.25011	14.9129	-0.643577
0.6100	-340.213	21.555	34.7767	12.4306	-1.48472	-5.09945	-28.0714	-5.97293	14.0133	0
0.6107	-386.291	18.5152	32.3146	12.1073	-2.08492	-6.01569	-28.0714	-12.6859	12.4908	0
0.6113	-367.979	17.6309	31.3914	9.99149	-2.68513	-5.71028	-24.1044	-11.4701	10.9684	-0.321788
0.6120	-221.832	16.9677	26.5442	8.46338	-2.40082	-4.18322	-18.6075	-10.5716	10.0342	-0.321788
0.6127	-33.5386	13.6515	18.3116	8.46338	-2.08492	-2.96157	-14.6405	-11.4701	10.0342	0
0.6133	69.6149	5.69274	7.92478	7.84626	-2.08492	-2.96157	-13.422	-21.2488	8.51177	0
0.6140	102.308	-4.69789	-4.92413	6.6414	-2.08492	-2.04533	-12.2034	-35.8904	6.98934	-0.321788
0.6147	101.959	-12.325	-15.311	4.79004	-3.00102	-2.96157	-13.422	-41.3876	5.46691	-0.321788
0.6153	79.7163	-15.6412	-18.6194	3.87905	-4.20143	-4.48863	-15.2542	-40.7533	3.94448	-0.321788
0.6160	64.1413	-17.1887	-17.3883	4.17292	-3.91712	-2.65616	-8.53882	-42.0219	4.25588	-0.321788
0.6167	44.5854	-16.5808	-14.6955	2.67419	-2.68513	-0.823686	-3.65568	-39.5376	3.32166	-0.321788
0.6173	-24.3826	-13.541	-11.3101	0.205707	-2.40082	-2.04533	-7.92509	-31.0275	1.79924	-0.321788
0.6180	-75.3374	-8.62201	-8.23254	-0.382028	-1.76902	-2.04533	-10.0687	-23.3631	1.17642	-0.321788
0.6187	-31.3989	-4.08993	-4.92413	-1.61627	-2.08492	-2.04533	-10.6735	-21.2488	-0.657413	-0.321788
0.6193	39.1118	-0.994847	-0.307758	-1.29302	-1.76902	-1.1291	-11.8921	-16.3859	-2.17984	-0.321788
0.6200	82.1546	2.32131	3.00064	1.14608	0.347487	1.3142	-11.5897	-6.60722	-1.86844	0
0.6207	92.8033	5.08477	2.69289	2.67419	0.347487	3.13741	-14.3381	0.422862	-3.39087	0
0.6213	80.3135	4.80843	2.07737	2.35094	-0.852922	4.05365	-18.3051	3.17147	-4.29048	-0.321788
0.6220	96.4856	4.80843	3.61616	0.205707	-0.852922	4.96988	-21.3559	4.70434	-4.9133	-0.321788
0.6227	101.959	8.4562	7.92478	-1.29302	-0.568615	6.19153	-20.1374	5.28578	-6.43573	-0.321788
0.6233	24.1836	12.4356	13.6952	-0.0881602	0.663384	8.63482	-11.5897	7.1358	-5.53611	-0.643577
0.6240	-41.1519	11.2197	15.234	-0.0881602	1.89538	10.4673	-8.53882	6.81865	-4.01368	-0.321788
0.6247	-14.2813	7.24027	11.5409	-2.82113	1.26359	10.1619	-16.4728	2.53717	-4.9133	0
0.6253	36.3749	5.41639	8.84805	-5.87735	0.347487	8.94024	-15.5567	0.105716	-7.05854	0
0.6260	50.4074	5.41639	7.0015	-11.6959	-0.568615	7.10777	-2.43712	-0.211431	-8.58097	-0.321788
0.6267	34.5338	3.5925	4.84719	-18.69	-0.568615	6.19153	0.925039	-2.64289	-10.1034	-0.643577
0.6273	21.397	1.71335	4.23168	-21.4523	0.663384	6.80235	-7.00895	-7.5058	-9.48059	-0.321788
0.6280	22.9396	-1.93442	0.923275	-24.5085	0.979281	5.27529	-9.45496	-11.7873	-8.58097	-0.321788
0.6287	27.8161	-6.52177	-6.15517	-25.4195	-0.568615	1.3142	-6.70653	-12.1044	-7.05854	-0.321788
0.6293	36.0764	-8.95362	-11.0024	-18.1022	-3.00102	-4.18322	-4.87424	-12.1044	-3.39087	-0.321788
0.6300	41.55	-9.56158	-13.1567	-9.22744	-3.91712	-8.76439	-4.26941	-14.2187	0.276805	-0.321788
0.6307	44.5854	-8.01404	-12.2334	-3.7615	-2.68513	-8.15357	-2.43712	-11.7873	3.32166	-0.321788
0.6313	53.4428	-4.97423	-8.84805	1.14608	-1.16882	-5.71028	-0.604833	-6.60722	5.1555	-0.321788
0.6320	61.4045	-2.81873	-6.15517	5.70103	-0.852922	-7.23733	1.84118	-2.0086	5.46691	-0.321788
0.6327	76.3326	-1.60281	-3.6931	10.9025	-0.852922	-8.45898	4.2783	1.95574	4.84409	-0.321788
0.6333	92.2062	0.221077	-1.84655	14.8697	-0.252718	-6.62651	3.97589	5.02149	4.84409	0
0.6340	55.5825	2.65293	2.07737	15.7807	0.663384	-5.40486	1.84118	7.77009	4.53269	0
0.6347	-40.2065	3.86885	7.0015	15.7807	0.979281	-4.18322	0.0088946	8.35153	3.63307	-0.321788
0.6353	-116.838	3.26089	8.84805	14.2526	1.26359	-2.35075	-1.21856	5.92007	1.17642	-0.321788
0.6360	-143.061	2.65293	9.77133	11.5196	1.57949	-1.1291	-1.82339	2.53717	-1.24562	-0.321788
0.6367	-118.38	2.04496	11.5409	9.0805	2.17969	0.397961	-1.52098	1.63859	-3.07946	-0.321788
0.6373	-15.8238	0.221077	9.77133	6.93527	2.49559	1.00878	-1.82339	2.53717	-4.60189	-0.321788
0.6380	83.0503	-2.21077	4.84719	4.17292	2.17969	1.91577	-1.52098	1.32144	-5.53611	-0.643577
0.6387	101.959	-4.36627	0.923275	-0.0881602	1.89538	3.74824	1.52987	-3.22432	-6.12432	-0.643577
0.6393	97.3813	-5.5822	-0.923275	-8.31645	1.89538	4.96988	1.84118	-5.97293	-8.26956	-0.643577
0.6400	93.7488	-6.79812	-1.84655	-19.0132	1.57949	4.35906	-0.907249	-2.64289	-11.9372	-0.321788
0.6407	83.0503	-7.40608	-2.76983	-26.6244	0.663384	3.44282	-2.12581	0.422862	-15.2935	0
0.6413	92.2062	-7.40608	-3.38534	-24.5085	0.979281	2.52659	-1.52098	0.422862	-15.9163	-0.643577
0.6420	115.096	-7.40608	-3.6931	-17.4851	0.979281	1.00878	-0.907249	1.32144	-14.0825	-0.643577
0.6427	146.843	-6.52177	-5.53965	-13.8118	-0.252718	-1.1291	-1.52098	3.17147	-10.7262	-0.321788
0.6433	143.161	-4.69789	-5.53965	-11.6959	-1.48472	-3.57239	-2.43712	2.53717	-7.95816	-0.321788
0.6440	-18.2621	-0.386885	-0.615517	-8.31645	-1.76902	-5.09945	-3.04195	2.53717	-9.20378	-0.321788
0.6447	-224.271	7.51662	7.92478	-4.96636	-1.16882	-5.09945	-3.04195	6.50151	-13.1483	0
0.6453	-252.634	13.6515	13.3875	-3.43825	-0.852922	-4.48863	-2.12581	9.25011	-15.2935	-0.321788
0.6460	-205.66	13.0435	13.0797	-7.11159	-0.852922	-3.8778	-2.43712	7.77009	-14.6707	-0.321788
0.6467	-197.698	13.3199	12.772	-11.0788	-0.568615	-3.26698	-3.04195	8.03438	-14.6707	-0.321788
0.6473	-153.461	14.8674	14.003	-12.2837	-0.852922	-2.96157	-3.35326	11.1001	-14.0825	-0.321788
0.6480	-99.4215	13.9279	13.0797	-12.6069	-1.48472	-2.35075	-3.65568	12.633	-7.64675	-0.321788
0.6487	-89.0713	10.888	10.3868	-11.6959	-1.16882	-0.823686	-3.04195	9.8844	15.8471	0
0.6493	-71.058	6.63231	6.38599	-7.72871	-0.852922	-0.212863	-1.82339	5.92007	43.9083	-0.321788
0.6500	-24.9798	2.65293	2.07737	-3.14438	-1.48472	-0.518275	-1.82339	5.02149	46.0535	-0.321788
0.6507	7.96168	0.829039	-0.307758	-1.61627	-1.76902	-0.823686	-2.43712	3.80576	28.6494	-0.643577
0.6513	34.2352	-1.60281	-4.00086	-2.23339	-2.40082	-1.1291	-2.73954	-1.42716	19.5148	-0.321788
0.6520	78.1738	-4.69789	-7.30926	-0.999149	-2.68513	-2.65616	-2.73954	-5.97293	5.1555	0
0.6527	93.7488	-5.30585	-7.61702	-0.382028	-2.08492	-2.35075	-1.21856	-6.92437	-31.452	0
0.6533	61.703	-3.15035	-5.23189	-0.0881602	-1.16882	-0.823686	0.0088946	-5.65578	-50.69	0
0.6540	26.6219	-1.93442	-4.00086	1.43995	-1.16882	-1.1291	-0.907249	-5.97293	-32.9744	-0.321788
0.6547	10.7483	-1.60281	-3.07758	5.11329	-0.568615	-1.43451	-0.604833	-5.07435	-22.6288	-0.643577
0.6553	6.46887	0.497423	-0.615517	7.84626	0.347487	0.092549	-0.907249	-2.0086	-22.6288	-0.321788
0.6560	5.22485	2.65293	1.53879	9.99149	0.0631794	1.61961	-1.52098	1.05716	16.4353	-0.321788
0.6567	2.78659	3.86885	3.00064	13.3416	-0.252718	4.05365	0.311311	3.80576	57.9561	-0.321788
0.6573	-6.96647	3.5925	2.69289	15.4868	-0.852922	4.66447	0.311311	3.80576	44.8425	0
0.6580	-17.9635	1.10539	0.615517	13.6354	-2.08492	2.832	-2.12581	0.105716	9.72279	0
0.6587	-15.5253	-0.386885	-0.307758	7.84626	-1.16882	4.05365	-2.43712	-2.64289	-23.8399	0
0.6593	-5.42389	0.221077	0.307758	-0.382028	0.0631794	7.41318	-1.52098	-2.96004	-42.7664	0
0.6600	0.646887	2.32131	1.23103	-9.22744	0.347487	10.7727	0.311311	-2.64289	-39.0988	-0.321788
0.6607	3.08515	2.65293	0.615517	-15.957	0.347487	10.1619	1.22745	-2.96004	-38.7874	-0.321788
0.6613	3.43347	0.497423	-1.53879	-19.6303	-1.16882	5.88612	-0.907249	-2.32574	-46.7109	-0.321788
0.6620	6.76743	-0.718501	-2.46207	-21.7462	-2.40082	3.44282	-1.82339	-0.211431	-43.9775	-0.321788
0.6627	10.7483	0.221077	-1.53879	-21.1291	-2.68513	2.832	-1.52098	1.95574	-17.7155	0
0.6633	20.5013	2.32131	0.923275	-20.8352	-2.68513	1.00878	-1.21856	4.07005	16.7467	0
0.6640	45.2323	7.84824	5.46271	-18.3961	-2.40082	0.092549	0.0088946	6.81865	24.3935	-0.321788
0.6647	58.0207	13.0435	8.5403	-16.5741	-3.00102	-3.57239	-1.21856	8.35153	33.8395	-0.321788
0.6653	39.1118	13.9279	8.84805	-27.2415	-3.60123	-5.71028	-3.04195	8.98582	57.0219	0
0.6660	12.2411	12.4356	9.15581	-36.4102	-3.00102	-2.35075	-2.12581	8.03438	32.9398	-0.321788
0.6667	-8.80761	11.2197	9.46357	-28.1525	-2.68513	-0.518275	-0.907249	7.1358	-10.7262	-0.643577
0.6673	-19.8047	10.2801	9.46357	-12.2837	-3.00102	-1.43451	-0.302416	11.7344	-24.1513	-0.321788
0.6680	-8.80761	7.84824	7.30926	6.31815	-3.00102	-3.26698	-0.302416	12.9502	-22.6288	-0.321788
0.6687	18.9588	3.5925	2.38513	18.8369	-3.91712	-6.62651	-2.12581	1.63859	-15.6049	-0.965365
0.6693	34.8324	0.829039	-0.615517	19.454	-4.83323	-7.84816	-2.12581	-9.35583	-19.5494	-0.965365
0.6700	24.7807	1.437	0	16.6917	-4.20143	-7.54275	-1.52098	-8.72153	-7.95816	-0.321788
0.6707	7.66312	3.5925	1.53879	15.4868	-3.91712	-6.3211	-2.12581	-3.54147	37.5071	0
0.6713	8.90713	4.80843	2.07737	12.1073	-3.60123	-3.26698	0.0088946	-0.47572	23.1479	-0.321788
0.6720	22.641	4.80843	0.923275	-0.0881602	-2.68513	-0.823686	0.613727	-0.47572	-27.5075	-0.321788
0.6727	28.7616	3.5925	-0.923275	-15.957	-1.76902	3.13741	-0.302416	-2.0086	14.9129	0
0.6733	22.641	3.26089	-1.23103	-29.6806	-0.568615	7.71859	1.52987	-1.69145	92.7298	0
0.6740	14.3808	3.86885	-0.923275	-33.0307	-1.16882	8.024	3.36216	-0.47572	119.303	0
0.6747	8.90713	4.80843	-0.307758	-21.4523	-0.852922	6.80235	3.97589	0.740009	110.445	0
0.6753	2.18946	5.69274	-0.307758	-8.93357	0.347487	6.49694	3.66458	0.740009	37.1957	-0.321788
0.6760	-4.52821	5.69274	-0.307758	-3.43825	0.663384	5.58071	1.84118	-0.792867	-48.8562	-0.321788
0.6767	-7.26503	5.69274	-0.307758	0.528961	0.663384	4.96988	2.44602	-0.211431	-41.5208	0
0.6773	-9.40473	4.80843	-1.84655	-4.34924	-0.252718	3.13741	1.52987	1.63859	10.9684	0
0.6780	-6.36934	2.65293	-4.00086	-17.779	-0.852922	2.22118	0.0088946	1.63859	55.4995	-0.321788
0.6787	-1.14449	2.65293	-4.61638	-28.7696	-0.252718	3.13741	1.84118	2.27288	134.562	0
0.6793	-1.49282	2.92927	-4.61638	-40.3774	0.347487	2.52659	3.97589	3.48861	183.072	0
0.6800	0.348324	2.65293	-5.23189	-54.3949	0.663384	0.703373	4.2783	3.48861	51.555	0
0.6807	1.8909	2.92927	-7.07844	-62.9464	-0.252718	-0.518275	4.58072	3.17147	-180.097	0
0.6813	-4.52821	2.65293	-7.92478	-58.3621	-1.76902	-2.96157	3.97589	2.53717	-284.452	-0.321788
0.6820	-6.07078	2.32131	-4.92413	-33.0307	-3.00102	-7.23733	3.66458	1.63859	-199.923	-0.321788
0.6827	-4.22964	3.26089	-0.923275	-1.91014	-4.20143	-11.5038	4.58072	2.27288	-79.6854	-0.321788
0.6833	-10.3004	4.47681	0.307758	9.0805	-4.83323	-12.4201	4.2783	2.53717	-32.6976	-0.321788
0.6840	-19.8047	5.41639	1.23103	12.7245	-4.20143	-11.5038	3.66458	2.27288	19.7916	-0.321788
0.6847	-32.5931	6.90866	3.92392	22.8041	-3.91712	-11.1984	2.44602	2.53717	59.79	-0.321788
0.6853	-38.4151	9.94847	7.61702	23.4212	-3.91712	-8.15357	2.1436	1.32144	46.3649	-0.321788
0.6860	-29.2592	14.5358	14.6185	15.1636	-3.91712	-2.96157	4.58072	1.32144	46.3649	0
0.6867	-23.4372	17.9072	20.0812	5.70103	-4.20143	-0.518275	5.49686	1.95574	17.0581	0
0.6873	-18.2621	18.5152	20.0812	-5.58348	-3.60123	1.61961	4.89203	-0.47572	-48.2333	0
0.6880	-3.63252	16.0834	16.7728	-14.135	-2.40082	3.44282	3.66458	-4.7572	-31.7634	-0.321788
0.6887	7.36455	13.0435	9.15581	-15.6631	-1.16882	4.35906	1.22745	-5.39149	15.8471	-0.643577
0.6893	8.31	9.94847	2.38513	-12.9008	1.26359	7.10777	2.1436	-2.96004	40.552	-0.321788
0.6900	2.18946	6.02435	0.615517	-8.31645	2.17969	8.024	3.97589	-1.42716	109.823	0
0.6907	-8.80761	1.437	-0.923275	-2.52726	1.57949	5.88612	3.36216	0.105716	161.101	0
0.6913	-18.2621	-1.32646	-1.84655	5.40716	2.81148	4.66447	3.05974	1.05716	121.725	0
0.6920	-24.3826	-2.54239	-1.23103	12.7245	2.81148	4.05365	1.84118	-2.64289	99.1655	-0.321788
0.6927	-23.7358	-1.93442	-1.53879	8.75725	0.979281	1.91577	0.613727	-5.39149	163.246	-0.321788
0.6933	-14.5798	2.04496	0.615517	-16.2509	0.663384	5.27529	2.75733	-4.17576	121.137	-0.321788
0.6940	-6.66791	6.63231	2.69289	-27.2415	0.979281	14.7338	4.2783	-2.64289	-114.459	-0.321788
0.6947	-4.82677	9.06416	0.307758	-3.7615	-0.568615	16.2609	3.66458	0.422862	-288.12	0
0.6953	-5.42389	9.06416	-2.46207	10.2854	-3.28533	8.32941	1.52987	3.17147	-253.623	0
0.6960	-7.5636	7.51662	-1.53879	3.87905	-5.74933	2.52659	-1.21856	3.17147	-158.713	-0.321788
0.6967	-10.3004	6.90866	1.53879	7.84626	-5.74933	0.092549	-1.52098	2.85432	-84.8755	-0.321788
0.6973	-11.843	6.63231	3.61616	26.7713	-5.43343	-2.65616	-1.21856	3.48861	31.4174	0
0.6980	-14.5798	5.69274	3.3084	38.0558	-6.34953	-7.54275	-2.12581	3.80576	155.911	-0.643577
0.6987	-18.5607	4.80843	2.07737	16.0745	-7.58153	-11.5038	-2.12581	2.27288	223.97	-0.965365
0.6993	-20.4018	4.80843	1.23103	-17.779	-7.58153	-11.1984	-1.52098	1.32144	248.087	-0.643577
0.7000	-19.1578	5.08477	0	-40.6712	-7.26564	-8.45898	-1.82339	2.53717	156.845	-0.321788
0.7007	-17.665	5.41639	0	-55.923	-4.51733	-4.48863	0.311311	2.53717	-85.4983	-0.321788
0.7013	-17.9635	6.02435	1.23103	-62.3293	-0.852922	-1.43451	2.75733	1.95574	-293.933	0
0.7020	-20.1032	6.3007	0.923275	-60.5073	2.17969	-2.04533	3.05974	1.32144	-330.54	-0.321788
0.7027	-17.3664	6.02435	0.615517	-36.9979	4.01189	-5.71028	3.36216	0.105716	-275.318	-0.321788
0.7033	-6.66791	6.3007	2.69289	-1.91014	2.17969	-10.2822	3.97589	0.740009	-191.999	-0.321788
0.7040	-2.08994	7.51662	5.46271	13.3416	0.347487	-15.1688	5.19445	4.07005	-81.2078	-0.321788
0.7047	-6.66791	7.84824	5.77047	9.66824	0.347487	-19.75	6.41301	6.81865	30.4832	0
0.7053	-11.843	5.69274	3.00064	2.96806	-0.252718	-22.4894	5.19445	6.50151	163.246	0
0.7060	-15.8238	4.80843	1.84655	-2.23339	-1.48472	-22.7948	3.97589	5.60292	303.31	0
0.7067	-17.9635	4.47681	1.84655	-8.6397	-3.28533	-21.8878	3.66458	3.17147	300.887	0
0.7073	-18.2621	3.5925	2.38513	-17.4851	-6.03364	-20.9716	4.58072	1.05716	133.939	-0.321788
0.7080	-21.5961	3.26089	2.07737	-8.93357	-8.18174	-20.6662	6.41301	1.32144	-12.8369	-0.643577
0.7087	-31.6974	2.65293	0.615517	19.454	-8.49763	-20.3608	6.41301	-1.11001	-114.182	-0.321788
0.7093	-34.7328	2.04496	-1.23103	42.6402	-3.91712	-14.8634	6.41301	-4.7572	-188.02	0
0.7100	-32.8917	2.32131	-1.23103	69.1764	-2.08492	-6.62651	6.72432	-4.17576	-203.902	-0.321788
0.7107	-42.9931	5.08477	1.53879	89.0124	-13.3625	-2.65616	6.72432	-0.47572	-224.351	-0.321788
0.7113	-48.7653	8.4562	3.61616	80.4903	-23.7555	-3.57239	8.24529	3.17147	-225.25	0
0.7120	-40.5548	8.73255	2.38513	80.167	-25.872	-6.3211	7.02673	4.07005	-185.563	0
0.7127	-40.5548	7.24027	0.923275	87.5137	-26.5038	-10.2822	2.75733	4.07005	-172.45	-0.321788
0.7133	-51.8504	6.3007	0.923275	82.0184	-24.0398	-18.8337	0.613727	6.23722	-180.996	-0.321788
0.7140	-64.0418	5.08477	1.53879	87.1905	-19.7752	-28.2922	0.925039	5.02149	-148.645	0
0.7147	-72.2523	4.20046	5.15495	77.1108	-16.1108	-30.4301	2.44602	-2.0086	39.6524	0
0.7153	-72.6006	3.26089	8.23254	35.3229	-11.5302	-25.8489	4.2783	-9.67297	367.701	0
0.7160	-71.3566	1.71335	5.46271	20.9821	-6.94974	-22.7948	1.84118	-12.3687	572.468	0
0.7167	-66.48	1.10539	1.23103	20.9821	-2.40082	-27.376	-0.907249	-8.1401	504.72	-0.321788
0.7173	-46.0285	2.65293	1.23103	3.26193	2.81148	-26.1544	1.52987	-2.64289	247.464	-0.321788
0.7180	-28.0152	3.86885	3.3084	13.3416	12.2568	-16.085	6.41301	1.32144	6.98934	0
0.7187	-31.6974	5.08477	3.92392	23.098	25.0822	-8.15357	7.63157	1.63859	-72.6614	0
0.7193	-34.4343	6.3007	2.69289	11.1963	33.6115	-2.04533	7.02673	-2.32574	-75.1181	-0.321788
0.7200	-19.8047	7.24027	-1.23103	31.6495	34.5276	1.00878	7.94288	-5.65578	-120.272	-0.643577
0.7207	-5.12533	7.84824	-4.92413	59.42	34.2433	2.52659	9.77517	-6.92437	-173.073	-0.321788
0.7213	-3.63252	8.4562	-5.23189	67.6777	33.3272	7.10777	13.4308	-6.60722	-76.6405	0
0.7220	-7.86216	8.4562	-4.92413	85.6623	26.9144	8.94024	15.5744	-3.54147	89.3735	-0.321788
0.7227	-13.6841	6.90866	-5.23189	104.881	18.6695	4.05365	10.38	-2.96004	173.626	-0.321788
0.7233	-21.2975	4.20046	-2.15431	108.848	13.1729	-0.212863	5.80817	-4.17576	245.319	-0.321788
0.7240	-29.5577	2.32131	1.53879	113.433	7.39199	0.092549	3.66458	-3.22432	258.156	-0.321788
0.7247	-35.0314	2.04496	3.61616	111.905	0.347487	3.44282	-0.604833	-1.42716	232.517	0
0.7253	-37.1711	3.5925	6.38599	91.1577	-3.28533	9.24565	-2.12581	-0.47572	251.443	0
0.7260	-41.4505	4.47681	9.77133	111.317	-13.0781	7.41318	-1.82339	-0.47572	205.666	0
0.7267	-50.3079	4.80843	9.15581	163.478	-26.5038	-1.1291	-1.82339	-2.0086	46.9531	0
0.7273	-56.727	5.69274	7.30926	139.675	-30.7684	-2.04533	1.22745	-2.0086	-138.576	0
0.7280	-57.0255	6.3007	7.0015	69.7935	-38.6974	1.91577	3.97589	-1.42716	-242.343	-0.321788
0.7287	-54.2887	4.80843	5.77047	41.7292	-49.0904	2.832	4.89203	-3.22432	-282.307	-0.321788
0.7293	-52.149	2.92927	5.46271	-3.7615	-54.5554	7.71859	4.2783	-5.65578	-361.369	-0.321788
0.7300	-52.4476	0.497423	4.84719	-110.876	-63.1163	18.0933	-1.82339	-6.60722	-375.694	-0.321788
0.7307	-52.4476	-0.994847	1.23103	-170.678	-62.8004	19.0096	-6.70653	-4.7572	-212.725	-0.321788
0.7313	-46.327	0.829039	0	-128.567	-48.1743	13.8268	-5.18555	-1.11001	11.5566	-0.321788
0.7320	-38.1165	6.02435	3.3084	-62.6525	-31.6845	16.2609	-1.21856	0.740009	169.336	0
0.7327	-27.418	9.67212	9.77133	-25.7134	-19.4909	17.7879	2.1436	2.27288	201.999	-0.321788
0.7333	-18.8592	6.63231	14.9263	12.4306	-8.18174	13.8268	3.36216	3.80576	146.465	-0.643577
0.7340	-19.8047	5.08477	15.5418	81.4013	10.1403	14.7338	3.36216	6.23722	51.555	-0.321788
0.7347	-24.0343	6.63231	12.772	126.245	32.0952	15.9555	3.36216	10.2015	-14.3593	0
0.7353	-22.8401	3.26089	7.61702	123.512	53.7657	10.1619	3.05974	11.1001	36.5729	0
0.7360	-18.2621	0.221077	2.69289	108.555	67.7915	8.94024	3.66458	9.8844	129.372	-0.321788
0.7367	-20.1032	-0.994847	0	72.2326	68.7076	12.2998	4.58072	8.98582	172.692	-0.321788
0.7373	-25.2783	-14.4253	-2.46207	8.75725	62.0106	2.52659	1.22745	6.23722	206.877	-0.321788
0.7380	-21.5961	-23.8763	-4.00086	-62.9464	56.8299	-7.54275	-5.48797	2.27288	317.946	-0.321788
0.7387	-17.665	-6.79812	-3.38534	-123.366	52.8496	-3.57239	-8.53882	-2.64289	407.977	-0.321788
0.7393	-19.4564	5.41639	-3.38534	-141.38	45.2365	0.703373	-9.15254	-8.1401	292.618	-0.321788
0.7400	-16.421	0.829039	-3.38534	-114.843	46.7528	2.52659	-11.5897	-10.8887	20.103	0
0.7407	-13.6841	2.32131	-3.07758	-51.6619	50.1013	8.94024	-12.5058	-11.153	-239.298	0
0.7413	-16.421	8.12458	-2.46207	-4.05537	42.1723	16.5663	-13.422	-7.82295	-314.97	-0.321788
0.7420	-18.2621	10.2801	-1.84655	-14.4289	32.0952	19.9258	-21.0535	-3.85862	-144.7	-0.321788
0.7427	-17.9635	8.12458	-2.46207	-31.8258	18.0693	17.1771	-29.5923	-2.96004	164.457	0
0.7433	-16.1224	6.63231	-2.76983	-87.9839	0.347487	15.65	-29.2899	-0.47572	465.068	-0.321788
0.7440	-13.3856	7.51662	-2.15431	-193.57	-13.9942	17.4825	-25.9367	1.63859	592.606	-0.321788
0.7447	-12.1416	8.4562	-1.84655	-194.188	-21.9233	18.0933	-24.4068	1.05716	552.642	0
0.7453	-11.2459	10.888	0.923275	-102.325	-21.2915	20.2312	-21.0535	2.27288	367.079	0
0.7460	-7.5636	13.6515	8.5403	-64.4745	-14.2786	23.8962	-17.6914	1.95574	-37.8877	-0.321788
0.7467	-5.72246	12.4356	13.6952	-57.7743	-4.83323	26.941	-13.422	0.422862	-330.54	-0.321788
0.7473	-7.26503	9.94847	12.4642	-41.5822	6.15999	28.7735	-6.40411	2.27288	-281.096	-0.321788
0.7480	-1.49282	7.51662	7.61702	-46.4604	15.9212	29.0789	-2.12581	5.28578	-252.101	-0.321788
0.7487	14.0822	3.86885	3.61616	-36.9979	21.1019	27.2464	0.925039	5.92007	-337.876	-0.321788
0.7493	23.5367	2.04496	1.84655	-15.3399	23.25	22.9799	2.75733	3.17147	-289.331	-0.321788
0.7500	18.3616	-0.110539	-0.307758	-7.40546	16.2371	13.8268	-0.907249	-1.11001	-96.7781	-0.321788
0.7507	6.46887	-1.93442	-1.53879	49.6636	-4.20143	-0.518275	1.22745	-1.11001	107.4	0
0.7513	0.348324	-1.93442	-4.00086	143.966	-20.3754	-13.0309	11.6075	3.48861	230.683	-0.321788
0.7520	0.0497605	-4.69789	-7.92478	163.802	-32.6006	-19.1391	14.6583	5.92007	295.075	-0.643577
0.7527	-1.49282	-8.95362	-7.30926	121.073	-75.3099	-24.9327	7.94288	2.85432	425.692	-0.321788
0.7533	-5.42389	-9.22997	-1.84655	62.4762	-120.799	-32.568	3.97589	-0.211431	570.358	-0.321788
0.7540	-11.5444	-7.7377	2.38513	-87.0729	-112.87	-32.2626	9.16144	0.105716	591.395	-0.321788
0.7547	-11.843	-5.91381	4.53944	-221.958	-85.387	-27.9868	19.5414	1.32144	464.133	-0.321788
0.7553	-0.845929	-3.15035	4.53944	-147.492	-71.6455	-28.2922	31.1311	2.27288	163.834	-0.321788
0.7560	-0.248803	-2.21077	5.46271	7.84626	-40.2137	-25.5435	35.7118	2.85432	-245.699	-0.321788
0.7567	-16.7195	-0.994847	8.5403	63.0933	3.09579	-16.3904	30.5263	2.27288	-611.913	-0.643577
0.7573	-27.1195	4.20046	11.2332	71.9387	37.9077	-7.84816	23.1971	2.53717	-693.086	-0.643577
0.7580	-16.421	13.3199	17.0806	93.92	80.0168	-3.8778	18.9277	1.05716	-431.54	-0.321788
0.7587	4.92629	17.2993	21.62	87.8076	115.397	-3.57239	17.0954	-4.44005	-146.811	-0.321788
0.7593	14.3808	10.888	18.6194	65.2092	128.539	-0.518275	17.3978	-8.1401	-7.64675	-0.321788
0.7600	4.0306	4.20046	8.84805	45.3731	124.274	3.13741	19.8439	-6.92437	88.4739	-0.321788
0.7607	-23.7358	-0.386885	-0.923275	-0.999149	104.12	3.74824	20.4576	-5.39149	153.454	-0.321788
0.7613	-37.4697	-5.5822	-5.53965	-16.5741	77.5843	15.3446	14.9607	-2.96004	53.6656	0
0.7620	-22.5415	-7.40608	-7.30926	33.1776	52.5337	33.6601	7.63157	0.422862	-219.161	-0.643577
0.7627	2.48803	-6.19016	-9.77133	85.0452	38.5079	37.9266	4.2783	2.85432	-449.878	-0.965365
0.7633	38.5146	-9.22997	-11.3101	61.8591	34.8435	30.3006	-1.52098	5.60292	-451.089	-0.643577
0.7640	36.0764	-15.9728	-10.3868	-65.3855	32.411	18.7042	-10.6735	8.03438	-254.869	0
0.7647	-20.1032	-16.5808	-11.6179	-145.964	25.9983	12.2998	-13.1195	13.2144	57.9561	-0.321788
0.7653	-55.1844	-15.3649	-13.4644	-87.6606	16.5214	17.7879	-13.422	21.196	439.429	-0.321788
0.7660	-54.2887	-18.0731	-12.5412	-24.1853	5.55979	24.2016	-19.2212	21.7774	723.535	-0.321788
0.7667	-47.8696	-16.5808	-8.5403	-33.9711	-12.7622	26.0248	-19.8261	15.963	740.627	-0.321788
0.7673	-53.0447	-10.1695	1.53879	-68.7356	-40.2137	24.507	-14.0357	14.1659	500.776	-0.321788
0.7680	-28.0152	0.221077	16.1573	-68.7356	-53.6393	22.6745	-10.6735	19.3459	198.642	-0.321788
0.7687	50.1088	24.3185	28.083	-14.7228	-37.7813	26.0248	-10.0687	22.9931	22.871	-0.321788
0.7693	84.2943	43.2206	33.5457	80.167	-12.162	24.2016	-8.53882	20.5617	95.1865	-0.321788
0.7700	40.9529	20.3391	36.0077	180.875	9.5085	12.2998	-6.40411	15.963	267.913	-0.321788
0.7707	-8.21048	-17.4651	40.2394	244.674	23.8502	4.96988	-5.18555	12.9502	97.6085	-0.321788
0.7713	-24.9798	-28.4637	42.7015	241.295	26.5985	11.0781	-3.65568	11.7344	-324.451	-0.321788
0.7720	-15.5253	-25.4239	35.3922	169.885	23.25	19.9258	0.613727	7.45295	-486.797	-0.321788
0.7727	13.1865	-26.0318	23.7743	90.8638	11.6566	20.5366	6.11059	-2.0086	-309.192	-0.321788
0.7733	66.281	-29.4033	15.234	76.8169	-25.5877	12.6052	9.16144	-13.003	-48.8562	-0.321788
0.7740	122.709	-26.6398	8.84805	108.261	-70.1292	9.55106	12.2123	-20.3502	132.728	-0.321788
0.7747	129.427	-25.7555	3.92392	98.7982	-89.3673	19.0096	13.4308	-21.2488	161.412	-0.321788
0.7753	80.0149	-23.6	0.615517	-51.6619	-96.0643	25.4232	10.38	-16.6502	-53.7348	-0.321788
0.7760	9.20569	38.0253	0.615517	-244.233	-101.561	23.5907	7.32915	-9.35583	-407.458	-0.321788
0.7767	-72.6006	116.784	1.23103	-183.814	-100.645	28.7735	4.2783	-6.92437	-685.163	-0.643577
0.7773	-107.98	98.7662	-1.84655	17.0149	-89.6516	38.8428	-1.21856	-8.72153	-882.006	-0.321788
0.7780	-61.0064	42.6126	-4.92413	128.685	-66.7807	53.4933	-1.82339	-6.29007	-957.366	-0.321788
0.7787	-16.421	26.1424	-6.15517	171.119	-40.2137	66.6168	6.72432	-0.211431	-789.83	-0.321788
0.7793	-43.5902	16.9677	-10.6946	55.776	-16.7425	61.7302	12.5147	1.05716	-428.183	-0.321788
0.7800	-146.744	-0.386885	-13.1567	-120.015	4.32779	54.1042	10.0776	-1.42716	-88.2317	-0.321788
0.7807	-246.215	-11.1091	-7.30926	-90.0997	17.4375	55.3258	5.49686	-1.69145	63.1462	-0.321788
0.7813	-217.254	-8.01404	2.07737	17.3088	20.8176	51.9663	4.2783	-0.211431	142.486	-0.321788
0.7820	-100.665	-0.110539	9.77133	-84.6338	22.6498	52.2717	3.97589	5.02149	235.873	-0.321788
0.7827	-26.174	4.80843	15.234	-244.527	29.6627	67.8384	0.0088946	11.1001	245.63	-0.321788
0.7833	-53.9404	7.51662	19.2349	-203.033	38.5079	82.1835	0.613727	14.483	222.448	-0.321788
0.7840	-127.835	8.4562	22.8511	-115.137	44.9206	75.1591	6.41301	18.4474	197.12	-0.321788
0.7847	-134.204	9.67212	22.8511	-136.501	55.282	54.4096	6.72432	19.0288	66.5025	-0.321788
0.7853	-117.733	15.1438	19.5427	-141.38	64.7589	36.7142	3.36216	15.0645	-166.049	-0.321788
0.7860	-130.572	17.6309	15.5418	-85.2215	71.7718	26.6356	5.19445	8.35153	-369.604	0
0.7867	-51.2036	9.94847	14.003	-64.7684	85.1975	24.507	9.77517	-5.97293	-466.348	-0.321788
0.7873	65.3355	0.221077	12.772	-80.9605	80.3326	18.7042	6.72432	-19.3988	-502.644	-0.321788
0.7880	8.31	-3.4267	3.92392	-119.722	45.5208	-0.823686	-3.65568	-19.0817	-471.538	0
0.7887	-67.3757	2.65293	-1.53879	-210.056	14.089	-22.4894	-10.0687	-8.72153	-393.098	-0.643577
0.7893	-34.4343	9.34051	1.53879	-269.858	0.663384	-36.8345	-9.75738	-5.65578	-299.4	-0.965365
0.7900	-29.5577	0.829039	-2.15431	-233.86	-0.252718	-46.293	-5.48797	-14.5359	-180.996	-0.321788
0.7907	-6.96647	-15.3649	-6.15517	-203.327	1.89538	-47.8201	1.22745	-18.8174	-210.926	-0.321788
0.7913	22.0439	-25.7555	-1.84655	-278.41	3.72759	-45.386	4.58072	-12.6859	-402.267	-0.321788
0.7920	-35.6783	-28.4637	3.3084	-356.843	11.9725	-47.8201	0.311311	-9.93726	-483.129	-0.321788
0.7927	-54.5873	-30.6192	5.15495	-325.105	19.5856	-56.677	-6.0928	-15.1173	-416.281	-0.321788
0.7933	35.1309	-36.4225	1.84655	-250.022	20.1858	-66.441	-10.3711	-18.5002	-330.229	0
0.7940	109.324	-41.6178	-1.84655	-192.042	22.6498	-69.1897	-13.1195	-18.1831	-222.794	-0.321788
0.7947	138.284	-43.4417	-0.615517	-153.898	28.7466	-62.1652	-12.8082	-16.6502	-137.987	-0.643577
0.7953	182.87	-45.8735	1.53879	-124.6	39.424	-51.485	-9.75738	-10.5716	-129.441	-0.321788
0.7960	231.088	-58.696	1.84655	-93.7731	58.6621	-37.1399	-9.15254	-5.97293	-125.151	0
0.7967	280.5	-82.1854	3.61616	-96.2122	67.5072	-22.7948	-9.75738	-2.0086	-87.2975	-0.321788
0.7973	341.258	-71.5184	11.8487	-124.6	64.443	-13.3363	-10.3711	8.66867	-0.657413	-0.321788
0.7980	352.553	2.04496	24.3899	-53.19	65.675	-5.09945	-10.3711	22.676	104.632	-0.321788
0.7987	285.376	67.3732	32.9301	117.106	65.3591	1.61961	-9.15254	32.7718	159.267	-0.321788
0.7993	126.392	68.2576	35.0845	182.11	56.514	7.10777	-13.7244	37.9519	188.574	-0.321788
0.8000	-202.276	48.4159	34.1612	63.3872	40.656	16.8717	-18.3051	38.5862	220.303	-0.643577
0.8007	-490.39	36.8093	26.2364	-54.3949	20.1858	30.9114	-16.1704	33.6704	199.854	-0.643577
0.8013	-416.495	23.7105	8.5403	-49.5167	9.5085	42.2024	-12.8082	25.4246	129.96	-0.321788
0.8020	-118.032	13.3199	-10.3868	-11.3727	-2.68513	41.5915	-11.5897	18.4474	71.0698	-0.643577
0.8027	45.8294	2.92927	-28.083	31.3556	-40.5296	30.9114	-13.1195	7.45295	43.2854	-0.643577
0.8033	-48.4667	-9.56158	-42.4707	58.8029	-71.6455	23.5907	-14.6405	-7.5058	52.1432	-0.643577
0.8040	-239.497	-14.1489	-43.6248	-17.4851	-79.8904	22.0637	-10.6735	-14.853	50.9322	-0.321788
0.8047	-363.102	-5.5822	-26.5442	-110.553	-95.4641	19.6204	-4.26941	-4.7572	-17.1273	-0.321788
0.8053	-401.269	8.12458	-0.615517	-95.9183	-110.722	17.7879	2.1436	14.483	-145.911	-0.643577
0.8060	-372.855	17.2993	24.6976	-30.5916	-103.709	16.2609	5.49686	27.5918	-246.599	-0.321788
0.8067	-236.462	22.4946	43.0092	33.7948	-86.3031	15.3446	5.49686	37.0533	-225.873	-0.321788
0.8073	-0.845929	23.7105	45.7791	104.881	-64.6326	13.216	4.58072	47.7306	-123.005	-0.321788
0.8080	285.675	20.6707	39.3161	129.008	-44.194	8.94024	2.1436	51.3778	-36.0539	-0.321788
0.8087	602.152	17.9072	36.6232	120.456	-32.6006	4.05365	1.84118	43.7662	8.51177	-0.321788
0.8093	792.585	10.888	27.7752	154.016	-17.943	-3.8778	3.05974	26.9575	51.8318	-0.321788
0.8100	856.378	0.221077	6.07823	151.283	0.663384	-10.2822	9.16144	13.5316	103.11	-0.321788
0.8107	922.908	-7.40608	-13.4644	47.2245	18.3536	-12.7255	24.727	7.77009	112.867	-0.321788
0.8113	820.053	-10.1695	-18.3116	-20.2181	32.411	-18.5283	28.3916	-0.792867	93.0412	-0.643577
0.8120	500.242	-10.1695	-15.9265	12.4306	32.411	-24.3219	12.5147	-6.92437	84.4949	-0.321788
0.8127	210.636	-7.7377	-10.6946	45.0793	14.089	-23.7111	-1.52098	-2.0086	69.5474	-0.321788
0.8133	-27.7166	5.41639	7.30926	56.687	-6.94974	-19.1391	-9.75738	12.3159	35.0505	-0.643577
0.8140	-475.71	23.3789	31.6991	39.2901	-12.4463	-15.4742	-12.5058	33.9875	6.67793	-0.321788
0.8147	-996.355	33.4932	44.2403	-47.0776	-9.09784	-13.3363	-11.8921	55.3421	-2.45665	-0.321788
0.8153	-1170.32	40.1808	49.3952	-118.487	-3.00102	-5.71028	-12.2034	68.768	-5.84751	-0.643577
0.8160	-998.494	41.1203	48.1642	-116.959	6.47589	1.91577	-13.7244	62.6893	-21.6946	-0.321788
0.8167	-592.299	25.2581	28.3907	-91.6279	11.9725	-8.45898	-14.6405	26.0589	-43.0778	-0.321788
0.8173	-156.497	1.10539	-1.23103	-62.6525	7.6763	-28.9031	-15.5567	-30.7104	-46.4341	-0.321788
0.8180	-51.8504	-16.8571	-18.0039	-39.1431	0.979281	-39.2778	-19.8261	-81.6653	-35.4311	-0.321788
0.8187	-170.529	-24.2079	-15.0032	-23.5976	4.32779	-42.3319	-19.5236	-109.151	-21.3832	-0.643577
0.8193	-262.686	-22.992	-1.84655	-1.91014	17.1532	-49.958	-12.8082	-111.583	-0.934218	-0.965365
0.8200	-429.334	-17.7967	7.61702	16.3978	21.7337	-56.677	-9.45496	-90.5454	18.2692	-0.643577
0.8207	-579.162	-13.8173	9.46357	17.9259	7.9922	-55.15	-3.35326	-54.4964	24.3935	-0.321788
0.8213	-460.782	-11.1091	9.46357	18.2198	-5.11753	-52.0959	7.63157	-26.1117	23.7707	0
0.8220	-167.792	-8.62201	9.77133	32.8838	-11.5302	-50.5688	17.3978	-19.3988	34.7737	0
0.8227	16.819	-9.56158	7.92478	19.1308	-22.5235	-47.5147	23.1971	-21.8303	57.0219	-0.643577
0.8233	-48.1682	-16.5808	1.53879	-35.793	-28.336	-42.3319	21.6761	-25.8475	69.5474	-0.965365
0.8240	-194.016	-23.6	-6.46293	-33.6478	-24.3557	-38.3616	16.793	-26.1117	73.215	-0.321788
0.8247	-64.9375	-27.8557	-14.6955	27.0652	-17.6587	-37.1399	11.9099	-14.853	76.2599	-0.321788
0.8253	299.409	-29.6796	-25.3901	43.2573	-11.8461	-28.2922	7.02673	-1.42716	75.6371	-0.643577
0.8260	403.508	-27.2478	-33.6226	18.8369	-10.93	-7.23733	4.89203	6.23722	78.7165	-0.643577
0.8267	224.669	-25.0923	-37.8543	2.05707	-13.0781	9.24565	1.52987	15.0645	83.9066	-0.321788
0.8273	166.698	-26.3634	-39.7008	3.26193	-16.1108	11.0781	-2.73954	23.6274	88.4739	-0.643577
0.8280	289.656	-26.3634	-37.8543	9.99149	-39.2976	0.092549	-5.79039	26.6932	92.7298	-0.321788
0.8287	543.584	-19.3442	-28.083	11.1963	-78.9743	-20.0554	-11.5897	31.5561	97.0203	-0.321788
0.8293	799.303	3.86885	0.307758	18.8369	-92.1156	-18.2229	-15.2542	52.012	103.421	-0.321788
0.8300	797.76	31.9456	35.3922	26.1542	-104.625	-13.0309	-18.6075	73.3666	106.466	-0.321788
0.8307	572.544	45.3761	54.3194	24.009	-141.238	-38.3616	-25.0205	73.948	103.421	-0.321788
0.8313	87.0311	47.5316	58.2433	18.543	-176.65	-49.958	-27.76	64.8036	99.1655	-0.321788
0.8320	-562.692	40.7887	53.7038	15.4868	-244.694	-47.8201	-23.7931	47.4134	97.9199	-0.321788
0.8327	-887.727	26.474	43.6248	18.8369	-305.725	-50.8742	-13.1195	19.6631	103.11	-0.321788
0.8333	-652.111	8.73255	27.7752	19.1308	-262.1	-38.667	-6.0928	-7.18866	109.234	-0.643577
0.8340	-42.3462	-14.4253	1.53879	14.2526	-173.901	-24.3219	-8.53882	-33.1418	109.234	-0.643577
0.8347	336.033	-35.4829	-25.0823	17.9259	-96.6961	-1.43451	-8.84123	-50.8492	104.632	-0.321788
0.8353	220.986	-43.718	-42.1629	25.5371	-13.0781	28.7735	-6.40411	-51.4306	104.044	-0.321788
0.8360	-3.93108	-42.5021	-49.1644	27.0652	17.1532	15.3446	-4.87424	-48.7349	120.826	-0.321788
0.8367	-78.9699	-36.6988	-43.6248	36.851	-10.3298	-30.4301	1.84118	-41.0705	142.797	0
0.8373	-38.1165	-31.8351	-28.6985	52.1027	-16.1108	-55.15	4.89203	-30.7104	146.153	0
0.8380	-53.0447	-30.6192	-16.2343	51.8088	11.9725	-52.0959	-7.32026	-29.4946	130.272	-0.321788
0.8387	-154.059	-25.4239	-9.46357	40.2011	2.17969	-42.6373	-25.9367	-24.896	111.068	-0.321788
0.8393	-187.348	-11.1091	2.07737	33.4715	-73.4777	-44.7752	-40.8885	-7.5058	99.7537	0
0.8400	-117.733	9.67212	21.0045	30.1214	-129.044	-24.9327	-50.3434	25.4246	87.8511	0
0.8407	-87.5287	26.1424	30.1603	24.3322	-100.645	37.0196	-52.487	64.2222	66.1911	-0.321788
0.8413	-170.529	27.3583	21.62	20.6589	-33.5167	76.6861	-48.52	80.9781	44.8425	-0.321788
0.8420	-161.373	19.4548	10.0791	20.365	-0.568615	101.406	-38.7538	69.9837	31.4174	-0.321788
0.8427	19.6056	14.8674	7.30926	18.8369	6.7602	150.235	-15.8591	45.5634	23.4593	-0.321788
0.8433	177.346	11.2197	12.772	13.0477	47.9532	166.718	7.94288	18.7117	15.5357	-0.321788
0.8440	205.113	4.47681	16.4651	7.22914	102.888	116.973	13.4308	-0.47572	9.41138	0
0.8447	295.179	2.04496	17.3883	6.6414	96.7909	35.4926	18.6253	-10.8887	11.5566	-0.321788
0.8453	621.409	9.34051	24.0821	12.7245	51.6176	-24.9327	34.4933	-10.2544	17.0581	-0.321788
0.8460	843.241	18.5152	32.3146	22.8041	39.424	-36.8345	43.9482	0.422862	17.0581	-0.321788
0.8467	470.635	16.3597	30.4681	27.3884	69.6237	-47.2093	41.2087	-2.64289	18.5806	-0.321788
0.8473	-310.605	7.51662	23.1588	24.009	104.72	-85.9688	32.3586	-16.9673	28.338	0
0.8480	-705.206	0.497423	14.3108	20.0418	131.887	-105.506	29.3077	-22.4646	37.1957	-0.321788
0.8487	-569.708	-5.5822	1.84655	16.3978	155.99	-93.9003	27.7778	-20.0331	36.8843	-1.28715
0.8493	-485.812	-9.22997	-6.15517	12.7245	155.39	-78.3428	16.1793	-7.5058	35.9847	-0.965365
0.8500	-535.821	-8.95362	-6.77068	18.2198	112.965	-59.4165	1.52987	5.92007	39.6524	-0.321788
0.8507	-490.688	-13.2094	-10.6946	29.2104	74.2042	-46.293	-10.3711	-5.65578	40.8634	-0.965365
0.8513	-459.538	-22.0524	-16.4651	34.4119	101.972	-43.5536	-13.422	-31.0275	36.5729	-0.965365
0.8520	-444.61	-28.1873	-21.0814	32.2666	141.648	-50.8742	-11.2872	-42.0219	33.2166	-0.321788
0.8527	-287.417	-31.8351	-29.0062	29.2104	129.455	-64.3031	-10.3711	-42.0219	31.6942	-0.321788
0.8533	-169.634	-33.9906	-34.7767	35.6167	108.384	-63.9977	-6.70653	-35.5733	32.9398	-0.321788
0.8540	-199.838	-37.3068	-37.5465	44.4621	93.1265	-62.776	-13.1195	-28.2789	34.7737	-0.321788
0.8547	-159.88	-43.4417	-42.4707	46.6074	72.372	-52.0959	-25.6253	-30.3932	33.2166	-0.321788
0.8553	66.281	-47.0894	-44.548	48.7526	60.7786	-5.71028	-25.9367	-33.1418	32.317	-0.321788
0.8560	337.874	-41.2861	-33.9304	52.1027	56.514	48.616	-11.8921	-19.3988	32.6284	-0.321788
0.8567	368.725	-27.2478	-13.4644	54.2479	46.7528	82.489	11.2961	7.45295	31.6942	-0.321788
0.8573	227.704	-13.8173	0.615517	57.598	22.9341	104.766	19.5414	26.6932	28.9608	-0.321788
0.8580	82.7517	3.26089	13.6952	59.42	-5.43343	112.392	4.2783	41.3348	27.4383	-0.321788
0.8587	-60.6581	25.866	32.0069	54.5418	-4.83323	104.46	-11.5897	64.2222	26.5041	-0.321788
0.8593	18.6602	43.8285	43.6248	48.1355	29.6627	81.5727	-24.7092	81.9295	23.4593	0
0.8600	243.279	60.962	57.0122	45.3731	44.9206	53.1879	-38.4425	94.7211	22.871	-0.321788
0.8607	176.152	74.0608	72.0155	40.2011	6.15999	26.0248	-32.9545	97.7869	21.6254	-0.321788
0.8613	-288.014	67.3732	67.0913	30.1214	-22.8394	-19.75	-11.2872	75.2166	16.4353	-0.321788
0.8620	-525.172	47.5316	41.7782	20.365	-4.20143	-77.7319	-1.52098	51.6949	8.20036	-0.321788
0.8627	-90.5641	25.2581	6.07823	12.7245	26.9144	-146.699	1.84118	50.162	-0.346007	-0.321788
0.8633	323.841	0.221077	-32.3916	8.75725	58.0303	-217.805	18.314	49.8449	-1.24562	-0.321788
0.8640	381.215	-23.6	-66.245	6.31815	86.7138	-251.983	28.0803	19.9802	2.69885	-0.321788
0.8647	638.477	-37.9147	-83.9411	3.58518	105.036	-248.633	18.9277	-13.003	4.25588	-0.321788
0.8653	986.701	-34.8749	-76.0163	2.96806	116.313	-229.096	7.63157	-2.96004	3.94448	-0.643577
0.8660	1034.62	-19.3442	-53.7038	4.79004	108.384	-200.72	-3.35326	20.8788	5.1555	-0.321788
0.8667	895.44	-3.4267	-32.3916	7.55239	36.6757	-163.182	-11.5897	15.963	11.5566	0
0.8673	658.929	1.71335	-22.6202	6.6414	-76.5419	-136.936	-6.70653	0.105716	17.0581	0
