MR32 ASCII
Name	SORD30_fast
Frequency	1500
Date	16-09-2015 10:31:25
"Time,s"	"RT TIB.ANT.,uV"	"RT MED. GASTRO,uV"	"RT LAT. GASTRO,uV"	"RT BICEPS FEM.,uV"	"RT VMO,uV"	"RT VLO,uV"	"RT RECTUS FEM.,uV"	"RT SOLEUS,uV"	"RT SEMITEND.,uV"	"Channel 12,uV"
0.0000	-29.9228	-6.05387	23.4369	7.40386	17.5708	-9.70096	-27.6165	23.6315	29.2672	-10174.5
0.0007	-25.3523	-5.41662	21.5302	7.40386	18.1857	-6.9446	-22.7375	27.331	34.7686	-10005.8
0.0013	-33.2793	-8.81528	16.3661	3.73653	15.1109	-10.3095	-27.3168	25.1415	31.7245	-9577.43
0.0020	-39.9923	-9.0808	16.0483	4.35928	15.7258	-8.78814	-26.09	25.4435	28.0569	-9910.44
0.0027	-42.7775	-8.17803	18.1934	4.35928	15.1109	-4.81468	-21.5201	26.727	23.4725	-9807
0.0033	-48.2765	-9.71805	18.5112	1.00333	12.6949	-4.20613	-23.3462	23.9335	13.7167	-9799.54
0.0040	-48.5621	-9.71805	20.9741	0.069195	12.6949	-2.38049	-23.0465	23.6315	2.4206	-9815.38
0.0047	-49.2049	-11.2581	20.6563	-2.97538	10.235	-1.44977	-21.8197	21.5175	-18.9613	-9816.63
0.0053	-53.4183	-12.745	19.7029	-7.26547	8.08255	0.375867	-19.0759	19.7055	-40.3066	-9800.78
0.0060	-54.0611	-11.2581	18.5112	-6.01996	9.00502	5.26214	-23.6552	23.3295	-37.886	-9807.62
0.0067	-54.6324	-12.745	12.3938	-7.85363	8.39004	7.08778	-51.1218	23.0275	-27.5068	-9911.37
0.0073	-48.8478	-14.9222	8.7392	-12.7319	8.39004	8.91342	-74.9175	20.6115	-26.2598	-9576.19
0.0080	-30.2799	-14.9222	7.86528	-16.3992	9.00502	11.6698	-74.9175	20.6115	-28.0936	-10015.1
0.0087	-11.6406	-16.1436	6.27633	-19.7552	7.46757	10.4527	-74.3088	17.516	-30.8443	-10178.8
0.0093	1.78537	-15.1878	10.8843	-19.4438	7.77506	10.1484	-72.7824	15.402	-31.1744	-4896.98
0.0100	11.8549	-10.9394	20.6563	-17.9215	9.92748	12.5826	-59.9715	16.006	-30.2575	110.9
0.0107	17.9966	-6.37249	31.9378	-18.2329	12.0799	13.7997	-60.5802	16.61	-32.3846	110.9
0.0113	13.9973	-5.1511	38.0552	-21.0007	12.0799	11.9741	-76.1443	14.798	-35.4287	-236.71
0.0120	10.9265	-6.63801	37.4197	-22.7997	12.3874	9.2177	-71.2559	9.8905	-36.0522	96.6099
0.0127	15.2114	-8.17803	37.7374	-21.5888	13.2659	8.0006	-38.3016	3.473	-32.9715	-7.45543
0.0133	11.2836	-10.3022	37.1019	-18.5443	12.9584	3.11433	4.12046	-2.869	-29.3406	-14.2896
0.0140	-5.49895	-12.745	31.9378	-14.2542	12.6949	-3.90186	35.8574	-7.1725	-24.7561	1.86386
0.0147	-12.569	-16.1436	23.4369	-9.09914	12.3874	-9.39668	56.0009	-10.872	-19.8782	-0.621286
0.0153	-4.28489	-20.7106	12.7116	-3.59814	10.8499	-15.5001	72.4733	-16.61	-15.0004	-0.931929
0.0160	-3.71357	-23.7375	5.7202	3.42515	9.61999	-19.7599	70.0385	-20.0075	-8.87552	-0.621286
0.0167	-8.85545	-26.4989	-0.715025	10.7598	9.61999	-22.212	49.586	-20.0075	-1.87046	-0.621286
0.0173	-3.99923	-29.2604	-8.65975	16.2608	8.69753	-24.0376	49.2864	-18.7995	3.9243	-0.621286
0.0180	3.3565	-31.3845	-14.7772	19.3054	7.46757	-20.9949	66.6766	-16.006	8.21536	-0.621286
0.0187	-12.2119	-32.6059	-17.1606	20.2049	6.58904	-17.3257	68.203	-11.476	8.83885	-0.621286
0.0193	-52.2043	-31.7031	-12.6321	18.6826	5.05159	-18.2385	73.9998	-5.3605	6.67498	-0.621286
0.0200	-81.1987	-29.2604	-4.68739	17.1604	3.82164	-20.3684	73.3911	1.661	7.00506	-0.310643
0.0207	-86.1264	-27.4017	-1.90673	15.0153	2.2842	-21.6034	35.8574	7.7765	7.92195	0
0.0213	-72.3433	-25.5962	0.794472	11.0712	1.09817	-19.1513	0.149835	10.7965	5.17127	-0.310643
0.0220	-56.4892	-19.4892	8.7392	6.46973	2.2842	-11.2223	-3.82079	15.704	1.5037	-0.310643
0.0227	-64.1306	-12.4795	14.8566	2.21424	3.51415	-5.7275	3.51176	21.5175	1.5037	0
0.0233	-56.7748	-11.5236	12.7116	0.69195	5.35908	-4.20613	3.51176	22.1215	3.00741	0
0.0240	-3.42792	-15.1878	5.7202	0.069195	7.16009	-3.29331	-11.144	15.1	3.63089	0
0.0247	60.0599	-18.5864	0.476683	-1.14172	6.89652	-2.98904	-38.6106	7.1725	3.9243	-0.310643
0.0253	113.478	-17.6306	1.74784	0.69195	6.89652	-2.05832	-48.3686	5.3605	7.29847	-0.310643
0.0260	149.471	-16.1436	4.76683	1.28011	7.16009	-2.98904	-41.9632	5.6625	8.83885	-0.310643
0.0267	160.184	-13.7009	13.0293	-0.55356	6.58904	-5.42323	-41.9632	4.1525	5.75809	-0.310643
0.0273	172.681	-3.29245	34.4007	1.00333	7.77506	-2.68477	-30.0607	5.9645	6.38157	-0.310643
0.0280	197.105	8.28424	54.8186	1.00333	6.58904	-1.1455	-15.1052	8.6825	7.00506	-0.310643
0.0287	227.028	12.267	59.9827	-2.07585	1.97671	-3.29331	-16.332	8.0785	6.08817	0.310643
0.0293	263.021	12.5857	52.9913	-0.55356	1.36173	-2.05832	-9.91721	10.4945	9.42566	0
0.0300	250.238	9.50563	39.2469	-0.242182	1.66922	-2.05832	12.9701	12.08	10.636	-0.310643
0.0307	136.974	4.03591	31.3022	-3.59814	0.175708	-5.11895	33.4132	8.9845	6.67498	-0.310643
0.0313	-21.9958	3.71729	36.2279	-4.80905	0.790684	-2.38049	40.4367	7.4745	6.08817	-0.310643
0.0320	-139.83	4.03591	40.2003	-5.43181	1.09817	1.59296	34.64	1.661	4.84119	0
0.0327	-191.392	1.2745	41.392	-6.64272	0.483196	0.375867	48.0596	-8.9845	1.79711	-0.310643
0.0333	-235.312	-0.584145	42.0276	-6.01996	1.97671	0.375867	88.3465	-17.516	2.714	-0.310643
0.0340	-322.938	-5.73524	29.7927	-6.33134	2.59169	-0.841227	107.273	-23.9335	3.63089	-0.310643
0.0347	-351.29	-10.9394	9.37477	-6.64272	2.59169	-1.1455	90.4816	-19.1015	1.79711	0
0.0353	-260.95	-13.7009	-8.34196	-5.43181	2.2842	0.984414	62.7153	-6.2665	0.880217	0
0.0360	-166.682	-16.4092	-19.9413	-4.49767	1.97671	2.20151	31.8868	0.151	4.54779	-1.24257
0.0367	-131.261	-18.852	-27.2504	-5.74318	2.89918	5.87069	9.91721	1.661	6.38157	-1.55321
0.0373	-138.616	-21.932	-32.4145	-7.26547	1.97671	8.60915	-1.67628	0.151	-1.87046	-0.621286
0.0380	-157.184	-24.3748	-33.0501	-7.85363	-0.746757	5.87069	-26.3991	-5.0585	-9.16893	0
0.0387	-153.542	-23.1534	-27.886	-8.16501	-1.97671	4.04505	-45.0161	-8.9845	-10.0858	-0.310643
0.0393	-128.19	-20.7106	-22.4041	-8.16501	-2.59169	3.72288	-30.3697	-8.0785	-9.49901	-0.310643
0.0400	-80.2703	-19.8078	-19.6235	-7.26547	-1.97671	3.4186	-8.09109	-5.6625	-7.04174	0
0.0407	-13.1403	-18.852	-15.9689	-7.26547	-0.131781	3.4186	4.42013	-6.2665	-4.29106	0
0.0413	40.278	-18.852	-13.1882	-9.09914	0.790684	-0.536953	25.1723	-9.2865	-3.99765	0
0.0420	83.5554	-16.7278	-10.8048	-9.99867	1.09817	-3.59759	46.8422	-10.1925	-2.45727	0
0.0427	129.047	-12.1608	-5.8791	-9.37592	1.36173	-2.38049	35.2487	-8.6825	-0.330081	0
0.0433	156.184	-11.2581	-5.32297	-9.09914	-0.131781	-2.38049	8.6998	-9.2865	-0.330081	-0.310643
0.0440	180.037	-12.1608	-6.51467	-7.54225	-1.36173	-1.1455	6.25561	-14.194	0.880217	-0.310643
0.0447	211.174	-10.9394	-3.41623	-5.74318	-1.36173	3.72288	15.4143	-21.2155	2.4206	0
0.0453	226.742	-11.5236	-2.8601	-6.9541	-2.2842	4.34932	25.4813	-31.257	0.293406	0
0.0460	196.177	-13.3822	-2.8601	-7.26547	-2.59169	4.04505	52.948	-39.4865	-0.0366757	-0.310643
0.0467	87.269	-10.3022	3.57513	-5.43181	-1.05425	5.56642	75.5262	-42.582	1.5037	-0.310643
0.0473	-24.781	-4.51385	13.6649	-4.1863	-0.439269	6.17496	60.2711	-41.374	3.00741	0
0.0480	-36.9929	3.08004	23.9931	-2.07585	-0.746757	8.30488	38.9103	-27.331	4.84119	0
0.0487	-24.781	4.93868	23.9931	-0.55356	-1.66922	7.39206	26.3991	-11.476	3.33749	0
0.0493	-95.2675	-1.48691	13.6649	-0.242182	-2.59169	5.87069	7.17335	-5.6625	0.586811	0
0.0500	-216.387	-3.29245	10.5665	-0.242182	-2.2842	6.47924	-24.2639	0.755	-0.953568	-0.310643
0.0507	-332.651	-2.07106	11.8376	-1.45309	-4.12913	4.65359	-61.7976	4.1525	-4.29106	-0.310643
0.0513	-357.432	-4.24833	2.93955	-1.45309	-4.43662	4.04505	-70.9563	-1.661	-7.66522	-0.310643
0.0520	-225.243	-10.0367	-11.6787	0.069195	-2.89918	6.47924	-56.3099	-8.6825	-7.37182	0
0.0527	-60.7741	-15.825	-17.7962	-0.242182	-5.00767	4.34932	-36.1664	-14.496	-8.25203	0
0.0533	17.6395	-15.5064	-8.34196	1.00333	-5.62264	4.65359	-1.06757	-14.496	-7.04174	0
0.0540	8.78403	-11.5236	4.76683	3.73653	-2.89918	8.30488	31.8868	-12.08	-3.99765	-0.621286
0.0547	-18.068	-11.5236	8.10362	1.59148	-5.00767	2.50578	53.2476	-19.7055	-7.37182	-0.621286
0.0553	6.35593	-6.05387	14.2211	1.28011	-5.93013	0.0715938	60.5802	-26.727	-8.58212	-0.310643
0.0560	30.7798	7.38147	25.8204	3.73653	-3.82164	4.65359	35.2487	-21.5175	-5.20795	0
0.0567	4.21348	16.834	31.3022	3.73653	-4.12913	2.81006	3.20272	-15.1	-5.53803	-0.310643
0.0573	-43.7059	19.5954	32.5734	4.04791	-5.93013	1.28869	-5.0382	-14.496	-4.91454	-0.310643
0.0580	-65.6303	18.6926	30.1105	5.25882	-5.62264	5.26214	-2.29435	-17.516	-1.54038	0
0.0587	-39.7067	16.834	26.1381	5.5702	-5.31516	6.78351	4.42013	-16.61	0.293406	0
0.0593	-22.2814	17.1526	29.7927	6.46973	-5.62264	5.87069	21.5107	-9.5885	2.09052	0
0.0600	-41.8491	17.1526	36.2279	7.99202	-6.23762	4.65359	35.2487	-4.4545	3.33749	0
0.0607	-63.2022	15.0285	39.5647	7.99202	-6.54511	3.72288	30.0607	-5.9645	3.33749	0
0.0613	-94.9104	11.9484	46	7.99202	-5.62264	4.04505	21.211	-16.308	3.63089	0
0.0620	-144.972	6.16007	46.5561	7.40386	-5.00767	4.34932	16.6317	-35.2585	2.714	0
0.0627	-171.253	-2.07106	33.4473	6.78111	-4.70018	5.26214	13.2698	-51.4155	2.4206	-0.310643
0.0633	-147.4	-9.71805	12.076	6.46973	-4.70018	5.56642	12.3614	-59.343	2.09052	0
0.0640	-97.9812	-16.7278	-13.506	5.25882	-6.54511	2.50578	11.1346	-58.437	-0.0366757	0
0.0647	-57.4176	-19.8078	-33.0501	7.71524	-9.00502	0.680141	13.5788	-44.998	3.9243	-1.24257
0.0653	-39.421	-18.2678	-40.3592	10.7598	-12.036	0.984414	12.9701	-27.029	10.0491	-1.55321
0.0660	-22.9242	-18.5864	-44.0138	7.40386	-15.4183	0.984414	2.89369	-12.08	6.38157	-0.310643
0.0667	-7.64139	-19.8078	-45.8411	5.5702	-17.5268	3.4186	-5.0382	-1.359	2.4206	0
0.0673	-2.78518	-18.852	-42.5043	7.71524	-17.8343	5.87069	-20.2933	6.5685	3.63089	-0.310643
0.0680	20.996	-18.852	-41.3126	6.78111	-17.8343	4.04505	-47.7599	13.59	3.9243	-0.310643
0.0687	93.3393	-18.852	-43.4576	6.46973	-17.5268	3.4186	-58.7447	22.4235	4.84119	-0.310643
0.0693	211.174	-17.6306	-43.7754	7.09249	-17.8343	2.50578	-55.0831	29.143	6.08817	0
0.0700	342.077	-15.1878	-41.6304	7.40386	-17.5268	0.375867	-52.0302	30.653	6.08817	0
0.0707	464.411	-7.27526	-32.1761	8.3034	-14.8034	0.984414	-46.8422	33.1445	6.67498	-0.310643
0.0713	562.392	4.30143	-15.6511	8.3034	-12.6509	-0.23268	-39.519	37.3725	7.29847	-0.310643
0.0720	611.526	14.0726	-2.22452	7.71524	-12.036	-3.29331	-33.1135	40.77	6.67498	-0.310643
0.0727	597.171	19.8609	5.40241	7.71524	-11.1135	-3.59759	-23.0465	42.582	6.67498	-0.310643
0.0733	538.897	22.941	13.3471	8.61477	-10.4985	-2.38049	-2.59402	41.978	8.21536	-0.310643
0.0740	477.266	27.8265	23.4369	10.1371	-8.39004	1.28869	19.0759	43.186	10.3425	0
0.0747	400.638	31.1721	27.9654	10.1371	-5.62264	4.04505	30.6694	40.468	10.636	0
0.0753	291.73	26.6051	23.1191	8.3034	-5.00767	1.28869	50.8128	31.559	6.67498	0
0.0760	171.182	22.3037	21.5302	8.92615	-2.59169	1.89723	87.4287	26.727	4.84119	0
0.0767	23.7812	18.0554	18.1934	8.92615	0.175708	3.11433	106.654	22.4235	4.84119	-0.310643
0.0773	-120.905	13.1698	8.10362	6.15835	0.483196	0.680141	94.1432	17.516	1.5037	-0.310643
0.0780	-200.819	14.7098	5.7202	7.09249	3.20666	2.81006	69.4298	23.0275	2.09052	-0.310643
0.0787	-244.81	15.9312	4.76683	8.3034	6.58904	6.78351	41.6541	27.633	4.25438	0
0.0793	-267.949	9.82426	-1.90673	5.25882	4.74411	4.95787	17.2404	19.1015	0.293406	0
0.0800	-269.805	5.52283	-4.68739	5.25882	1.66922	5.26214	11.4437	11.778	-1.24697	0
0.0807	-322.01	5.2573	-5.56131	5.88157	1.36173	8.60915	10.5259	12.382	1.5037	0
0.0813	-460.269	2.49589	-10.487	-2.07585	0.175708	7.69633	0.149835	12.382	9.71906	-0.310643
0.0820	-584.46	0.955874	-14.1416	-9.37592	0.483196	8.30488	-3.82079	7.1725	26.8099	0
0.0827	-595.743	0.371729	-18.7495	-10.3101	1.97671	9.52197	-5.0382	-4.4545	39.6464	0.310643
0.0833	-516.115	-1.16829	-23.5958	-11.521	0.175708	8.0006	-36.1664	-20.0075	38.4361	0
0.0840	-351.576	-2.38968	-26.3765	-13.0433	-1.36173	6.78351	-89.2642	-32.163	34.4385	0
0.0847	-147.757	-0.584145	-26.3765	-11.521	-0.131781	6.17496	-117.34	-36.4665	31.7245	-0.310643
0.0853	-28.4231	4.93868	-21.133	-8.78776	1.36173	4.95787	-114.905	-32.5405	25.893	-0.310643
0.0860	8.78403	7.38147	-18.7495	-6.01996	2.89918	6.17496	-100.249	-26.727	15.8439	0.310643
0.0867	28.0661	2.17727	-23.9136	-3.59814	3.20666	5.87069	-81.941	-30.351	-1.54038	0
0.0873	35.9931	-3.29245	-28.7599	1.90286	3.51415	3.11433	-63.9327	-40.77	-23.2157	0
0.0880	30.7798	-5.41662	-29.3955	8.92615	2.89918	0.680141	-42.8809	-50.2075	-39.7198	0
0.0887	45.7055	-3.9297	-23.9136	13.1816	1.09817	-0.536953	-23.0465	-52.0195	-50.9792	0
0.0893	94.839	1.59312	-13.1882	20.5163	-0.131781	1.59296	-2.59402	-46.206	-55.5637	0
0.0900	139.116	5.52283	-4.05181	28.7505	-1.66922	2.20151	17.8491	-42.582	-43.0573	0
0.0907	112.55	6.4787	-0.0794472	26.9168	-5.00767	-0.536953	29.452	-39.4865	-23.5458	-0.310643
0.0913	10.6408	9.82426	5.08462	19.6168	-6.54511	-2.38049	35.5484	-30.049	-15.5872	0
0.0920	-52.847	14.0726	11.2021	15.3267	-5.62264	-3.59759	48.0596	-17.214	-11.9196	0
0.0927	-72.3433	14.0726	8.7392	13.8044	-5.00767	-4.51041	68.8117	-7.4745	-10.7093	0
0.0933	-92.8394	11.6298	-1.03281	15.3267	-4.43662	-2.68477	72.1737	-3.8505	-10.7093	-0.310643
0.0940	-50.9902	7.96561	-12.6321	16.5376	-4.12913	-1.75405	37.6835	-6.8705	-7.95863	0
0.0947	20.139	2.49589	-24.2314	15.3267	-5.62264	-5.11895	-5.64691	-11.476	-6.45492	-0.310643
0.0953	32.2795	-1.16829	-30.0311	18.0945	-7.16009	-7.55314	-30.3697	-12.08	-2.78735	-0.931929
0.0960	-14.7115	0.637249	-26.6148	20.2049	-8.08255	-6.9446	-34.64	-6.8705	1.17362	-0.310643
0.0967	-82.1271	6.16007	-18.4318	17.1604	-8.69753	-4.51041	-21.5201	0.755	1.17362	0.310643
0.0973	-112.336	9.50563	-11.1226	15.6381	-8.08255	-3.29331	-4.12046	2.567	1.5037	0
0.0980	-121.191	9.82426	-8.65975	15.6381	-7.77506	-6.33605	10.2262	-2.265	1.79711	-0.310643
0.0987	-160.541	11.9484	-5.8791	15.3267	-7.77506	-8.16169	24.2639	-6.5685	2.714	0
0.0993	-169.11	16.834	0.476683	15.6381	-7.16009	-7.55314	33.7223	-6.5685	5.17127	0
0.1000	-78.7706	20.4982	6.59412	15.3267	-6.23762	-7.55314	37.3838	-2.265	6.38157	0
0.1007	26.852	22.941	11.2021	16.5376	-3.51415	-6.03177	42.8716	5.3605	8.83885	-0.621286
0.1013	30.7798	22.941	11.8376	19.3054	-3.20666	-6.03177	45.9244	7.1725	13.0932	-1.24257
0.1020	-48.2765	16.2499	2.93955	17.7831	-5.62264	-8.16169	42.5719	-1.661	12.7998	-0.621286
0.1027	-102.552	5.84145	-13.506	14.1158	-5.93013	-7.24887	46.2335	-10.872	8.50876	0.310643
0.1033	-66.273	2.17727	-22.0863	13.8044	-5.62264	-5.42323	54.1654	-11.778	6.38157	0
0.1040	20.7103	6.74422	-15.9689	14.7039	-4.43662	-3.59759	48.6777	-11.476	7.29847	-0.310643
0.1047	74.4143	10.4084	-9.21588	13.8044	-2.89918	-1.75405	32.4955	-14.798	8.21536	0
0.1053	125.119	8.60286	-10.487	11.0712	-3.51415	-3.29331	17.8491	-19.4035	4.84119	0
0.1060	215.387	7.38147	-14.4594	10.1371	-2.89918	-3.59759	12.6611	-19.1015	1.17362	-0.310643
0.1067	249.595	11.3643	-12.6321	10.4484	-0.131781	-1.44977	13.2698	-14.496	0.880217	-0.310643
0.1073	234.312	20.1796	-2.54231	10.1371	2.2842	-0.841227	12.0524	-7.4745	1.79711	-0.310643
0.1080	263.021	27.5079	9.37477	11.348	6.89652	1.59296	13.2698	2.265	4.54779	0
0.1087	294.158	25.0651	9.69256	11.0712	9.00502	2.81006	14.4965	4.4545	6.38157	0
0.1093	310.655	15.294	1.11226	8.92615	6.58904	0.375867	12.9701	-5.0585	4.54779	-0.310643
0.1100	348.148	8.28424	-2.22452	8.61477	4.74411	0.0715938	14.7962	-14.798	3.33749	0
0.1107	381.427	5.2573	-1.90673	8.61477	3.51415	-0.841227	14.1875	-20.3095	3.00741	0
0.1113	404.637	8.60286	2.62176	8.3034	3.20666	-0.841227	10.2262	-16.912	3.33749	0
0.1120	395.781	16.834	10.0104	8.61477	4.74411	3.4186	9.91721	-6.8705	4.54779	0
0.1127	335.364	18.9582	6.59412	6.78111	3.82164	3.4186	8.08173	-1.963	5.17127	0
0.1133	293.515	16.2499	-5.56131	5.88157	1.66922	-1.1455	4.12046	1.963	6.67498	0
0.1140	282.874	13.8071	-14.4594	7.99202	0.483196	-3.29331	2.89369	9.2865	10.3425	0
0.1147	164.183	11.0457	-17.7962	8.92615	-3.51415	-6.64032	0.149835	15.402	10.3425	-0.310643
0.1153	-69.3439	8.60286	-17.7962	10.1371	-7.16009	-7.85742	2.28498	20.3095	10.0491	-0.310643
0.1160	-154.756	4.03591	-18.4318	13.493	-8.08255	-6.64032	8.99947	23.0275	11.8829	0
0.1167	-56.4892	-0.849665	-19.9413	14.1158	-10.235	-9.09241	7.47302	23.9335	9.42566	-0.310643
0.1173	-21.4245	-0.849665	-18.114	13.493	-12.036	-10.0052	5.64691	29.445	7.29847	0
0.1180	-9.49818	-0.26552	-16.9223	11.6594	-12.9584	-8.48386	8.39076	32.163	5.17127	0
0.1187	116.549	-4.51385	-21.133	9.54891	-15.1109	-8.16169	9.3085	24.8395	-0.0366757	0
0.1193	228.813	-8.17803	-23.9136	11.9707	-15.7258	-5.11895	14.4965	11.174	-0.623487	0.310643
0.1200	233.741	-9.39942	-24.2314	15.0153	-16.6044	-4.81468	17.2404	-2.265	-0.0366757	0
0.1207	205.032	-10.3022	-25.1053	14.7039	-19.6793	-10.0052	10.8349	-11.174	-3.37417	0
0.1213	231.599	-7.85941	-24.2314	16.2608	-19.6793	-11.5266	7.17335	-13.892	-4.91454	0
0.1220	269.448	-0.584145	-17.7962	18.3713	-16.2969	-10.918	5.64691	-11.174	-3.08076	0
0.1227	221.243	10.1429	-3.17789	16.5376	-12.036	-9.39668	3.51176	-5.0585	-2.78735	-0.310643
0.1233	149.186	19.8609	13.6649	14.1158	-7.46757	-4.51041	5.0382	0.151	-2.78735	0
0.1240	45.4199	25.9679	24.3109	9.54891	-6.8526	-3.90186	1.06757	1.057	-4.62114	0
0.1247	-255.165	30.8535	31.9378	3.11377	-8.69753	-5.7275	-6.25561	3.171	-7.37182	-0.931929
0.1253	-588.102	34.2521	35.9102	-1.45309	-7.16009	-4.20613	-7.17335	6.8705	-8.25203	-1.24257
0.1260	-701.294	28.7293	31.0639	-5.43181	-4.70018	-4.51041	-8.09109	0.151	-9.49901	-0.310643
0.1267	-619.524	21.7196	25.5026	-5.12043	-4.12913	-4.81468	-8.39076	-13.59	-8.58212	0
0.1273	-391.854	16.834	22.4836	-1.45309	-4.70018	-4.81468	-4.4295	-23.9335	-3.99765	-0.310643
0.1280	-151.114	7.96561	15.81	0.069195	-8.69753	-9.09241	-5.33787	-32.8425	-1.54038	0
0.1287	7.92705	-0.26552	10.2487	1.00333	-13.5734	-11.8309	-6.86432	-40.166	-0.953568	0
0.1293	87.269	-5.41662	7.2297	2.52562	-16.0333	-12.4394	-5.95594	-45.3	-0.330081	0
0.1300	75.3427	-10.6208	3.57513	5.25882	-18.1418	-12.4394	-5.64691	-46.206	-0.0366757	0.310643
0.1307	43.6345	-13.9664	-1.58894	8.92615	-16.0333	-7.85742	-0.149835	-46.206	1.5037	0
0.1313	56.1321	-18.5864	-12.6321	9.82569	-12.6509	-5.11895	4.42013	-52.9255	1.79711	-0.310643
0.1320	86.6263	-22.2506	-25.4231	7.99202	-12.9584	-7.55314	1.67628	-56.021	-0.0366757	0
0.1327	89.6971	-21.6134	-31.2228	6.46973	-12.6509	-9.09241	-1.98531	-45.3	-1.54038	-0.310643
0.1333	84.7695	-18.5864	-30.5872	6.15835	-9.92748	-8.78814	-3.20272	-34.0505	-0.953568	-0.621286
0.1340	117.478	-14.6036	-25.1053	8.61477	-4.70018	-6.03177	-0.149835	-26.123	2.09052	0
0.1347	164.754	-10.0367	-18.4318	11.348	-0.131781	-3.59759	2.59402	-19.4035	4.54779	0
0.1353	188.25	-8.49665	-18.114	11.348	2.59169	-5.7275	-0.45887	-15.704	2.714	0
0.1360	204.104	-9.71805	-20.5768	12.2821	4.74411	-7.55314	-4.4295	-13.59	1.17362	0
0.1367	224.6	-10.3022	-20.259	15.0153	6.58904	-6.9446	-5.95594	-13.288	0.880217	-0.310643
0.1373	233.741	-9.71805	-16.2867	15.9494	9.61999	-5.7275	-6.56465	-13.59	-0.0366757	0
0.1380	245.596	-5.73524	-8.97754	15.9494	13.8809	-3.59759	-5.33787	-11.174	-0.623487	0
0.1387	248.381	-1.16829	-1.3506	16.849	16.3408	-1.44977	-4.4295	-4.4545	-0.953568	0
0.1393	142.758	0.0531041	2.06563	17.4717	14.8034	-2.05832	-6.56465	1.057	-0.623487	-0.310643
0.1400	-22.9242	-0.849665	1.74784	16.5376	11.4649	-4.81468	-10.2262	1.057	-1.54038	0
0.1407	-84.8409	-0.849665	0.794472	16.2608	7.77506	-7.24887	-12.0524	0.453	-1.54038	0
0.1413	-74.4857	1.2745	1.43005	17.7831	5.97406	-6.03177	-8.39076	4.4545	0.880217	-0.310643
0.1420	-98.3383	3.39866	1.11226	17.4717	5.97406	-2.98904	-4.72917	10.4945	2.714	-0.310643
0.1427	-167.611	3.39866	-1.03281	14.1158	4.43662	-5.11895	-7.78206	12.08	1.5037	0
0.1433	-229.242	2.81452	-2.54231	10.4484	2.59169	-7.85742	-11.144	8.9845	0.293406	0
0.1440	-235.955	0.955874	-4.3696	4.04791	-0.131781	-10.3095	-13.2791	4.7565	-1.24697	0
0.1447	-185.607	-0.26552	-5.00518	-4.1863	-0.439269	-10.6138	-12.9701	2.265	-2.45727	0
0.1453	-111.122	0.371729	-4.05181	-7.26547	2.89918	-6.9446	-8.6998	2.567	-1.24697	0
0.1460	-60.4884	0.637249	-3.17789	-6.9541	3.82164	-6.64032	-6.25561	5.0585	0.880217	0
0.1467	-52.847	0.0531041	-0.715025	-7.54225	1.66922	-11.5266	-8.6998	9.8905	1.5037	0
0.1473	-49.4905	-0.26552	2.06563	-5.43181	-0.746757	-15.8043	-11.7527	12.382	2.09052	0
0.1480	-15.2828	-1.48691	0.476683	1.28011	-2.89918	-19.1513	-13.5788	8.3805	3.9243	0
0.1487	-3.99923	-2.07106	-0.397236	11.6594	-2.89918	-20.0642	-12.0524	3.775	7.92195	0
0.1493	-53.1327	-0.584145	3.25734	21.1391	-1.36173	-17.63	-6.56465	2.869	11.5528	-0.310643
0.1500	-86.412	-1.16829	5.40241	26.3287	-2.59169	-15.8043	-4.12046	1.661	11.2594	-0.310643
0.1507	-43.7059	-4.83247	1.74784	28.1624	-4.12913	-14.5872	-4.72917	-1.963	8.21536	0
0.1513	29.2801	-10.6208	-6.19689	25.7059	-6.23762	-13.6565	-6.56465	-8.9845	3.00741	-0.310643
0.1520	82.9841	-14.6036	-13.506	22.0386	-9.00502	-13.6565	-9.3085	-13.288	-1.24697	-0.310643
0.1527	132.403	-11.5236	-11.9965	20.5163	-8.69753	-9.09241	-6.56465	-7.1725	-1.54038	-0.310643
0.1533	175.466	-5.73524	-7.15025	19.3054	-8.69753	-5.7275	-1.98531	4.7565	-2.45727	-0.310643
0.1540	177.895	-3.9297	-7.38859	16.2608	-11.421	-6.03177	-1.98531	14.496	-6.12484	0
0.1547	185.179	-6.05387	-12.9499	14.1158	-13.5734	-5.42323	-2.59402	19.4035	-9.49901	-0.621286
0.1553	223.957	-9.71805	-20.259	11.348	-15.1109	-5.42323	-4.4295	20.0075	-13.7534	-1.24257
0.1560	226.385	-9.39942	-22.4041	5.5702	-14.4959	-2.68477	-3.82079	22.1215	-17.421	-0.621286
0.1567	182.751	-3.61108	-16.2867	-3.59814	-10.4985	4.34932	1.67628	27.029	-20.465	0
0.1573	148.9	0.371729	-11.9965	-13.3546	-8.08255	6.47924	3.51176	27.935	-24.426	-0.310643
0.1580	124.191	1.59312	-11.361	-20.6893	-7.46757	4.04505	2.28498	27.029	-26.5899	-0.310643
0.1587	116.549	5.84145	-7.38859	-30.4458	-6.23762	1.89723	0.75854	28.539	-25.9664	0
0.1593	192.249	10.727	-1.90673	-37.4691	-5.00767	-0.841227	-0.45887	30.351	-22.6289	0
0.1600	221.529	15.9312	5.40241	-28.9235	-2.2842	-1.75405	2.89369	31.559	-14.6703	0
0.1607	8.21271	24.7465	18.829	-18.8556	1.97671	-0.536953	5.94658	35.5605	-7.04174	0
0.1613	-294.801	32.3935	31.0639	-18.2329	2.89918	-3.29331	4.42013	41.978	-2.45727	0.310643
0.1620	-434.631	31.8093	32.8912	-18.5443	1.09817	-7.24887	1.98531	41.374	0.293406	0
0.1627	-406.208	24.7465	26.4559	-18.5443	-0.131781	-11.5266	-0.767905	30.049	1.79711	-0.310643
0.1633	-316.511	18.374	20.9741	-19.7552	-0.131781	-12.7437	-1.06757	21.8195	3.63089	0
0.1640	-231.027	14.0726	21.2919	-22.2116	1.66922	-10.0052	2.28498	19.4035	6.38157	0.310643
0.1647	-139.473	7.38147	20.3385	-25.2562	1.36173	-11.2223	2.28498	12.986	8.50876	0
0.1653	-42.7775	0.371729	17.3195	-22.7997	-1.05425	-16.1086	-0.767905	4.7565	12.4697	-0.310643
0.1660	20.7103	-3.29245	16.0483	-13.9774	-3.20666	-20.6906	-1.37661	1.359	16.1373	0
0.1667	49.062	-3.29245	13.9033	-2.97538	-5.93013	-25.559	-3.20272	3.171	19.1814	0
0.1673	50.9188	-2.38968	10.2487	9.54891	-6.23762	-25.8632	-2.90305	1.963	25.893	0
0.1680	53.3469	-4.24833	5.08462	20.8277	-4.12913	-24.0376	-0.45887	-8.0785	32.9348	0
0.1687	85.1266	-5.41662	2.06563	24.1836	-2.59169	-24.3419	-0.767905	-19.1015	33.5583	0
0.1693	121.12	0.0531041	7.2297	22.35	-2.2842	-24.3419	-2.29435	-23.0275	30.4775	0
0.1700	138.545	7.96561	15.81	18.0945	-1.05425	-23.7333	-4.12046	-20.3095	26.5165	0.310643
0.1707	127.19	16.834	23.6753	14.1158	1.66922	-21.2991	-5.0382	-12.08	23.4725	0
0.1713	75.3427	24.481	29.2366	14.4272	4.43662	-16.7171	-3.51176	-2.265	22.2622	0
0.1720	-5.49895	25.7024	29.2366	15.0153	3.82164	-14.2651	-3.82079	0.151	19.8049	0
0.1727	-34.8505	21.4009	23.9931	12.9049	2.2842	-13.6565	-5.33787	-3.5485	16.1373	-0.310643
0.1733	26.852	14.7098	14.2211	10.1371	1.66922	-13.6565	-5.64691	-4.4545	13.0932	0
0.1740	78.9849	6.74422	0.794472	7.09249	0.483196	-14.5872	-6.86432	-2.567	9.13225	0
0.1747	96.4101	1.2745	-8.02417	5.5702	-0.131781	-12.4394	-5.64691	-0.755	6.67498	-0.310643
0.1753	137.617	-2.70831	-11.9965	4.94744	0.483196	-10.0052	-1.37661	1.359	7.00506	0
0.1760	200.462	-7.27526	-19.3057	4.04791	-0.439269	-10.0052	-0.45887	-0.755	6.67498	0
0.1767	267.592	-12.745	-28.7599	1.28011	-2.59169	-11.8309	-2.29435	-8.3805	4.54779	0
0.1773	300.871	-17.365	-35.5129	-1.14172	-3.20666	-12.4394	-2.90305	-15.704	3.00741	0
0.1780	269.448	-17.0464	-36.1485	-1.76447	-2.89918	-10.6138	-1.06757	-18.4975	3.33749	0
0.1787	224.243	-14.285	-32.4145	-2.07585	-2.89918	-9.09241	0.45887	-18.7995	3.63089	0
0.1793	210.817	-13.0636	-29.3955	-4.80905	-2.59169	-8.48386	1.06757	-20.3095	3.63089	-0.310643
0.1800	202.89	-14.285	-28.4421	-9.37592	-3.51415	-9.09241	0.75854	-24.2355	3.33749	0
0.1807	192.82	-15.825	-27.5682	-12.4551	-5.00767	-11.2223	-0.767905	-27.633	2.4206	0
0.1813	198.605	-14.9222	-23.5958	-12.7319	-5.31516	-12.1351	-2.29435	-28.841	2.4206	-0.310643
0.1820	216.03	-11.2581	-18.114	-8.16501	-5.00767	-10.918	-0.149835	-24.8395	3.63089	-0.310643
0.1827	221.243	-6.63801	-13.506	-0.242182	-4.43662	-9.39668	2.28498	-14.496	7.00506	0
0.1833	166.611	-4.51385	-11.1226	6.15835	-4.43662	-9.39668	0.149835	-6.8705	9.71906	0
0.1840	71.3435	-4.83247	-9.85146	8.92615	-5.93013	-12.1351	-0.767905	-8.6825	9.42566	-0.310643
0.1847	0.571319	-4.51385	-7.70638	9.23753	-6.8526	-12.4394	-2.59402	-10.4945	8.21536	-0.931929
0.1853	-4.28489	-0.849665	-4.3696	8.61477	-5.93013	-9.09241	-4.72917	-5.3605	7.59187	-0.931929
0.1860	30.2085	3.39866	-1.3506	7.40386	-3.82164	-6.33605	-1.37661	0.151	7.29847	-0.310643
0.1867	36.9215	5.84145	1.11226	6.78111	-2.89918	-5.7275	0.149835	4.4545	5.75809	0
0.1873	26.2093	5.52283	0.476683	5.5702	-3.51415	-5.7275	-2.29435	7.7765	3.9243	0
0.1880	48.7764	3.39866	-2.54231	2.52562	-3.82164	-6.33605	-4.12046	7.7765	1.79711	0
0.1887	103.694	1.85864	-5.32297	-2.07585	-3.20666	-5.7275	-3.51176	6.5685	0.586811	-0.310643
0.1893	134.26	0.637249	-7.70638	-10.3101	-1.66922	-2.68477	-1.06757	7.4745	-0.0366757	-0.310643
0.1900	87.269	0.955874	-9.21588	-17.9215	0.483196	0.680141	1.36724	10.7965	-1.87046	0
0.1907	-0.642734	0.637249	-9.21588	-22.7997	1.97671	2.20151	2.28498	10.7965	-3.70425	0
0.1913	-53.4183	-1.48691	-8.02417	-29.5463	1.66922	1.59296	1.36724	5.9645	-5.20795	-0.310643
0.1920	-72.986	-0.584145	-3.17789	-35.324	1.09817	0.0715938	0.149835	1.661	-6.12484	0
0.1927	-58.6316	3.39866	2.30397	-33.8017	1.36173	0.0715938	0.45887	1.359	-3.70425	0
0.1933	-47.0624	5.52283	6.03799	-25.8789	1.66922	-0.536953	1.36724	1.963	1.17362	-0.310643
0.1940	-171.253	6.4787	12.076	-20.3779	1.66922	-0.841227	1.98531	2.869	3.63089	0
0.1947	-347.291	7.38147	17.3195	-19.4438	0.483196	-2.38049	-1.06757	3.775	3.63089	0.310643
0.1953	-386.069	8.60286	17.8756	-19.167	-0.746757	-4.20613	-3.51176	3.473	2.714	0
0.1960	-328.437	10.4084	17.8756	-17.9215	-0.439269	-3.59759	-1.67628	3.171	3.00741	0
0.1967	-268.591	11.0457	18.5112	-15.8111	0.790684	-1.44977	0.45887	3.775	4.84119	0
0.1973	-228.028	9.18701	18.5112	-14.8769	0.483196	-0.841227	0.45887	4.7565	5.75809	0.310643
0.1980	-216.744	6.4787	17.8756	-15.8111	-1.66922	-3.29331	-2.29435	2.869	5.17127	-0.310643
0.1987	-218.244	3.39866	15.1744	-16.0878	-3.20666	-4.81468	-5.95594	-2.265	4.25438	-0.931929
0.1993	-202.39	0.0531041	10.5665	-16.3992	-3.20666	-3.90186	-6.25561	-5.6625	3.33749	-0.310643
0.2000	-167.611	-4.83247	4.2107	-17.022	-2.89918	-2.98904	-4.4295	-8.0785	2.09052	0
0.2007	-121.477	-7.59388	-1.03281	-16.0878	-1.97671	-0.23268	-1.67628	-8.3805	2.714	-0.310643
0.2013	-66.273	-8.49665	-5.56131	-17.022	-1.66922	0.375867	-0.45887	-5.0585	2.09052	-0.310643
0.2020	-16.4968	-9.0808	-9.85146	-18.8556	-3.51415	-2.68477	-3.82079	-0.453	-0.330081	0
0.2027	26.4949	-6.63801	-8.97754	-17.9215	-3.51415	-2.05832	-4.12046	5.6625	-0.330081	0
0.2033	62.8451	-2.70831	-5.56131	-15.8111	-1.97671	0.375867	-1.67628	11.476	1.5037	0
0.2040	96.1245	0.637249	-2.8601	-14.5655	-1.66922	0.680141	-1.98531	15.1	2.09052	-0.310643
0.2047	143.401	5.2573	2.06563	-14.2542	-1.05425	0.0715938	-1.98531	17.818	2.714	-0.310643
0.2053	169.039	9.82426	7.54749	-14.2542	-1.36173	-2.38049	-5.33787	19.4035	2.714	-0.310643
0.2060	129.689	13.4884	10.8843	-13.666	-1.66922	-3.29331	-7.78206	20.6115	2.714	-0.310643
0.2067	70.1294	17.4712	14.5388	-11.8323	-0.746757	-1.75405	-5.0382	22.4235	4.54779	0
0.2073	50.9188	20.8168	18.5112	-10.3101	-1.36173	-2.38049	-4.12046	23.0275	4.84119	-0.310643
0.2080	63.7735	20.4982	18.829	-8.47639	-2.59169	-3.29331	-5.33787	22.7255	4.54779	-0.310643
0.2087	69.2724	16.5154	14.2211	-7.85363	-3.20666	-3.59759	-5.33787	20.6115	5.17127	0
0.2093	39.9209	12.267	10.5665	-8.47639	-4.43662	-4.81468	-6.25561	15.704	4.54779	0
0.2100	-16.4968	11.0457	9.69256	-9.6873	-5.00767	-4.81468	-6.56465	12.382	3.00741	0
0.2107	-54.6324	10.4084	7.86528	-10.6214	-5.31516	-4.51041	-6.86432	11.476	1.79711	0
0.2113	-36.0645	6.16007	2.93955	-10.6214	-5.62264	-5.11895	-8.09109	5.6625	0.880217	0
0.2120	10.9265	2.49589	-0.715025	-9.09914	-5.31516	-3.59759	-7.17335	-4.1525	1.79711	0.310643
0.2127	35.9931	0.0531041	-2.22452	-8.16501	-4.70018	-0.841227	-5.95594	-12.382	2.09052	0
0.2133	45.7055	-2.07106	-2.54231	-9.6873	-4.43662	0.680141	-6.25561	-17.818	1.17362	0
0.2140	47.2767	-2.70831	-3.17789	-10.6214	-5.31516	0.984414	-6.86432	-17.214	0.880217	0.310643
0.2147	40.278	-2.07106	-5.00518	-12.1437	-6.23762	0.0715938	-9.3085	-13.288	-0.953568	-0.310643
0.2153	41.4921	0.637249	-3.73402	-16.0878	-5.31516	1.89723	-10.2262	-9.8905	-3.08076	-1.24257
0.2160	48.7764	4.30143	-1.3506	-20.6893	-2.59169	6.78351	-5.95594	-3.8505	-4.91454	-0.621286
0.2167	55.4894	5.2573	-1.58894	-24.6334	-1.05425	8.91342	-3.51176	1.057	-7.95863	-0.310643
0.2173	69.8438	4.30143	-1.3506	-22.523	-1.05425	9.2177	-2.90305	0.453	-9.79241	-0.310643
0.2180	60.7027	2.17727	-2.8601	-17.9215	-1.97671	5.87069	-3.82079	-3.8505	-10.0858	0
0.2187	-25.995	0.637249	-3.73402	-15.4997	-2.59169	2.20151	-5.95594	-6.5685	-11.9196	0
0.2193	-131.903	3.08004	1.74784	-10.8982	-1.36173	3.4186	-3.51176	-4.4545	-11.6262	-0.310643
0.2200	-170.61	5.84145	6.27633	-8.16501	-1.05425	3.11433	-2.29435	-1.963	-10.7093	-0.310643
0.2207	-154.185	6.16007	5.40241	-8.78776	-2.2842	0.680141	-4.72917	-0.755	-12.8365	-0.310643
0.2213	-123.905	5.52283	2.62176	-9.37592	-4.43662	-2.05832	-8.09109	0.755	-14.3769	0
0.2220	-79.699	4.93868	1.43005	-5.74318	-6.23762	-4.51041	-10.8349	1.963	-12.2497	-0.310643
0.2227	-12.2119	7.38147	6.03799	0.380572	-5.93013	-4.20613	-8.99947	5.9645	-7.37182	-0.310643
0.2233	15.8541	8.92149	9.37477	4.94744	-5.62264	-3.29331	-5.33787	8.0785	4.54779	0
0.2240	-10.1409	6.16007	6.03799	7.09249	-6.23762	-3.29331	-4.4295	2.869	20.4284	-0.310643
0.2247	-24.4239	1.85864	0.476683	8.3034	-7.16009	-3.90186	-5.64691	-3.5485	23.4725	0
0.2253	-22.9242	-0.849665	-4.3696	7.99202	-9.3125	-5.7275	-9.3085	-6.2665	17.6777	0
0.2260	-15.9255	-0.849665	-6.83246	8.92615	-10.235	-5.42323	-10.5259	-2.869	16.1373	0
0.2267	27.709	0.955874	-6.51467	11.6594	-8.08255	-2.05832	-7.78206	4.1525	18.2645	0
0.2273	125.119	2.17727	-5.56131	9.54891	-6.54511	0.984414	-6.56465	9.5885	16.1373	0
0.2280	210.245	4.30143	-1.58894	1.00333	-6.54511	2.20151	-8.09109	12.684	11.2594	0
0.2287	156.827	9.50563	7.54749	-9.6873	-5.62264	1.59296	-10.5259	16.006	5.75809	0
0.2293	36.5644	16.2499	17.8756	-19.7552	-4.12913	1.59296	-10.8349	19.7055	-0.953568	0
0.2300	58.8459	22.6223	26.7737	-26.1903	-1.66922	4.65359	-7.78206	22.4235	-5.53803	-0.310643
0.2307	193.749	30.8535	35.9102	-27.0898	0.790684	7.39206	-5.0382	24.2355	-9.49901	0
0.2313	298.086	37.2791	41.0742	-24.0453	1.36173	5.26214	-4.72917	25.821	-13.46	0
0.2320	323.724	35.7391	37.1019	-19.7552	0.175708	0.680141	-6.86432	24.2355	-11.9196	0.310643
0.2327	232.17	29.9507	27.9654	-15.1883	-0.746757	-1.75405	-7.17335	20.0075	-8.87552	0.310643
0.2333	44.8486	23.2596	19.7029	-10.3101	-1.05425	-2.05832	-3.20272	14.798	-1.24697	0
0.2340	-171.539	17.4712	14.8566	-6.33134	-1.05425	-0.536953	-0.149835	8.3805	5.17127	0
0.2347	-355.575	12.8512	12.7116	-5.74318	-0.131781	1.59296	-0.767905	2.265	3.63089	0
0.2353	-397.71	6.16007	8.10362	-5.43181	-0.439269	1.28869	-3.82079	-2.567	16.4674	0
0.2360	-304.585	-2.70831	-0.0794472	-5.43181	-1.66922	0.375867	-7.17335	-11.778	18.2645	0
0.2367	-189.249	-8.49665	-8.02417	-10.3101	-0.439269	2.50578	-6.56465	-22.4235	-5.53803	-0.310643
0.2373	-94.9104	-10.6208	-12.3143	-13.666	1.09817	6.47924	-2.90305	-24.5375	-7.37182	-0.310643
0.2380	-27.2091	-10.9394	-14.4594	-12.1437	1.09817	7.69633	-2.29435	-21.5175	-6.74833	0
0.2387	8.78403	-10.3022	-15.3333	-12.4551	0.175708	5.26214	-4.72917	-20.0075	-26.5899	-0.310643
0.2393	20.4247	-9.0808	-13.1882	-13.0433	-0.439269	4.65359	-5.0382	-17.818	-32.3846	0
0.2400	17.6395	-7.27526	-10.8048	-9.09914	-0.439269	6.47924	-2.29435	-14.496	-20.465	0
0.2407	5.14187	-6.05387	-9.85146	-4.49767	-0.131781	7.69633	-1.06757	-12.08	-9.16893	0
0.2413	-12.569	-4.24833	-7.70638	-3.59814	0.483196	10.4527	-0.149835	-8.6825	5.17127	-0.310643
0.2420	-25.6379	-4.51385	-7.38859	-4.49767	-0.746757	11.0612	-2.29435	-8.6825	20.7218	-0.310643
0.2427	-28.1375	-6.05387	-8.65975	-3.59814	-2.89918	9.84414	-6.25561	-10.4945	27.4334	-0.310643
0.2433	-28.1375	-4.24833	-5.8791	1.90286	-1.36173	12.8869	-5.33787	-7.4745	50.9426	0
0.2440	-22.2814	-0.849665	-2.22452	8.92615	0.790684	17.4689	-3.51176	-2.869	77.7892	0
0.2447	4.85621	0.637249	-0.715025	13.493	0.790684	18.9902	-3.51176	-1.359	78.4127	-0.931929
0.2453	30.7798	-0.26552	-1.3506	13.1816	-1.36173	17.1646	-5.95594	-2.567	34.1451	-1.24257
0.2460	43.6345	-0.849665	-2.54231	7.71524	-3.51415	14.7125	-8.6998	-4.1525	-55.2703	0
0.2467	60.0599	2.17727	-0.715025	0.380572	-3.51415	15.0168	-7.78206	-1.359	-115.675	0.310643
0.2473	71.7006	5.84145	1.43005	-8.78776	-3.51415	15.9475	-6.56465	4.1525	-142.852	0
0.2480	67.4157	7.06284	1.11226	-19.167	-5.31516	14.7125	-6.56465	7.4745	-142.852	0
0.2487	48.2051	7.70009	1.11226	-25.8789	-5.62264	13.7997	-5.33787	8.3805	-47.3483	0
0.2493	33.2079	8.60286	2.06563	-28.3007	-4.12913	13.4954	-3.82079	10.7965	45.4412	0
0.2500	27.709	9.18701	1.74784	-27.9894	-3.82164	11.9741	-4.72917	13.288	16.1373	0
0.2507	28.3517	11.0457	2.30397	-23.7339	-4.12913	8.91342	-5.64691	15.704	-33.5949	-0.310643
0.2513	63.4164	13.8071	5.08462	-14.5655	-4.70018	5.56642	-5.0382	18.12	-8.58212	-0.310643
0.2520	88.4831	13.1698	6.27633	0.380572	-5.93013	0.984414	-5.95594	17.516	49.4022	-0.310643
0.2527	71.0578	9.82426	4.44905	15.0153	-7.77506	-5.11895	-7.48239	14.194	86.0412	-0.310643
0.2533	78.6992	5.2573	1.11226	25.0832	-9.3125	-9.09241	-7.17335	11.778	125.101	-0.310643
0.2540	91.8396	2.49589	0.238342	27.5396	-8.69753	-9.39668	-4.72917	11.778	161.41	-0.310643
0.2547	57.3462	1.59312	-0.715025	18.0945	-8.69753	-10.6138	-6.56465	9.8905	72.2878	-0.310643
0.2553	57.3462	1.59312	-1.3506	6.46973	-8.69753	-10.6138	-8.99947	5.9645	-62.6054	-0.310643
0.2560	122.334	3.08004	1.11226	4.94744	-6.8526	-5.7275	-5.95594	6.5685	-83.9507	-0.310643
0.2567	150.4	3.39866	0.794472	9.54891	-6.54511	-3.29331	-4.12046	8.3805	-75.1118	0
0.2573	139.402	2.81452	-1.58894	14.7039	-7.16009	-3.29331	-7.17335	5.0585	-61.3585	0
0.2580	129.332	5.2573	0.794472	15.6381	-6.54511	-3.90186	-10.5259	0.453	-11.3328	0
0.2587	68.9154	8.28424	5.08462	11.348	-5.93013	-6.64032	-12.6704	-1.963	47.8985	0
0.2593	-64.1306	12.267	11.2021	6.15835	-4.12913	-5.7275	-8.99947	-1.057	81.7502	0
0.2600	-212.102	18.9582	19.7029	-1.45309	-2.59169	-3.29331	-4.12046	1.057	10.636	-0.310643
0.2607	-293.015	26.2865	27.0915	-7.26547	-0.746757	-2.05832	-3.20272	5.0585	-71.4443	0
0.2613	-322.938	30.2693	29.2366	-2.66401	1.09817	0.0715938	-2.29435	14.194	-64.1091	0
0.2620	-364.43	27.8265	24.3109	-2.35263	-0.746757	-0.536953	-3.82079	17.818	-76.9456	-0.310643
0.2627	-372.929	23.2596	18.1934	-13.666	-1.05425	-0.23268	-4.4295	15.1	-75.1118	0
0.2633	-289.659	18.9582	13.3471	-14.5655	2.2842	5.26214	-0.149835	10.1925	-11.3328	0
0.2640	-151.685	12.267	5.08462	-2.66401	5.05159	10.1484	1.98531	-1.057	6.08817	-0.310643
0.2647	-31.494	4.93868	-2.8601	10.1371	5.05159	11.9741	-0.767905	-14.194	15.5505	0
0.2653	32.6366	-0.584145	-8.34196	16.2608	2.89918	10.757	-6.25561	-20.9135	85.1243	0
0.2660	48.2051	-2.38968	-11.361	9.23753	3.20666	11.3655	-8.09109	-23.9335	162.62	-0.310643
0.2667	59.2029	0.371729	-9.21588	-17.3333	6.89652	18.686	-2.59402	-26.123	177.29	-0.310643
0.2673	63.7735	1.59312	-7.38859	-60.0612	8.69753	26.615	2.59402	-26.727	100.968	-0.310643
0.2680	27.709	-0.584145	-8.97754	-104	8.08255	29.9799	2.59402	-26.727	-45.808	-0.310643
0.2687	-21.7101	-2.07106	-10.1692	-125.035	8.08255	28.1542	-0.149835	-26.425	-219.761	0
0.2693	-41.8491	-1.16829	-9.85146	-104.588	7.77506	23.5722	-1.67628	-24.8395	-256.693	0
0.2700	-34.8505	0.955874	-7.70638	-66.4618	7.77506	21.7287	1.06757	-22.1215	-40.0132	0
0.2707	-22.2814	2.49589	-5.32297	-43.2469	7.77506	21.7287	5.0382	-20.0075	173.623	0.310643
0.2713	-15.5684	2.81452	-5.32297	-31.6567	5.66657	19.5988	4.72917	-21.5175	147.07	0
0.2720	-9.21252	2.17727	-6.19689	-22.523	1.97671	15.6253	0.75854	-22.7255	43.9008	0
0.2727	-3.07084	2.49589	-5.56131	-24.0453	1.36173	14.4082	-0.45887	-20.3095	-16.5041	0
0.2733	-5.49895	4.93868	-2.8601	-17.022	5.05159	16.8603	2.28498	-15.402	-107.46	0
0.2740	-7.99847	7.38147	-0.397236	15.3267	6.58904	17.1646	4.72917	-10.1925	-184.662	0.310643
0.2747	-6.78442	7.96561	-0.0794472	31.2069	3.82164	12.8869	3.20272	-7.7765	-130.052	0
0.2753	-5.85602	7.06284	-0.397236	8.61477	0.175708	7.39206	-1.37661	-7.1725	-22.2988	-0.931929
0.2760	-1.28547	7.96561	0.794472	-14.5655	-1.97671	5.87069	-3.82079	-5.3605	18.888	-0.931929
0.2767	5.42753	9.18701	0.476683	-6.01996	-2.59169	4.65359	-3.20272	-2.567	71.0775	-0.310643
0.2773	11.8549	10.4084	0.476683	18.994	-1.36173	6.17496	-0.149835	0.755	143.109	0
0.2780	17.3538	10.4084	1.43005	25.0832	-0.439269	11.9741	1.67628	1.963	172.999	0
0.2787	17.3538	7.96561	0.238342	4.04791	-3.20666	9.84414	-1.06757	0.453	124.771	0
0.2793	16.7825	7.06284	-1.58894	-19.7552	-6.23762	1.59296	-2.90305	0.151	-86.0779	-0.310643
0.2800	22.21	9.18701	-0.397236	-19.167	-5.62264	0.984414	-0.767905	2.265	-350.693	-0.310643
0.2807	30.7798	11.9484	2.62176	9.82569	-4.43662	4.95787	3.20272	5.3605	-347.026	0.310643
0.2813	34.1363	12.267	2.06563	41.5862	-3.82164	5.26214	3.51176	6.2665	-54.06	0.310643
0.2820	31.9939	10.4084	-1.3506	54.0759	-2.89918	3.4186	0.149835	4.4545	165.664	0
0.2827	29.8514	9.82426	-2.22452	57.4318	-2.89918	2.81006	-1.98531	2.265	127.852	0
0.2833	29.5658	9.82426	-1.90673	63.867	-5.00767	1.59296	-2.29435	1.661	15.5505	0
0.2840	27.4233	10.1429	-1.58894	66.6002	-5.62264	3.11433	-1.37661	2.265	-1.87046	0
0.2847	21.3531	11.6298	-0.715025	64.1437	-5.62264	6.47924	0.45887	3.473	25.893	0
0.2853	9.14111	11.0457	-2.22452	65.7006	-8.39004	4.65359	-0.767905	1.963	23.7659	-0.310643
0.2860	-6.42734	8.28424	-6.51467	62.3447	-9.92748	1.89723	-1.98531	-1.057	-47.3483	-0.310643
0.2867	-16.2112	6.4787	-8.97754	49.8204	-8.39004	3.72288	-1.06757	-4.1525	-141.935	0
0.2873	-17.4252	7.06284	-8.02417	49.8204	-5.93013	8.0006	1.98531	-4.7565	-109.88	0
0.2880	-17.1396	9.18701	-5.56131	55.3214	-3.51415	10.1484	5.0382	-1.057	16.4674	0
0.2887	-20.7817	9.50563	-5.56131	35.4624	-5.00767	5.26214	1.67628	2.869	62.2387	0
0.2893	-22.9242	8.92149	-5.8791	22.6614	-6.8526	-1.1455	-3.20272	5.9645	8.50876	0
0.2900	-20.2104	11.6298	-2.54231	49.8204	-3.20666	-1.44977	-1.06757	10.1925	-30.8443	0
0.2907	-16.8539	15.9312	2.62176	80.3354	1.66922	2.50578	4.12046	13.892	53.6932	0
0.2913	-17.4252	19.2768	10.0104	94.6933	3.20666	7.69633	8.39076	14.496	129.685	0
0.2920	-20.7817	20.8168	15.81	88.5696	2.89918	8.91342	10.2262	12.382	12.1763	0
0.2927	-22.2814	19.5954	16.0483	65.3893	0.790684	5.87069	7.78206	9.2865	-83.9507	0
0.2933	-16.8539	18.6926	16.0483	49.1976	-0.439269	4.95787	8.08173	8.9845	-2.16387	0
0.2940	-6.14168	18.9582	16.6839	37.2961	-0.746757	4.34932	11.1346	9.8905	151.947	0
0.2947	1.21405	18.0554	15.4922	19.6168	-1.97671	0.375867	11.7433	9.2865	241.069	0.310643
0.2953	-3.71357	15.6126	12.076	-19.167	-1.05425	-3.29331	12.0524	6.2665	101.885	0
0.2960	-9.78384	12.267	7.54749	-71.9628	1.36173	-7.55314	11.4437	1.661	-126.054	-0.310643
0.2967	4.57055	8.92149	3.89292	-80.5084	4.43662	-11.2223	10.5259	-3.171	-158.109	-0.310643
0.2973	16.7825	7.70009	0.476683	-30.4458	8.39004	-15.5001	11.1346	-9.2865	-2.16387	0
0.2980	12.4976	7.96561	-0.715025	12.9049	9.92748	-19.7599	10.2262	-13.288	221.521	0
0.2987	12.4976	6.16007	-0.0794472	24.1836	6.89652	-22.5162	9.60817	-10.4945	391.807	0
0.2993	13.9973	3.71729	-0.715025	53.4877	2.59169	-23.7333	8.99947	-5.9645	397.015	-0.310643
0.3000	-7.99847	6.74422	-0.397236	73.9348	2.2842	-20.0642	6.86432	-1.057	194.051	-0.621286
0.3007	-63.2022	11.6298	0.794472	7.99202	4.74411	-12.1351	6.25561	7.1725	-94.9534	-0.310643
0.3013	-85.7693	13.4884	-0.715025	-50.2702	3.82164	-10.918	3.81143	12.986	-292.709	0
0.3020	-39.9923	13.1698	-4.05181	-20.3779	-0.746757	-18.5428	-2.29435	12.684	-370.828	0
0.3027	-3.71357	4.03591	-4.3696	8.92615	-3.20666	-20.0642	-1.37661	11.476	-357.992	0
0.3033	9.42677	-6.63801	-3.17789	36.0852	-5.62264	-17.0214	3.51176	11.476	-341.231	-0.310643
0.3040	30.7798	-1.48691	-3.17789	97.1152	-7.77506	-19.7599	5.64691	12.382	-347.319	0
0.3047	41.135	5.84145	-5.32297	147.766	-11.7285	-25.8632	5.33787	13.288	-265.239	0.310643
0.3053	52.1329	4.93868	-8.65975	169.459	-27.63	-27.7068	2.28498	10.4945	25.0128	-0.310643
0.3060	65.5589	10.1429	-6.19689	146.866	-41.6427	-18.5428	5.64691	10.1925	413.775	-0.931929
0.3067	36.9215	18.9582	0.794472	74.523	-41.3352	-6.9446	13.5788	13.59	564.843	-0.621286
0.3073	-25.995	22.0382	5.40241	1.59148	-36.7668	-2.38049	15.714	15.402	335.363	0
0.3080	-70.2008	22.0382	6.59412	-61.5835	-33.1209	-0.841227	13.2698	13.892	-19.8782	0
0.3087	-73.2717	21.0823	5.7202	-109.19	-27.8936	-0.23268	8.39076	10.7965	-109.294	-0.310643
0.3093	-64.4162	23.8437	9.69256	-113.134	-20.2942	3.11433	5.64691	12.382	56.7373	0
0.3100	-40.3494	28.4107	17.8756	-83.2416	-11.7285	10.1484	7.47302	14.798	222.438	0
0.3107	-10.9979	29.3666	21.2919	-55.1484	-2.59169	14.104	7.78206	12.382	326.524	0
0.3113	-76.6282	28.7293	20.9741	-65.839	1.66922	12.8869	5.33787	7.4745	429.949	0
0.3120	-166.325	26.6051	18.5112	-98.1877	1.66922	17.1646	-0.767905	0.755	390.303	0
0.3127	-141.33	22.941	11.8376	-109.501	8.39004	26.9193	-3.51176	-5.0585	46.9816	0
0.3133	-80.9131	19.8609	4.76683	-68.6068	16.6483	20.8159	1.06757	-6.5685	-178.244	0
0.3140	-50.0618	15.6126	-1.3506	29.6846	10.5425	4.34932	2.59402	-9.2865	-78.1559	0
0.3147	-39.7067	10.1429	-8.02417	127.63	0.175708	-1.75405	-1.06757	-15.402	-54.3534	0
0.3153	-48.2765	3.71729	-15.0155	163.335	-5.93013	-5.11895	-7.17335	-20.0075	-129.135	0
0.3160	-47.6337	-0.26552	-19.3057	124.274	-19.9867	-8.78814	-12.6704	-20.0075	-117.216	0
0.3167	-37.2786	-1.16829	-22.4041	76.0453	-32.1984	-13.3522	-12.0524	-16.61	-82.1169	0.310643
0.3173	-25.6379	-0.26552	-24.5492	78.8131	-31.276	-20.0642	-10.2262	-12.684	-61.3585	-0.310643
0.3180	-7.64139	1.85864	-22.6425	82.4804	-28.2011	-20.6906	-10.8349	-8.0785	-14.6703	-0.310643
0.3187	2.07103	3.08004	-18.114	55.3214	-24.2477	-18.8471	-12.9701	-5.0585	15.2204	0
0.3193	-0.928394	2.49589	-11.6787	28.1624	-10.4985	-17.0214	-14.4965	-4.4545	26.2231	0
0.3200	-0.0714149	2.81452	-4.3696	3.11377	1.36173	-23.1248	-14.8056	-1.057	57.0307	0
0.3207	4.85621	7.96561	6.03799	-27.4012	3.51415	-33.2016	-11.4437	7.4745	-27.8002	0
0.3213	4.85621	17.1526	21.848	-35.324	16.6483	-35.9401	-4.4295	16.308	-202.377	0
0.3220	2.42811	20.1796	33.1295	-43.2469	34.0434	-34.723	-5.95594	18.12	-167.571	0
0.3227	4.21348	18.374	40.2003	-103.066	39.5342	-25.559	-6.25561	16.912	-16.5041	-0.310643
0.3233	-2.78518	20.8168	47.1917	-161.363	39.5342	-17.9342	4.12046	16.61	-119.673	0
0.3240	-33.6364	22.0382	44.4905	-140.604	36.4593	-26.794	10.5259	12.684	-239.272	0
0.3247	-67.2014	19.2768	34.0829	-43.8696	29.1675	-31.6623	12.6611	8.6825	9.42566	0
0.3253	-82.7699	15.294	23.4369	53.7991	24.8626	-24.3419	19.0759	7.7765	408.311	0
0.3260	-83.6268	7.38147	12.7116	94.382	16.3408	-27.0982	22.4284	3.171	744.003	0
0.3267	-75.6998	-3.02693	5.7202	81.2349	-4.70018	-32.2709	16.9314	-1.359	1011	0
0.3273	-53.4183	-12.745	0.238342	17.4717	-18.7568	-22.5162	11.4437	-5.0585	963.104	0
0.3280	-19.282	-19.1706	-5.56131	-45.3919	-23.6327	-8.78814	10.5259	-12.684	413.775	0
0.3287	18.5679	-19.1706	-9.85146	-45.0805	-28.5086	-2.05832	12.3614	-16.006	-272.537	0
0.3293	47.5623	-18.5864	-11.9965	-9.37592	-30.046	0.680141	14.4965	-12.684	-558.791	-0.310643
0.3300	54.9181	-16.4092	-11.6787	36.9847	-28.5086	-1.1455	14.7962	-9.8905	-380.877	-0.310643
0.3307	57.0605	-10.9394	-9.85146	94.382	-21.8317	-1.44977	12.6611	-8.3805	-51.3093	0
0.3313	61.9167	-10.3022	-9.85146	93.7592	-13.5734	6.17496	6.86432	-9.5885	168.121	0
0.3320	52.4185	1.59312	-8.65975	-19.4438	-6.54511	16.2518	6.25561	-10.872	196.215	0
0.3327	28.923	28.4107	-5.00518	-169.009	-1.05425	22.0509	11.7433	-7.4745	96.7138	0
0.3333	9.14111	31.8093	-4.05181	-234.294	2.59169	26.9193	9.91721	-3.8505	9.71906	0.310643
0.3340	10.3552	9.18701	-5.00518	-126.281	7.77506	33.9354	6.25561	-1.359	20.4284	0
0.3347	19.4963	-5.41662	-9.85146	91.9255	11.7724	28.7628	3.51176	-1.661	48.8154	-0.621286
0.3353	27.709	-6.05387	-16.2867	224.987	16.6483	13.1912	-4.12046	-4.1525	-24.426	-1.24257
0.3360	37.2072	-3.29245	-16.9223	212.463	25.4776	7.69633	-6.56465	-2.567	-153.525	-0.310643
0.3367	10.6408	-3.02693	-12.9499	148.077	30.0899	11.9741	1.98531	-0.755	-182.828	0.310643
0.3373	-47.6337	-2.38968	-8.34196	147.178	25.4776	10.1484	9.3085	-0.755	-43.0573	0
0.3380	-71.1292	0.371729	-2.22452	225.299	15.4183	-1.1455	6.25561	0.453	145.529	0
0.3387	-48.2765	6.16007	5.08462	267.715	2.2842	-14.5872	-1.06757	2.869	165.994	0.310643
0.3393	-14.0687	4.62006	12.3938	220.421	-8.69753	-10.0052	-6.86432	6.5685	27.4334	0.310643
0.3400	20.139	-13.9664	17.3195	170.358	-18.7568	11.0612	-9.91721	10.7965	-47.9352	0.310643
0.3407	50.9188	-34.4114	19.1468	169.735	-30.9685	20.2073	-7.17335	12.986	16.7608	0
0.3413	42.349	-44.1826	17.6373	142.299	-39.7978	12.8869	-1.98531	13.288	266.376	-0.310643
0.3420	2.42811	-46.0412	13.6649	26.6055	-40.7202	4.95787	1.36724	16.308	642.962	0
0.3427	1.78537	-44.5012	11.2021	-109.19	-36.4593	2.20151	7.17335	20.3095	857.515	0
0.3433	55.8464	-42.6957	10.8843	-173.264	-32.1984	2.81006	13.2698	17.516	729.957	-0.310643
0.3440	127.19	-45.7226	7.2297	-170.531	-23.6327	7.39206	17.8491	8.6825	292.635	0
0.3447	164.469	-51.1923	0.476683	-145.794	-10.235	13.1912	23.9549	-1.359	-182.828	0
0.3453	143.687	-8.17803	-2.8601	-154.962	3.51415	17.7732	27.9255	-9.2865	-505.098	0
0.3460	125.405	75.7264	-3.17789	-155.862	13.5734	22.3552	28.5342	-12.986	-679.344	0
0.3467	138.545	84.9134	-4.68739	-37.4691	21.5242	27.8321	29.452	-13.288	-642.412	0
0.3473	125.69	31.8093	-8.34196	81.2349	32.8134	36.0833	30.0607	-10.1925	-462.077	0
0.3480	59.4886	7.38147	-12.6321	57.1551	29.1675	45.5336	22.4284	-4.1525	-330.852	0
0.3487	-40.9207	7.38147	-15.9689	-61.8949	6.58904	46.7686	9.91721	0.151	-300.924	0
0.3493	-130.975	4.30143	-15.3333	-181.498	-7.16009	44.3165	-2.59402	1.359	-315.264	0
0.3500	-130.047	-5.1511	-11.6787	-233.395	-4.70018	50.1156	-15.714	1.661	-421.771	0
0.3507	-49.2049	-10.0367	-9.85146	-261.765	-0.439269	56.219	-19.0759	3.171	-556.077	0
0.3513	-26.5663	-9.39942	-9.21588	-269.999	0.790684	44.3165	-15.714	7.4745	-397.968	0
0.3520	-56.4892	-10.3022	-7.15025	-202.88	19.0643	27.5278	-15.1052	13.59	28.0569	0
0.3527	-11.355	-6.63801	-0.397236	-112.546	46.255	27.2235	-11.7527	20.0075	324.067	0
0.3533	39.9209	1.59312	6.03799	-44.4924	58.7742	30.2842	-6.25561	24.5375	306.682	-0.310643
0.3540	5.42753	-3.02693	9.69256	-0.55356	62.7276	18.9902	-2.90305	27.935	101.298	-0.310643
0.3547	-29.9228	-24.0562	13.6649	-7.26547	62.7276	12.2783	-0.767905	32.163	-123.927	-0.310643
0.3553	-44.2772	-17.365	20.6563	-8.16501	69.4484	20.8159	0.149835	37.0705	-226.179	0
0.3560	-83.0555	24.7465	27.3299	86.7359	80.1227	28.7628	1.67628	38.2785	-198.085	0
0.3567	-169.682	43.7047	29.7927	226.51	81.3526	33.6312	4.72917	34.3525	-210.592	-0.310643
0.3573	-260.022	29.3666	25.8204	321.134	79.5077	39.7345	4.12046	24.2355	-293.296	0
0.3580	-226.814	15.294	18.5112	352.548	77.0478	40.0388	0.75854	11.476	-329.018	-0.310643
0.3587	-125.762	13.8071	13.9033	334.246	68.2185	36.9961	-1.98531	5.3605	-239.272	-0.310643
0.3593	-41.8491	13.1698	7.54749	272.905	45.3326	34.5619	-5.33787	7.1725	-77.239	0
0.3600	50.9188	5.52283	-7.15025	200.562	17.5708	33.6312	-8.39076	5.9645	97.6307	0
0.3607	53.704	-3.9297	-19.3057	146.866	5.05159	35.4747	-10.5259	3.473	341.451	0
0.3613	0.856979	-10.6208	-19.9413	114.206	-7.77506	39.126	-11.144	5.6625	620.993	0
0.3620	19.2106	-15.5064	-20.5768	66.9115	-28.2011	41.2738	-8.99947	3.171	817.538	-0.310643
0.3627	75.3427	-21.2947	-27.5682	-37.4691	-41.3352	42.7952	-6.86432	-8.9845	780.606	-0.310643
0.3633	181.537	-23.472	-29.0777	-171.742	-58.4228	51.637	-4.4295	-19.1015	409.521	0
0.3640	312.797	-20.7106	-22.0863	-342.93	-72.7869	59.8882	-0.45887	-21.8195	-148.647	-0.310643
0.3647	397.281	-12.4795	-9.85146	-497.685	-62.4201	63.5395	4.72917	-18.1955	-587.802	-1.24257
0.3653	432.06	-1.16829	6.27633	-492.184	-39.2267	70.2514	9.60817	-9.8905	-772.72	-0.931929
0.3660	412.85	2.49589	22.4836	-332.862	-18.4493	67.8172	5.33787	-1.057	-761.754	0
0.3667	290.516	0.637249	42.3454	-175.409	-1.66922	55.0019	-3.51176	8.0785	-666.838	0
0.3673	-35.1361	4.30143	65.544	-97.5995	12.9584	42.4909	-8.99947	14.798	-583.841	0
0.3680	-475.195	10.1429	81.1156	-46.6028	13.2659	12.8869	-14.1875	16.308	-559.415	0.310643
0.3687	-681.512	7.96561	80.7979	52.5536	-33.6919	-23.4291	-19.9936	15.1	-575.589	0
0.3693	-577.461	-0.584145	65.7823	234.433	-98.3963	-33.8102	-23.9549	9.8905	-540.49	0
0.3700	-422.705	-11.5236	42.9015	381.541	-122.205	-38.3743	-23.9549	0.755	-430.023	0
0.3707	-278.018	-24.9589	21.5302	380.918	-116.099	-53.0331	-23.0465	-6.5685	-292.709	0
0.3713	-129.404	-44.1826	7.86528	349.192	-101.471	-57.3108	-25.7904	-13.288	-166.031	0
0.3720	-16.2112	-77.7444	-1.3506	323.556	-73.0944	-50.9032	-25.4813	-27.633	-92.7895	-0.310643
0.3727	84.7695	-100.951	-9.53367	169.147	-41.3352	-44.4776	-17.2404	-41.978	-45.1845	-0.310643
0.3733	147.686	-66.1677	-18.7495	-23.1111	-26.7076	-39.305	-9.91721	-51.7175	1.79711	-0.310643
0.3740	190.678	-9.71805	-27.5682	-48.4365	-21.5242	-51.5117	-5.64691	-59.645	-77.239	-0.310643
0.3747	263.021	4.62006	-32.4145	73.6235	-13.2659	-90.8704	0.75854	-56.625	-133.39	0
0.3753	270.377	0.0531041	-33.6856	157.557	-12.9584	-121.387	9.3085	-45.3	155.615	0.310643
0.3760	167.825	0.0531041	-31.2228	16.2608	-10.806	-120.474	22.1194	-33.7485	573.718	0
0.3767	180.965	-4.83247	-28.2038	-206.547	-1.36173	-100.339	32.1958	-30.351	703.403	0
0.3773	278.59	-9.39942	-30.5872	-232.184	-41.6427	-68.5868	32.4955	-36.4665	488.557	0
0.3780	201.104	-10.9394	-31.8583	-157.384	-124.05	-35.0273	31.2781	-39.1845	162.327	0
0.3787	115.621	-18.5864	-25.1053	-161.363	-139.907	-8.48386	27.9255	-32.8425	-106.213	0
0.3793	147.043	-42.0584	-20.259	-188.833	-104.81	22.0509	26.3991	-23.6315	-285.374	-0.310643
0.3800	117.478	-69.5133	-21.133	-200.735	-93.2129	46.7686	31.5871	-16.308	-307.049	0
0.3807	38.9925	-81.4086	-21.133	-300.825	-74.2804	49.2028	30.6694	-11.476	-255.153	0.310643
0.3813	38.9925	-81.143	-18.7495	-395.726	-36.7668	50.4199	25.4813	-4.7565	-280.789	0
0.3820	46.3483	-77.1602	-15.0155	-333.485	-8.69753	62.3224	25.7904	5.6625	-318.932	0
0.3827	-29.9228	-70.7346	-8.97754	-201.046	13.5734	71.7906	26.09	21.5175	-298.173	0
0.3833	-166.682	-63.1408	-3.41623	-85.3866	44.4101	72.3992	19.6846	40.166	-271.95	0
0.3840	-254.88	-63.7249	-5.32297	-3.59814	91.1044	78.5026	7.78206	52.6235	-252.732	0
0.3847	-155.684	-78.3816	-10.8048	26.9168	133.23	94.3606	-0.149835	59.041	-227.683	0
0.3853	40.278	-29.5259	-11.1226	-7.26547	137.799	94.6828	-3.20272	65.1565	-214.883	0
0.3860	115.335	103.181	9.05699	-37.7805	117.636	74.8334	2.59402	83.4275	-203.293	0
0.3867	52.4185	159.684	47.1917	19.6168	110.037	53.1763	17.2404	112.797	-162.693	0
0.3873	-90.3398	112.368	71.3436	66.2888	117.329	38.2132	26.09	123.141	-106.543	0
0.3880	-422.419	78.1692	68.2452	16.2608	110.344	31.197	25.4813	107.286	-48.2652	0
0.3887	-870.405	67.8139	53.6269	-96.6654	72.1719	16.8603	23.9549	84.711	25.0128	-0.310643
0.3893	-1125.5	56.1841	39.8825	-253.842	34.3508	-7.24887	29.1429	64.2505	139.441	-0.310643
0.3900	-1063.3	51.033	39.2469	-363.377	25.4776	-24.3419	35.5484	48.6975	324.067	0
0.3907	-705.579	51.6172	48.4628	-312.139	26.4001	-34.1144	28.8339	35.2585	503.814	-0.310643
0.3913	-269.52	42.7488	46.5561	-113.134	27.63	-41.4349	13.2698	7.7765	620.993	0
0.3920	5.78461	18.6926	27.9654	118.496	-1.36173	-49.0596	2.59402	-30.653	738.209	0
0.3927	205.961	-6.63801	5.7202	257.648	-73.7094	-52.4245	-0.767905	-63.9485	824.25	-0.310643
0.3933	335.65	-25.5962	-11.1226	284.807	-113.99	-48.1468	4.42013	-95.0545	786.401	-0.310643
0.3940	272.162	-38.0756	-20.8152	276.572	-104.81	-43.8691	8.99947	-117.931	694.565	0.310643
0.3947	194.391	-42.6957	-26.3765	314.699	-78.2778	-46.0169	8.39076	-119.139	585.308	-0.621286
0.3953	273.376	-51.8296	-36.7046	341.27	-53.5469	-58.5279	7.78206	-106.38	372.882	-1.55321
0.3960	328.366	-69.2477	-51.4024	229.243	-48.671	-73.1688	5.0382	-92.6385	92.7529	-0.310643
0.3967	318.296	-73.4961	-59.9032	99.5716	-38.6118	-89.0447	4.72917	-77.0855	-148.353	0
0.3973	405.208	-66.8049	-66.6562	138.321	-20.6017	-142.149	6.86432	-60.551	-329.018	-0.310643
0.3980	484.907	-63.1408	-76.6666	280.516	-14.8034	-208.374	-1.06757	-44.092	-442.529	0
0.3987	406.494	-60.9635	-81.5923	319.577	-8.39004	-220.58	-15.4143	-19.1015	-427.272	0
0.3993	406.494	-80.1872	-78.2555	237.512	18.1857	-180.9	-23.9549	9.8905	-304.592	0
0.4000	633.236	-116.245	-70.8669	234.156	53.5469	-108.876	-20.6023	37.3725	-203.88	0
0.4007	649.376	-133.291	-53.2297	215.819	64.88	-27.0982	-13.2791	70.064	-164.197	0
0.4013	373.5	-146.408	-19.6235	24.8064	55.0843	35.4747	-9.61754	101.774	-164.197	-0.310643
0.4020	193.749	-166.906	20.3385	-145.794	52.0534	94.6828	3.81143	118.535	-164.527	-0.931929
0.4027	60.9883	-190.697	58.4732	-210.803	60.5752	151.743	24.2639	129.86	-146.226	-0.621286
0.4033	19.2106	-224.259	101.534	-223.015	62.7276	174.939	36.7751	152.133	-182.535	0
0.4040	15.2114	-222.719	133.869	-91.7871	60.8827	152.656	33.4132	177.123	-266.449	0
0.4047	-439.202	-168.393	136.649	147.489	48.3635	100.16	12.0524	188.146	-314.054	-0.310643
0.4053	-835.911	-80.5058	131.088	251.524	-25.7851	54.0891	-7.48239	183.541	-323.516	-0.310643
0.4060	-677.513	34.5177	136.331	87.9468	-135.031	38.5174	-11.144	170.102	-307.342	0
0.4067	-669.872	51.033	137.841	-177.243	-187.524	38.8217	-5.33787	156.059	-253.026	0
0.4073	-1004.66	-58.2552	115.278	-326.462	-176.235	33.6312	-1.37661	124.349	-195.958	-0.310643
0.4080	-1261.62	-53.6351	73.727	-421.363	-141.445	22.6594	-5.95594	69.46	-164.527	-0.310643
0.4087	-1183.2	118.741	33.4473	-579.473	-103.58	18.0774	-12.0524	11.476	-148.353	0
0.4093	-759.283	255.165	-3.41623	-736.927	-64.5286	2.81006	-15.714	-51.1135	-137.681	0
0.4100	-337.864	250.28	-37.658	-708.557	-27.8936	-38.07	-18.1581	-107.588	-113.548	0
0.4107	-91.2682	151.718	-69.0397	-443.055	9.61999	-78.3594	-12.0524	-131.37	-76.3221	0
0.4113	131.189	15.0285	-98.9913	-222.393	47.7486	-102.164	-1.67628	-134.768	-5.83144	0
0.4120	380.856	-131.167	-116.39	-276.123	77.3553	-103.99	10.2262	-151.529	122.644	0
0.4127	551.109	-230.95	-116.946	-436.932	95.0578	-81.42	21.8197	-179.615	209.308	0
0.4133	612.74	-229.728	-101.454	-475.093	92.0269	-57.0065	19.3755	-180.823	191.007	0
0.4140	605.098	-146.727	-78.4939	-410.395	75.8618	-39.9135	6.25561	-162.778	132.729	0
0.4147	521.186	-78.063	-59.2676	-307.226	75.2468	-27.4025	-7.78206	-164.968	71.9944	0
0.4153	350.576	-70.7346	-36.3868	-216.304	101.471	-25.8632	-16.332	-166.176	18.888	-0.310643
0.4160	157.47	-77.4789	-14.1416	-188.522	109.114	-28.0111	-21.8197	-134.768	-32.9715	-0.310643
0.4167	155.899	-66.1677	3.57513	-147.039	67.6035	-22.212	-31.5871	-85.315	-79.9897	-0.310643
0.4173	315.797	-17.0464	27.0915	-56.7053	38.6118	-23.4291	-35.8574	-41.072	-58.9379	-0.310643
0.4180	285.017	108.067	45.0466	16.2608	41.6866	-33.5059	-31.2781	-9.8905	17.0542	-0.310643
0.4187	-71.1292	232.915	49.019	95.5929	14.4959	-39.305	-22.7375	15.704	57.9476	0
0.4193	-607.027	203.92	46.3177	182.882	-60.2677	-42.9563	-15.4143	41.978	62.5321	-0.310643
0.4200	-1081.29	83.0548	32.8912	206.685	-112.76	-44.1734	-19.0759	56.927	78.0826	-0.310643
0.4207	-1140.14	21.0823	8.7392	169.735	-105.425	-39.0007	-20.6023	51.1135	98.5476	0
0.4213	-879.546	-0.849665	-17.4784	105.972	-97.4738	-35.3315	-21.8197	35.5605	101.885	0
0.4220	-647.947	-71.0533	-37.658	114.206	-95.9803	-45.1041	-33.1135	33.4465	125.101	0
0.4227	-294.801	-166.269	-45.2849	205.44	-66.3736	-67.674	-45.3157	28.539	170.872	-0.310643
0.4233	255.737	-136.371	-37.0224	216.753	-30.661	-84.767	-54.1747	9.5885	183.672	0
0.4240	823.914	-5.1511	-14.7772	148.077	-15.7258	-86.8969	-56.3099	14.496	171.789	-0.310643
0.4247	1059.51	49.1744	5.08462	137.11	-33.6919	-86.8969	-59.9715	44.998	156.532	-1.24257
0.4253	630.165	63.8311	7.54749	180.426	-61.4977	-91.1747	-63.0244	63.9485	122.974	-0.931929
0.4260	98.8382	145.293	4.2107	188.072	-60.5752	-103.381	-49.5954	43.186	97.6307	0
0.4267	105.266	221.285	0.476683	107.183	-45.5961	-118.953	-31.5871	0.755	89.0853	-0.931929
0.4273	335.079	222.241	-4.3696	-49.3706	-23.6327	-119.866	-16.023	-17.818	43.9008	-0.931929
0.4280	359.146	180.713	-5.00518	-188.21	14.4959	-117.11	-3.82079	-21.8195	-38.8029	0
0.4287	276.161	133.716	-5.56131	-233.083	51.1309	-122.909	-0.45887	-15.704	-83.9507	0
0.4293	384.783	107.164	-13.1882	-187.899	66.681	-121.083	4.72917	3.473	-48.2652	-0.310643
0.4300	743.072	101.694	-19.9413	-101.232	75.2468	-106.746	13.5788	-14.798	35.3554	0
0.4307	931.679	89.1618	-15.0155	-35.324	113.99	-80.4893	18.4578	-70.97	95.1735	0
0.4313	444.629	69.3008	-5.00518	-2.66401	144.212	-49.3639	21.8197	-105.172	89.7088	-0.310643
0.4320	-346.434	57.4055	0.476683	7.09249	122.556	-44.4776	27.6165	-95.9605	60.4049	0
0.4327	-692.153	46.7316	-3.73402	-46.326	77.3553	-78.9679	27.9255	-69.762	64.3659	0
0.4333	-669.586	33.2963	-17.1606	-126.281	22.1392	-103.686	18.7668	-50.2075	98.2542	0
0.4340	-564.606	23.8437	-27.2504	-112.857	-16.2969	-93.0003	14.1875	-37.9765	140.651	0
0.4347	-308.584	14.3912	-37.0224	-9.09914	-9.92748	-92.696	7.47302	-32.8425	180.958	0
0.4353	-83.3412	-3.61108	-47.9861	101.682	18.1857	-101.556	-0.767905	-32.163	239.822	0
0.4360	-39.9923	-19.8078	-48.6217	184.993	32.8134	-81.7243	-6.25561	-27.331	320.106	0
0.4367	12.4976	-22.8348	-41.3126	215.231	31.5834	-48.1468	-20.902	-17.214	361.586	-0.310643
0.4373	-19.282	-11.5236	-22.0863	178.281	31.276	-20.0642	-23.9549	-2.567	276.461	-0.310643
0.4380	-362.859	3.71729	1.43005	123.063	29.1675	6.47924	-12.6704	10.4945	-1.24697	0.310643
0.4387	-695.224	9.82426	13.0293	81.8577	19.6793	33.3269	-10.2262	12.382	-311.927	0
0.4393	-624.095	9.18701	15.1744	59.5769	15.4183	44.0123	-5.64691	7.7765	-383.628	-0.310643
0.4400	-375.071	3.71729	13.3471	83.38	16.6483	34.5619	10.8349	8.3805	-268.906	-0.310643
0.4407	-265.878	5.52283	15.1744	76.668	-2.2842	40.6653	30.6694	18.7995	-137.351	0
0.4413	-183.465	33.2963	18.5112	-22.2116	-45.5961	53.4805	35.2487	23.0275	-22.0054	-0.310643
0.4420	48.2051	35.7391	15.81	-78.6747	-88.6445	45.8379	19.6846	12.684	46.6515	-0.310643
0.4427	297.229	-18.2678	10.8843	-53.9375	-123.127	60.1925	6.86432	5.6625	78.9995	-0.310643
0.4433	419.277	-67.0705	1.43005	-18.2329	-153.349	110.541	-4.4295	3.171	77.1657	0
0.4440	513.902	-73.8147	-7.70638	43.6966	-191.17	147.161	-14.1875	-1.057	-2.78735	0
0.4447	606.955	-60.0607	-11.9965	94.0706	-258.027	165.471	-10.8349	-6.2665	-67.4833	0
0.4453	580.746	-57.0338	-14.4594	88.5696	-295.233	176.765	1.67628	-17.818	-22.9223	0
0.4460	456.198	-74.7175	-11.9965	73.9348	-252.228	160.889	15.1052	-30.653	64.9893	0.310643
0.4467	354.289	-82.63	-12.6321	79.7126	-176.85	128.242	24.5636	-37.0705	144.612	0
0.4473	266.378	-33.1901	-15.6511	70.8557	-156.995	98.6383	31.5871	-32.163	173.916	0
0.4480	148.614	23.2596	-14.4594	33.0406	-268.701	80.3282	26.3991	-15.1	123.854	-0.310643
0.4487	199.533	-2.70831	-24.5492	25.7059	-382.208	86.1273	4.72917	-0.151	113.805	-0.310643
0.4493	469.339	-51.511	-39.8031	61.7219	-361.782	93.4478	-16.6317	8.0785	223.062	-0.310643
0.4500	578.246	-71.956	-44.3316	90.4032	-278.145	58.9754	-41.9632	12.08	259.371	-0.310643
0.4507	548.966	-103.712	-41.3126	102.305	-135.339	17.7732	-73.4004	21.2155	49.4022	0
0.4513	741.215	-85.71	-35.8307	73.6235	66.681	-0.841227	-95.061	43.79	-181.618	0
0.4520	868.834	17.4712	-23.278	31.5183	202.196	-6.64032	-105.437	67.8745	-175.823	0
0.4527	502.261	72.0622	2.93955	49.509	228.42	33.0226	-99.9493	90.147	-2.78735	-0.621286
0.4533	7.28432	47.953	27.9654	88.2582	240.632	104.437	-72.4827	110.608	209.015	-0.310643
0.4540	-237.455	26.6051	49.3367	85.2136	276.959	160.585	-40.7458	107.286	356.415	0.310643
0.4547	-622.881	19.8609	68.8808	70.2675	274.192	160.889	-13.5788	73.386	290.802	-0.621286
0.4553	-1112.72	18.0554	73.1709	99.8484	180.54	118.47	2.89369	52.0195	11.5528	-1.55321
0.4560	-1037.94	14.7098	61.2538	139.22	14.8034	108.411	17.2404	68.4785	-235.935	-0.621286
0.4567	-499.333	-2.70831	29.7927	95.5929	-95.0578	143.51	51.1125	83.1255	-314.054	0
0.4573	-74.7714	-35.0487	-13.1882	17.7831	-110.608	193.554	88.9552	70.668	-291.792	0
0.4580	138.188	-41.4743	-43.7754	19.6168	-149.659	233.843	120.392	31.257	-215.176	0
0.4587	255.38	-1.16829	-61.0949	57.1551	-246.122	242.989	157.926	-44.092	-144.062	0
0.4593	367.715	6.4787	-75.4749	52.865	-384.053	246.05	184.175	-110.608	-132.766	0
0.4600	578.603	-34.4114	-76.6666	33.352	-485.963	253.675	182.649	-124.349	-151.104	0
0.4607	770.852	-46.3599	-57.202	24.1836	-397.187	198.136	159.144	-110.608	-76.0287	0
0.4613	707.365	-27.1362	-30.905	44.6308	-151.504	87.9529	116.422	-87.731	144.942	0
0.4620	223.957	-11.5236	-15.3333	88.2582	81.6601	32.7184	70.0385	-57.833	266.082	0
0.4627	-572.248	-1.16829	-10.1692	40.3407	230.88	52.2635	34.64	-28.841	104.049	0
0.4633	-859.693	6.16007	-5.56131	-86.9089	363.934	60.1925	26.6987	-4.7565	-126.971	0
0.4640	-591.458	9.82426	10.5665	-127.18	530.549	15.3211	56.6096	15.1	-204.797	0
0.4647	-665.016	10.4084	31.9378	-98.8104	679.769	-50.581	82.2407	30.351	-159.319	0
0.4653	-826.77	7.96561	42.0276	-72.8623	764.943	-96.6695	59.9621	41.978	-62.2753	0
0.4660	-583.245	6.16007	44.1727	-13.9774	767.052	-93.0003	19.6846	53.8315	50.9426	0
0.4667	-258.808	1.85864	36.8635	44.9421	706.652	-54.2502	-4.4295	48.0935	164.454	0
0.4673	-128.832	-9.0808	17.3195	64.4551	655.697	-21.9077	-28.8432	17.516	266.999	0
0.4680	-94.6247	-20.7106	-3.17789	60.7878	616.602	1.89723	-61.7976	-6.5685	223.355	0
0.4687	-15.2828	-29.5259	-21.7685	44.3194	566.569	26.615	-84.9939	-7.1725	54.9035	-0.310643
0.4693	33.565	-38.0756	-35.8307	29.996	496.374	33.6312	-85.2936	-4.7565	67.1165	-0.310643
0.4700	24.3525	-42.6957	-37.9758	11.348	378.87	19.5988	-76.444	-15.1	189.467	0
0.4707	147.686	-39.6157	-28.2038	-4.80905	217.438	4.04505	-68.8211	-24.2355	54.28	0
0.4713	347.862	-35.0487	-12.3143	-8.78776	50.2085	-11.8309	-59.9715	-22.1215	-213.636	0
0.4720	383.569	-31.7031	-1.3506	-19.4438	-58.7303	-29.8367	-57.5273	-17.818	-283.246	0
0.4727	280.446	-26.1803	0.476683	-7.54225	-99.9337	-35.0273	-59.6624	-16.308	-213.636	0
0.4733	196.819	-21.2947	0.238342	26.6055	-107.577	-34.1144	-57.2183	-15.704	-187.119	-0.310643
0.4740	259.665	-16.7278	5.08462	44.3194	-128.925	-43.5648	-50.8128	-13.59	-197.462	-0.310643
0.4747	380.499	-10.3022	11.8376	57.4318	-189.676	-60.0493	-44.0983	-6.2665	-152.608	-0.310643
0.4753	350.004	-6.95664	15.4922	74.2462	-247.967	-69.5175	-30.6694	2.265	-65.6495	0
0.4760	151.328	-8.49665	14.8566	78.1903	-259.257	-72.256	-14.8056	1.057	16.1373	0
0.4767	-154.185	-11.5236	6.59412	61.0992	-230.265	-100.034	-17.8585	-11.778	75.0385	0.310643
0.4773	-411.136	-11.5236	-1.58894	38.2302	-211.332	-142.758	-20.902	-19.7055	50.6125	0
0.4780	-420.277	-8.81528	-5.32297	26.9168	-270.238	-163.807	-12.0524	-16.61	-29.634	-0.310643
0.4787	-241.739	-10.3022	-6.83246	-4.1863	-351.415	-164.415	-12.3614	-14.496	-44.5977	-0.310643
0.4793	-112.978	-10.9394	-2.54231	-68.8836	-312.628	-110.093	-16.332	-9.2865	-17.1276	0
0.4800	-100.409	-10.0367	-1.3506	-77.4292	-184.186	-12.7437	-16.332	-3.5485	3.9243	0
0.4807	-2.14245	-17.6306	-6.51467	20.2049	-114.298	18.3817	-10.5259	-2.567	114.722	-0.310643
0.4813	232.17	-34.1459	-6.83246	121.852	-148.473	-21.9077	5.33787	-0.151	255.08	0
0.4820	388.14	-51.1923	-7.70638	123.375	-196.661	-52.1203	11.1346	0.755	238.906	0
0.4827	465.339	-57.9366	-14.7772	37.9188	-178.08	-65.5441	9.3085	1.359	95.1735	0
0.4833	583.745	-53.6351	-20.259	-27.0898	-124.972	-84.4627	23.9549	5.3605	-21.3819	0
0.4840	655.16	-45.7226	-16.6045	-22.7997	-54.7769	-75.9252	37.9925	0.755	-77.5324	0
0.4847	710.435	-35.3673	-9.85146	-37.7805	69.141	-21.6034	47.1512	-7.7765	-109.294	0
0.4853	890.187	-23.472	-12.3143	-87.8084	167.713	29.0671	61.1889	-3.5485	-106.836	-0.310643
0.4860	885.902	-9.0808	-7.70638	-102.166	178.08	51.9413	63.6237	12.08	-57.1041	-0.931929
0.4867	389.997	3.71729	10.2487	-89.3307	202.503	65.0787	52.3393	27.029	-11.6262	-0.931929
0.4873	-132.76	2.49589	17.8756	-87.8084	261.98	57.7404	49.8951	41.978	-2.78735	-0.310643
0.4880	-360.145	-3.02693	18.829	-80.5084	283.68	33.0226	60.8799	64.2505	-1.54038	0
0.4887	-613.74	1.59312	30.1105	-48.7479	271.161	13.7997	66.0679	86.221	-24.426	-0.310643
0.4893	-943.034	8.92149	43.8549	-26.7785	236.063	-14.5872	58.4357	99.056	-88.2418	-0.310643
0.4900	-1133.14	11.9484	49.6545	-24.0453	182.648	-27.7068	39.828	106.682	-131.556	-0.310643
0.4907	-1096.5	13.8071	47.5095	-4.1863	157.917	0.984414	0.75854	97.4705	-117.216	0
0.4913	-846.266	7.70009	35.0362	27.5396	166.175	23.268	-55.0831	70.97	-85.4911	0
0.4920	-442.201	-5.1511	13.0293	5.25882	149.703	38.2132	-112.152	47.4895	-71.1509	0
0.4927	-60.4884	-14.285	-9.21588	-89.9535	89.2595	81.8496	-154.574	15.704	-71.7377	0
0.4933	110.765	-24.0562	-31.2228	-140.016	12.0799	122.748	-166.776	-29.143	-75.4053	0.310643
0.4940	154.685	-37.8101	-50.1312	-94.8317	-87.722	106.567	-151.212	-56.625	-68.4002	0.310643
0.4947	131.189	-45.404	-51.9585	-53.9375	-193.937	19.2945	-119.784	-57.833	-35.1353	0.310643
0.4953	38.9925	-45.7226	-39.8031	-57.9162	-256.182	-63.1099	-78.5885	-57.229	-5.53803	0
0.4960	2.42811	-41.4743	-29.3955	-74.3846	-317.548	-103.381	-33.4226	-66.6665	-47.6417	0
0.4967	35.9931	-33.8273	-29.7133	-77.7406	-420.688	-140.002	3.81143	-64.5525	-72.3612	0
0.4973	65.2732	-34.1459	-32.1761	-64.0054	-472.873	-150.991	18.4578	-49.6035	30.8076	0
0.4980	48.2051	-34.4114	-19.3057	-44.181	-415.197	-129.638	6.55528	-45.602	88.7919	-0.310643
0.4987	-3.42792	-28.039	2.06563	-11.8323	-303.798	-125.665	-0.149835	-45.904	14.6336	0
0.4993	-45.2056	-28.039	15.81	41.2748	-185.987	-144.888	49.586	-35.8625	12.1763	0
0.5000	-74.7714	-28.6231	18.5112	97.7379	-81.3087	-150.687	120.083	-22.4235	130.602	0
0.5007	-58.9173	-23.1534	8.7392	124.897	-39.4903	-151.6	139.309	-14.194	227.023	0
0.5013	35.9931	-23.1534	-4.68739	111.75	-58.7303	-157.095	129.851	-10.872	211.472	0
0.5020	96.4101	-27.7203	-8.97754	74.2462	-28.2011	-138.176	113.678	-16.006	91.2125	0
0.5027	25.9236	-34.4114	-10.487	40.6521	60.5752	-111.633	62.7153	-33.1445	-14.0835	0.310643
0.5033	-73.2717	-42.3771	-11.9965	52.2422	96.2878	-92.0875	-9.61754	-41.072	-47.6417	0
0.5040	-63.2022	-47.5813	-10.1692	61.0992	87.4585	-64.327	-74.0091	-34.0505	-90.9557	0
0.5047	24.0668	-50.6082	-13.1882	-10.8982	113.99	-32.8973	-112.461	-29.747	-126.678	-0.310643
0.5053	93.0536	-46.6254	-15.9689	-71.9628	152.426	-5.42323	-102.384	-25.519	-98.9144	-0.621286
0.5060	120.191	-37.8101	-11.6787	-62.1717	177.772	10.4527	-55.3921	-19.4035	-61.3585	-0.621286
0.5067	108.908	-33.5087	-12.6321	-56.9821	200.658	19.9031	4.42013	-16.308	-70.8208	0
0.5073	90.6255	-31.3845	-15.9689	-66.4618	146.321	36.9961	66.9856	-9.2865	-90.6623	0
0.5080	26.2093	-28.6231	-8.34196	-58.8157	33.1209	62.6266	107.572	0.151	-75.4053	0
0.5087	-107.122	-26.4989	2.93955	-35.324	-14.8034	104.133	95.37	4.7565	-37.886	0
0.5093	-154.756	-22.5161	7.54749	-7.54225	9.61999	162.733	53.5567	8.3805	13.7167	0
0.5100	-104.409	-20.7106	9.37477	24.8064	66.3736	198.44	23.0371	10.4945	74.7451	-0.310643
0.5107	-54.9895	-21.932	13.9033	45.2535	116.45	210.342	-0.45887	2.567	100.675	0
0.5113	13.9973	-19.4892	15.1744	36.7079	147.243	246.963	-22.1288	-5.0585	77.4958	0
0.5120	97.9098	-11.5236	7.86528	25.3946	192.707	280.827	-33.4226	0.755	62.2387	-0.310643
0.5127	152.542	-3.61108	2.06563	21.1391	235.448	270.768	-28.2345	9.5885	42.9839	-0.310643
0.5133	162.04	-3.02693	7.2297	7.71524	250.383	249.701	-7.48239	8.0785	-35.7221	0
0.5140	135.474	-9.39942	17.0017	0.069195	247.967	235.973	6.25561	5.6625	-73.8649	0
0.5147	105.266	-16.7278	16.6839	12.2821	226.311	192.337	1.06757	10.1925	32.9348	-0.621286
0.5153	100.338	-18.852	12.7116	42.4857	198.813	122.748	-9.61754	9.8905	204.76	-1.24257
0.5160	101.552	-15.5064	15.81	76.9794	168.943	91.3179	-28.2345	6.2665	335.986	-0.310643
0.5167	90.9112	-11.8422	15.81	88.2582	133.538	94.0563	-61.1889	11.476	388.469	0
0.5173	82.9841	-11.2581	6.91191	70.2675	110.652	54.0891	-90.4816	19.1015	345.118	0
0.5180	80.1989	-12.745	1.11226	42.4857	99.9337	1.59296	-97.1961	19.7055	185.506	0
0.5187	70.1294	-16.1436	-0.0794472	27.851	85.3061	-21.9077	-92.3171	14.496	-72.3612	0
0.5193	57.0605	-18.852	-3.73402	22.9727	55.0843	-86.2884	-87.1291	8.6825	-304.298	-0.931929
0.5200	61.274	-16.7278	-4.05181	25.0832	23.9841	-162.285	-69.4298	7.7765	-326.56	-1.24257
0.5207	75.3427	-12.4795	1.43005	45.2535	0.483196	-173.883	-48.3686	5.3605	-151.104	-0.310643
0.5213	79.9133	-10.6208	6.27633	56.2209	-25.4776	-143.367	-45.3157	-2.567	12.7998	0.310643
0.5220	83.2698	-6.05387	7.86528	44.3194	-49.901	-92.696	-39.2193	-2.869	75.662	0
0.5227	86.6263	-3.29245	4.44905	36.0852	-59.9602	-43.8691	-27.0078	5.0585	46.9816	0
0.5233	82.6984	-3.9297	-0.0794472	18.994	-54.7769	-25.8632	-23.0465	11.174	-50.0623	0
0.5240	65.2732	-4.83247	0.476683	-27.0898	-43.4876	-42.0434	-23.3462	13.59	-126.678	0
0.5247	41.7777	-6.37249	2.30397	-50.5815	-30.661	-69.2133	-29.1429	11.174	-179.161	0
0.5253	37.4928	-5.1511	2.62176	11.348	-24.5551	-71.6475	-29.1429	8.3805	-246.607	0
0.5260	45.7055	-1.48691	1.11226	113.584	-22.4027	-65.2398	-26.3991	7.4745	-226.766	0
0.5267	47.848	-1.80554	-1.3506	141.365	-13.8809	-80.7936	-34.331	4.7565	-99.2078	0
0.5273	48.4907	-1.48691	-1.90673	115.417	-6.54511	-94.2353	-33.4226	5.0585	59.7814	0
0.5280	45.7055	-0.849665	-2.8601	105.038	-5.31516	-103.077	-23.6552	7.4745	247.451	0
0.5287	42.0634	-3.02693	-6.51467	80.6468	-31.8909	-108.268	-26.7081	6.2665	383.885	0
0.5293	49.4191	-0.26552	-7.15025	62.6215	-94.4429	-88.1319	-22.7375	7.7765	317.978	-0.310643
0.5300	50.3475	5.52283	-5.00518	100.471	-140.83	-49.0596	-10.5259	11.174	119.893	0
0.5307	37.4928	6.74422	-1.90673	148.077	-170.129	-5.42323	-13.5788	8.6825	-25.3429	0
0.5313	33.8507	9.18701	6.03799	170.358	-187.524	24.4851	-19.6846	7.4745	-87.6183	0
0.5320	36.2788	12.8512	9.05699	196.306	-194.245	38.8217	-20.2933	9.2865	-29.3406	0
0.5327	28.3517	11.9484	3.25734	207.585	-231.451	47.9857	-9.91721	9.2865	113.511	0
0.5333	21.9244	11.9484	3.89292	152.056	-243.355	85.5188	17.2404	10.4945	157.449	-0.310643
0.5340	26.4949	12.267	6.03799	32.7292	-200.966	138.319	34.0219	12.382	91.2125	-0.310643
0.5347	35.9931	8.92149	3.89292	-57.9162	-153.349	123.66	36.7751	12.684	10.636	0
0.5353	46.6339	6.16007	7.2297	-45.7033	-100.856	66.2958	42.2628	12.382	-43.6808	0
0.5360	46.6339	4.30143	7.86528	-33.179	-53.2394	41.2738	41.6541	8.9845	-90.3689	0
0.5367	38.4212	2.81452	0.238342	-77.1524	-19.6793	21.1202	34.0219	6.2665	-184.369	0
0.5373	33.8507	5.2573	-3.73402	-78.9515	12.3874	-33.5059	26.6987	9.2865	-208.465	-0.310643
0.5380	32.6366	11.0457	2.06563	-97.5995	52.0534	-72.8646	24.2639	13.59	-75.6987	0
0.5387	26.2093	13.8071	10.0104	-200.112	89.2595	-50.581	32.1958	12.684	44.2309	0
0.5393	9.42677	13.1698	14.8566	-251.697	103.009	-26.794	35.8574	9.2865	39.9398	0
0.5400	-11.9263	15.0285	16.0483	-182.744	103.624	-40.8263	17.5494	5.6625	-65.3194	0
0.5407	-29.6372	15.9312	17.6373	-80.197	110.344	-64.0227	-1.37661	-0.755	-156.899	-0.310643
0.5413	-45.4913	14.3912	21.5302	0.069195	104.239	-102.773	-7.17335	-8.3805	-128.805	-0.310643
0.5420	-60.4884	13.1698	23.1191	74.523	54.1619	-136.959	-15.714	-12.684	-73.5715	0
0.5427	-68.4155	11.3643	18.5112	112.373	-1.36173	-131.16	-16.6317	-12.382	-42.1404	0
0.5433	-65.059	7.96561	10.0104	83.0686	-14.1884	-115.588	-0.767905	-13.59	1.5037	-0.310643
0.5440	-51.633	3.71729	4.44905	57.4318	-15.4183	-117.736	13.8878	-18.4975	54.9035	-0.621286
0.5447	-37.5642	2.17727	5.08462	86.7359	-22.0952	-103.686	9.60817	-20.0075	136.984	-1.24257
0.5453	-25.6379	3.71729	6.03799	110.85	-19.3718	-68.909	-10.5259	-13.59	159.283	-0.621286
0.5460	-6.42734	5.84145	5.7202	93.7592	-16.2969	-52.1203	-16.023	-5.3605	41.7736	0
0.5467	15.497	8.92149	5.08462	86.7359	-12.6509	-35.3315	-6.25561	-0.755	-58.3144	0
0.5473	30.7798	11.9484	3.25734	111.162	3.20666	-15.1958	-26.09	-0.755	-66.2363	-0.310643
0.5480	39.6353	13.8071	12.3938	94.382	29.7824	-24.3419	-51.1218	-1.661	-59.2313	0
0.5487	42.349	14.7098	31.62	-25.5675	54.7769	-37.4614	-43.4896	-1.359	-54.9769	0
0.5493	37.2072	15.0285	41.392	-145.482	34.3508	-26.794	-36.4661	-0.755	-28.7171	0
0.5500	25.5665	16.5154	43.8549	-178.142	-20.9092	15.3211	-37.3838	2.567	44.5243	0
0.5507	16.7825	17.4712	43.5371	-196.445	-29.1235	80.3282	-31.5871	1.963	70.454	0
0.5513	12.4976	16.834	39.8825	-183.332	-2.59169	93.1435	-20.902	-5.0585	-6.12484	0
0.5520	12.7833	15.6126	26.7737	-127.803	-11.7285	48.8985	-6.25561	-9.5885	-48.2652	0.310643
0.5527	16.1398	13.4884	3.25734	-161.363	-52.0095	18.0774	-3.20272	-10.872	-34.8052	-0.310643
0.5533	15.8541	14.3912	-17.4784	-233.395	-74.8954	-0.23268	-0.45887	-8.6825	-31.7612	-0.621286
0.5540	10.9265	15.6126	-50.1312	-203.779	-67.911	-9.70096	18.1581	-5.9645	-12.5431	-0.310643
0.5547	7.28432	12.5857	-81.9101	-134.515	-38.3043	14.7125	26.09	-8.3805	8.83885	0
0.5553	16.7825	11.6298	-69.993	-98.8104	-1.66922	43.4037	22.1194	-9.5885	11.5528	0.310643
0.5560	31.0655	14.0726	-45.8411	-80.5084	21.8317	36.0833	34.0219	-7.4745	11.5528	0.310643
0.5567	40.5637	11.3643	-43.1399	-70.1291	40.7642	22.0509	60.5802	-8.9845	11.5528	0
0.5573	49.7048	6.4787	-41.6304	-64.0054	57.8517	24.7893	88.9552	-10.1925	10.636	-0.310643
0.5580	53.0613	7.06284	-35.1951	-59.4385	51.1309	19.5988	92.9258	-8.0785	8.21536	-0.310643
0.5587	44.8486	8.28424	-28.2038	-50.8929	19.6793	13.4954	61.4886	-9.5885	7.00506	0
0.5593	35.3504	9.82426	-9.85146	-33.8017	-11.7285	14.4082	38.9103	-9.2865	13.0932	0
0.5600	31.7082	8.60286	10.2487	-22.7997	-32.5059	12.8869	32.8045	-6.5685	19.5115	-0.310643
0.5607	31.0655	3.39866	15.4922	-21.9002	-37.3818	16.5561	29.452	-5.0585	21.0152	-0.310643
0.5613	31.0655	3.39866	15.81	-16.7106	-16.9119	32.7184	36.4661	2.265	26.8099	-0.310643
0.5620	24.3525	4.30143	15.81	-9.37592	-5.62264	56.219	23.0371	7.7765	34.7686	-0.310643
0.5627	13.426	4.03591	22.1658	-1.14172	-13.8809	58.9754	-2.29435	5.6625	35.9789	-0.310643
0.5633	8.49837	8.92149	35.0362	22.35	0.790684	32.4141	-2.59402	9.2865	37.8127	0
0.5640	8.78403	9.18701	35.2746	46.1531	18.7568	9.2177	-4.12046	23.3295	39.023	0
0.5647	10.0695	5.2573	29.4749	42.1743	10.5425	5.26214	-14.4965	35.8625	35.6855	-0.310643
0.5653	10.0695	5.84145	26.1381	29.6846	13.5734	9.2177	-9.61754	44.696	33.5583	0
0.5660	3.92782	10.4084	11.8376	26.0173	23.6766	6.47924	2.89369	52.3215	29.5606	0
0.5667	-5.85602	16.834	-8.34196	22.9727	-2.2842	-12.1351	21.211	49.6035	20.7218	0
0.5673	-11.9263	19.2768	-11.361	19.6168	-34.9219	-20.3684	39.21	37.6745	15.8439	-0.310643
0.5680	-14.7115	18.9582	10.5665	18.994	-46.2111	-15.1958	34.331	21.2155	17.6777	0
0.5687	-14.9971	15.9312	35.9102	19.6168	-52.6244	-30.7495	17.5494	2.265	20.4284	0
0.5693	-12.569	3.08004	50.2901	19.6168	-48.671	-33.2016	10.5259	-0.151	20.4284	0
0.5700	-7.64139	-10.6208	60.3005	17.1604	-38.3043	-7.24887	12.9701	19.4035	18.5946	0
0.5707	-0.928394	-21.0292	55.4542	17.7831	-36.4593	-1.1455	9.3085	53.8315	16.4674	-0.310643
0.5713	-1.85679	-38.0756	16.0483	19.8936	-32.5059	-17.9342	-4.4295	89.845	14.3035	-0.310643
0.5720	-10.4266	-41.1557	-32.1761	14.4272	-38.6118	-25.8632	-8.39076	117.025	10.3425	0
0.5727	-8.85545	-20.392	-52.5941	8.61477	-73.0944	-26.4718	1.06757	128.652	6.38157	0
0.5733	0.571319	-8.17803	-42.8221	14.7039	-103.009	-32.8973	8.99947	125.859	4.25438	0
0.5740	11.5692	2.17727	-15.9689	26.3287	-107.577	-30.4452	7.17335	150.321	6.67498	-0.310643
0.5747	23.7812	13.4884	-9.21588	38.507	-103.272	-13.9608	-11.7527	210.419	14.0101	-0.310643
0.5753	24.9952	-7.59388	-18.4318	49.8204	-90.1819	0.0715938	-38.3016	246.734	22.5556	0
0.5760	18.5679	8.92149	13.3471	52.865	-58.1153	11.6698	-55.6918	227.482	30.8076	0
0.5767	18.2822	77.2664	57.917	51.9654	-14.4959	26.615	-62.7153	122.839	35.9789	-1.24257
0.5773	22.21	71.4781	69.5163	51.3427	-1.66922	38.2132	-60.8799	-55.417	33.5583	-0.931929
0.5780	26.2093	25.0651	98.1968	44.9421	-52.0095	32.1098	-46.5425	-163.76	25.5996	0
0.5787	28.0661	43.7047	131.724	37.2961	-113.99	18.3817	-25.4813	-112.118	17.9711	0.310643
0.5793	27.4233	70.5222	88.7426	29.996	-124.357	19.2945	-14.4965	-1.963	14.927	0
0.5800	31.0655	36.0577	2.30397	16.2608	-104.195	25.3979	-14.4965	33.7485	13.7167	0
0.5807	32.9223	-34.1459	-44.6494	5.25882	-78.5852	26.615	-21.5201	37.9765	10.0491	0
0.5813	27.709	-72.5933	-37.3402	4.04791	-32.5059	26.3107	-25.7904	104.794	6.38157	0
0.5820	29.2801	-47.2626	19.7029	3.73653	18.4932	20.5116	-13.8878	172.895	5.17127	-0.310643
0.5827	38.9925	-18.852	103.679	6.78111	49.286	14.104	-5.33787	165.27	5.75809	-0.310643
0.5833	46.0626	-13.7009	142.131	20.5163	57.5443	12.2783	-10.8349	101.17	10.0491	-0.310643
0.5840	49.7048	-9.39942	111.623	30.8956	53.2833	0.375867	-15.4143	0.453	14.3035	0
0.5847	47.2767	-24.0562	80.1623	27.851	50.5159	-13.9608	-17.2404	-145.715	14.6336	0.310643
0.5853	37.4928	-47.2626	46.5561	22.35	55.3918	-17.0214	-11.7527	-261.381	13.0932	0
0.5860	25.2809	-26.4989	-50.1312	19.6168	60.8827	-26.4718	1.36724	-270.517	10.966	-0.310643
0.5867	9.71243	24.1624	-188.369	18.0945	61.4977	-41.1306	9.3085	-220.762	8.83885	0
0.5873	-2.78518	17.1526	-274.729	17.4717	50.8234	-54.2502	15.714	-138.694	9.13225	0.310643
0.5880	-3.99923	-43.9171	-243.665	15.3267	25.4776	-74.6902	25.1723	-57.833	9.42566	0.310643
0.5887	-1.28547	-57.2993	-137.762	6.78111	-0.131781	-90.5661	37.3838	-63.9485	4.25438	0
0.5893	2.99943	10.727	-14.4594	-1.14172	-18.1418	-73.7774	52.948	-138.392	-0.953568	0
0.5900	4.85621	98.2957	96.6078	-0.55356	-28.2011	-20.9949	51.7306	-166.176	0.880217	0
0.5907	-0.357074	129.149	159.53	5.5702	-24.2477	26.9193	24.8726	-151.831	6.38157	-0.310643
0.5913	-2.14245	106.845	202.829	10.4484	-8.69753	43.0994	5.33787	-180.823	12.4697	-0.310643
0.5920	-0.0714149	65.9553	268.452	13.8044	10.8499	41.8824	-0.45887	-242.733	13.3866	0.310643
0.5927	2.07103	31.8093	317.868	15.9494	31.5834	40.361	-11.144	-292.487	10.3425	0
0.5933	7.28432	27.5079	271.789	14.7039	46.5625	38.8217	-16.6317	-306.228	9.42566	0
0.5940	6.99866	36.3763	93.2711	12.5935	53.2833	28.1542	-12.0524	-261.683	7.59187	0
0.5947	3.92782	45.8288	-115.119	13.493	55.6993	21.7287	-4.12046	-186.334	8.50876	0.310643
0.5953	9.71243	50.3958	-192.977	13.1816	53.8544	27.5278	3.20272	-96.8665	14.6336	0
0.5960	13.7117	19.8609	-140.781	8.3034	51.7459	23.8765	-0.149835	68.1765	18.5946	0
0.5967	10.3552	-46.944	-66.8946	6.46973	52.9759	14.4082	-10.8349	226.274	20.7218	0
0.5973	4.85621	-85.0727	-13.1882	12.5935	53.5469	17.7732	-17.5494	274.82	25.3062	0
0.5980	-0.0714149	-58.5207	33.7651	21.1391	46.255	21.7287	-17.2404	285.768	27.7268	0
0.5987	-0.928394	-12.4795	78.335	23.8723	35.2733	16.2518	-10.8349	265.383	22.5556	-0.310643
0.5993	-0.357074	1.59312	74.9982	18.0945	23.6766	8.60915	-6.86432	163.08	2.714	-0.310643
0.6000	-0.357074	-24.9589	-18.7495	8.92615	12.9584	2.81006	-8.99947	32.465	-23.2157	0
0.6007	4.57055	-53.3696	-120.363	4.94744	6.58904	-0.536953	-9.3085	-24.5375	-26.2598	0
0.6013	12.7833	-36.2701	-185.986	5.88157	0.483196	-2.38049	-7.17335	5.9645	-11.3328	-0.310643
0.6020	16.1398	17.1526	-257.33	7.40386	-5.62264	-2.68477	-4.72917	59.343	-2.78735	0
0.6027	11.5692	72.6995	-299.437	7.71524	-8.08255	-2.68477	-0.767905	78.2935	-1.24697	0
0.6033	3.3565	65.0525	-278.701	6.15835	-10.235	-6.33605	-1.67628	-0.755	-1.54038	0
0.6040	-1.28547	-11.2581	-215.223	4.04791	-12.9584	-10.918	-4.72917	-122.537	-2.78735	-0.310643
0.6047	-0.642734	-44.5012	-160.642	5.5702	-12.9584	-10.918	-3.82079	-147.225	-8.25203	0
0.6053	-4.64197	-0.584145	-131.644	7.40386	-13.8809	-11.5266	-2.29435	-112.118	-17.7144	0
0.6060	-11.6406	37.5977	-103.52	8.3034	-15.1109	-11.5266	-1.67628	-118.535	-17.7144	-1.24257
0.6067	-13.7831	2.81452	-79.4473	9.23753	-15.1109	-9.70096	0.75854	-171.687	-12.5431	-1.24257
0.6073	-17.4252	-64.0435	-59.5854	7.40386	-16.6044	-11.8309	-0.149835	-259.569	-8.87552	-0.310643
0.6080	-20.2104	-107.695	-40.9948	5.5702	-19.0643	-15.5001	-2.29435	-325.179	9.71906	0
0.6087	-14.3544	-129.043	-16.2867	4.35928	-19.3718	-17.63	-2.29435	-296.489	42.3971	-0.310643
0.6093	-6.14168	-155.276	32.5734	1.28011	-19.3718	-17.3257	-1.67628	-175.009	54.28	-0.310643
0.6100	2.42811	-217.833	92.9533	-1.45309	-18.1418	-13.6565	1.36724	-43.488	23.179	-0.310643
0.6107	8.21271	-298.71	143.958	-3.28676	-16.9119	-13.048	2.89369	35.8625	-13.46	0
0.6113	7.92705	-329.829	180.266	-5.12043	-20.9092	-16.4129	-0.149835	88.335	-16.5041	0
0.6120	4.21348	-224.577	192.183	-5.12043	-31.276	-18.2385	-2.29435	106.682	-13.1666	-0.310643
0.6127	-1.28547	-42.0584	177.485	-1.14172	-38.3043	-17.63	-2.59402	77.9915	-24.426	0
0.6133	-2.49952	23.5251	156.432	7.71524	-37.9968	-15.5001	0.149835	38.2785	-19.8782	0
0.6140	-0.0714149	-1.16829	146.977	14.7039	-41.0277	-14.5872	3.81143	1.661	-1.24697	0
0.6147	-3.42792	40.6246	135.378	11.9707	-52.0095	-18.8471	2.59402	-13.288	2.4206	-0.310643
0.6153	-10.4266	74.1864	114.642	7.40386	-58.1153	-22.8205	-0.767905	2.265	-2.45727	0
0.6160	-13.4974	101.057	84.4524	6.46973	-55.3918	-20.6906	-1.37661	24.8395	-2.78735	0
0.6167	-6.42734	219.798	48.145	5.88157	-49.5935	-17.0214	1.98531	15.1	-1.24697	0
0.6173	6.07027	242.951	-15.3333	4.35928	-40.7202	-13.9608	10.5259	-39.864	-0.330081	0
0.6180	6.713	141.363	-147.216	2.52562	-30.9685	-13.048	14.4965	-81.6155	-0.623487	0
0.6187	-5.49895	107.164	-215.54	-0.242182	-24.2477	-15.8043	8.99947	-76.4815	-3.37417	-0.310643
0.6193	-13.1403	106.845	-99.5474	-0.55356	-16.6044	-13.9608	6.86432	-66.9685	-4.91454	-0.310643
0.6200	-10.4266	78.8065	47.8272	1.90286	-7.46757	-8.78814	8.08173	-74.896	-2.78735	0
0.6207	-2.49952	56.8214	70.7081	2.8024	0.790684	-6.33605	7.47302	-65.1565	-0.953568	0
0.6213	8.78403	34.2521	-11.361	2.52562	7.46757	-1.1455	7.78206	-49.6035	1.5037	0
0.6220	10.9265	10.727	-105.347	1.28011	6.89652	3.72288	6.86432	-76.7835	3.9243	0
0.6227	-2.14245	7.38147	-156.034	-0.83034	2.89918	0.375867	5.0382	-119.819	6.38157	0
0.6233	-17.1396	22.0382	-158.815	-0.242182	5.97406	-9.09241	9.60817	-114.609	16.4674	-0.310643
0.6240	-26.2807	42.1646	-122.746	1.00333	9.92748	-18.5428	13.8878	-53.5295	31.7245	0
0.6247	-29.3515	55.6	-87.392	0.69195	9.92748	-21.2991	13.2698	12.684	44.2309	0
0.6253	-24.1382	61.707	-86.7564	0.69195	9.92748	-17.3257	9.91721	45.602	47.8985	-0.310643
0.6260	-15.9255	78.1692	-93.5094	-0.55356	11.4649	-12.1351	3.51176	39.4865	38.7295	-0.310643
0.6267	-7.64139	74.8237	-74.8393	-0.55356	13.8809	-4.20613	1.98531	41.374	26.8099	0
0.6273	3.64216	22.0382	-52.9119	-0.242182	11.7724	1.89723	5.94658	99.358	-13.46	0
0.6280	11.8549	-29.2604	-50.1312	-3.59814	5.97406	-2.68477	9.3085	162.174	-83.0338	0
0.6287	11.5692	-43.5985	-52.9119	-1.45309	3.51415	-8.16169	12.9701	180.219	-90.6623	0
0.6293	5.14187	-35.3673	-47.43	5.5702	0.790684	-9.70096	12.3614	180.823	-36.0522	0
0.6300	3.64216	-16.7278	-26.3765	8.92615	-3.82164	-10.0052	6.25561	161.57	-2.16387	0
0.6307	10.3552	4.30143	-2.22452	8.61477	-5.62264	-8.48386	-0.149835	93.2425	-1.54038	0
0.6313	11.2836	20.1796	16.3661	9.54891	-6.8526	-5.7275	-3.51176	18.7995	11.2594	0
0.6320	6.713	76.9478	49.9723	9.54891	-6.8526	-3.59759	-0.767905	-17.516	44.8177	0
0.6327	6.35593	186.183	93.5889	2.8024	-5.93013	-2.38049	3.20272	-9.8905	31.3944	-0.310643
0.6333	5.42753	193.511	128.387	-6.33134	-7.16009	-3.59759	1.06757	79.1995	-17.1276	0
0.6340	2.42811	50.7144	143.958	-7.85363	-8.08255	-4.20613	-1.67628	241.223	-0.623487	-0.310643
0.6347	-0.357074	-72.5933	119.568	-3.59814	-6.54511	-2.38049	-0.149835	409.965	45.4412	-1.24257
0.6353	-1.57113	-69.8319	65.544	-1.45309	-3.82164	-0.536953	2.28498	561.041	16.4674	-0.931929
0.6360	1.78537	14.7098	26.4559	1.28011	-1.66922	0.680141	3.20272	641.599	-58.3144	0
0.6367	1.21405	51.6172	18.5112	4.94744	-1.66922	-0.841227	0.149835	631.86	-81.4934	0
0.6373	-9.78384	28.1452	32.2556	6.15835	-3.20666	-3.59759	-4.4295	529.935	-49.4755	0
0.6380	-18.068	25.9679	28.9188	5.5702	-3.20666	-3.29331	-4.12046	252.246	-22.2988	0
0.6387	-19.282	25.9679	-23.278	4.35928	-2.2842	-1.44977	0.45887	-93.8465	-11.6262	0
0.6393	-23.2098	-2.38968	-65.3851	3.73653	-0.746757	0.680141	3.51176	-316.043	-6.74833	-0.310643
0.6400	-29.6372	-40.2529	-60.8566	4.04791	1.09817	2.81006	5.33787	-446.054	-7.66522	-0.310643
0.6407	-34.8505	-40.837	-37.658	3.11377	0.175708	0.680141	3.20272	-530.841	-8.58212	0
0.6413	-36.9929	19.8609	-11.361	2.52562	-0.746757	-1.1455	0.75854	-510.078	-5.83144	0
0.6420	-32.9937	32.3935	-12.9499	2.8024	-0.439269	-0.23268	1.36724	-391.996	-2.45727	0
0.6427	-25.6379	-59.7421	7.2297	3.42515	-0.439269	0.375867	2.89369	-261.985	-0.330081	0
0.6433	-16.8539	-151.931	123.461	4.35928	1.09817	2.20151	5.0382	-155.832	2.714	-0.310643
0.6440	-8.85545	-187.617	269.644	4.04791	1.66922	2.81006	5.64691	-69.46	4.54779	0
0.6447	-6.14168	-165.95	359.419	2.21424	-0.746757	-0.841227	1.06757	-10.872	2.4206	0
0.6453	-3.71357	-156.179	391.437	1.00333	-3.20666	-3.59759	-3.20272	1.661	-1.54038	0
0.6460	-0.928394	-170.252	410.981	1.00333	-3.82164	-3.29331	-3.82079	-32.5405	-1.54038	-0.310643
0.6467	0.571319	-92.1356	417.098	2.21424	-2.89918	-1.44977	-1.98531	-60.853	2.714	-0.310643
0.6473	8.78403	-19.1706	334.95	4.63606	-1.36173	0.680141	0.75854	-48.6975	6.38157	-0.310643
0.6480	19.4963	-35.3673	134.822	5.25882	-1.97671	-0.841227	-1.06757	-23.6315	8.83885	-0.310643
0.6487	28.6374	-12.745	-118.218	2.8024	-3.82164	-3.29331	-4.12046	-8.6825	11.2594	0
0.6493	38.7069	50.7144	-309.526	-0.83034	-3.82164	-1.75405	-2.29435	-12.382	0.293406	0
0.6500	37.4928	90.3832	-302.217	-3.59814	-3.20666	0.984414	0.75854	-32.163	-13.46	0
0.6507	27.4233	87.6217	-155.16	-3.59814	-2.2842	2.50578	3.20272	-36.7685	0.293406	0
0.6513	13.9973	51.033	-87.392	-4.1863	-1.36173	3.4186	4.42013	-32.5405	14.927	-0.310643
0.6520	-7.99847	32.7121	-111.147	-6.64272	-1.97671	1.28869	1.36724	-31.559	8.21536	-0.310643
0.6527	-22.6385	-6.05387	-127.99	-7.54225	-1.97671	0.375867	-1.06757	4.1525	2.09052	0
0.6533	-19.8533	-94.5784	-150.553	-3.59814	-0.439269	1.89723	-1.67628	53.2275	-0.623487	-0.310643
0.6540	-10.7122	-142.797	-190.514	2.21424	1.09817	2.50578	-2.90305	39.4865	1.5037	-0.310643
0.6547	-8.28413	-111.943	-230.238	4.63606	2.2842	3.11433	-2.29435	-8.0785	14.0101	0
0.6553	-16.4968	-48.1654	-272.583	2.52562	1.97671	3.11433	-1.37661	-7.7765	10.0491	0
0.6560	-28.1375	-13.7009	-267.419	-0.242182	0.790684	2.50578	-1.67628	-1.963	-11.3328	0
0.6567	-34.2077	-39.297	-188.052	-0.242182	1.09817	3.4186	-1.67628	-25.519	-17.1276	-0.310643
0.6573	-31.494	-146.408	-108.763	-0.242182	1.36173	2.50578	-2.90305	-17.516	-10.0858	-0.310643
0.6580	-24.4239	-241.624	-66.6562	-0.83034	1.09817	0.680141	-4.4295	27.029	-6.45492	0
0.6587	-14.3544	-147.948	-59.5854	-0.242182	1.36173	1.28869	-3.82079	75.802	-3.70425	-0.310643
0.6593	-1.57113	-8.81528	-65.7029	0.380572	0.483196	0.375867	-2.90305	101.17	-2.16387	-0.310643
0.6600	3.92782	53.4758	-15.0155	1.59148	-0.131781	-1.1455	-1.98531	92.3365	-1.24697	-0.310643
0.6607	0.28566	177.049	80.1623	2.8024	-0.131781	-1.44977	-1.37661	75.5	-0.0366757	0
0.6613	0.571319	235.357	146.977	1.90286	-0.439269	-1.75405	-2.90305	21.8195	0.293406	0
0.6620	10.6408	136.159	189.72	1.59148	0.790684	0.680141	-3.20272	-93.8465	0.293406	0
0.6627	18.8535	47.0502	222.373	1.59148	2.59169	4.04505	-0.767905	-185.428	1.17362	0
0.6633	20.7103	2.81452	230.318	0.069195	2.2842	3.72288	-1.37661	-189.354	1.17362	0
0.6640	18.8535	-13.3822	209.582	-2.07585	1.09817	2.20151	-4.12046	-134.164	-1.24697	0.310643
0.6647	15.497	4.30143	129.896	-3.90952	-0.131781	1.28869	-7.17335	-62.1365	-3.08076	-0.621286
0.6653	17.9966	15.294	-24.5492	-3.59814	1.36173	3.11433	-5.95594	5.3605	-2.45727	-1.24257
0.6660	23.1384	0.371729	-184.397	-2.66401	3.82164	6.78351	-1.37661	78.5955	-0.0366757	-0.310643
0.6667	20.7103	-10.6208	-252.483	-2.66401	4.43662	7.69633	-0.767905	157.04	-0.623487	0.310643
0.6673	15.497	8.60286	-195.679	-3.28676	4.43662	6.78351	-2.29435	203.397	-0.623487	0
0.6680	6.99866	2.17727	-102.01	-3.59814	3.51415	5.26214	-2.59402	192.072	1.79711	-0.310643
0.6687	-2.14245	-52.4137	-73.9654	-3.59814	1.66922	3.4186	-1.98531	108.494	4.25438	0
0.6693	-3.99923	-111.359	-69.993	-2.35263	2.89918	5.26214	2.89369	-41.374	4.54779	0
0.6700	-12.8547	-156.498	-28.7599	0.069195	3.51415	6.17496	6.55528	-171.385	3.9243	-0.310643
0.6707	-31.1369	-160.799	19.1468	1.00333	1.66922	3.4186	6.25561	-208.909	2.4206	-0.310643
0.6713	-39.421	-111.359	71.3436	1.00333	0.790684	1.28869	5.0382	-171.989	1.79711	-0.310643
0.6720	-35.4218	18.0554	140.304	0.69195	-0.131781	-0.536953	2.28498	-108.494	0.880217	0
0.6727	-25.3523	142.266	186.065	0.380572	-0.746757	-1.1455	0.149835	-58.739	0.880217	0
0.6733	-13.7831	74.505	194.328	1.59148	0.790684	0.984414	2.28498	-36.7685	2.09052	0
0.6740	-5.49895	-63.7249	172.321	1.90286	0.790684	1.28869	2.28498	-15.402	1.79711	0
0.6747	-1.85679	-64.9463	129.022	0.069195	-0.439269	-0.536953	-1.37661	8.6825	0.293406	0
0.6753	-5.21329	30.588	91.7616	-2.07585	-0.439269	-0.841227	-4.4295	8.3805	-1.54038	-0.310643
0.6760	-11.9263	84.5948	36.5457	-3.28676	0.483196	0.0715938	-5.0382	-4.4545	-2.78735	-0.310643
0.6767	-6.42734	36.0577	-56.8842	-3.28676	1.66922	1.89723	-3.51176	-4.1525	-2.45727	0
0.6773	8.21271	-19.8078	-124.891	-2.97538	3.20666	4.34932	-1.06757	-11.476	-2.16387	0
0.6780	6.99866	-17.6306	-133.154	-3.28676	2.2842	4.65359	0.149835	-53.5295	-2.78735	0
0.6787	-9.49818	30.588	-88.2659	-3.90952	-0.746757	1.89723	-0.767905	-72.48	-3.99765	0
0.6793	-20.7817	92.8259	-30.0311	-3.90952	-2.2842	-0.841227	-0.767905	-5.9645	-4.62114	0
0.6800	-16.8539	109.023	-29.3955	-3.59814	-1.66922	0.0715938	0.45887	35.8625	-3.37417	0.310643
0.6807	1.78537	118.157	-54.4214	-2.35263	0.175708	3.11433	3.51176	-20.0075	-1.24697	0.310643
0.6813	20.996	174.022	-49.8134	-0.55356	1.09817	5.26214	7.17335	-45.904	-0.0366757	0
0.6820	26.852	172.801	-65.3851	-0.55356	0.483196	4.34932	6.55528	17.214	-0.623487	-0.310643
0.6827	17.0682	92.8259	-138.318	-1.76447	-1.05425	0.984414	3.20272	94.4505	-1.87046	-0.310643
0.6833	1.78537	38.8191	-199.413	-1.76447	-1.05425	0.375867	1.67628	132.578	-2.16387	0
0.6840	1.21405	27.8265	-183.523	-1.14172	0.483196	3.11433	3.81143	116.421	-0.953568	0
0.6847	6.713	-14.285	-98.6735	-0.55356	0.790684	3.4186	4.12046	83.4275	-0.623487	0
0.6853	-9.21252	-113.802	30.1105	-1.45309	-0.131781	1.28869	-0.149835	104.19	-2.16387	0
0.6860	-37.2786	-92.7197	154.287	-2.97538	-1.05425	-1.1455	-6.86432	174.103	-3.99765	0
0.6867	-50.7046	67.1767	216.255	-3.90952	-1.36173	-1.1455	-9.91721	255.266	-4.62114	-0.310643
0.6873	-49.7762	122.139	213.793	-2.97538	-0.439269	0.984414	-7.78206	286.674	-3.37417	-0.310643
0.6880	-43.0632	73.9209	178.439	-1.45309	0.790684	2.50578	-5.64691	205.511	-2.16387	0
0.6887	-27.2091	52.8386	116.152	-0.83034	0.483196	2.50578	-5.33787	101.774	-1.87046	0
0.6893	-9.78384	59.2642	7.54749	-1.76447	-1.05425	0.680141	-5.64691	91.4305	-2.45727	0
0.6900	3.92782	60.8042	-138.953	-1.76447	-1.97671	0.0715938	-4.72917	84.107	-3.08076	-0.310643
0.6907	17.6395	87.6217	-243.903	-0.242182	-1.36173	1.89723	-1.37661	-56.927	-2.45727	-0.310643
0.6913	23.1384	127.29	-209.105	0.69195	-0.439269	3.72288	3.51176	-241.827	-1.24697	-0.310643
0.6920	15.2114	92.8259	-81.9101	0.069195	0.175708	5.26214	4.72917	-324.575	-0.0366757	0
0.6927	0.571319	41.5805	-1.90673	-0.83034	-0.746757	3.72288	0.75854	-321.781	-0.623487	-0.310643
0.6933	-9.49818	49.8116	10.5665	-0.83034	-1.66922	2.81006	-2.90305	-263.495	-0.330081	-0.310643
0.6940	-14.3544	69.3008	12.7116	-0.242182	-1.05425	3.4186	-4.72917	-216.836	-0.953568	0
0.6947	-21.0674	71.4781	7.2297	0.069195	-0.746757	3.72288	-6.25561	-243.11	-0.953568	-0.931929
0.6953	-18.068	67.8139	-27.5682	0.380572	0.483196	5.26214	-5.33787	-238.505	2.4206	-1.55321
0.6960	-9.21252	35.7391	-40.9948	-0.83034	-0.131781	3.4186	-7.78206	-137.486	0.880217	-0.310643
0.6967	-11.6406	-21.2947	31.3022	-3.28676	-2.89918	-0.23268	-11.7527	-48.9995	-3.70425	0
0.6973	-12.2119	-22.5161	151.585	-1.76447	-1.66922	2.50578	-6.86432	-12.382	-2.45727	0
0.6980	-4.28489	40.3591	236.435	0.69195	1.09817	6.78351	1.98531	88.637	0.586811	0
0.6987	2.07103	56.1841	277.033	1.59148	1.09817	7.39206	7.17335	267.195	0.880217	-0.310643
0.6993	6.07027	-3.9297	282.197	0.69195	-0.439269	4.95787	5.64691	388.976	-0.623487	0
0.7000	10.0695	-68.0263	211.409	-2.07585	-1.36173	2.50578	1.98531	412.457	-1.87046	0.310643
0.7007	1.78537	-117.466	121.952	-3.90952	-1.66922	2.20151	-1.06757	423.706	-2.78735	0
0.7013	-16.8539	-100.632	115.834	-2.97538	-1.97671	3.11433	-5.33787	480.18	-3.99765	-0.310643
0.7020	-27.4947	8.92149	118.615	0.069195	-1.97671	4.65359	-9.61754	498.225	-4.29106	0
0.7027	-35.4218	11.3643	88.4248	3.11377	-1.05425	6.17496	-9.3085	410.645	-3.70425	0
0.7033	-38.7783	-101.854	63.7167	5.25882	-0.746757	5.56642	-8.39076	319.365	-3.37417	0
0.7040	-28.1375	-106.739	3.89292	4.94744	-2.2842	3.72288	-8.99947	213.741	-4.29106	-0.310643
0.7047	-14.9971	-80.8244	-53.468	4.04791	-3.51415	2.81006	-6.25561	-25.1415	-4.91454	-0.310643
0.7053	-10.1409	-144.018	-62.0483	3.11377	-3.82164	1.89723	0.45887	-287.051	-4.29106	-0.310643
0.7060	-13.7831	-155.595	-98.3557	1.00333	-2.89918	1.28869	7.47302	-355.681	-2.16387	-0.310643
0.7067	-19.282	-28.3045	-185.35	-4.80905	-1.97671	1.89723	12.9701	-221.744	-0.330081	-0.310643
0.7073	-17.7109	85.179	-224.677	-8.47639	-1.97671	1.59296	13.8878	-21.8195	0.586811	-0.310643
0.7080	-14.3544	85.8162	-181.06	-5.12043	-1.36173	1.89723	14.4965	163.08	1.79711	0
0.7087	-32.0653	99.5171	-123.064	-2.07585	-1.66922	-0.23268	12.3614	285.768	2.4206	0
0.7093	-61.9881	170.623	-66.6562	-16.3992	-3.51415	-4.20613	6.55528	299.509	3.00741	-0.931929
0.7100	-71.772	168.818	-27.2504	-36.535	-1.97671	-3.29331	5.64691	211.929	2.09052	-0.621286
0.7107	-74.4857	88.8431	-26.0587	-35.0127	-1.66922	-2.68477	7.17335	73.084	-1.54038	0
0.7113	-83.9839	31.8093	3.25734	-19.4438	-3.82164	-2.98904	5.33787	-101.472	-3.37417	0
0.7120	-74.7714	-12.745	76.8255	-6.33134	-4.70018	-2.38049	2.89369	-278.444	-2.45727	0
0.7127	-46.4197	-44.1826	140.622	1.00333	-6.23762	-4.51041	-2.59402	-342.846	-1.87046	0
0.7133	-13.4974	-18.5864	191.865	-2.35263	-5.93013	-4.20613	-7.78206	-243.11	-3.37417	0
0.7140	11.8549	28.1452	241.599	-9.09914	-3.51415	-1.75405	-8.09109	-37.0705	-5.53803	0
0.7147	28.0661	62.2911	271.471	5.25882	-2.89918	-2.98904	-8.6998	180.521	-6.45492	-0.310643
0.7153	35.636	94.9501	227.537	36.7079	-2.89918	-4.20613	-9.61754	279.728	-7.37182	0
0.7160	20.139	101.96	113.133	44.9421	-3.20666	-5.42323	-9.3085	252.85	-9.49901	0
0.7167	-1.28547	55.9186	49.019	19.3054	-1.66922	-3.29331	-4.4295	196.678	-8.87552	0
0.7173	-23.5669	-31.7031	102.408	-1.14172	1.36173	1.59296	3.20272	92.6385	-5.83144	0
0.7180	-71.4149	-127.822	275.205	-0.242182	1.09817	1.28869	5.94658	-60.249	-4.62114	0.310643
0.7187	-109.622	-205.619	519.585	2.52562	-1.05425	-0.841227	8.6998	-151.227	-5.53803	0
0.7193	-100.766	-268.813	676.176	1.59148	-2.89918	-1.1455	13.5788	-115.817	-6.12484	-0.310643
0.7200	-67.2014	-333.494	602.607	1.28011	-2.89918	-2.05832	15.4143	15.402	-5.53803	-0.310643
0.7207	-32.3509	-374.118	299.278	3.11377	-1.36173	-0.23268	17.8491	177.123	-0.0366757	0
0.7213	-5.21329	-329.829	-9.53367	4.63606	-0.131781	3.11433	22.1194	359.305	4.84119	0
0.7220	6.35593	-311.509	-126.718	4.63606	-1.05425	2.50578	24.8726	520.799	3.00741	-0.310643
0.7227	-2.49952	-340.822	-198.141	4.94744	-3.20666	-0.841227	24.8726	564.74	-1.54038	-0.310643
0.7233	-22.6385	-159.259	-345.596	4.35928	-5.31516	-3.90186	22.4284	482.294	-3.08076	-0.310643
0.7240	-29.6372	154.161	-425.202	4.63606	-4.70018	-2.98904	24.2639	309.022	-2.45727	0
0.7247	-19.8533	271.946	-376.659	5.25882	-3.51415	-1.1455	27.3074	124.953	-0.953568	0
0.7253	-12.2119	204.238	-384.922	4.94744	-5.00767	-1.44977	23.0371	-19.1015	1.79711	-1.24257
0.7260	-7.07007	119.059	-465.799	3.73653	-6.54511	-3.90186	15.714	-236.391	2.4206	-1.24257
0.7267	13.0689	58.3614	-388.259	1.28011	-6.54511	-6.64032	10.8349	-556.511	-1.87046	0
0.7273	42.349	33.0307	-186.86	4.04791	-5.00767	-6.64032	7.17335	-758.851	-3.99765	-0.310643
0.7280	61.274	66.2739	-15.0155	15.9494	-3.82164	-4.81468	2.59402	-716.118	-2.45727	-0.621286
0.7287	66.7729	97.0743	110.034	26.3287	-3.82164	-3.90186	-2.90305	-575.99	-2.45727	-0.310643
0.7293	62.5594	88.8431	237.309	27.5396	-4.70018	-4.81468	-9.3085	-416.685	-3.99765	0
0.7300	54.561	104.137	361.803	24.1836	-5.31516	-4.51041	-13.5788	-171.687	-4.62114	0
0.7307	72.2719	142.266	340.193	23.2495	-5.31516	-1.1455	-12.6704	130.464	-3.99765	-0.310643
0.7313	123.262	181.032	196.155	25.3946	-4.43662	1.28869	-7.78206	406.643	-2.45727	-0.310643
0.7320	145.544	247.571	2.62176	26.6055	-1.97671	1.59296	0.149835	585.805	-0.330081	0
0.7327	105.837	254.847	-311.672	23.8723	-0.746757	0.984414	6.25561	594.336	0.293406	0
0.7333	49.9904	116.032	-627.236	22.0386	-2.59169	-1.1455	6.86432	448.772	-0.953568	0
0.7340	9.14111	-26.8176	-673.951	14.4272	-3.82164	-3.29331	4.12046	265.081	-2.16387	0
0.7347	-24.1382	-124.476	-478.034	-17.9215	-2.2842	-2.05832	2.89369	63.3445	-1.24697	-0.310643
0.7353	-49.2049	-292.604	-291.81	-58.2276	-0.439269	0.375867	0.45887	-214.42	0.293406	-0.310643
0.7360	-52.5614	-453.456	-155.16	-71.6514	-0.439269	0.984414	-7.17335	-533.332	-0.0366757	-0.310643
0.7367	-39.7067	-478.468	-24.5492	-51.7924	-1.36173	-0.536953	-16.9407	-702.075	-0.953568	-0.310643
0.7373	-23.2098	-413.468	53.9447	-27.9894	-1.36173	-1.1455	-23.9549	-565.344	-0.623487	0
0.7380	-11.9263	-309.384	96.3695	-18.2329	-1.66922	-0.841227	-24.5636	-224.16	0.880217	0
0.7387	-14.0687	-177.58	83.1813	-13.9774	-2.2842	-2.05832	-21.8197	73.688	2.09052	0
0.7393	-19.8533	-141.576	-45.8411	-10.3101	-3.20666	-5.7275	-21.211	154.549	1.79711	-0.310643
0.7400	-30.5656	-209.018	-181.06	-9.09914	-5.00767	-9.39668	-19.9936	109.4	0.586811	-0.310643
0.7407	-49.4905	-152.249	-229.92	-9.09914	-6.54511	-11.2223	-15.1052	-4.7565	-0.623487	-0.310643
0.7413	-51.2759	-3.61108	-203.385	-8.47639	-6.23762	-10.3095	-13.2791	-361.192	-1.24697	-0.310643
0.7420	-25.6379	45.8288	-61.0949	-7.54225	-4.43662	-7.85742	-16.332	-755.151	-1.24697	0.310643
0.7427	-1.85679	83.9576	107.969	-7.54225	-3.82164	-6.64032	-19.9936	-795.77	-1.54038	0
0.7433	9.14111	96.1715	184.874	-8.47639	-5.93013	-8.16169	-29.452	-587.919	-3.70425	0
0.7440	42.0634	24.1624	260.19	-9.37592	-7.16009	-12.7437	-38.6106	-364.514	-5.20795	0
0.7447	97.3385	47.0502	403.036	-9.37592	-5.93013	-18.2385	-33.7223	-140.506	-5.53803	0
0.7453	129.975	130.371	529.357	-8.47639	-3.82164	-20.9949	-23.0465	102.076	-5.53803	0
0.7460	127.833	121.821	496.148	-7.26547	-1.97671	-20.3684	-16.6317	287.655	-4.29106	0
0.7467	119.263	132.176	333.122	-7.85363	-2.2842	-20.0642	-12.9701	370.328	-4.29106	0.310643
0.7473	139.402	213.372	150.076	-7.85363	-3.82164	-17.63	-6.56465	420.384	-4.29106	0
0.7480	173.324	166.694	-98.0379	-5.43181	-3.20666	-11.8309	3.20272	485.088	-1.87046	-0.310643
0.7487	159.255	16.834	-344.96	-4.49767	-1.97671	-7.85742	5.33787	485.088	-0.0366757	0
0.7493	78.6992	39.7219	-477.081	-4.1863	-2.2842	-6.64032	0.45887	281.842	0.586811	0
0.7500	-40.6351	121.821	-337.889	-3.59814	-3.20666	-7.55314	-0.149835	13.288	0.880217	0
0.7507	-148.043	32.3935	133.233	-3.59814	-4.70018	-10.6138	-5.95594	-87.429	0.293406	-0.310643
0.7513	-161.183	-113.802	525.702	-3.59814	-4.70018	-14.2651	-28.8432	-220.46	0.293406	0
0.7520	-105.623	-152.249	562.01	-2.35263	-3.51415	-16.7171	-48.3686	-484.182	1.5037	0
0.7527	-76.0569	-22.5161	488.759	-2.35263	-2.59169	-17.0214	-60.2711	-493.317	1.79711	-0.310643
0.7533	-69.6295	184.962	497.658	-2.35263	-2.2842	-15.5001	-79.4969	-230.577	0.880217	0
0.7540	-70.8436	250.28	516.884	-1.45309	-3.82164	-19.1513	-86.2113	-75.5	0.880217	-0.310643
0.7547	-72.986	151.134	359.975	-0.242182	-6.23762	-25.2547	-75.5356	-34.6545	3.33749	-1.24257
0.7553	-47.3481	106.58	-94.0655	2.52562	-6.8526	-21.9077	-66.0679	36.7685	4.84119	-0.621286
0.7560	-24.4239	140.407	-627.872	4.04791	-5.62264	-16.4129	-45.6248	101.774	2.714	0.310643
0.7567	-38.7783	184.059	-812.189	4.04791	-5.62264	-19.1513	-11.7527	147.527	1.5037	0
0.7573	-61.3454	211.832	-497.816	2.8024	-7.46757	-27.4025	5.64691	165.874	2.09052	-0.310643
0.7580	-68.9868	177.952	-132.2	1.00333	-7.77506	-30.141	-2.29435	94.7525	1.17362	0
0.7587	-60.4884	119.962	-93.1916	0.069195	-5.93013	-23.7333	-8.39076	-14.798	1.17362	0
0.7593	-51.9186	86.1348	-142.926	1.59148	-5.93013	-15.5001	-4.12046	-61.8345	3.63089	0.310643
0.7600	-46.4197	83.0548	-39.8031	3.73653	-7.16009	-11.2223	20.902	-2.567	5.17127	0
0.7607	-22.9242	53.7413	111.623	3.73653	-8.69753	-9.39668	44.707	211.023	4.54779	0
0.7613	9.71243	5.84145	224.518	2.52562	-10.4985	-6.9446	9.3085	380.369	3.00741	0
0.7620	42.9918	30.8535	259.316	1.90286	-12.036	-4.81468	-34.331	275.424	1.79711	-0.310643
0.7627	67.7013	48.2716	150.076	1.28011	-12.036	-9.39668	-38.9103	204.907	0.880217	0
0.7633	60.417	5.52283	104.235	0.069195	-11.421	-10.918	-48.3686	366.024	0.293406	0
0.7640	63.1308	28.1452	125.606	-0.83034	-10.4985	8.91342	-63.6331	465.835	-0.623487	0
0.7647	112.55	129.149	-62.6839	-0.83034	-8.39004	34.5619	-42.8809	486.296	-0.953568	0
0.7653	139.759	194.467	-266.546	-0.55356	-7.77506	46.4644	-8.09109	702.377	-0.623487	0
0.7660	89.4114	199.353	-318.107	-2.35263	-15.4183	45.2294	-17.8585	930.915	-1.54038	0.310643
0.7667	-1.85679	189.263	-359.578	-5.12043	-25.1701	30.8927	-21.8197	840.013	-4.62114	0.310643
0.7673	-94.6247	51.2985	-337.333	-3.59814	-29.1235	8.30488	29.452	577.273	-5.20795	0
0.7680	-176.109	-271.256	-318.981	-1.45309	-30.3535	-20.3684	49.8951	305.926	-4.62114	0
0.7687	-220.958	-472.998	-447.447	-2.66401	-27.8936	-47.234	-2.29435	-117.931	-7.95863	0
0.7693	-210.317	-346.026	-464.29	-4.49767	-22.7102	-55.7715	-70.0385	-832.086	-10.7093	0
0.7700	-178.252	-157.719	-242.394	-5.43181	-18.7568	-51.816	-112.76	-1522.99	-10.4159	0
0.7707	-147.115	-162.286	43.2193	-3.59814	-14.1884	-48.7554	-106.355	-1738.16	-7.66522	0.310643
0.7713	-91.911	-234.03	263.606	1.28011	-7.16009	-53.0331	-77.062	-1500.11	-1.54038	0
0.7720	-29.9228	-253.572	393.582	4.35928	1.36173	-74.6902	-68.2124	-1079.57	2.714	0
0.7727	-7.07007	-140.938	552.238	6.15835	9.61999	-100.339	-29.452	-600.754	3.63089	0
0.7733	-23.8526	187.723	730.517	8.61477	14.1884	-103.99	63.015	-166.176	3.33749	0
0.7740	-32.9937	438.587	732.027	9.82569	16.0333	-82.9414	147.859	91.4305	2.4206	-0.310643
0.7747	9.14111	355.904	513.785	-1.14172	23.0616	-59.4407	177.152	193.658	2.714	-0.310643
0.7753	82.3414	204.504	172.003	-21.5888	30.0899	-53.3374	171.355	210.117	2.714	-0.310643
0.7760	145.544	210.929	-299.754	-24.9448	28.86	-52.7288	158.844	214.722	1.5037	-0.310643
0.7767	150.685	181.35	-552.794	-12.7319	22.1392	-49.9725	135.957	243.412	0.880217	-0.310643
0.7773	67.13	-47.5813	-260.984	-13.0433	12.6949	-49.0596	129.851	304.718	1.5037	-0.310643
0.7780	-41.5635	-293.825	144.276	-18.2329	5.97406	-38.3743	132.595	309.324	3.9243	-0.310643
0.7787	-64.7019	-423.558	250.418	-6.64272	0.790684	-14.8915	108.79	-23.9335	8.21536	0
0.7793	6.713	-607.564	158.895	7.09249	-13.2659	7.69633	64.5415	-513.778	8.21536	0.310643
0.7800	40.278	-759.813	172.321	6.46973	-26.7076	21.7287	-1.37661	-662.362	5.46468	0
0.7807	-47.3481	-579.472	281.243	4.04791	-26.4001	32.7184	-79.1972	-464.929	3.00741	-0.310643
0.7813	-159.327	-196.485	291.969	8.61477	-12.3435	48.5943	-99.0316	-135.07	5.17127	-0.310643
0.7820	-199.319	55.9186	170.812	12.9049	1.36173	50.7242	-79.1972	62.4385	11.5528	0
0.7827	-212.102	58.6269	34.4007	11.6594	7.46757	33.0226	-89.8729	-4.7565	14.0101	0
0.7833	-233.812	-75.3016	66.7357	16.5376	11.4649	36.0833	-66.686	-104.492	14.6336	0
0.7840	-224.671	-264.511	159.212	30.5842	12.9584	67.5129	1.67628	-146.923	14.6336	0
0.7847	-188.964	-432.055	45.3644	36.7079	12.9584	85.5188	54.7741	-204.001	15.5505	-0.931929
0.7853	-155.399	-356.116	-109.955	34.5629	15.7258	74.5291	112.451	-215.628	17.3476	-1.24257
0.7860	-114.764	-228.507	-51.0846	33.9401	16.0333	61.7138	161.588	-192.148	12.7998	-0.310643
0.7867	-68.0584	-271.84	-17.1606	36.3966	11.7724	62.6266	135.348	-176.217	7.29847	0
0.7873	-16.2112	-188.254	19.4646	31.7951	7.46757	62.0181	115.504	-50.2075	4.84119	0
0.7880	60.9883	-37.4915	252.563	18.994	7.77506	47.6814	145.106	183.843	-1.24697	0
0.7887	140.973	-58.2552	328.594	12.2821	16.3408	41.5781	88.9552	449.98	-6.45492	0.310643
0.7893	181.251	-105.518	132.677	14.4272	24.5551	46.7686	-2.59402	762.777	-5.20795	0.310643
0.7900	175.109	-156.179	-65.0673	29.0619	25.7851	24.4851	-39.2193	1006.64	0.293406	0
0.7907	125.69	-233.127	-266.546	44.3194	25.7851	-16.7171	-102.693	1085.09	3.63089	-0.310643
0.7913	64.9876	-148.585	-652.262	44.3194	22.4467	-39.0007	-179.596	989.805	2.09052	-0.310643
0.7920	30.4942	124.264	-1153.97	25.0832	12.9584	-44.4776	-189.672	799.394	1.17362	-0.310643
0.7927	-45.4913	232.915	-1332.81	-17.9215	3.20666	-49.3639	-136.266	694.147	2.09052	0
0.7933	-214.887	35.7391	-965.999	-47.537	-3.51415	-52.4245	-56.9186	623.63	4.25438	0
0.7940	-357.717	-33.1901	-474.936	-38.9914	-5.62264	-47.8425	-35.8574	455.19	6.38157	0
0.7947	-369.929	204.822	-172.242	-18.8556	-3.82164	-51.816	-69.1208	69.46	8.83885	-0.310643
0.7953	-297.3	414.477	33.7651	-2.07585	-4.43662	-55.7715	-29.452	-546.092	13.3866	-0.310643
0.7960	-212.102	532.581	175.34	-22.523	-5.31516	-34.723	49.2864	-1015.78	17.0542	0
0.7967	-135.26	596.678	267.817	-74.0732	-0.746757	-13.3522	88.3465	-1085.99	18.2645	0
0.7973	-70.8436	543.892	350.521	-89.9535	1.09817	-9.09241	135.039	-929.707	19.5115	0
0.7980	-24.781	566.78	368.238	-78.0519	3.20666	-2.98904	194.551	-752.433	21.6387	0
0.7987	-2.78518	660.774	346.549	-67.9841	12.3874	4.34932	171.964	-567.76	25.0128	0
0.7993	1.21405	608.573	333.44	-52.4152	17.5708	6.47924	74.3088	-315.741	25.3062	0
0.8000	13.9973	497.798	220.863	-38.3686	12.9584	2.50578	56.9092	-35.2585	22.5556	0
0.8007	28.0661	478.255	43.2193	-35.6354	10.8499	-2.38049	110.934	112.42	19.8049	0
0.8013	29.5658	388.244	-93.1916	-20.0665	17.2633	4.04505	109.099	110.004	15.2204	-0.310643
0.8020	59.4886	116.617	-326.608	45.8417	24.8626	14.4082	46.2335	103.888	9.13225	-0.310643
0.8027	95.7674	-25.9148	-499.962	83.0686	26.4001	16.8603	-2.29435	57.833	7.92195	-0.310643
0.8033	80.1989	44.2888	-250.656	41.8976	22.1392	17.1646	1.67628	16.006	11.2594	0
0.8040	71.7006	-15.825	224.518	27.851	15.1109	18.0774	17.5494	114.609	14.3035	0
0.8047	91.8396	-204.132	582.507	39.7525	8.08255	13.4954	15.714	206.719	14.3035	0
0.8053	72.629	-334.715	786.607	22.6614	3.51415	10.1484	-0.45887	288.259	12.7998	0
0.8060	33.565	-388.138	944.707	11.6594	2.59169	12.5826	-15.714	518.912	12.1763	0
0.8067	14.9257	-190.06	1048.47	21.4504	-0.439269	10.1484	-38.9103	787.843	10.0491	0
0.8073	13.9973	220.063	752.127	42.1743	-5.00767	6.17496	-75.5356	934.917	8.50876	-0.310643
0.8080	30.7798	417.823	5.08462	59.8883	-5.62264	7.39206	-85.2936	963.909	11.5528	-0.310643
0.8087	28.6374	309.491	-534.124	64.7665	-4.70018	5.87069	-70.3476	931.217	13.7167	0
0.8093	-13.7831	34.2521	-566.221	66.2888	-4.43662	5.26214	-62.1066	843.335	12.1763	0
0.8100	-54.3467	-248.686	-373.64	68.7452	-4.43662	5.26214	-51.7306	486.598	12.4697	-0.310643
0.8107	-73.5573	-381.394	-160.325	65.9774	-6.54511	4.65359	-29.7516	-152.133	10.0491	0
0.8113	-83.6268	-439.118	-117.9	62.9328	-6.8526	10.1484	-27.3168	-579.991	9.42566	-0.310643
0.8120	-92.1966	-418.938	-102.328	65.7006	-6.54511	15.6253	-59.3628	-684.634	17.3476	-1.24257
0.8127	-73.9144	-404.281	228.49	72.1012	-8.69753	16.5561	-65.7682	-717.628	17.0542	-0.621286
0.8133	-14.7115	-499.232	631.606	64.7665	-11.7285	13.7997	-39.2193	-623.328	7.00506	0.310643
0.8140	28.6374	-559.345	743.944	1.90286	-14.1884	11.3655	-48.9867	-388.976	2.714	0
0.8147	23.1384	-598.695	658.141	-69.195	-13.5734	13.7997	-80.7236	-138.392	3.63089	0
0.8153	17.3538	-534.015	499.485	-57.6048	-11.7285	18.9902	-75.5356	-4.4545	6.67498	0
0.8160	41.135	-372.897	294.431	-44.181	-12.036	19.2945	-44.0983	4.7565	6.38157	0
0.8167	50.9188	-368.277	100.024	-79.5742	-12.6509	15.6253	-5.64691	126.463	1.79711	0.310643
0.8173	5.14187	-384.474	-224.995	-79.2628	-12.6509	14.7125	48.9773	485.994	-1.87046	0.310643
0.8180	-60.7741	-222.719	-699.295	-51.2043	-13.2659	15.3211	94.4523	796.676	0.880217	-0.931929
0.8187	-113.835	247.571	-917.139	-34.1131	-13.2659	13.1912	95.37	730.463	12.4697	-1.86386
0.8193	-175.538	689.132	-881.785	-19.167	-13.5734	7.08778	73.0914	470.139	15.2204	-0.621286
0.8200	-215.173	436.144	-924.448	-13.0433	-14.4959	2.50578	37.0748	174.707	6.08817	0
0.8207	-199.605	-7.27526	-875.032	-14.2542	-15.4183	1.89723	-19.9936	-217.742	0.586811	-0.310643
0.8213	-172.467	-83.2672	-603.72	-16.0878	-16.9119	4.65359	-54.4744	-427.104	-0.953568	0
0.8220	-137.974	-146.142	-270.518	-16.3992	-15.7258	16.2518	-44.707	-478.972	-1.24697	0
0.8227	-56.4892	-211.46	25.8204	-15.8111	-12.3435	23.268	-25.1817	-740.202	-1.24697	0
0.8233	41.135	-40.837	262.335	-15.8111	-10.4985	15.3211	-15.4143	-1001.13	-3.08076	0
0.8240	99.4809	180.129	466.514	-16.0878	-9.61999	6.78351	-23.0465	-886.37	-4.62114	-0.310643
0.8247	117.763	344.911	502.186	-14.8769	-9.61999	3.72288	-37.9925	-509.474	-3.37417	-0.310643
0.8253	118.049	558.23	348.376	-13.3546	-11.7285	4.34932	-30.3697	-255.266	-1.54038	-0.310643
0.8260	105.266	507.25	216.891	-12.7319	-12.9584	8.30488	1.98531	-280.332	-0.623487	0
0.8267	82.3414	171.579	155.24	-13.0433	-13.2659	12.2783	34.0219	-335.522	-1.54038	0
0.8273	67.987	-95.4811	236.991	-13.9774	-13.2659	11.3655	46.8422	-169.196	-4.29106	0
0.8280	54.2753	-252.032	575.754	-12.7319	-13.5734	10.1484	36.7751	185.051	-4.62114	0
0.8287	57.3462	-125.379	1066.5	-8.78776	-13.5734	13.1912	24.5636	413.363	-1.87046	0
0.8293	105.266	217.355	1414.72	-4.1863	-11.7285	17.4689	27.9255	313.552	0.586811	0
0.8300	159.255	288.727	1409.47	-1.76447	-12.036	20.2073	36.4661	193.96	1.79711	0
0.8307	197.105	136.478	1158.02	-2.35263	-13.8809	20.8159	51.4215	308.04	0.586811	0.310643
0.8313	232.17	116.935	725.909	-3.59814	-12.9584	17.4689	71.2559	467.949	-0.330081	0.310643
0.8320	237.097	226.17	-89.2193	-3.28676	-11.7285	14.4082	64.8505	489.316	-0.623487	0
0.8327	187.964	299.454	-1091.45	-2.97538	-10.4985	16.8603	7.47302	420.988	-0.330081	0
0.8333	117.12	282.62	-1640.43	-3.28676	-6.8526	21.4244	-64.8505	484.484	0.586811	0.310643
0.8340	26.852	300.038	-1538.81	-4.1863	-5.93013	23.268	-91.0997	591.618	0.293406	0
0.8347	-81.1987	345.23	-1226.59	-6.01996	-9.61999	22.9637	-81.941	396.904	-2.45727	0
0.8353	-126.69	315.598	-1146.03	-6.33134	-12.036	23.268	-70.3476	105.096	-4.29106	0
0.8360	-128.832	266.795	-1083.18	-5.12043	-12.3435	23.8765	-53.5567	-106.682	-3.37417	-0.310643
0.8367	-149.543	186.183	-863.433	-3.90952	-11.1135	24.4851	-23.0465	-375.235	-2.16387	-0.310643
0.8373	-127.261	28.1452	-762.137	-2.66401	-9.00502	23.8765	12.6611	-448.772	-1.54038	0
0.8380	-59.8457	-44.5012	-784.065	-2.35263	-7.46757	21.1202	24.8726	-421.894	-1.87046	0
0.8387	-30.2799	34.2521	-668.469	-3.28676	-4.70018	20.8159	37.0748	-717.628	-1.54038	0
0.8393	-35.7074	-41.7398	-261.302	-2.35263	0.483196	21.4244	65.7682	-1007.85	-0.623487	0
0.8400	7.92705	-240.721	213.554	-0.55356	2.59169	19.9031	63.015	-850.357	-0.623487	0
0.8407	95.7674	-97.0212	488.203	1.00333	0.483196	18.3817	40.1277	-468.327	-1.54038	0
0.8413	125.405	275.61	638.915	1.00333	-1.66922	17.4689	37.3838	-239.109	-2.45727	0
0.8420	103.409	399.237	783.27	0.069195	-1.97671	20.2073	37.9925	-132.578	-3.70425	0
0.8427	123.262	319.899	822.676	-0.55356	-2.89918	17.7732	41.9632	15.1	-4.29106	0
0.8433	138.831	210.027	605.07	-1.14172	-3.20666	7.39206	46.2335	156.738	-5.20795	0
0.8440	58.8459	-67.7077	281.561	0.69195	1.09817	6.47924	35.2487	168.894	-3.08076	0.310643
0.8447	-69.9152	-361.904	103.043	3.11377	4.74411	8.60915	23.9549	136.882	1.5037	-0.931929
0.8453	-128.547	-420.797	49.019	3.42515	5.66657	6.78351	8.99947	246.432	6.08817	-1.86386
0.8460	-70.8436	-452.5	-3.73402	3.11377	7.77506	15.9475	-15.4143	485.692	6.38157	-0.310643
0.8467	6.07027	-421.7	-49.8134	0.69195	10.235	27.2235	-49.2864	760.059	1.79711	0.310643
0.8473	22.21	-252.935	-4.68739	1.28011	12.3874	28.4585	-104.529	879.349	1.17362	-0.310643
0.8480	6.07027	-84.8072	2.06563	5.88157	12.0799	26.615	-134.739	712.116	5.17127	-0.310643
0.8487	-23.8526	127.928	-97.7201	7.71524	6.89652	20.8159	-107.273	395.016	5.17127	0.310643
0.8493	-66.273	194.149	-228.967	7.99202	1.66922	11.6698	-65.7682	57.833	1.79711	0.310643
0.8500	-101.695	-28.039	-361.723	7.99202	-2.89918	4.95787	-29.7516	-177.425	-0.623487	0.310643
0.8507	-108.693	-240.137	-368.715	6.46973	-7.16009	0.0715938	16.9314	-354.473	-1.54038	0
0.8513	-78.1279	-217.833	-218.639	7.09249	-6.23762	-2.98904	75.2266	-652.924	-0.953568	0
0.8520	-39.9923	-110.722	-2.22452	7.99202	-4.12913	-5.11895	141.145	-921.478	-0.953568	0
0.8527	2.99943	20.1796	252.881	6.46973	-3.51415	-6.64032	169.22	-966.929	-2.78735	0
0.8533	77.1995	154.48	527.848	5.25882	-1.05425	-2.98904	109.707	-710.304	-3.99765	0
0.8540	146.758	208.487	769.844	4.04791	2.59169	6.17496	36.7751	-250.056	-4.91454	0
0.8547	159.898	265.255	942.562	3.73653	6.89652	16.2518	27.3074	55.417	-3.99765	-0.310643
0.8553	150.114	311.031	904.11	3.11377	10.235	13.4954	44.0983	183.541	-3.37417	0
0.8560	151.971	354.045	615.716	-1.14172	11.7724	1.89723	37.9925	321.479	-7.95863	0
0.8567	138.831	376.933	400.891	-3.90952	12.3874	1.59296	32.8045	428.01	-11.3328	0
0.8573	120.477	223.462	375.229	-1.45309	11.7724	6.47924	34.64	524.725	-8.58212	0
0.8580	115.335	-1.16829	408.518	1.28011	10.5425	7.69633	13.8878	578.783	-4.62114	0
0.8587	97.6242	-62.8221	416.145	2.21424	12.9584	9.52197	-9.91721	340.732	-3.08076	0
0.8593	60.417	14.3912	147.931	0.69195	15.1109	8.60915	-24.8726	-104.492	-4.62114	-0.310643
0.8600	9.42677	16.2499	-324.224	-0.242182	15.1109	6.47924	-32.8045	-164.666	-5.83144	-0.310643
0.8607	-50.9902	-41.7398	-708.987	1.00333	14.4959	5.56642	-25.4813	208.305	-4.91454	0
0.8613	-105.051	-3.9297	-1027.97	1.90286	11.7724	3.72288	-23.0465	194.866	-4.29106	0
0.8620	-148.043	-54.8565	-1144.83	3.42515	12.0799	4.95787	-28.2345	-355.983	-2.78735	0
0.8627	-186.464	-199.512	-978.154	3.42515	12.9584	5.26214	-31.5871	-544.28	-2.78735	0
0.8633	-192.606	-257.236	-801.782	1.00333	9.92748	0.0715938	-37.3838	-196.376	-5.83144	0
0.8640	-133.974	-375.34	-683.405	-0.55356	6.58904	-2.68477	-32.5048	-128.954	-7.37182	-0.310643
0.8647	-48.2765	-500.718	-563.122	-2.07585	3.51415	-2.68477	-19.9936	-437.447	-8.58212	-0.310643
0.8653	32.6366	-492.487	-550.967	-1.14172	2.89918	-1.1455	-8.39076	-515.892	-7.95863	0
0.8660	88.126	-394.829	-742.911	1.00333	3.51415	0.375867	1.67628	-315.439	-5.20795	0.310643
0.8667	78.0565	-256.599	-929.93	1.59148	3.20666	0.680141	-11.4437	-145.111	-4.91454	0
0.8673	29.8514	-132.707	-764.283	2.52562	5.35908	3.72288	-63.9327	33.7485	-5.20795	-0.310643
0.8680	16.4254	-87.25	-466.117	2.8024	9.3125	7.39206	-117.34	77.0855	-6.12484	0
0.8687	46.0626	-180.607	-340.352	2.21424	13.5734	12.8869	-128.025	-256.172	-7.37182	-0.310643
0.8693	37.7785	-211.46	-211.012	-0.242182	16.0333	19.2945	-108.49	-546.092	-9.79241	0
0.8700	-3.99923	-65.8491	-30.3488	-4.80905	16.6483	22.3552	-85.9117	-497.319	-14.6703	0
0.8707	-3.42792	119.697	154.048	-7.26547	19.9867	26.9193	-84.6849	-341.034	-17.1276	0
0.8713	8.21271	265.255	260.825	-8.78776	21.8317	30.2842	-86.2113	-251.642	-18.3379	-0.310643
0.8720	29.2801	288.143	203.782	-8.47639	19.9867	28.4585	-23.0465	-231.181	-18.3379	0
0.8727	74.7	124.848	221.419	-5.12043	19.3718	23.8765	63.6237	-196.074	-15.0004	-0.310643
0.8733	79.9133	-53.9538	360.929	-3.28676	17.2633	13.4954	113.069	-198.188	-14.0835	-0.310643
0.8740	57.3462	57.4055	331.613	-3.90952	14.1884	3.4186	123.136	-302	-14.0835	-0.310643
0.8747	38.4212	224.949	274.57	-5.12043	11.7724	-1.1455	51.4215	-291.279	-13.1666	-1.86386
0.8753	14.9257	123.626	528.483	-2.97538	11.4649	-0.841227	-31.8961	-39.4865	-10.0858	-1.86386
0.8760	4.21348	62.0256	784.542	-0.83034	12.0799	1.89723	-27.3168	132.578	-6.12484	0.310643
0.8767	4.85621	98.2957	579.409	-5.12043	10.235	2.20151	26.3991	11.778	-9.79241	-0.931929
0.8773	11.5692	-70.7346	189.084	-6.64272	11.1574	3.72288	64.2418	-15.402	-13.1666	-2.1745
0.8780	29.5658	-205.619	38.9291	-4.49767	13.2659	6.17496	33.7223	247.942	-10.4159	-0.621286
0.8787	42.0634	-68.9291	-1.3506	-3.59814	11.7724	7.08778	-28.2345	374.329	-7.04174	0.310643
0.8793	35.636	53.7413	-166.998	0.069195	9.92748	5.56642	-20.2933	208.305	-2.16387	0
0.8800	8.49837	77.5851	-363.868	4.04791	6.58904	-2.68477	30.6694	71.272	2.09052	0
0.8807	-24.781	78.8065	-513.706	7.40386	4.43662	-9.09241	44.707	150.019	3.63089	0.310643
0.8813	-56.2035	-64.0435	-701.122	11.348	3.20666	-8.48386	15.4143	246.734	6.38157	0
0.8820	-98.3383	-178.483	-723.049	14.1158	1.36173	-8.48386	-11.4437	181.427	8.21536	0.310643
0.8827	-127.904	-47.5813	-365.696	16.2608	2.89918	-6.64032	4.72917	113.099	8.83885	0.310643
0.8833	-109.908	101.96	86.2797	15.0153	4.43662	-4.81468	39.21	69.762	6.08817	0
0.8840	-53.4183	123.626	369.747	9.54891	3.82164	-6.33605	51.1125	-88.335	-0.0366757	0
0.8847	-9.21252	180.395	691.429	1.90286	4.12913	-5.11895	41.3545	-283.956	-8.58212	0
0.8853	22.8528	274.123	1158.66	-5.12043	5.97406	2.50578	41.3545	-349.263	-17.1276	0.310643
0.8860	84.4838	273.167	1369.19	-10.8982	12.0799	18.3817	87.1291	-217.138	-22.0054	0.310643
0.8867	147.686	236.579	1064.04	-17.9215	17.8783	35.779	143.579	42.28	-28.4237	0
0.8873	178.466	261.272	619.132	-22.2116	21.2167	42.1866	161.288	382.257	-33.5949	-0.310643
0.8880	175.466	292.126	368.238	-19.7552	24.5551	40.361	163.423	791.165	-30.5509	0
0.8887	124.762	246.934	-196.314	-16.3992	25.4776	39.126	163.723	1028.31	-25.9664	0
0.8893	60.7027	146.833	-1110.04	-12.7319	24.8626	38.5174	151.212	1001.13	-21.0885	-0.310643
0.8900	13.426	32.7121	-1426.16	-11.8323	23.3691	37.9089	115.204	930.009	-18.6313	0
0.8907	-26.9234	-48.1654	-1152.14	-12.4551	21.5242	37.6046	62.7153	707.209	-18.9613	0
0.8913	-27.7804	-72.2747	-820.134	-10.3101	21.5242	38.5174	12.6611	146.923	-16.5041	0
0.8920	15.8541	-81.4086	-528.086	-9.6873	20.6017	36.9961	-52.948	-432.313	-15.2938	0
0.8927	38.9925	-85.0727	-374.832	-8.78776	19.0643	32.1098	-158.844	-692.939	-13.46	0
0.8933	13.426	-53.6351	-153.015	-6.9541	16.6483	22.6594	-237.882	-687.428	-9.79241	0
0.8940	-24.781	27.5079	337.73	-7.26547	11.1574	10.1484	-192.416	-561.645	-10.0858	-0.310643
0.8947	-30.5656	94.0473	750.618	-7.85363	7.46757	0.0715938	-86.5204	-385.881	-11.6262	0
0.8953	-8.56979	64.1497	866.293	-8.78776	7.77506	-4.81468	-55.3921	-214.722	-12.5431	0
0.8960	16.1398	2.81452	831.495	-8.47639	11.1574	-3.29331	-56.3099	-117.629	-11.9196	0
0.8967	16.4254	9.82426	630.096	-6.01996	14.8034	-1.1455	-5.64691	-69.46	-9.49901	0
0.8973	-16.4968	58.6269	295.941	-5.12043	18.4932	-3.90186	7.17335	85.919	-7.66522	0
0.8980	-50.9902	55.9186	65.2262	-5.43181	23.9841	-5.42323	-27.0078	181.729	-6.45492	0
0.8987	-73.5573	-17.365	8.42141	-6.01996	23.9841	-5.42323	-26.3991	-84.409	-5.83144	0
0.8993	-82.7699	-92.7197	-15.6511	-3.59814	18.7568	0.375867	-22.4284	-402.717	-1.87046	0
