MR32 ASCII
Name	KneeFJC2
Frequency	1500
Date	09-09-2015 10:19:19
"Time,s"	"RT TIB.ANT.,uV"	"RT MED. GASTRO,uV"	"RT LAT. GASTRO,uV"	"RT BICEPS FEM.,uV"	"RT VMO,uV"	"RT VLO,uV"	"RT RECTUS FEM.,uV"	"RT SOLEUS,uV"	"RT SEMITEND.,uV"	"Channel 12,uV"
0.0000	-0.151913	-12.1891	-12.9453	46.6288	-0.432271	-2.43258	-0.537256	-22.7393	8.77221	-6833.37
0.0007	0.759564	-17.6812	1.39949	30.156	-1.02173	-3.34875	-1.45059	-18.7702	7.86025	-10533.9
0.0013	1.36722	-24.3899	23.6816	-18.0645	-0.746649	-2.43258	-1.74608	-23.0466	4.19792	-9720.26
0.0020	0.455738	-26.2206	28.2574	-17.4569	-0.117892	-1.2005	-0.537256	-20.2981	3.89394	-9694.54
0.0027	1.36722	-22.872	11.7791	28.0166	0.196487	0.031592	0.993923	-13.2731	4.8059	-9907.04
0.0033	3.49399	-20.4272	-2.87445	24.3541	-0.432271	1.23209	0.698432	-11.7538	2.35952	-9790.02
0.0040	3.79782	-5.46889	-9.58378	-28.1365	-1.33611	1.54801	0.0805883	-7.17005	-0.694829	-9810.92
0.0047	3.19017	20.462	-8.97322	-86.1208	-1.02173	3.06442	0.698432	-5.03611	-2.82274	-9816.71
0.0053	1.97487	23.2196	-3.1763	-111.45	-0.432271	4.89676	1.61177	-14.801	-4.05317	-9818.31
0.0060	-0.455738	3.68455	3.84174	-84.5891	-0.117892	3.69626	1.90726	-25.4878	-2.21477	-9791.95
0.0067	-0.455738	-8.21492	7.50512	-42.7866	-0.117892	0.31592	0.993923	-25.4878	-0.694829	-9846.28
0.0073	1.67104	-11.8763	7.19641	-16.8408	-0.117892	-1.80074	-1.45059	-19.0775	-1.3028	-9868.79
0.0080	2.27869	-14.3211	7.80697	-6.76884	-0.117892	-1.2005	-1.74608	-15.7144	-1.3028	-9529.95
0.0087	1.36722	-13.1045	11.1685	-7.99253	0.471568	0.31592	0.0805883	-15.1083	-0.998816	-10344.9
0.0093	1.36722	-13.1045	15.4424	-2.49874	1.10033	-0.284328	1.31628	-9.00524	-0.998816	-9300.09
0.0100	2.58252	-10.961	13.0002	17.3371	0.785947	-2.71691	0.993923	0.452396	-0.072378	-2978.51
0.0107	3.19017	12.5367	-0.432196	29.2403	0.196487	-3.63308	-0.832746	5.94944	-0.694829	108.339
0.0113	2.58252	47.6326	-10.5031	27.4091	0.196487	-1.80074	-0.537256	8.69796	-1.91078	-96.1225
0.0120	2.58252	54.6426	-10.8049	27.4091	1.10033	0.031592	0.993923	12.0525	-1.3028	-120.876
0.0127	0.759564	29.0129	-8.0608	32.9029	1.10033	-0.284328	0.993923	10.8319	-0.694829	90.6573
0.0133	-1.36722	2.76921	-8.36265	32.5948	1.10033	-2.43258	-0.537256	0.452396	-1.91078	-26.3613
0.0140	-1.67104	-4.55355	-11.1136	17.6452	-0.117892	-3.34875	-2.65942	-12.0525	-3.12673	-5.14368
0.0147	-0.455738	-1.50626	-13.2472	5.12583	-1.02173	-1.80074	-2.04157	-12.9744	-1.3028	0.64296
0.0153	-0.151913	0.324426	-12.3347	11.8433	-0.117892	-0.600248	0.402942	-4.12278	1.14357	-0.64296
0.0160	-0.151913	1.54102	-8.36265	33.2024	0.471568	0.031592	0.402942	-1.37426	0.839585	-0.64296
0.0167	0.455738	0.938517	-6.22911	52.7387	-0.117892	-0.600248	-1.12824	-7.17005	0.839585	-0.64296
0.0173	0.759564	-2.42161	-6.83968	3.29457	-1.65049	-2.11666	-2.65942	-8.69796	2.66351	-0.32148
0.0180	0.455738	0.938517	-5.9204	-86.7284	-2.23995	-0.600248	-1.45059	-3.81549	3.27148	-0.32148
0.0187	0.759564	16.8006	-2.87445	-70.8631	-0.746649	2.46418	1.31628	1.67301	3.89394	-0.32148
0.0193	1.36722	34.505	-1.95517	17.6452	0.471568	2.46418	1.90726	2.89363	5.41387	-0.32148
0.0200	1.06339	34.2037	-3.47815	66.7727	0.196487	-0.284328	0.402942	-1.98884	6.02185	-0.32148
0.0207	1.06339	16.1981	-4.08871	85.3934	-0.432271	-2.71691	-1.45059	-9.61128	5.10989	-0.32148
0.0213	0.759564	4.90115	-2.26388	95.4568	0.196487	-3.03283	-0.832746	-12.0525	4.50191	-0.32148
0.0220	-1.06339	6.12933	0.178367	107.668	1.10033	-1.51642	0.993923	-10.2259	4.50191	-0.32148
0.0227	-1.67104	9.47787	0.487078	114.685	0.785947	-1.80074	1.31628	-6.56401	4.50191	-0.32148
0.0233	-1.06339	11.0073	-2.87445	100.035	0.785947	-2.43258	0.0805883	-2.59488	2.9675	-0.32148
0.0240	-1.06339	9.47787	-6.83968	98.2037	0.471568	-3.63308	-2.04157	0.153644	1.44756	-0.32148
0.0247	-1.36722	8.87536	-8.97322	100.651	0.471568	-3.34875	-1.74608	9.304	1.75155	-0.32148
0.0253	-2.27869	10.092	-16.6018	48.1606	0.196487	0.031592	1.61177	19.9908	-0.390841	-0.64296
0.0260	-3.49399	13.4521	-30.9466	-63.5381	-0.432271	2.7801	3.14295	15.7144	-5.5731	-0.64296
0.0267	-3.49399	13.7533	-39.1858	-195.68	-0.746649	2.7801	1.31628	-0.76822	-10.1474	-0.32148
0.0273	-3.79782	3.37171	-43.151	-220.702	-1.33611	0.63184	-1.12824	-20.6054	-12.2898	-0.32148
0.0280	-2.88634	-3.33695	-44.3721	-94.0535	-0.432271	0.031592	-0.214902	-33.4176	-8.62746	-0.32148
0.0287	-1.67104	0.938517	-25.1497	-5.5537	0.471568	1.23209	1.90726	-20.6054	-2.21477	-0.32148
0.0293	-0.759564	3.37171	5.67343	-48.2804	-0.117892	1.23209	2.22961	26.3926	-0.694829	-0.32148
0.0300	0.759564	0.938517	21.2394	-119.075	-1.02173	0.63184	0.698432	71.8712	-4.96513	-0.32148
0.0307	2.58252	-1.80751	34.0543	-127.932	-1.65049	-0.884576	-1.45059	65.4609	-6.48507	-0.32148
0.0313	1.36722	-1.50626	55.1153	-93.1378	-1.02173	0.031592	-0.832746	30.9763	-2.21477	0
0.0320	-0.455738	0.625678	52.9749	-61.7068	-0.432271	1.86393	1.31628	13.5804	1.44756	0
0.0327	-0.455738	2.76921	31.3102	-44.0017	-0.746649	1.86393	1.61177	9.304	1.75155	-0.32148
0.0333	0.151913	4.59989	17.8778	-37.2928	-0.746649	0.31592	0.0805883	5.64215	1.14357	-0.32148
0.0340	1.06339	1.54102	10.5579	-30.8834	-1.02173	-2.43258	-1.74608	3.81549	0.23161	-0.32148
0.0347	1.36722	-3.6382	7.50512	-26.3052	-1.02173	-2.43258	-1.12824	7.47734	0.535597	-0.32148
0.0353	0.455738	-5.78173	8.41754	-34.2378	-0.117892	0.031592	1.31628	9.91857	0.535597	-0.964439
0.0360	-0.151913	-5.46889	8.41754	-35.4615	0.196487	0.94776	2.22961	7.47734	-0.072378	-0.64296
0.0367	-0.151913	-3.6382	2.62062	-20.8114	-0.746649	0.031592	0.698432	4.11424	-0.390841	-0.32148
0.0373	-0.151913	-2.42161	-15.9913	-10.7394	-1.02173	-1.80074	-2.04157	3.5082	-1.3028	-0.32148
0.0380	-1.36722	-2.42161	-37.3541	-5.5537	-0.432271	-1.51642	-1.74608	2.28759	-1.3028	-0.32148
0.0387	-1.97487	-1.80751	-46.2038	1.16379	0.785947	0.31592	1.31628	2.59488	-0.998816	-0.32148
0.0393	-1.36722	0.0231733	-45.5933	8.18079	1.4147	0.31592	1.90726	9.61128	-0.694829	-0.32148
0.0400	-0.455738	0.938517	-42.8492	13.3665	0.785947	-1.80074	-0.214902	15.1083	-1.3028	-0.32148
0.0407	-0.151913	0.938517	-37.9647	0.855731	-0.432271	-2.71691	-2.36392	14.801	-2.82274	-0.32148
0.0413	-1.36722	3.68455	-15.9913	-23.5583	-0.117892	-1.51642	-1.74608	13.2731	-2.51875	0
0.0420	-1.97487	4.59989	29.4785	-24.4739	0.471568	-0.884576	0.402942	10.2173	-0.390841	-0.32148
0.0427	-1.36722	-2.72286	64.2669	-8.6001	0.196487	0.031592	1.31628	8.99671	1.14357	-0.32148
0.0433	0.151913	-9.74436	70.0638	-2.49874	-0.746649	-0.284328	0.402942	8.08338	1.44756	-0.32148
0.0440	2.58252	-7.91367	58.1613	-3.41437	-1.33611	-2.43258	-1.74608	2.28759	1.44756	-0.32148
0.0447	3.49399	-3.0357	37.409	-3.11486	-0.746649	-2.43258	-1.74608	-5.65068	1.44756	-0.32148
0.0453	1.97487	0.938517	22.1518	-0.975534	0.196487	-0.600248	0.402942	-9.00524	1.75155	-0.32148
0.0460	0.759564	1.23977	14.8319	2.37893	0.471568	-0.284328	1.61177	-6.25672	2.66351	-0.32148
0.0467	0.759564	-7.91367	8.41754	5.4339	-0.117892	-1.51642	0.402942	-3.5082	2.05553	0
0.0473	0.759564	-17.9825	3.53989	8.18079	-0.746649	-3.03283	-1.74608	-1.98884	-0.072378	-0.32148
0.0480	0.455738	-18.2953	2.31877	12.1514	-0.117892	-2.43258	-1.45059	2.28759	0.23161	-0.32148
0.0487	-0.151913	-15.8505	1.39949	16.7296	0.471568	-0.884576	0.993923	4.42153	0.535597	-0.32148
0.0493	-0.759564	-16.4646	-3.78686	22.5229	0.471568	-0.284328	1.61177	1.37426	0.535597	-0.32148
0.0500	-0.455738	-14.9352	-14.1596	26.793	-0.432271	-1.51642	0.0805883	-1.68155	-0.072378	-0.32148
0.0507	-0.151913	-12.7916	-22.4056	25.5778	-1.02173	-2.71691	-1.74608	-3.81549	-0.998816	-0.32148
0.0513	-0.151913	-11.8763	-14.1596	21.9153	-0.117892	-2.43258	-1.45059	-7.17005	-0.390841	-0.32148
0.0520	-0.759564	-20.126	4.76102	19.1684	0.785947	-0.884576	0.993923	-10.5331	1.44756	-0.32148
0.0527	-1.67104	-36.3009	12.6915	17.6452	1.10033	-0.600248	1.61177	-11.4465	2.05553	-0.32148
0.0533	-1.97487	-18.8978	8.11568	17.6452	0.785947	-2.11666	0.0805883	-10.2259	1.14357	-0.32148
0.0540	-1.06339	29.627	0.487078	17.0291	-0.117892	-3.34875	-1.74608	-9.00524	-0.072378	0
0.0547	-1.06339	48.8492	1.09764	12.1514	-0.117892	-2.11666	-2.04157	-8.09192	-0.998816	-0.32148
0.0553	-1.67104	30.5424	16.6636	5.4339	0.471568	0.31592	0.698432	-5.03611	-1.3028	-0.32148
0.0560	-2.58252	8.87536	24.9027	-0.0599012	0.196487	1.23209	1.31628	16.935	-1.60679	-0.32148
0.0567	-2.88634	1.85386	16.3549	-0.0599012	-0.746649	0.31592	-0.214902	48.3722	-1.3028	0
0.0573	-2.58252	2.76921	8.41754	7.57322	-1.02173	-1.51642	-2.04157	44.0958	-0.998816	-0.32148
0.0580	-2.58252	0.938517	2.31877	12.4509	-0.117892	-1.80074	-1.74608	21.5102	-0.072378	-0.32148
0.0587	-2.88634	-3.95104	-1.04276	11.5353	0.471568	-0.284328	0.402942	16.6277	0.535597	-0.32148
0.0593	-2.27869	-4.55355	3.23118	11.2358	0.785947	0.31592	1.31628	7.47734	0.839585	0
0.0600	0.455738	-0.892171	-0.432196	10.9277	0.196487	-0.284328	0.402942	-12.0525	0.23161	0
0.0607	1.97487	-4.86639	-13.549	10.0121	-0.746649	-1.80074	-1.45059	-16.935	-0.998816	-0.32148
0.0613	1.97487	-12.4904	-18.4335	10.0121	-0.432271	-1.80074	-1.45059	-8.39067	-0.694829	-0.32148
0.0620	1.97487	-12.1891	-16.3	10.9277	-0.117892	-0.284328	0.0805883	3.81549	0.23161	-0.32148
0.0627	2.27869	-9.13027	-13.8577	10.9277	0.196487	0.031592	0.698432	20.9041	0.535597	-0.32148
0.0633	0.759564	-13.4057	-8.36265	9.40449	0.471568	-0.600248	-0.214902	41.3473	0.839585	-0.32148
0.0640	-0.455738	-22.2579	-4.08871	6.04146	0.196487	-1.51642	-1.12824	59.6565	0.839585	0
0.0647	-0.455738	-22.5592	-6.83968	3.60263	-0.117892	-2.11666	-1.12824	67.9021	1.14357	0
0.0653	-0.455738	-0.892171	-9.89249	4.2102	0.196487	-1.80074	0.402942	56.6093	1.75155	-0.32148
0.0660	0.455738	29.0129	-10.8049	3.60263	0.471568	-1.2005	1.31628	32.4957	2.05553	-0.64296
0.0667	0.455738	36.0344	-4.08871	1.4633	0.785947	-2.11666	-0.537256	4.72882	1.44756	-0.32148
0.0673	-0.455738	23.5209	8.72625	0.855731	0.196487	-3.949	-2.36392	-27.0072	0.535597	-0.32148
0.0680	-0.151913	11.3086	12.3896	1.77136	-0.432271	-3.03283	-1.74608	-44.0958	0.535597	-0.32148
0.0687	0.455738	6.43058	13.0002	3.29457	0.196487	-1.51642	0.698432	-31.8897	1.14357	-0.32148
0.0693	0.455738	6.43058	14.5232	8.18079	0.785947	-0.884576	1.90726	-16.3289	1.44756	0
0.0700	-0.455738	3.9858	1.7082	16.4215	0.471568	-1.51642	1.31628	-22.1247	1.14357	0
0.0707	-0.455738	-1.50626	-18.4335	25.8773	-0.432271	-2.71691	-1.12824	-36.7721	0.535597	-0.32148
0.0713	1.97487	-2.12035	-38.5752	38.0886	-0.432271	-2.11666	-1.45059	-34.9455	-0.072378	-0.32148
0.0720	3.79782	1.23977	-57.8045	45.7132	-0.117892	0.031592	1.31628	-26.7084	0.535597	0
0.0727	2.88634	2.45637	-31.2553	40.2279	0.196487	0.31592	1.61177	-33.7249	1.44756	0
0.0733	1.06339	3.37171	45.655	38.6962	0.196487	-0.600248	-0.214902	-45.6237	0.839585	0
0.0740	0.151913	6.12933	81.6645	50.5994	-0.746649	-1.80074	-1.74608	-45.0177	0.535597	-0.32148
0.0747	1.06339	8.87536	52.6731	58.532	-0.746649	-1.2005	-1.45059	-23.9599	-0.072378	-0.32148
0.0753	2.58252	11.9226	29.1698	51.8231	0.471568	0.031592	1.31628	5.94944	-0.390841	-0.32148
0.0760	3.19017	12.838	23.9835	47.5444	1.10033	-0.600248	1.61177	17.2423	-0.072378	-0.32148
0.0767	2.88634	8.87536	16.6636	52.1226	0.785947	-2.43258	-0.214902	16.6277	0.839585	-0.32148
0.0773	1.97487	3.07046	13.6108	20.9997	-0.432271	-3.34875	-2.04157	12.0525	-1.3028	0
0.0780	1.36722	0.625678	17.576	-44.6178	-0.746649	-1.2005	-1.12824	-4.43007	-4.96513	0
0.0787	1.67104	0.324426	15.7443	-65.6688	0.471568	0.63184	0.993923	-17.2423	-4.96513	0
0.0793	0.759564	-6.69707	6.284	-31.1829	0.785947	-0.284328	0.993923	-16.935	-2.51875	-0.32148
0.0800	-1.06339	-14.3211	0.178367	2.99506	0.785947	-2.11666	-0.214902	-11.7538	-0.072378	-0.32148
0.0807	-1.97487	-14.3211	-1.95517	11.5353	-0.117892	-2.71691	-1.74608	-9.00524	-0.694829	-0.32148
0.0813	-2.58252	-10.3584	0.78893	10.9277	-0.746649	-0.284328	-1.12824	-10.8319	-2.51875	-0.32148
0.0820	-3.49399	-6.99833	5.37158	20.3835	-0.432271	2.14826	1.90726	-13.2731	-1.3028	-0.32148
0.0827	-2.58252	-3.6382	3.84174	35.3417	-0.117892	1.86393	2.82059	-12.9744	1.44756	0
0.0833	0.151913	0.625678	-2.56574	33.2024	-0.117892	0.63184	0.698432	-10.8319	2.05553	-0.32148
0.0840	1.06339	3.07046	-6.22911	6.9571	-1.02173	-0.600248	-1.12824	-10.2259	-0.998816	0
0.0847	-0.151913	2.45637	-2.87445	-0.975534	-0.746649	-1.2005	-0.537256	-10.5331	-0.998816	-0.32148
0.0853	-1.97487	0.625678	-0.734048	22.5229	0.196487	-0.600248	0.993923	-11.1392	2.9675	-0.32148
0.0860	-3.79782	-0.289666	-4.69928	33.5104	0.471568	0.31592	0.993923	-13.2731	5.10989	-0.32148
0.0867	-3.79782	0.0231733	-9.89249	17.9447	-0.746649	0.031592	0.0805883	-11.4465	2.9675	0
0.0873	-0.759564	-1.20501	-12.3347	-14.0939	-1.33611	-1.51642	-1.74608	-0.460932	-0.694829	0
0.0880	1.06339	-3.0357	-7.45024	-47.0567	-0.432271	-1.2005	-0.537256	12.0525	-1.91078	-0.32148
0.0887	0.151913	-2.72286	-0.734048	-56.5125	-0.117892	0.63184	1.31628	14.801	-0.998816	-0.32148
0.0893	-0.151913	-0.590918	4.45231	-45.5335	-0.117892	2.14826	1.31628	12.0525	0.23161	-0.32148
0.0900	-0.759564	0.625678	4.45231	-45.5335	0.196487	1.23209	0.0805883	6.86276	-0.390841	-0.32148
0.0907	-2.27869	-2.12035	-1.95517	-58.3438	-0.117892	-1.2005	-1.45059	-5.94944	-1.60679	-0.32148
0.0913	-3.49399	-5.16764	-1.04276	-43.3941	-0.117892	-1.80074	-0.832746	-13.8877	-0.072378	0
0.0920	-3.49399	-6.38423	4.15046	-11.347	0.785947	-1.2005	0.402942	-6.25672	2.05553	0
0.0927	-2.27869	-4.55355	-4.39742	6.04146	1.10033	-0.600248	0.698432	4.72882	2.35952	-0.32148
0.0933	-1.67104	-2.72286	-20.2652	15.5059	0.196487	-1.51642	0.0805883	10.8319	1.75155	-0.32148
0.0940	-0.455738	-0.590918	-31.8659	9.40449	-0.746649	-1.80074	-1.12824	17.8483	-0.072378	-0.32148
0.0947	0.759564	4.90115	-34.9118	5.4339	-1.02173	0.31592	-0.537256	22.7308	-1.3028	-0.32148
0.0953	0.151913	7.04467	-33.6907	24.0461	-0.746649	1.54801	0.698432	21.8174	-0.072378	-0.32148
0.0960	-0.455738	-0.590918	-25.1497	27.7086	-0.432271	1.54801	1.31628	38.9061	-0.072378	-0.64296
0.0967	0.759564	-9.74436	-1.65332	-4.93757	-0.746649	0.63184	0.0805883	81.0216	-2.21477	-0.32148
0.0973	2.88634	-10.0456	12.3896	-40.3392	-1.65049	-1.2005	-2.04157	90.1805	-4.66114	0
0.0980	4.10164	-5.46889	6.284	-40.6472	-1.02173	-1.51642	-1.45059	32.1969	-4.96513	-0.32148
0.0987	3.79782	-3.95104	2.01006	-22.6427	0.471568	-0.884576	-0.214902	-19.0775	-3.7347	-0.32148
0.0993	3.19017	-4.25229	4.45231	-19.8958	1.10033	-0.600248	-0.214902	-11.7538	-4.66114	-0.32148
0.1000	3.19017	-2.12035	5.67343	-26.9128	0.471568	-1.51642	-1.12824	10.8319	-6.18108	0
0.1007	2.88634	0.0231733	4.45231	-25.3896	-0.117892	-3.03283	-2.36392	19.3762	-5.5731	-0.32148
0.1013	1.67104	2.45637	3.23118	-13.4863	0.196487	-2.43258	-1.74608	4.42153	-3.12673	-0.32148
0.1020	0.151913	4.59989	5.06287	-7.0769	0.785947	-0.600248	0.402942	-41.3558	-2.21477	0
0.1027	-0.759564	3.07046	6.284	-27.5289	0.785947	-0.600248	1.31628	-79.5022	-3.12673	0
0.1033	0.455738	1.23977	3.23118	-54.3817	0.471568	-1.80074	0.698432	-75.2258	-5.26912	0
0.1040	2.58252	2.45637	-2.26388	-41.8709	0.196487	-3.03283	-1.45059	-48.9783	-4.35715	0
0.1047	2.88634	1.23977	-7.14153	-5.8532	-0.117892	-2.71691	-1.45059	-20.2981	1.44756	0
0.1053	2.27869	-4.86639	-8.67136	20.084	0.471568	-0.284328	0.698432	13.2731	6.02185	0
0.1060	2.88634	-7.61242	-7.45024	43.8905	-0.117892	1.54801	1.31628	36.4648	7.25227	0
0.1067	3.19017	-3.95104	-6.53096	57.3169	-1.65049	0.94776	0.402942	34.6382	7.55626	0
0.1073	1.67104	-2.42161	-8.0608	44.498	-2.55433	-0.284328	-1.12824	27.0072	5.71786	-0.32148
0.1080	0.151913	-3.0357	-8.97322	10.0121	-1.65049	1.23209	-1.12824	31.5824	2.35952	0
0.1087	-0.759564	0.938517	-8.0608	-24.782	-0.117892	3.06442	1.31628	27.9205	-0.072378	0
0.1093	-1.67104	4.90115	-8.67136	-31.799	-0.432271	2.14826	1.61177	-6.8713	-0.072378	-0.32148
0.1100	-1.67104	1.85386	-9.58378	-20.5033	-0.117892	0.63184	0.0805883	-47.7577	0.535597	-0.32148
0.1107	-1.06339	-8.82901	-11.7242	-7.68447	-0.117892	-0.884576	-1.12824	-57.5311	0.535597	0
0.1113	-1.06339	-14.3211	-13.2472	5.12583	-0.432271	-0.884576	-1.12824	-40.7413	0.535597	-0.32148
0.1120	-2.58252	-9.44311	-10.5031	-12.8788	-0.117892	0.63184	1.31628	-20.9041	0.839585	-0.32148
0.1127	-3.79782	-4.55355	-10.1943	-55.2974	0.471568	1.54801	1.90726	-4.43007	0.535597	-0.32148
0.1133	-3.49399	-2.42161	-15.3807	-58.0443	0.196487	0.63184	0.402942	12.0525	-0.072378	0
0.1140	-3.19017	-1.50626	-12.9453	-28.4445	-1.02173	-1.80074	-1.74608	25.172	-0.694829	0
0.1147	-4.10164	0.324426	3.23118	-11.347	-0.432271	-2.11666	-1.74608	27.0072	-0.694829	-0.32148
0.1153	-3.49399	2.15511	14.8319	-5.8532	0.785947	-0.284328	0.698432	13.2731	0.23161	-0.32148
0.1160	-1.97487	0.625678	17.576	-3.41437	1.10033	0.94776	1.61177	-12.3598	0.535597	0
0.1167	-0.151913	-2.72286	17.8778	-0.367965	-0.117892	0.31592	0.0805883	-27.3145	-0.390841	0
0.1173	1.97487	-4.86639	10.8598	2.99506	-1.65049	-0.884576	-2.04157	-23.0466	-0.694829	-0.32148
0.1180	1.67104	-3.95104	3.84174	3.29457	-1.02173	0.031592	-1.45059	-13.2731	0.535597	0
0.1187	0.151913	-1.80751	5.67343	1.16379	-0.117892	1.54801	1.61177	-4.43007	1.14357	0
0.1193	1.67104	-0.289666	7.80697	1.4633	0.471568	0.94776	1.61177	1.9803	0.535597	-0.32148
0.1200	3.49399	0.0231733	5.98214	3.29457	0.785947	-1.51642	-0.214902	3.5082	0.23161	-0.32148
0.1207	4.10164	-0.590918	4.76102	1.16379	-0.117892	-3.34875	-1.45059	9.304	-0.072378	-0.32148
0.1213	3.49399	-0.289666	7.50512	0.855731	-0.117892	-3.03283	-0.832746	12.0525	0.535597	-0.32148
0.1220	2.88634	0.625678	8.72625	9.70399	0.785947	-1.80074	1.31628	-1.37426	2.35952	-0.32148
0.1227	2.27869	1.54102	3.53989	18.8603	0.785947	-1.2005	1.90726	-9.91857	2.9675	-0.32148
0.1233	1.67104	-0.590918	-7.45024	22.2148	-0.117892	-2.71691	0.402942	-3.81549	1.14357	-0.32148
0.1240	1.36722	-6.99833	-16.9105	23.1304	-0.746649	-4.86517	-2.04157	0.153644	-0.998816	0
0.1247	1.06339	-8.21492	-15.3807	24.3541	-0.117892	-4.54925	-2.04157	2.89363	-1.60679	0
0.1253	0.455738	-5.16764	-7.14153	24.0461	0.196487	-2.43258	-0.537256	7.77609	-1.3028	-0.64296
0.1260	0.759564	-4.25229	0.487078	21.6072	0.471568	-1.2005	0.993923	9.304	-0.390841	-0.64296
0.1267	0.759564	-3.0357	6.59271	18.2528	0.196487	-1.51642	0.993923	1.9803	-0.998816	-0.32148
0.1273	-0.455738	0.324426	5.98214	18.8603	-1.02173	-3.34875	-1.12824	-9.61128	-2.21477	0
0.1280	-1.36722	3.07046	-0.432196	25.5778	-0.746649	-3.63308	-1.74608	-12.9744	-1.91078	-0.32148
0.1287	-1.67104	3.37171	-6.83968	32.5948	0.471568	-2.71691	-0.214902	-14.4937	-0.072378	-0.32148
0.1293	-1.97487	4.90115	-14.4683	31.9872	1.10033	-1.80074	0.698432	-22.1247	1.75155	0.32148
0.1300	-2.27869	5.21398	-23.0093	18.2528	-0.117892	-1.51642	0.0805883	-28.8424	2.05553	0
0.1307	-2.88634	2.45637	-25.7603	-14.0939	-1.02173	-1.80074	-0.832746	-26.7084	0.535597	-0.64296
0.1313	-2.88634	0.324426	-25.4516	-45.833	-0.746649	0.63184	0.0805883	-10.8319	0.535597	-0.32148
0.1320	-3.49399	-1.80751	-25.7603	-35.4615	-0.117892	2.14826	1.90726	3.5082	2.35952	-0.32148
0.1327	-3.19017	-4.86639	-14.1596	3.91069	-0.117892	0.63184	1.61177	-0.76822	2.05553	-0.32148
0.1333	-1.36722	-6.38423	3.53989	22.8309	-0.117892	-1.2005	0.0805883	-8.39067	0.23161	-0.32148
0.1340	-0.151913	-5.16764	9.33681	26.4934	-0.117892	-2.71691	-1.74608	-4.72882	0.23161	-0.964439
0.1347	0.151913	-1.80751	9.63866	18.5608	-0.117892	-2.71691	-1.12824	4.72882	0.839585	-0.32148
0.1353	-0.151913	2.76921	13.0002	-13.1783	1.10033	-0.884576	0.698432	12.0525	0.23161	0
0.1360	-0.759564	4.90115	21.2394	-14.0939	1.4147	-0.884576	1.31628	12.0525	1.14357	-0.32148
0.1367	-0.455738	4.90115	28.5592	24.0461	0.471568	-3.63308	-0.832746	5.64215	4.8059	-0.32148
0.1373	-0.455738	4.59989	23.071	38.0886	-0.432271	-5.46542	-2.36392	-0.460932	6.02185	-0.32148
0.1380	-1.36722	6.43058	11.7791	34.118	-0.432271	-4.86517	-1.74608	1.06697	4.8059	-0.32148
0.1387	-1.67104	8.26127	6.59271	36.2573	0.785947	-2.43258	0.0805883	7.47734	3.58995	-0.32148
0.1393	-1.06339	7.34593	3.84174	40.8355	1.4147	-1.51642	0.698432	8.69796	2.9675	0
0.1400	0.151913	6.43058	-0.734048	42.0592	0.785947	-2.43258	0.0805883	7.77609	1.44756	0
0.1407	1.36722	5.81649	-7.45024	34.7341	-0.117892	-2.71691	-1.12824	8.69796	-0.390841	0
0.1413	1.97487	3.9858	-9.28193	37.481	-0.746649	-0.284328	-0.537256	1.37426	-0.998816	0
0.1420	0.455738	3.9858	-4.08871	60.3633	-0.117892	2.7801	1.90726	-12.0525	-3.43072	0
0.1427	0.759564	6.12933	0.178367	70.4353	0.471568	3.06442	2.82059	-12.9744	-5.26912	-0.32148
0.1433	1.67104	7.96002	7.80697	24.0461	-0.117892	1.86393	0.993923	-4.43007	-3.43072	0
0.1440	0.151913	9.47787	12.6915	-44.9173	-1.33611	0.31592	-1.45059	1.06697	-4.05317	-0.32148
0.1447	-0.455738	11.9226	5.37158	-61.7068	-1.33611	-0.600248	-2.04157	5.03611	-7.09304	-0.32148
0.1453	-0.151913	6.12933	-3.1763	-34.8454	-0.117892	0.31592	-0.537256	9.91857	-6.78905	0
0.1460	0.151913	-8.21492	-6.22911	-5.5537	0.471568	0.63184	0.993923	14.1865	-4.35715	0
0.1467	2.27869	-7.61242	-7.14153	-22.6427	0.471568	0.31592	0.402942	18.4629	-3.43072	-0.32148
0.1473	4.10164	3.07046	-7.14153	-95.8847	-0.746649	0.31592	-1.45059	19.0689	-5.26912	-0.32148
0.1480	3.19017	5.51524	-5.00799	-119.075	-1.02173	0.31592	-1.74608	13.2731	-5.5731	-0.32148
0.1487	2.58252	5.51524	-1.04276	-79.7114	0.196487	0.94776	0.0805883	-0.153644	-3.12673	-0.32148
0.1493	2.27869	0.938517	-1.04276	-57.1286	0.196487	0.94776	0.993923	-12.9744	-1.60679	0
0.1500	0.759564	-9.13027	-9.58378	-46.141	-0.432271	0.63184	0.993923	-17.5496	-0.998816	0
0.1507	-0.151913	-12.1891	-22.0969	-33.0141	-1.33611	-0.600248	-0.832746	-18.4629	-0.390841	-0.32148
0.1513	-0.151913	-6.38423	-27.2832	-26.9128	-1.33611	-0.884576	-2.04157	-13.5804	0.23161	-0.32148
0.1520	-0.759564	-0.590918	-24.841	-25.9971	-0.432271	0.63184	-0.214902	-4.12278	1.14357	-0.32148
0.1527	-2.27869	0.324426	-15.3807	-22.6427	-0.432271	1.54801	1.31628	0.153644	2.05553	-0.32148
0.1533	-1.67104	-1.20501	-1.65332	-16.2332	-1.02173	0.94776	0.402942	-0.460932	1.75155	-0.32148
0.1540	-0.759564	-2.42161	12.6915	-12.8788	-1.33611	-0.600248	-1.74608	1.06697	0.23161	-0.32148
0.1547	-0.759564	-7.91367	30.6996	-11.0475	-1.33611	-0.600248	-1.74608	-0.153644	-0.072378	-0.32148
0.1553	-0.151913	-13.4057	36.1947	-7.99253	-0.432271	0.31592	-0.214902	-7.17005	0.839585	0
0.1560	0.151913	-10.961	16.9654	-9.21623	-0.117892	0.63184	0.698432	-10.2259	0.535597	-0.32148
0.1567	0.455738	-3.0357	-10.1943	-11.6551	-0.117892	-0.284328	0.698432	-11.7538	-0.694829	-0.964439
0.1573	1.67104	-0.289666	-28.8131	-5.5537	-0.746649	-1.80074	-0.832746	-17.5496	-0.072378	-0.32148
0.1580	1.67104	-4.25229	-33.6907	1.16379	-0.746649	-1.80074	-0.832746	-19.3847	1.44756	-0.32148
0.1587	1.06339	-12.1891	-29.1149	1.16379	0.471568	0.031592	0.698432	-3.81549	1.14357	-0.32148
0.1593	1.67104	-19.2106	-24.2304	1.16379	0.471568	0.31592	0.698432	41.3473	0.839585	-0.32148
0.1600	2.58252	-16.7659	-23.6199	1.4633	-0.432271	-0.884576	0.402942	82.8568	0.839585	0
0.1607	2.58252	-9.74436	-23.0093	1.16379	-0.746649	-2.11666	-0.537256	73.6979	-0.390841	-0.32148
0.1613	1.36722	-4.86639	-5.30984	2.687	-0.117892	-1.80074	-1.45059	41.9619	-0.998816	-0.32148
0.1620	-0.151913	-2.12035	23.6816	3.60263	0.471568	-0.884576	-0.214902	32.1969	0.23161	-0.32148
0.1627	-0.759564	-1.50626	33.4438	5.4339	0.785947	-0.600248	0.993923	29.7557	1.14357	-0.32148
0.1633	-1.36722	2.76921	24.9027	10.9277	0.471568	-1.2005	0.402942	13.5804	0.535597	0
0.1640	-2.27869	9.17661	19.099	17.3371	-0.117892	-2.43258	-1.74608	-13.2731	-0.390841	-0.32148
0.1647	-2.27869	11.3086	15.7443	21.2992	-0.117892	-2.71691	-1.74608	-35.5515	-0.072378	-0.32148
0.1653	-2.88634	12.838	11.7791	20.9997	0.471568	-1.51642	0.402942	-43.7971	1.44756	-0.32148
0.1660	-3.79782	13.1392	10.2492	19.776	0.785947	-0.284328	0.698432	-44.7104	1.44756	-0.32148
0.1667	-3.19017	7.96002	8.72625	18.2528	0.196487	-0.884576	-0.537256	-36.4734	1.14357	-0.32148
0.1673	-1.06339	5.21398	6.89456	13.9827	-0.432271	-2.71691	-1.74608	-15.1083	-0.072378	0
0.1680	-0.759564	9.79071	1.7082	11.8433	0.196487	-2.43258	-1.74608	4.72882	-0.390841	0
0.1687	-1.97487	11.6214	-8.67136	13.6746	0.471568	-0.284328	-0.214902	18.7702	1.14357	0
0.1693	-2.27869	7.96002	-16.6018	12.4509	0.471568	0.031592	1.31628	30.3618	2.35952	-0.32148
0.1700	-1.97487	7.04467	-19.9633	-5.24563	-0.117892	-1.2005	1.31628	36.1575	1.44756	-0.32148
0.1707	-1.67104	8.87536	-21.795	-36.3771	-1.33611	-1.80074	-1.12824	38.3	-1.91078	-0.32148
0.1713	-0.151913	4.59989	-22.7075	-44.6178	-1.02173	-1.2005	-1.74608	41.9619	-2.82274	-0.32148
0.1720	2.27869	-5.78173	-15.0788	-22.3346	0.196487	0.31592	0.698432	38.9061	-0.390841	-0.32148
0.1727	3.49399	-11.2738	1.7082	-2.49874	0.196487	0.94776	1.90726	29.4484	0.23161	0
0.1733	2.27869	-9.13027	9.0281	10.9277	-0.432271	-0.600248	0.402942	22.1247	-0.072378	0
0.1740	0.759564	-4.86639	19.7095	24.9617	-0.432271	-2.11666	-1.12824	-6.8713	-0.998816	0
0.1747	-0.759564	-0.289666	33.1419	30.7635	-0.117892	-2.11666	-0.832746	-51.4281	-0.998816	-0.32148
0.1753	-2.88634	2.45637	25.8151	29.2403	0.196487	-0.884576	0.993923	-60.2711	0.23161	-0.32148
0.1760	-2.27869	-1.50626	21.2394	29.5399	0.471568	-0.600248	1.31628	-42.8752	1.14357	-0.32148
0.1767	0.151913	-5.16764	22.4605	33.5104	-0.117892	-1.2005	-0.214902	-30.9763	1.14357	0
0.1773	1.36722	-3.33695	4.76102	35.3417	-0.746649	-2.43258	-1.74608	-28.2278	0.839585	0
0.1780	0.759564	-1.20501	-12.3347	35.9493	-0.432271	-1.51642	-1.74608	-28.2278	0.839585	-0.32148
0.1787	-0.455738	0.324426	-14.1596	39.0042	-0.117892	0.031592	0.0805883	-24.566	1.75155	-0.32148
0.1793	-0.759564	1.23977	-12.3347	39.0042	0.196487	-0.600248	0.402942	-20.2981	1.75155	0
0.1800	-1.06339	3.07046	-10.1943	46.9369	-0.117892	-1.2005	-0.214902	-15.7144	0.839585	-0.32148
0.1807	-1.06339	3.9858	-9.28193	38.3967	-0.746649	-2.43258	-1.45059	-11.4465	-0.390841	-0.32148
0.1813	-0.455738	2.45637	-3.1763	-40.9553	-0.117892	-1.51642	-1.74608	-12.9744	-1.60679	-0.32148
0.1820	-0.455738	1.54102	17.2673	-96.8003	1.10033	0.63184	0.698432	-10.8319	-1.60679	-0.32148
0.1827	-0.455738	1.23977	41.3811	-56.213	0.785947	0.31592	1.90726	8.08338	-0.072378	0
0.1833	-0.455738	0.625678	46.5674	-15.6257	0.471568	-0.284328	1.31628	26.3926	0.23161	-0.32148
0.1840	-0.151913	0.0231733	28.2574	-7.0769	-0.117892	-1.51642	-0.537256	25.172	-0.072378	-0.32148
0.1847	-1.06339	0.938517	12.0809	2.37893	-0.117892	-2.11666	-0.537256	8.69796	-0.072378	0
0.1853	-2.58252	3.68455	9.33681	7.87273	0.471568	0.031592	1.61177	-16.3289	0.839585	-0.32148
0.1860	-2.27869	6.12933	5.98214	9.09643	1.10033	0.31592	2.22961	-36.7721	1.44756	-0.964439
0.1867	-1.97487	8.26127	2.92933	13.3665	0.471568	-1.2005	0.993923	-40.434	1.14357	-0.32148
0.1873	-1.97487	11.0073	0.78893	16.7296	-0.432271	-3.34875	-1.45059	-28.8424	0.839585	0
0.1880	-0.759564	10.3932	-0.432196	19.1684	-0.746649	-3.949	-2.95491	-14.801	1.44756	-0.32148
0.1887	0.455738	-0.892171	2.62062	31.0716	0.196487	-3.03283	-1.12824	-6.25672	3.58995	-0.32148
0.1893	1.67104	-14.0198	4.45231	40.5274	0.785947	-1.80074	0.402942	14.4937	4.8059	-0.32148
0.1900	2.88634	-14.3211	1.39949	37.7805	0.471568	-2.43258	0.0805883	44.7104	3.58995	-0.32148
0.1907	2.58252	-8.21492	-1.34461	57.9245	0.196487	-3.63308	-0.832746	51.1122	3.27148	0
0.1913	1.36722	-6.99833	-3.78686	76.5366	0.196487	-3.949	-0.832746	37.6855	4.19792	0
0.1920	-0.151913	-8.52776	-18.1317	28.3247	0.471568	-1.2005	0.698432	25.4793	2.05553	-0.32148
0.1927	-1.97487	-6.08298	-41.9368	-14.0939	0.471568	1.54801	1.61177	18.7702	-1.3028	-0.32148
0.1933	-2.27869	-3.95104	-56.8853	-4.33	0.471568	1.54801	0.402942	13.8877	-1.91078	0
0.1940	-2.88634	-4.55355	-61.7698	-0.667471	-0.746649	0.031592	-1.12824	3.81549	-2.21477	0
0.1947	-3.19017	-4.55355	-59.3275	-20.2038	-1.33611	0.31592	-1.12824	-3.20945	-2.51875	-0.32148
0.1953	-1.67104	-3.0357	-49.8672	-49.4955	-0.746649	2.46418	0.402942	-2.28759	-4.05317	-0.32148
0.1960	-0.759564	-2.12035	-35.8311	-57.7362	-0.432271	3.06442	1.31628	-1.68155	-8.01948	-0.32148
0.1967	0.151913	-0.289666	-8.67136	-56.8206	-0.432271	1.23209	0.698432	-2.28759	-9.84341	-0.32148
0.1973	1.97487	1.54102	28.5592	-62.6224	-0.746649	-1.80074	-1.12824	-3.20945	-7.39703	-0.32148
0.1980	2.58252	0.938517	62.1334	-45.5335	-0.432271	-1.80074	-1.12824	-3.5082	-4.05317	0
0.1987	2.58252	1.85386	75.5589	-22.9507	0.196487	0.63184	0.698432	-5.3434	-1.91078	0
0.1993	2.58252	5.51524	67.3197	-13.7944	0.785947	1.23209	1.61177	-13.8877	-0.390841	0
0.2000	1.97487	8.56252	56.3364	-8.6001	0.196487	0.031592	1.31628	-16.0217	-0.390841	0
0.2007	0.759564	8.26127	51.7538	-6.76884	-1.33611	-1.2005	-1.12824	-6.56401	-1.60679	0
0.2013	-0.759564	6.43058	48.0904	-5.5537	-0.746649	-0.884576	-1.74608	2.28759	-1.91078	0
0.2020	-2.88634	4.90115	42.2935	-0.0599012	0.471568	0.94776	0.402942	6.86276	-0.694829	-0.32148
0.2027	-4.7093	2.15511	30.3909	5.12583	0.196487	0.94776	1.61177	0.452396	0.535597	-0.32148
0.2033	-2.27869	0.0231733	9.33681	6.65759	-0.746649	-0.600248	-0.214902	-9.61128	-0.072378	-0.32148
0.2040	1.06339	0.625678	-8.97322	8.18079	-1.33611	-2.43258	-2.36392	-2.28759	-0.998816	-0.32148
0.2047	1.67104	-1.80751	-11.7242	10.9277	-0.746649	-2.43258	-2.04157	13.2731	-0.072378	-0.32148
0.2053	1.67104	-5.16764	-9.89249	17.0291	0.785947	-0.600248	0.402942	15.4071	1.75155	-0.32148
0.2060	3.49399	-6.38423	-10.1943	26.793	1.10033	-0.284328	0.993923	9.91857	2.05553	-0.32148
0.2067	4.7093	-5.46889	-6.53096	25.5778	0.471568	-1.2005	-0.214902	15.1083	0.839585	-0.32148
0.2073	4.10164	-3.95104	-4.39742	9.09643	-0.432271	-1.80074	-1.45059	24.2587	-0.998816	-0.32148
0.2080	3.19017	-4.25229	-8.0608	-1.5831	-0.746649	-1.80074	-1.12824	23.6526	-2.21477	-0.32148
0.2087	3.49399	-2.42161	-11.4155	6.65759	-0.117892	-0.284328	0.402942	15.1083	-1.3028	0
0.2093	2.88634	3.37171	-10.8049	20.9997	0.785947	0.63184	1.61177	4.72882	0.535597	0
0.2100	1.97487	5.51524	-11.7242	23.4385	-0.117892	0.031592	0.698432	3.5082	0.23161	-0.32148
0.2107	1.97487	3.68455	-15.9913	19.776	-0.746649	-1.51642	-1.45059	14.4937	-1.3028	-0.32148
0.2113	1.67104	4.90115	-15.9913	24.0461	-0.117892	-1.80074	-1.45059	25.7866	-0.390841	-0.32148
0.2120	0.151913	6.73183	-11.1136	17.3371	0.196487	0.031592	0.993923	31.5824	1.14357	-0.32148
0.2127	-1.36722	4.59989	-6.53096	-2.8068	0.471568	0.63184	1.90726	31.8897	-0.072378	-0.32148
0.2133	-1.36722	2.15511	-2.87445	-16.8408	0.196487	-0.284328	1.61177	8.69796	-1.91078	-0.32148
0.2140	-0.455738	2.15511	-1.95517	-35.761	-0.746649	-1.80074	-0.214902	-34.6382	-3.12673	0
0.2147	-0.759564	4.29864	-1.65332	-41.8709	-0.746649	-2.71691	-1.12824	-52.0341	-3.12673	-0.32148
0.2153	-2.58252	5.81649	0.487078	-15.0095	0.196487	-1.80074	0.698432	-37.3867	-1.3028	-0.964439
0.2160	-3.19017	4.90115	1.7082	16.7296	1.10033	-1.80074	1.31628	-18.4629	-0.390841	-0.64296
0.2167	-1.97487	0.0231733	1.39949	32.5948	0.785947	-1.51642	0.698432	-4.12278	-0.072378	-0.32148
0.2173	-1.06339	-8.82901	-1.34461	13.067	-0.746649	-1.2005	-1.12824	5.64215	-0.694829	-0.32148
0.2180	-1.97487	-10.6597	-3.78686	-15.3176	-1.02173	-1.2005	-1.45059	7.77609	-1.3028	-0.32148
0.2187	-4.10164	-3.95104	-0.123485	-7.0769	0.471568	-0.600248	0.0805883	4.72882	-0.694829	0
0.2193	-5.31695	-1.80751	6.284	14.2822	1.10033	-0.884576	0.698432	-1.37426	-0.998816	-0.32148
0.2200	-4.7093	-3.95104	6.59271	40.5274	0.785947	-1.80074	0.993923	-3.20945	-1.91078	-0.32148
0.2207	-2.88634	-5.16764	-3.78686	71.3509	-0.117892	-2.71691	-0.537256	-1.98884	-4.35715	0
0.2213	-0.151913	-11.575	-16.6018	102.782	0.196487	-3.63308	-2.04157	-9.31253	-6.18108	-0.32148
0.2220	1.36722	-20.126	-21.1845	121.403	1.10033	-2.11666	-0.214902	-19.9908	-4.96513	-0.32148
0.2227	-0.759564	-21.9567	-26.3708	46.3293	0.785947	0.63184	2.22961	-22.1247	-6.78905	-0.32148
0.2233	-3.19017	-17.9825	-46.2038	-62.3144	0.196487	0.94776	1.90726	-17.5496	-9.84341	0
0.2240	-0.759564	-11.2738	-63.6014	-44.9173	0.196487	-1.80074	-0.832746	-7.47734	-8.62746	-0.32148
0.2247	1.67104	-2.12035	-74.2829	45.4137	0.196487	-3.03283	-1.74608	12.3598	-3.43072	-0.32148
0.2253	0.151913	4.29864	-83.4344	39.9199	-0.117892	0.63184	0.0805883	32.4957	2.9675	-0.32148
0.2260	-3.49399	-2.42161	-65.1244	-50.1116	-0.746649	3.69626	1.90726	37.9927	7.25227	-0.32148
0.2267	-5.9246	-27.1359	-37.9647	-61.7068	-1.33611	2.46418	0.993923	39.2134	10.5961	-0.32148
0.2273	-3.49399	-42.3955	-32.1677	-7.99253	-2.23995	0.63184	-1.12824	47.7577	12.7385	0
0.2280	-0.151913	-8.52776	1.39949	-29.3601	-2.23995	0.31592	-1.12824	48.065	9.68417	-0.32148
0.2287	1.06339	37.251	81.0539	-109.619	-1.02173	2.14826	0.698432	29.4484	4.50191	0
0.2293	1.36722	39.383	119.808	-152.346	-0.432271	3.06442	1.90726	9.91857	1.75155	0.32148
0.2300	3.19017	19.2454	88.6825	-128.231	-0.746649	2.14826	1.61177	15.1083	1.14357	0
0.2307	5.31695	2.15511	62.1334	-73.9095	-1.65049	-0.284328	-0.214902	24.566	1.14357	-0.32148
0.2313	4.7093	-12.1891	52.6731	-38.2084	-1.65049	-0.884576	-1.45059	5.64215	1.44756	-0.32148
0.2320	1.36722	-19.8131	24.2922	-24.1659	-0.117892	0.63184	0.698432	-15.7144	2.66351	-0.32148
0.2327	-1.06339	-18.5965	-9.89249	-16.2332	0.471568	0.31592	1.61177	-5.94944	3.27148	-0.32148
0.2333	1.06339	-13.1045	-21.795	-9.8238	0.196487	-1.51642	-0.214902	17.8483	3.27148	-0.32148
0.2340	4.7093	-8.82901	-9.58378	-5.5537	-0.432271	-3.34875	-1.74608	37.0794	2.66351	-0.32148
0.2347	5.31695	-5.78173	6.59271	-2.8068	-0.432271	-3.03283	-1.45059	48.9783	2.35952	0
0.2353	5.01312	-6.38423	11.1685	2.37893	-0.117892	-0.600248	0.0805883	36.1575	3.58995	0
0.2360	4.7093	-5.78173	11.4704	-9.21623	0.196487	0.31592	0.698432	12.9658	3.27148	0
0.2367	3.49399	12.5367	9.33681	-41.5629	0.196487	0.031592	0.0805883	-1.98884	0.839585	0
0.2373	1.97487	34.505	-0.432196	-50.4111	-1.02173	-1.80074	-1.45059	-38.9146	-0.998816	0
0.2380	-0.151913	32.9756	-7.14153	-27.8284	-1.02173	-2.11666	-2.04157	-96.2836	-0.072378	-0.32148
0.2387	-1.67104	19.8595	-2.87445	-6.46933	0.471568	-0.600248	0.0805883	-123.444	1.75155	-0.32148
0.2393	-1.97487	16.1981	1.09764	4.82633	1.4147	0.31592	2.22961	-104.828	2.35952	-0.32148
0.2400	-1.67104	17.716	2.01006	8.48886	0.785947	0.031592	2.22961	-73.0919	2.05553	0
0.2407	-0.759564	13.7533	3.23118	2.687	-0.432271	-1.2005	-0.537256	-48.3722	0.535597	0.32148
0.2413	-0.455738	6.12933	3.84174	-8.3006	-0.432271	-1.2005	-1.74608	-31.5909	-0.390841	0
0.2420	-1.06339	-1.50626	-1.34461	-13.7944	-0.117892	-0.284328	-0.832746	-24.566	-0.390841	-0.32148
0.2427	-0.455738	-6.08298	-3.1763	-12.2626	0.471568	0.63184	0.0805883	-19.6835	-0.998816	0
0.2433	1.06339	-5.78173	8.41754	-7.99253	1.10033	-0.600248	0.0805883	-15.7144	-1.60679	-0.32148
0.2440	1.06339	-6.08298	11.1685	-4.63806	-0.117892	-3.03283	-1.74608	-14.801	-1.3028	-0.32148
0.2447	0.151913	-7.29958	3.53989	-1.89117	-0.432271	-2.11666	-1.74608	-5.65068	-0.694829	-0.32148
0.2453	0.151913	-5.46889	1.09764	6.04146	0.471568	0.031592	0.0805883	12.3598	-0.390841	-0.32148
0.2460	1.36722	-6.38423	1.39949	21.2992	0.785947	0.31592	0.993923	19.9908	0.535597	-0.64296
0.2467	2.27869	-18.5965	-0.123485	37.7805	0.471568	-0.600248	0.698432	-0.460932	1.44756	-0.32148
0.2473	1.97487	-22.2579	-4.08871	46.0212	-0.432271	-2.43258	-1.12824	-17.8568	0.535597	0
0.2480	2.27869	-6.08298	-5.30984	51.207	-0.746649	-2.71691	-1.74608	0.452396	0.535597	0
0.2487	3.19017	2.15511	-3.47815	57.6164	0.196487	-1.51642	-0.214902	22.1247	2.9675	-0.32148
0.2493	2.88634	-1.80751	-2.87445	62.8107	1.10033	-0.284328	0.402942	18.4629	4.19792	-0.32148
0.2500	1.36722	-5.16764	-2.56574	64.642	0.785947	-0.284328	-0.214902	5.94944	3.89394	-0.32148
0.2507	0.455738	-14.6223	-3.47815	64.3339	0.196487	-2.11666	-1.45059	5.94944	2.9675	0
0.2513	0.759564	-27.75	-3.1763	73.4902	-0.117892	-2.11666	-1.74608	16.3289	2.9675	-0.32148
0.2520	0.151913	-32.628	-0.432196	69.2201	0.471568	0.031592	-0.214902	18.1556	3.89394	-0.32148
0.2527	-1.06339	-29.8819	-0.432196	17.6452	0.785947	1.54801	0.993923	1.37426	2.66351	0
0.2533	-1.06339	-18.8978	-2.87445	-40.6472	-0.432271	1.86393	0.0805883	-25.1805	-0.694829	0
0.2540	0.759564	-4.55355	-5.61855	-58.9599	-1.02173	1.54801	-1.12824	-36.1661	-4.05317	0
0.2547	1.97487	-6.99833	-6.22911	-49.8036	-0.117892	0.031592	-1.45059	-22.7393	-4.35715	0
0.2553	0.759564	-25.004	-1.95517	-53.158	0.785947	0.31592	-0.832746	-5.3434	-3.7347	-0.32148
0.2560	-0.759564	-36.6022	1.7082	-69.6394	1.10033	1.86393	0.402942	2.28759	-5.87709	-0.32148
0.2567	-1.06339	-30.1948	1.39949	-58.0443	0.785947	1.54801	0.993923	1.9803	-6.48507	-0.32148
0.2573	-0.455738	8.56252	2.01006	-27.2208	-0.117892	-0.884576	-1.12824	-1.68155	-4.96513	-0.32148
0.2580	-0.151913	69.2997	10.2492	-10.4314	-0.432271	-2.11666	-2.65942	-2.90216	-3.7347	-0.32148
0.2587	-0.455738	90.0513	11.7791	-1.5831	0.785947	-0.600248	-0.537256	-0.153644	-1.91078	-0.32148
0.2593	-1.06339	58.6168	-2.26388	4.82633	1.10033	0.031592	1.61177	2.59488	-0.694829	-0.32148
0.2600	-1.06339	30.8436	-13.2472	0.855731	0.785947	-0.884576	0.698432	5.94944	-1.3028	0
0.2607	-0.455738	22.9068	-15.0788	-4.63806	0.196487	-3.03283	-1.45059	8.99671	-1.60679	-0.32148
0.2613	-1.36722	18.6313	-9.89249	-1.2836	-0.117892	-3.949	-1.45059	8.39067	0.535597	-0.32148
0.2620	-1.97487	13.1392	-4.69928	9.09643	0.196487	-2.71691	0.993923	8.69796	2.9675	0
0.2627	-1.06339	10.3932	-5.00799	13.9827	0.785947	-1.2005	2.22961	11.4465	2.66351	-0.32148
0.2633	-0.151913	11.9226	-6.83968	10.9277	-0.117892	-0.884576	1.61177	16.935	1.44756	0
0.2640	0.151913	16.1981	-8.97322	12.4509	-1.65049	-1.80074	-0.537256	24.566	0.23161	0
0.2647	0.151913	24.7375	-9.58378	14.5902	-1.33611	-1.80074	-1.45059	27.3145	0.23161	-0.32148
0.2653	-0.759564	28.7117	-8.36265	12.1514	0.471568	-0.884576	0.698432	22.1247	0.839585	-0.32148
0.2660	-0.455738	14.0546	-2.87445	6.65759	0.785947	-0.884576	1.90726	12.3598	0.535597	-0.32148
0.2667	-0.151913	-1.20501	10.5579	-4.93757	0.196487	-1.51642	0.993923	0.759684	-0.694829	0
0.2673	-0.455738	-0.289666	16.9654	-4.0305	-0.746649	-3.34875	-1.12824	-2.59488	-0.390841	0
0.2680	1.06339	8.26127	9.94737	14.8983	-0.432271	-4.26492	-1.74608	4.72882	1.75155	0
0.2687	1.97487	13.1392	-4.39742	15.5059	0.785947	-1.80074	0.698432	2.89363	2.05553	0
0.2693	-0.151913	9.79071	-19.0441	-12.8788	0.785947	0.031592	1.90726	-6.8713	-0.390841	-0.32148
0.2700	-1.97487	5.51524	-28.5044	-37.9003	-0.432271	-1.51642	0.402942	-7.78463	-0.694829	-0.32148
0.2707	-2.27869	7.04467	-36.133	-37.9003	-0.746649	-2.71691	-0.832746	-6.25672	-0.072378	-0.32148
0.2713	-1.67104	9.79071	-43.7616	-23.5583	0.196487	-1.80074	-0.214902	-7.17005	0.23161	-0.32148
0.2720	-1.97487	8.26127	-37.3541	-12.8788	0.471568	-0.284328	0.993923	-8.39067	1.14357	0
0.2727	-2.27869	3.9858	-9.89249	-11.6551	0.471568	0.31592	1.61177	-14.801	1.44756	0
0.2733	-1.36722	1.54102	19.4077	-10.7394	0.785947	-0.284328	1.61177	-19.3847	0.535597	0
0.2740	0.455738	6.12933	22.7623	-4.33	0.196487	-2.43258	-0.537256	-18.4629	0.23161	-0.32148
0.2747	1.06339	12.2239	3.84174	3.60263	-0.432271	-3.63308	-1.74608	-19.6835	0.23161	-0.32148
0.2753	-0.151913	12.838	-11.7242	30.156	0.196487	-2.11666	0.402942	-23.3453	-1.3028	-0.64296
0.2760	-0.759564	10.706	-14.7701	73.4902	1.4147	0.031592	1.90726	-26.4012	-2.82274	-0.64296
0.2767	-1.67104	5.21398	-7.75209	73.4902	1.10033	-0.284328	1.31628	-27.9291	-1.91078	-0.32148
0.2773	-1.97487	-6.69707	1.09764	26.793	-0.746649	-1.80074	-1.12824	-24.566	-2.51875	-0.32148
0.2780	-2.58252	-13.1045	19.7095	2.37893	-1.02173	-1.2005	-1.74608	-1.37426	-2.82274	-0.32148
0.2787	-3.49399	-6.08298	46.8693	11.2358	0.471568	0.94776	0.993923	47.1516	-0.390841	0
0.2793	-1.36722	2.76921	53.8942	23.1304	1.10033	1.86393	2.22961	81.6362	1.44756	0
0.2800	0.759564	4.59989	41.3811	27.7086	0.471568	1.23209	1.31628	68.5081	1.75155	-0.32148
0.2807	-0.759564	2.76921	26.1239	25.8773	-0.432271	-0.884576	-1.12824	43.1825	0.23161	-0.32148
0.2813	-3.49399	2.15511	12.6915	0.855731	-0.432271	-0.884576	-1.45059	38.3	-1.60679	0
0.2820	-4.40547	1.85386	6.59271	-42.4785	-0.117892	1.23209	0.993923	46.5371	-2.21477	-0.32148
0.2827	-1.67104	0.625678	6.284	-47.6642	-0.117892	1.86393	2.22961	46.5371	-1.60679	-0.32148
0.2833	1.67104	-2.12035	6.59271	-15.9252	0.196487	0.63184	0.993923	19.9908	-0.998816	0
0.2840	3.49399	-5.78173	5.06287	4.51826	-0.432271	-1.51642	-1.12824	-5.03611	-0.998816	0
0.2847	4.40547	-3.6382	-6.53096	7.57322	-0.432271	-2.11666	-1.74608	-8.39067	-0.390841	0
0.2853	5.31695	4.90115	-25.1497	10.0121	1.10033	-0.600248	0.698432	-9.00524	0.535597	-0.32148
0.2860	5.01312	12.838	-36.7435	20.3835	1.72908	0.031592	2.5251	-11.1392	0.839585	-0.32148
0.2867	3.79782	15.8853	-39.1858	37.173	1.10033	-1.2005	2.22961	-9.00524	0.535597	-0.32148
0.2873	3.19017	11.9226	-37.9647	53.0382	0.196487	-3.03283	-0.832746	-6.25672	-0.998816	-0.32148
0.2880	2.88634	3.37171	-31.2553	64.3339	0.196487	-3.63308	-2.36392	-5.94944	-1.60679	-0.32148
0.2887	2.27869	-4.55355	-19.9633	78.984	0.785947	-2.71691	0.402942	-3.5082	-0.390841	-0.32148
0.2893	0.759564	-5.78173	-14.7701	82.6465	1.72908	-1.51642	2.22961	-0.460932	-0.072378	0
0.2900	-0.151913	0.324426	2.01006	37.7805	1.10033	-0.884576	1.90726	-1.68155	-0.390841	0
0.2907	-1.06339	0.0231733	32.2226	3.60263	-0.432271	-2.43258	0.0805883	1.06697	-0.072378	0
0.2913	-0.759564	-11.575	28.5592	39.3123	-0.117892	-3.949	-1.45059	6.55548	1.44756	0
0.2920	-0.151913	-20.126	1.39949	87.2247	0.785947	-2.43258	-0.214902	1.67301	4.50191	-0.32148
0.2927	-1.67104	-17.9825	-7.14153	114.078	0.785947	-0.600248	0.993923	-1.98884	6.02185	-0.32148
0.2933	-3.19017	-16.7659	-6.53096	75.0134	0.196487	0.31592	0.402942	2.59488	4.8059	-0.32148
0.2940	-3.19017	-26.2206	-7.45024	-41.2548	-1.02173	-0.600248	-1.12824	-1.98884	2.05553	0
0.2947	-3.49399	-32.9408	-3.1763	-96.8003	-1.65049	-0.884576	-0.832746	-18.4629	1.14357	0
0.2953	-4.40547	-30.7973	6.59271	-65.0613	-0.746649	0.94776	1.31628	-30.3703	2.35952	-0.32148
0.2960	-4.7093	-30.496	14.2213	-43.0861	0.471568	1.23209	1.61177	-35.8588	2.35952	-0.32148
0.2967	-3.49399	-30.496	9.63866	-26.3052	-0.117892	-0.284328	0.402942	-34.6382	2.35952	0
0.2973	-0.759564	-26.2206	-1.65332	-10.1319	-1.65049	-1.2005	-1.74608	-25.4878	1.44756	0
0.2980	1.67104	-19.5119	-4.08871	-24.1659	-1.33611	-0.284328	-1.45059	-16.3289	-2.21477	0
0.2987	1.97487	-17.9825	-3.1763	-65.6688	-1.02173	3.06442	1.61177	-16.3289	-6.48507	0
0.2993	2.27869	-29.8819	-7.14153	-94.9691	-1.33611	5.21268	2.5251	-24.8733	-7.39703	0
0.3000	2.27869	-32.0255	-6.22911	-73.302	-1.02173	3.69626	0.993923	-34.3309	-4.66114	0
0.3007	1.36722	3.9858	10.8598	-33.9298	-0.746649	0.031592	-1.45059	-39.8279	-2.51875	0
0.3013	-0.759564	40.2983	38.9388	-14.71	-1.02173	-1.51642	-2.65942	-39.2134	-2.21477	0
0.3020	-1.67104	41.8277	49.3115	-20.5033	-1.02173	0.31592	-0.214902	-41.0485	-1.91078	0
0.3027	-2.88634	26.881	26.4257	-54.9893	-0.117892	2.14826	1.90726	-44.7104	-1.91078	-0.32148
0.3033	-4.7093	10.092	-1.04276	-53.7742	-0.117892	2.14826	1.31628	-20.9041	-2.82274	-0.32148
0.3040	-5.9246	0.938517	-17.2124	-14.402	-0.432271	-0.600248	-1.12824	23.6526	-4.66114	0
0.3047	-4.40547	1.23977	-24.841	-31.1829	-0.432271	-2.11666	-2.65942	55.9947	-5.87709	0
0.3053	-2.27869	-2.12035	-19.6546	-75.7408	-0.432271	-0.600248	-0.537256	76.1391	-5.87709	-0.32148
0.3060	-0.759564	-5.78173	-15.9913	-70.8631	-0.117892	0.94776	2.22961	77.0525	-4.35715	-0.64296
0.3067	1.36722	0.324426	-28.5044	-35.761	0.785947	0.31592	1.90726	54.168	-2.82274	-0.32148
0.3073	4.40547	7.04467	-34.61	-8.6001	-0.117892	-1.80074	-1.12824	33.1103	-1.60679	0
0.3080	5.62077	8.87536	-8.0608	11.8433	-1.02173	-2.43258	-2.65942	30.0545	-0.694829	-0.32148
0.3087	3.49399	7.96002	25.8151	35.9493	0.196487	-0.284328	-0.214902	31.8897	0.23161	0
0.3093	1.06339	0.625678	39.2407	37.481	1.10033	1.23209	2.22961	16.0217	-0.998816	0
0.3100	0.455738	-8.52776	38.9388	6.9571	0.471568	-0.284328	0.993923	-17.8568	-1.60679	-0.32148
0.3107	0.151913	-6.69707	36.7984	4.2102	-0.117892	-3.63308	-1.12824	-34.0321	0.535597	-0.32148
0.3113	-2.58252	5.51524	42.6022	42.0592	0.196487	-4.54925	-2.04157	-25.1805	5.41387	0
0.3120	-4.40547	11.9226	50.2308	70.1272	1.4147	-3.03283	-0.537256	-14.195	7.86025	0
0.3127	-1.97487	7.04467	43.8233	82.9461	1.4147	-1.51642	0.698432	-1.37426	4.8059	0
0.3133	0.455738	0.625678	28.2574	96.6805	0.471568	-0.884576	0.993923	3.5082	-0.072378	0
0.3140	-0.759564	-6.99833	6.59271	89.6635	-0.117892	-2.11666	-0.832746	-12.0525	-4.96513	0
0.3147	-1.97487	-11.575	-11.4155	83.2541	0.196487	-3.34875	-1.74608	-25.1805	-7.39703	-0.32148
0.3153	-1.06339	-9.13027	-13.8577	101.567	1.10033	-2.43258	-0.537256	-15.7144	-4.66114	0
0.3160	0.455738	-7.61242	-7.14153	60.6714	1.72908	-1.51642	0.402942	-0.76822	-4.05317	0
0.3167	2.58252	-8.21492	-1.65332	-21.1195	1.10033	-2.11666	0.0805883	11.4465	-5.87709	-0.32148
0.3173	4.40547	-7.91367	-0.123485	-18.6721	0.471568	-3.34875	-1.74608	30.0545	-5.26912	-0.32148
0.3180	4.10164	-5.78173	0.78893	11.8433	-0.746649	-1.80074	-2.36392	40.1267	-2.21477	0
0.3187	1.97487	-1.80751	5.67343	-40.9553	-1.33611	3.38034	0.698432	31.8897	2.05553	0
0.3193	1.06339	-3.33695	7.19641	-104.425	-0.746649	4.89676	2.5251	19.0689	4.50191	-0.32148
0.3200	1.36722	-12.7916	3.53989	-110.227	-0.746649	2.46418	1.31628	5.94944	5.71786	-0.32148
0.3207	2.27869	-20.4272	-4.69928	-118.159	-2.23995	1.54801	-0.832746	-1.37426	5.41387	0
0.3213	2.88634	-23.4745	-19.3528	-119.383	-2.55433	1.86393	-0.832746	3.5082	3.89394	-0.32148
0.3220	3.19017	-15.2364	-29.1149	-78.4877	-1.02173	2.7801	1.31628	15.1083	4.19792	0
0.3227	2.27869	8.26127	-27.592	-39.4235	0.196487	2.46418	2.22961	30.669	4.50191	-0.32148
0.3233	0.455738	15.8853	-23.0093	-22.6427	0.196487	1.54801	1.90726	41.9619	3.27148	-0.32148
0.3240	-0.455738	-3.0357	-15.9913	-13.4863	-1.02173	-0.884576	-0.537256	26.0939	1.14357	-0.32148
0.3247	0.151913	-12.1891	-8.36265	-10.4314	-1.96487	-2.43258	-2.04157	-9.91857	1.75155	-0.32148
0.3253	0.759564	-6.99833	-18.7422	-9.8238	-0.432271	-1.2005	0.0805883	-28.2278	4.8059	0
0.3260	1.06339	-9.13027	-43.4597	-7.99253	0.785947	-0.284328	1.90726	-20.9041	5.10989	0
0.3267	0.759564	-13.4057	-56.5834	-13.7944	-0.117892	-0.600248	0.698432	-11.1392	3.27148	-0.32148
0.3273	0.151913	-7.29958	-59.6362	-24.782	-1.02173	-2.43258	-2.36392	-9.61128	2.35952	-0.32148
0.3280	1.06339	2.15511	-59.3275	-21.727	-0.746649	-3.63308	-3.27726	-6.56401	2.05553	0
0.3287	0.455738	5.21398	-50.7865	-7.99253	0.196487	-1.80074	-0.832746	3.5082	2.9675	-0.32148
0.3293	-1.67104	7.34593	-45.2914	1.77136	1.10033	0.031592	0.993923	4.42153	4.19792	-0.32148
0.3300	-1.97487	10.3932	-21.4863	7.57322	1.10033	-0.600248	0.993923	-10.5331	3.58995	-0.32148
0.3307	-0.759564	-0.892171	51.1432	8.78836	-0.432271	-2.71691	-0.832746	-27.6218	1.44756	-0.32148
0.3313	1.36722	-17.0671	103.329	-3.72243	-1.02173	-1.80074	-2.04157	-36.1661	-0.390841	-0.32148
0.3320	2.27869	-17.9825	81.0539	-21.727	0.196487	1.23209	0.698432	-26.4012	-0.390841	0
0.3327	2.58252	-16.7659	44.7357	-23.8664	0.785947	1.86393	2.22961	-11.4465	-0.072378	-0.32148
0.3333	2.58252	-16.4646	29.4785	-11.347	0.471568	0.63184	0.402942	-9.61128	-0.390841	-0.32148
0.3340	3.79782	-9.74436	13.6108	-0.975534	-0.432271	-1.51642	-2.36392	-7.78463	-0.998816	-0.32148
0.3347	5.01312	-8.52776	-0.432196	4.51826	-1.02173	-2.71691	-2.65942	8.99671	-0.998816	-0.32148
0.3353	2.88634	-3.6382	-2.26388	6.34953	0.196487	-0.600248	0.402942	15.4071	0.23161	-0.32148
0.3360	0.455738	28.0976	0.487078	6.9571	1.10033	0.63184	1.90726	0.759684	0.839585	-0.32148
0.3367	0.151913	58.918	1.7082	13.3665	0.785947	0.031592	0.993923	-2.28759	0.535597	-0.32148
0.3373	0.151913	48.548	0.487078	24.3541	-0.432271	-1.80074	-0.832746	8.99671	-0.390841	0
0.3380	0.151913	13.1392	0.487078	31.3711	-0.746649	-3.03283	-2.36392	28.8339	-0.694829	0
0.3387	0.151913	-2.12035	0.78893	25.8773	0.471568	-1.80074	-0.832746	56.302	-0.390841	-0.32148
0.3393	0.759564	6.73183	-1.04276	17.0291	1.4147	0.031592	1.61177	51.7268	0.839585	-0.64296
0.3400	1.36722	3.68455	-1.34461	26.1854	1.4147	-0.284328	1.61177	1.9803	2.66351	-0.32148
0.3407	1.06339	-11.2738	-1.65332	34.7341	-0.117892	-3.34875	-1.45059	-47.7577	1.75155	0
0.3413	0.151913	-14.3211	-0.432196	25.5778	-0.746649	-4.26492	-2.95491	-64.2402	0.23161	0
0.3420	-0.455738	-5.46889	3.53989	17.9447	0.196487	-1.80074	-0.214902	-50.5062	0.839585	0
0.3427	-0.759564	2.45637	3.84174	17.3371	1.10033	-0.600248	1.31628	-26.4012	2.05553	-0.32148
0.3433	-0.151913	3.68455	0.178367	19.1684	1.10033	-1.2005	0.0805883	-10.5331	2.35952	-0.32148
0.3440	-0.151913	-2.72286	-3.1763	12.759	-0.117892	-2.43258	-0.832746	-6.56401	-0.072378	-0.32148
0.3447	-3.19017	-14.3211	-2.56574	-18.6721	-0.746649	-2.43258	-1.12824	-7.47734	-2.51875	-0.32148
0.3453	-6.22842	-16.4646	1.7082	-49.4955	0.785947	-0.884576	0.402942	-7.17005	-1.91078	0
0.3460	-6.53225	7.34593	5.98214	-42.4785	1.10033	0.031592	1.90726	-7.17005	-1.3028	-0.32148
0.3467	-6.22842	39.6958	12.6915	-18.3726	0.471568	-0.600248	1.61177	-9.61128	-2.51875	-0.32148
0.3473	-5.9246	42.4418	19.4077	-1.2836	-0.117892	-2.11666	-0.832746	-12.3598	-3.43072	-0.32148
0.3480	-5.62077	17.716	17.2673	7.26516	-0.746649	-3.34875	-2.65942	-13.2731	-3.43072	-0.32148
0.3487	-6.53225	2.76921	11.1685	7.87273	0.471568	-1.51642	-1.12824	-11.7538	-2.21477	-0.32148
0.3493	-5.9246	3.68455	6.59271	5.4339	0.785947	1.23209	1.31628	-10.2259	-0.998816	-0.32148
0.3500	-3.19017	6.73183	-0.734048	6.65759	-0.117892	1.23209	0.993923	-12.6671	0.535597	-0.32148
0.3507	1.97487	10.092	-19.6546	18.5608	-0.746649	-2.11666	-2.36392	-15.7144	2.9675	-0.32148
0.3513	5.31695	12.838	-46.8144	30.7635	-0.117892	-3.63308	-3.27726	-9.00524	5.10989	-0.32148
0.3520	4.40547	12.838	-62.3803	33.2024	0.785947	-1.51642	-0.214902	8.99671	5.10989	-0.32148
0.3527	1.67104	7.34593	-62.6822	38.3967	1.10033	0.031592	1.31628	23.6526	3.89394	-0.32148
0.3533	1.06339	0.324426	-49.5654	49.6838	0.785947	-0.884576	0.402942	30.0545	2.9675	-0.32148
0.3540	1.06339	-3.33695	-23.318	59.4477	-0.117892	-3.03283	-1.12824	33.7163	1.75155	-0.32148
0.3547	0.759564	-3.33695	5.67343	45.4137	-0.746649	-4.26492	-2.36392	37.3782	0.23161	0
0.3553	1.36722	1.54102	21.8499	6.34953	0.196487	-2.43258	-1.12824	49.2856	-0.694829	0
0.3560	3.19017	8.26127	26.1239	-9.51573	0.471568	-0.600248	0.0805883	79.1949	-2.51875	-0.32148
0.3567	3.19017	11.3086	37.7177	0.248162	0.196487	-0.600248	-0.537256	98.1102	-2.51875	-0.32148
0.3573	2.27869	12.2239	40.1599	-3.41437	-0.746649	-2.11666	-1.74608	39.8194	-1.60679	-0.32148
0.3580	1.67104	12.2239	26.1239	14.8983	-1.96487	-3.03283	-2.95491	-67.2961	-3.43072	-0.32148
0.3587	0.759564	10.706	20.0182	71.659	-1.33611	-1.51642	-1.45059	-107.269	-3.7347	-0.32148
0.3593	-0.455738	8.87536	12.6915	71.659	-0.432271	-0.284328	0.402942	-71.2567	-2.21477	-0.32148
0.3600	-2.27869	5.81649	-1.65332	-0.0599012	-0.117892	-0.600248	-0.214902	-34.0321	-1.3028	-0.32148
0.3607	-3.19017	3.68455	-9.58378	-34.2378	-0.432271	-3.63308	-2.04157	-14.801	-0.694829	-0.32148
0.3613	-1.97487	7.04467	-10.1943	-20.5033	-1.02173	-5.46542	-2.95491	-5.03611	-0.390841	-0.32148
0.3620	-1.67104	10.3932	-5.30984	-24.4739	-0.117892	-1.51642	-0.832746	-5.03611	-0.694829	-0.32148
0.3627	-1.97487	-0.892171	-1.04276	-42.7866	0.785947	2.14826	1.31628	-6.56401	-1.3028	-0.32148
0.3633	-1.06339	-15.2364	4.76102	-39.4235	-0.432271	2.46418	1.31628	-5.03611	-2.21477	-0.32148
0.3640	1.06339	-18.5965	9.94737	-24.4739	-1.65049	0.031592	-0.537256	-2.28759	-1.91078	0
0.3647	2.27869	-15.8505	-0.734048	-10.4314	-2.23995	-3.03283	-3.27726	0.452396	-0.694829	0
0.3653	0.759564	-10.0456	-16.9105	11.8433	-1.02173	-2.71691	-2.04157	2.59488	0.839585	-0.64296
0.3660	0.151913	-4.86639	-24.2304	29.8479	0.471568	0.031592	0.0805883	4.42153	1.14357	-0.64296
0.3667	0.455738	-2.12035	-26.0621	29.2403	-0.117892	-0.284328	0.0805883	6.25672	-1.3028	-0.32148
0.3673	0.151913	-0.590918	-24.841	18.5608	-1.65049	-2.11666	-1.12824	5.33486	-3.7347	0
0.3680	1.36722	0.625678	-23.0093	16.7296	-1.65049	-2.71691	-2.04157	4.72882	-3.43072	0
0.3687	2.27869	3.68455	-19.0441	31.3711	0.196487	-1.51642	-0.214902	7.47734	-1.3028	-0.32148
0.3693	1.36722	4.90115	-8.36265	46.6288	1.10033	-0.600248	1.31628	7.47734	1.44756	0
0.3700	1.06339	1.85386	11.7791	39.9199	0.196487	-1.51642	-0.214902	2.28759	1.75155	-0.32148
0.3707	2.58252	-1.80751	26.7276	-2.8068	-1.02173	-2.43258	-2.04157	-4.12278	-1.91078	-0.32148
0.3713	2.88634	-2.12035	24.9027	-43.7022	-1.33611	-2.11666	-2.36392	-5.3434	-4.66114	-0.32148
0.3720	1.97487	-3.33695	17.2673	-31.1829	-0.117892	-0.884576	-0.537256	-0.460932	-2.51875	-0.32148
0.3727	0.455738	-6.99833	8.11568	10.0121	1.10033	-1.51642	0.698432	-3.5082	-0.390841	-0.32148
0.3733	-0.455738	-7.61242	0.487078	39.6118	1.10033	-3.03283	-0.214902	-16.0217	-0.072378	-0.32148
0.3740	-0.455738	-6.99833	-2.26388	57.6164	0.196487	-4.86517	-2.36392	-21.2114	0.23161	-0.32148
0.3747	-0.759564	-7.91367	-2.56574	75.3215	-0.117892	-5.78134	-3.27726	-19.3847	1.44756	-0.32148
0.3753	-2.27869	-5.78173	2.01006	50.2913	0.196487	-3.03283	-1.45059	-16.0217	0.535597	-0.32148
0.3760	-2.88634	-2.72286	9.33681	-50.7192	-0.432271	1.54801	0.402942	-11.1392	-1.91078	-0.32148
0.3767	-1.67104	-1.80751	11.4704	-127.624	-1.02173	3.69626	0.993923	-8.39067	-3.7347	-0.32148
0.3773	-0.455738	-2.42161	5.37158	-114.497	-1.96487	2.14826	-0.537256	-6.8713	-4.66114	0
0.3780	-1.06339	-3.6382	-4.69928	-76.3569	-2.55433	0.63184	-2.65942	-4.43007	-2.51875	-0.32148
0.3787	-2.88634	-2.12035	-7.45024	-69.3314	-1.33611	1.54801	-0.537256	-1.68155	2.05553	0
0.3793	-4.7093	-0.590918	-3.78686	-59.5675	-0.117892	2.7801	2.22961	-0.76822	4.19792	0
0.3800	-4.7093	-0.892171	-5.30984	-15.0095	-0.432271	1.23209	0.993923	-0.153644	2.66351	-0.32148
0.3807	-3.49399	0.625678	-7.14153	8.18079	-1.02173	-1.2005	-1.74608	-0.76822	-0.072378	-0.32148
0.3813	-2.27869	2.45637	-1.04276	2.07943	-0.746649	-1.80074	-2.04157	-10.2259	-0.390841	-0.32148
0.3820	-1.97487	1.54102	0.487078	6.04146	-0.432271	-0.284328	-0.214902	-16.6362	1.44756	-0.32148
0.3827	-2.27869	-4.25229	-0.123485	14.2822	-0.117892	0.31592	0.993923	-10.5331	2.35952	-0.32148
0.3833	-1.97487	-14.0198	8.11568	18.2528	-0.117892	-0.884576	0.402942	1.37426	1.44756	-0.32148
0.3840	-1.06339	-25.618	8.41754	22.5229	-1.02173	-2.43258	-1.12824	19.9908	-0.072378	-0.32148
0.3847	-0.759564	-28.9666	-1.65332	17.6452	-1.02173	-3.63308	-2.36392	35.5515	-0.694829	-0.32148
0.3853	-1.06339	-18.8978	-5.00799	-5.5537	-0.432271	-2.43258	-0.832746	39.2134	-1.91078	0
0.3860	-1.06339	-12.1891	-1.34461	-46.7486	0.196487	-0.600248	1.61177	46.2298	-3.43072	0
0.3867	0.455738	-16.4646	3.53989	-75.1332	0.471568	-1.2005	1.31628	45.931	-4.05317	0
0.3873	3.49399	-22.2579	2.31877	-58.6518	-0.432271	-2.71691	-1.45059	22.7308	-3.43072	0
0.3880	5.62077	-38.7341	-2.87445	-25.0815	-0.746649	-3.03283	-2.36392	5.03611	-1.91078	-0.32148
0.3887	5.62077	-49.1157	-3.47815	-7.68447	0.196487	-2.11666	-0.832746	-11.1392	-0.390841	-0.32148
0.3893	3.79782	-11.575	0.487078	0.248162	0.196487	-1.2005	0.0805883	-38.6073	0.535597	-0.32148
0.3900	1.67104	37.5523	0.78893	10.0121	-0.432271	-0.284328	0.0805883	-50.2074	1.75155	-0.32148
0.3907	1.97487	43.3572	-6.83968	18.5608	-1.02173	-2.43258	-1.45059	-36.4734	-0.072378	-0.32148
0.3913	2.58252	23.2196	-9.28193	18.8603	-1.02173	-2.71691	-2.65942	10.8319	-2.21477	-0.32148
0.3920	2.58252	11.0073	-6.22911	8.18079	-0.117892	0.94776	-0.214902	62.0978	-1.60679	-0.32148
0.3927	3.19017	7.64718	-5.30984	-2.19923	0.196487	3.38034	2.22961	65.7596	-1.60679	-0.32148
0.3933	3.19017	3.68455	1.39949	9.40449	0.196487	2.14826	1.61177	36.1575	-1.91078	-0.32148
0.3940	1.67104	0.938517	6.89456	33.5104	-0.432271	-1.2005	-1.12824	10.8319	-1.91078	-0.32148
0.3947	0.151913	1.54102	0.78893	49.0762	-1.02173	-3.34875	-2.65942	6.25672	-1.60679	-0.32148
0.3953	-3.19017	2.15511	-8.0608	52.1226	-0.117892	-2.11666	-0.832746	6.25672	0.23161	-0.32148
0.3960	-4.7093	2.76921	-16.9105	35.6498	0.785947	0.031592	1.31628	-6.8713	1.14357	-0.64296
0.3967	-3.79782	2.45637	-23.9286	11.5353	0.471568	0.31592	0.993923	-11.4465	-0.390841	-0.32148
0.3973	-3.79782	1.54102	-20.2652	-4.0305	-0.746649	-1.2005	-1.45059	-1.68155	-3.12673	-0.32148
0.3980	-3.49399	2.45637	-9.28193	-7.68447	-1.33611	-1.80074	-2.95491	1.9803	-4.35715	-0.64296
0.3987	-1.67104	4.29864	8.72625	-5.8532	-0.432271	-0.284328	-0.832746	-1.06697	-2.82274	-0.64296
0.3993	0.759564	5.51524	19.099	-5.8532	0.471568	0.63184	0.402942	-5.03611	-1.60679	-0.32148
0.4000	3.49399	5.81649	2.92933	-4.63806	-0.117892	0.94776	0.0805883	-12.3598	-1.91078	-0.32148
0.4007	5.01312	4.90115	-19.6546	-31.1829	-1.02173	0.031592	-1.12824	-20.2981	-3.43072	0
0.4013	4.10164	3.07046	-31.2553	-77.5721	-1.02173	-1.2005	-2.65942	-16.0217	-5.5731	-0.32148
0.4020	1.97487	3.37171	-32.7783	-66.285	0.196487	-0.884576	-0.832746	-1.37426	-4.66114	0
0.4027	0.455738	7.34593	-28.2025	-16.2332	0.471568	-0.600248	1.31628	4.72882	-0.998816	0
0.4033	0.455738	8.87536	-27.8938	11.8433	0.471568	-2.71691	0.402942	-3.5082	1.44756	-0.32148
0.4040	0.151913	3.07046	-31.8659	22.2148	-0.117892	-5.18109	-1.74608	-15.7144	4.50191	-0.32148
0.4047	0.151913	-0.590918	-17.8229	11.5353	-1.02173	-4.86517	-2.65942	-10.5331	6.32584	-0.32148
0.4053	-1.67104	3.37171	11.4704	15.1978	-0.432271	-1.80074	-0.537256	2.59488	4.19792	-0.32148
0.4060	-5.01312	1.23977	12.0809	55.1776	-0.746649	-0.600248	1.61177	-7.78463	2.9675	-0.32148
0.4067	-6.22842	-7.29958	-12.9453	63.7263	-1.02173	-1.51642	0.402942	-26.0939	2.9675	-0.32148
0.4073	-5.01312	-6.38423	-20.8758	56.0932	-1.33611	-3.03283	-1.45059	-28.2278	2.35952	0
0.4080	-3.49399	2.45637	-15.9913	36.2573	-1.65049	-3.34875	-1.74608	-12.6671	2.05553	0
0.4087	-2.88634	1.85386	-5.00799	-50.1116	-0.746649	-1.51642	-0.537256	14.801	0.839585	-0.32148
0.4093	-2.88634	-6.38423	25.8151	-95.8847	0.196487	-0.284328	0.698432	28.8339	-0.390841	-0.32148
0.4100	-3.19017	-10.0456	45.9569	-48.2804	-0.117892	-0.600248	0.993923	17.8483	0.23161	-0.32148
0.4107	-1.97487	-10.6597	36.7984	-12.2626	-1.33611	-2.71691	-1.45059	11.4465	0.23161	0
0.4113	2.88634	-8.52776	26.7276	-7.0769	-1.65049	-3.949	-2.36392	23.3453	-0.390841	0
0.4120	5.9246	-1.20501	26.1239	-2.8068	-0.432271	-2.11666	0.0805883	32.803	0.839585	-0.32148
0.4127	4.40547	3.07046	24.9027	-0.367965	0.196487	0.031592	0.698432	10.8319	1.44756	-0.32148
0.4133	1.67104	4.29864	18.4884	0.547668	0.196487	-0.600248	-0.214902	-41.3558	0.535597	0
0.4140	0.759564	8.26127	13.0002	1.16379	-0.432271	-2.43258	-0.832746	-77.061	-0.390841	-0.32148
0.4147	0.455738	10.706	14.8319	2.99506	-0.746649	-2.71691	-1.74608	-71.8712	-0.390841	-0.32148
0.4153	-0.455738	5.51524	20.9306	8.18079	-0.432271	-1.2005	-0.832746	-53.562	0.839585	-0.32148
0.4160	-1.97487	-3.33695	24.9027	13.3665	0.471568	-0.284328	0.993923	-37.0794	1.75155	0
0.4167	-2.58252	-6.69707	23.3729	16.1134	0.196487	-1.2005	0.993923	-11.7538	1.44756	-0.32148
0.4173	-2.27869	-6.69707	15.1337	17.9447	-0.432271	-2.71691	-0.832746	22.432	0.23161	-0.32148
0.4180	-1.67104	-10.961	6.59271	20.6916	-0.432271	-3.03283	-1.74608	48.671	-0.072378	0
0.4187	-1.67104	-15.2364	2.31877	24.3541	0.196487	-2.11666	-0.537256	55.3887	0.839585	-0.32148
0.4193	-1.06339	-16.7659	-0.123485	29.5399	0.471568	-1.51642	0.698432	46.2298	1.75155	0
0.4200	0.151913	-20.126	-0.432196	34.118	1.10033	-1.80074	0.993923	31.8897	2.66351	0
0.4207	0.455738	-25.004	-0.432196	39.6118	0.471568	-3.34875	-0.537256	23.9514	1.75155	0
0.4213	-1.36722	-24.0886	0.487078	46.0212	-0.117892	-4.26492	-1.74608	24.566	0.535597	-0.32148
0.4220	-2.27869	-20.4272	3.84174	53.0382	0.785947	-3.03283	-0.832746	27.3145	1.44756	-0.32148
0.4227	-1.67104	-20.4272	6.59271	55.4856	1.10033	-2.43258	0.698432	23.9514	1.75155	0
0.4233	0.151913	-19.5119	4.76102	34.7341	0.785947	-1.80074	0.698432	20.2895	0.535597	-0.32148
0.4240	2.88634	-10.961	-0.734048	10.3201	-0.117892	-1.80074	-1.12824	28.8339	-1.3028	-0.32148
0.4247	4.10164	3.68455	-3.1763	10.9277	-1.02173	-2.71691	-2.04157	42.2692	-2.82274	-0.32148
0.4253	3.79782	11.0073	-4.39742	24.6622	0.196487	-2.11666	0.0805883	34.6382	-2.82274	-0.64296
0.4260	4.40547	7.96002	-13.549	34.118	1.4147	-0.600248	1.90726	2.59488	-2.82274	-0.64296
0.4267	5.31695	3.9858	-24.841	33.8185	0.471568	0.63184	1.61177	-29.1497	-4.05317	0
0.4273	3.19017	0.324426	-28.5044	22.5229	-1.02173	0.31592	0.0805883	-38.3	-5.87709	0
0.4280	-0.151913	-4.55355	-17.5211	-29.9677	-1.65049	0.31592	-1.12824	-23.6526	-7.70102	0
0.4287	-1.97487	-5.78173	3.84174	-85.2052	-1.33611	1.86393	-0.214902	-4.43007	-8.01948	0
0.4293	-1.36722	-0.892171	16.6636	-67.8082	-0.117892	1.23209	0.993923	-1.98884	-4.96513	0
0.4300	-0.759564	-3.6382	15.7443	-25.0815	0.196487	-0.600248	0.402942	-23.0466	-1.60679	0
0.4307	-1.06339	-5.46889	16.9654	-4.33	-0.117892	-2.11666	-1.12824	-45.6237	-1.60679	0
0.4313	-1.97487	15.584	25.5133	14.2822	-0.117892	-3.34875	-1.74608	-45.6237	0.535597	0
0.4320	-1.06339	33.8909	22.4605	16.4215	0.196487	-1.80074	-0.832746	-25.7866	4.19792	0
0.4327	1.67104	21.6902	1.39949	-6.76884	0.471568	0.31592	0.402942	-3.5082	5.10989	0
0.4333	3.49399	2.15511	-28.8131	-20.5033	-0.117892	0.94776	1.31628	5.94944	5.71786	0
0.4340	3.49399	-5.16764	-66.3455	-41.5629	-1.65049	-0.884576	0.0805883	7.17005	2.66351	0.32148
0.4347	3.19017	-3.95104	-90.7612	-70.5551	-1.96487	-2.71691	-2.36392	7.77609	-3.7347	-0.64296
0.4353	1.67104	0.324426	-84.9643	-55.2974	0.471568	-1.80074	-0.537256	3.5082	-4.96513	-0.32148
0.4360	0.151913	1.54102	-68.4859	-23.2502	1.4147	-0.884576	1.31628	-2.59488	-2.82274	0.32148
0.4367	-0.151913	5.51524	-54.1411	-23.5583	0.785947	-1.2005	0.0805883	-5.03611	-2.51875	0
0.4373	0.455738	15.2828	-33.6907	-27.5289	0.196487	-2.71691	-1.45059	-6.8713	-2.21477	0
0.4380	-0.151913	18.3301	-6.53096	-9.21623	0.196487	-3.949	-2.04157	-9.61128	-0.694829	0
0.4387	-1.67104	10.092	23.071	3.91069	0.196487	-1.2005	-0.214902	-8.39067	-0.072378	-0.32148
0.4393	-1.97487	2.76921	62.1334	0.248162	-0.117892	2.14826	0.993923	-2.28759	-0.390841	-0.32148
0.4400	-1.67104	-2.12035	87.7633	8.18079	-0.117892	1.54801	0.402942	3.20092	1.75155	-0.32148
0.4407	-1.06339	-10.961	68.5408	27.101	-0.432271	-0.600248	-1.45059	6.55548	5.10989	-0.32148
0.4413	0.759564	-16.1518	34.6649	33.5104	-1.02173	-0.284328	-2.65942	12.6671	5.71786	-0.32148
0.4420	2.27869	-14.9352	17.8778	49.6838	-1.02173	1.86393	-0.214902	17.2423	6.02185	0
0.4427	1.67104	-14.6223	10.8598	44.19	-0.746649	3.06442	2.22961	15.1083	5.41387	-0.32148
0.4433	0.455738	-11.8763	8.41754	-31.1829	-0.746649	2.46418	1.90726	11.1392	1.44756	-0.32148
0.4440	0.759564	-6.99833	6.59271	-75.7408	-1.02173	0.94776	-0.214902	12.3598	-2.82274	-0.32148
0.4447	1.06339	-4.86639	2.62062	-33.3222	-1.65049	-0.600248	-2.04157	8.39067	-2.21477	-0.32148
0.4453	0.151913	0.324426	-1.04276	13.6746	-0.432271	-0.284328	-0.214902	-8.69796	1.75155	-0.32148
0.4460	1.36722	15.2828	-6.83968	31.9872	0.196487	-0.284328	1.90726	-24.8733	4.50191	-0.32148
0.4467	4.40547	31.1449	-11.7242	41.1436	0.196487	-0.600248	1.31628	-29.4484	4.19792	-0.32148
0.4473	4.10164	27.7963	-11.4155	47.2449	-0.432271	-1.51642	-0.537256	-27.0072	2.9675	-0.32148
0.4480	2.58252	9.17661	-7.75209	52.7387	-0.746649	-2.11666	-1.45059	-24.8733	2.05553	-0.32148
0.4487	1.97487	2.15511	-3.1763	54.2619	0.196487	-1.2005	-0.537256	-21.826	1.75155	-0.32148
0.4493	1.06339	3.37171	0.178367	43.8905	0.785947	0.031592	0.993923	-16.6362	2.05553	0
0.4500	-0.151913	-3.95104	-0.123485	37.481	0.196487	0.031592	0.993923	-15.1083	3.27148	0
0.4507	-0.759564	-13.4057	-2.56574	45.4137	-0.432271	-1.80074	-0.537256	-9.91857	3.58995	-0.32148
0.4513	-0.455738	-14.9352	-4.08871	29.8479	-0.432271	-3.34875	-2.65942	10.5246	1.14357	-0.32148
0.4520	0.151913	-7.91367	-1.65332	-22.0351	0.196487	-2.11666	-1.12824	28.5351	-0.072378	0.32148
0.4527	-0.151913	-4.55355	1.09764	-75.4413	0.471568	0.031592	1.61177	28.5351	-1.60679	0
0.4533	0.151913	-12.4904	-0.123485	-92.8298	0.196487	0.63184	1.61177	15.4071	-4.66114	-0.32148
0.4540	0.455738	-21.0413	-3.78686	-63.23	-0.117892	-0.600248	0.402942	-0.153644	-5.26912	-0.32148
0.4547	0.151913	-24.0886	-5.9204	-45.833	-0.432271	-2.43258	-1.45059	-6.56401	-3.12673	0.32148
0.4553	-0.455738	-29.5807	-3.78686	-76.6564	-0.117892	-0.600248	-0.214902	-1.98884	-1.60679	0
0.4560	-2.27869	-21.0413	-1.04276	-90.699	0.785947	1.23209	2.22961	0.153644	-0.694829	-0.32148
0.4567	-4.10164	22.2927	0.78893	-71.1626	1.4147	-0.284328	0.698432	-14.801	-0.072378	-0.64296
0.4573	-3.49399	57.7014	2.01006	-58.0443	1.10033	-2.43258	-1.45059	-32.8115	-0.998816	-0.32148
0.4580	-1.36722	46.4045	1.39949	-49.4955	0.471568	-3.03283	-1.74608	-28.8424	-1.91078	0
0.4587	-0.455738	19.5466	1.09764	-40.9553	0.471568	-1.80074	-0.537256	-6.8713	-1.60679	0
0.4593	0.455738	6.73183	2.01006	-37.2928	1.10033	-0.600248	1.31628	19.6835	-0.390841	0
0.4600	1.97487	4.29864	0.487078	-31.799	1.72908	-0.600248	0.993923	27.3145	-0.390841	-0.32148
0.4607	2.27869	0.625678	-0.734048	-22.0351	0.471568	-2.43258	-1.74608	4.72882	-0.390841	-0.32148
0.4613	0.455738	-1.80751	1.7082	-12.2626	-0.746649	-3.63308	-2.65942	-12.3598	0.839585	0
0.4620	-0.759564	0.324426	6.284	17.3371	-0.432271	-1.80074	-1.12824	-3.20945	1.44756	0
0.4627	-1.06339	2.76921	10.2492	74.4059	-0.117892	1.23209	0.698432	13.2731	-0.694829	-0.32148
0.4633	-1.36722	6.73183	13.6108	95.7649	-0.746649	2.7801	0.993923	22.1247	-2.82274	-0.32148
0.4640	-0.759564	1.54102	14.5232	63.1102	-1.33611	0.94776	-0.214902	25.4793	-3.12673	-0.32148
0.4647	-0.455738	-16.7659	13.9126	36.8649	-1.02173	-1.2005	-1.45059	30.0545	-1.3028	0
0.4653	-0.759564	-18.2953	13.302	39.6118	-0.117892	0.31592	0.402942	33.1103	1.44756	-0.32148
0.4660	-0.455738	-1.80751	7.50512	48.7681	-0.117892	0.94776	1.31628	33.7163	2.66351	-0.32148
0.4667	0.759564	6.73183	-3.78686	39.9199	0.196487	-0.884576	0.698432	37.0794	2.35952	0
0.4673	1.97487	8.56252	-12.3347	22.5229	0.196487	-2.43258	-0.537256	34.6382	1.14357	0
0.4680	1.97487	6.43058	-13.8577	14.5902	-0.432271	-2.11666	-1.12824	12.6671	-0.390841	0
0.4687	0.759564	-0.892171	-8.67136	6.34953	-0.432271	0.031592	0.402942	-14.4937	-0.998816	0
0.4693	-0.759564	-3.6382	-3.78686	-16.2332	-0.117892	1.86393	1.61177	-23.6526	-1.3028	-0.32148
0.4700	-0.455738	-11.8763	-17.2124	-34.8454	-0.117892	1.86393	1.61177	-15.1083	-1.3028	-0.32148
0.4707	1.97487	-18.5965	-43.7616	-30.2672	-0.746649	-0.284328	0.402942	-4.43007	-0.998816	0
0.4713	2.58252	7.96002	-59.0257	-15.0095	-1.02173	-0.600248	-0.537256	-4.12278	-0.390841	-0.32148
0.4720	0.151913	40.9124	-61.4679	-7.99253	-0.432271	1.23209	0.0805883	-12.9744	1.75155	-0.32148
0.4727	-2.58252	37.8651	-59.9381	-14.402	-0.432271	1.86393	1.31628	-27.3145	2.66351	0
0.4733	-4.10164	18.9441	-54.7517	-29.3601	-0.432271	1.23209	1.90726	-37.0794	1.44756	0
0.4740	-3.79782	11.0073	-52.6182	-38.5079	-0.746649	-0.600248	0.402942	-32.8115	0.839585	0
0.4747	-3.19017	9.17661	-27.2832	-29.6597	-1.33611	-1.80074	-1.74608	-23.9599	0.23161	0
0.4753	-3.19017	8.87536	49.9221	-3.41437	-0.432271	-0.600248	-0.214902	-16.6362	0.839585	0
0.4760	-2.58252	8.56252	102.719	23.7465	1.10033	0.63184	2.22961	-1.98884	2.05553	0
0.4767	-0.455738	7.04467	74.0359	30.4555	0.785947	0.94776	2.22961	13.8877	1.75155	-0.32148
0.4773	1.36722	7.34593	28.868	19.4764	-1.02173	-0.284328	-0.832746	14.4937	0.535597	-0.32148
0.4780	1.97487	7.04467	13.6108	13.067	-1.02173	-1.80074	-2.04157	7.17005	1.14357	0
0.4787	0.151913	2.45637	9.94737	21.9153	0.785947	-1.51642	0.0805883	10.5246	2.9675	0
0.4793	-2.27869	-1.50626	5.98214	39.9199	1.72908	-0.284328	1.31628	20.5968	2.9675	0
0.4800	-2.58252	0.0231733	5.98214	54.8695	1.72908	-0.600248	0.993923	28.5351	1.75155	0
0.4807	-0.151913	2.45637	8.41754	67.9964	0.785947	-2.43258	0.0805883	23.3453	0.23161	0
0.4813	1.36722	3.68455	1.7082	77.4523	0.196487	-3.03283	-1.12824	-9.00524	-1.3028	-0.32148
0.4820	-0.455738	3.07046	-4.69928	65.2495	-0.117892	-0.284328	-0.832746	-40.7413	-1.60679	-0.32148
0.4827	-2.88634	-2.72286	4.15046	33.5104	0.196487	0.94776	0.698432	-40.1352	-2.51875	-0.32148
0.4833	-1.97487	-11.2738	14.5232	-5.24563	0.196487	0.031592	0.993923	-23.6526	-4.35715	-0.32148
0.4840	0.759564	-18.5965	18.7971	-36.0691	-0.117892	-1.2005	0.402942	-12.6671	-5.5731	-0.32148
0.4847	2.27869	-19.8131	24.594	-20.8114	-0.746649	-2.11666	-1.45059	-6.8713	-4.66114	-0.32148
0.4853	1.67104	-14.3211	21.5412	15.5059	-0.117892	-1.51642	-0.537256	-1.98884	-1.60679	-0.32148
0.4860	1.06339	-8.21492	5.37158	-12.8788	0.785947	0.031592	1.90726	-0.153644	-0.390841	0
0.4867	2.27869	-5.46889	-7.14153	-65.3693	1.10033	0.94776	0.993923	-2.59488	-0.998816	-0.32148
0.4873	2.88634	-10.6597	-15.0788	-55.2974	0.471568	-0.884576	-1.12824	-5.03611	-0.072378	-0.32148
0.4880	0.455738	-28.6653	-23.318	-22.9507	-0.746649	-3.03283	-1.74608	-4.72882	0.839585	-0.32148
0.4887	-1.36722	-32.9408	-24.841	-8.90816	-0.117892	-1.2005	0.402942	-4.43007	1.75155	-0.64296
0.4893	-0.455738	0.0231733	-20.8758	-20.5033	0.785947	0.94776	1.90726	-2.90216	1.44756	-0.32148
0.4900	0.151913	29.3142	-18.7422	-48.2804	0.471568	0.94776	1.61177	-8.69796	-0.694829	-0.32148
0.4907	0.759564	24.7375	-23.9286	-49.4955	-0.432271	-0.600248	0.0805883	-19.9908	-1.60679	-0.32148
0.4913	2.27869	11.6214	-25.7603	-25.9971	-0.432271	-2.11666	-1.12824	-2.59488	-0.998816	0
0.4920	0.455738	7.96002	-5.30984	-1.5831	0.471568	-1.51642	0.0805883	34.9369	0.535597	0
0.4927	-3.19017	8.87536	19.099	15.5059	0.785947	-0.600248	1.61177	35.5515	0.535597	-0.32148
0.4933	-4.40547	5.51524	24.594	13.6746	0.785947	-0.600248	1.61177	5.94944	-1.60679	-0.32148
0.4940	-4.40547	3.37171	21.2394	10.0121	0.785947	-1.51642	0.0805883	-0.460932	-3.43072	-0.32148
0.4947	-3.79782	7.96002	25.2046	7.26516	-0.117892	-2.11666	-1.12824	9.61128	-3.12673	-0.32148
0.4953	-2.58252	11.9226	27.0363	-19.5877	-0.432271	-0.284328	0.0805883	15.7144	-3.12673	-0.32148
0.4960	-1.36722	11.6214	31.0015	-33.0141	0.471568	0.63184	1.31628	31.5824	-2.21477	-0.32148
0.4967	-1.67104	8.87536	58.7718	-5.24563	0.196487	-0.284328	0.0805883	56.302	-0.390841	-0.32148
0.4973	-1.67104	4.29864	67.6216	21.2992	-1.02173	-1.80074	-1.45059	65.4609	-0.694829	-0.32148
0.4980	0.151913	0.938517	31.6121	30.7635	-1.02173	-2.71691	-2.36392	29.1411	-1.91078	-0.32148
0.4987	1.67104	0.625678	8.11568	30.4555	0.196487	-1.2005	-1.12824	-24.2672	-2.21477	0
0.4993	2.27869	1.85386	6.284	25.8773	0.785947	0.31592	0.402942	-39.8279	-2.21477	0
0.5000	4.40547	3.68455	2.01006	25.8773	0.785947	0.31592	0.993923	-25.4878	-1.3028	-0.32148
0.5007	6.53225	3.68455	-4.69928	16.4215	-0.117892	-0.884576	-0.832746	-5.65068	-2.21477	-0.32148
0.5013	5.62077	3.68455	-13.8577	-6.76884	-0.746649	-1.80074	-2.04157	10.2173	-4.96513	0
0.5020	2.58252	6.73183	-21.1845	-15.6257	0.196487	0.31592	0.0805883	-3.5082	-4.05317	0
0.5027	0.455738	7.64718	-24.2304	5.74196	0.785947	1.86393	2.5251	-39.5206	-1.91078	-0.32148
0.5033	-0.151913	7.34593	-26.3708	22.5229	0.196487	0.63184	2.22961	-50.8135	-0.694829	-0.32148
0.5040	0.455738	7.04467	-29.4236	-9.8238	-0.432271	-1.2005	-0.214902	-41.9619	-0.998816	-0.32148
0.5047	0.455738	3.37171	-27.592	-39.7316	-0.117892	-1.51642	-1.12824	-40.7413	-0.998816	-0.32148
0.5053	1.06339	0.0231733	-17.5211	-14.402	-0.117892	-0.600248	0.0805883	-41.6546	2.66351	-0.32148
0.5060	0.759564	0.0231733	-6.53096	20.3835	-0.117892	0.31592	1.31628	-34.6382	7.25227	-0.32148
0.5067	-0.455738	-5.46889	2.92933	26.793	0.471568	0.31592	1.31628	-26.7084	7.86025	-0.32148
0.5073	-0.455738	-14.0198	16.6636	17.9447	-0.432271	-1.2005	0.0805883	-22.432	5.10989	0
0.5080	0.455738	-15.5377	24.594	13.9827	-1.33611	-1.80074	-1.12824	-0.153644	3.89394	0
0.5087	0.759564	-10.961	18.4884	14.5902	-0.117892	-0.600248	-0.214902	44.0958	4.19792	0
0.5093	1.67104	-4.55355	8.11568	11.5353	0.196487	-0.284328	0.402942	61.799	2.66351	-0.32148
0.5100	1.97487	-0.289666	0.487078	-12.2626	-0.117892	-0.600248	0.0805883	40.1267	1.14357	-0.32148
0.5107	1.36722	-5.16764	-3.78686	-48.8879	-1.02173	-0.884576	-0.832746	22.1247	-0.694829	-0.32148
0.5113	1.06339	-14.3211	-5.00799	-53.7742	-1.33611	-1.51642	-2.04157	15.1083	-0.694829	-0.32148
0.5120	0.455738	-14.3211	-3.78686	-31.4909	-0.117892	-0.884576	-0.537256	2.28759	1.44756	-0.32148
0.5127	-0.151913	-9.44311	-2.56574	-18.9801	0.471568	-0.284328	0.993923	-5.3434	2.05553	0
0.5133	-0.151913	-6.38423	-2.26388	-23.2502	0.471568	0.031592	0.993923	-1.98884	0.839585	0
0.5140	-0.759564	-4.25229	-3.1763	-26.9128	-0.432271	-1.2005	-0.537256	-1.68155	-0.998816	0
0.5147	-0.151913	-3.95104	-4.08871	-15.0095	-0.432271	-2.43258	-2.36392	-3.81549	-0.694829	-0.32148
0.5153	0.455738	-4.55355	-3.47815	-1.89117	0.785947	-1.51642	-1.12824	-1.68155	1.14357	0
0.5160	-0.759564	-3.0357	-4.08871	-0.0599012	1.10033	0.031592	0.698432	1.9803	1.75155	0
0.5167	-0.759564	-1.80751	-7.14153	0.547668	1.10033	0.63184	0.993923	3.81549	1.75155	0
0.5173	0.151913	-3.0357	-11.7242	2.687	0.196487	-0.284328	-0.537256	3.20092	0.839585	0
0.5180	-0.151913	-4.55355	-17.2124	2.99506	-1.02173	-2.11666	-2.65942	1.9803	-0.072378	-0.32148
0.5187	-1.06339	-4.25229	-17.5211	3.91069	-0.117892	-0.284328	-0.537256	1.37426	0.839585	-0.64296
0.5193	-1.36722	-3.0357	-15.0788	6.34953	1.10033	1.54801	2.22961	3.20092	2.05553	0
0.5200	-1.36722	-3.33695	-17.5211	8.18079	0.471568	0.63184	0.993923	5.33486	1.14357	0.32148
0.5207	-1.67104	-2.72286	-23.318	5.4339	-0.117892	-0.600248	-1.45059	3.5082	-0.072378	-0.64296
0.5213	-1.06339	-1.20501	-13.2472	1.4633	-0.432271	-0.600248	-1.74608	1.37426	-0.390841	-0.64296
0.5220	-0.455738	-1.50626	11.4704	2.37893	-0.117892	0.63184	0.402942	2.59488	0.23161	0
0.5227	-0.455738	-3.0357	22.7623	3.60263	-0.117892	1.86393	1.90726	3.5082	-0.072378	0
0.5233	0.455738	-3.0357	21.2394	4.51826	0.785947	1.23209	0.698432	3.5082	-0.072378	-0.32148
0.5240	0.759564	-3.0357	16.3549	8.78836	-0.117892	0.031592	-0.537256	5.94944	-0.072378	0
0.5247	0.151913	-1.80751	10.2492	10.0121	-1.33611	-0.600248	-1.12824	10.2173	-0.072378	-0.32148
0.5253	-1.06339	1.54102	7.50512	8.48886	-0.432271	0.63184	-0.214902	18.7702	0.839585	0
0.5260	-1.06339	4.29864	5.37158	8.18079	0.785947	0.31592	0.993923	30.3618	1.75155	0
0.5267	-1.36722	3.68455	2.92933	10.6196	0.471568	-0.600248	0.993923	38.9061	1.44756	-0.32148
0.5273	-1.67104	0.324426	0.487078	14.2822	-0.746649	-2.11666	-0.537256	42.8752	0.23161	-0.32148
0.5280	-0.455738	2.15511	-1.34461	14.8983	-1.33611	-3.949	-1.74608	41.6546	-0.998816	0
0.5287	0.759564	9.17661	-2.56574	16.1134	-0.117892	-3.34875	-0.537256	38.5988	-0.390841	-0.32148
0.5293	0.151913	10.706	-8.0608	18.5608	0.471568	-2.43258	1.31628	40.1267	0.535597	-0.32148
0.5300	-1.06339	8.26127	-17.5211	16.1134	0.785947	-2.43258	1.31628	32.1969	0.535597	-0.32148
0.5307	-1.67104	6.43058	-23.9286	15.8139	0.196487	-4.26492	-0.832746	1.9803	0.23161	0
0.5313	-2.27869	1.85386	-26.0621	23.4385	-0.746649	-5.46542	-2.04157	-32.1969	0.839585	0
0.5320	-1.67104	0.625678	-27.592	16.1134	-0.432271	-3.34875	-0.537256	-47.7577	1.44756	-0.32148
0.5327	-0.759564	0.938517	-28.5044	-7.68447	0.196487	-0.884576	0.993923	-45.6237	-0.072378	-0.32148
0.5333	-1.06339	-10.6597	-24.2304	-7.0769	0.471568	0.31592	1.90726	-38.9146	-0.694829	-0.32148
0.5340	-1.06339	-23.4745	-18.1317	20.3835	-0.117892	-0.884576	0.402942	-32.8115	-0.390841	-0.32148
0.5347	-0.759564	-16.7659	-5.61855	43.5824	-0.432271	-3.03283	-2.04157	-19.9908	-0.390841	-0.32148
0.5353	-0.151913	-0.590918	18.7971	57.6164	-0.117892	-2.71691	-1.12824	3.81549	1.14357	-0.32148
0.5360	1.36722	7.34593	37.409	67.3889	0.785947	-1.2005	0.993923	26.0939	2.66351	-0.32148
0.5367	2.27869	9.47787	41.9916	71.0428	1.10033	-1.51642	0.993923	23.9514	2.9675	-0.32148
0.5373	2.27869	10.706	34.0543	74.7054	-0.432271	-3.03283	-0.537256	-6.8713	2.05553	-0.32148
0.5380	1.06339	7.96002	22.1518	82.0304	-0.746649	-3.34875	-2.04157	-27.0072	0.839585	-0.32148
0.5387	0.455738	0.0231733	26.4257	90.2711	0.471568	-2.11666	-0.537256	-15.4156	2.35952	0
0.5393	1.36722	-6.38423	28.868	70.1272	0.785947	-1.2005	0.698432	-8.39067	3.89394	0
0.5400	1.67104	-4.55355	11.7791	-13.7944	0.471568	-1.2005	0.698432	-15.4156	2.35952	-0.32148
0.5407	-0.455738	-0.590918	-3.78686	-84.8971	-0.117892	-3.03283	-0.537256	-14.801	0.23161	0
0.5413	-2.27869	0.625678	-7.45024	-79.7114	-0.746649	-3.63308	-2.04157	-4.72882	-1.3028	-0.32148
0.5420	-1.67104	-0.289666	-3.1763	-70.247	-0.432271	0.31592	-0.214902	8.08338	-2.51875	0
0.5427	-0.151913	-3.0357	4.76102	-72.9939	0.196487	2.46418	2.22961	3.5082	-3.12673	0
0.5433	0.151913	-4.25229	10.2492	-75.7408	-0.117892	2.46418	1.61177	-20.6054	-4.35715	-0.32148
0.5440	0.759564	-1.20501	9.33681	-78.7958	-1.02173	1.23209	0.698432	-32.1969	-5.87709	-0.32148
0.5447	2.27869	4.90115	1.7082	-62.6224	-0.432271	-0.884576	-0.832746	-21.826	-5.26912	-0.32148
0.5453	1.67104	7.34593	-5.00799	-59.8755	0.196487	-1.2005	-0.832746	-8.69796	-3.12673	-0.32148
0.5460	0.455738	-0.289666	-1.95517	-66.8925	0.196487	0.31592	0.698432	-2.28759	-2.82274	-0.64296
0.5467	0.455738	-14.9352	11.4704	-29.3601	0.196487	0.31592	0.698432	3.81549	-3.7347	-0.32148
0.5473	-0.455738	-26.5334	22.7623	5.74196	-0.746649	-1.51642	-0.537256	10.2173	-2.82274	-0.32148
0.5480	-1.36722	-25.004	21.8499	0.248162	-1.65049	-2.11666	-1.74608	16.3289	-0.390841	-0.32148
0.5487	-1.06339	-17.0671	15.7443	2.687	-0.746649	-0.884576	0.0805883	23.0381	2.05553	-0.32148
0.5493	-0.455738	-14.0198	8.41754	17.3371	0.196487	-0.600248	0.993923	16.3289	2.9675	0
0.5500	1.06339	-13.4057	-0.432196	22.2148	-0.117892	-0.600248	0.402942	-13.5804	2.66351	0
0.5507	2.27869	-15.2364	-11.4155	12.4509	-0.117892	-1.51642	0.0805883	-43.1825	-0.390841	0
0.5513	2.27869	-23.4745	-21.795	-7.99253	0.196487	-2.43258	-0.537256	-41.0485	-3.7347	0
0.5520	1.06339	-33.8561	-19.6546	-22.0351	0.471568	-1.51642	-0.537256	-1.68155	-4.66114	-0.32148
0.5527	-0.455738	-35.0727	-9.58378	-19.2882	0.196487	0.031592	0.698432	45.0091	-4.05317	-0.32148
0.5533	-1.06339	-12.4904	-2.26388	-8.6001	0.196487	-0.284328	0.993923	61.4917	-4.35715	-0.32148
0.5540	-1.36722	7.96002	1.39949	-6.46933	0.471568	-1.51642	-0.214902	49.8916	-5.26912	-0.32148
0.5547	-2.58252	-9.13027	-7.14153	-7.38496	-0.117892	-2.71691	-1.74608	34.3309	-5.87709	-0.32148
0.5553	-3.79782	-32.9408	-22.0969	-2.49874	0.471568	-1.51642	-0.832746	25.172	-4.66114	0
0.5560	-3.19017	-36.6022	-33.9994	-2.8068	1.4147	0.63184	1.31628	23.3453	-3.7347	0
0.5567	-1.97487	-27.1359	-41.9368	0.248162	0.471568	0.94776	0.993923	14.1865	-1.91078	-0.32148
0.5573	-2.88634	-22.2579	-43.4597	17.0291	-0.432271	-0.884576	-0.537256	-12.9744	1.44756	-0.32148
0.5580	-3.49399	-38.7341	-30.3361	37.173	-1.02173	-1.51642	-1.12824	-34.6382	2.9675	-0.32148
0.5587	-1.36722	-57.3538	-12.026	57.9245	-1.02173	0.31592	0.402942	-27.6218	5.10989	0
0.5593	0.759564	-71.084	-1.95517	69.8277	-0.432271	1.54801	1.90726	-8.69796	5.10989	0
0.5600	1.36722	-78.7196	16.3549	56.0932	0.196487	1.54801	1.61177	-3.5082	2.05553	0
0.5607	2.27869	-35.9881	31.0015	42.9748	0.196487	0.031592	-0.537256	-7.17005	1.14357	-0.32148
0.5613	3.49399	52.5106	21.2394	42.9748	-0.432271	-1.2005	-2.04157	-2.28759	2.66351	-0.32148
0.5620	3.49399	90.0513	13.302	24.9617	-0.117892	0.31592	0.0805883	11.1392	3.58995	-0.32148
0.5627	2.27869	32.9756	9.94737	-3.41437	0.196487	1.86393	1.61177	24.566	2.9675	-0.32148
0.5633	1.06339	-21.6438	3.84174	-3.41437	0.196487	0.94776	0.993923	30.9763	2.35952	0
0.5640	1.06339	24.7375	7.19641	23.1304	-0.432271	-1.51642	0.0805883	31.2751	2.35952	0
0.5647	1.97487	100.12	17.2673	35.9493	-1.02173	-2.11666	-1.45059	30.3618	2.66351	-0.32148
0.5653	1.67104	103.781	22.7623	21.6072	-0.432271	-0.600248	-0.537256	27.0072	1.75155	-0.32148
0.5660	1.36722	73.5635	20.3201	2.07943	0.471568	0.63184	0.993923	17.5496	-0.390841	-0.32148
0.5667	3.19017	64.1088	10.8598	-58.0443	0.471568	1.54801	0.993923	8.08338	-3.12673	-0.32148
0.5673	3.49399	59.8334	0.487078	-130.67	-0.117892	0.63184	0.0805883	-1.37426	-6.48507	0
0.5680	1.97487	44.5738	-10.8049	-107.172	-0.746649	-1.80074	-1.12824	-27.3145	-6.18108	0
0.5687	1.36722	32.3731	-19.9633	-42.4785	-0.117892	-1.51642	-0.537256	-55.6959	-2.51875	0
0.5693	2.27869	23.8221	-16.9105	-13.7944	1.10033	-0.600248	0.402942	-56.9166	-0.390841	0
0.5700	2.27869	14.0546	-12.9453	6.34953	1.4147	-1.51642	0.993923	-35.8588	1.14357	0
0.5707	3.19017	11.0073	-16.9105	20.9997	0.471568	-3.03283	-0.214902	-12.9744	0.839585	-0.32148
0.5713	3.19017	14.0546	-12.026	21.6072	-0.117892	-3.63308	-2.04157	0.759684	1.14357	0
0.5720	1.97487	17.4147	0.78893	22.8309	0.785947	-2.11666	-0.832746	1.37426	5.41387	0
0.5727	-0.151913	21.9914	0.178367	23.1304	0.785947	-1.2005	0.993923	-11.7538	7.86025	-0.32148
0.5733	-2.58252	20.462	-11.1136	7.57322	0.471568	-1.2005	0.993923	-25.4878	6.32584	-0.32148
0.5740	-4.7093	7.34593	-12.3347	-13.4863	0.196487	-1.80074	-0.214902	-27.3145	4.8059	0
0.5747	-5.9246	-1.50626	-6.53096	-15.0095	-1.02173	-3.63308	-2.36392	-16.0217	3.27148	-0.32148
0.5753	-5.9246	3.37171	-2.26388	-11.9631	-1.33611	-2.43258	-1.12824	8.08338	2.9675	-0.964439
0.5760	-4.10164	9.47787	0.78893	-14.0939	-0.432271	0.031592	2.5251	26.6999	3.58995	-0.32148
0.5767	-3.49399	10.3932	6.59271	-11.0475	-0.117892	0.31592	2.22961	16.0217	2.66351	0
0.5773	-3.79782	11.6214	11.1685	-32.7146	-1.96487	0.031592	0.0805883	-12.6671	-0.390841	0
0.5780	-2.88634	10.3932	15.1337	-69.9475	-2.55433	0.94776	-0.537256	-17.5496	-3.12673	-0.32148
0.5787	-1.06339	0.0231733	19.4077	-59.8755	-1.02173	1.23209	0.0805883	8.08338	-3.7347	0
0.5793	0.759564	-9.74436	2.92933	-11.347	-0.117892	0.94776	0.698432	34.0236	-2.21477	-0.32148
0.5800	1.97487	-9.44311	-26.3708	24.0461	-0.432271	0.94776	0.698432	41.6546	-0.694829	0
0.5807	1.67104	-7.61242	-37.6628	34.118	-0.746649	-0.600248	0.0805883	23.9514	-1.3028	0
0.5813	1.67104	-21.9567	-33.9994	34.4261	-1.02173	-2.71691	-1.12824	1.06697	-1.91078	-0.32148
0.5820	1.67104	-50.3323	-24.841	39.6118	0.196487	-2.43258	-0.537256	-6.56401	-0.694829	-0.32148
0.5827	1.06339	-64.9778	-4.69928	28.9323	1.10033	0.63184	1.31628	-19.0775	-0.072378	0
0.5833	-0.151913	-64.0625	22.4605	-8.3006	-0.432271	4.29651	2.22961	-39.5206	-4.35715	0
0.5840	1.06339	-57.6551	29.1698	-21.1195	-1.96487	3.98059	0.698432	-47.4589	-9.53942	0
0.5847	4.40547	-35.9881	9.94737	-6.76884	-1.96487	0.63184	-2.04157	-37.9927	-10.1474	-0.32148
0.5853	4.10164	-26.2206	-1.95517	-29.0521	-0.432271	0.31592	-0.832746	-24.566	-6.78905	-0.32148
0.5860	0.759564	-59.7986	2.31877	-65.3693	0.785947	0.94776	1.61177	-12.3598	-3.7347	0
0.5867	-0.151913	-108.312	3.84174	-58.9599	0.471568	1.86393	1.31628	12.3598	-0.694829	0
0.5873	1.06339	-116.249	-0.432196	-40.6472	-0.432271	1.54801	-0.214902	38.5988	-0.072378	-0.32148
0.5880	3.19017	-65.8932	-3.1763	-36.3771	-1.33611	-0.600248	-1.74608	39.8194	-1.60679	-0.32148
0.5887	3.79782	-3.6382	-1.65332	-26.9128	-0.432271	-0.884576	-0.832746	12.9658	-0.694829	-0.32148
0.5893	2.58252	3.68455	1.39949	-15.6257	0.785947	0.31592	1.61177	-19.3847	0.839585	0
0.5900	2.27869	-32.0255	4.45231	-10.1319	1.10033	0.63184	1.90726	-28.5351	0.535597	0
0.5907	3.49399	-5.78173	2.62062	-3.72243	-0.432271	-0.600248	0.402942	-20.9041	0.23161	0
0.5913	5.62077	79.3684	-2.56574	-0.667471	-1.02173	-1.51642	-1.45059	-12.9744	-0.072378	-0.32148
0.5920	3.79782	102.565	-2.56574	-6.46933	-0.117892	-1.51642	-1.45059	-3.20945	0.839585	-0.32148
0.5927	0.455738	67.1561	0.178367	-8.6001	0.471568	-1.2005	0.402942	3.81549	2.35952	0
0.5933	-1.06339	47.6326	-1.34461	-4.33	0.785947	-0.600248	0.698432	2.59488	2.05553	0
0.5940	-1.36722	41.2137	-9.28193	-1.2836	0.196487	-1.51642	-1.12824	-3.20945	0.23161	-0.32148
0.5947	-1.36722	35.1191	-19.0441	2.687	-0.432271	-3.03283	-2.04157	-10.2259	0.23161	-0.32148
0.5953	-1.67104	35.4203	-20.5739	7.57322	0.471568	-1.80074	-0.537256	-15.1083	1.44756	-0.32148
0.5960	-2.58252	36.0344	-15.6894	7.87273	0.785947	-0.600248	0.993923	-14.4937	2.05553	0
0.5967	-2.58252	31.4577	-12.3347	6.9571	0.785947	-0.884576	0.402942	-12.0525	1.75155	-0.32148
0.5973	-1.67104	26.2669	-11.7242	7.26516	0.196487	-1.80074	-0.832746	-12.0525	0.535597	-0.32148
0.5980	-0.759564	22.6055	-6.83968	5.12583	-0.746649	-3.03283	-2.04157	-11.7538	-0.694829	0
0.5987	-1.06339	21.0761	13.6108	0.248162	-0.746649	-1.51642	-1.45059	-8.69796	-0.694829	0
0.5993	-1.06339	24.4362	34.9736	-2.19923	0.196487	0.31592	0.0805883	-5.03611	-0.390841	-0.32148
0.6000	0.759564	30.8436	33.7525	-0.367965	0.471568	-0.284328	0.698432	-2.90216	-0.694829	-0.32148
0.6007	1.67104	28.7117	21.8499	1.4633	0.196487	-1.80074	-1.12824	-1.37426	-1.91078	-0.32148
0.6013	1.06339	17.716	13.0002	0.855731	-0.432271	-2.43258	-2.36392	-1.37426	-2.82274	-0.32148
0.6020	0.151913	13.4521	8.11568	-0.975534	-0.432271	-1.2005	-0.832746	-1.37426	-1.91078	0
0.6027	-0.455738	17.716	6.284	-0.667471	0.196487	0.31592	0.698432	0.452396	-0.694829	-0.32148
0.6033	-1.06339	24.135	4.15046	0.855731	0.196487	0.031592	0.698432	0.452396	-0.694829	-0.32148
0.6040	-1.36722	31.4577	1.7082	5.4339	-0.117892	-0.884576	0.0805883	-1.37426	-0.390841	0
0.6047	-0.759564	29.627	-1.04276	12.4509	-1.65049	-2.11666	-2.36392	-3.5082	-0.694829	-0.32148
0.6053	-1.06339	6.43058	-2.26388	15.8139	-1.33611	-1.2005	-2.36392	-5.3434	1.14357	-0.64296
0.6060	-1.06339	-19.5119	-0.432196	14.5902	0.471568	1.23209	0.402942	-3.20945	3.58995	-0.32148
0.6067	-0.455738	-34.7715	-0.123485	14.5902	0.471568	0.94776	0.698432	1.37426	3.89394	0.32148
0.6073	-1.36722	-56.7397	-1.34461	17.0291	-0.746649	-1.2005	-1.45059	4.42153	3.58995	0.32148
0.6080	-0.759564	-82.6822	-1.65332	17.9447	-1.33611	-1.80074	-3.27726	6.55548	2.66351	0
0.6087	0.455738	-93.9792	-0.123485	17.6452	-0.746649	-1.2005	-2.65942	12.0525	2.66351	0
0.6093	-1.36722	-94.2804	1.39949	20.084	0.196487	-1.2005	-0.832746	17.8483	2.9675	0
0.6100	-2.27869	-100.074	1.39949	21.6072	1.10033	-1.51642	-0.832746	16.935	1.44756	-0.32148
0.6107	-0.151913	-138.53	2.62062	17.6452	1.4147	-2.43258	-2.36392	19.0689	-0.694829	0
0.6113	1.97487	-170.578	3.23118	10.6196	0.785947	-3.63308	-4.19059	31.5824	-1.3028	0
0.6120	3.19017	-90.6191	3.53989	7.87273	0.196487	-2.71691	-3.27726	34.9369	-0.390841	-0.32148
0.6127	2.88634	28.3988	3.84174	8.48886	0.785947	-1.51642	-1.74608	25.7866	0.23161	-0.32148
0.6133	1.06339	53.1247	0.78893	7.87273	0.471568	-1.2005	-2.04157	26.3926	-0.072378	-0.32148
0.6140	0.151913	67.469	-6.22911	7.57322	-0.117892	-2.11666	-2.65942	34.3309	-0.694829	-0.32148
0.6147	0.759564	113.236	-11.4155	7.26516	-0.746649	-3.34875	-3.57275	33.4176	-1.3028	0
0.6153	0.455738	99.8073	-12.026	7.57322	0.196487	-1.80074	-2.36392	37.3782	-0.390841	0
0.6160	-1.97487	36.3357	-11.1136	8.18079	0.471568	0.031592	-0.537256	36.7721	-0.072378	-0.32148
0.6167	-4.40547	5.21398	-9.28193	7.57322	-0.432271	0.031592	-1.45059	1.06697	-0.390841	-0.32148
0.6173	-3.79782	19.2454	-3.47815	6.9571	-1.33611	-1.80074	-2.65942	-33.4176	-0.694829	0
0.6180	-1.06339	31.759	7.50512	8.78836	-2.23995	-3.03283	-4.19059	-33.7249	-1.60679	-0.32148
0.6187	0.455738	17.1135	15.4424	11.5353	-2.23995	-2.11666	-3.27726	-27.0072	-0.390841	-0.32148
0.6193	1.36722	6.12933	16.6636	11.2358	-1.02173	-0.284328	0.698432	-23.0466	1.44756	0.32148
0.6200	2.58252	19.8595	11.7791	8.18079	-1.33611	2.7801	4.05628	-16.0217	0.535597	0
0.6207	2.58252	16.1981	-0.432196	6.04146	-2.23995	6.41318	4.05628	-8.39067	-0.072378	0
0.6213	1.36722	-23.1733	-8.36265	5.4339	-2.86871	7.64527	3.76079	-1.68155	-0.390841	0
0.6220	0.151913	-26.8346	-9.58378	6.34953	-1.96487	7.04502	4.67412	1.9803	-0.694829	-0.32148
0.6227	-0.455738	52.2094	-12.6366	8.48886	-1.02173	5.21268	3.76079	0.759684	0.23161	-0.32148
0.6233	-1.06339	121.173	-14.1596	9.09643	-0.432271	3.38034	0.402942	1.37426	0.535597	-0.32148
0.6240	-1.06339	98.8919	-20.5739	8.18079	0.471568	1.86393	-1.45059	3.81549	-0.998816	-0.32148
0.6247	-0.759564	50.0658	-47.425	6.34953	0.471568	-1.2005	-2.95491	2.89363	-1.3028	-0.32148
0.6253	-1.97487	30.2295	-66.6543	6.34953	1.10033	-0.884576	-2.95491	5.64215	-0.390841	-0.32148
0.6260	-3.19017	22.9068	-53.2219	5.74196	2.9473	0.94776	-0.537256	13.5804	0.23161	0
0.6267	-3.19017	24.4362	-40.1051	3.91069	2.9473	0.31592	0.993923	17.5496	-0.390841	0
0.6273	-1.67104	25.6528	-40.7156	2.07943	0.785947	-1.2005	-0.214902	16.0217	-0.998816	-0.32148
0.6280	-0.455738	12.5367	-44.0703	2.37893	0.196487	-1.51642	-2.95491	8.69796	-1.60679	-0.32148
0.6287	-1.97487	-6.08298	-48.6461	5.74196	0.785947	0.31592	-2.95491	-16.6362	-0.694829	-0.32148
0.6293	-4.10164	-21.0413	-15.9913	2.07943	1.4147	2.46418	0.0805883	-53.562	0.839585	0
0.6300	-4.10164	-29.8819	59.993	-10.4314	1.10033	2.14826	2.22961	-70.036	0.23161	0
0.6307	-2.58252	-32.0255	94.1776	-11.347	0.196487	-1.80074	0.993923	-61.193	-0.694829	0
0.6313	-1.36722	-21.0413	67.6216	-1.89117	-0.746649	-6.09726	-1.12824	-39.5206	-0.390841	-0.32148
0.6320	-1.36722	-3.33695	43.5146	3.29457	-0.117892	-6.38159	0.402942	-0.76822	0.839585	-0.32148
0.6327	-0.455738	-4.25229	32.8332	6.34953	0.785947	-4.54925	3.43844	43.4898	2.05553	0
0.6333	1.97487	-23.7874	32.2226	7.57322	0.471568	-3.949	5.26511	68.2009	1.75155	-0.32148
0.6340	3.19017	-36.3009	45.3463	3.60263	-0.117892	-5.46542	4.96961	62.0978	0.839585	-0.32148
0.6347	4.10164	-42.3955	42.904	1.16379	-0.746649	-6.38159	3.14295	37.3782	-0.072378	0
0.6353	4.7093	-27.75	22.7623	2.99506	-0.117892	-4.54925	1.90726	16.0217	-0.072378	0
0.6360	4.10164	25.0503	13.302	2.99506	0.785947	-0.884576	1.90726	7.17005	1.14357	-0.32148
0.6367	2.58252	45.4891	12.3896	1.77136	0.471568	1.23209	0.402942	19.3762	2.05553	-0.64296
0.6373	1.06339	14.3674	10.5579	3.29457	-0.432271	1.23209	-2.36392	48.3722	1.44756	-0.32148
0.6380	1.97487	-0.289666	8.11568	4.82633	-0.432271	-0.600248	-5.10393	52.6401	0.23161	0
0.6387	3.49399	1.23977	7.50512	5.12583	0.196487	-0.884576	-3.57275	17.8483	0.839585	-0.32148
0.6393	2.27869	6.43058	7.19641	4.51826	0.471568	-1.51642	-0.214902	-41.0485	1.14357	-0.32148
0.6400	1.67104	12.838	6.59271	1.77136	0.471568	-5.18109	2.22961	-82.8568	0.23161	-0.64296
0.6407	1.97487	6.73183	4.76102	0.547668	0.471568	-8.84576	2.5251	-66.3742	-0.390841	-0.32148
0.6413	1.06339	0.0231733	1.39949	-0.0599012	-0.117892	-10.9624	0.698432	-27.3145	-1.91078	0
0.6420	0.151913	-0.892171	1.7082	-0.367965	0.471568	-10.3622	0.698432	-10.2259	-1.91078	-0.32148
0.6427	-0.151913	1.54102	2.92933	0.855731	1.10033	-8.52984	1.90726	-5.94944	-0.390841	-0.32148
0.6433	-0.455738	3.37171	1.7082	0.248162	1.10033	-7.01343	0.698432	1.37426	0.839585	0
0.6440	-0.151913	-5.46889	-0.123485	-2.49874	0.471568	-6.38159	-2.65942	12.3598	0.535597	0
0.6447	-0.151913	-12.7916	-0.432196	-2.19923	-0.432271	-3.03283	-3.86824	19.9908	-0.072378	0
0.6453	-0.759564	-10.6597	0.78893	0.547668	-0.432271	3.69626	-2.36392	21.5102	0.23161	-0.32148
0.6460	-1.36722	-11.8763	0.487078	1.77136	0.471568	6.7291	0.402942	20.2895	1.44756	-0.32148
0.6467	-1.67104	-14.0198	-4.69928	0.547668	0.196487	2.46418	6.17844	16.935	1.44756	-0.32148
0.6473	-0.759564	-14.3211	-10.8049	-0.667471	-1.02173	-2.43258	9.2408	10.2173	-0.072378	-0.32148
0.6480	1.97487	-30.1948	-13.8577	-0.667471	-1.65049	-1.2005	6.79628	-0.76822	-1.60679	-0.32148
0.6487	1.67104	-34.1574	-11.1136	0.248162	-1.02173	3.38034	5.58746	-7.17005	-0.998816	0
0.6493	-0.759564	17.4147	-6.53096	2.37893	-0.432271	3.06442	5.58746	-0.76822	-0.072378	-0.32148
0.6500	-2.88634	57.0873	-7.75209	3.29457	-0.117892	0.94776	4.35177	-5.94944	0.839585	-0.32148
0.6507	-4.10164	42.4418	-13.8577	2.37893	-1.02173	-1.51642	4.67412	-26.7084	1.14357	0
0.6513	-2.58252	31.759	-18.1317	1.16379	-1.96487	-3.03283	5.26511	-28.5351	0.23161	0
0.6520	-0.759564	29.0129	-12.6366	0.248162	-2.23995	0.94776	4.96961	-16.0217	-0.072378	-0.32148
0.6527	-0.759564	8.56252	-3.78686	-0.367965	-1.65049	4.29651	4.67412	-6.56401	1.14357	0
0.6533	-0.455738	-17.6812	-2.26388	-0.667471	-1.65049	3.69626	3.14295	1.67301	1.44756	-0.32148
0.6540	-0.151913	-40.5648	-3.1763	-0.667471	-1.96487	3.98059	0.0805883	0.759684	0.535597	-0.32148
0.6547	0.455738	-60.714	-2.87445	-0.975534	-2.86871	4.61243	-3.57275	-1.06697	-2.51875	-0.32148
0.6553	0.151913	-79.6349	6.59271	-2.19923	-1.96487	4.89676	-3.86824	5.94944	-4.96513	0
0.6560	-1.36722	-91.8357	18.4884	-1.89117	0.471568	5.81293	-2.04157	6.25672	-4.66114	0
0.6567	-1.36722	-88.4755	12.0809	1.4633	2.00416	5.81293	-2.04157	5.33486	-3.43072	-0.32148
0.6573	-1.97487	-75.6607	4.76102	3.29457	1.10033	3.69626	-3.57275	5.33486	-4.35715	-0.32148
0.6580	-2.88634	-61.0152	9.0281	2.07943	-0.432271	0.94776	-4.80844	-5.65068	-5.26912	-0.32148
0.6587	-1.97487	-56.1372	9.94737	1.77136	-0.117892	0.31592	-2.95491	-16.6362	-2.21477	-0.32148
0.6593	-1.36722	-51.8618	7.80697	1.4633	0.471568	0.94776	0.0805883	-17.5496	3.89394	-0.32148
0.6600	-3.49399	-37.2163	7.50512	0.248162	-0.117892	0.31592	0.0805883	-7.78463	9.38019	-0.32148
0.6607	-5.62077	-36.6022	7.50512	-0.367965	0.196487	-1.51642	-1.12824	11.1392	9.38019	-0.32148
0.6613	-2.58252	-36.3009	5.06287	-0.975534	0.785947	-3.63308	-1.74608	17.8483	5.10989	-0.32148
0.6620	1.67104	-34.1574	4.76102	-1.2836	0.471568	-0.284328	-0.214902	5.94944	2.35952	0
0.6627	1.97487	-68.9521	8.41754	-0.975534	0.785947	3.69626	2.22961	-0.460932	0.535597	-0.32148
0.6633	1.97487	-130.292	9.33681	-0.667471	0.785947	5.49701	4.05628	10.2173	-1.60679	-0.32148
0.6640	2.27869	-164.159	4.45231	-0.975534	0.471568	14.3744	3.14295	22.432	-1.91078	-0.32148
0.6647	1.06339	-131.508	-1.34461	-1.89117	-0.746649	25.0525	-0.537256	21.2114	-1.60679	-0.32148
0.6653	0.151913	-59.7986	-3.1763	-3.11486	-0.117892	31.4656	-1.12824	13.5804	-0.998816	-0.64296
0.6660	0.455738	-5.46889	-3.1763	-2.49874	1.4147	33.5823	0.993923	10.5246	0.839585	-0.32148
0.6667	3.19017	2.76921	-6.22911	-0.667471	2.00416	29.0015	1.31628	12.6671	1.14357	0
0.6673	8.05138	-2.12035	-12.026	-0.0599012	2.31854	20.4716	-0.537256	17.2423	-0.694829	0
0.6680	11.1656	76.0083	-17.5211	-0.667471	2.31854	14.3744	0.402942	18.4629	-2.21477	-0.32148
0.6687	7.74755	189.534	-20.2652	-1.2836	1.4147	11.3099	3.43844	16.6277	-2.21477	-0.32148
0.6693	1.97487	187.089	-22.4056	-0.975534	1.4147	9.16168	4.35177	12.6671	-1.60679	-0.32148
0.6700	-1.36722	108.659	-24.841	-0.667471	1.10033	7.04502	3.43844	2.89363	-0.694829	-0.32148
0.6707	-3.49399	73.2623	-28.2025	-1.2836	-0.432271	3.69626	1.31628	-24.566	0.535597	0
0.6713	-4.40547	72.6482	-30.0342	-0.975534	-0.746649	-1.80074	-1.45059	-58.7517	2.35952	0
0.6720	-5.01312	53.426	-26.9814	-0.667471	-0.117892	-6.09726	-2.04157	-64.8548	5.71786	0
0.6727	-5.31695	-1.80751	-21.795	0.248162	1.10033	-8.52984	-1.45059	-45.3164	7.55626	0
0.6733	-3.19017	-54.295	-16.6018	1.16379	2.00416	-11.2783	-1.74608	-27.0072	4.19792	-0.32148
0.6740	1.06339	-57.3538	-1.04276	1.16379	1.72908	-14.3112	-2.95491	-15.7144	-0.694829	-0.32148
0.6747	2.88634	-50.6336	29.4785	1.4633	0.785947	-16.7754	-3.27726	-2.59488	-3.43072	0
0.6753	1.67104	-75.6607	45.3463	2.37893	0.471568	-18.892	-2.36392	7.47734	-1.91078	0.32148
0.6760	0.759564	-88.1743	28.2574	2.37893	1.10033	-20.1241	-2.04157	12.3598	3.89394	0.32148
0.6767	1.36722	-61.9306	7.80697	1.4633	1.4147	-20.1241	-3.27726	29.7557	9.0762	0
0.6773	1.67104	-22.5592	1.09764	0.855731	1.10033	-18.2918	-4.80844	45.6237	7.25227	0
0.6780	1.36722	32.9756	-2.87445	0.248162	-0.117892	-17.9759	-6.31275	33.7163	3.89394	0
0.6787	1.06339	104.697	-5.9204	-0.0599012	-0.746649	-18.6077	-5.10393	7.47734	10.5961	0
0.6793	0.759564	127.893	-5.9204	-0.367965	-0.432271	-17.0597	-2.04157	-14.4937	19.4552	-0.32148
0.6800	-1.67104	53.7272	-5.00799	-0.975534	-0.117892	-15.5433	-1.74608	-29.1497	15.7929	-0.32148
0.6807	-2.58252	-21.6438	-5.00799	-2.49874	-0.432271	-15.2273	-3.27726	-35.5515	9.98816	-0.32148
0.6813	0.455738	15.584	-4.08871	-4.63806	-0.432271	-12.1945	-3.27726	-32.5042	9.68417	-0.32148
0.6820	1.06339	74.1776	1.09764	-4.63806	0.785947	-7.29775	-4.48608	-18.7702	9.0762	-0.32148
0.6827	-2.27869	47.9339	7.19641	-3.11486	1.72908	-3.34875	-6.9306	-5.65068	4.8059	0
0.6833	-3.49399	-6.38423	9.63866	-2.49874	1.4147	-1.80074	-8.46178	-0.460932	-10.4514	0
0.6840	-1.36722	-18.8978	9.0281	-3.72243	0.196487	-2.43258	-10.5839	2.28759	-28.155	0
0.6847	1.36722	53.1247	6.89456	-4.33	-0.746649	-4.86517	-13.3508	6.55548	-27.2431	0
0.6853	4.40547	150.163	2.01006	-2.19923	0.196487	-5.78134	-12.4375	10.2173	-13.5057	0
0.6860	2.88634	128.496	-7.75209	-0.0599012	1.10033	-4.26492	-8.75727	13.8877	-4.96513	0
0.6867	-2.58252	11.9226	-18.4335	-0.975534	0.471568	-4.26492	-6.31275	14.801	-3.7347	0
0.6873	-5.01312	-73.83	-19.6546	-2.19923	-0.117892	-3.63308	-6.31275	12.9658	-4.96513	0
0.6880	-3.49399	-115.646	-12.9453	-1.89117	0.196487	-4.26492	-7.54844	9.61128	-6.18108	0
0.6887	-3.79782	-97.0265	-4.08871	-1.5831	0.196487	-7.61367	-6.01726	4.72882	-6.48507	0
0.6893	-5.62077	-13.707	9.0281	-0.975534	1.4147	-12.7948	-1.12824	20.5968	-3.7347	-0.32148
0.6900	-5.31695	21.6902	24.2922	-0.0599012	2.63292	-24.705	3.43844	56.9166	-0.390841	0
0.6907	-2.27869	61.05	38.3283	-0.667471	1.10033	-36.8995	6.17844	60.5784	0.23161	0.32148
0.6913	2.58252	186.487	40.1599	-0.667471	-1.33611	-40.2798	9.85864	13.8877	-2.21477	0
0.6920	4.7093	210.9	24.594	1.77136	-1.33611	-37.8156	15.3386	-32.8115	-4.35715	0
0.6927	4.10164	101.65	4.15046	2.687	-1.65049	-33.8666	20.2277	-47.7577	-3.43072	0
0.6933	4.40547	38.1664	-6.83968	1.16379	-2.23995	-30.202	22.0543	-43.4898	-4.96513	-0.32148
0.6940	5.01312	29.0129	-10.1943	-0.0599012	-2.23995	-27.7378	20.5232	-34.3309	-8.32347	-0.32148
0.6947	3.49399	-7.61242	-12.9453	-1.2836	-3.18308	-22.5567	17.4877	-28.2278	-11.0594	-0.32148
0.6953	1.97487	-56.4385	-12.9453	-1.89117	-3.18308	-12.7948	15.0432	-28.2278	-11.9858	-0.64296
0.6960	1.97487	-30.7973	-10.5031	-1.89117	-2.23995	-2.11666	11.9808	-27.0072	-9.23543	-0.64296
0.6967	2.27869	46.7173	-10.8049	-0.0599012	-1.33611	4.29651	6.17844	-19.6835	-8.62746	-0.32148
0.6973	2.27869	75.7071	-12.3347	1.16379	-0.746649	5.21268	1.31628	-12.9744	-8.01948	-0.32148
0.6980	1.06339	60.4475	-11.7242	1.4633	-0.746649	3.98059	-0.832746	-8.69796	4.8059	0
0.6987	0.151913	38.7805	-7.75209	2.37893	0.785947	3.06442	-1.12824	-2.90216	21.2791	-0.32148
0.6993	-0.455738	23.2196	-3.47815	2.687	2.31854	4.61243	-1.12824	2.59488	20.3672	-0.32148
0.7000	-1.67104	18.3301	-1.95517	2.687	2.63292	7.32935	-1.45059	3.81549	8.46822	0
0.7007	-1.67104	10.3932	-2.87445	2.07943	2.63292	12.2261	-4.80844	1.37426	-0.390841	0
0.7013	1.67104	-3.95104	-5.30984	1.4633	2.63292	21.6721	-8.75727	-1.68155	-8.01948	0
0.7020	4.7093	-15.8505	-5.00799	2.37893	2.9473	30.2336	-8.75727	-2.59488	-13.2017	0
0.7027	5.01312	-6.38423	-3.78686	2.37893	3.53676	33.298	-7.22609	-0.76822	-4.96513	0
0.7033	4.7093	26.881	-3.47815	1.4633	3.53676	35.7306	-6.01726	2.28759	5.71786	0
0.7040	4.7093	41.5265	-3.1763	1.16379	3.22238	37.5629	-5.72177	9.304	-4.05317	0
0.7047	2.58252	21.3773	-2.26388	0.547668	2.00416	30.5495	-6.63511	19.9908	-15.9521	0
0.7053	0.455738	12.2239	0.178367	1.16379	1.4147	16.8069	-3.86824	30.3618	-5.87709	0
0.7060	-0.151913	21.6902	1.09764	1.77136	1.10033	7.04502	0.993923	37.0794	9.98816	0
0.7067	-0.759564	11.0073	1.39949	-0.667471	0.196487	5.49701	2.5251	36.7721	9.98816	0
0.7073	-2.27869	-6.69707	2.31877	-3.41437	-0.432271	6.12885	0.993923	24.566	1.44756	0
0.7080	-2.58252	-4.86639	3.23118	-4.0305	-1.02173	5.81293	-1.45059	8.99671	0.23161	0
0.7087	-2.27869	4.29864	6.284	-1.89117	-0.432271	6.7291	-1.45059	2.89363	2.66351	-0.32148
0.7093	-2.88634	8.26127	9.33681	-0.367965	0.196487	9.4776	0.402942	-1.68155	1.14357	0
0.7100	-2.88634	3.37171	9.0281	-0.367965	-0.117892	13.4582	1.90726	-7.17005	-1.3028	-0.32148
0.7107	-2.27869	-5.78173	7.19641	-0.975534	-1.02173	17.4072	2.22961	-8.39067	-1.3028	0
0.7113	-3.19017	-10.6597	5.98214	-1.2836	-1.65049	20.1557	0.0805883	-9.00524	1.75155	0.32148
0.7120	-3.19017	-10.6597	5.06287	-0.975534	-0.432271	20.4716	-0.832746	-9.61128	8.77221	0
0.7127	-2.27869	-9.44311	1.39949	-0.0599012	0.196487	16.2067	-0.537256	-9.31253	16.7048	0
0.7133	-1.36722	-13.707	-4.39742	1.16379	0.196487	8.87735	-1.12824	-8.69796	25.8679	0
0.7140	-0.151913	-25.618	-8.97322	1.4633	-0.117892	3.06442	-2.65942	-9.00524	36.2324	-0.32148
0.7147	0.455738	-34.4586	-10.5031	1.4633	-0.432271	0.031592	-4.19059	-10.2259	38.0708	-0.32148
0.7153	0.151913	-42.3955	-6.53096	2.07943	0.785947	-1.2005	-3.86824	-8.69796	37.1589	-0.32148
0.7160	-0.151913	-48.2004	-1.34461	2.687	2.63292	-0.600248	-1.45059	-5.3434	39.8947	0
0.7167	0.455738	-43.6237	-1.34461	2.07943	2.31854	-0.284328	-0.214902	-3.20945	24.3335	0
0.7173	1.67104	-39.3482	-4.69928	-0.0599012	0.471568	-1.51642	-1.74608	-0.460932	2.05553	0
0.7180	1.67104	-36.6022	-6.22911	-1.2836	-1.02173	-3.949	-2.95491	3.5082	-1.91078	0
0.7187	0.151913	-40.2635	-4.08871	-1.2836	0.196487	-4.54925	-1.12824	6.86276	2.05553	-0.32148
0.7193	-0.455738	-57.6551	-0.734048	-2.19923	2.31854	-3.34875	1.31628	9.304	-1.3028	0
0.7200	-0.759564	-46.9722	-0.734048	-3.41437	1.72908	-3.63308	0.402942	7.77609	-4.96513	0
0.7207	-1.06339	-1.50626	-2.26388	-2.19923	0.471568	-6.38159	-0.832746	3.20092	-0.390841	-0.32148
0.7213	-0.759564	8.56252	-3.78686	-1.2836	0.196487	-11.5627	-0.832746	-1.98884	-6.78905	-0.32148
0.7220	-1.67104	-10.961	-3.1763	-1.5831	0.471568	-14.0269	1.31628	-4.43007	-19.0065	0
0.7227	-1.97487	22.6055	-0.734048	-1.2836	1.10033	-10.6465	2.82059	-4.12278	-11.9858	0
0.7233	-0.759564	71.1303	-0.432196	-1.2836	0.196487	-5.46542	2.82059	-4.12278	1.44756	-0.32148
0.7240	-0.759564	55.8707	-1.34461	-2.8068	-1.96487	1.23209	3.43844	-3.20945	3.89394	-0.32148
0.7247	-1.06339	25.6528	-1.95517	-4.63806	-4.08692	7.04502	2.5251	-2.28759	-1.91078	-0.32148
0.7253	-0.759564	27.7963	-1.65332	-6.16127	-3.18308	10.3938	0.402942	-1.68155	-8.62746	-0.64296
0.7260	0.151913	32.0602	-0.123485	-5.8532	-0.432271	13.7425	0.993923	1.06697	-15.3441	-0.32148
0.7267	1.36722	8.56252	1.39949	-3.72243	1.10033	3.38034	1.90726	4.72882	-14.4177	0
0.7273	1.06339	-24.7027	2.31877	-2.8068	0.471568	-23.7888	-0.214902	3.5082	-14.1137	0
0.7280	0.455738	-34.1574	1.39949	-4.63806	-0.117892	-46.9773	-1.45059	0.153644	-29.371	-0.32148
0.7287	-0.759564	-26.2206	1.39949	-5.8532	0.785947	-57.9713	-0.214902	0.759684	-35.7837	-0.32148
0.7293	-1.36722	-17.0671	2.31877	-4.0305	1.4147	-63.7527	0.993923	-1.06697	-20.8304	-0.32148
0.7300	-0.759564	-11.2738	1.7082	-1.2836	1.4147	-67.4173	1.31628	-6.25672	-8.01948	-0.32148
0.7307	-0.759564	-11.8763	1.09764	-0.667471	1.10033	-69.5656	0.993923	-5.3434	-8.01948	0
0.7313	-1.97487	-16.1518	0.78893	-0.667471	-0.117892	-72.3141	-0.214902	-3.20945	-11.9858	0
0.7320	-1.97487	-17.0671	1.7082	-1.2836	0.196487	-69.8815	0.698432	-1.98884	-10.4514	0
0.7327	-1.97487	-16.7659	3.23118	-0.367965	1.10033	-55.5072	1.90726	-0.153644	-0.998816	-0.32148
0.7333	-2.27869	-17.9825	4.76102	1.77136	1.72908	-36.6151	-0.214902	-0.76822	12.1306	0
0.7340	-1.67104	-19.8131	3.84174	4.2102	1.72908	-24.705	-4.19059	-5.03611	21.5831	0
0.7347	-2.58252	-21.9567	2.92933	4.82633	0.471568	-16.4594	-7.54844	-8.09192	24.9415	-0.32148
0.7353	-3.19017	-21.3426	5.37158	3.91069	0.471568	-4.86517	-7.54844	-3.81549	25.8679	-0.32148
0.7360	-2.58252	-17.3799	5.67343	2.687	0.785947	7.96119	-6.63511	1.9803	27.0838	0
0.7367	-1.36722	-9.44311	2.01006	1.77136	0.196487	17.7231	-6.01726	5.03611	30.7462	-0.32148
0.7373	1.06339	4.59989	-3.1763	-0.367965	-1.02173	22.304	-5.72177	8.69796	18.8472	-0.32148
0.7380	3.19017	9.47787	-8.0608	-3.72243	-1.96487	26.5689	-8.16629	3.81549	-24.1887	0
0.7387	2.88634	0.0231733	-7.45024	-5.24563	-1.02173	42.4281	-13.6463	-7.17005	-52.5754	-0.32148
0.7393	2.58252	-5.16764	-4.08871	-5.24563	0.196487	62.8997	-17.622	-9.61128	-38.838	0
0.7400	0.151913	-1.20501	-2.26388	-5.24563	-0.117892	71.7455	-17.9175	-4.43007	-26.0126	-0.32148
0.7407	-2.58252	0.625678	-1.04276	-5.5537	-1.65049	69.2813	-14.2641	0.153644	-24.7967	-0.32148
0.7413	-3.19017	-2.42161	-0.734048	-6.46933	-3.45817	65.3323	-11.8196	2.28759	-20.2224	-0.32148
0.7420	-2.88634	-2.42161	0.487078	-6.16127	-3.45817	64.4161	-8.75727	3.20092	-14.7217	-0.64296
0.7427	-2.27869	-0.289666	2.62062	-4.0305	-1.96487	54.6542	0.993923	3.5082	-13.8097	-0.32148
0.7433	-1.06339	-2.42161	2.62062	-2.49874	-1.65049	34.4985	13.8075	3.5082	-6.18108	0
0.7440	1.06339	-6.08298	1.09764	-0.667471	-2.55433	21.988	18.401	1.9803	23.4215	-0.32148
0.7447	2.88634	-7.91367	-3.1763	0.547668	-4.08692	20.1557	14.4253	-0.76822	58.8144	-0.32148
0.7453	2.58252	-8.52776	-8.97322	2.37893	-4.4013	21.6721	11.6853	-1.68155	77.126	-0.32148
0.7460	0.455738	-7.29958	-16.6018	5.74196	-3.18308	21.6721	10.1541	1.9803	80.7883	-0.32148
0.7467	-0.455738	-1.50626	-24.841	7.57322	-1.96487	17.4072	8.03197	6.86276	76.214	-0.32148
0.7473	0.759564	3.68455	-31.5572	6.65759	-0.746649	17.7231	5.88295	7.47734	66.139	0
0.7480	2.27869	-0.289666	-37.9647	4.82633	-0.117892	28.7171	2.82059	6.55548	40.5027	0
0.7487	1.97487	-10.6597	-33.3889	2.687	1.10033	37.5629	1.61177	9.91857	-4.66114	-0.32148
0.7493	0.455738	-14.6223	-15.0788	1.16379	2.31854	37.8472	2.22961	14.1865	-43.4123	-0.32148
0.7500	-0.455738	-7.29958	8.41754	0.547668	2.00416	36.3308	2.82059	13.8877	-56.5417	-0.32148
0.7507	-0.759564	2.76921	31.9208	1.77136	1.72908	32.6661	3.76079	12.9658	-47.3786	-0.32148
0.7513	-0.455738	8.87536	52.9749	3.60263	0.785947	26.253	3.14295	12.9658	-29.979	0
0.7520	-1.06339	7.34593	63.965	5.74196	0.785947	21.3878	0.402942	11.1392	-11.0594	0
0.7527	-2.27869	3.68455	58.1613	7.26516	2.31854	18.6393	-0.214902	6.25672	33.1925	0
0.7533	-1.97487	5.21398	31.6121	6.9571	2.63292	15.8908	0.402942	1.06697	91.1673	0
0.7540	-0.151913	-1.20501	-1.04276	5.74196	1.10033	13.7425	-0.537256	0.759684	113.445	-0.32148
0.7547	2.27869	-21.9567	-17.5211	3.91069	0.471568	10.0779	-2.36392	9.61128	103.674	0
0.7553	2.88634	-37.5175	-17.8229	2.07943	0.785947	6.7291	-2.65942	27.6132	107.655	-0.32148
0.7560	2.27869	-38.7341	-11.7242	-0.975534	1.4147	5.49701	-1.12824	46.5371	116.5	-0.964439
0.7567	1.97487	-31.1101	-5.9204	-2.49874	2.00416	3.06442	-0.214902	46.2298	70.1053	-0.32148
0.7573	1.67104	-17.6812	-3.78686	-4.0305	1.10033	-0.600248	-1.45059	31.2751	-41.2844	0
0.7580	1.06339	-14.3211	-4.69928	-7.38496	0.196487	-3.63308	-4.80844	24.8733	-143.815	-0.32148
0.7587	0.151913	-22.5592	-5.00799	-10.1319	0.196487	-6.69751	-5.72177	34.0236	-168.235	-0.32148
0.7593	-1.06339	-20.4272	-5.00799	-10.1319	0.785947	-10.9624	-3.27726	56.6093	-129.774	-0.32148
0.7600	-1.36722	-24.3899	-9.28193	-7.99253	1.10033	-12.4788	-2.36392	40.7413	-77.8932	-0.32148
0.7607	-0.759564	-41.1789	-12.6366	-7.68447	0.785947	-10.9624	-3.86824	-31.8897	-50.433	-0.32148
0.7613	-0.455738	-19.2106	-2.26388	-8.90816	0.196487	-23.7888	-5.39942	-68.2094	-48.5946	0
0.7620	-2.27869	27.1822	13.302	-8.6001	-0.746649	-47.5776	-3.86824	-46.8443	-25.7087	-0.32148
0.7627	-4.10164	35.1191	18.7971	-4.93757	-0.432271	-55.8231	-1.45059	-34.3309	10.5961	-0.32148
0.7633	-4.10164	18.0288	15.4424	1.77136	0.471568	-51.2422	-1.12824	-46.5371	13.6505	0
0.7640	-1.67104	11.0073	10.8598	6.65759	-0.117892	-46.9773	-3.86824	-50.5062	-7.70102	-0.32148
0.7647	1.67104	8.26127	5.37158	5.4339	-1.33611	-44.5447	-6.31275	-27.9291	-19.6144	-0.32148
0.7653	4.40547	5.81649	0.178367	2.37893	-1.33611	-45.145	-5.10393	-4.72882	-11.0594	-0.32148
0.7660	4.40547	6.43058	0.178367	2.07943	-0.746649	-45.7452	-2.95491	-0.76822	2.9675	-0.32148
0.7667	3.49399	5.21398	1.7082	2.07943	-0.432271	-45.4609	-2.04157	-9.91857	10.2921	0
0.7673	2.27869	1.54102	0.487078	-0.0599012	-0.746649	-49.1256	-2.36392	-17.8568	-10.4514	-0.32148
0.7680	1.36722	-0.590918	-1.34461	-3.11486	-1.65049	-47.8935	-2.04157	-18.4629	-55.6152	-0.32148
0.7687	0.151913	-0.892171	-1.65332	-3.72243	-1.65049	-42.3965	0.0805883	-18.1556	-69.6566	0
0.7693	-1.97487	-0.590918	0.487078	-2.19923	0.196487	-41.4803	4.96961	-19.0775	-44.6283	0
0.7700	-3.79782	0.0231733	9.63866	-1.2836	0.471568	-21.9564	10.772	-20.2981	-25.7087	-0.32148
0.7707	-4.7093	0.625678	17.576	-1.5831	0.196487	10.994	14.4253	-20.6054	-21.4384	-0.32148
0.7713	-5.31695	0.938517	16.3549	-1.5831	0.196487	19.8398	12.8941	-21.5187	-19.6144	-0.32148
0.7720	-6.22842	3.68455	12.3896	-0.975534	1.72908	16.2067	10.4496	-30.3703	-16.5601	-0.32148
0.7727	-6.53225	7.34593	0.487078	0.248162	2.63292	13.4582	10.4496	-44.7104	-13.8097	-0.32148
0.7733	-5.9246	7.96002	-18.7422	-0.367965	1.10033	7.32935	9.53629	-53.8693	-12.5938	-0.32148
0.7740	-4.40547	10.092	-30.0342	-0.975534	-0.117892	-3.34875	5.58746	-52.0341	-9.23543	0
0.7747	-0.759564	14.0546	-29.1149	-0.975534	-0.432271	-13.1107	1.61177	-44.4031	-0.072378	-0.32148
0.7753	2.27869	15.2828	-19.6546	-0.975534	-0.746649	-6.38159	2.5251	-38.6073	11.8266	-0.32148
0.7760	1.67104	8.26127	-4.69928	-1.2836	0.196487	6.12885	5.88295	-21.2114	20.0632	-0.32148
0.7767	-0.455738	-3.6382	13.302	-0.975534	0.196487	4.89676	4.05628	28.5351	22.8135	-0.32148
0.7773	-1.06339	-6.99833	25.5133	-0.667471	-1.33611	-1.51642	0.402942	88.038	23.4215	-0.32148
0.7780	-1.36722	-3.0357	20.6288	-0.975534	-2.23995	-0.284328	-2.65942	100.551	24.6375	-0.32148
0.7787	-1.97487	-3.95104	11.4704	-0.975534	-1.65049	9.16168	-3.86824	61.799	9.0762	-0.32148
0.7793	-0.759564	-9.13027	8.72625	-2.49874	-0.432271	6.12885	-0.537256	23.0381	-37.3036	-0.32148
0.7800	2.58252	-14.9352	6.284	-4.93757	-0.117892	-9.76193	2.5251	9.61128	-66.2982	-0.32148
0.7807	5.31695	-19.2106	3.84174	-5.8532	-1.02173	-3.949	0.402942	8.39067	-47.3786	-0.32148
0.7813	6.83607	-22.872	5.37158	-5.24563	-1.96487	22.5883	-3.57275	12.9658	-25.4047	-0.32148
0.7820	6.22842	-24.7027	9.33681	-3.72243	-1.96487	39.9955	-2.36392	17.8483	-19.6144	-0.32148
0.7827	5.01312	-22.2579	11.4704	-2.49874	-0.117892	35.4146	4.35177	16.0217	-12.2898	-0.32148
0.7833	4.40547	-16.7659	9.0281	-2.49874	0.785947	26.8848	5.88295	15.4071	-1.60679	0
0.7840	3.79782	-15.8505	5.67343	-2.49874	-0.117892	22.9042	1.90726	18.7702	5.71786	0
0.7847	3.49399	-19.5119	-1.95517	-3.11486	-1.96487	7.32935	-2.04157	19.3762	3.89394	-0.32148
0.7853	3.19017	-14.3211	-13.2472	-3.72243	-1.96487	-10.6465	-2.65942	11.4465	-2.21477	-0.64296
0.7860	2.27869	5.81649	-18.7422	-1.89117	-0.746649	-11.8786	-0.832746	-7.17005	-4.66114	-0.64296
0.7867	1.36722	25.6528	-17.5211	-0.0599012	-0.117892	-7.29775	-0.832746	-22.1247	-3.12673	-0.32148
0.7873	0.759564	21.9914	-15.3807	0.547668	0.196487	-6.69751	-1.74608	-24.8733	0.535597	0
0.7880	0.455738	2.45637	-14.1596	0.855731	0.196487	-5.78134	-2.36392	-25.1805	4.19792	0
0.7887	-0.151913	-4.86639	-11.7242	0.855731	0.471568	-5.78134	-0.832746	-23.9599	9.0762	-0.32148
0.7893	-0.455738	-1.50626	-8.36265	0.248162	1.4147	-10.0463	1.90726	-17.8568	13.6505	-0.32148
0.7900	-0.151913	0.625678	-5.61855	-1.89117	1.72908	-14.6271	2.5251	-12.0525	12.1306	-0.32148
0.7907	-0.151913	1.85386	-6.53096	-4.33	0.785947	-15.8592	0.402942	-8.09192	7.55626	0
0.7913	-0.151913	1.85386	-12.6366	-5.5537	-1.33611	-12.4788	-1.12824	1.06697	4.8059	-0.32148
0.7920	0.151913	1.23977	-15.0788	-5.24563	-1.96487	0.94776	2.22961	13.2731	2.35952	-0.32148
0.7927	-0.151913	1.23977	-10.8049	-3.41437	-1.65049	15.8908	3.14295	14.4937	-0.694829	-0.32148
0.7933	-0.759564	0.324426	-7.45024	-1.2836	-1.96487	19.8398	-1.74608	9.304	1.75155	-0.32148
0.7940	-0.151913	-1.50626	-6.53096	-0.975534	-2.55433	14.6587	-5.39942	8.39067	4.8059	0
0.7947	0.455738	-3.33695	-5.61855	-1.89117	-2.23995	8.24551	-5.72177	11.1392	3.58995	-0.32148
0.7953	0.759564	-3.95104	-4.08871	-2.49874	-1.02173	7.04502	-7.22609	14.4937	5.41387	-0.32148
0.7960	0.759564	-2.42161	-3.47815	-1.89117	1.10033	8.87735	-8.46178	15.7144	14.2585	-0.32148
0.7967	0.455738	-0.289666	8.41754	0.248162	2.63292	10.7097	-9.99296	16.0217	21.5831	-0.32148
0.7973	1.06339	-0.590918	25.8151	1.4633	2.00416	13.1423	-11.8196	15.4071	18.5432	-0.32148
0.7980	1.67104	-4.86639	19.099	1.77136	1.72908	12.542	-12.4375	15.1083	10.5961	0
0.7987	0.759564	-9.13027	1.7082	2.99506	2.31854	8.24551	-10.5839	15.1083	1.44756	-0.32148
0.7993	-1.36722	-11.2738	-3.1763	2.99506	2.63292	3.69626	-7.22609	15.7144	-6.18108	-0.32148
0.8000	-1.67104	-10.0456	-2.56574	1.77136	2.9473	0.31592	-3.86824	12.9658	-2.51875	0
0.8007	0.455738	-3.33695	-3.47815	0.855731	2.9473	-1.80074	-1.74608	8.39067	6.32584	0
0.8013	1.97487	3.37171	-5.30984	1.16379	2.00416	-4.26492	0.698432	11.1392	12.7385	0
0.8020	0.759564	7.34593	-4.08871	1.77136	2.00416	-6.38159	4.05628	16.3289	23.1175	0
0.8027	0.151913	10.706	-1.65332	1.16379	3.53676	-7.01343	4.96961	19.0689	35.6244	0
0.8033	1.06339	10.092	0.178367	-0.667471	3.22238	-9.13009	1.31628	22.1247	42.3411	0
0.8040	0.759564	8.56252	2.01006	-1.89117	1.72908	-10.9624	-2.65942	12.0525	43.5571	0
0.8047	-0.455738	8.26127	1.09764	-2.8068	1.10033	-9.44601	-3.86824	-8.09192	39.8947	0
0.8053	-2.88634	7.04467	-0.123485	-3.41437	1.10033	-7.92959	-2.04157	-10.8319	34.1045	-0.32148
0.8060	-5.62077	3.37171	3.53989	-3.41437	1.4147	-7.92959	-0.214902	0.759684	30.4422	-0.32148
0.8067	-5.62077	-3.33695	7.19641	-4.63806	0.785947	-6.09726	1.31628	3.5082	6.32584	-0.32148
0.8073	-3.49399	-8.52776	5.37158	-6.76884	-1.02173	-1.2005	2.22961	-14.195	-40.358	-0.32148
0.8080	-2.27869	-7.91367	1.09764	-7.0769	-3.18308	3.69626	0.698432	-39.2134	-60.204	-0.32148
0.8087	-3.19017	-4.55355	-0.123485	-5.24563	-4.08692	7.32935	-0.537256	-35.5515	-42.5004	-0.32148
0.8093	-4.40547	-1.20501	2.62062	-4.0305	-2.86871	7.96119	-1.12824	-11.1392	-24.1887	-0.32148
0.8100	-4.10164	0.625678	5.06287	-3.41437	-1.65049	4.29651	-1.74608	4.72882	-17.472	0
0.8107	-1.97487	0.625678	6.59271	-0.0599012	-1.02173	0.031592	-3.27726	13.2731	-15.6481	0
0.8113	0.455738	0.938517	4.76102	4.82633	-1.02173	-3.34875	-7.22609	19.3762	-15.3441	0
0.8120	2.88634	4.59989	4.15046	8.48886	-0.117892	-4.86517	-6.63511	20.2895	-3.43072	0
0.8127	4.40547	6.12933	7.50512	8.78836	1.4147	-1.80074	-1.74608	19.0689	18.2248	-0.32148
0.8133	3.79782	3.9858	3.23118	6.34953	1.4147	2.7801	-0.214902	16.3289	32.8741	-0.32148
0.8140	2.27869	1.54102	-6.53096	3.91069	0.196487	4.61243	-1.74608	-1.98884	38.9828	-0.32148
0.8147	1.06339	-0.892171	-11.1136	2.687	-0.746649	4.89676	-0.537256	-35.8588	36.8404	-0.32148
0.8153	0.151913	-1.80751	-9.58378	1.4633	-0.432271	6.12885	4.05628	-57.5311	36.5364	-0.32148
0.8160	-0.151913	1.54102	-4.39742	0.547668	0.196487	5.49701	7.09177	-57.8299	39.2868	-0.64296
0.8167	-0.151913	4.90115	1.39949	-0.667471	0.471568	6.7291	4.96961	-50.2074	10.2921	-0.32148
0.8173	0.151913	3.9858	2.62062	-4.0305	-1.02173	10.7097	0.402942	-44.0958	-37.3036	0
0.8180	1.06339	2.76921	-1.04276	-6.76884	-2.23995	-6.09726	-2.65942	-39.8279	-47.9866	-0.32148
0.8187	1.06339	3.07046	-2.56574	-5.8532	-2.23995	-40.2798	-1.45059	-34.6382	-28.459	0.32148
0.8193	-0.455738	3.37171	-0.123485	-4.93757	-1.65049	-46.6614	1.61177	-30.669	-16.2561	0
0.8200	-1.06339	2.15511	1.39949	-4.63806	-1.02173	-31.4025	-5.39942	-15.1083	-13.2017	-0.32148
0.8207	1.06339	-0.289666	0.178367	-4.0305	-1.02173	-29.886	-19.7441	20.5968	-8.62746	-0.32148
0.8213	1.36722	-2.42161	-0.734048	-4.0305	-2.55433	-29.886	-24.0153	43.7885	-4.05317	-0.32148
0.8220	1.06339	-2.42161	-0.734048	-4.33	-2.86871	-30.4863	-17.0041	35.5515	-3.7347	-0.32148
0.8227	1.36722	-0.892171	0.178367	-3.41437	-1.65049	-64.0686	-8.75727	18.4629	-3.7347	0
0.8233	1.36722	0.938517	1.7082	-3.41437	-1.65049	-107.097	-4.48608	8.69796	-3.7347	0
0.8240	1.36722	1.85386	-0.432196	-4.33	-1.96487	-126.021	-2.36392	4.42153	-7.09304	0
0.8247	1.36722	2.76921	-12.3347	-4.33	-1.96487	-131.518	3.76079	2.28759	-10.1474	0
0.8253	0.151913	3.68455	-26.6727	-2.49874	-1.65049	-128.453	11.3898	1.06697	-11.6818	-0.32148
0.8260	-1.97487	3.9858	-31.8659	0.248162	-1.02173	-118.375	18.401	1.06697	-13.5057	-0.32148
0.8267	-2.58252	4.90115	-29.4236	3.91069	-0.117892	-106.497	23.5855	1.37426	-8.32347	0
0.8273	-2.27869	7.64718	-19.0441	7.26516	0.471568	-89.0895	21.141	1.9803	-0.072378	0
0.8280	-2.27869	7.34593	-0.734048	6.34953	0.471568	-62.2363	17.4877	2.59488	-0.694829	-0.32148
0.8287	-1.97487	5.21398	17.8778	3.29457	1.4147	-39.3636	20.8455	4.72882	-2.51875	-0.32148
0.8293	-2.27869	3.37171	38.0195	1.4633	2.00416	-25.3052	27.5612	6.25672	0.839585	-0.32148
0.8300	-2.88634	-0.590918	57.5507	0.855731	1.10033	-10.9624	31.51	3.20092	2.35952	-0.32148
0.8307	-1.36722	-4.86639	57.2488	0.547668	0.196487	1.86393	29.3879	1.06697	1.44756	-0.32148
0.8313	-0.455738	-5.16764	31.0015	0.547668	-0.746649	7.96119	23.881	3.81549	-0.390841	0
0.8320	-1.97487	-1.50626	6.59271	1.4633	-0.432271	10.3938	19.0189	5.64215	-1.3028	-0.32148
0.8327	-2.27869	2.45637	-0.123485	2.99506	1.4147	25.0525	8.03197	7.17005	-0.390841	-0.32148
0.8333	-0.455738	5.21398	-1.34461	3.29457	2.9473	61.3517	-7.54844	12.6671	0.535597	0
0.8340	1.06339	0.625678	-1.04276	2.07943	2.00416	90.9534	-13.0285	11.4465	1.75155	0
0.8347	3.19017	-11.575	0.487078	0.248162	-0.432271	96.1345	-8.16629	1.37426	3.89394	-0.32148
0.8353	4.7093	-14.9352	2.62062	-0.975534	-1.33611	102.548	-2.95491	2.59488	6.93381	-0.32148
0.8360	3.79782	-7.29958	5.06287	-0.975534	-0.746649	115.69	-1.12824	19.6835	7.25227	-0.32148
0.8367	2.88634	-3.0357	-1.04276	-1.2836	-1.02173	110.193	0.993923	44.7104	6.02185	-0.32148
0.8373	3.19017	-2.12035	-8.97322	-1.89117	-2.55433	90.3531	6.17844	54.168	5.41387	-0.32148
0.8380	2.88634	-1.50626	-9.89249	-2.19923	-3.18308	78.443	7.41413	23.0381	-0.390841	0
0.8387	1.36722	-2.42161	-7.75209	-1.2836	-1.65049	69.5972	2.22961	-22.1247	-3.43072	-0.32148
0.8393	0.455738	-5.46889	-4.69928	0.855731	0.471568	57.4027	-1.45059	-41.0485	2.66351	-0.32148
0.8400	0.151913	-6.08298	-2.26388	2.37893	2.00416	48.8412	-2.95491	-32.8115	8.16424	0
0.8407	0.151913	-2.42161	-1.95517	2.99506	2.31854	41.8278	-4.80844	-19.6835	8.77221	0
0.8413	0.759564	0.625678	-1.95517	2.37893	1.4147	37.5629	-7.84393	-13.8877	6.02185	0
0.8420	-0.151913	2.15511	0.178367	2.07943	1.10033	38.4791	-10.2884	-11.7538	4.19792	-0.32148
0.8427	-1.67104	2.45637	2.01006	2.37893	2.63292	40.3114	-9.6706	-7.47734	3.58995	-0.32148
0.8433	-1.97487	3.68455	0.78893	2.687	2.9473	42.1437	-13.6463	-3.81549	2.35952	0
0.8440	-0.759564	4.29864	-2.26388	0.547668	2.00416	39.9955	-21.5708	-2.28759	0.23161	-0.32148
0.8447	-0.759564	3.37171	-6.22911	-1.5831	0.785947	33.298	-24.6332	-0.76822	-0.390841	-0.32148
0.8453	-1.36722	-2.12035	-7.75209	-0.367965	1.10033	27.801	-22.1887	0.759684	0.839585	0
0.8460	-0.455738	-8.82901	-3.78686	1.16379	1.72908	24.7365	-17.0041	1.06697	2.35952	0
0.8467	2.27869	-8.52776	0.178367	0.855731	1.4147	21.3878	-11.8196	5.94944	2.9675	0
0.8473	5.01312	-3.6382	-1.04276	0.855731	1.4147	16.491	-11.2018	14.1865	3.27148	0
0.8480	6.83607	0.938517	-5.30984	0.855731	0.196487	14.6587	-13.9418	12.3598	3.27148	0
0.8487	6.53225	4.90115	-7.75209	0.547668	-0.117892	12.8264	-13.9418	4.72882	2.35952	-0.32148
0.8493	5.01312	2.76921	-10.5031	0.855731	1.10033	12.2261	-9.07962	3.81549	2.9675	-0.32148
0.8500	4.40547	-4.86639	-17.8229	0.855731	1.72908	48.241	-2.65942	2.89363	5.71786	-0.32148
0.8507	3.49399	-7.29958	-24.841	-0.0599012	1.10033	106.212	0.402942	-6.25672	6.93381	-0.964439
0.8513	1.67104	-4.86639	-26.3708	0.547668	1.10033	128.801	-0.537256	-10.2259	5.71786	-0.32148
0.8520	-0.759564	-2.72286	-23.318	1.77136	1.4147	124.852	0.698432	-1.06697	5.10989	0
0.8527	-2.88634	-1.50626	-18.4335	1.16379	1.72908	118.438	4.05628	3.81549	4.8059	0
0.8533	-2.88634	0.625678	-13.8577	0.248162	1.4147	102.263	5.88295	-10.5331	2.9675	0
0.8540	-3.19017	6.43058	-2.87445	-0.667471	0.785947	76.6106	8.32746	-28.2278	1.75155	0
0.8547	-2.88634	14.9699	20.6288	-2.19923	0.196487	52.8218	11.6853	-31.2836	0.23161	0
0.8553	-1.06339	21.6902	40.4618	-3.11486	0.196487	36.0149	11.9808	-26.0939	-0.390841	-0.32148
0.8560	1.06339	21.6902	42.6022	-3.72243	0.471568	20.4716	8.03197	-24.8733	0.839585	-0.32148
0.8567	1.06339	15.2828	32.8332	-4.0305	0.785947	2.14826	2.82059	-33.4176	1.44756	-0.32148
0.8573	-2.58252	0.324426	21.8499	-4.33	0.471568	-16.7754	-0.214902	-37.0794	-0.072378	-0.32148
0.8580	-6.83607	-15.5377	10.2492	-5.5537	0.196487	-34.151	-1.45059	-21.826	-1.91078	-0.32148
0.8587	-7.74755	-15.5377	5.37158	-5.8532	1.10033	-44.5447	-2.36392	3.81549	-1.91078	-0.32148
0.8593	-8.65903	-9.13027	13.6108	-5.24563	1.72908	-45.7452	-4.48608	24.566	0.839585	-0.32148
0.8600	-10.8618	-9.13027	25.5133	-4.93757	2.00416	-53.3905	-5.10393	25.4793	3.27148	-0.32148
