MR32 ASCII
Name	USMC15_fast
Frequency	1500
Date	09-09-2015 13:58:11
"Time,s"	"RT TIB.ANT.,uV"	"RT MED. GASTRO,uV"	"RT LAT. GASTRO,uV"	"RT BICEPS FEM.,uV"	"RT VMO,uV"	"RT VLO,uV"	"RT RECTUS FEM.,uV"	"RT SOLEUS,uV"	"RT SEMITEND.,uV"	"Channel 12,uV"
0.0000	24.1333	120.481	-56.7759	2.3387	4.26906	6.84011	-2.4169	92.6496	-2.30377	-9018.38
0.0007	17.3999	9.10788	23.5078	-1.02007	3.65511	7.44891	-4.25664	177.795	-2.58731	-10401.1
0.0013	5.79998	-33.9253	169.971	-2.86117	3.35528	10.8152	-7.29881	189.095	-2.9063	-9533.56
0.0020	3.06666	-20.2329	260.312	-1.64206	3.04117	21.7917	-10.353	171.086	-2.58731	-9849.19
0.0027	16.7999	-19.316	244.72	-1.02007	2.74134	32.4816	-12.1807	180.885	-2.30377	-9854.99
0.0033	14.9333	9.10788	199.251	-1.02007	2.12739	32.786	-14.0205	204.368	-1.98479	-9789.87
0.0040	-11.2666	46.0284	209.011	2.01526	2.12739	29.4196	-13.1066	207.722	-0.460754	-9818.24
0.0047	-26.8666	31.9693	215.141	5.69746	2.4415	30.0284	-8.5253	192.45	1.98479	-9816.63
0.0053	5.53332	-12.8977	141.285	5.99602	2.4415	30.6372	-3.33076	111.277	2.30377	-9812.76
0.0060	68.3998	-56.5422	57.0735	5.07547	2.74134	23.9225	1.23851	-44.3606	1.98479	-9788.9
0.0067	98.2664	-86.1276	70.1664	4.77691	3.35528	12.9461	3.67947	-147.206	2.58731	-9902.38
0.0073	89.7331	-80.3205	75.3441	3.5578	3.35528	4.10048	2.76561	-181.989	1.98479	-9723.46
0.0080	71.7331	-54.4028	-19.818	2.63725	3.04117	-2.91868	1.23851	-242.107	1.06328	-9672.84
0.0087	60.1332	-52.569	-107.422	2.3387	3.35528	-8.41584	0.0240488	-287.88	0.460754	-10563.9
0.0093	61.0665	-59.5986	-149.855	2.01526	4.26906	-9.32905	-1.20244	-293.662	0.460754	-7248.42
0.0100	55.8665	-42.4831	-179.136	2.3387	4.26906	-8.11144	-1.80366	-316.571	0.460754	-794.706
0.0107	44.2665	-26.8958	-210.856	2.01526	3.35528	-8.72024	-2.72954	-268.944	-0.460754	107.68
0.0113	30.8666	-38.5098	-259.419	1.7167	3.95495	-5.67622	-0.589196	-122.797	-0.14177	-282.419
0.0120	9.46664	-56.8479	-305.78	2.63725	4.883	-0.787866	2.76561	-86.161	1.06328	33.5292
0.0127	-4.86665	-87.3501	-372.614	2.63725	4.56889	-0.17906	3.9921	-121.87	1.38226	38.6875
0.0133	1.2	-132.523	-467.836	2.3387	4.883	-0.483463	4.90596	-9.57835	1.06328	-26.7588
0.0140	21.9999	-67.7895	-477.298	1.7167	5.79678	0.429745	5.20656	150.031	1.06328	1.28958
0.0147	26.5333	74.3912	-354.344	1.11959	5.79678	1.95176	4.59332	171.086	1.06328	-0.644791
0.0153	9.46664	103.365	-212.404	0.796152	6.09662	2.86497	3.67947	141.821	1.38226	-0.967187
0.0160	-1.79999	51.5298	-67.1312	-0.099519	6.09662	1.64736	1.23851	192.45	1.6658	-0.967187
0.0167	-13.1333	34.72	112.004	-0.422956	6.09662	-0.787866	-2.4169	248.905	0.744295	-0.644791
0.0173	-31.7332	58.8039	162.65	-0.422956	6.39645	-2.00548	-5.4711	235.486	-0.460754	-0.644791
0.0180	-35.6666	48.7791	24.9957	-1.02007	6.39645	-2.30988	-7.91206	188.212	-0.779738	-0.644791
0.0187	-29.5999	-9.23014	-93.0791	-0.721513	6.39645	-1.39667	-6.9982	131.14	0.14177	-0.644791
0.0193	-36.9332	-27.507	-27.1382	0.497595	6.71056	-0.787866	-3.64339	99.7119	0.460754	-0.322396
0.0200	-34.1999	-2.81183	66.8337	0.199038	6.71056	-2.00548	-3.33076	113.13	0.14177	-0.322396
0.0207	-6.73331	-18.7048	10.6529	-1.02007	5.18284	-2.30988	-3.944	108.231	0.14177	-0.322396
0.0213	6.39998	-114.796	49.7533	-1.02007	4.26906	-1.09227	-5.17049	71.021	1.06328	-0.322396
0.0220	-6.73331	-210.031	282.273	-1.02007	4.26906	0.125342	-10.9663	47.1855	1.38226	-0.644791
0.0227	0	-118.158	341.786	-1.02007	4.26906	0.734148	-14.3211	46.3027	1.6658	-0.644791
0.0233	52.1998	82.0321	150.153	-0.422956	4.26906	-0.17906	-14.3211	75.2585	1.06328	-0.322396
0.0240	97.6664	119.258	-66.8337	-0.422956	5.18284	-1.09227	-17.0626	76.4944	-0.14177	-0.322396
0.0247	82.1331	74.0856	-222.759	-1.31863	5.48267	-0.17906	-19.5156	-2.86909	-0.460754	-0.322396
0.0253	40.9332	78.3645	-295.723	-1.94062	6.09662	1.64736	-18.9024	-62.9876	0.14177	-0.322396
0.0260	11	28.9129	-268.882	-1.94062	6.71056	3.47377	-16.4614	-63.2524	0.460754	-0.322396
0.0267	-23.1999	-40.9549	-130.93	-1.31863	6.71056	4.70929	-13.4072	-79.1428	0.744295	-0.644791
0.0273	-50.9332	-78.4867	93.6743	-1.02007	6.09662	5.01369	-10.9663	-61.7517	0.744295	-0.644791
0.0280	-52.1998	-173.417	355.534	-0.099519	6.09662	3.79608	-6.08435	25.8218	1.38226	-0.322396
0.0287	-45.4665	-228.369	543.537	1.11959	7.32451	5.01369	0.637293	91.1488	2.9063	-0.322396
0.0293	-42.1332	-205.753	466.884	0.199038	8.53812	14.1637	2.15237	129.286	3.18984	-0.644791
0.0300	-16.7999	-240.839	175.446	-2.86117	8.53812	22.0961	1.23851	150.031	2.30377	-0.644791
0.0307	35.1332	-237.783	-74.749	-4.67739	7.62434	25.4624	4.29271	132.64	1.38226	-0.322396
0.0313	78.4664	-93.1571	-219.129	-5.00083	7.0104	28.202	9.48725	126.858	0.744295	-0.322396
0.0320	95.5331	64.3053	-328.991	-6.51849	5.48267	30.3328	12.5294	121.031	1.06328	-0.322396
0.0327	78.4664	62.7771	-398.562	-8.03616	3.95495	32.4816	8.56137	-20.834	0.14177	-0.322396
0.0333	33.2666	-96.5191	-349.106	-8.65815	6.71056	31.5504	-1.20244	-250.052	-0.460754	-0.322396
0.0340	-3.66666	-157.829	-207.821	-8.03616	10.6798	26.3756	-6.9982	-323.898	-0.14177	-0.644791
0.0347	-13.4	35.0256	-114.444	-6.21994	11.8934	19.3564	-7.61144	-192.67	0.460754	-0.967187
0.0353	-14.9333	266.329	-55.5261	-3.78172	12.8072	11.7285	-6.08435	29.7944	0.744295	-0.322396
0.0360	-29.8666	313.03	66.8337	-2.86117	11.5936	4.70929	-2.11629	220.832	1.06328	-0.322396
0.0367	-35.3999	207.77	182.468	-2.23918	8.53812	-2.00548	2.465	325.84	0.744295	-0.967187
0.0373	0.933331	57.2757	217.581	-1.94062	6.71056	-8.41584	8.26076	385.65	0.744295	-0.644791
0.0380	55.5332	10.9417	232.519	-0.422956	5.18284	-14.2174	15.283	451.242	1.98479	-0.322396
0.0387	79.0664	104.282	183.718	4.77691	2.4415	-18.4969	18.6378	460.114	2.58731	-0.322396
0.0393	60.7332	110.395	-0.892703	9.9519	0.599667	-17.2614	18.6378	340.186	2.30377	-0.644791
0.0400	41.5332	47.5566	-191.634	8.73279	0.599667	-14.8262	18.6378	123.812	2.9063	-0.644791
0.0407	45.4665	96.0301	-241.387	3.85636	0.299834	-24.2806	18.3372	-74.2432	1.38226	-0.644791
0.0413	57.0665	97.2526	-226.151	2.63725	-0.928056	-40.7721	16.1969	-170.38	0.14177	-0.644791
0.0420	67.7331	-8.0076	-253.885	4.15492	-1.52772	-52.6617	9.17462	-256.453	0.460754	0
0.0427	71.3998	-76.6529	-308.518	2.93581	-2.75561	-57.2456	-0.288586	-323.898	-0.14177	-0.322396
0.0433	42.7332	-190.471	-331.133	0.199038	-5.19712	-52.6617	-3.33076	-254.025	-1.06328	-0.322396
0.0440	-7.33331	-329.962	-275.905	-1.02007	-6.41073	-43.5117	-1.20244	-126.152	-1.38226	-0.322396
0.0447	-33.5332	-357.714	-271.025	-1.02007	-4.58317	-35.8837	3.9921	-62.3696	-0.460754	-0.322396
0.0453	-41.7999	-386.749	-310.363	0.199038	-3.36956	-27.0381	7.96015	-53.4975	1.06328	-0.322396
0.0460	-64.6665	-464.563	-217.284	1.7167	-3.96923	-16.957	7.96015	27.6757	1.6658	-0.322396
0.0467	-93.3997	-415.417	-47.6108	2.93581	-1.52772	-14.8262	6.73366	258.704	2.30377	-0.322396
0.0473	-86.6664	-206.975	143.13	4.15492	4.26906	-16.0438	3.37886	452.169	2.30377	-0.322396
0.0480	-14.3333	13.6924	245.969	4.47835	8.53812	-14.5218	-0.889806	515.024	1.38226	-0.322396
0.0487	80.2664	149.455	232.222	4.77691	11.5936	-24.9073	-0.589196	533.342	0.744295	-0.322396
0.0493	113.533	123.537	373.209	5.99602	16.7764	-15.7394	1.85176	432.615	1.38226	-0.322396
0.0500	98.2664	68.5842	608.823	5.99602	22.5732	37.6564	2.76561	270.577	1.98479	-0.322396
0.0507	105.6	149.455	625.606	4.77691	22.2734	72.1434	5.20656	149.413	1.38226	0
0.0513	119	185.153	491.046	4.15492	7.92417	77.6406	9.17462	-47.7152	1.38226	0
0.0520	101	132.706	316.433	2.3387	-7.02467	94.723	8.56137	-297.326	1.6658	0
0.0527	80.5998	158.624	-61.0609	-0.099519	-9.16634	116.085	0.324659	-506.99	0.460754	-0.322396
0.0533	58.5998	234.91	-472.716	-0.721513	-9.46618	123.104	-14.9343	-656.536	-0.14177	0
0.0540	15.2666	277.332	-599.956	-2.86117	-12.8215	116.389	-25.9126	-655.609	-0.779738	0
0.0547	-32.3332	295.364	-547.822	-5.00083	-15.8769	106.935	-17.9885	-515.862	-1.98479	0
0.0553	-89.0664	294.447	-418.082	-5.59794	-16.4908	94.4186	-4.85786	-474.636	-2.9063	-0.322396
0.0560	-133.333	344.755	-259.122	-6.51849	-17.0905	64.8199	7.64752	-538.418	-3.8278	-0.322396
0.0567	-109.266	493.721	-145.57	-7.7376	-24.1152	21.7917	28.7022	-355.944	-4.74931	-0.322396
0.0573	-55.8665	581.01	8.21287	-9.87726	-32.6533	-6.89383	44.8871	15.14	-5.35184	-0.322396
0.0580	-41.7999	458.634	184.611	-10.4744	-28.6984	-11.1734	41.8329	233.676	-4.43033	-0.322396
0.0587	-24.0666	205.019	301.198	-7.7376	-10.0801	-9.32905	26.8745	380.75	-1.38226	0
0.0593	35.9999	43.889	267.93	-5.8965	3.35528	-9.02464	13.4553	557.133	1.38226	0.322396
0.0600	75.6664	22.4946	65.2863	-2.56261	-4.883	-14.2174	2.76561	610.851	2.58731	-0.322396
0.0607	53.7332	12.4699	-108.315	7.81224	-12.2075	-32.5353	-10.6536	495.514	4.43033	-0.322396
0.0613	11.9333	9.41352	-205.084	13.6341	-9.16634	-48.7044	-19.5156	302.932	6.55689	0
0.0620	-8.86664	40.527	-241.684	7.51368	-8.5524	-50.2264	-22.8704	5.07608	5.95436	-0.322396
0.0627	-28.3999	38.6932	-128.49	2.63725	-4.883	-50.8353	-21.0307	-342.525	4.71387	-0.644791
0.0633	-78.9998	-49.5126	-74.1538	2.3387	3.35528	-54.8104	-14.6217	-455.435	5.03285	-0.967187
0.0640	-110.8	-143.22	-256.979	2.63725	9.15206	-52.3573	-13.4072	-372.717	5.63538	-0.644791
0.0647	-80.8664	-164.248	-356.784	2.3387	15.2487	-48.7044	-13.4072	-265.281	5.03285	0
0.0653	-32.9332	-198.417	-269.477	2.93581	21.3596	-50.2264	-7.29881	-45.5523	5.35184	0
0.0660	-3.33332	-276.537	-170.923	4.77691	24.7149	-47.4868	-2.72954	172.631	6.87587	-0.322396
0.0667	-3.06666	-337.909	-21.0678	4.47835	22.5732	-36.1881	-6.08435	206.795	7.15941	-0.322396
0.0673	-19.1999	-297.32	225.794	3.85636	19.8319	-19.1057	-9.73976	218.095	6.2379	-0.322396
0.0680	-26.5333	-0.978028	475.454	4.15492	18.3041	-8.72024	-7.61144	291.014	5.03285	-0.322396
0.0687	-9.46664	331.979	575.258	4.47835	16.7764	-6.28502	-6.38496	252.568	4.11134	-0.322396
0.0693	43.0665	268.774	580.138	5.07547	17.0905	0.734148	-12.1807	133.876	5.95436	-0.322396
0.0700	99.1997	4.21774	646.971	5.69746	14.3349	3.16937	-19.8162	89.0301	8.3999	0
0.0707	120.533	-93.4628	705.533	4.47835	10.3657	-2.91868	-22.5578	80.467	8.08092	0
0.0713	103.8	-103.549	723.565	3.25925	9.15206	-5.67622	-22.8704	-25.1156	8.68344	0
0.0720	79.6664	-145.359	669.527	3.5578	8.53812	-5.67622	-26.2252	-296.443	9.32141	-0.322396
0.0727	93.7331	-160.58	430.58	3.85636	7.92417	-12.6954	-24.0849	-605.246	8.3999	-0.644791
0.0733	111.733	-152.328	98.2568	2.01526	8.83795	-17.5658	-14.9343	-714.845	7.15941	-0.322396
0.0740	73.8664	-247.258	-238.649	0.497595	10.3657	-12.0866	-10.0524	-573.244	6.55689	0
0.0747	24.7333	-414.5	-578.293	-0.099519	9.76601	-5.37181	-9.13854	-355.635	5.95436	-0.322396
0.0753	2.13333	-367.494	-836.522	-1.31863	7.0104	-2.61428	-10.9663	-249.434	5.63538	-0.322396
0.0760	-28.3999	-64.1831	-893.238	-1.02007	4.56889	-1.39667	-15.2349	-209.753	5.95436	-0.322396
0.0767	-74.1331	-4.03436	-596.623	0.199038	2.74134	-0.787866	-17.3753	-91.9433	6.2379	-0.322396
0.0773	-128.466	-330.268	-120.217	1.11959	1.21361	-2.00548	-18.5897	-4.36985	5.63538	-0.322396
0.0780	-137.933	-609.8	106.529	1.41815	0.299834	-3.22309	-19.8162	-13.8158	5.63538	0
0.0787	-31.9999	-690.671	133.37	2.3387	0.913779	-3.22309	-17.9885	84.1306	5.95436	0
0.0793	102.866	-642.136	290.188	2.01526	2.4415	-7.50263	-12.794	368.568	5.35184	-0.322396
0.0800	151.066	-625.082	494.676	0.497595	2.12739	-12.391	-8.21266	627.934	3.8278	-0.322396
0.0807	119	-717.567	515.149	-0.422956	-0.314111	-10.869	-6.38496	609.924	3.8278	0
0.0813	72.6665	-563.711	384.814	-0.422956	-1.84184	-6.28502	-4.25664	309.641	4.11134	0
0.0820	64.3998	-106.911	148.605	-1.31863	-1.52772	-1.70107	-1.50305	-57.1611	3.18984	-0.322396
0.0827	71.1331	262.967	-98.9115	-2.23918	-1.52772	1.95176	-1.80366	-283.29	2.58731	0
0.0833	53.1332	370.122	-184.968	-2.23918	-3.66939	3.79608	-6.69759	-330.917	3.50882	-0.322396
0.0840	29.9332	336.258	-154.14	-2.23918	-6.11089	6.53571	-8.82591	-385.517	4.11134	-0.322396
0.0847	16.4666	423.792	-96.1143	-2.86117	-5.49695	9.88414	-2.72954	-536.917	4.11134	0
0.0853	-22.5999	644.765	65.5839	-2.23918	-3.96923	10.1885	2.76561	-587.546	4.43033	0
0.0860	-67.3998	722.273	307.625	-1.02007	-3.96923	9.57973	3.37886	-443.208	6.55689	0
0.0867	-50.0665	664.325	438.853	-0.422956	-5.19712	9.88414	1.55115	-186.27	8.3999	0
0.0873	-4.53332	633.151	450.101	-1.02007	-6.41073	9.88414	-0.288586	108.231	7.79738	-0.322396
0.0880	35.3999	534.614	361.009	-2.56261	-7.63862	11.7285	-0.288586	307.522	5.95436	-0.322396
0.0887	82.9998	346.283	138.845	-4.37884	-8.85223	12.9461	-1.20244	301.122	5.95436	-0.322396
0.0893	87.2664	162.291	-92.7816	-5.29939	-8.5524	11.7285	-2.4169	167.113	5.63538	-0.322396
0.0900	28.0666	-71.4571	-222.462	-5.00083	-7.63862	12.0329	-0.889806	19.4215	5.35184	0
0.0907	-39.9332	-243.284	-293.283	-5.29939	-9.16634	12.3373	-0.889806	-108.452	4.71387	0
0.0913	-86.0664	-258.872	-440.995	-6.51849	-12.2075	11.7285	-2.4169	-182.916	5.03285	-0.322396
0.0920	-120.533	-333.63	-541.99	-7.14049	-14.649	11.4241	-2.72954	-156.652	4.71387	-0.322396
0.0927	-165.4	-449.281	-413.202	-5.59794	-13.4354	10.8152	-2.11629	-29.7061	4.11134	-0.322396
0.0933	-183.999	-365.049	-226.747	-2.56261	-8.5524	9.57973	-0.589196	114.322	4.43033	-0.644791
0.0940	-107.4	-73.2909	-95.5192	0.199038	-2.14167	6.2313	-1.50305	234.559	3.8278	-0.644791
0.0947	-8.19998	201.046	-17.0804	1.11959	4.56889	1.03855	-5.17049	331.005	0.744295	-0.322396
0.0953	-4.86665	216.633	50.9436	0.497595	7.92417	-2.00548	-8.5253	395.714	-1.06328	-0.322396
0.0960	-60.9998	26.4679	104.03	0.796152	8.83795	-4.4586	-9.43915	458.569	-1.38226	-0.322396
0.0967	-68.3331	5.74591	-71.4162	1.41815	10.6798	-5.98062	-8.21266	455.214	-1.98479	0
0.0973	-42.9999	72.2518	-430.283	1.11959	14.649	-7.80703	-9.73976	308.14	-4.43033	-0.322396
0.0980	-35.3999	-155.995	-718.983	1.11959	18.9181	-10.2423	-10.6536	164.377	-5.63538	-0.322396
0.0987	-23.4666	-361.076	-670.777	1.7167	19.532	-10.5467	-7.91206	128.977	-4.74931	0
0.0993	-16.1333	-277.149	-209.369	1.41815	17.0905	-10.2423	-7.91206	20.9664	-3.8278	0
0.1000	-6.06665	64.611	25.3528	1.41815	14.9488	-9.32905	-9.43915	-285.452	-2.58731	-0.322396
0.1007	-9.13331	486.691	-176.398	1.11959	14.649	-7.19823	-8.21266	-624.491	-1.06328	-0.322396
0.1013	-39.9332	506.19	-182.171	1.41815	14.9488	-5.98062	-6.38496	-709.018	-0.779738	0
0.1020	-12.8	372.873	20.7702	2.3387	15.8626	-4.4586	-4.25664	-456.362	-0.779738	0
0.1027	59.5332	276.415	171.518	1.7167	16.1625	-2.91868	-3.03015	-166.407	-1.06328	0
0.1033	73.5331	-50.7352	366.484	0.497595	15.5628	-2.61428	-4.25664	-5.60576	-2.30377	-0.322396
0.1040	54.6665	-362.909	443.733	-0.099519	15.2487	-1.09227	-2.72954	108.54	-2.30377	-0.322396
0.1047	64.7331	-520.066	352.499	-1.02007	12.8072	1.64736	0.637293	123.194	-0.779738	-0.322396
0.1053	50.3332	-576.853	456.826	-1.64206	10.0658	3.47377	1.23851	65.1946	0.14177	-0.322396
0.1060	-8.19998	-667.504	705.533	-2.23918	8.23829	4.10048	-0.288586	-6.5327	0.14177	-0.322396
0.1067	-46.9999	-749.903	725.41	-2.56261	5.79678	4.40489	-3.03015	-49.5249	-0.14177	-0.322396
0.1073	-48.7999	-377.885	480.334	-2.23918	4.56889	4.10048	-5.4711	75.5674	-0.460754	-0.322396
0.1080	-35.0666	165.042	130.632	-2.86117	5.48267	3.79608	-7.29881	247.404	-1.6658	-0.644791
0.1087	-31.1332	317.003	-120.574	-3.15973	5.79678	2.25616	-8.21266	264.486	-2.58731	0
0.1093	-39.9332	372.873	-80.5813	-2.86117	4.26906	1.34295	-7.61144	184.24	-2.58731	-0.322396
0.1100	-14	531.558	67.1312	-2.56261	2.74134	0.125342	-7.29881	61.222	-2.58731	-0.322396
0.1107	47.9332	372.873	151.343	-2.86117	3.04117	-0.483463	-6.9982	-25.4246	-3.18984	-0.644791
0.1113	73.2664	120.786	442.781	-1.94062	5.18284	1.34295	-4.25664	-50.4519	-1.98479	-0.322396
0.1120	46.0665	320.06	759.571	-1.02007	7.92417	3.79608	0.0240488	-77.9068	-1.38226	0
0.1127	10.6666	496.471	705.533	0.199038	9.15206	4.40489	2.465	-22.0699	-1.6658	-0.322396
0.1133	-9.46664	354.229	581.983	1.11959	7.32451	5.31809	3.9921	29.7944	-0.779738	-0.322396
0.1140	-28.9999	294.447	470.573	-0.721513	4.883	7.75332	6.12042	-77.024	0.744295	-0.322396
0.1147	-60.7332	349.034	217.581	-2.23918	4.26906	10.4929	9.48725	-217.08	1.6658	-0.322396
0.1153	-72.3331	304.778	-11.9027	-2.56261	3.95495	12.3373	13.1427	-280.553	2.58731	-0.322396
0.1160	-73.1998	171.46	-165.388	-3.45828	2.12739	10.4929	11.6156	-320.853	0.744295	-0.322396
0.1167	-114.133	95.7245	-278.94	-4.37884	1.82756	7.75332	10.0885	-361.108	-2.30377	-0.644791
0.1173	-148	121.398	-385.767	-3.78172	3.95495	6.53571	11.0023	-336.081	-3.8278	-0.322396
0.1180	-124.8	141.508	-442.185	-2.56261	6.71056	5.01369	10.4011	-198.453	-3.8278	0
0.1187	-67.3998	111.312	-358.867	-2.86117	9.15206	3.79608	8.87401	-1.3242	-5.03285	-0.322396
0.1193	-9.7333	109.172	-242.934	-3.15973	11.8934	3.16937	7.0463	111.277	-6.27334	-0.322396
0.1200	46.7332	150.372	-226.151	-1.64206	13.4211	3.79608	7.96015	128.05	-5.95436	-0.322396
0.1207	89.3997	110.701	-287.153	0.199038	15.2487	5.01369	10.0885	151.885	-5.63538	-0.322396
0.1213	86.9997	-14.4259	-427.545	0.199038	15.8626	4.40489	8.87401	172.013	-6.27334	0
0.1220	73.2664	-19.9273	-649.709	0.497595	14.649	5.9269	9.48725	131.713	-5.63538	0.322396
0.1227	53.7332	81.4208	-757.131	0.199038	12.5073	8.66652	12.8421	-83.7333	-4.74931	-0.322396
0.1233	-16.4666	17.9101	-708.032	-0.721513	11.5936	8.36212	12.5294	-360.534	-4.43033	-0.644791
0.1240	-99.7997	-133.745	-645.424	-1.31863	9.76601	7.75332	10.0885	-336.699	-3.50882	0
0.1247	-122.666	-31.4803	-565.795	-2.23918	6.39645	6.84011	7.64752	-106.598	-3.8278	0.322396
0.1253	-77.7998	268.469	-318.933	-2.56261	2.4415	8.05772	7.64752	-0.0882797	-4.11134	-0.322396
0.1260	-48.1999	401.236	196.811	-2.56261	-1.84184	9.88414	8.56137	74.9495	-2.9063	0
0.1267	-68.3331	283.75	655.839	-2.56261	-4.58317	8.05772	5.5192	195.231	-2.9063	0
0.1273	-51.5332	173.6	859.375	-2.56261	-6.72484	5.6225	0.937903	272.431	-3.8278	-0.322396
0.1280	16.4666	102.754	1011.02	-1.94062	-9.46618	4.40489	-2.4169	302.005	-3.50882	0
0.1287	43.9332	13.9369	1038.81	-1.31863	-12.5216	3.79608	-3.64339	172.631	-2.9063	0
0.1293	-15.5333	3.60648	908.474	-0.721513	-14.0493	2.86497	-4.25664	-95.0331	-2.9063	0
0.1300	-86.9331	-68.4008	787.661	-0.721513	-15.5628	-0.787866	-8.21266	-278.743	-4.11134	0
0.1307	-52.7998	-273.175	637.806	-0.721513	-15.8769	-3.8498	-10.9663	-279.052	-4.43033	0
0.1313	45.4665	-257.649	464.444	-0.721513	-14.9631	-4.4586	-10.6536	-145.662	-4.43033	0
0.1320	89.7331	-19.9273	332.026	-1.02007	-14.3492	-4.4586	-10.9663	-25.4246	-5.63538	-0.322396
0.1327	104.666	1.16141	158.663	-1.02007	-13.7352	-4.1542	-9.43915	19.7305	-6.55689	-0.322396
0.1333	111.066	-130.995	-28.6855	-1.64206	-13.4354	-4.4586	-7.29881	-16.5966	-6.87587	-0.322396
0.1340	43.6665	-203.613	-193.478	-2.23918	-14.649	-4.1542	-4.85786	-175.279	-7.15941	-0.322396
0.1347	-37.5332	-244.813	-452.898	-2.56261	-15.8769	-2.30988	-2.72954	-299.18	-7.15941	-0.322396
0.1353	-51.2665	-180.446	-732.433	-2.56261	-14.649	-0.17906	-0.889806	-297.944	-7.47839	0
0.1360	-48.1999	-136.19	-883.478	-2.56261	-14.0493	1.64736	1.85176	-277.507	-6.55689	0
0.1367	-66.5331	-126.41	-928.351	-2.86117	-14.9631	0.734148	2.15237	-241.489	-5.63538	0
0.1373	-92.4664	142.425	-795.934	-2.86117	-15.263	0.734148	2.465	-179.561	-5.63538	-0.322396
0.1380	-95.5331	470.798	-500.806	-2.56261	-15.263	2.56056	5.5192	-83.1153	-5.03285	0
0.1387	-68.6665	423.792	-229.484	-2.23918	-14.649	3.79608	8.26076	66.4305	-5.03285	0
0.1393	-21.6666	197.684	-47.3132	-1.31863	-12.5216	5.01369	11.0023	183.004	-4.43033	0
0.1400	57.3998	189.737	-18.0326	-0.099519	-10.0801	5.01369	12.5294	275.786	-4.43033	0
0.1407	119	227.269	-44.2781	0.796152	-9.16634	4.40489	11.9282	382.295	-4.43033	-0.322396
0.1413	128.2	87.8391	-14.0452	1.41815	-10.0801	5.01369	11.0023	394.169	-3.50882	-0.322396
0.1420	98.8664	-49.207	89.0917	2.01526	-11.6078	5.31809	8.26076	306.904	-2.30377	-0.322396
0.1427	33.5999	-139.247	362.259	2.3387	-12.2075	5.6225	6.12042	111.277	-1.06328	0
0.1433	-17.3999	-191.693	655.184	2.63725	-12.5216	5.01369	4.29271	-170.071	-1.38226	-0.322396
0.1440	-23.4666	-113.268	830.095	2.93581	-11.6078	3.47377	3.37886	-333.962	-2.30377	-0.322396
0.1447	-23.1999	3.91211	874.611	3.5578	-10.38	3.79608	6.12042	-216.771	-1.98479	0
0.1453	-27.4666	35.9425	725.41	3.85636	-10.0801	5.01369	6.73366	20.9664	-0.779738	0
0.1460	-20.4666	-7.39633	492.534	4.15492	-11.2937	6.84011	5.20656	123.503	1.06328	0
0.1467	3.39999	-81.8487	224.902	4.15492	-12.5216	7.14451	5.5192	235.486	1.06328	0
0.1473	23.1999	-166.387	-34.5178	3.25925	-12.8215	5.6225	6.43305	372.231	-1.38226	0
0.1480	10.0666	-160.274	-123.61	2.01526	-11.6078	5.9269	7.34691	257.159	-3.18984	0
0.1487	-13.4	-24.5118	-173.66	1.11959	-10.6941	7.44891	7.96015	-99.2705	-3.8278	-0.322396
0.1493	-28.0666	86.9222	-304.59	0.497595	-10.9939	8.36212	7.64752	-406.307	-4.43033	0
0.1500	-50.3332	122.315	-294.83	0.199038	-11.6078	7.75332	6.43305	-452.963	-5.35184	0
0.1507	-45.7332	59.4152	-169.078	0.497595	-11.6078	4.10048	4.90596	-332.726	-5.63538	0
0.1513	1.53333	-147.804	-294.83	1.7167	-10.6941	0.429745	5.5192	-126.77	-5.35184	0
0.1520	42.1332	-318.042	-656.137	2.01526	-9.46618	-1.70107	7.64752	181.459	-5.35184	0
0.1527	43.9332	-277.149	-899.368	2.63725	-9.16634	-2.30988	7.64752	294.413	-5.63538	-0.322396
0.1533	25.0666	-134.357	-944.539	3.5578	-10.0801	-2.30988	6.12042	37.4306	-4.74931	-0.322396
0.1540	0.333332	-24.8175	-870.385	2.93581	-11.2937	-0.787866	4.29271	-256.144	-4.74931	-0.322396
0.1547	-42.9999	26.1622	-605.491	1.7167	-12.8215	2.56056	3.9921	-338.862	-5.35184	-0.322396
0.1553	-83.9331	-3.72873	104.684	2.01526	-14.3492	5.6225	5.5192	-219.507	-4.43033	-0.322396
0.1560	-88.1997	-48.2901	939.302	1.7167	-15.263	6.2313	5.20656	-54.1155	-2.9063	0.322396
0.1567	-62.5331	-53.7915	1140.76	1.41815	-15.263	5.01369	1.85176	44.7578	-1.98479	0.322396
0.1573	3.99999	-97.436	816.942	1.7167	-14.649	2.25616	-2.11629	197.349	-2.30377	0
0.1580	92.1997	-160.886	506.877	1.41815	-14.3492	0.734148	-3.33076	328.268	-1.98479	-0.322396
0.1587	120.533	-155.69	345.774	2.01526	-14.3492	-1.09227	-3.33076	218.095	-1.98479	-0.322396
0.1593	94.3331	-116.019	269.18	2.63725	-14.0493	-3.52749	-3.64339	-12.006	-2.30377	0
0.1600	60.1332	-97.436	254.539	3.25925	-13.4354	-4.1542	-2.72954	-154.843	-2.30377	-0.322396
0.1607	22.9333	-98.0473	258.765	3.5578	-12.2075	-5.98062	-2.11629	-202.425	-2.58731	-0.322396
0.1613	-3.66666	-115.407	187.051	3.5578	-11.2937	-7.80703	-2.72954	-201.807	-2.30377	0
0.1620	-13.1333	-121.826	17.3779	4.15492	-10.6941	-7.80703	-1.50305	-200.616	-1.98479	0
0.1627	-31.7332	-91.3233	-155.925	3.85636	-10.38	-8.72024	-1.20244	-181.68	-2.58731	-0.322396
0.1633	-65.2665	-67.545	-241.684	3.5578	-9.76601	-9.63345	-0.889806	-91.0605	-2.9063	-0.322396
0.1640	-55.8665	-65.1	-282.927	3.85636	-8.85223	-9.63345	-0.589196	43.5219	-2.30377	0
0.1647	-5.19998	-61.4324	-259.419	2.93581	-7.32451	-9.02464	-1.50305	128.359	-2.30377	0
0.1653	17.9999	-52.2634	-128.787	1.7167	-6.41073	-7.19823	-2.11629	110.35	-3.18984	-0.322396
0.1660	10.4	-3.4231	-72.666	0.796152	-5.81106	-5.37181	-2.11629	78.9221	-4.43033	-0.322396
0.1667	-4.53332	40.527	-235.614	0.497595	-6.11089	-3.52749	-1.50305	111.277	-5.63538	0
0.1673	-28.9999	35.0256	-429.092	-0.099519	-7.02467	-2.00548	-1.80366	88.1031	-6.55689	-0.322396
0.1680	-44.8665	51.5298	-480.036	-1.94062	-7.02467	1.34295	-2.72954	-36.1064	-7.47839	-0.322396
0.1687	-34.7999	75.9194	-341.191	-3.15973	-7.02467	5.01369	-1.20244	-89.8246	-8.08092	0
0.1693	-24.9999	59.4152	53.3836	-3.45828	-7.02467	5.31809	0.324659	-21.452	-8.3999	-0.322396
0.1700	-24.3999	38.082	384.517	-3.78172	-6.72484	5.01369	0.937903	96.0483	-7.79738	-0.322396
0.1707	-6.39998	46.6397	351.546	-3.78172	-7.02467	5.6225	0.324659	215.049	-6.27334	0
0.1713	22.2666	46.3341	153.188	-4.37884	-7.32451	5.01369	-2.11629	243.431	-5.63538	0
0.1720	27.1999	-6.1738	-1.84492	-4.08028	-7.93845	4.10048	-3.64339	141.203	-4.11134	-0.322396
0.1727	-4.86665	-76.9585	-81.474	-3.15973	-7.93845	1.95176	-3.944	-3.13393	-3.18984	-0.322396
0.1733	-34.7999	-110.517	-160.21	-2.86117	-7.63862	-1.70107	-3.03015	-84.6161	-3.18984	-0.644791
0.1740	-26.8666	-92.2402	-277.095	-2.86117	-7.93845	-3.52749	2.76561	-100.815	-2.9063	-0.322396
0.1747	-11.2666	-51.0408	-425.403	-3.15973	-7.93845	-3.22309	8.56137	-112.733	-2.9063	-0.322396
0.1753	-13.7333	-11.0639	-564.248	-2.86117	-7.63862	-2.61428	8.56137	-112.733	-3.18984	-0.322396
0.1760	-18.5999	22.8003	-515.744	-1.94062	-7.63862	-3.8498	4.29271	-59.324	-3.50882	-0.322396
0.1767	-13.7333	57.887	-393.682	-1.64206	-8.25256	-4.76301	1.85176	55.7486	-3.18984	0
0.1773	-3.33332	112.534	-411.715	-2.23918	-9.46618	0.125342	1.23851	175.986	-3.50882	0
0.1780	2.73333	178.429	-284.118	-2.23918	-9.76601	4.10048	-1.50305	234.559	-4.43033	-0.322396
0.1787	6.39998	150.983	77.4866	-1.02007	-8.5524	0.734148	-5.4711	257.159	-4.11134	-0.322396
0.1793	24.7333	26.4679	230.734	-0.099519	-6.72484	-3.8498	-8.82591	301.696	-2.9063	-0.322396
0.1800	52.7998	-8.31324	126.645	0.199038	-5.49695	-6.89383	-10.0524	354.222	-1.98479	-0.322396
0.1807	58.9332	41.4439	165.388	0.796152	-3.96923	-9.32905	-8.82591	340.76	-0.779738	0
0.1813	41.7999	88.756	364.401	0.796152	-2.14167	-9.63345	-8.5253	185.123	-0.779738	0
0.1820	37.8666	186.375	491.046	0.199038	-1.52772	-8.72024	-6.9982	-64.1794	-1.06328	-0.322396
0.1827	57.6665	209.909	547.465	-0.422956	-1.22789	-9.02464	-3.944	-236.325	-0.460754	0
0.1833	79.9998	46.3341	499.854	-0.721513	-0.928056	-9.02464	-1.50305	-196.643	0.14177	0
0.1840	86.6664	-93.7684	284.118	-0.721513	-1.22789	-6.58942	2.465	-47.0972	-0.460754	0
0.1847	82.3998	-141.692	68.024	-1.02007	-0.928056	-2.61428	10.7017	-37.3423	-0.14177	-0.322396
0.1853	71.3998	-209.726	-7.9153	-1.02007	-0.613945	-0.483463	17.1107	-155.152	1.38226	-0.322396
0.1860	55.2665	-236.56	6.72503	-1.02007	-2.14167	0.429745	17.724	-277.198	1.98479	-0.322396
0.1867	45.1999	-189.615	46.6586	-0.099519	-3.05545	2.86497	15.5836	-351.353	3.18984	-0.322396
0.1873	36.9332	-135.885	95.2216	0.497595	-4.58317	6.2313	14.9704	-332.726	3.8278	-0.322396
0.1880	24.7333	-96.2135	163.9	-1.02007	-5.81106	8.36212	15.5836	-235.089	2.30377	-0.322396
0.1887	10.6666	-82.1543	237.102	-1.94062	-6.11089	9.27533	14.3692	-89.5156	1.6658	0
0.1893	-11.8666	-91.0177	270.37	-1.94062	-5.81106	8.97093	11.315	24.3211	0.744295	0
0.1900	-35.6666	-93.7684	257.872	-2.23918	-5.19712	7.44891	9.17462	29.1764	-0.779738	-0.322396
0.1907	-39.9332	-83.3769	202.048	-1.64206	-4.58317	1.95176	6.73366	-35.4884	0.460754	-0.322396
0.1913	-23.4666	-76.9585	135.215	-0.099519	-3.96923	-5.67622	3.07825	-96.2249	1.98479	0
0.1920	-8.53331	-75.1247	94.9241	0.796152	-3.05545	-10.869	1.85176	-127.652	1.6658	0
0.1927	-21.6666	-66.3225	47.9084	2.63725	-1.52772	-10.869	3.9921	-112.733	0.744295	0
0.1933	-46.3999	-48.5957	2.73762	3.5578	0.913779	-5.37181	9.17462	-69.3878	0.744295	0
0.1940	-21.3333	-31.1746	-55.5261	2.93581	2.12739	0.734148	13.1427	-29.7061	0.744295	-0.322396
0.1947	31.1332	-15.0372	-204.786	0.796152	0.299834	2.86497	14.6698	15.7579	-0.779738	-0.322396
0.1953	42.7332	9.10788	-364.996	-1.94062	-2.14167	5.31809	15.5836	61.222	-4.43033	-0.322396
0.1960	25.9333	27.6904	-357.676	-4.37884	-3.66939	8.36212	14.9704	75.5674	-7.15941	-0.322396
0.1967	14.0666	21.8834	-203.239	-5.00083	-4.58317	10.4929	13.7559	40.1673	-7.15941	-0.322396
0.1973	7.93331	6.96845	-68.0835	-4.37884	-3.36956	11.4241	12.2288	3.26635	-5.03285	0
0.1980	7.33331	7.57971	-21.6629	-4.67739	-1.84184	9.88414	8.87401	30.4124	-5.95436	0
0.1987	14.6666	23.1059	-32.6729	-4.37884	-1.22789	9.27533	6.43305	77.4213	-7.15941	-0.322396
0.1993	14.0666	36.8594	27.4357	-2.56261	-1.84184	6.53571	3.9921	87.1762	-6.27334	0
0.2000	8.86664	41.7496	190.146	-0.422956	-3.36956	4.70929	3.37886	75.8764	-3.8278	0
0.2007	12.8	39.6101	279.535	0.199038	-4.58317	5.9269	3.37886	57.5584	-2.9063	-0.322396
0.2013	5.53332	26.7735	288.7	-0.099519	-5.19712	4.40489	0.937903	44.1399	-3.18984	0
0.2020	-9.13331	13.0811	313.101	1.41815	-4.58317	0.429745	-2.4169	43.5219	-1.6658	0
0.2027	-5.19998	10.9417	276.202	2.63725	-3.36956	-5.37181	-9.13854	40.7852	0.14177	-0.322396
0.2033	8.86664	10.3304	158.961	2.3387	-2.4415	-9.02464	-14.6217	33.767	1.98479	-0.322396
0.2040	24.3999	6.66281	48.8011	3.85636	-0.928056	-8.72024	-13.4072	27.0577	4.43033	-0.322396
0.2047	41.1999	8.80225	-21.0678	4.77691	0	-8.72024	-10.0524	13.9482	5.03285	-0.322396
0.2053	40.9332	16.0763	-50.0509	3.85636	0	-8.72024	-6.69759	13.3302	4.71387	0
0.2060	24.3999	20.9665	-47.9084	2.01526	0.299834	-7.80703	-3.33076	39.5493	4.71387	0
0.2067	13.4666	19.7439	-38.1482	0.199038	1.82756	-6.58942	-1.50305	62.1489	4.11134	-0.322396
0.2073	15.8666	10.9417	-32.9705	-0.721513	2.12739	-5.06741	-0.288586	64.2676	4.43033	-0.322396
0.2080	21.9999	-5.2569	-37.8506	-1.94062	0.913779	-5.06741	-1.20244	60.0302	4.71387	-0.322396
0.2087	20.4666	-17.1766	-51.3007	-1.64206	0.299834	-5.67622	-1.80366	52.085	5.35184	0
0.2093	15.2666	-19.9273	-61.656	0.199038	0.599667	-5.67622	-2.11629	45.3758	5.63538	0
0.2100	11.6	-16.871	-68.0835	0.796152	0.599667	-4.4586	-2.72954	46.3027	5.63538	-0.322396
0.2107	7.33331	-11.3696	-72.0114	1.7167	1.51345	-1.39667	-0.288586	43.2129	6.87587	-0.322396
0.2113	3.99999	-9.8414	-73.5587	1.7167	1.21361	0.125342	1.55115	35.9298	7.47839	0
0.2120	4.26665	-8.31324	-75.1061	0.497595	0	1.34295	2.76561	34.3849	6.55689	0
0.2127	11	2.99521	-71.4162	-0.099519	0.299834	3.47377	5.20656	37.1216	5.03285	-0.322396
0.2133	18.9333	18.2158	-58.3232	0.199038	0.913779	5.01369	8.26076	38.0486	3.8278	-0.644791
0.2140	20.1333	31.358	-44.5756	-0.099519	1.51345	7.44891	14.6698	30.7213	3.8278	-0.322396
0.2147	20.4666	38.6932	-43.3258	-1.31863	1.21361	6.84011	14.6698	23.3941	3.18984	-0.322396
0.2153	22.9333	38.3876	-46.7181	-2.86117	-0.928056	3.47377	7.96015	31.0303	0.744295	-0.322396
0.2160	23.1999	33.1918	-46.7181	-4.08028	-3.66939	2.56056	8.56137	36.8126	-1.98479	-0.322396
0.2167	22.5999	26.7735	-50.0509	-5.59794	-6.11089	4.70929	14.0565	33.767	-4.43033	0
0.2173	21.9999	22.8003	-57.0735	-6.81705	-6.41073	7.14451	16.8101	38.6665	-4.43033	0
0.2180	23.7999	21.5777	-62.2511	-8.65815	-6.41073	6.84011	15.283	39.2845	-3.8278	0
0.2187	28.3999	21.2721	-64.3936	-9.5787	-7.32451	6.53571	12.2288	28.8675	-4.43033	0
0.2193	28.9999	23.1059	-62.2511	-5.8965	-6.72484	7.44891	12.8421	23.3941	-2.58731	-0.322396
0.2200	26.5333	21.8834	-56.4783	-1.64206	-7.02467	4.70929	11.9282	27.0577	-0.779738	-0.322396
0.2207	24.1333	16.0763	-49.7533	0.199038	-9.16634	-0.483463	9.48725	33.767	-0.779738	-0.322396
0.2213	23.5333	10.3304	-46.7181	1.11959	-10.38	-2.00548	6.73366	40.4762	-0.779738	0
0.2220	25.9333	7.27408	-47.6108	2.01526	-10.6941	-2.00548	3.07825	45.9937	-0.779738	0
0.2227	28.3999	6.96845	-48.5035	2.63725	-10.9939	-3.52749	1.85176	48.4214	0.14177	-0.322396
0.2233	27.7999	8.19098	-48.206	1.7167	-10.9939	-3.8498	4.29271	46.8765	1.06328	0
0.2240	24.3999	8.80225	-44.5756	1.11959	-10.6941	-2.61428	5.81981	46.3027	1.98479	0
0.2247	21.9999	10.0248	-40.8858	2.01526	-10.38	-1.09227	5.20656	51.1581	3.50882	0
0.2253	21.3999	12.4699	-40.2907	1.7167	-9.76601	1.95176	6.43305	54.2037	4.43033	0
0.2260	23.1999	11.8586	-40.5882	0.199038	-9.46618	4.40489	6.73366	50.2312	3.8278	-0.322396
0.2267	24.7333	8.49662	-36.9579	-0.721513	-10.0801	3.47377	4.90596	44.4488	2.30377	-0.322396
0.2273	20.1333	6.35718	-30.2329	-1.02007	-10.38	3.47377	5.5192	42.0211	1.38226	-0.322396
0.2280	14.6666	4.52338	-26.8406	-1.94062	-11.2937	4.70929	6.43305	42.9481	0.460754	-0.322396
0.2287	12.5333	2.68958	-28.9831	-2.23918	-12.8215	2.86497	3.07825	45.0668	-1.06328	-0.322396
0.2293	14.6666	3.60648	-39.3979	-1.02007	-13.7352	-1.70107	-2.4169	50.2312	-2.58731	-0.322396
0.2300	21.3999	6.35718	-48.5035	0.497595	-14.3492	-4.76301	-5.17049	56.9846	-1.98479	0
0.2307	23.7999	6.05155	-44.8732	2.93581	-13.1356	-6.58942	-6.08435	57.8673	1.06328	0
0.2313	20.1333	2.99521	-39.0409	4.15492	-11.2937	-8.11144	-7.91206	49.9663	3.50882	-0.322396
0.2320	20.1333	2.68958	-39.0409	3.5578	-11.2937	-8.72024	-9.43915	43.5219	3.8278	-0.322396
0.2327	25.0666	4.21774	-39.6955	2.93581	-11.2937	-8.72024	-9.73976	49.6573	3.50882	-0.322396
0.2333	28.6666	4.52338	-39.9931	2.63725	-10.38	-7.19823	-8.21266	55.1307	4.11134	0
0.2340	28.3999	4.21774	-39.0409	2.3387	-9.46618	-3.22309	-2.72954	47.1855	5.03285	0
0.2347	24.3999	4.82901	-34.5178	2.3387	-9.76601	-3.8498	-3.64339	39.8583	4.11134	0
0.2353	20.4666	3.91211	-28.0904	0.796152	-11.2937	-8.11144	-13.4072	42.9481	0.460754	0
0.2360	17.3999	2.99521	-26.2455	-1.02007	-12.8215	-9.63345	-21.0307	46.5675	-2.9063	0
0.2367	15.8666	4.82901	-28.3879	-1.64206	-13.1356	-8.41584	-22.8704	49.0394	-4.11134	0
0.2373	17.7333	7.57971	-31.1256	0.199038	-13.1356	-8.11144	-23.171	52.085	-4.74931	-0.322396
0.2380	18.3333	7.88535	-31.1256	1.7167	-13.1356	-9.93785	-22.2572	50.8491	-4.11134	-0.322396
0.2387	17.1333	6.66281	-26.8406	1.7167	-13.1356	-10.2423	-16.1488	44.7578	-2.30377	-0.322396
0.2393	19.5333	4.82901	-29.9353	-0.099519	-13.7352	-8.11144	-6.08435	38.9755	-4.11134	-0.322396
0.2400	27.1999	4.52338	-40.5882	-2.56261	-15.263	-3.8498	0.637293	39.5493	-7.15941	0
0.2407	31.7332	6.66281	-43.6234	-3.78172	-14.9631	1.03855	0.937903	44.4488	-7.79738	0.322396
0.2413	31.4666	6.35718	-40.2907	-5.29939	-14.3492	3.47377	-3.64339	45.6847	-9.32141	0
0.2420	31.4666	6.35718	-35.4105	-4.67739	-13.1356	5.6225	-6.38496	45.3758	-8.3999	0
0.2427	30.8666	6.35718	-31.7207	-3.45828	-12.5216	6.84011	-10.353	46.5675	-6.27334	0.322396
0.2433	30.1999	4.52338	-31.1256	-4.08028	-11.9077	5.9269	-16.1488	46.3027	-5.63538	-0.322396
0.2440	31.1332	5.74591	-28.3879	-2.56261	-10.6941	5.9269	-20.7301	46.5675	-2.58731	-0.644791
0.2447	32.6666	6.35718	-27.1382	-1.31863	-10.38	3.16937	-22.5578	45.9937	-0.460754	-0.322396
0.2453	31.7332	4.82901	-26.8406	-1.02007	-8.85223	0.429745	-22.5578	43.8309	0.460754	-0.644791
0.2460	30.1999	5.44028	-22.9127	1.7167	-7.02467	0.125342	-21.6439	42.9481	3.18984	-0.322396
0.2467	30.8666	4.82901	-21.6629	3.5578	-6.72484	-5.67622	-19.8162	42.0211	3.8278	0
0.2473	33.8666	3.30084	-20.4727	3.85636	-6.41073	-9.32905	-13.7078	40.4762	3.50882	0
0.2480	36.3332	2.99521	-18.0326	3.5578	-5.49695	-8.72024	-10.9663	39.5493	4.43033	-0.322396
0.2487	36.9332	2.07831	-18.3302	1.7167	-5.81106	-11.1734	-27.7523	38.6665	3.8278	-0.644791
0.2493	36.3332	1.46704	-17.0804	0.497595	-5.81106	-12.6954	-51.8612	38.6665	3.8278	0
0.2500	35.1332	2.07831	-14.9379	0.497595	-4.883	-14.5218	-63.7654	38.0486	4.71387	0
0.2507	33.8666	1.46704	-14.6403	0.796152	-4.28334	-16.6526	-57.0438	35.6209	3.8278	-0.322396
0.2513	32.6666	0.244507	-13.7476	1.41815	-3.66939	-16.3482	-58.8715	33.149	3.8278	-0.322396
0.2520	31.1332	-0.36676	-12.2003	1.41815	-2.75561	-16.6526	-122.348	31.6483	4.71387	-0.322396
0.2527	29.9332	-0.978028	-9.76022	0.497595	-2.14167	-16.0438	-219.71	30.7213	4.71387	-0.322396
0.2533	27.4666	-1.89493	-6.42746	-0.422956	-0.928056	-13.3042	-260.292	30.1034	5.03285	0
0.2540	26.2666	-2.20056	-3.03519	0.199038	0	-10.869	-227.333	29.4854	5.35184	0
0.2547	30.1999	-2.20056	0.297568	-0.422956	-0.314111	-10.5467	-182.17	30.4124	4.11134	0
0.2553	33.8666	-2.81183	1.19027	-1.31863	-1.22789	-11.1734	-151.038	32.5311	1.98479	0
0.2560	29.5999	-1.89493	2.14249	-1.31863	-0.928056	-8.41584	-114.424	34.076	1.06328	-0.322396
0.2567	17.7333	-1.28366	3.03519	-1.64206	-1.22789	-5.67622	-68.0341	36.5037	0.460754	-0.322396
0.2573	8.86664	-1.89493	2.73762	-2.86117	-2.14167	-4.1542	-15.2349	38.6665	-1.38226	0
0.2580	6.99998	-1.58929	4.28497	-2.56261	-1.52772	-2.61428	37.2516	39.2845	-1.06328	-0.322396
0.2587	10.6666	-1.28366	4.88011	-2.56261	-0.314111	-3.52749	76.3189	38.6665	-1.38226	-0.322396
0.2593	10.6666	-1.58929	3.63032	-3.15973	-0.613945	-4.1542	109.578	36.8126	-2.30377	0
0.2600	11	-1.58929	2.14249	-3.15973	-1.84184	-4.76301	144.678	34.3849	-2.58731	0
0.2607	16.2	-2.20056	0	-1.94062	-1.84184	-8.11144	165.119	30.7213	-3.18984	-0.322396
0.2613	0.599998	-0.978028	-3.39227	-0.721513	-0.928056	-7.80703	175.196	28.2936	-2.30377	-0.322396
0.2620	-30.1999	2.99521	-11.01	0.199038	-1.22789	-4.76301	192.282	28.2936	-0.779738	0
0.2627	-44.8665	6.96845	-22.2581	0.497595	-1.84184	-6.28502	220.66	28.6026	-1.06328	0
0.2633	-45.7332	10.0248	-28.9831	1.11959	-2.14167	-8.41584	238.36	28.8675	-1.6658	-0.322396
0.2640	-42.3999	9.41352	-30.5304	2.3387	-3.05545	-9.02464	209.982	27.0577	-1.38226	-0.322396
0.2647	-32.6666	6.66281	-31.4231	3.85636	-3.96923	-8.41584	143.451	22.1582	-1.38226	0
0.2653	-14.6666	3.30084	-29.6377	4.15492	-4.28334	-5.06741	81.2008	16.6849	-2.30377	0
0.2660	9.46664	-0.36676	-25.3528	4.15492	-4.28334	-2.00548	44.5745	11.4764	-3.8278	-0.322396
0.2667	42.1332	-3.4231	-21.0678	3.85636	-3.96923	1.95176	28.4016	6.312	-3.18984	-0.322396
0.2673	65.9331	-7.39633	-20.1751	2.93581	-3.66939	4.70929	19.5517	-1.3242	-2.9063	-0.322396
0.2680	48.8665	-11.0639	-19.2229	1.7167	-2.4415	5.6225	16.1969	-8.96039	-3.50882	-0.322396
0.2687	39.3999	-13.2034	-12.2003	1.41815	-0.613945	7.44891	11.6156	-7.10652	-1.98479	-0.322396
0.2693	85.4664	-15.0372	-4.58254	0.199038	0.299834	6.84011	0.637293	2.33941	-1.6658	-0.322396
0.2700	131.866	-17.7879	0	-2.23918	0.599667	5.6225	-0.889806	10.2846	-2.9063	-0.322396
0.2707	113.866	-19.9273	7.32016	-3.45828	1.82756	5.9269	11.315	15.4489	-2.9063	0
0.2713	47.5999	-22.0667	13.7476	-4.08028	3.04117	4.70929	28.101	20.0395	-3.8278	0
0.2720	-3.66666	-23.2893	17.3779	-5.29939	3.04117	4.70929	40.0052	22.1582	-5.95436	0
0.2727	-30.7999	-20.8442	20.7702	-5.29939	3.04117	7.14451	41.2196	27.0577	-5.95436	-0.322396
0.2733	-79.9331	-18.0935	20.4131	-5.59794	3.04117	7.44891	28.7022	36.8126	-6.87587	-0.644791
0.2740	-142.8	-15.6484	19.2229	-6.51849	2.12739	6.84011	19.2511	43.5219	-7.47839	-0.644791
0.2747	-160.8	-11.3696	19.818	-5.8965	1.82756	7.14451	18.0246	44.1399	-5.95436	-0.322396
0.2753	-133.666	-6.1738	13.4501	-5.29939	1.51345	4.40489	-7.91206	42.6391	-5.03285	-0.322396
0.2760	-101.6	0.244507	1.54735	-4.67739	0.299834	2.86497	-38.7306	42.3301	-3.8278	0
0.2767	-69.5998	7.27408	-7.61773	-4.08028	-0.613945	2.86497	-50.3341	42.6391	-2.58731	-0.322396
0.2773	-28.3999	12.1642	-14.6403	-4.08028	-1.22789	0.734148	-78.7117	41.0942	-4.11134	-0.322396
0.2780	35.3999	18.2158	-22.6151	-4.08028	-1.52772	0.429745	-135.166	39.5493	-4.74931	-0.322396
0.2787	102.266	24.6341	-30.2329	-4.37884	-0.613945	2.56056	-198.643	38.0486	-3.8278	-0.322396
0.2793	90.6664	27.3848	-33.8632	-4.67739	-0.613945	2.56056	-212.988	36.1947	-3.18984	-0.322396
0.2800	3.99999	27.996	-36.9579	-5.29939	-0.613945	-0.17906	-165.997	35.3119	-3.50882	0
0.2807	-21.6666	26.7735	-40.5882	-5.59794	-0.314111	-1.39667	-124.801	27.3667	-4.74931	-0.322396
0.2813	53.3998	20.0496	-39.0409	-5.8965	0	-0.17906	-108.929	4.45813	-5.35184	0
0.2820	76.3331	7.57971	-30.2329	-6.21994	0	1.34295	-87.8743	-28.1612	-5.63538	0
0.2827	57.6665	-6.47943	-17.3779	-6.21994	-0.314111	4.10048	-50.3341	-62.3696	-6.27334	-0.322396
0.2833	152	-14.7315	-9.46265	-5.8965	-0.928056	7.14451	-4.55725	-89.8246	-6.55689	-0.322396
0.2840	242.933	-16.2597	-11.01	-5.8965	-1.52772	6.53571	33.5962	-98.9616	-6.87587	-0.322396
0.2847	217.266	-13.8146	-17.0804	-6.21994	-1.22789	4.10048	38.7787	-87.3969	-7.79738	0
0.2853	180.066	-9.23014	-22.2581	-7.14049	-1.84184	2.86497	14.0565	-69.0789	-8.08092	0
0.2860	150.466	-5.56253	-24.103	-7.14049	-2.14167	1.34295	0.324659	-54.1155	-9.00243	0
0.2867	97.0664	-4.34	-22.9127	-7.43904	-2.14167	-1.39667	14.9704	-42.5067	-10.8454	0
0.2873	67.7331	-3.4231	-21.3654	-7.43904	-1.84184	-4.1542	48.8551	-31.8248	-10.8454	0
0.2880	79.9998	-2.5062	-21.9605	-6.21994	-1.52772	-4.4586	78.7598	-24.4976	-9.92393	0
0.2887	91.8664	-1.58929	-23.8054	-5.8965	-1.52772	-1.70107	74.4791	-23.6148	-10.2429	0
0.2893	56.7998	-0.978028	-21.9605	-5.59794	-1.84184	1.95176	39.6925	-27.2784	-9.92393	-0.322396
0.2900	-32.9332	-3.4231	-15.2355	-5.00083	-2.14167	2.56056	7.96015	-29.7061	-9.60495	-0.322396
0.2907	-110.466	-6.47943	-8.56995	-5.29939	-2.14167	0.429745	-25.9126	-27.8522	-9.92393	0
0.2913	-108.333	-4.34	-5.83232	-5.29939	-2.4415	1.34295	-74.1304	-20.834	-9.00243	0
0.2920	-83.5998	-1.58929	-5.17768	-4.67739	-2.75561	2.25616	-83.5936	-16.2876	-7.79738	0
0.2927	-59.7998	-5.86817	-1.24978	-4.37884	-3.05545	0.125342	-36.2896	-24.4976	-7.47839	0
0.2933	14.0666	-11.9808	2.44005	-4.67739	-2.75561	-1.70107	13.7559	-38.5341	-7.79738	0
0.2940	46.9999	-10.4527	-0.297568	-5.00083	-3.05545	-1.39667	27.7884	-44.3606	-7.47839	0
0.2947	5.19998	-3.4231	-6.72503	-3.78172	-2.75561	-0.483463	25.6601	-42.5067	-6.27334	-0.322396
0.2953	-3.33332	1.46704	-12.2003	-2.86117	-3.66939	-0.17906	37.5522	-40.079	-5.95436	-0.322396
0.2960	34.4666	4.21774	-14.6403	-2.56261	-4.883	1.34295	60.7473	-38.8431	-5.95436	0
0.2967	59.7998	7.88535	-17.735	-2.23918	-4.883	2.86497	78.7598	-39.1521	-5.35184	0
0.2973	28.9999	12.1642	-21.9605	-2.23918	-4.883	1.03855	94.632	-39.1521	-5.03285	0
0.2980	-3.33332	14.2425	-19.818	-1.94062	-5.19712	0.734148	111.406	-36.7244	-4.74931	0
0.2987	17.9999	13.9369	-13.4501	-1.31863	-4.883	1.34295	120.569	-32.4428	-4.11134	0
0.2993	21.0666	11.8586	-7.61773	-1.94062	-5.19712	0.125342	123.623	-27.2784	-5.03285	0
0.3000	9.46664	6.66281	1.84492	-1.64206	-5.81106	0.734148	121.783	-26.0425	-5.03285	0
0.3007	31.7332	0.244507	11.6051	-0.721513	-4.883	1.64736	114.773	-29.0882	-4.11134	0
0.3013	26.2666	-5.56253	17.0804	-0.721513	-3.66939	0.734148	100.428	-32.7518	-4.43033	0
0.3020	-47.9332	-10.4527	23.5078	-0.099519	-3.05545	3.16937	83.6417	-38.2693	-3.50882	0
0.3027	-130.933	-10.7583	22.8532	0.199038	-3.05545	6.84011	73.5653	-43.4336	-2.58731	0
0.3033	-162.666	-7.70197	13.093	0.199038	-3.36956	5.6225	66.8557	-39.461	-4.11134	0
0.3040	-147.4	-3.4231	7.9153	1.11959	-3.05545	4.40489	61.0599	-32.1338	-4.74931	-0.322396
0.3047	-99.4664	1.46704	4.28497	0.796152	-2.4415	5.01369	50.9835	-27.5874	-3.50882	0
0.3053	-3.06666	6.05155	-5.17768	-0.422956	-3.36956	5.31809	31.4558	-20.834	-4.74931	0
0.3060	85.7331	8.19098	-8.27238	-0.422956	-4.28334	9.27533	18.6378	-14.1248	-5.03285	-0.322396
0.3067	89.1331	7.57971	-6.12989	-0.721513	-4.58317	13.8593	19.8523	-11.0791	-5.35184	0
0.3073	50.9998	6.35718	-7.9153	-1.64206	-4.883	14.7725	23.2191	-10.1522	-6.27334	0
0.3080	20.1333	5.13464	-10.0578	-2.23918	-4.58317	14.4681	19.8523	-12.624	-5.63538	0
0.3087	-9.46664	4.21774	-10.0578	-2.23918	-3.96923	14.7725	5.81981	-16.9056	-4.74931	0.322396
0.3093	-21.6666	2.07831	-7.32016	-1.31863	-3.66939	14.4681	-8.5253	-22.0699	-4.11134	0.322396
0.3100	-1.53333	-1.89493	-5.17768	-0.721513	-3.05545	10.8152	-12.4934	-31.251	-4.74931	0
0.3107	19.8666	-5.2569	-5.83232	-1.02007	-2.4415	7.44891	-11.8801	-38.2693	-5.35184	0
0.3113	11.6	-7.39633	-4.88011	-1.31863	-1.22789	6.2313	-12.1807	-34.2967	-5.35184	0
0.3120	-4.53332	-5.86817	-2.73762	-0.721513	0	6.2313	-14.0205	-20.5692	-5.03285	-0.322396
0.3127	-11	-1.28366	-0.297568	0.796152	2.12739	7.14451	-15.8482	-4.36985	-3.8278	-0.322396
0.3133	-36.5999	0.855774	2.14249	1.7167	3.95495	8.36212	-16.762	8.12173	-2.58731	0
0.3140	-78.3998	1.16141	0.595135	1.41815	3.95495	7.75332	-21.0307	18.4946	-3.50882	0
0.3147	-92.4664	3.60648	-1.54735	-0.099519	3.65511	7.44891	-23.171	27.3667	-4.11134	-0.322396
0.3153	-105.866	3.91211	1.19027	-1.31863	3.95495	7.75332	-20.1168	31.9573	-3.8278	0
0.3160	-150.133	2.07831	4.28497	-2.56261	4.56889	7.44891	-17.6759	36.8126	-4.11134	0
0.3167	-186.466	0.855774	5.47524	-4.37884	4.883	7.14451	-15.8482	41.0942	-5.35184	0
0.3173	-227.666	-1.89493	9.46265	-5.00083	4.883	7.75332	-10.0524	35.6209	-5.35184	-0.322396
0.3180	-274.933	-7.0907	14.6403	-5.59794	5.18284	8.05772	-1.80366	25.248	-5.63538	-0.322396
0.3187	-261.533	-11.0639	19.2229	-6.21994	4.883	7.44891	8.56137	17.9208	-6.55689	0
0.3193	-237.999	-11.6752	24.103	-7.43904	4.56889	8.36212	14.6698	13.9482	-6.27334	0
0.3200	-230.999	-9.23014	24.4005	-8.95671	3.95495	9.27533	9.48725	13.6392	-6.27334	-0.322396
0.3207	-163.266	-2.81183	18.9253	-9.5787	3.04117	9.88414	1.85176	17.6118	-6.55689	0
0.3213	-123.866	5.74591	7.61773	-9.25527	1.51345	10.1885	-0.889806	21.2754	-6.27334	0
0.3220	-145.533	17.6045	-11.3076	-8.65815	-0.928056	9.27533	-2.72954	24.0121	-5.95436	0
0.3227	-110.8	31.0524	-28.9831	-8.95671	-2.4415	9.27533	-3.33076	29.4854	-6.27334	0
0.3233	-77.1998	38.3876	-37.8506	-9.87726	-2.75561	8.66652	-3.33076	29.1764	-6.27334	0
0.3240	-28.9999	39.9158	-43.0283	-9.87726	-3.36956	7.14451	-3.944	16.6849	-5.35184	0
0.3247	147.733	43.889	-50.0509	-9.25527	-4.883	6.84011	-3.944	0.220699	-4.43033	0.322396
0.3253	355.866	49.3904	-57.9662	-8.95671	-5.81106	6.84011	-3.944	-12.315	-4.11134	0
0.3260	433.065	48.1679	-61.0609	-8.65815	-6.11089	5.31809	-4.55725	-25.1156	-4.43033	-0.322396
0.3267	390.665	37.7763	-54.0383	-8.03616	-5.81106	3.16937	-6.08435	-47.0972	-5.35184	-0.322396
0.3273	334.466	25.2453	-37.553	-7.14049	-5.19712	1.34295	-7.91206	-72.4335	-5.95436	0
0.3280	270.399	14.2425	-16.1877	-6.81705	-3.96923	0.734148	-6.9982	-90.1336	-5.03285	-0.322396
0.3287	186.466	4.52338	0.892703	-5.59794	-3.66939	-0.787866	-6.69759	-102.625	-3.18984	0
0.3293	116.266	-3.4231	9.16508	-1.94062	-3.66939	-3.8498	-8.5253	-110.879	-0.14177	0
0.3300	64.9998	-7.70197	12.7954	3.25925	-3.36956	-6.58942	-9.73976	-110.57	3.8278	0.322396
0.3307	9.79997	-9.8414	15.8901	8.73279	-2.4415	-9.93785	-12.1807	-106.289	7.47839	0
0.3313	-47.2665	-11.6752	21.0678	13.6341	-1.52772	-12.6954	-14.0205	-99.8885	10.5265	-0.322396
0.3320	-91.8664	-12.2865	27.1382	17.2914	-0.314111	-12.391	-12.4934	-81.2615	13.2555	0
0.3327	-119	-13.509	29.2807	20.6502	0.913779	-12.9998	-12.1807	-57.1611	15.7011	0
0.3333	-86.3331	-14.1203	27.7928	23.6855	1.82756	-15.1306	-12.1807	-44.0516	17.8631	-0.322396
0.3340	6.39998	-12.2865	25.9479	25.5266	2.74134	-15.1306	-10.0524	-41.3149	19.0681	-0.644791
0.3347	73.2664	-10.4527	24.103	22.7898	2.74134	-14.5218	-9.43915	-39.461	16.9416	0
0.3353	80.2664	-7.70197	21.3654	18.8091	2.74134	-12.0866	-8.5253	-35.7974	14.496	0
0.3360	53.3998	-1.58929	15.533	17.2914	3.04117	-8.72024	-4.25664	-28.7792	15.0986	0
0.3367	15.8666	2.68958	8.86751	15.4503	3.65511	-8.72024	-5.17049	-21.452	13.8935	0
0.3373	3.66666	4.82901	6.07038	13.9327	5.18284	-8.41584	-8.21266	-18.0973	11.7315	0
0.3380	14.9333	7.27408	6.07038	13.0121	6.39645	-6.28502	-6.69759	-17.7884	11.7315	0.322396
0.3387	2.13333	6.96845	5.17768	11.793	5.48267	-7.19823	-7.29881	-20.5692	10.8454	0
0.3393	-46.9999	6.35718	5.77281	11.4944	4.56889	-5.06741	-6.9982	-23.9238	9.60495	-0.322396
0.3400	-114.4	7.88535	5.47524	9.9519	4.883	-2.61428	-5.77171	-23.9238	9.32141	0.322396
0.3407	-135.466	8.80225	2.44005	7.81224	5.18284	-3.8498	-8.82591	-22.6879	7.15941	0
0.3413	-46.0665	7.88535	3.63032	6.59313	4.883	-3.8498	-10.9663	-22.9969	5.35184	-0.322396
0.3420	58.5998	7.88535	6.42746	5.69746	4.56889	-2.91868	-9.73976	-25.7335	5.35184	0
0.3427	62.8665	10.0248	4.88011	3.85636	3.95495	-2.91868	-9.73976	-27.8522	4.43033	0
0.3433	12.5333	13.6924	3.33276	1.7167	3.35528	-2.30988	-10.353	-28.1612	3.18984	0
0.3440	-3.06666	17.2989	-1.54735	-0.099519	1.51345	-2.91868	-10.6536	-27.5874	3.18984	0
0.3447	5.53332	21.8834	-10.7124	-0.099519	-0.928056	-3.8498	-12.1807	-25.1156	3.18984	-0.322396
0.3453	-23.1999	26.7735	-15.8901	0.497595	-2.14167	-3.22309	-11.5795	-22.3789	4.11134	0
0.3460	-108.933	30.4411	-17.0804	1.41815	-3.66939	-2.91868	-10.6536	-22.3789	5.95436	0
0.3467	-169.999	29.5242	-13.4501	2.63725	-4.28334	-3.22309	-11.5795	-27.2784	7.47839	-0.322396
0.3473	-107.4	27.0791	-9.16508	3.85636	-2.75561	-2.61428	-10.353	-32.7518	9.00243	-0.322396
0.3480	-11.6	24.9397	-8.86751	5.07547	-1.22789	-2.61428	-8.5253	-35.4884	9.92393	0
0.3487	10.4	22.4946	-8.27238	5.69746	0.599667	-3.22309	-7.61144	-37.6513	9.32141	0
0.3493	-28.9999	21.5777	-6.72503	5.37402	2.4415	-2.61428	-6.9982	-33.9877	8.68344	-0.322396
0.3500	-86.9331	18.827	-4.28497	4.47835	3.04117	-2.91868	-7.29881	-25.1156	8.68344	0
0.3507	-113.533	12.1642	3.33276	4.15492	3.65511	-3.22309	-8.82591	-25.7335	8.08092	0
0.3513	-108.333	5.13464	12.7954	3.85636	4.26906	-2.91868	-8.82591	-39.1521	8.08092	-0.322396
0.3520	-94.8664	0.550141	17.3779	3.25925	3.95495	-3.52749	-7.91206	-49.5249	8.68344	-0.322396
0.3527	-89.3997	-1.89493	19.2229	2.93581	4.56889	-4.4586	-9.13854	-48.3331	8.08092	0
0.3533	-86.9331	-3.11746	19.5204	2.63725	5.79678	-5.06741	-8.82591	-43.7426	7.15941	0
0.3540	-50.3332	-2.81183	19.2229	2.01526	7.32451	-3.8498	-4.55725	-40.079	7.15941	0.322396
0.3547	-2.39999	-1.58929	19.5204	0.796152	9.4519	-2.61428	-2.4169	-36.1064	6.55689	0
0.3553	7.66664	-0.978028	20.1156	-1.31863	11.8934	-2.91868	-4.85786	-32.1338	4.11134	0
0.3560	14.3333	-0.978028	21.0678	-3.45828	13.721	-2.30988	-7.29881	-30.3241	1.38226	-0.322396
0.3567	31.4666	-1.28366	22.5556	-5.00083	15.5628	-2.61428	-9.13854	-28.1612	-0.460754	-0.644791
0.3573	19.5333	-2.20056	25.6503	-6.51849	16.1625	-2.61428	-9.43915	-23.3058	-1.98479	0
0.3580	-7.93331	-2.5062	29.8758	-6.21994	14.3349	-0.17906	-8.21266	-18.4063	-2.58731	0.322396
0.3587	-14.6666	-3.11746	31.7207	-4.67739	13.4211	0.429745	-8.5253	-16.2876	-3.18984	0
0.3593	-7.59998	-3.4231	29.8758	-4.67739	12.5073	-0.483463	-9.73976	-13.5509	-4.11134	-0.322396
0.3600	-1.79999	-2.81183	27.4357	-5.59794	9.76601	1.03855	-8.21266	-10.1522	-5.03285	0
0.3607	-0.933331	-2.5062	23.8054	-7.14049	7.0104	1.64736	-7.29881	-9.26937	-6.27334	0
0.3613	-8.19998	1.16141	18.6277	-7.14049	7.0104	2.56056	-5.77171	-8.34243	-6.27334	0
0.3620	-18.5999	9.10788	8.21287	-7.14049	6.71056	5.6225	-1.50305	-6.22372	-5.95436	0.322396
0.3627	-19.5333	14.5482	-6.12989	-11.0964	5.48267	6.2313	-0.589196	-5.29678	-7.47839	-0.322396
0.3633	-21.9333	17.2989	-16.7828	-14.1566	4.883	5.9269	-1.20244	-6.5327	-7.79738	-0.644791
0.3640	-25.5999	21.2721	-24.103	-15.6742	4.26906	7.75332	0.324659	-9.57835	-7.47839	-0.322396
0.3647	-20.7333	23.1059	-30.5304	-15.9728	3.04117	8.66652	1.23851	-13.242	-7.47839	0
0.3653	-39.9332	24.3284	-35.4105	-14.1566	1.82756	9.88414	3.9921	-18.7153	-6.27334	0
0.3660	-73.8664	25.551	-38.4457	-13.5346	-0.314111	10.4929	7.34691	-27.2784	-4.43033	0
0.3667	-84.1998	21.2721	-35.4105	-12.9375	-1.52772	8.05772	6.12042	-37.3423	-2.9063	0
0.3673	-91.8664	12.7755	-22.9127	-11.0964	2.74134	6.84011	4.90596	-47.7152	-1.98479	-0.322396
0.3680	-105.266	5.74591	-11.3076	-10.7978	7.0104	6.53571	4.29271	-57.7791	-2.9063	0
0.3687	-111.4	0.244507	-4.88011	-11.0964	6.09662	5.6225	3.9921	-62.9876	-3.50882	-0.322396
0.3693	-120.866	-3.11746	3.63032	-10.7978	9.4519	5.9269	7.0463	-54.7334	-1.6658	0
0.3700	-132.733	-4.95126	9.76022	-10.4744	16.1625	3.47377	7.64752	-39.77	-0.779738	0.322396
0.3707	-126.933	-5.86817	10.9505	-8.95671	17.6902	-0.483463	4.59332	-29.3971	-1.38226	0
0.3713	-115.066	-4.64563	14.0452	-6.81705	15.8626	-0.787866	4.59332	-21.452	-0.779738	-0.322396
0.3720	-111.4	-4.34	17.9731	-8.03616	14.9488	-0.17906	5.20656	-15.0517	-1.06328	-0.322396
0.3727	-97.0664	-5.2569	20.4131	-8.65815	14.649	-0.17906	5.20656	-12.315	-0.779738	-0.322396
0.3733	-88.1997	-5.56253	22.2581	-4.37884	11.8934	-0.787866	4.90596	-10.4611	1.6658	-0.322396
0.3740	-111.066	-5.86817	20.7702	-0.721513	7.32451	-3.52749	3.67947	-6.79754	4.11134	-0.322396
0.3747	-127.866	-4.64563	17.3779	1.7167	3.65511	-4.76301	3.07825	-1.94215	6.87587	-0.322396
0.3753	-126	-1.89493	14.0452	5.07547	1.51345	-4.1542	2.76561	2.33941	9.32141	0
0.3760	-146.2	0.244507	11.3076	7.21513	-0.613945	-5.37181	1.23851	6.312	10.8454	0
0.3767	-174.266	1.16141	9.46265	8.43423	-3.05545	-5.67622	-0.288586	9.97561	11.7315	0
0.3773	-178.799	0.855774	6.72503	8.73279	-4.883	-5.98062	-2.11629	12.4033	11.129	0
0.3780	-183.066	2.07831	3.98741	8.73279	-6.11089	-6.89383	-3.33076	14.5662	10.2075	-0.322396
0.3787	-190.133	4.52338	3.03519	11.171	-8.5524	-6.89383	-2.11629	15.7579	11.7315	0
0.3793	-174.266	4.52338	2.44005	14.2312	-11.2937	-6.89383	-1.20244	14.5662	13.8935	0.322396
0.3800	-134.6	6.66281	-0.595135	14.8532	-13.1356	-7.80703	-1.20244	13.3302	15.4175	0
0.3807	-50.3332	11.553	-7.0226	14.8532	-11.9077	-7.19823	0.0240488	10.2846	16.6226	-0.322396
0.3813	49.4665	13.3868	-14.3428	14.8532	-10.38	-6.89383	0.937903	0.794517	16.3391	-0.322396
0.3820	65.3331	13.9369	-19.2229	14.2312	-9.16634	-6.89383	1.55115	-11.0791	16.0201	-0.322396
0.3827	43.3332	15.1594	-21.0678	14.2312	-8.85223	-6.28502	2.465	-17.7884	16.0201	-0.322396
0.3833	77.5331	13.9369	-19.5204	13.9327	-7.93845	-5.98062	2.15237	-17.1704	16.0201	-0.322396
0.3840	115.4	12.7755	-16.1877	13.0121	-5.81106	-5.37181	1.55115	-10.1522	15.4175	0
0.3847	109.866	13.0811	-12.4978	11.171	-3.96923	-4.1542	1.23851	-1.94215	12.653	0
0.3853	88.1997	11.2473	-8.27238	9.05623	-1.52772	-3.8498	0.324659	1.41248	9.32141	-0.322396
0.3860	59.7998	7.88535	-4.28497	7.21513	-0.314111	-3.22309	1.23851	0.794517	7.15941	0
0.3867	23.7999	5.44028	-2.73762	5.07547	-0.314111	-2.91868	1.85176	-3.44291	5.63538	0.322396
0.3873	-0.266666	3.30084	-1.54735	3.85636	0.299834	-2.61428	1.55115	-8.34243	4.71387	0
0.3880	-3.33332	1.77268	2.14249	3.5578	1.51345	-0.17906	2.76561	-11.3881	4.43033	-0.322396
0.3887	9.46664	-2.20056	7.32016	1.11959	2.74134	0.734148	3.07825	-16.9056	2.58731	-0.322396
0.3893	12.8	-9.23014	13.4501	-1.31863	4.26906	0.125342	2.15237	-27.2784	-0.14177	0
0.3900	-31.7332	-14.1203	17.0804	-2.86117	6.09662	1.34295	1.23851	-34.6056	-1.98479	0
0.3907	-114.4	-13.509	14.9379	-5.59794	9.15206	2.25616	0.937903	-33.0608	-3.8278	0
0.3913	-173.333	-9.53577	9.16508	-10.4744	11.5936	4.40489	1.85176	-24.4976	-6.87587	0
0.3920	-193.799	-5.56253	3.98741	-15.0522	13.4211	6.84011	3.07825	-15.0517	-9.60495	0
0.3927	-217.266	-4.34	1.54735	-17.8139	14.649	5.6225	1.85176	-6.5327	-11.448	0
0.3933	-249.933	-5.86817	3.33276	-15.6742	14.3349	3.16937	0.0240488	-1.94215	-12.3695	-0.644791
0.3940	-243.799	-6.47943	6.42746	-12.0169	14.0351	2.56056	-0.589196	-0.397259	-11.448	-0.967187
0.3947	-186.733	-4.34	7.0226	-9.87726	13.721	3.16937	0.937903	4.7671	-9.60495	0
0.3953	-139.133	-1.89493	7.32016	-7.14049	12.2075	3.79608	2.465	9.66663	-7.47839	0.322396
0.3960	28.6666	-0.672394	7.0226	-3.45828	10.3657	3.47377	1.85176	9.97561	-5.63538	-0.322396
0.3967	376.599	2.68958	2.14249	-1.94062	9.76601	2.86497	0.937903	11.1674	-5.03285	-0.322396
0.3973	515.465	8.80225	-3.98741	-3.45828	8.23829	3.79608	0.937903	15.7579	-6.55689	-0.322396
0.3980	344.866	13.9369	-8.86751	-4.67739	5.48267	4.40489	0.324659	19.1126	-7.15941	0
0.3987	166	14.2425	-8.56995	-3.15973	3.95495	4.70929	0.937903	16.6849	-6.87587	0
0.3993	58.9332	10.3304	-2.44005	-1.64206	3.04117	5.9269	3.67947	10.9025	-6.87587	0
0.4000	-10.0666	7.27408	-0.595135	-2.56261	1.82756	4.70929	1.85176	6.00302	-8.08092	-0.322396
0.4007	-57.6665	6.66281	-3.03519	-2.86117	0.913779	2.56056	-1.20244	2.33941	-8.68344	-0.322396
0.4013	-86.0664	6.66281	-4.88011	-2.23918	-1.52772	1.95176	-0.889806	0.794517	-7.47839	0
0.4020	-74.1331	7.27408	-8.56995	-1.64206	-5.49695	1.34295	-1.20244	1.41248	-5.95436	-0.322396
0.4027	-44.5332	10.0248	-13.7476	-0.721513	-7.63862	1.64736	0.0240488	-1.63317	-4.43033	-0.322396
0.4033	-9.46664	12.1642	-18.6277	-0.099519	-6.41073	1.95176	0.937903	-10.1522	-3.50882	0
0.4040	45.7999	11.8586	-23.8054	0.199038	-4.58317	0.734148	-1.50305	-20.2602	-3.50882	-0.322396
0.4047	115.666	12.1642	-28.6855	0.199038	-3.05545	0.429745	-3.64339	-23.6148	-1.98479	-0.322396
0.4053	162.066	11.8586	-30.828	-0.099519	0	0.125342	-4.25664	-16.5966	-1.6658	-0.322396
0.4060	165.133	9.71915	-28.6855	-1.02007	3.35528	-0.17906	-4.85786	-11.6971	-2.9063	-0.322396
0.4067	149.266	6.05155	-22.9127	-1.31863	4.26906	0.125342	-5.17049	-13.242	-3.8278	-0.322396
0.4073	123	2.07831	-18.0326	-1.64206	5.79678	0.125342	-5.4711	-13.5509	-4.11134	-0.322396
0.4080	85.1331	-0.36676	-14.0452	-1.02007	8.53812	-0.483463	-6.38496	-14.7427	-2.9063	-0.322396
0.4087	57.9998	-2.5062	-10.0578	0.796152	10.0658	-1.09227	-6.08435	-19.0243	-1.06328	-0.322396
0.4093	46.3999	-5.2569	-7.32016	1.7167	9.4519	-2.30988	-5.17049	-23.3058	-0.779738	-0.322396
0.4100	31.4666	-7.39633	-2.44005	2.3387	10.3657	-2.61428	-4.25664	-26.3515	-0.460754	0
0.4107	19.5333	-9.53577	3.98741	2.3387	12.5073	-2.61428	-4.55725	-28.7792	0.744295	0
0.4113	14.3333	-10.4527	8.51043	2.3387	13.721	-3.52749	-5.4711	-29.0882	0.460754	-0.322396
0.4120	-2.13333	-11.6752	12.7954	3.25925	15.8626	-4.1542	-5.17049	-26.6605	-0.460754	0
0.4127	-20.7333	-13.509	14.3428	3.85636	17.6902	-5.37181	-6.69759	-22.3789	-0.779738	0
0.4133	-21.6666	-13.2034	12.4978	3.5578	17.0905	-5.98062	-9.13854	-15.0517	-1.6658	0
0.4140	-14.6666	-12.2865	10.9505	2.3387	14.649	-4.1542	-9.13854	-7.10652	-2.58731	0.644791
0.4147	1.2	-11.3696	10.3554	1.11959	9.15206	-2.00548	-7.91206	0.220699	-2.58731	0.322396
0.4153	16.2	-8.61887	8.51043	1.41815	4.56889	-1.70107	-7.91206	6.62098	-2.30377	-0.322396
0.4160	-11.2666	-4.03436	4.88011	2.01526	2.4415	-1.70107	-8.21266	10.5936	-2.58731	-0.322396
0.4167	-29.8666	1.46704	0.297568	1.41815	0.599667	-1.70107	-7.91206	13.6392	-2.9063	0
0.4173	20.1333	4.52338	-2.14249	1.41815	-0.613945	-1.09227	-7.29881	16.6849	-2.30377	0
0.4180	57.3998	5.74591	-2.73762	1.11959	-1.22789	0.125342	-6.08435	20.6575	-1.38226	-0.322396
0.4187	40.9332	9.71915	-4.88011	0.497595	-2.14167	0.734148	-4.55725	26.7488	-1.38226	-0.644791
0.4193	30.5332	13.6924	-5.83232	0.796152	-1.84184	0.734148	-3.64339	29.1764	-1.6658	-0.322396
0.4200	45.1999	12.4699	-3.39227	0.796152	-0.613945	0.125342	-3.944	25.248	-1.98479	-0.322396
0.4207	46.7332	10.0248	-3.68984	-0.721513	0.913779	0.429745	-3.944	20.9664	-2.9063	-0.322396
0.4213	-1.79999	10.0248	-4.88011	-2.86117	2.4415	1.34295	-3.03015	20.6575	-3.8278	-0.322396
0.4220	-55.5332	11.2473	-5.47524	-5.00083	1.82756	2.56056	-1.80366	24.3211	-5.03285	0
0.4227	-83.3331	8.80225	-3.39227	-7.14049	3.35528	3.16937	-1.20244	24.3211	-6.27334	-0.322396
0.4233	-126.333	3.30084	1.54735	-7.43904	8.53812	2.25616	-1.50305	14.831	-5.63538	-0.644791
0.4240	-153.466	-0.36676	3.98741	-5.59794	11.5936	1.03855	-2.11629	3.57533	-4.74931	-0.322396
0.4247	-135.466	-1.58929	3.98741	-3.45828	11.2795	0.734148	-3.944	-0.706238	-6.55689	0
0.4253	-122.666	-1.28366	3.63032	-1.31863	10.9796	0.734148	-3.944	1.72145	-6.27334	-0.322396
0.4260	-126.666	-1.58929	3.33276	0.199038	10.3657	-0.483463	-2.4169	2.95737	-3.50882	0
0.4267	-121.733	-4.03436	3.03519	0.497595	8.83795	-1.70107	-2.72954	-2.56011	-2.30377	0
0.4273	-113.533	-4.64563	1.84492	0.199038	7.92417	-1.39667	-3.03015	-7.4155	-1.98479	-0.322396
0.4280	-105.866	-4.03436	0.595135	-0.422956	7.32451	0.125342	-1.80366	-6.22372	-1.6658	0
0.4287	-96.133	-5.56253	1.54735	-0.721513	6.71056	1.03855	-0.589196	-8.96039	-1.6658	0
0.4293	-86.6664	-8.31324	3.98741	1.11959	4.883	0.734148	-0.288586	-15.0517	-0.460754	-0.322396
0.4300	-75.6664	-9.8414	4.58254	3.85636	2.4415	-0.483463	-1.50305	-14.4337	1.06328	-0.322396
0.4307	-39.3332	-7.39633	0.297568	5.07547	0	-1.09227	-1.50305	-3.44291	2.58731	-0.322396
0.4313	97.6664	-0.978028	-7.0226	5.99602	-1.52772	-1.39667	-0.889806	12.0943	3.8278	-0.322396
0.4320	282.332	4.82901	-10.0578	7.51368	-1.52772	-1.70107	-0.589196	25.248	4.11134	0
0.4327	333.599	8.49662	-9.76022	7.81224	-1.84184	-1.70107	0.937903	34.3849	4.11134	0
0.4333	278.333	10.9417	-12.4978	6.91657	-3.96923	-2.00548	0.637293	40.1673	3.18984	0
0.4340	244.466	10.6361	-12.7954	5.69746	-6.41073	-1.09227	-0.288586	37.7396	1.38226	-0.322396
0.4347	201.133	6.66281	-8.56995	5.07547	-8.5524	0.125342	-0.288586	24.0121	0.744295	-0.322396
0.4353	122.4	3.30084	-5.17768	5.07547	-9.16634	0.125342	-0.288586	9.97561	0.744295	-0.322396
0.4360	69.2665	2.68958	-4.28497	5.99602	-8.5524	0.734148	0.637293	5.07608	1.38226	-0.322396
0.4367	51.2665	3.91211	-4.58254	5.99602	-8.25256	1.34295	1.55115	7.23894	2.30377	0
0.4373	16.7999	4.21774	-4.88011	5.69746	-7.93845	0.429745	0.0240488	9.04867	1.38226	-0.322396
0.4380	-37.7999	1.16141	-1.54735	5.07547	-5.19712	-0.17906	-0.589196	7.23894	0.14177	-0.322396
0.4387	-68.9331	-2.81183	2.44005	3.85636	-1.52772	0.125342	-1.20244	4.7671	-0.779738	0
0.4393	-75.6664	-4.64563	3.98741	3.5578	0.299834	-0.17906	-1.50305	3.26635	-1.06328	0
0.4400	-83.9331	-4.34	5.17768	3.85636	2.12739	-0.787866	-2.4169	1.1035	-1.98479	-0.322396
0.4407	-74.7331	-4.34	4.58254	3.5578	5.18284	-2.00548	-3.944	-0.0882797	-3.18984	-0.322396
0.4413	-58.8665	-3.11746	3.33276	3.5578	7.32451	-2.30988	-3.64339	6.312	-3.18984	0
0.4420	-73.5331	-0.978028	3.33276	3.5578	8.23829	-1.39667	-2.72954	16.6849	-2.58731	0.322396
0.4427	-87.5997	-0.978028	6.42746	3.25925	9.4519	-0.483463	-2.72954	20.9664	-3.18984	0
0.4433	-77.1998	-5.2569	11.3076	2.93581	9.15206	-0.483463	-2.4169	19.7305	-4.11134	0
0.4440	-64.9998	-9.8414	14.3428	2.93581	8.23829	-0.17906	-3.03015	15.7579	-4.11134	0.322396
0.4447	-45.4665	-10.4527	13.4501	2.93581	7.0104	1.03855	-3.33076	8.12173	-4.11134	0
0.4453	-11	-8.61887	9.46265	2.63725	6.39645	1.64736	-3.64339	-1.01522	-4.43033	-0.322396
0.4460	7.93331	-4.95126	3.03519	2.01526	5.18284	0.734148	-4.85786	-6.22372	-4.74931	0
0.4467	1.53333	0.244507	-6.42746	2.01526	3.35528	0.125342	-5.77171	-4.9878	-4.11134	0
0.4473	-28.9999	4.21774	-13.1525	3.85636	2.12739	-0.17906	-6.08435	-0.0882797	-2.58731	-0.322396
0.4480	-77.5331	3.30084	-11.3076	5.07547	1.82756	-0.787866	-6.08435	5.69404	-1.98479	-0.322396
0.4487	-113.533	0.855774	-5.47524	5.07547	1.82756	-2.00548	-5.4711	13.3302	-1.38226	-0.322396
0.4493	-130.933	-1.58929	-0.595135	5.69746	2.4415	-3.22309	-5.4711	19.7305	-0.460754	0
0.4500	-121.133	-2.81183	2.44005	7.21513	4.26906	-4.1542	-6.69759	22.7762	1.06328	0
0.4507	-70.1998	-3.4231	4.28497	8.43423	7.62434	-4.76301	-6.9982	23.7031	3.50882	-0.322396
0.4513	-29.2666	-5.56253	6.42746	9.05623	8.83795	-5.67622	-6.9982	21.5844	4.11134	-0.322396
0.4520	-9.46664	-8.61887	9.76022	9.9519	8.83795	-6.58942	-7.29881	16.9938	3.8278	0
0.4527	67.7331	-9.8414	11.9027	9.9519	9.76601	-6.89383	-7.91206	11.1674	3.8278	-0.322396
0.4533	158.733	-10.4527	12.4978	9.35478	10.3657	-7.19823	-8.5253	6.312	4.43033	-0.644791
0.4540	161.133	-9.23014	12.4978	10.2753	10.0658	-6.58942	-7.29881	6.00302	5.35184	-0.967187
0.4547	129.133	-4.64563	9.76022	11.171	9.15206	-5.06741	-5.4711	10.2846	4.11134	-0.322396
0.4553	122.4	-1.89493	4.58254	9.65334	7.62434	-3.8498	-4.55725	16.0669	0.744295	-0.322396
0.4560	100.133	-0.36676	-0.595135	7.81224	6.09662	-3.8498	-4.55725	22.7762	0.14177	-0.322396
0.4567	55.8665	3.30084	-5.47524	5.99602	5.18284	-4.1542	-4.55725	31.0303	0.460754	0
0.4573	32.3332	6.35718	-6.42746	4.77691	5.18284	-2.91868	-3.64339	35.3119	-0.779738	0
0.4580	21.0666	6.66281	-3.39227	4.15492	5.79678	-2.00548	-2.4169	31.3393	-1.6658	0
0.4587	-9.7333	6.35718	-2.14249	3.25925	6.09662	-1.39667	-1.80366	20.6575	-1.38226	-0.322396
0.4593	-48.5332	6.96845	-5.17768	2.3387	5.48267	-1.09227	-0.889806	9.35765	-0.460754	-0.322396
0.4600	-87.8664	9.10788	-11.3076	1.7167	5.48267	-0.787866	-0.589196	2.95737	-1.38226	-0.322396
0.4607	-117.466	10.0248	-14.0452	0.796152	5.18284	-0.483463	-1.20244	2.33941	-3.18984	-0.322396
0.4613	-113.2	9.71915	-12.2003	0.199038	4.26906	0.734148	0.937903	3.26635	-2.9063	0
0.4620	-82.6664	7.27408	-7.9153	-1.64206	3.95495	2.56056	2.76561	0.529678	-3.18984	0
0.4627	-76.2664	0.855774	-2.14249	-3.45828	4.26906	2.56056	3.07825	-4.36985	-4.43033	0
0.4633	-125.4	-4.95126	4.28497	-4.37884	4.56889	1.95176	3.37886	-8.34243	-5.95436	0
0.4640	-198.066	-7.70197	8.21287	-3.78172	5.48267	1.95176	3.67947	-11.6971	-5.95436	-0.322396
0.4647	-249.933	-10.147	9.46265	-2.86117	5.79678	1.64736	3.9921	-13.242	-4.11134	-0.322396
0.4653	-185.866	-11.6752	10.3554	-2.86117	4.883	2.56056	5.20656	-10.4611	-2.9063	-0.322396
0.4660	1.86666	-11.6752	11.6051	-2.86117	3.95495	2.25616	4.29271	-5.91474	-3.50882	0
0.4667	111.4	-11.3696	12.2003	-2.56261	4.26906	1.03855	2.15237	-0.0882797	-4.11134	0
0.4673	58.3332	-9.53577	10.9505	-2.23918	4.56889	1.34295	2.465	6.92996	-4.11134	0
0.4680	-22.5999	-6.78507	6.07038	-2.56261	3.65511	2.25616	3.07825	11.4764	-4.74931	0
0.4687	-42.1332	-3.11746	-1.24978	-2.56261	2.74134	2.56056	3.07825	13.0213	-5.03285	-0.322396
0.4693	-5.46665	1.77268	-8.56995	-1.94062	2.12739	2.56056	3.67947	13.6392	-3.8278	-0.322396
0.4700	68.0665	6.35718	-14.0452	-0.721513	0.913779	1.34295	2.465	13.3302	-2.58731	0
0.4707	109.6	9.71915	-15.2355	0.497595	-0.928056	0.734148	1.85176	12.7123	-1.06328	0
0.4713	98.2664	12.1642	-14.0452	1.7167	-0.928056	0.125342	2.76561	14.2572	1.06328	0
0.4720	48.5332	13.9369	-11.9027	3.25925	0.299834	-0.483463	3.67947	16.6849	1.98479	0
0.4727	-57.6665	14.8538	-11.01	5.07547	0.599667	-0.483463	3.9921	16.9938	3.50882	-0.322396
0.4733	-24.9999	15.7707	-15.5925	6.29458	0	-1.39667	2.15237	14.831	4.11134	-0.322396
0.4740	199.599	16.382	-21.0678	6.59313	-1.22789	-1.39667	0.937903	12.0943	4.43033	0
0.4747	234.066	16.382	-20.7702	6.91657	-2.4415	-0.787866	1.85176	9.35765	5.63538	-0.322396
0.4753	98.2664	15.4651	-16.7828	6.59313	-2.4415	-0.787866	0.937903	6.312	5.63538	-0.322396
0.4760	65.9331	13.0811	-10.7124	6.29458	-2.75561	-0.483463	0.637293	2.95737	5.63538	-0.322396
0.4767	53.9998	8.19098	-5.47524	5.37402	-2.75561	-0.787866	0.0240488	3.57533	5.63538	0
0.4773	24.7333	3.91211	-2.73762	4.47835	-1.22789	-1.70107	-1.50305	7.54791	4.71387	0
0.4780	33.8666	0.855774	1.19027	3.85636	0.599667	-1.09227	-1.20244	6.00302	4.43033	0
0.4787	45.4665	-3.4231	5.17768	2.93581	2.74134	-0.787866	-1.50305	-3.44291	3.50882	-0.322396
0.4793	44.8665	-6.47943	7.9153	1.7167	4.883	0.125342	-2.4169	-10.7701	2.30377	-0.322396
0.4800	51.8665	-9.53577	10.0578	0.497595	5.18284	0.429745	-2.4169	-13.5509	1.6658	-0.322396
0.4807	75.6664	-13.509	12.2003	-0.422956	4.26906	-0.17906	-2.72954	-16.5966	2.30377	-0.322396
0.4813	98.8664	-14.7315	14.0452	-0.721513	4.56889	-0.17906	-2.4169	-19.0243	3.8278	-0.322396
0.4820	96.133	-13.509	13.4501	-0.721513	4.26906	0.429745	-2.4169	-18.7153	4.11134	0
0.4827	70.1998	-10.7583	10.9505	-1.94062	3.35528	1.03855	-2.11629	-16.9056	2.30377	-0.322396
0.4833	40.5999	-7.39633	7.9153	-3.15973	2.4415	1.64736	-0.889806	-11.3881	1.6658	-0.967187
0.4840	31.7332	-3.4231	5.47524	-2.56261	2.4415	1.64736	-0.288586	-3.75189	2.9063	-0.644791
0.4847	31.7332	-0.672394	5.47524	-2.56261	2.4415	2.25616	0.637293	1.72145	0.744295	0
0.4853	15.6	-1.28366	6.72503	-3.45828	1.82756	2.86497	0.937903	3.57533	-5.35184	0
0.4860	0.599998	-2.20056	7.0226	-3.78172	1.21361	2.56056	0.324659	3.26635	-7.47839	0
0.4867	-7.93331	-1.28366	7.61773	-3.45828	0.599667	2.56056	0.637293	3.26635	-2.30377	0
0.4873	-24.7333	0.244507	8.51043	-2.86117	0.599667	2.56056	1.55115	2.33941	1.98479	0
0.4880	-34.7999	0.244507	7.61773	-3.15973	0.913779	1.64736	1.55115	1.41248	2.30377	-0.322396
0.4887	-35.9999	0.550141	6.72503	-3.45828	1.21361	1.95176	1.55115	4.7671	2.30377	-0.322396
0.4893	-28.9999	1.16141	7.32016	-2.23918	2.12739	1.95176	1.55115	9.35765	2.9063	0
0.4900	-18.2666	0.855774	7.0226	-1.94062	2.74134	0.429745	0.637293	9.35765	3.18984	-0.322396
0.4907	-39.6665	1.16141	6.72503	-1.94062	2.74134	-0.17906	0.637293	7.23894	3.18984	-0.322396
0.4913	-68.9331	2.99521	4.58254	-1.64206	2.4415	0.125342	1.85176	9.35765	4.11134	-0.322396
0.4920	-60.3998	4.82901	1.19027	-1.64206	2.12739	0.429745	2.465	12.7123	4.71387	-0.322396
0.4927	-31.9999	5.74591	0	-2.23918	2.12739	0.429745	1.85176	11.1674	5.03285	0
0.4933	-26.1999	7.57971	-2.73762	-4.08028	1.21361	-0.483463	0.637293	9.66663	3.50882	0
0.4940	-46.3999	10.0248	-5.47524	-5.59794	0.913779	-0.483463	-0.288586	11.1674	1.06328	-0.322396
0.4947	-52.7998	9.10788	-3.68984	-6.21994	0.913779	0.734148	0.324659	11.4764	0.744295	-0.322396
0.4953	-58.2665	6.05155	-0.297568	-6.81705	1.21361	2.25616	2.465	8.12173	-2.30377	0
0.4960	-86.6664	5.44028	-0.595135	-6.51849	1.82756	3.16937	3.67947	5.38506	-1.98479	0
0.4967	-88.7997	6.66281	-3.68984	-5.29939	1.51345	2.56056	2.76561	6.312	12.0505	-0.322396
0.4973	-52.7998	7.27408	-4.88011	-3.45828	1.21361	1.64736	2.15237	6.312	19.0681	0
0.4980	-26.5333	4.82901	-2.14249	-1.64206	1.21361	0.734148	2.465	2.03043	1.6658	0
0.4987	-6.99998	2.07831	1.19027	1.41815	1.82756	0.429745	2.15237	-1.63317	-14.815	0
0.4993	51.2665	2.07831	0.892703	2.63725	2.12739	1.03855	2.15237	-1.63317	-13.5745	0
0.5000	122.666	2.38394	-0.892703	1.41815	2.4415	1.95176	2.15237	-1.94215	-10.2429	0
0.5007	133.666	0.550141	-0.297568	0.796152	2.4415	1.95176	1.85176	-2.86909	-14.815	0
0.5013	98.8664	-1.28366	2.44005	-0.422956	2.74134	1.34295	1.55115	-1.01522	-29.4528	0
0.5020	76.3331	-1.58929	3.63032	-2.23918	3.04117	1.95176	1.55115	2.64839	-34.3439	0
0.5027	74.7998	-3.72873	5.47524	-2.56261	2.4415	3.16937	2.15237	1.1035	-10.8454	-0.322396
0.5033	69.5998	-7.70197	8.21287	-7.14049	1.51345	3.16937	2.15237	-4.36985	-11.448	-0.322396
0.5040	49.7332	-9.8414	11.6051	-13.8331	1.51345	4.10048	1.85176	-6.79754	-47.1387	0
0.5047	34.7999	-10.147	13.7476	-13.8331	1.51345	3.79608	1.55115	-6.5327	-32.8199	0
0.5053	29.5999	-8.9245	12.7954	-10.4744	2.12739	3.79608	1.85176	-6.22372	36.1515	0
0.5060	47.5999	-4.64563	8.51043	-11.7184	2.4415	4.40489	2.15237	-3.44291	72.7991	-0.322396
0.5067	52.1998	5.44028	-3.03519	-14.7537	1.21361	3.16937	0.637293	2.64839	42.2476	-0.322396
0.5073	-12.8	17.9101	-18.0326	-17.8139	-1.52772	4.10048	0.324659	7.54791	-6.87587	0
0.5080	-59.7998	24.6341	-25.3528	-22.9889	-2.4415	5.9269	2.15237	9.66663	-49.3007	0
0.5087	-11.6	24.3284	-22.9127	-27.8902	-2.4415	7.14451	3.07825	12.0943	-54.7943	-0.322396
0.5093	31.1332	22.4946	-16.1877	-25.7505	-2.75561	7.75332	3.9921	15.14	-9.32141	-0.322396
0.5100	-5.79998	20.9665	-12.2003	-21.7698	-3.05545	7.14451	3.37886	21.8492	11.7315	0
0.5107	-42.3999	17.9101	-9.16508	-20.8741	-2.4415	6.53571	1.85176	28.8675	-3.18984	0
0.5113	-63.7998	12.7755	-2.14249	-18.411	-1.84184	6.53571	2.15237	23.3941	-9.92393	0
0.5120	-112.6	6.35718	5.77281	-12.614	-1.52772	5.31809	3.07825	9.97561	-5.03285	0
0.5127	-149.533	0.244507	12.2003	-5.8965	-1.22789	4.10048	2.465	2.64839	2.9063	0
0.5133	-157.733	-4.95126	16.4852	-0.721513	-0.928056	1.95176	0.637293	-0.706238	6.87587	-0.322396
0.5140	-151.933	-6.1738	16.4852	2.01526	0	-0.17906	-0.288586	-4.36985	8.08092	-0.967187
0.5147	-130.933	-4.34	14.3428	3.85636	0.599667	0.125342	0.324659	-5.91474	11.448	-0.322396
0.5153	-93.6664	-2.81183	10.0578	2.3387	0	1.03855	0.637293	-3.44291	30.0553	0
0.5160	-64.6665	-0.0611267	4.58254	-4.08028	-0.928056	1.34295	0.324659	2.03043	61.493	-0.322396
0.5167	-38.4666	4.21774	0.297568	-10.1758	-0.613945	0.734148	-0.589196	6.62098	40.1211	-0.322396
0.5173	56.4665	7.57971	-3.03519	-11.7184	-0.928056	-0.787866	-1.80366	9.66663	-39.5185	0
0.5180	143.466	10.3304	-6.12989	-9.5787	-2.14167	-2.00548	-1.80366	12.7123	-69.1131	-0.644791
0.5187	123.933	11.553	-6.12989	-6.51849	-1.52772	-2.00548	-1.50305	13.9482	-22.7542	-0.644791
0.5193	89.7331	10.0248	-3.98741	-5.00083	-0.314111	-1.39667	-1.80366	13.6392	23.9592	0
0.5200	79.6664	7.57971	-2.73762	-4.67739	0	-2.00548	-3.64339	14.2572	44.0906	0
0.5207	42.7332	6.35718	-1.84492	-1.64206	1.21361	-4.1542	-5.17049	15.14	63.336	0
0.5213	-7.93331	3.91211	0.595135	6.29458	2.4415	-6.89383	-6.08435	13.0213	100.551	0
0.5220	-40.2665	1.46704	3.98741	13.9327	2.74134	-6.89383	-5.77171	6.62098	125.29	0
0.5227	-64.0665	-0.0611267	5.17768	22.4664	3.04117	-6.58942	-4.25664	-3.44291	149.674	0
0.5233	-83.5998	-0.672394	4.28497	28.2634	3.65511	-9.32905	-3.944	-10.4611	202.803	0
0.5240	-45.7332	-0.978028	3.63032	19.4311	3.04117	-11.1734	-3.944	-8.96039	165.871	0
0.5247	58.9332	-0.978028	3.63032	1.11959	2.4415	-10.2423	-3.03015	-3.44291	5.95436	-0.322396
0.5253	124.8	0.550141	3.63032	-9.87726	1.51345	-8.41584	-1.50305	2.64839	-96.9001	0
0.5260	167.866	1.46704	3.33276	-8.65815	0	-7.19823	-0.589196	6.62098	-78.5763	0
0.5267	234.399	2.38394	0.892703	-2.23918	-1.22789	-6.28502	0.324659	7.23894	-9.92393	-0.322396
0.5273	212.999	4.82901	-2.73762	1.11959	-1.84184	-4.4586	2.465	8.43071	38.597	0
0.5280	118.733	6.66281	-3.98741	0.199038	-1.52772	-3.22309	3.9921	9.04867	3.8278	0
0.5287	61.3332	7.27408	-1.54735	-0.721513	-0.314111	-2.30988	3.67947	7.54791	-63.6195	-0.322396
0.5293	35.1332	7.57971	0.297568	-0.721513	-0.613945	-2.00548	2.76561	6.92996	-74.9257	-0.322396
0.5300	13.7333	7.57971	0.595135	5.07547	-1.52772	-1.70107	1.55115	5.69404	-35.8679	0
0.5307	-12.2	7.27408	1.84492	16.3709	-1.52772	-2.00548	1.23851	2.95737	-30.0553	0
0.5313	-52.4665	7.88535	2.14249	26.4472	-2.14167	-5.37181	-0.288586	2.03043	-78.2928	0
0.5320	-86.9331	10.0248	0	31.025	-3.36956	-7.19823	-1.50305	1.72145	-80.4193	-0.322396
0.5327	-93.6664	10.6361	-1.24978	30.403	-3.66939	-5.37181	-1.20244	0.529678	-14.496	0
0.5333	-58.8665	9.41352	0.297568	24.9046	-3.05545	-4.1542	-2.4169	0.220699	63.9385	0
0.5340	18.5999	8.19098	3.33276	19.1076	-0.613945	-3.52749	-2.72954	0.794517	165.552	0
0.5347	71.3998	8.19098	3.98741	16.968	1.82756	-1.70107	-1.80366	1.1035	255.577	0
0.5353	60.7332	8.80225	3.33276	11.793	2.74134	1.03855	-1.50305	2.03043	195.466	0
0.5360	40.9332	8.19098	6.07038	0.497595	3.95495	3.16937	-1.80366	0.220699	-20.9111	0
0.5367	35.1332	6.35718	8.51043	-5.00083	5.18284	2.56056	-4.25664	-4.67882	-185.684	0
0.5373	19.8666	4.21774	10.3554	4.47835	5.18284	3.16937	-5.17049	-8.65141	-175.937	0
0.5380	-4.53332	3.60648	12.4978	18.5105	4.883	5.31809	-3.944	-8.03345	-95.0571	-0.322396
0.5387	-24.9999	2.68958	13.7476	25.5266	2.74134	6.2313	-3.64339	-2.25113	-35.549	-0.322396
0.5393	-37.7999	2.07831	14.3428	27.9648	0	6.84011	-4.25664	2.03043	16.6226	0
0.5400	-29.8666	1.77268	14.3428	32.5427	-0.314111	5.6225	-5.17049	3.57533	3.18984	-0.322396
0.5407	-14.9333	1.16141	14.3428	42.619	-0.928056	3.16937	-5.77171	3.88431	-103.918	-0.322396
0.5413	-43.9332	1.16141	13.4501	55.7306	-2.75561	2.25616	-5.17049	3.26635	-173.811	0
0.5420	-100.666	3.30084	10.3554	66.1055	-3.96923	5.01369	-3.64339	2.95737	-140.53	0
0.5427	-129.066	4.82901	5.77281	71.0068	-4.883	12.0329	-4.85786	2.64839	-32.5009	-0.322396
0.5433	-140.4	4.21774	3.03519	62.1496	-5.19712	17.2077	-7.91206	-0.397259	89.8825	-0.967187
0.5440	-155.333	4.52338	3.63032	42.3204	-3.96923	19.6608	-6.08435	-1.63317	218.965	-0.644791
0.5447	-161.4	5.74591	3.98741	14.5298	-2.4415	21.4872	-1.50305	1.41248	394.122	0
0.5453	-180.933	6.66281	2.14249	-30.9255	-0.613945	22.4005	2.15237	2.64839	402.38	0
0.5460	-206.866	8.19098	-0.297568	-67.5485	0.913779	22.0961	4.90596	2.64839	99.0267	0
0.5467	-78.3998	9.71915	-4.28497	-62.3735	1.82756	19.052	5.5192	6.312	-139.325	0
0.5473	201.733	12.1642	-7.61773	-19.033	1.21361	11.7285	3.67947	13.3302	-42.5666	0
0.5480	327.799	14.2425	-7.0226	32.2441	-0.928056	9.57973	1.23851	18.2298	135.355	0
0.5487	239.266	13.3868	-2.73762	54.5115	-3.05545	19.052	-0.889806	15.7579	252.529	0
0.5493	142.866	11.2473	2.14249	45.6543	-3.36956	26.68	-2.11629	8.73969	337.662	0
0.5500	114.133	10.3304	5.17768	22.7898	-1.52772	28.5064	-1.80366	3.88431	238.174	-0.322396
0.5507	108.333	8.80225	7.0226	-8.03616	1.21361	26.3756	0.937903	3.26635	66.384	0
0.5513	90.3331	7.57971	7.9153	-27.8902	4.883	20.574	3.07825	6.312	95.0571	-0.322396
0.5520	63.4665	9.41352	7.32016	-24.5314	8.23829	18.7476	4.90596	10.5936	128.019	-0.322396
0.5527	33.2666	10.9417	3.98741	-5.29939	3.95495	18.1388	6.43305	8.12173	-43.8071	0
0.5533	7.66664	11.2473	0	30.1045	-6.11089	13.8593	6.43305	-1.01522	-189.972	-0.322396
0.5540	22.9333	10.0248	-0.297568	74.6641	-8.25256	7.75332	4.59332	-8.96039	-106.647	-0.322396
0.5547	70.1998	8.80225	0.892703	100.912	-2.75561	2.56056	3.9921	-10.4611	10.8454	0
0.5553	83.3331	9.10788	1.54735	108.849	1.51345	-2.91868	3.67947	-7.72447	-77.0523	0
0.5560	64.3998	8.80225	2.44005	118.602	3.95495	-12.6954	0.0240488	-4.67882	-216.519	-0.322396
0.5567	44.5999	8.49662	3.98741	113.103	3.04117	-22.7586	-3.944	-2.86909	-138.687	-0.322396
0.5573	22.2666	9.10788	5.17768	86.8552	1.82756	-27.0381	-4.85786	-4.9878	71.2397	0
0.5580	16.7999	9.71915	5.17768	91.1345	4.883	-27.3425	-3.33076	-10.4611	190.894	0
0.5587	23.5333	8.80225	6.07038	123.478	8.53812	-28.5601	-0.589196	-11.3881	180.828	0
0.5593	22.2666	6.66281	7.0226	138.754	2.4415	-31.6042	0.0240488	-6.22372	43.1691	0
0.5600	9.79997	5.44028	7.0226	129.275	-7.63862	-29.7777	-0.589196	-1.94215	-67.3055	0
0.5607	-2.13333	4.21774	6.42746	87.4772	-7.93845	-27.6469	-0.889806	0.220699	-25.1643	-0.322396
0.5613	29.5999	3.60648	6.07038	11.171	-7.32451	-30.691	-2.11629	3.57533	54.1563	-0.967187
0.5620	81.4664	5.13464	7.9153	-53.5163	-10.9939	-29.7777	-0.589196	9.04867	191.815	0
0.5627	82.7331	6.66281	7.9153	-45.2811	-11.6078	-26.1249	2.15237	13.6392	420.669	0.322396
0.5633	49.7332	7.57971	4.88011	-6.81705	-7.63862	-23.3674	3.07825	13.3302	582.11	0
0.5640	23.1999	8.49662	2.44005	-43.7386	-2.14167	-16.957	4.90596	12.0943	455.792	-0.322396
0.5647	1.53333	9.41352	-1.54735	-108.749	5.48267	-11.7822	7.64752	12.7123	-79.8168	0
0.5653	-24.0666	10.6361	-4.58254	-81.2821	15.5628	-12.0866	8.26076	13.3302	-651.081	0.322396
0.5660	-41.4665	13.0811	-4.88011	11.793	22.2734	-24.2806	7.34691	14.2572	-723.419	-0.322396
0.5667	-27.4666	16.6876	-8.56995	74.6641	20.1317	-55.7236	4.90596	14.5662	-381.611	-0.322396
0.5673	1.86666	17.6045	-11.01	78.3214	13.721	-71.8928	1.85176	14.2572	-13.8935	0
0.5680	14.9333	15.1594	-7.61773	55.1335	10.6798	-31.9265	2.76561	12.7123	88.3585	0
0.5687	10.4	12.4699	-4.28497	54.213	12.8072	19.052	5.20656	9.35765	-75.5282	0
0.5693	-9.13331	10.6361	-2.44005	84.417	11.5936	27.8976	5.20656	5.07608	-134.753	0
0.5700	-41.4665	9.10788	0.595135	110.367	0.599667	24.8536	4.90596	0.529678	-16.0201	0
0.5707	-67.7331	6.66281	3.98741	125.618	-5.19712	28.5064	4.90596	-7.4155	26.6883	-0.322396
0.5713	-76.2664	2.68958	7.32016	131.738	-4.58317	23.9225	3.37886	-13.242	-21.1947	-0.322396
0.5720	-75.3331	0.244507	8.86751	89.9154	-6.72484	15.9901	2.76561	-10.1522	0.14177	0
0.5727	-68.0665	-0.978028	7.61773	36.5235	-6.41073	8.97093	3.37886	-6.22372	123.128	0
0.5733	-53.9998	-1.28366	6.42746	40.1808	-1.22789	-3.8498	1.23851	-4.9878	167.396	-0.967187
0.5740	-35.9999	0.244507	7.32016	66.1055	6.39645	-8.72024	0.324659	-1.63317	69.4321	-0.967187
0.5747	-20.7333	1.16141	7.9153	50.5556	18.604	12.6417	2.465	0.794517	-20.3086	0
0.5753	-11.8666	2.68958	6.72503	1.7167	24.7149	33.6992	4.59332	-0.706238	-70.6372	0.322396
0.5760	-11.6	6.66281	4.88011	-50.7796	22.8873	32.786	5.81981	-2.25113	-164.95	-0.322396
0.5767	-3.33332	11.2473	1.54735	-142.014	22.2734	25.158	5.20656	0.220699	-346.842	0
0.5773	17.1333	12.7755	-1.84492	-214.961	20.4458	15.6857	5.81981	4.45813	-447.534	0
0.5780	33.5999	8.49662	-3.03519	-125.842	12.2075	29.724	3.9921	6.62098	-231.795	-0.322396
0.5787	50.3332	4.52338	-4.58254	34.6824	3.35528	66.0375	-2.11629	8.12173	150.312	-0.322396
0.5793	63.4665	3.30084	-4.58254	82.2773	-3.05545	70.0126	-7.91206	9.97561	420.987	-0.322396
0.5800	60.7332	1.16141	-2.14249	23.6855	-6.41073	48.9551	-12.4934	9.66663	566.267	0
0.5807	56.1332	-0.36676	0	-50.4561	-1.22789	40.4139	-14.9343	7.81275	658.737	0
0.5813	50.9998	1.46704	0.595135	-82.2027	7.32451	38.5696	-14.9343	7.54791	682.519	0.322396
0.5820	42.7332	-7.39633	0	-41.0018	9.4519	26.9844	-15.8482	7.81275	615.993	0
0.5827	45.4665	-22.0667	-1.54735	-1.31863	11.8934	5.31809	-18.2891	6.92996	346.842	0
0.5833	47.3332	-9.8414	-3.98741	-39.1607	18.604	-10.2423	-20.4295	6.312	-229.03	0.322396
0.5840	28.0666	9.10788	-6.42746	-53.8149	22.5732	-16.957	-18.9024	8.12173	-639.208	0
0.5847	10.0666	9.10788	-7.61773	-2.86117	20.7456	-21.8454	-14.3211	9.66663	-491.802	0
0.5853	10.0666	9.41352	-6.72503	4.77691	14.9488	-26.1249	-11.5795	8.43071	-193.942	0
0.5860	11.6	12.4699	-4.88011	-44.6591	10.3657	-31.6042	-10.9663	4.14915	-99.0267	0
0.5867	9.46664	10.9417	-1.84492	-103.251	5.48267	-40.7721	-9.43915	1.72145	-144.819	0
0.5873	6.99998	8.19098	2.14249	-157.265	-1.84184	-47.7912	-5.77171	2.64839	-275.106	0
0.5880	0.333332	6.66281	6.72503	-191.45	-2.14167	-49.6176	0.637293	3.57533	-394.76	0
0.5887	-14.6666	6.96845	7.9153	-197.57	0.599667	-49.0088	7.0463	5.38506	-317.53	0
0.5893	-41.4665	8.49662	3.33276	-135.619	-3.66939	-48.0956	7.0463	9.66663	-85.3104	0
0.5900	-74.1331	10.6361	-2.14249	-35.8268	-7.02467	-51.1397	1.55115	12.4033	210.706	0
0.5907	-93.3997	12.4699	-5.83232	-20.8741	-5.19712	-55.7236	-3.64339	11.7853	522.92	0
0.5913	-86.6664	13.0811	-9.46265	-53.8149	-1.22789	-55.1148	-5.4711	11.1674	672.134	0
0.5920	-71.0665	12.1642	-11.9027	-23.9094	4.56889	-48.7044	-2.72954	11.7853	595.542	-0.322396
0.5927	-61.6665	10.0248	-13.4501	27.0443	10.0658	-40.1632	-1.20244	13.3302	458.521	-0.322396
0.5933	-54.9332	12.4699	-17.3779	42.619	10.9796	-33.1441	-5.17049	15.14	463.093	-0.322396
0.5940	-44.5332	11.2473	-22.6151	39.8573	10.3657	-24.9073	-6.38496	13.6392	381.611	-0.322396
0.5947	-24.0666	-10.147	-26.8406	25.2281	14.649	-18.4969	-4.55725	3.88431	-125.573	0
0.5953	-12.5333	-35.7591	-25.0552	-8.35959	20.7456	-14.5218	-3.33076	-11.6971	-679.471	0
0.5960	-27.1333	-42.4831	-16.7828	-69.091	20.4458	-10.869	-1.80366	-21.452	-844.881	0
0.5967	-16.7999	-40.9549	-10.0578	-113.626	14.0351	-9.02464	1.23851	-19.6422	-761.875	-0.322396
0.5973	32.9999	-41.8718	-5.17768	-72.4249	6.09662	-2.61428	8.26076	-14.1248	-596.464	-0.322396
0.5980	24.7333	-42.4831	0.297568	-18.7344	-1.84184	8.97093	13.4553	-11.6971	-420.704	0
0.5987	-59.7998	-42.4831	3.33276	-59.0148	-3.96923	13.5549	13.1427	-12.006	-251.324	-0.322396
0.5993	-130.266	-48.5957	7.0226	-125.842	1.82756	0.734148	10.7017	-10.1522	-109.73	-0.322396
0.6000	-160.8	-44.3169	12.4978	-141.093	4.56889	-20.9322	7.64752	-4.9878	-76.4497	0
0.6007	-180.066	8.19098	16.7828	-139.277	0.913779	-34.3617	5.5192	1.41248	-63.9385	0
0.6013	-180.333	59.1095	19.818	-114.248	-3.66939	-43.8161	6.73366	6.312	-14.496	0
0.6020	-165.666	37.4707	22.2581	-81.2821	-4.28334	-56.6368	8.56137	9.97561	-30.3743	0.322396
0.6027	-204.733	-2.5062	21.9605	-108.749	-3.96923	-63.3516	7.64752	10.9025	-156.408	0
0.6033	-232.199	-8.9245	15.2355	-130.42	-5.19712	-58.4632	2.465	12.0943	-233	-0.644791
0.6040	-79.9331	-4.34	2.14249	-60.2339	-7.32451	-43.2073	-0.889806	18.2298	-47.1387	-0.322396
0.6047	117.533	-5.86817	-17.3779	59.388	-10.0801	-24.9073	-0.589196	26.7488	287.333	0.322396
0.6053	226.733	-23.9006	-39.3979	165.301	-10.38	-16.6526	-2.11629	34.3849	519.27	0.322396
0.6060	321.999	-20.2329	-51.8958	222.674	-6.11089	-21.541	-1.80366	40.7852	645.906	0
0.6067	334.199	35.9425	-50.9436	224.49	7.62434	-27.3425	3.07825	43.2129	633.998	0
0.6073	281.666	71.6405	-44.2781	141.491	20.7456	-27.0381	9.17462	39.2845	341.95	-0.322396
0.6080	267.333	50.6129	-36.3032	-19.3316	15.8626	-34.0573	14.9704	29.7944	-81.0218	-0.322396
0.6087	246.599	30.1355	-25.6503	-143.855	3.95495	-45.3381	17.724	15.7579	-392.314	0
0.6093	168.799	44.5003	-13.7476	-168.56	-2.75561	-51.1397	17.4113	2.95737	-506.121	0
0.6100	58.3332	56.9701	-5.47524	-97.7774	-5.49695	-55.1148	14.0565	-10.7701	-360.877	-0.322396
0.6107	-13.4	35.0256	-0.595135	-13.8331	-5.19712	-53.2884	9.48725	-33.3697	-108.49	0
0.6113	-33.5332	9.10788	3.33276	8.13568	-9.46618	-46.5736	6.43305	-55.9693	-44.4096	0
0.6120	-56.1332	7.88535	0.297568	21.8693	-13.4354	-38.6233	1.55115	-56.8521	-131.067	0
0.6127	-82.6664	12.7755	-12.2003	57.2732	-7.02467	-25.5161	-3.944	-36.1064	-137.482	0
0.6133	-37.1999	13.3868	-24.103	81.3816	-5.49695	-6.58942	-5.4711	-13.8158	-67.5891	-0.322396
0.6140	101.333	19.1327	-25.3528	74.3407	-16.4908	15.0769	-3.64339	1.41248	-78.8953	0
0.6147	155.066	20.9665	-21.6629	47.794	-25.9427	30.0284	-6.38496	11.7853	-89.8825	0
0.6153	29.5999	10.6361	-15.8901	2.3387	-29.298	37.0476	-14.9343	9.97561	145.102	0
0.6160	-120.2	-4.64563	-4.28497	-84.0438	-32.0536	47.7375	-18.9024	-8.34243	526.571	0
0.6167	-223.399	-18.7048	7.32016	-155.15	-31.4397	54.1479	-18.9024	-26.0425	751.809	0.322396
0.6173	-295.999	-33.6197	17.3779	-126.14	-23.2014	51.9991	-18.2891	-33.0608	745.075	0
0.6180	-327.132	-62.3493	26.2455	-44.062	-11.6078	53.5391	-13.1066	-37.3423	534.51	0
0.6187	-357.066	-104.466	26.543	-19.033	0.913779	59.3227	-11.5795	-38.8431	163.426	0
0.6193	-383.932	-104.16	18.9253	-30.3284	9.4519	63.9067	-21.3433	-31.8248	-167.396	0
0.6200	-196.533	-36.3704	8.21287	-5.59794	11.8934	77.0318	-32.6342	-21.143	-410.603	0
0.6207	243.866	27.3848	-3.68984	24.6061	15.5628	91.6789	-36.2896	-11.3881	-693.222	-0.322396
0.6213	463.599	43.5834	-13.1525	28.8854	15.8626	55.9743	-28.9668	1.72145	-850.375	0
0.6220	359.199	40.2214	-20.1751	44.4352	7.32451	-13.6086	-21.3433	14.5662	-778.674	0.322396
0.6227	308.532	39.6101	-26.2455	51.7747	-4.883	-43.8161	-18.5897	22.7762	-689.536	0
0.6233	313.132	41.4439	-32.9705	-18.1125	-20.7599	-5.98062	-13.4072	26.4398	-666.038	0
0.6240	275.599	42.6665	-40.2907	-105.391	-28.3842	74.2922	-8.21266	26.7488	-643.177	0
0.6247	281.399	40.527	-39.3979	-84.9394	-20.7599	130.123	-4.85786	25.5128	-561.057	0
0.6253	274.999	31.6636	-26.543	19.1076	-11.6078	145.397	-3.64339	19.4215	-403.585	-0.322396
0.6260	180.666	18.5214	-7.61773	95.4138	-5.81106	147.528	-6.08435	7.81275	-259.546	-0.322396
0.6267	87.5997	7.27408	8.21287	111.287	-1.52772	146.006	-6.69759	0.220699	-161.583	0
0.6273	39.9999	-4.34	16.7828	81.3816	0.599667	138.073	-6.38496	-4.36985	-67.5891	0
0.6280	9.79997	-12.5921	23.2103	1.41815	3.04117	128.297	-1.80366	-11.0791	-55.0778	0
0.6287	6.39998	-9.8414	23.2103	-33.6872	6.39645	134.707	8.56137	-20.5692	-147.548	0
0.6293	2.13333	-4.03436	12.4978	50.2322	8.83795	154.547	13.1427	-33.6787	-110.935	-0.322396
0.6300	-11.2666	-4.03436	-0.892703	142.71	11.8934	151.79	8.87401	-40.6969	149.993	-0.322396
0.6307	-16.7999	-7.39633	-10.0578	154.926	13.4211	120.364	4.29271	-32.7518	423.114	-0.322396
0.6313	-42.7332	-10.4527	-10.3554	126.538	7.62434	94.4186	7.64752	-19.6422	582.11	-0.322396
0.6320	-71.9998	-10.4527	-3.39227	108.525	3.35528	82.8334	11.9282	-14.7427	640.732	0
0.6327	-107.133	-8.9245	-0.595135	87.7757	3.65511	64.5155	6.73366	-17.1704	606.246	-0.322396
0.6333	-227.666	-7.39633	-4.58254	78.0229	8.83795	45.2844	2.465	-18.0973	446.329	-0.644791
0.6340	-377.466	-2.5062	-11.3076	124.697	33.253	38.5696	5.5192	-14.4337	142.976	-0.967187
0.6347	-404.932	4.52338	-16.4852	201.924	60.7234	38.8919	10.4011	-10.7701	-199.117	-0.322396
0.6353	-277.399	13.3868	-22.2581	240.985	60.7234	33.3948	13.7559	-8.03345	-418.258	0
0.6360	-66.1998	20.3552	-30.5304	199.486	37.8361	18.1388	11.315	-8.03345	-349.287	0
0.6367	89.7331	22.4946	-33.5656	144.551	19.8319	2.86497	7.0463	-12.315	-32.5009	-0.322396
0.6373	154.4	20.6608	-26.8406	170.177	4.56889	-7.50263	4.29271	-10.1522	251.607	0
0.6380	187.066	16.6876	-18.3302	102.728	-17.0905	-13.913	3.07825	6.312	386.183	0
0.6387	150.8	12.4699	-8.86751	-187.195	-28.3842	-17.5658	8.56137	30.1034	405.428	0
0.6393	102.266	2.99521	3.98741	-422.16	-34.795	-21.2366	13.7559	39.8583	299.526	0
0.6400	117.8	-12.8977	17.9731	-461.221	-39.3781	-26.1249	12.8421	25.248	124.368	0
0.6407	67.4665	-27.2014	28.3879	-391.657	-30.8258	-32.5353	8.87401	2.33941	30.9769	0
0.6413	-101	-36.3704	33.5656	-269.572	-26.2569	-35.8837	3.9921	-20.5692	48.3792	0
0.6420	-187.999	-41.2605	37.8506	-176.795	-24.415	-29.7777	5.5192	-42.5067	35.23	-0.322396
0.6427	-138.866	-41.5662	35.7081	-87.0791	-17.7045	-23.6718	7.64752	-53.1885	-30.3743	-0.322396
0.6433	-119.933	-39.4267	26.2455	21.2473	-14.0493	-26.4293	4.29271	-47.4062	-23.9592	0
0.6440	-140.666	-38.8155	22.5556	70.6834	-10.0801	-31.6042	-0.889806	-31.8248	-14.177	0
0.6447	-126.333	-41.5662	28.6855	40.4793	-1.22789	-30.3866	-6.69759	-19.9512	-116.11	-0.322396
0.6453	-132.733	-43.7056	37.1959	-33.6872	5.79678	-22.1498	-7.61144	-9.88733	-240.336	0
0.6460	-178.799	-41.5662	39.0409	-62.6721	-1.22789	-20.6278	-8.21266	3.26635	-286.093	0
0.6467	-72.3331	-34.231	33.5656	-28.1887	-4.28334	-25.8205	-14.3211	17.9208	-241.258	0
0.6473	123	-24.8175	27.4357	18.212	9.4519	-16.6526	-18.5897	32.5311	-175.016	0
0.6480	152.933	-20.5386	23.2103	74.0421	20.7456	1.95176	-21.9566	38.6665	-115.508	0
0.6487	96.133	-16.2597	21.6629	83.4964	26.5424	11.1197	-20.7301	44.1399	19.6707	-0.322396
0.6493	-65.9331	-3.11746	13.7476	69.7628	31.4254	7.75332	-15.2349	59.7212	294.032	-0.322396
0.6500	-145.533	13.3868	-10.3554	127.757	30.5116	-1.39667	-14.6217	76.1854	661.785	0
0.6507	306.132	30.7467	-42.1356	222.674	27.1564	-9.32905	-17.0626	86.5583	935.508	0
0.6513	790.731	43.5834	-65.941	288.282	21.0455	-15.1306	-20.1168	84.4395	1020.04	0
0.6520	807.798	43.5834	-71.1187	318.187	9.76601	-15.1306	-22.8704	67.3574	958.085	0
0.6527	740.398	37.1651	-64.0961	303.234	2.12739	-13.6086	-20.7301	49.0394	636.762	0
0.6533	660.998	31.0524	-61.656	246.782	0.299834	-15.435	-18.5897	31.3393	41.9641	-0.322396
0.6540	506.332	25.551	-60.4062	186.349	0	-17.2614	-14.9343	17.3028	-511.933	-0.322396
0.6547	343.332	16.0763	-49.7533	108.525	4.26906	-14.8262	-8.5253	13.6392	-786.295	-0.322396
0.6553	44.2665	-0.978028	-25.3528	12.3901	1.51345	-4.1542	-0.889806	-7.4155	-800.33	-0.322396
0.6560	-228.533	-21.4555	8.21287	-83.4218	-12.5216	-16.0438	12.5294	-60.5157	-676.741	0
0.6567	-315.866	-34.8422	27.7928	-149.652	-20.4458	-60.9164	20.1649	-102.051	-517.427	0
0.6573	-339.332	-37.8986	27.7928	-211.901	-13.4354	-90.515	12.2288	-97.7698	-353.257	-0.322396
0.6580	-301.199	-34.231	21.0678	-286.067	-4.883	-96.9254	-1.50305	-66.916	-180.509	0
0.6587	-270.066	-25.4287	8.21287	-206.726	-4.28334	-106.989	-14.3211	-43.1246	-25.8022	0
0.6593	-261.799	-12.5921	-3.98741	17.8885	-1.22789	-113.703	-19.8162	-34.6056	58.7284	-0.322396
0.6600	-10.6666	-4.95126	-10.7124	197.943	7.32451	-85.3223	-21.3433	-22.6879	56.6019	-0.322396
0.6607	291.132	-4.34	-10.0578	280.644	9.15206	-33.7529	-21.3433	-1.63317	-17.8631	0
0.6613	164.8	-6.78507	3.98741	294.377	3.35528	-6.58942	-19.203	11.4764	-149.072	0.322396
0.6620	-144.666	-14.1203	25.3528	281.863	-3.36956	1.64736	-17.3753	10.5936	-266.883	0
0.6627	-226.133	-24.8175	47.0157	275.469	-9.16634	9.57973	-10.9663	7.23894	-327.313	0
0.6633	-286.532	-36.0648	63.4414	221.455	-5.49695	9.57973	-3.944	3.57533	-349.287	0
0.6640	-403.732	-43.0943	65.2863	41.0765	1.51345	5.31809	-1.20244	-6.79754	-332.487	-0.322396
0.6647	-453.799	-40.6493	52.4909	-179.557	-0.613945	7.44891	4.29271	-20.5692	-322.422	-0.967187
0.6653	-450.399	-25.7344	24.9957	-227.152	-4.883	7.75332	13.7559	-19.9512	-315.085	-0.644791
0.6660	-164.466	1.16141	-10.3554	-101.111	-7.02467	4.70929	23.5197	7.23894	-261.992	0
0.6667	378.399	27.6904	-40.2907	-18.411	-10.0801	-3.22309	25.9607	44.1399	-210.742	0
0.6673	781.864	39.3045	-51.5982	-85.2629	-12.5216	-17.8881	25.3474	65.8125	-166.793	0
0.6680	860.597	33.8031	-43.6234	-219.837	-13.1356	-25.2117	30.2293	69.4761	-97.1837	-0.322396
0.6687	656.465	19.4383	-30.2329	-318.71	-20.7599	-25.2117	31.7564	73.4487	-29.1338	-0.967187
0.6693	275.599	3.91211	-10.0578	-369.365	-25.029	-24.585	25.3474	81.9677	-0.779738	-0.644791
0.6700	-135.466	-18.3991	21.9605	-387.676	-9.76601	-31.9265	17.1107	63.0759	-24.2782	-0.322396
0.6707	-485.199	-49.8183	54.931	-334.583	6.09662	-45.0337	8.26076	-3.13393	-58.4449	0
0.6713	-832.198	-72.0684	68.9762	-231.133	10.6798	-49.3132	2.76561	-79.4517	-68.5106	0
0.6720	-904.531	-70.5402	51.5387	-155.747	14.3349	-47.4868	0.637293	-120.016	-70.3536	0
0.6727	-496.199	-47.9845	18.9253	-89.5173	13.4211	-49.6176	1.85176	-104.788	-42.8856	0.322396
0.6733	-65.2665	-23.5949	-3.03519	-13.236	6.71056	-63.656	5.5192	-49.2159	5.63538	0
0.6740	87.2664	-7.39633	-14.9379	18.8091	-0.613945	-79.8251	6.43305	16.9938	36.4705	-0.322396
0.6747	72.0665	8.80225	-27.4952	4.77691	-6.72484	-75.8679	6.12042	74.3757	62.698	-0.322396
0.6753	153.8	27.0791	-42.4331	10.8724	-8.5524	-67.0044	2.76561	111.277	75.5282	0
0.6760	406.532	48.7791	-64.3936	42.9176	-7.93845	-67.9355	-1.50305	133.876	65.4625	0
0.6767	673.531	65.8335	-83.9141	69.1657	-8.25256	-64.2648	-0.889806	124.695	71.5587	-0.322396
0.6773	937.797	65.8335	-91.2342	107.928	-6.41073	-46.878	-0.288586	78.0393	101.153	-0.322396
0.6780	998.264	54.2805	-82.4262	177.816	0.299834	-23.9762	0.324659	41.0942	106.647	-0.322396
0.6787	794.664	34.72	-56.4783	166.222	11.8934	-16.957	-0.889806	23.0851	77.9738	-0.322396
0.6793	652.798	9.10788	-25.0552	-41.6238	17.0905	-9.32905	-8.21266	-1.63317	41.3615	0
0.6800	499.865	-15.3428	6.07038	-303.458	11.8934	29.724	-10.353	-37.0333	0.744295	0
0.6807	257.599	-40.038	28.3879	-446.268	9.15206	91.3745	-11.2669	-88.0149	-31.5794	0
0.6813	152.933	-58.6817	40.8858	-478.935	17.0905	169.803	-13.4072	-125.225	-43.1691	-0.322396
0.6820	-82.9998	-60.5155	47.0157	-433.455	30.5116	214.049	-11.2669	-105.406	-45.0121	-0.322396
0.6827	-524.865	-47.0676	38.4457	-344.037	32.6533	189.947	-7.29881	-50.1429	-27.9288	0
0.6833	-630.465	-31.4803	24.4005	-282.087	19.8319	152.721	-1.50305	-14.4337	16.9416	0
0.6840	-523.665	-24.2062	15.533	-279.35	14.3349	121.278	-1.80366	-13.242	56.6019	0
0.6847	-626.198	-19.316	5.17768	-248.822	7.62434	90.1569	-5.17049	-18.7153	79.8168	0
0.6853	-655.531	-13.2034	-1.54735	-152.687	-23.2014	65.1243	-0.589196	-8.34243	106.044	0
0.6860	-545.065	-7.70197	-3.68984	-81.2821	-50.6719	-6.28502	4.90596	13.3302	133.193	0
0.6867	-302.999	0.855774	-7.0226	-51.3767	-54.9409	-119.809	8.26076	33.458	152.722	0
0.6873	195.599	5.74591	-8.86751	-29.1093	-54.0272	-171.683	11.0023	44.7578	162.504	0
0.6880	523.065	11.553	-14.6403	-7.7376	-55.2408	-146.668	16.4975	59.1033	210.423	-0.322396
0.6887	579.865	28.3017	-28.0904	26.4472	-51.2715	-107.293	23.8203	81.3939	304.098	-0.322396
0.6893	518.532	34.72	-33.8632	66.7275	-45.1749	-89.6018	18.0246	82.5857	338.583	0
0.6900	371.732	20.9665	-22.9127	99.3697	-43.6472	-84.4091	7.0463	60.0302	261.389	0
0.6907	288.066	3.30084	-7.32016	123.802	-39.064	-64.5692	0.0240488	32.8401	124.971	0
0.6913	150.466	-14.7315	8.51043	127.757	-21.6737	-34.9705	-9.73976	6.62098	-1.98479	-0.322396
0.6920	-79.6664	-31.4803	28.3879	92.0551	13.4211	3.47377	-7.91206	-6.79754	-101.791	0
0.6927	-299.999	-44.6225	42.7307	76.1818	47.902	35.83	1.55115	-8.65141	-181.112	0
0.6933	-657.931	-57.4591	54.931	111.586	65.9063	21.7917	2.465	-20.5692	-169.841	-0.644791
0.6940	-1018.33	-69.0121	66.5361	94.4933	59.5098	-7.19823	10.0885	-47.7152	-67.5891	-0.644791
0.6947	-953.664	-72.9853	65.2863	22.1679	36.0086	-1.39667	23.5197	-61.1337	0.14177	0
0.6953	-519.065	-61.738	50.9436	2.63725	40.8916	26.9844	26.2613	-42.8157	16.9416	0
0.6960	-93.3997	-43.7056	29.5782	33.4633	46.3743	47.1287	21.0788	-16.9056	24.2428	-0.322396
0.6967	104.066	-29.0352	11.9027	25.5266	16.4766	63.2979	22.9065	0.220699	22.7187	-0.322396
0.6973	123	-21.1498	7.9153	-26.6711	-11.9077	82.5289	36.951	11.4764	22.1162	0
0.6980	325.666	-14.7315	4.88011	-30.627	-21.3739	71.839	41.8329	33.767	14.177	0
0.6987	836.531	8.49662	-11.01	17.2914	-22.2876	49.8683	32.3697	78.9221	-16.3391	-0.322396
0.6993	1051.33	35.3312	-32.0778	11.4944	-33.2673	83.7466	25.6601	117.103	-45.9336	0
0.7000	666.798	41.4439	-34.5178	-10.4744	-45.1749	139.291	20.4655	112.204	-44.6931	0
0.7007	318.332	37.4707	-23.5078	48.7145	-34.4951	150.268	12.5294	86.8672	-24.8807	0
0.7013	263.066	36.8594	-23.2103	115.865	-23.2014	125.557	5.20656	82.2767	-18.1466	0
0.7020	111.4	31.358	-18.3302	160.425	-26.2569	95.9585	5.5192	82.8946	-17.2606	0
0.7027	-79.3331	16.9932	-1.24978	195.505	-22.8873	69.4038	11.315	60.0302	-7.15941	0
0.7033	-57.3332	6.66281	6.72503	121.961	-9.76601	48.3463	14.9704	37.1216	-1.06328	0
0.7040	8.53331	3.91211	0.892703	1.11959	-11.6078	34.308	16.4975	29.1764	-3.18984	-0.322396
0.7047	5.79998	-1.28366	-6.12989	-41.0018	-25.3288	11.1197	7.64752	15.7579	0.744295	-0.322396
0.7053	-79.6664	-6.1738	-8.86751	-44.9826	-21.9735	-30.3866	-5.17049	-2.56011	0.460754	0
0.7060	-282.266	-4.64563	-14.3428	-27.5668	-6.41073	-83.4959	-10.9663	-4.36985	5.63538	0
0.7067	-425.999	0.855774	-21.0678	-5.59794	9.15206	-124.393	-5.17049	5.38506	43.4881	-0.322396
0.7073	-389.665	7.27408	-25.9479	-30.627	3.04117	-146.364	17.1107	11.7853	64.541	0
0.7080	-205.666	8.49662	-26.8406	-73.9675	-17.7045	-150.017	31.7564	7.54791	68.1916	0
0.7087	-33.8666	2.07831	-17.735	-81.5807	-4.58317	-73.1104	29.0149	-3.75189	92.328	0
0.7093	4.59999	-10.4527	0.297568	-63.2692	36.0086	53.8435	26.8745	-10.1522	73.0827	0
0.7100	-112.933	-26.8958	21.9605	-57.1737	56.4544	109.066	25.0468	-28.1612	9.32141	0
0.7107	-452.265	-41.8718	40.5882	-58.0942	42.1052	123.408	19.8523	-62.6786	-20.3086	0
0.7113	-889.597	-50.1239	49.4557	-38.265	29.8977	137.142	12.5294	-77.333	4.71387	0
0.7120	-1080.33	-51.0408	50.9436	-13.8331	46.3743	82.5289	3.9921	-60.2068	45.3311	-0.322396
0.7127	-834.664	-44.0112	50.3484	-9.5787	69.8755	-0.787866	-3.03015	-41.9329	68.1916	0
0.7133	-405.599	-30.869	42.1356	-13.8331	77.2	-49.3132	-3.33076	-32.4428	77.6548	0
0.7140	-68.3331	-11.3696	20.4131	-13.8331	82.3971	-94.4723	1.23851	-12.933	53.5538	-0.322396
0.7147	255.133	13.6924	-6.72503	-13.5346	83.9106	-135.674	10.4011	24.63	-14.177	0
0.7153	511.798	31.6636	-23.2103	-20.8741	65.6064	-146.668	26.5739	64.8856	-57.5234	0
0.7160	493.465	35.3312	-24.6981	-26.6711	25.0147	-138.736	46.4142	94.1945	-84.3889	0
0.7167	335.399	31.0524	-14.3428	-21.1727	-29.298	-124.698	67.7695	109.158	-139.006	0
0.7173	251.466	17.2989	1.54735	-13.8331	-73.859	-116.139	80.5875	102.14	-148.469	0
0.7180	153.533	-5.2569	15.8901	-9.87726	-79.0418	-96.3166	79.0604	67.0484	-95.6596	0
0.7187	102.266	-29.9521	32.9705	-0.422956	-46.0887	-24.585	78.1466	29.1764	-27.6098	0
0.7193	96.4664	-47.6788	47.6108	14.2312	-30.5259	60.5582	82.4152	21.2754	40.44	-0.322396
0.7200	-153.2	-44.9281	47.0157	19.7296	-44.561	114.258	71.437	17.6118	84.9914	-0.322396
0.7207	-312.799	-29.0352	34.4583	9.65334	-50.3578	138.987	35.7245	-2.86909	107.568	-0.322396
0.7213	-156.533	-24.5118	30.2329	0.199038	-44.8608	122.191	-1.50305	-20.834	99.6292	-0.322396
0.7220	-34.1999	-32.7028	39.3384	4.15492	-44.561	72.4478	-22.8704	-53.4975	26.6883	-0.322396
0.7227	-43.3332	-33.0084	43.0283	8.43423	-60.4236	31.246	-34.7625	-84.6161	-93.5331	-0.322396
0.7233	-206.266	-26.04	36.8984	3.25925	-68.0622	-2.61428	-32.021	-72.4335	-196.069	-0.322396
0.7240	-401.932	-21.4555	33.2681	0.796152	-57.0683	-38.3189	-18.9024	-41.3149	-211.025	-0.644791
0.7247	-258.799	-18.3991	31.4231	-1.31863	-50.6719	-51.1397	-13.4072	-18.0973	-152.439	-0.322396
0.7253	139.466	-13.2034	28.3879	-8.95671	-46.3885	-44.1205	-8.5253	-14.7427	-106.647	0
0.7260	314.066	-5.86817	22.5556	-7.43904	-35.0948	-36.1881	6.73366	-20.2602	-88.0395	-0.644791
0.7267	358.266	-0.978028	17.6755	13.6341	2.74134	-33.7529	22.9065	-6.79754	-68.5106	-0.967187
0.7273	337.532	-1.58929	16.7828	39.2602	79.0276	-52.9661	28.101	11.1674	-46.8551	0
0.7280	64.7331	-4.03436	14.6403	46.5749	142.507	-85.0179	19.2511	14.5662	-30.6579	0
0.7287	-115.066	-8.0076	11.6051	36.822	154.114	-109.424	0.0240488	-4.36985	-26.4048	0
0.7293	-9.13331	-8.9245	5.77281	29.1839	146.476	-145.755	-16.1488	-21.143	-20.3086	0
0.7300	155.066	-4.64563	-1.54735	28.5868	143.42	-190.001	-13.1066	0.529678	-1.6658	0
0.7307	190.466	-8.0076	-1.24978	31.3236	110.467	-210.754	-1.80366	38.0486	11.7315	0
0.7313	128.8	-18.3991	3.98741	34.6824	38.136	-195.194	-4.25664	55.7486	9.92393	0
0.7320	108.066	-25.4287	6.07038	37.1206	-25.3288	-145.451	-13.4072	42.9481	4.43033	-0.322396
0.7327	117.533	-28.1183	2.73762	40.1808	-69.8898	-88.0619	-17.0626	19.1126	2.9063	0
0.7333	115.666	-18.0935	0.892703	41.997	-116.892	-43.8161	-12.4934	28.2936	1.6658	0
0.7340	154.4	-0.978028	8.51043	39.2602	-157.47	-5.06741	-0.589196	33.458	-4.11134	0
0.7347	195.599	1.46704	17.0804	35.9015	-183.113	28.5064	11.6156	-22.0699	-3.50882	0
0.7353	91.5331	-5.56253	24.9957	38.0411	-182.813	43.458	15.8963	-73.6694	10.2075	0
0.7360	-70.1998	-10.4527	27.7928	43.2161	-163.281	25.4624	11.315	-72.1245	22.7187	0.322396
0.7367	-72.9331	-16.2597	20.7702	53.591	-135.196	1.03855	-1.80366	-54.1155	49.5842	0
0.7373	-5.19998	-21.7611	16.4852	71.3053	-95.2186	30.6372	-19.203	-37.6513	94.1356	-0.322396
0.7380	-34.7999	-23.9006	14.6403	80.4611	-72.6311	90.7657	-35.989	-17.1704	123.73	-0.322396
0.7387	-101.333	-23.9006	15.533	77.6994	-56.7685	131.968	-49.4203	-1.63317	157.932	0
0.7393	-115.666	-25.7344	24.4005	68.8671	-6.11089	132.272	-70.1744	6.00302	201.562	-0.322396
0.7400	-104.066	-24.5118	34.4583	53.9144	42.7192	72.1434	-89.3894	2.33941	222.013	-0.322396
0.7407	-101.933	-19.6217	41.1834	41.0765	79.3417	8.66652	-89.0888	-30.942	198.514	0
0.7413	-121.133	-17.7879	42.4331	31.025	107.412	24.5313	-75.6575	-67.534	96.5812	0
0.7420	-100.4	-18.0935	36.6008	26.1237	70.1896	80.6846	-54.6028	-69.3878	-3.18984	0
0.7427	-24.0666	-16.2597	29.2807	33.7618	1.82756	99.9157	-44.5384	-46.1703	16.6226	0
0.7433	-31.1332	-17.4822	29.2807	45.6543	-24.1152	126.47	-52.7751	-15.6696	103.315	-0.322396
0.7440	-108.933	-24.2062	36.3032	49.0131	-29.912	175.605	-54.3022	13.9482	171.968	0
0.7447	-187.999	-26.04	34.4583	41.0765	-39.678	187.19	-38.7306	50.5401	197.593	-0.322396
0.7453	-208.399	-14.1203	8.21287	28.8854	-27.1706	203.986	-21.3433	93.8855	173.492	-0.322396
0.7460	-58.2665	-2.20056	-25.9479	16.0723	26.5424	248.84	-10.353	119.531	136.241	0
0.7467	101.333	-1.28366	-37.2555	-2.56261	77.2	247.927	10.4011	108.231	104.52	0
0.7473	122.666	6.05155	-33.5656	-20.2521	87.8798	218.024	35.7245	94.1945	43.8071	0
0.7480	22.9333	26.4679	-29.2807	-26.9696	96.4322	200.01	37.2516	131.14	-60.5714	0
0.7487	-185.533	35.0256	-12.4978	-28.7859	113.823	158.809	13.7559	128.05	-182.955	0
0.7493	-383.932	21.8834	11.9027	-29.7064	109.553	98.3937	4.29271	4.45813	-236.969	-0.322396
0.7500	-572.465	3.91211	24.4005	-18.1125	80.2555	66.9507	12.2288	-111.497	-176.54	0
0.7507	-784.264	-9.23014	29.8758	2.01526	48.5159	36.7432	2.76561	-126.461	-86.2319	-0.322396
0.7513	-874.931	-17.7879	35.4105	11.171	38.136	-30.691	-12.794	-93.1792	-35.8679	-0.322396
0.7520	-835.531	-20.5386	32.9705	6.59313	29.5979	-87.1487	-14.3211	-56.5432	-12.0505	-0.322396
0.7527	-789.798	-17.7879	23.8054	2.3387	17.6902	-95.3855	-14.9343	-42.1977	12.3695	-0.322396
0.7533	-656.398	-12.8977	14.9379	5.37402	23.1871	-93.5591	-19.203	-50.4519	40.7236	0
0.7540	-179.133	-7.39633	8.86751	16.3709	37.2222	-113.703	-13.4072	-48.3331	51.1083	-0.644791
0.7547	482.199	1.77268	0	29.4825	46.0744	-146.06	5.81981	-41.9329	59.3664	-0.967187
0.7553	771.798	13.0811	-13.7476	33.4633	47.902	-171.074	23.2191	-37.9603	71.2397	0
0.7560	694.265	19.1327	-23.2103	27.3677	41.4913	-192.132	37.2516	-15.3607	33.1034	0.322396
0.7567	621.331	17.2989	-25.3528	22.4664	16.7764	-237.004	35.4239	8.43071	-30.0553	0
0.7573	511.198	12.4699	-24.4005	19.1076	-26.2569	-259.584	9.78786	13.9482	-43.1691	0.322396
0.7580	259.133	7.27408	-16.1877	16.0723	-57.9964	-181.46	-6.69759	6.92996	-13.5745	0
0.7587	26.2666	-3.11746	-2.14249	19.7296	-47.6164	-63.9604	-18.9024	-20.2602	12.653	0
0.7593	-75.0664	-16.871	8.86751	24.6061	-17.4046	15.0769	-31.4077	-52.8795	-1.98479	0
0.7600	-76.8664	-23.9006	17.0804	22.1679	4.56889	49.8683	-20.4295	-62.6786	-26.4048	0
0.7607	-36.5999	-24.8175	18.6277	15.7489	2.74134	39.8051	-10.0524	-65.7242	-38.3135	0
0.7613	2.46666	-22.678	13.093	5.37402	-32.0536	36.1344	-23.171	-73.3604	-94.4546	0
0.7620	41.5332	-19.0104	9.76022	-3.45828	-39.9778	44.6756	-35.3758	-62.0606	-128.94	0
0.7627	143.133	-17.4822	6.42746	-5.00083	2.12739	30.6372	-32.6342	-36.4154	-87.437	-0.322396
0.7633	219.466	-16.5653	4.58254	-5.29939	7.32451	35.5256	-16.762	-20.5692	-33.4224	0
0.7640	150.133	-17.1766	6.07038	-5.29939	-44.2612	99.3069	8.26076	-16.5966	41.6451	0
0.7647	76.3331	-19.316	0	-1.94062	-83.9249	223.217	19.8523	-4.36985	111.857	-0.644791
0.7653	75.0664	-15.9541	-7.61773	2.3387	-84.8386	346.5	25.9607	18.2298	109.092	-0.322396
0.7660	62.8665	-11.9808	-7.32016	9.05623	-85.4526	377.012	54.0377	24.0121	109.411	0
0.7667	29.5999	-12.5921	-5.47524	20.9487	-82.3971	316.597	89.4375	13.9482	187.527	0
0.7673	9.79997	-11.3696	-4.58254	25.8252	-42.1195	229	106.524	9.97561	251.005	0
0.7680	-31.9999	-11.3696	-1.54735	19.7296	-2.14167	126.47	98.5881	-4.67882	215.314	0
0.7687	-136.4	-12.5921	2.44005	12.3901	26.2426	45.5888	70.2105	-22.6879	127.097	0
0.7693	-239.266	-9.8414	2.14249	0.796152	53.3989	3.47377	41.8329	-8.03345	95.3761	-0.322396
0.7700	-288.666	-9.8414	0.297568	-22.3918	47.6022	-37.1013	36.3377	17.6118	44.6931	-0.322396
0.7707	-301.532	-9.23014	1.19027	-42.2209	29.298	-42.2941	40.0052	28.2936	-153.041	0
0.7713	-362.199	-3.72873	3.33276	-31.249	39.3639	-38.9456	35.7245	25.248	-272.058	0
0.7720	-451.665	-2.5062	3.63032	0.199038	35.0948	-80.1295	18.9384	12.0943	-168.92	0
0.7727	-248.399	-3.4231	-3.03519	16.968	-2.4415	-129.873	-18.9024	13.6392	-37.6755	0
0.7733	205.999	-3.72873	-12.2003	16.6694	-3.05545	-178.398	-58.2702	17.9208	26.6883	0
0.7740	382.732	-7.39633	-14.6403	14.5298	25.0147	-217.469	-75.3569	2.95737	19.0681	0
0.7747	277.133	-7.70197	-14.6403	10.2753	1.21361	-220.513	-71.3889	-7.72447	-54.4753	0
0.7753	215.133	-4.95126	-11.9027	1.7167	-59.8239	-234.247	-57.9576	-0.0882797	-96.9001	0
0.7760	190.733	-6.47943	-6.42746	-3.78172	-78.1281	-298.028	-52.1618	8.73969	-76.1308	-0.322396
0.7767	131.866	-6.1738	-7.9153	-6.21994	-58.9102	-349.293	-49.1077	13.6392	-43.1691	-0.322396
0.7773	50.6665	-2.5062	-13.4501	-5.59794	-65.3066	-318.477	-42.398	17.3028	-14.177	0
0.7780	-12.8	-3.72873	-11.3076	9.05623	-81.4834	-240.353	-39.6565	11.7853	13.8935	0.322396
0.7787	-27.4666	-9.23014	-4.88011	33.1647	-68.0622	-183.895	-39.3438	-2.56011	35.23	0.322396
0.7793	-9.13331	-8.9245	-2.73762	36.822	-43.6472	-182.677	-27.7523	-16.9056	49.5842	0
0.7800	7.33331	-5.2569	-3.98741	21.8693	-39.064	-206.17	7.34691	-22.9969	65.1435	0
0.7807	12.2	-4.95126	-3.39227	16.968	-39.064	-209.841	40.0052	-18.0973	60.5714	0.322396
0.7813	17.7333	-6.1738	-2.44005	20.6502	-22.2876	-206.475	47.6286	-12.006	40.7236	0.322396
0.7820	13.4666	-7.70197	-2.73762	24.009	-9.46618	-181.46	53.737	-11.0791	39.5185	0
0.7827	25.0666	-8.9245	-1.84492	31.6222	-21.3739	-122.245	63.5009	-11.6971	56.3183	-0.322396
0.7833	71.3998	-8.9245	0	40.7779	-35.7088	-57.2456	52.8112	-11.3881	98.4242	-0.967187
0.7840	94.3331	-8.9245	3.03519	44.4352	-32.3535	-1.39667	23.2191	-10.1522	153.644	-0.644791
0.7847	79.0664	-10.4527	4.28497	40.4793	-28.9982	39.1963	-4.25664	-8.34243	175.618	0
0.7853	53.7332	-10.4527	2.14249	28.2634	-31.4397	67.8818	-24.6981	-8.65141	134.115	0
0.7860	-16.4666	-8.0076	-3.68984	7.51368	-28.0844	90.1569	-40.5703	-9.57835	93.2141	-0.322396
0.7867	-111.4	-6.1738	-7.0226	-9.5787	-21.3739	87.7038	-48.1938	-7.72447	87.437	0
0.7873	-139.733	-4.03436	-7.61773	-16.5948	-18.0043	53.2347	-47.8932	-2.25113	-41.3615	0
0.7880	-115.933	-1.89493	-11.3076	-19.033	-18.0043	19.3564	-47.2799	2.03043	-212.868	-0.322396
0.7887	-83.5998	1.16141	-16.1877	-14.7537	-20.4458	2.56056	-43.6245	6.00302	-218.043	-0.322396
0.7893	-51.8665	6.05155	-18.0326	-9.25527	-19.532	5.01369	-36.9029	14.2572	-155.168	0
0.7900	-10.3333	4.21774	-18.0326	-5.59794	6.09662	22.0961	-33.8487	14.5662	-114.302	0
0.7907	69.5998	1.46704	-14.0452	2.63725	62.2512	24.2269	-26.2252	13.6392	-92.0091	-0.322396
0.7913	133.666	5.13464	-10.7124	5.07547	98.5596	-6.58942	-12.794	23.3941	-91.6901	-0.322396
0.7920	119.333	6.96845	-12.4978	-4.67739	90.3213	-40.4677	-4.55725	19.4215	-81.6244	-0.322396
0.7927	55.8665	4.82901	-10.0578	-5.8965	72.6311	-38.9456	8.56137	1.1035	-51.7462	0
0.7933	-1.79999	2.07831	-4.88011	4.47835	54.3127	-11.1734	31.7564	-3.44291	-19.0681	-0.322396
0.7940	-41.4665	0.550141	-2.73762	9.65334	14.9488	-1.39667	47.6286	2.64839	1.06328	0
0.7947	-86.9331	-2.81183	1.54735	10.5739	-0.314111	-18.8013	48.2419	-3.75189	5.35184	0.322396
0.7953	-126.666	-8.61887	8.21287	14.2312	28.37	-34.0573	39.3919	-26.9695	5.03285	0.322396
0.7960	-130	-11.6752	10.3554	20.0282	41.8054	-41.6853	33.8968	-35.7974	-5.03285	-0.322396
0.7967	-110.466	-10.147	7.61773	19.1076	44.8608	-38.0145	41.2196	-25.1156	-22.1162	-0.322396
0.7973	-95.1997	-8.31324	5.17768	9.9519	60.7234	-13.3042	43.36	-21.452	-7.79738	0
0.7980	-80.8664	-6.1738	3.98741	1.11959	75.0726	13.2505	32.6703	-13.8158	11.129	0
0.7987	-62.8665	-2.81183	-0.892703	-8.03616	87.58	34.308	16.8101	4.45813	-16.6226	0.322396
0.7993	-46.9999	-0.36676	-4.58254	-12.9375	80.5553	56.2787	-0.589196	5.69404	-30.3743	0
0.8000	-36.3332	-0.0611267	-3.03519	-8.35959	40.2776	61.4714	-6.69759	-7.4155	38.597	-0.322396
0.8007	-31.3999	0.550141	-2.73762	-1.02007	-6.72484	80.3802	-3.944	-8.34243	89.8825	0
0.8013	-32.6666	2.99521	-3.03519	1.41815	-37.5363	138.378	-6.38496	-4.9878	15.0986	0
0.8020	-37.5332	6.05155	0.595135	-0.721513	-56.1546	178.953	-8.5253	-6.22372	-77.0523	-0.322396
0.8027	-42.3999	8.19098	-0.892703	0.796152	-54.0272	175.3	-13.7078	-3.13393	-73.0827	-0.322396
0.8033	-47.2665	5.44028	-7.61773	7.21513	-16.1767	145.093	-21.9566	0.794517	-33.1034	0
0.8040	-47.9332	-0.0611267	-10.0578	9.9519	-1.22789	113.041	-17.6759	2.03043	-19.9896	0
0.8047	-36.3332	-3.72873	-13.1525	9.35478	-31.4397	86.7906	-3.64339	0.220699	-5.95436	0
0.8053	-23.1999	-1.58929	-19.5204	13.9327	-54.0272	64.2111	15.283	2.64839	14.815	-0.322396
0.8060	-15.5333	5.44028	-23.2103	23.0884	-66.2347	51.0859	30.542	9.04867	19.3871	-0.322396
0.8067	-6.73331	9.41352	-23.8054	25.8252	-79.9556	27.2888	26.5739	14.5662	27.9288	-0.322396
0.8073	-1.53333	7.88535	-16.4852	21.5459	-87.2801	2.56056	13.4553	24.939	43.8071	0
0.8080	-5.46665	4.52338	-0.595135	21.5459	-78.1281	12.0329	-1.80366	26.4398	40.7236	0
0.8087	-11.2666	4.52338	14.3428	24.9046	-54.327	25.4624	-22.2572	6.312	27.3263	0
0.8093	-12.8	8.19098	10.9505	21.2473	-30.2118	9.88414	-31.7204	-13.8158	21.8327	0
0.8100	-14.6666	6.96845	-11.01	13.0121	-8.85223	-20.6278	-28.6662	-18.0973	21.5137	0
0.8107	-19.7999	1.16141	-27.4952	9.35478	2.74134	-47.4868	-27.1391	-14.1248	26.0858	-0.322396
0.8113	-22.2666	0.550141	-40.2907	9.05623	7.0104	-59.3764	-28.0529	-8.65141	32.1819	-0.322396
0.8120	-20.4666	6.05155	-56.1808	6.91657	11.2795	-56.3324	-24.0849	4.7671	26.0858	0
0.8127	-21.3333	11.8586	-48.5035	5.69746	9.76601	-46.5736	-12.4934	19.7305	26.6883	0
0.8133	-25.9333	22.4946	-18.9253	5.69746	1.51345	-37.7101	0.324659	25.5128	56.6019	-0.644791
0.8140	-28.0666	29.5242	5.17768	2.01526	-8.85223	-20.019	8.87401	28.6026	81.6244	-0.967187
0.8147	-23.4666	15.7707	19.818	-4.08028	-13.7352	9.27533	13.4553	35.0029	57.2044	0
0.8153	-13.7333	-1.58929	31.1256	-2.86117	-9.46618	19.6608	11.0023	44.4488	1.06328	0
0.8160	-6.99998	2.68958	43.6234	6.29458	0.299834	-4.76301	0.324659	46.3027	-38.916	-0.322396
0.8167	-2.13333	16.6876	49.4557	13.3107	7.62434	-25.5161	-6.08435	40.7852	-53.2703	0
0.8173	4.26665	16.0763	49.4557	12.0916	8.23829	-23.6718	-8.21266	54.2037	-49.5842	0
0.8180	5.53332	5.44028	53.6812	6.91657	5.48267	-19.1057	-14.0205	69.7851	-25.8022	0
0.8187	1.53333	-1.89493	52.1934	5.07547	1.51345	-5.67622	-14.3211	38.6665	1.98479	0
0.8193	-3.06666	-14.4259	31.7207	7.81224	-3.36956	3.79608	-8.5253	-8.65141	12.3695	0
0.8200	-7.59998	-25.1231	-4.58254	9.05623	-7.02467	-3.52749	-0.288586	-22.6879	11.129	0
0.8207	-11	-12.5921	-35.4105	7.51368	-2.14167	-2.00548	7.0463	-36.4154	11.448	-0.322396
0.8213	-11.2666	7.27408	-50.646	5.99602	7.32451	9.88414	2.465	-62.0606	11.448	0
0.8220	-15.5333	10.3304	-53.7407	3.5578	13.1213	19.9652	-9.73976	-61.4427	9.32141	-0.322396
0.8227	-20.7333	0.550141	-46.0635	3.25925	16.7764	30.6372	-14.0205	-57.7791	6.2379	-0.322396
0.8233	-18.5999	-7.0907	-32.3754	9.05623	19.532	32.1772	-14.0205	-67.225	3.18984	0
0.8240	-18.5999	-5.2569	0.297568	20.3268	22.8873	23.0093	-13.4072	-47.7152	3.8278	-0.322396
0.8247	-16.7999	11.553	47.9084	35.2795	26.5424	14.4681	-9.73976	-10.1522	5.63538	0
0.8253	-0.933331	27.6904	66.5361	50.2322	27.1564	9.27533	-8.5253	7.23894	4.43033	0
0.8260	10.6666	20.9665	67.1312	67.648	27.1564	6.53571	-9.13854	21.8492	5.95436	0
0.8267	6.39998	2.99521	70.464	90.8359	25.9285	5.01369	-9.73976	42.9481	13.8935	0
0.8273	2.13333	-5.56253	53.0861	115.243	21.9735	5.31809	-10.0524	45.3758	23.0377	-0.322396
0.8280	1.86666	-8.0076	29.5782	132.335	18.604	3.47377	-6.08435	37.1216	26.6883	-0.322396
0.8287	-1.2	-10.4527	23.2103	144.85	14.649	-3.52749	-0.889806	42.6391	21.1947	-0.322396
0.8293	-6.39998	-13.2034	15.533	177.492	11.2795	-6.58942	-1.20244	41.7122	16.0201	0
0.8300	-9.46664	-7.70197	0.595135	233.969	10.6798	1.03855	-3.944	16.6849	16.9416	0
0.8307	-10.6666	2.07831	-2.44005	263.875	10.0658	12.3373	-7.29881	-15.3607	20.9111	0
0.8313	-14.3333	-9.53577	-0.595135	225.41	10.9796	13.2505	-6.69759	-44.3606	23.6402	0
0.8320	-16.1333	-22.678	-25.0552	149.129	13.1213	5.9269	0.637293	-65.1063	21.5137	0
0.8327	-9.7333	-17.7879	-58.3232	83.1979	10.3657	5.6225	5.20656	-79.4517	16.3391	-0.322396
0.8333	-9.13331	-18.3991	-75.7012	85.3375	7.62434	10.4929	1.23851	-95.9159	14.177	-0.322396
0.8340	-15.2666	-15.9541	-96.769	158.583	6.71056	8.97093	-5.17049	-80.3787	15.0986	0
0.8347	-15.8666	-12.5921	-106.232	189.111	1.82756	6.84011	-8.21266	-9.26937	14.815	-0.322396
0.8353	-13.4	-59.9042	-83.0214	127.757	-0.928056	8.97093	-7.91206	56.9846	12.653	-0.322396
0.8360	-12.2	-96.5191	-83.3189	89.9154	2.4415	4.10048	-10.353	42.6391	12.972	-0.322396
0.8367	-13.1333	-20.8442	-116.885	126.24	7.0104	-7.19823	-14.3211	-17.7884	18.7491	-0.322396
0.8373	-14.3333	49.0848	-127.895	74.9627	11.8934	-12.9998	-13.1066	-43.4336	19.9896	-0.322396
0.8380	-13.7333	18.2158	-133.072	-57.7956	14.9488	-14.5218	-9.73976	-22.0699	12.3695	0
0.8387	-14	-1.58929	-148.605	-119.423	14.649	-14.8262	-3.64339	36.1947	6.87587	0
0.8393	-15.5333	39.6101	-108.672	-131.042	12.2075	-12.0866	3.37886	85.6313	5.35184	0
0.8400	-15.5333	36.5538	-11.6051	-70.9073	9.15206	-14.8262	3.07825	78.9221	5.03285	-0.322396
0.8407	-12.8	-45.5394	52.4909	104.868	7.92417	-24.9073	-1.50305	81.9677	9.00243	-0.322396
0.8413	-5.46665	-72.6797	81.7716	253.5	8.53812	-34.9705	-3.944	107.304	14.177	-0.322396
0.8420	4.59999	-36.3704	115.337	299.577	8.83795	-37.7101	-4.55725	55.4397	14.815	-0.322396
0.8427	10.6666	-36.676	143.725	298.955	7.0104	-31.9265	-2.11629	-14.1248	10.5265	0
0.8433	9.79997	-57.1535	183.123	269.05	5.18284	-29.1689	0.0240488	-1.63317	5.95436	-0.967187
0.8440	8.53331	-89.1839	182.171	245.563	4.883	-27.3425	0.324659	-5.60576	4.11134	-0.967187
0.8447	9.46664	-161.191	104.03	277.608	3.95495	-18.1925	1.85176	-72.4335	3.50882	0.322396
0.8453	10.0666	-178.612	36.0057	277.285	1.82756	-6.58942	1.55115	-92.5613	1.6658	-0.644791
0.8460	13.1333	14.2425	8.21287	175.377	1.21361	2.86497	0.0240488	-50.4519	-2.30377	-1.28958
0.8467	15.6	250.497	-13.7476	101.808	0.913779	7.44891	1.23851	-26.3515	-0.460754	0
0.8473	8.53331	203.491	-33.5656	-33.6872	-2.4415	10.4929	2.15237	-34.2967	-0.460754	0.322396
0.8480	0.933331	-10.7583	-38.7433	-279.947	-7.32451	19.6608	3.9921	-32.4428	-8.08092	-0.322396
0.8487	-0.599998	-106.911	-18.6277	-370.907	-10.6941	27.2888	7.34691	-9.26937	-10.8454	-0.322396
0.8493	1.2	-70.5402	36.0057	-429.176	-10.9939	28.5064	8.26076	-6.79754	-13.291	-0.322396
0.8500	5.19998	-50.1239	88.199	-568.353	-9.76601	27.8976	9.78786	-25.7335	-17.5441	-0.322396
0.8507	13.1333	-97.436	79.9267	-491.45	-7.93845	22.7049	8.87401	-37.9603	-10.5265	-0.322396
0.8513	20.4666	-94.3797	35.113	-290.023	-5.49695	13.2505	4.59332	-62.3696	3.50882	-0.322396
0.8520	18.9333	-39.7324	4.58254	-223.793	-3.36956	10.4929	2.465	-87.3969	7.79738	-0.322396
0.8527	11	8.49662	-7.61773	-213.12	-2.75561	4.40489	0.637293	-82.8064	4.71387	0
0.8533	3.99999	136.068	3.03519	-186.573	-2.4415	4.70929	-2.11629	-61.7517	3.8278	0
0.8540	-3.06666	227.575	29.8758	-149.03	-2.4415	48.0419	-2.72954	-35.4884	6.55689	-0.322396
0.8547	-5.79998	120.786	29.8758	-64.1897	-2.75561	79.7714	-2.11629	-19.3333	11.7315	-0.322396
0.8553	-2.13333	-32.0915	2.14249	-5.8965	-2.14167	47.7375	1.55115	-25.1156	14.177	0
0.8560	-1.53333	-118.464	-19.5204	-59.6119	-2.4415	13.2505	6.12042	-39.77	9.32141	0.322396
0.8567	-6.06665	-181.363	-21.9605	-71.8278	-2.75561	1.95176	8.26076	-63.5614	5.03285	0
0.8573	-7.33331	-216.144	11.9027	55.1335	-0.613945	-13.913	9.78786	-84.9251	7.47839	-0.322396
0.8580	-5.19998	-207.586	72.9041	135.694	1.21361	-32.5353	7.96015	-79.4517	4.71387	-0.322396
0.8587	-6.99998	-181.057	86.9493	119.821	1.51345	-44.1205	4.90596	-43.4336	-6.55689	-0.322396
0.8593	-7.33331	-121.52	36.0057	125.021	1.21361	-58.1588	6.43305	5.69404	-10.5265	-0.322396
0.8600	3.66666	2.38394	-21.0678	114.944	0.913779	-74.6503	7.64752	43.8309	-6.55689	0
0.8607	20.7333	151.289	-47.9084	34.0604	0.299834	-75.2591	10.0885	66.1215	-6.27334	0.322396
0.8613	38.7999	302.333	-36.9579	-44.9826	-0.314111	-68.2399	12.5294	51.7761	-4.11134	0
0.8620	51.8665	371.345	-13.1525	-55.656	-0.314111	-71.5884	9.17462	10.2846	0.14177	0
0.8627	51.2665	252.942	-7.9153	1.7167	-0.314111	-73.7192	6.43305	-10.4611	0.14177	0
0.8633	40.5999	63.694	-26.2455	41.997	-0.314111	-64.2648	5.20656	-39.461	1.06328	-0.322396
0.8640	29.3332	4.21774	-54.6334	36.822	-0.928056	-49.3132	1.85176	-99.5795	7.15941	-0.322396
0.8647	19.8666	74.0856	-69.8689	5.69746	-2.4415	-28.2557	4.59332	-132.552	8.3999	-0.322396
0.8653	12.2	137.23	-90.3415	-180.154	-4.883	-1.09227	8.87401	-126.461	-3.8278	-0.322396
0.8660	7.33331	153.428	-115.992	-402.032	-7.63862	23.6181	5.81981	-98.3877	-13.5745	-0.322396
0.8667	4.86665	163.82	-108.672	-420.02	-9.16634	37.352	3.37886	-53.1885	-10.2429	-0.322396
0.8673	2.46666	160.763	-107.422	-337.942	-9.76601	35.5256	6.12042	-23.6148	-5.35184	-0.322396
0.8680	0.333332	97.5583	-132.477	-282.709	-11.2937	34.6124	7.96015	3.57533	-4.11134	0
0.8687	-0.599998	28.9129	-136.405	-228.695	-10.6941	51.3903	4.29271	60.6482	-2.58731	-0.644791
0.8693	0.599998	24.9397	-113.254	-228.073	-8.5524	65.4287	-3.03015	110.085	-2.9063	-0.644791
0.8700	1.2	16.382	-69.2737	-358.691	-8.25256	62.3847	-6.69759	125.313	-10.2429	-0.322396
0.8707	-0.933331	-39.4267	-7.9153	-470.998	-9.16634	54.1479	-5.77171	145.176	-18.1466	-0.322396
0.8713	-2.13333	-79.7093	48.5035	-423.702	-8.85223	43.1536	-5.77171	154.313	-15.4175	0
0.8720	-2.13333	-72.374	85.4614	-305.598	-5.81106	29.724	-4.55725	78.0393	-4.74931	0
0.8727	-2.73333	-58.6817	69.5713	-218.32	-2.75561	19.052	-2.4169	-44.9785	4.43033	0
0.8733	0.599998	-48.2901	29.2807	-173.76	-1.84184	13.8593	-3.64339	-123.415	7.47839	0.322396
0.8740	6.13332	21.8834	54.0383	-149.353	-0.928056	14.4681	-3.944	-159.389	5.03285	0
0.8747	8.26664	127.205	101.292	-128.902	-0.314111	13.5549	-5.17049	-148.707	2.30377	-0.644791
0.8753	13.1333	128.427	98.852	-109.67	0	12.3373	-5.77171	-72.4335	2.30377	-0.644791
0.8760	23.1999	57.887	66.5361	-90.7364	0	12.3373	-4.25664	0.529678	4.43033	-0.322396
0.8767	28.6666	32.8862	-4.28497	-76.4057	-0.314111	9.88414	-5.17049	26.7488	5.03285	0
0.8773	28.3999	28.6073	-91.8889	-65.7323	-0.314111	8.97093	-7.29881	44.7578	4.43033	0
0.8780	24.7333	26.4679	-106.529	-53.5163	0.299834	9.57973	-7.91206	40.1673	4.71387	0
0.8787	18.3333	24.6341	-50.646	-41.0018	0.599667	8.36212	-7.61144	-20.2602	5.03285	-0.322396
0.8793	10.6666	2.07831	-5.47524	-29.4079	1.51345	6.2313	-4.85786	-93.7972	4.43033	-0.322396
0.8800	4.26665	-21.4555	4.88011	-19.033	1.82756	3.47377	0.637293	-107.216	4.43033	-0.322396
0.8807	2.13333	-20.5386	2.73762	-9.25527	1.51345	2.25616	2.15237	-39.77	3.8278	0
0.8813	2.46666	-15.6484	0.297568	0.199038	1.51345	3.16937	0.0240488	53.012	3.8278	0
0.8820	3.39999	-32.7028	38.7433	8.13568	1.82756	3.47377	-1.80366	100.904	4.43033	0
0.8827	4.59999	-39.4267	106.172	15.4503	2.74134	4.70929	-1.50305	93.2675	4.71387	0
0.8833	7.93331	-24.2062	121.467	21.8693	3.04117	6.2313	0.324659	70.0941	5.35184	0.322396
0.8840	14.9333	0.855774	82.7238	27.6663	3.35528	5.9269	-0.589196	64.2676	5.35184	0
0.8847	27.1999	38.3876	49.7533	33.4633	4.26906	6.2313	-3.944	83.8216	4.71387	-0.322396
0.8853	41.5332	34.72	24.9957	37.7426	4.56889	5.01369	-5.17049	116.176	4.71387	-0.322396
0.8860	49.7332	28.3017	3.33276	41.6985	4.883	2.56056	-3.944	161.949	4.11134	0
0.8867	46.7332	71.0293	-3.98741	46.5749	6.71056	2.25616	-1.50305	176.913	4.43033	0.322396
0.8873	35.9999	63.3884	-16.7828	49.6351	7.62434	3.47377	1.85176	92.3847	5.63538	0
0.8880	29.3332	43.889	-33.8632	52.3719	7.62434	3.79608	1.55115	-8.65141	5.95436	-0.322396
0.8887	25.9333	61.249	-38.7433	56.0541	8.23829	4.10048	-1.20244	-54.4244	5.35184	-0.322396
0.8893	21.6666	28.3017	-63.5009	55.1335	7.62434	6.2313	-1.20244	-120.016	4.43033	0
