MR32 ASCII
Name	CRYE15_fast
Frequency	1500
Date	31-08-2015 10:23:40
"Time,s"	"RT TIB.ANT.,uV"	"RT MED. GASTRO,uV"	"RT LAT. GASTRO,uV"	"RT BICEPS FEM.,uV"	"RT VMO,uV"	"RT VLO,uV"	"RT RECTUS FEM.,uV"	"RT SOLEUS,uV"	"RT SEMITEND.,uV"	"Channel 12,uV"
0.0000	91.0777	37.6491	-138.967	1.38869	5.8637	0.920031	-2.47095	498.771	-6.09534	-9340.58
0.0007	35.5268	-200.999	-147.189	2.93169	7.99877	4.28389	2.72911	678.537	-3.67106	-10322.9
0.0013	-9.93135	-611.168	-115.147	3.85748	4.02259	3.0476	6.08519	584.532	-1.8009	-9528.42
0.0020	-27.614	-826.906	-93.504	2.31449	-4.20825	-3.96763	2.72911	294.304	-1.8009	-9870.97
0.0027	-32.5393	-607.197	-60.5287	2.31449	-8.78781	-4.88766	1.1986	-110.368	-0.900448	-9843.31
0.0033	-15.0989	9.24045	-125.546	2.62309	-10.3195	-2.73134	2.72911	-530.264	-1.17751	-9790.56
0.0040	1.37263	517.389	-263.758	3.24028	-11.2323	-2.44383	3.02415	-617.257	-1.8009	-9816.94
0.0047	-17.2789	424.908	-203.051	4.47468	-12.1451	-2.73134	3.33763	-438.723	-0.277061	-9816.29
0.0053	-44.7314	549.463	73.15	4.47468	-11.2323	-3.36386	3.33763	-230.591	0.623387	-9810.5
0.0060	-38.3528	948.635	300.199	3.24028	-7.875	-3.36386	3.02415	101.428	-0.277061	-9789.92
0.0067	-28.2599	622.394	266.024	0.462898	-3.91429	-2.73134	1.49364	242.721	-1.17751	-9908.93
0.0073	-43.8433	95.3064	75.2832	-0.720063	-0.247544	-1.84006	0.885118	15.6675	-2.14722	-9688.92
0.0080	-31.6511	47.7296	52.0849	0.154299	3.4192	0.920031	1.80712	-49.0243	-2.70134	-9732.34
0.0087	1.37263	-55.1372	100.303	1.08009	5.55427	2.12757	2.72911	89.2355	-1.17751	-10539.4
0.0093	-13.8877	-528.768	54.2181	0.462898	6.46709	1.5238	1.80712	50.4773	0	-6761.31
0.0100	-72.5069	-830.266	34.3974	-0.411465	6.46709	0.31626	0.885118	-67.6295	-1.17751	-469.924
0.0107	-118.288	-781.467	94.215	-1.02866	5.8637	-0.28751	-0.01844	-63.9653	-2.14722	108.716
0.0113	-122.244	-681.96	151.277	-0.720063	4.33202	-1.20754	-0.331919	50.4773	-1.52383	-287.229
0.0120	-89.3014	-539.459	139.678	0.462898	-0.556974	-3.0476	-0.01844	81.5913	0.346326	54.6797
0.0127	-82.5997	-575.733	120.124	0.771496	-10.3195	-7.33149	-0.940438	-25.5229	1.87016	27.6615
0.0133	-150.908	-427.123	123.502	1.38869	-16.4153	-9.1428	-0.940438	-171.08	2.14722	-24.445
0.0140	-199.192	494.479	133.279	2.00589	-15.5024	-7.01523	0.590079	-256.24	0.969713	1.60823
0.0147	-115.866	1282.13	119.235	0.771496	-13.6768	-5.17517	1.80712	-168.331	-0.623387	-0.643291
0.0153	33.1045	1111.53	63.684	0.771496	-9.40667	-1.20754	4.55467	-51.4565	0.346326	-0.321645
0.0160	97.7794	696.241	10.8881	0.462898	-2.69204	2.44383	5.45823	-24.8912	0.346326	-0.321645
0.0167	66.9357	775.892	3.86637	-1.33726	3.4192	3.96763	3.94615	47.7292	-1.8009	-0.321645
0.0173	34.6386	942.22	75.5942	-2.26306	7.99877	5.80769	2.72911	208.859	-4.22518	-0.321645
0.0180	52.6442	633.62	168.965	-2.26306	10.7372	6.0952	2.41563	211.006	-4.84856	0
0.0187	117.642	56.2827	194.607	-2.26306	11.9595	6.72772	2.41563	19.3317	-3.67106	0
0.0193	184.416	-371.604	96.9259	-1.02866	11.3561	6.72772	4.24119	-69.7774	-1.17751	-0.321645
0.0200	219.539	-486.918	-110.258	-2.57165	8.29273	3.0476	3.63267	-52.6884	-0.623387	0
0.0207	230.52	-185.725	-158.166	-5.29761	5.24484	-0.60377	0.885118	-105.788	-0.277061	0
0.0213	211.304	301.651	152.166	-4.11465	-0.247544	-3.65137	-0.645399	-287.67	1.24677	-0.321645
0.0220	129.834	534.495	542.492	-0.102866	-9.09724	-7.01523	-0.940438	-407.293	2.14722	-0.321645
0.0227	-3.87565	446.291	652.084	2.62309	-12.4546	-7.619	0.590079	-191.517	4.01738	0
0.0233	-103.351	203.977	518.405	1.08009	-10.0101	-7.01523	0.590079	162.772	5.19489	-0.321645
0.0240	-89.6244	-111.878	280.956	-3.18885	-10.0101	-8.22277	-3.37451	255.261	2.49355	-0.321645
0.0247	-15.0989	-431.094	-13.8212	-4.68041	-8.78781	-6.69897	-5.21851	254.945	0.623387	0
0.0253	28.1792	-797.275	-206.384	-3.18885	-2.38261	-1.84006	-3.68799	456.981	1.24677	0
0.0260	55.0665	-1389.96	-221.983	-0.102866	2.19695	2.12757	-1.86244	430.415	3.04767	0.321645
0.0267	55.3895	-1549.88	-115.147	3.24028	0.665275	3.68012	-0.645399	93.8158	4.91783	0.643291
0.0273	11.3847	-717.624	-13.8212	2.62309	-2.69204	0	-3.37451	10.4871	1.52383	-1.92987
0.0280	-5.32902	75.8328	-44.0411	0.771496	-3.60486	-3.65137	-4.90503	-96.3112	-1.8009	-3.5381
0.0287	-3.87565	208.865	-47.4186	1.38869	-5.13654	-0.60377	-0.331919	-251.344	1.24677	-0.321645
0.0293	-38.918	561.605	31.9531	-0.102866	-8.18443	-1.20754	-0.01844	357.795	1.52383	0.321645
0.0300	-74.364	1186.37	-33.3752	-1.64586	-8.49386	-4.25514	-3.68799	988.287	-0.900448	-3.21645
0.0307	-79.2086	1116.72	-111.503	1.38869	-3.00147	0.60377	-1.86244	467.942	-0.623387	-2.57316
0.0313	-75.8981	574.13	-48.9296	3.85748	3.4192	8.53903	-0.01844	-247.364	-2.70134	0
0.0320	-79.2086	158.768	-72.4389	2.62309	8.29273	12.5067	-0.940438	-287.67	-5.74901	0.321645
0.0327	-85.345	-152.506	-271.713	2.62309	10.7372	13.743	-0.645399	-241.268	-4.5715	-0.321645
0.0333	-106.096	-389.015	-478.319	2.93169	9.51497	12.5067	-0.940438	-319.416	-3.04767	-0.321645
0.0340	-138.716	-592.84	-524.716	3.54888	7.37991	10.6954	-0.940438	-223.263	-2.42428	0
0.0347	-157.367	-599.56	-461.831	3.24028	5.8637	8.85529	-1.25392	23.3118	-3.04767	0.321645
0.0353	-114.332	-334.642	-385.526	2.31449	4.02259	6.41146	-1.86244	137.754	-3.67106	0.321645
0.0360	0.403713	40.7038	-277.801	2.93169	3.71316	5.80769	-2.15748	66.6503	-2.42428	0.321645
0.0367	100.525	374.582	-173.453	3.24028	3.4192	5.20392	-2.47095	-74.3577	-1.8009	0
0.0373	120.953	667.527	-140.167	4.16608	1.57809	3.96763	-1.25392	-318.184	-0.623387	0
0.0380	93.5	1048.68	-109.947	5.34904	-0.850933	2.76009	0.276599	-503.415	1.52383	0.321645
0.0387	70.0039	1086.55	-0.0888821	3.54888	-4.20825	-0.920031	-1.86244	-439.323	1.24677	0.321645
0.0393	39.8061	706.627	85.949	2.00589	-7.56557	-4.88766	-3.68799	-238.519	1.87016	0
0.0400	-0.807427	498.45	56.0402	0.462898	-8.49386	-7.01523	-4.29651	-35.5994	2.14722	0
0.0407	-12.6766	446.291	8.4438	0.462898	-6.65275	-5.80769	-4.60999	61.7541	1.87016	0
0.0413	17.1982	357.476	-6.79948	2.62309	-4.82711	-3.96763	-2.15748	21.4797	4.29444	-0.321645
0.0420	67.9046	246.056	-20.2207	2.31449	-5.4305	-4.5714	-0.940438	-60.9013	4.91783	0
0.0427	89.8666	-19.7028	-8.62157	1.08009	-3.91429	-5.17517	-1.25392	-71.2937	2.77061	0.321645
0.0433	66.0475	-291.952	-76.3942	0.462898	0.665275	-3.36386	-0.645399	29.7241	0.346326	0.321645
0.0440	46.8307	-295.313	-272.913	-1.02866	7.37991	-0.920031	-0.940438	69.3984	-1.52383	0
0.0447	60.234	-309.975	-316.554	-1.64586	15.9202	3.0476	-0.01844	-56.6369	-0.623387	0.321645
0.0453	70.6498	-650.803	-145.989	-1.64586	22.9442	6.72772	2.10216	-89.8989	0.346326	0.321645
0.0460	50.7871	-1091.21	9.68815	-2.26306	24.4759	7.01523	2.72911	33.9885	-1.52383	0
0.0467	36.4149	-1009.12	176.609	-3.18885	23.2537	6.0952	2.10216	44.6651	-2.42428	0.321645
0.0473	75.8174	-647.137	392.681	-3.80605	22.3409	5.49143	1.1986	23.3118	-2.14722	0.321645
0.0480	128.3	-873.337	471.697	-4.42325	19.8964	3.96763	0.885118	95.6479	-1.8009	0
0.0487	142.349	-848.594	423.168	-4.11465	16.8485	2.12757	1.80712	-88.0668	1.24677	0.321645
0.0493	135.89	-139.37	626.441	-3.80605	13.7851	-0.60377	1.49364	-505.563	3.39399	0.321645
0.0500	60.88	-12.066	920.019	-4.11465	8.29273	-3.96763	-0.331919	-478.397	2.14722	0.321645
0.0507	-39.2409	-638.278	764.964	-2.26306	4.64145	-5.80769	0.276599	-5.05405	0.623387	0.321645
0.0513	-43.8433	-1303.9	378.638	-1.02866	2.50638	-6.41146	0.590079	239.688	-0.900448	0
0.0520	-81.0656	-1372.24	188.208	-0.102866	1.28413	-5.49143	6.08519	230.844	0	0.321645
0.0527	-179.652	-984.375	79.8606	1.38869	0.355845	-3.36386	16.4484	505.784	2.49355	0.321645
0.0533	-187.242	-917.554	-136.212	0.771496	-2.69204	-3.36386	19.5095	811.269	0.969713	-0.321645
0.0540	-146.629	-845.234	-309.843	0.154299	-6.04936	-3.65137	19.196	344.654	0.346326	0.321645
0.0547	-92.6118	-83.4695	-355.306	-0.411465	-8.18443	-3.0476	18.5875	-378.896	1.24677	0.321645
0.0553	4.11788	982.771	-367.839	-1.33726	-6.96218	-0.28751	17.057	-474.733	1.24677	0.321645
0.0560	51.4331	1355.06	-275.979	0.771496	-1.46979	4.5714	18.5875	-240.352	4.01738	0.321645
0.0567	0.403713	919.005	-138.967	1.38869	2.80034	4.5714	17.057	-61.8173	3.04767	0.321645
0.0573	-38.595	397.11	-137.723	0.154299	3.71316	1.84006	13.7009	97.4799	0	0.643291
0.0580	-1.6956	437.432	-189.897	-2.26306	2.19695	-2.12757	10.3448	45.5812	-0.623387	-0.643291
0.0587	19.0553	1027.98	-143.234	-4.11465	1.28413	-7.01523	4.55467	-258.672	-0.277061	-2.89481
0.0593	-17.8441	1164.07	92.6596	-0.411465	2.50638	-5.17517	3.02415	-355.71	3.39399	-1.28658
0.0600	-49.899	705.1	387.793	2.31449	0.974705	-6.69897	0.885118	-144.23	4.29444	0.643291
0.0607	-40.1291	528.691	476.586	1.08009	-1.77922	-13.7142	-5.21851	95.332	2.14722	0
0.0613	1.04965	517.389	413.702	0.771496	-2.07318	-15.8705	-9.79162	332.146	1.87016	0
0.0620	42.8744	189.315	397.259	0.771496	-2.69204	-15.5543	-16.2087	384.329	0.623387	0.321645
0.0627	33.4275	-117.071	341.707	3.54888	-2.38261	-14.6342	-21.9989	225.948	-0.277061	0
0.0633	-33.4275	-125.93	148.522	6.58344	-1.46979	-11.2991	-23.5294	73.6627	0.623387	0
0.0640	-90.1896	98.9721	52.396	5.96624	-1.77922	-9.1428	-21.9989	-86.8664	-0.900448	0.321645
0.0647	-99.3942	296.458	145.145	4.73184	-0.850933	-9.1428	-17.4258	-182.072	-2.14722	0.643291
0.0653	-79.2086	335.482	129.012	3.24028	1.28413	-3.96763	-27.494	-261.105	-3.32473	0.321645
0.0660	-46.5885	680.357	-134.967	3.54888	3.71316	3.36386	-45.8049	-272.097	-3.32473	0.321645
0.0667	-17.6019	996.212	-425.834	7.20063	5.24484	-12.8229	-49.456	-149.41	-0.900448	0.321645
0.0673	-4.11788	781.391	-491.118	6.58344	2.50638	-50.0554	-47.0219	-128.057	-1.52383	0.321645
0.0680	23.6576	523.193	-380.949	2.93169	-5.13654	-71.1011	-45.4914	-204.973	-2.14722	0.321645
0.0687	62.6563	453.928	-314.732	1.38869	-12.4546	-73.2287	-44.2743	-229.675	-0.623387	0.321645
0.0693	98.9905	481.954	-344.952	2.31449	-16.7247	-61.9583	-43.6658	-107.304	0	0.321645
0.0700	152.442	457.288	-356.24	4.73184	-18.5503	-45.7715	-34.8146	178.029	2.77061	0.321645
0.0707	165.199	221.083	-300.688	3.85748	-21.3043	-41.8039	-17.4258	384.329	4.29444	0
0.0713	129.834	-52.9989	-252.159	0.462898	-21.3043	-36.9162	3.02415	350.151	2.49355	0
0.0720	133.145	-147.618	-208.829	-1.02866	-14.5896	-16.7906	19.5095	311.108	3.39399	0.321645
0.0727	113.04	-139.981	-174.031	-1.95446	-4.51768	3.68012	30.4997	358.079	4.5715	0.643291
0.0733	2.58377	-147.924	-241.493	0.462898	3.71316	6.0952	45.7495	405.398	4.01738	0.321645
0.0740	-85.668	-25.8122	-275.046	2.00589	9.51497	-8.85529	56.4263	423.687	3.04767	0
0.0747	-81.9538	225.36	-185.319	0.154299	13.7851	-22.5695	49.7141	165.204	1.52383	0.321645
0.0753	-35.2845	284.239	-171.587	-1.33726	18.6741	-31.1373	42.3935	-248.912	0.969713	0.321645
0.0760	3.14896	155.789	-203.629	-2.26306	22.6348	-38.44	42.707	-402.113	3.39399	0
0.0767	19.3782	69.7234	-98.3481	-0.411465	23.5631	-35.9962	40.5679	-367.935	4.91783	0
0.0773	10.1736	23.292	14.5322	2.93169	27.8332	-46.0878	35.6813	-290.703	4.01738	0
0.0780	-21.8813	-1.14551	-26.3535	0.771496	36.6829	-71.1011	33.2472	-185.136	1.87016	0
0.0787	-28.2599	-37.1145	-47.4186	-3.18885	38.5086	-59.5145	35.3678	-121.329	0.623387	0.321645
0.0793	-5.97496	-135.094	40.7969	-2.57165	28.1272	-10.6666	26.8301	-68.2296	-0.277061	0.321645
0.0800	-0.161485	-317.612	65.8172	-0.102866	35.7701	21.6782	-3.37451	-28.2711	-1.52383	0
0.0807	30.9244	-622.47	-15.6433	3.85748	88.2495	13.4267	-36.0317	-60.3011	-1.52383	0
0.0813	76.3826	-745.116	-133.768	5.65764	139.213	11.9029	-62.2902	-165.583	-2.42428	0
0.0820	73.3951	-504.33	-229.271	2.93169	152.951	28.0897	-79.9741	-218.082	-4.84856	0
0.0827	68.7927	-280.039	-180.742	1.38869	147.149	24.4096	-77.8535	-113.116	-3.04767	0.321645
0.0833	78.8856	-68.2724	57.2845	1.38869	133.117	7.64775	-69.6109	37.9685	0.623387	0.321645
0.0840	47.3959	316.237	164.076	2.93169	107.481	-10.3791	-66.5498	147.831	1.87016	0.321645
0.0847	-12.9996	441.098	-14.1323	4.47468	65.9705	-13.1104	-62.5852	288.523	1.87016	0.321645
0.0853	-43.5203	170.681	-106.303	1.69729	19.5869	26.5659	-62.5852	402.049	0.623387	0
0.0860	-44.4085	-37.1145	-77.9052	0.154299	-20.7009	93.0956	-64.7243	315.973	-1.17751	0.321645
0.0867	-57.5695	-36.8091	-145.989	0.771496	-51.5201	118.109	-71.7499	255.545	-2.70134	0.321645
0.0873	-54.1783	-9.31682	-158.477	-0.102866	-69.5289	87.8917	-75.7145	319.953	-3.32473	-2.89481
0.0880	-13.8877	-94.7719	-56.8401	1.69729	-78.6726	59.5145	-57.6986	214.671	-1.52383	-3.21645
0.0887	-5.97496	-182.976	-45.5521	4.47468	-79.8948	45.7715	-27.494	-27.9552	-1.17751	0
0.0893	-40.4521	-127.457	-67.8615	4.16608	-78.3786	26.5659	6.08519	-168.047	-2.70134	0.643291
0.0900	-55.3895	-64.6068	14.8433	2.31449	-79.5854	11.9029	37.5069	-139.966	-1.8009	-0.321645
0.0907	-45.6196	-42.002	78.3496	2.31449	-68.9101	18.6306	54.9142	-81.3702	0	0
0.0913	-35.8497	22.9866	109.458	3.85748	-48.1628	37.2325	58.2703	-42.8962	2.77061	0.321645
0.0920	-38.0298	65.4468	197.94	2.93169	-32.9079	45.484	50.6361	-60.9013	3.04767	0.321645
0.0927	-43.1973	22.3756	140.567	1.08009	-26.1933	34.7887	41.4715	-282.174	-0.900448	0
0.0933	-38.595	-26.4231	-91.6375	2.00589	-23.1299	18.6306	43.6105	-471.985	-3.67106	0
0.0940	-27.0488	-44.4458	-160.61	4.73184	-13.6768	13.1392	36.2898	-450.316	-6.3724	0.321645
0.0947	-5.97496	-56.3591	-66.3061	7.50923	-0.850933	14.3467	17.3704	-400.881	-8.79668	0.321645
0.0953	8.96244	-62.4685	-1.91097	8.74363	8.29273	10.6954	9.44126	-245.248	-10.6668	0
0.0960	-6.6209	-82.8586	6.31063	7.81783	15.9202	10.0628	-8.57458	22.9959	-12.8141	-0.321645
0.0967	-53.2902	-93.2445	-59.0177	6.89203	18.6741	14.3467	-23.5294	106.009	-12.4677	0
0.0973	-70.0846	-74.3818	-90.1265	5.65764	15.6262	12.5067	-11.6172	25.7441	-9.76639	0.321645
0.0980	-23.6576	-65.5232	-25.7314	5.04044	12.8723	8.53903	2.10216	-21.2586	-6.99579	0.321645
0.0987	13.8877	-77.742	67.3282	3.54888	12.8723	12.5067	6.08519	-45.6444	-4.5715	0
0.0993	12.6766	-86.2187	181.186	1.08009	12.2689	17.7106	2.41563	-66.3976	-4.84856	0.321645
0.1000	7.7513	-80.4912	254.736	0.771496	10.7372	12.2192	-1.86244	-31.0192	-6.3724	0.321645
0.1007	15.4218	-65.5232	281.579	3.24028	9.51497	2.44383	5.77171	20.2478	-7.27285	0
0.1013	22.6887	-44.4458	294.689	5.04044	9.51497	-0.60377	15.2314	40.7167	-7.61917	0
0.1020	12.3536	-23.0629	195.23	6.89203	10.1338	-0.920031	29.5777	61.154	-6.09534	0.321645
0.1027	9.28541	-17.87	-25.1092	5.96624	9.20554	-3.0476	59.4873	69.7143	-6.99579	0
0.1033	19.9434	-30.6997	-146.567	3.85748	9.20554	-2.12757	78.4067	79.4749	-7.89623	0.643291
0.1040	8.07427	-46.5841	-85.238	2.00589	9.8244	-1.20754	75.0506	89.5198	-7.61917	-0.321645
0.1047	-17.2789	-65.5232	-4.9774	-0.720063	9.51497	-3.36386	66.1995	66.0501	-6.99579	-2.25152
0.1053	-34.9616	-79.5748	2.35538	-1.33726	11.0467	-1.5238	57.3483	73.6627	-1.8009	-0.643291
0.1060	-34.6386	-80.4912	-28.7978	-3.18885	11.3561	0.920031	40.5679	133.174	1.52383	0.643291
0.1067	-8.39724	-79.2693	-75.772	-4.42325	10.7372	-0.60377	19.5095	145.999	0.969713	0
0.1073	23.3346	-77.742	-122.168	-2.88025	10.4278	-1.84006	9.12778	61.7541	0.969713	0.321645
0.1080	29.1481	-71.3271	-127.368	-1.64586	10.1338	-1.84006	-0.331919	-21.5429	0.623387	0.321645
0.1087	7.7513	-59.1083	-84.038	-0.102866	10.7372	-1.20754	-20.1733	-36.5155	0.969713	0.321645
0.1093	-3.87565	-46.8896	-18.3986	1.38869	10.1338	-3.36386	-32.6756	-14.5304	0	0.321645
0.1100	11.1425	-43.8349	32.8419	2.31449	8.60216	-7.33149	-28.1025	40.7167	-3.94812	0
0.1107	19.9434	-46.8896	40.7969	2.31449	7.68934	-9.45906	-20.7818	40.4008	-5.19489	0
0.1113	5.65199	-47.5005	19.4207	2.31449	7.68934	-12.5067	-11.6172	-67.6295	-3.94812	0
0.1120	-4.76382	-45.9731	0.533293	4.47468	7.99877	-16.4743	16.7619	-137.818	-2.70134	0
0.1127	-13.3225	-43.5294	-15.3766	5.96624	8.29273	-20.4419	34.7593	-105.788	-1.52383	0
0.1133	-36.1727	-35.2817	-25.4203	4.47468	7.37991	-21.9657	13.7009	-27.355	-0.900448	0
0.1140	-38.918	-23.9793	-10.4881	1.69729	6.46709	-18.9181	-22.9209	56.2579	0	0.321645
0.1147	-14.2107	-20.6192	19.4207	-0.720063	6.15766	-14.0305	-64.4108	99.9122	2.49355	0.321645
0.1153	8.39724	-24.5903	38.0415	-2.57165	6.77652	-7.619	-102.877	99.9122	6.71872	0
0.1160	21.1546	-28.8669	42.3079	-4.42325	8.60216	-0.60377	-130.334	66.0501	11.0132	0
0.1167	16.8752	-34.0598	37.1527	-7.1492	8.91159	2.44383	-156.887	21.1638	11.2902	0.321645
0.1173	1.04965	-35.2817	29.1978	-8.075	8.29273	5.20392	-174.276	22.9959	10.3898	0.964936
0.1180	-5.08679	-33.7544	18.2208	-9.56656	6.77652	9.17155	-169.094	33.0724	9.76639	-0.321645
0.1187	2.90674	-34.9762	0.222205	-11.7267	6.46709	9.45906	-157.182	-19.1106	8.24256	-3.5381
0.1193	16.31	-35.8927	-8.93265	-6.8406	9.51497	8.53903	-137.654	-59.1008	9.76639	-1.92987
0.1200	15.0989	-36.1981	-4.35522	-3.49745	9.51497	8.85529	-100.424	-27.355	9.76639	0.643291
0.1207	6.86313	-40.4747	5.11072	-3.80605	6.77652	9.17155	-69.0023	5.62263	6.09534	0.321645
0.1213	9.28541	-45.3622	16.9765	-2.88025	5.24484	7.64775	-54.0475	0.410641	4.5715	0
0.1220	11.1425	-44.1403	29.5089	-1.95446	5.55427	2.76009	-18.9378	-16.0466	5.81828	0.321645
0.1227	6.86313	-37.42	40.1747	-0.102866	6.77652	-0.28751	63.7469	-24.8912	7.9655	0.321645
0.1233	2.26079	-28.2559	45.0632	0.154299	6.15766	1.23629	140.052	-29.4714	7.9655	0
0.1240	0.161485	-16.0371	45.6854	-1.33726	5.55427	1.5238	172.1	-25.8072	6.44166	0
0.1247	1.61485	-6.56759	26.7535	-0.720063	6.15766	-1.5238	191.315	-0.505405	7.06505	0.321645
0.1253	2.26079	-7.17853	3.55528	-0.102866	6.46709	-2.44383	200.479	24.5437	9.14301	0.321645
0.1260	-1.1304	-11.4551	7.24389	0.154299	7.37991	-0.60377	192.845	31.8721	12.2599	0
0.1267	-11.4655	-15.4262	17.2876	0.462898	7.07048	2.76009	185.524	33.3883	12.8141	0
0.1273	-18.813	-20.3137	29.1978	-1.33726	5.24484	7.93526	180.951	26.3758	11.2902	0.321645
0.1280	-4.76382	-20.9247	45.9965	-1.95446	4.02259	10.6954	159.893	11.1189	9.76639	0
0.1287	20.9123	-11.7606	49.6407	0.462898	4.02259	9.17155	116.559	1.32669	8.24256	0
0.1293	30.3592	-1.14551	38.9748	5.65764	4.64145	5.80769	67.4165	-18.5105	5.54122	0.321645
0.1300	12.0307	2.82559	23.6871	7.20063	3.10977	-1.20754	35.9764	-33.4515	1.52383	0.321645
0.1307	-18.1671	4.35294	12.7101	4.47468	1.28413	-9.74657	30.7947	-8.11806	-1.52383	0.321645
0.1313	-28.2599	6.18576	9.37706	2.93169	0.665275	-14.3467	24.6911	21.4797	-2.14722	0.321645
0.1320	-23.3346	5.88029	8.4438	1.69729	-0.247544	-18.6019	0.885118	26.6601	-2.70134	0.321645
0.1327	-31.3282	7.10216	12.3991	3.85748	-0.247544	-22.282	-13.4612	26.976	-2.42428	0.321645
0.1333	-38.595	6.79669	21.5539	6.89203	-0.556974	-24.7258	-7.65258	21.7956	-3.67106	0
0.1340	-29.794	2.21465	19.4207	5.96624	-3.00147	-29.2972	-5.82703	10.803	-8.51962	0
0.1347	-17.2789	-1.98555	6.93281	4.47468	-5.13654	-31.7411	-0.940438	12.3192	-10.6668	0
0.1353	-6.86313	-4.12384	-1.02214	3.24028	-6.04936	-27.4572	23.4741	26.6601	-8.79668	0
0.1360	1.37263	-3.81837	0.799939	2.31449	-4.20825	-19.2344	39.0374	38.2528	-3.32473	0
0.1367	9.28541	-4.42931	5.68846	1.69729	-3.00147	-14.3467	36.8984	36.1364	1.87016	0.321645
0.1373	14.7759	-8.40041	7.82163	-0.102866	-5.73993	-14.3467	32.0118	35.2204	0.969713	0.321645
0.1380	15.0989	-12.066	7.24389	-0.720063	-8.49386	-17.3943	-2.76599	49.8771	-3.04767	0
0.1387	11.3847	-15.4262	5.11072	1.08009	-8.78781	-22.5695	-67.1583	64.218	-5.19489	0
0.1393	9.93135	-19.3973	5.11072	4.16608	-8.18443	-29.2972	-95.2424	80.0751	-6.09534	0.321645
0.1400	8.96244	-22.1465	8.75489	7.20063	-8.78781	-36.9162	-80.8961	106.925	-7.61917	0.321645
0.1407	5.65199	-20.3137	8.75489	8.12643	-10.3195	-40.5963	-58.3072	130.11	-8.79668	0
0.1413	5.00605	-17.259	3.86637	5.34904	-11.8512	-34.1849	-21.0769	142.335	-6.99579	0
0.1420	4.68307	-17.259	2.93311	0.462898	-12.1451	-21.9657	24.0826	145.683	-2.42428	0.321645
0.1427	6.54016	-11.4551	6.93281	-0.720063	-10.3195	-11.5866	58.2703	135.322	4.29444	0
0.1433	7.42833	2.52012	5.37737	1.08009	-8.49386	-7.01523	71.0861	102.344	6.71872	0
0.1440	0.403713	11.9897	-1.91097	2.93169	-9.40667	-9.74657	71.3811	31.5562	2.77061	0
0.1447	-4.76382	7.10216	-4.9774	6.27484	-10.6289	-16.7906	70.4775	-56.0368	-3.67106	0.321645
0.1453	-9.36615	-0.534571	-1.33323	9.61799	-11.8512	-22.5695	44.8275	-120.413	-10.9439	0
0.1460	-16.3908	7.10216	5.11072	12.3954	-11.2323	-22.282	4.24119	-157.655	-12.4677	0
0.1467	-19.3782	17.1827	9.06598	10.8524	-10.0101	-19.5219	-11.6172	-158.887	-8.79668	0.643291
0.1473	-20.9123	20.8483	8.4438	3.54888	-10.6289	-17.0781	-20.7818	-129.573	-3.94812	-1.28658
0.1480	-20.5894	24.5139	9.68815	-1.95446	-9.09724	-12.8229	-44.2743	-98.4592	2.14722	-3.5381
0.1487	-17.6019	23.292	11.5102	-4.42325	-8.18443	-6.41146	-62.2902	-71.6095	5.19489	-0.964936
0.1493	-13.3225	20.8483	10.8881	-4.11465	-8.18443	1.84006	-77.54	-38.3476	7.61917	0.643291
0.1500	-10.9003	19.9319	7.82163	-4.68041	-7.875	9.45906	-102.268	-8.11806	10.1127	-0.321645
0.1507	-12.3536	16.2662	4.17746	-6.8406	-9.40667	10.3791	-119.657	0.410641	7.9655	0
0.1513	-11.4655	15.3498	4.79963	-5.91481	-8.78781	9.77532	-133.395	-1.70574	8.24256	0
0.1520	-10.5773	14.4334	4.48855	-8.075	-9.40667	8.53903	-178.868	-2.62179	9.14301	0
0.1527	-10.2543	14.4334	2.04429	-8.69219	-10.6289	4.5714	-221.28	-2.3375	7.9655	0.321645
0.1533	-6.86313	17.4881	2.04429	-4.11465	-9.70063	-0.60377	-211.82	0.410641	7.06505	0.321645
0.1540	-6.86313	15.3498	1.11103	-3.80605	-10.6289	-7.33149	-182.832	2.87449	2.77061	0
0.1547	-6.29793	13.2116	5.11072	-1.95446	-9.70063	-11.2991	-140.715	9.28681	1.24677	0
0.1553	-5.65199	12.6006	8.4438	1.38869	-9.09724	-16.7906	-67.7669	13.867	-0.277061	0.321645
0.1560	-8.72021	8.93498	4.79963	2.31449	-9.40667	-19.8382	7.30222	13.2353	-4.5715	0.321645
0.1567	-12.1114	7.10216	0.533293	3.85748	-6.96218	-17.3943	92.4395	14.1513	-5.19489	0.321645
0.1573	-15.7448	5.57482	-3.77749	2.62309	-7.27161	-18.9181	174.221	15.0674	-6.99579	0.321645
0.1580	-12.6766	8.32404	-3.4664	3.54888	-7.27161	-21.6495	191.315	19.9635	-6.99579	0.321645
0.1587	-8.07427	11.6842	-0.39997	4.73184	-4.20825	-20.4419	151.042	26.0599	-2.14722	0
0.1593	-10.5773	6.79669	-0.711057	-0.102866	-4.20825	-16.7906	80.5458	25.4598	1.87016	0
0.1600	-12.3536	3.43653	-1.33323	-4.42325	-3.00147	-9.45906	2.72911	25.7441	9.14301	0
0.1607	-14.5337	2.52012	-4.9774	-8.69219	-1.46979	2.76009	-54.3426	24.5437	14.6842	0.321645
0.1613	-17.8441	-0.229102	-8.35492	-14.4527	0.355845	15.2668	-68.6889	21.7956	19.2557	0.321645
0.1620	-16.956	-1.75645	-6.79948	-19.3388	4.33202	21.6782	-48.5524	23.3118	30.546	0
0.1627	-14.5337	-1.75645	-3.77749	-20.8818	7.07048	26.5659	-44.5878	26.0599	38.4422	0
0.1633	-14.2107	-2.29102	-2.84423	-19.3388	6.15766	30.821	-31.7721	26.0599	35.7408	0.321645
0.1640	-15.4218	-3.81837	-4.04414	-16.3043	4.64145	28.3772	22.8656	24.828	28.3987	0.321645
0.1647	-13.8877	-2.90196	-4.9774	-11.7267	3.71316	21.0744	92.753	25.1439	23.2038	0
0.1653	-11.4655	-1.14551	-4.04414	-7.7664	3.10977	14.3467	157.754	27.2919	20.4332	0
0.1660	-9.93135	0.0763673	-3.4664	-4.68041	3.10977	10.9829	193.159	28.4922	17.7319	0.321645
0.1667	-10.5773	-0.840041	-3.77749	-3.18885	1.88752	12.2192	192.845	27.5761	13.7838	0
0.1673	-12.9996	-2.90196	-4.35522	-3.49745	0.355845	14.9505	150.728	26.3758	9.48933	0
0.1680	-13.6455	-3.5129	-4.35522	-2.88025	0.061886	13.4267	127.236	26.0599	6.71872	0
0.1687	-14.2107	-3.81837	-4.35522	-1.64586	-0.850933	9.45906	143.094	26.3758	4.29444	0
0.1693	-16.0678	-4.73478	-4.9774	-1.64586	-1.46979	6.41146	109.22	28.2079	2.14722	0.321645
0.1700	-15.4218	-3.81837	-4.9774	-0.720063	-1.46979	0.920031	38.4289	30.04	0.623387	0.321645
0.1707	-13.3225	-2.90196	-4.04414	-0.102866	-1.16036	-3.0476	-34.2061	30.04	-0.623387	0
0.1713	-13.6455	-2.90196	-3.77749	-1.02866	-1.16036	-3.0476	-102.877	30.956	-0.277061	0
0.1720	-14.8567	-3.20743	-4.04414	-2.26306	-1.46979	-0.920031	-130.039	32.4723	0.969713	0.321645
0.1727	-14.2107	-3.81837	-4.04414	-2.57165	-2.07318	5.80769	-85.7827	31.5562	0.969713	0.321645
0.1733	-10.9003	-3.81837	-2.53314	-1.64586	-1.46979	18.3144	-1.54896	31.2403	2.14722	0.321645
0.1740	-9.60838	-3.20743	-1.33323	-1.02866	-1.46979	24.7258	46.9666	31.8721	1.24677	0.321645
0.1747	-11.4655	-4.12384	-1.33323	0.154299	-3.29543	21.0744	36.2898	30.6402	-3.94812	0.321645
0.1753	-11.1425	-5.34571	-1.91097	1.69729	-4.20825	14.9505	-12.5392	28.4922	-8.51962	0.321645
0.1760	-11.7884	-5.65118	-2.53314	2.31449	-4.51768	7.01523	-31.7721	27.892	-10.3898	0
0.1767	-14.8567	-6.26212	-2.53314	2.93169	-5.13654	-0.28751	17.3704	27.892	-11.9136	0
0.1773	-6.29793	-5.65118	-0.0888821	5.04044	-4.20825	-2.73134	22.257	28.4922	-12.1907	0
0.1780	8.63947	-4.12384	2.04429	6.58344	-3.00147	-4.88766	-40.3098	31.8721	-10.3898	0.321645
0.1787	17.5212	-5.95665	1.42211	3.54888	-4.20825	-11.5866	-33.5976	28.2079	-11.5673	-0.964936
0.1793	34.3156	-7.78947	0.533293	0.154299	-4.51768	-15.5543	30.7947	15.3833	-13.9916	-2.89481
0.1800	45.9426	-3.5129	3.2442	3.24028	-0.850933	-13.7142	34.7593	19.0474	-10.0435	-0.964936
0.1807	34.3156	-3.20743	3.2442	4.16608	-0.850933	-17.3943	-41.5268	32.1564	-9.14301	0.643291
0.1813	33.1045	-5.65118	2.66646	3.85748	-2.07318	-23.202	-105.624	33.9885	-12.4677	0.321645
0.1820	34.3156	-4.42931	5.37737	6.58344	0.061886	-21.6495	-93.7119	34.9045	-10.3898	0.321645
0.1827	-26.0799	-5.65118	4.79963	4.47468	-0.850933	-20.4419	-61.9767	34.9045	-9.76639	0
0.1833	-125.636	-5.65118	3.55528	1.38869	-0.556974	-14.9505	-51.3	34.3043	-7.27285	0
0.1840	-180.864	-3.20743	5.99954	1.38869	3.71316	-6.0952	-51.9085	37.3368	-0.900448	0.321645
0.1847	-188.776	-8.09494	8.75489	-2.88025	3.4192	-6.0952	-58.3072	36.1364	1.24677	0.321645
0.1853	-173.839	-12.9824	15.1544	-4.98901	3.4192	-4.25514	-63.5072	35.8206	4.29444	0.321645
0.1860	-106.984	-15.1207	22.1761	-1.64586	4.33202	0.60377	-50.378	37.9685	6.71872	0.321645
0.1867	-19.136	-18.1754	22.1761	-0.720063	1.28413	2.12757	-17.1123	36.4207	2.77061	0
0.1873	18.1671	-16.6481	20.6651	1.69729	0.665275	3.96763	28.3607	39.1689	1.24677	0
0.1880	31.8934	-14.2043	17.2876	1.69729	0.061886	1.23629	90.0055	47.129	1.87016	0
0.1887	59.6688	-11.4551	9.9548	-0.411465	-1.16036	-3.0476	177.595	55.6577	0.623387	0.321645
0.1893	74.6062	-0.229102	0.799939	2.31449	1.88752	-2.73134	250.82	66.6503	3.67106	0.321645
0.1900	58.6999	13.8225	-13.8212	2.93169	2.80034	-3.36386	213.904	72.4308	5.54122	0.321645
0.1907	26.0799	21.4592	-26.0425	0.462898	1.57809	-2.73134	106.177	71.8307	4.29444	0.321645
0.1913	35.2038	22.3756	-26.3535	-0.102866	2.19695	1.84006	41.785	68.4823	4.5715	0.321645
0.1920	106.338	17.4881	-22.3983	-2.26306	0.355845	3.68012	23.1606	60.2379	3.04767	0.321645
0.1927	126.443	10.4623	-15.3766	-4.11465	-1.77922	5.20392	15.2314	54.1415	2.77061	0.321645
0.1933	116.996	4.35294	-2.22205	-3.49745	-0.850933	10.9829	20.413	53.5097	6.71872	0.321645
0.1940	188.696	-2.29102	8.75489	-3.49745	-1.16036	18.6306	32.3253	50.4773	8.58889	0
0.1947	244.57	-8.40041	11.5102	-5.29761	-3.60486	20.7582	-29.9281	42.2329	6.09534	0
0.1953	234.8	-11.4551	9.9548	-5.29761	-4.20825	15.8705	-167.564	36.1364	3.67106	0
0.1960	272.345	-10.5387	5.68846	-3.80605	-3.91429	11.6154	-242.024	35.5047	1.52383	0
0.1967	333.709	-4.73478	-3.15532	-2.88025	-3.60486	9.77532	-230.426	30.956	-0.277061	0.321645
0.1973	195.72	7.10216	-14.1323	-0.720063	-1.46979	10.3791	-214.254	22.9959	-0.623387	0.321645
0.1980	-186.031	15.3498	-23.2871	-0.102866	0.355845	13.743	-213.35	18.7316	-0.277061	0
0.1987	-470.73	12.2951	-25.4203	-2.88025	0.355845	13.4267	-207.855	13.2353	-2.14722	0
0.1993	-480.5	4.35294	-17.8209	-2.88025	0.974705	10.9829	-178.868	2.87449	-2.42428	0
0.2000	-450.948	-0.840041	-8.35492	-1.64586	1.28413	11.2991	-143.463	-1.70574	-2.42428	0
0.2007	-392.006	-5.65118	-1.64432	-3.18885	-1.16036	12.2192	-144.366	1.0424	-2.70134	0
0.2013	-202.826	-12.3715	6.31063	-3.18885	-3.60486	10.9829	-160.557	2.55861	-2.42428	0
0.2020	-51.1101	-17.259	13.6434	-1.95446	-5.4305	9.77532	-129.117	1.95844	-1.8009	0.321645
0.2027	73.3951	-22.1465	18.843	-2.26306	-8.18443	9.77532	-63.8023	-5.05405	-2.42428	0.321645
0.2033	203.956	-26.4231	23.9982	-0.720063	-10.6289	7.64775	-9.47814	-17.5944	-3.04767	0.321645
0.2040	197.254	-27.3395	25.2425	0.462898	-11.8512	0.60377	52.7752	-27.355	-3.67106	0.321645
0.2047	138.393	-24.2848	22.7983	0.462898	-11.8512	-5.80769	135.165	-26.439	-4.84856	0.321645
0.2053	155.43	-18.1754	20.0429	2.93169	-10.9229	-8.53903	198.34	-16.0466	-4.84856	0
0.2060	210.981	-12.066	15.4655	4.16608	-10.0101	-9.45906	225.797	-7.20202	-5.47195	0.321645
0.2067	257.731	-7.17853	10.577	3.24028	-9.09724	-6.69897	245.952	-2.3375	-6.3724	0.321645
0.2073	251.271	-0.840041	2.93311	1.69729	-7.27161	-4.5714	265.775	-2.93767	-6.71872	-1.60823
0.2080	45.2966	9.85139	-11.3769	1.38869	-5.73993	-1.84006	263.028	3.47466	-7.61917	-0.964936
0.2087	-341.057	23.292	-24.7981	4.16608	-3.29543	3.68012	231.292	22.0799	-6.71872	0.643291
0.2093	-459.507	33.0671	-33.3752	5.96624	-0.850933	3.0476	180.951	37.3368	-7.61917	0.321645
0.2100	-218.086	36.7327	-37.3305	5.04044	0.061886	2.76009	154.084	50.1614	-8.24256	0.321645
0.2107	-34.6386	34.8999	-36.1306	3.24028	0.665275	6.0952	149.198	49.8771	-6.09534	0
0.2113	5.00605	29.4014	-33.953	0.154299	-0.556974	5.49143	126.627	32.7881	-5.74901	0
0.2120	27.937	23.5975	-28.4867	-1.95446	-0.556974	4.88766	107.708	24.5437	-4.22518	0.321645
0.2127	70.0039	15.9608	-18.7097	-2.57165	1.28413	3.36386	82.3713	9.5711	-1.8009	-1.60823
0.2133	119.741	6.49122	-8.35492	-1.33726	1.28413	-1.5238	35.0728	-21.5429	-4.5715	-2.57316
0.2140	94.3882	2.52012	3.2442	3.24028	2.19695	0.920031	4.84971	-37.7158	-3.94812	-0.321645
0.2147	2.58377	-4.12384	13.0212	2.93169	0.665275	2.44383	-17.4258	-51.7724	-3.04767	0.643291
0.2153	-55.7124	-15.7317	20.0429	-1.64586	-3.00147	0	-55.8731	-72.2097	-6.09534	0
0.2160	-74.9292	-20.6192	30.7088	-0.102866	-2.07318	4.28389	-87.9217	-70.0617	-4.22518	0
0.2167	-99.3942	-18.7864	37.4194	2.62309	-0.556974	6.72772	-104.702	-51.1406	-2.14722	0.321645
0.2173	-45.3774	-11.7606	28.2645	1.38869	-3.29543	1.84006	-103.485	-31.3035	-5.47195	0.321645
0.2180	160.678	1.60371	16.3988	3.24028	-2.07318	0.60377	-82.7217	-13.9302	-5.74901	0.643291
0.2187	408.719	7.10216	12.7101	3.54888	-1.16036	1.84006	-56.7951	-12.3824	-4.84856	0
0.2193	521.678	6.49122	9.06598	0.462898	-4.82711	1.23629	-22.6074	-18.7947	-6.99579	0
0.2200	354.137	15.9608	1.42211	2.31449	-4.82711	2.76009	19.5095	-7.80219	-6.09534	0.321645
0.2207	44.4085	27.8741	-11.688	4.16608	-3.91429	1.84006	40.863	7.45472	-7.27285	0.321645
0.2213	-47.4767	34.5944	-25.7314	2.31449	-3.91429	-0.28751	44.219	8.05489	-11.2902	0.321645
0.2220	52.6442	41.3147	-32.442	3.24028	-1.77922	1.23629	57.6433	3.79054	-10.3898	0.321645
0.2227	12.9188	45.2858	-36.3972	4.73184	-0.850933	3.36386	82.6848	4.3907	-10.3898	0.321645
0.2233	-268.712	43.7585	-36.3972	4.47468	-1.46979	6.41146	102.821	6.2228	-12.4677	0
0.2240	-649.898	37.9546	-28.1756	4.73184	-0.850933	10.6954	109.533	5.90692	-11.5673	0.321645
0.2247	-762.776	28.7905	-19.954	4.16608	-1.77922	9.45906	108.003	-0.505405	-12.1907	0.321645
0.2253	-487.524	17.7936	-13.8212	3.24028	-5.13654	4.5714	100.996	-12.3824	-14.9613	0.321645
0.2260	-240.694	12.2951	-9.24374	2.93169	-6.34332	2.12757	77.1897	-22.7748	-14.9613	0.321645
0.2267	-171.659	11.3787	-6.22175	4.16608	-5.13654	1.84006	31.4033	-31.3035	-12.4677	0
0.2273	-96.649	6.79669	-1.33323	4.16608	-5.73993	0.60377	-14.0697	-41.9802	-11.2902	0
0.2280	-28.2599	1.90918	1.11103	2.00589	-8.18443	-0.920031	-49.7695	-51.1406	-12.4677	0.321645
0.2287	-26.7258	0.0763673	2.93311	1.69729	-9.40667	-0.920031	-84.5657	-52.3726	-11.5673	0.321645
0.2293	-48.1226	-3.81837	7.51054	2.00589	-9.09724	-0.60377	-104.997	-55.7209	-9.42007	0
0.2300	-55.1472	-7.484	9.06598	2.31449	-9.09724	0	-107.136	-68.8614	-9.76639	0
0.2307	-41.9862	-4.42931	5.99954	4.73184	-8.49386	2.12757	-101.641	-78.0219	-9.42007	0.321645
0.2313	-40.775	-0.534571	2.66646	6.27484	-8.78781	2.12757	-100.738	-74.9578	-9.76639	0.321645
0.2320	-28.5829	-0.229102	-0.0888821	5.04044	-9.40667	-1.20754	-100.738	-67.3136	-11.2902	0
0.2327	48.6878	2.82559	-4.9774	4.16608	-9.09724	-2.73134	-77.8535	-55.1207	-11.5673	0
0.2333	124.667	7.40763	-9.55483	3.54888	-8.78781	-3.96763	-30.2415	-38.9478	-11.9136	0
0.2340	151.473	5.88029	-5.91066	3.24028	-9.40667	-5.49143	29.5777	-30.1032	-11.9136	0.321645
0.2347	174.404	1.29824	0.533293	5.04044	-8.78781	-6.0952	85.4323	-31.3035	-10.6668	0.321645
0.2353	190.23	-1.98555	2.66646	5.65764	-8.18443	-8.22277	117.776	-30.3875	-10.6668	0
0.2360	169.479	-1.98555	3.55528	5.34904	-6.34332	-8.22277	134.87	-21.8588	-9.76639	0.321645
0.2367	134.114	0.381837	2.93311	6.58344	-4.82711	-6.0952	147.686	-14.8463	-8.79668	0
0.2373	117.319	-0.534571	3.2442	8.43503	-4.82711	-7.01523	134.556	-24.8912	-11.5673	-2.57316
0.2380	98.4253	-3.5129	9.06598	10.8524	-3.60486	-3.65137	102.213	-35.5994	-10.9439	-2.57316
0.2387	77.9167	-3.81837	12.088	10.5438	-2.69204	3.68012	74.1286	-27.0392	-6.09534	0
0.2393	88.8977	-3.20743	6.93281	6.27484	-3.60486	3.96763	49.7141	-16.6784	-4.5715	0
0.2400	74.9292	-2.29102	3.55528	4.73184	-3.60486	2.76009	27.1436	-10.8662	-2.42428	0
0.2407	-1.37263	-0.229102	2.35538	5.34904	-3.00147	2.12757	6.38023	-3.53783	-1.17751	0
0.2413	-80.0967	1.29824	0.533293	5.65764	-2.38261	-0.28751	-12.5392	2.55861	-2.70134	0
0.2420	-112.152	4.65841	-1.02214	6.27484	-1.46979	-1.5238	-20.1733	5.62263	-1.8009	0.321645
0.2427	-81.6308	11.0733	-4.9774	7.50923	-1.16036	-1.20754	-16.2087	3.15878	0.346326	0.321645
0.2433	-3.55268	15.0444	-7.42166	7.20063	0.061886	0.31626	-11.3221	-6.60185	2.49355	0
0.2440	43.1166	11.9897	-4.35522	5.34904	-0.247544	2.12757	-7.65258	-14.2145	4.29444	0.321645
0.2447	-8.39724	6.18576	-0.711057	3.85748	-2.07318	0.60377	-7.35754	-15.1306	2.77061	0.321645
0.2453	-62.4141	3.742	5.11072	5.96624	-1.77922	-0.920031	-7.96606	-10.8662	1.52383	0.321645
0.2460	-90.5125	2.82559	10.577	8.43503	-0.556974	-1.5238	-8.86962	-5.97009	0.969713	0
0.2467	-166.168	-0.840041	13.0212	7.50923	-0.850933	-3.0476	-12.2257	-5.36993	-1.52383	0
0.2473	-142.107	-2.90196	16.6654	8.43503	-0.247544	-2.12757	-13.4612	-3.85371	-0.623387	0.321645
0.2480	-3.22971	-4.12384	16.9765	7.81783	-2.07318	-2.73134	-14.3647	-1.70574	0.623387	0.321645
0.2487	122.487	-4.12384	9.37706	5.04044	-6.34332	-5.17517	-18.9378	-1.10557	-1.8009	0
0.2493	238.191	2.52012	4.48855	6.89203	-6.65275	-3.36386	-19.5648	4.70658	0.623387	0.321645
0.2500	287.282	8.01857	1.7332	8.12643	-6.34332	-2.12757	-19.2513	8.05489	3.04767	0.321645
0.2507	290.028	8.62951	-3.77749	5.96624	-8.78781	-4.5714	-22.9209	4.70658	0.346326	0
0.2513	375.211	11.9897	-6.79948	5.96624	-8.78781	-4.5714	-23.5294	2.55861	0.623387	0
0.2520	503.027	13.8225	-9.55483	4.47468	-9.09724	-4.25514	-22.9209	1.0424	3.04767	0.321645
0.2527	356.237	13.8225	-12.9323	2.31449	-9.40667	-3.36386	-22.9209	-0.189527	6.09534	0.321645
0.2533	-81.6308	16.2662	-11.3769	3.85748	-5.4305	0.31626	-19.8598	3.15878	11.9136	0
0.2540	-304.158	15.3498	-10.4881	3.54888	-4.20825	0	-20.7818	6.82296	13.7838	0
0.2547	-265.401	11.6842	-9.24374	2.62309	-5.73993	-2.73134	-24.4329	8.37077	11.6366	0.321645
0.2553	-219.943	11.3787	-3.77749	4.47468	-4.51768	-2.12757	-23.8244	7.73901	12.8141	0.321645
0.2560	-75.8981	9.85139	-2.22205	3.24028	-4.51768	-2.73134	-23.5294	7.13884	13.1604	0.321645
0.2567	110.617	9.54592	-3.15532	2.62309	-3.91429	-2.44383	-21.6854	9.88698	14.6842	0
0.2573	149.939	11.6842	-1.33323	5.04044	-1.16036	0.31626	-18.0343	11.1189	18.009	0
0.2580	15.987	8.93498	-2.22205	2.93169	-2.07318	-2.12757	-19.8598	4.3907	15.3076	0.321645
0.2587	-202.826	5.26935	-1.64432	1.38869	-3.60486	-3.96763	-21.3904	-4.45388	13.1604	0.643291
0.2593	-297.133	5.88029	0.799939	2.62309	-2.38261	-2.12757	-19.5648	-11.4664	14.6842	0.321645
0.2600	-197.9	6.79669	-0.711057	2.00589	-2.07318	-2.44383	-20.7818	-20.3425	14.3379	-0.321645
0.2607	-108.518	6.18576	0.799939	2.31449	-0.556974	-2.12757	-20.7818	-29.4714	15.8617	0
0.2613	-131.126	1.90918	4.17746	2.00589	-0.850933	-2.44383	-21.9989	-37.4315	15.5847	0.321645
0.2620	-134.76	-4.42931	5.11072	-0.102866	-3.91429	-5.49143	-27.789	-35.2836	11.6366	0
0.2627	-43.5203	-3.81837	5.37737	-0.411465	-4.20825	-5.80769	-29.0245	-23.0591	11.9136	0
0.2633	41.6632	1.29824	3.86637	0.462898	-2.69204	-4.25514	-26.2769	-12.6983	14.3379	0
0.2640	3.47193	6.79669	1.7332	2.31449	-2.07318	-3.65137	-25.0415	-6.88614	14.3379	0
0.2647	-116.108	10.7678	0.533293	3.85748	-1.16036	-3.65137	-25.3549	-4.138	12.537	0
0.2653	-169.883	11.3787	-0.711057	3.24028	-0.556974	-4.88766	-26.572	-4.45388	10.3898	0
0.2660	-95.1149	7.7131	-0.39997	2.31449	-1.46979	-5.49143	-27.1805	-10.5503	7.9655	0
0.2667	-4.76382	4.65841	0.799939	2.62309	-1.16036	-4.5714	-25.0415	-20.6268	7.34211	0.321645
0.2673	-17.8441	7.40763	0.533293	3.54888	0.061886	-2.12757	-19.2513	-25.2071	9.76639	0.643291
0.2680	-82.5997	7.40763	0.533293	2.93169	-1.46979	-3.0476	-15.8952	-30.7033	9.14301	-1.60823
0.2687	-77.1092	1.90918	3.2442	2.31449	-2.38261	-6.0952	-16.2087	-42.2961	7.06505	-3.21645
0.2693	-3.22971	-0.840041	8.13271	2.93169	-0.850933	-3.0476	-12.8342	-36.1996	9.14301	-0.964936
0.2700	46.1848	-0.840041	8.75489	2.62309	-0.247544	0	-9.79162	-20.6268	11.0132	0.964936
0.2707	41.6632	0.0763673	5.68846	1.69729	0.355845	0	-10.4001	-19.4265	11.0132	0
0.2713	51.4331	2.82559	3.86637	2.93169	2.50638	0.920031	-8.86962	-20.0267	10.7361	0
0.2720	94.146	5.57482	0.799939	4.73184	4.33202	0.60377	-7.96606	-16.3625	9.76639	0
0.2727	81.6308	8.01857	-4.66631	5.04044	5.24484	-0.920031	-8.86962	-13.0142	8.58889	0.321645
0.2733	74.6062	10.1569	-8.35492	3.85748	5.24484	-1.5238	-7.65258	-7.80219	7.61917	0.321645
0.2740	184.739	10.7678	-8.93265	2.62309	5.24484	-1.20754	-4.90503	-3.85371	7.06505	0
0.2747	295.841	8.93498	-7.73274	2.31449	5.55427	-0.60377	-3.68799	-1.42145	7.34211	0
0.2753	305.288	7.40763	-6.22175	2.93169	5.24484	0.60377	-4.29651	0.126351	7.06505	0
0.2760	271.699	8.62951	-7.73274	3.85748	5.24484	0.920031	-5.21851	-4.45388	5.19489	0
0.2767	254.985	10.1569	-10.7992	4.47468	6.77652	0	-5.21851	-14.5304	3.04767	0
0.2773	246.669	11.0733	-10.4881	5.65764	7.68934	-0.28751	-6.12207	-19.4265	2.14722	0.321645
0.2780	198.465	11.0733	-8.93265	5.34904	7.37991	-1.5238	-8.86962	-16.9626	0.346326	0.321645
0.2787	103.593	11.9897	-7.73274	4.47468	7.68934	-1.84006	-8.86962	-11.7822	0.623387	0
0.2793	-44.4085	12.6006	-4.66631	4.73184	7.68934	-0.60377	-6.43555	-5.97009	2.14722	0
0.2800	-215.341	9.85139	-1.64432	5.04044	7.07048	-1.5238	-7.04407	-5.97009	0.346326	0.321645
0.2807	-261.122	5.26935	0.799939	5.34904	7.68934	-2.44383	-9.47814	-15.1306	-1.52383	0
0.2813	-179.895	0.687306	2.93311	5.65764	7.68934	-2.44383	-10.7136	-27.0392	-2.14722	-0.321645
0.2820	-115.866	-1.98555	4.79963	4.73184	7.37991	-1.5238	-11.0087	-33.7674	-0.623387	0
0.2827	-69.1157	-1.75645	7.51054	5.04044	8.60216	1.23629	-7.35754	-30.1032	3.39399	0.643291
0.2833	-3.55268	-2.29102	6.93281	4.73184	9.20554	0.920031	-5.51355	-22.1746	2.77061	0
0.2840	44.9737	-4.42931	3.55528	3.85748	8.60216	-1.5238	-7.96606	-18.7947	-2.14722	0
0.2847	57.8117	-5.34571	2.93311	4.47468	7.99877	-1.84006	-9.47814	-22.1746	-3.67106	0
0.2853	38.595	-8.09494	4.79963	4.47468	4.93541	-2.44383	-11.0087	-33.1356	-4.22518	0.321645
0.2860	13.5648	-9.92776	7.51054	4.73184	1.57809	-3.0476	-11.0087	-41.0641	-3.67106	0.321645
0.2867	2.58377	-9.31682	9.37706	5.96624	1.57809	-2.12757	-8.2611	-36.7998	-1.8009	0.321645
0.2873	-4.11788	-10.2332	8.75489	4.73184	0.355845	-2.44383	-7.65258	-27.9552	-1.52383	0.321645
0.2880	-29.1481	-13.2879	10.2659	2.62309	-1.77922	-2.73134	-7.35754	-22.4589	-0.900448	0.321645
0.2887	-59.6688	-15.7317	13.6434	2.93169	-2.69204	-1.84006	-6.43555	-18.1946	-0.277061	0.321645
0.2893	-30.3592	-15.1207	14.2656	4.16608	-3.00147	-1.5238	-6.12207	-11.1821	-0.900448	0.321645
0.2900	37.0609	-12.3715	14.8433	5.04044	-1.77922	0	-4.00147	-3.85371	0.623387	0
0.2907	84.6991	-14.2043	16.0877	4.47468	-1.46979	1.23629	-3.68799	-4.76976	0.623387	-0.321645
0.2913	104.481	-17.87	14.5322	2.00589	-3.29543	0.31626	-6.12207	-7.20202	-1.8009	0
0.2920	76.3826	-15.7317	9.9548	0.771496	-4.20825	0.31626	-6.43555	-2.02162	-1.52383	0.321645
0.2927	50.4642	-12.3715	5.11072	0.462898	-3.60486	0.31626	-6.73059	4.99087	-0.623387	0
0.2933	77.6744	-8.09494	2.04429	1.38869	-1.46979	1.5238	-7.35754	12.6351	0.623387	0.321645
0.2940	139.281	0.0763673	-4.04414	2.93169	1.88752	2.76009	-7.04407	19.3317	0.969713	0
0.2947	201.857	7.10216	-15.3766	1.08009	2.50638	1.23629	-9.1831	23.912	-1.8009	0
0.2953	184.174	11.0733	-23.2871	-1.02866	1.57809	0.31626	-11.3221	28.4922	-3.67106	0
0.2960	92.2889	11.3787	-24.2204	-0.720063	2.50638	2.12757	-10.7136	27.2919	-3.94812	0.321645
0.2967	93.177	3.43653	-18.3986	0.462898	2.50638	1.84006	-10.4001	17.8155	-5.74901	-0.321645
0.2973	166.411	-6.26212	-8.62157	2.31449	3.4192	-0.28751	-10.4001	0.726519	-6.99579	-2.57316
0.2980	99.6365	-11.1496	-3.4664	3.24028	4.33202	-1.84006	-10.4001	-10.266	-7.27285	-2.57316
0.2987	-23.3346	-12.9824	-3.77749	2.00589	2.50638	-2.44383	-11.3221	-4.76976	-7.61917	0
0.2993	1.37263	-13.8989	-2.22205	2.31449	0.665275	-2.73134	-11.9307	-0.505405	-6.71872	0.643291
0.3000	53.2094	-14.8153	0.799939	2.62309	1.57809	-3.0476	-11.9307	-11.4664	-7.61917	-1.92987
0.3007	-22.7694	-10.2332	-1.33323	4.73184	4.93541	-2.73134	-9.79162	-19.7108	-8.24256	-2.89481
0.3013	-87.4443	-2.59649	-7.11057	7.20063	7.07048	-0.28751	-6.43555	-11.1821	-7.89623	-0.643291
0.3020	-66.1282	-3.5129	-11.688	5.65764	5.24484	-0.920031	-7.04407	-7.80219	-10.3898	0.321645
0.3027	-98.1023	-6.26212	-13.8212	4.16608	4.33202	-2.44383	-8.86962	-16.6784	-13.0911	-0.321645
0.3033	-166.491	-5.65118	-15.0655	4.16608	4.33202	-2.73134	-8.57458	-20.3425	-12.4677	0
0.3040	-136.294	-6.87306	-12.6213	5.04044	5.24484	-2.44383	-7.35754	-21.8588	-10.6668	0.321645
0.3047	-57.2465	-9.92776	-5.28849	8.12643	7.07048	-0.920031	-4.29651	-26.7233	-9.14301	0.321645
0.3053	-37.3839	-14.2043	-2.22205	6.58344	5.55427	-0.60377	-2.15748	-31.0192	-9.76639	0.321645
0.3060	-39.8869	-17.259	-2.84423	3.24028	3.10977	-0.60377	-2.15748	-31.0192	-10.6668	0
0.3067	-17.8441	-16.3426	-1.91097	2.93169	3.10977	2.44383	-0.940438	-28.5554	-8.24256	0
0.3073	-0.807427	-15.1207	-2.22205	2.00589	2.80034	3.68012	-0.01844	-28.2711	-6.09534	0.321645
0.3080	-9.04318	-12.677	-3.77749	2.62309	2.50638	3.36386	0.590079	-25.8072	-5.47195	0.321645
0.3087	-27.937	-9.62229	-4.66631	4.16608	3.71316	4.5714	2.72911	-21.5429	-3.94812	0.321645
0.3093	-43.1973	-9.62229	-5.59957	2.31449	3.4192	3.0476	2.10216	-20.0267	-4.84856	0
0.3100	-44.4085	-11.4551	-4.66631	1.69729	2.19695	0.920031	-0.645399	-20.9427	-7.27285	0
0.3107	-25.8377	-12.3715	-2.22205	3.24028	1.88752	0.920031	-0.645399	-19.4265	-7.89623	0
0.3113	1.04965	-10.8442	-1.02214	3.24028	2.80034	1.84006	0.590079	-15.1306	-5.74901	0.321645
0.3120	12.9188	-8.70588	-0.0888821	2.31449	3.4192	4.28389	2.10216	-11.7822	-2.14722	0.321645
0.3127	6.54016	-9.92776	-0.711057	0.462898	2.80034	4.28389	1.49364	-19.4265	-1.17751	-1.60823
0.3133	1.93782	-12.066	-1.91097	-1.02866	1.57809	1.5238	-0.331919	-24.291	-2.42428	-1.60823
0.3140	-2.34154	-11.7606	-1.64432	-0.720063	0.061886	1.23629	-0.01844	-13.2985	-1.8009	0.321645
0.3147	-9.93135	-12.3715	-0.39997	-1.02866	-0.850933	0.920031	-0.01844	-8.71823	-1.8009	0.321645
0.3153	-12.9996	-10.8442	0.533293	0.462898	-0.247544	0.920031	-0.331919	-9.03411	-1.8009	0
0.3160	-33.7504	-7.17853	0.222205	2.00589	0.665275	2.12757	0.885118	-4.76976	-0.900448	0.321645
0.3167	-58.7807	-6.26212	-3.15532	0.462898	-0.247544	0.60377	1.1986	-1.42145	-2.70134	0.321645
0.3173	-35.6075	-6.26212	-6.22175	0.154299	-1.16036	-0.28751	1.49364	-0.189527	-4.84856	0
0.3180	9.28541	-6.56759	-5.91066	0.462898	-1.46979	0	1.49364	-1.42145	-5.47195	0.321645
0.3187	29.1481	-7.78947	-4.35522	0.154299	-1.77922	0	1.1986	-3.53783	-4.84856	0.321645
0.3193	37.9491	-6.56759	-0.711057	1.69729	0.061886	1.84006	3.33763	-2.62179	-2.70134	0
0.3200	59.3459	-5.95665	0.799939	1.69729	0.355845	2.12757	4.55467	-1.70574	-1.52383	0
0.3207	65.4016	-7.484	-0.0888821	-0.720063	-1.77922	0	2.41563	-1.70574	-3.04767	0.643291
0.3213	25.111	-6.87306	1.11103	-1.02866	-1.77922	-0.28751	1.1986	2.24273	-3.04767	0.321645
0.3220	-34.6386	-4.73478	1.7332	0.154299	-1.16036	-1.20754	-0.01844	6.2228	-3.67106	-0.321645
0.3227	-79.5315	-3.5129	1.11103	2.00589	-1.46979	-3.36386	-1.86244	8.37077	-5.47195	-0.321645
0.3233	-62.737	-2.29102	2.35538	3.54888	-1.46979	-3.65137	-1.25392	10.4871	-4.5715	0.321645
0.3240	-1.1304	-4.42931	3.2442	2.00589	-2.69204	-3.65137	-1.54896	8.37077	-4.22518	0.321645
0.3247	26.4029	-7.484	3.86637	-0.102866	-4.51768	-4.88766	-4.00147	6.2228	-5.47195	0.321645
0.3253	43.4396	-7.484	4.79963	-0.720063	-5.13654	-4.88766	-4.29651	8.97093	-4.5715	0.321645
0.3260	109.083	-5.65118	5.68846	0.154299	-4.51768	-3.65137	-3.68799	11.7191	-3.04767	0.321645
0.3267	175.938	-2.90196	4.48855	0.462898	-3.60486	-2.44383	-2.47095	12.951	-1.8009	0
0.3273	199.111	1.29824	-1.33323	-1.33726	-3.29543	-3.0476	-3.37451	6.2228	-2.70134	-2.57316
0.3280	227.452	3.742	-4.35522	-2.57165	-3.60486	-4.25514	-5.21851	-0.189527	-3.67106	-2.89481
0.3287	190.876	6.49122	-5.28849	-2.57165	-3.60486	-3.0476	-4.60999	11.7191	-2.70134	-0.321645
0.3293	88.0095	13.517	-10.177	-3.49745	-3.00147	-1.84006	-4.00147	26.6601	-2.42428	0
0.3300	39.1602	19.3209	-12.3102	-2.57165	-1.46979	0	-1.86244	30.6402	-0.900448	0
0.3307	-86.8791	19.0155	-10.4881	-1.33726	-0.247544	1.5238	0.885118	27.5761	1.52383	0
0.3313	-302.946	14.7389	-8.04383	-2.57165	-0.850933	0.920031	0.590079	24.2278	1.87016	0.321645
0.3320	-359.951	12.2951	-6.79948	-4.42325	-0.850933	0.60377	1.1986	25.1439	2.14722	0.321645
0.3327	-229.39	13.8225	-7.42166	-4.42325	1.57809	1.84006	2.41563	25.4598	2.77061	0.321645
0.3333	-92.6118	11.9897	-6.48839	-3.49745	2.80034	1.84006	1.80712	18.1314	2.14722	0
0.3340	1.61485	7.40763	-1.02214	-2.57165	2.80034	1.5238	0.885118	8.97093	1.52383	0
0.3347	55.3895	2.52012	6.31063	-1.64586	2.80034	1.23629	-0.01844	4.07483	1.52383	0
0.3353	9.60838	-1.75645	9.37706	-2.88025	1.88752	-0.28751	-1.25392	-0.505405	0	0
0.3360	-27.3718	-2.90196	9.68815	-4.42325	1.88752	0	-0.940438	-7.80219	-0.623387	0.321645
0.3367	47.3959	-0.534571	9.9548	-3.80605	3.4192	1.5238	0.276599	-16.0466	0.969713	0.321645
0.3373	10.8195	1.90918	8.4438	-3.80605	4.02259	2.12757	0.276599	-25.5229	1.87016	0
0.3380	-224.142	4.04747	5.68846	-4.68041	3.71316	2.12757	0.276599	-30.3875	2.49355	0.321645
0.3387	-309.971	8.32404	1.42211	-4.42325	3.4192	3.0476	1.80712	-26.7233	3.04767	0.321645
0.3393	-162.858	12.9061	-3.4664	-4.11465	4.33202	4.5714	3.63267	-17.5944	3.39399	0
0.3400	-26.4029	13.517	-4.9774	-4.68041	4.02259	5.20392	4.24119	-10.266	3.67106	0
0.3407	74.6062	8.32404	-2.53314	-7.1492	2.19695	4.28389	2.41563	-10.266	3.39399	0
0.3413	216.229	5.26935	1.11103	-7.7664	2.19695	4.28389	3.02415	-8.71823	4.01738	-0.321645
0.3420	322.405	5.88029	5.11072	-6.2234	3.71316	6.0952	5.45823	-1.70574	6.09534	0
0.3427	348.001	1.90918	9.37706	-6.2234	3.4192	5.80769	4.24119	0.410641	5.54122	0.321645
0.3433	343.722	0.0763673	10.2659	-7.7664	2.80034	6.0952	3.33763	0.726519	5.19489	0.321645
0.3440	336.132	4.35294	5.37737	-8.38359	3.4192	7.33149	4.55467	4.99087	6.44166	0
0.3447	248.849	8.32404	0.533293	-9.25796	3.4192	6.72772	4.55467	6.82296	7.06505	0.321645
0.3453	19.9434	14.128	-1.64432	-8.38359	5.8637	7.64775	5.77171	7.13884	8.58889	0.321645
0.3460	-186.031	20.2373	-5.59957	-7.4578	7.37991	8.85529	6.69371	10.4871	9.48933	0
0.3467	-327.654	21.7647	-9.24374	-7.7664	5.8637	7.33149	5.16319	17.2153	7.9655	0
0.3473	-449.414	21.1538	-10.7992	-8.075	4.33202	5.49143	3.02415	22.7116	6.44166	0.321645
0.3480	-389.26	18.4045	-10.7992	-8.69219	3.71316	4.5714	2.10216	16.2993	6.09534	0.643291
0.3487	-125.313	14.7389	-5.59957	-8.075	4.64145	5.20392	3.02415	3.79054	7.61917	0.321645
0.3493	100.848	11.9897	0.799939	-5.91481	5.24484	6.0952	5.16319	-2.93767	9.14301	0.321645
0.3500	116.108	8.93498	2.66646	-4.42325	4.64145	4.5714	4.84971	-6.28597	7.06505	0.321645
0.3507	17.8441	5.57482	2.93311	-4.98901	3.4192	3.0476	2.72911	-13.6143	3.39399	0
0.3513	-36.1727	0.0763673	4.79963	-6.532	1.57809	1.5238	1.1986	-24.8912	1.24677	0
0.3520	-40.4521	-3.5129	7.82163	-6.532	0.974705	1.23629	1.1986	-32.8513	0.969713	0
0.3527	-48.6878	-1.98555	11.1991	-4.42325	2.50638	3.36386	3.02415	-35.2836	3.39399	0.321645
0.3533	-53.6131	-2.59649	13.6434	-3.49745	3.4192	4.88766	4.55467	-36.1996	5.81828	0.321645
0.3540	-40.1291	-5.95665	14.2656	-4.98901	2.19695	4.28389	3.33763	-36.7998	4.5715	0.321645
0.3547	-28.2599	-7.78947	12.7101	-6.532	0.665275	2.44383	1.1986	-35.5994	1.87016	0.321645
0.3553	-27.614	-7.17853	9.9548	-6.8406	-0.247544	1.5238	-0.331919	-31.0192	0	0.321645
0.3560	-36.4957	-2.59649	8.13271	-5.91481	1.28413	3.0476	0.885118	-23.375	1.24677	0
0.3567	-51.1101	2.21465	7.24389	-4.68041	2.80034	4.88766	3.94615	-14.5304	4.01738	0
0.3573	-53.8554	2.82559	4.79963	-5.29761	2.50638	4.88766	4.55467	-7.80219	3.67106	0.321645
0.3580	-64.5941	4.04747	0.533293	-5.29761	1.57809	3.68012	3.02415	2.55861	1.24677	0.643291
0.3587	-78.8856	3.742	-1.64432	-6.8406	-0.247544	0.920031	-0.01844	8.05489	-0.900448	-0.643291
0.3593	-56.9236	1.60371	2.35538	-8.075	0.061886	0.31626	-0.940438	-3.85371	-1.8009	-3.21645
0.3600	-26.7258	2.82559	6.62172	-4.98901	3.4192	3.96763	2.10216	-10.5503	0.969713	-1.92987
0.3607	-1.1304	3.43653	4.17746	-4.11465	3.4192	4.5714	3.02415	-4.45388	1.87016	0.321645
0.3613	33.1045	0.687306	0.799939	-6.532	0.665275	2.12757	0.590079	-1.70574	-0.623387	0
0.3620	47.3959	-1.14551	0.533293	-7.7664	0.061886	2.44383	-0.01844	-0.505405	-1.52383	0
0.3627	44.6507	-0.229102	-0.0888821	-7.4578	0.061886	2.44383	-0.331919	2.24273	-1.52383	0
0.3633	53.8554	0.992776	-0.39997	-6.2234	0.974705	3.0476	0.590079	4.3907	-0.900448	0
0.3640	67.2586	1.90918	1.42211	-4.68041	2.50638	4.88766	2.10216	7.13884	0.346326	0.321645
0.3647	67.9046	-0.534571	2.66646	-5.29761	2.19695	4.28389	1.49364	7.45472	-1.17751	0.321645
0.3653	66.0475	-2.90196	2.04429	-7.1492	0.355845	2.76009	-0.01844	7.13884	-3.67106	0
0.3660	93.823	-1.98555	-0.0888821	-7.7664	0.061886	2.76009	-0.331919	9.88698	-3.32473	0.321645
0.3667	138.958	0.992776	-0.711057	-6.532	1.88752	4.5714	1.49364	14.7515	-2.42428	0.321645
0.3673	140.492	3.43653	-0.711057	-4.98901	3.71316	6.0952	3.02415	17.8155	-1.8009	0
0.3680	106.903	1.60371	-1.91097	-7.1492	2.80034	5.49143	1.80712	15.9834	-2.70134	0
0.3687	69.6809	-1.75645	-3.4664	-9.25796	1.28413	4.28389	-0.01844	13.867	-3.94812	0
0.3693	-5.08679	-1.75645	-5.28849	-9.25796	0.355845	3.68012	-0.645399	15.9834	-4.5715	0.321645
0.3700	-106.419	0.0763673	-6.79948	-9.00079	0.665275	3.0476	-0.645399	17.8155	-4.5715	0.321645
0.3707	-136.617	0.992776	-4.04414	-8.075	2.19695	4.5714	0.590079	15.0674	-2.70134	0.321645
0.3713	-80.0967	-1.45098	-0.0888821	-7.4578	3.10977	4.88766	1.49364	8.65506	-1.52383	0.321645
0.3720	-23.9806	-5.95665	2.04429	-8.69219	2.19695	3.68012	1.1986	2.87449	-2.14722	0.321645
0.3727	0.726684	-8.70588	2.35538	-9.56656	0.974705	3.36386	0.885118	0.410641	-2.42428	0.321645
0.3733	10.8195	-9.62229	1.7332	-9.87515	0.355845	3.36386	0.276599	0.126351	-2.70134	0.321645
0.3740	10.1736	-8.40041	2.35538	-8.075	1.57809	4.28389	1.1986	1.0424	-2.14722	0.321645
0.3747	3.79491	-6.56759	2.93311	-6.8406	1.88752	5.20392	2.10216	1.95844	-1.52383	0
0.3753	-7.1861	-7.78947	1.42211	-8.69219	0.665275	4.28389	0.885118	-0.189527	-3.32473	0.321645
0.3760	-18.1671	-8.09494	-0.711057	-9.56656	-0.556974	3.36386	-0.01844	-2.93767	-4.5715	0.321645
0.3767	-19.7012	-6.26212	-2.22205	-9.00079	-0.556974	3.0476	-1.25392	-2.3375	-5.19489	0
0.3773	-13.8877	-4.42931	-2.53314	-7.1492	0.061886	3.36386	-0.940438	1.0424	-5.47195	0
0.3780	-7.83204	-3.5129	-1.02214	-5.29761	0.974705	4.28389	0.590079	4.99087	-4.84856	0.321645
0.3787	-6.6209	-4.73478	-1.33323	-6.2234	0.061886	3.0476	-0.331919	5.90692	-6.71872	0.321645
0.3793	-6.6209	-6.26212	-3.15532	-7.4578	-1.46979	1.5238	-2.15748	4.07483	-9.42007	0
0.3800	-3.87565	-6.26212	-3.77749	-7.1492	-2.07318	1.23629	-2.76599	4.70658	-11.5673	0
0.3807	-3.55268	-6.87306	-4.35522	-6.8406	-2.69204	0.920031	-3.07947	6.2228	-12.4677	0.321645
0.3813	-7.83204	-5.65118	-3.15532	-4.98901	-2.07318	2.12757	-1.54896	7.73901	-11.9136	0.321645
0.3820	-7.50907	-5.04025	-1.91097	-4.68041	-2.07318	2.44383	-1.54896	8.97093	-11.9136	0
0.3827	3.47193	-7.484	-2.84423	-6.2234	-3.00147	0.920031	-3.37451	8.65506	-13.0911	0
0.3833	22.3657	-8.09494	-2.53314	-5.91481	-3.29543	0	-2.76599	7.73901	-13.7145	0
0.3840	38.272	-8.40041	-2.53314	-5.60621	-3.60486	-0.920031	-3.07947	7.13884	-13.7145	0.321645
0.3847	40.3713	-9.01135	-2.22205	-5.29761	-3.00147	-0.920031	-3.68799	8.97093	-12.1907	0
0.3853	37.3839	-7.78947	-1.02214	-4.11465	-1.77922	-0.60377	-2.15748	10.803	-10.3898	-0.321645
0.3860	39.8061	-7.17853	-1.64432	-4.11465	-2.07318	-1.5238	-2.15748	11.7191	-10.0435	0.321645
0.3867	55.9547	-6.87306	-5.91066	-5.29761	-3.60486	-3.96763	-4.00147	12.6351	-11.5673	0
0.3873	80.4197	-6.26212	-10.4881	-6.8406	-3.60486	-7.01523	-6.73059	1.95844	-13.7145	-2.57316
0.3880	62.6563	-2.90196	-11.688	-4.98901	-1.77922	-7.01523	-6.73059	-3.53783	-13.4374	-2.89481
0.3887	-27.0488	1.60371	-10.177	-1.02866	0.061886	-3.36386	-2.47095	13.867	-9.42007	0
0.3893	-120.145	1.60371	-11.0658	-1.02866	-0.850933	-3.0476	-0.645399	23.6277	-7.89623	0.321645
0.3900	-123.133	-1.14551	-12.3102	-2.57165	-2.07318	-4.88766	-2.15748	18.7316	-8.24256	0
0.3907	-58.4577	-2.90196	-11.3769	-2.26306	-3.00147	-5.17517	-2.76599	16.2993	-9.14301	0.321645
0.3913	-3.55268	-5.65118	-9.55483	-2.57165	-3.91429	-5.80769	-4.29651	15.0674	-11.9136	0
0.3920	31.8934	-5.65118	-6.79948	-4.11465	-3.00147	-5.17517	-4.00147	16.8995	-12.4677	0
0.3927	51.1101	-3.5129	-5.59957	-5.29761	-1.77922	-4.5714	-2.47095	19.9635	-11.5673	0.321645
0.3933	54.1783	-5.04025	-6.48839	-6.8406	-3.00147	-4.88766	-3.68799	18.1314	-13.0911	0.321645
0.3940	77.0285	-7.17853	-6.79948	-8.075	-4.82711	-4.88766	-4.90503	13.5512	-14.9613	0
0.3947	126.766	-6.56759	-8.62157	-8.69219	-5.13654	-5.17517	-5.51355	9.88698	-16.1388	0
0.3953	168.268	-3.20743	-10.7992	-6.2234	-4.20825	-4.25514	-4.90503	7.45472	-15.5154	0
0.3960	185.385	-0.229102	-10.7992	-0.411465	-2.69204	-2.12757	-2.15748	7.13884	-12.1907	0
0.3967	130.399	0.381837	-11.688	2.62309	-2.69204	-1.84006	-1.86244	7.45472	-12.1907	0.321645
0.3973	18.7323	-0.534571	-12.6213	2.00589	-3.91429	-2.44383	-3.68799	6.2228	-13.9916	0.321645
0.3980	9.93135	-2.59649	-12.3102	2.31449	-5.13654	-3.0476	-4.60999	4.07483	-14.3379	0.321645
0.3987	56.2776	-3.81837	-10.4881	2.00589	-4.51768	-3.0476	-4.29651	4.3907	-14.3379	0.321645
0.3993	-52.079	-0.534571	-8.62157	0.771496	-2.38261	-0.920031	-2.76599	11.7191	-11.5673	0.321645
0.4000	-227.533	3.43653	-10.177	1.38869	-1.77922	0	-1.54896	16.8995	-10.0435	0.321645
0.4007	-252.563	1.29824	-10.7992	-0.720063	-3.00147	-1.84006	-3.07947	12.3192	-11.5673	0
0.4013	-146.952	-1.75645	-9.24374	0.154299	-4.51768	-3.65137	-4.60999	7.13884	-12.1907	0.321645
0.4020	-63.383	-1.75645	-10.177	10.5438	-4.82711	-3.65137	-5.21851	5.90692	-10.9439	0.321645
0.4027	-28.2599	-0.534571	-9.55483	7.50923	-3.29543	-2.44383	-3.07947	5.62263	-9.42007	0
0.4033	5.65199	-0.840041	-6.79948	-9.25796	-1.46979	-0.28751	-1.25392	3.15878	-7.61917	0
0.4040	2.58377	-1.45098	-7.73274	-11.1095	-1.77922	-0.920031	-2.15748	-0.789695	-7.61917	0.321645
0.4047	-68.2276	-1.45098	-10.4881	-3.49745	-2.38261	-1.84006	-2.76599	-3.53783	-9.42007	0.321645
0.4053	-126.847	-2.90196	-9.55483	-1.64586	-3.29543	-1.5238	-3.37451	-7.20202	-10.6668	0.321645
0.4060	-85.345	-4.42931	-5.59957	-1.33726	-2.38261	0	-2.47095	-7.80219	-9.76639	0.321645
0.4067	-9.60838	-3.20743	-1.33323	-0.102866	0.061886	3.36386	0.276599	-3.85371	-6.09534	0.321645
0.4073	12.3536	-4.12384	-0.711057	-1.02866	-0.850933	3.96763	0.590079	-3.85371	-4.5715	0.321645
0.4080	16.31	-4.73478	-2.84423	-2.26306	-3.00147	2.76009	-0.940438	-4.138	-10.6668	0
0.4087	26.9681	-3.81837	-4.04414	-0.411465	-3.00147	3.0476	-2.15748	-0.189527	-18.009	0
0.4093	32.1356	-2.59649	-3.15532	6.89203	-3.00147	3.36386	-2.47095	3.47466	-22.8575	0
0.4100	33.9927	-0.229102	-0.711057	16.0471	-1.46979	4.5714	-0.645399	5.30675	-25.9052	0
0.4107	4.68307	1.60371	-0.0888821	26.4366	0.061886	5.80769	0.885118	6.2228	-32.0005	0.321645
0.4113	-52.6442	0.687306	-4.04414	40.7864	-1.77922	3.36386	-1.54896	5.90692	-41.4899	0.321645
0.4120	-69.4387	-0.229102	-5.91066	58.1708	-3.00147	0	-4.60999	-3.25354	-53.6805	-1.28658
0.4127	-42.3092	1.29824	-4.35522	74.0122	-2.07318	0	-4.90503	-8.43394	-80.2091	-1.60823
0.4133	-7.83204	6.18576	-4.9774	85.0189	-0.247544	2.12757	-2.76599	6.53867	-117.197	0.321645
0.4140	15.4218	10.4623	-7.11057	101.477	0.355845	3.36386	-1.25392	13.2353	-183.068	0.321645
0.4147	15.4218	9.24045	-11.0658	119.17	-1.16036	1.23629	-4.00147	8.37077	-240.766	0
0.4153	10.4965	7.40763	-12.3102	124.057	-2.07318	0	-5.51355	6.82296	-228.852	0
0.4160	3.47193	6.79669	-8.35492	127.76	-0.556974	0.920031	-4.00147	4.99087	-220.956	0.321645
0.4167	-16.0678	5.26935	-4.66631	121.022	0.061886	1.5238	-3.68799	5.90692	-214.237	0.321645
0.4173	-26.7258	3.742	-1.33323	86.5619	-0.247544	1.23629	-5.21851	-0.189527	-100.712	-1.28658
0.4180	-20.3472	1.90918	0.533293	41.6608	-1.16036	0.920031	-7.65258	-15.1306	91.2915	-3.21645
0.4187	-19.7012	1.90918	-1.64432	8.12643	-3.29543	3.96763	-7.35754	-8.43394	211.19	-1.28658
0.4193	-24.6265	4.65841	-2.53314	-11.4181	-3.00147	9.77532	-3.68799	8.37077	210.012	0.643291
0.4200	-14.5337	6.49122	0.222205	-30.0369	-1.46979	13.743	-1.54896	8.97093	182.514	0
0.4207	4.11788	6.79669	2.66646	-23.9164	-0.247544	14.3467	-1.54896	6.82296	153.492	0
0.4213	10.1736	5.26935	1.7332	12.704	-0.850933	11.2991	-3.07947	6.53867	56.4511	0.321645
0.4220	5.00605	2.52012	0.222205	14.1955	-2.38261	7.01523	-5.51355	2.24273	-86.0274	0.321645
0.4227	1.61485	1.60371	0.533293	-38.2662	-2.38261	4.5714	-6.12207	-0.789695	-185.839	0
0.4233	4.3601	1.90918	1.42211	-74.2694	-1.46979	3.96763	-4.29651	0.410641	-251.779	0
0.4240	9.60838	3.13106	2.93311	-53.5419	-0.556974	5.80769	0.276599	4.3907	-326.516	0
0.4247	6.86313	4.96388	3.86637	-18.1559	0.665275	9.17155	6.38023	7.45472	-390.309	0
0.4253	-2.01857	5.88029	2.04429	2.31449	0.665275	8.53903	8.83274	9.28681	-389.686	0.321645
0.4260	0.161485	5.57482	-0.0888821	20.0075	-0.556974	5.49143	7.59726	8.37077	-288.697	0.321645
0.4267	4.68307	7.10216	-1.64432	57.8622	-1.46979	4.88766	5.45823	5.62263	-165.682	0
0.4273	-6.86313	9.85139	-4.66631	124.674	-2.07318	4.28389	1.80712	5.30675	-103.136	0.321645
0.4280	-10.5773	12.6006	-6.22175	185.416	-2.07318	2.76009	-1.25392	8.65506	-56.1048	0.321645
0.4287	7.10535	13.517	-6.22175	206.195	-1.77922	3.68012	-1.86244	11.1189	54.6502	0
0.4293	15.6641	12.6006	-4.9774	211.647	-1.16036	5.49143	-1.54896	10.2029	175.172	0.321645
0.4300	12.9188	12.6006	-2.22205	225.071	1.28413	7.33149	0.590079	10.803	235.64	0.321645
0.4307	20.5894	12.2951	-0.39997	195.806	2.19695	7.64775	2.41563	12.035	250.602	0
0.4313	30.6822	9.54592	-1.64432	105.746	1.57809	7.01523	1.49364	9.5711	160.557	0
0.4320	16.8752	9.54592	-1.91097	34.9745	3.10977	9.45906	3.63267	9.28681	75.0835	0.321645
0.4327	-14.2107	10.1569	-0.39997	-25.1508	4.64145	11.9029	6.08519	9.5711	111.101	0.321645
0.4333	-12.6766	8.32404	0.799939	-134.395	4.02259	12.8229	4.84971	4.70658	156.262	0
0.4340	16.31	6.79669	1.7332	-262.875	4.02259	14.663	4.24119	-1.42145	125.162	0
0.4347	24.2228	4.96388	1.42211	-380.091	2.19695	14.3467	2.41563	-5.97009	68.3648	0.321645
0.4353	16.8752	5.57482	2.04429	-432.552	-0.247544	15.583	2.72911	-4.76976	214.861	0
0.4360	11.7077	8.93498	4.17746	-359.312	-1.46979	19.2344	6.69371	0.410641	461.168	0
0.4367	5.89421	9.85139	3.55528	-248.216	-3.00147	18.9181	7.30222	3.79054	458.397	0
0.4373	2.26079	10.1569	1.42211	-202.132	-2.69204	18.6306	6.69371	4.99087	335.382	0.321645
0.4380	-8.39724	11.3787	-1.64432	-178.936	-1.16036	21.362	7.30222	4.99087	300.611	0
0.4387	-27.614	12.2951	-2.53314	-112.741	0.355845	22.8858	6.69371	3.15878	307.053	0.321645
0.4393	-29.4711	13.517	-0.39997	-51.0731	2.80034	23.8058	7.30222	2.55861	306.083	0
0.4400	-10.2543	13.8225	1.7332	-25.4594	3.4192	25.6459	10.0498	2.24273	192.904	0
0.4407	4.3601	13.2116	2.04429	-12.3439	0.665275	26.8534	11.2668	1.0424	15.8617	0.321645
0.4413	5.32902	11.3787	0.799939	-13.2697	-2.38261	25.0421	8.51926	0.410641	-6.71872	0.321645
0.4420	2.26079	10.4623	-0.711057	-11.7267	-3.29543	20.7582	4.84971	0.726519	-5.74901	0
0.4427	0.726684	11.3787	-0.0888821	-2.26306	0.665275	18.9181	3.02415	1.95844	-100.365	0.321645
0.4433	1.04965	12.9061	1.7332	27.6196	4.02259	18.3144	2.41563	3.15878	-134.582	0.321645
0.4440	1.37263	13.2116	2.04429	78.2812	2.19695	16.4743	1.1986	2.87449	-171.778	0
0.4447	-0.807427	11.9897	0.222205	94.7912	-1.77922	13.743	-2.15748	1.95844	-238.965	0.321645
0.4453	-2.34154	11.3787	-1.02214	60.2796	-3.91429	10.6954	-5.21851	1.32669	-263.069	0
0.4460	1.93782	13.2116	-0.39997	-27.0024	-3.60486	10.9829	-4.90503	4.07483	-396.405	0.321645
0.4467	8.63947	15.0444	-0.0888821	-102.352	-3.29543	9.77532	-4.60999	7.45472	-531.888	0
0.4473	12.6766	15.6553	-0.0888821	-62.3883	-4.20825	2.76009	-8.2611	-3.85371	-316.126	-2.57316
0.4480	13.8877	14.128	-0.711057	13.6298	-5.4305	-4.25514	-12.5392	-14.5304	35.7408	-2.89481
0.4487	12.9188	13.517	-1.64432	31.3228	-7.56557	-8.85529	-13.4612	-3.25354	133.682	0
0.4493	11.1425	15.0444	-2.22205	51.7417	-6.96218	-9.74657	-11.0087	7.13884	41.2128	0.321645
0.4500	13.5648	16.8772	-1.64432	91.7052	-3.00147	-5.17517	-5.82703	7.45472	0.623387	0
0.4507	17.5212	18.0991	-0.39997	84.0931	-0.247544	0.60377	0.590079	8.65506	79.655	0.321645
0.4513	8.63947	16.8772	-1.33323	36.5175	-1.16036	2.12757	2.72911	7.73901	169.977	0.643291
0.4520	-9.60838	15.0444	-2.84423	6.58344	-0.850933	1.84006	0.885118	4.70658	155.016	0.321645
0.4527	-16.956	15.6553	-1.64432	4.73184	3.71316	6.0952	3.02415	4.70658	-105.56	0.321645
0.4533	-12.3536	16.8772	0.799939	0.462898	8.60216	11.6154	6.98875	5.62263	-429.029	0
0.4540	-11.1425	17.4881	2.35538	3.24028	11.9595	12.8229	6.98875	5.62263	-573.377	0
0.4547	-19.7012	16.5717	2.66646	21.8591	11.65	10.3791	4.55467	4.70658	-645.413	0
0.4553	-29.4711	12.9061	0.222205	-20.8818	6.46709	7.64775	2.10216	1.32669	-610.019	0
0.4560	-18.813	11.3787	0.222205	-110.581	2.19695	10.0628	3.63267	1.64257	-196.228	0.321645
0.4567	12.9188	12.6006	2.93311	-138.355	1.28413	12.5067	6.98875	6.82296	563.057	0.321645
0.4573	39.4832	14.4334	3.55528	-87.3848	-0.850933	8.85529	7.59726	11.1189	1108.73	0
0.4580	56.2776	15.9608	2.35538	3.54888	-2.38261	4.5714	6.69371	11.7191	1085.25	0
0.4587	70.3269	15.3498	0.533293	87.7449	-3.91429	0.60377	3.63267	9.5711	721.12	0
0.4593	77.6744	14.4334	-1.91097	146.687	-5.73993	-2.12757	1.1986	8.37077	352.491	0
0.4600	82.196	16.2662	-2.22205	193.954	-4.51768	-2.44383	3.02415	11.1189	171.847	0
0.4607	89.5436	19.0155	-1.91097	225.38	-3.00147	-1.84006	5.16319	13.867	147.396	0
0.4613	75.4944	19.9319	-2.84423	239.73	-1.77922	-0.920031	5.77171	13.5512	120.244	0.643291
0.4620	1.61485	20.8483	-5.28849	230.266	0.355845	-3.36386	3.33763	12.3192	26.2515	0.321645
0.4627	-85.345	21.4592	-8.04383	193.337	4.02259	-7.619	-1.86244	11.1189	-42.3903	0
0.4633	-101.816	21.4592	-7.11057	135.063	7.37991	-11.9029	-6.43555	9.28681	-57.6286	0
0.4640	-75.2522	21.1538	-4.04414	70.9777	10.1338	-18.6019	-9.47814	9.5711	-87.5512	0.321645
0.4647	-59.9918	19.3209	-1.91097	-18.1559	12.5629	-25.3296	-11.3221	6.82296	-125.993	0
0.4653	-51.4331	16.5717	0.799939	-189.325	12.8723	-26.8534	-11.6172	-1.10557	-64.3474	0
0.4660	-45.0544	15.0444	2.93311	-337.658	11.3561	-27.4572	-8.86962	-6.60185	97.0406	0.321645
0.4667	-41.3402	14.4334	1.42211	-269.304	8.60216	-35.9962	-5.51355	-8.43394	184.661	0.321645
0.4673	-35.2845	14.4334	0.533293	-48.9643	5.55427	-45.7715	-1.25392	-8.43394	125.786	0.321645
0.4680	-28.5829	14.4334	-0.0888821	103.329	3.10977	-50.0554	2.72911	-7.80219	79.655	0.321645
0.4687	-22.4465	14.128	-0.711057	168.341	0.974705	-52.183	3.33763	-4.76976	147.743	0
0.4693	-15.0989	15.6553	2.35538	225.071	-0.247544	-53.7068	3.33763	0.410641	-18.5631	-0.321645
0.4700	-14.5337	15.0444	4.48855	257.423	-1.46979	-54.3106	3.02415	2.24273	-372.924	0.321645
0.4707	-27.3718	12.9061	3.55528	262.926	-0.850933	-50.6592	3.33763	2.24273	-454.38	0.643291
0.4713	-43.5203	11.0733	3.2442	285.814	-0.247544	-42.1201	2.72911	1.32669	-452.579	0
0.4720	-55.3895	8.01857	3.86637	294.66	-0.247544	-33.2649	-0.940438	-1.10557	-535.836	0.321645
0.4727	-64.8364	6.49122	6.93281	190.92	0.974705	-21.6495	-0.645399	-0.189527	-410.466	0.321645
0.4733	-66.6934	7.40763	11.8213	6.89203	0.974705	-4.88766	3.33763	2.87449	-144.626	0.321645
0.4740	-64.5941	6.49122	14.2656	-100.86	-2.07318	12.2192	6.69371	4.3907	-22.5805	0
0.4747	-64.5941	5.26935	11.8213	-128.326	-5.73993	28.3772	7.91074	6.2228	-10.6668	0
0.4753	-58.1347	6.79669	5.37737	-192.411	-8.49386	40.5963	6.38023	7.45472	-75.6376	0.321645
0.4760	-39.5639	10.4623	-0.0888821	-300.421	-10.6289	41.8039	5.77171	7.45472	-39.6197	0.321645
0.4767	-10.2543	15.6553	-1.91097	-392.897	-9.40667	38.4688	6.69371	11.7191	118.443	0.643291
0.4773	13.5648	19.3209	-5.59957	-405.704	-5.13654	35.7087	6.69371	9.28681	65.04	-1.28658
0.4780	23.8998	21.1538	-10.4881	-319.348	-1.46979	33.8686	4.55467	0.410641	-54.0269	-3.5381
0.4787	35.5268	22.0702	-12.3102	-199.715	13.1817	29.2972	4.24119	8.05489	-72.3129	-1.28658
0.4793	55.9547	20.2373	-11.3769	-61.7711	32.7068	19.8382	3.94615	17.8155	-268.818	0.321645
0.4800	68.1468	18.0991	-7.73274	63.057	37.9052	12.2192	0.885118	15.9834	-501.965	0
0.4807	67.2586	16.8772	-2.53314	88.9793	35.1513	6.41146	-2.76599	11.1189	-441.566	0.321645
0.4813	63.6252	13.8225	1.11103	70.9777	31.4845	-5.49143	-4.90503	4.70658	-368.906	0.321645
0.4820	58.3769	11.0733	2.93311	99.9859	24.1665	-18.6019	-5.82703	-0.789695	-439.418	0
0.4827	53.2094	9.54592	4.48855	154.608	15.6262	-22.5695	-4.29651	-4.76976	-478.207	0
0.4833	43.1166	9.85139	5.68846	186.342	6.46709	-23.8058	-0.331919	-5.6858	-249.285	0.321645
0.4840	25.4339	12.2951	4.48855	204.035	-6.04936	-25.0133	4.24119	-2.93767	300.957	0.321645
0.4847	10.4965	12.9061	0.533293	219.002	-22.8359	-22.282	7.91074	-2.3375	567.975	0.321645
0.4853	-1.1304	11.3787	-3.15532	183.565	-33.5113	-15.5543	10.6583	-5.36993	494.692	0.321645
0.4860	-8.72021	12.9061	-3.77749	176.878	-34.4241	-6.69897	15.5449	-2.93767	538.675	0
0.4867	-6.86313	17.1827	-2.22205	259.891	-30.7573	3.96763	19.8045	2.87449	560.633	0.321645
0.4873	-1.1304	19.6264	-0.0888821	262	-20.7009	10.3791	18.901	6.2228	515.749	0.321645
0.4880	3.47193	19.9319	0.533293	66.0915	-14.5896	3.96763	13.4059	8.05489	482.501	0.321645
0.4887	9.28541	17.7936	-1.33323	-191.177	-16.4153	-6.69897	5.77171	5.62263	263.97	0.321645
0.4893	11.3847	15.3498	-3.77749	-236.644	-13.6768	-9.45906	0.590079	0.410641	-40.5894	0.643291
0.4900	9.93135	15.6553	-5.59957	-107.238	-6.04936	-2.12757	-0.940438	-1.70574	-141.855	0.321645
0.4907	9.93135	18.4045	-6.22175	-67.8917	4.64145	13.1392	0.276599	0.126351	-55.2044	0.321645
0.4913	11.1425	20.2373	-4.35522	-154.556	15.0074	26.8534	4.24119	2.24273	36.6413	0.321645
0.4920	10.1736	18.4045	-3.77749	-262.566	15.0074	31.4248	5.45823	2.87449	-17.6626	0.321645
0.4927	13.2418	15.0444	-4.66631	-232.683	9.8244	30.2173	2.41563	3.15878	-237.718	0
0.4933	23.3346	13.517	-3.15532	-71.5434	10.7372	22.8858	0.276599	1.95844	-438.241	0
0.4940	31.5704	11.9897	-1.02214	-79.4641	9.8244	3.68012	-0.645399	-1.42145	-353.045	0
0.4947	32.1356	10.7678	0.799939	-227.489	1.57809	-19.2344	-1.25392	-1.42145	-87.8975	0
0.4953	24.2228	10.1569	1.42211	-181.405	2.19695	-32.6611	0.276599	1.95844	-47.5852	0
0.4960	12.6766	9.54592	0.799939	-46.8041	13.7851	-36.3125	1.80712	4.3907	-183.414	0.643291
0.4967	4.3601	10.7678	-0.711057	-31.5799	18.6741	-28.981	2.10216	4.99087	-165.405	0.321645
0.4973	3.79491	11.3787	-0.711057	-42.8438	16.8485	-21.9657	2.72911	0.410641	-115.049	0
0.4980	5.00605	9.54592	0.222205	-62.0797	26.3016	-27.7734	4.24119	-8.11806	-39.966	0
0.4987	3.79491	6.79669	-0.711057	-80.6985	39.7308	-33.5524	5.77171	-13.2985	390.309	0.321645
0.4993	3.47193	6.79669	-0.0888821	-19.0302	31.7939	-42.7239	10.0498	-11.7822	855.425	0.321645
0.5000	-4.11788	7.7131	2.35538	77.4068	18.0707	-56.4669	11.8753	-6.28597	848.429	0
0.5007	-19.7012	8.62951	5.99954	156.717	20.4997	-56.7544	8.51926	2.24273	621.378	0.321645
0.5013	-29.794	8.62951	9.68815	212.573	25.6982	-44.2477	2.72911	6.82296	517.896	0
0.5020	-39.8869	5.88029	12.3991	214.116	16.2296	-28.6935	-2.15748	3.47466	390.032	0
0.5027	-49.0108	3.43653	16.6654	198.84	3.10977	-17.9981	-5.51355	0.126351	75.4298	0.321645
0.5033	-42.6321	2.21465	19.7318	203.726	-2.38261	-16.7906	-8.86962	1.0424	-268.541	0.321645
0.5040	-30.3592	1.90918	16.6654	150.956	-12.4546	-13.1104	-10.1051	4.07483	-473.012	0.321645
0.5047	-23.9806	3.43653	9.37706	17.8987	-27.4155	-1.20754	-9.47814	7.13884	-613.066	0.321645
0.5053	-18.813	5.26935	-1.02214	-99.0087	-32.289	11.9029	-11.6172	9.28681	-698.817	-0.321645
0.5060	-9.93135	11.0733	-10.177	-136.863	-30.4634	22.8858	-9.1831	16.8995	-686.626	0.321645
0.5067	8.63947	18.71	-15.3766	-172.867	-32.289	28.0897	0.590079	27.2919	-596.581	0.643291
0.5073	26.6451	19.9319	-20.2207	-290.34	-34.1147	20.4419	7.91074	22.0799	-301.165	-1.92987
0.5080	18.4093	16.2662	-22.3983	-317.496	-24.3521	11.2991	9.44126	8.05489	57.0745	-3.21645
0.5087	3.79491	10.4623	-19.3319	-138.664	-3.91429	16.4743	8.20578	7.73901	60.4685	-0.321645
0.5093	30.3592	2.52012	-11.688	57.8622	16.2296	29.6135	6.69371	8.05489	-276.16	0.643291
0.5100	84.6991	-0.534571	-2.53314	134.446	24.4759	44.8515	7.30222	2.55861	-554.814	0
0.5107	138.958	0.992776	1.42211	130.177	21.4126	56.4669	2.72911	1.0424	-689.674	0.321645
0.5113	151.796	-0.229102	0.799939	131.103	9.8244	50.9754	-9.1831	-6.28597	-772.099	0
0.5120	68.1468	-2.90196	-0.0888821	188.759	-10.6289	22.5982	-18.0343	-20.9427	-513.879	0
0.5127	-11.4655	-4.42931	-1.33323	252.845	-28.3283	-7.619	-20.4684	-26.1231	91.8457	0.643291
0.5133	-2.01857	-4.42931	-3.15532	262.926	-33.5113	-16.158	-19.5648	-25.8072	365.928	-0.643291
0.5140	-16.633	0.381837	-2.22205	235.769	-31.3762	-10.3791	-13.7562	-26.7233	185.839	-2.57316
0.5147	-67.9046	4.65841	-1.64432	216.225	-27.7095	0.60377	-4.60999	-15.4464	49.1783	-0.643291
0.5153	-72.8299	3.43653	-3.77749	196.114	-25.5744	19.2344	-2.15748	-7.20202	91.5686	0.643291
0.5160	-97.2142	1.60371	-1.64432	135.989	-31.0668	36.0249	-2.47095	-9.03411	282.602	0
0.5167	-154.299	-0.229102	2.04429	89.905	-38.0908	35.7087	-1.25392	-6.88614	319.52	0
0.5173	-146.629	-1.45098	4.48855	62.4398	-31.3762	25.6459	-3.37451	-2.3375	50.9792	0
0.5180	-107.63	-2.90196	9.06598	-75.8124	-20.9948	16.4743	-6.43555	-1.42145	23.5502	0.321645
0.5187	-87.4443	-9.01135	13.0212	-301.655	-23.4393	10.9829	-6.73059	-5.36993	490.744	0.321645
0.5193	-33.7504	-13.8989	17.2876	-409.356	-28.0189	17.9981	-4.60999	-4.45388	939.929	0
0.5200	61.1222	-15.1207	20.354	-344.036	-27.7095	23.8058	-7.35754	2.55861	971.999	0.321645
0.5207	127.089	-13.8989	20.0429	-264.726	-21.9076	17.7106	-15.5818	4.07483	808.463	0
0.5213	111.183	-7.484	17.9097	-282.728	-6.65275	10.0628	-18.6428	4.99087	666.816	0
0.5220	102.947	0.0763673	12.088	-322.383	14.0945	8.25152	-15.8952	13.5512	541.1	0.321645
0.5227	165.199	6.79669	2.04429	-263.183	40.9531	13.743	-9.1831	24.828	455.626	0.321645
0.5233	174.646	13.517	-11.0658	-142.624	65.3671	5.20392	-0.01844	30.3243	472.735	0
0.5240	109.972	19.0155	-23.9093	-89.2364	69.9467	-16.158	4.55467	26.6601	525.515	0
0.5247	-20.9123	21.4592	-26.9757	-141.132	62.6132	-27.1697	2.72911	18.4157	365.028	0.321645
0.5253	-193.056	16.2662	-20.8429	-202.749	56.208	-25.6171	0.590079	8.37077	-0.277061	0.321645
0.5260	-236.415	8.32404	-16.5765	-181.713	42.4847	-12.8229	-0.940438	-1.10557	-332.958	0.321645
0.5267	-122.567	4.35294	-15.3766	-123.748	12.8723	1.23629	-0.940438	-9.63428	-561.533	0.321645
0.5273	-16.3908	-0.534571	-11.3769	-167.672	-16.4153	14.3467	-0.940438	-19.4265	-782.766	0.321645
0.5280	-44.4085	-6.26212	-4.04414	-261.949	-30.154	25.6459	-6.43555	-23.6908	-1046.74	0.321645
0.5287	-74.364	-10.8442	2.04429	-193.286	-40.8293	8.85529	-21.9989	-18.5105	-1149.25	0.321645
0.5293	39.8061	-15.1207	4.79963	-65.1143	-58.5287	-53.7068	-43.0573	-14.5304	-936.258	0.321645
0.5300	162.454	-17.5645	7.24389	-41.3008	-65.2433	-129.092	-54.9511	-20.3425	-562.433	0
0.5307	185.385	-18.4809	7.82163	-67.2745	-57.3219	-166.612	-53.439	-27.0392	-187.986	0
0.5313	181.106	-17.5645	6.31063	-113.359	-65.8622	-159.913	-46.7269	-25.8072	88.5209	0
0.5320	186.596	-15.7317	6.31063	-143.858	-74.7119	-133.059	-40.6232	-23.375	226.151	0
0.5327	173.193	-13.2879	2.66646	-91.9624	-61.2826	-90.3355	-36.0317	-21.5429	426.674	0.321645
0.5333	149.697	-7.17853	-6.79948	40.1692	-54.8774	-37.8363	-29.9281	-14.5304	567.628	0
0.5340	116.431	0.0763673	-15.0655	184.182	-57.0125	-0.920031	-24.1379	-5.97009	347.642	0
0.5347	29.7133	4.96388	-20.8429	307.21	-64.9494	27.1697	-19.8598	1.95844	80.9018	0.321645
0.5353	-103.916	9.85139	-21.465	392.64	-73.1802	63.1658	-3.07947	12.951	107.43	0
0.5360	-77.6744	10.7678	-14.7544	418.563	-61.886	94.3031	20.7265	24.5437	271.035	0.321645
0.5367	121.598	3.742	-8.04383	405.138	-52.7424	118.425	29.2642	21.7956	236.194	-0.321645
0.5373	209.769	-3.81837	-4.04414	331.898	-32.9079	138.867	32.0118	-4.138	77.5078	-2.89481
0.5380	184.174	-6.56759	-0.711057	213.499	16.2296	141.598	39.6459	-19.1106	82.7027	-2.57316
0.5387	119.741	-9.31682	4.79963	75.2466	50.7156	122.077	46.3581	-8.11806	61.369	0.321645
0.5393	82.196	-15.7317	13.0212	-139.589	55.6046	100.111	49.7141	-8.43394	-169.63	0.321645
0.5400	171.013	-19.3973	16.9765	-348.356	62.9226	84.8441	45.141	-16.9626	-371.4	-0.321645
0.5407	199.111	-17.5645	13.0212	-405.087	61.7004	58.9107	33.2472	-9.63428	-304.213	0.321645
0.5413	62.0911	-11.4551	7.24389	-386.468	42.4847	29.0097	22.8656	3.15878	24.1043	0.321645
0.5420	-229.632	-2.29102	-0.39997	-438.364	40.9531	9.45906	20.118	18.1314	409.565	0.643291
0.5427	-551.957	6.79669	-5.91066	-467.064	60.7875	-3.0476	28.6557	29.7241	662.868	0.321645
0.5433	-569.64	6.79669	-3.77749	-348.356	76.6613	-10.3791	36.2898	30.3243	757.761	0.321645
0.5440	-375.534	-4.12384	5.37737	-196.68	72.0817	-19.8382	31.1082	27.2919	792.532	0
0.5447	-236.98	-13.8989	14.8433	-86.5105	45.2232	-24.0933	28.0472	32.1564	745.848	0.321645
0.5453	-122.244	-15.4262	16.6654	35.2831	18.3647	-19.5219	28.0472	44.981	560.009	0.321645
0.5460	3.47193	-14.2043	14.8433	122.565	1.57809	-26.2496	23.7691	49.5613	341.2	0.321645
0.5467	80.0967	-12.3715	13.0212	133.52	-9.40667	-32.0286	24.6911	40.4008	137.076	0.321645
0.5473	104.158	-15.7317	13.6434	140.875	-17.3436	-21.0457	28.3607	20.2478	-127.864	0.321645
0.5480	135.325	-23.6739	17.9097	168.032	-28.6223	-6.41146	21.9436	-5.6858	-489.497	0
0.5487	202.745	-23.9793	15.1544	192.72	-39.6225	6.72772	10.6583	-25.2071	-787.961	0
0.5493	273.233	-14.5098	0.799939	217.768	-39.9165	14.663	6.38023	-32.2196	-950.319	0
0.5500	312.313	0.992776	-19.6429	169.575	-35.043	-9.1428	10.0498	-16.0466	-1035.72	0.321645
0.5507	217.682	15.9608	-39.7747	21.8591	-45.7183	-57.9907	14.9364	20.8795	-903.287	0.321645
0.5513	-210.173	18.0991	-42.219	-81.6243	-59.457	-78.7201	14.6229	37.3368	-511.731	0.321645
0.5520	-765.279	7.10216	-23.9093	-54.7762	-52.4329	-65.9259	8.83274	23.912	18.9094	0
0.5527	-786.595	-9.01135	-2.84423	32.1971	-29.2411	-46.9791	4.84971	7.73901	554.191	0.321645
0.5533	-251.675	-22.7575	13.6434	69.4347	-2.69204	-30.821	5.16319	-5.05405	792.255	0
0.5540	145.418	-29.7833	24.3093	9.61799	12.5629	-45.4553	4.24119	-10.266	671.111	0
0.5547	236.334	-31.6161	26.1313	-66.6573	11.65	-87.2879	-4.60999	-9.03411	454.103	-0.321645
0.5553	373.354	-24.5903	18.843	-99.0087	17.4519	-110.461	-15.5818	-6.88614	308.576	0
0.5560	541.541	-10.8442	5.11072	-128.326	28.4366	-110.174	-21.0769	-9.63428	218.255	0.321645
0.5567	302.543	-1.98555	-5.28849	-161.551	13.4912	-99.4783	-20.4684	-23.9751	57.975	0.321645
0.5573	-342.914	4.04747	-13.2434	-167.672	-3.91429	-95.2232	-13.7562	-36.7998	-81.4559	0
0.5580	-575.453	7.40763	-21.1539	-97.4657	11.65	-108.017	-11.9307	-39.8638	-36.295	0.321645
0.5587	-183.609	3.43653	-19.6429	45.364	41.5565	-104.366	-24.4329	-33.1356	109.3	0.321645
0.5593	100.202	-4.12384	-6.79948	168.958	53.1601	-66.2134	-37.8757	-15.7623	204.471	0.643291
0.5600	127.977	-9.92776	3.86637	233.918	63.232	-0.920031	-38.7792	5.30675	119.967	0.321645
0.5607	105.127	-12.677	7.24389	237.621	76.3519	68.6573	-32.9891	21.1638	-3.67106	0
0.5613	-160.678	-17.5645	9.68815	197.297	60.1841	95.8269	-29.9281	18.1314	70.789	0
0.5620	-463.14	-22.7575	10.8881	171.375	30.8811	72.9412	-30.5366	-0.789695	150.167	0.321645
0.5627	-374.323	-22.1465	10.8881	161.911	11.3561	40.5963	-27.1805	-14.2145	76.9536	0.321645
0.5633	-154.864	-23.9793	17.2876	131.103	5.55427	29.901	-19.5648	-20.3425	-18.286	0.321645
0.5640	-41.6632	-26.4231	23.6871	88.3621	8.29273	48.2154	-18.3293	-15.7623	-84.8499	0.321645
0.5647	169.156	-26.4231	24.9314	57.245	2.19695	105.602	-23.2159	-3.53783	-102.235	0
0.5653	404.198	-34.3653	31.3309	52.0503	-10.0101	169.084	-25.3549	-10.5503	-130.911	0
0.5660	493.58	-44.1403	39.8636	19.3903	-22.5265	172.419	-20.7818	-26.7233	-158.34	0.321645
0.5667	556.801	-45.0567	37.7305	-90.4708	-35.3369	125.124	-11.9307	-34.3675	-147.05	0.643291
0.5673	639.159	-38.6419	25.8203	-135.012	-41.7576	86.0516	-4.60999	-53.2886	-229.476	-1.92987
0.5680	636.414	-19.3973	4.79963	-75.8124	-38.6942	67.1335	-4.60999	-58.1847	-146.15	-3.21645
0.5687	80.4197	5.88029	-20.2207	-2.26306	-24.971	53.103	-7.96606	-16.3625	137.353	-0.643291
0.5693	-938.633	14.4334	-30.931	96.5913	-12.4546	51.5792	-15.5818	22.9959	242.913	0.643291
0.5700	-967.62	8.93498	-25.4203	166.798	-10.0101	54.9431	-34.2061	38.5687	423.003	0.321645
0.5707	-2.01857	4.35294	-19.6429	175.953	-10.3195	38.4688	-50.6915	49.5613	693.414	0
0.5713	331.206	0.381837	-16.5765	153.065	11.9595	9.17155	-46.4134	53.5097	604.547	0.321645
0.5720	-55.7124	-6.26212	-11.688	124.365	54.9857	-13.4267	-32.3806	53.8256	337.252	0.643291
0.5727	-102.139	-11.7606	-2.53314	106.055	72.9946	-13.1104	-18.0343	49.8771	203.293	0.321645
0.5733	319.983	-15.4262	9.9548	13.6298	69.0338	9.77532	-3.68799	27.5761	154.115	0.321645
0.5740	358.094	-23.3684	20.6651	-98.0829	77.5741	31.4248	-0.331919	-11.7822	125.439	0.321645
0.5747	54.1783	-29.7833	27.0646	-82.8073	85.805	37.5487	-9.47814	-45.0442	96.1401	0
0.5753	64.5134	-29.1723	26.4424	-10.1838	95.2735	36.6287	-17.7208	-58.7849	35.3945	0
0.5760	225.03	-26.7286	22.7983	24.2764	111.147	45.7715	-16.5038	-63.3651	-89.4214	0.321645
0.5767	339.2	-24.8958	21.5539	-22.4248	89.4717	65.0059	-3.68799	-55.7209	-232.246	0.321645
0.5773	412.434	-26.1176	25.5536	-91.3966	48.2711	71.7336	23.4741	-34.0516	-311.555	0.321645
0.5780	531.771	-25.8122	26.1313	-86.2019	22.0314	61.0383	44.219	-7.80219	-337.529	0.321645
0.5787	713.038	-13.8989	13.0212	-165.203	-17.3436	41.5164	32.0118	19.0474	-349.997	0.643291
0.5793	488.978	0.381837	-5.59957	-283.036	-47.8534	25.0421	10.3448	39.8006	-320.421	0.321645
0.5800	-337.101	8.93498	-20.8429	-194.52	-50.2979	24.7258	1.80712	48.9611	-165.682	0
0.5807	-1142.43	14.4334	-33.0641	-61.1539	-64.0366	31.4248	-15.8952	46.8131	78.7545	0
0.5813	-1229.71	12.2951	-31.8198	-23.9164	-89.9668	10.3791	-43.0573	33.9885	219.778	0.321645
0.5820	-855.549	-3.5129	-12.6213	-4.68041	-115.912	-78.1163	-54.0475	14.4672	179.466	0.321645
0.5827	-539.119	-25.2012	13.9545	-10.4924	-117.738	-174.26	-43.3523	-6.60185	78.7545	0.321645
0.5833	-122.567	-38.6419	34.7085	-29.4197	-35.6463	-225.839	-31.1451	-25.2071	24.7277	0.321645
0.5840	145.095	-45.6677	43.2411	-31.8885	59.8747	-274.945	-32.6756	-46.2761	36.0179	0
0.5847	150.262	-49.9442	44.7521	-21.1904	79.3998	-307.606	-40.6232	-68.5455	66.5639	0
0.5853	399.918	-44.1403	38.9748	-15.3785	85.511	-295.1	-40.9183	-73.4416	65.3171	0.321645
0.5860	827.128	-31.3106	25.5536	-29.7283	78.4869	-257.551	-20.4684	-54.8048	39.966	0.321645
0.5867	807.911	-17.259	8.4438	-17.2301	19.5869	-223.395	22.257	-21.8588	39.689	0.321645
0.5873	274.202	0.992776	-11.0658	-8.69219	-42.6704	-192.574	75.3457	15.9834	60.1222	0.321645
0.5880	203.714	12.6006	-22.976	-88.002	-78.3786	-155.341	126.314	39.4847	47.3081	0.321645
0.5887	488.978	9.85139	-16.5765	-122.822	-86.0061	-118.713	160.188	45.5812	11.9136	0.321645
0.5893	29.3903	-1.14551	2.66646	11.4696	-70.1323	-73.2287	157.145	45.8971	-28.3295	0.321645
0.5900	-732.901	-12.066	16.6654	173.535	-62.5049	-13.4267	132.122	34.5886	-77.5078	0.321645
0.5907	-815.582	-13.5934	12.3991	236.695	-39.9165	10.9829	107.099	16.8995	-192.557	0.321645
0.5913	-461.929	-5.65118	-5.28849	233.661	29.0555	-21.6495	76.8762	12.6351	-415.938	0.321645
0.5920	-427.694	0.687306	-21.1539	184.491	77.8835	-30.5048	51.5397	15.9834	-590.832	0.321645
0.5927	-485.99	1.29824	-27.8645	104.872	68.415	1.84006	39.0374	11.4032	-595.958	0
0.5933	-213.807	-0.534571	-26.9757	36.2089	36.0641	12.2192	28.0472	8.65506	-534.312	0
0.5940	97.4564	-0.840041	-23.5982	-4.98901	-0.850933	-3.36386	17.057	21.1638	-505.636	0
0.5947	423.092	-1.75645	-22.0872	-26.0766	-21.9076	13.743	11.5619	36.4207	-403.123	0.321645
0.5953	594.912	-7.78947	-14.1323	-109.09	-28.0189	70.8136	7.30222	30.3243	-77.1614	0.321645
0.5960	502.462	-14.8153	-1.33323	-278.767	-38.6942	105.89	-3.68799	6.53867	321.044	0.643291
0.5967	517.076	-20.0082	5.11072	-385.542	-34.7335	124.52	-9.79162	-24.8912	425.15	0
0.5973	320.225	-20.3137	5.37737	-327.577	-19.1692	169.372	-4.29651	-64.2812	212.436	-2.25152
0.5980	-197.9	-15.1207	4.48855	-195.754	-16.1213	249.328	-6.12207	-75.558	114.149	-2.25152
0.5987	-436.576	-10.8442	4.79963	-94.1226	-3.29543	360.106	-17.1123	-50.8564	228.921	0
0.5993	-259.588	-8.40041	3.55528	-24.225	21.722	437.618	-30.5366	-32.8513	279.277	0.321645
0.6000	-78.3204	-8.40041	2.66646	16.6643	29.9683	421.748	-50.378	-35.8837	265.216	0.321645
0.6007	-85.345	-13.5934	7.24389	5.65764	13.7851	310.367	-62.5852	-49.9403	281.702	0.321645
0.6013	101.736	-21.2301	15.1544	-35.8489	-10.3195	96.747	-54.3426	-56.0368	277.753	0
0.6020	425.837	-25.8122	25.2425	-42.8438	-12.764	-125.412	-30.2415	-50.5405	224.35	0
0.6027	387.726	-23.6739	29.1978	-14.7613	10.4278	-236.505	0.590079	-39.8638	164.782	0.321645
0.6033	-63.06	-9.92776	16.3988	5.34904	33.0162	-275.865	18.5875	-7.80219	118.721	0.321645
0.6040	-470.488	8.01857	1.11103	18.2073	31.1905	-297.86	20.7265	44.981	84.8499	0.321645
0.6047	-556.236	11.9897	3.55528	28.854	8.91159	-290.816	21.04	78.5589	92.192	0.321645
0.6053	-257.731	4.04747	13.9545	33.7401	-17.9469	-259.707	32.0118	83.4234	130.011	0.321645
0.6060	227.21	0.992776	15.4655	30.397	-34.1147	-232.538	64.0604	86.8033	139.5	0.321645
0.6067	190.23	3.13106	9.68815	30.0884	-16.7247	-216.063	95.7956	91.9837	106.53	0.321645
0.6073	-164.069	0.992776	8.13271	25.8194	19.5869	-145.882	84.8054	80.9911	70.789	0.321645
0.6080	-206.782	-1.45098	5.11072	5.04044	47.3583	46.404	48.8106	61.7541	54.6502	0.321645
0.6087	-168.348	1.90918	-5.91066	22.1677	65.6765	278.625	32.9338	48.3293	57.6979	0.321645
0.6093	-107.307	1.29824	-7.11057	98.4429	55.8985	431.839	36.6033	31.8721	71.7588	0.321645
0.6100	184.174	-0.840041	-1.64432	109.45	12.2689	556.964	50.6361	20.5637	77.8541	0.321645
0.6107	539.038	5.26935	-4.9774	16.9729	-33.5113	630.796	55.5227	30.3243	69.2652	0
0.6113	803.955	12.9061	-9.55483	-19.956	-69.5289	525.222	29.2642	47.4133	52.226	0
0.6120	755.751	19.0155	-15.0655	34.3573	-107.666	347.915	-11.6172	48.3293	21.4029	0
0.6127	-11.4655	22.3756	-19.954	74.0122	-131.167	235.902	-42.4488	33.9885	-27.429	0
0.6133	-1158.9	17.1827	-14.4433	74.0122	-125.072	136.711	-52.812	26.976	-58.8754	0
0.6140	-1438.75	11.3787	-6.48839	53.2847	-99.4353	51.8955	-62.5852	30.6402	-55.5507	0.321645
0.6147	-644.084	10.1569	-5.28849	22.4763	-64.9494	8.85529	-88.2168	39.8006	-47.3081	0.321645
0.6153	82.842	8.62951	-7.42166	11.7782	-37.472	-134.871	-89.7473	48.9611	-51.8796	0.321645
0.6160	569.882	3.13106	-6.22175	0.771496	-7.875	-334.46	-61.9767	23.3118	-78.1311	-1.28658
0.6167	1020.02	-3.81837	0.533293	-65.1143	26.3016	-349.727	-46.4134	-26.1231	-77.7848	-1.60823
0.6173	752.118	-6.56759	7.24389	-124.005	-34.7335	-277.102	-38.1707	-45.6444	12.8141	0.321645
0.6180	-17.2789	-0.840041	1.11103	-109.398	-205.632	-263.042	-16.2087	-36.1996	80.0013	0.321645
0.6187	-472.91	11.9897	-14.7544	-71.852	-309.384	-241.997	-1.54896	-15.4464	47.3081	0
0.6193	-618.166	18.4045	-18.3986	-48.6557	-248.349	-235.902	-19.5648	3.47466	38.1651	0
0.6200	-348.082	9.24045	-5.28849	-27.311	-98.8165	-269.166	-21.0769	12.3192	70.789	0.321645
0.6207	186.919	2.21465	-0.711057	-16.3043	-17.0341	-254.82	34.7593	28.4922	60.7456	0.321645
0.6213	373.354	4.65841	-9.24374	-19.0302	-6.96218	-146.774	90.909	41.3168	36.9184	0
0.6220	437.787	3.43653	-11.3769	-13.8355	61.097	-86.6554	114.42	37.6527	38.7885	0.321645
0.6227	485.99	-0.534571	-3.15532	1.08009	146.546	-191.338	115.932	40.0849	30.823	0.321645
0.6233	161.243	-3.20743	5.11072	23.9678	184.683	-229.174	85.4323	47.129	-1.8009	0.321645
0.6240	14.4529	-5.34571	11.8213	45.364	218.875	-27.4572	55.8178	33.6726	-43.0137	0.321645
0.6247	339.765	-11.1496	18.843	42.8952	234.734	188.29	74.4421	1.32669	-86.0274	0.321645
0.6253	284.214	-12.9824	16.9765	31.6314	195.065	209.364	100.074	-15.7623	-117.474	0.321645
0.6260	-320.306	2.52012	2.66646	22.7849	141.348	152.581	73.2251	4.07483	-133.336	0
0.6267	-730.802	16.8772	-11.0658	13.8869	81.2409	198.669	21.04	33.9885	-155.639	0.321645
0.6273	-639.24	17.7936	-13.8212	21.5505	-9.09724	306.715	-8.57458	37.6527	-204.471	-0.321645
0.6280	-336.455	11.3787	-10.177	38.6263	-76.2436	339.06	-26.572	7.45472	-281.355	-2.57316
0.6287	-229.39	-0.229102	-6.22175	47.4727	-70.4418	336.3	-56.1866	-27.0392	-366.482	-1.92987
0.6293	-288.897	-7.484	-2.22205	47.4727	-15.8119	381.468	-82.4266	-35.8837	-428.475	0.321645
0.6300	-263.221	-8.09494	-5.28849	39.8606	22.9442	404.67	-83.0351	-30.7033	-458.674	0.321645
0.6307	-174.727	-6.56759	-10.177	30.0884	39.7308	379.944	-61.6632	-21.5429	-476.96	0
0.6313	-121.033	-2.29102	-6.22175	24.2764	75.439	282.593	-33.5976	-12.3824	-433.046	0.321645
0.6320	-107.307	-5.34571	0.799939	26.128	107.171	97.0632	-6.73059	-19.7108	-267.918	0.321645
0.6327	-117.965	-13.8989	7.82163	39.8606	120.91	-17.9981	16.4484	-38.3476	-93.3695	0.321645
0.6333	-134.437	-16.9536	12.7101	39.2435	119.997	-3.96763	26.2216	-43.8123	3.04767	0.321645
0.6340	-135.082	-16.9536	10.577	21.2419	89.7811	10.3791	20.118	-30.3875	65.04	0.321645
0.6347	-94.146	-12.9824	7.82163	20.6247	44.3104	-23.8058	20.413	-16.0466	104.383	0.321645
0.6353	-28.5829	-11.7606	5.11072	30.397	-13.6768	-63.4821	38.1154	-16.9626	138.253	0.321645
0.6360	7.7513	-13.5934	5.11072	45.0554	-46.3217	-107.73	46.063	-22.4589	175.172	0.321645
0.6367	7.7513	-13.5934	9.9548	74.0122	-49.0756	-128.172	33.2472	-17.2785	184.938	0
0.6373	40.3713	-16.3426	12.7101	91.1394	-65.5528	-103.762	23.4741	-8.43394	123.638	0
0.6380	100.848	-16.9536	12.088	86.2533	-58.8381	-51.5792	16.4484	1.32669	11.0132	0.321645
0.6387	63.3022	-13.8989	11.5102	76.7896	-35.9558	41.2001	-2.15748	12.035	-58.252	0.321645
0.6393	-117.642	-10.8442	10.8881	67.3259	-27.7095	127.568	-24.4329	20.2478	-70.789	0.321645
0.6400	-292.531	-9.31682	8.75489	54.5191	-23.4393	195.938	-47.0219	22.7116	-99.7419	0.321645
0.6407	-246.184	-9.62229	7.82163	40.7864	-35.6463	288.085	-74.184	18.1314	-130.288	0.321645
0.6413	-41.098	-11.1496	9.68815	29.1626	-37.7814	306.083	-89.4338	15.6675	-101.266	0
0.6420	91.9659	-13.8989	10.8881	17.8987	-16.4153	184.035	-74.7925	19.0474	-14.9613	0
0.6427	117.642	-13.8989	9.68815	6.27484	-14.5896	60.4345	-49.1609	22.0799	111.725	0.321645
0.6433	83.1649	-12.3715	4.17746	-6.2234	-20.3914	12.8229	-38.7792	19.6476	157.786	0.321645
0.6440	17.8441	-12.066	-2.53314	-10.801	-22.2171	-7.619	-31.1451	15.9834	106.807	0.321645
0.6447	-47.4767	-13.2879	-2.84423	6.89203	-38.6942	-51.5792	-12.5392	13.5512	80.9018	0.321645
0.6453	-94.146	-18.4809	4.48855	30.0884	-39.9165	-101.606	10.0498	5.90692	47.6545	0.321645
0.6460	-77.1092	-23.0629	13.3323	39.8606	-24.971	-103.158	30.1862	-1.70574	-44.2605	0.321645
0.6467	-19.3782	-24.2848	19.4207	48.3985	-20.3914	-104.366	50.3227	-4.76976	-210.22	0.321645
0.6473	-2.34154	-23.3684	20.0429	57.245	-19.1692	-138.551	68.025	-2.93767	-443.713	0.321645
0.6480	44.0855	-18.4809	13.9545	59.0966	10.1338	-135.187	54.6007	8.97093	-652.478	0
0.6487	136.859	-10.8442	1.7332	60.5882	88.2495	-86.3679	10.9533	22.7116	-720.497	0.321645
0.6493	102.059	-3.81837	-8.35492	56.0106	159.047	-43.3277	-34.8146	29.1239	-610.642	0.321645
0.6500	-33.4275	-1.45098	-9.24374	38.3177	154.174	-3.0476	-70.8279	27.892	-426.951	0
0.6507	-52.402	-5.04025	-2.84423	9.30939	100.766	32.3448	-79.3656	20.2478	-275.537	0.321645
0.6513	-25.5147	-11.1496	4.79963	-24.225	39.1274	18.3144	-72.9669	11.7191	-8.24256	0.643291
0.6520	-102.139	-18.1754	8.75489	-45.6212	-11.2323	-46.9791	-81.5046	5.62263	455.626	0
0.6527	-47.1537	-21.5356	10.577	-44.0782	34.8418	-135.791	-87.6083	3.15878	764.757	0
0.6533	188.453	-18.1754	11.5102	-29.7283	156.618	-220.031	-85.7827	7.13884	725.761	0.321645
0.6540	247.638	-13.2879	8.4438	-17.8473	188.041	-248.092	-86.9997	13.867	595.404	0.321645
0.6547	121.921	-8.09494	6.31063	-1.33726	123.958	-234.062	-66.8633	23.6277	509.376	0.321645
0.6553	96.2453	-6.56759	8.13271	20.9333	65.9705	-296.02	-19.5648	25.4598	368.976	0
0.6560	102.947	-11.7606	6.93281	23.9678	12.8723	-436.094	24.3961	10.803	226.151	0.321645
0.6567	8.63947	-12.3715	5.68846	-0.102866	-53.0363	-508.432	51.8532	-2.62179	198.376	0.643291
0.6573	-50.5449	-12.066	5.37737	-35.2317	-104.309	-454.093	68.6335	-11.4664	236.818	-0.964936
0.6580	-24.6265	-13.8989	5.99954	-48.0385	-130.564	-335.696	82.0578	-20.3425	248.454	-3.21645
0.6587	1.93782	-11.4551	9.68815	-28.1853	-106.15	-214.827	99.1517	-14.2145	225.527	-1.28658
0.6593	8.07427	-12.3715	9.68815	-5.91481	-18.2564	-26.2496	97.3261	-6.28597	188.955	0.321645
0.6600	9.93135	-14.8153	7.82163	4.47468	53.7635	221.871	62.5299	-8.11806	162.358	0
0.6607	11.3847	-12.9824	8.75489	9.92659	76.6613	263.675	14.3094	-8.11806	151.968	0
0.6613	8.39724	-14.2043	7.24389	13.3212	92.5196	78.7489	-26.572	-8.43394	122.669	0.321645
0.6620	6.86313	-15.4262	6.31063	12.3954	88.5589	-16.4743	-41.8403	-8.43394	87.2742	0.321645
0.6627	12.6766	-13.8989	8.75489	3.54888	32.1034	3.96763	-35.4232	-5.05405	74.4601	0.321645
0.6633	14.4529	-14.5098	8.4438	-2.57165	-52.7424	-41.2001	-38.1707	-4.76976	59.4988	0.321645
0.6640	14.7759	-14.8153	7.51054	5.65764	-107.666	-107.126	-52.812	-5.6858	30.823	0.321645
0.6647	19.0553	-14.2043	7.51054	18.2073	-123.849	-77.1963	-47.9439	-5.05405	7.9655	0.643291
0.6653	19.0553	-15.1207	6.62172	18.7731	-124.453	-14.9505	-24.1379	-5.6858	-3.32473	0.321645
0.6660	17.1982	-15.1207	6.62172	14.5041	-116.206	6.41146	-7.35754	-6.60185	-10.0435	0
0.6667	17.8441	-13.2879	8.13271	11.161	-98.8165	6.72772	11.5619	-5.6858	-14.615	0
0.6673	19.0553	-11.7606	8.75489	-0.720063	-54.8774	23.202	53.6787	-4.76976	-11.5673	0
0.6680	18.4093	-12.9824	6.62172	-14.1441	7.07048	104.682	97.6396	-6.28597	-10.0435	0.321645
0.6687	17.1982	-13.2879	4.79963	-13.2697	43.3976	234.062	113.203	-8.43394	-21.3337	0.321645
0.6693	14.4529	-12.3715	4.48855	-7.4578	61.097	316.174	87.2579	-8.43394	-36.0179	0.643291
0.6700	10.1736	-12.3715	2.93311	-4.11465	91.3128	277.705	19.5095	-7.20202	-48.4856	0.321645
0.6707	12.0307	-10.8442	3.55528	2.93169	97.4086	179.751	-53.439	-5.6858	-52.1567	0.321645
0.6713	17.5212	-9.62229	4.79963	10.5438	62.6132	89.128	-108.98	-4.45388	-42.7366	0.321645
0.6720	18.7323	-10.8442	2.35538	14.1955	32.1034	4.88766	-134.907	-5.36993	-38.0959	0
0.6727	20.9123	-11.1496	2.04429	13.6298	16.539	-33.5524	-114.475	-6.28597	-47.3081	0
0.6733	23.0117	-10.5387	3.2442	9.92659	11.0467	-25.3296	-77.2266	-6.88614	-53.6805	0.321645
0.6740	19.6205	-10.5387	2.04429	8.12643	11.3561	-1.20754	-39.7012	-6.88614	-60.6763	0.321645
0.6747	15.4218	-8.70588	1.7332	5.04044	-10.9229	25.6459	7.91074	-5.05405	-104.937	0.321645
0.6753	12.3536	-8.40041	1.7332	0.771496	-52.4329	16.4743	37.8204	-3.85371	-153.145	0.321645
0.6760	8.96244	-8.70588	1.11103	-0.720063	-72.5768	13.1392	47.5751	-3.85371	-137.007	0
0.6767	8.63947	-7.78947	1.42211	1.69729	-69.8229	101.031	49.4191	-3.25354	-97.6639	0
0.6773	7.42833	-6.87306	1.7332	10.2352	-75.3153	209.968	38.1154	-2.02162	-88.1746	0.321645
0.6780	5.65199	-5.65118	0.533293	17.8987	-84.165	273.134	28.6557	-0.505405	-89.6984	0.321645
0.6787	6.54016	-4.73478	-1.33323	13.0126	-77.4503	294.812	32.6203	0.126351	-84.5035	0.321645
0.6793	6.54016	-5.04025	-2.53314	1.69729	-52.7424	236.822	45.141	-0.505405	-77.1614	0.321645
0.6800	5.32902	-5.65118	-1.33323	-1.33726	-28.3283	108.334	52.4617	-2.3375	-77.1614	0.321645
0.6807	4.68307	-6.26212	-0.0888821	2.93169	-24.0582	-2.73134	44.5325	-4.76976	-84.8499	0.321645
0.6813	5.89421	-6.26212	0.799939	3.85748	-1.16036	-50.6592	30.4997	-4.76976	-86.0274	0.321645
0.6820	7.42833	-6.26212	2.35538	-1.33726	53.1601	-47.2953	12.1888	-4.138	-75.6376	0
0.6827	6.21719	-6.56759	0.799939	-4.42325	98.9403	4.88766	-10.1051	-5.97009	-67.7414	0
0.6833	5.65199	-4.12384	0.222205	1.69729	131.585	40.9126	-13.1477	-7.5179	-65.5941	0
0.6840	5.65199	-3.5129	0.799939	9.05222	144.411	4.5714	2.41563	-7.5179	-62.2694	0
0.6847	3.47193	-5.95665	-1.02214	9.61799	125.18	-73.8612	20.413	-8.71823	-60.1222	0.321645
0.6853	4.3601	-6.87306	-1.64432	8.43503	90.694	-128.488	28.9692	-7.5179	-60.6763	0.321645
0.6860	6.54016	-11.1496	-1.64432	10.8524	65.6765	-84.2115	21.335	-0.505405	-61.646	0.321645
0.6867	5.00605	-16.9536	-5.28849	14.8127	41.2625	31.7411	5.77171	1.64257	-63.4469	0.321645
0.6873	6.21719	-15.7317	-6.79948	16.6643	6.77652	131.219	-13.7562	-14.2145	-61.9231	-2.57316
0.6880	7.10535	-16.6481	-9.24374	12.0868	-24.6616	181.275	-31.1451	-26.439	-56.4511	-2.57316
0.6887	6.21719	-16.9536	-7.42166	6.58344	-41.1387	177.02	-40.9183	-26.1231	-53.0571	0
0.6893	8.63947	0.0763673	12.3991	8.74363	-35.6463	131.852	-48.8475	-38.0317	-53.0571	-2.25152
0.6900	5.32902	12.6006	21.865	11.4696	-30.7573	78.1163	-54.9511	-29.4714	-54.581	-2.89481
0.6907	-2.01857	4.96388	7.24389	11.4696	-30.7573	38.1525	-54.9511	8.97093	-54.0269	0
0.6913	-0.484456	1.90918	-0.0888821	11.7782	-15.2085	8.53903	-46.4134	14.4672	-46.0614	0.321645
0.6920	0.403713	2.21465	0.799939	8.12643	-2.07318	-19.8382	-41.2318	-6.28597	-42.1132	0
0.6927	1.04965	-0.229102	3.55528	5.34904	0.974705	-28.981	-45.1963	-14.5304	-43.9141	0.321645
0.6933	6.86313	4.04747	9.68815	7.20063	-3.00147	-26.2496	-38.7792	-17.8787	-41.7669	0.643291
0.6940	5.00605	5.88029	5.37737	5.65764	-17.6375	-37.2325	-31.1451	-21.2586	-41.2128	0.321645
0.6947	-0.161485	0.992776	-4.35522	5.34904	-25.5744	-42.1201	-38.7792	-14.8463	-42.3903	0
0.6953	2.58377	0.381837	-3.4664	8.12643	-23.1299	-36.6287	-40.9183	-5.97009	-38.4422	0.321645
0.6960	4.3601	3.742	2.35538	7.50923	-20.9948	-48.8191	-32.0671	-6.28597	-37.8188	0.321645
0.6967	3.79491	8.32404	1.11103	8.43503	-14.2802	-73.5449	-22.6074	-8.71823	-52.7801	0.321645
0.6973	6.21719	15.3498	-3.77749	13.8869	-4.20825	-88.1792	-12.5392	-9.95016	-93.0924	0.321645
0.6980	9.28541	9.54592	-1.02214	15.7385	-2.38261	-77.8288	-6.43555	-12.3824	-142.825	0.321645
0.6987	9.93135	-12.677	0.533293	14.5041	-7.56557	-39.0438	-7.04407	-17.8787	-164.782	0
0.6993	9.28541	-20.9247	-15.9543	13.0126	-10.9229	-3.65137	-11.0087	-21.2586	-167.206	0
0.7000	10.4965	-8.70588	-14.7544	11.4696	-12.764	-2.44383	-13.1477	-13.0142	-163.535	0.321645
0.7007	12.3536	-5.04025	16.9765	5.65764	-14.2802	-14.6342	-14.6782	-3.85371	-127.24	0.321645
0.7013	8.07427	-12.3715	26.7535	-4.11465	-14.5896	-19.8382	-15.2867	3.15878	-3.94812	0.321645
0.7020	0.726684	-9.31682	0.799939	-9.25796	-12.764	-31.4248	-14.3647	16.5836	165.752	0
0.7027	-1.37263	4.35294	-16.2654	-6.8406	-10.6289	-42.7239	-14.0697	17.4996	208.488	0
0.7033	1.37263	6.18576	-8.04383	2.00589	-8.78781	-39.9638	-10.7136	2.55861	124.816	0.321645
0.7040	5.00605	-7.17853	3.86637	12.0868	-6.96218	-38.7563	-5.21851	-8.71823	59.4988	0.321645
0.7047	4.11788	-18.1754	1.11103	14.8127	-8.18443	-36.9162	-2.47095	-16.6784	31.4464	0.643291
0.7053	1.93782	-20.9247	-3.15532	10.2352	-9.70063	-32.0286	1.49364	-33.7674	14.9613	0.321645
0.7060	5.32902	-19.7028	4.48855	5.34904	-10.3195	-43.9315	3.33763	-56.9528	9.14301	0
0.7067	8.07427	-14.5098	7.51054	3.24028	-10.6289	-63.1658	-0.01844	-81.3702	7.06505	0.321645
0.7073	6.86313	-9.31682	-5.59957	3.54888	-9.70063	-66.2134	0.276599	-83.2023	6.44166	0.321645
0.7080	8.07427	-8.40041	-25.1092	4.47468	-7.875	-56.4669	0.885118	-28.8712	8.58889	0.321645
0.7087	9.60838	-5.04025	-33.953	1.69729	-6.34332	-50.0554	3.02415	29.4082	8.58889	0.321645
0.7093	10.1736	1.90918	-29.6866	-0.411465	-5.13654	-45.7715	8.20578	19.9635	7.9655	0.321645
0.7100	13.5648	5.26935	-52.8849	4.16608	-7.27161	-41.8039	6.98875	-9.95016	7.34211	0.321645
0.7107	15.0989	-11.1496	-76.3942	8.43503	-11.8512	-46.6916	0.885118	1.32669	4.91783	0.321645
0.7113	13.8877	-34.9762	-23.9093	9.92659	-13.6768	-55.2306	-5.82703	19.6476	3.39399	0.321645
0.7120	12.3536	-44.7513	36.5306	9.92659	-13.3674	-65.9259	-7.65258	14.4672	0.969713	0
0.7127	11.7077	-45.9731	27.9979	5.34904	-10.3195	-93.9869	12.1888	12.6351	0.623387	0.321645
0.7133	15.4218	-33.7544	7.24389	1.69729	-5.4305	-126.648	43.002	11.4032	4.5715	0.321645
0.7140	19.9434	-6.26212	7.24389	1.08009	1.28413	-133.979	55.5227	-6.88614	4.01738	0
0.7147	22.3657	30.6233	19.4207	2.00589	10.7372	-109.541	50.3227	-5.36993	0	0
0.7153	23.8998	59.032	31.9531	5.65764	12.5629	-65.9259	39.6459	16.8995	-2.70134	0.321645
0.7160	15.987	81.8658	-3.15532	9.61799	6.77652	-22.5695	25.6131	4.70658	-8.24256	0.643291
0.7167	3.14896	75.2218	-44.6633	10.8524	5.24484	2.12757	11.5619	17.2153	-11.5673	0.321645
0.7173	-0.161485	26.6522	2.93311	10.2352	6.46709	3.36386	-0.01844	120.35	-13.7145	0.321645
0.7180	-0.484456	4.96388	70.7057	11.4696	4.33202	-6.69897	-8.86962	164.004	-18.286	0.321645
0.7187	-1.37263	-15.7317	71.3279	16.0471	4.64145	-19.5219	-9.1831	97.4799	-19.8098	0
0.7193	1.61485	-40.4747	45.9965	17.2815	8.60216	-32.0286	-4.60999	61.7541	-19.8098	0
0.7200	5.89421	-13.2879	23.4204	15.1213	5.24484	-37.8363	-2.76599	-1.42145	-20.4332	0
0.7207	0.403713	16.8772	2.04429	15.7385	-1.16036	-43.3277	-0.645399	-89.8989	-17.0392	0.321645
0.7213	-12.3536	6.49122	-19.954	13.8869	-3.60486	-51.8667	-3.68799	-60.3011	-16.1388	0.321645
0.7220	-15.4218	-9.92776	-29.6866	9.92659	-1.77922	-46.0878	-9.1831	-34.3675	-17.0392	0
0.7227	-7.83204	-22.452	-14.4433	10.5438	3.71316	-27.4572	-7.04407	-87.4666	-13.4374	0
0.7233	-1.1304	-34.9762	-9.24374	9.61799	6.77652	-24.7258	-5.82703	-81.0543	-12.8141	0
0.7240	3.47193	-23.0629	-4.35522	6.58344	5.8637	-33.8686	-4.60999	9.5711	-14.615	0
0.7247	11.3847	-10.2332	27.9979	7.50923	5.8637	-34.1849	4.55467	55.3418	-11.9136	0.643291
0.7253	15.4218	-5.65118	23.1094	4.16608	3.71316	-34.1849	7.30222	-19.7108	-13.0911	-0.964936
0.7260	12.3536	18.4045	-14.4433	1.08009	4.64145	-34.1849	5.16319	-106.704	-13.9916	-3.21645
0.7267	4.68307	28.7905	-23.5982	5.04044	7.99877	-29.5847	9.12778	-103.64	-7.89623	-1.28658
0.7273	-5.32902	10.7678	-30.6199	5.04044	4.93541	-30.2173	7.91074	-57.2687	-7.27285	0.321645
0.7280	-5.08679	-7.484	-39.1526	2.31449	0.974705	-31.1373	3.33763	-30.1032	-8.79668	0
0.7287	-0.807427	-18.1754	-22.976	3.24028	-0.850933	-28.6935	2.72911	-30.1032	-6.71872	0.321645
0.7293	-3.22971	-17.87	-8.62157	2.62309	-4.51768	-32.9486	1.49364	-42.6119	-6.3724	0.321645
0.7300	-1.37263	-10.5387	-11.688	3.24028	-6.04936	-37.2325	2.72911	-41.0641	-5.74901	0
0.7307	8.39724	-7.17853	-17.8209	4.16608	-6.04936	-37.2325	3.02415	-62.1332	-3.94812	0
0.7313	10.8195	-6.26212	-12.3102	1.69729	-7.56557	-41.2001	-2.15748	-103.955	-5.19489	0
0.7320	5.65199	7.7131	12.3991	1.38869	-8.18443	-43.9315	-4.90503	-95.1109	-5.19489	0.321645
0.7327	5.65199	22.3756	17.9097	1.69729	-9.40667	-42.4077	-6.43555	-35.2836	-3.32473	0.321645
0.7333	8.96244	18.0991	-4.04414	-0.720063	-10.3195	-44.8515	-7.96606	26.976	-1.17751	0
0.7340	9.93135	10.4623	-11.0658	-1.64586	-10.9229	-54.9143	-5.21851	19.3317	1.24677	0
0.7347	3.79491	3.43653	-6.79948	-2.57165	-16.4153	-62.5621	-4.29651	-20.9427	0.969713	0.321645
0.7353	-8.39724	-2.29102	-7.42166	-4.42325	-19.7726	-67.1335	-5.21851	-21.5429	-0.277061	0.321645
0.7360	-16.956	-0.840041	-3.77749	-5.91481	-12.764	-78.4326	-1.54896	-20.9427	0.969713	0.321645
0.7367	-14.5337	1.60371	-0.39997	-7.4578	-5.4305	-79.3526	3.33763	-28.2711	4.01738	0.321645
0.7373	-5.08679	2.82559	5.11072	-7.7664	-1.16036	-71.1011	9.7363	-20.3425	7.9655	0.321645
0.7380	1.61485	-3.81837	17.9097	-9.56656	1.28413	-76.9088	14.3094	-15.7623	9.14301	0
0.7387	4.11788	-22.7575	28.5756	-10.1838	-0.247544	-80.2439	12.4839	-20.6268	6.71872	0
0.7393	7.10535	-37.7255	22.7983	-8.69219	-6.96218	-66.2134	12.1888	-20.3425	4.5715	0
0.7400	12.0307	-29.4778	-3.77749	-7.7664	-11.5417	-47.6116	19.8045	-17.8787	3.39399	0.321645
0.7407	22.3657	1.60371	-37.9527	-4.98901	-6.96218	-32.6611	30.1862	-25.5229	1.87016	0.321645
0.7413	40.1291	46.5077	-95.9038	-0.102866	-6.04936	-10.0628	29.8727	-52.9727	-3.94812	0
0.7420	59.3459	124.632	-138.345	2.62309	-10.9229	34.1849	15.2314	-74.642	-12.8141	0
0.7427	72.1839	196.035	-77.9052	5.96624	-11.8512	78.4326	1.80712	-45.0442	-16.1388	0
0.7433	63.8674	137.767	38.9748	7.81783	-10.9229	95.5107	-6.12207	-52.0567	-15.2383	0
0.7440	33.6697	-34.9762	122.257	5.96624	-11.8512	93.6994	-14.0697	-114.948	-14.615	0.321645
0.7447	0.403713	-150.673	117.102	5.04044	-8.18443	91.8593	-17.4258	-86.2347	-12.4677	0.643291
0.7453	-33.4275	-107.907	22.4872	4.16608	-0.556974	86.0516	-15.2867	-61.2172	-11.9136	0
0.7460	-58.7807	4.04747	-47.1075	1.38869	1.88752	63.4821	-13.1477	-23.6908	-15.2383	0.321645
0.7467	-58.1347	38.26	-53.1959	-0.102866	0.355845	39.0725	-10.7136	105.724	-15.5154	0.321645
0.7473	-45.3774	9.24045	-40.3969	-1.95446	-8.49386	27.7734	-11.0087	94.1001	-13.0911	-2.57316
0.7480	-31.3282	1.90918	-13.8212	-2.57165	-17.0341	23.8058	-10.1051	19.6476	-10.3898	-2.89481
0.7487	-9.04318	12.2951	5.68846	-0.720063	-16.1213	20.1544	-6.73059	9.5711	-6.99579	0
0.7493	8.96244	8.62951	2.35538	-0.102866	-12.764	14.9505	-7.04407	-43.8123	-6.71872	0.643291
0.7500	11.3847	-6.26212	-6.48839	-1.02866	-10.6289	11.6154	-10.1051	-49.3086	-7.27285	0
0.7507	10.8195	-8.70588	-9.86592	-1.64586	-8.78781	10.0628	-11.3221	30.6402	-5.47195	0
0.7513	14.13	2.82559	-4.04414	-2.57165	-7.56557	7.64775	-10.4001	64.218	-4.22518	0
0.7520	13.5648	10.1569	6.93281	-2.26306	-6.34332	6.0952	-8.86962	43.4648	-2.70134	0
0.7527	6.86313	12.2951	12.088	-1.33726	-4.82711	4.88766	-7.65258	38.8846	-0.900448	0
0.7533	0.403713	10.7678	8.13271	-2.26306	-4.51768	2.76009	-7.65258	44.981	-1.52383	0
0.7540	-0.161485	5.88029	1.11103	-2.88025	-5.13654	1.84006	-7.35754	26.976	-2.14722	0
0.7547	4.68307	2.52012	6.93281	-2.88025	-5.4305	0.920031	-7.35754	0.726519	-0.623387	0.321645
0.7553	12.6766	1.90918	23.1094	-2.57165	-4.51768	0.31626	-7.04407	-3.25354	0.346326	0.321645
0.7560	20.2664	3.742	9.68815	-0.720063	-3.60486	0.31626	-4.90503	3.79054	0.346326	0
0.7567	23.0117	8.01857	-27.5535	-1.02866	-3.91429	-0.28751	-4.00147	2.87449	-0.623387	0.321645
0.7573	16.8752	11.3787	-25.7314	-3.18885	-3.91429	-0.920031	-5.51355	0.126351	-1.17751	0.321645
0.7580	5.00605	9.54592	-4.04414	-3.18885	-4.20825	-1.84006	-6.73059	8.05489	-1.17751	0.321645
0.7587	1.93782	27.5686	-13.8212	-2.57165	-3.91429	-2.73134	-7.35754	13.5512	-1.52383	0
0.7593	8.96244	59.3374	-27.8645	-1.95446	-2.38261	-0.60377	-4.60999	11.1189	0.623387	0
0.7600	9.28541	47.7296	-33.6863	-2.57165	-2.07318	-0.28751	-2.47095	1.64257	1.52383	0.321645
0.7607	0.403713	10.7678	-42.8412	-4.68041	-3.29543	-1.84006	-3.68799	-12.6983	-1.8009	0.321645
0.7613	2.26079	17.1827	-40.3969	-5.29761	-3.29543	-2.73134	-3.68799	-20.9427	-3.04767	0.321645
0.7620	11.3847	52.0062	-41.2857	-5.91481	-3.60486	-3.65137	-3.37451	-16.0466	-2.70134	0.321645
0.7627	9.60838	28.1796	-40.708	-4.98901	-3.29543	-2.73134	-2.76599	23.3118	-2.14722	0.321645
0.7633	4.68307	-32.227	9.06598	-2.26306	-1.16036	0	-0.940438	54.4258	-0.277061	0
0.7640	-6.29793	-9.92776	67.0616	-3.18885	-0.247544	-0.28751	-1.54896	33.3883	-1.52383	0
0.7647	-22.1235	58.1156	66.7505	-4.68041	-0.850933	-1.5238	-3.37451	0.726519	-2.70134	0.321645
0.7653	-10.9003	41.9257	49.6407	-4.68041	-0.850933	-1.5238	-3.68799	-19.1106	-2.70134	0.321645
0.7660	18.4093	-12.677	42.619	-1.64586	0.061886	-0.60377	-2.47095	-11.7822	-2.14722	0
0.7667	35.2038	-11.7606	24.3093	4.16608	1.57809	1.23629	-0.331919	29.7241	0	0
0.7673	38.272	-8.09494	4.17746	4.47468	0.974705	0.920031	-0.01844	80.6752	0.346326	0
0.7680	29.7133	-39.5583	-13.5101	1.08009	-0.850933	-0.28751	-1.25392	119.149	-0.900448	0
0.7687	21.1546	-72.8545	-25.4203	0.462898	-1.46979	-0.920031	-1.86244	80.6752	-1.17751	0.321645
0.7693	23.0117	-85.6078	-35.5084	4.73184	-1.16036	-1.20754	-2.15748	-6.88614	-1.8009	0.321645
0.7700	12.6766	-67.356	-52.2627	9.05222	-0.247544	0	-0.940438	-12.3824	-1.17751	0.321645
0.7707	-12.3536	-31.9216	-45.8632	8.12643	0.665275	1.5238	0.590079	-4.76976	1.87016	0.321645
0.7713	-21.2353	-8.70588	-16.8876	3.85748	0.355845	0.60377	-0.940438	-32.5354	1.87016	0.321645
0.7720	-4.76382	22.9866	-0.0888821	-1.33726	-0.850933	-0.60377	-3.37451	-2.3375	-1.17751	0
0.7727	4.68307	79.422	26.7535	-11.7267	-1.16036	-0.60377	-2.76599	45.8971	-0.900448	0.321645
0.7733	-0.161485	97.7502	51.7738	-19.6474	0.061886	0.920031	-0.645399	33.0724	0.969713	0.321645
0.7740	8.39724	59.032	19.7318	-15.3785	2.19695	3.68012	2.10216	-7.80219	2.49355	0.643291
0.7747	30.6822	12.2951	-17.5098	-7.7664	1.28413	3.68012	2.41563	-33.7674	1.52383	0.643291
0.7753	43.7625	-1.14551	-8.93265	-3.49745	-0.556974	1.23629	-0.01844	-13.0142	-2.14722	0.321645
0.7760	44.0855	1.60371	13.0212	-0.102866	-0.850933	0.60377	-1.25392	25.1439	-4.22518	0
0.7767	33.6697	4.96388	33.7752	1.38869	0.061886	1.5238	-1.86244	-20.6268	-3.94812	0
0.7773	12.6766	9.24045	46.3076	4.73184	1.88752	3.96763	0.276599	-64.8813	-1.17751	0.643291
0.7780	0.726684	-10.8442	34.9751	9.05222	3.10977	4.5714	2.10216	-19.7108	-0.277061	-0.643291
0.7787	8.63947	-3.20743	16.0877	10.8524	3.10977	3.0476	-0.331919	-10.8662	-3.04767	-2.57316
0.7793	20.2664	55.9773	2.35538	18.4645	3.71316	3.36386	-1.25392	-74.642	-3.32473	-1.60823
0.7800	10.4965	58.421	-28.1756	27.6196	2.80034	3.36386	-1.25392	-100.576	-3.32473	-1.60823
0.7807	-23.0924	-30.0887	-51.0628	31.0142	3.4192	3.36386	-1.25392	-28.2711	-4.22518	-2.25152
0.7813	-35.8497	-91.1062	-40.708	35.2831	5.24484	6.41146	2.10216	62.9861	-1.17751	-0.321645
0.7820	-10.2543	-91.7172	-49.2407	34.3573	4.02259	6.0952	1.80712	38.2528	0.346326	0.321645
0.7827	15.987	-112.184	-75.4609	18.7731	2.50638	4.28389	-0.645399	-68.2296	-0.900448	0
0.7833	17.5212	-148.535	-60.5287	1.08009	1.57809	3.96763	-0.645399	-122.245	0	0.321645
0.7840	1.04965	-132.345	-45.2854	-9.00079	0.974705	3.96763	-0.645399	-121.645	0.623387	0.321645
0.7847	-17.2789	-6.26212	-70.5724	-27.0024	1.28413	4.5714	-0.01844	-83.2023	1.87016	0.321645
0.7853	-23.6576	106.303	-44.0411	-29.7283	1.28413	4.88766	1.49364	-13.2985	3.39399	0
0.7860	-13.6455	70.6398	37.7305	0.771496	-0.247544	3.68012	0.276599	23.6277	1.24677	0
0.7867	1.04965	18.0991	50.885	25.2022	-0.850933	3.68012	-0.01844	64.218	-0.277061	0.321645
0.7873	10.1736	-27.9504	7.51054	25.8194	-0.556974	3.96763	0.590079	69.0825	0	0.321645
0.7880	19.0553	-72.8545	-11.0658	18.2073	-0.556974	4.28389	-0.331919	-5.97009	1.52383	0.321645
0.7887	29.7133	-67.6615	-3.4664	2.31449	0.665275	5.20392	0.276599	25.1439	4.91783	0.321645
0.7893	34.6386	-92.9391	27.3757	-17.2301	0.974705	4.28389	0.885118	92.268	6.09534	0.321645
0.7900	22.1235	-57.8865	68.2615	-34.9231	-0.247544	3.36386	0.590079	34.5886	6.09534	0.321645
0.7907	-1.6956	148.153	74.661	-47.1127	-1.16036	3.96763	0.590079	-10.266	6.44166	0.321645
0.7913	-13.8877	243.306	43.8633	-32.4543	-1.77922	3.0476	-0.331919	-5.6858	4.91783	0
0.7920	-9.04318	104.471	8.75489	-11.1095	-0.247544	3.36386	-1.25392	-19.1106	5.19489	0
0.7927	2.26079	20.2373	-13.2434	-32.4543	2.19695	5.80769	-0.01844	-18.5105	7.34211	0
0.7933	13.5648	11.9897	-19.0208	-68.2003	1.28413	5.49143	0.276599	-8.43394	7.34211	0
0.7940	26.0799	-35.2817	-12.9323	-58.428	-0.556974	4.88766	-0.645399	-17.8787	5.81828	0.321645
0.7947	30.9244	-68.8833	-8.35492	-33.0715	-1.16036	4.88766	-0.940438	-26.1231	5.19489	0
0.7953	23.3346	-108.823	-4.04414	-34.3059	-0.850933	5.49143	-0.331919	-25.8072	4.91783	0
0.7960	12.6766	-108.823	11.8213	-33.6887	1.28413	8.53903	2.10216	-27.6393	4.29444	0.321645
0.7967	4.11788	-29.1723	19.7318	-18.7216	2.50638	9.45906	2.72911	-25.5229	2.14722	0.321645
0.7973	-4.44085	-53.6099	10.577	-11.1095	0.061886	6.72772	0.276599	4.70658	0	0
0.7980	-2.34154	-131.734	9.9548	-12.0353	-2.69204	4.5714	-0.940438	53.5097	0.346326	0
0.7987	11.3847	-26.4231	14.8433	-11.7267	-3.29543	4.5714	-1.25392	71.2305	1.24677	0
0.7993	17.8441	132.574	8.4438	-9.00079	-1.77922	6.0952	-0.01844	63.3019	2.77061	0.321645
0.8000	15.6641	158.462	8.4438	-7.4578	-0.556974	7.01523	1.1986	70.3144	4.01738	0.321645
0.8007	17.8441	156.935	36.8416	-9.00079	-1.16036	5.49143	0.276599	91.6678	2.49355	0
0.8013	19.6205	140.21	54.5292	-9.25796	-1.77922	4.88766	-0.940438	51.3933	1.24677	0
0.8020	17.5212	59.032	36.2195	-9.25796	-1.77922	4.28389	-2.76599	-44.1282	0.969713	0
0.8027	10.1736	21.4592	17.5987	-8.075	-0.247544	4.5714	-3.37451	-11.7822	1.24677	0
0.8033	-14.8567	45.2858	-3.4664	-4.98901	1.88752	6.41146	-0.940438	117.917	3.67106	0.321645
0.8040	-36.4957	51.7007	-24.2204	-4.11465	1.28413	5.80769	-0.940438	139.902	4.01738	0.321645
0.8047	-26.0799	22.0702	-15.9543	-5.29761	-0.247544	4.88766	-2.15748	68.4823	1.24677	0.321645
0.8053	-8.39724	-8.09494	-12.3102	-4.98901	-0.850933	4.5714	-1.86244	34.3043	0	0
0.8060	1.37263	-42.613	-34.8862	-3.49745	-0.850933	4.5714	-0.940438	18.1314	0.623387	0.321645
0.8067	11.1425	-75.2982	-44.3522	-1.64586	0.355845	5.20392	0.590079	-61.533	2.14722	0.321645
0.8073	19.0553	-27.9504	-34.5751	-1.95446	1.28413	3.96763	0.590079	-120.128	1.87016	-2.25152
0.8080	28.5022	13.8225	-31.5532	-3.49745	-0.556974	0.920031	-2.15748	-98.4592	0.346326	-2.57316
0.8087	33.6697	-42.002	-38.2638	-2.88025	-3.60486	0.31626	-2.76599	-119.212	0.346326	-0.321645
0.8093	26.4029	-49.3333	-46.1743	-1.02866	-4.82711	1.23629	-1.86244	-179.324	2.14722	0.321645
0.8100	18.4093	43.1476	-29.9977	-0.102866	-3.29543	2.44383	-0.940438	-179.924	2.77061	0.321645
0.8107	21.4775	125.242	9.37706	2.00589	-0.850933	4.5714	0.590079	-113.116	4.01738	0.321645
0.8113	24.5458	109.664	21.5539	2.00589	-0.247544	4.28389	0.590079	-16.6784	2.77061	0.321645
0.8120	16.633	-3.20743	-0.0888821	0.154299	-2.07318	2.44383	-2.47095	68.1665	-0.623387	0.321645
0.8127	6.54016	-64.9122	5.11072	0.154299	-1.77922	2.76009	-3.07947	91.9837	-1.17751	0.321645
0.8133	-3.22971	-22.7575	23.9982	1.69729	0.974705	4.28389	-1.54896	48.045	0	0.321645
0.8140	-12.3536	-16.6481	1.7332	2.93169	3.10977	4.88766	-0.331919	42.2329	2.14722	0.321645
0.8147	-16.956	-49.9442	-19.954	2.93169	4.02259	5.49143	0.276599	52.9096	2.49355	0
0.8153	-29.1481	-68.5779	-23.5982	0.771496	2.80034	6.41146	-1.54896	11.7191	0	0
0.8160	-41.9862	-110.656	-29.6866	-1.02866	1.57809	6.41146	-3.07947	-27.6393	-1.17751	0
0.8167	-36.1727	-171.368	-8.04383	-0.720063	1.88752	6.0952	-3.07947	-46.5604	-0.623387	0.321645
0.8173	-24.3035	-175.339	31.9531	-0.102866	2.80034	6.0952	-1.86244	-50.5405	-0.277061	0.321645
0.8180	-18.4901	-106.685	42.3079	0.771496	2.80034	6.41146	-0.331919	-26.7233	1.87016	0.321645
0.8187	-16.3908	-133.872	17.9097	0.462898	2.19695	4.88766	-1.25392	31.5562	1.52383	0.321645
0.8193	-17.2789	-263.238	-11.9991	-0.411465	0.355845	2.76009	-2.47095	67.5663	-0.623387	0.321645
0.8200	-15.4218	-227.575	-37.3305	0.154299	-1.46979	1.84006	-1.86244	26.976	0	0
0.8207	-12.9996	-5.95665	-47.4186	2.00589	-3.60486	1.23629	-1.54896	-22.4589	1.24677	0.321645
0.8213	-11.4655	185.344	-17.1987	2.93169	-4.51768	-0.28751	-1.86244	-29.7873	0.969713	-0.321645
0.8220	-1.6956	281.185	27.0646	2.31449	-3.29543	-2.73134	-2.76599	-36.5155	0	-2.25152
0.8227	8.39724	266.522	34.9751	1.69729	-2.38261	-3.36386	-2.76599	-33.1356	-0.623387	-0.643291
0.8233	10.4965	194.508	9.68815	1.38869	-3.29543	-1.20754	-1.54896	33.9885	-0.623387	0.964936
0.8240	6.54016	162.739	-6.79948	1.69729	-2.69204	-0.28751	-1.25392	140.503	0	0.321645
0.8247	-2.34154	131.352	0.222205	2.62309	-1.46979	-0.60377	-0.645399	142.335	0.969713	0.321645
0.8253	-7.50907	103.86	21.865	2.93169	-1.16036	-0.28751	0.276599	26.6601	0.969713	0
0.8260	-9.04318	98.9721	48.7074	2.62309	-1.77922	0	0.276599	-13.6143	0.969713	0.321645
0.8267	-12.6766	102.943	42.619	2.31449	-1.77922	0	-0.645399	-4.138	0.623387	0.321645
0.8273	-11.4655	107.831	0.222205	1.38869	-1.77922	0.31626	-0.645399	-13.6143	-0.277061	0.321645
0.8280	3.14896	74	-8.35492	0.154299	-2.69204	-0.60377	-1.25392	74.2629	-1.52383	0.321645
0.8287	15.0989	33.3725	10.577	0.154299	-2.38261	-0.28751	-1.86244	113.021	-1.52383	0.321645
0.8293	1.04965	67.2796	-7.42166	1.38869	-1.16036	1.5238	-0.01844	-14.5304	0	0.321645
0.8300	-18.813	103.86	-14.4433	1.69729	0.061886	2.12757	0.590079	-70.6935	0.346326	0.321645
0.8307	-15.0989	40.3983	25.8203	1.38869	1.28413	2.76009	0.276599	-36.1996	-0.623387	0.321645
0.8313	1.37263	-11.1496	37.4194	1.08009	2.19695	3.36386	0.276599	-116.749	-0.623387	0.321645
0.8320	8.07427	13.8225	-5.28849	-1.33726	1.28413	2.12757	-0.940438	-203.425	-1.52383	0.321645
0.8327	-2.01857	9.54592	-33.953	-1.64586	0.974705	2.44383	-0.645399	-87.7825	-0.623387	0.321645
0.8333	-12.1114	-27.034	-13.5101	-0.102866	1.57809	3.68012	0.885118	96.5639	1.52383	0.321645
0.8340	-7.50907	-23.0629	3.55528	-1.02866	0.974705	3.68012	0.590079	140.503	1.24677	0.321645
0.8347	-3.22971	24.8194	-14.7544	-2.26306	-0.247544	2.76009	0.885118	33.0724	0.623387	0
0.8353	-6.86313	55.0609	-18.7097	-3.49745	-2.69204	1.23629	0.590079	-32.5354	-1.17751	-0.321645
0.8360	-3.55268	-5.34571	-4.35522	-2.57165	-3.29543	0.920031	0.885118	16.2993	-1.52383	0
0.8367	-1.1304	-110.656	-29.3755	1.08009	-0.556974	3.36386	2.72911	17.2153	0.623387	0.643291
0.8373	-12.9996	-106.38	-58.3956	2.31449	0.665275	2.44383	1.1986	-3.25354	-1.17751	-0.964936
0.8380	-14.2107	-54.2208	-48.6185	4.16608	1.57809	0.920031	-1.25392	35.8206	-4.22518	-3.5381
0.8387	2.26079	-152.506	-25.1092	7.50923	2.19695	3.0476	-0.331919	34.3043	-5.19489	-1.28658
0.8393	4.68307	-251.325	21.865	7.20063	1.57809	3.68012	-0.01844	-16.0466	-6.09534	0.643291
0.8400	-9.60838	-132.039	59.7288	6.58344	3.4192	4.88766	0.885118	-0.505405	-4.5715	0
0.8407	-16.3908	21.1538	42.619	6.27484	5.8637	7.33149	3.33763	27.892	-1.8009	0
0.8413	-8.72021	23.903	14.2656	4.47468	5.8637	7.93526	3.63267	34.9045	0	0.321645
0.8420	4.68307	54.7554	5.99954	4.73184	4.93541	6.41146	2.10216	62.3859	-1.17751	0.321645
0.8427	7.42833	111.496	1.11103	5.34904	1.88752	3.68012	-0.331919	65.4183	-4.84856	0
0.8433	-11.7884	22.9866	-9.55483	3.24028	0.665275	3.36386	-0.331919	57.4898	-2.14722	0
0.8440	-29.4711	-34.9762	-12.3102	-1.02866	1.28413	5.49143	3.02415	53.8256	4.29444	0.321645
0.8447	-18.4901	22.9866	0.222205	-3.49745	-0.556974	4.28389	3.02415	19.6476	4.5715	0.643291
0.8453	-2.58377	96.5283	3.2442	-2.26306	-3.91429	0.60377	0.276599	-20.6268	1.24677	0.321645
0.8460	-11.4655	217.723	-15.9543	-1.33726	-4.82711	-0.920031	-1.25392	-35.8837	0	0.321645
0.8467	-22.1235	275.992	-27.8645	-1.64586	-3.91429	-0.28751	-1.25392	-18.5105	0.346326	0.321645
0.8473	-16.633	173.125	-13.2434	0.154299	-1.77922	1.23629	1.1986	16.5836	3.67106	0
0.8480	-20.0242	61.7812	-2.84423	1.08009	-0.850933	2.12757	2.72911	-7.20202	6.71872	0
0.8487	-43.5203	-9.31682	-23.9093	-1.02866	-2.07318	0.31626	0.885118	-75.2737	4.5715	0.321645
0.8493	-65.4823	-61.8576	-53.1959	-1.95446	-3.00147	-0.60377	-0.331919	-69.4616	2.14722	0.321645
0.8500	-64.2712	-52.9989	-50.7517	-1.33726	-3.60486	-0.60377	-0.331919	37.6527	1.24677	0.321645
0.8507	-47.1537	-50.8607	-12.3102	-1.02866	-2.69204	-0.28751	-0.01844	141.419	2.77061	0.321645
0.8513	-33.1045	-70.1052	11.8213	-1.02866	-1.16036	1.23629	2.10216	166.436	5.81828	0
0.8520	-30.117	26.6522	6.31063	-2.26306	-1.77922	0.31626	1.49364	154.843	5.19489	0
0.8527	-29.4711	157.546	23.4204	-4.42325	-2.07318	-1.20754	0.276599	109.357	6.09534	0
0.8533	-26.4029	137.156	38.0415	-7.7664	-1.46979	-1.20754	0.276599	73.6627	11.0132	0
0.8540	-26.7258	23.292	5.37737	-9.25796	-1.46979	-0.60377	-0.331919	76.095	10.7361	0.321645
0.8547	-20.3472	-59.4138	-33.0641	-7.4578	0.665275	0.920031	1.49364	14.4672	8.58889	0.321645
0.8553	-10.9003	-105.158	-49.8629	-6.2234	1.28413	0.920031	2.41563	-77.1058	7.06505	0.321645
0.8560	-10.9003	-147.313	-36.7083	-5.91481	0.355845	-0.920031	0.276599	-124.077	4.29444	0
0.8567	-7.50907	-213.523	-13.5101	-4.68041	1.28413	-0.920031	-1.25392	-115.548	3.39399	0
0.8573	-2.34154	-309.364	-17.8209	-2.88025	2.50638	0	-1.25392	-42.2961	2.49355	0.321645
0.8580	-5.65199	-294.091	-41.2857	-0.411465	3.4192	0.920031	-0.940438	43.7491	3.04767	0.321645
0.8587	-12.3536	-99.0485	-46.4853	2.00589	2.50638	0	-1.25392	78.5589	4.5715	0.321645
0.8593	-14.8567	11.0733	-14.4433	1.69729	-0.247544	-2.73134	-2.76599	37.6527	3.39399	0.321645
0.8600	-15.7448	-71.938	18.5319	0.771496	-0.556974	-3.65137	-3.07947	-40.464	2.77061	0
0.8607	-18.1671	-139.676	18.843	-0.102866	0.355845	-3.0476	-3.07947	-27.9552	3.04767	0
0.8613	-13.6455	12.2951	-1.33323	-0.102866	-0.556974	-2.73134	-0.645399	38.2528	3.39399	0.321645
0.8620	5.65199	373.971	-23.9093	0.771496	-0.247544	-1.5238	3.02415	19.6476	4.91783	0.643291
0.8627	34.3156	444.152	-39.7747	0.154299	-0.247544	-1.5238	3.33763	18.7316	4.01738	0.321645
0.8633	61.4452	132.879	-6.22175	-0.411465	0.061886	-2.12757	2.10216	86.4874	1.52383	0.321645
0.8640	73.3951	-35.8927	82.927	-0.102866	0.974705	-2.12757	2.10216	118.517	1.24677	0.321645
0.8647	62.9793	5.57482	124.124	-0.102866	1.28413	-3.0476	0.590079	99.5963	0.623387	0
0.8653	41.3402	51.3952	79.8606	0.771496	1.28413	-2.73134	0.885118	56.8896	2.77061	0
0.8660	16.8752	9.54592	37.1527	2.00589	1.28413	-2.44383	3.02415	24.5437	4.29444	0.321645
0.8667	-14.5337	-130.206	4.48855	0.462898	0.665275	-3.36386	2.72911	92.5838	2.14722	0
0.8673	-41.098	-219.938	-47.4186	-0.102866	1.57809	-2.73134	2.10216	267.454	0.969713	-0.321645
0.8680	-42.3092	-246.132	-57.7734	0.154299	0.665275	-3.0476	0.885118	381.581	1.24677	0.643291
0.8687	-21.8813	-352.97	-55.9513	-0.411465	-1.16036	-3.96763	-0.940438	245.184	1.52383	0
0.8693	-6.86313	-407.267	-84.3491	0.462898	0.355845	-5.49143	-2.15748	-120.413	2.14722	-3.21645
0.8700	-2.90674	-323.645	-76.7053	0.771496	1.88752	-6.41146	-1.86244	-401.197	2.14722	-2.57316
0.8707	10.8195	-210.774	-47.1075	-0.411465	0.665275	-6.0952	-1.86244	-461.624	2.14722	-1.28658
0.8713	25.111	-93.8555	-52.2627	-1.33726	0.061886	-7.619	-3.68799	-430.479	0.969713	-3.21645
0.8720	21.4775	58.421	-43.1078	-0.102866	0.355845	-6.0952	-2.47095	-269.665	1.87016	-1.60823
0.8727	22.6887	222.611	41.7302	1.38869	0.974705	-3.0476	0.276599	9.5711	4.29444	0.643291
0.8733	33.1045	298.291	118.924	-0.102866	-0.247544	-3.96763	-0.940438	182.925	4.29444	0
0.8740	17.5212	297.374	78.0385	-1.33726	-0.850933	-4.25514	-1.54896	125.846	3.39399	0
0.8747	-11.1425	200.006	-2.84423	-1.95446	0.061886	-3.65137	-0.940438	15.3833	2.49355	0.321645
0.8753	-18.4901	78.2002	1.42211	-2.57165	0.061886	-4.25514	-0.645399	-20.6268	0.623387	0.321645
0.8760	0.726684	55.3663	51.1517	-0.411465	0.974705	-2.73134	2.10216	-116.148	2.77061	0.321645
0.8767	32.7815	-19.7028	71.3279	0.771496	1.88752	-1.84006	3.33763	-221.43	4.5715	0.321645
0.8773	47.1537	-210.774	93.5929	-0.411465	0.665275	-4.25514	0.590079	-205.573	3.67106	0.321645
0.8780	26.6451	-407.878	146.389	-1.33726	-0.556974	-5.49143	-0.940438	-129.889	3.04767	0
0.8787	-6.29793	-418.875	155.855	-1.02866	-0.556974	-4.88766	-0.645399	-37.4315	2.14722	0
