MR32 ASCII
Name	KneeFJC1
Frequency	1500
Date	31-08-2015 09:46:38
"Time,s"	"RT TIB.ANT.,uV"	"RT MED. GASTRO,uV"	"RT LAT. GASTRO,uV"	"RT BICEPS FEM.,uV"	"RT VMO,uV"	"RT VLO,uV"	"RT RECTUS FEM.,uV"	"RT SOLEUS,uV"	"RT SEMITEND.,uV"	"Channel 12,uV"
0.0000	6.71071	-99.9173	23.2029	-8.83256	1.4834	1.48315	0.289177	-51.5046	1.20399	-7023.85
0.0007	5.25975	-102.678	16.7943	-37.8194	-0.902937	-0.339006	-0.616912	-53.947	0.888661	-10546.2
0.0013	-0.544112	-60.8662	-4.56786	-55.8325	-1.87037	-0.932267	-0.925368	-51.5046	0.888661	-9698.46
0.0020	-1.45096	50.5246	-8.53349	-59.4904	-0.322477	0.29663	0.289177	-15.1857	1.80599	-9709.73
0.0027	2.53919	108.818	-4.26106	-44.8409	0.580459	1.82216	1.50372	23.8822	2.72332	-9906.06
0.0033	6.71071	68.8411	5.80641	-22.2598	0.257982	1.18652	0.597633	32.1188	2.43665	-9790.51
0.0040	9.2499	30.9905	18.0214	-12.1871	-0.644955	-0.635637	-1.85074	24.1785	-0.315331	-9813.69
0.0047	6.34797	24.885	8.86301	-10.0548	-1.22541	-1.5679	-2.44837	26.018	-1.83466	-9818.84
0.0053	3.62741	9.32973	1.84078	-7.61028	-0.902937	-0.339006	-1.54228	29.983	-0.0286665	-9819.48
0.0060	3.62741	-5.00787	20.7599	-5.16571	0.257982	1.18652	-0.327734	22.0427	1.51932	-9792.77
0.0067	-0.362741	0.171502	26.8617	-5.16571	0.902937	1.18652	0.289177	4.95629	0.888661	-9852.95
0.0073	-6.71071	8.40362	5.49961	-13.4094	-0.644955	-0.635637	-0.616912	-9.39141	-0.630663	-9862.29
0.0080	-9.06853	17.8705	-10.3629	-18.9052	-2.12835	-1.86453	-1.54228	-17.6281	-1.54799	-9533.03
0.0087	-6.1666	23.6673	-9.14708	-12.8028	-0.644955	-0.0423758	-0.327734	-19.4573	0.601996	-10376.9
0.0093	-1.81371	11.1648	-2.43165	-5.78131	0.257982	2.71205	2.73755	-9.68777	3.35398	-9178.67
0.0100	-3.0833	-3.18994	-2.43165	-5.47797	-1.22541	-1.5679	1.50372	2.51391	2.72332	-2792.74
0.0107	-7.25482	-6.84295	-8.53349	-9.7515	-3.35377	-10.0854	-4.58828	3.43364	-0.630663	106.212
0.0113	-6.1666	-1.35487	-9.74931	-8.83256	-2.77331	-7.03438	-5.20519	-2.67742	-1.83466	-120.374
0.0120	-2.17645	7.18595	-5.47688	-3.95235	-0.322477	1.48315	0.289177	-1.45112	0.286665	-108.143
0.0127	0.362741	-2.57254	0.624956	-2.11446	0.902937	2.71205	2.42909	4.03657	1.80599	88.1883
0.0133	-0.362741	-27.9034	7.34039	-2.73006	0	0.889891	1.21455	0.991259	0.888661	-27.3577
0.0140	-3.0833	-46.8201	8.24941	-3.64009	-1.22541	-0.932267	-0.925368	-3.58693	-1.23266	-4.18412
0.0147	-3.62741	-60.5575	2.14757	-3.0334	-1.54789	-1.2289	-1.54228	-3.58693	-1.23266	0.64371
0.0153	-1.26959	-75.5125	-3.34067	-0.9011	0	0.889891	-0.0192785	-9.08484	0.601996	-0.64371
0.0160	0.544112	-80.6919	-6.70407	0.321184	1.22541	2.11879	1.21455	-16.7083	1.51932	-0.64371
0.0167	0.362741	-60.8662	-8.22669	0.624524	0.902937	1.82216	1.81218	-12.7433	1.20399	-0.64371
0.0173	-2.72056	-33.7002	-10.6697	-1.20444	-0.644955	-0.635637	-0.327734	-3.58693	-1.23266	-0.321855
0.0180	-5.07838	17.5618	-13.1127	-2.11446	-1.87037	-1.86453	-2.15919	-3.8935	-2.14999	-0.321855
0.0187	-3.0833	109.127	-9.45387	0.0178436	-0.322477	0.29663	-0.327734	-11.2206	-0.0286665	-0.64371
0.0193	1.26959	135.967	-2.12485	2.46241	1.22541	2.11879	1.50372	-10.6075	1.20399	-0.64371
0.0200	3.44604	78.5995	-0.60223	2.46241	0.902937	1.18652	1.50372	-1.14455	0.888661	-0.64371
0.0207	1.63234	39.2397	-6.70407	0.0178436	-0.644955	-0.932267	-0.327734	4.03657	-0.945994	-0.321855
0.0213	1.26959	32.2081	-10.0561	-1.20444	-0.902937	-1.5679	-2.15919	4.95629	-2.46532	-0.321855
0.0220	5.25975	29.7728	0.0113628	0.936787	0.580459	0.593261	-0.0192785	8.92133	-0.630663	-0.64371
0.0227	8.52442	29.7728	10.0788	1.84681	1.4834	2.11879	1.50372	8.30818	0.601996	-0.965566
0.0233	7.43619	25.1937	7.94262	1.54347	1.22541	1.48315	0.906089	-8.16511	0.888661	-0.64371
0.0240	1.26959	14.2175	3.67019	0.0178436	-0.322477	-0.932267	-0.616912	-34.7145	-0.630663	-0.321855
0.0247	-3.26467	12.6912	3.67019	-0.9011	-0.902937	-1.86453	-2.44837	-47.8359	-2.46532	-0.321855
0.0253	-1.26959	13.6001	5.49961	1.54347	0.902937	0.29663	-0.616912	-40.2124	-0.945994	-0.321855
0.0260	1.81371	-3.18994	4.28379	3.06909	1.80587	1.48315	1.50372	-8.16511	0.888661	-0.321855
0.0267	0.544112	-20.889	1.84078	2.76575	0.902937	0.593261	0.906089	53.1703	-0.0286665	-0.321855
0.0273	-2.17645	-18.145	-2.73844	1.24013	-0.644955	-0.932267	-0.925368	93.4542	-2.14999	-0.321855
0.0280	-1.81371	-13.8745	-9.74931	0.321184	-1.22541	-1.5679	-2.15919	69.9604	-2.14999	-0.321855
0.0287	1.26959	-20.889	-6.70407	2.46241	0	0.29663	-0.327734	31.5057	-0.630663	-0.321855
0.0293	1.63234	-22.1067	2.76117	4.89806	1.22541	1.82216	1.50372	35.1641	-0.315331	-0.64371
0.0300	0.544112	-13.8745	4.89738	5.21032	1.4834	1.48315	1.50372	39.7423	-0.315331	-0.64371
0.0307	-0.906853	9.92999	1.53398	3.68469	0	-0.635637	-0.616912	-11.2206	-0.945994	-0.321855
0.0313	-2.17645	55.4124	-2.43165	2.15907	-1.22541	-1.2289	-1.54228	-49.0622	-1.23266	-0.321855
0.0320	-0.906853	76.1642	-9.74931	2.76575	0	0.593261	0.289177	-28.6137	0.601996	0
0.0327	1.63234	51.7423	-9.14708	3.68469	0.902937	1.18652	1.81218	-9.08484	2.12132	-0.321855
0.0333	4.53426	22.7584	2.45437	3.37243	0.902937	0.889891	1.21455	-4.50665	0.888661	-0.64371
0.0340	5.44112	-2.88124	2.45437	2.15907	-0.322477	-0.339006	-0.616912	-0.541616	-1.23266	-0.321855
0.0347	2.17645	-25.1594	-1.81805	1.24013	-1.54789	-1.86453	-1.85074	1.90076	-2.46532	0
0.0353	-0.362741	-25.4681	12.5218	3.06909	-0.644955	-0.339006	-0.327734	12.59	-1.23266	-0.321855
0.0360	-0.362741	-8.06061	15.2716	4.59472	0.902937	1.48315	1.81218	9.53448	0.888661	0
0.0367	0.362741	5.05932	-8.22669	3.06909	0.580459	0.29663	0.906089	-28.6137	0.286665	0
0.0373	-0.544112	10.2387	-31.4182	1.24013	-1.22541	-1.5679	-1.85074	-61.2639	-1.83466	-0.321855
0.0380	-3.62741	17.5618	-39.6563	0.624524	-1.54789	-2.16116	-2.15919	-68.8976	-2.14999	-0.321855
0.0387	-3.99015	11.4564	-17.9987	2.15907	0.580459	-0.0423758	-0.327734	-50.8914	-0.315331	0
0.0393	0.362741	-12.6397	20.7599	4.59472	2.12835	2.71205	1.50372	-5.41616	1.20399	0
0.0400	1.81371	-37.6619	25.9527	2.15907	0.257982	-1.86453	-0.327734	24.1785	0.286665	-0.965566
0.0407	-2.35782	-48.9639	5.80641	-2.42672	-2.45083	-9.78881	-4.89674	37.9131	-1.83466	-2.25299
0.0413	-4.89701	-27.286	0.318159	-1.20444	-2.12835	-6.14449	-4.27983	74.8451	-1.54799	-1.28742
0.0420	-3.0833	6.58569	3.3634	2.76575	0	1.18652	-0.0192785	92.8513	0.888661	0
0.0427	0.362741	7.18595	7.94262	3.68469	1.4834	2.41542	1.50372	62.3267	1.51932	0
0.0433	1.26959	-4.71632	8.86301	3.37243	1.22541	1.82216	1.50372	34.2546	0.888661	0
0.0440	-1.81371	5.05932	0.624956	1.84681	-0.644955	-0.0423758	-0.0192785	24.1785	-0.630663	0
0.0447	-3.62741	16.6529	-4.87465	0.624524	-1.54789	-0.932267	-1.54228	7.70525	-1.23266	0
0.0453	-0.906853	5.36802	-3.34067	2.15907	-0.322477	0.29663	-0.0192785	-17.9346	0.286665	0
0.0460	1.63234	-9.89569	-1.51126	2.76575	0.902937	1.48315	1.21455	-35.9408	1.51932	0
0.0467	1.63234	-5.62528	-1.20446	2.76575	0.257982	0.593261	0.906089	-37.4634	0.601996	0
0.0473	-0.906853	1.38917	-3.04524	1.24013	-0.902937	-0.932267	-0.925368	-28.9202	-1.23266	0
0.0480	-2.72056	-1.04616	-4.56786	0.0178436	-1.87037	-1.5679	-2.44837	-18.8441	-1.83466	-0.321855
0.0487	-0.906853	-11.7308	-4.56786	1.54347	-0.322477	0.29663	-0.327734	-8.16511	0.286665	0
0.0493	4.89701	-24.8507	-7.91989	3.37243	1.22541	2.41542	2.12063	1.60441	1.80599	0
0.0500	7.98031	-30.9562	-6.39727	3.06909	1.22541	2.11879	1.81218	-2.97378	1.20399	-0.321855
0.0507	6.71071	-30.0472	4.28379	0.624524	-0.322477	-0.339006	-0.925368	-13.3564	-0.315331	-0.321855
0.0513	5.44112	-24.8507	9.1698	-0.285497	-0.644955	-1.5679	-2.15919	-5.41616	-1.54799	0
0.0520	5.80386	-17.8362	4.28379	1.84681	1.22541	0.593261	0.289177	17.7711	-0.0286665	0.321855
0.0527	5.25975	-12.3482	-9.14708	3.06909	2.12835	2.41542	2.12063	39.7423	1.20399	0
0.0533	5.80386	-8.06061	-17.3851	2.46241	1.80587	2.11879	1.50372	44.6271	0.601996	-0.321855
0.0540	5.80386	-6.53424	-2.12485	0.624524	0.257982	-0.0423758	-0.0192785	24.4851	-0.945994	0
0.0547	3.44604	-6.84295	13.4422	-0.9011	-1.54789	-2.16116	-1.85074	-3.28035	-2.46532	0
0.0553	2.17645	-7.46035	5.80641	1.24013	-0.644955	-0.0423758	-0.0192785	-11.5272	-0.630663	0
0.0560	1.81371	-26.3771	3.06796	3.06909	1.22541	2.41542	1.50372	5.87602	1.51932	-0.321855
0.0567	1.63234	-61.1749	7.03359	2.46241	0.902937	1.48315	0.906089	41.8781	1.20399	-0.321855
0.0573	-0.544112	-80.6919	-0.295434	-0.285497	-1.22541	-1.2289	-0.616912	52.8739	-0.945994	0
0.0580	-4.17152	-86.7974	-4.87465	-1.20444	-1.87037	-2.16116	-1.23382	5.87602	-1.54799	0
0.0587	-7.07345	-92.5941	-3.95426	0.936787	0	-0.0423758	-0.0192785	-49.6651	0.286665	0
0.0593	-9.43127	-100.535	-6.09048	2.46241	1.80587	1.82216	1.50372	-56.0828	2.12132	0
0.0600	-8.88716	-109.693	2.76117	1.84681	1.22541	1.48315	1.50372	-2.97378	1.51932	0
0.0607	-8.52442	-36.4443	20.4531	-0.285497	-1.22541	-0.932267	-0.925368	48.5921	-1.54799	0
0.0613	-9.97538	115.215	17.7147	-1.20444	-1.87037	-2.4578	-2.15919	24.1785	-3.06731	0
0.0620	-4.89701	157.954	1.53398	0.936787	0.257982	-0.0423758	0.289177	-35.9408	-0.315331	-0.321855
0.0627	2.72056	95.9899	-4.56786	2.46241	1.4834	1.48315	2.12063	-62.4902	1.80599	0
0.0633	4.35289	64.5706	-5.47688	1.84681	0.580459	1.18652	0.906089	-50.8914	0.286665	0
0.0640	2.53919	66.6973	-9.74931	-0.285497	-1.22541	-1.2289	-1.23382	-26.4778	-1.83466	-0.321855
0.0647	2.17645	53.2686	-11.5901	-1.20444	-1.54789	-1.86453	-2.44837	-4.20008	-1.83466	-0.321855
0.0653	5.25975	17.2703	4.59058	0.936787	0.257982	-0.0423758	-0.327734	16.8616	0.286665	0
0.0660	7.61756	8.40362	22.5893	1.84681	0.902937	0.889891	1.81218	17.7711	1.51932	0
0.0667	6.34797	22.141	14.6581	0.321184	-0.322477	0.29663	1.21455	-14.5725	0.286665	0
0.0673	1.26959	20.3059	-0.295434	-1.20444	-1.54789	-1.5679	-0.925368	-14.266	-1.83466	0
0.0680	-5.44112	30.0815	-4.26106	-0.9011	-1.54789	-2.16116	-2.15919	22.6559	-2.14999	-0.321855
0.0687	-5.80386	49.3069	-4.87465	1.24013	0	1.18652	-0.0192785	-30.7495	0.601996	-0.321855
0.0693	0.544112	25.1937	-10.6697	1.84681	0.902937	2.41542	1.50372	-101.548	1.80599	0
0.0700	0.362741	-6.84295	-15.5557	-1.20444	-1.22541	-4.91559	-1.85074	-69.8071	-0.0286665	-1.93113
0.0707	-5.44112	-2.26383	-10.0561	-3.95235	-3.35377	-9.78881	-5.51365	-35.0211	-1.23266	-2.25299
0.0713	-3.0833	0.480207	0.0113628	-2.11446	-2.45083	-3.39006	-3.06528	5.87602	-0.945994	-0.321855
0.0720	3.0833	-12.6397	3.97699	1.24013	0	2.11879	1.21455	80.6394	0.286665	0
0.0727	3.0833	-13.5658	7.63582	1.54347	0.580459	2.11879	1.81218	80.946	1.20399	-0.321855
0.0733	-1.26959	-0.73746	19.8509	1.24013	0.257982	1.48315	1.50372	23.8822	1.20399	-0.321855
0.0740	-6.34797	7.49465	12.8286	-0.588837	-1.22541	-0.0423758	0.289177	-6.02931	-0.315331	0
0.0747	-8.52442	8.40362	-8.53349	-1.50778	-1.87037	-1.5679	-1.23382	-20.6836	-1.83466	0
0.0753	-4.53426	4.13321	-10.9765	0.0178436	-0.322477	-0.0423758	-0.0192785	-32.2721	-0.315331	0
0.0760	-1.45096	-9.29543	-7.01087	1.24013	0.902937	1.82216	1.50372	-42.6548	1.20399	0
0.0767	-3.62741	-26.3771	-12.4991	0.936787	0	0.889891	0.906089	-51.198	0.601996	-0.321855
0.0773	-4.53426	-40.1144	-8.53349	-1.20444	-1.54789	-1.5679	-1.23382	-42.0416	-1.54799	-0.321855
0.0780	-0.362741	-46.5114	4.28379	-2.11446	-1.87037	-1.2289	-1.85074	-20.6836	-2.14999	-0.321855
0.0787	4.35289	-36.4443	5.20418	0.624524	0	1.18652	0.597633	10.7506	0.888661	-0.321855
0.0793	5.44112	-9.89569	8.86301	1.24013	0.902937	2.41542	1.81218	40.0489	2.12132	0
0.0800	6.1666	18.488	17.1011	0.321184	0.902937	2.41542	0.906089	24.7917	1.51932	0
0.0807	5.44112	38.6223	6.7268	-0.588837	-0.322477	1.18652	-0.327734	-1.14455	-0.630663	-0.321855
0.0813	3.99015	39.5313	-2.12485	-0.9011	-1.22541	-0.339006	-0.925368	32.1188	-1.83466	-0.321855
0.0820	2.17645	20.0143	3.3634	1.24013	0.257982	1.18652	0.597633	105.973	-0.0286665	0
0.0827	-5.80386	3.84165	7.03359	2.15907	0.902937	1.48315	1.50372	148.392	0.601996	0
0.0833	-14.691	0.171502	6.1132	-0.285497	-0.322477	-3.98332	-0.925368	77.2875	-0.630663	-1.28742
0.0840	-13.7842	-2.57254	-6.09048	-2.73006	-1.54789	-6.14449	-3.99065	-18.2412	-1.54799	-1.60928
0.0847	-8.52442	-8.36932	-20.7372	-1.50778	-1.22541	-1.86453	-2.75682	0.991259	-1.83466	-0.321855
0.0853	-5.07838	-5.62528	-21.044	0.936787	0.580459	1.48315	0.289177	23.8822	-0.0286665	0
0.0860	0	10.5474	-9.45387	1.84681	1.4834	1.48315	0.906089	11.0571	1.20399	-0.321855
0.0867	5.25975	17.5618	2.76117	1.24013	0.580459	1.48315	0.906089	44.3205	0.888661	0
0.0873	2.72056	6.58569	2.14757	-0.588837	-0.322477	0.29663	-0.327734	21.1332	-1.23266	0
0.0880	-0.906853	-5.00787	-0.60223	-1.20444	-0.902937	-0.932267	-1.85074	-80.4963	-2.46532	-0.321855
0.0887	1.26959	-12.9484	12.5218	0.624524	0	0.593261	-0.0192785	-74.9984	0.286665	-0.321855
0.0893	3.99015	-10.5131	31.7477	1.24013	0.902937	1.82216	1.21455	-7.55196	1.80599	0
0.0900	1.81371	5.65958	30.8387	0.936787	1.22541	1.18652	0.289177	-34.7145	0.888661	0
0.0907	-2.72056	26.1198	3.67019	-0.9011	-0.322477	-0.932267	-1.54228	-68.8976	-0.945994	0
0.0913	-5.44112	52.3597	-18.9077	-2.11446	-1.22541	-2.16116	-2.15919	-67.9779	-2.14999	0
0.0920	-6.34797	64.5706	-21.3508	-0.588837	0.580459	0.29663	0.289177	-77.1342	-0.315331	0
0.0927	-5.44112	44.7278	-12.4991	1.24013	1.4834	2.71205	2.73755	-53.6404	1.20399	0.321855
0.0933	-2.35782	19.7056	-5.47688	1.24013	0.902937	2.11879	2.12063	4.34314	0.286665	0.321855
0.0940	-1.45096	-5.31657	-5.18145	-0.588837	-0.644955	-0.635637	-0.616912	46.7629	-1.54799	0
0.0947	-1.81371	-33.7002	10.9992	-1.50778	-1.22541	-1.5679	-1.85074	41.8781	-2.14999	-0.321855
0.0953	0.544112	-57.196	25.3391	0.321184	1.22541	0.889891	0.906089	15.3287	-0.0286665	-0.321855
0.0960	2.17645	-73.3687	11.9082	1.54347	2.12835	1.82216	2.42909	5.87602	1.20399	0
0.0967	0	-80.4003	7.94262	0.936787	0.580459	1.18652	1.21455	-3.58693	0.286665	0
0.0973	-3.26467	-72.7685	21.9871	-0.588837	-0.644955	-0.0423758	-0.616912	-24.342	-1.54799	0
0.0980	-6.71071	-54.1433	11.9082	-2.42672	-1.54789	-1.5679	-1.85074	-56.9923	-2.14999	0.321855
0.0987	-7.61756	-48.3465	-14.6353	-1.20444	-0.322477	-0.635637	-0.616912	-87.8133	-0.945994	0
0.0993	-6.1666	-49.5642	-25.3164	0.624524	1.22541	1.82216	1.50372	-61.5705	0.888661	0
0.1000	-5.07838	-37.3704	-28.9752	-1.20444	-0.902937	-1.86453	-0.0192785	8.01182	1.20399	-0.64371
0.1007	-6.1666	-50.799	-33.5544	-4.86237	-3.99872	-9.78881	-4.27983	57.7485	-0.630663	-2.25299
0.1013	-6.1666	-110.911	-26.5436	-3.64009	-2.77331	-6.44112	-3.99065	79.4233	-1.54799	-0.965566
0.1020	-1.45096	-157.302	-3.34067	0.936787	0.257982	2.11879	0.597633	64.1559	0.601996	0.321855
0.1027	2.17645	-160.046	14.3513	1.84681	1.22541	3.34769	2.12063	7.70525	1.80599	0
0.1033	1.63234	-138.077	6.7268	0.0178436	0.257982	1.18652	0.906089	-36.8503	0.888661	-0.321855
0.1040	-0.906853	-115.49	6.1132	-2.73006	-1.22541	-0.932267	-1.23382	-19.4573	-1.54799	0
0.1047	-1.26959	-74.2948	18.6237	-2.11446	-1.87037	-2.16116	-2.75682	12.59	-2.46532	0
0.1053	0.544112	102.713	7.94262	0.936787	0	0.29663	-0.616912	4.03657	-0.0286665	0
0.1060	1.81371	267.818	-10.3629	3.37243	1.4834	2.41542	1.50372	-10.9141	1.80599	0.321855
0.1067	3.44604	149.704	-10.3629	2.46241	0.580459	1.82216	0.906089	-2.67742	0.286665	0
0.1073	3.99015	-47.7463	-5.47688	-0.285497	-0.644955	-0.339006	-1.23382	11.9769	-1.54799	-0.321855
0.1080	2.72056	-92.3026	-3.95426	-0.9011	-1.22541	-0.932267	-1.54228	17.1682	-1.83466	0
0.1087	3.99015	-74.2948	10.0788	0.936787	-0.322477	0.889891	-0.0192785	22.3493	0.601996	0.321855
0.1093	5.80386	-62.9928	31.441	1.54347	0.257982	1.48315	0.906089	29.6764	1.80599	0
0.1100	3.62741	-46.5114	26.2595	0.0178436	-0.322477	0.29663	0.289177	31.8123	0.601996	0
0.1107	-0.544112	28.8639	2.76117	-1.81112	-1.54789	-1.2289	-1.23382	27.5406	-1.23266	0
0.1113	-0.362741	181.758	-6.70407	-2.11446	-1.87037	-1.86453	-2.44837	9.2279	-1.83466	0.321855
0.1120	2.72056	232.712	-5.47688	0.0178436	-0.322477	-0.339006	-0.925368	-6.64246	0.286665	0
0.1127	2.72056	132.005	-3.64747	1.54347	0.902937	1.48315	1.21455	-2.97378	1.51932	0
0.1133	2.72056	57.8478	-0.909026	0.936787	0.257982	1.48315	1.21455	-8.77826	0.601996	0
0.1140	3.0833	43.2015	-1.81805	-1.20444	-0.644955	-0.932267	-1.23382	-24.6486	-1.23266	-0.321855
0.1147	0.544112	32.8256	-3.04524	-1.50778	-0.902937	-1.86453	-2.15919	-17.0149	-2.14999	-0.321855
0.1153	0	28.8639	-0.295434	0.624524	0.902937	0.593261	0.289177	-1.7577	0.286665	0
0.1160	0	33.443	-0.909026	1.54347	1.80587	2.11879	2.42909	-13.9696	2.12132	-0.321855
0.1167	-1.26959	34.6606	-5.78368	0.624524	0.902937	0.889891	2.12063	-32.2721	1.20399	0
0.1173	0.362741	20.9233	-7.31766	-1.50778	-0.902937	-1.2289	-1.23382	-29.8297	-1.83466	0.321855
0.1180	3.62741	18.7795	-5.78368	-2.11446	-1.54789	-1.2289	-2.15919	-18.8441	-2.46532	0
0.1187	4.53426	47.4719	-5.18145	0.0178436	-0.322477	0.29663	-0.0192785	-10.9141	0.286665	0
0.1193	3.62741	47.1632	1.84078	1.24013	0.257982	0.29663	0.597633	-8.77826	0.888661	0
0.1200	2.72056	-4.09891	13.1354	0.936787	0.580459	0.593261	0.597633	-8.77826	-0.0286665	0
0.1207	-1.26959	-43.7674	12.215	-0.9011	-0.644955	-0.339006	-0.327734	-15.4923	-1.23266	0.321855
0.1213	-3.0833	-52.0167	1.53398	-1.20444	-0.902937	-0.932267	-1.23382	-24.9552	-1.83466	0
0.1220	0	-50.1816	-5.78368	0.624524	0.902937	0.593261	0.289177	-23.4223	-0.315331	0
0.1227	0	-58.4137	-5.78368	1.24013	1.4834	1.48315	1.50372	-17.0149	1.20399	0
0.1233	-3.62741	-48.9639	-2.12485	0.936787	0	0.889891	1.21455	-7.85854	0.888661	0
0.1240	-6.71071	45.3452	-3.34067	-1.20444	-0.902937	-0.932267	-0.616912	-2.06427	-0.315331	0.321855
0.1247	-5.80386	128.352	-4.87465	-2.11446	-0.644955	-1.86453	-2.15919	-3.58693	-1.83466	0
0.1253	-1.81371	91.4279	-3.34067	0.0178436	0.257982	-0.0423758	-1.23382	13.1929	-1.23266	-0.321855
0.1260	0.544112	45.0365	-5.78368	1.24013	1.22541	1.48315	0.906089	36.3904	0.888661	0
0.1267	1.26959	63.6445	-10.6697	0.936787	1.80587	1.82216	1.21455	31.8123	0.888661	0
0.1273	-0.362741	74.3291	-12.8059	-0.9011	0.580459	-0.0423758	-0.925368	6.78552	-1.83466	0
0.1280	-0.544112	59.9915	-10.0561	-2.11446	-0.902937	-1.5679	-2.15919	-18.2412	-2.46532	0
0.1287	3.0833	60.9005	-1.81805	0.321184	0.257982	1.18652	0.289177	-29.8297	0.286665	0
0.1293	4.53426	60.9005	7.03359	1.54347	0.902937	1.82216	1.81218	-38.9861	1.80599	0
0.1300	1.26959	43.2015	7.03359	-2.42672	-1.54789	-6.14449	-2.44837	-53.0272	0.286665	-1.60928
0.1307	-0.906853	24.885	-2.12485	-5.16571	-3.35377	-10.7211	-6.41974	-40.8153	-1.83466	-2.25299
0.1313	2.72056	-2.26383	-0.60223	-2.73006	-2.12835	-3.98332	-3.37374	1.60441	-1.83466	-0.321855
0.1320	6.1666	-44.6935	11.306	0.624524	0.257982	1.82216	1.50372	8.30818	0.888661	0
0.1327	5.25975	-76.4215	10.6924	1.54347	1.22541	2.11879	1.81218	-15.1857	1.80599	0
0.1333	2.72056	-86.5058	5.20418	0.936787	0.580459	1.48315	0.906089	1.60441	1.20399	-0.321855
0.1340	0	-94.4292	7.34039	-0.588837	-0.902937	-0.635637	-0.0192785	40.0489	-0.315331	-0.321855
0.1347	-3.99015	-117.325	-0.60223	-0.9011	-1.54789	-1.86453	-1.23382	66.9049	-1.54799	0
0.1353	-3.62741	-121.286	-16.7715	0.321184	-0.322477	0.593261	-0.327734	69.9604	-0.0286665	0
0.1360	0	-10.5131	-21.3508	1.24013	1.22541	2.11879	2.12063	42.1847	1.51932	0
0.1367	0.906853	136.276	-15.2489	1.24013	0.580459	1.18652	1.81218	11.3637	1.20399	-0.321855
0.1373	-4.89701	128.352	-6.39727	-1.50778	-2.12835	-1.5679	-1.23382	-20.6836	-0.945994	-0.321855
0.1380	-9.79401	50.2159	1.53398	-2.42672	-2.45083	-2.16116	-2.44837	-34.7145	-2.14999	0
0.1387	-7.07345	28.5551	6.42	0.321184	-0.322477	-0.0423758	-0.327734	-13.9696	-0.315331	0
0.1393	-3.0833	26.4114	3.67019	1.54347	1.4834	2.41542	1.81218	2.20734	1.20399	-0.321855
0.1400	-1.45096	21.8323	-7.01087	1.24013	1.80587	2.41542	2.12063	4.34314	1.51932	0
0.1407	-1.81371	19.0882	-18.2942	-0.588837	0	-0.0423758	-0.0192785	8.92133	-0.315331	0
0.1413	-0.906853	20.9233	-21.6576	-1.50778	-0.902937	-1.5679	-1.23382	32.4254	-1.83466	0
0.1420	3.99015	25.1937	-17.6919	0.0178436	0.257982	0.29663	0.906089	66.2917	-0.0286665	0
0.1427	7.07345	28.2464	-8.22669	0.936787	0.257982	1.48315	2.12063	65.3822	1.20399	0
0.1433	6.71071	30.6818	3.06796	1.24013	0	1.48315	1.81218	19.304	0.888661	0
0.1440	2.72056	30.3902	18.6237	-0.285497	-0.644955	-0.0423758	-0.0192785	-31.9655	-0.315331	0
0.1447	-3.0833	14.8178	32.0545	-1.81112	-0.902937	-1.2289	-1.85074	-46.3132	-1.83466	0
0.1453	-3.0833	-23.3243	19.8509	0.321184	0	-0.0423758	-0.925368	-25.2516	-0.315331	0
0.1460	0.544112	-60.8662	2.45437	1.54347	0.257982	1.18652	0.597633	4.34314	1.51932	0
0.1467	0	-73.3687	6.42	0.321184	0	0.593261	0.597633	31.5057	0.601996	-0.321855
0.1473	-4.17152	-69.7157	19.2373	-1.81112	-1.54789	-1.2289	-1.23382	33.6415	-1.54799	0
0.1480	-4.53426	-83.1444	27.7821	-1.81112	-1.87037	-1.2289	-1.54228	13.4995	-1.83466	0.321855
0.1487	0	-100.535	33.2704	0.624524	0	0.889891	0.597633	6.78552	0.601996	0
0.1493	3.0833	-104.205	41.213	1.24013	1.4834	1.82216	1.50372	15.3287	1.80599	-0.321855
0.1500	1.81371	-107.549	36.9406	0.0178436	0.580459	-1.5679	0.906089	18.0777	0.286665	0
0.1507	-3.62741	-28.5208	-3.64747	-1.50778	-0.644955	-6.44112	-1.23382	8.92133	-1.54799	0
0.1513	-6.71071	93.5546	-46.9853	-1.20444	-0.644955	-7.33101	-1.85074	3.12706	-1.54799	-0.321855
0.1520	-3.99015	92.6456	-41.7925	0.624524	0.580459	-5.80548	0.289177	3.74021	0.286665	-0.321855
0.1527	-0.544112	23.3586	-15.2489	1.54347	1.4834	-4.27995	2.12063	1.60441	1.20399	-0.321855
0.1533	2.17645	-15.0922	-4.87465	1.24013	0.902937	-2.75443	1.21455	-2.37085	0.601996	0
0.1540	3.44604	-36.4443	6.42	-0.9011	-0.902937	-3.39006	-0.925368	-7.85854	-1.83466	0
0.1547	2.72056	-49.5642	17.7147	-1.81112	-1.54789	-5.21222	-1.85074	-9.99434	-2.14999	0
0.1553	2.53919	-57.8135	6.42	0.0178436	-0.322477	-4.27995	-0.0192785	-3.8935	-0.630663	-0.321855
0.1560	3.0833	-73.0772	-1.51126	1.24013	0.902937	-3.68669	2.12063	-0.837971	0.286665	0
0.1567	3.62741	-83.7446	2.76117	0.321184	0.902937	-4.91559	1.50372	-1.45112	0.286665	0
0.1573	1.26959	-86.7974	-7.01087	-1.50778	-0.644955	-6.73775	-0.925368	-6.02931	-1.54799	-0.321855
0.1580	-1.45096	-91.6852	-9.45387	-1.81112	-1.54789	-7.03438	-1.54228	-20.6836	-2.14999	0
0.1587	0.362741	-23.633	2.76117	0.0178436	0	-4.27995	1.21455	-24.0355	0.601996	0
0.1593	1.81371	91.7195	1.53398	0.936787	1.4834	-1.86453	2.42909	-2.97378	2.12132	0.321855
0.1600	0	94.4635	-8.84028	-0.588837	0.580459	-2.4578	1.50372	24.7917	1.20399	0
0.1607	-3.26467	33.443	-11.2833	-1.81112	-0.644955	-4.61896	-0.0192785	44.3205	-1.54799	0.321855
0.1613	-4.89701	26.4114	-12.1923	-2.11446	-1.22541	-7.33101	-1.23382	47.6826	-2.14999	-0.321855
0.1620	-2.35782	45.9455	-19.2145	-3.0334	-1.54789	-9.49218	-2.44837	21.1332	-0.630663	-1.93113
0.1627	2.53919	44.7278	-19.5213	-1.81112	-0.644955	-0.932267	-2.15919	-8.47169	0.888661	-1.93113
0.1633	6.1666	27.9377	-13.1127	0.0178436	0.580459	14.6196	-1.54228	-19.1507	0.888661	-0.321855
0.1640	2.72056	17.8705	-14.6353	-1.50778	-1.22541	17.9673	-3.06528	-45.3935	-1.23266	0
0.1647	-2.17645	22.141	-21.044	-2.11446	-2.77331	11.8652	-4.27983	-74.6919	-1.54799	0
0.1653	-0.906853	33.1343	-23.7938	0.0178436	-0.902937	7.62764	-1.23382	-73.7823	0.888661	0
0.1660	1.26959	40.7661	-25.93	1.24013	0.580459	6.10211	1.50372	-66.7618	2.12132	-0.321855
0.1667	1.81371	31.6079	-16.7715	0.624524	0.257982	4.87321	-0.0192785	-44.484	1.20399	-0.321855
0.1673	1.81371	11.1648	11.6128	-1.20444	-1.54789	1.82216	-2.75682	5.87602	-1.23266	0
0.1680	1.26959	6.27699	27.1685	-1.50778	-1.87037	1.18652	-2.44837	16.2485	-1.54799	0.321855
0.1687	0.544112	13.6001	22.5893	1.54347	0	3.00868	1.21455	5.26287	0.286665	0.321855
0.1693	0.362741	14.8178	20.4531	3.68469	0.257982	3.34769	2.42909	36.697	0.888661	0.321855
0.1700	2.72056	6.27699	16.7943	2.46241	-0.322477	2.41542	0.906089	69.3472	0.286665	0
0.1707	5.44112	-2.26383	2.76117	0.0178436	-1.22541	0.593261	-1.54228	81.2526	-1.83466	0
0.1713	6.71071	2.31528	-10.0561	-0.9011	-1.22541	-0.339006	-2.15919	87.3534	-2.46532	0
0.1720	7.61756	10.5474	-12.1923	1.24013	0.580459	1.48315	0.906089	69.6538	0.601996	0
0.1727	5.80386	5.36802	-3.04524	2.15907	1.4834	2.71205	2.42909	34.8678	1.80599	-0.321855
0.1733	-0.906853	-5.62528	18.3169	0.624524	0.902937	1.82216	1.81218	2.82049	0.601996	0
0.1740	-8.16168	-8.67802	27.1685	-1.50778	-0.322477	-0.932267	-0.327734	-16.1054	-1.23266	0
0.1747	-9.06853	-16.0012	4.59058	-1.81112	-1.22541	-1.5679	-1.23382	-14.8791	-1.83466	0
0.1753	-5.07838	-28.8124	-15.8625	-0.588837	-0.322477	-0.0423758	0.289177	-11.5272	-0.630663	0
0.1760	-0.906853	-30.9562	-14.3285	0.321184	0.257982	0.29663	0.289177	-13.0499	0.286665	0
0.1767	1.81371	-25.1594	-12.4991	0.0178436	0.580459	0.29663	-0.616912	-25.5581	0.286665	0.321855
0.1773	0.362741	-14.4748	-10.9765	-2.73006	0	-0.635637	-1.85074	-54.8565	-0.945994	0
0.1780	-1.26959	0.788911	13.1354	-3.64009	-1.22541	-1.2289	-2.75682	-67.6713	-1.23266	0
0.1787	0	13.6001	46.3944	-1.50778	-0.322477	-0.0423758	-0.327734	-49.6651	1.20399	0.321855
0.1793	-5.80386	39.5313	35.1111	0.624524	0.580459	1.82216	1.81218	-2.97378	2.43665	0
0.1800	-14.691	64.5706	-1.51126	0.624524	0.580459	1.48315	1.21455	61.7237	0.888661	-0.321855
0.1807	-14.3283	25.8111	1.53398	-0.588837	-0.322477	-0.635637	-1.23382	80.3328	-1.23266	0
0.1813	-10.8822	-46.2199	25.0323	-0.9011	0	-0.339006	-0.925368	60.1909	-2.14999	0.321855
0.1820	-9.06853	-64.8279	18.0214	1.54347	1.80587	3.34769	2.12063	61.1106	-0.315331	0
0.1827	-4.53426	-58.1222	-0.909026	2.46241	2.70881	6.69537	3.33518	51.3411	1.51932	-0.321855
0.1833	4.35289	-62.7013	8.86301	1.24013	1.80587	6.39874	2.42909	-24.9552	1.20399	-0.321855
0.1840	7.98031	-58.1222	18.9305	-0.9011	0.257982	2.11879	0.289177	-118.644	-1.54799	-0.321855
0.1847	5.44112	-59.9401	6.1132	-1.20444	0.257982	1.18652	-1.23382	-97.8894	-2.14999	0
0.1853	5.44112	-58.4137	6.7268	0.321184	0.580459	1.48315	-0.925368	-17.6281	-0.315331	-0.321855
0.1860	4.89701	6.87725	11.306	-0.285497	0	-3.09343	-2.44837	-51.5046	-0.0286665	-1.60928
0.1867	0.544112	84.3963	-1.81805	0.0178436	0.257982	-2.75443	-2.15919	-113.147	-0.0286665	-0.965566
0.1873	-5.07838	73.1115	-1.20446	-0.588837	-0.902937	-0.339006	-0.327734	-62.4902	-1.23266	0
0.1880	-6.34797	27.9377	7.63582	-0.9011	-2.45083	-1.2289	-0.925368	15.9419	-2.46532	0
0.1887	-3.62741	14.8178	0.0113628	1.24013	-0.644955	0.593261	1.50372	34.5612	-0.315331	-0.321855
0.1893	-3.26467	14.2175	-11.5901	2.15907	0.902937	2.11879	4.85818	33.3349	2.12132	0
0.1900	-5.80386	19.3969	-13.7263	0.936787	0.257982	2.71205	5.47509	26.6209	2.72332	0.321855
0.1907	-6.71071	22.4497	-9.14708	-2.11446	-2.45083	-1.5679	2.42909	5.87602	0.286665	-0.321855
0.1913	-4.89701	17.8705	-7.6131	-4.86237	-4.3212	-11.611	-2.44837	0.378109	-1.83466	-2.25299
0.1920	0	10.5474	-6.70407	-2.42672	-1.54789	-11.0177	-0.327734	11.3637	-0.315331	-1.93113
0.1927	5.80386	4.13321	-4.87465	1.54347	0.257982	-3.09343	3.64364	39.1394	0.601996	0
0.1933	6.1666	4.13321	-14.0217	1.84681	0	-3.09343	-1.85074	77.2875	-0.630663	0.321855
0.1940	3.62741	-0.137202	-34.168	0.624524	-0.644955	-6.14449	-12.2226	29.983	-1.83466	0
0.1947	0.906853	-4.40761	-54.3143	0.0178436	-0.644955	-5.21222	-17.1	-65.2391	-2.75198	0
0.1953	0.544112	14.5091	-49.7351	1.54347	0.902937	-2.75443	-16.1939	-65.5355	-1.23266	0
0.1960	4.35289	36.4957	-18.2942	1.84681	0.580459	-2.16116	-16.5024	-19.4573	0.601996	0
0.1967	4.35289	27.0288	-10.0561	0.624524	0	-3.39006	-18.623	-6.33588	0.601996	0
0.1973	-2.17645	10.2387	-17.0783	-0.588837	-0.902937	-4.61896	-19.5484	-9.39141	-0.630663	0
0.1980	-4.53426	16.3442	0.0113628	-1.50778	-1.22541	-4.61896	-19.5484	-0.235041	-0.630663	0
0.1987	-2.35782	29.7728	10.3856	-0.588837	0.257982	-2.75443	-18.3338	13.8061	1.20399	0
0.1993	-1.81371	25.1937	12.215	1.24013	1.4834	-0.339006	-15.8855	8.30818	2.12132	0
0.2000	-1.81371	-6.84295	23.8165	1.54347	1.22541	1.18652	-12.2226	37.6065	1.20399	0.321855
0.2007	-6.34797	-16.9101	12.5218	-0.9011	-0.322477	1.48315	-9.17656	94.374	-1.23266	0.321855
0.2013	-12.8773	24.885	-12.1923	-1.50778	-0.644955	3.34769	-6.41974	87.66	-2.14999	0
0.2020	-9.06853	40.1487	-6.09048	0.624524	0.257982	7.62764	-1.85074	39.7423	0.601996	0
0.2027	-0.906853	9.32973	8.24941	1.54347	0.580459	9.74643	3.02672	-4.50665	2.12132	0.321855
0.2033	0.362741	-10.5131	5.20418	0.321184	0.257982	8.51753	9.75492	-12.7433	0.601996	0
0.2040	-1.26959	-22.4154	12.5218	-1.50778	-0.902937	4.53421	14.0155	4.64972	-1.54799	-0.321855
0.2047	2.17645	-28.5208	26.2595	-1.20444	-1.54789	2.41542	15.8469	-8.47169	-1.23266	0
0.2053	4.53426	-14.1661	13.4422	0.321184	0	3.00868	19.5098	-1.7577	1.20399	0
0.2060	2.53919	-13.5658	-10.3629	1.24013	0.580459	3.00868	21.0328	18.3843	2.12132	0
0.2067	0.544112	-46.8201	-7.91989	0.321184	0	0.593261	18.9122	-20.0704	1.51932	0
0.2073	-0.362741	-59.0311	17.1011	-1.81112	-1.22541	-3.39006	13.7263	-60.0478	-0.630663	0
0.2080	-2.17645	-26.0684	24.4301	-1.81112	-1.54789	-4.27995	8.23192	-46.6198	-1.83466	-0.321855
0.2087	-3.99015	-7.76906	8.55621	0.321184	0	-2.4578	8.52109	-15.4923	-0.0286665	0
0.2093	-3.0833	-27.5947	-1.20446	1.54347	1.22541	-1.5679	9.44646	-22.5128	1.80599	0.321855
0.2100	1.26959	-60.8662	2.76117	1.24013	1.22541	-2.16116	7.92346	-69.8071	1.51932	0.321855
0.2107	2.72056	-84.6707	4.28379	-1.20444	-0.902937	-4.27995	5.16664	-78.9635	-0.630663	0
0.2113	1.26959	-72.7685	0.0113628	-2.11446	-1.87037	-4.91559	3.95209	-26.1713	-1.54799	-0.321855
0.2120	1.26959	-57.8135	-3.04524	0.936787	0.580459	-2.4578	5.78355	12.2834	0.888661	0
0.2127	1.26959	-73.9861	-0.909026	1.84681	1.80587	-2.16116	6.68964	25.4048	1.80599	0.321855
0.2133	1.26959	-89.8501	15.2716	0.624524	0.902937	-3.39006	6.092	45.8534	0.601996	0
0.2140	-0.362741	-92.9028	32.0545	-1.50778	-0.644955	-5.21222	3.02672	10.1476	-1.23266	-0.321855
0.2147	-3.26467	-73.9861	31.441	-2.11446	-1.54789	-5.50885	1.81218	-59.1281	-2.14999	-0.321855
0.2153	-4.17152	34.6606	31.1342	0.0178436	0	-2.75443	5.78355	-55.163	-0.630663	-0.321855
0.2160	-2.72056	171.983	41.213	1.54347	1.22541	-0.339006	9.13801	-19.1507	0.888661	-0.321855
0.2167	0.362741	175.653	39.0768	0.624524	0.580459	-0.635637	8.23192	-9.39141	0.601996	0
0.2173	2.53919	89.9016	12.215	-1.20444	-1.22541	-2.75443	6.092	-7.55196	-1.54799	0
0.2180	3.62741	48.0893	-27.4526	-1.50778	-1.54789	-2.4578	4.26055	-3.28035	-2.46532	0
0.2187	3.0833	41.6751	-46.6785	0.0178436	-0.322477	2.11879	4.26055	5.87602	-0.315331	0
0.2193	3.44604	29.4641	-25.3164	0.936787	0.257982	8.2209	3.95209	14.1127	0.286665	0
0.2200	4.53426	16.3442	-3.34067	-0.9011	-0.902937	7.28863	0.597633	13.1929	-0.945994	-1.28742
0.2207	1.26959	5.96828	-10.3629	-4.25569	-3.35377	-0.0423758	-3.68219	9.2279	-2.75198	-2.25299
0.2213	-3.0833	-16.9101	-21.9644	-3.33675	-2.45083	-0.932267	-2.15919	11.9769	-2.46532	-0.965566
0.2220	-2.72056	-48.0378	-25.3164	0.321184	0.580459	0.29663	3.95209	19.9069	0.601996	0.321855
0.2227	-1.45096	-69.407	-14.6353	1.24013	1.80587	-2.16116	6.092	18.6908	1.51932	0
0.2233	-1.26959	-88.3237	6.42	0.0178436	1.4834	-3.68669	4.85818	4.34314	0.601996	-0.321855
0.2240	-2.17645	-92.5941	2.14757	-2.11446	0	-5.21222	1.81218	-7.25561	-0.945994	0
0.2247	-3.26467	-77.9478	-18.2942	-3.0334	-0.902937	-5.50885	-0.0192785	-16.7083	-2.14999	0.321855
0.2253	-1.45096	-77.9478	-17.9987	-0.285497	0.902937	-3.39006	0.906089	-25.8647	-0.630663	0
0.2260	1.81371	-11.1134	-7.01087	2.15907	3.03129	-1.86453	0.289177	-21.8997	0.888661	-0.64371
0.2267	1.26959	149.396	-3.95426	2.15907	2.12835	-2.16116	-0.616912	-13.3564	0.286665	-0.321855
0.2273	-1.26959	199.749	-0.295434	0.0178436	-0.644955	-5.21222	-0.925368	-11.8236	-1.83466	0
0.2280	0	120.103	7.34039	-0.9011	-1.22541	-7.03438	-2.15919	-9.08484	-2.75198	-0.321855
0.2287	3.0833	73.4202	7.03359	0.624524	1.22541	-3.39006	-2.75682	-4.50665	-0.0286665	0
0.2293	3.44604	63.9532	0.0113628	1.24013	3.03129	-0.339006	-1.85074	1.90076	1.80599	0
0.2300	2.72056	45.6368	-3.95426	0.624524	1.80587	-1.5679	-1.54228	19.304	1.20399	0
0.2307	-0.362741	21.232	-7.01087	-1.20444	-1.22541	-3.98332	-3.68219	32.1188	-0.945994	0
0.2313	-3.26467	-0.137202	-9.45387	-2.11446	-2.45083	-3.98332	-4.58828	29.6764	-2.14999	0
0.2320	0	-14.4748	-9.14708	-0.285497	-0.644955	-1.2289	-2.44837	21.4398	-0.315331	-0.321855
0.2327	3.0833	-8.98672	-7.91989	1.24013	0.902937	2.41542	-2.15919	11.0571	1.51932	-0.321855
0.2333	0.906853	9.63843	-5.18145	0.321184	0.257982	6.992	-3.68219	3.12706	0.601996	0
0.2340	-1.81371	19.7056	0.0113628	-2.11446	-1.22541	13.3907	-5.51365	3.43364	-1.83466	0
0.2347	-2.17645	24.2847	5.80641	-2.42672	-1.22541	20.1285	-7.34511	6.78552	-2.14999	0
0.2353	0.544112	11.4564	8.24941	-0.285497	1.22541	22.8829	-5.20519	8.30818	-0.0286665	0
0.2360	2.17645	27.3375	10.9992	0.321184	1.4834	16.4418	-1.23382	4.03657	0.601996	0
0.2367	1.63234	88.0665	16.1807	-0.285497	0.257982	4.87321	0.289177	0.684684	-0.0286665	0.321855
0.2373	2.17645	82.2697	19.5441	-2.42672	-1.54789	-2.16116	-0.327734	-0.541616	-1.23266	0
0.2380	3.44604	17.5618	18.0214	-3.33675	-0.902937	-1.5679	1.21455	-6.64246	-1.54799	0
0.2387	4.53426	-23.3243	9.4766	-1.50778	1.4834	0.29663	5.16664	-19.7639	0.888661	0.321855
0.2393	3.44604	-49.5642	12.8286	0.0178436	2.45083	-0.0423758	6.99809	-23.4223	2.12132	0.321855
0.2400	0.362741	-78.2565	36.0202	1.24013	0.902937	-0.932267	5.47509	19.304	0.601996	0
0.2407	-2.72056	-100.843	29.6115	1.54347	-0.902937	-3.98332	3.02672	73.9254	-1.83466	-0.321855
0.2413	-3.62741	-92.5941	-18.2942	1.54347	-1.22541	-5.50885	2.42909	54.3966	-3.06731	-0.321855
0.2420	0.906853	-61.1749	-40.2699	2.15907	0	0.889891	4.26055	1.60441	-0.945994	0
0.2427	5.25975	-11.1134	-19.8281	2.15907	0	9.4498	4.85818	-0.541616	1.20399	0
0.2433	3.62741	49.6156	-0.295434	1.54347	-0.902937	13.3907	3.95209	22.6559	1.51932	-0.321855
0.2440	0.362741	51.7423	3.06796	-0.588837	-2.12835	15.2553	0.906089	21.1332	-0.630663	-0.321855
0.2447	-0.906853	18.1793	-1.20446	-0.9011	-2.45083	18.3063	-2.75682	-0.541616	-2.46532	0
0.2453	-1.45096	12.3825	-5.78368	0.936787	-0.322477	20.7218	-5.20519	-17.3215	-0.630663	-0.321855
0.2460	-2.17645	20.3059	-7.6131	2.15907	1.22541	18.8996	-8.2512	-23.7289	1.51932	0
0.2467	1.26959	19.3969	1.53398	0.936787	0.902937	13.0941	-9.7742	-20.6836	1.51932	0
0.2473	2.53919	-1.97228	6.1132	-1.50778	-0.644955	7.92427	-8.2512	-4.50665	-0.945994	0
0.2480	0.362741	-27.5947	-10.3629	-1.50778	-0.644955	5.46648	-6.11128	20.8267	-1.54799	0
0.2487	-0.362741	-29.4298	-21.044	1.54347	1.22541	7.28863	-2.75682	47.376	0.601996	0
0.2493	-2.17645	-14.1661	-20.4304	2.46241	1.80587	7.92427	-0.327734	55.9193	1.51932	0
0.2500	-7.07345	-8.36932	-28.373	-2.11446	-1.22541	-5.21222	-4.27983	19.304	-0.0286665	-1.93113
0.2507	-7.98031	-23.0156	-35.0884	-5.78131	-3.09578	-17.1198	-8.86811	-18.2412	-2.46532	-2.25299
0.2513	-4.89701	-32.7913	-23.487	-3.0334	-0.902937	-11.9076	-5.51365	-16.4018	-2.46532	-0.321855
0.2520	-2.72056	-25.4681	-5.78368	0.0178436	1.80587	-4.61896	-0.0192785	-9.39141	-0.630663	0.321855
0.2527	-1.26959	-16.0012	-1.20446	0.321184	2.12835	-5.21222	0.289177	-8.77826	0.601996	-0.321855
0.2533	-0.906853	-5.31657	5.49961	0.321184	1.4834	-7.96665	-0.925368	-6.02931	0.286665	0
0.2540	-2.72056	6.58569	14.6581	-1.81112	-0.322477	-9.49218	-2.15919	-2.06427	-1.54799	0
0.2547	-2.35782	1.38917	10.3856	-2.73006	-0.902937	-7.33101	-3.06528	-1.7577	-3.06731	0
0.2553	0.544112	-16.3099	6.7268	-0.285497	-0.322477	-4.27995	-0.616912	-12.7433	-1.23266	0
0.2560	1.63234	-16.0012	4.89738	0.936787	-0.322477	-3.68669	2.42909	-13.0499	0.888661	-0.321855
0.2567	0.544112	-0.137202	-1.81805	0.321184	0	-3.98332	3.33518	-9.68777	1.20399	-0.321855
0.2573	0.906853	11.7651	-4.87465	-0.9011	-1.22541	-5.21222	1.50372	-20.0704	-0.630663	0
0.2580	0.544112	15.4352	-3.34067	-1.50778	-1.87037	-5.21222	-0.616912	-11.5272	-1.83466	0
0.2587	0.544112	15.4352	-2.43165	0.321184	0	-3.68669	-0.925368	7.70525	-0.630663	-0.321855
0.2593	1.63234	15.4352	-1.81805	2.15907	0.902937	-2.4578	-1.23382	7.0921	0.888661	-0.321855
0.2600	1.81371	7.80336	-0.909026	2.15907	0.902937	-1.86453	-2.75682	2.82049	3.03865	0
0.2607	-0.906853	-11.1134	-2.12485	-0.588837	-0.644955	-3.09343	-4.89674	2.82049	2.72332	0.321855
0.2613	-3.62741	-16.9101	-2.12485	-1.20444	-1.22541	-2.75443	-3.06528	-1.45112	1.80599	0
0.2620	-3.26467	-5.31657	-0.909026	0.0178436	0.580459	-0.339006	3.02672	-4.81323	3.35398	0
0.2627	-1.45096	2.60684	-1.20446	0.321184	1.22541	0.889891	6.40046	-4.81323	3.64064	-0.321855
0.2633	0	3.84165	-2.73844	-0.285497	0.257982	-0.0423758	6.40046	-8.16511	2.12132	-0.321855
0.2640	-0.906853	2.00658	-4.26106	-1.20444	-0.644955	-1.86453	6.40046	-6.33588	0.286665	0
0.2647	-1.26959	3.22424	-4.26106	-1.20444	-1.22541	-3.09343	8.52109	-0.837971	-0.630663	0
0.2653	0.362741	9.02103	-3.34067	0.936787	-0.322477	-2.4578	11.2779	-2.97378	-1.54799	0
0.2660	1.26959	-21.798	-2.12485	3.37243	0.902937	-1.2289	12.8009	-6.94903	-2.14999	-0.321855
0.2667	0.906853	-91.6852	-0.909026	3.37243	0.580459	-1.86453	12.8009	-2.37085	-1.83466	-0.321855
0.2673	-2.17645	-130.445	-1.51126	0.321184	-1.54789	-4.27995	10.0634	3.74021	-2.46532	0
0.2680	-4.17152	-130.136	-1.20446	-0.9011	-1.54789	-5.50885	6.68964	-2.37085	-2.46532	0.321855
0.2687	-2.35782	-131.971	1.22719	0.936787	0.580459	-4.27995	5.47509	-10.6075	-0.315331	0
0.2693	0.362741	-133.806	3.3634	1.54347	1.4834	-3.09343	4.26055	-1.7577	0.888661	-0.321855
0.2700	0	-137.768	3.67019	0.624524	0.257982	-5.21222	1.50372	11.9769	0.888661	-0.321855
0.2707	-3.0833	-97.1732	1.53398	-1.20444	-0.902937	-10.0854	-2.44837	15.6353	-0.630663	0
0.2713	-4.53426	73.1115	1.22719	-1.50778	-0.644955	-11.611	-5.82211	14.7258	-0.630663	0
0.2720	-1.81371	204.637	5.80641	0.0178436	0.902937	-10.3821	-10.0827	16.2485	1.20399	0
0.2727	2.17645	139.637	9.4766	0.936787	1.22541	-8.26328	-13.7456	17.1682	1.80599	0
0.2733	3.0833	54.1948	5.20418	0.321184	0.257982	-7.33101	-12.531	14.4192	0.601996	0
0.2740	1.81371	49.6156	-6.39727	-1.50778	-1.54789	-7.33101	-11.008	5.26287	-1.83466	-0.321855
0.2747	0.544112	52.9599	-14.6353	-1.81112	-1.87037	-5.50885	-11.3165	-6.02931	-2.46532	0
0.2753	1.63234	45.9455	-16.4647	-0.9011	0.257982	-2.4578	-8.86811	-9.99434	-0.0286665	0
0.2760	3.0833	42.2925	-12.8059	-0.9011	1.4834	-1.5679	-6.11128	-10.3009	1.80599	0
0.2767	3.44604	38.931	3.06796	-2.42672	0.580459	-1.86453	-5.20519	-13.663	1.20399	0
0.2773	3.0833	28.2464	24.1233	-3.33675	-1.22541	-2.16116	-5.20519	-18.2412	-0.945994	0.321855
0.2780	2.17645	18.1793	24.4301	-3.0334	-1.22541	-1.2289	-6.72819	-16.1054	-1.23266	0
0.2787	0.362741	16.6529	8.55621	0.0178436	0.580459	2.41542	-9.7742	-9.08484	0.601996	-0.321855
0.2793	0	15.7439	0.318159	3.37243	1.80587	5.46648	-14.3625	-7.55196	1.20399	0
0.2800	2.72056	10.2387	-8.22669	1.24013	0	2.11879	-25.3512	-8.16511	0.286665	-1.28742
0.2807	2.72056	6.58569	-17.9987	-3.95235	-2.77331	-2.16116	-33.8916	-6.64246	-1.54799	-2.25299
0.2813	1.63234	14.2175	-7.6131	-2.11446	-1.54789	4.23758	-30.5371	7.39867	-2.14999	-1.28742
0.2820	1.26959	32.8256	3.97699	2.46241	1.4834	10.3397	-26.2573	33.3349	0.601996	0.321855
0.2827	-1.45096	34.6606	-6.70407	3.06909	1.80587	8.2209	-25.9489	43.7176	-0.0286665	0
0.2833	-4.89701	6.87725	-17.9987	1.84681	0	5.46648	-24.4259	38.8328	-6.73662	-0.321855
0.2840	-6.1666	-14.4748	-17.3851	-0.285497	-2.77331	2.11879	-22.9029	26.018	-12.8426	-0.321855
0.2847	-5.07838	-3.49865	-22.2711	-1.20444	-2.77331	0.593261	-18.9315	-1.45112	-12.2119	0
0.2853	-0.906853	12.3825	-25.93	0.624524	-0.644955	1.18652	-10.6996	-13.3564	-8.25595	0
0.2860	3.62741	14.8178	1.22719	0.936787	0.257982	-4.27995	-3.37374	1.60441	-7.94062	-0.321855
0.2867	5.25975	13.9088	29.3047	0.0178436	0	-11.9076	1.21455	5.26287	-11.0079	0
0.2873	2.72056	9.02103	27.1685	-3.64009	-2.12835	-20.4675	3.95209	-8.16511	-14.0466	-0.64371
0.2880	-0.362741	-0.137202	29.6115	-6.69133	-3.35377	-29.324	6.40046	-17.0149	-16.7986	-1.93113
0.2887	-0.362741	-10.5131	27.1685	-2.73006	-1.22541	-25.3407	14.0155	-17.6281	-11.0079	-0.965566
0.2893	0	-16.0012	5.49961	2.15907	0.902937	-17.1198	23.1728	-21.2865	14.9352	0
0.2900	0	-10.2044	2.45437	1.54347	0.580459	-16.1875	28.9756	-24.9552	33.2531	-0.321855
0.2907	-0.906853	0.788911	10.6924	-1.50778	-0.902937	-17.1198	32.9469	-5.41616	21.0412	-0.321855
0.2913	-3.99015	7.80336	6.7268	-3.0334	-1.22541	-15.2977	36.3014	26.3143	7.30995	0
0.2920	-3.99015	8.11206	0.931752	-0.9011	1.22541	-9.49218	35.0869	33.0283	6.39263	0.321855
0.2927	-0.906853	3.53295	0.318159	0.936787	2.70881	-5.80548	27.1441	19.9069	6.0773	0
0.2933	-0.362741	3.53295	-1.81805	0.321184	1.22541	-7.03438	17.0807	12.59	3.64064	0
0.2940	-3.26467	8.71232	-8.84028	-1.20444	-0.902937	-8.85654	9.75492	6.47895	1.20399	0
0.2947	-3.62741	-1.04616	-7.31766	-1.81112	0	-4.91559	1.81218	-1.45112	0.601996	0
0.2953	-1.81371	-17.5275	8.55621	0.321184	2.12835	3.34769	-7.34511	-4.81323	2.43665	0
0.2960	-3.0833	-14.7835	14.0445	1.54347	2.12835	6.69537	-12.531	-9.99434	2.72332	0.321855
0.2967	-4.53426	-6.84295	-2.43165	0.936787	0.580459	6.39874	-14.3625	-13.0499	1.51932	0
0.2973	-4.17152	-9.58698	-17.6919	0.0178436	-0.902937	6.39874	-16.5024	-13.0499	-0.315331	0
0.2980	-2.35782	-9.29543	-20.7372	0.0178436	-0.644955	6.69537	-16.5024	-22.8194	0.286665	0
0.2987	3.99015	3.53295	-11.5901	1.54347	1.4834	8.81416	-13.4371	-35.3276	2.72332	0
0.2993	8.88716	16.3442	8.86301	1.54347	2.45083	15.5519	-11.6057	-38.9861	2.12132	0
0.3000	5.44112	11.7651	19.8509	1.24013	1.22541	21.3574	-11.9141	-28.9202	-1.23266	-0.321855
0.3007	1.63234	-2.88124	21.3735	0.0178436	0	17.9673	-11.9141	-24.6486	-4.58664	0
0.3013	5.44112	-1.04616	28.9979	0.936787	0	10.0431	-7.65356	-42.6548	-4.58664	0
0.3020	9.2499	-6.53424	20.4531	2.76575	0.580459	4.23758	-1.54228	-48.7556	-2.14999	-0.321855
0.3027	3.99015	-42.241	-4.56786	2.46241	0.902937	3.94095	2.73755	-29.8297	-0.0286665	-0.321855
0.3033	-3.0833	-55.9784	-11.2833	0.936787	0.902937	3.00868	5.47509	-17.6281	-0.315331	-0.321855
0.3040	-6.1666	-37.9706	-0.909026	-0.9011	-0.322477	-12.8399	6.99809	-20.6836	-0.630663	0
0.3047	-4.17152	-21.4892	-0.60223	-0.588837	-0.644955	-28.3918	9.75492	-43.2577	5.15997	0
0.3053	-2.72056	-6.53424	-6.09048	1.54347	0.902937	-29.6207	12.4925	-43.8709	8.22728	-0.321855
0.3060	-2.35782	0.788911	-1.20446	2.15907	0.580459	-30.2139	12.184	11.0571	5.79063	-0.321855
0.3067	-1.45096	1.08046	0.318159	0.936787	0	-32.0785	14.3239	57.4419	7.30995	0
0.3073	-2.72056	27.0288	-5.18145	-1.20444	-1.22541	-27.1629	15.5577	55.0098	8.54261	0
0.3080	-4.53426	49.9072	1.84078	-2.73006	-1.87037	-18.3487	9.75492	15.9419	7.62529	0
0.3087	-2.35782	22.7584	9.1698	-0.9011	0	-2.4578	6.092	-9.39141	9.14461	0
0.3093	-0.544112	-7.76906	3.67019	0.0178436	0.902937	10.6787	5.16664	23.8822	10.3486	-0.321855
0.3100	-3.26467	-10.8218	-0.60223	-3.95235	-0.902937	7.92427	-1.54228	76.6744	8.22728	-1.93113
0.3107	-7.25482	-9.29543	-0.60223	-6.69133	-2.12835	6.39874	-5.20519	89.4892	4.55797	-2.25299
0.3113	-7.25482	-6.84295	2.14757	-5.16571	-0.644955	5.46648	1.21455	65.9954	2.72332	-0.321855
0.3120	-5.07838	-3.7902	7.34039	-4.25569	0.580459	-6.73775	7.61501	46.16	-1.83466	0
0.3127	-3.62741	-2.88124	7.94262	-3.64009	0.902937	-20.4675	13.1094	25.7114	-7.94062	-0.321855
0.3133	-2.72056	-3.49865	4.59058	-3.0334	0	-21.0608	19.8183	-8.16511	-7.94062	0
0.3140	-3.26467	-6.53424	-2.73844	-5.78131	-1.54789	-10.7211	21.9582	-26.1713	-7.02329	0
0.3147	-2.35782	-8.06061	-13.4195	-6.69133	-1.54789	-3.39006	23.7897	-7.85854	-5.2173	-0.321855
0.3153	0.362741	-4.40761	-18.9077	-3.0334	0.257982	2.11879	29.284	15.0222	-4.90197	-0.321855
0.3160	1.26959	1.08046	-14.9421	-0.9011	1.22541	12.2042	31.7324	18.0777	-14.6772	0
0.3167	-0.544112	7.80336	-12.8059	-0.285497	0.580459	19.8319	28.3587	12.8864	-25.0545	0
0.3173	-1.81371	11.7651	-19.2145	-0.588837	-1.54789	17.9673	20.1267	4.03657	-28.4085	0
0.3180	0.544112	5.36802	-2.43165	-0.285497	-1.22541	18.603	11.5864	-4.50665	-25.6565	0
0.3187	4.89701	-3.49865	30.8387	1.24013	0.580459	25.0017	7.61501	4.64972	-21.0699	0
0.3193	3.44604	-1.04616	21.9871	2.76575	1.4834	23.7728	6.092	31.5057	-20.1525	0
0.3200	1.26959	1.08046	-11.5901	3.06909	1.80587	21.654	1.50372	55.3061	-22.5892	0
0.3207	2.72056	-4.09891	-12.1923	1.54347	0.580459	18.8996	-7.03665	62.3267	-31.7625	0
0.3213	3.44604	-6.24269	11.306	1.24013	0	12.2042	-11.008	44.0139	-34.8011	0
0.3220	0.544112	-5.93398	15.8852	1.54347	1.22541	15.5519	-7.65356	-9.39141	-21.0699	-0.321855
0.3227	0	-4.71632	-6.70407	0.0178436	0.902937	29.2817	-4.89674	-59.7412	-18.3179	-0.321855
0.3233	0.544112	-1.35487	-22.2711	-0.9011	-0.322477	38.7315	-4.89674	-52.1075	-24.1372	0
0.3240	-1.81371	5.96828	-9.74931	0.321184	-1.54789	43.0114	-6.11128	-20.6836	-3.98464	0
0.3247	-3.62741	13.2914	5.49961	3.06909	-1.54789	42.0792	-6.72819	-24.342	29.5838	0
0.3253	-4.89701	10.2387	6.7268	5.51366	0.580459	34.4515	-4.27983	-32.2721	37.2091	0.321855
0.3260	-5.44112	2.60684	12.5218	7.03928	2.12835	26.5272	-2.44837	0.684684	14.3332	0
0.3267	-3.26467	-3.18994	17.4079	6.12034	0.902937	17.9673	-2.75682	26.9275	0.601996	-0.321855
0.3273	-3.62741	-9.58698	10.0788	3.37243	-0.902937	6.10211	-4.89674	21.4398	5.4753	-0.321855
0.3280	-4.17152	-8.36932	3.97699	3.06909	-0.322477	-0.339006	-5.82211	14.4192	6.99462	-0.321855
0.3287	-1.26959	0.788911	5.49961	4.89806	1.4834	0.889891	-4.27983	-22.5128	11.5813	-0.321855
0.3293	0.544112	5.36802	8.24941	3.68469	1.4834	1.82216	-0.925368	-72.2495	20.4392	-0.321855
0.3300	-1.81371	0.788911	4.28379	1.24013	0.257982	-0.932267	0.597633	-72.8626	19.2065	0
0.3307	-3.26467	-8.98672	-9.14708	-1.50778	-0.902937	-5.50885	-1.85074	-52.4141	10.3486	0
0.3313	-1.26959	-15.3838	-18.2942	-2.73006	-0.902937	-8.85654	-3.37374	-45.7001	4.55797	0
0.3320	2.17645	-12.6397	-16.7715	-1.20444	0.257982	-10.0854	-0.616912	-19.1507	1.51932	0
0.3327	4.35289	-4.09891	-21.6576	-1.81112	0.580459	-10.7211	3.02672	23.8822	-1.54799	-0.321855
0.3333	3.99015	3.22424	-26.839	-4.55903	-0.322477	-10.3821	4.569	27.8472	6.39263	-0.321855
0.3340	0.906853	8.40362	-2.12485	-6.38799	-1.54789	-11.3143	2.42909	3.74021	22.8759	-0.321855
0.3347	-0.544112	14.8178	23.8165	-5.78131	-1.22541	-13.1365	-1.85074	-4.81323	26.5452	0
0.3353	0.906853	23.976	17.7147	-2.42672	1.4834	-11.611	-6.72819	-1.45112	18.8912	0
0.3360	-0.544112	18.7795	3.3634	-1.20444	2.12835	-9.78881	-9.17656	0.0715341	12.8139	-0.321855
0.3367	-3.99015	7.18595	-5.18145	-1.81112	0.580459	-10.0854	-11.008	-3.28035	9.14461	0
0.3373	-4.17152	7.18595	-3.64747	-1.20444	-0.644955	-10.7211	-16.1939	-12.4367	6.0773	0
0.3380	-1.81371	8.40362	4.28379	0.936787	-0.322477	-9.19554	-18.0254	-14.266	6.0773	0
0.3387	1.26959	6.87725	7.34039	2.46241	1.80587	-5.50885	-14.054	4.34314	8.82928	0
0.3393	1.81371	7.18595	12.8286	2.46241	2.45083	-1.5679	-14.9601	26.9275	9.74661	0
0.3400	1.63234	-0.445906	20.7599	-1.50778	0.580459	-0.635637	-29.3033	28.4501	8.22728	-0.965566
0.3407	1.26959	-23.0156	14.6581	-7.0036	-1.87037	-3.98332	-38.4606	34.2546	6.0773	-2.25299
0.3413	-1.45096	-37.0617	-0.60223	-5.16571	-0.902937	-0.932267	-26.2573	59.8843	5.4753	-0.965566
0.3420	-8.16168	-29.4298	-7.6131	-0.588837	3.03129	6.10211	-12.8395	70.8699	6.99462	0
0.3427	-9.79401	-14.7835	-7.31766	-1.50778	4.57918	7.28863	-8.86811	80.946	10.3486	0
0.3433	-1.45096	-5.00787	-3.04524	-3.33675	2.70881	5.16985	-6.41974	83.3884	12.4986	-0.321855
0.3440	4.35289	-4.40761	1.53398	-3.0334	1.22541	2.71205	-4.89674	94.0674	8.22728	0
0.3447	3.62741	-5.62528	0.624956	-1.20444	0.257982	2.11879	-0.925368	110.847	4.8733	0
0.3453	3.62741	-3.49865	0.931752	3.37243	0.580459	3.94095	5.78355	8.61475	5.4753	0
0.3460	3.99015	-1.66357	1.53398	6.42368	1.80587	6.992	9.13801	-136.037	1.80599	-0.321855
0.3467	0.362741	-0.73746	-3.34067	4.29138	1.80587	6.39874	8.52109	-156.179	-2.46532	0
0.3473	-4.89701	-1.35487	-6.39727	0.0178436	0	0.593261	6.092	-79.5766	-13.7599	0
0.3480	-5.07838	-1.35487	-7.31766	1.54347	-1.22541	-2.4578	-1.85074	-24.6486	-47.615	-0.321855
0.3487	-1.81371	2.60684	-12.4991	6.12034	-0.322477	-2.75443	-15.2686	-64.3194	-84.5375	0
0.3493	-1.81371	5.96828	-16.7715	7.64596	0.580459	-7.33101	-23.8282	-100.332	-96.1474	0.321855
0.3500	-3.26467	3.22424	-16.7715	5.817	-0.644955	-17.1198	-25.6597	-52.1075	-87.9201	0
0.3507	-5.44112	0.480207	-21.6576	1.54347	1.80587	-23.2219	-25.0428	7.0921	-86.6875	-0.321855
0.3513	-6.34797	2.60684	-13.1127	-1.50778	11.6092	-20.7641	-19.8568	28.7567	-98.2687	-0.321855
0.3520	-2.35782	4.44191	16.1807	-1.20444	17.3493	-18.942	-11.9141	22.0427	-85.1681	0
0.3527	0.906853	3.84165	23.5097	-2.42672	17.0913	-21.6964	-2.75682	7.70525	-5.8193	0
0.3533	0.906853	3.22424	5.20418	-4.25569	17.9942	-24.4508	4.85818	0.684684	90.9301	-0.321855
0.3540	-1.45096	0.788911	-4.56786	-4.25569	16.7688	-27.7985	8.82955	-4.50665	103.429	-0.321855
0.3547	-2.72056	-0.445906	-4.87465	-2.42672	15.2209	-28.0951	17.9868	-12.4367	54.2943	0
0.3553	-0.544112	1.69787	-3.64747	1.54347	13.9955	-22.2897	33.853	-18.2412	28.6665	0
0.3560	0.906853	3.53295	-2.43165	3.68469	6.70753	-16.4842	43.3188	-18.8441	30.5011	0
0.3567	0.362741	4.13321	-2.12485	2.76575	-3.67624	-9.49218	45.1502	-15.4923	41.1937	0
0.3573	-1.81371	4.44191	-2.73844	0.321184	-9.15836	-3.39006	42.1042	-11.2206	40.8784	0
0.3580	-2.35782	5.36802	-2.73844	-1.20444	-11.6092	5.76311	33.5446	-6.02931	20.7259	-0.321855
0.3587	-0.544112	8.40362	-1.51126	0.0178436	-14.963	8.2209	23.7897	-3.58693	3.64064	-0.64371
0.3593	0	9.02103	-1.51126	1.84681	-17.4138	-29.9173	12.184	-9.39141	-3.98464	-0.321855
0.3600	-0.544112	9.02103	-1.81805	2.15907	-18.9617	-71.4456	-0.327734	-19.1507	-7.94062	-0.321855
0.3607	-1.81371	5.96828	-0.60223	0.321184	-18.9617	-70.2167	-12.531	-25.2516	-8.85794	-0.321855
0.3613	-1.26959	-8.36932	3.67019	-0.588837	-14.06	-55.258	-14.3625	-24.0355	-1.83466	0
0.3620	2.17645	-17.8362	7.94262	-0.9011	-8.90038	-42.4605	-2.44837	-13.3564	13.1006	0
0.3627	4.35289	-9.89569	7.94262	-1.50778	-8.5779	-30.2139	7.30655	9.53448	23.1912	0
0.3633	3.44604	2.91554	4.28379	-1.50778	-9.48084	-28.6884	11.8948	24.4851	24.3952	0
0.3640	1.26959	8.11206	-0.60223	-1.50778	-10.7063	-25.3407	13.4178	17.1682	23.4779	0
0.3647	2.17645	3.84165	-3.34067	-0.9011	-10.3838	-6.44112	13.1094	8.92133	21.3565	0
0.3653	3.62741	-8.98672	-2.73844	2.15907	-6.44955	15.5519	14.6324	10.1476	21.9585	-0.321855
0.3660	2.17645	-18.7452	-3.95426	3.98803	-2.77331	30.1716	13.1094	18.6908	24.0798	0
0.3667	0	-14.7835	-7.91989	3.68469	-2.12835	42.0792	5.47509	28.4501	18.8912	0
0.3673	-1.26959	-11.7308	-11.8855	2.76575	-3.67624	46.6557	-3.06528	33.0283	9.14461	-0.321855
0.3680	-0.906853	-10.2044	-15.8625	1.24013	-4.90166	47.2914	-5.51365	30.2896	4.8733	-0.321855
0.3687	1.26959	-5.31657	-9.14708	2.15907	-2.77331	53.0969	-4.89674	13.4995	5.15997	0.321855
0.3693	2.17645	-25.1594	6.42	1.54347	-0.902937	53.9867	-6.41974	2.82049	4.55797	0
0.3700	0.362741	-64.2276	3.3634	-4.55903	-3.09578	43.9437	-10.6996	17.4645	0.601996	-1.93113
0.3707	-3.26467	-91.0678	-15.2489	-8.21696	-4.90166	44.5369	-12.8395	31.5057	-7.65395	-1.93113
0.3713	-4.89701	-107.258	-14.9421	-3.95235	-3.09578	55.8089	-7.94274	8.30818	-12.8426	-0.321855
0.3720	-2.72056	-97.482	2.76117	0.321184	0	52.7578	-2.75682	-38.3832	-0.315331	0.321855
0.3727	-2.35782	-65.4453	3.06796	0.624524	1.22541	39.0281	-3.06528	-46.0067	15.5372	0
0.3733	-2.35782	-55.6697	-9.45387	0.321184	0.580459	29.8749	-4.27983	-7.55196	11.2659	-0.321855
0.3740	-2.17645	-7.76906	-3.04524	-1.20444	-0.902937	21.9507	-6.72819	18.6908	3.03865	0
0.3747	-1.45096	130.17	8.55621	-1.81112	-1.54789	14.9163	-7.94274	-7.85854	6.0773	0
0.3753	1.63234	194.569	5.20418	4.59472	0.580459	11.8652	-4.58828	-56.3791	6.39263	0
0.3760	3.99015	116.141	3.06796	10.0905	2.12835	10.6787	0.289177	-68.8976	4.8733	0
0.3767	1.63234	45.0365	8.24941	8.26157	0.580459	7.28863	3.95209	-43.8709	3.35398	0
0.3773	-0.906853	34.6606	9.77203	4.59472	-1.87037	-6.14449	2.73755	-5.41616	-8.25595	0
0.3780	-0.362741	38.931	7.34039	1.84681	-1.22541	-22.5863	-0.616912	24.7917	-23.5065	0
0.3787	1.81371	31.6079	6.1132	5.817	-0.322477	-32.3751	-7.34511	23.8822	-38.1551	0
0.3793	3.62741	22.141	0.624956	16.7997	-0.322477	-43.9861	-18.623	6.47895	-49.765	0
0.3800	3.44604	20.9233	-6.70407	28.0947	-0.902937	-53.4359	-25.0428	-6.64246	-57.075	0
0.3807	1.63234	19.0882	0.318159	30.8426	-3.09578	-52.8002	-26.8742	-14.266	-60.429	0.321855
0.3813	-0.362741	18.7795	14.3513	28.398	-2.45083	-54.9614	-29.0141	-15.7988	-34.1991	0.321855
0.3820	-1.45096	20.0143	13.1354	30.227	2.12835	-63.4789	-29.9202	-8.47169	10.0619	0
0.3827	-0.362741	14.2175	3.67019	27.1757	4.57918	-61.6568	-36.34	-0.235041	26.2298	0
0.3833	2.17645	5.36802	-0.295434	6.73594	4.57918	-42.4605	-42.1235	2.51391	42.7131	0
0.3840	1.26959	1.69787	-2.12485	-13.7128	2.45083	-22.9253	-39.6944	4.95629	50.3384	0
0.3847	0.906853	2.91554	-2.73844	-11.5805	1.4834	-7.33101	-32.677	6.47895	26.5452	0
0.3853	2.17645	5.36802	-0.909026	5.21032	3.03129	13.7298	-22.5944	6.47895	14.6199	0
0.3860	1.81371	5.65958	-0.295434	15.8897	3.03129	28.985	-14.3625	8.01182	17.0852	-0.321855
0.3867	-0.544112	4.75062	-0.909026	15.5863	2.12835	36.9093	-7.03665	10.7506	18.2892	-0.321855
0.3873	-5.07838	2.31528	-2.43165	9.78719	0	47.8846	3.02672	9.53448	10.0619	0
0.3880	-6.34797	1.08046	-3.34067	-4.25569	-3.09578	52.7578	19.8183	6.78552	3.64064	0
0.3887	-2.35782	2.91554	-1.51126	-28.059	-2.12835	54.6224	39.6559	9.2279	11.2659	-0.321855
0.3893	-0.362741	3.22424	0.624956	-46.6698	0.580459	67.4199	57.662	11.0571	14.0179	-0.321855
0.3900	-0.362741	1.38917	0.318159	-56.4392	-0.902937	64.9621	71.6967	7.70525	9.43127	-0.321855
0.3907	-1.81371	-1.35487	-3.64747	-54.9135	-5.80459	38.1382	73.8366	2.51391	3.35398	-1.28742
0.3913	-1.81371	-1.66357	-3.64747	-33.5548	-5.80459	31.1038	68.6507	1.29783	-0.0286665	-1.28742
0.3920	0	0.171502	1.53398	-13.1061	-3.67624	47.8846	61.6333	4.64972	-0.0286665	-0.321855
0.3927	0.544112	0.171502	3.06796	-7.30694	-3.99872	53.6901	40.8704	5.26287	-0.630663	0
0.3933	0.544112	-0.73746	1.53398	-5.47797	-4.3212	43.6047	7.61501	3.43364	0.601996	0
0.3940	-0.906853	-2.88124	-1.81805	-5.78131	-4.3212	32.926	-20.1653	3.12706	-10.4059	-0.321855
0.3947	-1.45096	-4.09891	-2.43165	-5.16571	-2.77331	25.595	-23.2113	4.64972	-39.0724	0
0.3953	0.362741	-1.97228	-0.295434	-4.55903	-0.322477	15.8485	-9.48502	5.56944	-57.3903	0
0.3960	0.362741	-0.137202	-0.295434	-5.78131	0.902937	5.16985	-2.44837	4.64972	-56.7883	-0.321855
0.3967	-0.906853	-0.73746	0.318159	-6.08465	0.902937	-3.09343	-0.327734	3.12706	-54.9537	0
0.3973	-2.35782	-3.18994	1.53398	-7.0036	-0.902937	-9.49218	-0.327734	1.29783	-58.9096	0
0.3980	-2.35782	-4.40761	0.624956	-6.69133	-1.54789	-13.4331	-2.75682	1.60441	-62.5789	-0.321855
0.3987	-0.362741	-2.88124	0.931752	-5.16571	0.257982	-20.1709	-0.327734	3.74021	-25.9432	0
0.3993	0.544112	-2.57254	2.14757	-3.33675	0.580459	-29.6207	3.64364	5.26287	49.1057	0
0.4000	-0.362741	-3.49865	-1.81805	-6.08465	-0.644955	-40.0027	0.597633	4.34314	71.6949	-1.28742
0.4007	-1.45096	-4.71632	-7.31766	-11.2771	-1.87037	-47.927	-4.89674	1.60441	33.2531	-2.25299
0.4013	-1.81371	-5.00787	-5.47688	-8.52922	-0.902937	-44.5793	-3.37374	1.60441	8.54261	-0.965566
0.4020	-0.906853	-3.7902	-1.20446	-3.33675	0.902937	-36.0194	0.597633	3.12706	6.0773	0
0.4027	0.544112	-2.26383	-0.60223	-5.16571	1.22541	-27.5019	2.12063	4.03657	11.5813	0
0.4033	0.906853	-2.88124	-0.295434	-10.3582	0.902937	-17.1198	1.21455	3.74021	15.5372	0
0.4040	-0.906853	-4.71632	0.931752	-13.7128	-0.322477	-5.80548	-0.616912	1.90076	-6.42129	0
0.4047	-1.45096	-4.40761	2.76117	-11.5805	-0.644955	10.0431	-1.23382	2.20734	-38.1551	0.321855
0.4053	1.26959	-2.57254	4.59058	-7.0036	0.902937	27.7561	-1.85074	4.34314	-49.765	0.321855
0.4060	1.81371	-2.88124	3.06796	-4.55903	0.580459	41.7825	-3.99065	4.03657	-49.4497	0
0.4067	0	-4.09891	0.318159	-0.285497	-0.644955	47.8846	-3.99065	1.90076	-44.8631	0
0.4073	-2.72056	-5.62528	-2.43165	3.98803	-1.22541	39.6637	-3.68219	-0.541616	-39.9897	0
0.4080	-2.72056	-5.93398	-2.43165	9.17159	-1.22541	26.5272	-2.44837	-0.541616	-33.2818	0
0.4087	0.906853	-3.49865	0.931752	16.193	-0.322477	24.7051	0.289177	1.90076	9.74661	-0.321855
0.4093	2.17645	-2.26383	2.45437	17.4153	0.257982	27.1205	2.12063	3.74021	80.2375	0
0.4100	0.544112	-3.49865	1.53398	14.3641	0.580459	20.7218	1.50372	2.20734	90.9301	0
0.4107	-1.26959	-5.31657	-1.20446	24.4368	-0.322477	10.3397	-3.37374	-1.14455	40.2764	-0.321855
0.4113	-2.17645	-5.00787	-3.04524	39.0774	-0.902937	7.28863	-9.7742	-0.235041	12.4986	0
0.4120	-1.26959	-3.49865	-2.12485	26.8724	0.257982	3.00868	-13.1287	3.74021	10.9793	-0.321855
0.4127	0.362741	-2.57254	-0.60223	6.42368	1.80587	-3.68669	-14.6709	4.03657	6.0773	-0.321855
0.4133	0	-2.57254	-0.295434	5.817	1.4834	-6.73775	-17.4085	-0.235041	1.20399	0
0.4140	-2.17645	-4.40761	-1.81805	10.0905	-0.902937	-8.26328	-24.7343	-3.28035	-1.23266	0
0.4147	-2.17645	-5.00787	-1.81805	4.29138	-0.644955	-8.26328	-29.0141	-1.14455	-1.23266	-0.321855
0.4153	0.362741	-2.88124	0.624956	-9.1359	0.902937	-4.91559	-28.0888	2.51391	1.20399	0
0.4160	0.906853	-1.66357	1.22719	-17.3796	1.80587	-4.27995	-29.3033	4.03657	2.12132	-0.321855
0.4167	-0.544112	-2.88124	-0.60223	-12.4905	1.22541	-11.0177	-30.2287	2.82049	0.888661	0
0.4173	-2.35782	-4.40761	-1.81805	-5.47797	-0.644955	-18.3487	-29.6118	0.378109	1.20399	0
0.4180	-1.45096	-4.71632	-0.909026	-2.11446	-0.644955	-18.0097	-27.7803	-0.235041	2.12132	0
0.4187	0.906853	-2.88124	2.45437	4.29138	0.580459	-14.9587	-20.1653	1.90076	1.80599	0
0.4193	1.63234	-1.04616	4.59058	12.5351	1.22541	-16.1875	-11.9141	2.51391	6.99462	0
0.4200	0.906853	-1.04616	3.67019	17.7187	0.580459	-17.1198	-4.89674	1.90076	14.3332	0
0.4207	-0.906853	-2.57254	0.624956	16.4964	-0.644955	-17.1198	3.64364	0.378109	7.30995	0
0.4213	-0.906853	-3.18994	0.318159	14.3641	-0.644955	-15.5943	11.5864	-0.837971	-0.315331	-0.321855
0.4220	0.544112	-2.26383	1.53398	15.2741	0.902937	-11.611	18.6037	0.378109	2.12132	-0.321855
0.4227	0.362741	-1.97228	0.624956	16.4964	1.80587	-7.67002	25.9296	0.991259	2.12132	0
0.4233	0.362741	-2.26383	-1.20446	15.8897	1.4834	-6.44112	29.9009	-0.235041	-3.06731	0
0.4240	-0.906853	-3.7902	-3.34067	10.3939	0	-9.49218	28.9756	-2.06427	-8.57128	0
0.4247	-1.26959	-4.71632	-2.73844	4.89806	-0.322477	-11.0177	30.807	-2.06427	-11.2946	0
0.4253	1.81371	-2.26383	0.318159	10.6972	1.4834	-10.0854	33.5446	1.29783	-11.0079	-0.321855
0.4260	3.44604	1.08046	3.67019	11.6162	2.45083	-10.3821	27.761	2.82049	-10.0906	0
0.4267	1.63234	1.38917	5.49961	-21.0376	1.22541	-7.03438	14.3239	1.29783	-11.6099	0
0.4273	-2.72056	0.171502	0.624956	-51.2467	-1.22541	1.48315	-1.85074	-0.541616	-11.6099	0
0.4280	-2.72056	0.480207	-1.81805	-38.1317	-1.87037	7.28863	-10.0827	0.0715341	4.24264	-0.321855
0.4287	3.99015	-0.73746	-2.12485	-14.0161	0	6.10211	-8.55965	4.03657	26.8318	0
0.4293	4.89701	-4.09891	-8.84028	-6.38799	0.257982	-2.4578	-9.48502	5.56944	29.2685	-0.321855
0.4300	-2.35782	-0.445906	-12.8059	-7.91362	-1.87037	-12.2466	-14.6709	-1.14455	5.4753	-1.93113
0.4307	-4.53426	8.71232	-8.53349	-6.38799	-3.09578	-13.7721	-14.054	-6.33588	-22.3025	-1.93113
0.4313	0.544112	10.5474	-4.26106	6.12034	-1.87037	-6.44112	-5.20519	-6.02931	-35.1164	-0.321855
0.4320	2.72056	13.9088	-3.64747	19.851	0	-1.2289	5.47509	-6.64246	-36.9511	0.321855
0.4327	0	26.1198	-2.73844	25.0434	0.257982	-1.5679	11.5864	-4.50665	-33.2818	0
0.4333	2.17645	12.9827	6.1132	24.7401	0.257982	-0.0423758	14.3239	7.39867	-31.4471	0
0.4340	3.0833	-21.798	10.0788	21.3766	-0.644955	7.28863	15.2493	17.7711	-37.5531	0
0.4347	-1.81371	-28.5208	4.59058	16.7997	-0.322477	18.3063	17.3699	11.9769	-36.0338	0.321855
0.4353	-2.17645	-22.4154	4.89738	11.9195	1.80587	25.595	19.2014	-7.25561	-28.4085	0.321855
0.4360	-0.544112	-23.9417	7.63582	10.0905	1.4834	22.8829	14.6324	-18.2412	-18.0312	0
0.4367	0	-17.8362	6.42	6.42368	-0.322477	13.7298	7.61501	3.74021	5.15997	-0.321855
0.4373	-0.362741	-8.36932	7.03359	-4.86237	-0.644955	12.5009	-0.616912	22.0427	18.6045	0
0.4380	-1.26959	2.00658	9.1698	-9.7515	2.12835	16.4418	-7.03665	-9.39141	16.7699	0
0.4387	-1.45096	7.80336	6.7268	-3.95235	3.93422	12.2042	-7.94274	-29.8297	16.1679	0
0.4393	-2.35782	1.38917	3.06796	-5.47797	3.35377	3.94095	-6.72819	-3.28035	14.6199	0
0.4400	-3.99015	-4.09891	2.45437	-25.0077	2.70881	-1.86453	-4.89674	17.1682	15.5372	0
0.4407	-4.89701	-4.09891	-1.51126	-40.264	2.12835	-7.33101	-3.99065	16.555	21.6432	0
0.4413	-2.72056	-1.97228	-5.78368	-28.3623	2.70881	-9.19554	-2.44837	17.7711	21.0412	-0.321855
0.4420	0.544112	3.22424	-4.56786	-8.52922	4.57918	-7.03438	-0.0192785	21.7362	12.8139	0
0.4427	0.544112	6.87725	-2.12485	-8.21696	4.57918	-4.27995	0.597633	19.9069	7.30995	0
0.4433	0	5.65958	-1.81805	-17.9863	3.03129	-3.68669	-0.0192785	6.47895	2.43665	-0.321855
0.4440	-0.362741	7.80336	-1.81805	-21.0376	2.12835	-10.3821	-1.54228	-16.1054	-14.0466	-0.321855
0.4447	-0.362741	9.63843	0.0113628	-17.3796	1.22541	-18.942	-2.75682	-28.9202	-40.3051	0
0.4453	0	-4.40761	2.14757	-14.3284	0	-20.7641	-3.99065	-21.2865	-56.1576	0
0.4460	-0.544112	-17.5275	2.76117	-16.4607	-0.644955	-19.2386	-4.58828	-9.08484	-46.411	-0.321855
0.4467	-1.26959	-13.5658	0.624956	-13.7128	-2.12835	-18.0097	-5.82211	-6.02931	-29.6125	-0.321855
0.4473	-3.0833	-8.98672	-2.73844	-7.30694	-4.90166	-18.0097	-10.0827	-7.55196	-34.8011	0
0.4480	-3.0833	-8.06061	-3.04524	-7.0036	-4.57918	-14.9587	-10.6996	-6.94903	-28.4085	0
0.4487	0	-8.98672	-0.909026	-7.0036	-2.77331	-8.26328	-6.72819	-2.97378	8.54261	0.321855
0.4493	1.81371	-14.4748	-0.909026	-6.38799	-2.77331	-4.61896	-5.51365	-0.837971	39.9611	0
0.4500	1.63234	-19.6713	-1.81805	-3.95235	-0.902937	-6.44112	-6.72819	-1.45112	57.0463	-0.321855
0.4507	-0.906853	-23.9417	-2.73844	3.37243	-1.87037	-9.49218	-8.2512	-3.28035	51.8577	0
0.4513	-1.26959	-22.4154	-3.64747	9.17159	-1.22541	-5.80548	-7.94274	-4.20008	34.7724	0
0.4520	-0.544112	-20.2716	-7.01087	9.47493	11.8672	-1.2289	-4.58828	-4.20008	29.8991	-0.321855
0.4527	-0.362741	-19.0539	-7.31766	9.78719	24.1213	-2.4578	0.597633	-2.37085	29.5838	-0.321855
0.4533	1.26959	4.13321	4.89738	8.56491	24.1213	-4.61896	-1.54228	-0.541616	28.9818	0
0.4540	-0.906853	29.4641	10.9992	-3.0334	21.348	-10.7211	-15.2686	-0.541616	24.0798	0
0.4547	-3.26467	27.3375	3.06796	-8.83256	21.6705	-16.8232	-23.2113	4.34314	-1.23266	0
0.4553	-1.45096	18.1793	1.22719	0.321184	20.703	-16.4842	-21.6883	11.9769	-42.7417	0
0.4560	0.544112	13.9088	3.97699	2.76575	15.5434	-16.1875	-21.0714	14.7258	-67.7676	0
0.4567	0.544112	8.40362	2.76117	-0.285497	5.15964	-18.6453	-18.0254	15.0222	-67.4522	0
0.4573	-1.26959	3.22424	-0.60223	1.84681	-4.90166	-22.2897	-14.3625	11.3637	-66.2483	0.321855
0.4580	-0.544112	1.69787	-0.60223	4.89806	-7.03001	-19.2386	-13.4371	-9.39141	-72.0389	0
0.4587	1.63234	4.13321	2.45437	4.59472	-7.93294	0.593261	-8.2512	-24.342	-59.5116	0
0.4593	2.17645	5.05932	3.67019	5.51366	-12.8346	24.7051	-0.0192785	-12.1301	14.0179	0
0.4600	0.362741	3.53295	1.53398	3.98803	-18.6392	31.1038	4.85818	-3.8935	105.894	-1.60928
0.4607	-1.81371	0.480207	-1.51126	-2.73006	-20.4451	29.8749	10.3526	-7.25561	116.243	-2.25299
0.4613	-1.26959	1.08046	0.0113628	2.76575	-14.06	37.7992	18.2953	-5.10958	72.0102	-0.64371
0.4620	0.544112	6.58569	3.67019	23.2145	-6.44955	46.3591	21.9582	-0.541616	46.067	0.321855
0.4627	0	9.92999	0.931752	36.9451	-6.12707	46.9947	18.9122	0.684684	33.8551	0
0.4633	0.362741	8.40362	-3.34067	30.8426	-9.48084	36.6127	11.2779	-0.541616	22.5605	0
0.4640	0.544112	6.27699	-3.64747	19.851	-11.9317	23.1796	3.33518	-3.58693	13.7026	0.321855
0.4647	1.81371	6.27699	-2.12485	16.4964	-11.6092	15.5519	2.12063	-2.67742	4.24264	0
0.4653	5.80386	5.36802	2.45437	16.4964	-7.67496	6.69537	1.81218	7.0921	-1.54799	0
0.4660	7.61756	4.13321	5.80641	19.5476	-2.12835	1.48315	1.81218	16.8616	-2.75198	0.321855
0.4667	3.62741	2.00658	3.67019	29.317	-0.902937	-1.2289	4.569	19.6004	-3.38265	0
0.4673	-2.35782	-5.93398	0.624956	30.5392	-3.09578	-11.0177	5.78355	19.9069	-0.0286665	0
0.4680	-5.07838	-9.58698	0.318159	21.9922	-2.77331	-14.3654	7.92346	20.8267	10.9793	0
0.4687	-4.89701	-2.88124	0.624956	21.3766	0	-7.33101	12.4925	18.3843	16.1679	-0.321855
0.4693	-4.17152	0.788911	0.931752	29.0136	1.22541	-5.21222	17.6784	19.9069	14.3332	0
0.4700	-2.72056	-2.26383	0.318159	35.4195	0.902937	-5.50885	24.0981	37.9131	20.7259	0
0.4707	-2.72056	-4.71632	-1.20446	42.1286	0.257982	-2.16116	28.6671	19.304	25.6278	0
0.4713	-2.72056	-2.57254	-2.73844	35.1161	0.580459	5.16985	32.6385	-49.6651	19.8085	0
0.4720	0	1.08046	-9.14708	15.2741	2.70881	10.0431	33.5446	-71.9531	7.91195	0
0.4727	3.62741	2.00658	-16.1579	13.7485	3.35377	7.28863	22.5751	-47.8359	-6.73662	0
0.4733	3.99015	1.69787	-11.2833	28.7014	2.12835	1.18652	5.16664	-40.8153	-7.94062	0.321855
0.4740	0.362741	2.00658	-9.74931	32.0649	0.257982	-3.39006	-11.008	-41.7351	-5.8193	0
0.4747	-0.906853	2.00658	-11.5901	-9.43924	0	0.29663	-23.5198	-35.6342	-18.9485	0
0.4753	2.72056	-0.137202	17.1011	-74.14	2.45083	7.62764	-24.7343	-2.37085	-25.0545	0
0.4760	3.0833	-3.18994	39.9858	-92.1441	3.93422	7.28863	-20.7629	40.662	-21.6719	0
0.4767	-2.72056	-4.09891	9.1698	-73.221	2.70881	3.94095	-21.9968	42.4913	-7.33862	0
0.4773	-7.25482	-5.00787	-23.1802	-50.9434	0.580459	3.64432	-23.8282	17.4645	18.0026	0
0.4780	-6.71071	-3.49865	-13.4195	-25.9178	0.902937	6.39874	-20.1653	6.78552	21.0412	0
0.4787	-3.0833	-0.445906	7.63582	-10.9649	2.70881	10.0431	-13.7456	6.17237	5.79063	0
0.4793	0.906853	-2.57254	15.2716	-8.21696	3.93422	13.7298	-10.3911	3.43364	10.9793	0
0.4800	3.0833	-6.24269	14.0445	-8.83256	4.83716	11.8652	-10.3911	-0.235041	24.9972	0
0.4807	-0.362741	-6.84295	5.20418	-10.0548	1.4834	2.41542	-11.6057	-6.02931	16.7699	-0.321855
0.4813	-2.17645	-4.09891	-2.73844	-4.55903	-0.902937	-1.2289	-7.65356	-10.6075	2.43665	-0.64371
0.4820	-0.362741	-0.73746	-2.43165	3.68469	-0.322477	2.11879	-0.327734	-4.50665	-3.38265	-0.321855
0.4827	-2.17645	2.00658	-0.909026	8.56491	-0.322477	1.82216	3.02672	9.53448	-5.50397	0
0.4833	-4.89701	1.69787	-2.43165	11.0006	-2.12835	-0.635637	1.50372	18.3843	-6.73662	0
0.4840	-5.07838	-2.57254	-5.78368	11.6162	-2.12835	-3.39006	1.50372	18.0777	-7.65395	0
0.4847	-3.99015	-3.49865	-5.18145	14.3641	2.70881	-4.27995	8.52109	20.5201	-7.02329	-0.321855
0.4853	-1.26959	-0.73746	-2.12485	19.2443	7.93294	-1.86453	14.3239	18.9974	-4.90197	-0.321855
0.4860	1.26959	-0.137202	0.624956	23.5178	9.15836	0.889891	14.3239	-5.10958	-3.38265	0
0.4867	0.906853	0.171502	2.45437	26.8724	8.19093	-1.2289	10.9695	-29.2268	-4.29997	0
0.4873	-1.81371	1.69787	1.22719	25.3468	5.15964	-8.55991	3.95209	-27.091	-6.73662	-0.321855
0.4880	-4.53426	2.00658	-1.81805	18.9409	3.93422	-10.0854	-0.327734	-9.08484	-7.94062	0
0.4887	-3.99015	2.31528	-2.73844	14.0607	5.15964	-26.5696	1.21455	0.991259	-6.42129	0
0.4893	-1.45096	2.91554	-0.909026	2.15907	4.57918	-71.7422	1.50372	0.991259	-4.58664	-0.321855
0.4900	-1.81371	1.69787	-0.60223	-23.7855	0.902937	-105.6	-3.99065	0.684684	-4.29997	-0.321855
0.4907	-3.62741	-1.04616	-0.60223	-46.9821	-3.09578	-119.33	-12.8395	0.684684	-5.8193	0.321855
0.4913	-2.72056	-1.35487	-0.295434	-64.0673	-3.35377	-127.297	-18.623	0.378109	-5.50397	0
0.4920	-1.81371	1.08046	-2.12485	-70.7854	-1.54789	-125.771	-25.6597	0.0715341	-3.06731	-1.60928
0.4927	-1.26959	2.31528	-2.12485	-52.469	-0.322477	-109.88	-30.8456	-0.837971	-3.38265	-1.93113
0.4933	0	1.38917	0.931752	-30.8069	-1.54789	-79.0732	-28.7057	-0.541616	-5.50397	-0.321855
0.4940	-3.0833	-1.35487	-3.04524	-30.1913	-6.44955	-47.0371	-30.5371	-2.67742	-7.33862	-1.28742
0.4947	-3.26467	-1.35487	-5.18145	-30.4946	-7.93294	-19.5352	-30.8456	-3.58693	-5.50397	-2.25299
0.4953	0	1.38917	0.931752	-15.854	-5.80459	-3.68669	-23.8282	-0.541616	-1.83466	-0.64371
0.4960	0	1.69787	2.14757	-2.11446	-5.48212	-3.98332	-21.6883	0.378109	-2.46532	-0.965566
0.4967	0.362741	1.08046	2.76117	6.42368	-3.99872	12.5009	-20.1653	0.378109	-4.58664	-1.60928
0.4973	-0.906853	-0.73746	3.3634	8.26157	-1.87037	53.6901	-14.9601	0.378109	-7.94062	-0.321855
0.4980	-1.45096	-2.26383	-3.95426	7.64596	-1.54789	88.184	-10.6996	0.0715341	-8.85794	0
0.4987	0.906853	-1.04616	-10.0561	13.7485	-0.644955	97.3372	-1.85074	3.12706	-7.65395	-0.321855
0.4993	1.63234	-0.137202	-8.53349	21.0732	0.257982	93.6505	14.6324	4.95629	-8.85794	-0.321855
0.5000	0.906853	-4.71632	-10.0561	31.1459	0	88.4806	31.7324	0.991259	-8.57128	-0.321855
0.5007	-0.544112	-8.06061	-17.9987	34.5005	-0.902937	70.1743	42.4127	-5.72273	-6.73662	-0.321855
0.5013	-2.17645	4.13321	-16.1579	14.9707	0	50.3424	46.3648	-15.1857	-18.0312	-0.321855
0.5020	1.81371	22.7584	-6.09048	-11.2771	2.45083	52.1646	43.0103	-32.8853	-40.9071	0
0.5027	9.79401	29.7728	-10.6697	-19.5119	4.57918	61.3178	35.6845	-51.5046	-53.721	0
0.5033	11.245	39.5313	-19.8281	-13.4094	4.2567	49.7068	27.1441	-57.912	-59.5116	0
0.5040	8.34305	52.3597	-18.2942	-6.69133	3.03129	31.4005	18.2953	-47.5293	-79.6642	0
0.5047	13.4214	12.6912	-5.78368	1.54347	3.35377	29.8749	14.3239	-7.85854	-110.796	-0.321855
0.5053	26.8428	-51.3993	25.9527	6.42368	5.80459	31.4005	12.184	58.3616	-106.209	0
0.5060	27.2056	-55.3781	43.656	0.936787	6.38505	27.7561	7.92346	110.551	-41.8244	0
0.5067	8.34305	-28.5208	29.3047	-5.78131	5.15964	27.4595	3.95209	94.374	11.5813	-0.321855
0.5073	-6.71071	-13.8745	-1.51126	-8.21696	3.35377	29.5783	0.597633	9.53448	-7.02329	-0.321855
0.5080	-10.3381	-0.445906	-48.8147	-7.61028	2.70881	30.1716	-0.925368	-44.484	-31.7625	-0.321855
0.5087	-7.25482	2.60684	-57.6664	-5.47797	3.61175	28.3494	-0.616912	-42.0416	20.1239	-0.321855
0.5093	1.26959	-10.5131	1.84078	-3.0334	3.61175	24.7051	-0.925368	-58.2186	92.1341	-0.321855
0.5100	4.53426	-19.0539	57.6891	-1.50778	2.12835	17.0774	-1.85074	-56.3791	90.3281	-0.321855
0.5107	-3.62741	-26.6858	63.4841	5.51366	0	8.81416	-3.99065	20.5201	40.2764	-0.321855
0.5113	-13.0587	-30.9562	43.3492	22.9111	0.580459	5.46648	-3.99065	101.088	-0.945994	-0.321855
0.5120	-16.5047	-15.0922	19.5441	40.2997	2.70881	5.76311	-0.925368	107.802	-14.3619	-0.321855
0.5127	-14.691	2.60684	-0.295434	52.5047	3.35377	6.10211	0.289177	69.9604	-11.6099	0
0.5133	-12.5146	3.53295	-9.14708	66.2442	2.12835	2.71205	-0.327734	42.1847	-18.3179	0
0.5140	-11.7891	-1.66357	-8.53349	77.8425	0	-4.91559	-2.15919	28.4501	-1.54799	0
0.5147	-9.79401	-2.26383	-4.26106	83.3294	0.257982	-6.14449	-0.925368	-5.41616	48.5037	0
0.5153	-5.80386	0.171502	-0.909026	87.9063	2.70881	-1.2289	3.33518	-60.9573	58.881	0
0.5160	-4.53426	1.38917	0.0113628	92.4831	3.35377	-1.86453	4.85818	-72.2495	32.3358	0
0.5167	-5.07838	1.38917	0.0113628	89.1286	1.80587	-6.44112	2.42909	-36.8503	19.2065	0
0.5173	-6.1666	-0.445906	-0.60223	78.1459	-0.322477	-10.3821	-0.925368	-15.4923	21.6432	0
0.5180	-6.1666	-1.35487	-0.909026	65.0219	-0.902937	-11.611	-1.85074	-12.4367	26.8318	0
0.5187	-3.62741	0.788911	-0.60223	45.4921	1.22541	-9.19554	0.289177	-8.77826	26.8318	0
0.5193	-1.81371	2.00658	-0.909026	17.4153	2.45083	-7.67002	3.02672	-3.58693	25.3125	0
0.5200	-2.35782	0.788911	-3.34067	-20.1275	0.902937	-13.4331	-0.0192785	-2.06427	21.6432	-1.28742
0.5207	-4.17152	-3.49865	-5.78368	-37.5161	-1.22541	-20.7641	-5.82211	-3.58693	13.1006	-2.25299
0.5213	-3.0833	-6.53424	-3.04524	-25.0077	0.580459	-17.4164	-1.23382	-1.14455	5.79063	-0.965566
0.5220	0.362741	-5.62528	0.931752	-45.1442	4.2567	-8.55991	7.61501	2.20734	-0.0286665	0
0.5227	1.81371	-4.09891	1.22719	-87.5673	5.48212	-4.27995	8.52109	3.12706	-7.33862	-0.321855
0.5233	0.544112	-3.7902	-1.20446	-98.55	3.61175	-2.75443	3.64364	1.60441	-11.9253	-0.321855
0.5240	-1.45096	-3.18994	-3.95426	-90.9218	0.902937	3.94095	-3.68219	-4.20008	-11.0079	0
0.5247	-0.544112	2.31528	-2.12485	-64.0673	0.257982	15.5519	-8.55965	-9.99434	-18.0312	0
0.5253	2.17645	11.1648	3.06796	-31.1102	1.80587	17.6707	-6.41974	-7.85854	-22.9045	0
0.5260	2.53919	15.1265	3.3634	-17.9863	1.80587	0.29663	-2.44837	-5.41616	-28.0932	0.321855
0.5267	-0.544112	14.5091	0.624956	-10.6615	0.580459	-25.6373	-0.925368	-7.55196	-68.6849	-0.321855
0.5273	-1.45096	10.2387	-1.81805	-1.50778	-1.87037	-43.0538	-3.06528	-6.64246	-125.76	-0.64371
0.5280	0.906853	9.32973	-6.70407	11.6162	-3.09578	-50.3848	-4.27983	0.991259	-157.78	-0.321855
0.5287	0.544112	20.6146	-12.1923	29.0136	-2.45083	-53.4359	-3.68219	3.74021	-164.202	0
0.5293	-1.26959	23.6673	-14.3285	35.1161	-2.45083	-51.9103	-6.72819	-5.10958	-155.344	0
0.5300	-2.17645	4.13321	-9.45387	24.4368	-3.67624	-42.7572	-9.48502	10.1476	-116.902	0
0.5307	-5.80386	-11.1134	-0.909026	16.4964	-4.3212	-31.7818	-11.3165	37.9131	-21.6719	-0.321855
0.5313	-7.07345	-8.06061	0.318159	34.5005	-3.35377	-20.4675	-10.3911	15.6353	86.9455	-0.321855
0.5320	-3.0833	-2.88124	-8.53349	58.0005	-5.22413	-4.91559	-7.34511	-14.5725	134.274	0
0.5327	-0.544112	-6.84295	-12.1923	38.774	-12.2541	12.7975	-6.72819	-11.5272	140.982	0
0.5333	-1.45096	-15.0922	-0.60223	-13.7128	-18.6392	26.5272	-7.34511	0.0715341	128.77	0
0.5340	-1.81371	-9.89569	4.28379	-45.1442	-25.6692	34.1549	-8.86811	11.6703	85.7415	0
0.5347	-0.362741	3.22424	-7.31766	-42.4052	-31.1513	37.7992	-7.65356	-3.28035	42.7131	0
0.5353	1.26959	6.58569	-16.1579	-31.1102	-24.7663	34.1549	-3.99065	-33.805	20.7259	0
0.5360	2.17645	8.11206	-2.43165	-21.3409	-9.48084	26.5272	-0.925368	-35.3276	19.2065	0
0.5367	1.63234	9.02103	12.5218	-14.0161	9.41634	18.8996	2.42909	-21.8997	27.7492	-0.321855
0.5373	-2.72056	1.69787	-1.20446	-16.764	32.6347	0.889891	2.12063	-11.8236	32.0205	0
0.5380	-5.44112	-6.84295	-7.6131	-32.9392	50.9514	-21.6964	-0.0192785	3.43364	32.3358	0
0.5387	-2.17645	-8.36932	15.2716	-58.2681	60.4323	-27.5019	3.64364	24.4851	31.7338	0
0.5393	0.544112	-5.62528	24.4301	-59.1871	57.659	-19.5352	5.16664	28.4501	27.7492	0
0.5400	-0.544112	-3.7902	10.0788	-26.5334	44.5664	-13.1365	0.289177	0.378109	21.9585	0
0.5407	-3.26467	-2.57254	0.318159	-4.86237	35.0855	-8.26328	-4.27983	-29.2268	16.7699	-0.321855
0.5413	-3.0833	-1.66357	-0.295434	-0.9011	20.4451	0.889891	-5.51365	-27.6939	15.5372	0
0.5420	-0.362741	0.171502	0.624956	3.98803	4.83716	13.0941	-4.58828	-2.97378	17.6872	0
0.5427	1.26959	2.00658	0.931752	6.73594	4.2567	20.1285	-3.68219	5.87602	14.9352	0
0.5433	1.26959	0.480207	0.318159	7.34262	1.80587	18.8996	-9.17656	-6.94903	10.9793	-0.321855
0.5440	-1.45096	-2.26383	-0.909026	10.6972	-14.3825	15.5519	-18.3338	-7.55196	7.62529	0
0.5447	-1.81371	-1.04616	0.318159	18.6376	-25.6692	17.6707	-18.623	-0.541616	-6.10596	0.321855
0.5453	1.26959	2.91554	3.67019	25.9624	-17.7363	18.8996	-12.2226	-2.97378	-25.9432	-0.321855
0.5460	2.17645	3.84165	3.97699	28.398	-2.45083	11.8652	-9.48502	-6.33588	-34.8011	-0.321855
0.5467	0.906853	1.69787	2.45437	28.398	0	3.34769	-10.0827	-5.41616	-24.1372	0
0.5473	-0.544112	-1.35487	0.931752	18.6376	-5.80459	-2.4578	-14.9601	-5.72273	4.24264	0
0.5480	-0.544112	-0.73746	0.624956	-0.9011	-8.5779	-5.21222	-19.8568	-5.72273	14.9352	-0.321855
0.5487	-0.544112	2.31528	0.931752	-7.0036	-11.2867	-4.27995	-15.577	-3.28035	3.64064	0
0.5493	-0.362741	1.69787	0.0113628	-8.21696	-14.06	-6.44112	-8.55965	-1.45112	6.70796	0
0.5500	0.362741	-1.97228	-2.43165	-28.969	-14.3825	-18.942	-7.03665	-2.06427	16.4546	-1.60928
0.5507	-1.26959	-4.71632	-3.95426	-36.6061	-17.4138	-25.3407	-3.99065	-3.28035	21.6432	-2.25299
0.5513	-0.544112	-5.00787	-0.295434	-18.2896	-20.4451	-14.3654	8.82955	-0.541616	20.1239	-0.64371
0.5520	3.0833	-2.88124	2.45437	-15.2384	-15.8659	-5.80548	20.7437	6.78552	14.9352	0
0.5527	4.89701	0.480207	2.14757	-28.969	-3.67624	-7.96665	25.9296	8.01182	17.0852	0
0.5533	1.63234	4.44191	0.318159	-35.6871	6.38505	-11.9076	31.1155	-1.45112	14.9352	0
0.5540	-4.17152	8.11206	-3.95426	-34.4648	10.9642	-13.1365	30.4986	-9.68777	5.79063	0
0.5547	-5.80386	10.8561	-5.78368	-32.9392	20.703	-9.49218	23.1728	-6.94903	3.95598	0
0.5553	-2.35782	12.0738	-2.43165	-32.0292	28.378	-4.27995	18.9122	0.684684	8.54261	0
0.5560	0.906853	9.02103	0.318159	-36.2938	18.8972	-3.68669	17.9868	3.43364	7.91195	0
0.5567	0.906853	1.69787	0.318159	-39.6573	3.93422	-7.03438	14.9408	-0.541616	-0.630663	0.64371
0.5573	-0.906853	-6.84295	-1.20446	-35.3838	-5.48212	-10.3821	13.4178	-5.41616	-10.4059	0.321855
0.5580	-1.26959	-12.3482	-0.909026	-26.8367	-17.7363	-7.33101	14.3239	-7.25561	-13.7599	-0.321855
0.5587	0	-12.3482	0.624956	-14.3284	-28.12	3.94095	8.52109	-6.64246	-9.77527	0
0.5593	0	-12.3482	0.931752	-2.11446	-25.0242	14.323	-0.327734	-5.72273	-4.90197	0
0.5600	-0.544112	-14.4748	-0.295434	5.817	-15.6079	15.8485	-3.37374	-6.94903	-3.38265	-0.321855
0.5607	-3.26467	-10.8218	-3.34067	6.42368	-14.3825	10.0431	-5.82211	-11.2206	-1.54799	-0.321855
0.5613	-3.62741	2.91554	-3.95426	3.06909	-19.5421	5.76311	-18.623	-12.7433	2.12132	0
0.5620	-0.544112	13.9088	-1.20446	3.68469	-19.5421	6.992	-35.1061	-6.94903	0.286665	0
0.5627	-0.362741	12.0738	0.624956	6.73594	-16.1884	7.92427	-44.2634	0.378109	-10.4059	-0.321855
0.5633	0	8.40362	1.22719	5.817	-20.1871	7.62764	-47.9263	5.56944	-19.8659	-0.321855
0.5640	0.906853	6.58569	0.931752	0.321184	-25.6692	6.992	-49.1409	7.0921	-24.7392	-0.321855
0.5647	0.362741	5.96828	0.624956	-3.95235	-19.2197	5.76311	-44.8803	7.70525	-26.2585	0
0.5653	0.362741	6.87725	1.22719	-5.16571	-5.80459	3.94095	-35.4146	10.1476	-23.5065	0.321855
0.5660	1.63234	7.18595	1.84078	-5.16571	9.41634	2.11879	-30.8456	11.9769	-21.9872	0
0.5667	2.53919	5.65958	1.22719	-4.55903	20.1226	-2.75443	-37.2461	11.9769	-18.6332	-0.321855
0.5673	0.362741	2.91554	-0.909026	-0.9011	16.4463	-9.49218	-37.5545	8.30818	-0.630663	0
0.5680	-0.906853	2.31528	-0.60223	4.29138	8.5134	-18.6453	-21.3799	5.87602	24.7105	0
0.5687	0.906853	3.84165	1.84078	4.89806	5.48212	-34.1973	-6.72819	5.87602	31.1031	0
0.5693	1.63234	3.84165	2.14757	2.76575	3.35377	-41.8249	-0.616912	5.56944	25.6278	0
0.5700	-0.544112	2.00658	0.624956	2.15907	-2.12835	-36.3584	3.02672	3.74021	21.9585	0
0.5707	-3.0833	-0.73746	-1.81805	3.98803	-11.0287	-29.6207	4.26055	0.684684	15.5372	0
0.5713	-1.26959	-1.04616	-1.81805	8.56491	-14.6405	-22.9253	9.44646	0.684684	7.62529	0
0.5720	1.81371	1.08046	0.318159	11.9195	-15.6079	-16.1875	20.1267	3.43364	1.20399	-0.321855
0.5727	0.906853	2.31528	0.931752	12.5351	-20.4451	-9.78881	23.4812	4.03657	-3.38265	0
0.5733	-1.26959	1.38917	-1.20446	13.7485	-25.9272	-2.75443	24.4066	2.82049	-9.48861	0
0.5740	-3.0833	-1.04616	-5.18145	11.6162	-29.9259	2.41542	32.0216	0.684684	-19.8659	0
0.5747	-3.0833	-0.73746	-6.39727	8.56491	-28.7005	10.6787	34.7784	3.43364	-23.2199	0
0.5753	-0.906853	2.00658	-4.56786	9.78719	-20.7675	24.7051	35.0869	6.78552	-18.6332	0
0.5760	1.63234	2.60684	-3.64747	11.9195	-10.7063	37.2059	39.6559	4.03657	-18.9485	0
0.5767	0.362741	1.08046	-4.87465	10.6972	-4.90166	40.5536	39.3474	0.991259	-9.77527	-0.321855
0.5773	-3.0833	-1.04616	-4.26106	6.73594	-4.90166	37.2059	28.0695	-0.235041	15.8526	-0.321855
0.5780	-2.17645	-1.04616	2.76117	7.03928	-4.3212	33.8582	14.9408	0.684684	26.2298	-0.321855
0.5787	0.544112	0.171502	8.86301	12.2228	0.580459	33.2226	10.3526	3.43364	11.5813	0
0.5793	0.544112	0.171502	6.7268	14.3641	3.35377	26.5272	6.092	3.43364	-4.29997	-0.321855
0.5800	-0.544112	-1.04616	0.0113628	5.817	1.4834	5.76311	-0.616912	0.0715341	-8.57128	-1.93113
0.5807	-1.45096	-2.26383	-3.34067	-3.0334	0	-7.03438	-1.54228	-1.7577	-4.29997	-1.93113
0.5813	-1.26959	-2.26383	-0.909026	2.15907	2.12835	0.593261	6.092	-0.235041	1.80599	0
0.5820	0.906853	-0.137202	1.53398	10.0905	3.93422	6.992	12.4925	2.20734	-0.630663	0
0.5827	1.81371	0.788911	2.14757	8.86825	4.2567	6.10211	10.661	3.12706	-8.57128	-0.321855
0.5833	-0.362741	-0.73746	1.22719	4.29138	3.03129	2.71205	5.47509	1.60441	-10.6926	-0.321855
0.5840	-2.35782	-2.88124	-0.909026	4.29138	1.22541	-0.635637	0.597633	-0.541616	-7.94062	-0.321855
0.5847	-1.45096	-3.18994	-1.81805	4.59472	0.580459	-4.27995	-1.85074	-0.837971	-2.46532	-0.321855
0.5853	1.81371	-0.73746	-1.51126	4.59472	1.80587	-17.7131	1.50372	0.684684	-2.14999	-0.321855
0.5860	4.89701	0.788911	-1.51126	9.47493	2.45083	-33.604	5.47509	2.51391	-25.9432	0
0.5867	5.80386	-0.445906	-2.43165	10.6972	2.12835	-42.7572	3.95209	2.51391	-60.7443	0.321855
0.5873	4.53426	-1.66357	-3.95426	6.12034	0	-49.4525	-3.06528	0.378109	-75.3929	0
0.5880	4.53426	-1.04616	-3.64747	6.73594	-1.54789	-47.3337	-9.17656	0.378109	-70.5196	-0.321855
0.5887	6.34797	-0.137202	-1.51126	10.3939	-0.644955	-34.8329	-12.8395	1.90076	-70.5196	-0.321855
0.5893	7.07345	0.480207	-0.295434	11.3128	0.580459	-21.0608	-16.7916	2.82049	-81.8142	-0.321855
0.5900	7.07345	-0.445906	0.624956	7.64596	0.257982	-10.7211	-18.9315	2.51391	-61.3463	-0.321855
0.5907	7.07345	-2.57254	1.22719	1.54347	-0.902937	-1.2289	-21.0714	0.684684	10.6639	-0.321855
0.5913	7.61756	-2.57254	1.84078	0.624524	1.22541	10.3397	-23.2113	0.0715341	72.0102	0
0.5920	9.43127	-0.73746	3.06796	5.817	7.93294	16.7808	-21.6883	2.51391	76.8835	0
0.5927	8.52442	0.171502	3.3634	8.86825	11.6092	0.29663	-18.0254	3.74021	48.819	0
0.5933	2.72056	-0.137202	1.22719	6.73594	9.73882	-27.5019	-14.3625	3.74021	20.4392	0
0.5940	-4.89701	-1.97228	-0.909026	4.29138	7.28799	-40.935	-10.6996	2.51391	3.95598	0.321855
0.5947	-8.52442	-3.18994	-1.81805	3.37243	6.70753	-42.4605	-8.2512	1.29783	-3.98464	0
0.5953	-7.07345	-1.66357	-1.20446	3.06909	7.28799	-40.2994	-6.41974	0.684684	-17.1139	-1.60928
0.5960	-3.99015	0.788911	0.0113628	5.51366	8.5134	-39.0705	-1.54228	1.29783	-12.8426	-0.64371
0.5967	-3.99015	-0.137202	-1.51126	3.68469	6.38505	-38.4772	4.569	1.29783	7.30995	0.321855
0.5973	-7.25482	-2.88124	-4.87465	-2.11446	-0.322477	-34.4939	10.9695	-0.541616	-0.630663	-0.321855
0.5980	-7.61756	-1.97228	-4.26106	-1.20444	-3.99872	-23.8152	21.0328	-0.837971	-8.85794	-0.321855
0.5987	-4.53426	0.788911	-1.81805	3.37243	-3.99872	-7.33101	32.6385	0.991259	16.7699	0
0.5993	-3.0833	0.788911	-1.51126	6.12034	-7.35248	5.16985	35.6845	0.684684	36.9224	0
0.6000	-3.26467	-0.445906	-1.51126	4.59472	-10.7063	8.2209	27.4526	-2.37085	34.1705	-0.321855
0.6007	-3.99015	-2.57254	-0.295434	-0.588837	-11.6092	11.5686	21.3413	-4.81323	34.4571	-0.321855
0.6013	-3.99015	-2.57254	1.53398	-0.9011	-10.0613	25.934	21.0328	-3.28035	37.2091	-0.321855
0.6020	-2.35782	-0.73746	3.06796	1.54347	-7.93294	43.9437	18.2953	-0.541616	30.8165	0
0.6027	-0.906853	-0.137202	3.3634	1.84681	-6.44955	53.3935	14.0155	0.0715341	22.8759	0
0.6033	-2.35782	-0.73746	1.53398	0.624524	-5.22413	52.7578	12.184	-0.837971	13.4159	0
0.6040	-6.71071	-2.26383	-1.51126	-1.20444	-5.22413	48.8169	9.44646	-1.45112	-0.0286665	0
0.6047	-7.25482	-2.88124	-1.81805	-1.20444	-3.35377	46.6557	6.092	-0.541616	-7.65395	0
0.6053	-3.99015	-0.73746	0.318159	1.24013	0	45.1302	3.95209	0.684684	-9.48861	-0.321855
0.6060	-1.81371	0.171502	1.22719	2.46241	3.93422	40.257	0.597633	0.991259	-13.4446	0
0.6067	-2.17645	-1.04616	0.0113628	2.15907	7.03001	30.8072	-2.15919	0.0715341	-22.9045	0
0.6073	-4.17152	-2.57254	-2.12485	0.321184	7.28799	23.4762	-3.06528	-1.7577	-29.3258	-0.321855
0.6080	-3.62741	-2.26383	-2.12485	0.0178436	7.28799	21.654	-3.99065	-0.541616	-12.8426	0
0.6087	-0.906853	-0.445906	-0.60223	0.936787	9.73882	20.1285	-8.86811	0.991259	18.8912	0.321855
0.6093	-0.544112	-0.137202	0.318159	0.936787	12.5121	17.6707	-14.6709	0.378109	37.5244	0
0.6100	-2.35782	-1.66357	-2.43165	-3.64009	10.3838	8.2209	-20.4545	-2.67742	26.5452	-1.93113
0.6107	-2.72056	-2.88124	-5.18145	-6.69133	5.48212	-2.75443	-27.7803	-5.41616	6.39263	-2.25299
0.6113	0	-2.26383	-2.43165	1.84681	3.61175	3.64432	-27.7803	-2.67742	-4.90197	-0.321855
0.6120	2.53919	-0.73746	-0.909026	6.12034	1.4834	-5.50885	-26.2573	-0.837971	-15.2792	-0.64371
0.6127	2.72056	-0.73746	-2.73844	0.321184	-1.87037	-57.0802	-30.2287	-2.67742	-24.1372	-2.25299
0.6133	3.0833	-0.73746	-1.20446	1.24013	-3.99872	-95.854	-29.6118	-2.67742	-28.4085	-1.60928
0.6140	1.81371	-2.57254	0.0113628	3.68469	-6.70753	-102.253	-23.8282	-2.06427	-48.5324	0
0.6147	1.26959	-2.88124	0.0113628	2.15907	-8.5779	-100.134	-19.5484	-1.7577	-85.7701	0
0.6153	3.62741	-0.73746	1.22719	1.54347	-8.25542	-86.0652	-14.6709	-0.541616	-101.651	-0.321855
0.6160	4.89701	0.171502	1.22719	0.624524	-7.35248	-62.8857	-8.55965	0.378109	-109.879	0
0.6167	2.72056	-1.04616	0.318159	-0.588837	-7.35248	-36.9517	-8.2512	0.378109	-139.778	0
0.6173	0.362741	-2.57254	-0.909026	0.624524	-7.67496	-7.96665	-14.054	-0.541616	-175.181	-0.64371
0.6180	0.362741	-2.26383	-0.909026	7.03928	-6.12707	21.0184	-11.3165	0.684684	-209.065	-0.321855
0.6187	3.99015	0.480207	0.624956	13.4451	-2.45083	44.8336	-0.616912	4.34314	-190.46	-0.321855
0.6193	7.98031	1.69787	0.624956	11.0006	-1.22541	65.3011	5.16664	6.17237	-101.021	-0.321855
0.6200	8.52442	0.171502	-0.909026	6.42368	-1.87037	80.2597	6.092	3.74021	-27.7778	-0.321855
0.6207	6.1666	-1.97228	-1.51126	6.73594	-1.22541	84.2007	2.42909	-1.7577	24.0798	-0.321855
0.6213	4.53426	-1.97228	-0.295434	6.42368	1.4834	85.4296	-3.06528	-2.67742	85.7415	0
0.6220	5.44112	-0.445906	1.22719	6.73594	6.06258	82.6751	-3.99065	0.0715341	136.395	0
0.6227	5.44112	-0.445906	0.931752	13.7485	8.83588	66.191	-1.85074	0.991259	141.268	-0.321855
0.6233	2.72056	-1.35487	-0.909026	20.7699	9.15836	46.9947	1.21455	1.60441	90.9301	-0.321855
0.6240	-3.0833	-2.26383	-3.04524	21.3766	7.61047	21.654	3.02672	1.29783	71.4082	0.321855
0.6247	-7.07345	-1.66357	-3.34067	21.6888	9.15836	-10.3821	4.26055	-0.235041	113.806	0
0.6253	-8.88716	0.788911	-2.12485	18.6376	10.3838	-20.4675	2.12063	0.0715341	129.372	-0.64371
0.6260	-10.8822	1.38917	-0.60223	4.29138	-1.87037	-12.5432	-2.15919	0.684684	95.2014	-0.321855
0.6267	-11.245	0.171502	0.931752	-17.683	-31.7318	-1.86453	-3.06528	-0.837971	59.483	0
0.6273	-10.3381	-1.97228	0.318159	-39.9606	-53.7247	-19.2386	0.597633	-3.58693	66.8216	0
0.6280	-7.25482	-1.97228	-0.295434	-41.4863	-27.7976	-107.762	10.9695	-4.50665	104.059	-0.321855
0.6287	-2.35782	-0.73746	0.318159	-24.0888	16.1239	-197.471	17.0807	-3.28035	94.5994	-0.321855
0.6293	0	0.788911	0.318159	-12.4905	33.5377	-212.43	8.52109	-2.67742	51.8577	-0.64371
0.6300	0.906853	0.171502	-1.81805	-9.43924	37.5364	-197.175	-0.0192785	-2.97378	17.6872	-0.321855
0.6307	12.5146	-2.26383	-4.87465	-10.6615	47.9201	-178.572	-0.925368	-4.50665	-15.2792	0
0.6313	28.4752	-1.66357	-4.56786	-12.4905	75.9757	-145.307	-3.37374	-3.8935	-16.7986	0
0.6320	33.3722	1.08046	-2.43165	-13.1061	91.8416	-111.109	-5.82211	-1.14455	-0.630663	-0.321855
0.6327	39.3574	1.38917	-1.51126	-14.0161	70.4936	-78.4376	-3.06528	-0.235041	3.95598	-0.321855
0.6333	43.7103	0.171502	-1.81805	-15.854	40.2452	-41.8249	5.16664	-0.235041	41.7957	-0.321855
0.6340	29.9261	-1.66357	0.318159	-16.1573	15.2209	-11.0177	19.5098	-0.235041	85.7415	0
0.6347	5.44112	-1.97228	3.67019	-14.6317	1.22541	19.1962	33.2554	0.684684	75.3642	0
0.6353	-23.2154	-1.35487	4.89738	-11.5805	-5.80459	57.6734	38.1329	2.20734	48.5037	-0.321855
0.6360	-37.181	-1.66357	3.67019	-2.42672	-15.2854	96.1083	34.1615	2.51391	36.0051	0
0.6367	-23.2154	-3.18994	1.84078	7.34262	-10.7063	120.517	18.6037	1.29783	19.8085	0
0.6373	-1.45096	-4.71632	0.931752	7.34262	-2.12835	135.772	1.50372	0.378109	1.20399	-0.321855
0.6380	6.34797	-3.18994	1.22719	4.89806	-12.2541	150.731	-5.20519	2.51391	-3.38265	-0.321855
0.6387	-0.544112	-0.137202	1.84078	7.34262	-39.4067	147.086	-6.11128	5.26287	-0.945994	0
0.6393	-16.6861	1.69787	0.318159	9.78719	-68.3652	129.967	-3.37374	5.56944	-8.25595	0
0.6400	-35.9114	1.08046	-3.04524	4.59472	-75.9757	107.719	-1.23382	2.20734	-20.1525	-0.965566
0.6407	-37.5437	-0.73746	-5.18145	-3.0334	-63.786	74.4542	-2.44837	-1.45112	-30.2145	-2.25299
0.6413	-6.1666	-0.137202	-2.12485	2.46241	-51.2739	52.4612	0.289177	2.51391	-36.6358	-1.28742
0.6420	36.2741	1.38917	1.53398	11.6162	-21.4125	40.5536	5.47509	4.64972	-40.5917	0.321855
0.6427	78.7148	0.480207	2.14757	10.6972	28.378	24.4084	5.78355	-1.45112	-48.8477	0
0.6433	126.597	-1.97228	3.06796	5.51366	52.1768	13.7298	-2.15919	-6.94903	-58.3076	-0.321855
0.6440	160.513	-3.49865	1.84078	1.84681	43.5989	8.2209	-15.2686	-6.94903	-61.0596	-0.321855
0.6447	190.439	-2.57254	0.318159	0.624524	37.5364	3.34769	-20.4545	-2.97378	-72.9562	0
0.6453	195.88	0.171502	0.318159	-0.588837	29.8614	-3.39006	-18.623	1.29783	-86.6875	-0.321855
0.6460	85.4255	1.69787	0.318159	-5.47797	8.83588	-16.4842	-17.1	3.74021	-21.6719	-0.321855
0.6467	-76.5384	0.171502	-0.909026	-8.52922	-12.2541	-31.4428	-13.4371	3.74021	67.1082	-0.321855
0.6473	-131.494	-1.35487	-2.12485	-9.1359	-30.8288	-39.0705	-13.4371	2.82049	73.5295	0
0.6480	-94.8568	-0.137202	-1.81805	-7.0036	-47.3397	-40.935	-17.7169	4.95629	70.7776	0
0.6487	-73.2737	2.60684	-2.12485	-0.9011	-57.9814	-39.0705	-11.9141	9.53448	68.3409	0
0.6493	-72.911	5.65958	-3.95426	2.15907	-62.8831	-33.604	-3.99065	15.3287	27.4625	0
0.6500	-32.6467	6.27699	-4.87465	-0.9011	-63.786	-27.1629	-7.34511	19.6004	-1.83466	-0.321855
0.6507	36.9996	2.91554	-3.95426	-3.64009	-51.5964	-17.7131	-13.4371	15.6353	-11.2946	-0.64371
0.6513	93.0431	-0.137202	-0.60223	-3.0334	-19.8646	-4.91559	-14.3625	4.95629	-10.6926	0
0.6520	75.6315	-0.445906	2.45437	-1.50778	3.35377	2.71205	-8.2512	-0.235041	3.03865	0.64371
0.6527	3.62741	1.08046	2.14757	-0.9011	8.5134	2.71205	7.30655	1.90076	15.2506	0
0.6533	-31.0144	1.38917	1.22719	-2.11446	13.9955	3.64432	23.7897	3.12706	18.8912	-0.321855
0.6540	-41.7152	-2.57254	1.22719	-4.25569	17.6718	15.2553	24.4066	-2.67742	17.0852	0
0.6547	-57.6758	-3.7902	2.76117	-0.285497	17.0913	30.5106	12.8009	-7.25561	12.4986	0
0.6553	-54.0484	-2.88124	4.28379	6.12034	18.3167	39.0281	5.78355	-4.81323	9.74661	-0.321855
0.6560	-13.0587	-3.49865	6.42	9.17159	22.5734	41.1893	10.0634	-3.28035	1.80599	0
0.6567	49.6955	-5.31657	8.24941	10.3939	12.7701	34.4515	18.9122	-2.97378	-13.1293	0
0.6573	47.8818	-6.84295	7.63582	8.26157	-10.0613	26.8239	23.7897	-1.14455	-21.0699	0
0.6580	-57.1317	-4.09891	4.59058	6.12034	-20.1871	27.7561	21.6497	1.60441	-23.5065	-0.321855
0.6587	-138.749	1.38917	0.318159	9.17159	-17.0913	28.3494	14.6324	6.47895	-36.0338	0
0.6593	-111.362	3.53295	-1.20446	15.2741	-12.8346	26.8239	9.13801	10.7506	-53.721	0
0.6600	-20.4949	1.08046	0.318159	17.4153	-9.48084	28.0528	10.0634	8.61475	-69.6022	-0.321855
0.6607	55.318	-3.18994	1.22719	15.8897	-10.7063	27.1205	12.184	4.03657	-78.4602	0
0.6613	78.5335	-3.7902	3.06796	14.3641	-12.2541	23.7728	7.92346	3.12706	-63.4963	0
0.6620	72.911	0.788911	3.97699	13.1418	-9.15836	20.1285	4.569	6.17237	-47.3284	-0.321855
0.6627	20.4949	5.05932	0.931752	11.6162	-8.90038	14.6196	5.47509	9.84105	-39.7031	-0.321855
0.6633	-74.1806	5.65958	-2.43165	11.3128	-13.4151	8.81416	3.95209	11.9769	2.43665	0
0.6640	-118.616	2.91554	-3.64747	10.6972	-14.6405	3.34769	-1.23382	11.0571	33.5398	-0.321855
0.6647	-68.014	-0.445906	0.0113628	7.03928	-7.93294	1.18652	-4.89674	5.26287	12.4986	-0.64371
0.6653	79.0776	-1.35487	3.3634	0.321184	-0.644955	2.41542	-5.82211	-2.06427	-9.48861	-0.321855
0.6660	257.365	1.69787	0.318159	-3.95235	5.15964	-0.0423758	-7.94274	-0.541616	-17.7159	0
0.6667	278.041	5.65958	-5.78368	-2.42672	10.6418	-4.61896	-12.2226	11.3637	-17.1139	-0.321855
0.6673	59.3082	6.87725	-9.45387	1.24013	8.83588	-2.75443	-26.2573	19.6004	-19.8659	-0.321855
0.6680	-191.709	5.65958	-8.53349	0.936787	5.15964	1.82216	-45.7864	18.0777	-5.8193	-0.321855
0.6687	-276.772	4.13321	-4.26106	-1.20444	6.38505	-1.2289	-51.8977	9.2279	57.3616	-0.321855
0.6693	-210.027	2.00658	-1.51126	-2.11446	-6.70753	-24.1118	-47.6179	-4.50665	99.788	-0.321855
0.6700	-73.2737	-1.35487	-2.12485	-13.4094	-21.09	-63.8179	-46.7118	-14.266	73.2142	-1.60928
0.6707	51.3279	-3.7902	-2.43165	-29.888	15.5434	-90.6418	-42.432	-15.4923	34.4571	-2.25299
0.6713	127.322	-4.71632	0.931752	-28.3623	70.1711	-88.8196	-31.4432	-13.3564	16.1679	-0.321855
0.6720	157.43	-3.49865	2.45437	-14.9351	87.8428	-77.251	-22.5944	-11.5272	7.62529	0
0.6727	136.753	-1.97228	0.931752	-5.47797	96.7432	-71.4456	-12.2226	-10.9141	7.30995	-0.321855
0.6733	70.7345	-1.66357	-1.51126	-3.64009	107.707	-66.869	6.68964	-12.4367	-1.54799	0
0.6740	3.44604	-3.18994	-3.64747	-5.47797	98.2266	-65.6401	27.1441	-17.9346	2.72332	0
0.6747	-34.8232	-1.97228	-3.34067	-5.16571	68.9457	-64.7078	47.2901	-16.1054	48.819	0
0.6753	-65.6562	1.38917	0.0113628	-3.33675	32.3122	-45.1726	72.0052	-7.55196	63.4676	0
0.6760	-111.362	0.480207	3.67019	-5.16571	-1.87037	-19.2386	88.7967	-4.50665	32.3358	0
0.6767	-156.16	-4.09891	5.20418	-8.52922	-29.6034	-0.0423758	83.3024	-7.55196	13.4159	0
0.6773	-149.812	-8.98672	7.34039	-7.91362	-49.468	30.5106	68.6507	-12.1301	-1.83466	0
0.6780	-89.053	-12.3482	13.749	-2.73006	-56.498	62.25	60.1103	-15.1857	-21.9872	-0.321855
0.6787	-60.0337	-14.4748	21.0667	4.89806	-57.9814	76.2764	50.0277	-19.4573	-35.1164	0
0.6793	-77.2639	-16.6186	25.0323	8.26157	-57.7235	85.1329	25.6211	-23.1157	-36.6358	0
0.6800	-73.4551	-16.9101	24.4301	6.42368	-50.6934	90.0062	0.906089	-19.7639	-33.5971	-0.321855
0.6807	0	-13.5658	19.8509	5.21032	-45.2113	79.6241	-10.3911	-9.39141	-39.0724	-0.321855
0.6813	111.362	-6.84295	14.3513	5.51366	-45.2113	62.5467	-12.531	1.60441	-40.9071	0
0.6820	112.631	-0.445906	9.77203	4.59472	-49.7905	40.8503	-8.86811	9.84105	-36.6358	0
0.6827	-8.52442	5.05932	3.3634	1.24013	-57.7235	14.9163	-3.06528	16.8616	-38.7858	-0.321855
0.6833	-41.7152	12.6912	-6.39727	-1.50778	-45.4693	3.94095	-3.99065	26.9275	-44.5764	0
0.6840	73.2737	20.0143	-17.9987	-3.0334	9.15836	5.76311	-12.531	36.697	-53.119	0
0.6847	96.1264	25.8111	-24.4074	0.321184	64.044	7.62764	-19.5484	46.7629	-52.2017	0
0.6853	12.1518	27.9377	-23.1802	6.73594	75.0727	9.74643	-22.9029	57.1456	-41.5091	0
0.6860	-0.544112	22.141	-16.7715	8.26157	65.5919	11.272	-26.5658	60.804	-26.2585	0
0.6867	-21.039	10.5474	-7.01087	4.59472	57.3365	9.15317	-28.7057	50.125	19.8085	0
0.6873	-38.4506	-1.04616	1.53398	0.936787	42.1156	5.46648	-30.2287	29.0633	80.2375	-0.321855
0.6880	24.485	-5.31657	3.97699	1.84681	19.8001	4.23758	-28.3972	16.2485	92.4494	-0.321855
0.6887	103.563	-2.26383	1.84078	5.21032	-2.77331	3.34769	-21.6883	12.59	52.775	-0.321855
0.6893	119.342	-0.73746	-0.295434	6.42368	-17.9942	-0.0423758	-15.2686	1.29783	17.0852	-0.321855
0.6900	42.078	-4.09891	0.0113628	3.37243	-28.378	-2.75443	-13.4371	-18.2412	17.6872	0
0.6907	-73.2737	-7.15165	-0.60223	-1.50778	-41.2126	-2.4578	-15.2686	-34.1013	24.3952	-0.321855
0.6913	-133.67	-4.09891	-2.73844	-5.78131	-47.5977	-0.932267	-14.9601	-36.8503	3.03865	-0.321855
0.6920	-99.3911	-0.73746	-3.64747	-7.61028	-43.9859	0.889891	-7.03665	-33.1918	-39.3878	-0.321855
0.6927	-44.2544	-0.73746	-3.34067	-5.78131	-36.311	1.82216	6.092	-31.056	-63.1809	0
0.6933	-71.6414	-1.66357	-3.34067	-5.16571	-27.4751	-0.339006	15.8469	-32.5787	-44.2611	0
0.6940	-179.738	-4.40761	-2.43165	-7.0036	-20.1871	-2.4578	13.7263	-35.3276	-29.3258	0
0.6947	-223.086	-6.24269	-0.295434	-4.55903	-19.2197	-0.0423758	-0.0192785	-37.1569	-59.827	0
0.6953	-174.297	-5.31657	2.45437	-2.73006	-22.3154	1.82216	-11.6057	-35.9408	-122.091	-0.321855
0.6960	-148.905	-4.09891	3.67019	-6.69133	-22.3154	0.29663	-15.2686	-31.056	-148.32	0
0.6967	-71.46	-2.57254	1.84078	-10.9649	-16.1884	-2.4578	-13.7456	-23.7289	-55.2403	0
0.6973	55.318	-2.26383	-3.64747	-13.1061	-8.90038	-11.9076	-10.0827	-19.7639	68.0256	-1.28742
0.6980	81.4354	-1.35487	-5.78368	-8.21696	-3.99872	-18.0097	-3.06528	-15.7988	72.0102	-1.60928
0.6987	63.4797	0.480207	-1.81805	1.54347	-1.54789	-9.19554	6.99809	-13.3564	24.0798	-0.321855
0.6993	53.1416	-1.04616	0.931752	2.76575	-3.09578	-0.635637	9.44646	-19.4573	61.6329	0
0.7000	21.9458	-3.18994	1.22719	0.0178436	-8.25542	0.29663	6.092	-20.9799	132.124	-0.321855
0.7007	12.1518	-4.09891	0.624956	0.624524	-16.8333	-3.09343	5.47509	-13.9696	120.514	-0.321855
0.7013	25.0291	-3.7902	0.0113628	3.06909	-21.6705	-6.73775	7.30655	-10.9141	64.6716	-0.321855
0.7020	42.9848	-0.73746	0.931752	4.59472	-16.5108	-7.03438	8.23192	-14.266	39.0438	0
0.7027	75.0874	-0.137202	0.318159	1.24013	-7.35248	-8.26328	6.68964	-19.4573	31.1031	-0.64371
0.7033	79.0776	-2.26383	-2.43165	-4.25569	-0.902937	-11.611	2.42909	-17.9346	20.1239	-2.25299
0.7040	38.8133	-3.18994	-3.04524	-3.0334	2.70881	-11.9076	1.50372	-7.85854	11.5813	-1.93113
0.7047	-6.34797	-1.97228	-0.909026	2.76575	8.19093	-7.03438	6.99809	-0.235041	9.14461	-0.321855
0.7053	-31.0144	0.171502	1.22719	4.59472	13.9955	0.889891	7.30655	0.991259	10.0619	0
0.7060	-28.6566	0.171502	2.76117	3.98803	16.4463	-5.50885	-3.68219	1.29783	9.14461	0
0.7067	-25.0291	-0.445906	1.84078	1.84681	13.0926	-35.4262	-14.054	0.991259	7.62529	0
0.7073	-7.98031	-0.445906	-1.81805	-1.81112	0.580459	-67.4622	-18.623	-1.45112	4.8733	0
0.7080	58.0386	-0.73746	-2.12485	-1.50778	7.03001	-81.4886	-18.0254	-2.67742	-23.5065	0
0.7087	148.361	-0.73746	1.22719	3.98803	49.726	-74.4966	-12.8395	-2.67742	-80.8968	-0.321855
0.7093	183.184	-0.445906	3.06796	9.47493	75.6532	-61.9534	-8.2512	-2.97378	-125.445	0
0.7100	106.827	0.788911	-0.295434	13.1418	67.7203	-50.6814	-7.03665	-1.45112	-149.553	0
0.7107	-25.936	1.69787	-4.26106	14.9707	58.2394	-35.4262	-5.51365	0.378109	-171.225	-0.64371
0.7113	-42.4407	1.38917	-0.909026	13.4451	49.726	-16.8232	-0.616912	3.43364	-195.62	-0.64371
0.7120	96.8519	2.00658	4.28379	11.9195	36.6334	6.69537	5.47509	5.56944	-241.114	-0.321855
0.7127	103.563	4.44191	2.14757	10.3939	13.4151	32.6294	10.661	5.87602	-274.052	0
0.7133	-138.749	4.75062	-3.95426	-0.9011	-10.7063	50.9357	16.1554	4.03657	-211.186	0
0.7140	-292.551	2.91554	-7.6131	-16.1573	-27.1526	62.8433	20.4352	6.78552	-53.119	0
0.7147	-206.037	2.91554	-6.09048	-14.3284	-30.8288	71.9965	18.9122	15.0222	51.571	0
0.7153	-131.856	4.75062	-3.04524	-1.50778	-12.8346	73.522	13.4178	16.555	15.2506	0
0.7160	-122.062	5.96828	-2.43165	4.59472	5.48212	68.6488	9.13801	13.1929	-26.5738	0
0.7167	-28.6566	3.22424	-1.81805	0.0178436	10.6418	64.6654	3.64364	5.56944	-10.6926	0
0.7173	111.18	-1.97228	0.318159	-8.21696	10.9642	59.199	-3.99065	-9.08484	65.9043	0
0.7180	174.297	-4.09891	4.28379	-12.1871	6.70753	40.8503	-7.65356	-14.5725	237.101	0
0.7187	144.915	-4.40761	7.63582	-10.3582	2.70881	11.8652	-12.2226	-11.2206	322.871	-0.321855
0.7193	108.097	-3.7902	7.63582	-5.78131	-3.67624	-18.0097	-19.2399	-7.25561	227.641	-0.321855
0.7200	163.052	-1.66357	4.89738	-3.64009	-19.5421	-40.2994	-24.1174	-1.14455	141.584	0
0.7207	316.492	0.480207	0.624956	-3.64009	-34.5051	-42.4605	-27.4719	5.26287	122.349	-0.321855
0.7213	380.334	3.22424	0.318159	-0.9011	-39.6647	-24.1118	-29.6118	11.6703	98.2401	-0.321855
0.7220	276.59	5.65958	2.14757	1.24013	-43.0185	-7.96665	-38.1714	15.6353	87.8628	0
0.7227	324.472	5.36802	0.931752	-1.81112	-39.9872	-24.1118	-55.5606	14.4192	91.5321	0
0.7233	566.783	3.84165	-1.51126	-7.0036	-33.6021	-40.596	-71.4268	13.8061	86.3435	0
0.7240	575.307	2.60684	-4.26106	-11.8838	-40.8901	-50.9781	-79.6587	15.6353	77.4855	0
0.7247	305.428	4.13321	-6.39727	-13.7128	-47.5977	-139.501	-76.9212	15.3287	73.8449	0
0.7253	3.99015	6.27699	-4.26106	-11.5805	-10.7063	-252.39	-60.4381	8.92133	71.4082	0
0.7260	-319.212	5.65958	-1.51126	-8.21696	65.2694	-284.13	-45.478	5.87602	64.9869	-0.321855
0.7267	-542.298	3.22424	-0.60223	-7.91362	114.093	-268.578	-41.5259	8.30818	58.881	-0.321855
0.7273	-450.706	-2.26383	3.06796	-8.83256	117.188	-239.296	-36.0315	5.87602	55.8423	-0.321855
0.7280	-160.876	-8.36932	10.9992	-6.08465	106.482	-196.539	-24.7343	1.90076	52.173	0
0.7287	-27.387	-10.8218	15.8852	-3.0334	85.4565	-150.476	-11.008	-1.45112	48.5037	0
0.7293	-60.7591	-10.2044	13.749	-4.25569	56.1111	-108.991	14.9408	-5.41616	47.9017	0
0.7300	-53.323	-12.9484	11.9082	-10.6615	19.8001	-85.7686	56.139	-8.77826	47.5864	-1.28742
0.7307	-56.769	-17.5275	11.6128	-14.0161	-19.2197	-72.9711	101.906	-13.0499	42.3977	-2.25299
0.7313	-65.2934	-13.8745	9.1698	-6.38799	-46.4367	-45.5116	144.338	-15.4923	35.0878	-0.965566
0.7320	-58.5827	-6.53424	3.3634	-3.33675	-68.6877	7.62764	164.465	-10.6075	28.3512	-1.60928
0.7327	-182.459	1.08046	-3.95426	-5.47797	-81.5223	91.2351	141.273	6.17237	15.5372	-2.25299
0.7333	-359.477	9.92999	-10.6697	0.624524	-78.1685	158.358	100.692	23.8822	-5.50397	-0.64371
0.7340	-344.785	12.0738	-14.6353	7.64596	-70.4936	183.063	76.8826	27.5406	-25.3412	0.321855
0.7347	-187.356	10.8561	-13.1127	13.4451	-63.2056	222.134	56.139	26.9275	-34.8011	0
0.7353	12.5146	8.11206	-6.39727	18.6376	-55.5306	271.29	24.6958	24.1785	-36.9511	0
0.7360	207.307	2.00658	1.22719	18.9409	-50.371	271.586	1.50372	15.9419	-33.2818	0
0.7367	215.831	-1.66357	4.89738	16.4964	-56.498	230.1	-4.58828	17.1682	-28.6952	0
0.7373	78.7148	-2.88124	5.20418	11.9195	-70.4936	183.996	-5.51365	26.9275	-21.0699	0
0.7380	16.5047	-2.57254	4.89738	6.42368	-78.749	145.222	-6.41974	29.0633	-0.945994	0
0.7387	21.039	0.171502	3.06796	3.68469	-79.3939	109.245	-6.41974	17.1682	19.5219	0
0.7393	4.53426	1.08046	-0.295434	4.89806	-58.3039	77.8019	-5.51365	-3.58693	25.9145	0
0.7400	-16.142	-0.445906	-2.12485	7.34262	-23.5409	59.4956	-4.27983	-20.6836	24.7105	0
0.7407	-41.1711	-1.97228	-0.60223	6.42368	-2.45083	49.4102	-5.20519	-28.3071	9.43127	-0.321855
0.7413	-70.1904	-3.18994	3.67019	5.21032	4.2567	44.2403	-3.37374	-28.0005	-14.9639	0
0.7420	-128.229	-2.88124	7.63582	6.73594	6.06258	41.7825	-0.327734	-19.4573	-22.9045	0
0.7427	-174.841	-2.88124	7.63582	8.56491	8.5134	38.4348	-0.925368	-12.4367	-21.3852	-0.321855
0.7433	-105.558	-3.7902	5.20418	5.817	13.4151	35.0871	-3.37374	-12.1301	-26.5738	-0.321855
0.7440	36.2741	-5.62528	4.28379	1.84681	15.2209	31.1038	-5.51365	-10.9141	-33.2818	0
0.7447	166.68	-6.24269	5.20418	3.37243	14.6405	28.646	-6.41974	-4.50665	-41.5091	0
0.7453	144.915	-3.18994	3.06796	5.817	16.1239	28.0528	-5.82211	0.991259	-47.9304	0
0.7460	-58.0386	1.38917	-2.43165	7.03928	17.0913	26.2306	-7.65356	6.78552	-44.8631	-0.321855
0.7467	-209.302	3.84165	-7.01087	5.51366	13.9955	24.4084	-12.2226	11.0571	-39.0724	-0.321855
0.7473	-156.16	3.22424	-10.6697	2.46241	8.5134	14.9163	-16.1939	7.0921	-34.8011	0
0.7480	-24.3037	4.44191	-10.6697	2.76575	3.61175	-9.19554	-18.0254	0.991259	-39.0724	-0.321855
0.7487	-67.6512	5.96828	-4.26106	4.29138	0.580459	-30.8496	-17.7169	-3.28035	-35.7184	-0.321855
0.7493	-157.974	5.65958	0.318159	1.84681	-1.22541	-36.9517	-15.2686	-8.16511	24.3952	0
0.7500	64.7493	3.84165	-1.20446	-3.0334	-1.54789	-36.0194	-13.7456	-9.39141	77.4855	0
0.7507	322.658	1.69787	-3.95426	-5.16571	-2.77331	-31.4428	-14.9601	-9.08484	53.377	0
0.7513	211.115	0.788911	-3.04524	-2.73006	-4.90166	-24.4508	-15.2686	-11.5272	21.6432	-0.321855
0.7520	-49.1514	1.08046	-0.295434	1.54347	-8.25542	-19.5352	-14.3625	-10.9141	12.4986	-0.321855
0.7527	-163.596	-1.04616	2.76117	1.24013	-16.5108	-14.0688	-11.9141	-6.94903	-1.54799	-0.321855
0.7533	-93.95	-5.00787	5.20418	-2.11446	3.03129	-0.932267	-8.55965	-10.3009	-18.3179	-0.321855
0.7540	52.5975	-7.76906	5.80641	-3.33675	67.1398	13.0941	-4.27983	-19.7639	-36.9511	0
0.7547	123.332	-4.40761	3.97699	0.321184	108.288	21.9507	2.12063	-19.4573	-59.225	0
0.7553	113.538	2.91554	-0.60223	6.12034	98.8716	27.7561	10.0634	-5.41616	-88.8088	0
0.7560	140.925	5.96828	-4.56786	5.21032	74.7503	29.8749	16.7723	8.92133	-131.866	0
0.7567	58.9454	4.75062	-4.56786	-2.73006	49.726	25.2983	15.5577	7.70525	-146.199	-0.321855
0.7573	-191.346	2.60684	-5.18145	-7.61028	23.4764	18.3063	6.68964	-3.8935	-91.8761	-0.321855
0.7580	-225.262	1.38917	-4.56786	-6.08465	-0.902937	20.7218	6.40046	-8.47169	-27.7778	-0.321855
0.7587	-17.5929	0.480207	-0.60223	-2.73006	-24.4438	23.1796	14.3239	-7.25561	7.62529	0
0.7593	68.3767	-1.35487	3.3634	-3.0334	-43.9859	12.7975	13.7263	-10.3009	30.1858	0
0.7600	-22.3086	-7.46035	2.45437	-12.1871	-56.498	-7.33101	5.47509	-16.4018	28.3512	-1.93113
0.7607	-85.0628	-8.98672	-2.12485	-18.2896	-61.3352	-27.7985	2.73755	-14.8791	55.2117	-2.25299
0.7613	-49.1514	-1.66357	-4.26106	-6.38799	-60.1098	-29.6207	3.95209	-9.39141	104.977	-0.64371
0.7620	-5.07838	2.91554	-4.26106	10.0905	-53.1443	-15.8909	3.33518	-12.1301	79.6355	0
0.7627	-2.35782	2.91554	-4.26106	17.112	-40.6322	-4.61896	1.81218	-15.7988	6.99462	-0.321855
0.7633	-49.6955	1.38917	-2.73844	17.7187	-26.2497	1.48315	-2.75682	-14.266	-71.1216	0
0.7640	-71.0973	-2.57254	-0.909026	20.7699	-15.8659	-8.55991	-10.0827	-14.5725	-157.494	0
0.7647	4.53426	-2.88124	0.931752	27.1757	-15.6079	-39.7061	-10.6996	-9.99434	-221.563	-0.321855
0.7653	50.421	0.480207	0.624956	30.227	-25.3467	-72.3355	-8.55965	-1.7577	-261.238	0
0.7660	-4.17152	0.480207	0.318159	29.6203	-33.6021	-92.803	-9.48502	-2.06427	-307.018	0
0.7667	-58.0386	-2.57254	1.53398	24.7401	-33.2797	-100.134	-11.6057	-4.81323	-344.858	0
0.7673	-82.705	-5.00787	1.84078	13.1418	-27.1526	-97.0829	-12.8395	-3.28035	-357.07	-0.321855
0.7680	-37.9065	-6.24269	7.03359	0.321184	-21.993	-85.7686	-15.577	-0.541616	-335.713	-0.321855
0.7687	135.302	-8.67802	14.9648	-14.9351	-17.0913	-61.6568	-31.1348	0.684684	-148.32	-0.321855
0.7693	336.08	-7.76906	13.4422	-29.5846	-10.0613	-30.8496	-52.5146	3.74021	152.563	0
0.7700	429.667	-0.445906	3.67019	-34.4648	-2.12835	-18.6453	-58.2982	15.3287	261.524	-0.321855
0.7707	394.844	7.18595	-4.26106	-35.6871	-1.54789	-22.2897	-57.9897	27.8472	243.206	-0.321855
0.7713	236.87	15.4352	-9.14708	-34.7682	-5.48212	-14.0688	-66.8578	35.4707	297.529	0
0.7720	39.3574	22.4497	-11.5901	-23.1788	0.257982	-18.942	-73.2583	40.662	318.599	0
0.7727	-142.739	20.3059	-8.22669	-7.0036	34.1826	-69.92	-68.3808	37.9131	232.514	-0.321855
0.7733	-447.078	11.1648	-2.12485	0.624524	95.7758	-115.686	-58.9151	28.1538	141.268	0
0.7740	-490.789	4.44191	1.53398	-0.9011	136.408	-116.618	-50.0662	21.4398	101.909	0
0.7747	24.485	2.00658	4.28379	-2.42672	129.378	-88.2264	-41.5259	24.7917	84.2221	-0.321855
0.7753	401.373	4.13321	2.76117	-0.285497	102.548	-50.3848	-33.8916	36.0839	72.0102	0
0.7760	286.203	8.11206	-4.26106	2.46241	69.2682	-19.8742	-24.4259	39.7423	60.7156	0
0.7767	16.5047	6.27699	-6.39727	2.76575	33.5377	-0.339006	-12.531	30.8925	45.1497	0
0.7773	-179.194	0.788911	-4.56786	1.84681	3.93422	19.8319	2.73755	17.7711	32.9378	0
0.7780	-188.807	-2.88124	-1.20446	3.98803	-25.9272	43.6047	29.284	0.684684	27.1472	0
0.7787	-46.0681	-5.00787	4.89738	5.51366	-52.8218	66.4876	49.7192	-16.7083	21.3565	0
0.7793	140.381	-5.31657	8.24941	1.84681	-65.9144	83.6074	49.1216	-24.0355	18.6045	0
0.7800	393.756	-4.09891	5.49961	-4.55903	-67.4623	87.5484	56.7559	-16.4018	19.8085	0.321855
0.7807	573.131	-1.66357	-0.909026	-7.30694	-49.7905	91.5317	74.4535	-3.28035	12.4986	0.321855
0.7813	345.874	3.84165	-5.47688	-4.55903	-17.7363	104.668	68.9592	5.56944	15.2506	0.321855
0.7820	-164.14	7.18595	-7.6131	-0.588837	5.80459	119.923	43.0103	3.43364	58.881	0
0.7827	-418.966	5.36802	-8.22669	1.84681	21.9285	128.78	22.2667	-4.50665	96.1187	-0.321855
0.7833	-267.34	-0.445906	-4.26106	-0.285497	29.6034	118.398	13.7263	-18.5376	87.2608	0
0.7840	-20.4949	-9.29543	2.76117	-6.08465	8.83588	92.1249	4.569	-34.7145	68.9429	0
0.7847	34.279	-12.6397	8.55621	-6.69133	-19.2197	61.6144	-9.17656	-32.5787	56.4443	0
0.7853	-25.3919	-8.06061	9.1698	-2.11446	-29.3454	33.5616	-15.577	-15.1857	42.7131	0
0.7860	55.4994	-3.18994	4.89738	0.0178436	-36.6334	6.39874	-15.2686	-4.20008	33.5398	0
0.7867	165.41	-3.49865	0.318159	-1.81112	-42.7605	-11.9076	-12.8395	-9.08484	28.6665	0
0.7873	129.68	-5.62528	-2.43165	-3.33675	-37.8588	-12.8399	-7.65356	-20.6836	23.7932	0.321855
0.7880	102.837	-5.93398	-0.909026	-3.95235	-33.2797	-6.73775	3.95209	-24.0355	23.7932	0
0.7887	113.175	-3.7902	2.76117	-3.64009	-42.438	1.48315	19.5098	-18.8441	23.7932	-0.321855
0.7893	111.362	-2.57254	4.89738	-1.50778	-42.7605	6.39874	38.4413	-8.16511	12.1833	0.321855
0.7900	75.6315	-8.36932	3.3634	-3.33675	-0.902937	-3.68669	65.8939	2.82049	-0.0286665	-0.965566
0.7907	-203.135	-11.7308	-2.43165	-8.52922	42.696	-14.662	84.5169	9.53448	-5.50397	-2.25299
0.7913	-528.514	-1.35487	-7.6131	-5.47797	51.5319	-12.8399	81.4709	15.0222	-8.25595	-1.28742
0.7920	-459.23	8.71232	-10.6697	-3.64009	59.7873	-8.55991	75.0512	16.2485	-8.57128	0.321855
0.7927	-140.381	5.96828	-10.3629	-7.0036	75.6532	-5.21222	71.0991	8.30818	-13.7599	0
0.7933	36.9996	-2.57254	-5.78368	-5.16571	76.2982	3.64432	59.8019	-4.20008	-29.6125	0
0.7940	5.44112	-7.46035	-3.04524	-2.11446	62.8186	12.7975	42.7019	-17.3215	-3.66931	0
0.7947	-56.4063	-5.62528	-1.81805	-0.588837	43.5989	21.3574	30.807	-29.2268	62.5503	-0.321855
0.7953	-76.357	0.171502	0.0113628	3.06909	22.5734	35.0871	24.6958	-29.8297	68.0256	0
0.7960	-71.6414	5.96828	-0.295434	4.59472	-0.322477	46.9947	13.4178	-14.8791	30.1858	0
0.7967	8.52442	8.40362	-0.60223	2.76575	-21.993	45.1302	-1.85074	-10.6075	16.1679	0
0.7973	107.371	6.58569	0.0113628	0.936787	-34.1826	29.2817	-10.6996	-21.5931	11.8966	0
0.7980	60.215	5.05932	1.22719	1.54347	-37.2784	15.2553	-11.008	-12.1301	8.54261	0
0.7987	-112.268	6.87725	2.76117	4.89806	-34.8276	10.6787	-8.2512	9.84105	7.62529	0
0.7993	-249.566	5.36802	1.84078	4.59472	-25.3467	4.87321	-7.03665	11.6703	3.64064	-0.321855
0.8000	-295.453	-1.66357	-1.20446	-1.20444	-15.2854	-1.86453	-7.65356	2.20734	0.286665	-1.60928
0.8007	-235.6	-2.88124	-0.909026	-1.20444	-13.1571	-1.5679	-10.0827	-2.67742	-1.23266	-0.965566
0.8013	-81.7981	-0.73746	4.28379	3.06909	-17.4138	2.41542	-11.008	-5.10958	0.286665	0.321855
0.8020	65.6562	-2.57254	9.1698	3.68469	-25.0242	2.71205	-11.008	-8.47169	0.286665	0
0.8027	121.7	-4.71632	10.3856	3.98803	-27.1526	1.82216	-11.6057	-10.6075	-12.8426	-0.321855
0.8033	91.5921	-6.24269	8.55621	5.21032	-23.5409	-2.16116	-11.9141	-6.64246	-36.9511	0
0.8040	36.6369	-6.53424	3.67019	5.51366	-24.1213	-7.33101	-13.7456	-0.837971	-52.517	0
0.8047	-22.49	-3.7902	1.53398	5.817	-22.5734	-7.96665	-14.6709	-1.45112	-53.721	-0.321855
0.8053	-46.4309	-0.445906	2.76117	4.59472	-14.6405	-5.21222	-14.3625	-1.7577	-50.6824	0
0.8060	32.6467	-0.445906	3.3634	1.24013	-10.3838	-3.98332	-16.7916	2.51391	-42.7417	0
0.8067	51.872	-2.57254	3.06796	-0.588837	-8.90038	-4.27995	-21.3799	8.30818	-40.9071	-0.321855
0.8073	-107.734	-0.73746	0.318159	-1.81112	-7.03001	-6.44112	-26.5658	18.3843	-39.9897	0
0.8080	-192.253	2.91554	0.0113628	-5.16571	-4.3212	-7.33101	-28.0888	27.2341	-0.630663	0
0.8087	-104.107	4.44191	3.06796	-4.86237	-1.22541	-9.19554	-24.7343	28.4501	15.8526	-0.321855
0.8093	-42.6221	6.87725	1.84078	0.321184	3.93422	-11.9076	-24.4259	26.018	-26.2585	-0.321855
0.8100	-22.8527	7.49465	-1.51126	0.0178436	10.0613	-13.4331	-26.8742	18.3843	-39.0724	0
0.8107	4.53426	1.38917	-0.909026	-0.9011	14.318	-14.662	-26.5658	4.64972	-56.1576	0
0.8113	10.7009	-2.26383	2.14757	8.56491	16.1239	-14.662	-21.6883	0.378109	-113.835	0
0.8120	17.7743	1.38917	2.14757	16.193	14.963	-15.2977	-14.6709	11.3637	-150.47	0
0.8127	21.039	6.87725	-3.04524	14.0607	15.2209	-17.7131	-7.34511	23.5756	-173.977	0
0.8133	-7.07345	9.02103	-9.74931	5.817	0.902937	-21.993	-2.15919	28.4501	-114.15	0
0.8140	-68.9208	6.27699	-10.3629	-5.16571	-4.3212	-26.273	0.289177	24.1785	78.7182	-0.321855
0.8147	-89.9598	2.60684	-4.87465	-11.8838	72.6219	-24.4508	2.12063	11.3637	218.496	-0.321855
0.8153	-69.2836	3.22424	-3.34067	-11.5805	160.207	-17.4164	5.78355	0.991259	196.222	0
0.8160	-44.7985	5.05932	-5.78368	-9.1359	158.659	-11.0177	13.1094	-2.06427	108.331	0
0.8167	24.6664	3.53295	-7.01087	-9.1359	115.06	-4.61896	19.5098	-6.64246	56.129	0
0.8173	62.0287	1.08046	-6.39727	-8.21696	72.9444	-3.09343	21.0328	-13.0499	50.3384	0
0.8180	28.1124	0.788911	-3.04524	-0.588837	35.666	-6.44112	25.3127	-14.8791	38.7284	0
0.8187	24.6664	1.69787	0.318159	7.03928	4.57918	-10.0854	25.0042	-16.7083	7.91195	0
0.8193	54.9553	1.38917	-0.295434	8.26157	-30.8288	-15.2977	15.8469	-21.2865	-25.9432	0
0.8200	58.9454	-6.53424	-1.81805	2.15907	-69.0102	-24.7475	8.52109	-28.0005	-57.7056	-1.60928
0.8207	57.3131	-13.2571	-2.43165	-2.73006	-89.4552	-28.0951	9.44646	-29.5334	-75.0775	-2.25299
0.8213	74.1806	-6.24269	0.318159	3.37243	-90.9386	-18.942	14.6324	-20.377	-74.7909	-0.64371
0.8220	79.6217	0.480207	1.84078	7.03928	-87.0044	-9.49218	12.4925	-12.7433	-66.8503	0
0.8227	36.0927	2.60684	-2.12485	4.89806	-77.5236	3.00868	5.78355	-7.25561	-40.9071	-0.321855
0.8233	-37.9065	5.05932	-7.6131	3.68469	-59.2069	11.272	2.12063	1.90076	-11.6099	0
0.8240	-60.3964	2.60684	-7.91989	4.59472	-32.0543	-1.5679	-1.85074	4.34314	-12.8426	0
0.8247	-25.5733	-1.04616	-2.43165	4.59472	-8.90038	-12.2466	-3.68219	1.29783	36.6071	-0.321855
0.8253	-10.7009	-1.66357	3.3634	-1.20444	2.70881	-8.85654	-3.06528	-0.235041	142.186	-0.321855
0.8260	18.8625	-4.09891	6.42	-4.86237	8.83588	-6.44112	-4.89674	-2.97378	121.145	0
0.8267	124.239	-7.46035	7.03359	-2.11446	8.83588	-13.4331	-7.65356	-5.72273	-7.33862	-0.321855
0.8273	200.777	-9.89569	7.94262	-3.33675	4.57918	-21.0608	-9.17656	-6.33588	-92.4781	-0.321855
0.8280	152.533	-10.8218	13.1354	-7.0036	5.15964	-22.9253	-9.17656	-5.72273	-113.835	-0.321855
0.8287	110.273	-8.98672	15.2716	-7.30694	5.15964	-31.7818	-7.34511	-1.7577	-79.3488	0
0.8293	224.9	-6.53424	10.3856	-5.47797	0.902937	-43.3504	-6.41974	6.17237	-47.615	0
0.8300	362.923	-3.18994	3.97699	-3.64009	-3.09578	-44.8759	-7.65356	15.6353	-52.517	-0.321855
0.8307	372.717	3.22424	-3.95426	-4.55903	-4.57918	-38.4772	-8.55965	25.7114	-36.6358	-0.321855
0.8313	297.811	11.7651	-11.2833	-3.95235	-4.90166	-23.5186	-4.89674	34.8678	1.51932	0
0.8320	279.492	16.0355	-10.9765	2.76575	-6.12707	-7.67002	-2.44837	37.2999	12.4986	0
0.8327	267.34	15.4352	-8.22669	11.0006	-8.90038	1.48315	-5.82211	38.2197	-11.6099	-0.321855
0.8333	-111.906	15.4352	-11.5901	14.6674	-14.3825	6.10211	-9.17656	42.1847	-66.2483	0
0.8340	-605.778	16.9616	-17.9987	13.7485	-20.1871	14.6196	-14.6709	38.8328	-131.551	0
0.8347	-648.763	17.8705	-17.6919	13.1418	-24.7663	28.985	-23.5198	33.6415	-157.494	-0.321855
0.8353	-449.255	16.9616	-12.1923	10.3939	-29.023	35.0871	-28.7057	32.4254	-158.698	-0.321855
0.8360	-169.4	10.5474	-3.95426	3.68469	-37.2784	35.0871	-35.1061	22.6559	-155.057	0
0.8367	199.326	-0.445906	4.89738	-5.47797	-40.3097	23.1796	-44.5719	1.60441	-85.1681	0
0.8373	326.648	-8.06061	7.63582	-16.764	-6.12707	-21.0608	-48.2348	-15.1857	38.7284	0
0.8380	165.954	-8.36932	6.42	-24.3921	62.2381	-62.8857	-47.0202	-20.0704	77.4855	0
0.8387	6.71071	-7.46035	7.03359	-23.1788	148.017	-73.861	-42.7404	-25.5581	1.20399	0
0.8393	-38.0878	-9.29543	8.86301	-20.7342	223.993	-71.1489	-36.0315	-40.8153	24.9972	0
0.8400	-11.6077	-12.6397	10.3856	-23.4821	227.024	-66.869	-29.3033	-54.2433	163.858	-0.321855
0.8407	23.2154	-16.0012	10.6924	-25.0077	176.976	-66.53	-25.6597	-55.4696	178.22	-0.321855
0.8413	66.9257	-14.1661	9.77203	-21.0376	129.055	-62.2924	-23.8282	-43.5643	94.2841	0
0.8420	147.817	-5.62528	5.80641	-16.4607	65.5919	-51.2747	-18.3338	-23.1157	51.8577	0
0.8427	243.581	0.788911	1.84078	-13.7128	14.963	-40.0027	-9.17656	-4.20008	49.7364	-0.321855
0.8433	257.365	2.00658	-1.20446	-7.61028	48.5006	-30.5529	-0.925368	8.92133	59.483	0
0.8440	226.713	4.44191	-5.18145	3.37243	102.548	-24.4508	6.40046	16.2485	42.9997	-0.321855
0.8447	180.645	9.92999	-6.39727	15.5863	88.4878	-16.8232	21.6497	19.9069	-21.3852	-0.64371
0.8453	-147.998	13.2914	-5.78368	27.1757	35.408	-3.68669	42.7019	21.4398	-99.186	-0.321855
0.8460	-548.102	10.5474	-3.04524	36.6417	18.5747	16.4418	55.2136	23.8822	-161.45	0
0.8467	-581.293	5.05932	0.0113628	38.1674	25.9272	52.1646	59.185	25.4048	-170.623	0
0.8473	-396.476	1.69787	-2.73844	30.8426	-12.5121	74.4542	57.9704	20.2135	-107.442	0
0.8480	-169.581	0.788911	-3.04524	22.2955	-43.341	55.2156	52.7845	12.2834	-73.8735	0
0.8487	43.8917	-1.04616	2.45437	12.2228	-20.1871	30.8072	43.0103	2.82049	-137.943	0
0.8493	147.998	-1.66357	3.67019	0.624524	-15.2854	20.1285	27.4526	-5.41616	-176.098	0
0.8500	198.964	-4.40761	-1.81805	-8.52922	-63.2056	3.64432	10.0634	-4.81323	-107.442	-0.965566
0.8507	220.003	-11.1134	-7.01087	-15.854	-112.029	-12.2466	-0.0192785	-8.47169	-50.367	-2.25299
0.8513	109.548	-6.53424	-3.95426	-15.5417	-130.345	-15.8909	1.50372	-18.8441	30.1858	-0.64371
0.8520	-64.9307	0.171502	-0.60223	-11.5805	-143.115	-21.993	4.569	-18.5376	192.553	-0.321855
0.8527	-89.7784	-6.53424	-1.20446	-9.43924	-161.432	-27.1629	6.40046	-12.1301	208.119	-2.25299
0.8533	-19.2253	-12.3482	0.931752	-2.42672	-177.298	-11.611	6.40046	-14.8791	85.7415	-1.93113
0.8540	-109.548	-9.89569	3.3634	4.29138	-181.297	8.51753	5.16664	-25.5581	26.8318	0
0.8547	-250.291	-5.31657	1.84078	5.21032	-166.656	15.2553	12.8009	-29.2268	24.3952	0
0.8553	-212.022	-0.445906	0.624956	6.42368	-144.083	17.9673	25.9296	-20.0704	39.0438	0
0.8560	-147.636	1.69787	0.931752	6.73594	-120.865	28.985	28.3587	-7.55196	46.9844	0
0.8567	-141.832	0.480207	-0.295434	6.42368	-103.773	41.4859	21.3413	0.378109	30.8165	0
0.8573	3.99015	-1.04616	-3.34067	8.86825	-88.8103	46.6557	12.4925	2.51391	14.9352	0
0.8580	251.561	-1.04616	0.0113628	10.3939	-60.4323	47.588	4.85818	5.26287	13.7026	-0.321855
0.8587	401.373	-0.445906	6.42	7.03928	-38.1813	49.7068	-3.37374	17.4645	20.4392	0
0.8593	493.509	-0.73746	8.24941	1.24013	-38.7618	63.4365	-11.3165	26.3143	27.7492	0
0.8600	607.047	-1.97228	6.1132	-5.47797	-51.5964	85.1329	-15.2686	15.9419	30.1858	0
0.8607	457.779	-1.66357	1.22719	-11.2771	-59.8518	53.6901	-17.1	4.64972	25.9145	0
0.8613	-50.0583	4.44191	-1.51126	-12.1871	-40.3097	-59.538	-16.5024	7.0921	31.7338	0
0.8620	-437.284	8.71232	-0.60223	-10.6615	-18.9617	-170.012	-15.2686	9.2279	54.925	-0.321855
0.8627	-587.097	6.58569	2.45437	-9.1359	-14.06	-212.133	-14.6709	3.12706	82.0722	0
0.8633	-535.225	1.38917	3.97699	-8.83256	-7.67496	-218.829	-14.3625	-6.64246	87.8628	0
0.8640	-155.253	-5.93398	5.49961	-10.6615	-3.35377	-211.498	-19.8568	-15.4923	64.0696	-0.321855
0.8647	-40.627	-9.29543	9.77203	-9.7515	-11.9317	-204.802	-24.4259	-13.663	46.3824	0
0.8653	-444.358	-2.26383	7.94262	-5.47797	-17.4138	-225.227	-21.9968	3.12706	49.1057	0
0.8660	-487.706	5.05932	1.84078	-2.42672	24.3793	-276.205	-15.577	21.7362	51.8577	-0.321855
0.8667	-31.0144	3.53295	0.624956	-3.0334	76.2982	-343.964	-6.72819	26.6209	39.0438	-0.321855
0.8673	314.678	0.788911	-1.20446	-1.20444	71.977	-365.618	9.44646	22.0427	6.39263	0
0.8680	427.309	2.31528	-3.95426	6.12034	54.6277	-309.767	32.33	15.6353	-23.5065	0
0.8687	413.162	3.84165	-4.56786	10.3939	129.378	-213.659	52.4761	8.61475	-36.3204	0
0.8693	263.169	4.13321	-4.87465	9.17159	276.75	-115.686	65.8939	7.0921	-47.615	0
0.8700	-54.0484	3.22424	-6.09048	3.06909	335.957	-25.3407	68.3423	7.39867	-55.5557	-0.321855
0.8707	-332.09	0.480207	-6.09048	-3.64009	273.719	61.6144	56.139	2.51391	-57.075	0
0.8713	-353.129	0.788911	-4.87465	-3.33675	169.946	138.526	40.2728	3.74021	-65.0156	0.321855
0.8720	-234.694	3.22424	-3.95426	-3.64009	68.6232	176.368	23.4812	9.2279	-62.8943	0
0.8727	-117.528	0.480207	-1.20446	-15.854	-17.9942	119.627	8.23192	-0.541616	-7.33862	-0.321855
0.8733	15.5979	-7.46035	4.89738	-28.969	-104.676	34.4515	1.81218	-24.0355	66.8216	0
0.8740	123.695	-15.3838	10.0788	-23.7855	-184.973	-15.2977	1.50372	-43.8709	72.0102	0
0.8747	155.435	-16.0012	13.1354	-7.91362	-244.76	-104.372	10.3526	-44.484	25.3125	0
0.8753	153.44	-9.58698	11.9082	0.0178436	-278.04	-180.69	13.7263	-30.7495	-9.77527	-0.321855
0.8760	137.66	-2.88124	5.80641	2.15907	-258.82	-155.053	-3.99065	-18.8441	-15.2792	-0.321855
0.8767	47.8818	0.788911	-0.909026	3.68469	-198.388	-80.8954	-26.8742	-13.0499	-0.315331	0
0.8773	-128.41	2.91554	-4.56786	3.37243	-150.468	-10.3821	-44.2634	-3.8935	20.1239	0
0.8780	-283.482	4.44191	-3.34067	2.46241	-112.609	47.2914	-51.2808	9.84105	36.6071	0
0.8787	-235.238	3.53295	1.22719	2.76575	-63.2056	79.0308	-45.7864	15.6353	46.9844	0
0.8793	-50.6024	1.08046	4.59058	3.98803	-1.87037	91.5317	-43.0489	12.2834	61.6329	0
0.8800	14.691	-4.71632	3.06796	-2.42672	59.7873	102.21	-41.8151	7.70525	59.483	-1.60928
0.8807	31.1957	-13.2571	3.97699	-10.9649	91.5191	114.118	-30.5371	6.17237	14.0179	-2.25299
0.8813	50.9651	-11.4221	12.8286	-5.78131	89.3907	138.823	-13.7456	9.53448	-34.1991	-0.965566
0.8820	58.4013	-3.7902	14.6581	6.12034	58.8844	175.436	-3.06528	15.0222	-59.225	0
0.8827	113.901	1.08046	5.80641	12.8384	15.2209	204.463	2.12063	16.2485	-80.5815	0
