MR32 ASCII
Name	TBAS30_fast
Frequency	1500
Date	31-08-2015 11:15:18
"Time,s"	"RT TIB.ANT.,uV"	"RT MED. GASTRO,uV"	"RT LAT. GASTRO,uV"	"RT BICEPS FEM.,uV"	"RT VMO,uV"	"RT VLO,uV"	"RT RECTUS FEM.,uV"	"RT SOLEUS,uV"	"RT SEMITEND.,uV"	"Channel 12,uV"
0.0000	-7.65067	464.829	-286.099	-1.69072	-13.0267	5.78277	-9.72574	141.457	6.17418	-7729.4
0.0007	-34.4741	398.019	-225.684	-3.52233	-11.4961	-2.44545	-6.07426	184.778	5.90574	-10550.7
0.0013	-20.1867	195.664	36.4547	-3.85108	-10.5811	-21.6926	3.08039	280.015	4.65301	-9618.52
0.0020	24.7034	-249.277	259.241	0.140893	-11.1967	-29.9208	17.1325	201.254	7.15847	-9758.27
0.0027	22.8598	-488.199	252.542	2.86483	-13.6257	-31.7621	25.37	61.5017	8.32173	-9890.61
0.0033	-18.6197	-423.222	130.747	1.03322	-13.0267	-30.525	21.3897	51.4391	5.01093	-9786.6
0.0040	-26.9156	-72.5837	-3.22038	0.140893	-10.2816	-15.881	12.5465	124.061	4.65301	-9814.29
0.0047	-34.4741	464.554	-186.589	0.422679	-9.36661	-4.8909	7.06068	320.3	6.17418	-9816.55
0.0053	-83.3278	791.089	-360.232	2.86483	-8.75104	-9.7818	7.97787	394.73	6.17418	-9817.19
0.0060	-103.514	739.218	-394.11	5.30697	-7.83601	-18.643	8.58357	77.3633	5.01093	-9787.89
0.0067	-67.7499	581.403	-225.684	2.86483	-9.66607	-27.4753	3.08039	-197.604	0.98429	-9868.39
0.0073	-22.3068	435.502	12.3663	1.36197	-10.5811	-35.4159	0.0346112	-78.2842	-1.07377	-9823.95
0.0080	-15.5779	178.527	112.134	3.80411	-7.83601	-34.4952	1.869	36.4644	-0.178962	-9549.94
0.0087	-67.4734	-11.2725	64.5364	4.41465	-3.85977	-28.1083	1.26331	-45.9131	0.0894809	-10477.6
0.0093	-115.037	-63.1442	-12.6883	3.80411	-1.43078	-27.1876	3.99759	-9.92624	1.61066	-8643.86
0.0100	-100.749	-85.1392	-53.2651	4.0859	-2.34581	-29.3166	11.3352	163.732	3.13183	-2082.32
0.0107	-40.0047	-31.068	-55.7126	3.19358	-5.39037	-25.3464	10.7122	180.821	1.34221	108.189
0.0113	19.5415	41.2408	-72.4586	2.86483	-6.62151	-18.01	4.30909	-1.97843	1.34221	-197.703
0.0120	46.0884	69.0095	-83.1502	1.9725	-11.1967	-21.3761	-2.40548	-250.1	3.13183	-57.3144
0.0127	44.5214	-129.038	-38.9022	-1.40893	-13.3262	-31.4456	-6.07426	-348.339	4.65301	75.346
0.0133	25.2564	-488.199	-19.0647	-1.08018	-2.02971	-28.7125	-1.48828	-258.321	8.32173	-29.3012
0.0140	-19.9102	-538.329	-32.7835	0.140893	9.86572	-18.9307	11.3352	-146.642	10.8272	-1.60996
0.0147	-83.973	-361.269	-12.3663	-3.24054	11.6958	-10.386	17.7382	25.7878	10.4693	-0.321991
0.0153	-108.953	-58.2869	25.7631	-6.29322	4.67499	7.30758	5.22629	130.474	8.94809	-1.28797
0.0160	-76.0458	491.04	56.6143	-9.62769	-8.75104	26.2382	-9.72574	178.672	5.27938	-0.643983
0.0167	-19.2649	751.681	116.449	-8.40662	-18.5169	35.6748	-12.4773	292.193	3.13183	0
0.0173	36.8707	573.43	179.568	-4.13286	-19.7314	40.8822	-11.5601	213.465	3.48976	-0.321991
0.0180	37.5159	410.85	110.008	-3.52233	-19.432	31.1004	-2.71698	74.3274	1.96858	-0.321991
0.0187	-33.921	188.333	-19.0647	-4.13286	-19.1325	7.62405	18.9496	135.045	1.34221	-0.321991
0.0193	-75.1241	-182.192	-146.656	-6.57501	-9.66607	-8.25699	29.6445	177.751	2.23702	0
0.0200	-39.3595	-468.128	-297.112	-9.01716	8.03565	-7.33635	16.821	110.621	2.23702	0
0.0207	6.63673	-781.192	-231.803	-2.01947	26.3363	19.2184	3.99759	103.287	1.34221	0
0.0213	10.6925	-1107.45	15.7155	8.07787	39.779	51.5558	2.7862	173.794	-0.178962	0
0.0220	-24.4268	-1142.83	96.6114	7.74912	39.4629	46.9814	-5.45126	253.136	-2.3265	0
0.0227	-53.739	-935.89	-64.2144	3.19358	31.8431	23.4763	-22.2377	337.97	-4.2056	-0.321991
0.0233	-50.4207	-726.295	-235.152	3.80411	26.9519	24.0805	-33.5382	350.795	-5.36886	-0.321991
0.0240	-25.0721	-515.693	-164.046	5.91751	18.101	37.5161	-38.7299	224.142	-5.36886	-0.321991
0.0247	-6.45237	-85.1392	-36.1327	7.74912	3.75995	31.7333	-35.0611	65.4586	-2.59495	-0.321991
0.0253	-10.6925	55.5375	-77.9976	6.8568	-6.92097	-12.8314	-20.1091	-32.5076	0.447405	0
0.0260	-29.9574	-515.143	-69.7535	3.80411	-13.0267	-78.4558	-11.2486	-67.6076	0.98429	0
0.0267	-55.3061	-600.557	-17.5189	1.9725	-18.5169	-118.13	-16.1461	-65.7656	-0.536886	0
0.0273	-56.5044	303.99	-61.7669	1.03322	-18.5169	-116.288	-14.6059	22.1379	-0.178962	0
0.0280	-25.9938	834.071	-58.7398	1.64375	-17.3024	-101.644	0.640307	130.167	3.48976	0
0.0287	-23.8738	834.713	40.448	2.86483	-22.1771	-87.6046	25.6642	3.82041	4.11612	0
0.0293	-40.9265	1121.29	105.757	0.140893	-22.1771	-59.2086	50.0824	-230.555	0.98429	0
0.0300	-18.9884	1191.4	108.784	-2.63	-13.6257	-5.52384	49.7709	-296.798	-2.05806	-0.321991
0.0307	16.1309	699.168	245.844	-2.01947	-4.17588	77.1899	23.2241	-275.41	-4.2056	-0.643983
0.0313	37.2394	200.522	496.39	1.64375	8.33512	165.686	-3.63417	-259.242	-1.70014	0
0.0320	47.8397	-56.7289	569.943	3.47536	18.101	209.33	-20.4033	-260.163	-0.178962	0
0.0327	27.1	-103.743	458.196	1.64375	17.186	199.577	-28.658	-217.422	-4.2056	0
0.0333	14.0109	-162.58	393.209	-0.187857	12.6108	177.597	-26.5122	-135.045	-6.62159	0
0.0340	53.3703	-564.54	423.416	0.140893	9.56625	151.042	-21.3205	-200.026	-4.74249	0
0.0347	55.8591	-946.888	348.638	0.140893	8.03565	92.7544	-17.9632	-278.787	-1.43169	0
0.0353	-0.645237	-925.901	171.646	0.75143	6.20559	22.8721	-9.72574	-208.587	5.27938	0
0.0360	-16.2231	-524.216	117.351	-1.08018	1.92989	-11.6231	-2.09398	-205.245	9.30602	0
0.0367	-6.7289	203.271	117.93	-5.35394	-2.64528	-12.5437	-0.276889	-180.514	7.15847	0
0.0373	-2.48877	1019.65	64.5364	-5.07215	-6.92097	-8.57346	4.30909	-27.3227	6.80055	0
0.0380	32.354	1765.2	-1.09493	-3.52233	-12.7106	-9.7818	11.3352	-49.5971	8.32173	0
0.0387	85.4479	1667.87	-100.218	-2.01947	-11.4961	-3.36609	13.1522	-99.6376	8.32173	0
0.0393	90.3332	688.812	-163.724	3.47536	-6.92097	17.0606	4.30909	37.9994	5.27938	0
0.0400	31.4323	177.06	-203.979	5.02519	-8.13547	36.3077	-5.45126	149.371	-0.805328	0
0.0407	20.3711	137.103	-283.651	3.47536	-8.75104	22.8721	0.640307	347.452	-5.72678	0
0.0413	72.2666	-19.7956	-317.852	5.02519	-3.56031	-24.138	5.52048	587.319	-4.74249	0
0.0420	87.2914	-125.738	-290.092	5.30697	-2.02971	-55.5549	-3.63417	464.009	-2.95287	0
0.0427	53.0938	56.1791	-258.919	4.0859	-7.53654	-56.792	-9.43154	139.615	-2.05806	0
0.0433	-10.416	455.39	-262.59	3.80411	-0.515746	-55.2672	-14.3117	34.9294	-0.805328	0
0.0440	-57.9792	454.473	-254.346	2.25429	25.7374	-57.3961	-24.0721	180.207	-0.178962	-0.321991
0.0447	-55.8591	-15.2133	-142.083	-0.187857	43.4391	-56.159	-25.3008	161.583	1.34221	-0.321991
0.0453	-68.6717	-296.292	2.5763	-1.40893	42.5241	-53.1094	-15.5231	-207.666	1.34221	0
0.0460	-95.5873	-476.651	58.4177	-2.63	35.1872	-47.3266	-4.53406	-421.609	0.447405	0.321991
0.0467	-61.9428	-783.391	45.343	-2.63	26.6524	-39.0696	7.06068	-274.796	2.86339	0
0.0473	11.8908	-806.852	-3.22038	-1.08018	13.8253	-32.0498	13.7752	-110.314	3.13183	0
0.0480	42.4013	-296.933	-61.7669	2.25429	-1.11468	-6.12801	9.50076	-89.2679	-1.43169	0
0.0487	8.84897	347.614	-150.005	5.30697	-11.4961	44.5359	0.346112	-110.621	-4.74249	0
0.0493	-41.8482	487.741	-335.564	5.02519	-14.8568	82.0808	-8.80854	-13.2691	-7.5164	0
0.0500	-83.0513	89.4466	-418.843	5.63572	-18.5169	92.7544	-10.9544	94.7598	-7.78484	0
0.0507	-97.0621	-471.794	-241.851	7.74912	-26.1533	92.438	0.0346112	108.813	-5.10041	0
0.0513	-61.021	-948.446	-39.8039	5.63572	-23.3916	81.4766	3.99759	178.365	-4.47405	0
0.0520	-5.25408	-1045.22	23.9596	2.86483	-16.6869	61.3088	-9.12004	110.007	-4.74249	0
0.0527	21.9381	-827.564	45.343	2.58304	-26.1533	36.3077	-18.8804	70.6434	-3.84768	0
0.0533	41.203	-559.683	96.2894	2.86483	-39.2632	15.5358	-29.8694	305.019	-0.536886	0
0.0540	81.4843	-64.0606	129.266	4.0859	-44.7534	8.83239	-48.1787	110.007	4.38457	0
0.0547	104.344	378.132	88.0452	4.0859	-41.4094	6.70341	-51.536	-254.057	7.42692	0
0.0553	94.8499	300.324	-54.4888	2.86483	-27.9834	3.94149	-45.7387	110.928	6.17418	0
0.0560	82.0373	100.169	-149.683	1.36197	-20.0475	5.78277	-46.3443	637.053	2.23702	0
0.0567	64.3394	216.376	-81.0248	0.140893	-6.92097	6.38694	-49.4074	551.299	-0.536886	0
0.0573	11.2456	429.454	46.5667	-1.40893	48.6298	9.43656	-45.133	193.34	0.0894809	0
0.0580	-48.8537	230.765	231.159	-2.30125	106.909	14.011	-32.621	127.097	2.23702	0
0.0587	-52.8173	-389.954	299.238	-2.30125	115.144	-7.04865	-28.658	204.017	1.61066	0
0.0593	-38.1612	-818.4	116.449	-0.469644	95.6126	-47.9308	-28.3465	51.1321	-2.59495	0
0.0600	-6.45237	-967.325	37.6785	0.75143	72.4207	-74.169	-10.3487	-251.294	-5.10041	0
0.0607	61.9428	-1092.15	62.733	-0.469644	42.5241	-87.2882	11.0237	-453.639	-2.05806	0
0.0613	37.5159	-953.028	-42.8955	1.36197	8.33512	-92.4955	31.4615	-383.132	5.27938	0
0.0620	-56.2278	-450.441	-85.5977	1.03322	-21.8776	-91.5749	61.0714	-204.017	9.30602	0
0.0627	-27.4687	152.316	99.3166	-2.63	-47.1991	-88.2088	77.8578	-298.299	8.67965	0
0.0633	66.4594	730.053	345.611	-2.63	-73.1361	-56.4755	86.0953	-518.04	10.8272	0
0.0640	66.4594	1217.98	331.57	-1.69072	-92.0689	-18.01	105.633	-574.801	12.8853	0
0.0647	20.0945	1099.3	71.2348	-2.63	-88.4088	-8.86116	106.239	-459.745	14.4064	0
0.0653	4.24013	847.818	-59.6415	-3.52233	-67.3464	0.60417	87.6182	-182.356	14.4064	0
0.0660	7.55849	1180.77	13.59	-2.91179	-44.1545	16.7729	74.812	85.9251	9.8429	0
0.0667	14.9326	1339.77	93.8419	-1.08018	-21.5615	35.6748	58.9428	126.176	6.17418	0
0.0673	26.8234	1008.66	172.29	-2.01947	-7.53654	69.8535	38.4876	99.0236	2.23702	0
0.0680	49.1302	448.333	286.421	-2.01947	-0.515746	117.468	25.6642	19.3749	-0.178962	0
0.0687	66.4594	-269.44	321.78	3.19358	8.33512	121.755	21.3897	-54.1679	2.86339	0
0.0693	57.0574	-952.386	142.663	4.0859	10.1652	66.1997	6.43768	196.683	2.50547	0
0.0700	47.2867	-1248.13	-95.0657	1.9725	6.82115	32.021	-37.1897	287.315	-2.3265	0
0.0707	62.2193	-1178.84	-146.914	3.47536	-3.26084	30.4962	-94.8692	-18.4539	-6.62159	0
0.0713	41.203	-1164.18	-111.232	8.68841	-19.7314	17.9812	-135.468	-189.042	-8.14277	0
0.0720	-3.9636	-941.389	-228.454	13.8545	-24.3066	3.65379	-159.869	-151.213	-5.72678	0
0.0727	11.8908	-173.944	-371.825	12.3047	-20.9626	-7.65282	-169.647	-85.3111	-4.74249	0
0.0733	8.48026	245.062	-261.688	7.13858	-20.347	-15.2769	-134.239	31.5866	-6.26367	0
0.0740	-49.7754	46.7395	18.163	4.69644	-19.432	-12.8314	-77.4771	196.683	-6.26367	-0.321991
0.0747	-63.2333	353.112	303.489	4.69644	-20.6465	-5.52384	-37.1897	342.575	-5.72678	-0.643983
0.0753	-46.0884	827.106	496.647	6.8568	-24.0071	10.0407	14.6924	291.306	-2.95287	0
0.0760	-47.6554	640.606	522.603	3.47536	-20.9626	25.6053	72.0604	-12.9621	-0.536886	0
0.0767	-36.6863	107.134	290.092	-3.24054	-9.36661	21.635	111.431	-196.99	-2.59495	0
0.0773	-9.21768	-321.953	25.1834	-3.85108	11.6958	19.5061	149.572	-114.885	-5.36886	-0.321991
0.0780	10.6925	-461.347	165.528	-4.13286	33.3571	43.9318	169.404	-85.3111	-7.78484	0
0.0787	4.24013	-878.886	331.892	-2.63	46.1842	62.546	168.193	-145.721	-7.24796	0
0.0793	-39.0829	-1633.59	101.442	2.25429	48.6298	41.1699	155.681	-61.8087	-2.05806	0
0.0800	-97.0621	-1627.18	-59.0618	0.75143	41.9085	11.882	111.431	77.0563	-0.805328	0
0.0807	-141.952	-898.132	167.975	-2.01947	26.9519	6.70341	53.1281	146.335	-2.95287	0
0.0813	-138.265	-852.95	339.493	1.03322	6.82115	-2.15775	0.951807	149.064	-2.95287	0
0.0820	-100.104	-1080.6	88.6249	3.19358	-4.47534	-13.7521	-52.4532	105.129	-1.43169	0
0.0827	-50.4207	-115.016	-338.269	5.91751	-8.13547	-8.86116	-91.8234	66.3796	2.50547	0
0.0833	22.5833	1306.51	-581.214	5.63572	-15.1563	-23.8216	-105.253	-95.9877	4.38457	0
0.0840	77.7972	2322.13	-556.16	0.140893	-25.8372	-58.0003	-100.061	-239.424	0.98429	0
0.0847	104.621	2764.96	-394.432	-2.01947	-30.7285	-64.0995	-76.8714	-185.699	2.23702	0
0.0853	144.902	2008.42	-110.652	-1.69072	-23.3916	-44.5647	-38.4184	-58.1248	7.15847	0
0.0860	181.865	697.06	210.098	-1.69072	-14.2412	-19.2471	3.70339	201.254	9.8429	0
0.0867	155.318	96.1368	171.389	-2.63	-8.75104	7.30758	37.8819	380.096	9.8429	0
0.0873	77.5207	137.378	-97.8352	-6.57501	-13.0267	11.5655	54.9625	133.817	6.80055	0
0.0880	-4.33231	-10.9059	-155.158	-6.29322	-11.7956	-2.76192	47.6423	-113.384	6.17418	0
0.0887	-72.3588	-401.868	-188.779	-1.40893	36.4183	-2.76192	22.6184	-27.6297	6.53211	0
0.0893	-69.0404	-73.5002	-314.76	2.25429	84.6322	3.02085	7.97787	66.9936	3.7582	0
0.0900	20.3711	747.374	-202.498	5.30697	85.2478	-0.92064	17.4267	113.691	2.23702	0
0.0907	81.4843	962.284	61.8313	3.80411	80.9721	4.86213	26.2872	265.655	0.715847	0
0.0913	55.8591	715.39	331.248	-1.40893	79.4415	10.3572	28.7273	254.978	-0.536886	0
0.0920	9.77074	533.747	651.998	-3.52233	53.8039	-3.99903	24.747	-89.5749	1.34221	0
0.0927	-12.2595	425.421	482.349	-1.08018	17.186	-6.73218	11.9409	-346.838	0.447405	0
0.0933	-14.103	97.9697	-272.058	0.422679	-1.73024	7.91175	10.7122	-357.515	-0.178962	0
0.0940	-22.5833	-276.13	-708.162	-1.40893	-11.1967	10.0407	-6.99146	-451.217	0.0894809	0
0.0947	-12.536	-351.829	-462.769	-2.30125	-26.4528	-1.23711	-77.1656	-526.875	-4.2056	0
0.0953	35.0272	-40.8742	-42.2514	-0.798394	-37.1337	-16.8017	-144.917	-251.908	-6.89003	0
0.0960	23.7816	409.933	168.297	1.03322	-37.4332	-21.6926	-160.786	-33.4286	-6.26367	0
0.0967	-50.052	423.955	176.219	1.64375	-32.858	-10.0983	-152.549	-102.094	-6.26367	0
0.0973	-101.026	108.051	39.2242	1.9725	-36.2187	-6.41571	-147.357	-38.3064	-6.89003	0
0.0980	-103.791	27.4938	-29.7563	1.9725	-42.9234	-7.94052	-163.538	26.7087	-6.89003	0
0.0987	-42.77	205.379	82.5706	1.64375	-34.3886	0.2877	-199.239	-135.966	-3.84768	0
0.0993	35.3959	268.89	88.6249	-0.187857	-18.5169	-0.92064	-207.788	-324.564	-1.70014	0
0.1000	14.9326	288.135	0.450853	-2.30125	-17.3024	-16.8017	-164.766	-390.159	-2.05806	0
0.1007	-69.0404	319.295	81.0248	-3.52233	-19.7314	-27.1876	-110.444	-281.516	-0.805328	0
0.1013	-84.8948	-5.77371	231.803	-2.63	-14.5573	-25.9505	-67.4052	-140.536	-2.05806	0
0.1020	-46.0884	-582.228	337.689	-1.08018	-5.70648	-12.8314	-10.0372	-111.849	-5.10041	0
0.1027	6.63673	-911.787	391.083	0.140893	9.56625	9.43656	56.4854	-89.8819	-5.36886	0
0.1033	59.8227	-850.751	351.408	-0.187857	32.1426	17.0606	117.228	-12.9621	-5.36886	0
0.1040	53.0938	-734.544	170.165	2.25429	45.8681	12.1985	175.513	50.2111	-4.74249	-0.643983
0.1047	35.9489	-779.084	-133.517	5.91751	36.1022	14.6439	190.154	85.3111	-2.05806	-0.321991
0.1053	93.6516	-514.776	-366.995	5.30697	18.101	19.8225	111.725	43.1843	-2.05806	0
0.1060	117.433	48.2975	-464.315	3.80411	4.97445	22.5557	-5.45126	-13.8831	-4.2056	0
0.1067	31.9853	291.801	-399.907	4.41465	-2.02971	23.1886	-53.6819	12.0411	-5.72678	-0.321991
0.1073	-49.1302	507.536	-177.765	4.69644	-0.199643	18.9019	-46.0502	55.3959	-6.89003	0
0.1080	-69.0404	678.181	-148.782	6.24626	1.92989	12.1985	-28.3465	40.7283	-6.26367	0
0.1087	-49.4989	380.606	-339.815	8.07787	0.399287	2.41668	20.784	92.3038	-5.36886	0
0.1093	10.0473	72.9503	-286.421	7.13858	-1.73024	-10.0983	53.7511	288.85	-5.10041	0
0.1100	67.1047	127.022	14.4917	4.41465	-4.47534	-16.8017	39.0933	248.258	-6.89003	0
0.1107	86.6461	337.899	237.278	3.19358	-4.79144	-19.8513	47.0366	-56.0099	-9.3955	0
0.1113	88.7662	456.856	337.367	5.02519	-2.94474	-26.5547	97.69	-118.569	-6.89003	0
0.1120	63.4176	499.655	311.153	5.30697	-1.11468	-32.0498	141.94	90.1889	-3.57924	0
0.1127	23.7816	501.763	204.623	2.25429	0.715389	-33.2869	172.156	298.913	-2.95287	0
0.1133	18.6197	398.936	83.7943	-1.08018	-6.92097	-35.4159	187.714	434.128	-0.536886	0
0.1140	11.5221	202.08	-141.117	-3.24054	-18.5169	-40.5945	167.276	361.165	2.50547	0
0.1147	-23.8738	51.3218	-360.876	-2.91179	-20.0475	-33.5746	139.189	62.4227	6.17418	0
0.1153	-34.1976	-29.6017	-294.665	-2.01947	-14.5573	-2.76192	129.117	-120.684	11.0956	-0.321991
0.1160	1.84354	-285.569	28.2105	-4.46161	-4.47534	31.1004	132.786	-8.39125	12.3484	0
0.1167	39.636	-623.102	274.505	-7.79608	4.67499	35.6748	144.986	251.908	11.722	0
0.1173	51.8033	-733.627	232.061	-7.79608	7.42008	15.2481	115.999	316.923	10.4693	0
0.1180	93.9281	-423.222	-72.7806	-2.91179	12.6108	-19.5636	65.3459	31.8936	10.2008	0
0.1187	150.709	107.776	-333.374	0.140893	20.8461	-76.931	65.9516	-230.248	12.8853	0
0.1193	126.927	-14.0219	-237.278	-5.35394	28.7819	-94.941	39.0933	-111.235	15.0328	0
0.1200	88.7662	-547.769	40.448	-9.01716	23.9073	-13.1479	-39.0241	191.498	14.7644	0
0.1207	89.0427	-476.926	88.0452	-6.90376	-5.70648	64.0708	-59.7735	268.998	11.722	-0.321991
0.1213	22.5833	16.8629	-133.195	-3.52233	-24.6227	48.5062	-50.3246	245.529	9.30602	0
0.1220	-50.4207	362.277	-270.512	2.58304	-15.4724	24.397	-93.6578	330.977	8.67965	0.321991
0.1227	-50.052	409.933	-220.21	6.8568	-10.8806	18.2977	-127.231	240.617	4.11612	0
0.1233	-75.4006	340.282	-166.172	5.91751	7.73619	0.60417	-84.7974	-194.534	-2.59495	0
0.1240	-98.6291	206.295	-95.3877	4.0859	68.1616	-1.23711	-28.658	-485.396	-5.36886	0
0.1247	-70.5152	27.2189	-5.9255	3.47536	105.079	-0.63294	-9.43154	-325.485	-5.72678	0
0.1253	-56.2278	43.0737	16.6172	6.24626	87.9929	-10.0983	3.99759	-204.938	-5.36886	0
0.1260	-80.9312	102.002	79.479	9.29894	101.718	-18.643	17.7382	-325.485	-6.26367	0
0.1267	-112.64	56.8206	139.893	8.68841	141.697	-30.8414	-13.3945	-429.216	-9.3955	0
0.1273	-87.0149	146.817	41.3497	6.8568	126.74	-38.4655	-97.0151	-401.143	-11.1851	0
0.1280	-19.5415	258.534	-104.212	5.30697	90.1224	-38.4655	-169.024	-348.953	-10.2903	0
0.1287	13.7343	172.753	-229.034	5.02519	75.1658	-37.8613	-161.098	-288.543	-6.89003	0
0.1293	15.5779	70.5675	-310.187	6.24626	44.9531	-31.4456	-93.952	-143.572	-2.95287	0
0.1300	-2.48877	47.9309	-187.233	4.69644	-16.9863	-27.7918	-40.2528	-28.5166	-4.74249	0
0.1307	-54.3843	45.5481	19.9664	2.86483	-74.6667	-28.396	11.6294	53.8609	-7.5164	0
0.1313	-108.4	29.6017	46.5667	3.80411	-106.094	-7.33635	60.7599	74.9073	-7.24796	0
0.1320	-124.531	-6.96511	5.66787	4.69644	-103.665	20.7432	57.4026	-19.3749	-6.62159	0
0.1327	-77.2441	-48.7557	35.875	5.30697	-79.8574	32.6252	59.8427	-14.1901	-4.2056	0
0.1333	2.67313	-94.5788	79.479	3.47536	-62.4551	40.8822	84.2609	132.282	-2.59495	0
0.1340	38.4377	-121.431	105.113	0.75143	-46.6001	50.3475	91.5811	148.791	-2.95287	0
0.1347	40.8343	-127.205	87.7232	-0.798394	-34.0725	51.5558	94.9384	70.6434	-2.05806	0
0.1353	44.5214	-123.906	43.4751	-1.69072	-30.1129	37.8325	76.6291	119.49	-0.536886	0
0.1360	42.9544	-99.711	25.5054	2.25429	-17.9014	18.2977	44.8907	157.626	-0.536886	0
0.1367	61.2975	-78.724	13.59	4.41465	-2.02971	4.54566	18.6554	9.31224	-5.10041	0
0.1373	93.0063	-57.6454	-100.218	2.25429	8.03565	-0.63294	-30.4751	-143.572	-9.03757	0
0.1380	87.8445	6.41523	-243.396	1.64375	12.3113	-1.23711	-78.0828	-110.314	-8.76913	0
0.1387	63.7863	-8.79803	-199.406	1.03322	17.186	-2.15775	-101.29	-71.2574	-6.26367	0
0.1393	66.1829	-138.202	-64.5364	0.75143	23.9073	0.89187	-139.12	-150.599	-0.178962	-0.643983
0.1400	64.0628	-192.182	-10.2408	-0.469644	20.8461	3.94149	-174.838	-190.27	3.7582	-0.643983
0.1407	27.4687	-192.182	-22.0918	-4.13286	13.5258	-6.41571	-188.562	-115.499	1.61066	0
0.1413	-32.0775	-199.88	-89.269	-4.46161	13.5258	-31.7621	-208.394	67.9146	1.34221	0
0.1420	-68.6717	-135.178	-166.494	-1.40893	17.8015	-56.792	-225.492	220.492	1.34221	0
0.1427	-43.9683	-82.9397	-193.03	1.9725	23.2917	-67.1492	-209.934	167.996	-0.178962	0
0.1433	-11.3377	-119.873	-160.955	3.80411	23.5912	-68.674	-174.215	-0.136443	-1.70014	0
0.1440	-10.416	-147.092	-73.1027	3.19358	18.101	-63.8118	-168.418	-45.6061	-4.74249	0
0.1447	-10.6925	-120.79	23.3156	2.86483	13.5258	-11.6231	-173.921	61.5017	-5.72678	0
0.1453	-4.60884	-84.4977	63.6347	3.19358	14.4409	66.5162	-131.488	91.9968	-3.22131	0.321991
0.1460	-0.921768	-56.0874	59.3838	2.86483	17.8015	79.9518	-54.2876	11.1542	0.447405	0
0.1467	-6.17584	-45.0899	88.3673	-1.08018	15.3559	52.16	30.2502	-0.136443	5.01093	0
0.1473	-26.5469	-54.2545	103.889	-7.18555	10.4813	41.1699	107.156	75.5213	7.15847	0
0.1480	-42.77	-64.7022	21.5121	-7.79608	11.6958	29.892	153.847	117.034	7.42692	0
0.1487	-46.0884	-80.1904	-34.6513	-2.01947	14.1414	12.4862	160.25	85.6181	6.53211	0
0.1493	-54.3843	-83.5813	5.9255	2.58304	12.9103	9.14886	130.346	70.3364	3.48976	0
0.1500	-69.5935	-74.4166	42.8955	3.47536	11.6958	9.43656	117.228	145.721	1.61066	0
0.1507	-67.7499	-71.9422	63.3127	2.25429	11.6958	-3.07839	178.265	151.52	0.0894809	0
0.1513	-18.0666	-46.9228	85.5977	2.86483	8.65122	-11.6231	239.302	28.2437	-4.2056	0
0.1520	54.5686	-15.4882	71.2348	5.30697	5.59002	-3.68256	229.835	-91.3828	-6.62159	0
0.1527	90.8863	-10.9059	46.5667	7.74912	7.73619	3.65379	210.003	-197.604	-3.57924	0
0.1533	87.2914	-17.0462	36.7768	7.13858	7.73619	-0.31647	156.287	-144.8	-2.3265	0
0.1540	45.4431	-18.8791	22.1562	4.0859	4.05942	-1.23711	63.823	65.4586	-4.74249	0
0.1547	-18.3432	-17.0462	13.268	3.19358	2.84492	-0.63294	25.37	95.3738	-4.74249	0
0.1553	-44.6136	-15.2133	15.1358	1.64375	4.05942	-0.31647	-2.40548	-30.3586	-1.43169	0
0.1560	-25.6251	-18.8791	38.3225	-0.469644	6.50505	7.30758	-38.7299	-51.1321	5.01093	0
0.1567	-1.84354	-28.0437	78.5773	-0.798394	9.25015	7.30758	4.91479	6.54927	8.94809	0
0.1573	-3.41054	-29.8766	78.2553	-2.01947	13.2264	0.89187	83.9667	-3.82041	7.42692	0
0.1580	-23.8738	-19.7956	25.1834	-2.91179	15.9715	6.38694	123.025	-71.5644	5.6373	0
0.1587	-37.2394	-11.5474	-16.2951	-2.01947	13.8253	19.5061	130.951	-73.9863	6.17418	0
0.1593	-32.0775	-17.0462	-2.89834	-0.187857	10.7807	25.6053	116.605	-23.3318	9.8429	0
0.1600	-19.2649	-28.9602	24.5393	0.422679	8.03565	16.1687	111.119	6.54927	9.8429	0
0.1607	1.84354	-38.3997	40.1259	-0.187857	4.05942	4.54566	133.703	14.8041	4.65301	0
0.1613	32.354	-43.6236	56.2923	1.03322	1.63042	0.2877	181.622	14.4971	0.715847	0
0.1620	43.3231	-41.424	62.411	3.19358	1.01485	-3.36609	230.753	17.8399	-1.70014	0
0.1627	38.7142	-37.4833	61.5093	6.52805	2.54545	-5.52384	232.587	20.9099	-2.05806	0
0.1633	34.7506	-36.9334	48.6922	8.35966	2.22935	-11.6231	197.786	22.7519	-4.47405	0
0.1640	18.6197	-37.7582	22.1562	8.68841	-0.815211	-26.8712	156.598	13.8831	-9.03757	0
0.1647	-10.1394	-46.3729	23.3156	11.0836	-1.73024	-35.4159	58.3198	-4.7414	-12.9747	-0.321991
0.1653	-29.3122	-55.8125	58.1601	12.3047	-2.34581	-36.653	-77.4771	-9.92624	-17.0014	-0.321991
0.1660	-6.45237	-57.6454	107.239	14.7468	-2.64528	-40.9109	-142.183	3.82041	-18.1646	0
0.1667	65.9064	-54.6211	160.053	18.1282	-0.515746	-44.5647	-156.823	38.3064	-15.4802	0
0.1673	85.0791	-37.4833	154.578	15.6861	0.715389	-51.2969	-172.381	62.1157	-14.5854	0
0.1680	8.48026	-6.41523	82.8282	11.4123	0.399287	-59.8416	-166.584	46.5271	-17.0014	0
0.1687	-36.9629	11.3641	4.70176	10.8018	0.715389	-55.2672	-157.429	40.7283	-17.0014	0
0.1693	-33.2758	17.7793	-58.4177	10.8018	1.63042	-34.4952	-151.632	64.5376	-10.9167	0
0.1700	-34.8428	24.1029	-60.2855	8.07787	1.63042	-10.0983	-116.536	61.1947	-1.70014	0
0.1707	-21.1085	15.9464	-15.1358	2.25429	0.399287	6.38694	-78.3943	60.5808	3.7582	0
0.1713	-27.1921	6.41523	-5.9255	-2.63	0.0998217	19.8225	-59.7735	117.648	9.57446	0
0.1720	-60.468	9.80614	-9.91877	-6.90376	0.399287	29.5756	-31.0981	168.303	16.554	0
0.1727	-63.5098	15.5798	-4.44413	-10.2382	0.399287	30.8127	3.08039	172.259	20.8491	0
0.1733	-43.6918	18.9707	-14.1697	-11.7881	0.715389	30.8127	2.4747	149.371	24.2493	0
0.1740	-19.2649	13.472	-14.1697	-11.1775	-1.11468	29.2878	-30.4751	77.0563	22.1018	0
0.1747	11.5221	8.88967	-16.2951	-9.34591	-2.64528	30.4962	-73.8256	-32.8146	16.9119	0
0.1753	24.7034	9.5312	-35.553	-6.90376	-3.56031	32.6252	-127.231	-113.384	13.5116	0
0.1760	10.969	5.86535	-29.4343	-2.63	-4.47534	25.9218	-186.122	-139.308	9.30602	0
0.1767	-9.77074	1.28305	-11.7222	1.64375	-5.09091	16.1687	-276.751	-123.754	4.38457	-0.321991
0.1773	-18.9884	-0.274938	-9.91877	0.140893	-6.62151	11.2778	-379.598	-90.8029	1.96858	0
0.1780	-13.7343	-0.916461	-8.37299	-2.30125	-7.22044	6.70341	-392.11	-60.8877	3.48976	0
0.1787	-7.9272	-1.1914	-3.22038	-2.01947	-7.53654	-4.8909	-325.587	-37.3854	3.13183	0
0.1793	-5.25408	-0.274938	-0.128815	-1.40893	-7.83601	-16.8017	-274.311	-23.9458	3.13183	0
0.1800	-2.48877	1.28305	2.31867	-2.01947	-7.83601	-20.7719	-261.505	-12.9621	7.69536	0
0.1807	-2.48877	1.28305	2.5763	-3.85108	-8.45158	-15.5933	-260.276	-0.136443	9.8429	0
0.1813	-4.33231	0.916461	4.44413	-2.91179	-9.36661	-3.07839	-217.254	4.12741	8.67965	0
0.1820	-8.29591	1.28305	10.4984	0.75143	-9.36661	4.54566	-122.333	7.47026	7.69536	0
0.1827	-5.80714	2.74938	15.1358	5.63572	-8.13547	3.33732	13.4637	13.8831	10.4693	0
0.1833	0.27653	3.11597	13.59	6.24626	-8.75104	-0.31647	144.38	14.1901	11.0956	0
0.1840	-4.60884	1.28305	9.01707	1.03322	-9.96554	-0.63294	191.694	10.8472	9.30602	0
0.1847	-10.6925	0.366584	9.33911	-2.91179	-8.13547	9.43656	239.302	9.92624	15.0328	0
0.1853	-10.1394	0	11.4646	-4.46161	-6.00594	20.7432	308.576	11.1542	20.5806	0
0.1860	-4.60884	1.83292	12.6883	-2.63	-5.09091	25.6053	321.088	17.5329	20.2227	0
0.1867	7.28196	3.39091	15.3934	-1.40893	-4.17588	29.2878	320.776	24.8668	20.5806	0
0.1873	10.6925	1.83292	13.912	-4.13286	-5.39037	27.763	285.369	28.2437	19.0594	0
0.1880	-3.68707	0.916461	5.9255	-5.35394	-7.83601	16.7729	169.11	28.2437	12.8853	0
0.1887	-15.0248	1.55798	1.35256	-3.24054	-9.36661	9.43656	20.1783	24.2528	8.05328	0
0.1893	-11.0612	3.66584	4.70176	-0.469644	-7.53654	10.9614	-77.1656	21.2169	10.2008	0
0.1900	-7.00543	4.30737	7.14925	-2.91179	-5.39037	7.91175	-91.8234	20.6029	13.8695	0
0.1907	-8.57244	4.03243	7.47128	-6.90376	-6.62151	4.54566	-92.7406	21.2169	14.138	0
0.1913	-10.6925	5.86535	9.59674	-5.68269	-8.13547	5.4663	-111.656	20.6029	13.2432	0
0.1920	-12.536	3.66584	9.59674	-5.68269	-9.66607	4.25796	-97.3093	9.92624	8.94809	0
0.1927	-4.88537	3.66584	12.3663	-3.85108	-8.13547	5.1786	-34.1439	12.3481	9.8429	-0.321991
0.1933	1.84354	3.11597	13.268	-1.08018	-8.13547	2.73315	25.9757	48.3691	11.9904	0
0.1940	1.47483	-8.1565	9.91877	-1.69072	-11.7956	-6.41571	73.5833	89.5749	8.32173	-0.321991
0.1947	5.43843	-10.6309	11.1425	-1.08018	-11.4961	-9.17763	129.74	117.955	8.67965	-0.643983
0.1953	-1.84354	-1.83292	9.33911	-3.52233	-12.1117	-7.65282	174.596	137.501	10.2008	-0.321991
0.1960	-15.0248	4.03243	1.99664	-4.46161	-12.1117	-6.41571	197.18	158.547	11.722	0
0.1967	-22.952	11.3641	-6.89162	-2.01947	-10.2816	-9.46533	192.905	163.732	13.8695	0
0.1973	-36.3176	18.6958	-14.4917	-2.30125	-11.1967	-16.4852	185.274	91.9968	11.0956	0
0.1980	-38.8064	23.5531	-11.7222	0.140893	-10.2816	-12.5437	201.454	-36.7714	12.3484	0
0.1987	-28.1139	24.4695	-6.56958	2.25429	-9.96554	-3.68256	180.393	-120.684	12.8853	0
0.1993	-20.7398	20.8037	-5.34583	2.58304	-11.1967	-3.68256	100.442	-127.097	9.30602	0
0.2000	-17.1449	18.9707	-3.22038	4.69644	-9.66607	-3.99903	56.4854	-86.198	8.67965	0
0.2007	-19.9102	16.2214	-5.34583	2.58304	-11.1967	-3.36609	52.8339	-37.3854	3.48976	0
0.2013	-21.6615	14.1135	-8.11536	0.422679	-12.7106	-1.55358	16.5095	-10.5402	-0.536886	0
0.2020	-16.2231	16.4963	-5.66787	1.9725	-9.96554	2.73315	-6.36845	3.20641	3.7582	0
0.2027	-13.7343	17.1378	-5.66787	1.03322	-9.05051	3.65379	-18.2747	11.4612	4.65301	0
0.2033	-14.6561	13.7469	-8.11536	-2.30125	-10.8806	-1.84128	-59.7735	12.0411	-0.536886	0
0.2040	-10.6925	11.914	-8.11536	-4.46161	-11.4961	-6.41571	-104.647	12.9621	-3.22131	0
0.2047	-2.21224	11.3641	-6.89162	-3.52233	-12.1117	-7.65282	-183.076	15.7251	-5.10041	0.321991
0.2053	4.51666	10.4477	-6.89162	-0.469644	-13.9418	-11.3066	-265.156	16.9531	-10.9167	0
0.2060	7.28196	10.7226	-5.9255	2.58304	-13.9418	-17.4058	-241.361	19.0679	-13.6011	0
0.2067	6.63673	11.3641	-5.02379	3.19358	-12.7106	-23.8216	-138.514	21.8309	-13.3327	0
0.2073	4.88537	10.4477	-5.9255	3.47536	-13.0267	-31.7621	-61.0022	23.0589	-14.8538	0
0.2080	5.1619	10.0811	-5.66787	5.63572	-13.9418	-41.2274	-31.7038	24.5598	-16.1066	0
0.2087	4.24013	10.0811	-5.34583	7.13858	-15.1563	-49.1391	-11.8716	27.0157	-16.375	-0.321991
0.2093	3.04183	9.80614	-5.66787	7.46733	-14.5573	-54.03	59.5485	28.5507	-16.6435	-0.321991
0.2100	3.59489	10.9975	-5.02379	10.4731	-13.0267	-53.7423	159.956	31.2796	-15.7486	0
0.2107	-6.17584	11.6391	-5.9255	13.2439	-12.4112	-49.4556	209.086	34.0426	-16.6435	0
0.2113	-25.6251	11.914	-9.01707	14.1363	-12.1117	-46.7225	225.872	36.1574	-18.1646	0
0.2120	-38.4377	10.9975	-11.7222	12.9152	-11.1967	-43.0399	248.145	38.3064	-17.6277	0
0.2127	-39.7282	9.80614	-10.2408	11.0836	-9.36661	-34.4952	257.611	38.9204	-14.2275	0
0.2133	-36.3176	9.5312	-6.56958	9.29894	-5.70648	-26.5547	245.999	38.6134	-7.5164	0
0.2140	-33.6445	8.61474	-5.34583	6.24626	-1.11468	-17.4058	204.812	37.9994	-0.805328	0
0.2147	-31.801	8.24815	-4.12209	3.80411	2.22935	-3.07839	136.455	38.6134	4.65301	0
0.2153	-33.2758	6.41523	-4.12209	-4.13286	2.54545	10.3572	87.6182	36.4644	10.8272	0
0.2160	-36.3176	4.94889	-4.12209	-13.0091	4.37552	25.3176	77.5463	34.0426	20.2227	0
0.2167	-37.2394	5.86535	-1.09493	-16.6723	8.65122	39.9615	76.6291	34.9294	30.334	0
0.2173	-45.1666	2.47445	-0.772892	-20.9461	8.33512	38.7532	57.7141	32.2006	30.9604	0
0.2180	-43.9683	0.641523	1.09493	-18.1752	9.25015	31.7333	25.9757	31.5866	26.6653	0
0.2187	-35.1193	1.83292	4.44413	-10.567	11.0802	27.1301	-5.76276	34.6224	20.5806	0
0.2193	-44.8901	-1.46634	3.54242	-9.62769	8.95068	23.4763	-35.9783	32.8146	11.722	0
0.2200	-31.4323	-1.83292	3.80005	-8.12484	9.56625	25.9218	-59.7735	34.9294	9.57446	0
0.2207	25.6251	-2.10786	4.44413	-6.90376	9.86572	24.397	-93.952	39.2274	7.42692	0
0.2213	50.3285	-6.41523	5.34583	-7.5143	7.42008	19.5061	-140.348	38.6134	0.447405	0
0.2220	7.00543	-6.96511	12.6883	-2.91179	8.65122	18.2977	-164.143	40.7283	0.0894809	0
0.2227	1.1983	-7.24004	15.7155	-1.69072	8.03565	12.1985	-169.941	41.6493	0.0894809	0
0.2233	78.4424	-9.07297	13.912	-5.96447	5.59002	5.78277	-175.132	41.6493	-3.22131	0
0.2240	99.1822	-13.3803	15.7155	-5.35394	5.88948	2.73315	-167.501	44.4122	-2.59495	0
0.2247	70.1465	-21.3535	16.0375	-4.46161	4.97445	-3.36609	-161.703	45.9472	-3.57924	0
0.2253	101.579	-17.9626	13.59	-4.46161	3.75995	-6.12801	-171.481	53.2469	-6.89003	0
0.2260	90.6098	-5.13218	13.268	-1.40893	5.88948	-3.68256	-158.658	68.8356	-4.47405	0
0.2267	43.8761	2.74938	9.59674	0.422679	8.65122	-1.84128	-105.253	79.5122	0.98429	0
0.2273	88.7662	6.41523	0.450853	-3.85108	8.03565	1.81251	-44.2158	79.8192	1.61066	0
0.2280	129.324	10.7226	-6.24754	-8.12484	8.03565	8.83239	15.5923	74.9073	4.65301	0
0.2287	103.699	16.2214	-9.01707	-9.34591	10.1652	14.3275	74.812	73.4064	11.9904	0
0.2293	14.6561	20.1621	-12.3663	-9.01716	10.4813	13.0903	109.596	76.4423	12.6168	0
0.2300	-143.427	21.7201	-15.1358	-6.57501	9.56625	7.30758	132.474	80.1262	6.80055	0
0.2307	-267.405	22.9115	-17.5189	-2.30125	9.56625	3.33732	172.467	84.3901	1.61066	0
0.2313	-256.989	22.6366	-21.5121	0.75143	9.56625	4.25796	200.226	85.6181	-2.3265	0
0.2320	-121.489	22.6366	-26.0851	2.86483	10.1652	8.83239	187.419	84.6971	-3.22131	0
0.2327	12.4439	28.4103	-32.2038	6.24626	12.9103	14.011	144.692	85.3111	-0.536886	0
0.2333	48.2084	33.2675	-39.8039	7.46733	14.1414	13.0903	87.0125	81.0131	-0.536886	0
0.2340	-8.29591	28.6852	-39.8039	8.07787	12.3113	7.62405	41.5334	70.0294	-3.84768	0
0.2347	-6.7289	18.6958	-31.3021	10.8018	10.7807	6.38694	22.0127	50.5181	-6.62159	0
0.2353	120.198	12.8305	-27.6309	10.8018	9.25015	8.51592	8.27207	22.4449	-10.2903	0
0.2360	267.036	9.80614	-30.0784	10.1913	7.73619	6.38694	-7.89135	0.170554	-12.7063	-0.321991
0.2367	303.354	7.69827	-27.9529	9.58073	6.20559	2.12898	-12.1658	-7.16326	-12.4378	0
0.2373	125.729	6.41523	-18.485	7.13858	2.84492	1.81251	-2.71698	-13.2691	-11.4536	0
0.2380	-100.473	-0.916461	-5.66787	5.30697	-0.815211	2.41668	4.30909	-22.4449	-10.2903	0
0.2387	-156.885	-12.1889	7.14925	5.30697	-2.34581	2.12898	11.0237	-31.2796	-9.03757	0
0.2393	-50.4207	-15.8548	16.6172	6.8568	-0.199643	6.09924	14.9866	-37.0784	-4.2056	0
0.2400	40.5578	-15.2133	16.6172	4.41465	0.0998217	6.99111	11.3352	-38.3064	-0.178962	0
0.2407	-49.1302	-16.1297	11.1425	-0.469644	-2.94474	0.89187	28.1043	-34.6224	-2.3265	0
0.2413	-266.114	-12.7388	10.4984	1.64375	-2.02971	-2.15775	43.6793	-21.8309	-0.536886	0
0.2420	-394.609	-6.41523	7.14925	2.86483	-0.515746	-3.99903	20.784	-10.5402	2.50547	0
0.2427	-294.873	-2.3828	-4.12209	-1.40893	-0.815211	-8.25699	-2.09398	-8.39125	-0.536886	0
0.2433	-149.234	6.14029	-11.1425	0.422679	3.46049	-5.20737	-3.92837	-1.97843	1.61066	0
0.2440	-88.8584	10.4477	-13.912	1.03322	4.67499	-2.76192	-3.01117	0.44344	3.7582	0
0.2447	-52.5408	7.05675	-16.6172	-2.01947	1.01485	-6.12801	-3.63417	-6.54927	0.447405	0
0.2453	-98.6291	5.22383	-13.59	0.140893	-0.199643	-4.8909	-7.89135	-7.47026	1.34221	0
0.2460	-151.354	-2.10786	-5.02379	-0.798394	-2.64528	-2.15775	-17.669	-8.08426	2.50547	0
0.2467	-78.1659	-12.7388	3.54242	-4.46161	-5.09091	-1.84128	-17.669	-12.6551	0.447405	0
0.2473	90.6098	-15.4882	11.7222	-2.01947	-4.79144	-2.15775	-9.72574	-14.8041	-1.07377	0
0.2480	219.381	-15.8548	17.5189	1.03322	-5.09091	-5.52384	-13.3945	-17.8399	-4.2056	0
0.2487	183.985	-15.2133	19.0647	0.422679	-5.70648	-8.57346	-18.5862	-19.9889	-7.5164	0
0.2493	101.855	-13.1054	20.9325	0.422679	-5.09091	-8.25699	-12.4773	-16.9189	-7.78484	0
0.2500	145.547	-13.3803	22.1562	-0.187857	-4.79144	-7.33635	-10.3487	-12.6551	-8.76913	0
0.2507	280.402	-13.1054	20.2884	-2.30125	-5.39037	-5.52384	-17.9632	-15.4181	-9.03757	0
0.2513	303.63	-5.13218	12.6883	-3.52233	-3.56031	-2.76192	-34.1439	-22.4449	-6.62159	0
0.2520	90.8863	11.3641	-2.89834	-2.01947	1.01485	0.2877	-48.1787	-19.0679	-5.36886	0.321991
0.2527	-167.854	25.0194	-16.2951	-0.469644	4.67499	2.41668	-54.8933	-9.92624	-6.89003	0
0.2533	-249.062	28.1354	-22.0918	-2.91179	3.75995	1.20834	-78.3943	-6.54927	-9.66394	0
0.2540	-218.275	21.4452	-21.5121	-5.07215	1.63042	-1.23711	-112.261	-6.54927	-10.5588	0
0.2547	-120.291	6.41523	-14.8138	-4.13286	1.31432	-3.07839	-134.845	-9.00525	-9.66394	-0.321991
0.2553	4.88537	0	-6.56958	-5.35394	0.0998217	-2.15775	-150.42	-6.85627	-9.66394	-0.321991
0.2560	-24.1503	7.97321	-3.80005	-6.57501	0.0998217	-0.02877	-161.703	9.00525	-9.3955	0
0.2567	-138.91	15.03	-5.66787	-4.46161	2.22935	0.89187	-166.584	31.5866	-8.76913	0
0.2573	-83.0513	15.9464	-9.01707	-5.35394	2.22935	0.2877	-164.766	40.7283	-11.1851	0
0.2580	148.589	12.5555	-6.89162	-6.90376	3.46049	1.20834	-152.549	25.1738	-12.0799	0
0.2587	262.427	8.24815	-1.6746	-4.46161	7.12062	4.25796	-123.873	-3.51341	-11.8115	0
0.2593	112.271	6.78181	-1.99664	-3.24054	9.86572	6.09924	-78.3943	-27.0157	-16.1066	0
0.2600	-39.0829	8.61474	-3.80005	-1.40893	14.1414	6.38694	-21.632	-35.8504	-17.8962	0
0.2607	-38.1612	13.472	-5.9255	1.36197	18.101	5.1786	41.8449	-36.1574	-17.2698	-0.321991
0.2613	-41.203	18.0543	-9.91877	1.64375	18.4171	3.02085	102.57	-34.9294	-18.1646	0
0.2620	-48.2084	19.6123	-12.0442	0.75143	17.5021	2.73315	155.975	-32.2006	-18.5226	0
0.2627	-49.4989	16.4963	-11.4646	-0.187857	15.3559	2.12898	215.489	-30.0516	-19.6858	0
0.2633	-175.505	11.914	-7.79332	1.36197	15.3559	1.20834	244.182	-26.7087	-20.3122	0
0.2640	-351.931	6.41523	-0.450853	3.80411	15.0564	-0.31647	187.419	-24.8668	-19.1489	0
0.2647	-362.255	0.366584	5.9255	2.25429	11.0802	-4.6032	95.5614	-29.4376	-20.3122	0
0.2653	-193.202	-1.1914	11.1425	2.86483	8.33512	-8.57346	30.2502	-30.9726	-18.5226	0
0.2660	-45.1666	-3.66584	17.2612	4.41465	7.42008	-12.5437	-14.6059	-30.6656	-16.1066	0
0.2667	42.4013	-9.43955	18.485	1.36197	4.67499	-17.7223	-40.8585	-27.3227	-17.6277	0
0.2673	99.1822	-7.60663	14.8138	-0.469644	2.84492	-18.9307	-39.0241	-17.8399	-15.7486	0
0.2680	87.8445	-2.10786	12.9459	1.36197	1.31432	-15.881	-37.1897	-12.6551	-12.4378	0
0.2687	31.0636	-3.29926	11.4646	0.422679	-2.64528	-17.4058	-58.5621	-9.61924	-14.2275	0
0.2693	-79.3642	-0.916461	7.79332	0.140893	-4.17588	-21.3761	-61.0022	2.89942	-12.0799	0
0.2700	-206.937	7.05675	2.89834	1.36197	-3.56031	-22.2967	-31.0981	19.6819	-8.76913	0
0.2707	-200.208	10.7226	-3.80005	-0.469644	-4.47534	-20.4555	-8.80854	30.0516	-12.7063	0
0.2713	43.3231	18.3292	-11.4646	1.64375	-3.56031	-16.8017	4.91479	36.1574	-13.6011	0
0.2720	278.927	31.4346	-24.5393	4.69644	-2.64528	-13.1479	15.9038	37.9994	-12.7063	0
0.2727	309.069	38.4914	-37.0988	2.86483	-2.94474	-6.41571	17.1325	31.5866	-15.4802	0
0.2733	175.781	37.8498	-33.4276	3.47536	-0.199643	3.33732	18.3439	16.0321	-12.7063	0
0.2740	-77.8894	32.7177	-23.9596	3.80411	2.84492	5.4663	12.858	-7.47026	-8.14277	0
0.2747	-177.348	28.6852	-23.9596	0.75143	1.31432	3.02085	0.951807	-25.7878	-8.76913	0
0.2753	-31.4323	32.0761	-26.4071	0.422679	2.22935	4.54566	11.9409	-30.3586	-4.47405	0
0.2760	93.6516	31.4346	-25.5054	-1.08018	4.37552	5.1786	29.9387	-28.2437	0.715847	0
0.2767	101.579	19.8872	-20.6104	-4.7434	3.75995	3.02085	43.6793	-32.5076	-1.07377	0
0.2773	51.8033	5.86535	-9.91877	-4.7434	3.75995	1.20834	72.9776	-50.2111	-2.59495	0
0.2780	-40.2812	-3.02432	1.6746	-0.798394	4.97445	0.89187	90.3698	-68.2216	-2.3265	0
0.2787	-123.333	-8.79803	10.4984	3.19358	4.97445	-0.92064	72.6661	-71.8714	-4.74249	0
0.2793	-179.745	-14.9383	16.0375	4.0859	3.14439	-4.28673	52.2282	-71.5644	-9.03757	0
0.2800	-180.666	-18.6042	20.9325	5.02519	2.22935	-5.20737	65.9516	-70.9504	-11.8115	0
0.2807	-58.6244	-19.7956	25.7631	7.46733	1.63042	-3.99903	94.9384	-63.3096	-12.7063	0
0.2813	76.2302	-21.6285	27.6309	6.8568	-0.515746	-7.04865	99.8359	-51.405	-13.6011	0
0.2820	113.193	-21.3535	27.6309	3.80411	-0.515746	-7.94052	100.442	-38.3064	-11.4536	0
0.2827	111.073	-15.2133	24.5393	4.41465	1.31432	-1.84128	107.762	-24.5598	-8.14277	0
0.2833	146.192	-8.79803	16.9392	5.63572	0.0998217	1.81251	74.189	-17.8399	-9.66394	0
0.2840	156.793	-9.71449	9.91877	4.69644	-2.64528	-0.63294	8.58357	-20.2959	-13.3327	0
0.2847	72.9118	-12.7388	4.12209	4.69644	-2.34581	0.89187	-35.6668	-22.1379	-13.3327	-0.321991
0.2853	-15.5779	-5.49877	-1.99664	5.30697	-1.43078	4.86213	-57.9564	-16.0321	-12.0799	-0.321991
0.2860	-24.4268	8.24815	-5.66787	6.52805	-1.43078	5.1786	-65.8824	-0.44344	-11.1851	0
0.2867	-32.0775	11.914	-7.47128	9.29894	0.0998217	0.89187	-62.2136	13.8831	-9.93238	-0.321991
0.2873	-66.2751	6.78181	-10.2408	10.1913	0.399287	-4.6032	-58.2506	26.0947	-9.66394	-0.643983
0.2880	55.2139	9.16461	-12.3663	9.29894	0.399287	-4.8909	-50.9303	39.8414	-8.14277	-0.321991
0.2887	307.87	14.1135	-8.69503	9.29894	0.715389	-3.68256	-39.9413	39.8414	-5.36886	0
0.2893	373.777	11.3641	-4.12209	9.58073	0.715389	-4.8909	-35.6668	24.5598	-5.10041	0
0.2900	218.182	9.16461	-0.128815	11.0836	0.715389	-5.81154	-33.8324	11.1542	-4.2056	0
0.2907	110.428	10.0811	-1.09493	11.6941	-0.199643	-7.65282	-32.0153	2.59242	-3.57924	0
0.2913	181.588	13.472	-7.79332	9.29894	-1.73024	-11.0189	-32.3095	0.44344	-5.10041	0
0.2920	295.058	19.2457	-13.59	8.97019	-1.73024	-12.2272	-31.7038	6.54927	-2.95287	0
0.2927	257.265	23.5531	-17.5189	9.29894	-2.02971	-11.9108	-28.9522	13.8831	0.447405	0
0.2933	42.9544	27.2189	-19.7087	9.29894	-2.02971	-10.7024	-26.5122	14.4971	2.86339	0
0.2940	-179.192	29.9683	-18.485	10.1913	-1.11468	-8.86116	-23.1549	3.51341	6.17418	0
0.2947	-210.624	25.6609	-16.6172	9.29894	-2.34581	-9.7818	-20.7148	-16.0321	6.80055	0
0.2953	-98.2604	19.8872	-13.912	8.68841	-4.17588	-11.0189	-19.7976	-30.0516	6.53211	0
0.2960	-90.9785	16.2214	-11.4646	7.13858	-5.70648	-11.9108	-19.5034	-35.5434	6.53211	0
0.2967	-173.384	10.4477	-8.37299	5.02519	-6.62151	-11.0189	-16.7518	-40.7283	6.80055	0
0.2973	-147.759	5.49877	-0.772892	6.52805	-5.09091	-6.73218	-15.5231	-44.4122	11.0956	0
0.2980	-98.9057	1.28305	2.89834	6.24626	-5.70648	-5.52384	-22.2377	-44.7192	12.3484	0
0.2987	-89.7802	-1.46634	2.31867	5.02519	-8.45158	-7.04865	-26.8237	-42.8773	10.4693	0
0.2993	-43.9683	-1.46634	4.44413	7.13858	-8.45158	-6.41571	-26.5122	-42.8773	11.0956	0
0.3000	13.7343	-4.21572	5.66787	5.91751	-9.66607	-7.65282	-32.9152	-45.0262	8.94809	0
0.3007	69.5935	-4.85724	5.9255	5.63572	-10.2816	-8.57346	-42.3814	-42.5703	7.69536	0
0.3013	118.355	-3.02432	9.91877	9.58073	-8.13547	-6.73218	-47.573	-38.9204	10.4693	0
0.3020	124.807	-6.96511	12.0442	8.97019	-9.36661	-9.17763	-55.2048	-41.3423	9.30602	0
0.3027	98.8135	-10.356	11.4646	6.52805	-10.8806	-10.7024	-64.6537	-39.5344	8.32173	0
0.3033	18.6197	-8.1565	11.4646	6.52805	-9.05051	-7.94052	-66.4881	-30.9726	10.8272	0
0.3040	-110.796	-6.41523	8.69503	3.47536	-8.75104	-8.25699	-66.7996	-26.0947	10.4693	0
0.3047	-126.098	-1.83292	5.02379	2.58304	-7.22044	-6.73218	-64.9652	-18.4539	13.5116	0
0.3053	-9.77074	7.33169	1.35256	5.30697	-4.17588	-4.8909	-55.2048	-9.92624	18.4331	0
0.3060	78.7189	11.914	-5.66787	3.47536	-5.39037	-8.25699	-44.2158	-8.39125	15.0328	0
0.3067	93.0063	15.03	-10.8205	2.58304	-5.39037	-8.25699	-28.9522	-6.24227	12.6168	0
0.3073	69.2247	15.9464	-11.7222	3.47536	-3.85977	-5.81154	-27.7408	-5.93528	12.8853	0
0.3080	46.3649	9.80614	-9.01707	3.19358	-3.26084	-5.52384	-41.4642	-15.1111	11.722	0
0.3087	77.7972	5.22383	0.128815	6.8568	-0.515746	-2.44545	-34.7496	-23.9458	15.0328	0
0.3093	163.245	2.47445	6.56958	8.35966	1.63042	-0.63294	-21.0263	-26.7087	16.9119	0
0.3100	213.942	-3.29926	7.14925	5.02519	0.399287	-2.15775	-15.8346	-30.6656	13.2432	0
0.3107	166.287	-3.29926	8.69503	5.02519	0.399287	0.2877	4.62059	-29.1306	12.3484	0
0.3113	76.5989	0.366584	7.14925	5.63572	0.0998217	0.60417	35.4418	-18.7609	11.0956	0
0.3120	74.7553	2.47445	4.12209	6.24626	-1.11468	-3.99903	49.4767	-12.9621	9.57446	0
0.3127	96.4169	7.97321	2.5763	9.29894	0.0998217	-4.6032	54.0453	-10.5402	11.9904	0
0.3133	-39.3595	17.7793	-6.89162	8.68841	-0.515746	-5.52384	61.0714	-1.05743	11.3641	0
0.3140	-206.66	19.2457	-16.9392	7.13858	-2.34581	-7.65282	73.8948	7.77726	8.05328	-0.321991
0.3147	-290.541	14.6634	-19.3867	7.74912	-1.73024	-6.41571	91.8926	8.08426	7.15847	-0.643983
0.3153	-362.623	19.2457	-20.2884	7.13858	-2.02971	-2.76192	99.5244	7.47026	6.53211	-0.321991
0.3160	-327.135	25.6609	-17.2612	8.97019	-0.199643	-0.02877	99.5244	5.66239	9.30602	0
0.3167	-174.859	22.6366	-11.1425	11.4123	1.92989	-1.55358	101.359	-0.44344	12.6168	0
0.3173	-78.1659	15.3049	-8.37299	8.35966	-0.199643	-6.12801	99.8359	-5.35539	11.3641	0
0.3180	-26.2704	10.4477	-6.56958	5.30697	-1.11468	-6.41571	84.2609	-10.8472	12.6168	0
0.3187	55.8591	6.78181	-5.02379	4.69644	-0.815211	-3.36609	54.0453	-19.9889	14.7644	0
0.3193	91.5315	5.22383	-2.31867	6.8568	-0.199643	-1.55358	27.4986	-22.4449	16.0171	0
0.3200	69.2247	6.78181	0.450853	10.1913	1.01485	-0.02877	14.6924	-20.2959	17.8067	0
0.3207	61.5741	3.66584	1.35256	9.58073	-0.199643	-1.55358	9.50076	-25.7878	14.7644	0
0.3213	57.9792	-2.3828	3.22038	6.8568	-2.94474	-2.44545	6.43768	-35.2364	11.3641	0
0.3220	43.5996	-5.49877	5.34583	5.91751	-3.85977	-0.92064	3.39189	-42.2633	11.0956	0
0.3227	46.6414	-5.77371	7.14925	6.8568	-2.94474	1.81251	1.869	-43.4912	11.9904	0
0.3233	55.8591	-5.49877	9.33911	8.07787	-1.73024	3.02085	1.26331	-37.3854	12.8853	0
0.3240	55.4904	-6.96511	11.1425	8.35966	-2.34581	0.60417	-1.79978	-30.9726	12.3484	0
0.3247	64.9846	-8.52309	13.59	8.97019	-2.94474	-0.63294	-4.53406	-30.6656	11.0956	0
0.3253	78.9955	-8.79803	14.1697	7.74912	-3.85977	-0.92064	-6.07426	-31.2796	9.57446	0
0.3260	111.073	-6.96511	9.59674	5.30697	-5.39037	-3.07839	-9.12004	-27.9367	7.15847	0
0.3267	141.307	-0.549877	4.44413	6.24626	-4.17588	-2.76192	-10.6429	-21.5239	6.80055	0
0.3273	39.3595	7.05675	1.09493	8.68841	-2.34581	-1.23711	-10.3487	-15.7251	8.32173	0
0.3280	-120.567	9.80614	-2.31867	7.74912	-2.64528	-2.44545	-12.4773	-13.2691	7.15847	0
0.3287	-129.14	10.9975	-5.66787	6.52805	-2.64528	-3.36609	-15.5231	-10.8472	5.01093	0
0.3293	-98.2604	12.8305	-8.69503	6.52805	-2.34581	-3.36609	-16.7518	-6.85627	4.38457	0
0.3300	-146.561	13.197	-12.0442	5.91751	-3.56031	-4.28673	-17.3575	-3.20641	2.86339	0
0.3307	-115.958	12.8305	-12.3663	7.46733	-2.64528	-3.68256	-15.5231	2.59242	3.48976	0
0.3313	-10.416	12.2806	-8.37299	9.86252	-0.815211	-1.84128	-13.3945	6.54927	5.90574	0
0.3320	32.9071	9.16461	-5.9255	9.29894	-1.73024	-1.84128	-15.5231	1.36443	5.01093	0
0.3327	42.1248	4.58231	-4.12209	6.52805	-3.56031	-2.76192	-18.5862	-6.54927	3.13183	0
0.3333	64.7081	-0.549877	0.128815	4.41465	-5.09091	-3.99903	-19.7976	-9.61924	2.50547	0
0.3340	82.406	-5.77371	5.9255	3.80411	-5.39037	-3.99903	-19.5034	-15.1111	2.23702	0
0.3347	97.6152	-7.60663	11.4646	6.24626	-3.85977	-1.23711	-16.7518	-25.1738	5.01093	0
0.3353	123.609	-8.79803	12.3663	7.74912	-3.56031	-0.63294	-14.9174	-33.7356	5.90574	0
0.3360	119.277	-9.98943	10.2408	5.91751	-5.09091	-1.84128	-15.8346	-36.7714	2.86339	0
0.3367	77.1519	-7.60663	8.69503	5.30697	-5.39037	-2.15775	-16.7518	-31.8936	1.61066	0
0.3373	82.6825	-9.71449	2.5763	3.80411	-5.70648	-4.28673	-18.2747	-25.4808	-0.178962	-0.643983
0.3380	100.104	-8.79803	-1.99664	4.69644	-2.94474	-2.76192	-17.046	-17.5329	0.447405	-0.965974
0.3387	60.0992	2.74938	-1.09493	6.8568	0.399287	0.60417	-15.2289	-6.54927	3.48976	0
0.3393	96.6934	5.22383	-1.35256	5.30697	-1.11468	-0.31647	-16.4403	-3.20641	1.96858	0
0.3400	209.61	-0.274938	-0.128815	3.80411	-2.94474	-1.23711	-16.1461	-4.4344	0.715847	0
0.3407	227.953	-3.66584	2.31867	3.47536	-3.85977	-1.84128	-15.5231	-5.62828	0.447405	0
0.3413	191.635	-3.02432	0.450853	3.19358	-4.79144	-2.15775	-15.8346	-3.20641	-0.805328	0
0.3420	193.11	7.33169	-5.66787	6.24626	-1.73024	0.89187	-13.706	10.2332	0.715847	0
0.3427	235.604	16.8629	-12.0442	7.46733	0.715389	2.12898	-11.8716	21.5239	0.715847	0
0.3433	310.359	13.7469	-12.9459	4.69644	-1.11468	0.89187	-14.0002	15.7251	-1.70014	0
0.3440	228.23	6.14029	-8.69503	3.19358	-2.94474	-0.02877	-15.8346	6.54927	-1.43169	0
0.3447	-39.3595	2.74938	-6.89162	2.25429	-3.56031	0.2877	-17.046	1.97843	-1.07377	0
0.3453	-227.124	4.94889	-7.79332	2.25429	-2.94474	1.20834	-16.7518	-4.12741	-0.536886	0
0.3460	-311.004	-2.10786	-5.02379	3.19358	-2.34581	1.81251	-14.0002	-14.1901	0.98429	-1.28797
0.3467	-307.041	-14.0219	1.09493	2.86483	-2.34581	2.12898	-11.8716	-22.1379	1.96858	-2.25394
0.3473	-185.275	-9.98943	4.70176	2.86483	-2.64528	1.81251	-12.4773	-18.1469	2.23702	-0.643983
0.3480	-63.7863	-1.46634	0.772892	1.36197	-3.85977	0.60417	-15.5231	-11.7341	-0.178962	0
0.3487	-11.8908	2.19951	-7.47128	0.422679	-3.85977	0.2877	-16.4403	-9.61924	-2.3265	0
0.3493	-9.77074	7.69827	-11.4646	3.19358	-1.11468	1.20834	-14.0002	-7.77726	-0.805328	0
0.3500	-0.921768	10.4477	-12.3663	4.41465	0.0998217	0.2877	-13.706	-12.6551	-0.805328	0
0.3507	-65.6299	9.80614	-14.4917	3.19358	-0.815211	-1.55358	-15.8346	-18.1469	-2.3265	0
0.3513	-256.067	11.6391	-16.6172	1.9725	-1.11468	-1.84128	-15.5231	-17.8399	-1.70014	0
0.3520	-327.504	10.9975	-17.2612	2.25429	-1.43078	-2.76192	-15.2289	-20.6029	-2.3265	0
0.3527	-176.426	8.24815	-13.268	4.41465	-1.11468	-0.92064	-14.0002	-21.2169	-1.70014	0
0.3533	43.3231	5.86535	-7.79332	5.91751	0.0998217	1.49604	-9.72574	-13.2691	1.34221	0
0.3540	192.189	2.47445	-6.56958	3.80411	-0.515746	0.2877	-8.51435	-6.85627	0.447405	0
0.3547	131.536	1.55798	-7.14925	2.25429	-1.11468	0.2877	-8.51435	-3.51341	-1.43169	0
0.3553	-51.8955	1.55798	-7.79332	1.36197	-1.73024	0.60417	-7.89135	-0.750437	-1.70014	0
0.3560	-62.3115	-3.29926	-3.47801	-1.08018	-2.94474	0.2877	-7.59715	-2.89942	-2.05806	0
0.3567	54.0156	-9.43955	7.47128	-0.469644	-1.11468	3.94149	-2.40548	-6.54927	2.23702	0
0.3573	79.6407	-13.1054	14.1697	0.422679	0.0998217	7.30758	2.7862	-12.0411	5.90574	0
0.3580	58.2557	-15.8548	13.59	-1.40893	-1.11468	6.99111	3.99759	-17.2259	5.6373	0
0.3587	20.0945	-14.0219	11.4646	-2.01947	-1.11468	6.99111	3.99759	-15.4181	5.01093	0
0.3593	-59.5462	-9.71449	5.9255	-1.08018	-1.11468	4.86213	0.0346112	-10.2332	0.98429	0
0.3600	-35.7646	-3.94078	-1.6746	0.75143	-1.11468	3.02085	-3.92837	-0.44344	-2.3265	0
0.3607	136.053	8.24815	-11.7222	4.41465	0.715389	3.33732	-3.01117	14.8041	-2.3265	0
0.3613	246.573	23.828	-28.8546	6.24626	2.22935	3.02085	-2.71698	22.7519	-4.47405	0
0.3620	228.23	29.3268	-38.5802	5.30697	1.92989	2.41668	-4.84556	18.7609	-6.89003	0
0.3627	195.599	19.8872	-31.8818	3.19358	0.715389	0.60417	-6.99146	9.92624	-7.78484	0
0.3633	142.137	7.97321	-21.1901	1.9725	-0.815211	-1.23711	-7.59715	-4.12741	-8.41121	0
0.3640	72.6353	-0.549877	-9.2747	3.19358	-0.815211	0.2877	-5.15706	-20.9099	-5.99522	0
0.3647	-0.921768	-6.96511	1.99664	3.80411	-0.515746	1.49604	-3.92837	-31.8936	-3.84768	0
0.3653	-83.0513	-9.43955	3.80005	1.9725	-1.73024	0.60417	-6.07426	-33.7356	-5.10041	0
0.3660	-66.5516	-8.79803	1.09493	-0.469644	-2.64528	1.20834	-8.20285	-31.8936	-4.47405	0
0.3667	-46.7336	-6.96511	-1.09493	-4.13286	-3.56031	2.73315	-8.51435	-28.8236	-3.22131	0
0.3673	-83.0513	-4.58231	-0.450853	-5.35394	-3.56031	3.65379	-7.59715	-21.2169	-1.70014	0
0.3680	-21.6615	-3.02432	4.44413	-1.40893	-1.43078	5.78277	-5.45126	-14.4971	0.715847	0
0.3687	93.9281	-5.13218	7.14925	-0.187857	-0.199643	6.38694	-4.23987	-17.8399	0.0894809	0
0.3693	169.605	-6.96511	5.66787	-1.69072	-1.11468	6.09924	-5.15706	-25.1738	-2.05806	0
0.3700	189.147	-6.04864	2.5763	-2.63	-1.43078	4.86213	-7.89135	-28.8236	-3.57924	0
0.3707	136.053	-1.46634	-4.70176	-4.46161	-1.11468	3.94149	-10.3487	-27.0157	-4.74249	0
0.3713	-24.7955	10.4477	-12.9459	-3.24054	1.63042	6.99111	-7.28565	-16.3391	-2.05806	0
0.3720	-229.52	18.3292	-14.8138	-1.08018	4.67499	10.6737	-0.571084	-6.85627	2.23702	0
0.3727	-250.536	14.6634	-10.4984	-3.24054	4.05942	11.2778	2.7862	-7.77726	4.38457	0
0.3733	-119.922	6.78181	-3.22038	-7.5143	2.54545	13.4068	5.83198	-13.8831	7.69536	0
0.3740	-101.026	-9.07297	4.12209	-12.3986	0.715389	14.011	8.87776	-19.0679	8.32173	-0.321991
0.3747	-162.692	-20.712	10.4984	-13.0091	0.715389	13.7233	9.18926	-19.0679	7.15847	-0.321991
0.3753	-121.212	-12.4639	16.0375	-8.73537	3.14439	15.5358	8.58357	-10.8472	10.4693	0
0.3760	-64.4316	-4.58231	16.9392	-7.18555	3.75995	16.4564	8.27207	-3.51341	13.2432	0
0.3767	-118.171	-6.69017	14.4917	-9.34591	2.54545	15.5358	6.74918	-5.35539	11.3641	0
0.3773	-155.41	-7.88157	12.0442	-10.567	1.63042	14.011	4.62059	-11.4271	9.30602	0
0.3780	-127.573	-7.24004	8.69503	-10.8488	0.715389	11.2778	2.1632	-15.4181	6.80055	0
0.3787	-94.6655	-4.85724	7.47128	-9.34591	0.715389	11.2778	1.869	-12.3481	6.53211	0
0.3793	-122.687	1.55798	5.66787	-6.57501	2.22935	12.8026	3.99759	-3.51341	8.32173	0
0.3800	-203.895	9.16461	-1.6746	-5.68269	2.84492	11.5655	3.70339	1.97843	7.42692	0
0.3807	-161.494	15.3049	-12.0442	-6.90376	2.54545	9.43656	0.640307	1.05743	3.48976	0
0.3813	-67.7499	17.7793	-16.9392	-7.18555	2.54545	7.62405	-1.79978	-2.28542	0.0894809	-0.321991
0.3820	-86.3696	18.0543	-14.8138	-5.68269	2.54545	6.99111	-2.09398	-3.20641	-0.805328	0
0.3827	-100.104	17.7793	-9.91877	-3.24054	2.84492	7.91175	-0.571084	0.44344	0.715847	0
0.3833	-46.7336	14.6634	-4.44413	-2.30125	2.54545	7.91175	0.0346112	6.24227	1.61066	0
0.3840	-2.7653	7.33169	0.772892	-4.13286	0.399287	5.78277	-1.79978	7.47026	-1.07377	0
0.3847	17.0527	-2.10786	5.9255	-5.96447	-1.73024	4.54566	-2.40548	1.05743	-2.3265	0
0.3853	31.7088	-8.1565	9.01707	-6.90376	-1.73024	5.4663	0.0346112	-10.8472	-0.536886	0
0.3860	59.1775	-8.79803	11.4646	-4.13286	0.0998217	7.62405	2.7862	-23.3318	1.61066	0
0.3867	86.0009	-9.07297	12.6883	-2.01947	1.01485	8.22822	3.39189	-35.5434	2.86339	0
0.3873	54.0156	-7.60663	8.11536	-3.85108	-0.199643	6.99111	0.951807	-37.3854	1.96858	0
0.3880	-5.80714	-2.3828	-0.450853	-5.96447	-0.815211	6.09924	-0.571084	-27.3227	0.447405	0
0.3887	-17.6979	0.641523	-3.22038	-6.57501	-0.815211	5.78277	-0.276889	-17.2259	-0.178962	0
0.3893	0.27653	0	3.22038	-4.46161	0.399287	7.30758	2.1632	-6.24227	1.96858	0.321991
0.3900	47.8397	-2.74938	12.3663	-2.01947	2.22935	8.83239	4.30909	3.82041	4.65301	0
0.3907	145.547	-8.79803	18.163	-3.24054	1.31432	7.62405	4.62059	2.89942	4.11612	0
0.3913	229.428	-13.1054	18.163	-5.35394	0.0998217	7.30758	4.62059	-2.28542	4.11612	0
0.3920	252.38	-9.71449	12.3663	-6.57501	-0.515746	7.62405	3.99759	-0.750437	4.65301	0
0.3927	244.729	1.28305	0.128815	-5.68269	1.01485	7.91175	2.4747	3.20641	4.11612	0
0.3933	220.302	14.6634	-11.7222	-3.85108	4.37552	9.43656	3.08039	7.77726	5.01093	0
0.3940	139.463	22.9115	-19.0647	-2.91179	5.29055	9.75303	2.4747	15.4181	5.01093	0
0.3947	47.5632	23.5531	-22.0918	-3.85108	3.75995	8.51592	0.346112	21.8309	2.86339	0
0.3953	15.2092	18.3292	-20.9325	-5.35394	2.22935	7.62405	-0.882585	22.4449	1.96858	0
0.3960	-11.6143	12.2806	-17.5189	-6.29322	1.63042	7.30758	-1.48828	18.1469	1.96858	0
0.3967	-4.88537	7.97321	-13.268	-5.07215	1.31432	7.30758	-1.48828	9.31224	2.50547	0
0.3973	14.0109	3.11597	-5.9255	-2.91179	2.54545	7.62405	-0.276889	-2.28542	4.11612	0
0.3980	-95.5873	-3.02432	1.6746	-2.63	2.22935	6.70341	-1.17678	-14.8041	3.13183	0
0.3987	-204.54	-7.88157	5.34583	-4.46161	-0.515746	4.86213	-3.63417	-28.5166	0.715847	0
0.3993	-163.337	-8.79803	7.14925	-5.07215	-0.515746	5.4663	-2.40548	-34.9294	1.34221	0
0.4000	-90.7019	-6.69017	9.91877	-4.7434	1.63042	8.83239	1.869	-29.7446	4.65301	0
0.4007	-73.9258	-4.85724	12.3663	-3.85108	3.46049	11.2778	5.22629	-19.6819	7.42692	0
0.4013	-72.0822	-5.49877	11.7222	-4.13286	3.14439	11.2778	6.43768	-15.1111	8.67965	0
0.4020	-63.2333	-8.52309	8.11536	-8.12484	0.715389	10.3572	5.22629	-17.2259	8.32173	0
0.4027	-63.2333	-8.52309	4.44413	-10.567	0.715389	11.882	5.52048	-16.9189	9.8429	0
0.4033	-71.7135	-5.77371	1.35256	-11.1775	1.92989	14.3275	7.06068	-16.6461	13.2432	0
0.4040	-78.8111	-5.13218	0.772892	-11.1775	2.84492	15.2481	7.97787	-15.4181	15.0328	0
0.4047	-78.4424	-4.58231	5.9255	-9.62769	4.67499	16.7729	9.18926	-10.2332	17.1803	0
0.4053	-39.0829	-6.96511	8.11536	-11.1775	3.75995	16.4564	7.97787	-9.00525	16.9119	0
0.4060	0.553061	-13.6553	3.22038	-13.6197	1.92989	13.7233	5.83198	-10.2332	13.5116	0
0.4067	-61.6663	-12.7388	-3.47801	-12.0698	2.54545	11.2778	5.22629	-1.36443	9.8429	-0.321991
0.4073	-179.745	-0.549877	-6.89162	-8.73537	2.54545	9.75303	2.7862	11.7341	7.15847	0
0.4080	-180.666	7.69827	-5.66787	-5.35394	3.75995	10.0407	3.39189	18.4539	8.32173	0
0.4087	-4.33231	6.78181	-5.02379	-4.7434	4.05942	9.43656	3.99759	19.3749	8.05328	0
0.4093	180.021	5.49877	-9.01707	-7.18555	2.22935	6.99111	0.0346112	18.4539	3.7582	0
0.4100	231.64	7.33169	-11.1425	-6.57501	2.22935	6.09924	-0.882585	20.6029	2.86339	0
0.4107	188.225	5.86535	-9.01707	-5.07215	2.54545	4.86213	-0.571084	20.6029	2.23702	0
0.4113	143.058	-0.916461	-5.02379	-4.46161	0.715389	2.12898	-2.71698	11.4612	-0.805328	0
0.4120	133.933	-4.85724	-0.128815	-2.91179	1.01485	1.81251	-2.71698	1.05743	-1.07377	0
0.4127	120.198	-6.96511	1.6746	-2.91179	0.399287	0.89187	-3.63417	-5.93528	-2.95287	0
0.4133	96.4169	-10.6309	1.6746	-4.7434	-1.43078	-1.23711	-5.45126	-12.3481	-5.72678	0
0.4140	39.636	-13.1054	3.54242	-4.46161	-2.02971	-0.92064	-5.15706	-16.3391	-5.36886	0
0.4147	-16.4996	-14.0219	5.9255	-4.7434	-2.34581	0.89187	-3.32267	-15.4181	-2.59495	0
0.4153	40.8343	-14.2968	8.37299	-6.57501	-1.73024	3.65379	-0.276889	-10.2332	1.96858	0
0.4160	117.157	-15.2133	9.59674	-8.40662	-1.43078	5.4663	2.4747	-1.97843	4.38457	0.321991
0.4167	118.724	-15.4882	7.14925	-11.1775	-2.34581	4.25796	0.640307	4.4344	2.23702	0
0.4173	140.385	-14.0219	4.12209	-10.2382	-2.64528	2.12898	-1.79978	9.92624	-0.536886	0
0.4180	204.725	-9.43955	0.772892	-8.40662	-1.43078	1.49604	-1.48828	19.3749	-2.05806	0
0.4187	238	0.916461	-7.47128	-6.57501	0.0998217	3.33732	0.951807	30.9726	0.0894809	0
0.4193	75.6771	13.7469	-17.8409	-4.46161	1.31432	4.54566	2.7862	40.4213	0.98429	0
0.4200	-232.009	18.3292	-26.0851	-5.68269	0.715389	1.81251	0.346112	43.4912	-3.22131	0
0.4207	-296.625	19.2457	-29.4343	-6.90376	0.0998217	0.2877	-1.48828	44.1052	-5.72678	0
0.4213	-169.697	19.8872	-27.9529	-5.96447	1.01485	1.20834	0.0346112	45.3332	-3.84768	0
0.4220	-141.307	14.1135	-21.5121	-5.96447	0.715389	0.60417	0.0346112	39.2274	-3.22131	0
0.4227	-100.104	4.94889	-13.268	-5.07215	-0.199643	0.2877	0.0346112	29.4376	-3.57924	0
0.4233	-12.536	-1.1914	-9.59674	-5.96447	-1.73024	-0.92064	-1.48828	21.5239	-5.10041	0
0.4240	5.80714	-5.77371	-8.11536	-6.90376	-2.64528	-3.07839	-3.63417	10.5402	-6.62159	0
0.4247	-11.3377	-9.07297	-3.22038	-5.68269	-2.02971	-1.55358	-2.09398	-3.51341	-5.10041	0
0.4253	-25.9938	-11.8223	0.772892	-4.46161	-1.43078	-0.31647	-0.276889	-14.8041	-3.57924	0
0.4260	-45.5353	-11.5474	1.35256	-3.52233	-0.815211	0.89187	0.0346112	-18.4539	-3.22131	0
0.4267	-57.4261	-9.43955	-0.128815	-2.91179	-0.815211	0.89187	-0.571084	-19.0679	-4.47405	0
0.4273	-47.0101	-9.43955	-4.44413	-5.07215	-2.94474	-1.84128	-2.71698	-20.9099	-8.76913	0
0.4280	-30.234	-8.1565	-6.56958	-5.96447	-3.56031	-2.44545	-3.32267	-19.0679	-9.93238	0
0.4287	-25.3486	-6.41523	-5.02379	-5.07215	-2.02971	-0.31647	-2.09398	-14.8041	-8.14277	0
0.4293	-23.8738	-5.77371	-3.47801	-3.85108	-1.43078	0.60417	-1.48828	-12.6551	-7.5164	0
0.4300	-21.385	-5.49877	-3.47801	-3.85108	-2.64528	-0.63294	-2.40548	-9.00525	-8.41121	0
0.4307	-37.6081	-5.49877	-4.12209	-4.7434	-3.56031	-2.44545	-3.92837	-3.51341	-10.2903	0
0.4313	-54.0156	-4.58231	-2.31867	-3.85108	-2.64528	-1.84128	-4.23987	1.36443	-9.3955	0
0.4320	-35.1193	-4.85724	-1.09493	-2.30125	-2.64528	-1.55358	-3.63417	2.28542	-9.03757	0
0.4327	-3.41054	-6.04864	-1.09493	-0.798394	-3.26084	-2.15775	-4.23987	0.750437	-11.4536	0
0.4333	11.2456	-5.77371	-0.128815	2.58304	-2.94474	-2.15775	-4.23987	0.170554	-12.4378	0
0.4340	5.80714	-13.6553	-0.128815	2.58304	-4.17588	-2.76192	-3.92837	-2.28542	-13.3327	-0.321991
0.4347	-7.9272	-20.0705	0.450853	2.86483	-4.17588	-1.84128	-3.01117	-3.20641	-13.6011	-0.643983
0.4353	-13.1813	-10.6309	1.09493	5.30697	-2.34581	-0.31647	-3.01117	1.97843	-12.4378	0
0.4360	1.84354	-2.74938	-1.09493	5.63572	-2.34581	-0.63294	-4.23987	7.47026	-11.8115	0
0.4367	27.7452	-3.02432	-0.772892	3.47536	-1.73024	0.60417	-3.32267	9.61924	-10.2903	0
0.4373	35.9489	-3.94078	1.09493	0.140893	-0.515746	1.49604	-2.40548	9.92624	-9.66394	0
0.4380	35.6724	-4.58231	0.772892	-3.52233	-0.815211	1.49604	-2.71698	8.39125	-9.93238	0
0.4387	49.1302	-4.58231	-1.09493	-3.24054	-1.11468	0.60417	-3.01117	7.16326	-10.2903	0
0.4393	67.1047	-3.66584	-3.22038	-7.79608	-1.11468	-0.92064	-4.53406	7.16326	-12.9747	0
0.4400	71.0683	-1.1914	-4.12209	-20.9461	-1.43078	-0.92064	-6.07426	7.47026	-14.2275	0
0.4407	38.4377	-4.85724	-3.47801	-22.449	-1.11468	-0.92064	-5.15706	5.96939	-13.6011	-0.321991
0.4413	-36.3176	-6.04864	-3.22038	-12.6804	0.0998217	-0.63294	-2.71698	8.69825	-12.9747	-0.321991
0.4420	-90.9785	3.66584	-6.56958	-7.79608	0.399287	0.2877	-2.40548	18.4539	-14.2275	0
0.4427	-66.5516	7.33169	-9.91877	-8.12484	-1.73024	-1.55358	-4.84556	22.7519	-17.6277	0
0.4433	1.84354	3.11597	-9.2747	-9.34591	-3.26084	-3.36609	-6.67996	20.2959	-19.4174	0
0.4440	23.1364	0.916461	-4.70176	-4.7434	-2.64528	-2.76192	-6.07426	15.4181	-22.4597	0
0.4447	-19.5415	-1.46634	0.128815	8.68841	-1.73024	-1.55358	-5.76276	8.08426	-37.1346	0
0.4453	-1.567	-3.94078	2.31867	23.2943	-1.43078	0.2877	-6.67996	3.51341	-48.4092	0
0.4460	118.724	-4.85724	3.54242	37.9472	-1.11468	3.33732	-4.53406	3.20641	-48.4092	0
0.4467	222.146	-6.41523	2.89834	44.0526	-2.02971	4.25796	-3.01117	2.28542	-53.8675	0
0.4473	229.797	-5.77371	2.5763	35.5051	-0.815211	4.86213	-1.79978	5.0484	-48.6776	0
0.4480	217.906	-1.1914	1.99664	23.0125	1.31432	7.30758	0.951807	11.1542	-29.1708	0
0.4487	236.526	2.74938	-1.99664	12.0229	1.31432	7.62405	1.5575	14.1901	-21.8333	0
0.4493	86.3696	4.94889	-5.66787	-2.91179	0.399287	6.09924	1.26331	15.1111	11.9904	0
0.4500	-183.432	4.03243	-6.89162	-30.9965	-1.43078	3.94149	-0.276889	14.4971	64.1578	0
0.4507	-284.734	2.47445	-4.70176	-50.5337	-2.02971	4.25796	-0.276889	14.1901	40.7138	0
0.4513	-257.265	2.47445	0.772892	-36.2095	0.0998217	5.78277	3.39189	14.8041	-29.1708	0
0.4520	-190.806	1.55798	3.80005	-12.0698	1.31432	4.86213	4.30909	12.9621	-56.6414	0
0.4527	-108.031	-0.274938	2.89834	-2.91179	-0.199643	3.02085	2.4747	12.3481	-67.916	0
0.4533	-66.8281	-0.916461	0.772892	1.64375	-2.34581	1.81251	0.346112	11.4612	-64.6052	0
0.4540	-46.0884	0.366584	-0.450853	10.4731	-2.64528	1.81251	-1.79978	10.2332	1.96858	0
0.4547	-27.4687	2.74938	0.450853	14.1363	-1.43078	3.02085	-1.48828	10.2332	59.9522	0
0.4553	-28.1139	4.30737	1.35256	16.9072	-0.815211	4.54566	0.0346112	8.39125	39.1926	0
0.4560	-28.1139	3.39091	1.6746	42.8315	-1.11468	5.4663	0.0346112	4.7414	-2.59495	0
0.4567	6.08367	1.28305	1.99664	77.3503	-1.73024	5.1786	-1.17678	0.44344	-34.3607	0
0.4573	37.7925	-0.916461	1.6746	88.293	-2.64528	2.73315	-2.40548	-2.59242	-66.7528	0
0.4580	30.5105	-1.1914	3.54242	81.9058	-1.73024	3.65379	-0.571084	-0.750437	-68.274	0
0.4587	14.0109	1.55798	6.89162	92.285	1.01485	8.51592	3.70339	3.20641	-68.5424	0
0.4593	11.5221	2.47445	5.66787	121.873	1.01485	10.3572	4.62059	3.82041	-146.033	0
0.4600	10.6925	0.366584	2.5763	112.104	-0.815211	8.51592	2.7862	2.89942	-242.851	0
0.4607	-0.921768	-1.83292	3.22038	69.0846	-0.199643	7.30758	1.5575	1.05743	-264.148	0
0.4613	-3.41054	-1.1914	5.34583	54.1499	2.22935	6.70341	0.640307	-1.05743	-241.867	0
0.4620	5.1619	0.366584	6.24754	68.1923	4.37552	4.86213	0.640307	0.750437	-224.776	0
0.4627	4.24013	1.28305	6.56958	64.8108	4.67499	3.02085	0.640307	4.4344	-253.768	0
0.4633	-11.8908	1.28305	5.02379	10.8018	2.54545	2.73315	-0.882585	5.66239	-257.168	0
0.4640	-48.2084	1.28305	1.6746	-51.7547	0.399287	4.54566	-0.882585	5.96939	-42.5929	0
0.4647	-76.0458	2.47445	0.772892	-118.303	-1.43078	9.43656	1.5575	8.39125	272.29	0
0.4653	-65.3533	4.30737	2.89834	-201.289	-2.64528	12.8026	4.30909	11.7341	368.751	0
0.4660	-39.7282	5.86535	4.70176	-215.05	-2.34581	12.1985	6.43768	13.8831	243.657	0
0.4667	-22.3068	4.94889	5.66787	-160.102	-4.17588	11.2778	6.43768	12.0411	80.7118	0
0.4673	-10.6925	1.55798	5.9255	-64.2942	-6.30541	12.4862	3.99759	5.0484	-40.4454	0
0.4680	-0.368707	1.28305	6.24754	55.371	-5.39037	13.7233	2.4747	1.67143	-124.11	0
0.4687	12.4439	-1.46634	6.89162	83.7375	-2.34581	15.8523	4.62059	3.20641	-155.876	0
0.4693	30.5105	-5.49877	8.11536	53.2106	0.399287	20.4267	8.27207	4.7414	-124.379	0
0.4700	34.4741	1.28305	6.56958	91.3457	1.01485	22.268	6.43768	8.39125	-94.4919	0
0.4707	20.0945	7.69827	1.35256	163.718	-2.02971	18.5854	0.640307	11.1542	-41.0718	0
0.4713	4.51666	6.78181	-1.09493	205.187	-3.85977	14.3275	-3.01117	9.00525	133.148	0
0.4720	-3.68707	7.05675	0.450853	222.001	-3.56031	10.6737	-4.53406	5.0484	422.44	0
0.4727	9.77074	7.97321	3.22038	213.124	-3.85977	8.22822	-4.84556	2.89942	602.565	0
0.4733	36.8707	7.69827	4.44413	190.534	-5.39037	4.25796	-5.76276	2.89942	475.86	0
0.4740	43.8761	5.86535	3.22038	180.766	-9.36661	-2.15775	-9.43154	3.20641	215.56	0
0.4747	35.3959	4.58231	1.6746	142.96	-10.2816	-5.20737	-10.9544	3.51341	6.17418	0
0.4753	29.8653	5.86535	2.5763	63.308	-6.30541	-2.15775	-6.36845	4.4344	-104.872	0
0.4760	25.9017	7.33169	3.54242	-18.7857	-2.94474	3.02085	-1.17678	5.96939	-122.231	0
0.4767	22.8598	7.69827	4.12209	-92.9425	-0.515746	5.78277	1.26331	6.54927	-136.011	0
0.4773	15.8544	6.41523	4.44413	-165.596	0.715389	6.09924	2.4747	5.0484	-86.2596	0
0.4780	4.24013	4.30737	3.22038	-232.708	0.0998217	7.62405	1.869	1.67143	69.7057	0
0.4787	-1.84354	4.94889	3.22038	-237.593	1.31432	11.882	3.99759	2.28542	137.711	0
0.4793	-3.68707	7.69827	4.12209	-195.513	3.14439	14.6439	8.58357	7.47026	106.93	0
0.4800	-7.37414	8.61474	4.12209	-188.468	3.46049	14.011	9.50076	10.8472	66.0369	0
0.4807	-9.49421	7.05675	4.12209	-180.249	3.75995	12.4862	8.27207	10.5402	-22.8176	0
0.4813	-6.7289	6.41523	4.12209	-142.396	4.67499	11.2778	7.66637	9.92624	-110.33	0
0.4820	-3.04183	6.41523	4.70176	-143.617	5.88948	11.2778	9.79496	9.31224	-125.005	0
0.4827	-2.7653	6.14029	5.34583	-176.257	6.50505	14.9316	14.3809	9.00525	-65.5	0
0.4833	-3.9636	4.58231	4.44413	-160.102	5.59002	19.2184	16.5095	7.16326	-61.205	0
0.4840	-3.68707	3.66584	3.22038	-97.545	5.88948	22.8721	18.0324	5.96939	-171.982	0
0.4847	-1.84354	4.94889	4.70176	-17.5647	6.82115	27.1301	19.8668	7.47026	-80.8013	0
0.4853	-2.21224	5.22383	5.34583	55.6528	3.75995	23.7928	17.1325	7.77726	188.715	0
0.4860	-1.567	5.22383	4.44413	55.9815	1.31432	14.6439	11.3352	6.54927	141.111	0
0.4867	-1.29047	5.22383	2.89834	-1.08018	0.0998217	9.43656	7.66637	6.54927	-114.983	0
0.4873	-5.80714	3.66584	-0.128815	-22.449	-1.11468	9.43656	5.52048	5.0484	-201.601	0
0.4880	-6.17584	4.58231	-0.128815	-9.34591	0.399287	12.8026	6.43768	5.35539	-145.138	0
0.4887	-5.53061	8.61474	1.6746	-40.7651	0.399287	14.011	8.27207	8.39125	119.457	0
0.4893	-10.416	9.80614	1.09493	-100.269	-5.09091	11.882	8.27207	9.92624	513.442	0
0.4900	-12.2595	7.69827	-0.128815	-95.3846	-9.96554	6.99111	5.22629	8.08426	551.292	0
0.4907	-8.57244	5.86535	-0.772892	-42.3149	-9.96554	1.20834	2.1632	6.85627	305.577	0
0.4913	-3.04183	7.05675	0.128815	-58.1888	-6.92097	-0.63294	2.7862	6.24227	212.786	0
0.4920	2.12007	8.61474	0.772892	-129.903	-4.17588	0.89187	2.7862	4.7414	213.77	0
0.4927	6.3602	9.16461	1.09493	-130.514	-1.73024	3.65379	1.5575	3.82041	175.293	0
0.4933	7.28196	8.61474	1.6746	-70.0708	1.31432	4.54566	1.5575	4.4344	102.993	0
0.4940	3.31836	6.14029	0.128815	-5.68269	2.54545	3.02085	1.5575	2.89942	-61.8313	0
0.4947	-1.29047	5.49877	0.772892	48.0445	4.05942	3.65379	2.7862	2.89942	-296.54	0
0.4953	-5.25408	8.24815	2.89834	63.9185	6.82115	5.4663	4.91479	5.96939	-505.567	0
0.4960	-9.21768	7.69827	2.5763	62.3687	8.65122	5.4663	4.62059	6.54927	-653.927	0
0.4967	-13.4578	0.916461	1.6746	53.5394	8.03565	3.65379	4.62059	4.4344	-734.102	0
0.4973	-18.0666	-0.549877	0.772892	26.0652	5.59002	1.81251	3.08039	4.4344	-701.173	0
0.4980	-18.6197	5.22383	-0.772892	-5.07215	2.84492	1.20834	0.0346112	5.96939	-394.79	0
0.4987	-13.1813	7.05675	-1.35256	-29.7754	0.0998217	2.41668	-0.882585	5.0484	188.984	0
0.4993	-6.45237	8.61474	-0.772892	-13.6197	-2.02971	3.94149	0.951807	6.24227	607.128	0
0.5000	-3.68707	10.4477	-1.09493	47.1053	-2.94474	2.73315	-0.276889	7.16326	552.187	0
0.5007	-3.41054	8.61474	-3.80005	65.7501	-5.39037	-2.44545	-5.76276	5.35539	409.644	0
0.5013	-1.84354	9.16461	-2.89834	15.3573	-5.70648	-3.36609	-6.67996	8.39125	414.834	0
0.5020	-6.7289	11.914	0.128815	-2.63	-4.17588	-4.28673	-5.45126	13.5761	211.891	0
0.5027	-16.2231	11.6391	0.450853	45.6024	-3.85977	-11.9108	-9.43154	14.1901	-117.041	0
0.5033	-13.1813	10.4477	0.450853	85.5691	-3.26084	-16.1975	-14.3117	12.0411	-198.827	0
0.5040	-4.88537	9.80614	0.772892	84.9585	-2.34581	-15.5933	-16.1461	8.69825	-145.138	0
0.5047	-4.33231	8.24815	0.450853	69.6951	-1.73024	-13.7521	-14.6059	5.0484	-183.883	0
0.5053	-5.25408	7.69827	0.772892	88.0112	1.31432	-12.5437	-12.4773	2.59242	-324.279	0
0.5060	-4.33231	7.97321	1.6746	160.665	4.97445	-14.0685	-11.8716	1.05743	-472.28	0
0.5067	-7.00543	6.78181	2.31867	227.167	5.29055	-14.3562	-11.2486	0.44344	-456.442	0
0.5073	-15.3013	4.58231	2.5763	245.154	3.75995	-14.3562	-10.3487	1.05743	-305.667	0
0.5080	-16.2231	4.30737	3.80005	271.407	3.46049	-19.2471	-8.51435	4.7414	-197.663	0
0.5087	-4.60884	4.30737	4.44413	308.039	2.22935	-23.5051	-7.28565	6.24227	-87.1544	0
0.5093	3.59489	1.83292	2.89834	275.681	-2.34581	-24.138	-7.59715	3.51341	108.182	0
0.5100	3.9636	-0.274938	1.35256	193.916	-9.05051	-22.6132	-6.36845	1.05743	399.264	0
0.5107	7.9272	2.19951	1.99664	103.556	-12.7106	-19.8513	-2.40548	2.59242	701.978	0
0.5113	15.8544	6.41523	2.5763	14.7468	-13.9418	-18.3265	-0.276889	5.66239	798.438	0
0.5120	20.0945	9.5312	0.128815	5.30697	-14.5573	-18.3265	-1.17678	5.96939	648.021	0
0.5127	18.251	12.5555	-1.09493	77.3503	-12.4112	-15.5933	-0.882585	4.7414	420.918	0
0.5133	10.969	12.8305	-1.6746	146.012	-8.45158	-10.7024	0.0346112	3.51341	238.735	0
0.5140	-11.8908	12.5555	-1.6746	129.528	-3.85977	-4.8909	-0.571084	2.89942	175.92	0
0.5147	-48.5772	15.03	-0.128815	7.13858	1.92989	0.89187	2.4747	7.16326	176.188	0
0.5153	-58.9009	16.8629	0.772892	-108.816	7.73619	6.70341	7.35487	12.9621	99.8607	0
0.5160	-35.7646	15.5798	-1.6746	-151.836	12.3113	9.14886	8.27207	14.8041	-49.304	0
0.5167	-11.0612	13.7469	-6.24754	-164.657	14.1414	6.38694	7.06068	12.9621	-129.926	0
0.5173	2.3966	14.1135	-9.91877	-198.847	14.1414	3.02085	8.27207	10.5402	-126.884	0
0.5180	5.80714	15.5798	-10.2408	-240.974	13.8253	1.81251	8.87776	10.5402	-183.883	0
0.5187	5.43843	14.1135	-6.24754	-192.742	12.6108	-1.55358	7.06068	9.31224	-345.665	0
0.5193	2.67313	10.7226	-3.22038	-64.576	9.25015	-7.94052	4.30909	4.7414	-506.462	0
0.5200	-4.88537	8.24815	-2.89834	8.35966	3.75995	-21.0884	3.70339	0.750437	-459.216	0
0.5207	-9.77074	6.78181	-1.99664	6.8568	-1.73024	-36.3365	5.83198	-1.05743	-395.058	0
0.5213	-9.49421	6.14029	0.128815	-5.07215	-5.09091	-44.8812	6.43768	-1.67143	-585.832	0
0.5220	-10.416	6.78181	1.6746	-30.9965	-8.13547	-52.8217	3.39189	-0.750437	-593.169	0
0.5227	-14.103	6.78181	1.6746	-68.8498	-10.5811	-58.6045	-2.09398	2.59242	-248.936	0
0.5233	-18.6197	7.05675	0.128815	-94.7741	-11.4961	-59.5251	-7.59715	3.20641	-64.6052	0
0.5240	-19.5415	4.03243	0.128815	-101.819	-11.1967	-56.4755	-9.72574	-0.136443	-238.556	-0.321991
0.5247	-20.1867	0.916461	1.99664	-93.2712	-7.22044	-44.5647	-6.36845	-2.28542	-391.39	-0.321991
0.5253	-18.3432	4.30737	4.12209	-78.0078	-3.85977	-32.9704	-2.71698	0.44344	-402.127	-0.321991
0.5260	4.24013	8.24815	6.24754	-43.2072	-2.64528	-31.4456	-1.79978	2.59242	-640.147	0
0.5267	23.1364	6.14029	6.24754	-31.607	-4.47534	-28.1083	-3.92837	0.44344	-975.879	0
0.5273	11.2456	4.03243	4.12209	-60.0205	-8.13547	-15.881	-5.15706	-1.97843	-962.099	0
0.5280	4.24013	5.49877	4.12209	-43.536	-8.13547	-3.68256	-2.09398	0.170554	-765.241	0
0.5287	17.6979	7.97321	5.66787	16.9072	-6.92097	6.70341	0.951807	1.97843	-590.127	0
0.5293	33.8289	8.88967	8.11536	76.411	1.01485	17.9812	4.30909	1.97843	-201.601	0
0.5300	39.636	8.24815	7.47128	123.422	14.1414	25.0011	5.83198	0.750437	428.882	0
0.5307	6.08367	7.33169	2.89834	154.842	18.4171	32.3375	4.30909	-0.750437	920.222	0
0.5313	-50.6972	8.88967	1.99664	197.25	19.016	40.8822	6.43768	0.44344	1003.8	0
0.5320	-58.9009	10.7226	3.80005	260.746	29.098	43.0111	9.79496	-0.44344	766.404	-0.321991
0.5327	-23.8738	13.472	1.09493	333.353	48.6298	44.2195	9.18926	-0.44344	359.624	0
0.5333	-3.04183	18.3292	-5.34583	335.185	56.8651	34.15	1.869	6.54927	54.4044	0
0.5340	-8.29591	19.6123	-11.7222	182.316	47.7148	10.0407	-9.43154	12.9621	95.0288	0
0.5347	-24.1503	18.3292	-13.912	-40.7651	34.5882	-6.41571	-14.6059	13.8831	309.515	0
0.5353	-44.8901	18.0543	-10.8205	-164.986	17.5021	-15.5933	-9.43154	11.7341	366.603	0
0.5360	-30.5105	15.9464	-6.56958	-198.237	1.63042	-23.2174	-2.40548	7.16326	206.433	0
0.5367	33.2758	11.6391	-2.5763	-193.07	-7.53654	-20.7719	2.7862	2.28542	117.578	0
0.5373	76.8754	9.16461	0.450853	-138.122	-21.5615	-12.2272	8.58357	1.67143	188.984	0
0.5380	86.0009	9.80614	2.31867	-141.504	-28.5823	-10.7024	11.9409	2.28542	118.831	0
0.5387	90.6098	10.7226	2.89834	-201.618	-12.7106	-12.5437	10.418	-0.136443	-87.1544	0
0.5393	91.5315	9.80614	2.89834	-189.079	0.715389	-10.7024	7.66637	-3.51341	-189.431	0
0.5400	92.4533	8.24815	3.22038	-89.2793	0.0998217	-8.86116	5.52048	-5.93528	-150.954	0
0.5407	44.7979	9.80614	4.44413	28.5074	-5.70648	-10.386	5.22629	-4.4344	-15.1223	0
0.5413	-100.104	11.914	2.31867	119.759	-17.6019	-17.7223	2.4747	-0.44344	28.1865	0
0.5420	-200.577	11.6391	-1.35256	211.293	-32.5585	-30.2373	-5.45126	0.44344	-138.427	0
0.5427	-139.187	10.4477	-3.80005	262.249	-45.9846	-37.2571	-15.5231	0.170554	-276.407	0
0.5433	-47.9319	9.5312	-8.11536	161.886	-53.6043	-35.0994	-22.5492	1.67143	-199.453	0
0.5440	-25.0721	9.5312	-9.91877	-4.13286	-52.3898	-24.7422	-23.4664	2.28542	23.8914	0
0.5447	-25.9938	10.0811	-6.56958	-73.1235	-44.7534	-9.46533	-16.4403	-0.136443	289.739	0
0.5453	-17.6979	8.61474	-3.22038	-52.3653	-37.1337	-7.04865	-8.80854	-5.93528	523.195	0
0.5460	-3.68707	5.49877	-0.128815	33.3917	-37.1337	-21.6926	-9.43154	-11.7341	634.867	0
0.5467	-3.04183	1.28305	1.99664	99.8932	-41.7089	-41.8316	-16.1461	-16.9189	688.287	0
0.5473	-6.17584	-2.10786	2.31867	90.7351	-44.454	-65.3366	-17.669	-20.6029	698.041	0
0.5480	11.2456	0	4.70176	137.136	-46.6001	-82.426	-10.9544	-18.1469	485.971	0
0.5487	28.0217	3.11597	6.24754	208.24	-47.1991	-88.2088	-4.84556	-12.9621	252.157	0
0.5493	28.667	2.74938	3.22038	200.021	-38.6643	-87.2882	-1.48828	-12.6551	167.687	0
0.5500	18.8962	3.11597	1.09493	60.5371	-23.7077	-80.9012	5.22629	-13.2691	98.6975	0
0.5507	5.1619	3.11597	1.6746	-186.636	-16.9863	-75.6938	12.5465	-11.7341	20.5806	0
0.5513	6.3602	1.83292	4.12209	-212.279	-19.1325	-73.8813	13.7752	-9.00525	-148.538	0
0.5520	21.0163	1.83292	6.89162	-5.68269	-21.5615	-68.0698	12.235	-6.54927	-365.53	0
0.5527	49.6833	2.19951	5.9255	104.167	-18.8164	-58.3168	15.9038	-5.62828	-575.452	0
0.5533	83.3278	1.55798	2.89834	128.917	-12.1117	-41.5151	19.8668	-5.62828	-867.518	0
0.5540	112.548	-2.3828	1.35256	81.9058	-6.62151	-15.2769	16.5095	-7.16326	-1134.53	0
0.5547	137.62	-4.85724	1.6746	-99.0478	-4.17588	12.4862	11.0237	-6.54927	-1163.52	0
0.5553	145.547	-0.916461	5.34583	-234.869	-2.94474	42.0905	10.7122	-1.67143	-756.114	0
0.5560	130.246	1.83292	8.11536	-262.343	-6.30541	73.2196	11.6294	1.97843	139.232	0
0.5567	60.3758	1.28305	4.70176	-250.414	-13.0267	99.7743	9.50076	2.89942	953.777	0
0.5573	-3.04183	0.641523	1.35256	-168.649	-15.7718	115.022	5.52048	-0.44344	967.557	0
0.5580	16.7762	1.55798	0.128815	-79.8394	-8.13547	107.111	-2.71698	-7.16326	561.672	0
0.5587	-5.53061	5.22383	0.128815	-55.4179	8.33512	86.6552	-10.0372	-8.39125	315.957	0
0.5593	-180.39	8.24815	0.128815	-67.3469	22.6762	65.912	-10.3487	-4.4344	135.295	0
0.5600	-343.082	6.41523	-1.35256	-62.4626	28.183	45.7443	-10.0372	-1.36443	1.96858	-0.321991
0.5607	-295.703	3.66584	-2.31867	-37.4306	30.3125	37.5161	-9.72574	0.170554	-149.433	0
0.5613	-130.338	3.66584	-2.5763	-75.2369	29.3975	32.6252	-5.45126	3.20641	-319.089	0
0.5620	-52.172	4.94889	-4.12209	-117.364	23.9073	10.3572	-3.32267	9.61924	-449.373	0
0.5627	-112.64	7.97321	-5.34583	-77.0685	16.8865	-11.9108	-4.53406	16.0321	-544.044	0
0.5633	-185.275	7.69827	-7.14925	-80.45	10.7807	-18.643	-6.36845	16.3391	-289.471	0
0.5640	-121.765	1.83292	-6.89162	-138.122	4.67499	-19.8513	-9.12004	13.2691	69.9741	0
0.5647	48.2084	-3.02432	-1.35256	-152.165	1.63042	-22.9009	-12.4773	9.61924	25.4126	0
0.5653	191.359	-4.85724	2.89834	-161.933	8.95068	-28.1083	-11.2486	-0.750437	-60.3102	0
0.5660	239.199	-2.74938	5.66787	-194.902	21.1622	-25.3464	-3.01117	-8.39125	57.4468	0
0.5667	209.057	0	6.24754	-237.311	25.4213	-11.0189	5.22629	-8.39125	203.39	0
0.5673	116.88	-1.1914	2.89834	-250.132	28.7819	0.89187	5.22629	-12.0411	251.889	0
0.5680	-50.6972	-2.10786	1.6746	-160.712	39.4629	6.38694	3.99759	-18.4539	143.259	0
0.5687	-253.947	-1.1914	3.54242	-27.3333	26.3363	2.12898	5.22629	-19.3749	103.887	0
0.5693	-341.515	-2.10786	5.9255	54.7604	-7.22044	-5.81154	2.7862	-13.8831	138.338	0
0.5700	-238.093	-3.94078	10.4984	88.6217	-21.8776	-3.99903	-0.882585	-10.2332	81.2487	0
0.5707	-77.2441	-9.07297	13.59	83.4557	-42.3244	-24.138	-5.45126	-13.5761	8.67965	0
0.5713	31.7088	-15.2133	16.0375	68.474	-67.6459	-72.6442	-10.0372	-15.1111	-148.538	0
0.5720	113.193	-15.4882	19.0647	71.5267	-58.1961	-94.941	-8.20285	-11.1201	-212.875	0
0.5727	197.443	-11.5474	16.9392	71.5267	-31.6435	-75.6938	-4.53406	-5.93528	59.5943	0
0.5733	283.167	-6.69017	11.1425	66.6424	-8.45158	-54.3465	-2.71698	-0.750437	325.442	0
0.5740	354.604	-4.58231	5.9255	56.5921	15.6554	-45.8018	0.346112	1.36443	362.308	0
0.5747	355.802	-3.94078	3.22038	19.0206	30.612	-30.2373	2.4747	0.750437	248.22	0
0.5753	216.339	-3.29926	2.5763	-58.7994	30.0131	-9.17763	1.26331	0.170554	133.506	-0.321991
0.5760	-28.1139	-3.94078	1.99664	-162.544	22.6762	12.4862	1.26331	0.750437	185.315	0
0.5767	-138.542	-4.85724	3.22038	-219.605	0.715389	32.9416	6.43768	4.7414	209.743	0
0.5773	-83.3278	-5.77371	6.24754	-121.356	-32.858	36.9119	8.58357	12.3481	-59.6838	0
0.5780	-97.9839	-7.24004	7.47128	72.1373	-53.9204	35.0706	4.62059	19.3749	-337.701	-0.321991
0.5787	-77.8894	-8.79803	9.01707	181.705	-49.3452	47.5856	5.52048	23.6388	-312.736	0
0.5793	84.5261	-9.43955	12.6883	207.348	-22.7926	58.5757	7.66637	24.5598	-253.768	0
0.5800	263.626	-7.24004	10.2408	217.116	17.8015	51.8723	3.39189	24.5598	-385.305	-0.321991
0.5807	376.266	-1.46634	0.772892	205.798	44.038	45.4566	0.951807	26.7087	-475.949	0
0.5813	221.501	5.49877	-9.2747	153.62	19.9311	54.289	1.869	31.8936	-105.14	0
0.5820	-134.947	12.2806	-18.485	113.654	-17.3024	69.8535	1.5575	38.6134	626.903	0
0.5827	-298.468	17.4128	-26.4071	159.115	-42.3244	72.6155	2.4747	47.7551	1019.1	0
0.5833	-224.911	17.4128	-31.5597	238.767	-68.2614	51.8723	-1.17678	54.7819	942.145	0
0.5840	-122.411	12.5555	-30.0784	272.957	-72.221	25.3176	-15.5231	50.5181	802.733	0
0.5847	-72.0822	7.69827	-21.1901	201.524	-41.7089	12.1985	-23.4664	39.8414	600.686	0
0.5853	-46.7336	2.19951	-11.7222	-1.40893	-8.45158	3.94149	-20.1091	30.6656	329.379	0
0.5860	-10.1394	-6.69017	1.09493	-160.383	9.56625	-3.68256	-25.3008	20.6029	105.051	0
0.5867	77.5207	-19.154	18.7426	-157.941	22.0772	-7.65282	-39.3356	4.7414	-256.81	0
0.5873	201.683	-34.4589	35.875	-183.584	18.7166	-32.0498	-41.7757	-21.8309	-674.328	0
0.5880	259.662	-43.6236	50.8176	-220.826	-2.02971	-79.6641	-30.7866	-49.9041	-949.572	0
0.5887	297.547	-40.8742	54.1668	-91.4396	-16.9863	-112.318	-24.6778	-63.6166	-1182.13	0
0.5893	411.661	-30.1516	37.6785	16.5784	-20.6465	-106.535	-25.3008	-57.5108	-1183.03	0
0.5900	315.798	-14.2968	12.9459	-5.35394	-22.7926	-72.9607	-19.1919	-37.3854	-892.841	0
0.5907	-116.327	6.41523	-15.1358	-26.1122	-28.5823	-46.0895	-6.07426	-14.4971	-551.65	0
0.5913	-591.775	31.8012	-43.4751	-38.0411	-24.0071	-41.2274	4.30909	12.0411	-123.484	0
0.5920	-1089.53	45.8231	-59.6415	-58.7994	-5.09091	-46.0895	6.74918	39.8414	352.286	0
0.5927	-1290.01	36.6584	-55.9702	-90.5003	7.73619	-32.0498	15.2981	49.9041	889.977	0
0.5933	-771.243	15.3049	-37.6785	-119.524	13.2264	-0.92064	31.7731	40.4213	1276.09	0
0.5940	-29.0357	-3.66584	-18.163	-151.554	15.9715	29.5756	42.4506	31.2796	1038.61	0
0.5947	370.182	-12.1889	-5.66787	-200.397	25.4213	55.8426	61.0714	25.4808	579.926	-0.321991
0.5953	414.98	-12.7388	0.772892	-141.504	62.3553	47.2979	90.3698	10.8472	418.502	0
0.5960	232.193	-14.2968	5.02379	32.1706	102.034	17.9812	94.3327	-7.77726	308.978	0
0.5967	19.1728	-13.3803	9.01707	71.8555	102.334	17.9812	61.3829	-28.5166	101.382	0
0.5973	-52.5408	-4.85724	9.59674	-37.1018	89.8229	46.3772	26.5814	-45.9131	-55.7466	0
0.5980	-31.4323	-7.24004	10.4984	-18.1752	110.885	79.9518	4.62059	-47.7551	-324.905	0
0.5987	-11.8908	-16.1297	14.8138	35.8338	129.802	87.5759	-15.8346	-40.1143	-656.611	0
0.5993	41.7561	-12.7388	13.59	-22.1672	103.865	57.3674	-34.7496	-32.2006	-745.108	0
0.6000	190.99	-10.356	9.33911	33.3917	63.5698	10.0407	-50.0131	-30.0516	-649.274	0
0.6007	291.371	-16.1297	11.4646	203.684	30.0131	-41.8316	-53.6819	-32.2006	-309.067	0
0.6013	201.406	-20.4371	16.6172	289.113	-2.94474	-78.1393	-48.1787	-25.4808	196.679	0
0.6020	143.427	-19.5206	19.0647	264.691	-16.9863	-99.1989	-40.8585	-8.08426	405.349	0
0.6027	313.401	-19.5206	21.1901	189.642	-2.94474	-145.576	-30.7866	0.170554	373.046	0
0.6033	402.812	-24.6528	23.3156	107.83	11.3963	-208.151	-30.7866	-16.3391	483.197	0
0.6040	38.1612	-22.5449	20.2884	61.7581	14.4409	-217.616	-44.8215	-27.9367	657.416	0
0.6047	-300.312	-9.43955	8.11536	71.2449	4.37552	-178.547	-58.2506	-18.1469	615.003	0
0.6053	-47.3789	0.641523	0.772892	-21.2279	-32.858	-175.813	-54.8933	-5.62828	442.036	0
0.6060	181.865	2.74938	7.47128	-215.942	-76.8128	-193.795	-27.7408	8.08426	422.171	0
0.6067	-160.848	8.24815	5.66787	-189.689	-112.2	-174.576	5.52048	32.2006	477.381	0
0.6073	-445.306	17.7793	-7.47128	47.434	-157.985	-141.002	25.37	63.0367	413.312	0
0.6080	-226.202	14.6634	-9.2747	255.862	-179.646	-91.2584	35.1303	77.9773	266.832	0
0.6087	266.114	4.30737	-5.02379	388.63	-119.836	-20.4555	40.322	78.2842	59.5943	0
0.6093	661	3.11597	-5.02379	459.734	-27.3678	31.4168	42.1564	82.5481	-183.883	0
0.6100	338.104	2.19951	-8.37299	463.679	33.6732	94.8834	35.4418	78.2842	-334.39	0
0.6107	-13.1813	-6.04864	-11.7222	382.196	88.6084	204.44	13.1522	52.6329	-290.455	0
0.6113	554.167	-19.7956	-4.12209	225.053	124.91	290.203	-13.706	0.44344	-147.554	0
0.6120	1036.62	-33.5425	7.14925	-55.1362	111.484	307.896	-31.3923	-56.6239	0.98429	0
0.6127	748.567	-31.9845	7.14925	-381.961	83.1016	284.708	-38.7299	-76.1353	86.4386	0
0.6133	163.245	-17.3211	-7.79332	-381.022	42.5241	230.994	-44.5273	-63.9236	27.2917	0
0.6140	-422.077	-2.3828	-27.3088	-37.7124	-1.11468	176.36	-49.0959	-43.1843	9.57446	0
0.6147	-770.598	8.61474	-32.5258	152.728	1.31432	156.538	-45.133	-12.9621	51.9884	0
0.6153	-746.816	4.94889	-22.0918	159.444	19.9311	130.587	-43.9043	6.24227	-59.0574	0
0.6160	-402.905	-7.88157	-4.70176	238.767	11.6958	92.7544	-43.2986	-7.77726	-163.75	0
0.6167	175.781	-17.6877	8.37299	91.6744	-7.83601	93.0709	-31.7038	-33.7356	-7.78484	0
0.6173	535.27	-23.4614	11.7222	-384.075	-16.3874	115.339	-20.1091	-40.1143	286.339	0
0.6180	503.193	-28.9602	21.5121	-675.535	-31.3274	122.359	-14.9174	-40.4213	482.929	0
0.6187	437.932	-41.1491	38.3225	-650.832	-59.71	116.26	-15.8346	-57.8178	450.268	0
0.6193	50.052	-50.9552	51.7193	-564.136	-63.0707	106.794	-2.71698	-73.9863	267.727	0
0.6200	-847.473	-47.2894	57.838	-388.677	-49.6447	88.7842	37.2589	-70.6434	167.061	0
0.6207	-1100.77	-38.6747	50.8176	-167.099	-15.7718	58.8922	67.786	-58.4318	125.542	0
0.6213	-345.202	-22.8199	32.2038	-92.9425	76.6964	21.0309	57.7141	-33.4286	41.6086	0
0.6220	230.995	-1.83292	6.56958	-97.8268	153.293	-19.2471	30.2502	5.35539	-69.7951	-0.321991
0.6227	301.141	20.1621	-21.5121	-30.3859	150.548	-30.2373	15.5923	38.3064	-154.355	-0.321991
0.6233	316.443	38.7663	-39.2242	98.0616	102.633	-14.0685	3.99759	63.9236	-70.6899	0
0.6240	64.3394	32.9926	-35.553	188.421	38.2484	-26.8712	-12.7888	70.0294	51.9884	0
0.6247	-387.327	14.3884	-15.7155	209.79	-14.5573	-60.7622	-32.621	55.3959	15.6592	0
0.6253	-426.963	0.916461	4.44413	239.377	-42.3244	-88.813	-48.1787	38.9204	-20.3122	0.321991
0.6260	42.4013	-14.2968	19.3867	326.355	-68.5609	-182.517	-42.3814	29.1306	-28.9023	0
0.6267	779.723	-17.3211	21.8342	354.111	-95.1135	-324.123	-26.5122	43.4912	-128.942	0
0.6273	1224.94	-9.71449	7.47128	166.723	-99.3892	-402.837	-14.0002	52.0189	-218.423	0
0.6280	574.63	-3.66584	-11.7222	-44.4283	-68.2614	-448.006	0.951807	27.0157	-193.995	0
0.6287	-662.29	1.83292	-23.3156	3.47536	-3.26084	-506.927	7.97787	9.00525	-107.288	0
0.6293	-1474.92	10.4477	-34.6513	48.3263	59.9097	-566.107	2.4747	8.08426	-41.6981	0
0.6300	-1840.59	23.828	-44.1192	-237.593	69.6756	-560.929	-1.79978	17.2601	-48.1407	0
0.6307	-1299.51	27.4938	-42.2514	-491.529	44.6536	-464.204	-4.23987	33.4286	11.722	0
0.6313	-16.2231	17.4128	-33.7496	-324.899	30.3125	-345.787	0.346112	33.7356	238.467	0
0.6320	782.396	4.03243	-19.7087	-16.3436	15.3559	-212.725	35.736	13.8831	316.852	0
0.6327	782.765	-13.6553	-0.450853	140.799	-24.9222	-77.8516	109.285	-13.5761	155.428	0
0.6333	589.286	-28.3187	18.485	75.5187	-75.2822	28.0507	184.356	-40.7283	80.3539	0
0.6340	642.933	-38.1248	30.9801	-144.556	-95.7291	129.983	213.049	-72.7924	124.289	0
0.6347	687.27	-41.1491	29.4343	-171.702	-50.5597	237.093	188.337	-87.4259	166.166	0
0.6353	725.339	-28.6852	16.3595	20.2416	69.0767	360.689	134.309	-69.1085	178.962	0
0.6360	779.354	-12.7388	0.450853	96.5587	199.377	461.097	67.1803	-45.9131	124.021	0
0.6367	107.109	0.916461	-9.59674	46.2129	243.632	497.404	14.0694	-27.0157	53.2412	0
0.6373	-809.957	11.6391	-14.8138	87.4007	197.547	502.008	-2.40548	-14.8041	24.7862	0
0.6380	-846.92	8.61474	-14.4917	212.232	122.165	454.393	-3.01117	-5.35539	16.9119	0
0.6387	-777.327	0.366584	-2.31867	145.683	35.1872	334.768	4.30909	17.5329	5.01093	0
0.6393	-987.305	-11.2725	15.3934	-139.343	-58.4955	217.271	17.1325	35.2364	-6.26367	0
0.6400	-724.233	-31.068	38.9022	-240.974	-140.898	130.299	20.784	21.2169	5.90574	0
0.6407	-206.015	-53.0631	61.1872	-83.1739	-175.686	53.6848	26.5814	-24.5598	21.207	0
0.6413	257.542	-56.7289	53.8448	27.2863	-182.092	17.9812	38.7991	-63.6166	-17.2698	0
0.6420	713.817	-36.2919	26.9868	-63.3549	-193.987	34.15	39.7163	-58.4318	-60.5786	0
0.6427	828.208	-9.07297	0.128815	-290.709	-155.838	90.6255	22.3069	-23.6388	-51.4515	0
0.6433	493.422	20.1621	-26.9868	-387.738	-76.1973	175.152	-4.84556	17.5329	-45.3668	0
0.6440	146.745	38.7663	-39.8039	-258.351	-42.0083	240.776	-31.0981	52.6329	-57.2678	0
0.6447	-83.6043	33.2675	-36.7768	-104.543	-64.2852	274.034	-47.8845	82.2411	-64.2473	0
0.6453	-255.145	29.9683	-32.2038	-37.7124	-56.366	267.618	-53.0589	120.684	-37.761	0
0.6460	-12.536	27.7688	-26.0851	-43.2072	15.9715	171.786	-51.8475	143.879	29.0813	0
0.6467	440.605	17.4128	-18.485	-51.7547	69.6756	58.5757	-49.4074	138.08	60.4891	0
0.6473	153.751	16.4963	-19.0647	2.86483	74.2507	23.7928	-50.0131	124.675	46.7985	0
0.6480	-637.863	20.1621	-29.1122	73.6871	74.2507	27.763	-51.8475	106.971	36.1503	0
0.6487	-621.64	22.3617	-38.0005	152.118	102.633	30.1797	-45.7387	86.505	19.9542	0
0.6493	-65.9064	21.4452	-37.6785	272.346	149.949	41.1699	-41.4642	65.1516	-0.536886	0
0.6500	-144.718	7.33169	-22.7359	361.766	160.63	52.4765	-39.6298	30.6656	-9.66394	0
0.6507	-328.426	-16.1297	5.02379	338.848	151.163	-11.3066	-24.0721	-23.6388	-15.4802	0
0.6513	57.6105	-39.9577	26.4071	135.304	137.737	-140.398	-12.1658	-77.9773	-23.0861	0
0.6520	439.683	-46.9228	29.7563	-109.145	78.5264	-189.537	-15.5231	-91.6898	-35.2555	0
0.6527	562.094	-35.6503	26.7292	-102.101	18.7166	-113.843	-3.92837	-70.9504	-46.2616	0
0.6533	668.281	-19.7956	19.0647	55.371	0.715389	-5.52384	18.6554	-39.8073	-52.9727	0
0.6540	302.063	-5.13218	6.24754	81.6241	-14.5573	22.5557	17.1325	-8.69825	-99.0554	0
0.6547	-966.565	-0.916461	-0.772892	-63.0731	-33.1575	-29.9208	12.5465	4.12741	-131.716	0
0.6553	-1709.97	-3.02432	-4.12209	-269.059	-31.6435	-74.4855	52.8339	10.2332	-50.5567	0
0.6560	-1092.29	3.39091	-9.59674	-390.79	-28.2828	-45.1977	102.882	26.4017	15.6592	0
0.6567	-214.587	6.14029	-6.24754	-373.414	-51.1753	54.289	92.8098	38.3064	-32.2131	0
0.6573	596.015	-1.46634	0.772892	-230.595	-92.3684	147.993	53.4396	53.2469	-67.6476	0
0.6580	1232.59	-1.46634	-2.31867	-5.07215	-116.775	148.309	15.9038	85.0041	-48.4092	0
0.6587	1231.67	4.30737	-10.8205	197.861	-109.455	84.5262	-31.7038	106.664	-40.1769	0
0.6593	708.563	5.22383	-13.912	300.431	-113.115	87.2594	-46.6558	100.559	-66.3949	0
0.6600	-43.0465	3.39091	-10.2408	316.916	-136.623	104.349	-34.1439	88.6539	-83.4857	0
0.6607	-585.968	-1.1914	-3.47801	271.736	-184.537	41.4863	-30.7866	83.7761	-20.9385	0
0.6613	-508.17	-9.71449	5.66787	194.808	-242.816	-15.2769	-15.8346	69.1085	83.3962	0
0.6620	37.5159	-14.2968	12.3663	97.451	-252.283	-101.961	11.9409	53.2469	135.564	0
0.6627	310.359	-10.9059	6.89162	-80.1212	-222.686	-266.122	24.4528	52.9399	127.689	0
0.6633	-222.791	-0.549877	-6.24754	-215.942	-158.284	-359.826	24.747	52.6329	104.782	0
0.6640	-749.581	9.16461	-14.4917	-140.893	-73.7516	-337.53	52.2282	48.3691	81.8751	0
0.6647	-521.536	6.14029	-6.24754	4.69644	-31.6435	-263.389	126.677	42.8773	46.7985	0
0.6653	-88.8584	-9.43955	15.3934	38.276	-25.2383	-162.982	199.62	30.6656	7.69536	0
0.6660	45.7197	-19.5206	31.5597	48.6551	-25.8372	-40.9109	230.753	16.3391	-33.1974	0
0.6667	312.479	-17.0462	30.336	115.157	-35.3036	115.943	223.432	10.5402	-104.245	0
0.6673	979.562	-15.4882	23.6376	41.6104	-21.262	223.054	152.618	10.5402	-162.587	0
0.6680	1117.55	-15.8548	19.7087	-88.3869	15.6554	231.598	26.2872	6.24227	-123.215	0
0.6687	167.854	-5.49877	4.70176	34.8945	25.1218	307.609	-79.9172	6.85627	-48.4092	0
0.6693	-1013.85	8.24815	-17.5189	243.041	13.5258	413.482	-126.002	22.1379	-50.8252	0
0.6700	-1164.01	7.33169	-18.485	259.196	21.7611	383.907	-116.242	37.0784	-75.2535	0
0.6707	-306.764	-0.549877	-9.2747	195.137	43.4391	281.054	-72.9084	42.8773	-28.0075	0
0.6713	161.678	-0.274938	-10.4984	193.916	46.4837	148.597	-26.218	53.2469	38.2978	0
0.6720	82.0373	-5.49877	-7.14925	162.168	58.3957	61.6253	11.6294	60.2738	31.2288	0
0.6727	731.146	-13.6553	-2.89834	104.777	100.803	108.003	16.5095	51.7461	-9.03757	0
0.6733	1425.14	-3.02432	-10.2408	123.094	120.651	158.379	-21.3205	44.7192	-17.0014	0
0.6740	569.468	10.0811	-25.1834	-6.29322	123.08	115.022	-71.074	39.5344	-17.6277	0
0.6747	-714.186	13.197	-29.4343	-332.226	145.357	99.4579	-92.7406	34.0426	-15.1223	0
0.6753	-866.738	13.197	-20.2884	-425.591	137.737	193.766	-83.8802	23.6388	-7.78484	0
0.6760	-578.04	5.22383	-14.1697	-266.617	86.4623	238.935	-73.2026	2.89942	-4.74249	0
0.6767	-476.738	-1.1914	-7.79332	-207.395	30.0131	152.884	-60.3965	-8.39125	12.8853	0
0.6773	-155.963	-5.13218	-0.772892	-276.057	-5.39037	47.5856	-36.8955	-16.9189	22.9966	0
0.6780	222.146	-14.5717	2.5763	-271.501	11.0802	-21.9803	-10.6429	-37.0784	-2.05806	0
0.6787	292.661	-19.7956	9.91877	-157.941	48.9293	-68.3863	5.22629	-51.7119	-41.0718	0
0.6793	289.619	-23.4614	13.268	-139.672	60.5253	-96.1493	12.858	-56.8968	-71.3163	0
0.6800	355.526	-25.5693	10.8205	-254.406	48.0143	-99.8031	46.1194	-57.8178	-78.2958	0
0.6807	291.371	-24.6528	12.3663	-294.983	30.612	-88.5253	71.1432	-59.0458	-68.9003	0
0.6813	-83.0513	-27.7688	13.912	-215.332	17.5021	-30.525	33.2959	-57.5108	-73.1059	0
0.6820	-537.114	-25.0194	12.3663	-123.798	-0.199643	92.438	-9.12004	-36.1574	-97.2658	0
0.6827	-527.988	-17.3211	10.4984	-58.7994	-25.5377	172.419	-18.2747	-6.24227	-113.462	0
0.6833	-185.921	-15.8548	9.59674	-9.01716	-52.3898	174.548	-43.6101	9.31224	-106.393	0
0.6840	-37.2394	-15.8548	6.89162	25.7365	-50.5597	140.052	-89.3833	13.8831	-94.2234	0
0.6847	-0.921768	-14.0219	4.70176	37.3367	-12.7106	80.2395	-113.179	14.8041	-87.1544	0
0.6853	-20.1867	-15.8548	6.56958	23.6231	11.3963	48.8227	-111.361	12.9621	-62.7261	0
0.6860	-254.869	-17.3211	7.79332	3.19358	10.4813	32.3375	-94.2635	15.1111	-20.3122	0
0.6867	-446.504	-15.4882	6.89162	-3.24054	23.5912	11.882	-56.4162	17.5329	-13.3327	0
0.6873	-306.119	-16.1297	9.33911	-11.7881	66.0154	23.7928	-10.3487	16.3391	-40.1769	0
0.6880	53.3703	-19.7956	15.3934	-38.9335	136.506	49.4268	22.0127	15.1111	-47.1565	0
0.6887	278.005	-20.4371	19.0647	-77.0685	202.738	55.2096	51.9167	15.4181	-37.761	0
0.6893	221.224	-18.2376	16.3595	-104.871	177.4	32.021	77.8578	16.6461	-39.9085	0
0.6900	106.188	-19.7956	17.8409	-92.3319	68.1616	-7.33635	63.2	12.3481	-18.5226	0
0.6907	41.4795	-27.7688	31.3021	-19.1145	-10.8806	-50.9804	27.8101	0.170554	58.6995	0
0.6913	-79.6407	-39.3162	47.4684	67.8635	-49.3452	-87.0005	31.4615	-15.7251	106.572	0
0.6920	-246.942	-45.0899	49.9159	59.6447	-76.4967	-101.04	45.2022	-21.8309	62.3682	0
0.6927	-208.135	-42.0656	40.77	4.69644	-67.6459	-109.585	3.70339	-12.3481	5.90574	0
0.6933	193.756	-34.4589	35.553	23.9049	-25.5377	-111.397	-48.1787	3.82041	-2.3265	0
0.6940	538.865	-20.0705	20.2884	31.8418	39.4629	-60.7622	-53.9761	28.5507	6.80055	-0.321991
0.6947	519.693	-1.46634	-0.450853	-6.29322	92.2686	-8.57346	-50.6188	57.8178	10.8272	0
0.6953	488.26	14.6634	-15.3934	18.1282	73.0362	-49.4556	-74.1198	76.4423	6.17418	0
0.6960	364.651	36.6584	-46.8243	70.9162	40.0784	-97.6741	-97.9323	88.6539	-6.26367	0
0.6967	-406.5	58.9285	-74.3264	89.5141	55.3345	-76.6145	-85.7146	106.357	-8.76913	0
0.6973	-1080.96	55.5375	-65.1805	97.451	60.5253	-47.3266	-53.0589	113.384	-5.10041	0
0.6980	-649.477	33.9091	-39.5463	105.106	41.2929	-58.3168	-27.1178	104.515	-9.3955	-0.321991
0.6987	53.3703	22.9115	-21.8342	113.043	23.5912	-135.507	21.3897	99.9446	-10.2903	0
0.6993	286.485	10.4477	-7.14925	113.325	-0.815211	-235.31	113.871	78.5912	-10.5588	0
0.7000	364.006	-13.1054	8.69503	121.262	-14.5573	-225.24	189.548	20.9099	-18.1646	0
0.7007	210.808	-28.0437	17.8409	167.945	-20.347	-82.7137	195.657	-41.9563	-28.5444	0
0.7013	-127.02	-31.7096	17.2612	155.781	-27.6673	28.6549	153.241	-88.3469	-40.8033	0
0.7020	-252.103	-30.1516	16.0375	-33.4386	-13.0267	0.2877	89.7641	-109.7	-47.7828	0
0.7027	-160.848	-25.2943	17.8409	-191.239	-5.70648	-112.318	16.2153	-106.664	-54.2254	0
0.7033	-63.7863	-23.4614	16.0375	-60.9128	-5.39037	-228.606	-44.2158	-98.1026	-66.1264	0
0.7040	-24.7955	-27.1273	12.3663	141.738	36.4183	-353.094	-85.1089	-95.0668	-68.5424	0
0.7047	-8.84897	-28.0437	12.3663	78.2426	76.6964	-467.541	-118.076	-88.9609	-56.373	0
0.7053	-35.3959	-23.1865	13.59	-123.798	71.5056	-473.957	-127.231	-77.0563	-44.7405	0
0.7060	-96.7856	-18.6042	12.9459	-164.047	37.0339	-392.768	-99.4552	-65.1516	-38.6558	0
0.7067	-104.989	-16.4047	12.0442	-82.5633	-28.5823	-328.381	-58.2506	-55.7029	-37.761	0
0.7073	-62.3115	-15.2133	10.8205	-26.4409	-84.732	-216.696	-22.5492	-48.0621	-42.5929	0
0.7080	-33.6445	-14.9383	8.37299	-5.35394	-87.1777	30.4962	-2.71698	-43.7982	-46.888	0
0.7087	-25.9938	-11.8223	5.9255	4.41465	-66.1319	287.757	-3.32267	-39.2274	-46.6196	0
0.7093	-18.9884	-6.69017	3.22038	1.64375	-46.8996	410.433	-4.84556	-29.1306	-45.3668	0
0.7100	-10.6925	-5.49877	1.35256	-17.8934	-37.1337	356.431	13.1522	-20.6029	-46.2616	0
0.7107	-1.567	-8.52309	3.80005	-27.3333	-36.5181	183.092	53.1281	-18.4539	-48.1407	0
0.7113	10.6925	-9.71449	8.11536	-11.4593	-29.8134	30.8127	83.0495	-18.1469	-47.5144	0
0.7120	21.2928	-9.43955	9.01707	3.80411	-25.2383	-50.9804	72.6661	-16.0321	-45.3668	0
0.7127	27.4687	-8.52309	7.47128	7.13858	-22.7926	-45.4854	39.4048	-14.1901	-45.0984	0
0.7133	28.9435	-7.60663	5.9255	8.07787	30.612	37.8325	-5.76276	-13.8831	-42.3245	0
0.7140	27.4687	-7.60663	5.34583	7.13858	131.016	73.5361	-46.3443	-13.8831	-36.5082	0
0.7147	30.1418	-6.41523	7.14925	6.8568	201.523	31.7333	-51.2418	-12.9621	-33.1974	0
0.7153	37.5159	-4.58231	9.01707	7.74912	193.887	-11.6231	-29.8694	-12.0411	-33.7343	0
0.7160	42.6778	-4.58231	8.37299	0.422679	127.356	-47.3266	-3.63417	-12.0411	-31.0499	0
0.7167	42.4013	-7.24004	6.89162	-3.24054	52.29	-63.1789	-9.72574	-13.2691	-34.7186	0
0.7173	41.4795	-7.24004	6.89162	14.465	10.7807	-21.9803	-52.1417	-12.9621	-47.5144	0
0.7180	39.636	-3.66584	8.37299	40.3894	15.9715	22.268	-72.9084	-9.61924	-56.6414	0
0.7187	31.7088	-3.94078	6.24754	53.5394	27.5674	36.5954	-48.4902	-9.61924	-63.0841	0
0.7193	29.8653	-3.02432	5.66787	54.4317	35.5033	68.6452	-14.9174	-8.39125	-58.5205	0
0.7200	33.8289	-0.549877	6.24754	56.2633	40.9935	100.378	6.14348	-6.85627	-47.5144	0
0.7207	32.9071	-4.21572	3.54242	61.7581	-1.43078	151.647	28.1043	-12.3481	-47.1565	0
0.7213	33.5523	-4.85724	4.12209	70.3056	-43.2395	222.45	62.9058	-14.1901	-45.6353	0
0.7220	35.3959	-3.66584	5.66787	70.9162	-57.281	178.201	87.0125	-12.6551	-40.8033	0
0.7227	33.2758	-5.13218	3.80005	65.4214	-110.07	37.1996	68.9974	-14.4971	-42.9509	0
0.7233	33.5523	-3.29926	5.02379	108.769	-142.728	-46.7225	30.2502	-13.5761	-47.7828	0
0.7240	31.4323	-2.74938	4.70176	188.092	-105.794	-29.9208	14.9866	-13.2691	-57.5362	0
0.7247	28.9435	-3.94078	3.54242	230.219	-70.391	28.3672	26.5814	-15.1111	-65.5	0
0.7253	32.9071	-1.83292	6.24754	227.167	-67.3464	60.7047	28.7273	-14.1901	-60.5786	0
0.7260	32.6306	-2.74938	4.70176	207.348	-81.388	63.1501	1.26331	-16.0321	-51.8095	0
0.7267	29.22	-4.21572	1.99664	211.011	-92.3684	71.6948	-19.5034	-18.1469	-44.1141	0
0.7273	30.5105	-2.74938	2.89834	229.609	-95.413	95.4876	-11.2486	-16.6461	-34.987	0
0.7280	31.0636	-3.02432	2.89834	232.051	-95.1135	110.764	5.22629	-17.5329	-28.5444	0
0.7287	31.9853	-3.02432	2.5763	188.421	-73.4522	87.8635	17.4267	-18.4539	-24.6073	-0.321991
0.7293	33.5523	-2.10786	2.5763	82.2346	-35.6031	59.784	25.37	-18.1469	-16.375	0
0.7300	34.1054	-3.02432	1.6746	-20.6174	-12.1117	52.7642	18.6554	-19.9889	-5.72678	0
0.7307	35.3959	-4.21572	1.35256	-175.975	-0.515746	-2.15775	3.70339	-21.5239	5.90574	0
0.7313	35.3959	-4.58231	1.09493	-367.308	17.8015	-70.1988	-9.12004	-21.8309	15.6592	0
0.7320	35.3959	-3.66584	1.99664	-352.045	36.1022	-62.287	-24.6778	-20.2959	12.6168	0
0.7327	35.6724	-2.10786	3.54242	-125.301	43.123	-19.8513	-40.547	-17.8399	-6.89003	0
0.7333	31.0636	-3.02432	2.5763	34.284	37.3333	-3.68256	-41.7757	-18.4539	-27.0232	0
0.7340	27.7452	-6.04864	1.99664	-66.7364	30.9281	7.30758	-25.9065	-20.6029	-24.3388	0
0.7347	27.1	-7.60663	1.99664	-194.902	30.612	53.0806	-13.706	-21.2169	-15.1223	-0.321991
0.7353	25.2564	-5.49877	0.128815	-133.848	30.3125	95.4876	-12.7888	-19.6819	-19.6858	0
0.7360	25.9017	-2.10786	-0.128815	-65.5153	25.4213	78.3982	-14.3117	-17.2259	-23.0861	0
0.7367	27.4687	-2.3828	0.450853	-56.3572	14.4409	28.0507	-11.5601	-17.2259	-21.5649	0
0.7373	24.7034	-3.66584	0.128815	-47.1992	7.12062	13.7233	1.26331	-18.7609	-20.3122	0
0.7380	23.1364	-3.02432	1.09493	-46.8704	10.7807	45.4566	8.87776	-18.1469	-14.2275	0
0.7387	24.0581	-2.3828	1.09493	-40.1545	17.186	50.3475	-5.45126	-17.8399	-10.9167	0
0.7393	24.0581	-2.3828	1.09493	-23.9988	20.2472	27.4466	-22.8607	-17.5329	-13.6011	0
0.7400	24.4268	-1.46634	2.5763	-9.01716	19.016	17.0606	-25.9065	-15.1111	-11.4536	0
0.7407	23.1364	-1.46634	1.35256	20.8522	11.3963	-41.8316	-21.9435	-15.1111	-9.3955	0
0.7413	20.7398	-2.10786	-0.450853	74.9082	2.22935	-134.615	-20.1091	-16.6461	-11.4536	0
0.7420	21.0163	-1.83292	0.450853	129.528	-2.02971	-168.794	-19.7976	-16.9189	-12.9747	0
0.7427	20.7398	-0.274938	0.772892	159.115	-0.815211	-158.408	-19.1919	-16.9189	-12.4378	0
0.7433	20.0945	-1.1914	-0.772892	166.442	0.0998217	-145.288	-17.3575	-16.3391	-9.93238	0
0.7440	19.5415	-2.3828	-1.99664	158.833	-0.815211	-130.012	-10.6429	-15.7251	-7.24796	0
0.7447	16.4075	-2.3828	-0.128815	140.799	-2.34581	-107.427	-1.79978	-16.3391	-5.36886	0
0.7453	11.8908	-2.10786	4.12209	119.149	-3.56031	-81.1889	0.346112	-16.0321	-2.59495	0
0.7460	6.63673	-4.21572	6.89162	47.7158	-6.00594	-60.7622	-0.571084	-16.3391	-0.536886	0
0.7467	10.0473	-6.96511	11.7222	-71.2919	-7.22044	-42.4357	1.869	-17.5329	5.01093	0
0.7473	21.9381	-4.85724	25.7631	-107.924	-3.26084	-13.7521	6.14348	-14.1901	14.7644	0
0.7480	23.1364	-3.94078	35.553	-68.8498	-1.11468	19.5061	6.43768	-12.3481	14.4064	0
0.7487	16.7762	-6.96511	34.3293	-81.9528	-0.515746	57.0509	0.640307	-12.9621	5.6373	0
0.7493	23.1364	-8.1565	34.9733	-122.577	-4.17588	89.7048	-4.84556	-10.5402	1.34221	0
0.7500	25.9017	-7.60663	22.4139	-120.135	-20.0475	79.9518	-7.89135	-10.8472	-5.10041	0
0.7507	10.969	5.22383	-7.47128	-78.9001	-30.7285	40.5657	-6.99146	-4.7414	-9.03757	0
0.7513	3.59489	24.1029	-24.8613	-34.9884	-25.2383	6.09924	-1.48828	6.24227	-3.57924	0
0.7520	8.84897	29.3268	-21.8342	-19.3963	-18.5169	-21.3761	-1.48828	-2.59242	-2.59495	0
0.7527	3.31836	28.6852	-14.4917	-11.4593	-9.66607	-36.653	-1.48828	-20.2959	-3.84768	0
0.7533	-0.645237	17.7793	-13.912	8.07787	9.25015	-38.4655	2.7862	-25.4808	0.0894809	0
0.7540	12.8126	-6.69017	-16.2951	17.7995	20.5466	-39.9903	-1.17678	-28.8236	-1.43169	0
0.7547	25.9017	-16.7712	-12.0442	20.2416	19.9311	-38.4655	-9.43154	-31.5866	-3.84768	0
0.7553	29.5887	-14.9383	-0.128815	23.6231	20.5466	-38.4655	-12.1658	-29.4376	0.0894809	0
0.7560	29.22	3.39091	8.69503	20.5704	20.8461	-48.8514	-14.6059	-32.2006	0.715847	0
0.7567	29.5887	31.1597	2.89834	15.9679	16.587	-54.03	-18.5862	-27.6297	0.447405	0
0.7573	28.3904	25.386	-13.59	18.41	11.0802	-46.406	-24.3836	-13.2691	2.23702	0
0.7580	17.3292	7.69827	-30.0784	22.6838	9.86572	-43.0399	-27.4293	-13.8831	1.96858	0
0.7587	8.20373	11.914	-35.553	29.1179	12.6108	-50.0598	-20.4033	-14.1901	3.48976	0
0.7593	7.00543	6.78181	-15.7155	49.2656	4.67499	-58.6045	-13.083	-12.9621	4.65301	0
0.7600	5.1619	-10.6309	18.7426	72.7478	-15.1563	-64.416	-14.3117	-35.8504	3.13183	0
0.7607	6.63673	-11.2725	20.9325	78.5714	-24.3066	-68.9904	-14.3117	-53.5539	4.38457	0
0.7613	12.4439	-4.21572	-8.11536	84.9585	-19.7314	-73.8813	-9.43154	-60.5808	2.23702	0
0.7620	19.818	0.366584	-12.9459	97.451	-13.3262	-77.5351	-4.84556	-63.0026	-7.5164	0
0.7627	27.7452	3.39091	2.89834	94.3984	-9.05051	-81.1889	-0.571084	-50.8251	-18.791	0
0.7633	33.5523	4.03243	9.33911	79.7924	-9.96554	-86.0798	6.43768	-55.0889	-25.2336	0
0.7640	33.2758	2.19951	7.79332	76.1292	-10.8806	-90.3378	16.821	-43.4912	-51.1831	0
0.7647	26.8234	-0.549877	6.89162	76.411	-9.36661	-86.3963	24.747	1.36443	-85.0069	0
0.7653	23.5051	4.03243	9.91877	16.9072	-6.92097	-48.2473	32.6902	5.96939	-75.6114	0
0.7660	22.5833	12.5555	15.1358	-80.45	-3.85977	20.1102	35.4418	-4.4344	-57.2678	0
0.7667	17.0527	6.14029	9.59674	-79.2289	-5.09091	43.0111	25.0585	19.3749	-51.4515	0
0.7673	15.2092	-5.77371	-0.128815	-2.30125	-9.66607	4.25796	13.7752	36.7714	-23.0861	0
0.7680	20.0945	-6.69017	8.69503	10.8018	-10.8806	-28.396	8.58357	27.3227	1.61066	0
0.7687	15.5779	-10.356	24.5393	-11.1775	-10.2816	-48.8514	6.74918	12.0411	25.1441	0
0.7693	-0.921768	-20.987	20.2884	-0.187857	-9.66607	-67.4656	7.35487	6.54927	51.9884	0
0.7700	-0.921768	-18.2376	17.5189	-26.1122	-8.13547	-67.1492	8.58357	2.28542	43.7562	0
0.7707	21.2928	-9.43955	35.875	-132.017	-8.13547	-60.7622	7.66637	-12.6551	24.5178	0
0.7713	29.22	-5.77371	26.4071	-187.247	-8.13547	-56.4755	6.74918	-11.7341	20.8491	0
0.7720	17.3292	3.66584	-34.0072	-113.419	-7.22044	-48.535	7.35487	22.7519	15.0328	0
0.7727	32.9071	19.2457	-82.8282	-21.8384	-7.53654	-43.3564	5.22629	50.5181	16.2855	0
0.7733	68.9482	29.6017	-83.4723	-14.2302	-7.22044	-39.3861	0.0346112	50.5181	37.0451	0
0.7740	75.9537	34.184	-55.3906	-49.3126	-5.39037	-34.4952	-4.53406	67.3006	47.6933	0
0.7747	61.021	40.9658	3.54242	-34.9884	-4.17588	-33.891	-6.36845	113.998	31.2288	0
0.7753	35.0272	26.8523	51.3973	5.63572	-3.85977	-35.7323	-6.36845	162.811	16.9119	0
0.7760	5.80714	-13.6553	45.343	22.6838	-4.17588	-35.4159	-3.92837	196.069	16.554	0
0.7767	-22.0302	-36.2919	34.0072	23.2943	-4.47534	-27.4753	3.39189	195.455	17.5383	0
0.7773	-56.5044	-25.2943	13.912	11.0836	-4.17588	-13.1479	10.1065	116.42	16.0171	0
0.7780	-71.437	10.9975	-27.6309	-2.63	-4.17588	-2.76192	5.52048	-59.0458	2.23702	0
0.7787	-47.3789	41.8823	-45.6006	-4.7434	-5.70648	11.5655	-3.01117	-175.022	-17.0014	0
0.7793	-18.3432	34.184	-32.2038	-2.91179	-5.70648	37.5161	-4.23987	-161.89	-21.2965	0
0.7800	-11.3377	0.366584	-15.3934	-9.62769	-5.70648	47.5856	-4.53406	-181.128	-19.4174	0
0.7807	-18.3432	-25.9359	-16.2951	-3.85108	-5.39037	33.2581	-5.76276	-256.206	-26.4864	0
0.7813	-24.1503	-16.1297	-14.8138	25.4547	-3.85977	17.0606	-3.01117	-212.851	-12.0799	0
0.7820	-18.0666	11.914	-0.128815	38.276	-5.09091	6.70341	-3.32267	-79.5122	42.235	0
0.7827	-7.00543	21.9951	4.12209	20.8522	-6.62151	-0.02877	-6.99146	-18.7609	90.7337	-0.321991
0.7833	0.921768	12.2806	3.54242	3.47536	-8.13547	-5.81154	-8.51435	-9.31224	90.4652	-0.321991
0.7840	9.40203	17.1378	4.12209	3.19358	-9.36661	-9.46533	-9.12004	-26.4017	60.4891	0
0.7847	14.9326	36.3835	-6.24754	34.284	-7.53654	-8.25699	-6.99146	-74.6003	37.3135	0
0.7853	12.8126	20.5287	-24.2817	83.1269	-6.30541	-9.46533	-5.45126	-106.357	7.69536	0
0.7860	13.0891	-11.2725	-23.3156	104.496	-7.53654	-12.2272	-7.28565	-102.98	-42.3245	0
0.7867	13.7343	-21.6285	11.1425	97.1693	-7.83601	-14.6727	-8.51435	-40.4213	-84.7384	0
0.7873	1.84354	-39.3162	29.4343	100.832	-9.05051	-15.881	-10.6429	45.3332	-115.52	0
0.7880	-8.29591	-44.815	9.91877	122.812	-8.13547	-13.4356	-10.3487	34.0426	-133.237	0
0.7887	-1.567	-15.8548	-7.79332	129.528	-5.09091	-11.0189	-6.36845	-45.0262	-131.716	0
0.7893	12.1673	21.0786	-30.0784	120.041	-4.79144	-11.3066	-5.45126	-107.278	-140.843	0.321991
0.7900	25.6251	75.1498	-47.1464	114.875	-4.79144	-9.46533	-3.92837	-147.87	-99.0554	0
0.7907	29.22	94.6704	-15.1358	106.609	-5.09091	-7.94052	-2.09398	-127.404	17.1803	0
0.7913	26.5469	38.4914	48.6922	82.8451	-6.30541	-6.41571	-4.23987	-65.4586	101.113	0
0.7920	28.3904	-10.6309	95.0657	26.0652	-4.47534	-2.15775	-3.63417	-53.8609	154.802	0
0.7927	24.7034	-28.6852	74.3264	-41.7044	-2.94474	-3.36609	-2.71698	-3.82041	156.95	0
0.7933	17.0527	-20.712	18.485	-53.5863	-5.39037	-8.57346	-8.20285	53.5539	82.7699	0
0.7940	20.7398	19.8872	-22.0918	2.25429	-6.00594	-4.28673	-11.2486	1.97843	40.9823	0
0.7947	19.1728	35.1005	-57.516	54.4317	-6.30541	5.1786	-13.083	-15.7251	46.5301	-0.321991
0.7953	6.63673	5.49877	-68.5297	34.284	-6.92097	11.2778	-15.5231	-86.8119	51.72	0
0.7960	-2.48877	-11.5474	-36.1327	-8.40662	-4.17588	11.5655	-10.6429	-234.819	51.72	0
0.7967	-15.5779	0.641523	1.09493	-8.40662	-3.26084	4.25796	-7.59715	-202.789	51.72	0
0.7973	-27.1921	-26.2108	12.6883	-12.0698	-3.85977	-0.02877	-11.5601	-62.4227	56.2835	0
0.7980	-25.0721	-132.704	26.4071	-70.6814	-1.43078	4.25796	-12.1658	67.3006	47.067	0
0.7987	-20.7398	-250.194	34.0072	-158.27	0.399287	7.30758	-11.8716	183.243	1.61066	0
0.7993	-11.3377	-306.373	7.79332	-226.321	3.14439	12.1985	-8.80854	167.382	-58.1626	0
0.8000	6.3602	-310.039	-24.8613	-261.732	7.12062	20.1102	-1.17678	52.6329	-81.9645	0.321991
0.8007	8.84897	-236.814	-53.2651	-199.786	5.88948	18.9019	0.346112	8.08426	-67.0212	0
0.8013	-4.60884	0.366584	-85.0181	-52.0835	2.22935	11.882	-2.09398	37.9994	-51.8095	0
0.8020	-8.29591	281.445	-104.212	22.6838	-0.199643	7.62405	-3.92837	54.7819	-30.692	0
0.8027	9.77074	348.53	-88.3673	16.2966	-3.26084	4.25796	-4.53406	37.0784	-4.2056	0
0.8033	31.7088	186.775	-45.6006	15.6861	-3.56031	4.86213	-0.276889	13.2691	-8.14277	0
0.8040	33.8289	15.03	11.4646	12.9152	-3.56031	5.78277	2.7862	46.5271	-10.9167	0
0.8047	16.7762	-13.6553	48.0481	-1.08018	-6.00594	2.12898	2.1632	100.866	19.0594	0
0.8053	-9.49421	32.9926	30.9801	-2.91179	-5.39037	0.2877	3.39189	38.3064	41.8771	0
0.8060	-28.3904	84.5894	-0.128815	6.52805	-3.26084	0.2877	3.08039	-51.405	31.2288	0
0.8067	-22.3068	102.919	-4.44413	17.189	-2.02971	0.60417	3.08039	-14.4971	7.69536	0
0.8073	2.67313	48.2975	21.1901	18.41	0.0998217	2.73315	6.43768	17.2601	-9.3955	0
0.8080	21.9381	20.1621	41.0277	4.0859	0.399287	2.12898	4.62059	-16.9189	-25.86	0
0.8087	31.0636	34.184	31.8818	-7.79608	0.0998217	2.12898	-1.48828	-13.2691	-34.987	0
0.8093	37.7925	10.7226	16.9392	-31.3252	1.31432	5.4663	-1.48828	31.5866	-26.7548	0
0.8100	35.6724	-25.2943	4.12209	-70.3526	0.399287	5.78277	-1.79978	53.8609	-21.8333	0
0.8107	28.9435	-65.8936	-4.44413	-71.9024	0.715389	6.38694	-3.01117	21.2169	-23.7124	0
0.8113	14.9326	-98.2446	-8.11536	-48.4203	3.14439	10.6737	-0.571084	0.44344	-5.99522	0
0.8120	-7.65067	-113.824	-10.2408	-38.6517	3.14439	10.6737	-1.17678	21.8309	16.554	0
0.8127	-18.3432	-56.0874	-4.44413	-19.1145	1.92989	7.30758	-3.32267	30.6656	24.5178	0
0.8133	-14.6561	96.7783	-9.2747	18.1282	0.0998217	5.4663	-3.63417	-2.89942	31.8552	0
0.8140	-4.88537	15.9464	-27.6309	55.9815	-1.11468	6.38694	-3.32267	-40.7283	33.6448	0
0.8147	-3.41054	-207.762	-32.2038	88.293	1.31432	8.83239	-1.17678	-15.7251	13.5116	0
0.8153	-11.0612	-113.824	-40.77	113.936	1.63042	5.78277	-1.79978	-2.59242	-6.26367	0.321991
0.8160	-4.33231	53.4297	-64.5364	128.588	-1.43078	0.60417	-5.45126	-50.5181	3.48976	0
0.8167	3.04183	80.9235	-58.4177	136.525	-2.64528	-1.84128	-6.36845	-41.3423	29.0813	0
0.8173	-3.68707	127.571	1.6746	138.968	-3.85977	-4.6032	-7.28565	6.54927	40.3559	0
0.8180	-4.88537	144.343	56.9363	126.146	-3.56031	-3.99903	-6.07426	2.59242	33.3764	0
0.8187	-5.53061	132.795	74.3264	134.412	-1.11468	-1.55358	-3.63417	33.1216	21.7439	0
0.8193	-17.6979	114.466	83.1502	144.181	-2.64528	-3.36609	-5.15706	106.664	11.9904	0
0.8200	-28.3904	69.6511	51.7193	72.7478	-5.09091	-3.99903	-6.36845	91.7239	8.05328	0
0.8207	-29.9574	44.6317	-7.14925	12.9152	-4.17588	-0.31647	-5.15706	7.16326	4.65301	0
0.8213	-19.5415	47.9309	-14.4917	44.9919	-2.02971	2.73315	-4.23987	-28.8236	-3.84768	0
0.8220	3.9636	34.8255	25.5054	42.221	0.0998217	4.25796	-2.71698	-5.0484	-7.78484	0
0.8227	16.4075	17.4128	70.6552	-17.8934	-0.815211	1.81251	-3.01117	-10.2332	-7.5164	0
0.8233	13.0891	27.7688	69.4314	-1.40893	-2.94474	-1.23711	-5.45126	-1.97843	-11.8115	0
0.8240	12.4439	-29.6017	29.1767	30.9495	-2.94474	0.2877	-4.23987	75.2143	-13.959	0
0.8247	13.0891	-149.841	-0.772892	-53.9151	-1.73024	2.41668	-1.79978	63.0367	-9.66394	-0.643983
0.8253	11.2456	-193.74	-22.0918	-134.177	1.63042	4.86213	0.951807	-2.89942	-2.59495	-0.321991
0.8260	12.1673	-160.747	-38.9022	-117.364	5.29055	9.43656	4.30909	-1.97843	1.96858	0
0.8267	8.84897	-135.178	-54.1668	-72.1842	5.59002	12.1985	3.70339	-24.2528	-0.805328	0
0.8273	3.04183	-179.718	-64.5364	-24.6093	5.29055	11.2778	1.26331	-77.6703	-6.62159	0
0.8280	7.00543	-156.807	-53.5871	8.07787	4.97445	6.99111	-1.79978	-107.892	-10.9167	0
0.8287	17.3292	16.4963	-23.6376	-13.0091	3.75995	4.25796	-3.01117	-114.271	-12.9747	0
0.8293	28.9435	3.39091	14.4917	-56.9678	4.97445	7.30758	0.0346112	-98.7166	-10.2903	0
0.8300	33.8289	-243.504	22.7359	-63.0731	5.29055	7.91175	0.346112	-64.5376	-6.89003	0
0.8307	29.8653	-415.89	1.99664	-88.9975	3.14439	6.99111	-2.71698	-4.12741	-2.05806	0
0.8313	28.9435	-364.935	10.2408	-179.028	1.92989	8.22822	-2.71698	51.1321	2.86339	0
0.8320	21.0163	-182.192	31.3021	-218.995	0.0998217	6.70341	-2.09398	63.3096	-1.70014	0
0.8327	-7.65067	-109.792	19.9664	-151.836	-0.199643	7.30758	-0.276889	68.8356	-6.26367	0
0.8333	-26.2704	27.2189	-1.35256	-97.2162	2.22935	11.2778	2.4747	48.3691	-7.24796	0
0.8340	-13.4578	316.546	3.22038	-98.1555	3.14439	10.3572	1.26331	24.5598	-11.1851	0
0.8347	0.553061	348.53	16.6172	-42.5967	2.22935	6.70341	-1.48828	60.8877	-14.2275	0
0.8353	3.9636	167.896	5.34583	49.5474	1.31432	3.02085	-3.32267	77.0563	-14.8538	0
0.8360	15.2092	86.9722	-19.7087	66.0319	1.31432	1.49604	-3.01117	48.0621	-13.6011	0
0.8367	21.0163	120.881	-23.6376	37.6654	3.14439	7.30758	-0.571084	26.7087	-12.4378	0
0.8373	6.3602	174.586	-4.44413	35.5051	4.67499	3.02085	-0.571084	1.05743	-14.5854	0
0.8380	3.04183	134.628	8.37299	57.4844	2.54545	-24.7422	-2.09398	-41.3423	-14.5854	0
0.8387	28.667	65.0687	21.8342	61.4763	-2.34581	-48.2473	-1.79978	-90.1889	-12.0799	0
0.8393	46.3649	-4.21572	59.0618	26.9575	-4.47534	-51.9011	-1.17678	-133.51	-10.2903	0
0.8400	28.667	-117.49	70.6552	-13.9015	-2.34581	-48.535	0.640307	-81.6271	-5.36886	0
0.8407	-4.33231	-107.959	18.163	-29.7754	-0.815211	-41.2274	2.4747	102.708	-2.05806	0
0.8413	-19.2649	3.11597	-42.5734	-46.8704	-1.43078	-35.0994	1.5575	151.213	-1.43169	0
0.8420	-15.0248	47.9309	-56.9363	-86.8371	-1.43078	-36.653	0.346112	17.8399	0.447405	0
0.8427	0.553061	43.3486	-19.9664	-81.3423	0.0998217	-35.0994	-0.276889	-25.7878	-2.95287	0
0.8433	27.7452	-41.424	28.8546	-9.62769	2.54545	-28.1083	-1.17678	-16.0321	-9.93238	0
0.8440	43.3231	-133.62	50.1735	35.8338	5.59002	-20.4555	-1.79978	-44.4122	-10.2903	0
0.8447	30.1418	-92.7459	54.1668	36.1156	5.59002	-8.86116	-1.48828	-41.0353	-8.14277	0
0.8453	4.24013	-39.3162	34.0072	39.1683	2.54545	5.78277	-2.71698	-1.97843	-10.5588	0
0.8460	-17.6979	22.3617	-9.59674	48.6551	0.0998217	21.9515	-4.84556	5.66239	-12.9747	0
0.8467	-28.7591	116.94	-35.553	50.4867	-2.34581	37.1996	-5.15706	-17.2259	-10.5588	0
0.8473	-27.8374	102.919	-27.6309	47.434	2.22935	54.0013	-3.63417	-24.2528	-7.24796	0
0.8480	-20.4632	83.3063	-4.70176	49.5474	11.9952	71.0906	-3.63417	-70.6434	-5.10041	0
0.8487	-3.9636	168.537	1.09493	53.8212	16.587	71.6948	-6.67996	-132.589	-7.5164	0
0.8493	23.5051	251.844	-11.7222	54.4317	18.101	63.1501	-9.12004	-123.447	-10.9167	0
0.8500	45.1666	222.242	-14.1697	40.9999	16.2709	61.0211	-7.89135	-93.5318	-9.3955	0
0.8507	51.2503	111.717	-5.66787	-12.0698	5.88948	58.2592	-3.92837	-75.8283	-5.10041	-0.321991
0.8513	44.5214	83.0314	-29.1122	-70.3526	-0.815211	45.4566	0.951807	-45.6061	0.98429	-0.321991
0.8520	32.6306	129.404	-56.2923	-67.6287	-1.11468	30.1797	0.951807	24.5598	2.23702	0
0.8527	28.0217	115.108	-22.7359	-29.4936	-4.79144	22.8721	-1.79978	132.589	-3.57924	0
0.8533	20.0945	92.8375	28.2105	-9.01716	-9.05051	17.3771	-0.882585	178.365	-5.99522	0
0.8540	3.59489	115.382	61.8313	-3.24054	-11.7956	9.14886	0.951807	124.675	-6.89003	0
0.8547	9.77074	86.6972	82.5706	10.1913	-9.66607	5.78277	1.869	87.4259	-6.26367	0
0.8553	25.2564	-10.6309	52.9431	28.5074	-3.85977	5.1786	4.30909	67.6076	-3.22131	-0.321991
0.8560	7.55849	-88.8051	0.450853	40.9999	-2.34581	2.12898	4.30909	-18.7609	-3.57924	-1.28797
0.8567	-27.1921	-137.927	0.450853	44.9919	-2.02971	1.49604	3.70339	-63.0026	-5.99522	-0.643983
0.8573	-47.0101	-250.835	2.31867	44.3813	-2.02971	4.25796	3.99759	-21.8309	-7.5164	-0.643983
0.8580	-39.0829	-431.745	-38.3225	41.9392	-6.62151	5.78277	3.70339	-22.4449	-7.5164	-1.60996
0.8587	-19.9102	-617.053	-52.3634	-2.63	-8.13547	6.09924	3.39189	-47.4481	-4.74249	0
0.8593	-9.49421	-686.338	-19.3867	-75.5657	-6.30541	3.65379	1.5575	-9.61924	-3.57924	0
0.8600	5.1619	-482.425	4.70176	-89.2793	-6.30541	0.60417	-3.01117	9.00525	-5.36886	0
0.8607	19.818	-242.587	-5.02379	-47.1992	-6.92097	3.02085	-6.99146	-14.4971	-6.26367	-0.321991
0.8613	19.818	-376.207	-10.8205	-12.0698	-8.13547	7.91175	-7.89135	-9.92624	-5.36886	0
0.8620	18.251	-268.798	1.99664	-0.187857	-7.83601	6.70341	-6.07426	-32.5076	-3.57924	0
0.8627	8.20373	491.04	-0.450853	-0.469644	-5.09091	-0.63294	-3.01117	-88.9609	-2.05806	0
0.8633	-18.3432	764.512	-9.2747	1.36197	-5.39037	-9.46533	-3.32267	-97.7956	-3.84768	0
0.8640	-23.8738	372.358	-2.89834	11.0836	-6.62151	-13.4356	-5.45126	-103.901	-4.74249	0
0.8647	-9.49421	225.266	4.44413	15.6861	-3.85977	-14.0685	-5.76276	-166.154	-2.95287	0
0.8653	-17.1449	290.885	10.2408	7.13858	-1.11468	-23.8216	-5.15706	-148.45	-3.22131	0
0.8660	-25.9938	265.499	27.6309	6.24626	1.31432	-37.5448	-2.09398	-48.0621	-2.95287	0
0.8667	-22.952	177.977	32.5258	24.2336	3.14439	-42.7522	0.346112	2.28542	-1.70014	0
0.8673	-32.7227	126.105	-5.34583	29.1179	1.92989	-43.3564	-0.882585	48.6761	-1.70014	0
0.8680	-33.6445	152.957	-57.516	25.7365	1.01485	-41.8316	-1.17678	145.414	0.447405	0
0.8687	-29.5887	180.36	-90.1707	47.1053	2.22935	-41.2274	0.951807	176.557	0.447405	0
0.8693	-39.7282	173.944	-83.1502	84.9585	3.75995	-33.5746	5.83198	73.7134	-1.07377	0
0.8700	-34.8428	166.338	-32.5258	110.272	6.20559	-15.5933	10.418	3.20641	1.96858	0
0.8707	-31.1557	134.903	-5.66787	102.946	14.7403	4.54566	7.06068	0.170554	1.96858	0
0.8713	-50.052	77.2577	-30.658	82.5164	23.5912	28.0507	-0.882585	19.6819	-2.95287	0
0.8720	-65.6299	47.381	-35.875	75.5187	22.9923	49.7145	-8.20285	178.672	-8.14277	0
0.8727	-71.1605	55.5375	-23.0579	76.411	16.8865	55.8426	-13.706	307.782	-8.76913	0
0.8733	-65.0768	52.5132	-22.7359	50.4867	16.8865	47.2979	-12.4773	218.343	-3.22131	0
0.8740	-47.6554	15.03	4.44413	0.140893	20.8461	38.4367	-9.12004	146.335	0.98429	0
0.8747	-36.9629	-2.3828	30.336	-36.8201	15.0564	27.4466	-11.5601	128.939	1.61066	0
0.8753	-38.4377	47.0145	-22.0918	-55.1362	7.42008	4.25796	-16.1461	5.35539	1.96858	0
0.8760	-47.3789	60.4864	-95.3877	-96.6057	6.82115	-18.3265	-18.5862	-30.9726	2.86339	0
0.8767	-57.4261	-2.3828	-78.8993	-153.996	4.05942	-23.8216	-19.1919	22.1379	5.01093	0
0.8773	-61.021	-31.7096	-18.485	-136.901	-3.85977	-20.1678	-17.669	-8.39125	6.53211	0
0.8780	-61.9428	-110.434	-5.9255	-69.7421	-12.4112	-18.9307	-12.1658	15.7251	5.6373	0
0.8787	-64.155	-223.067	-16.0375	-36.4913	-20.6465	-16.4852	-4.84556	74.0204	4.38457	0
0.8793	-60.468	-187.6	5.34583	-31.3252	-25.8372	-18.643	0.0346112	141.457	4.11612	0
0.8800	-60.1914	-116.207	47.1464	-33.4386	-21.262	-32.0498	4.30909	249.179	3.13183	0
0.8807	-65.0768	-81.7483	70.9772	-22.7777	-9.36661	-38.7819	13.1522	265.348	4.65301	0
0.8813	-53.4625	32.3511	63.6347	-12.0698	-1.73024	-34.2075	20.784	220.799	5.27938	0
0.8820	-28.7591	136.461	49.0142	-31.607	-0.815211	-25.6628	22.9299	128.325	1.96858	0
0.8827	-6.7289	70.8425	44.3769	-43.536	1.31432	-8.57346	23.2241	-7.47026	0.715847	0
0.8833	-2.7653	-64.3356	11.1425	-25.8304	0.399287	6.38694	12.858	-20.6029	-0.536886	0
0.8840	-30.234	-103.743	-60.6076	-14.8407	-4.17588	10.6737	-2.40548	106.05	-2.95287	0
0.8847	-57.7027	-107.684	-104.856	-12.6804	-2.64528	17.0606	-6.36845	227.212	-1.07377	-0.321991
0.8853	-52.8173	-253.218	-69.7535	-8.12484	2.22935	25.3176	-9.12004	205.859	0.447405	0
0.8860	-31.801	-423.222	23.6376	-8.40662	3.75995	23.7928	-11.2486	54.4749	-0.536886	0
0.8867	-12.2595	-293.268	56.6143	-12.3986	2.54545	20.1102	-6.99146	-28.8236	-0.178962	0
0.8873	-1.84354	43.7152	16.3595	-10.567	0.715389	21.3473	-5.76276	26.7087	-0.805328	0
0.8880	-11.6143	267.057	32.2038	-2.30125	1.92989	21.9515	-5.15706	46.2201	0.447405	0
0.8887	-32.7227	231.956	47.7905	3.19358	4.97445	20.4267	-0.882585	6.54927	2.23702	0
0.8893	-39.7282	84.8643	9.59674	3.47536	6.82115	13.4068	2.4747	19.9889	0.0894809	0
0.8900	-33.921	94.0289	14.1697	4.41465	7.73619	1.49604	6.43768	-50.5181	-2.3265	0
0.8907	-24.7955	147.734	19.0647	6.52805	8.03565	0.60417	10.7122	-186.62	-3.57924	-0.321991
0.8913	-12.8126	105.301	-36.4547	10.4731	7.73619	9.43656	13.7752	-153.055	0.0894809	-0.321991
0.8920	-5.53061	61.0363	-36.7768	17.189	5.59002	11.2778	14.6924	-66.0726	3.7582	-0.321991
0.8927	-4.88537	8.24815	29.1767	8.68841	1.92989	5.4663	15.5923	-146.335	2.23702	0
0.8933	-17.4214	28.6852	32.5258	-9.34591	1.63042	0.60417	18.3439	-215.921	2.86339	0
0.8940	-38.8064	196.856	-6.89162	-5.68269	2.54545	-0.92064	14.3809	-73.7134	4.11612	0
0.8947	-41.8482	207.212	-21.5121	5.30697	3.14439	3.33732	7.97787	101.787	4.38457	0
0.8953	-32.0775	-79.6405	-28.2105	6.8568	8.65122	5.4663	11.6294	157.319	6.53211	0
0.8960	-31.801	-229.482	-32.7835	11.6941	16.587	2.73315	13.7752	138.387	5.90574	0
0.8967	-32.354	-66.81	-31.3021	12.6334	24.2068	5.78277	8.27207	81.9341	4.11612	0
0.8973	-23.2285	-40.8742	-25.5054	12.0229	30.612	10.3572	5.22629	-25.1738	4.65301	0
0.8980	-4.60884	-218.484	-0.450853	30.0102	27.5674	8.83239	4.30909	-128.939	3.13183	0
0.8987	11.8908	-216.651	23.6376	53.2106	19.9311	2.41668	3.70339	-150.599	1.61066	0
0.8993	13.3656	-30.1516	16.3595	51.379	15.9715	-10.7024	0.640307	-122.219	0.98429	0
0.9000	11.8908	124.272	-16.0375	43.7708	9.56625	-20.1678	-3.32267	-106.05	0.0894809	0
0.9007	23.5051	177.977	-55.3906	22.6838	2.54545	-21.3761	-5.45126	-84.3901	1.34221	0
0.9013	48.7615	202.08	-78.2553	-29.4936	-3.56031	-23.8216	-8.20285	-14.1901	3.48976	0
0.9020	80.839	218.851	-48.0481	-44.4283	-9.36661	-23.8216	-10.0372	57.2379	6.17418	0
0.9027	90.8863	202.08	35.875	-15.7331	-13.0267	-21.3761	-9.12004	97.4886	8.05328	0
0.9033	61.9428	213.994	66.6619	-1.69072	-20.6465	-25.6628	-9.43154	144.493	4.65301	0
0.9040	21.6615	179.168	42.2514	5.30697	-24.6227	-25.9505	-7.89135	239.424	1.96858	0
0.9047	-8.57244	28.1354	59.3838	6.8568	-14.2412	-19.2471	-3.01117	325.485	1.96858	0.321991
0.9053	-25.6251	-52.7882	54.4888	-8.12484	-2.02971	-14.6727	3.99759	262.005	2.86339	0
0.9060	-20.7398	-11.5474	6.56958	-11.7881	4.67499	-7.04865	9.79496	117.955	5.01093	0
0.9067	1.1983	39.6828	-6.24754	-1.40893	5.88948	6.38694	10.1065	7.77726	3.48976	0
0.9073	33.5523	117.857	-27.9529	2.58304	4.97445	18.5854	5.52048	-108.472	-0.805328	0
0.9080	74.1101	148.008	-78.8993	5.02519	3.46049	24.397	1.26331	-258.321	-2.3265	0
0.9087	103.146	59.8449	-87.7232	7.13858	1.01485	23.4763	0.951807	-375.833	-1.70014	0
0.9093	100.657	-28.3187	-82.5706	7.74912	1.92989	21.0309	1.869	-367.271	0.447405	0
0.9100	86.0009	-121.156	-113.035	6.8568	3.14439	16.4564	-3.63417	-249.793	1.34221	0
0.9107	82.6825	-196.489	-155.48	4.41465	3.14439	9.43656	-7.28565	-98.4096	-1.07377	0
0.9113	85.0791	-203.179	-156.382	3.47536	4.37552	8.22822	-3.01117	-19.9889	-2.05806	0
0.9120	62.4958	-129.038	-102.666	3.19358	3.75995	9.14886	0.0346112	-22.7178	-2.05806	0
0.9127	26.5469	-53.9796	14.8138	4.0859	4.37552	7.91175	3.39189	-13.2691	-0.178962	0
0.9133	14.9326	-108.601	113.357	6.52805	4.37552	4.25796	6.14348	-5.35539	2.23702	0
0.9140	-5.80714	-118.682	63.9568	10.1913	-0.815211	-1.84128	6.14348	21.5239	0.0894809	0
0.9147	-46.0884	-60.3948	2.5763	19.9599	-2.64528	-0.02877	6.74918	118.262	-0.805328	0
0.9153	-59.2697	-138.202	91.7165	26.9575	-1.11468	0.60417	4.30909	88.3469	-0.178962	0
0.9160	-24.1503	-260	235.152	29.1179	-0.515746	-9.17763	-2.40548	-325.485	-0.178962	0
0.9167	21.9381	-311.23	248.549	31.8418	0.715389	-12.8314	-6.36845	-624.227	2.23702	0
0.9173	16.1309	-472.986	122.825	29.7284	-0.815211	-8.25699	-9.72574	-428.602	2.86339	0
0.9180	-23.8738	-743.708	5.34583	24.5154	-2.94474	-2.15775	-10.0372	-265.655	2.50547	0
0.9187	-40.2812	-789.44	-24.8613	22.402	-0.515746	5.4663	-5.45126	-150.292	1.96858	0
