MR32 ASCII
Name	USMC30_fast
Frequency	1500
Date	31-08-2015 12:55:32
"Time,s"	"RT TIB.ANT.,uV"	"RT MED. GASTRO,uV"	"RT LAT. GASTRO,uV"	"RT BICEPS FEM.,uV"	"RT VMO,uV"	"RT VLO,uV"	"RT RECTUS FEM.,uV"	"RT SOLEUS,uV"	"RT SEMITEND.,uV"	"Channel 12,uV"
0.0000	1.49198	-485.253	-30.1321	-5.47621	7.0563	5.58298	-0.90527	120.103	-3.97934	-8639.2
0.0007	5.74413	-568.005	23.5445	-3.61355	6.74727	4.95214	-0.90527	156.096	-3.03188	-10467.3
0.0013	1.49198	-246.648	55.3235	0.931328	5.84591	4.35284	-1.51534	110.015	-5.49528	-9548.08
0.0020	-2.53637	61.5726	57.1533	1.86266	4.60977	4.35284	-0.90527	-20.5914	-7.32704	-9822.68
0.0027	4.47595	92.1355	72.4024	1.26661	3.39939	5.26756	1.8499	-48.3649	-5.17946	-9866.19
0.0033	8.80269	273.994	53.1886	0.633303	1.26189	3.43811	1.53502	-6.84997	-4.29516	-9786.9
0.0040	6.93772	604.198	-17.0179	1.56463	-0.257529	1.29323	0.0196798	-42.5529	-3.97934	-9815.91
0.0047	8.5043	618.228	-44.7711	2.4587	-1.18463	0.0946269	-1.20047	-86.8078	-5.8111	-9815.91
0.0053	14.2484	346.916	-12.7482	2.4587	-0.875599	0.378507	-2.12542	-100.549	-7.64286	-9813.98
0.0060	13.95	196.782	8.29547	3.68806	2.16325	2.52338	-0.295197	-60.5704	-4.29516	-9786.58
0.0067	4.84894	194.905	-18.8478	3.98608	3.09035	2.52338	1.23983	10.5448	-3.03188	-9891.65
0.0073	6.04253	147.899	-36.5367	-0.260772	2.78132	1.92408	0.629753	-2.57393	-6.6954	-9757.9
0.0080	22.5289	73.8156	9.51539	-5.47621	3.09035	1.92408	0.0196798	-27.0263	-9.47462	-9619.95
0.0087	30.7348	27.0776	32.3889	-7.30161	3.70842	1.60866	-0.590394	-26.6941	-9.1588	-10560.7
0.0093	25.2891	1.7873	1.89088	-5.47621	3.9917	1.92408	0.314877	-79.2106	-7.01122	-7732.9
0.0100	22.2305	-20.554	-20.6777	-4.54488	3.9917	1.92408	2.45997	-19.9687	-3.3477	-1172.2
0.0107	14.9198	-22.6094	-55.8114	-9.42504	3.09035	1.00935	2.45997	112.464	0	108.614
0.0113	-2.53637	23.1456	-100.034	-13.7091	1.57093	-0.820099	0.92495	81.9506	1.20012	-266.863
0.0120	-6.19172	-18.6773	-118.942	-10.0583	0.334788	-2.96497	-1.51534	1.99272	0.631642	8.05745
0.0127	5.14734	-104.468	-86.0045	-4.54488	0.334788	-2.96497	-2.73549	33.4196	0	51.2454
0.0133	6.04253	-47.0954	0.365977	-0.59605	2.78132	-1.13552	-1.51534	221.109	2.14758	-28.3622
0.0140	-11.0407	-20.8221	48.3089	2.4587	4.91881	0.378507	-0.295197	370.023	5.17946	0.644596
0.0147	-35.8076	-155.674	47.394	3.39003	3.9917	0.378507	-0.590394	241.866	5.49528	-0.322298
0.0153	-57.4413	-230.741	26.8993	2.79398	3.09035	-0.220796	-0.90527	57.5398	5.17946	-0.644596
0.0160	-69.974	-33.9588	-28.6072	2.16068	3.39939	-0.536219	-1.20047	64.8464	4.86364	-0.644596
0.0167	-60.7983	162.913	-63.4359	5.21543	5.22784	1.29323	0.314877	111.841	4.86364	-0.322298
0.0173	-29.392	46.2911	-52.7616	8.27019	7.95765	3.75353	3.68012	-22.4181	3.66352	0
0.0180	-11.6375	-137.712	-42.3313	4.61938	7.36534	1.92408	2.75517	-185.697	-0.315821	0
0.0187	-22.6781	-214.566	-28.3022	0.633303	6.1292	-0.220796	0.0196798	-142.355	-2.71606	-0.322298
0.0193	-34.241	-116.622	23.8495	0.931328	7.95765	1.29323	0.92495	-28.8529	-2.4634	-0.322298
0.0200	-37.0012	166.219	52.8836	1.86266	10.7132	3.43811	2.45997	21.8369	-2.4634	-0.322298
0.0207	-37.2995	210.812	19.5797	2.4587	12.2326	4.35284	3.68012	92.3293	-2.14758	0
0.0213	-38.7915	-3.75334	4.02574	2.4587	11.9494	4.03741	3.36524	164.316	-1.20012	0
0.0220	-36.106	-109.294	22.9345	0.633303	9.19379	1.92408	2.1451	162.199	-1.20012	0
0.0227	-27.5271	-43.074	23.5445	-0.894074	6.43823	-0.820099	0.92495	163.735	-1.20012	0.322298
0.0233	-22.6781	78.9988	15.31	0.0372531	5.84591	-0.820099	0.314877	141.774	-1.83176	0
0.0240	-21.4099	77.1221	32.0839	1.86266	7.0563	0.69393	0.92495	27.3169	-0.631642	-0.322298
0.0247	-16.561	3.93207	56.2384	1.86266	6.74727	-0.220796	0.92495	-63.6425	0.315821	0
0.0253	-6.19172	-103.842	40.6234	2.16068	4.91881	-1.45095	0.0196798	-112.132	-0.884298	0.322298
0.0260	0.223797	-317.783	-3.29379	2.16068	3.09035	-2.05025	-1.20047	-148.458	-1.83176	0.322298
0.0267	-4.62514	-412.956	-19.1528	0.633303	0.952858	-3.2804	-2.73549	-146.963	-1.51594	0.322298
0.0273	-5.22194	-296.96	-17.6279	1.26661	0.643823	-3.8797	-2.12542	-123.133	-0.315821	0
0.0280	15.2182	-343.073	-24.9474	2.4587	2.16325	-2.96497	-0.295197	-84.0678	1.83176	0
0.0287	39.3137	-596.423	-32.8769	1.86266	1.57093	-3.8797	-0.590394	-20.3008	2.14758	0
0.0293	43.8643	-436.817	-20.3727	0.335278	-0.566564	-6.02458	-2.42061	64.8464	0.315821	0
0.0300	32.5998	110.992	46.479	3.09201	-0.566564	-4.19512	-1.51534	167.388	-1.20012	-1.28919
0.0307	23.1257	341.732	149.318	5.51346	1.85421	-1.73483	2.1451	228.125	-0.315821	-1.28919
0.0313	22.5289	379.534	204.52	3.98608	3.09035	-1.45095	3.97532	247.969	1.51594	0
0.0320	17.0086	480.248	228.308	3.68806	3.39939	-1.45095	4.29019	292.224	1.51594	-0.322298
0.0327	3.87915	376.853	273.506	4.32136	3.09035	-1.13552	3.36524	239.417	-1.20012	-1.61149
0.0333	2.68557	204.11	228.918	2.16068	3.09035	-1.45095	2.1451	28.5208	-1.83176	-0.644596
0.0340	10.5931	131.814	26.5943	0.633303	3.39939	-1.45095	1.8499	-134.716	-0.315821	0.322298
0.0347	13.3532	20.3753	-185.794	3.39003	4.30074	-0.220796	2.45997	-141.442	-0.315821	-0.644596
0.0353	9.10109	-96.1569	-232.761	6.44479	6.1292	2.20796	3.97532	-60.9025	0.631642	-1.61149
0.0360	0.223797	-157.193	-103.083	4.61938	5.84591	1.60866	3.68012	19.6781	-0.884298	-1.61149
0.0367	-9.25029	-204.199	9.21041	1.26661	3.9917	-0.220796	3.07005	69.1224	-3.03188	-1.28919
0.0373	-29.0936	-161.483	-16.103	0.0372531	4.60977	-0.536219	3.68012	99.0132	-1.51594	0
0.0380	-56.8445	19.7497	-81.7348	0.0372531	5.53688	-0.820099	2.45997	40.145	-0.631642	0.322298
0.0387	-54.6811	213.583	-107.658	1.26661	6.74727	0.69393	2.1451	-90.1705	-0.315821	0.322298
0.0393	-26.0351	285.254	-100.339	1.56463	7.95765	1.60866	2.75517	-103.621	0	0.322298
0.0400	-14.9944	252.903	-119.247	0.633303	8.26669	0.69393	0.92495	-79.5012	-1.20012	0.322298
0.0407	-14.0992	187.041	-129.007	1.86266	7.67437	0.0946269	0.314877	-246.142	-0.884298	0
0.0413	-8.5789	110.723	-38.3665	2.4587	3.9917	-1.73483	0.629753	-383.764	0.315821	0.322298
0.0420	-14.9944	147.363	59.2882	2.79398	0.952858	-2.05025	0.314877	-236.967	1.51594	0.322298
0.0427	-19.3212	213.851	83.3817	3.98608	1.26189	-1.45095	0.0196798	-27.3169	2.77922	0.322298
0.0433	-7.08691	119.213	130.959	2.16068	0.334788	-3.2804	-3.34556	105.116	1.83176	0.322298
0.0440	-5.59493	2.94905	228.003	0.335278	-1.8027	-4.79443	-6.39593	148.167	1.20012	0.322298
0.0447	-19.0228	-29.9373	235.018	0.335278	-3.32213	-5.39373	-7.32088	-23.3314	2.14758	0.322298
0.0453	-34.8378	-19.9284	130.959	0.0372531	-3.63116	-5.39373	-6.39593	-109.392	1.51594	0.322298
0.0460	-40.0597	-50.1339	-42.0263	1.26661	-2.11174	-2.64955	-2.73549	130.482	2.4634	0.322298
0.0467	-32.4506	-149.329	-264.845	2.4587	-0.566564	-1.45095	-0.90527	265.364	2.77922	0.322298
0.0473	-18.6498	-226.541	-310.897	0.633303	-0.875599	-3.2804	-3.66044	133.512	0.315821	0.322298
0.0480	-2.23797	-395.262	-202.263	0.633303	0.334788	-1.73483	-1.51534	-14.8208	-0.631642	0.322298
0.0487	-2.53637	-523.412	-177.56	1.56463	3.9917	0.69393	3.36524	-105.116	-0.315821	0.322298
0.0493	-18.053	-271.67	-12.7482	2.16068	6.74727	2.20796	3.68012	-171.374	-1.51594	0.322298
0.0500	-26.3335	117.158	311.629	3.98608	8.57572	4.03741	4.29019	-214.093	-0.631642	0.322298
0.0507	-20.8131	349.686	382.75	3.68806	9.19379	4.03741	5.19546	-146.008	-0.315821	0.322298
0.0513	-18.053	399.105	261.002	1.56463	8.88476	3.12269	3.07005	39.8129	-1.20012	0.322298
0.0520	-26.6319	308.131	135.838	0.0372531	9.19379	2.52338	0.0196798	171.955	-2.4634	0.322298
0.0527	-30.2872	156.21	-46.296	-0.59605	9.81186	2.52338	-2.42061	133.803	-3.03188	0.322298
0.0533	-23.5733	-45.2188	-181.524	1.56463	11.0223	4.66826	-1.20047	83.7772	-0.315821	0.322298
0.0540	-11.3391	-228.954	-187.929	3.09201	9.19379	3.75353	0.0196798	154.27	2.14758	0.322298
0.0547	7.8329	-332.081	-70.4505	1.56463	4.30074	1.29323	-0.590394	167.098	1.51594	0.322298
0.0553	16.4118	-346.469	140.108	0.335278	0.0257529	-0.220796	-0.90527	37.9862	0.947462	0.322298
0.0560	3.58076	-340.303	272.287	-0.260772	-3.63116	-2.05025	-1.51534	-147.254	-0.631642	0.322298
0.0567	5.44573	-231.724	208.485	2.16068	-5.15058	-0.536219	-0.590394	-308.705	0.631642	0.322298
0.0573	19.7688	-14.7453	22.9345	5.21543	-3.32213	1.92408	0.92495	-319.043	3.03188	0.322298
0.0580	12.7564	-75.7817	-113.758	3.09201	-3.9402	0.0946269	0.0196798	-205.831	2.77922	0.322298
0.0587	1.49198	-252.099	-65.8758	-0.260772	-9.11653	-5.39373	-0.295197	-55.7131	1.20012	-0.644596
0.0593	-16.2626	45.6656	37.5736	-1.1921	-12.4644	-8.16945	0.0196798	59.9476	0.315821	-1.28919
0.0600	-37.2995	520.552	4.02574	-0.894074	-10.945	-5.70915	0.0196798	52.641	1.51594	0
0.0607	-23.2749	578.282	-117.722	1.56463	-7.59711	-0.220796	1.8499	108.811	3.97934	0.322298
0.0613	9.39949	360.678	-188.539	1.86266	-6.36097	2.83881	2.45997	313.853	3.66352	0.322298
0.0620	25.5875	201.34	-129.617	-0.260772	-6.67001	1.60866	1.53502	404.19	1.83176	0.322298
0.0627	19.7688	151.027	-62.826	-1.49012	-6.67001	-0.536219	1.23983	254.985	2.4634	0.322298
0.0633	-3.72995	208.4	-68.9256	-2.71948	-6.36097	-0.536219	-1.51534	-26.6941	2.4634	0.322298
0.0640	-18.053	234.941	25.9843	-1.1921	-5.15058	-2.05025	-2.73549	-172.868	3.97934	0
0.0647	-12.6072	62.1981	176.157	1.86266	-3.63116	-11.1975	-1.81054	-64.5558	5.8111	0.322298
0.0653	-0.372995	-74.2624	214.279	0.335278	-0.875599	-23.7198	-5.49066	16.0248	4.29516	0.322298
0.0660	10.8915	-36.3716	158.468	-1.78815	4.60977	-33.4979	-7.32088	-62.1064	2.4634	0.322298
0.0667	19.4704	-59.2491	-7.25853	-1.1921	9.81186	-34.6965	-3.05037	-66.0503	2.14758	0.322298
0.0673	22.5289	-160.321	-220.257	-0.59605	12.2326	-28.2934	3.07005	40.145	2.4634	0
0.0680	14.9198	-140.482	-352.435	0.931328	13.7778	-31.353	4.58539	23.9541	5.49528	0.322298
0.0687	19.4704	-41.9123	-362.195	0.931328	14.9882	-51.477	1.23983	-88.3439	6.6954	0.322298
0.0693	39.6121	-261.304	-279.789	-0.894074	5.84591	-66.4596	-2.12542	-41.3489	5.17946	0.322298
0.0700	28.3477	-621.981	-132.057	-1.49012	-7.28808	-63.6839	-3.05037	-4.10998	6.37958	0.322298
0.0707	13.3532	-736.726	96.1908	-2.71948	-2.70406	-57.2808	7.34056	-151.82	7.95868	0.322298
0.0713	32.5998	-986.055	209.095	-3.31553	6.1292	-55.4513	26.5677	-175.318	10.9906	0.322298
0.0720	32.3014	-1256.47	116.015	-3.94883	-2.11174	-44.4746	37.8442	-84.9812	14.9699	0.322298
0.0727	30.138	-1077.3	11.0403	-8.19568	-20.7053	-24.3191	46.0901	-63.6425	16.17	0.322298
0.0733	52.1448	-604.913	-62.521	-11.5485	-33.8393	0.0946269	53.1157	6.26876	17.686	0.322298
0.0740	44.4611	-87.3098	-74.7202	-12.1818	-39.3247	29.3659	44.5747	47.7422	18.3176	0.322298
0.0747	27.6763	402.501	80.0269	-10.0583	-40.2518	57.7539	36.3289	68.8318	16.17	0.322298
0.0753	19.4704	871.221	265.882	-6.66831	-40.5609	80.0543	40.5994	267.19	14.9699	0.322298
0.0760	-24.7669	1113.22	295.465	-5.47621	-40.2518	84.3125	33.2785	397.506	10.9906	0.322298
0.0767	-58.0381	987.753	260.392	-1.78815	-34.7664	85.5427	8.8559	301.067	4.61098	0.322298
0.0773	-31.7792	794.009	257.038	1.86266	-27.4269	98.0334	-16.7672	289.442	-1.83176	0.322298
0.0780	-13.204	607.236	234.408	2.79398	-16.1471	105.982	-35.9943	352.005	-7.01122	0.322298
0.0787	-18.053	390.258	201.775	5.51346	-6.97904	95.2892	-39.3596	146.922	-6.37958	0
0.0793	-16.8594	213.225	147.184	6.44479	-9.7346	64.4724	-31.1137	-219.573	-3.66352	0.322298
0.0800	-12.9056	17.3368	129.434	2.79398	-11.5631	29.9967	-29.2835	-413.074	-3.03188	0.322298
0.0807	-6.78852	-181.054	275.946	-1.1921	-6.67001	1.29323	-34.7742	-432.877	-2.71606	0.322298
0.0813	-9.84708	-433.153	452.957	-3.31553	2.78132	-12.4277	-34.1641	-351.715	-0.631642	0.322298
0.0820	-5.59493	-671.132	532.923	-1.1921	7.95765	-8.45333	-32.944	-263.828	3.97934	0.322298
0.0827	19.4704	-522.518	581.11	0.335278	0.952858	2.20796	-42.7051	-254.985	5.49528	0.322298
0.0833	24.6177	-210.902	495.044	0.633303	-11.8721	26.9371	-52.7812	-187.523	2.14758	0.322298
0.0840	26.7811	-44.9507	64.4729	0.0372531	-20.113	56.2399	-48.2155	-51.1049	0.947462	0.322298
0.0847	65.2742	307.595	-494.617	-3.0175	-19.495	63.2423	-36.3092	38.6089	1.83176	0.322298
0.0853	81.0892	269.704	-712.495	-2.71948	-23.1519	44.6323	-32.6488	106.361	5.17946	0.322298
0.0860	49.683	-524.395	-552.32	-0.59605	-38.7324	1.29323	-28.6735	136.584	5.17946	0.322298
0.0867	48.4894	-1127.07	-277.654	-3.0175	-42.3893	-46.9034	-0.90527	127.119	3.03188	0
0.0873	62.2156	-1438.33	-122.297	-7.59963	-30.4915	-71.6325	34.1838	137.498	6.12692	0.322298
0.0880	33.7934	-1575.69	-158.346	-11.8837	-21.0144	-84.7541	55.2412	232.401	8.84298	0.322298
0.0887	-2.53637	-851.829	-222.697	-10.3564	-8.8075	-108.253	89.425	308.705	10.3589	-0.966894
0.0893	-26.3335	583.465	-259.05	-2.71948	0.334788	-104.594	127.269	105.116	13.7066	-1.28919
0.0900	-29.392	1397.67	-324.011	0.335278	7.0563	-37.1568	113.238	-274.497	13.7066	0
0.0907	-22.6781	1198.03	-371.344	0.633303	25.0576	25.4231	59.2165	-406.016	6.37958	0.322298
0.0913	-22.0067	953.616	-273.994	4.91741	42.4666	32.1416	11.2962	-198.193	-3.03188	0.322298
0.0920	-13.8008	892.847	-109.793	9.49954	47.6429	36.7152	-23.478	-44.421	-10.0431	0.322298
0.0927	-17.7546	638.693	-84.1746	12.8523	56.7852	62.3276	-43.3152	-44.0889	-10.6747	0.644596
0.0933	-33.6442	473.278	-92.4091	13.7464	75.7136	87.656	-45.4603	38.3183	-9.1588	0.322298
0.0940	-31.1824	638.335	-52.4566	11.623	82.1261	99.579	-43.9253	132.889	-10.3589	0
0.0947	-30.884	760.408	-73.1953	9.20152	80.2976	81.8838	-37.5294	93.8239	-10.0431	0.322298
0.0953	-35.8076	489.453	-125.042	6.74281	75.0955	50.1207	-24.7178	-31.8835	-9.1588	0.322298
0.0960	-14.696	88.7396	-116.198	5.51346	55.5748	30.596	-15.2518	-103.289	-6.37958	0.322298
0.0967	20.3656	-115.728	-62.521	5.81148	32.3714	17.4744	-11.5914	-79.7918	-4.86364	0.322298
0.0973	56.6953	-321.089	-53.3716	4.32136	13.1597	7.72786	-16.7672	-47.161	-7.64286	0.322298
0.0980	95.1138	-723.679	5.55064	2.4587	-3.32213	11.6706	-31.7238	-45.625	-9.79044	0.322298
0.0987	111.302	-990.702	238.129	2.4587	-14.3186	40.658	-43.3152	-99.6359	-11.3064	0.322298
0.0993	87.8031	-939.049	344.323	2.79398	-11.5631	86.4574	-40.2648	-99.6359	-10.3589	0.322298
0.1000	37.1503	-833.777	213.364	4.32136	-0.875599	91.6303	-28.3783	169.506	-5.17946	0
0.1007	-18.6498	-867.11	184.696	3.39003	0.643823	52.2656	-24.7178	474.101	-4.29516	0
0.1013	-58.6349	-1095.97	76.0621	0.931328	-3.9402	22.3635	-28.0634	513.748	-5.49528	0.322298
0.1020	-107.497	-908.844	-313.947	0.931328	-8.49846	10.472	-27.1581	476.841	-2.14758	0.322298
0.1027	-147.781	-289.722	-422.276	1.86266	-11.254	1.92408	-23.7929	400.869	0.947462	0.322298
0.1033	-113.316	-82.7521	-119.247	3.98608	-11.5631	-1.45095	-17.9873	198.525	2.4634	0
0.1040	-53.1892	237.979	103.51	3.98608	-14.9109	-2.96497	-11.2765	31.5929	2.77922	0.322298
0.1047	-21.4099	823.947	176.767	1.86266	-20.113	-6.02458	-7.32088	-30.3474	1.20012	0.322298
0.1053	7.23611	1010.99	282.656	3.09201	-18.8769	-2.96497	-5.17578	-71.2397	2.77922	0
0.1060	40.2089	1121.8	400.439	3.98608	-14.0096	1.60866	-6.39593	-200.974	4.29516	-0.322298
0.1067	47.818	1321.62	407.759	2.79398	-8.8075	3.75353	-7.32088	-375.835	1.83176	0.322298
0.1073	39.6121	1229.49	341.883	2.4587	-2.39502	6.49771	-3.05037	-319.997	-1.20012	0
0.1080	46.326	750.935	373.601	0.0372531	2.16325	6.81313	0.629753	-84.3999	-2.71606	0.322298
0.1087	28.6461	240.392	399.524	-1.49012	4.30074	6.18229	3.36524	77.3424	-2.4634	0.322298
0.1093	-0.671392	-90.0801	215.499	-1.1921	5.22784	6.81313	6.73049	114.291	-2.14758	0
0.1100	24.9907	-446.826	40.6234	-0.59605	4.60977	5.58298	6.73049	-14.8208	-1.51594	0.322298
0.1107	80.194	-878.013	98.6307	0.931328	2.47228	4.03741	7.34056	-156.719	0.315821	0
0.1113	67.9598	-983.642	175.852	0.335278	-1.49367	1.92408	9.78086	-170.46	1.51594	0
0.1120	-21.4099	-736.458	119.979	-1.1921	-3.63116	0.378507	8.24583	-230.242	0.631642	0.322298
0.1127	-89.8173	-673.903	-55.8114	-0.894074	-3.9402	1.29323	6.73049	-322.737	0.315821	0
0.1133	-117.867	-305.897	-367.074	-1.1921	-5.76865	0.378507	6.41561	-294.632	1.51594	0
0.1140	-128.534	378.64	-560.859	-0.59605	-6.97904	-2.96497	6.73049	-207.99	3.03188	0.322298
0.1147	-106.901	219.928	-421.361	0.0372531	-6.97904	-4.19512	7.95063	-44.0889	4.86364	0.322298
0.1153	-61.0967	-301.25	-174.815	0.0372531	-8.21518	-4.79443	8.8559	207.077	6.12692	0
0.1160	-6.19172	-319.927	-12.1382	-0.260772	-11.254	-7.25473	7.34056	308.996	6.6954	0
0.1167	42.0739	-162.734	192.931	-2.12343	-13.3915	-9.68348	4.58539	169.838	5.17946	0
0.1173	74.9721	-96.7825	290.89	-1.49012	-11.254	-8.76876	3.36524	-12.9527	3.3477	0.322298
0.1180	105.856	386.326	67.5227	0.335278	-10.0436	-7.85403	4.29019	-165.562	4.86364	0.322298
0.1187	141.514	1196.51	-58.5562	-2.42145	-12.1811	-9.99891	3.97532	-175.027	6.12692	-0.644596
0.1193	131.742	1223.68	153.588	-5.14093	-12.7734	-11.5129	1.53502	-19.0554	5.49528	-1.93379
0.1200	49.683	669.524	294.245	-4.54488	-9.7346	-9.36806	0.314877	99.0132	4.61098	-0.644596
0.1207	-37.0012	312.152	82.1617	-3.0175	-4.84155	-6.34	-0.590394	204.005	2.14758	0.322298
0.1213	-116.673	201.697	-281.314	-1.78815	0.643823	-2.96497	-0.590394	309.909	1.20012	0
0.1220	-183.812	302.68	-511.391	-2.12343	5.53688	-1.45095	0.0196798	392.317	2.14758	0
0.1227	-163.969	478.729	-521.151	-3.61355	7.67437	-2.64955	-1.81054	339.219	2.4634	0
0.1233	-81.8352	404.02	-284.059	-4.24685	6.43823	-5.10985	-1.81054	109.724	3.97934	0.322298
0.1240	-9.25029	-51.6531	112.965	-3.94883	4.60977	-5.10985	3.36524	-3.81938	4.29516	0.322298
0.1247	52.7416	-449.328	364.147	-3.94883	2.78132	-4.19512	10.6861	98.432	3.3477	0.322298
0.1253	97.5756	-366.308	291.5	-3.31553	1.85421	-3.56428	15.5667	115.204	5.49528	0.322298
0.1260	102.201	-38.2483	56.2384	-3.31553	-1.18463	-5.10985	17.1017	35.5368	7.64286	0.322298
0.1267	67.6614	-16.2645	-99.1186	-3.31553	-6.36097	-7.85403	18.3219	197.611	6.37958	0.322298
0.1273	13.6516	-298.837	-148.281	0.0372531	-10.636	-8.76876	18.007	393.52	3.97934	0.322298
0.1280	-62.9616	-611.615	-212.632	4.32136	-11.5631	-8.76876	14.6614	193.958	0.631642	0.322298
0.1287	-154.495	-799.282	-175.12	7.67414	-8.21518	-7.53861	11.2962	-90.1705	-1.20012	0.322298
0.1293	-193.585	-827.075	-24.0325	9.20152	-5.15058	-7.25473	9.46598	55.381	0	0
0.1300	-197.837	-748.969	-71.9754	9.20152	-5.76865	-7.85403	7.95063	306.256	0.947462	0.322298
0.1307	-170.981	-433.421	-292.598	9.20152	-2.70406	-4.479	7.63576	172.868	-2.14758	0.322298
0.1313	-48.8624	58.2661	-428.681	7.97216	1.57093	-0.536219	7.34056	-205.541	-4.29516	0.322298
0.1320	76.8371	505.003	-344.811	5.21543	1.85421	-0.536219	4.90027	-457.287	-1.83176	0.322298
0.1327	113.465	500.713	-100.339	3.39003	0.334788	-4.19512	2.45997	-429.846	2.14758	0
0.1333	49.683	-7.05985	-28.6072	0.931328	-3.32213	-9.36806	-3.05037	-249.464	4.61098	0.322298
0.1340	-58.6349	-673.545	-114.063	-0.894074	-7.59711	-13.9417	-9.76118	-33.7102	7.01122	0.322298
0.1347	-76.9863	-1184.45	-65.5708	-1.78815	-10.945	-14.8564	-13.4216	33.7102	7.32704	0.322298
0.1353	-56.5461	-994.009	35.4387	-2.12343	-12.7734	-13.3424	-13.1067	-42.5529	6.12692	0
0.1360	-86.4604	-423.323	131.569	-0.894074	-12.4644	-9.68348	-8.83623	5.02331	6.37958	0.322298
0.1367	-58.0381	-207.863	269.542	-0.59605	-13.0825	-7.85403	-3.66044	35.8689	6.6954	0.322298
0.1373	31.3316	137.89	216.109	-1.78815	-17.3575	-9.36806	0.314877	-108.188	7.01122	0.322298
0.1380	73.4801	1040.3	-25.8623	-2.42145	-21.3234	-11.8284	3.36524	-178.971	8.21134	0.322298
0.1387	86.9079	1537.71	-180.914	-1.49012	-17.6665	-10.2828	8.56071	-158.214	8.52716	0.322298
0.1393	98.8438	1175.51	-150.416	0.0372531	-9.42557	-5.70915	13.7365	-154.892	7.95868	0
0.1400	48.1164	781.141	32.6939	-0.59605	-5.15058	-3.8797	14.6614	-65.7597	6.6954	0
0.1407	-44.0135	666.396	178.597	-2.42145	-4.84155	-5.10985	12.2211	93.2426	5.8111	0.322298
0.1413	-51.0258	714.921	341.578	-3.61355	-2.70406	-5.10985	10.3909	169.506	5.17946	0.322298
0.1420	21.9321	800.086	633.322	-2.71948	-1.49367	-3.2804	10.6861	222.935	4.29516	0
0.1427	92.4283	504.734	799.598	-2.12343	-0.875599	-2.36567	10.0761	229.038	3.97934	0
0.1433	104.588	-28.4181	814.298	-2.42145	3.09035	-0.536219	8.56071	-48.0743	3.66352	0.322298
0.1440	46.0276	-163.628	746.226	-2.71948	8.26669	2.20796	7.63576	-261.088	2.4634	0.322298
0.1447	-5.89333	-100.804	471.256	-3.0175	10.0951	2.52338	6.12041	-65.137	0.947462	0.322298
0.1453	-58.3365	-267.738	80.3318	-2.71948	12.2326	4.35284	4.58539	57.5398	0.631642	0.322298
0.1460	-94.6663	-245.754	-194.639	-1.78815	17.4347	8.64259	5.80554	-195.785	0.315821	0.322298
0.1467	-23.2749	83.5564	-270.945	-1.78815	19.8813	11.3868	7.63576	-364.543	-0.884298	0.322298
0.1473	35.0616	26.4521	-179.694	-1.1921	18.3361	10.1566	6.73049	-257.434	0.631642	0.322298
0.1480	-25.7367	-644.591	37.2686	-3.31553	12.8507	2.83881	2.1451	-174.695	2.14758	0
0.1487	-99.8882	-1302.23	168.837	-6.07226	3.09035	-6.62388	-2.12542	-135.962	3.3477	-1.61149
0.1493	-123.387	-1225.38	11.3453	-4.54488	-6.07769	-11.5129	-2.73549	-43.5077	7.32704	-1.28919
0.1500	-111.153	-437.979	-191.284	-2.42145	-10.3527	-14.2571	-3.95564	11.7487	9.79044	0.322298
0.1507	-87.9523	305.45	-127.482	-1.49012	-12.1811	-16.0866	-5.49066	3.19665	10.3589	0.322298
0.1513	-86.162	646.557	4.94068	-1.1921	-16.7394	-18.2314	-5.49066	-0.456665	10.0431	0
0.1520	-94.0695	932.525	-89.9692	-0.260772	-17.0484	-16.6859	-3.95564	56.917	7.64286	0.322298
0.1527	-66.3186	1057.64	-259.965	1.86266	-8.21518	-9.08418	-0.295197	234.228	3.97934	0.322298
0.1533	-28.4223	787.933	-285.279	3.39003	0.643823	-2.05025	4.90027	390.158	0	0.322298
0.1540	-15.9642	604.823	-346.336	4.32136	5.84591	3.43811	9.17078	331.58	-2.4634	0.322298
0.1547	24.6177	648.165	-436.976	5.51346	9.81186	8.01174	9.46598	160.082	-3.66352	0.322298
0.1553	79.2988	617.603	-395.743	4.61938	13.4688	9.84119	7.95063	-49.901	-5.8111	-0.322298
0.1560	97.5756	486.057	-377.139	3.68806	18.6451	11.0713	8.8559	-304.429	-7.01122	-1.28919
0.1567	116.225	325.825	-428.681	2.79398	18.6451	11.0713	10.6861	-388.954	-5.17946	-0.322298
0.1573	115.927	104.021	-419.226	1.26661	12.8507	7.72786	9.78086	-263.828	-2.14758	0.322298
0.1580	39.3137	-233.243	-285.889	-0.894074	9.50283	4.66826	8.56071	-128.946	0.315821	0
0.1587	-46.7736	-562.464	-93.324	-3.61355	7.95765	3.12269	6.41561	7.4727	0.947462	0.322298
0.1593	-55.2779	-617.781	77.892	-4.54488	7.36534	1.92408	4.58539	111.841	1.20012	0.322298
0.1600	-4.92354	-526.45	190.491	-4.24685	6.74727	-0.220796	3.07005	152.443	3.03188	0
0.1607	45.7292	-562.822	254.293	-4.24685	1.57093	-3.8797	1.23983	252.536	4.61098	0.322298
0.1613	48.1164	-572.92	198.725	-3.0175	-4.24923	-7.53861	-1.51534	369.11	4.29516	0.322298
0.1620	12.458	-375.78	-92.4091	-2.12343	-6.36097	-9.08418	-3.05037	368.487	3.3477	0
0.1627	-7.08691	-214.923	-370.734	-1.49012	-4.84155	-7.25473	-2.73549	322.115	3.03188	0
0.1633	-12.6072	-39.41	-324.011	0.335278	-1.18463	-3.56428	-1.20047	300.734	2.77922	0
0.1640	-20.2164	270.33	-132.666	0.335278	0.952858	-2.96497	-0.295197	205.25	1.83176	0
0.1647	4.17755	448.524	-66.7907	-0.894074	2.16325	-2.96497	0.0196798	-2.28332	0.947462	0.322298
0.1653	53.9351	535.208	-101.254	-1.49012	5.22784	-0.820099	0.92495	-234.228	0.315821	0.322298
0.1660	84.1478	571.222	-128.397	-2.42145	8.57572	1.60866	2.45997	-403.276	0.631642	0.322298
0.1667	83.2526	454.332	-71.0604	-2.71948	11.0223	3.43811	4.29019	-401.159	2.14758	0.322298
0.1673	57.5905	310.633	-56.4214	-2.42145	12.5417	4.03741	4.90027	-287.616	2.4634	0.322298
0.1680	29.5412	175.424	-203.483	-3.31553	13.1597	3.43811	3.68012	-253.449	1.83176	0.322298
0.1687	10.5931	-29.9373	-259.965	-4.24685	11.3313	0.69393	2.75517	-170.46	2.4634	0.322298
0.1693	-24.1701	-134.048	-128.702	-4.8429	6.1292	-4.19512	1.53502	89.8799	3.66352	0.322298
0.1700	-76.6879	-155.674	-6.34359	-3.94883	1.85421	-7.25473	0.314877	333.697	4.86364	0.322298
0.1707	-95.5614	-278.372	66.3027	-2.12343	-1.18463	-10.2828	0.0196798	478.668	4.86364	0
0.1713	-61.0967	-264.61	77.892	-1.1921	-2.11174	-13.027	-0.590394	484.77	3.3477	0.322298
0.1720	-4.92354	-147.81	95.8858	0.633303	-1.18463	-12.7431	-0.590394	147.254	1.83176	0
0.1727	34.0918	-258.891	147.184	2.79398	0.334788	-12.1122	0.0196798	-295.877	-0.315821	0
0.1733	50.2798	-367.47	44.5881	5.21543	5.53688	-10.2828	1.53502	-384.055	-3.3477	0.322298
0.1740	55.2033	-211.259	-90.8842	7.33886	13.7778	-6.02458	6.73049	-236.967	-6.6954	0
0.1747	47.5196	87.2204	-75.3302	7.97216	23.5382	-0.536219	14.6614	-203.714	-10.9906	0
0.1753	22.2305	273.368	112.05	7.97216	34.818	6.81313	20.7622	-222.313	-14.0224	0.322298
0.1760	-29.0936	-67.2026	378.176	6.44479	39.0929	10.7559	21.9823	-100.549	-13.454	0.322298
0.1767	-63.26	-840.837	444.113	4.61938	33.6076	8.01174	20.467	-18.4742	-10.9906	0
0.1773	-40.0597	-1368.81	320.473	4.32136	25.0576	3.75353	19.2468	-41.3489	-7.95868	0
0.1780	-17.4562	-1515.9	115.405	3.98608	15.9153	-1.45095	14.6614	18.4742	-6.37958	0.322298
0.1787	-16.2626	-1602.59	-168.715	4.32136	5.22784	-7.25473	9.17078	-10.2127	-4.54782	0.322298
0.1793	0.223797	-1309.56	-307.542	4.32136	-4.24923	-12.4277	-3.66044	-165.562	-0.631642	0.322298
0.1800	0.522194	300.267	-307.237	3.39003	-13.7006	-18.5469	-28.3783	-180.217	2.77922	-0.322298
0.1807	-4.92354	1727.52	-296.258	3.39003	-18.8769	-22.4897	-43.9253	-102.999	3.66352	-1.93379
0.1813	44.1627	1155.67	-102.473	3.98608	-16.7394	-22.2058	-52.7812	-108.811	3.03188	-1.61149
0.1820	92.7267	496.781	142.304	3.39003	-11.8721	-19.4616	-67.7378	-119.771	2.4634	0
0.1827	83.2526	761.391	191.406	3.09201	-6.97904	-17.3167	-70.493	55.7131	1.20012	0.322298
0.1833	64.006	799.818	141.084	2.4587	-2.11174	-16.402	-67.423	300.153	-0.631642	0
0.1840	47.2212	507.147	91.6161	2.16068	0.0257529	-16.402	-68.0527	401.45	0	0.322298
0.1847	14.2484	362.465	37.8786	2.16068	-0.566564	-16.6859	-64.0774	350.802	0.631642	0.322298
0.1853	18.5752	395.709	-15.188	1.56463	-1.49367	-16.6859	-69.2729	156.719	-0.631642	0.322298
0.1860	72.5849	438.515	9.51539	0.931328	-0.875599	-15.7711	-95.8209	-115.495	0	0.322298
0.1867	109.213	472.384	76.0621	-0.59605	-0.566564	-16.0866	-135.791	-301.648	0.947462	0.322298
0.1873	107.348	395.709	92.2261	-1.78815	-1.49367	-14.8564	-167.534	-242.157	1.51594	0.322298
0.1880	87.2063	204.11	93.751	-2.71948	-2.39502	-13.027	-186.446	0.16606	1.51594	0.322298
0.1887	60.6491	101.251	34.2188	-3.31553	-2.39502	-12.1122	-190.107	194.871	1.83176	0
0.1893	34.6886	53.351	-27.9972	-3.0175	-1.49367	-9.99891	-168.754	292.224	3.3477	0.322298
0.1900	-7.38531	-10.0983	25.9843	-4.24685	-0.566564	-8.16945	-143.426	343.163	3.97934	0.322298
0.1907	-70.8691	3.30651	13.7851	-6.37028	0.0257529	-8.76876	-133.055	233.937	4.61098	0.322298
0.1913	-106.602	85.7012	-78.075	-7.30161	-3.32213	-28.2934	-129.69	-43.1756	6.6954	0.322298
0.1920	-96.8296	116.8	-53.9815	-7.59963	-11.254	-62.4853	-131.52	-197.902	7.95868	0.322298
0.1927	-65.0504	42.091	22.9345	-6.66831	-16.7394	-83.8394	-124.809	-245.52	7.95868	0
0.1933	-37.5979	-33.0651	53.7985	-5.47621	-26.8088	-92.7028	-77.499	-314.808	7.32704	0
0.1940	-48.2656	-22.6094	53.7985	-3.61355	-44.2178	-98.7904	5.80554	-240.33	6.37958	0
0.1947	-76.9863	-30.9203	7.38053	-2.42145	-52.7677	-96.3617	87.2995	-58.7437	4.86364	0
0.1953	-57.4413	-86.4161	-19.7627	-3.0175	-52.4587	-75.6069	165.113	36.4501	5.17946	0
0.1960	-4.92354	-88.829	25.3744	-3.94883	-54.5962	-44.4746	264.91	12.9527	8.21134	0
0.1967	7.53451	-87.6672	56.2384	-5.77423	-48.4928	-17.0013	325.031	-103.289	9.1588	0
0.1973	-7.38531	-124.307	66.3027	-6.66831	-18.8769	13.5001	310.37	-210.107	6.37958	0.322298
0.1980	-1.26818	-136.461	60.5081	-4.54488	25.3666	50.4361	289.627	-134.135	3.3477	0.322298
0.1987	10.5931	-147.184	-13.9681	-0.894074	60.4679	75.1653	253.909	-11.7487	0	0.322298
0.1993	8.2059	-159.696	-93.324	2.79398	81.508	80.0543	174.265	-22.1275	-3.03188	0
0.2000	19.7688	-152.01	-103.388	3.98608	91.5774	47.0926	111.407	13.866	-4.29516	0.322298
0.2007	45.1325	-175.245	-73.1953	3.09201	83.6455	8.01174	87.5947	147.876	-5.8111	0.322298
0.2013	58.5603	-151.742	-50.9317	3.68806	71.4386	26.3378	41.2095	193.958	-7.32704	0.322298
0.2020	61.2459	-14.3878	-65.5708	5.81148	72.3657	53.1803	-36.3092	70.9491	-8.84298	0
0.2027	24.9907	28.3288	-10.3083	7.97216	75.4046	40.3741	-87.5751	-56.2943	-11.6222	0.322298
0.2033	-19.6196	-98.0336	152.063	8.86624	69.9192	15.9604	-93.9907	-103.289	-14.3383	0.322298
0.2040	-11.6375	-175.513	215.499	8.27019	55.5748	4.03741	-77.2038	-159.459	-15.5384	0
0.2047	-12.9056	-135.567	116.015	7.33886	39.402	17.7899	-63.1524	-120.684	-14.6541	0.322298
0.2053	-35.8076	-81.8585	35.1337	6.14676	29.0235	36.3998	-57.3666	29.1435	-12.8223	0.322298
0.2060	-18.053	-63.2705	41.2334	5.81148	14.3701	29.6813	-45.7555	128.032	-10.3589	0.322298
0.2067	19.7688	-66.3089	40.6234	4.91741	-10.3527	12.5854	-14.3269	65.7597	-8.84298	0
0.2073	33.7934	-69.0793	8.29547	3.09201	-16.7394	4.95214	32.0584	-34.6235	-8.84298	0.322298
0.2080	17.9038	-71.1347	-2.98881	3.09201	-2.11174	3.43811	79.6638	-37.0729	-9.79044	0.322298
0.2087	-12.6072	-76.9434	10.7353	2.79398	6.43823	0.69393	113.848	-53.8449	-10.3589	-1.28919
0.2093	-45.8784	-77.3009	7.07555	2.79398	7.67437	-2.36567	100.721	-67.2958	-9.47462	-2.57838
0.2100	-63.8568	-72.6539	-0.548965	4.32136	9.81186	-1.73483	46.7001	-51.1049	-7.95868	-0.644596
0.2107	-44.3119	-75.1561	11.6503	4.32136	9.50283	0.0946269	11.9063	-66.6731	-7.95868	0.322298
0.2113	-16.2626	-78.1945	19.2748	3.39003	8.57572	-0.220796	14.6614	-91.0839	-9.1588	0.322298
0.2120	-14.3976	-73.905	15.92	2.79398	7.95765	-0.220796	14.3466	-104.203	-8.52716	0.322298
0.2127	-18.6498	-74.2624	15.615	1.86266	7.36534	2.52338	0.92495	-82.5318	-6.12692	0.322298
0.2133	-6.19172	-84.2713	18.3598	0.335278	7.0563	6.18229	-9.4463	-48.0743	-4.29516	0.322298
0.2140	8.5043	-91.5993	16.5299	-0.59605	7.36534	11.6706	-14.3269	-16.0248	-2.14758	0
0.2147	10.5931	-91.5993	9.51539	-2.42145	7.36534	16.2443	-11.2765	38.8995	0.315821	0.322298
0.2153	15.2182	-95.2633	9.21041	-5.77423	7.36534	18.7046	1.23983	71.8624	4.29516	0.322298
0.2160	27.9747	-99.5528	21.1046	-8.19568	8.57572	20.8495	30.2282	86.8078	9.1588	0.322298
0.2167	32.8982	-93.476	33.9138	-8.19568	8.57572	21.1333	60.4366	114	10.3589	0.322298
0.2173	32.8982	-76.3178	51.9687	-7.00358	7.67437	24.7922	105.917	83.7772	8.84298	0.322298
0.2180	34.0918	-55.5851	76.0621	-6.37028	7.0563	28.7666	178.85	6.55937	7.64286	0.322298
0.2187	18.8736	-28.7756	78.8069	-5.47621	6.1292	24.5084	210.279	-10.2127	6.12692	0.322298
0.2193	-7.68371	-6.1662	55.0185	-2.71948	4.91881	16.2443	196.857	30.0568	3.03188	0
0.2200	-29.0936	-8.93652	29.6441	-0.260772	3.9917	10.1566	174.265	54.7583	0.315821	0.322298
0.2207	-49.8322	-16.5326	12.8702	1.56463	3.9917	5.58298	113.533	38.3183	0.631642	0.322298
0.2213	-61.9918	-8.31096	5.24566	1.86266	3.39939	3.43811	43.0397	-4.4421	0.947462	0.322298
0.2220	-47.9672	-1.60857	11.9552	-0.59605	3.09035	5.58298	11.6111	-35.2462	0.947462	0.322298
0.2227	-28.4223	-1.60857	23.8495	-1.1921	4.30074	8.01174	12.2211	-40.4356	3.03188	0
0.2233	-19.918	-2.23413	28.4242	0.0372531	3.9917	2.83881	21.9823	-44.7116	3.66352	0.322298
0.2240	6.34092	-6.43429	43.6732	1.56463	3.39939	-6.02458	25.3476	-44.0889	1.83176	0.322298
0.2247	47.2212	-14.1197	76.6721	4.32136	2.78132	-12.1122	35.4039	-23.0408	-0.315821	0
0.2253	65.2742	-15.907	74.5372	6.44479	1.26189	-15.7711	38.7692	-1.36999	-3.3477	0
0.2260	49.3846	-9.20461	21.4096	9.20152	0.643823	-16.402	9.78086	16.6475	-5.17946	0
0.2267	10.5931	-4.91508	-16.103	10.7289	0.334788	-15.1718	-51.561	30.6796	-4.86364	0.322298
0.2273	-24.1701	-6.43429	-7.56352	10.7289	-0.257529	-13.027	-128.155	23.0408	-4.54782	0.322298
0.2280	-34.241	-12.8686	18.6648	11.3249	-0.566564	-11.5129	-178.83	21.8369	-5.49528	0.322298
0.2287	-37.2995	-19.3029	27.2043	10.0956	-0.875599	-11.1975	-194.987	48.3649	-4.54782	0.322298
0.2293	-36.7028	-16.89	6.77057	5.51346	0.334788	-6.02458	-192.252	46.8289	2.14758	0.322298
0.2300	-20.8131	-11.3494	-21.8976	-0.59605	2.47228	4.03741	-158.993	-1.36999	11.6222	0.322298
0.2307	-2.83477	-11.7068	-35.3167	-7.00358	3.70842	15.645	-104.657	-17.8514	19.5177	0.322298
0.2313	4.17755	-10.0983	-20.3727	-11.2504	5.22784	25.1077	-57.6618	9.63147	25.6446	0.322298
0.2320	-1.26818	-5.27254	10.7353	-12.7778	6.1292	30.9114	-1.51534	11.7487	28.6765	0.322298
0.2327	-8.2805	-5.54064	32.6939	-12.4798	5.84591	33.0563	83.0093	-28.5208	28.6765	0.322298
0.2333	-10.1455	-8.04286	50.1388	-10.0583	5.53688	30.3121	130.024	-51.7277	24.6972	0.322298
0.2340	-4.32675	-11.7068	53.1886	-6.07226	4.30074	24.1929	106.212	-30.9702	18.6334	0.322298
0.2347	13.3532	-15.2814	3.1108	-1.78815	3.70842	16.5597	71.7328	-3.81938	14.0224	0.322298
0.2353	25.5875	-14.7453	-53.6766	0.633303	3.09035	9.24189	45.1848	14.1981	10.3589	0.322298
0.2360	26.1843	-13.7622	-43.2462	1.86266	1.57093	5.86687	26.2528	28.2302	7.01122	0.322298
0.2367	36.5536	-14.7453	-2.07387	2.79398	1.26189	2.20796	9.46598	37.6956	7.32704	0.322298
0.2373	47.5196	-14.1197	4.02574	0.335278	1.26189	-0.820099	-3.05037	36.1595	7.32704	0.322298
0.2380	36.5536	-12.243	-4.81869	-2.71948	0.952858	7.72786	12.8312	22.4181	8.84298	0.644596
0.2387	17.6054	-16.5326	5.85562	-4.24685	-0.257529	16.5597	22.2972	10.8354	10.0431	-0.322298
0.2393	1.79038	-22.0732	12.8702	-4.8429	-1.8027	15.0457	-14.3269	15.7342	7.32704	-2.57838
0.2400	-3.72995	-15.0133	-1.15893	-2.12343	-1.49367	10.1566	-81.1594	29.7662	4.29516	-1.28919
0.2407	0.522194	-2.77032	-21.2876	1.26661	-3.01309	0.378507	-142.816	26.4035	0.315821	0.322298
0.2413	-8.95189	0.893652	-33.1819	4.32136	-6.67001	-16.402	-195.597	9.00875	-5.8111	-1.28919
0.2420	-25.7367	1.7873	-28.3022	8.56821	-8.21518	-28.6089	-257.549	3.19665	-10.0431	-1.93379
0.2427	-29.9888	5.09381	-15.493	11.0269	-10.3527	-36.526	-316.451	5.64604	-13.454	0
0.2433	-23.2749	7.59604	-8.17348	11.921	-12.7734	-43.5599	-340.264	6.26876	-16.4858	-0.644596
0.2440	-14.3976	7.59604	-2.98881	11.921	-13.7006	-44.4746	-320.722	6.55937	-15.5384	-2.25609
0.2447	-9.54868	5.71937	1.89088	9.20152	-14.0096	-37.7561	-284.727	13.5754	-10.6747	-2.25609
0.2453	-9.25029	4.20016	2.50084	5.51346	-13.7006	-26.7794	-209.039	23.0408	-4.86364	-1.28919
0.2460	-8.2805	5.71937	-2.07387	4.91741	-13.7006	-19.1462	-90.3302	15.1115	-0.884298	0
0.2467	-5.59493	6.61302	-6.34359	6.74281	-14.3186	-17.916	25.0327	2.28332	-1.83176	0.322298
0.2473	-3.43156	4.46826	-7.25853	10.0956	-15.22	-20.3763	136.125	11.126	-5.49528	0
0.2480	-3.72995	4.82572	-6.03861	14.0817	-16.4561	-25.8647	234.701	31.5929	-10.3589	0.322298
0.2487	-4.02835	5.09381	-5.12367	14.9757	-17.3575	-31.6685	306.414	40.7262	-12.8223	0.322298
0.2493	-3.72995	3.93207	-4.51371	12.8523	-16.4561	-34.6965	352.189	41.9716	-9.1588	0.322298
0.2500	-6.49012	4.46826	-5.12367	7.04084	-15.22	-30.7537	346.994	32.7968	-2.71606	0
0.2507	-7.08691	4.82572	-5.73363	-0.59605	-13.3915	-17.0013	277.406	2.57393	6.37958	0
0.2513	-3.43156	3.57461	-4.51371	-7.30161	-12.1811	-0.536219	143.131	-18.142	16.8017	0.322298
0.2520	-1.86498	3.57461	-5.12367	-12.7778	-12.4644	9.84119	-24.4029	-10.2127	23.1812	0.322298
0.2527	0.223797	5.09381	-5.73363	-13.4111	-12.4644	14.7302	-130.595	4.4421	24.1287	0
0.2533	2.98396	6.61302	-3.29379	-8.82899	-12.7734	13.8155	-147.382	12.6621	19.5177	0.322298
0.2540	2.08877	6.07683	-1.15893	-4.8429	-14.0096	5.58298	-120.224	15.7342	11.8749	0.322298
0.2547	2.38717	4.82572	-1.15893	-2.12343	-14.6019	-1.45095	-72.3232	14.4887	7.64286	0.322298
0.2553	2.68557	4.46826	-1.46391	0.335278	-15.529	-5.39373	-10.9813	11.126	5.49528	0.322298
0.2560	1.49198	6.34493	0.0609961	-1.49012	-15.22	-6.62388	60.7318	11.4581	7.01122	0.322298
0.2567	-0.0745991	10.6345	0.670957	-6.37028	-14.6019	-0.220796	148.327	14.4887	13.1381	0.322298
0.2573	-2.23797	12.1537	-2.07387	-9.12701	-14.0096	7.72786	225.53	15.1115	16.17	-0.644596
0.2580	-3.13316	12.7792	-5.42865	-8.82899	-12.7734	9.55731	239.267	15.7342	16.4858	-1.61149
0.2587	-3.13316	13.941	-5.73363	-7.89766	-12.1811	8.92647	210.889	17.5608	16.8017	0
0.2593	-4.02835	13.6729	-5.12367	-7.00358	-12.7734	7.41244	196.857	18.142	14.6541	0.322298
0.2600	-4.32675	12.7792	-5.42865	-4.24685	-13.7006	2.20796	172.139	18.7648	10.3589	0
0.2607	-2.53637	12.4218	-5.42865	-1.1921	-13.7006	-4.479	102.847	20.3008	9.1588	0.322298
0.2613	-2.53637	11.5281	-6.03861	-1.49012	-13.7006	-4.79443	20.1521	22.1275	11.6222	0.322298
0.2620	-4.02835	11.26	-6.95355	-4.24685	-13.7006	-0.536219	-46.6805	22.7502	14.3383	0.322298
0.2627	-2.53637	13.0473	-7.56352	-4.8429	-12.4644	3.43811	-100.997	23.0408	18.0018	0.322298
0.2633	-1.26818	14.2984	-9.3934	-4.24685	-12.4644	3.75353	-112.293	22.4181	18.9492	0
0.2640	-1.86498	14.5665	-8.78344	-2.42145	-14.0096	-0.536219	-53.3913	22.1275	16.17	0
0.2647	1.11899	15.1921	-2.68383	0.633303	-13.7006	-2.96497	6.41561	25.1581	14.3383	0
0.2653	0.522194	12.7792	0.975937	-0.260772	-13.3915	-3.56428	36.014	27.0263	12.8223	0.322298
0.2660	-3.72995	10.6345	-2.37885	-2.12343	-13.3915	-1.13552	24.1274	26.6941	12.1907	0.322298
0.2667	-4.62514	11.5281	-7.25853	-1.78815	-11.8721	4.35284	-91.8456	26.6941	12.8223	0.322298
0.2673	-7.08691	11.5281	-10.3083	-3.31553	-10.945	4.95214	-222.165	26.4035	12.1907	0.322298
0.2680	-9.54868	10.6345	-10.6133	-3.0175	-9.7346	0.69393	-296.004	27.6075	9.79044	0.322298
0.2687	-9.84708	7.86413	-9.69838	-1.78815	-8.8075	-2.36567	-383.284	27.9396	5.49528	-1.28919
0.2693	-11.6375	5.45127	-8.78344	-2.71948	-8.49846	-4.19512	-456.217	27.0263	0.947462	-2.25609
0.2700	-13.5024	7.59604	-7.8685	-1.49012	-7.28808	-7.53861	-477.884	29.7662	-0.315821	-0.644596
0.2707	-14.3976	9.11525	-6.95355	0.633303	-5.45962	-10.5982	-491.011	32.2156	0.315821	0.322298
0.2713	-15.6658	7.59604	-6.64857	-0.260772	-3.63116	-12.1122	-471.173	31.2608	0.947462	0.322298
0.2720	-16.8594	6.97048	-6.95355	-3.31553	-2.70406	-15.7711	-359.176	30.6796	2.14758	0.322298
0.2727	-15.2928	6.61302	-6.03861	-4.8429	-2.39502	-18.2314	-233.146	30.3474	2.4634	0.322298
0.2733	-14.9944	5.71937	-5.12367	-5.47621	-1.8027	-13.9417	-145.257	29.7662	2.77922	0
0.2740	-17.4562	4.46826	-5.73363	-7.00358	0.952858	0.378507	-46.6805	30.3474	5.17946	0
0.2747	-18.3514	4.20016	-4.51371	-8.53096	3.9917	13.5001	43.6498	30.3474	9.47462	0.322298
0.2753	-19.3212	3.30651	-3.90375	-8.53096	4.30074	10.7559	158.088	29.1435	9.1588	0
0.2760	-21.4099	2.68095	-4.20873	-5.47621	3.39939	1.60866	293.898	28.8529	5.8111	0
0.2767	-14.9944	2.94905	-3.29379	-2.12343	3.70842	-8.76876	324.421	29.4341	5.49528	0.322298
0.2773	1.49198	2.68095	-4.20873	-2.12343	2.47228	-17.916	249.638	28.2302	3.3477	0.322298
0.2780	11.8613	2.0554	-4.51371	-2.12343	1.85421	-15.4873	193.807	27.9396	0.947462	0
0.2787	13.3532	1.7873	-3.59877	-0.894074	2.16325	-12.7431	238.657	29.1435	1.20012	0.322298
0.2793	12.458	1.16175	-2.98881	-2.12343	1.57093	-14.8564	320.446	29.4341	1.83176	0.322298
0.2800	-4.02835	-0.357461	-1.46391	-1.78815	1.26189	-14.5725	347.309	29.1435	0	0
0.2807	-26.6319	-2.23413	0.975937	1.86266	0.0257529	-13.3424	369.882	28.8529	-3.3477	0.322298
0.2813	-21.4099	-3.12778	4.33072	4.61938	-0.875599	-13.6578	386.058	29.4341	-5.17946	0.322298
0.2820	-26.0351	-5.27254	7.38053	5.21543	-1.8027	-21.291	339.063	30.3474	-6.37958	0.322298
0.2827	-105.036	-8.04286	9.51539	3.98608	-2.70406	-27.978	267.645	29.7662	-7.01122	0
0.2833	-159.045	-9.56207	13.1752	3.68806	-2.39502	-22.4897	207.228	30.6796	-6.12692	0.322298
0.2840	-70.8691	-11.7068	15.005	3.68806	-2.11174	-17.916	138.861	31.5929	-7.64286	0.322298
0.2847	45.1325	-12.243	14.3951	2.79398	-3.01309	-17.0013	47.015	32.2156	-7.64286	0.322298
0.2853	72.5849	-8.31096	11.9552	1.86266	-2.39502	-12.7431	-49.4356	37.3635	-4.54782	0.322298
0.2860	50.8766	-3.75334	6.77057	0.633303	-2.70406	-10.2828	-115.048	44.421	-4.54782	0.322298
0.2867	74.9721	2.0554	0.975937	1.86266	-2.39502	-6.9393	-159.898	52.0183	-4.29516	0.322298
0.2873	190.377	9.38334	-5.12367	2.4587	-0.566564	-0.820099	-182.491	59.9476	-0.884298	0.322298
0.2880	301.753	12.4218	-10.0034	0.0372531	-0.257529	1.29323	-152.263	64.5558	0.631642	0.322298
0.2887	278.255	13.4048	-10.3083	0.335278	0.643823	1.60866	-79.034	66.3824	1.83176	0.322298
0.2893	96.382	14.5665	-10.6133	0.633303	2.78132	2.83881	-26.2332	65.7597	3.3477	0.322298
0.2900	-120.627	12.7792	-10.3083	-1.78815	4.30074	2.52338	-8.22615	63.3103	4.61098	0.322298
0.2907	-203.656	7.23858	-4.20873	-4.24685	5.22784	8.32716	44.5747	57.5398	7.01122	0.322298
0.2913	-61.0967	2.41286	-0.243984	-7.59963	6.1292	19.3039	116.898	48.3649	9.79044	0.322298
0.2920	182.768	1.42984	0.975937	-9.12701	7.95765	23.5936	159.623	46.8289	11.6222	0.322298
0.2927	167.773	1.16175	4.02574	-7.30161	9.81186	24.5084	177.63	56.0037	10.0431	0.322298
0.2933	-161.507	0.536191	6.46559	-3.61355	8.57572	28.1673	145.571	67.5864	6.12692	0.322298
0.2940	-357.404	1.16175	5.24566	0.335278	6.43823	28.1673	91.5701	73.6891	3.03188	0.322298
0.2947	-222.529	2.68095	-1.15893	-0.59605	3.9917	24.1929	81.494	71.8624	0	0
0.2953	-29.392	6.34493	-7.56352	-1.1921	3.39939	21.4488	103.772	71.5718	-0.884298	0
0.2960	112.868	12.4218	-13.3581	1.56463	5.53688	16.8751	120.854	71.8624	1.83176	0.322298
0.2967	202.91	16.0857	-20.3727	0.335278	6.74727	7.09701	114.753	59.9476	0.947462	0.322298
0.2973	113.764	19.1241	-25.5574	0.633303	7.0563	-0.536219	99.7962	40.145	-1.83176	0.322298
0.2980	-78.4782	22.7881	-30.437	2.16068	6.43823	-3.8797	88.8149	26.1129	-3.03188	0
0.2987	-192.316	24.3073	-34.4018	1.26661	4.91881	-4.19512	82.3993	20.3008	-4.86364	-1.28919
0.2993	-283.551	27.7032	-35.3167	3.68806	5.53688	2.20796	99.501	24.2447	-5.49528	-0.966894
0.3000	-360.463	34.1375	-38.9765	7.97216	6.1292	7.09701	136.125	30.9702	-5.17946	0.322298
0.3007	-189.556	32.8864	-42.9412	8.27019	5.22784	6.18229	155.037	24.5769	-7.01122	0.322298
0.3013	121.074	17.6049	-34.0968	6.14676	3.70842	6.49771	153.207	-0.456665	-8.52716	0.322298
0.3020	224.543	-4.91508	-15.188	4.61938	2.47228	6.49771	147.106	-33.7102	-6.6954	0.322298
0.3027	153.45	-20.8221	0.975937	4.91741	2.16325	5.86687	118.728	-56.2943	-4.54782	0.322298
0.3033	70.4215	-27.8819	10.7353	4.32136	1.85421	6.18229	56.1661	-62.397	-2.71606	0
0.3040	25.8859	-32.7076	17.4449	1.56463	1.85421	7.09701	-2.73549	-68.2091	-0.884298	0.322298
0.3047	60.6491	-38.7845	24.1545	0.335278	1.85421	8.92647	-19.8175	-78.5879	0.315821	0.322298
0.3053	120.179	-42.4484	28.4242	0.335278	1.26189	10.7559	-17.3773	-83.4451	0	0.322298
0.3060	73.7785	-41.2867	30.2541	0.0372531	0.334788	8.32716	-22.8679	-75.8479	0	0.322298
0.3067	-87.0571	-36.9972	34.2188	1.86266	0.643823	5.86687	-34.7742	-61.1931	2.77922	0.322298
0.3073	-174.338	-34.5843	37.5736	3.09201	-0.875599	4.03741	-50.0457	-53.8449	3.03188	0.322298
0.3080	-20.5148	-32.4396	34.2188	0.633303	-3.01309	-1.13552	-63.4673	-51.4371	-0.631642	0.322298
0.3087	231.854	-24.218	27.8142	0.931328	-2.11174	-2.64955	-56.7565	-38.3183	-0.884298	0.322298
0.3093	213.876	-15.0133	22.0196	2.79398	-0.875599	1.92408	-36.3092	-21.5048	0.315821	0
0.3100	-114.51	-8.93652	17.1399	1.86266	-1.18463	6.81313	-57.0517	-5.93664	0	0
0.3107	-345.841	-4.91508	15.31	2.79398	-1.18463	10.7559	-113.218	7.7633	0.947462	0.322298
0.3113	-277.807	-2.23413	12.5652	4.32136	-1.18463	14.4148	-135.791	14.1981	0.947462	0.322298
0.3120	-38.1947	4.46826	2.50084	3.09201	-1.8027	16.5597	-122.369	20.9235	-0.631642	0.322298
0.3127	190.377	18.856	-14.5781	3.09201	-1.18463	19.02	-111.998	35.5368	-1.51594	0.322298
0.3133	210.22	33.1545	-30.437	4.32136	0.952858	20.534	-106.192	50.5237	-1.51594	0
0.3140	49.0862	38.6951	-38.0616	4.32136	2.16325	17.7899	-85.1348	59.657	0.947462	0.322298
0.3147	-56.5461	35.6567	-39.2815	3.09201	0.643823	14.1309	-63.1524	59.3664	1.83176	0.322298
0.3153	-23.5733	26.8095	-34.7068	1.56463	-1.18463	12.3015	-54.0013	51.1049	2.14758	0.322298
0.3160	117.121	16.7113	-24.3374	1.56463	-1.18463	11.3868	-39.9697	43.5077	5.49528	0
0.3167	270.347	7.59604	-14.2731	0.633303	-2.11174	7.09701	-11.8866	30.9702	6.12692	0.322298
0.3173	212.607	1.42984	-6.64857	0.335278	-2.11174	1.92408	20.467	13.866	5.49528	0
0.3180	-46.7736	-0.0893652	-2.07387	1.86266	-1.49367	1.00935	42.1344	-0.16606	6.37958	0.322298
0.3187	-239.314	-2.77032	1.28092	1.26661	-3.32213	0.378507	47.6251	-17.8514	2.77922	0.322298
0.3193	-279.597	-2.77032	4.6357	1.26661	-4.24923	0.378507	56.1661	-28.5208	0.315821	0.322298
0.3200	-243.566	3.93207	5.55064	3.68806	-2.70406	1.92408	48.2352	-24.8675	1.20012	0.322298
0.3207	-114.51	8.48969	2.19586	2.79398	-2.70406	0.0946269	-19.8175	-25.4902	0	0.322298
0.3213	96.9788	10.6345	-2.37885	0.633303	-2.70406	-2.96497	-119.614	-33.129	-1.20012	0.322298
0.3220	262.663	15.8176	-6.95355	1.86266	-1.18463	-3.2804	-187.666	-39.5223	-0.315821	0.322298
0.3227	288.624	19.7497	-11.5283	2.16068	0.334788	-4.479	-206.284	-43.7983	0	0.322298
0.3233	196.792	18.588	-13.0532	-0.59605	0.952858	-8.76876	-192.252	-45.3344	0	0
0.3240	80.194	20.6434	-15.798	-1.78815	1.57093	-10.9136	-159.288	-37.0729	1.20012	0
0.3247	-6.78852	28.3288	-21.5926	-0.59605	1.57093	-9.36806	-124.199	-18.7648	1.83176	0.322298
0.3253	-87.9523	30.7416	-23.7275	0.0372531	0.334788	-7.85403	-95.2108	-7.7633	0.315821	0.322298
0.3260	-191.72	24.9329	-19.1528	-1.1921	-0.257529	-8.45333	-35.6991	-11.126	0.947462	0.322298
0.3267	-281.462	18.588	-13.6631	-1.1921	0.334788	-8.45333	46.4049	-15.7342	3.97934	0.322298
0.3273	-271.69	12.1537	-10.9183	-0.59605	0.0257529	-8.76876	77.5187	-21.5048	3.03188	0.322298
0.3280	-174.935	7.23858	-11.8332	-0.894074	-0.566564	-11.5129	73.8582	-29.7662	0.315821	0.322298
0.3287	-94.3679	4.46826	-10.9183	0.0372531	-0.257529	-11.8284	89.425	-36.1595	0.315821	-0.644596
0.3293	-22.6781	-1.25111	-3.29379	0.931328	-0.566564	-9.36806	97.966	-40.4356	0.631642	-0.966894
0.3300	33.7934	-10.0983	6.1606	0.931328	-1.8027	-9.68348	74.1731	-45.625	-0.315821	0
0.3307	27.0795	-17.4262	13.7851	1.86266	-2.11174	-11.1975	42.7445	-52.3504	0.315821	0.322298
0.3313	19.172	-22.6094	17.7499	2.4587	-2.39502	-9.99891	23.5173	-62.7291	1.20012	0.322298
0.3320	20.0672	-24.218	16.8349	1.86266	-3.32213	-6.34	13.4413	-73.1079	0.315821	0.322298
0.3327	-14.696	-19.3029	14.7001	3.39003	-3.32213	-0.536219	-0.590394	-67.0052	1.51594	0.322298
0.3333	-21.4099	-11.7068	11.0403	3.98608	-2.70406	2.83881	-32.3339	-45.9156	2.4634	0.322298
0.3340	-18.053	-4.64699	7.07555	3.09201	-2.11174	1.92408	-59.8069	-28.2302	2.14758	0.322298
0.3347	-86.4604	1.42984	2.19586	2.79398	-1.49367	-0.536219	-64.0774	-19.6781	2.77922	0.322298
0.3353	-141.962	5.71937	-4.20873	3.09201	-1.49367	-1.73483	-60.7121	-13.866	2.14758	0.322298
0.3360	-152.033	9.7408	-8.78344	3.68806	-2.11174	-3.2804	-55.5364	-2.57393	1.51594	0.322298
0.3367	-162.104	13.4048	-9.69838	5.51346	-1.18463	-4.79443	-44.8502	5.64604	2.77922	0.322298
0.3373	-125.177	12.7792	-7.56352	6.74281	-0.566564	-5.10985	-25.3279	4.10998	3.97934	0.322298
0.3380	-11.9359	10.6345	-6.03861	5.81148	-1.8027	-4.79443	11.2962	2.57393	3.66352	0.322298
0.3387	137.561	9.7408	-5.42865	5.51346	-2.70406	-4.479	49.7505	0.456665	2.77922	0.322298
0.3393	240.134	6.97048	-3.29379	5.51346	-2.70406	-4.19512	79.959	-8.38603	3.03188	0.322298
0.3400	238.568	2.68095	1.5859	5.51346	-2.39502	-3.8797	114.458	-17.8514	3.97934	0.322298
0.3407	182.096	-1.60857	7.07555	5.51346	-2.39502	-3.56428	119.948	-23.3314	4.61098	0.322298
0.3413	148.228	-5.54064	10.7353	4.32136	-2.39502	-2.64955	66.8522	-22.7502	4.29516	0.322298
0.3420	139.724	-9.83017	13.7851	2.16068	-2.11174	1.60866	9.17078	-19.0554	4.61098	0
0.3427	72.2865	-13.7622	16.5299	0.633303	-1.18463	5.86687	-12.2015	-19.9687	5.49528	0
0.3433	-81.5368	-16.2645	20.4947	1.26661	-0.566564	9.24189	-14.3269	-20.9235	6.37958	0.322298
0.3440	-154.793	-18.4092	26.5943	3.98608	0.334788	10.1566	-16.7672	-16.6475	8.21134	0.322298
0.3447	-25.7367	-17.4262	25.9843	3.09201	-1.18463	5.26756	-20.1324	-10.8354	6.12692	0.322298
0.3453	117.419	-9.20461	17.4449	2.4587	-2.11174	0.69393	-20.4276	0.74727	3.03188	0.322298
0.3460	37.4487	7.86413	4.6357	4.32136	-0.875599	0.0946269	-28.9883	20.3008	2.4634	0
0.3467	-199.627	23.1456	-9.08842	3.39003	-0.566564	-2.05025	-44.8502	31.5929	1.51594	0
0.3473	-311.377	28.3288	-15.493	3.39003	0.0257529	-3.2804	-57.6618	29.1435	2.77922	0.322298
0.3480	-179.485	32.2608	-20.3727	4.91741	1.85421	-1.13552	-74.4486	25.7808	5.49528	0.322298
0.3487	42.0739	38.6951	-31.047	3.39003	1.85421	-1.73483	-89.0904	26.4035	4.29516	0.322298
0.3493	198.881	42.6272	-36.8416	3.39003	3.09035	-0.820099	-88.7952	27.9396	3.3477	0.322298
0.3500	227.602	38.6951	-32.2669	4.91741	4.60977	1.92408	-82.3796	19.9687	5.49528	0.322298
0.3507	97.2772	28.5968	-25.5574	3.68806	3.9917	3.12269	-69.8829	3.52877	6.12692	0
0.3513	-107.497	20.3753	-20.3727	2.16068	3.39939	3.43811	-48.8256	-8.09542	6.12692	0
0.3520	-207.311	15.8176	-16.4079	2.4587	3.09035	3.12269	-30.8185	-12.3715	7.01122	0
0.3527	-211.861	15.8176	-17.3229	1.56463	2.47228	1.92408	-14.6418	-7.7633	7.64286	0
0.3533	-193.883	18.2305	-18.8478	1.86266	2.47228	1.92408	7.63576	1.99272	8.52716	0
0.3540	-71.4659	13.0473	-13.9681	3.39003	3.39939	2.52338	28.0831	-2.90605	8.52716	0.322298
0.3547	87.5047	1.42984	-5.42865	3.68806	3.09035	1.92408	39.6745	-29.4341	7.64286	0.322298
0.3553	139.127	-5.54064	0.365977	3.09201	2.47228	1.60866	47.9203	-52.3504	7.32704	0.322298
0.3560	120.478	-5.8981	1.89088	3.09201	1.85421	1.60866	54.021	-58.4531	7.01122	0
0.3567	84.7446	-3.12778	0.670957	3.68806	0.952858	1.60866	52.5057	-57.2076	5.17946	0
0.3573	46.326	1.42984	-1.76889	4.61938	0.643823	0.0946269	38.7692	-49.2783	3.3477	0.322298
0.3580	18.2768	4.20016	-2.98881	4.32136	-0.257529	-2.36567	21.3722	-38.3183	1.51594	0
0.3587	6.04253	2.0554	-1.15893	4.91741	-1.18463	-5.39373	4.90027	-30.3474	-0.315821	-0.966894
0.3593	8.2059	-2.23413	4.6357	5.21543	-0.875599	-6.9393	-12.2015	-24.8675	-0.884298	-0.644596
0.3600	-2.83477	-7.41731	11.6503	4.61938	-0.875599	-6.9393	-22.2578	-23.3314	-0.631642	0.322298
0.3607	-27.5271	-11.7068	15.92	4.32136	-2.11174	-6.34	-26.548	-22.7502	-0.315821	0.322298
0.3613	-42.5215	-14.1197	18.0548	3.98608	-3.63116	-5.70915	-27.4533	-21.2142	-1.51594	-0.966894
0.3620	-22.0067	-15.6389	21.1046	2.4587	-4.53251	-4.79443	-19.2075	-16.3154	-0.884298	-0.322298
0.3627	38.7169	-15.907	22.3246	0.633303	-4.84155	-4.79443	-11.2765	-6.55937	0.631642	0.322298
0.3633	103.096	-13.7622	19.8847	0.633303	-5.15058	-3.8797	-6.10073	4.73271	0.631642	0.322298
0.3640	180.008	-8.57905	14.7001	1.86266	-4.24923	-1.73483	9.46598	12.3715	0	0.322298
0.3647	274.002	-1.25111	6.46559	2.4587	-3.01309	-0.220796	29.3032	16.3154	0	0.322298
0.3653	335.92	9.38334	-5.42865	2.16068	-2.11174	-0.220796	39.6745	23.6635	0.315821	0.322298
0.3660	334.428	20.3753	-16.4079	2.4587	-0.257529	0.69393	40.9143	34.6235	0.315821	0
0.3667	283.775	25.2903	-20.9827	1.26661	0.952858	3.43811	35.4039	39.2317	0.947462	0
0.3673	208.952	24.0392	-22.5076	-0.59605	1.26189	5.26756	29.008	36.7823	3.97934	0.322298
0.3680	81.3876	23.4137	-24.9474	-0.260772	2.47228	6.81313	25.9576	34.0423	7.64286	0.322298
0.3687	-77.8815	26.184	-27.9972	-0.894074	3.39939	8.92647	23.2025	32.7968	8.84298	0.322298
0.3693	-233.197	29.848	-31.047	-1.49012	3.09035	10.1566	20.1521	34.6235	9.47462	0.322298
0.3700	-319.583	27.7032	-28.9121	-1.1921	2.47228	10.7559	20.1521	32.7968	10.9906	0.322298
0.3707	-220.44	20.1072	-20.3727	-1.49012	2.78132	10.7559	26.8629	23.6635	12.1907	0.322298
0.3713	-51.6226	12.4218	-13.9681	-2.12343	2.16325	10.7559	35.4039	9.00875	10.6747	0.322298
0.3720	40.8057	6.34493	-10.0034	-0.894074	1.57093	9.84119	33.8886	-10.2127	7.95868	0.322298
0.3727	105.185	2.0554	-6.64857	0.931328	1.26189	6.81313	20.467	-25.4902	5.49528	0.322298
0.3733	146.438	0.893652	-5.73363	1.86266	0.334788	3.75353	4.90027	-36.7823	3.03188	0.322298
0.3740	123.536	-0.0893652	-4.51371	2.16068	0.643823	3.12269	-2.73549	-45.625	2.4634	0.322298
0.3747	63.1108	-2.77032	-1.15893	0.335278	-0.257529	1.92408	-2.42061	-51.4371	3.03188	0.322298
0.3753	32.003	-6.79175	2.50084	-0.59605	-1.18463	0.378507	-2.73549	-56.6264	2.77922	0.322298
0.3760	35.9568	-6.79175	4.33072	-0.260772	0.0257529	3.43811	-6.71081	-59.3664	3.66352	0
0.3767	29.2428	-4.02143	2.19586	-1.78815	0.334788	6.18229	-9.76118	-58.121	3.97934	0
0.3773	19.172	-2.77032	0.365977	-1.49012	-0.257529	5.86687	-11.5914	-52.641	2.77922	0
0.3780	-13.5024	-1.25111	-1.15893	-0.59605	-1.18463	4.03741	-15.8619	-45.625	0.947462	0.322298
0.3787	-71.7643	2.94905	-4.51371	0.0372531	-1.8027	2.20796	-21.0377	-37.0729	-0.631642	0.322298
0.3793	-78.7766	7.86413	-6.34359	2.16068	-0.257529	2.20796	-21.3526	-24.5769	-0.631642	0.322298
0.3800	-31.4808	9.38334	-6.64857	2.16068	0.334788	2.52338	-19.5224	-17.2287	-0.884298	0.322298
0.3807	13.3532	8.48969	-6.34359	0.931328	-0.257529	1.92408	-19.5224	-21.2142	-3.03188	0
0.3813	34.6886	5.45127	-3.29379	1.86266	-0.566564	-0.220796	-19.8175	-25.7808	-3.97934	0
0.3820	37.7471	2.41286	0.0609961	2.16068	-1.8027	-2.36567	-20.4276	-26.1129	-5.17946	0.322298
0.3827	35.0616	0.268095	2.19586	2.4587	-2.39502	-1.13552	-20.1324	-23.9541	-5.17946	0.322298
0.3833	35.0616	0.893652	3.1108	3.39003	-1.49367	0.69393	-14.6418	-15.7342	-3.97934	0.322298
0.3840	28.9444	1.7873	1.5859	2.79398	-1.49367	0.69393	-5.78586	-5.64604	-4.54782	0.322298
0.3847	3.58076	2.0554	-0.548965	1.26661	-2.70406	2.20796	-1.51534	-4.73271	-5.17946	0
0.3853	-11.9359	2.94905	-2.98881	-0.260772	-2.39502	4.66826	-5.78586	-5.35543	-3.97934	0
0.3860	20.6639	4.82572	-4.81869	-0.59605	-1.49367	4.95214	-12.8115	-1.6606	-3.03188	0.322298
0.3867	24.9907	8.13223	-6.34359	1.26661	-0.566564	5.58298	-14.6418	1.36999	-3.03188	0.322298
0.3873	-31.1824	13.941	-11.2233	1.56463	0.334788	7.41244	-13.7168	2.90605	-3.3477	0
0.3880	-36.106	17.3368	-17.3229	0.335278	0.334788	6.18229	-15.547	2.90605	-4.86364	0.322298
0.3887	-9.84708	17.3368	-18.8478	1.26661	-0.257529	3.12269	-17.0821	0.74727	-7.32704	-0.644596
0.3893	-31.7792	16.0857	-17.6279	3.39003	0.0257529	1.92408	-16.7672	-2.90605	-7.95868	-0.966894
0.3900	-63.5584	10.9025	-13.9681	2.4587	-0.257529	2.52338	-15.2518	-8.71815	-7.64286	0.322298
0.3907	-52.2194	4.46826	-8.17348	2.4587	-0.257529	4.35284	-12.4967	-12.9527	-7.01122	0.322298
0.3913	-13.5024	1.7873	-4.20873	1.56463	0.0257529	5.58298	-10.3712	-13.2848	-6.12692	0
0.3920	4.47595	1.16175	-4.20873	-1.49012	0.0257529	6.18229	-9.4463	-14.8208	-5.49528	0.322298
0.3927	-24.7669	1.16175	-5.42865	-1.78815	0.952858	7.09701	-9.1511	-18.142	-4.29516	0.322298
0.3933	-85.789	0.268095	-6.03861	-1.1921	0.334788	6.49771	-10.9813	-23.3314	-5.49528	0
0.3940	-108.094	-2.23413	-5.12367	-0.894074	-0.257529	5.58298	-13.4216	-29.7662	-7.32704	0.322298
0.3947	-80.0448	-4.37889	-2.98881	-0.260772	-0.257529	4.95214	-14.3269	-34.0423	-7.32704	0.322298
0.3953	-56.5461	-6.1662	-2.07387	-0.260772	-0.875599	2.83881	-15.547	-32.5062	-9.1588	0.322298
0.3960	-47.3704	-6.1662	-1.15893	0.633303	-1.49367	1.00935	-16.1571	-27.3169	-10.6747	0.322298
0.3967	-41.5517	-5.54064	0.0609961	2.16068	-1.18463	1.29323	-15.8619	-24.5769	-10.6747	0.322298
0.3973	-42.5215	-6.1662	1.28092	2.4587	-0.875599	1.92408	-15.2518	-22.4181	-11.6222	0.322298
0.3980	-43.7151	-8.04286	3.41578	1.86266	-1.18463	2.52338	-14.0317	-21.2142	-11.8749	0.322298
0.3987	-40.9549	-9.56207	4.33072	0.633303	-1.49367	2.83881	-13.4216	-18.7648	-11.6222	0.322298
0.3993	-35.1362	-9.20461	4.02574	0.335278	-1.49367	1.60866	-14.0317	-14.4887	-12.1907	0
0.4000	-28.7207	-8.31096	3.1108	0.633303	-1.49367	1.29323	-14.3269	-12.6621	-11.8749	0
0.4007	-25.7367	-7.05985	1.28092	-0.59605	-1.49367	1.92408	-13.1067	-11.7487	-10.0431	0
0.4013	-22.6781	-5.27254	-2.07387	-1.1921	-1.8027	2.20796	-11.2765	-9.29935	-8.52716	0
0.4020	-14.0992	-2.50222	-5.12367	-0.894074	-1.18463	3.43811	-10.3712	-7.4727	-7.64286	0
0.4027	-3.72995	-0.357461	-6.64857	-0.260772	-0.566564	4.03741	-10.9813	-5.35543	-7.95868	0.322298
0.4033	1.79038	1.16175	-8.47846	0.0372531	-0.257529	3.75353	-11.8866	-2.57393	-8.21134	0.322298
0.4040	4.17755	1.7873	-10.3083	0.931328	-0.257529	4.03741	-10.9813	-2.57393	-7.95868	0.322298
0.4047	10.8915	0.893652	-11.2233	0.931328	-0.566564	3.43811	-9.4463	-5.93664	-8.52716	0.322298
0.4053	19.172	-0.983017	-10.0034	0.931328	0.0257529	3.43811	-7.93095	-9.29935	-7.95868	0.322298
0.4060	14.9198	-3.12778	-6.34359	0.931328	0.334788	4.03741	-6.39593	-12.0393	-5.49528	0.322298
0.4067	4.47595	-6.79175	-3.29379	0.633303	-0.257529	3.43811	-6.71081	-15.4021	-5.49528	0.322298
0.4073	2.98396	-8.04286	-1.46391	0.633303	-0.875599	2.52338	-8.22615	-14.4887	-6.12692	0
0.4080	2.08877	-7.05985	-0.243984	-0.59605	-1.18463	2.83881	-8.83623	-8.09542	-5.49528	0
0.4087	-5.89333	-7.41731	0.670957	-2.12343	-1.49367	2.83881	-8.22615	-4.73271	-4.54782	0.322298
0.4093	-11.9359	-8.31096	1.28092	-1.49012	-1.49367	4.03741	-6.10073	-6.26876	-3.66352	0.322298
0.4100	-16.2626	-8.31096	1.28092	-0.260772	-0.875599	4.95214	-4.27051	-7.4727	-2.71606	0
0.4107	-15.2928	-8.04286	0.0609961	-0.59605	-0.566564	4.66826	-3.34556	-8.71815	-3.3477	0
0.4113	-8.95189	-7.05985	-2.98881	-1.78815	-0.566564	3.43811	-3.66044	-9.00875	-3.3477	0.322298
0.4120	-10.7423	-3.39588	-6.64857	-2.71948	-0.566564	3.43811	-5.17578	-6.26876	-3.3477	0.322298
0.4127	-16.8594	1.16175	-8.78344	-1.1921	0.334788	4.35284	-4.27051	-1.36999	-2.71606	0.322298
0.4133	-12.3089	2.41286	-8.78344	0.633303	0.334788	4.35284	-3.05037	0.16606	-2.71606	0.322298
0.4140	3.28236	2.0554	-8.47846	0.335278	0.334788	4.35284	-3.66044	-0.74727	-3.97934	0
0.4147	27.0795	0.268095	-8.17348	-1.1921	0.334788	4.95214	-3.34556	-2.28332	-3.97934	0.322298
0.4153	58.1873	-2.77032	-6.95355	-2.12343	-0.257529	4.03741	-2.42061	-4.73271	-3.97934	0.322298
0.4160	71.0183	-4.64699	-4.81869	-0.894074	0.0257529	4.03741	-0.590394	-4.4421	-3.03188	0.322298
0.4167	59.7539	-4.64699	-2.98881	-0.894074	0.334788	5.26756	0.0196798	-2.28332	-1.83176	0.322298
0.4173	72.5849	-4.91508	-1.46391	-1.1921	-0.566564	4.66826	-1.20047	-1.99272	-2.14758	0.322298
0.4180	83.2526	-5.54064	-1.46391	-2.12343	-1.18463	2.83881	-3.05037	-2.90605	-3.97934	0.322298
0.4187	49.9814	-5.54064	-3.29379	-3.31553	-2.39502	0.69393	-6.10073	-2.28332	-5.8111	-0.644596
0.4193	25.8859	-4.02143	-2.98881	-1.78815	-2.11174	1.29323	-7.61608	1.99272	-5.17946	-1.28919
0.4200	4.84894	-1.25111	-1.76889	1.26661	0.0257529	2.52338	-4.56571	6.55937	-2.71606	-0.322298
0.4207	-47.3704	2.94905	-5.12367	1.56463	0.952858	2.20796	-2.42061	8.09542	-1.51594	0.322298
0.4213	-82.432	9.38334	-12.1382	0.633303	0.643823	1.92408	-2.12542	9.29935	-2.14758	0
0.4220	-67.5122	12.7792	-17.6279	-0.894074	-0.566564	1.60866	-3.34556	7.4727	-2.71606	0
0.4227	-22.3797	11.26	-17.9328	-2.42145	-0.566564	1.60866	-3.34556	4.10998	-1.51594	0
0.4233	5.44573	9.7408	-14.2731	-1.1921	0.643823	2.83881	-1.20047	7.4727	1.83176	0.322298
0.4240	-0.671392	9.11525	-11.8332	0.633303	0.334788	2.83881	0.0196798	13.2848	2.77922	0.322298
0.4247	4.47595	7.23858	-9.3934	0.633303	-0.257529	1.29323	-1.20047	15.7342	1.83176	0.322298
0.4253	63.7076	2.41286	-5.42865	0.633303	-0.875599	-0.536219	-2.73549	12.6621	1.51594	0
0.4260	124.73	-4.02143	-1.46391	0.335278	-2.39502	-2.36567	-4.27051	4.4421	1.20012	0
0.4267	106.453	-7.41731	4.02574	1.26661	-2.11174	-1.73483	-3.66044	-3.52877	3.03188	0
0.4273	43.2675	-8.31096	9.21041	2.4587	-1.49367	-0.220796	-0.90527	-7.18209	6.37958	0.322298
0.4280	8.2059	-8.93652	9.21041	1.86266	-2.11174	-0.536219	0.629753	-9.92208	7.64286	0.322298
0.4287	6.93772	-9.20461	7.68551	0.931328	-2.70406	-0.820099	0.92495	-11.7487	7.32704	0
0.4293	17.9038	-8.93652	6.77057	0.0372531	-2.11174	-0.820099	0.92495	-13.2848	7.64286	0.322298
0.4300	33.7934	-5.8981	4.33072	1.26661	-1.18463	-0.220796	1.8499	-16.0248	9.1588	0.322298
0.4307	46.326	0.536191	-1.15893	3.09201	-0.875599	0.378507	2.75517	-16.0248	9.47462	0.322298
0.4313	41.1041	7.59604	-7.8685	3.98608	0.0257529	0.0946269	2.1451	-12.6621	7.95868	0.322298
0.4320	46.6244	11.5281	-11.5283	3.68806	0.952858	-0.220796	1.23983	-9.00875	6.12692	0
0.4327	72.8833	11.7962	-12.1382	3.39003	0.643823	-0.536219	0.629753	-5.93664	5.49528	0.322298
0.4333	47.5196	11.26	-11.2233	3.68806	1.26189	0.0946269	1.23983	-3.19665	6.12692	0.322298
0.4340	-10.4439	9.38334	-7.25853	3.68806	1.85421	1.60866	2.75517	-2.57393	7.64286	0.322298
0.4347	22.5289	4.20016	-2.98881	2.79398	0.643823	0.69393	1.8499	-5.93664	7.32704	0.322298
0.4353	93.9203	0.893652	0.0609961	2.79398	-0.257529	-0.220796	0.629753	-9.00875	6.37958	0.322298
0.4360	74.3753	1.42984	0.0609961	2.4587	-0.257529	-0.536219	0.629753	-9.00875	6.12692	0
0.4367	30.4364	3.57461	-1.15893	2.4587	-0.257529	-0.220796	1.53502	-7.4727	6.12692	0
0.4373	48.7878	4.20016	-0.548965	3.98608	0.952858	1.29323	2.75517	-5.02331	7.32704	0.322298
0.4380	84.7446	2.68095	-0.243984	3.09201	0.643823	1.00935	2.1451	-2.28332	6.37958	0.322298
0.4387	89.0713	1.7873	-2.07387	1.26661	-0.875599	-0.220796	0.92495	-0.456665	5.8111	0.322298
0.4393	76.5387	2.41286	-2.07387	1.56463	-0.257529	0.378507	1.53502	0.16606	6.6954	0.322298
0.4400	43.8643	3.57461	-1.15893	1.86266	0.643823	1.60866	1.8499	0.16606	6.6954	0.322298
0.4407	-38.7915	7.23858	-1.76889	3.09201	1.85421	2.52338	3.36524	2.90605	7.32704	0.322298
0.4413	-101.679	8.75778	-2.98881	3.39003	1.57093	1.92408	3.07005	5.02331	6.6954	0.322298
0.4420	-77.8815	6.07683	-2.68383	2.4587	0.0257529	0.378507	0.92495	4.10998	4.86364	0.322298
0.4427	-74.5245	4.46826	-1.15893	1.86266	0.0257529	0.378507	1.23983	5.02331	4.61098	0
0.4433	-148.079	4.82572	-0.548965	1.26661	0.643823	0.0946269	1.53502	5.35543	5.17946	0
0.4440	-152.033	5.71937	-0.853945	1.86266	1.57093	1.60866	1.53502	3.81938	6.6954	0
0.4447	-66.0202	5.45127	-1.46391	1.86266	1.57093	1.29323	0.92495	0.16606	6.12692	0.322298
0.4453	-5.22194	3.30651	-2.37885	-0.260772	0.952858	-1.13552	-0.295197	-4.4421	3.66352	0.322298
0.4460	-7.68371	2.68095	-1.46391	0.335278	0.952858	-0.536219	0.314877	-4.4421	4.29516	0.322298
0.4467	-41.2533	2.41286	0.0609961	1.56463	0.952858	0.378507	2.1451	-1.6606	6.12692	0
0.4473	-26.6319	2.0554	0.365977	2.79398	1.85421	0.378507	2.75517	0.74727	5.8111	0
0.4480	22.2305	2.68095	-1.46391	2.4587	1.85421	0.69393	2.45997	4.4421	4.29516	0
0.4487	48.7878	1.42984	-2.98881	0.335278	0.952858	0.69393	3.07005	3.81938	2.4634	-0.644596
0.4493	47.2212	1.7873	-3.29379	0.931328	1.85421	1.00935	5.19546	-1.36999	2.14758	-0.966894
0.4500	-24.4685	4.46826	-4.20873	2.16068	2.78132	1.00935	4.29019	-6.84997	3.3477	0
0.4507	-131.294	6.34493	-3.59877	2.16068	2.16325	-0.220796	2.75517	-9.29935	3.03188	0.322298
0.4513	-158.448	6.34493	-2.37885	2.16068	1.26189	-0.820099	2.1451	-7.18209	1.51594	0.322298
0.4520	-104.737	4.20016	-1.15893	1.26661	0.0257529	-1.73483	0.92495	-3.52877	-0.315821	0.322298
0.4527	-54.3827	2.0554	0.365977	1.26661	-0.257529	-2.64955	0.629753	-1.99272	-0.884298	0.322298
0.4533	-33.3458	0.893652	1.89088	1.86266	0.643823	-2.36567	1.53502	-4.4421	-0.315821	0.322298
0.4540	6.34092	-1.87667	3.72076	2.4587	1.26189	-1.13552	2.45997	-7.7633	0.315821	0.322298
0.4547	84.4462	-4.37889	4.33072	2.16068	0.952858	-1.13552	2.75517	-11.126	-0.315821	0.322298
0.4553	133.309	-4.91508	2.80582	0.633303	-0.257529	-2.05025	1.23983	-15.7342	-2.14758	0.322298
0.4560	128.385	-4.02143	0.365977	-0.894074	-1.18463	-2.05025	0.629753	-15.7342	-2.71606	0.322298
0.4567	111.302	-1.60857	-1.46391	-0.894074	-0.257529	-1.73483	1.53502	-11.126	-2.14758	0.322298
0.4573	92.1299	-1.25111	-0.243984	-0.59605	0.643823	-0.220796	2.75517	-8.09542	-1.20012	0.322298
0.4580	83.2526	-2.50222	2.19586	-1.1921	0.334788	0.69393	3.07005	-5.93664	-0.884298	0.322298
0.4587	59.1571	-2.50222	2.80582	-2.42145	0.334788	0.0946269	3.07005	-2.90605	-1.20012	0.322298
0.4593	-68.4074	-1.87667	-0.243984	-3.94883	0.334788	-0.820099	2.75517	-2.28332	-1.83176	0.322298
0.4600	-221.932	-0.714921	-2.37885	-4.8429	0.643823	-0.220796	2.1451	-1.36999	-3.03188	0
0.4607	-218.874	-0.0893652	-0.243984	-3.31553	1.26189	1.92408	3.36524	1.6606	-2.14758	0.322298
0.4613	-117.867	-2.77032	3.1108	-2.71948	0.952858	2.83881	4.58539	1.07939	-0.884298	0.322298
0.4620	-61.0967	-5.54064	3.72076	-4.8429	0.0257529	2.20796	2.75517	0.16606	-2.14758	0.322298
0.4627	-41.2533	-4.64699	1.89088	-7.30161	-0.566564	1.60866	1.53502	4.73271	-3.97934	0
0.4633	-19.918	-4.02143	0.670957	-7.30161	-0.257529	3.12269	6.12041	6.55937	-4.29516	-0.644596
0.4640	20.0672	-4.64699	2.19586	-7.00358	1.26189	5.58298	7.95063	6.26876	-2.4634	-0.322298
0.4647	59.4555	-4.02143	2.80582	-7.59963	2.16325	6.49771	4.58539	10.2127	-0.315821	0.322298
0.4653	67.0646	-2.77032	1.5859	-8.19568	2.47228	7.41244	4.29019	11.7487	-0.315821	0
0.4660	76.8371	-3.75334	0.975937	-9.42504	2.16325	7.72786	3.97532	9.29935	-1.20012	0
0.4667	115.927	-5.27254	0.365977	-11.5485	1.85421	7.41244	3.36524	9.00875	-1.20012	0.322298
0.4673	130.847	-4.37889	0.975937	-11.5485	3.09035	9.55731	5.19546	13.5754	0.947462	0.322298
0.4680	95.7852	-0.983017	1.28092	-10.0583	4.60977	11.9861	7.34056	17.8514	3.3477	0
0.4687	36.5536	-0.357461	-0.548965	-10.3564	4.30074	11.3868	7.95063	15.7342	3.66352	0
0.4693	-46.7736	-0.0893652	-3.90375	-11.8837	3.39939	10.1566	7.02568	11.4581	2.14758	0.322298
0.4700	-96.5312	1.42984	-6.34359	-12.4798	3.09035	8.92647	6.41561	12.0393	1.20012	0.322298
0.4707	-65.6472	2.68095	-5.73363	-12.1818	3.09035	8.92647	7.34056	18.142	1.83176	0.322298
0.4713	-1.26818	1.42984	-2.98881	-11.5485	3.39939	9.55731	8.8559	21.2142	3.97934	0.322298
0.4720	54.8303	-1.87667	-0.853945	-11.5485	2.78132	8.92647	8.56071	16.0248	3.66352	0.322298
0.4727	71.9881	-5.27254	-2.07387	-12.1818	1.85421	7.41244	6.73049	9.00875	1.20012	0.322298
0.4733	21.9321	-5.8981	-4.20873	-12.4798	0.952858	6.18229	4.58539	4.4421	-1.20012	0.322298
0.4740	-62.6632	-4.91508	-2.68383	-10.3564	1.85421	7.09701	4.58539	0.456665	-0.631642	0.322298
0.4747	-90.4141	-4.37889	-2.07387	-9.12701	2.47228	7.41244	4.58539	-2.57393	0	0.322298
0.4753	-59.6047	-3.12778	-5.42865	-10.0583	1.57093	5.26756	3.07005	-2.90605	-1.51594	0.322298
0.4760	-37.8963	-1.25111	-6.03861	-10.0583	1.26189	4.95214	3.36524	-2.28332	-1.51594	0.322298
0.4767	-35.8076	-3.12778	-3.29379	-9.42504	1.26189	5.26756	4.58539	-4.73271	-1.20012	0.322298
0.4773	-34.241	-6.79175	0.0609961	-8.53096	1.26189	6.18229	5.51034	-10.2127	-0.631642	0.322298
0.4780	-28.7207	-8.93652	2.50084	-8.53096	1.57093	5.86687	4.90027	-16.6475	-0.631642	0
0.4787	-22.9765	-11.3494	1.5859	-11.2504	-0.566564	4.35284	3.97532	-19.9687	-2.4634	-0.644596
0.4793	-16.8594	-11.3494	1.28092	-10.9524	-0.875599	5.26756	7.34056	-14.8208	-2.14758	-0.966894
0.4800	-19.6196	-8.31096	0.975937	-8.82899	0.334788	6.81313	7.95063	-5.64604	-0.884298	-0.322298
0.4807	-29.0936	-6.43429	0.365977	-8.82899	-0.257529	5.86687	4.58539	0.16606	-1.83176	0.322298
0.4813	-28.4223	-6.1662	0.365977	-8.53096	-0.566564	5.26756	3.97532	2.57393	-2.4634	0.322298
0.4820	-22.9765	-7.05985	0.0609961	-8.82899	-0.875599	4.66826	3.97532	1.07939	-3.66352	0.322298
0.4827	-18.053	-8.31096	-0.243984	-9.12701	-1.49367	4.66826	4.29019	-1.07939	-4.54782	0.322298
0.4833	-13.8008	-8.93652	-0.548965	-9.42504	-1.8027	4.95214	4.29019	-1.07939	-5.49528	0
0.4840	-11.9359	-8.93652	-0.853945	-9.72306	-2.11174	4.95214	3.68012	0.456665	-6.6954	0
0.4847	-10.1455	-8.31096	0.365977	-9.42504	-0.875599	6.49771	4.29019	2.28332	-5.17946	0.322298
0.4853	-10.7423	-7.6854	0.0609961	-11.2504	-0.875599	7.09701	3.97532	3.81938	-3.97934	0.322298
0.4860	-17.1578	-6.79175	-1.76889	-12.7778	-1.49367	6.81313	2.75517	5.93664	-3.97934	0.322298
0.4867	-23.8717	-4.91508	-2.37885	-10.9524	-0.875599	6.81313	2.1451	8.38603	-3.66352	0.322298
0.4873	-24.7669	-4.64699	-1.76889	-9.12701	-0.875599	5.86687	1.23983	8.67663	-3.3477	0.322298
0.4880	-23.5733	-6.1662	-0.243984	-9.12701	-1.18463	4.95214	1.53502	7.4727	-1.51594	0.322298
0.4887	-25.0653	-8.04286	0.0609961	-8.53096	-1.8027	4.35284	1.8499	5.93664	-1.83176	0.322298
0.4893	-26.9303	-8.31096	-0.243984	-5.77423	-2.11174	2.52338	0.0196798	4.4421	-3.66352	0.322298
0.4900	-25.7367	-6.43429	0.0609961	-2.12343	-0.875599	0.69393	-1.20047	5.35543	-0.631642	0.322298
0.4907	-22.3797	-5.54064	0.365977	0.335278	0.0257529	-0.820099	-2.73549	7.18209	0.947462	0.322298
0.4913	-15.9642	-6.1662	0.0609961	0.0372531	-0.257529	-2.05025	-3.95564	7.18209	-3.97934	0.322298
0.4920	-7.38531	-6.43429	-0.853945	-1.1921	-0.875599	-3.8797	-4.27051	5.93664	-9.79044	0.322298
0.4927	-2.23797	-6.1662	-1.76889	-2.12343	-0.566564	-4.479	-3.95564	5.35543	-12.5065	0.322298
0.4933	0.223797	-4.91508	-1.76889	-3.0175	-0.257529	-3.2804	-2.42061	6.26876	-14.6541	0.322298
0.4940	3.28236	-3.12778	-2.07387	-2.42145	0.0257529	-1.45095	0.314877	8.67663	-28.9923	0.322298
0.4947	7.23611	-2.50222	-1.76889	-0.894074	0.643823	-0.220796	2.1451	10.2127	-45.4782	0.322298
0.4953	5.14734	-4.64699	-0.548965	-7.59963	-0.566564	0.378507	1.8499	10.5448	-34.4876	0.322298
0.4960	3.58076	-5.27254	-0.548965	-17.3599	-2.11174	1.29323	3.07005	9.00875	-14.6541	0.322298
0.4967	10.5931	-4.02143	0.0609961	-12.4798	-2.39502	3.12269	6.12041	8.09542	-12.5065	0.322298
0.4973	12.1597	-3.39588	0.975937	-1.78815	-0.875599	6.18229	8.56071	8.09542	-31.7084	0
0.4980	2.68557	-3.75334	0.975937	-1.49012	-0.566564	9.84119	9.78086	6.84997	-82.1134	0
0.4987	-7.38531	-4.37889	0.975937	-4.24685	-2.11174	10.472	9.78086	6.55937	-115.969	0.322298
0.4993	-15.9642	-4.64699	0.670957	3.98608	-3.32213	8.64259	6.73049	7.7633	-106.811	0.322298
0.5000	-23.5733	-4.02143	0.0609961	17.7325	-3.32213	7.09701	4.29019	9.29935	-121.465	0.322298
0.5007	-13.8008	-1.87667	-0.548965	32.0749	-3.01309	6.18229	4.29019	12.0393	-184.945	0.322298
0.5013	34.6886	-0.0893652	-0.548965	51.8936	-2.39502	4.03741	2.1451	13.866	-183.997	0.322298
0.5020	111.003	-0.357461	0.0609961	50.3662	-2.11174	1.92408	-0.590394	13.2848	11.6222	0.322298
0.5027	154.346	-1.60857	0.0609961	33.9003	-2.39502	1.29323	-0.90527	12.0393	147.678	0
0.5033	140.321	-1.87667	-0.243984	43.9587	-1.8027	1.29323	-0.590394	10.2127	-46.1098	0
0.5040	112.868	-0.357461	-0.243984	77.859	0.0257529	0.378507	-0.90527	9.29935	-283.797	0
0.5047	92.4283	0.536191	-0.243984	148.342	1.57093	-2.96497	-1.20047	7.7633	-366.226	0
0.5053	53.3384	0.268095	0.365977	239.91	0.952858	-6.9393	-2.12542	6.26876	-415.62	0
0.5060	-8.2805	0.268095	0.975937	292.996	-0.875599	-8.16945	-2.12542	6.26876	-494.702	0.322298
0.5067	-53.1892	0.268095	-0.243984	289.941	-3.9402	-6.62388	-0.295197	6.26876	-650.022	0.322298
0.5073	-78.4782	0.893652	-1.46391	229.516	-6.36097	-3.8797	1.8499	7.7633	-671.372	0.322298
0.5080	-112.645	1.42984	-1.76889	163.914	-7.28808	-2.96497	1.8499	8.67663	-249.309	0.322298
0.5087	-123.089	1.16175	-0.548965	125.468	-7.28808	-0.820099	1.23983	6.84997	190.124	-0.966894
0.5093	-75.4197	0.536191	1.5859	78.455	-7.90615	2.52338	0.92495	5.64604	207.81	-0.644596
0.5100	-24.7669	-0.0893652	1.89088	37.2531	-8.8075	1.60866	-1.81054	4.10998	212.737	0.322298
0.5107	-7.68371	0.268095	1.5859	22.6126	-7.59711	-1.13552	-5.78586	3.19665	435.77	0
0.5113	-3.43156	1.16175	2.19586	33.0062	-4.84155	-2.64955	-6.71081	4.4421	513.019	0
0.5120	-2.83477	2.0554	2.50084	66.5713	-3.32213	-4.19512	-6.39593	6.84997	400.398	0
0.5127	-3.43156	3.30651	2.50084	-25.5929	-1.8027	-1.45095	-4.27051	8.67663	273.753	0
0.5133	-3.43156	3.93207	1.89088	-246.839	-1.18463	3.12269	-1.81054	8.67663	95.82	0.322298
0.5140	-4.62514	4.82572	0.365977	-295.976	-1.8027	4.95214	-1.20047	8.67663	55.2686	0.322298
0.5147	-7.38531	6.34493	-0.548965	-140.668	-1.18463	4.35284	-0.295197	9.00875	191.072	0.322298
0.5153	-11.6375	6.61302	-0.548965	-20.7127	-0.875599	4.66826	2.1451	9.63147	89.6931	0.322298
0.5160	-12.3089	6.97048	0.365977	-33.2298	-2.39502	7.09701	5.51034	10.8354	-136.435	0.322298
0.5167	-5.22194	7.59604	1.28092	-93.6543	-4.53251	8.92647	7.02568	11.126	-48.1943	0
0.5173	2.08877	6.61302	0.975937	-102.185	-6.36097	9.55731	6.12041	8.09542	159.3	0
0.5180	6.04253	6.07683	1.28092	-87.8428	-6.67001	13.5001	6.73049	5.64604	181.281	0
0.5187	5.14734	6.97048	1.89088	-104.942	-6.67001	14.4148	6.41561	5.93664	201.999	0.322298
0.5193	1.49198	7.59604	2.19586	-112.281	-7.59711	8.64259	3.36524	7.18209	326.875	0.322298
0.5200	1.79038	7.86413	2.80582	-70.1476	-6.97904	5.86687	2.45997	7.18209	356.435	0
0.5207	3.58076	7.86413	1.28092	-21.0107	-6.36097	8.64259	2.1451	5.64604	243.814	0.322298
0.5213	4.47595	7.86413	0.975937	13.4484	-4.24923	11.3868	2.45997	5.64604	78.1341	0.322298
0.5220	6.34092	8.13223	2.19586	43.3626	-0.566564	11.6706	3.97532	7.18209	-83.3135	0.322298
0.5227	6.63932	7.86413	2.19586	44.2939	0.952858	11.0713	4.58539	6.84997	-225.243	0.322298
0.5233	6.34092	7.59604	2.80582	12.8523	0.952858	11.3868	4.90027	7.18209	-306.409	0.322298
0.5240	6.34092	7.23858	3.41578	-36.8806	1.26189	9.24189	3.36524	7.7633	-319.8	0
0.5247	7.23611	6.97048	3.41578	-84.192	0.0257529	7.41244	1.53502	7.4727	-385.744	0.322298
0.5253	8.80269	6.34493	3.41578	-128.151	-0.875599	12.3015	4.58539	6.84997	-458.951	0.322298
0.5260	8.5043	6.61302	3.1108	-177.586	-0.257529	17.159	8.8559	6.26876	-357.951	0
0.5267	6.93772	6.34493	2.80582	-175.127	-0.257529	14.7302	9.46598	6.84997	-42.699	0
0.5273	4.17755	6.07683	2.19586	-119.582	-0.257529	12.5854	8.24583	7.7633	234.086	0.322298
0.5280	2.08877	5.71937	1.89088	-64.0381	1.57093	14.4148	8.56071	8.38603	144.962	0
0.5287	2.68557	4.82572	2.80582	-12.1818	3.9917	17.4744	8.56071	8.38603	-193.156	0
0.5293	1.79038	4.20016	3.41578	3.09201	4.91881	18.1053	5.51034	8.09542	-399.766	0
0.5300	0.223797	4.46826	3.1108	-23.1714	4.91881	15.3296	3.07005	7.18209	-373.237	0
0.5307	1.79038	4.20016	3.41578	-27.1203	4.30074	11.6706	3.07005	7.18209	-239.897	0.322298
0.5313	2.38717	4.46826	3.41578	-19.1853	1.57093	8.64259	1.23983	7.4727	46.9941	0
0.5320	2.08877	4.82572	3.41578	-37.8119	-2.39502	7.09701	-0.90527	7.18209	359.783	0
0.5327	1.79038	4.20016	3.41578	-55.5071	-6.36097	5.58298	-1.51534	6.84997	403.114	0
0.5333	0.522194	4.20016	3.1108	-31.1063	-9.11653	2.52338	-1.81054	6.55937	419.6	0.322298
0.5340	0.82059	5.09381	2.50084	33.6023	-10.945	0.0946269	-2.73549	7.18209	441.265	0.322298
0.5347	2.68557	6.07683	2.80582	91.9034	-8.21518	1.92408	-0.295197	7.7633	324.095	0.322298
0.5353	3.87915	6.97048	2.80582	123.643	-2.70406	7.41244	3.68012	7.18209	267.942	0.322298
0.5360	2.98396	6.97048	1.5859	138.284	0.952858	9.55731	5.51034	6.84997	111.99	0.322298
0.5367	2.08877	6.34493	0.975937	130.349	3.09035	10.1566	7.63576	7.18209	-148.941	0.322298
0.5373	2.38717	6.61302	2.50084	91.5681	4.91881	14.1309	11.6111	7.4727	-233.139	0.322298
0.5380	1.11899	6.97048	2.80582	10.3936	4.60977	17.4744	11.2962	6.84997	-151.089	-0.322298
0.5387	-0.671392	6.61302	1.5859	-76.8904	3.70842	22.0481	8.8559	5.02331	-9.47462	-1.28919
0.5393	-0.372995	6.61302	1.5859	-111.983	3.9917	24.7922	9.17078	5.93664	141.93	-1.28919
0.5400	-0.671392	7.23858	1.28092	-87.2468	4.60977	19.9347	9.46598	7.7633	352.203	0
0.5407	0.223797	6.97048	1.28092	-52.7504	4.60977	13.5001	7.95063	7.4727	439.433	0
0.5413	2.68557	6.34493	1.89088	-90.8976	2.78132	7.09701	3.97532	6.84997	276.785	0
0.5420	2.38717	5.71937	0.670957	-205.972	0.334788	0.69393	-0.90527	7.18209	159.3	0.322298
0.5427	0.522194	6.07683	0.365977	-242.89	-0.566564	1.60866	-2.73549	7.18209	63.1642	0
0.5433	-0.671392	6.34493	0.365977	-97.3051	0.334788	4.66826	-2.73549	6.26876	-137.003	0
0.5440	-0.671392	6.97048	0.365977	117.832	1.85421	2.52338	-4.27051	6.55937	-109.842	0.322298
0.5447	0.82059	7.23858	0.975937	265.242	2.47228	-2.05025	-6.10073	8.38603	43.6464	0.322298
0.5453	0.223797	7.23858	0.670957	333.266	1.26189	-6.62388	-7.32088	8.09542	-15.2857	0.322298
0.5460	-0.372995	7.23858	0.0609961	366.533	0.0257529	-10.9136	-7.61608	7.18209	-213.937	0
0.5467	0.223797	6.97048	0.365977	385.756	-0.566564	-12.4277	-7.32088	6.84997	-398.882	0.322298
0.5473	0.82059	6.61302	0.670957	384.564	-3.32213	-9.68348	-4.56571	6.55937	-273.753	0.322298
0.5480	2.98396	6.97048	2.50084	340.605	-7.28808	-7.25473	-1.51534	7.7633	23.8129	0.322298
0.5487	4.47595	6.07683	4.02574	298.509	-10.636	-8.16945	-1.20047	7.7633	120.833	0
0.5493	5.44573	5.45127	4.6357	270.718	-14.9109	-10.9136	-0.295197	7.18209	176.102	0
0.5500	9.69788	6.07683	6.1606	204.818	-17.9755	-12.7431	0.92495	6.84997	371.721	0
0.5507	14.2484	6.07683	7.07555	172.147	-14.0096	-11.8284	0.314877	5.93664	523.062	0
0.5513	10.5931	6.97048	5.24566	96.4483	-3.32213	-6.62388	1.53502	8.67663	335.402	0.322298
0.5520	0.223797	8.75778	1.89088	-155.308	6.1292	0.69393	4.58539	12.3715	-48.8259	0
0.5527	-6.78852	8.75778	-0.853945	-380.838	12.2326	10.1566	8.56071	11.4581	-307.925	0
0.5533	-8.5789	8.13223	-1.76889	-356.102	14.9882	15.645	11.9063	9.00875	-444.613	0.322298
0.5540	-8.2805	7.23858	-2.07387	-156.836	14.3701	12.5854	11.2962	8.67663	-513.019	0.322298
0.5547	-5.59493	6.61302	-1.46391	-24.9968	13.4688	8.01174	7.63576	9.92208	-593.869	0.322298
0.5553	-1.56658	6.97048	0.670957	-10.0583	14.6792	5.26756	7.02568	10.8354	-718.366	0
0.5560	2.38717	6.34493	2.50084	-59.4932	12.5417	1.92408	10.0761	11.126	-557.866	0
0.5567	3.58076	4.82572	4.02574	-169.651	5.53688	-0.820099	12.8312	10.2127	-19.2019	0
0.5573	-2.83477	3.30651	4.6357	-211.747	-2.39502	-5.39373	12.5163	8.38603	358.267	0
0.5580	-18.3514	2.94905	3.72076	-155.606	-7.59711	-9.36806	11.6111	8.09542	265.226	0
0.5587	-34.8378	3.30651	4.02574	-66.4968	-10.636	-9.36806	10.0761	11.4581	52.8052	0.322298
0.5593	-47.6688	4.20016	5.55064	44.592	-13.7006	-9.08418	8.56071	14.4887	53.1211	0
0.5600	-59.3063	5.45127	5.55064	118.428	-14.6019	-11.1975	5.80554	12.6621	168.775	0
0.5607	-61.0967	5.09381	4.6357	114.181	-13.3915	-14.5725	1.8499	10.2127	100.999	0
0.5613	-47.072	5.45127	2.19586	70.2221	-10.636	-13.9417	0.314877	9.92208	-209.958	0
0.5620	-26.3335	7.86413	-1.15893	5.21543	-7.28808	-6.34	4.90027	9.00875	-455.35	0
0.5627	-12.3089	10.277	-4.20873	-183.397	-6.67001	0.378507	11.001	7.18209	-419.284	0.322298
0.5633	-10.7423	12.1537	-6.03861	-393.356	-5.76865	0.69393	13.7365	6.84997	-298.451	0.322298
0.5640	-9.84708	13.4048	-7.25853	-370.445	-2.70406	-2.05025	12.5163	7.4727	-143.13	0.322298
0.5647	-3.72995	12.4218	-9.08842	-200.459	-2.39502	-7.25473	6.12041	6.55937	174.838	0
0.5653	1.79038	11.5281	-8.17348	-81.7706	-3.9402	-19.4616	0.629753	7.7633	287.776	-0.966894
0.5660	8.80269	12.1537	-3.59877	-14.3052	-5.45962	-33.4979	1.23983	9.92208	149.257	0
0.5667	19.172	11.7962	-0.548965	46.1193	-7.59711	-42.6452	1.53502	9.29935	67.7751	0.322298
0.5673	18.8736	11.5281	0.0609961	88.8487	-10.636	-50.8777	-2.73549	5.93664	-56.4688	0
0.5680	3.87915	11.5281	0.670957	109.599	-10.0436	-57.2808	-8.83623	4.10998	-209.073	0
0.5687	-4.92354	11.7962	2.19586	107.14	-4.53251	-53.3065	-12.2015	6.26876	-227.328	0
0.5693	-3.43156	11.5281	3.72076	66.5713	-2.70406	-44.4746	-12.8115	9.29935	-152.289	0.322298
0.5700	-1.56658	11.7962	5.85562	13.1503	11.3313	-36.526	-11.8866	12.0393	-79.3342	0.322298
0.5707	-2.83477	11.5281	4.94068	-7.30161	36.6464	-28.2934	-10.9813	11.126	-84.5136	-0.644596
0.5713	-5.89333	10.0089	2.50084	-9.72306	38.7839	-20.3763	-8.54103	5.93664	-166.311	-1.61149
0.5720	-1.56658	10.0089	3.1108	30.5475	27.5041	-6.9393	-0.590394	3.81938	-26.8448	-0.644596
0.5727	10.5931	10.6345	4.33072	96.1503	31.7791	12.3015	8.24583	1.99272	347.908	0
0.5733	13.0548	9.7408	2.80582	65.0439	44.295	24.1929	13.4413	-7.4727	488.575	0
0.5740	7.53451	7.86413	1.89088	45.486	46.7158	29.3659	14.0514	-14.1981	249.056	0.322298
0.5747	3.87915	7.86413	0.0609961	187.718	39.0929	32.1416	11.001	-11.7487	-96.4517	0
0.5753	-0.0745991	10.0089	-4.81869	379.982	27.1951	28.4511	7.02568	-7.7633	-333.254	0
0.5760	4.17755	9.7408	-6.34359	432.769	7.67437	20.534	3.97532	-8.09542	-526.726	0
0.5767	17.307	6.97048	-3.90375	285.359	-10.3527	14.7302	0.92495	-9.29935	-681.731	0.322298
0.5773	22.8273	6.34493	-2.37885	159.332	-4.84155	10.472	-0.90527	-5.35543	-516.683	0.322298
0.5780	20.9623	9.11525	-3.59877	211.821	3.9917	7.72786	-0.90527	-4.10998	-199.599	0.322298
0.5787	20.0672	10.6345	-5.12367	247.547	-12.4644	6.18229	1.53502	-8.38603	41.4989	0.322298
0.5793	17.9038	10.9025	-4.20873	183.732	-22.2505	4.66826	4.58539	-9.00875	401.282	0.322298
0.5800	16.1134	10.277	-2.07387	136.458	-13.3915	-0.536219	3.07005	-7.7633	573.152	0
0.5807	15.5166	7.59604	0.365977	120.886	-13.3915	-11.8284	-4.56571	-9.92208	340.265	0
0.5813	15.5166	7.23858	1.89088	165.143	-20.4221	-16.0866	-9.4463	-10.5448	45.1624	0
0.5820	15.815	9.11525	2.50084	276.53	-25.2894	-6.02458	-8.22615	-8.09542	-114.138	0
0.5827	16.7102	9.11525	3.72076	378.156	-38.1143	5.86687	-7.32088	-4.73271	-111.106	0
0.5833	12.458	7.86413	4.02574	415.074	-49.1108	10.472	-9.1511	-4.10998	-56.7846	0.322298
0.5840	-0.969788	6.34493	2.80582	300.335	-38.7324	11.3868	-8.83623	-5.02331	-146.794	0.322298
0.5847	-11.6375	6.61302	3.1108	96.7836	-23.4609	9.55731	-5.49066	-2.57393	-329.906	0.322298
0.5853	-14.0992	7.86413	7.07555	42.4685	-21.6325	9.55731	-0.90527	-0.16606	-408.925	0.322298
0.5860	-16.8594	6.97048	10.4303	-17.9932	-22.8428	13.5001	3.68012	0.16606	-456.551	0
0.5867	-22.9765	3.57461	11.9552	-336.88	-14.6019	15.3296	7.34056	-2.57393	-477.584	0.322298
0.5873	-30.5856	0.536191	14.3951	-561.181	-6.67001	13.8155	5.80554	-8.09542	-359.215	0.322298
0.5880	-43.4167	-0.714921	18.0548	-479.708	-15.22	7.09701	-1.51534	-7.18209	-201.746	0
0.5887	-58.9333	-0.357461	17.7499	-387.544	-30.8005	-2.05025	-7.93095	-1.99272	30.8241	0.322298
0.5893	-62.2902	-0.357461	11.9552	-338.407	-35.6678	-4.479	-10.6664	-4.73271	427.242	0.322298
0.5900	-52.5924	0.536191	5.55064	-258.164	-33.2213	-2.96497	-11.2765	-8.09542	568.856	0.322298
0.5907	-44.0135	3.30651	0.365977	-207.5	-31.3928	-4.79443	-9.4463	-4.10998	138.266	0.322298
0.5913	-35.4346	2.94905	-6.03861	-127.853	-27.4269	-6.9393	-4.27051	0.74727	-207.242	0
0.5920	-29.392	-0.714921	-10.0034	-8.19568	-20.4221	-12.1122	1.23983	4.10998	-135.171	0.322298
0.5927	-26.3335	-3.75334	-10.6133	8.86624	-19.1859	-23.4044	3.07005	2.57393	-4.86364	0.322298
0.5933	-4.92354	-3.39588	-9.3934	-64.6714	-11.254	-33.7818	0.314877	-0.456665	210.905	0.322298
0.5940	25.8859	-4.91508	-7.25853	-107.997	7.67437	-50.5623	-5.17578	0.456665	339.381	0.322298
0.5947	35.36	-10.7238	-5.73363	-154.377	13.4688	-75.2914	-11.5914	-1.99272	189.808	0.322298
0.5953	32.003	-12.6005	-4.81869	-239.239	1.26189	-84.7541	-13.7168	-9.00875	141.298	0
0.5960	34.6886	-18.6773	-3.29379	-292.623	-16.1471	-73.1466	-9.1511	-15.7342	180.965	0
0.5967	41.4025	-35.7461	-1.15893	-299.031	-28.354	-57.2808	-3.95564	-18.4742	-98.5993	0.322298
0.5973	43.2675	-57.1043	-0.548965	-332.298	-35.9768	-36.2421	2.45997	-14.8208	-39.6671	0.322298
0.5980	38.4185	-82.7521	-1.46391	-451.917	-46.6643	-7.25473	10.3909	-9.29935	835.599	0.322298
0.5987	32.003	-102.323	-3.90375	-509.324	-49.1108	14.4148	11.6111	-9.92208	1452.65	-0.644596
0.5993	21.6337	-79.9818	-7.56352	-340.233	-47.5656	22.3635	8.8559	-9.63147	1337.88	-1.61149
0.6000	10.8915	-36.3716	-8.47846	-169.949	-54.2872	-5.39373	5.80554	-6.55937	1036.08	-0.322298
0.6007	8.80269	-51.0275	-4.81869	-188.277	-38.4234	-72.2318	3.07005	-6.84997	739.779	0.322298
0.6013	10.5931	-73.6369	-0.548965	-203.216	0.952858	-118.631	0.314877	-9.29935	437.917	0.322298
0.6020	13.0548	2.68095	2.50084	-155.904	19.8813	-123.52	0.629753	-9.92208	289.923	0.322298
0.6027	15.815	113.494	3.1108	-156.836	20.7826	-110.997	3.36524	-9.92208	358.583	0.322298
0.6033	15.2182	108.311	0.975937	-183.397	23.8472	-83.2401	3.68012	-12.3715	542.58	0
0.6040	12.458	37.444	4.02574	-183.993	20.1645	-50.2784	2.45997	-14.8208	693.985	0
0.6047	4.84894	54.6021	7.38053	-159.592	14.0611	-23.7198	1.53502	-16.6475	628.989	0.322298
0.6053	3.58076	78.3732	6.46559	-129.678	7.95765	6.18229	0.92495	-18.7648	448.276	0.322298
0.6060	8.2059	46.9167	7.99049	-80.2432	0.0257529	30.3121	2.1451	-16.3154	379.932	0.322298
0.6067	-14.696	40.4824	8.29547	-29.579	5.84591	41.2889	1.53502	-9.92208	354.919	0.322298
0.6073	-20.2164	51.2062	8.90543	-59.4932	17.7438	61.4128	0.0196798	-4.10998	288.092	0
0.6080	35.36	53.9766	12.8702	-144.021	25.3666	91.9458	0.0196798	0.456665	236.234	0
0.6087	79.5972	52.4573	14.7001	-161.716	38.7839	106.897	-4.88059	3.81938	181.913	0
0.6093	66.7662	42.3591	15.005	-96.7091	54.9567	96.8348	-15.8619	1.99272	111.422	0
0.6100	44.7595	27.9713	16.225	-9.72306	58.9227	79.7389	-25.013	-1.36999	67.7751	0.322298
0.6107	86.6096	17.3368	16.5299	63.5165	49.7804	81.5684	-30.2085	1.36999	19.2019	0.322298
0.6113	184.857	16.4432	13.1752	80.2804	27.1951	90.1163	-35.6991	10.8354	-72.0071	0
0.6120	223.35	20.1072	8.90543	70.5201	-5.15058	71.1909	-38.4346	17.5608	-168.775	0.322298
0.6127	131.742	20.1072	5.55064	54.9483	-20.7053	35.4851	-38.7495	15.4021	-216.653	0.322298
0.6133	3.87915	18.588	3.1108	-54.6131	-16.1471	8.92647	-37.5294	11.126	-220.632	0.322298
0.6140	-87.0571	17.9624	-0.243984	-178.48	-4.53251	-3.8797	-31.7238	11.4581	-245.33	0
0.6147	-141.067	19.1241	-4.51371	-172.072	11.3313	-1.45095	-26.8432	17.2287	-285.313	0.322298
0.6153	-127.937	22.7881	-10.3083	-72.3083	15.9153	1.29323	-25.013	25.1581	-310.073	0.322298
0.6160	-125.476	28.5968	-16.4079	68.3967	6.43823	-3.8797	-20.4276	27.9396	-390.923	0
0.6167	-183.514	28.9543	-15.493	186.191	-2.39502	-3.8797	-11.8866	24.5769	-525.526	0
0.6173	-171.578	20.1072	-6.64857	235.328	-17.9755	-2.96497	-4.27051	14.8208	-606.376	0.322298
0.6180	-32.4506	9.11525	3.1108	275.896	-30.4915	-2.05025	-0.295197	2.28332	-674.151	0.322298
0.6187	131.742	3.30651	10.7353	297.28	-24.079	8.64259	3.36524	-4.10998	-708.891	0.322298
0.6193	229.392	-0.357461	13.4801	264.609	-26.2165	11.6706	7.02568	-5.35543	-528.242	0
0.6200	249.534	-3.12778	11.6503	239.91	-34.7664	-3.56428	4.90027	-6.84997	-133.34	0.322298
0.6207	177.546	-5.8981	9.21041	169.725	-24.6971	-10.9136	-2.12542	-9.92208	157.784	0.322298
0.6213	0.522194	-15.907	6.1606	-21.6441	-12.4644	-21.5749	-12.2015	-10.5448	56.1529	0.322298
0.6220	-207.311	-23.8605	2.80582	-138.209	-8.8075	-47.5342	-24.0881	-3.81938	-138.266	0
0.6227	-362.328	-14.1197	-3.29379	-115.336	-15.22	-59.1102	-35.9943	11.7487	-132.771	0
0.6233	-377.248	-0.0893652	-10.0034	-73.8357	-34.4574	-58.5109	-45.4603	26.1129	-161.763	0.322298
0.6240	-154.793	0.536191	-8.47846	33.0062	-39.6337	-55.4513	-54.6114	30.6796	-130.939	0.322298
0.6247	107.05	-7.6854	0.365977	125.17	-25.2894	-52.1079	-62.2472	26.6941	158.668	0.322298
0.6253	148.825	-16.2645	8.90543	130.349	-28.663	-53.9373	-61.9323	12.3715	404.061	0.322298
0.6260	78.329	-20.8221	14.7001	132.174	-53.6691	-56.3661	-52.486	-5.02331	439.749	0.322298
0.6267	64.006	-22.6094	17.4449	108.369	-76.8725	-50.5623	-39.6548	-15.4021	341.213	0.322298
0.6273	34.6886	-24.218	19.5797	78.455	-94.2557	-18.5469	-24.4029	-20.3008	206.61	0
0.6280	-66.9154	-24.4861	20.7997	62.5852	-85.7315	28.7666	-7.93095	-18.142	103.147	0.322298
0.6287	-27.2287	-25.7372	20.1897	29.0202	-50.3212	49.206	5.80554	-10.8354	16.8017	-0.322298
0.6293	157.106	-23.2349	15.92	-11.2504	-14.0096	48.6067	16.4917	0.74727	-25.013	-1.61149
0.6300	220.59	-15.2814	6.1606	-136.086	22.6111	57.47	20.467	11.4581	-31.1399	-0.322298
0.6307	154.644	-8.57905	-2.07387	-289.568	52.536	62.0437	18.3219	14.1981	-109.842	0.322298
0.6313	55.5017	-3.75334	-8.17348	-284.092	76.3317	55.9245	28.6931	23.9541	-225.812	0.322298
0.6320	-42.1485	2.41286	-14.5781	-201.092	81.817	61.7283	56.4613	43.7983	-174.838	0
0.6327	-93.7711	5.71937	-14.883	-153.185	48.57	75.4492	81.7892	57.2076	-56.4688	0.322298
0.6333	-157.852	1.42984	-7.8685	-58.2639	-3.63116	64.157	90.3499	57.5398	-75.3548	0.322298
0.6340	-189.855	-11.9749	8.60045	72.3455	-59.1802	21.7642	82.7141	41.6395	-87.8613	0.322298
0.6347	-73.0325	-29.4011	31.169	132.174	-87.8432	-36.8414	60.4366	12.9527	24.1287	0.322298
0.6353	112.272	-40.9292	44.8931	130.647	-84.8044	-85.0695	21.0771	-13.2848	98.2834	0.322298
0.6360	400.896	-38.7845	41.5383	110.195	-64.0475	-84.7541	-16.472	-25.7808	-3.3477	0.322298
0.6367	725.924	-22.3413	19.8847	71.7495	-31.3928	-74.0613	-38.1394	-16.3154	-114.769	0.322298
0.6373	546.513	4.20016	-14.883	14.9757	-16.4561	-99.3897	-44.8502	9.29935	-91.5249	0.322298
0.6380	-222.231	30.7416	-48.1259	-61.6166	-27.1178	-129.008	-36.9193	37.9862	-62.2799	0.322298
0.6387	-829.244	41.108	-62.521	-115.932	-39.3247	-146.703	-22.5727	56.2943	-104.031	0.322298
0.6393	-902.5	31.3672	-50.9317	-132.1	-39.9428	-150.993	-7.93095	56.0037	-135.171	0.322298
0.6400	-771.578	15.1921	-31.352	-152.849	-39.0157	-134.812	4.58539	54.177	-108.327	0
0.6407	-566.506	1.7873	-18.8478	-151.657	-15.22	-106.108	11.2962	60.9025	-40.8672	0.322298
0.6413	-79.7464	-12.243	-3.90375	-106.171	22.0187	-70.4024	16.1768	49.2783	48.8259	0.322298
0.6420	496.159	-24.4861	7.38053	-81.1373	24.4395	-34.4126	14.0514	12.9527	123.928	0
0.6427	594.704	-26.8989	4.94068	-78.7158	19.8813	-0.820099	7.34056	-18.142	161.132	0
0.6433	167.773	-28.4181	6.1606	-67.0928	13.4688	26.6217	10.6861	-43.7983	173.007	0.322298
0.6440	-179.485	-35.7461	15.92	-79.6099	-20.4221	51.0354	18.932	-69.413	186.461	0.322298
0.6447	-178.889	-35.7461	20.1897	-88.4761	-19.495	100.494	29.008	-78.5879	187.408	0
0.6453	-180.754	-26.6308	15.005	-59.7912	23.5382	159.699	40.5994	-68.2091	160.5	0.322298
0.6460	-292.13	-15.6389	5.24566	-32.0004	50.3985	199.663	39.3793	-40.145	120.265	0.322298
0.6467	-324.804	-4.64699	-6.64857	8.27019	71.7476	236.914	24.7375	-8.09542	70.807	0.322298
0.6473	-199.329	-0.714921	-11.5283	62.8832	94.951	257.038	10.3909	1.36999	27.4764	0.322298
0.6480	73.1817	-12.243	3.1108	85.1606	87.3024	228.366	6.73049	-13.5754	7.01122	0.322298
0.6487	416.188	-30.9203	29.0341	91.2701	44.295	180.737	11.001	-35.5368	3.66352	0
0.6493	530.623	-40.6611	42.7583	111.126	-0.257529	141.373	3.97532	-46.2477	4.61098	0.322298
0.6500	336.815	-39.7675	41.2334	126.065	-16.1471	97.1187	-14.3269	-32.2156	3.66352	0.322298
0.6507	357.255	-33.9588	34.2188	126.065	-8.49846	52.581	-21.9626	-8.09542	2.4634	0.322298
0.6513	592.615	-21.7157	20.4947	130.945	15.9153	29.082	-17.6921	12.0393	-4.29516	0.322298
0.6520	189.109	-4.37889	3.1108	145.287	73.5761	9.55731	-19.2075	30.0568	-24.6972	0.322298
0.6527	-682.731	5.71937	-6.34359	146.516	116.609	-38.6708	-33.554	41.0583	-54.0054	0.322298
0.6533	-697.427	2.68095	-4.51371	122.414	101.054	-81.4106	-52.7812	45.0022	-76.3023	0.322298
0.6540	47.2212	-5.8981	1.89088	85.1606	66.2623	-103.364	-67.1278	50.5237	-76.8708	0.322298
0.6547	527.565	-9.20461	0.365977	55.5816	36.0541	-140.899	-66.2028	61.4837	-67.7751	0.322298
0.6553	832.451	-2.77032	-17.3229	65.0439	31.161	-147.019	-56.4416	74.3118	-64.3643	0.322298
0.6560	997.241	14.2984	-41.4163	125.468	45.5054	-117.4	-52.486	86.2266	-67.1435	0.322298
0.6567	697.576	29.5799	-55.2015	175.201	31.7791	-128.093	-48.8256	94.7372	-68.0278	0
0.6573	264.23	30.1161	-50.9317	163.914	3.39939	-139.07	-35.9943	83.7772	-61.3324	0
0.6580	-64.752	19.1241	-36.8416	134.297	-11.5631	-160.14	-12.2015	41.9716	-51.2893	0.322298
0.6587	-156.285	1.42984	-17.6279	124.239	-15.22	-242.529	6.73049	-3.52877	-49.4575	-0.644596
0.6593	-70.5707	-22.9668	9.51539	144.989	-7.90615	-282.808	8.56071	-31.8835	-48.1943	-1.28919
0.6600	-243.939	-40.0356	31.474	195.355	-7.59711	-224.518	11.001	-46.8289	-36.6352	0
0.6607	-306.155	-46.4699	41.8433	125.468	1.57093	-145.189	17.1017	-60.9025	-36.3194	0.322298
0.6613	-163.969	-51.6531	47.394	-84.49	41.8485	-103.679	17.7118	-84.6906	-57.0372	0
0.6620	-169.415	-50.4019	42.1483	-155.904	75.0955	-139.07	20.7622	-110.015	-74.7864	0.322298
0.6627	-32.4506	-37.2653	23.5445	-38.1099	64.1248	-244.358	23.2025	-112.755	-90.6406	0.322298
0.6633	-0.0745991	-17.1581	-0.853945	88.2153	8.88476	-299.305	25.0327	-77.3424	-111.674	0.322298
0.6640	-528.012	-0.983017	-17.9328	152.924	-42.3893	-244.043	44.8699	-26.6941	-126.644	0.322298
0.6647	-1010.82	2.0554	-17.3229	119.359	-51.8406	-167.143	67.1474	1.99272	-159.932	0.322298
0.6653	-865.872	-5.8981	-2.98881	11.3249	-51.2226	-190.358	61.3419	12.3715	-216.653	0.322298
0.6660	-517.345	-11.7068	7.07555	-73.8357	-42.3893	-244.358	28.0831	25.1581	-253.288	0.322298
0.6667	-149.944	-6.43429	-0.548965	-167.527	24.4395	-152.822	-15.547	37.6956	-233.139	0.322298
0.6673	458.337	-0.983017	-12.4432	-188.277	97.0885	-29.8075	-46.0704	42.885	-190.44	-0.322298
0.6680	977.397	-12.243	-4.20873	-77.4865	110.197	8.64259	-44.8502	29.4341	-168.459	-0.966894
0.6687	1107.42	-26.0053	13.1752	-69.5515	130.336	79.7389	-22.2578	5.93664	-73.8389	0.322298
0.6693	786.349	-18.6773	11.0403	-198.038	183.129	155.724	-2.42061	7.18209	121.781	0.322298
0.6700	236.778	1.42984	-6.03861	-270.979	215.5	134.654	17.1017	23.3314	242.929	0.322298
0.6707	186.722	13.0473	-14.5781	-231.603	167.883	40.658	53.1157	22.1275	203.831	0.322298
0.6713	359.418	17.6049	-17.9328	-155.904	58.6394	1.60866	109.577	17.8514	151.657	0.322298
0.6720	-139.873	27.4351	-31.352	-105.24	6.1292	73.3358	167.239	31.8835	196.82	0.322298
0.6727	-770.31	33.78	-39.5865	-81.7706	-0.257529	149.321	202.958	60.9025	224.296	0.322298
0.6733	-748.975	26.8095	-29.2171	-64.9694	-15.838	265.586	201.423	83.1545	171.491	0.322298
0.6740	-292.727	13.6729	-14.883	-12.4798	-7.28808	435.252	151.377	74.9345	127.592	0.322298
0.6747	76.2403	2.94905	-4.20873	62.5852	-5.15058	494.457	78.7388	59.0343	110.158	0.322298
0.6753	43.2675	-3.75334	2.50084	82.1058	-40.2518	471.873	20.467	53.5543	93.3566	0.322298
0.6760	-199.926	-9.56207	6.77057	49.1741	-90.9078	447.459	-21.9626	34.0423	85.1453	0.322298
0.6767	-40.6565	-20.554	14.7001	28.0888	-117.768	385.51	-58.2719	-8.38603	80.8501	0
0.6773	356.061	-29.4011	20.4947	6.44479	-129.666	297.034	-89.7202	-49.6104	75.3548	0
0.6780	469.005	-22.6094	10.7353	-56.7365	-187.043	195.089	-104.362	-66.3824	69.8596	0
0.6787	472.361	-8.57905	-8.17348	-102.521	-223.046	35.8005	-96.7262	-70.3264	58.6163	0.322298
0.6793	169.34	3.30651	-23.4225	-66.1988	-179.421	-119.23	-76.8889	-61.1931	55.2686	0.322298
0.6800	-596.718	8.48969	-25.8623	-7.59963	-136.078	-132.667	-49.7308	-31.2608	64.3643	0
0.6807	-1006.86	2.0554	-13.9681	20.1539	-130.284	-66.1442	0.92495	-11.7487	68.6594	0
0.6813	-609.848	-3.12778	-5.12367	31.4789	-109.836	-22.2058	82.3993	-12.6621	73.2704	0.322298
0.6820	-183.812	-4.02143	-3.59877	35.1297	-63.1462	8.92647	145.886	-6.84997	83.6293	0.322298
0.6827	-225.886	-10.0983	4.6357	40.6059	-34.4574	63.2423	139.471	3.19665	92.1565	0.322298
0.6833	-303.693	-15.907	11.3453	61.9892	-14.6019	188.686	101.016	-2.28332	88.8088	0.322298
0.6840	-244.834	-11.7068	5.24566	79.9824	19.2632	346.46	96.1358	-8.38603	72.6388	0.322298
0.6847	-201.791	-1.60857	-5.12367	80.6157	47.6429	475.248	88.2048	-5.64604	59.1848	0.322298
0.6853	-252.443	3.57461	-8.78344	92.7975	53.7463	611.668	34.1838	-0.456665	57.6689	0.322298
0.6860	-344.648	0.536191	-2.07387	86.688	39.0929	693.741	-16.1571	10.5448	60.4481	0.322298
0.6867	-366.58	-6.1662	9.21041	7.67414	14.6792	585.425	-36.9193	19.6781	65.6276	0.322298
0.6873	-459.083	-8.93652	14.3951	-97.0071	-19.495	355.324	-49.4356	21.8369	69.8596	0.322298
0.6880	-414.473	-9.56207	13.4801	-136.384	-62.5281	169.761	-50.6558	29.4341	72.0071	0.322298
0.6887	312.421	-15.0133	15.615	-96.411	-62.5281	21.7642	-47.9006	30.3474	74.4705	-1.28919
0.6893	1162.93	-21.7157	20.1897	-46.6781	-7.90615	-182.094	-62.2472	9.63147	74.1547	-1.28919
0.6900	1382.1	-19.9284	20.7997	-26.2262	-11.8721	-346.902	-68.3479	-5.93664	70.4912	0.322298
0.6907	1243.19	-13.226	17.7499	-22.8734	-56.4247	-376.804	-28.6735	0.456665	70.1754	0.322298
0.6913	855.353	-6.1662	11.6503	-59.7912	-41.4622	-407.337	49.1404	14.4887	72.9546	0.322298
0.6920	143.081	5.09381	-1.15893	-119.582	-57.326	-473.229	124.829	32.2156	72.6388	0.322298
0.6927	-473.107	21.6264	-18.8478	-113.808	-158.355	-441.813	153.522	53.5543	59.8165	0.322298
0.6933	-599.404	36.5503	-35.0118	-50.3289	-230.669	-348.132	141.911	76.7612	26.2763	0.322298
0.6940	-513.689	47.5423	-45.6861	-3.0175	-215.423	-284.953	130.93	106.029	-8.84298	0.322298
0.6947	-577.472	46.0231	-41.4163	24.7361	-158.355	-246.188	115.678	126.496	-33.5402	0.322298
0.6953	-406.267	24.0392	-16.7129	53.7562	-61.91	-177.236	82.7141	117.031	-57.6689	0.322298
0.6960	82.6558	-7.6854	17.7499	74.8042	73.8851	-40.5003	50.9707	93.5332	-73.8389	0.322298
0.6967	191.869	-30.2948	41.5383	94.9582	158.715	68.7622	33.8886	72.7758	-73.8389	0
0.6973	0.223797	-40.3931	49.5288	101.962	161.471	108.127	6.73049	46.5383	-64.3643	0.322298
0.6980	53.04	-45.5762	48.6139	56.811	160.26	136.799	-36.6044	15.4021	-58.3005	0.322298
0.6987	68.6312	-46.1124	45.2591	-4.54488	173.06	140.458	-45.1454	1.99272	-55.5213	0.322298
0.6993	-69.3772	-40.0356	40.0134	-15.5345	178.88	197.234	-44.5354	6.55937	-48.5101	0.322298
0.7000	123.238	-24.218	19.5797	4.61938	140.714	249.405	-77.499	18.4742	-41.8147	0.322298
0.7007	426.558	0.893652	-11.5283	15.9071	53.1283	106.897	-95.2108	47.161	-35.1193	0.322298
0.7013	497.352	15.1921	-26.4723	19.8559	-6.67001	-66.7435	-86.3549	72.7758	-22.8654	0.322298
0.7020	631.332	16.7113	-28.3022	24.7361	-65.2837	-112.227	-68.0527	77.6745	-8.52716	0.322298
0.7027	461.321	20.6434	-30.1321	34.8317	-122.043	-118.315	-34.479	91.7066	5.49528	0.322298
0.7033	-423.947	20.3753	-27.0823	40.9412	-73.2156	-132.667	2.75517	121.016	22.6128	0.322298
0.7040	-998.583	8.13223	-13.9681	40.0098	18.6451	-167.143	46.4049	132.308	37.8353	0.322298
0.7047	-632.078	-5.27254	-2.98881	52.2289	46.1235	-166.228	105.307	116.408	42.4463	0.322298
0.7053	23.7225	-7.6854	-4.20873	67.7634	42.1575	-28.6089	149.547	97.8093	29.3082	0.322298
0.7060	497.054	-3.39588	-9.69838	81.2118	29.6416	194.174	143.446	84.6906	-0.884298	0.322298
0.7067	413.727	5.09381	-20.3727	91.5681	3.09035	408.725	87.9096	70.0358	-36.0036	0.322298
0.7073	-48.2656	13.0473	-31.657	58.3011	17.7438	594.572	10.6861	42.885	-60.7008	0.322298
0.7080	-196.569	9.11525	-27.0823	-15.2365	34.2256	632.707	-54.9263	1.36999	-75.3548	0.322298
0.7087	-199.03	-2.50222	-11.8332	-59.4932	18.3361	504.55	-96.1161	-28.5208	-84.1978	0.322298
0.7093	-384.26	-11.7068	-0.853945	-30.175	87.0191	326.305	-117.784	-46.8289	-86.6612	0.322298
0.7100	-393.734	-18.9454	7.68551	19.8559	192.297	65.0717	-105.267	-64.8464	-82.3661	0.322298
0.7107	-44.6103	-24.7541	17.7499	41.8352	264.611	-196.13	-60.7121	-75.8479	-75.6707	0.322298
0.7113	135.397	-31.1884	26.5943	51.5956	329.019	-259.625	-27.4533	-87.7211	-69.6069	0.322298
0.7120	-63.8568	-44.3251	40.0134	55.8797	245.709	-169.287	-17.0821	-111.551	-64.1116	0.322298
0.7127	-193.883	-53.1723	54.4085	52.8249	76.9497	-73.7774	-19.8175	-121.929	-58.3005	0.322298
0.7133	-221.336	-48.2572	54.7135	40.0098	85.1907	5.26756	-27.4533	-96.2732	-48.1943	0.322298
0.7140	-233.868	-42.8059	49.5288	31.4789	191.087	98.6643	-10.6664	-62.1064	-32.34	0.322298
0.7147	-64.4536	-38.7845	43.0632	38.1844	176.433	177.709	15.5667	-40.7262	-18.0018	0.322298
0.7153	124.431	-20.554	20.1897	43.3626	45.8144	197.518	9.46598	-11.4581	-10.9906	0.322298
0.7160	5.44573	9.38334	-16.4079	39.4138	-88.4613	141.688	-5.17578	25.1581	-12.5065	0.322298
0.7167	-228.049	22.7881	-35.0118	37.2531	-160.183	39.7433	-10.0564	42.885	-21.9811	0.322298
0.7173	-224.096	15.1921	-24.3374	31.4789	-152.869	49.5214	-24.7178	47.7422	-29.3082	0.322298
0.7180	-302.798	8.13223	-14.883	6.44479	-134.559	180.138	-56.4416	55.381	-30.5083	0.322298
0.7187	-369.937	6.07683	-16.4079	-8.19568	-141.255	213.1	-87.8703	59.3664	-28.6765	-0.966894
0.7193	-61.6935	0.893652	-13.0532	4.61938	-6.97904	144.117	-98.8713	51.7277	-25.9605	-1.28919
0.7200	190.078	-1.25111	-10.6133	12.8523	257.297	98.9482	-89.4053	37.3635	-23.4971	0
0.7207	168.37	-0.983017	-12.4432	11.3249	326.264	47.0926	-63.7625	24.2447	-22.5496	0.322298
0.7213	49.0862	-4.02143	-10.6133	7.33886	125.777	-35.3274	-35.3843	11.4581	-19.8335	0.322298
0.7220	-156.956	-6.43429	-6.03861	3.98608	-87.5599	-53.9373	-28.3783	3.19665	-17.686	0.322298
0.7227	-176.8	-8.93652	0.975937	2.79398	-240.146	-9.99891	-40.2648	-0.16606	-19.5177	0.322298
0.7233	73.1817	-14.7453	6.1606	1.86266	-368.911	-24.9499	-18.3022	-13.866	-21.6653	0.322298
0.7240	200.746	-15.6389	5.85562	7.97216	-369.529	-81.6945	47.9203	-32.5062	-19.2019	0.322298
0.7247	192.167	-14.3878	6.77057	13.4484	-267.006	-99.7052	91.8652	-40.4356	-17.1175	0.322298
0.7253	194.927	-17.1581	10.7353	14.3797	-169.635	-80.1805	57.0714	-34.6235	-19.5177	0.322298
0.7260	134.204	-17.7837	12.5652	18.0305	-95.8009	-11.1975	-40.8749	-20.9235	-25.3288	0.322298
0.7267	-73.0325	-21.4476	17.7499	17.1364	-60.0816	64.157	-100.997	-13.5754	-28.0449	0.322298
0.7273	-253.637	-33.6013	33.3039	11.0269	-50.0122	10.7559	-79.6441	-17.8514	-22.8654	0.322298
0.7280	30.138	-45.2188	47.6989	4.61938	-50.6302	-187.897	-21.3526	-24.5769	-15.8542	0.322298
0.7287	402.462	-48.6146	51.3587	-1.1921	-64.6656	-359.424	18.932	-21.8369	-11.8749	0
0.7293	480.866	-44.3251	45.5641	-2.71948	-75.9454	-430.205	2.75517	-9.00875	-14.3383	0.322298
0.7300	777.546	-30.2948	26.2893	4.32136	-43.5997	-484.521	-28.6735	5.02331	-24.6972	0.322298
0.7307	916.077	-0.357461	-10.0034	15.2738	32.0881	-526.945	-37.5294	25.1581	-35.6878	0
0.7313	310.258	33.1545	-47.8209	22.6126	59.5408	-487.896	-47.6054	56.917	-42.1305	0.322298
0.7320	-214.025	43.2527	-57.0313	24.7361	16.5076	-306.623	-45.1454	76.1385	-44.2781	0
0.7327	-203.283	34.1375	-42.0263	29.0202	-54.5962	-80.7798	-7.61608	76.7612	-45.794	0
0.7333	-398.956	23.7711	-28.3022	28.4241	-92.1182	-26.1486	41.8195	78.8785	-42.699	0.322298
0.7340	-703.469	8.75778	-12.1382	11.623	-45.1191	-93.9014	75.0784	74.6024	-27.4764	0.322298
0.7347	-473.406	-4.37889	0.365977	-3.0175	22.9201	-86.5836	69.9026	61.4837	-17.686	0.322298
0.7353	-60.7983	-8.31096	1.28092	-1.1921	60.7769	-49.6476	47.9203	48.3649	-21.9811	0.322298
0.7360	126.296	-10.7238	2.80582	10.7289	75.4046	-60.9397	21.0771	20.5914	-26.8448	0.322298
0.7367	195.524	-13.226	0.670957	14.9757	58.6394	-65.5133	-37.5294	-19.3875	-23.8129	0.322298
0.7373	186.722	-15.2814	-2.98881	10.7289	24.7486	-29.2082	-90.9403	-53.2637	-18.3176	0
0.7380	96.6804	-21.0902	2.19586	9.79757	-16.7394	26.3378	-70.1781	-81.9506	-20.1494	0.322298
0.7387	7.23611	-25.7372	8.60045	7.04084	-14.6019	8.64259	12.5163	-102.999	-20.4652	0.322298
0.7393	-54.0843	-22.6094	6.77057	-3.61355	74.5032	-56.6815	56.7762	-100.549	-14.3383	0.322298
0.7400	-227.751	-15.0133	0.670957	-11.5485	152.02	41.5727	16.4917	-82.2412	-11.6222	0.322298
0.7407	-380.306	-11.9749	0.365977	-8.53096	151.401	293.974	-47.9006	-74.0212	-11.6222	0.322298
0.7413	-282.059	-14.7453	4.94068	-3.61355	95.5433	419.702	-100.701	-77.0518	-13.7066	0.322298
0.7420	-150.839	-17.1581	6.77057	-3.0175	3.39939	317.757	-131.205	-74.6024	-17.686	0.322298
0.7427	-102.275	-16.89	9.51539	-2.42145	-67.7044	146.861	-110.148	-67.9185	-19.8335	0.322298
0.7433	-55.2779	-18.4092	12.2602	-2.12343	-66.185	14.4148	-44.2402	-64.5558	-21.9811	0.322298
0.7440	-54.3827	-18.6773	11.3453	-6.07226	-20.4221	-79.2658	9.46598	-59.0343	-20.4652	0.322298
0.7447	-74.2261	-16.2645	10.4303	-13.7091	43.677	-129.008	26.5677	-48.9877	-14.3383	0.322298
0.7453	-47.072	-16.2645	10.7353	-18.8873	106.231	-161.654	46.7001	-42.885	-14.0224	0.322298
0.7460	-1.86498	-16.2645	10.4303	-20.1167	119.056	-198.906	108.042	-37.3635	-15.8542	0.322298
0.7467	37.1503	-14.1197	9.82037	-15.5345	110.815	-175.091	198.982	-27.6075	-14.6541	0.322298
0.7473	74.0769	-11.9749	9.51539	0.931328	122.095	-174.176	249.953	-18.4742	-17.1175	0.322298
0.7480	86.0128	-9.56207	5.55064	14.9757	115.09	-268.173	216.084	-13.5754	-25.3288	0.322298
0.7487	88.3999	-7.05985	-0.853945	12.8523	88.8476	-174.492	150.472	-11.7487	-34.4876	-1.28919
0.7493	84.4462	-3.75334	-0.853945	9.49954	80.9157	176.164	86.9847	-9.29935	-34.8035	-0.644596
0.7500	47.5196	-1.87667	2.50084	7.04084	72.9838	333.023	21.0771	-10.5448	-30.1925	0.322298
0.7507	61.5443	-4.64699	2.80582	1.26661	28.4055	43.7176	-26.2332	-16.9381	-29.624	0.322298
0.7513	153.749	-4.91508	2.50084	-2.12343	-31.3928	-313.341	-44.2402	-19.0554	-25.6446	0
0.7520	209.922	-2.77032	-0.548965	-7.30161	-66.8031	-416.169	-45.4603	-16.9381	-22.2969	0.322298
0.7527	123.238	-2.50222	-3.29379	-12.1818	-75.9454	-379.548	-31.4286	-14.4887	-21.6653	0.322298
0.7533	-136.516	-1.87667	-0.548965	-8.19568	-64.6656	-288.013	13.4413	-14.8208	-17.686	0.322298
0.7540	-350.392	-1.87667	1.28092	-3.31553	-32.3199	-204.394	75.3933	-17.8514	-16.4858	0.322298
0.7547	-326.893	-4.37889	1.28092	0.931328	-2.11174	-227.893	115.973	-20.5914	-21.9811	0.322298
0.7553	-189.556	-8.04286	3.41578	14.0817	8.88476	-206.823	104.067	-21.8369	-31.4558	0
0.7560	-71.4659	-9.83017	5.24566	21.3833	8.88476	-62.4853	52.8009	-23.0408	-39.3513	0
0.7567	2.68557	-8.93652	5.24566	12.5543	12.8507	56.2399	-1.51534	-21.5048	-37.8353	0.322298
0.7573	29.8396	-8.57905	4.02574	1.26661	24.7486	158.153	-53.3913	-20.9235	-30.5083	0.322298
0.7580	22.5289	-8.93652	3.41578	-0.260772	27.1951	280.537	-78.1091	-22.7502	-26.8448	0.322298
0.7587	-4.32675	-8.04286	3.1108	1.26661	22.0187	296.403	-62.8572	-23.3314	-25.3288	0.322298
0.7593	-22.6781	-7.6854	1.89088	0.931328	34.2256	263.157	-54.0013	-22.7502	-20.781	0.322298
0.7600	-19.3212	-7.05985	3.1108	6.44479	55.5748	348.605	-67.423	-21.2142	-16.8017	0.322298
0.7607	-9.25029	-6.43429	4.33072	12.2563	61.6782	430.994	-66.5177	-18.4742	-20.1494	0.322298
0.7613	-3.72995	-6.79175	2.19586	10.7289	50.6818	381.567	-43.3152	-17.5608	-26.2131	0.322298
0.7620	-0.0745991	-7.05985	0.670957	8.56821	37.2645	301.607	-22.8679	-18.142	-27.1606	0.322298
0.7627	3.87915	-6.79175	0.670957	8.56821	35.436	275.963	-16.1571	-18.7648	-25.3288	0.322298
0.7633	9.10109	-6.1662	-0.243984	7.97216	29.6416	281.452	-22.8679	-17.5608	-23.1812	0.322298
0.7640	17.0086	-4.37889	0.670957	12.2563	13.4688	271.705	-32.6488	-14.8208	-16.4858	0.322298
0.7647	20.0672	-3.12778	0.670957	20.4892	4.91881	231.71	-37.2145	-13.2848	-12.5065	0.322298
0.7653	15.5166	-3.39588	-1.46391	24.14	2.47228	136.2	-37.8246	-12.6621	-16.8017	0.322298
0.7660	14.5468	-3.12778	-2.68383	25.9654	1.57093	5.86687	-30.2085	-10.5448	-17.3701	0.322298
0.7667	23.7225	-2.77032	-2.07387	29.0202	2.78132	-64.5986	-12.2015	-9.00875	-15.2857	0.322298
0.7673	42.3723	-3.39588	-1.15893	22.6126	-2.70406	-85.3534	5.51034	-9.92208	-13.7066	0.322298
0.7680	57.2921	-3.75334	-0.548965	3.09201	-9.42557	-95.1315	10.0761	-10.5448	-9.79044	0.322298
0.7687	56.3969	-4.37889	-0.853945	-0.59605	-7.90615	-82.0099	-5.49066	-11.4581	-7.95868	0.322298
0.7693	51.175	-4.02143	-0.853945	24.14	-7.90615	-67.0589	-32.0387	-11.7487	-11.8749	0.322298
0.7700	46.9228	-3.12778	-1.46391	19.2599	-12.7734	-50.8777	-46.9953	-12.0393	-16.8017	-0.322298
0.7707	42.9691	-2.77032	-1.46391	-23.1714	-9.11653	-10.2828	-43.3152	-11.4581	-15.2857	-0.644596
0.7713	43.2675	-0.983017	0.670957	-23.1714	2.78132	22.0481	-32.0387	-8.09542	-8.84298	0.322298
0.7720	40.5073	-0.983017	-0.243984	8.56821	8.26669	22.9628	-17.0821	-6.84997	-6.6954	0.322298
0.7727	37.4487	-1.25111	-2.07387	12.8523	-3.9402	25.4231	-4.56571	-7.4727	-4.86364	0
0.7733	38.4185	-0.714921	-1.15893	8.27019	-26.2165	57.1546	-10.6664	-6.55937	0.315821	0.322298
0.7740	35.6584	-0.357461	-1.46391	7.97216	-8.21518	76.9947	-25.938	-6.55937	1.20012	0.322298
0.7747	32.5998	-0.0893652	-2.07387	5.21543	59.2317	27.2525	-24.7178	-5.93664	2.14758	0.322298
0.7753	33.7934	0.268095	-1.15893	16.8011	95.2601	-53.9373	-22.8679	-5.64604	3.3477	0.322298
0.7760	31.7046	-0.0893652	-2.07387	50.9995	79.0872	-105.509	-32.944	-5.93664	-0.315821	0.322298
0.7767	28.6461	-0.357461	-2.37885	82.7391	63.8157	-119.861	-29.5984	-6.26876	-1.83176	0.322298
0.7773	30.138	0.536191	-0.243984	81.8078	41.8485	-150.678	-10.6664	-6.26876	2.77922	0.322298
0.7780	31.0332	1.16175	0.365977	58.6364	4.60977	-215.97	-3.05037	-5.93664	5.8111	0.322298
0.7787	29.5412	-0.0893652	-0.243984	43.9587	-15.529	-236.441	-14.937	-6.84997	2.77922	-0.644596
0.7793	27.9747	0.268095	0.365977	38.7805	-24.9803	-193.701	-25.3279	-7.7633	0.631642	-0.966894
0.7800	26.4827	1.42984	1.5859	30.5475	-37.8053	-162.254	-16.1571	-6.84997	2.77922	0
0.7807	22.5289	0.893652	0.670957	22.0166	-44.2178	-169.603	21.3722	-6.84997	1.51594	-0.644596
0.7813	19.4704	0.536191	0.670957	8.27019	-33.5303	-150.362	63.1918	-7.18209	0.631642	-0.966894
0.7820	21.2607	0.893652	2.80582	-12.4798	-17.3575	-85.3534	74.4683	-5.35543	2.14758	0.322298
0.7827	23.4241	0.893652	3.1108	-23.1714	-22.2505	-4.479	63.1918	-4.73271	-1.83176	0.322298
0.7833	23.1257	1.42984	1.89088	-11.8837	-40.5609	94.3745	47.3102	-4.73271	-6.12692	0.322298
0.7840	24.6177	2.41286	1.28092	3.39003	-42.3893	141.688	29.9133	-3.81938	-3.3477	0.322298
0.7847	28.6461	3.57461	0.0609961	-5.14093	-31.3928	109.042	17.7118	-2.28332	-1.51594	-0.644596
0.7853	31.3316	4.46826	-2.37885	-22.2401	-26.2165	115.76	11.2962	-0.456665	-3.97934	-1.28919
0.7860	38.0455	5.71937	-2.68383	-22.2401	-12.7734	176.479	7.34056	0.456665	-0.631642	-1.28919
0.7867	43.5659	6.07683	-2.07387	-13.7091	13.4688	156.639	5.51034	-0.16606	4.61098	-0.644596
0.7873	38.4185	6.97048	-3.29379	-6.07226	26.8861	73.0204	1.53502	-1.07939	3.03188	0.322298
0.7880	28.6461	7.59604	-4.81869	0.0372531	25.3666	44.033	-5.49066	-2.90605	1.20012	0.322298
0.7887	23.4241	5.45127	-2.68383	-1.49012	16.1986	42.2036	-8.54103	-6.26876	1.20012	0.322298
0.7893	19.7688	3.30651	-0.243984	-10.0583	4.91881	30.3121	-6.10073	-8.09542	0.315821	0.322298
0.7900	18.5752	4.20016	0.975937	-4.8429	-1.8027	24.7922	-6.71081	-7.18209	-0.315821	0.322298
0.7907	16.7102	5.45127	0.975937	12.5543	-9.7346	14.7302	-11.8866	-6.84997	-1.20012	0.322298
0.7913	6.93772	5.71937	-0.243984	20.1539	-16.4561	-8.45333	-11.2765	-6.26876	-2.14758	0.322298
0.7920	-3.43156	6.97048	-1.46391	20.7872	-21.6325	-43.2445	-6.39593	-4.73271	-3.3477	0.322298
0.7927	-5.59493	6.07683	-2.07387	18.0305	-25.9074	-60.9397	-8.54103	-7.4727	-6.12692	0.322298
0.7933	-4.02835	5.71937	-1.15893	3.98608	-24.6971	-64.3147	-12.2015	-9.92208	-5.8111	0.322298
0.7940	-4.92354	6.34493	-0.243984	-6.07226	-29.5644	-128.693	-9.76118	-9.29935	-3.3477	0.322298
0.7947	-4.62514	5.45127	0.365977	3.39003	-35.9768	-215.371	-7.93095	-9.63147	-1.83176	0.322298
0.7953	0.522194	4.46826	0.0609961	9.20152	-28.9463	-233.066	-7.006	-10.5448	0.947462	0.322298
0.7960	5.14734	4.82572	-1.76889	-1.49012	-22.8428	-219.944	0.314877	-10.5448	2.77922	0.322298
0.7967	6.63932	5.45127	-2.37885	-9.12701	-21.3234	-195.531	10.6861	-9.92208	2.4634	0
0.7973	8.5043	6.61302	-0.243984	-12.7778	-18.2846	-137.556	14.3466	-7.7633	3.3477	0
0.7980	8.80269	7.23858	-0.548965	-0.894074	-18.5679	-75.6069	8.24583	-7.4727	-0.631642	0.322298
0.7987	7.53451	6.97048	-2.07387	43.6606	-15.838	-30.1229	0.92495	-8.38603	-7.32704	0.322298
0.7993	10.2947	6.61302	-0.853945	50.0682	-6.67001	5.26756	-1.20047	-8.09542	-8.52716	0.322298
0.8000	14.2484	5.45127	0.0609961	-6.07226	-1.8027	32.1416	-1.51534	-8.38603	-3.3477	0.322298
0.8007	12.1597	5.45127	0.0609961	-3.61355	0.952858	54.4104	2.75517	-10.2127	1.51594	0.322298
0.8013	7.8329	6.07683	1.28092	76.9277	1.85421	62.643	5.51034	-11.7487	-0.315821	0.322298
0.8020	8.5043	5.09381	0.365977	127.592	-3.01309	65.0717	-2.42061	-10.8354	-7.32704	0.322298
0.8027	13.6516	3.93207	-0.548965	115.708	-5.76865	75.4492	-8.54103	-10.2127	-10.0431	0
0.8033	21.2607	4.20016	0.670957	73.5749	-3.01309	80.969	-8.54103	-10.2127	-7.95868	0.322298
0.8040	22.8273	4.46826	0.365977	31.7769	-0.257529	79.7389	-10.0564	-9.92208	-7.64286	0.322298
0.8047	20.0672	3.93207	-0.243984	15.9071	0.643823	64.157	-8.83623	-9.29935	-5.17946	0.322298
0.8053	20.0672	3.93207	0.365977	-39.0413	0.334788	32.4255	-5.17578	-8.38603	-0.631642	0.322298
0.8060	19.7688	3.93207	0.365977	-164.472	0.0257529	9.55731	-6.39593	-9.29935	2.14758	0.322298
0.8067	24.6177	4.20016	0.0609961	-191.332	-0.257529	0.69393	-7.93095	-9.92208	3.97934	0.322298
0.8073	30.4364	4.82572	0.365977	-77.1884	-1.49367	-5.10985	-8.83623	-9.92208	2.4634	0.322298
0.8080	24.6177	6.07683	0.0609961	-5.77423	-4.53251	-9.36806	-11.2765	-9.92208	0.315821	0
0.8087	12.458	7.23858	-2.07387	-8.19568	-6.67001	-9.36806	-13.1067	-9.29935	0.947462	0.322298
0.8093	10.8915	7.59604	-4.20873	-11.8837	-4.53251	-8.45333	-14.6418	-6.26876	2.14758	0.322298
0.8100	20.0672	5.71937	-3.90375	-26.5242	-3.01309	-11.8284	-14.0317	-1.36999	1.83176	0
0.8107	20.0672	2.41286	-2.07387	-40.5686	-4.84155	-14.8564	-11.5914	0.16606	1.20012	0.322298
0.8113	5.14734	2.41286	-3.90375	-33.5278	-5.76865	-17.6006	-9.1511	0.456665	3.66352	0.322298
0.8120	-4.92354	-4.64699	-4.20873	-42.6921	-5.76865	-28.2934	-9.1511	-4.4421	6.6954	0.322298
0.8127	3.58076	-18.9454	5.85562	-75.9591	-5.76865	-38.0715	-9.4463	-19.6781	5.8111	0
0.8133	9.39949	-8.31096	9.82037	-89.0722	-4.84155	-41.0996	-4.88059	-30.0568	4.61098	0.322298
0.8140	-1.26818	14.2984	-5.12367	-70.7809	-4.84155	-44.4746	2.75517	-20.9235	3.97934	0.322298
0.8147	-6.49012	13.0473	-13.9681	-47.2742	-5.45962	-41.415	6.73049	-9.00875	2.14758	0.322298
0.8153	-1.56658	6.34493	-6.95355	-32.6337	-6.97904	-26.7794	2.75517	-14.8208	-0.884298	0.322298
0.8160	-1.86498	2.68095	-2.98881	-25.2949	-8.21518	-13.6578	-6.10073	-21.5048	-4.54782	0.322298
0.8167	-1.26818	-5.54064	-4.81869	-19.4834	-6.67001	-12.1122	-10.3712	-18.142	-6.12692	0.322298
0.8173	8.2059	-3.12778	0.0609961	-16.4659	-4.84155	-15.4873	-9.76118	-17.5608	-4.29516	0
0.8180	14.5468	8.13223	12.5652	-15.8326	-6.07769	-19.4616	-9.4463	-27.3169	-3.03188	0
0.8187	17.307	12.7792	15.005	-11.5485	-6.97904	-26.464	-6.71081	-38.3183	-3.66352	0
0.8193	24.3193	16.9794	5.55064	-7.59963	-7.59711	-30.7537	0.314877	-32.7968	-2.14758	0
0.8200	25.8859	23.7711	-8.47846	-7.89766	-10.0436	-25.2338	3.07005	-34.0423	-0.884298	0.322298
0.8207	20.6639	9.7408	-33.4869	-6.66831	-10.636	-17.0013	3.68012	-50.1916	-1.20012	0.322298
0.8213	18.8736	-4.64699	-51.5417	-4.24685	-9.7346	-14.2571	5.80554	-48.3649	-0.315821	0.322298
0.8220	17.0086	15.1921	-38.3665	-3.61355	-9.7346	-13.9417	4.58539	-24.8675	-0.884298	0.322298
0.8227	15.815	30.7416	1.89088	-3.61355	-7.90615	-17.6006	0.92495	23.3314	-2.14758	0.322298
0.8233	18.2768	17.6049	28.7292	-2.42145	-6.07769	-24.3191	-1.51534	67.5864	-3.03188	0.322298
0.8240	14.5468	-10.7238	22.0196	-0.260772	-6.97904	-27.3787	-3.66044	81.3278	-3.3477	0.322298
0.8247	3.58076	-46.1124	20.1897	1.26661	-8.21518	-30.4383	-4.56571	111.219	-1.51594	0.322298
0.8253	-4.32675	-50.4019	29.0341	0.335278	-8.21518	-34.6965	-5.49066	137.498	-1.20012	0.322298
0.8260	-5.59493	-15.2814	26.8993	-0.894074	-8.8075	-40.1849	-5.78586	93.5332	-2.14758	0.322298
0.8267	-4.62514	12.4218	18.3598	0.0372531	-5.45962	-56.6815	-3.95564	-10.2127	-1.51594	0.322298
0.8273	-9.25029	11.7962	13.7851	0.931328	4.60977	-79.2658	-3.34556	-84.6906	-2.4634	0.322298
0.8280	-15.6658	7.23858	11.9552	3.09201	10.0951	-85.9843	-1.20047	-83.1545	-2.14758	0
0.8287	-15.6658	21.0008	10.1254	4.32136	7.95765	-53.0226	2.75517	-85.8945	-0.315821	0.322298
0.8293	-11.3391	29.848	11.6503	3.39003	11.3313	8.92647	2.45997	-97.1866	0.631642	0.322298
0.8300	-7.08691	15.4602	5.85562	2.16068	14.0611	29.082	-1.81054	-52.9316	1.51594	0.322298
0.8307	-4.92354	1.16175	-7.56352	1.26661	13.1597	-6.9393	-6.71081	-5.02331	0.631642	0.322298
0.8313	-3.43156	8.75778	-17.0179	5.21543	12.8507	-36.2421	-9.1511	11.126	0	0.322298
0.8320	9.10109	6.34493	-24.3374	14.0817	6.74727	-44.4746	-11.8866	15.7342	2.14758	0.322298
0.8327	26.4827	-17.4262	-18.8478	16.8011	9.19379	-46.9034	-19.5224	7.18209	3.03188	0.322298
0.8333	33.1966	-14.7453	-9.3934	12.8523	22.6111	-35.6112	-27.7682	-2.90605	1.83176	0.322298
0.8340	31.0332	2.94905	-20.9827	9.20152	24.1562	-13.6578	-32.944	-5.64604	1.51594	0.322298
0.8347	26.4827	19.7497	-41.1114	6.74281	14.9882	5.58298	-34.479	-7.7633	1.20012	0.322298
0.8353	27.0795	27.0776	-50.6268	6.74281	9.81186	39.144	-28.6735	-7.18209	0.947462	0.322298
0.8360	34.6886	23.7711	-35.9267	8.56821	2.16325	97.7495	-15.2518	2.90605	2.14758	0.322298
0.8367	35.0616	54.8702	-12.1382	9.49954	-11.8721	122.163	-0.90527	-18.7648	3.97934	0.322298
0.8373	23.1257	58.2661	25.0694	9.79757	-22.5596	82.7985	1.8499	-40.145	2.77922	0.322298
0.8380	0.223797	-1.87667	76.3671	9.20152	-28.9463	33.971	-2.42061	23.3314	-0.884298	0
0.8387	-24.1701	-30.9203	66.9127	8.86624	-32.0109	8.01174	-3.05037	14.8208	-4.54782	0.322298
0.8393	-30.2872	-23.8605	19.5797	8.56821	-32.629	-0.820099	-3.05037	-93.5332	-5.49528	0.322298
0.8400	-18.6498	-32.0821	16.5299	7.04084	-26.5255	12.3015	-6.71081	-50.8143	-2.71606	0
0.8407	-6.78852	-35.1205	25.3744	4.91741	-12.7734	31.5107	-6.10073	29.4341	1.20012	0
0.8413	-4.92354	-14.7453	5.24566	3.68806	-6.36097	29.9967	2.45997	-47.4516	0.947462	0.322298
0.8420	-3.43156	20.6434	-10.3083	2.79398	-9.42557	19.9347	9.78086	-145.427	-3.3477	0.322298
0.8427	6.93772	44.5038	-5.12367	5.51346	-9.11653	18.7046	7.63576	-188.146	-4.29516	0.322298
0.8433	18.8736	21.0008	-2.68383	9.49954	-8.49846	16.5597	-3.05037	-158.214	-3.03188	0
0.8440	20.6639	-13.7622	-1.46391	10.7289	-12.1811	11.9861	-7.32088	-49.901	-3.03188	0.322298
0.8447	13.0548	-11.7068	3.72076	10.0956	-12.7734	11.0713	0.0196798	24.5769	-2.71606	0.322298
0.8453	6.63932	15.8176	4.6357	7.04084	-11.254	8.32716	5.80554	24.2447	-4.29516	0.322298
0.8460	3.28236	33.78	0.975937	3.98608	-8.8075	4.95214	7.02568	30.9702	-5.8111	0.322298
0.8467	-0.372995	3.93207	-9.08842	3.68806	-3.01309	4.66826	10.3909	65.4691	-3.3477	0.322298
0.8473	2.68557	-39.7675	-14.5781	4.61938	1.26189	4.35284	15.2715	62.1064	-1.20012	0.322298
0.8480	8.2059	-37.6227	-12.4432	5.51346	2.16325	6.49771	18.6171	23.9541	-0.884298	0.322298
0.8487	11.1899	-7.6854	-20.9827	4.91741	2.16325	10.7559	18.6171	-14.1981	-1.20012	0
0.8493	15.2182	20.1072	-52.1517	2.79398	0.334788	10.472	12.5163	-17.2287	-1.51594	0.322298
0.8500	19.172	17.3368	-72.8903	1.26661	-1.18463	5.58298	1.23983	21.2142	-2.4634	0.322298
0.8507	24.9907	-22.6094	-33.7918	2.4587	0.0257529	2.20796	-6.10073	9.63147	-1.20012	0
0.8513	31.3316	-39.7675	25.0694	3.68806	3.39939	2.52338	-5.49066	-25.7808	0.631642	0
0.8520	25.8859	-10.7238	48.6139	3.09201	3.9917	2.83881	-4.27051	-14.4887	0.315821	0.322298
0.8527	6.34092	6.07683	41.5383	0.335278	-0.257529	1.29323	-5.17578	-13.5754	-2.71606	0.322298
0.8533	-9.84708	-0.983017	14.0901	-1.1921	-3.9402	0.69393	-6.10073	-6.84997	-4.54782	0.322298
0.8540	-14.0992	18.588	-14.2731	0.633303	-4.24923	2.52338	-2.73549	13.2848	-2.4634	0.322298
0.8547	-11.3391	40.2143	-32.5719	1.56463	-1.8027	3.43811	1.8499	5.64604	0	0
0.8553	-0.0745991	20.1072	-57.9463	0.0372531	-0.257529	1.92408	3.36524	12.6621	1.20012	0.322298
0.8560	9.39949	-14.7453	-69.8405	-2.12343	-1.18463	-0.220796	3.07005	5.93664	0	0.322298
0.8567	8.80269	-39.41	-37.7566	-3.61355	-3.01309	-2.36567	2.1451	-42.5529	-4.54782	0.322298
0.8573	9.39949	-29.9373	3.72076	-1.1921	-2.11174	-3.56428	2.45997	-64.2237	-5.49528	0
0.8580	14.5468	5.71937	23.5445	3.09201	0.0257529	-2.96497	5.80554	-56.917	-1.51594	0
0.8587	17.307	10.6345	11.9552	2.16068	0.952858	-2.05025	9.46598	-10.8354	0.631642	0.322298
0.8593	16.4118	0.536191	-20.9827	-1.78815	0.643823	-2.05025	8.8559	31.8835	0.315821	0.322298
0.8600	12.7564	11.7962	-26.4723	-5.47621	-0.257529	-3.56428	3.36524	-30.3474	-1.20012	0.322298
0.8607	-1.56658	27.7032	9.82037	-7.59963	-1.8027	-4.79443	-1.51534	-73.1079	-3.03188	0.322298
0.8613	-21.1115	25.2903	54.7135	-5.77423	-1.18463	-4.19512	-2.12542	-31.8835	-1.83176	0.322298
0.8620	-30.2872	-2.23413	53.1886	-2.71948	0.334788	-3.2804	-0.90527	-10.5448	0	0.322298
0.8627	-34.5394	-11.7068	12.5652	-1.1921	1.57093	-2.05025	0.629753	13.2848	0.947462	0.322298
0.8633	-35.1362	8.13223	-12.4432	-1.1921	1.57093	-1.13552	0.314877	27.3169	0.947462	0.322298
0.8640	-28.1239	7.23858	-20.0677	-3.0175	-0.257529	-0.820099	-1.81054	15.1115	-0.884298	0.322298
0.8647	-30.2872	-1.60857	-24.9474	-3.94883	-0.257529	1.00935	-1.51534	54.177	-1.20012	0.322298
0.8653	-37.8963	12.7792	-18.8478	-2.71948	0.643823	4.03741	0.314877	90.5027	-0.884298	0.322298
0.8660	-22.0067	20.6434	-10.0034	0.931328	1.85421	7.41244	2.1451	34.9556	0.315821	0.322298
0.8667	7.53451	-8.31096	-9.08842	3.68806	2.16325	6.18229	2.1451	-22.1275	0.315821	0.322298
0.8673	16.4118	-19.571	-6.34359	1.86266	-0.875599	1.29323	-1.51534	10.2127	-3.97934	0.322298
0.8680	14.5468	21.8945	-8.47846	0.931328	-1.8027	-0.220796	-3.95564	29.4341	-5.49528	0.322298
0.8687	20.6639	33.78	-11.2233	1.56463	0.643823	1.60866	-1.51534	-48.6556	-2.14758	0.322298
0.8693	24.3193	-3.12778	-0.853945	1.26661	2.47228	2.83881	0.92495	-89.5893	0.315821	0.322298
