MR32 ASCII
Name	CRYE30_slow
Frequency	1500
Date	04-09-2015 11:22:48
"Time,s"	"RT TIB.ANT.,uV"	"RT MED. GASTRO,uV"	"RT LAT. GASTRO,uV"	"RT BICEPS FEM.,uV"	"RT VMO,uV"	"RT VLO,uV"	"RT RECTUS FEM.,uV"	"RT SOLEUS,uV"	"RT SEMITEND.,uV"	"Channel 12,uV"
0.0000	-4.11502	11.2372	-2.77738	0.324612	4.64829	4.99383	-82.9688	-5.95289	4.73635	-9648.42
0.0007	-1.35397	10.9389	-2.47622	1.84779	5.55431	4.99383	-129.048	-0.170083	5.62201	-10228.8
0.0013	-1.67256	7.88927	-5.22014	-1.19857	4.94373	-2.33183	-125.387	0.127562	3.50413	-9533.35
0.0020	-4.72563	6.06612	-8.56638	-4.56954	7.09061	-6.91294	-90.5956	-1.06302	2.88802	-9887.49
0.0027	-6.55748	8.18761	-9.50333	-5.7681	10.7541	-4.1684	-69.2347	8.67421	3.50413	-9830.28
0.0033	-6.2389	14.5852	-4.91898	-2.4221	18.3765	1.93975	-69.2347	25.1722	5.35246	-9792.88
0.0040	-4.40705	17.3365	1.50581	0.923895	24.4823	7.73837	-69.2347	20.2824	5.62201	-9816.22
0.0047	-2.89379	12.4637	-1.8739	-2.12246	24.4823	10.7924	-68.323	-1.06302	1.34774	-9815.9
0.0053	-2.28317	4.83964	-8.26522	-2.72175	25.9989	7.73837	-75.9498	-3.82686	-0.462083	-9807.27
0.0060	-1.67256	0.861853	-8.26522	0.0249701	26.6095	5.59226	-73.5185	4.1245	1.96385	-9793.2
0.0067	-1.96459	3.01649	-3.68087	-0.599283	20.8188	4.06522	-50.0157	3.18905	1.34774	-9913.7
0.0073	-5.01767	5.76779	-3.68087	-1.82282	14.3979	-2.64136	-6.68613	3.48669	-1.07819	-9651.29
0.0080	-6.84951	5.76779	-18.6386	-0.599283	11.6601	-9.36859	9.79764	15.0948	-0.770138	-9808.87
0.0087	-7.46013	3.91149	-32.0905	-0.599283	9.53293	-16.3847	-35.066	12.0333	-1.38625	-10473
0.0093	-8.68136	1.79	-19.8767	-1.82282	7.99663	-24.3088	-55.5007	-11.7357	-2.31041	-6203.53
0.0100	-7.46013	3.61315	-4.01549	-0.274672	12.5661	-27.6724	-40.8548	-16.3279	-0.462083	-163.007
0.0107	-5.33625	3.91149	-5.82246	0.0249701	14.713	-31.944	-71.3766	-11.1404	-0.462083	109.63
0.0113	-4.40705	-0.0331482	-11.6449	-2.4221	10.7541	-40.4871	-96.3989	-24.2793	-2.61847	-281.267
0.0120	-0.743358	-1.88945	-11.0091	-1.49821	11.345	-42.0142	-49.104	-34.3567	0.462083	72.8737
0.0127	2.92034	-2.18778	-6.75941	1.24851	14.1024	-33.7806	22.316	-34.6543	3.81218	15.6615
0.0133	3.82298	-5.53575	-5.22014	-0.599283	11.345	-22.7818	50.6959	-32.4858	1.34774	-21.4146
0.0140	1.99114	-7.06057	-7.66289	-3.346	8.60721	-13.3306	20.782	-29.1692	0.462083	2.23735
0.0147	1.6991	-4.30927	-9.50333	-4.24492	6.77547	-3.56997	-16.7443	-38.6088	1.6558	-0.639243
0.0153	2.30972	-1.88945	-9.80449	-4.24492	5.25887	8.95587	-25.2973	-55.9997	1.34774	-0.639243
0.0160	2.30972	1.16019	-11.0091	-2.12246	5.55431	23.6072	-10.0292	-63.3133	1.34774	-0.639243
0.0167	1.6991	5.43631	-14.3888	0.0249701	5.86945	28.1677	7.35185	-47.1554	0.770138	-0.319622
0.0173	-1.96459	5.13797	-17.4339	-1.19857	3.72257	22.9881	18.6546	-5.3576	-3.19607	-0.319622
0.0180	-2.89379	8.48594	-11.3103	3.37097	6.48003	25.1342	65.0378	47.1554	-1.6943	-0.319622
0.0187	-2.89379	12.4637	-4.61781	7.96547	10.1435	22.369	114.779	81.0019	2.57996	-0.319622
0.0193	-7.77871	7.59094	-7.66289	3.07133	5.25887	10.4829	128.209	82.5326	-0.770138	-0.319622
0.0200	-9.90259	6.36446	-9.20216	0.324612	3.42713	10.1734	118.44	70.6268	-2.00236	-0.639243
0.0207	-8.99994	13.6902	-3.68087	3.07133	7.99663	15.3529	63.1998	55.9997	2.88802	-0.319622
0.0213	-12.9557	16.7398	-3.68087	0.923895	6.48003	14.445	4.00878	21.8131	1.34774	-0.319622
0.0220	-17.23	14.5852	-7.66289	-3.94528	1.59539	14.1354	7.35185	-12.6712	-2.88802	-0.319622
0.0227	-15.3981	16.1432	-5.22014	-1.82282	4.33315	19.6245	31.1585	-6.25054	0.154028	0
0.0233	-13.5663	18.2647	-2.77738	2.47204	7.38605	19.6245	29.9429	15.0948	2.88802	-0.319622
0.0240	-15.1061	14.2869	-6.75941	0.324612	2.81655	5.59226	-0.274971	17.561	-2.31041	-0.319622
0.0247	-17.8406	10.3422	-8.26522	-2.12246	0.374227	-5.69544	-85.1106	18.7516	-5.66052	0
0.0253	-21.1857	8.18761	-6.75941	-1.82282	1.59539	-7.22248	-185.2	22.7486	-6.58468	-0.319622
0.0260	-22.4069	6.66279	-6.45825	-1.19857	2.50141	-10.2766	-217.56	23.3438	-6.58468	0
0.0267	-21.7963	7.59094	-5.22014	-1.82282	5.25887	-16.3847	-174.216	23.3438	-2.88802	0
0.0273	-22.7255	6.06612	-4.61781	-5.46846	5.86945	-20.9658	-90.2917	19.6871	-0.770138	0
0.0280	-23.9467	3.01649	-3.07854	-7.31625	6.16489	-20.9658	-26.8169	15.3925	0.154028	0
0.0287	-23.0175	3.01649	-2.47622	-6.09271	7.09061	-18.5102	-28.047	14.2019	1.34774	0
0.0293	-21.1857	3.01649	-4.61781	-5.46846	6.16489	-16.3847	-53.9811	12.0333	-0.154028	0
0.0300	-17.8406	2.08834	-4.91898	-4.56954	5.86945	-14.8577	-17.0482	9.60967	-1.07819	0
0.0307	-14.4955	2.08834	-4.91898	-3.94528	5.86945	-20.9658	105.632	10.205	-2.31041	0
0.0313	-11.4424	3.31482	-6.75941	-3.94528	6.48003	-32.2535	232.278	9.90731	-4.73635	-0.319622
0.0320	-7.77871	4.20982	-8.86754	-4.56954	9.53293	-38.9601	303.076	8.07893	-5.35246	-0.319622
0.0327	-3.18582	6.06612	-9.50333	-4.86918	13.4919	-39.5792	328.706	9.60967	-2.88802	0
0.0333	-1.06194	7.88927	-8.86754	-2.4221	18.0614	-36.8346	309.183	13.8617	-0.770138	0
0.0340	-5.33625	6.96112	-8.26522	1.54815	23.2611	-34.6885	235.331	13.2664	-2.61847	-0.319622
0.0347	-8.38933	6.36446	-6.12362	5.81804	26.9246	-35.5965	143.462	10.8428	-4.12024	0
0.0353	-6.84951	6.66279	-4.91898	8.56476	25.9989	-40.7967	80.8993	9.31202	-5.35246	0
0.0360	-8.68136	5.43631	-6.12362	8.56476	21.1143	-44.1397	48.8579	9.60967	-7.7784	0
0.0367	-17.5486	4.83964	-3.68087	7.04158	16.8402	-39.5792	71.145	11.7357	-4.42829	0
0.0373	-28.5131	2.685	2.71046	4.89415	14.1024	-36.8346	157.5	9.60967	-0.154028	0
0.0380	-34.6192	-2.18778	6.39132	3.99522	14.3979	-38.341	187.414	6.54818	-0.770138	0
0.0387	-39.5042	-2.18778	6.0567	3.07133	17.1553	-27.9819	93.1137	9.01438	-0.770138	0
0.0393	-43.4864	0.56352	5.75554	1.24851	18.6719	-3.56997	-28.3509	12.0333	1.96385	-0.319622
0.0400	-46.5395	-0.961298	6.69248	-2.72175	21.1143	18.7165	-118.99	10.8428	3.50413	-0.319622
0.0407	-51.7165	-2.18778	8.19829	-6.09271	21.7248	29.0963	-183.073	9.90731	5.93006	0
0.0413	-50.4953	0.56352	7.59597	-6.09271	10.1435	37.6394	-209.614	13.2664	9.01062	0
0.0420	-44.0971	2.38667	-0.936948	-9.43871	-8.1739	45.8731	-205.041	10.205	6.54617	0
0.0427	-42.8758	5.13797	-8.86754	-12.1854	-18.8492	48.6176	-162.32	6.84583	3.81218	0
0.0433	-35.8405	11.8671	-7.06057	-5.46846	-18.2386	45.2746	-83.2727	14.2019	7.7784	0
0.0440	-28.8317	12.1654	-9.50333	-4.56954	-16.4069	26.6613	-32.0124	13.5641	4.12024	0
0.0447	-36.1591	8.18761	-16.8316	-7.91553	-16.1114	5.59226	-13.3867	4.42215	-5.35246	0.319622
0.0453	-37.3803	11.2372	-14.9912	-2.72175	-11.8374	8.3368	38.7853	5.01744	-3.50413	0.319622
0.0460	-29.7343	10.9389	-11.0091	-0.898925	-16.4069	19.3356	110.813	4.71979	-1.38625	0
0.0467	-44.3891	4.54131	-9.80449	-4.56954	-26.1762	19.3356	156.285	2.59376	-7.7784	-0.319622
0.0473	-67.2739	-0.0331482	-2.77738	-4.86918	-24.955	19.0261	169.107	9.90731	-11.1285	0
0.0480	-61.1677	-3.41427	8.19829	-3.64564	-19.1643	26.0422	152.319	16.3279	-8.70256	0.319622
0.0487	-37.6723	-6.4639	14.3219	-3.346	-19.4598	31.8408	150.785	14.2019	-7.47034	0
0.0493	-0.451325	-8.28705	15.8277	-2.12246	-28.6185	29.4058	182.219	8.37657	-10.5509	-0.319622
0.0500	57.8492	-8.28705	16.7647	1.54815	-40.2195	22.6786	180.395	9.31202	-13.901	-0.319622
0.0507	143.282	-8.58539	13.385	0.624254	-53.6523	13.537	128.513	9.60967	-17.5592	0
0.0513	257.122	-7.3589	9.13524	-3.346	-60.0535	7.42883	78.7719	9.01438	-17.5592	0.319622
0.0520	325.166	-5.83408	9.4364	-5.16882	-54.2629	1.93975	25.6736	13.5641	-12.6688	0
0.0527	294.662	-4.01093	7.29481	-6.39236	-42.6618	-6.60341	-59.1766	17.561	-10.5509	0
0.0533	196.379	5.13797	-2.77738	-5.7681	-28.3231	-14.5481	-132.406	19.9847	-9.31867	0.319622
0.0540	84.0791	16.7398	-15.8946	-4.56954	-17.0175	-24.3088	-161.408	22.4084	-8.39451	0
0.0547	1.6991	24.3639	-29.0119	-5.7681	-13.9843	-33.471	-151.031	23.9391	-10.5509	-0.319622
0.0553	-83.4419	28.9384	-36.039	-6.99164	-8.1739	-32.2535	-99.7565	30.3597	-9.62673	0
0.0560	-160.964	30.1649	-31.7558	-5.7681	4.03771	-22.1833	-54.5889	38.3111	-5.35246	0
0.0567	-171.344	28.9384	-27.5061	-5.46846	9.82837	-13.6402	-41.1588	36.1426	-5.35246	0
0.0573	-145.698	23.1375	-25.9668	-8.83943	8.92235	-4.78747	-44.5163	27.2983	-8.39451	0
0.0580	-150.583	15.5134	-18.6386	-10.3626	9.53293	3.46679	-69.2347	23.0462	-6.85423	0.319622
0.0587	-153.026	12.4637	-12.2472	-10.3626	9.53293	-2.04293	-95.1833	26.4053	-3.19607	0.319622
0.0593	-81.026	12.7621	-13.1507	-12.7847	5.86945	-9.36859	-113.794	32.4858	-2.88802	0
0.0600	22.7521	15.215	-13.4519	-12.7847	1.89083	-0.206357	-108.917	38.9064	-3.50413	0
0.0607	115.513	14.9167	-9.50333	-11.2615	-3.60439	14.445	-66.4995	38.9064	-3.50413	0
0.0613	180.822	8.48594	-5.82246	-11.5861	-10.6162	24.5152	-13.0828	28.829	-5.96857	0
0.0620	205.246	1.79	-2.17506	-10.038	-14.2797	27.5692	56.4992	16.0303	-7.47034	0.319622
0.0627	234.529	-2.78445	5.75554	-4.86918	-12.7631	21.7706	115.082	2.59376	-5.96857	0.319622
0.0633	276.662	-9.51354	11.578	-3.02139	-13.0585	9.55431	139.193	-15.0948	-6.85423	0.319622
0.0640	270.848	-14.088	10.3399	-6.09271	-16.4069	1.63022	154.143	-25.81	-10.5509	0
0.0647	222.025	-11.635	7.89713	-7.61589	-16.722	4.06522	141.639	-23.9817	-12.3607	0
0.0653	188.149	-8.28705	9.73756	-6.09271	-15.1857	6.80976	101.652	-21.8131	-11.1285	0.319622
0.0660	89.8932	-5.83408	9.4364	-3.94528	-17.3326	0.103178	66.8613	-24.8746	-10.8589	0
0.0667	-84.6632	-0.662964	3.94857	-1.82282	-21.2915	-7.22248	35.4278	-24.2793	-12.0527	-0.319622
0.0673	-171.344	3.01649	-0.0334624	0.324612	-23.7339	-6.91294	9.49372	-19.0918	-11.7446	0
0.0680	-153.955	1.79	-2.47622	-0.898925	-29.8397	-6.60341	1.86691	-18.1563	-14.5171	0
0.0687	-107.867	-2.48612	-0.936948	-0.898925	-33.5031	-4.1684	-8.81353	-21.2178	-17.5592	-0.319622
0.0693	-51.7165	-7.98872	5.75554	2.47204	-31.376	1.63022	-64.3576	-23.0462	-16.943	0
0.0700	10.5398	-14.088	10.3399	3.67061	-29.2291	1.63022	-120.509	-26.703	-17.8672	0.319622
0.0707	50.2032	-18.6624	12.1803	2.77169	-25.5656	-3.56997	-126.009	-36.1851	-20.9093	0.319622
0.0713	63.6368	-18.6624	16.1289	4.89415	-15.5009	0.412713	-132.102	-40.7348	-18.7914	0.319622
0.0720	98.1233	-15.6128	17.367	4.89415	-9.39506	10.1734	-165.373	-37.078	-14.8252	0.319622
0.0727	144.211	-13.7897	8.49945	-3.346	-12.1525	15.6625	-196.199	-37.3757	-16.3269	0
0.0733	179.309	-8.28705	2.10813	-6.09271	-10.3208	23.6072	-198.63	-34.0165	-13.2849	0
0.0740	171.981	-0.662964	-0.635786	-4.86918	-6.95274	26.0422	-169.035	-26.703	-7.47034	0
0.0747	70.0615	5.76779	-11.3103	-8.51482	-10.9314	14.7545	-122.651	-23.3438	-10.8589	0
0.0753	-92.3091	10.6406	-16.8316	-9.73835	-11.5419	5.9018	-71.9844	-17.8587	-13.5929	-0.319622
0.0760	-243.052	12.4637	-7.96406	-3.64564	-2.67868	6.21133	-30.4783	-12.3735	-6.58468	-0.319622
0.0767	-340.113	9.41409	-3.68087	-1.82282	-0.236354	0.103178	-20.4057	-13.2664	-4.73635	0.319622
0.0773	-370.325	4.54131	-9.50333	-7.91553	-6.95274	-12.7116	-19.494	-13.6066	-12.6688	0.319622
0.0780	-348.953	4.20982	-9.50333	-8.51482	-6.6573	-16.0752	14.0669	-7.18599	-13.5929	0
0.0787	-314.467	5.13797	-3.68087	-4.56954	-1.16207	-13.9291	56.4992	-4.1245	-8.39451	0.319622
0.0793	-298.591	0.265186	-2.77738	-3.94528	-2.99381	-16.9831	96.1674	-14.4995	-12.3607	0
0.0800	-242.759	-3.08278	-3.07854	-2.72175	-4.21497	-16.6736	152.015	-21.5155	-18.1753	0
0.0807	-113.654	1.49167	1.80697	2.47204	2.20597	-12.7116	186.199	-16.9232	-13.2849	0
0.0813	8.09729	-1.25963	7.29481	2.47204	3.72257	-20.3468	131.87	-20.9202	-10.8589	0
0.0820	26.0972	-11.9334	10.641	-1.49821	0.0590884	-31.944	31.4624	-29.4668	-15.0947	0
0.0827	-49.5926	-15.3145	14.3219	-1.19857	0.984807	-35.5965	-11.2593	-25.81	-16.3269	0
0.0833	-111.849	-12.5632	18.5716	1.24851	3.72257	-34.379	-13.3867	-16.3279	-15.4028	-0.319622
0.0840	-107.867	-15.9111	21.0144	-0.599283	3.11199	-31.6345	-12.1711	-10.5451	-16.943	-0.319622
0.0847	-77.6544	-22.9386	25.8999	-3.02139	3.11199	-28.2708	12.5473	-8.07893	-16.943	0.319622
0.0853	-42.8758	-25.3915	35.9721	0.324612	7.38605	-22.7818	27.4971	-7.48364	-12.6688	0
0.0860	0.477873	-26.2865	40.2553	0.624254	8.31177	-15.1672	7.04793	-12.6712	-10.5509	0
0.0867	45.0263	-26.2865	34.7675	-3.64564	5.86945	-7.53201	-6.36774	-19.6871	-11.4366	0
0.0873	73.4066	-22.0104	27.7403	-6.692	3.72257	-2.04293	-3.93642	-22.7486	-11.1285	0
0.0880	77.0703	-11.9334	18.8728	-7.91553	3.11199	5.59226	5.52836	-18.454	-8.39451	0
0.0887	130.778	1.16019	5.15321	-9.73835	1.59539	11.0813	29.0311	-8.07893	-7.16229	0
0.0893	288.848	8.48594	-5.82246	-10.6622	1.28025	14.1354	59.2345	2.29612	-5.96857	0
0.0900	414.9	12.1654	-8.86754	-8.21518	4.33315	19.934	75.7182	9.31202	-1.6943	0
0.0907	323.653	17.668	-14.9912	-8.21518	4.03771	22.369	57.411	14.4995	-1.6943	0.319622
0.0913	108.504	22.5408	-22.9218	-10.6622	-0.236354	25.4231	8.58198	19.3894	-4.12024	0.319622
0.0920	16.0353	27.1152	-27.2049	-11.8858	-2.99381	30.9328	-39.9431	24.5769	-2.88802	0
0.0927	32.8139	33.2145	-30.25	-10.6622	-3.60439	28.1677	-73.8224	27.2983	-1.07819	0
0.0933	6.87606	31.988	-27.2049	-10.038	-2.99381	14.445	-94.5754	21.2178	-1.38625	-0.319622
0.0940	-65.15	23.4358	-17.1328	-9.73835	-1.16207	3.75569	-80.2335	10.5026	-0.462083	-0.319622
0.0947	-138.079	12.1654	-5.82246	-8.51482	-0.236354	2.22865	-41.1588	5.01744	0.462083	0
0.0953	-168.61	1.79	2.10813	-7.91553	-0.846934	4.06522	-3.93642	5.95289	-0.770138	0
0.0960	-130.751	-2.78445	6.0567	-6.692	0.669669	6.50023	14.3708	1.65831	-1.07819	0
0.0967	-110.92	-5.23742	6.69248	-6.39236	0.984807	4.68429	9.79764	-14.4995	-1.6943	-0.319622
0.0973	-162.503	-6.16557	3.61394	-7.61589	-0.846934	-4.47794	37.5697	-23.9817	-4.12024	0
0.0980	-187.831	-1.88945	0.267699	-7.61589	-1.16207	-11.1845	82.1294	-15.435	-4.12024	0.319622
0.0987	-141.45	6.96112	-0.936948	-3.64564	2.20597	-7.84155	96.4713	-8.71673	-1.07819	0.319622
0.0993	-97.8047	13.9885	-4.91898	-1.19857	3.72257	-2.9509	101.956	-12.9688	-1.07819	0
0.1000	-67.5925	17.3365	-11.3103	-3.02139	1.89083	-0.206357	97.383	-12.9688	-3.81218	0
0.1007	-30.6635	19.1928	-14.0877	-4.24492	1.59539	4.68429	87.6143	-8.07893	-4.73635	0
0.1013	-5.94686	16.7398	-13.7531	-4.24492	2.20597	6.50023	71.449	-9.31202	-4.42829	0
0.1020	18.4778	10.6406	-10.708	-3.64564	1.89083	-0.515891	22.9239	-10.8428	-4.73635	0
0.1027	47.1501	5.43631	-4.61781	-2.12246	3.72257	-8.43998	-50.3196	-8.07893	-4.12024	0
0.1033	92.9463	4.20982	2.10813	0.0249701	8.31177	-8.43998	-96.3989	-3.18905	0.154028	0
0.1040	148.167	2.38667	5.15321	-1.49821	8.92235	-5.69544	-68.323	-2.29612	0.770138	0
0.1047	195.158	0.56352	6.69248	-3.64564	7.38605	-2.04293	-18.5822	-2.8914	0.462083	0
0.1053	232.406	1.79	9.13524	-3.64564	7.99663	7.1193	-7.90179	-2.59376	3.81218	0.319622
0.1060	223.246	0.56352	8.49945	-5.46846	6.48003	12.9179	0.332859	-6.54818	2.88802	0
0.1067	188.468	-0.0331482	4.55089	-6.99164	4.33315	10.7924	22.0121	-9.01438	-1.6943	-0.319622
0.1073	182.972	7.29261	-1.8739	-5.7681	5.25887	6.80976	24.4434	-2.59376	-1.38625	0
0.1080	150.928	17.668	-7.96406	-3.02139	7.09061	4.06522	1.86691	7.48364	0.770138	0.319622
0.1087	-8.99994	22.2424	-11.6449	-2.72175	5.25887	1.93975	-25.6012	8.37657	-1.38625	0.319622
0.1093	-172.273	24.6623	-11.6449	-1.49821	4.03771	3.46679	-36.5856	5.65525	-2.31041	-0.319622
0.1100	-100.858	27.1152	-7.06057	3.07133	7.38605	7.42883	-29.8705	9.01438	1.07819	-0.639243
0.1107	67.3005	21.016	-2.47622	1.54815	7.38605	5.28273	-28.047	7.78128	1.07819	0
0.1113	58.7518	11.5356	-0.334624	-3.94528	4.94373	1.01115	-42.085	0.467727	-0.462083	0
0.1120	-31.8848	7.29261	3.94857	-3.94528	6.16489	3.75569	-65.8772	-4.71979	1.6558	0
0.1127	-42.5572	4.83964	6.39132	-2.12246	7.38605	6.21133	-78.0917	-8.07893	3.81218	0
0.1133	27.3184	2.38667	4.24973	-4.24492	5.55431	2.22865	-44.5163	-10.5451	3.50413	0
0.1140	129.875	1.79	5.15321	-6.692	5.25887	-1.11433	5.22444	-14.4995	3.19607	0
0.1147	180.822	3.61315	7.29481	-6.39236	5.55431	0.412713	20.4781	-20.2824	5.04441	0.319622
0.1153	140.84	7.88927	2.40929	-5.7681	4.94373	1.93975	25.3697	-21.8131	5.93006	0.319622
0.1160	-9.61056	14.2869	-7.06057	-5.16882	4.03771	1.63022	26.2814	-19.3894	5.62201	0
0.1167	-214.99	18.2647	-8.86754	-3.94528	4.64829	2.53819	18.3507	-14.7972	6.85423	0
0.1173	-268.379	13.6902	-5.5213	-5.16882	3.72257	-0.515891	23.5317	-15.435	7.47034	0
0.1180	-117.026	10.0108	-6.75941	-5.7681	1.28025	-6.60341	29.9429	-18.1563	6.23812	0
0.1187	54.1855	13.0604	-6.45825	-1.49821	2.50141	-6.00497	38.4814	-13.2664	7.7784	0
0.1193	108.796	13.6902	-3.68087	2.14743	3.42713	-3.85887	65.0378	-9.60967	8.39451	-0.319622
0.1200	80.4154	10.3422	-4.31665	1.84779	0.374227	-5.3859	76.0221	-15.435	4.12024	-0.319622
0.1207	34.3538	6.96112	-5.82246	2.77169	-1.77265	-6.00497	54.0534	-22.7486	0.770138	0
0.1213	-55.0616	4.83964	-4.01549	7.04158	0.0590884	-4.1684	17.7284	-28.5314	-0.154028	0
0.1220	-176.229	2.08834	-1.57273	10.3876	0.0590884	-7.22248	12.5473	-29.7645	-2.88802	-0.319622
0.1227	-217.724	0.56352	0.870023	11.9108	0.374227	-10.5861	48.8579	-24.2793	-3.19607	0
0.1233	-169.831	2.38667	2.40929	14.3578	2.81655	-9.36859	47.9462	-20.2824	-0.462083	0
0.1240	-146.919	3.31482	0.870023	14.6575	2.50141	-10.875	-10.6515	-20.2824	0.154028	0
0.1247	-142.061	1.16019	-1.57273	12.535	0.374227	-13.6402	-67.7151	-17.561	-2.31041	-0.319622
0.1253	-72.4774	2.08834	-1.8739	14.0582	1.28025	-12.1131	-93.9531	-6.88835	-4.42829	-0.319622
0.1260	24.8759	4.20982	-0.635786	16.5053	2.81655	-9.96702	-97.933	3.48669	-5.04441	0
0.1267	73.4066	2.38667	-0.936948	14.0582	1.59539	-10.5861	-94.5754	1.99847	-7.47034	0.319622
0.1273	73.6986	0.265186	-0.0334624	11.6111	1.28025	-9.05905	-85.7185	-1.99847	-8.08645	0.319622
0.1280	45.3183	0.265186	3.01162	11.6111	3.42713	-4.78747	-71.6805	-1.36066	-4.73635	0
0.1287	-2.28317	0.265186	3.31278	10.3876	3.42713	-1.73339	-61.6079	-1.70083	-3.19607	0
0.1293	-45.6103	1.49167	0.870023	8.8644	3.42713	1.32068	-59.1766	-2.29612	-2.88802	0
0.1300	-59.0439	4.83964	0.568861	10.3876	4.94373	6.80976	-50.6235	0.127562	-0.154028	-0.319622
0.1307	-47.7608	5.43631	0.568861	11.0118	4.64829	6.50023	-16.7443	3.18905	-0.462083	0.319622
0.1313	-34.9378	2.08834	-3.07854	9.16404	1.28025	-1.11433	17.4245	2.59376	-5.96857	0.319622
0.1320	-23.0175	1.16019	-3.68087	10.3876	2.50141	-2.64136	22.9239	2.59376	-6.58468	0
0.1327	-17.5486	3.31482	-3.07854	13.4589	5.86945	-0.206357	15.601	5.01744	-4.73635	0
0.1333	-19.0618	3.91149	-6.75941	12.8347	4.64829	-2.64136	10.7094	5.31508	-7.16229	0
0.1340	-9.61056	3.01649	-10.4068	10.0879	1.89083	-4.47794	5.52836	6.54818	-9.01062	0.319622
0.1347	7.80526	5.43631	-8.86754	9.78829	3.42713	0.412713	5.83227	10.205	-5.35246	0.319622
0.1353	15.7167	5.76779	-7.06057	9.78829	5.25887	2.53819	10.7094	9.31202	-2.31041	0
0.1360	10.8318	2.685	-5.82246	9.78829	5.86945	0.701612	14.3708	5.65525	-2.31041	0
0.1367	0.159291	2.08834	-1.57273	10.7122	8.60721	1.32068	22.316	7.18599	0.154028	0
0.1373	-7.46013	0.56352	-0.0334624	7.96547	8.92235	-0.206357	35.7462	8.07893	1.34774	-0.319622
0.1380	-11.4424	-2.78445	-2.17506	2.47204	6.77547	-4.47794	34.2121	4.1245	0.462083	0
0.1387	-12.053	-2.18778	-1.8739	1.24851	7.70119	-2.64136	21.7082	4.71979	2.57996	0
0.1393	-6.84951	1.16019	1.17118	3.07133	9.82837	4.06522	16.2088	9.01438	6.23812	-0.319622
0.1400	-0.743358	1.49167	-0.635786	1.24851	7.99663	4.06522	8.88589	7.18599	5.04441	-0.639243
0.1407	5.3628	0.265186	-3.68087	-1.49821	6.16489	0.701612	3.6904	5.95289	2.57996	0
0.1413	10.8318	1.49167	-3.07854	-1.19857	5.86945	1.63022	6.13619	7.18599	2.57996	0
0.1420	12.3716	0.265186	-0.936948	0.0249701	5.55431	2.53819	6.4401	5.01744	3.19607	-0.319622
0.1427	14.2034	-3.41427	-0.0334624	-0.599283	4.33315	1.01115	4.3127	2.29612	2.57996	-0.319622
0.1433	16.3273	-3.08278	0.870023	-1.49821	1.59539	1.32068	3.08257	-0.467727	2.27191	-0.319622
0.1440	23.6547	-0.662964	0.870023	-1.19857	0.0590884	3.15725	5.22444	-1.99847	3.81218	-0.319622
0.1447	41.3626	-2.78445	0.267699	-1.49821	-0.236354	1.63022	7.97415	-0.467727	2.88802	-0.319622
0.1453	56.3094	-5.53575	1.50581	-1.19857	-0.236354	1.32068	8.27806	1.36066	2.27191	0
0.1460	58.7518	-5.53575	5.15321	0.324612	0.374227	2.84772	10.4055	3.48669	5.04441	0
0.1467	52.6457	-7.3589	4.85205	-0.599283	-1.16207	0.412713	9.18981	2.29612	4.42829	0
0.1473	56.0173	-9.2152	2.40929	-3.02139	-3.89984	-2.33183	1.56299	-0.170083	1.34774	0
0.1480	78.5836	-7.98872	3.01162	-1.49821	-3.28926	0.103178	-3.32859	3.82686	2.88802	-0.319622
0.1487	96.902	-6.16557	1.50581	-1.19857	-3.60439	-0.515891	-8.50962	3.48669	3.50413	0
0.1493	96.902	-4.30927	-4.91898	-2.72175	-4.21497	-2.33183	-14.6169	-0.467727	1.96385	0.319622
0.1500	92.6277	-0.662964	-7.36173	-0.274672	-2.06809	0.103178	-13.3867	2.29612	4.42829	0
0.1507	100.274	-0.36463	-6.75941	0.624254	-0.846934	0.701612	-11.5632	2.59376	5.93006	0
0.1513	97.2206	-3.7126	-7.66289	-1.49821	-0.846934	-2.33183	-14.009	-4.1245	4.12024	0
0.1520	82.8579	-5.53575	-7.06057	-1.82282	0.669669	-2.04293	-14.3129	-10.5451	3.81218	0.319622
0.1527	98.4418	-6.4639	-3.3797	0.0249701	1.89083	-1.42386	-13.0828	-10.8428	3.50413	0
0.1533	114.291	-7.3589	-3.07854	0.923895	0.984807	-4.1684	-11.8672	-6.88835	1.07819	0
0.1540	50.8138	-4.30927	-6.75941	0.624254	-0.236354	-6.00497	-9.72528	-5.3576	-0.462083	0
0.1547	-59.6545	0.265186	-8.86754	0.0249701	1.28025	-3.85887	-5.456	-3.82686	1.34774	0
0.1553	-84.0526	1.49167	-9.80449	-0.599283	2.81655	-2.9509	4.00878	-0.467727	1.96385	0
0.1560	-32.4954	-0.662964	-10.708	-1.82282	2.20597	-3.85887	19.2624	1.06302	0.770138	0
0.1567	-6.55748	-2.78445	-6.75941	-1.19857	3.11199	-2.04293	39.4076	2.29612	2.27191	0
0.1573	-3.79644	-3.7126	-3.07854	-0.599283	4.94373	0.103178	48.554	1.99847	4.73635	0
0.1580	-13.2743	-5.53575	-4.31665	-2.4221	5.55431	-0.515891	34.5161	-1.99847	3.19607	0.319622
0.1587	-21.5043	-6.4639	-1.8739	0.624254	7.38605	1.63022	16.5127	-4.42215	2.88802	0.319622
0.1593	-6.2389	-6.4639	0.870023	5.21876	7.99663	4.68429	6.4401	-7.78128	4.73635	0
0.1600	3.53095	-8.88372	-2.17506	2.77169	4.03771	1.93975	-3.01021	-13.2664	2.57996	0
0.1607	-4.11502	-11.0384	-4.61781	-0.898925	0.669669	-1.73339	-8.50962	-13.9043	-1.07819	0
0.1613	-9.29198	-8.58539	-3.3797	1.54815	2.20597	-1.42386	-7.29396	-8.41909	-1.6943	0
0.1620	-8.07074	-6.16557	-1.57273	4.89415	3.11199	-0.206357	-3.32859	-4.1245	-1.38625	0
0.1627	-5.94686	-6.16557	-0.635786	6.11768	2.20597	-0.515891	-0.8828	-0.765372	-1.38625	0.319622
0.1633	-2.28317	-4.64075	0.870023	7.04158	4.64829	1.93975	3.38648	3.82686	1.6558	0.319622
0.1640	0.477873	-3.7126	1.50581	4.29486	4.94373	1.93975	6.13619	3.82686	3.19607	0.319622
0.1647	-0.132743	-7.3589	-0.334624	-2.4221	0.0590884	-2.64136	3.6904	-1.06302	-0.154028	0.319622
0.1653	1.08849	-8.88372	-0.635786	-4.56954	-0.551492	-2.33183	3.08257	-2.29612	-1.38625	0
0.1660	4.4336	-6.16557	3.01162	-1.82282	3.11199	1.93975	6.4401	1.36066	2.57996	0
0.1667	1.38052	-5.83408	4.24973	-2.12246	3.42713	1.93975	6.4401	2.29612	3.50413	0
0.1673	-5.62828	-8.88372	3.61394	-6.09271	0.669669	-1.11433	1.86691	-0.170083	1.07819	0.319622
0.1680	-5.62828	-10.4085	4.24973	-7.61589	-0.236354	-2.33183	-0.578886	-1.99847	0.462083	0.319622
0.1687	-10.2212	-8.88372	4.55089	-6.39236	0.984807	-2.9509	0.955161	-1.36066	1.07819	0
0.1693	-19.3804	-8.88372	3.61394	-5.7681	0.374227	-4.78747	1.25908	-0.467727	0.154028	0
0.1700	-21.5043	-7.98872	5.75554	-2.72175	0.374227	-3.26043	1.56299	1.36066	0.770138	-0.319622
0.1707	-37.9909	-7.69038	10.3399	0.0249701	1.89083	-2.04293	3.6904	3.48669	1.6558	0
0.1713	-41.9466	-11.0384	12.4815	-1.49821	-0.236354	-3.85887	3.6904	2.29612	0.154028	0
0.1720	-3.18582	-12.8615	14.9242	-3.64564	-1.16207	-2.33183	4.3127	1.65831	-0.154028	-0.319622
0.1727	12.6636	-11.3367	13.6861	-7.61589	-0.846934	-1.73339	5.22444	1.36066	-0.462083	-0.319622
0.1733	-12.3451	-7.98872	5.75554	-11.8858	-1.77265	-3.26043	4.00878	0.765372	-1.6943	0.319622
0.1740	-38.8936	-3.41427	-1.23811	-12.4851	-1.77265	-2.64136	4.3127	3.18905	-0.770138	0.319622
0.1747	-63.3182	3.31482	-3.68087	-11.5861	-1.16207	1.32068	6.4401	7.48364	1.34774	-0.319622
0.1753	-93.2118	9.71243	-5.22014	-10.9619	0.374227	3.46679	6.74402	10.5026	3.19607	-0.319622
0.1760	-87.7162	9.11576	-4.61781	-10.9619	2.20597	1.93975	6.13619	12.6712	4.12024	0
0.1767	-19.6724	5.76779	0.870023	-9.13907	3.72257	1.63022	6.74402	13.8617	4.42829	0.319622
0.1773	25.4866	4.83964	2.71046	-7.61589	3.72257	1.63022	6.74402	13.5641	3.50413	0
0.1780	1.38052	3.91149	-1.57273	-7.91553	2.20597	-1.11433	3.6904	12.9688	-0.154028	0
0.1787	-35.2299	4.54131	-4.91898	-5.7681	1.59539	-2.9509	0.955161	10.5026	-2.61847	0
0.1793	-28.8317	6.36446	-5.82246	-0.898925	4.03771	-0.206357	3.08257	7.18599	-0.770138	0
0.1800	8.09729	4.20982	-5.82246	1.24851	5.55431	1.32068	4.00878	4.1245	-0.154028	0
0.1807	30.6901	-1.25963	-4.01549	0.0249701	4.94373	-1.11433	0.955161	2.59376	-1.38625	-0.319622
0.1813	49.3006	-5.83408	-0.0334624	-1.49821	4.94373	-2.33183	-0.274971	0.127562	-1.6943	0
0.1820	77.6809	-6.4639	0.870023	-3.346	4.03771	-1.42386	-0.578886	-1.70083	-1.07819	0.319622
0.1827	90.7959	-5.83408	0.267699	-5.7681	1.89083	-2.33183	-2.70629	-0.170083	-1.6943	0.319622
0.1833	99.3445	-6.76224	1.50581	-7.31625	1.89083	-2.33183	-3.32859	0.127562	-1.07819	0.319622
0.1840	128.043	-5.23742	2.10813	-6.99164	1.89083	-0.80479	-2.40237	-1.36066	1.07819	0
0.1847	144.822	-0.961298	-0.936948	-5.16882	0.0590884	0.103178	-1.49063	-1.06302	1.96385	0
0.1853	131.096	1.49167	-6.75941	-3.346	-2.99381	-0.515891	-1.79455	0.765372	-0.154028	0
0.1860	89.5746	3.31482	-11.0091	-0.274672	-4.21497	0.103178	-3.01021	4.1245	-2.88802	0
0.1867	-5.01767	4.20982	-11.9461	3.37097	-3.28926	0.412713	-2.09846	8.67421	-4.12024	0.319622
0.1873	-121.3	-0.36463	-13.1507	4.29486	-3.89984	-2.9509	-3.32859	7.18599	-6.85423	0.319622
0.1880	-147.53	-4.01093	-8.56638	7.04158	-0.846934	-2.04293	-2.40237	2.8914	-6.85423	0
0.1887	-40.7254	-4.30927	-1.8739	10.3876	2.50141	1.32068	1.25908	3.18905	-4.12024	0
0.1893	80.4154	-4.30927	-2.77738	9.48865	1.89083	0.701612	0.651246	5.01744	-4.42829	0
0.1900	120.716	-5.53575	-3.3797	7.04158	2.50141	0.701612	-1.18672	4.71979	-4.42829	-0.319622
0.1907	96.902	-9.81187	0.568861	5.81804	3.72257	1.32068	-0.578886	0.127562	-3.50413	0
0.1913	44.7077	-15.0161	3.61394	3.67061	1.59539	-1.42386	-2.40237	-8.71673	-5.04441	0
0.1920	8.09729	-16.8393	6.99365	2.77169	1.89083	-1.42386	-3.01021	-11.7357	-3.81218	0
0.1927	13.5928	-12.5632	9.4364	3.67061	4.64829	3.15725	1.25908	-6.88835	1.96385	0
0.1933	50.2032	-8.88372	5.75554	2.14743	3.72257	3.15725	2.77865	-7.48364	3.50413	0
0.1940	80.4154	-10.1102	1.80697	-0.898925	-0.236354	-0.515891	0.0289443	-13.9043	0.770138	0
0.1947	72.796	-10.1102	1.17118	-2.12246	-2.38323	-0.80479	-2.09846	-17.561	-0.154028	0
0.1953	55.6988	-7.98872	-2.17506	-2.12246	-2.06809	0.103178	-2.70629	-15.0948	0.462083	0
0.1960	52.0351	-7.98872	-6.75941	-1.19857	-1.45751	-0.80479	-3.01021	-9.31202	0.770138	0
0.1967	52.3536	-7.3589	-2.77738	2.47204	0.374227	1.32068	-1.79455	-1.70083	1.96385	0
0.1973	47.4687	-7.3589	3.94857	2.47204	1.28025	3.15725	-0.8828	0.467727	2.88802	0
0.1980	38.3095	-10.4085	3.61394	-1.19857	-1.16207	0.701612	-2.40237	-2.59376	1.34774	0
0.1987	16.9379	-11.3367	3.01162	-1.19857	-1.77265	0.701612	-2.40237	-4.42215	1.34774	-0.319622
0.1993	-10.5132	-10.1102	3.94857	-1.49821	-2.38323	3.46679	-1.79455	-6.54818	3.50413	-0.319622
0.2000	-13.2743	-10.4085	1.17118	-4.86918	-5.73158	1.32068	-3.32859	-9.60967	3.19607	-0.319622
0.2007	-5.94686	-12.8615	1.17118	-5.46846	-6.04672	-0.80479	-1.79455	-9.60967	3.19607	0
0.2013	-10.5132	-13.4582	6.0567	-2.72175	-3.28926	1.01115	2.17082	-7.18599	5.35246	0
0.2020	-7.77871	-14.6847	8.19829	-3.346	-3.89984	1.32068	2.77865	-5.3576	5.04441	0
0.2027	1.08849	-15.0161	8.49945	-3.346	-5.121	2.22865	2.47474	-2.8914	4.12024	0
0.2033	-8.68136	-13.7897	8.80062	-0.274672	-5.43614	4.37476	2.47474	1.06302	3.50413	0
0.2040	-29.4423	-14.3863	7.89713	-0.898925	-7.26788	2.22865	0.332859	2.29612	0.462083	0
0.2047	-22.4069	-15.9111	8.80062	-1.19857	-7.87846	0.103178	0.0289443	2.59376	-1.07819	0
0.2053	-3.79644	-15.3145	11.8792	3.99522	-4.82555	2.53819	1.56299	5.31508	-0.770138	-0.319622
0.2060	-9.90259	-14.3863	11.8792	8.26512	-3.28926	2.84772	1.56299	5.65525	-2.00236	0
0.2067	3.21237	-13.7897	7.89713	6.74194	-4.51042	-0.206357	0.0289443	4.42215	-3.81218	0.319622
0.2073	43.1944	-11.3367	5.15321	5.5184	-5.121	-0.515891	-1.79455	5.65525	-4.42829	0
0.2080	54.1855	-8.88372	3.01162	5.21876	-5.43614	-0.515891	-3.01021	8.07893	-5.35246	0
0.2087	42.8758	-4.93908	-0.0334624	5.81804	-5.121	-1.11433	-3.32859	12.3735	-5.66052	0
0.2093	34.0352	1.79	-2.47622	7.64086	-3.60439	0.103178	-1.49063	19.0493	-3.81218	0
0.2100	1.6991	4.54131	-2.77738	7.04158	-2.38323	1.01115	-0.274971	21.5155	-1.6943	0
0.2107	-48.6634	0.265186	-1.23811	3.99522	-3.28926	-0.515891	-1.79455	16.9232	-1.38625	0.319622
0.2113	-65.4421	-4.30927	0.870023	2.14743	-3.60439	-2.04293	-3.93642	10.8428	-2.61847	0
0.2120	-40.1148	-7.69038	3.31278	1.54815	-2.99381	-1.73339	-4.54425	4.71979	-2.88802	0
0.2127	-12.053	-11.0384	5.15321	0.923895	-2.67868	-1.42386	-4.54425	-1.06302	-2.31041	0
0.2133	-6.2389	-8.88372	4.85205	1.54815	-1.16207	-0.206357	-3.01021	-1.36066	-1.6943	0
0.2140	-7.46013	-3.41427	2.71046	2.47204	0.374227	1.01115	-1.18672	5.65525	-0.770138	0.319622
0.2147	-3.79644	-0.662964	-1.57273	1.24851	-0.846934	-0.206357	-1.18672	10.8428	-0.462083	0
0.2153	-5.94686	0.861853	-4.91898	-1.19857	-1.45751	-0.80479	-1.79455	10.205	0.462083	0
0.2160	-7.77871	-0.0331482	-3.68087	-2.12246	-1.77265	-0.206357	-2.09846	8.67421	1.96385	0.319622
0.2167	-5.01767	-3.08278	-0.635786	-3.02139	-2.06809	0.103178	-1.18672	6.54818	3.50413	0
0.2173	-11.4424	-4.93908	0.870023	-3.02139	-1.77265	-0.206357	-0.274971	2.8914	4.73635	0
0.2180	-27.9025	-4.64075	1.17118	-2.72175	-0.846934	0.103178	0.332859	0.765372	5.04441	0
0.2187	-24.2388	-4.30927	1.50581	-2.12246	-0.236354	1.01115	1.56299	2.8914	5.35246	0.319622
0.2193	5.65483	-4.64075	-1.8739	-3.64564	-0.551492	1.01115	0.651246	4.71979	4.42829	0
0.2200	3.82298	-3.7126	-4.91898	-5.16882	-1.45751	-0.515891	-2.09846	7.18599	1.34774	0
0.2207	-8.68136	-2.18778	-4.31665	-4.24492	-0.551492	-0.206357	-2.70629	12.0333	0.770138	0
0.2213	61.5129	-0.961298	-4.61781	-3.02139	-0.236354	0.412713	-2.09846	15.3925	1.34774	0
0.2220	167.388	1.49167	-6.12362	-2.72175	0.0590884	1.01115	-2.09846	18.7516	3.19607	0
0.2227	211.034	4.83964	-6.12362	-1.82282	1.89083	1.32068	-1.79455	22.7486	8.08645	0
0.2233	189.981	7.88927	-6.45825	0.0249701	3.42713	1.32068	-1.79455	25.7675	10.8204	0
0.2240	118.884	8.48594	-10.1056	-2.12246	1.28025	-0.80479	-3.93642	23.9391	8.08645	0
0.2247	21.8229	7.59094	-13.7531	-4.24492	-1.16207	-3.26043	-6.68613	17.2209	6.23812	0
0.2253	-52.6191	6.96112	-11.6449	-2.12246	0.374227	-0.515891	-5.75991	10.8428	5.35246	0
0.2260	-79.1942	4.54131	-6.45825	-0.599283	2.81655	1.63022	-3.93642	7.48364	-2.88802	0
0.2267	-73.9907	1.79	-2.47622	-1.49821	2.81655	0.412713	-4.24034	9.60967	-4.42829	0
0.2273	-70.9376	3.31482	-0.334624	-1.19857	3.11199	1.63022	-4.24034	15.3925	5.35246	0.319622
0.2280	-39.5042	4.83964	-1.23811	-1.49821	2.50141	1.93975	-4.54425	18.7516	8.39451	0.319622
0.2287	26.4158	4.20982	-3.68087	-3.64564	0.374227	-0.206357	-5.75991	16.6256	5.93006	0.319622
0.2293	44.0971	5.43631	-3.3797	-3.64564	0.374227	1.01115	-6.06383	13.8617	6.23812	0
0.2300	9.63711	7.29261	-2.77738	-3.64564	-0.236354	3.15725	-6.06383	11.1404	6.54617	0
0.2307	-17.23	4.20982	-4.01549	-5.46846	-1.77265	0.701612	-5.456	4.42215	6.23812	0
0.2313	-18.1592	2.08834	-2.77738	-4.24492	0.669669	0.103178	-2.09846	-1.70083	8.08645	0
0.2320	-3.79644	3.01649	-1.57273	-2.4221	2.50141	2.22865	0.651246	-1.70083	9.89628	0
0.2327	2.30972	1.49167	-4.61781	-6.09271	-1.45751	-1.11433	-2.09846	-0.467727	7.47034	0
0.2333	-2.89379	1.49167	-3.68087	-6.09271	-1.77265	-1.42386	-2.40237	3.48669	-8.70256	0
0.2340	-2.89379	4.20982	-0.0334624	-2.72175	1.28025	1.32068	0.332859	7.48364	-43.2048	0
0.2347	-4.72563	2.38667	-0.0334624	-3.94528	-0.551492	-1.11433	-0.8828	4.1245	-65.7698	0
0.2353	-14.4955	0.861853	-0.0334624	-4.86918	-1.16207	-1.73339	-1.49063	1.06302	-67.3101	0.319622
0.2360	-19.6724	3.61315	0.870023	-4.86918	0.374227	1.32068	0.955161	1.06302	-59.3777	0
0.2367	-19.3804	3.61315	-1.57273	-9.13907	-2.06809	0.412713	0.0289443	-1.36066	11.4366	0
0.2373	-19.0618	3.01649	-4.61781	-11.2615	-3.60439	-0.80479	-2.09846	-1.99847	95.3431	0
0.2380	-17.5486	5.76779	-3.68087	-6.09271	-1.16207	2.22865	-0.578886	3.48669	82.2508	0
0.2387	-21.1857	6.96112	-2.17506	-3.94528	0.0590884	2.84772	0.955161	10.205	41.6645	0
0.2393	-29.1237	5.43631	-1.23811	-4.86918	0.374227	1.93975	-0.578886	12.9688	34.3097	0
0.2400	-31.2741	4.83964	1.17118	-1.82282	1.59539	3.75569	-1.18672	12.9688	23.3352	0
0.2407	-31.5662	3.31482	2.10813	-1.19857	0.984807	2.84772	-2.70629	11.1404	12.0527	0
0.2413	-33.106	0.861853	0.870023	-4.24492	-1.45751	-0.206357	-6.06383	8.37657	12.3607	0
0.2420	-31.5662	1.79	2.40929	-2.72175	-0.551492	2.22865	-5.456	11.1404	14.7867	-0.319622
0.2427	-32.1768	4.20982	3.01162	-0.898925	0.984807	4.06522	-3.93642	15.0948	15.7108	-0.319622
0.2433	-22.7255	3.91149	-0.0334624	-3.94528	-0.551492	1.01115	-6.06383	13.5641	14.4786	0
0.2440	8.41587	5.13797	-1.23811	-4.24492	0.0590884	1.01115	-6.68613	13.2664	14.7867	0
0.2447	32.8139	6.96112	-2.17506	-3.02139	0.374227	1.63022	-6.36774	15.0948	14.1705	-0.319622
0.2453	41.3626	5.76779	-5.5213	-5.46846	-1.77265	-1.73339	-8.50962	13.5641	9.31867	-0.319622
0.2460	50.8138	7.29261	-4.61781	-4.24492	-0.236354	-0.515891	-7.59787	15.3925	9.01062	0
0.2467	54.7961	8.81742	-2.77738	-2.72175	1.89083	1.01115	-6.06383	18.1563	10.8204	0.319622
0.2473	48.982	5.13797	-4.91898	-6.39236	-0.846934	-3.85887	-9.11745	13.5641	-2.00236	0
0.2480	34.0352	2.685	-3.3797	-6.692	-1.16207	-4.47794	-8.50962	10.8428	-29.1497	-0.319622
0.2487	-13.8849	3.61315	-0.936948	-5.7681	-0.236354	-1.42386	-3.63251	12.6712	-56.6052	0
0.2493	-73.088	3.61315	-4.31665	-10.3626	-3.28926	-3.56997	-3.32859	11.4381	-74.6264	0.319622
0.2500	-95.9728	5.43631	-5.5213	-13.1093	-4.21497	-3.26043	-1.18672	12.3735	-86.525	0.319622
0.2507	-82.2207	6.96112	-4.01549	-14.9321	-2.67868	-0.515891	2.77865	15.6901	-48.9808	0
0.2513	-53.2297	5.76779	-6.45825	-20.1259	-4.21497	-2.64136	2.77865	15.0948	56.9132	0
0.2520	-28.8317	5.43631	-6.75941	-17.0796	-3.89984	-2.64136	4.3127	15.3925	116.714	0
0.2527	-12.3451	6.06612	-3.68087	-6.39236	-1.45751	0.412713	8.27806	17.8587	88.0268	0
0.2533	-1.35397	3.31482	-2.77738	0.324612	-1.77265	-1.11433	8.27806	16.0303	45.6307	0
0.2540	11.761	-0.662964	-2.17506	4.59451	-2.67868	-3.85887	5.52836	12.3735	25.4916	0
0.2547	31.5927	-1.25963	0.267699	7.64086	-0.551492	-2.64136	5.52836	12.6712	14.1705	0
0.2553	46.5395	0.265186	0.568861	6.74194	0.0590884	-2.04293	6.13619	15.0948	5.35246	0
0.2560	43.4864	1.49167	-2.17506	3.99522	-0.551492	-2.64136	5.52836	16.3279	5.93006	0
0.2567	6.58403	4.20982	-2.47622	3.99522	1.28025	-1.11433	4.92053	19.3894	1.6558	0
0.2573	-46.2209	5.13797	-4.01549	1.24851	0.984807	-2.33183	3.38648	20.2824	2.57996	0
0.2580	-79.8048	2.08834	-6.12362	-2.12246	-1.77265	-5.09701	0.651246	16.0303	12.0527	0.319622
0.2587	-87.7162	3.01649	-4.01549	4.59451	-0.236354	-2.64136	1.56299	17.8587	-30.69	0.319622
0.2593	-58.7253	6.96112	-5.5213	12.2354	0.0590884	-1.11433	1.56299	20.2824	-101.158	-0.319622
0.2600	-16.3273	7.29261	-9.50333	9.78829	-2.38323	-2.04293	-0.8828	15.6901	-113.672	-0.639243
0.2607	-1.67256	6.66279	-6.75941	5.81804	-0.551492	0.103178	0.332859	14.4995	-109.398	-0.639243
0.2613	-2.5752	3.31482	-3.68087	0.324612	0.0590884	0.103178	0.955161	13.2664	-66.0779	-0.319622
0.2620	1.99114	-0.961298	-3.68087	-10.9619	-2.38323	-2.9509	-2.09846	9.31202	62.4197	0
0.2627	9.31852	-0.961298	-0.635786	-11.2615	0.374227	-1.11433	-1.79455	11.4381	135.044	0
0.2633	9.63711	-0.36463	0.870023	-3.02139	1.59539	0.412713	-1.49063	13.2664	81.6347	0
0.2640	4.75218	-1.55797	-2.47622	-3.94528	-2.06809	-3.26043	-4.54425	10.205	-29.4578	0.319622
0.2647	3.53095	-0.0331482	-2.77738	-6.692	-1.45751	-2.9509	-3.63251	11.1404	-104.238	0.319622
0.2653	4.4336	1.49167	-0.936948	-8.83943	1.28025	-0.206357	-1.18672	14.2019	-98.7317	0
0.2660	2.60175	-0.36463	-3.07854	-16.1557	0.374227	-2.33183	-3.63251	11.4381	-88.3734	0
0.2667	2.30972	-0.0331482	-2.77738	-19.5017	1.28025	-2.04293	-4.54425	9.60967	-60.8794	-0.319622
0.2673	4.14157	1.49167	-0.635786	-15.856	3.72257	0.701612	-2.40237	11.1404	-26.7238	-0.319622
0.2680	3.21237	-0.36463	-2.77738	-7.91553	1.28025	-2.04293	-3.01021	9.31202	-129.845	0
0.2687	2.92034	-0.662964	-2.77738	2.14743	0.374227	-2.33183	-3.63251	7.78128	-276.326	0
0.2693	4.75218	1.49167	-0.936948	6.11768	2.50141	1.32068	-1.49063	9.60967	-332.507	-0.319622
0.2700	3.82298	0.265186	-2.47622	1.84779	2.20597	-0.515891	-1.79455	9.01438	-320.3	-0.319622
0.2707	1.6991	-1.88945	-4.61781	0.923895	0.984807	-3.26043	-3.93642	6.25054	-179.596	-0.319622
0.2713	1.99114	-1.88945	-3.07854	3.67061	2.81655	-2.04293	-3.93642	5.95289	3.19607	0
0.2720	1.99114	-1.25963	-2.17506	4.29486	4.94373	-1.42386	-3.63251	5.65525	114.289	0.319622
0.2727	1.08849	-0.961298	-1.57273	15.881	5.25887	0.103178	-3.63251	5.01744	124.647	0.319622
0.2733	2.92034	0.861853	1.17118	38.7786	4.64829	3.46679	-1.79455	8.37657	-17.2511	0
0.2740	2.60175	0.265186	0.870023	46.4195	1.28025	2.22865	-2.40237	7.18599	-179.596	-0.319622
0.2747	-1.06194	-3.08278	-4.01549	32.0617	-5.121	-1.11433	-5.75991	1.06302	-287.339	-0.319622
0.2753	-0.451325	-4.64075	-5.82246	7.96547	-6.6573	0.412713	-4.54425	2.29612	-335.549	0
0.2760	0.769907	-4.64075	-5.82246	-14.0082	-3.89984	1.32068	-2.70629	3.82686	-164.347	0
0.2767	-0.451325	-5.53575	-5.82246	-25.919	0.374227	-0.206357	-2.70629	1.65831	157.917	0
0.2773	-0.132743	-4.93908	-2.77738	-28.6657	7.70119	1.32068	1.25908	2.8914	327.309	0.319622
0.2780	-0.132743	-4.01093	0.870023	-28.3661	12.2707	-0.206357	3.08257	2.8914	342.249	0
0.2787	-1.67256	-4.93908	1.80697	-24.0962	11.9556	-4.1684	0.332859	-0.170083	306.245	-0.319622
0.2793	-0.132743	-2.48612	4.55089	-6.09271	13.4919	-1.11433	2.17082	1.99847	183.254	0
0.2800	2.60175	0.265186	5.15321	14.0582	12.5661	2.53819	4.61661	3.18905	63.3054	0
0.2807	1.38052	-1.25963	-3.68087	20.4755	5.55431	0.412713	1.25908	-1.36066	23.0271	0
0.2813	-0.132743	1.49167	-11.0091	21.3744	1.59539	1.32068	0.651246	-1.36066	58.723	0
0.2820	-0.743358	7.59094	-7.96406	13.1343	1.89083	4.68429	3.08257	1.99847	110.014	0
0.2827	-3.79644	7.59094	0.267699	-2.4221	0.374227	2.53819	2.17082	0.127562	49.905	0
0.2833	-3.79644	6.66279	7.89713	0.624254	1.28025	2.53819	2.17082	-0.170083	-63.6519	0
0.2840	-1.06194	7.29261	14.9242	5.81804	3.72257	4.37476	4.00878	1.99847	-126.803	0
0.2847	0.769907	3.01649	39.9541	-5.7681	1.89083	1.01115	1.56299	-1.36066	-112.787	0
0.2853	5.97341	-1.25963	57.02	-12.7847	0.984807	-0.515891	-0.578886	-4.42215	71.5458	0
0.2860	11.1504	-0.961298	17.6682	-3.02139	2.81655	2.22865	1.56299	-2.29612	263.195	0
0.2867	9.63711	0.265186	-32.6928	17.7288	3.11199	2.22865	2.77865	-2.29612	199.427	0
0.2873	4.75218	-0.662964	-34.1986	36.0319	3.11199	1.63022	2.17082	-4.1245	62.1116	0
0.2880	2.92034	2.38667	-14.9912	46.0949	3.72257	2.22865	0.955161	-4.1245	28.2256	0
0.2887	4.4336	4.83964	-17.1328	56.7821	2.20597	1.32068	-0.274971	-5.05996	3.81218	0
0.2893	6.58403	-3.41427	-17.7351	54.335	1.28025	1.32068	-0.8828	-6.54818	17.8287	-0.319622
0.2900	8.09729	-9.2152	-0.0334624	39.3779	4.33315	5.59226	0.955161	-6.25054	71.8539	-0.639243
0.2907	8.09729	-6.4639	6.69248	26.8679	4.03771	7.1193	2.17082	-5.65525	24.5674	-0.639243
0.2913	5.97341	-5.53575	2.10813	3.67061	0.374227	6.80976	1.25908	-5.95289	-38.6224	0
0.2920	5.3628	-4.01093	1.80697	-32.9356	-0.846934	8.95587	1.56299	-4.71979	-76.1667	0
0.2927	4.4336	-2.48612	0.568861	-83.8997	-2.06809	7.42883	0.955161	-5.3576	-134.12	-0.319622
0.2933	3.21237	-3.7126	-1.8739	-137.91	-2.99381	3.46679	-0.8828	-7.18599	-26.1077	0
0.2940	3.82298	-2.48612	-0.334624	-141.581	-0.236354	3.75569	-0.274971	-5.65525	175.014	0
0.2947	5.04422	-0.662964	1.50581	-98.2575	3.72257	3.46679	1.25908	-3.52921	171.048	0
0.2953	4.4336	-1.25963	0.568861	-53.3862	4.94373	0.103178	-0.274971	-4.1245	-41.9725	0
0.2960	4.14157	-1.55797	0.870023	-13.7086	6.16489	-0.206357	-1.49063	-3.82686	-272.359	0
0.2967	3.53095	-1.55797	0.870023	8.26512	5.86945	0.103178	-0.8828	-3.18905	-388.342	0
0.2973	1.08849	-4.01093	-1.23811	7.34122	0.984807	-2.04293	-2.40237	-5.05996	-428.004	0
0.2980	1.08849	-5.53575	-6.75941	22.2983	-2.06809	-2.04293	-3.32859	-5.3576	-454.266	0
0.2987	2.92034	-3.41427	-30.25	29.9392	1.28025	1.32068	0.332859	-2.59376	-359.038	0
0.2993	1.6991	-1.88945	-33.8974	-10.9619	4.03771	1.63022	1.56299	-2.29612	-149.099	0
0.3000	-0.451325	-0.662964	23.4572	-42.9986	6.16489	1.93975	0.955161	-2.8914	-13.901	0
0.3007	-0.451325	1.49167	78.7036	-47.2934	10.439	1.01115	1.25908	-2.59376	99.9254	0
0.3013	-2.5752	3.61315	97.3087	-65.8962	11.345	-4.78747	-2.70629	-6.25054	331.275	0.319622
0.3020	-4.11502	11.2372	94.2636	-59.4789	10.7541	-5.69544	-5.456	-7.78128	515.299	0
0.3027	-1.06194	20.3862	79.9082	14.3578	10.7541	0.701612	-1.49063	-3.82686	454.844	0
0.3033	1.99114	20.3862	67.0921	40.6014	6.48003	4.99383	1.56299	-1.99847	261.077	0
0.3040	2.92034	18.563	6.69248	-36.3066	0.669669	6.50023	0.332859	-2.59376	130.153	0
0.3047	3.53095	20.7176	-69.903	-63.7737	-1.77265	7.73837	0.0289443	-1.99847	58.1454	0
0.3053	1.99114	18.563	-82.1168	-28.3661	-3.28926	6.80976	-0.274971	-2.29612	-43.7824	0
0.3060	0.477873	12.4637	-75.1231	-29.265	-4.51042	4.99383	-1.18672	-4.1245	-83.483	-0.319622
0.3067	1.99114	5.76779	-57.4215	-38.7287	-1.77265	4.68429	0.955161	-1.99847	-20.9093	0
0.3073	4.75218	3.01649	-37.8795	-34.1592	3.72257	5.59226	6.13619	2.59376	7.47034	0
0.3080	4.14157	4.54131	-41.828	-29.265	4.94373	4.68429	6.4401	2.59376	-10.8589	0
0.3087	0.477873	0.265186	6.99365	5.21876	2.20597	3.15725	2.77865	-0.170083	-35.8499	0
0.3093	-1.96459	-5.53575	91.5197	76.0091	-0.236354	4.68429	2.17082	-1.36066	-65.4617	-0.319622
0.3100	-2.89379	-0.0331482	112.869	125.15	-1.77265	6.21133	2.17082	-2.29612	-98.1156	-0.319622
0.3107	-3.79644	11.2372	92.122	148.947	-1.45751	4.99383	1.86691	-1.70083	-158.225	0
0.3113	-2.89379	21.016	117.754	175.191	1.59539	4.37476	3.6904	1.99847	-240.63	-0.319622
0.3120	-2.89379	28.3417	179.425	167.25	1.89083	5.9018	6.13619	3.82686	-170.74	-0.319622
0.3127	-4.11502	23.4358	169.353	133.066	-1.16207	5.59226	6.13619	1.99847	-61.8036	0
0.3133	-5.62828	9.71243	59.4627	109.269	-2.38323	5.59226	5.22444	1.36066	-121.605	0
0.3140	-7.1681	6.36446	-5.82246	97.9828	0.374227	6.21133	4.61661	2.59376	5.35246	0
0.3147	-5.62828	6.36446	78.1013	98.9067	11.0495	3.15725	1.86691	1.06302	286.722	-0.319622
0.3153	-1.06194	-0.0331482	136.393	55.8582	25.0929	-0.206357	0.332859	1.06302	259.845	-0.319622
0.3160	2.30972	-4.01093	42.0957	-25.6194	30.8836	-1.42386	1.56299	3.18905	40.7403	0
0.3167	1.38052	-5.83408	-51.599	-79.0305	30.5881	-2.33183	0.651246	1.65831	-115.521	0
0.3173	-2.89379	-9.51354	-54.9787	-139.758	27.8307	-2.33183	-0.8828	-2.59376	-164.039	0
0.3180	-8.07074	-13.7897	-45.5089	-142.804	21.7248	-1.42386	-1.18672	-6.25054	-59.6857	0
0.3187	-13.2743	-12.2648	-97.3756	-30.4885	15.0085	-0.515891	-1.18672	-9.01438	-61.4955	0
0.3193	-16.9379	-4.64075	-203.284	63.4991	13.1767	3.15725	-0.274971	-8.71673	-301.971	-0.639243
0.3200	-15.1061	-0.36463	-243.874	94.9365	13.7873	9.86384	4.00878	-3.18905	-467.397	-0.319622
0.3207	-11.7344	-1.88945	-164.836	111.092	8.31177	9.86384	6.4401	1.36066	-572.983	0
0.3213	-10.5132	-1.88945	-81.5145	91.5655	0.374227	5.28273	4.92053	1.99847	-715.189	0.319622
0.3220	-6.2389	2.38667	-56.4846	61.9759	-1.16207	4.99383	5.52836	3.18905	-659.662	0
0.3227	-9.29198	3.31482	-38.7829	95.2361	-3.28926	4.68429	7.35185	3.82686	-554.962	0
0.3233	-25.168	-1.25963	-10.4068	96.4597	-5.43614	3.15725	7.97415	3.48669	-563.51	0
0.3240	-38.2829	-4.93908	10.0387	-91.8402	0.984807	4.68429	10.7094	5.31508	-316.026	0
0.3247	-49.274	-5.23742	14.3219	-317.37	4.64829	3.15725	10.1016	3.48669	286.992	0
0.3253	-64.8314	-3.41427	-3.3797	-314.624	4.33315	1.32068	6.13619	0.467727	749.961	-0.319622
0.3260	-74.3093	-0.662964	-39.3853	-147.074	7.38605	1.01115	5.22444	1.36066	737.138	-0.319622
0.3267	-76.1411	1.79	-44.6054	-21.3495	5.86945	-2.04293	5.52836	3.48669	474.097	0
0.3273	-81.6101	5.43631	14.9242	35.7323	1.28025	-0.80479	6.74402	5.01744	312.946	0
0.3280	-59.0439	13.3919	79.9082	88.8188	1.89083	7.73837	11.0278	7.48364	334.317	0
0.3287	16.6459	25.5904	98.848	124.826	2.20597	11.3909	12.5473	10.5026	366.047	-0.319622
0.3293	84.6897	39.0154	80.2429	96.7593	-1.16207	12.2988	10.1016	12.9688	334.933	-0.319622
0.3300	107.893	46.9379	51.231	34.8084	-0.236354	14.445	8.58198	14.2019	329.119	0
0.3307	92.0171	47.2693	15.8277	10.0879	1.59539	10.4829	3.38648	11.7357	349.874	0
0.3313	50.8138	48.4627	-58.6262	18.9523	0.669669	4.06522	-1.79455	7.18599	334.625	0.319622
0.3320	17.8671	49.9875	-138.267	22.598	0.984807	3.75569	-3.32859	3.82686	298.929	0
0.3327	2.60175	39.0154	-145.595	19.252	0.374227	6.50023	-6.06383	2.29612	278.174	0
0.3333	-1.67256	24.9938	-101.056	15.5814	-2.06809	7.1193	-10.9554	3.18905	205.242	-0.319622
0.3340	1.6991	27.4136	-75.4243	-17.6789	-5.121	7.73837	-12.1711	5.31508	44.3985	-0.319622
0.3347	5.97341	21.911	-35.4367	-42.9986	-8.1739	8.64634	-10.6515	8.37657	-148.483	0
0.3353	11.761	-10.1102	56.7188	14.9821	-6.95274	10.1734	-9.42136	11.4381	-359.346	0.319622
0.3360	21.8229	-29.6345	95.5017	54.9593	-3.28926	10.1734	-7.29396	12.3735	-462.815	0
0.3367	32.2033	-25.6899	42.9992	16.8049	-0.846934	5.59226	-5.75991	11.7357	-432.279	0
0.3373	46.2475	-30.861	1.50581	3.99522	1.28025	-0.515891	-6.36774	10.5026	-528.738	0
0.3380	56.92	-32.0875	4.85205	23.5219	2.81655	-4.47794	-9.11745	6.25054	-620.577	0
0.3387	54.7961	-14.088	-2.47622	50.989	4.03771	-5.09701	-10.0292	3.18905	-453.342	0
0.3393	55.6988	-6.16557	-47.3493	135.513	6.48003	-3.56997	-9.72528	4.71979	-323.034	-0.319622
0.3400	52.0351	-18.0658	-75.1231	240.487	10.1435	-6.60341	-12.1711	7.48364	-362.08	0
0.3407	38.0175	-30.2643	-72.6804	278.642	13.4919	-10.875	-15.8325	9.01438	-275.748	0
0.3413	32.5219	-30.5627	-54.9787	276.519	17.4508	-9.36859	-16.4403	9.60967	98.4237	0
0.3420	40.1413	-26.2865	13.6861	283.836	21.7248	-3.26043	-14.6169	10.8428	575.101	0.319622
0.3427	53.5749	-24.4634	78.7036	288.105	23.8717	2.84772	-14.009	11.7357	716.383	0
0.3433	52.9643	-16.8393	122.941	222.484	24.4823	11.0813	-10.3476	11.1404	469.207	-0.319622
0.3440	18.4778	-4.93908	158.344	61.6762	20.8188	18.7165	-1.18672	10.205	282.448	-0.319622
0.3447	-28.5131	5.43631	140.04	-43.6228	12.5661	20.5531	3.6904	8.67421	290.997	-0.319622
0.3453	-34.0086	23.7673	110.125	-110.443	5.55431	24.8247	6.13619	10.8428	344.098	0
0.3460	8.41587	33.2145	46.6466	-259.689	0.984807	30.6233	9.49372	15.3925	411.523	0
0.3467	39.5307	13.0604	-47.3493	-349.707	-1.77265	30.6233	9.49372	16.0303	436.553	0.319622
0.3473	30.3715	-6.4639	-84.8607	-329.581	-0.236354	31.5313	9.79764	15.6901	372.747	0
0.3480	3.53095	-4.30927	-133.08	-329.581	1.59539	35.4933	12.2434	16.6256	304.397	0
0.3487	-24.5574	-4.30927	-183.441	-361.917	-5.121	36.4219	9.18981	13.2664	238.473	0
0.3493	-37.0617	-12.2648	-118.122	-303.937	-17.0175	34.5854	5.52836	8.37657	168.006	-0.639243
0.3500	-39.8228	-18.0658	-0.635786	-174.541	-17.628	33.0583	7.35185	7.78128	182.638	-0.958865
0.3507	-64.5394	-23.5352	53.6737	-103.426	-2.06809	29.4058	8.88589	9.31202	212.866	-0.639243
0.3513	-97.8047	-24.165	74.7216	-90.317	14.713	22.369	9.79764	9.60967	204.01	-0.319622
0.3520	-112.433	-20.1873	115.947	-89.0935	20.8188	16.2815	9.79764	9.60967	217.718	-0.319622
0.3527	-96.8755	-18.0658	136.393	-79.3301	26.6095	14.445	5.52836	9.31202	216.524	0
0.3533	-59.6545	-15.6128	95.5017	-55.5336	32.4198	7.73837	0.332859	8.07893	207.976	0
0.3540	-45.9289	-15.3145	27.7403	-22.2484	36.3788	-12.1131	-3.93642	5.31508	217.14	0
0.3547	-43.7785	-15.6128	-18.6386	6.11768	38.506	-27.0533	-6.06383	4.1245	138.394	0
0.3553	-4.72563	-11.9334	-33.5963	-4.86918	29.9775	-32.852	-5.456	7.48364	-78.5926	0
0.3560	48.69	-6.16557	-68.3972	-64.9723	15.619	-44.1397	-5.456	12.3735	-303.82	0
0.3567	86.2295	-1.55797	-107.749	-131.518	1.28025	-52.7035	-6.06383	16.9232	-379.178	0
0.3573	132.61	-0.36463	-70.8399	-141.88	-13.6691	-52.3939	-8.2057	18.454	-275.132	0
0.3580	160.698	-0.0331482	-20.7802	-94.2872	-29.2291	-49.0303	-10.9554	20.58	-107.28	0
0.3587	75.2384	3.91149	-28.1084	-50.0402	-37.7772	-39.2696	-10.9554	22.4084	7.7784	-0.319622
0.3593	-97.1941	8.81742	-51.9002	-35.982	-27.3973	-28.2708	-12.1711	20.2824	18.1368	-0.319622
0.3600	-246.105	10.9389	-64.7163	-34.1592	-15.1857	-24.3088	-13.3867	25.4699	-106.972	0
0.3607	-284.255	8.18761	-29.6477	-15.5314	-17.3326	-20.9658	-11.2593	40.7348	-261.385	0
0.3613	-200.654	0.56352	72.2788	25.0451	-13.0585	-14.8577	-10.6515	47.1554	-241.554	0
0.3620	-112.141	-1.25963	155.6	81.5025	6.77547	-11.4941	-9.42136	42.2655	-37.6983	0
0.3627	-58.1147	7.59094	232.196	127.897	24.7777	-10.5861	-6.99004	34.0165	151.217	-0.319622
0.3633	3.21237	21.3143	386.022	105.599	32.1047	-7.53201	-6.68613	25.7675	177.132	0
0.3640	71.2827	37.1923	510.536	46.0949	30.8836	-5.69544	-6.36774	21.8131	120.065	0.319622
0.3647	146.946	50.6173	465.362	32.6859	20.2082	-9.65749	-4.54425	22.4084	106.972	0.319622
0.3653	204.928	62.8159	249.897	52.5122	3.72257	-15.1672	0.0289443	21.8131	93.5333	0
0.3660	216.848	82.0418	47.8847	97.9828	-0.551492	-15.1672	7.35185	16.6256	66.3859	0
0.3667	178.379	93.3454	-2.47622	174.591	7.09061	-13.9291	9.79764	5.31508	27.3014	0
0.3673	120.716	68.0201	-135.222	211.497	10.1435	-15.7656	7.97415	-7.48364	-126.803	-0.319622
0.3680	103.619	20.3862	-372.035	184.654	21.1143	-14.2386	10.1016	-14.7972	-303.203	0
0.3687	107.575	-6.76224	-331.746	139.783	38.506	-10.875	8.88589	-19.3894	-338.899	0
0.3693	114.902	-15.0161	-97.3756	121.779	43.7057	-11.4941	1.56299	-23.3438	-222.031	0
0.3700	124.38	-24.7617	-24.7622	169.697	41.5589	-8.43998	-1.18672	-23.6415	56.2971	0
0.3707	117.052	-33.0156	-109.589	239.589	37.8954	-5.69544	-2.09846	-24.2793	266.275	0
0.3713	85.6189	-39.7116	-190.468	256.069	26.314	-6.31451	-7.29396	-28.5314	239.706	0
0.3720	32.5219	-45.8108	-177.953	190.447	4.03771	-0.206357	-9.42136	-32.4858	220.183	0
0.3727	-41.6546	-48.2638	-117.821	89.7427	-24.3444	7.1193	-6.06383	-30.6574	281.524	0
0.3733	-103.3	-46.739	-103.499	-77.807	-59.1475	12.6084	-6.06383	-23.6415	243.056	-0.319622
0.3740	-69.7164	-43.0927	-114.174	-280.44	-85.3828	21.4611	-6.06383	-6.25054	102.698	-0.639243
0.3747	30.0795	-38.8166	-101.96	-305.759	-93.3203	22.9881	-4.54425	17.8587	23.6432	0
0.3753	91.7251	-32.3858	-94.3306	-236.193	-73.1712	16.88	-6.99004	27.2983	12.0527	0.319622
0.3760	72.4774	-27.8113	-101.659	-208.725	-0.846934	10.1734	-12.1711	17.8587	-5.66052	0
0.3767	-10.8318	-24.4634	-100.12	-136.687	67.2032	7.1193	-12.475	12.0333	-12.3607	-0.319622
0.3773	-85.2738	-22.3087	-91.8878	-61.9259	79.4148	8.3368	-11.2593	8.67421	-8.08645	-0.319622
0.3780	-114.875	-22.0104	-82.7526	-30.4885	72.3833	13.8259	-12.1711	-12.9688	-38.3144	0
0.3787	-145.698	-22.0104	-67.7949	3.67061	58.6551	20.8626	-10.6515	-40.1395	-90.4912	0
0.3793	-169.831	-19.8889	-45.2077	-10.3626	33.0304	28.1677	-7.90179	-43.4986	-117.947	-0.639243
0.3800	-133.194	-8.28705	-34.8344	-55.8332	11.0495	30.0042	-5.75991	-23.9817	-162.191	-0.958865
0.3807	-70.327	5.76779	-46.4124	-51.5633	-8.1739	22.0801	-6.36774	-12.3735	-233.313	-0.319622
0.3813	-62.0969	8.81742	-49.7921	-18.2781	-39.3135	13.8259	-6.99004	-25.4699	-226.921	0
0.3820	-148.459	5.76779	-42.765	5.5184	-78.0558	7.1193	-4.54425	-41.3726	-108.204	0
0.3827	-234.821	1.79	-41.2257	-14.6325	-103.09	-3.85887	-3.32859	-39.8419	34.9258	-0.319622
0.3833	-155.468	-2.78445	-37.2771	-16.1557	-121.092	-13.3306	-4.24034	-30.0621	131.078	0
0.3840	39.5307	-4.30927	-29.3465	60.7523	-147.938	-13.9291	-7.90179	-22.7486	186.604	0
0.3847	171.981	-4.64075	-27.2049	76.933	-168.087	-20.0372	-14.009	-22.4509	199.119	0
0.3853	227.813	-6.4639	-20.7802	22.2983	-165.349	-32.2535	-18.5822	-26.703	157.917	0.319622
0.3860	240.954	-7.98872	2.71046	11.3115	-153.433	-29.7979	-20.4057	-28.5314	110.938	0.319622
0.3867	218.972	-9.51354	22.8548	51.888	-147.032	-20.3468	-22.2437	-28.2337	86.525	0.319622
0.3873	162.822	-9.51354	23.7583	123.927	-140.02	-15.4561	-23.1554	-27.0006	20.2931	0
0.3880	22.4335	-9.51354	17.9693	151.094	-120.777	-12.402	-21.6358	-26.703	-83.483	-0.319622
0.3887	-107.867	-9.81187	15.5266	142.53	-92.4143	-10.875	-15.2247	-23.0462	-120.411	0
0.3893	-131.973	-8.58539	18.2705	141.631	-64.6427	-9.96702	-0.578886	-12.3735	-92.0315	0
0.3900	-146.309	-9.2152	21.9513	60.4527	-37.7772	-8.13045	14.0669	-4.1245	-16.0189	0
0.3907	-164.335	-9.2152	21.3156	11.0118	-11.2268	-8.74952	18.0468	-1.70083	89.5671	0
0.3913	-170.123	-4.93908	18.2705	76.933	11.0495	-16.0752	18.6546	-1.99847	122.529	0
0.3920	-177.742	-2.48612	16.7647	119.033	27.5352	-26.1454	23.8356	-4.42215	74.3183	0
0.3927	-105.743	-2.48612	17.367	180.085	38.2105	-31.3249	25.0657	-5.95289	-28.2256	0
0.3933	61.1943	-0.36463	16.43	269.178	45.8329	-31.6345	19.8702	-7.18599	-139.318	0
0.3940	200.043	2.38667	15.8277	219.737	59.5808	-31.3249	14.6892	-7.48364	-126.495	0
0.3947	165.875	5.76779	14.3219	47.9427	79.0997	-29.509	8.58198	-3.82686	-15.7108	0
0.3953	11.1504	6.96112	11.8792	-80.8533	79.4148	-28.5804	0.955161	-2.59376	74.0103	0
0.3960	-33.7166	4.54131	12.1803	-103.751	98.3231	-32.852	-4.24034	-3.18905	190.263	0
0.3967	40.4599	3.31482	17.9693	-15.856	187.448	-31.036	-6.06383	5.65525	315.102	0
0.3973	95.6808	3.91149	23.156	73.2624	258.847	-23.7104	-5.75991	16.3279	309.596	0.319622
0.3980	137.787	3.61315	20.7132	-63.7737	254.277	-26.7644	-5.75991	10.5026	227.499	0.319622
0.3987	159.477	3.31482	17.0658	-328.357	219.494	-28.5804	-5.456	5.65525	187.221	0
0.3993	109.725	4.20982	17.0658	-364.664	169.426	-19.4388	-5.15208	10.8428	158.533	0.319622
0.4000	50.5218	3.31482	15.5266	-174.841	112.366	-15.7656	-8.50962	6.54818	109.09	0.319622
0.4007	72.796	4.20982	12.1803	-38.429	64.7609	-9.96702	-10.3476	-1.36066	70.0441	0
0.4013	65.1766	6.96112	11.578	3.37097	15.3236	3.15725	-7.29396	-1.99847	50.213	0
0.4020	-135.955	6.36446	11.8792	68.6929	-28.6185	7.1193	-3.32859	-2.29612	20.2931	0
0.4027	-353.228	3.91149	10.641	116.91	-46.9359	9.55431	-4.54425	-8.41909	-22.7576	-0.319622
0.4033	-349.564	3.61315	9.4364	78.1565	-61.8853	10.1734	-10.3476	-15.435	-48.0566	0
0.4040	-216.822	2.38667	10.9422	-63.4491	-100.647	7.42883	-13.3867	-13.9043	-47.479	0
0.4047	-125.256	0.265186	13.6861	-275.87	-130.546	26.6613	-12.7789	-14.4995	-30.0739	0
0.4053	-109.698	0.56352	14.9242	-377.174	-109.195	48.9271	-8.2057	-21.8131	3.19607	0.319622
0.4060	-125.574	-0.36463	15.2254	-274.322	-69.5077	46.4921	-2.70629	-27.6384	23.6432	0
0.4067	-160.964	-3.7126	16.1289	-88.7938	-60.3687	42.5301	-6.36774	-27.6384	-2.00236	-0.319622
0.4073	-187.512	-2.78445	18.5716	13.7585	-65.8639	47.7096	-11.8672	-19.3894	-44.7065	0
0.4080	-168.61	-0.662964	19.5086	-43.9225	-64.9382	45.8731	-18.2783	-12.3735	-59.9553	0
0.4087	-138.079	-1.55797	17.0658	-119.907	-63.4216	39.7649	-27.4247	-11.1404	-100.272	0
0.4093	-90.7693	-1.25963	17.367	-78.1066	-56.3901	40.0744	-32.3163	-8.07893	-222.647	-0.639243
0.4100	-31.5662	-1.88945	19.8097	0.923895	-44.4936	35.2044	-35.9777	-5.05996	-329.157	-0.639243
0.4107	-31.8848	-7.69038	24.3941	34.8084	-35.0394	24.5152	-36.8895	-8.41909	-316.642	0
0.4113	-40.4334	-14.088	32.3247	12.535	-30.1548	24.2056	-32.6202	-16.6256	-261.077	0
0.4120	53.5749	-13.7897	38.4149	-36.3066	-28.6185	30.0042	-31.0862	-18.454	-233.929	0
0.4127	208.592	-9.2152	37.8125	-69.5668	-23.1233	36.7315	-32.9241	-12.0759	-156.723	0
0.4133	284.892	-6.4639	33.5293	-115.936	-16.722	32.4599	-27.1208	-6.54818	-38.3144	0
0.4140	233.919	-6.4639	29.8819	-177.887	-23.1233	7.42883	-17.0482	-5.95289	50.7906	0
0.4147	140.548	-5.53575	25.8999	-194.992	-35.9455	-20.6563	-14.3129	-6.88835	65.7698	0
0.4153	98.4418	-1.88945	18.5716	-156.538	-17.0175	-35.3076	-17.6705	-6.25054	-55.7195	0
0.4160	151.831	4.83964	11.578	-113.19	30.273	-34.379	-15.8325	0.467727	-207.052	0
0.4167	219.583	15.215	5.15321	-100.68	54.6962	-14.8577	-6.68613	8.67421	-267.816	0
0.4173	170.76	22.5408	-2.47622	-65.2969	62.6337	25.7327	-3.93642	5.65525	-235.431	0.319622
0.4180	36.4776	19.1928	-5.82246	-3.346	84.5949	66.0135	-10.6515	-5.95289	-84.6767	0
0.4187	-97.4861	14.2869	-4.61781	8.8644	103.208	85.2459	-18.2783	-12.0759	117.022	-0.319622
0.4193	-227.494	12.7621	-7.96406	-4.86918	107.797	85.2459	-19.1901	-14.2019	182.022	0
0.4200	-326.069	11.2372	-11.6449	-12.1854	110.535	73.3391	-3.01021	-16.3279	101.774	0
0.4207	-285.184	8.81742	-2.17506	-67.719	107.482	54.1273	26.8892	-13.9043	43.1662	0.319622
0.4213	-99.9286	3.91149	6.39132	-138.235	84.9101	27.5692	47.0345	-12.3735	36.7741	0.319622
0.4220	105.132	2.38667	1.80697	-140.058	52.2539	9.86384	47.3384	-8.07893	29.7658	0.319622
0.4227	259.857	5.43631	-1.57273	-97.6332	17.7659	24.2056	36.0501	-1.99847	32.8079	0
0.4233	345.316	1.79	2.10813	-71.3896	-26.7868	62.9594	19.5663	-5.65525	43.1662	0
0.4240	352.936	-3.41427	7.29481	-59.4789	-61.2747	109.348	4.00878	-10.5451	43.1662	0
0.4247	278.175	-0.36463	10.3399	-19.202	-69.5077	144.45	-7.29396	-6.88835	38.2759	0
0.4253	127.725	3.91149	8.49945	47.9427	-60.9793	137.743	-19.7979	-6.88835	25.1835	0
0.4260	-17.8406	2.685	3.31278	86.0721	-50.8948	101.115	-33.5319	-8.71673	6.54617	-0.319622
0.4267	-15.3981	3.61315	4.85205	81.5025	-61.5898	66.323	-38.1196	-1.70083	3.19607	0
0.4273	106.353	8.18761	10.3399	76.0091	-83.551	22.6786	-33.228	1.36066	13.8625	-0.319622
0.4280	199.751	6.06612	14.9242	96.16	-87.2145	-20.9658	-23.7633	-6.54818	23.9513	-0.319622
0.4287	262.007	-0.961298	20.1109	119.033	-74.7075	-36.8346	-9.11745	-13.6066	32.4998	0
0.4293	366.077	-7.3589	21.0144	108.046	-60.0535	-58.5021	6.13619	-17.561	39.5081	0.319622
0.4300	519.581	-10.74	18.2705	118.733	-49.3782	-116.179	17.1205	-22.7486	37.0822	0.319622
0.4307	540.926	-25.9882	16.7647	163.904	-38.3878	-161.639	26.2814	-25.4699	27.6095	0.319622
0.4313	257.733	-50.7168	12.7826	134.289	-28.6185	-150.97	30.8546	-19.6871	23.0271	0
0.4320	-45.6103	-37.8884	7.89713	68.3682	-29.5442	-111.907	23.5317	-9.60967	18.1368	0
0.4327	-83.1499	2.08834	7.59597	84.8485	-28.6185	-77.4043	12.8513	-2.29612	10.2043	0.319622
0.4333	-77.6544	19.4911	12.1803	119.033	-7.26788	-58.5021	11.0278	4.42215	1.6558	0
0.4340	-215.6	13.6902	15.2254	72.9628	24.7777	-62.1546	10.1016	8.67421	-8.70256	0
0.4347	-368.175	3.61315	13.385	10.0879	44.6118	-69.7898	0.651246	7.18599	-16.635	0
0.4353	-368.493	-9.2152	11.578	10.7122	49.4964	-68.8612	-8.81353	8.07893	-20.2931	0
0.4360	-203.096	-22.3087	14.0208	61.052	47.6647	-71.3168	-8.81353	19.3894	-44.7065	0
0.4367	-90.1587	-18.0658	18.2705	128.796	38.506	-73.1328	-5.75991	26.703	-82.2508	0
0.4373	-133.804	-6.76224	23.7583	170.921	20.8188	-66.1166	-3.01021	17.561	-78.5926	0
0.4380	-181.406	-7.06057	25.5987	137.96	-1.45751	-59.41	6.74402	7.18599	-42.2806	0
0.4387	-187.22	-7.98872	17.9693	39.7025	-19.4598	-56.6655	19.5663	-1.99847	-17.5592	0
0.4393	-112.141	-4.30927	8.49945	-91.5405	-22.5127	-52.9924	26.8892	-13.2664	-8.70256	-0.319622
0.4400	116.734	-0.36463	1.50581	-216.042	-10.9314	-47.1937	31.7663	-14.7972	-2.00236	-0.639243
0.4407	331.272	5.43631	-4.31665	-233.745	-4.21497	-45.9762	28.1049	-8.41909	2.27191	-0.319622
0.4413	353.865	11.8671	-6.12362	-155.914	-7.87846	-47.8128	14.3708	-4.71979	-2.00236	0
0.4420	227.813	20.0878	-16.1958	-86.6464	-8.1739	-46.5953	4.3127	1.36066	-7.47034	0.319622
0.4427	20.3096	25.8888	-32.9939	-62.2256	-11.2268	-47.8128	5.22444	8.67421	-4.73635	0.319622
0.4433	-152.415	23.4358	-22.3194	-73.8367	-18.8492	-52.7035	14.6892	1.99847	6.23812	0
0.4440	-249.158	16.4415	6.99365	-89.6927	-17.0175	-62.7737	31.4624	-10.5451	16.635	0
0.4447	-302.865	5.76779	14.6231	-81.4526	-11.8374	-73.1328	49.4802	-17.8587	14.4786	0.319622
0.4453	-231.158	0.265186	3.61394	-43.9225	40.3377	-67.0452	59.2345	-17.2634	5.35246	0.319622
0.4460	-122.521	9.11576	-9.80449	-1.82282	129.758	-38.0521	57.411	-4.71979	9.89628	0
0.4467	-133.804	18.8613	-19.8767	19.8513	159.972	-2.64136	45.8043	7.18599	19.9851	0.319622
0.4473	-173.786	15.215	-21.0813	46.4195	146.244	16.5704	29.0311	8.37657	15.0947	0.319622
0.4480	-154.247	2.08834	-8.86754	100.13	127.316	20.8626	14.3708	-1.70083	7.7784	0
0.4487	-128.017	-10.1102	4.24973	135.213	87.963	29.0963	1.56299	-13.9043	9.01062	-0.319622
0.4493	-145.698	-14.3863	2.10813	125.75	37.3045	41.003	-10.6515	-20.6225	12.3607	0.319622
0.4500	-182.017	-12.2648	-7.36173	122.079	-6.34216	39.1665	-14.009	-25.1722	14.7867	0.319622
0.4507	-157.91	-10.74	-10.4068	112.94	-38.3878	26.0422	-7.59787	-28.5314	16.635	0
0.4513	-70.6456	-14.088	-10.4068	-28.6657	-60.3687	15.3529	-1.49063	-29.4668	14.4786	0
0.4520	-12.9557	-16.8393	-7.96406	-244.108	-82.3299	16.2815	5.52836	-25.81	9.58822	0
0.4527	-14.1769	-11.9334	-8.56638	-317.97	-111.638	18.0975	17.4245	-16.3279	3.50413	0
0.4533	-24.2388	-6.16557	-11.3103	-245.656	-129.935	12.2988	20.4781	-8.71673	-10.8589	0
0.4540	-30.6635	-4.64075	8.19829	-156.238	-118.965	8.3368	8.27806	-9.31202	-24.8755	-0.319622
0.4547	-51.3979	-3.08278	26.2011	-106.173	-99.111	24.5152	-6.99004	-12.3735	-28.2256	-0.319622
0.4553	-61.4863	-1.25963	9.13524	-85.1232	-92.4143	63.888	-19.1901	-15.435	-31.3061	0
0.4560	-67.2739	0.56352	-7.36173	-68.3433	-73.4863	90.1365	-23.1554	-15.435	-32.1918	0.319622
0.4567	-121.592	6.36446	-6.75941	-51.2387	-35.3349	111.494	-17.3666	-10.2475	-26.1077	0.319622
0.4573	-155.468	7.88927	-5.22014	-37.5051	-5.121	171.916	-15.5286	-8.71673	-29.1497	-0.319622
0.4580	-47.4422	0.861853	2.40929	-20.4256	14.3979	250.042	-16.7443	-9.31202	-40.4323	0
0.4587	177.158	-6.16557	15.5266	9.16404	31.8093	282.688	-17.0482	-5.3576	-46.5549	0
0.4593	461.599	-10.74	21.3156	43.6728	85.8161	290.013	-21.6358	1.99847	-52.947	0
0.4600	672.155	-8.88372	20.7132	54.0354	180.732	337.62	-28.047	10.205	-58.7615	0
0.4607	539.412	-1.25963	16.1289	36.6312	244.508	363.559	-37.1934	10.8428	-60.2633	0
0.4613	137.495	-0.662964	8.49945	23.5219	261.9	305.882	-46.6582	-0.765372	-61.8036	0
0.4620	-170.441	-5.53575	4.24973	22.2983	269.542	225.011	-47.266	-9.60967	-56.6052	0
0.4627	-155.176	-2.48612	3.01162	13.4589	279.291	157.574	-33.228	-5.65525	-38.3144	0
0.4633	99.3445	1.79	-0.0334624	-3.346	271.669	87.6809	-10.6515	-2.29612	-23.9513	-0.319622
0.4640	242.175	2.38667	-2.47622	-15.2318	231.075	4.06522	13.1552	-5.95289	-20.2931	-0.319622
0.4647	177.158	9.11576	-6.45825	-20.4256	164.246	-79.5504	32.3886	-3.18905	-13.2849	0.319622
0.4653	182.362	16.4415	-12.2472	-26.2186	83.3738	-157.367	37.5697	4.42215	-9.31867	0.319622
0.4660	324.555	13.0604	-8.56638	-28.6657	-6.95274	-247.71	37.2658	4.42215	-15.0947	0
0.4667	330.662	5.76779	5.75554	-17.9785	-91.8037	-298.371	46.4266	2.59376	-22.7576	-0.319622
0.4673	219.901	-1.55797	17.6682	-10.6622	-143.979	-249.526	62.592	8.37657	-32.8079	0
0.4680	99.6631	-7.3589	19.5086	-14.6325	-166.866	-170.182	66.2535	14.2019	-50.8291	0
0.4687	-129.238	-5.83408	14.3219	-12.1854	-188.236	-126.847	47.6423	16.3279	-61.1875	0
0.4693	-254.043	0.56352	7.89713	-3.94528	-201.649	-103.653	21.0859	14.4995	-60.5714	-0.639243
0.4700	-190.565	6.36446	1.80697	3.67061	-186.404	-77.4043	-1.49063	4.71979	-56.2971	-1.27849
0.4707	-204.609	11.5356	-4.91898	12.535	-153.138	-60.318	-15.2247	-1.99847	-38.9305	-0.639243
0.4713	-276.317	14.2869	-9.80449	18.0284	-121.702	-49.6494	-18.5822	-4.1245	-19.677	0
0.4720	-230.866	11.8671	-11.0091	12.535	-102.479	9.86384	-19.7979	-16.9232	-10.8589	-0.319622
0.4727	-167.388	6.96112	-7.96406	5.21876	-93.3203	101.424	-14.009	-38.9064	4.73635	0
0.4733	-203.999	1.49167	-4.01549	-1.19857	-80.4981	145.667	-0.578886	-59.3588	24.2594	0
0.4740	-283.034	-1.88945	-0.936948	-20.1259	-57.9264	147.504	7.04793	-60.5919	30.0354	-0.319622
0.4747	-358.405	0.861853	-1.57273	-32.3363	-31.6714	142.015	7.35185	-40.1395	32.4998	0
0.4753	-363.9	8.81742	-10.1056	-30.8132	-9.09962	141.086	-3.63251	-21.2178	34.0016	0
0.4760	-252.529	12.4637	-16.497	-23.4719	5.55431	140.488	-25.6012	-15.0948	27.3014	-0.639243
0.4767	-38.8936	13.3919	-15.2923	1.84779	15.3236	118.201	-35.066	-5.3576	18.4448	-0.639243
0.4773	110.628	17.9663	-15.5935	29.6146	35.4728	65.1055	-25.6012	8.67421	6.23812	0
0.4780	45.0263	19.4911	-18.9397	35.7323	69.3304	-2.9509	-16.1364	8.37657	-9.93478	0.319622
0.4787	-45.9289	17.0382	-15.8946	36.0319	84.2995	-49.0303	0.332859	-1.70083	-15.0947	0
0.4793	-27.6104	12.7621	-6.45825	48.542	72.3833	-65.5182	29.335	-14.4995	-10.8589	0
0.4800	-1.35397	4.83964	-0.334624	55.5586	58.9702	-99.3813	43.6769	-30.3597	-8.39451	0
0.4807	-38.8936	-2.48612	1.80697	45.7952	40.0423	-149.134	43.6769	-42.9033	-3.19607	0
0.4813	-124.353	-5.53575	3.31278	28.3911	11.0495	-176.6	41.535	-53.8737	0.154028	0
0.4820	-167.07	-6.4639	2.40929	9.16404	-17.3326	-196.121	28.7272	-59.0612	-7.7784	0
0.4827	-144.185	-6.76224	2.10813	1.24851	-34.7243	-186.67	9.79764	-54.7666	-11.4366	0
0.4833	-149.07	-4.01093	4.24973	6.74194	-31.9865	-119.831	-2.09846	-45.327	-7.7784	-0.319622
0.4840	-144.477	-1.55797	5.75554	3.99522	-35.3349	-84.73	-8.81353	-33.4212	-3.19607	0
0.4847	25.4866	-1.55797	5.45437	-6.99164	-49.3782	-142.118	-15.8325	-22.7486	3.19607	0
0.4853	253.459	-0.662964	3.31278	-10.3626	-10.6162	-190.632	-16.4403	-17.561	5.04441	0
0.4860	234.848	0.56352	2.10813	-0.599283	70.5516	-190.034	-5.456	-20.2824	1.07819	0.319622
0.4867	28.8582	2.08834	1.50581	14.6575	117.547	-192.469	0.0289443	-26.703	-2.88802	0
0.4873	-66.9819	9.71243	-4.91898	27.1925	123.042	-184.235	-8.81353	-32.8259	-9.62673	-0.319622
0.4880	-35.5484	17.0382	-13.7531	37.5551	103.523	-150.351	-20.4057	-40.7348	-20.9093	0
0.4887	-17.8406	16.4415	-14.9912	38.1793	66.8881	-100	-16.7443	-50.5145	-22.4495	0.319622
0.4893	-35.2299	11.8671	-10.1056	26.5682	18.6719	-36.8346	-1.79455	-57.2328	-8.08645	0
0.4900	-46.8316	3.61315	-4.91898	12.8347	-34.1137	27.8788	12.2434	-61.1872	3.81218	0
0.4907	-46.2209	-4.64075	1.80697	5.21876	-60.3687	89.2079	22.0121	-62.4203	6.23812	0.319622
0.4913	-26.9998	-7.06057	9.13524	13.1343	-54.8735	144.45	9.18981	-58.7635	1.34774	0
0.4920	-6.2389	-7.06057	11.8792	27.1925	-58.2218	174.66	-10.6515	-50.5145	-7.47034	0
0.4927	5.04422	-6.76224	10.3399	30.2388	-82.0344	174.351	-4.24034	-38.9064	-7.16229	0
0.4933	26.7078	-5.23742	9.13524	28.0914	-110.712	151.466	7.04793	-27.9361	-0.154028	0
0.4940	37.6989	-3.7126	7.29481	23.8215	-141.241	92.8811	18.9585	-22.7486	7.47034	0
0.4947	37.4068	-3.08278	4.85205	16.5053	-109.491	0.412713	50.6959	-19.6871	20.6012	0
0.4953	42.5838	-2.48612	6.39132	12.2354	17.7659	-89.6206	81.2176	-13.2664	32.4998	0
0.4960	34.9644	-4.93908	10.3399	10.3876	117.862	-182.708	79.6836	-11.1404	35.8499	0
0.4967	20.3096	-7.3589	13.385	11.6111	142.876	-286.774	40.0155	-11.7357	29.7658	0
0.4973	-6.55748	-6.4639	15.8277	14.0582	145.023	-342.923	-11.5632	-9.31202	23.0271	0
0.4980	-47.1501	-7.06057	14.0208	7.34122	120.599	-284.937	-50.9275	-8.07893	21.5254	0
0.4987	-55.3802	-7.06057	11.8792	-1.49821	94.3642	-78.9314	-63.4459	-5.05996	22.411	0
0.4993	-43.4864	-4.30927	12.4815	-2.12246	101.691	133.162	-52.4615	1.36066	22.7191	-0.319622
0.5000	-35.8405	-1.88945	10.0387	-2.4221	119.083	191.437	-48.4817	5.01744	22.411	-0.639243
0.5007	-5.33625	0.265186	6.99365	-10.9619	106.261	207.306	-50.6235	9.60967	26.0692	0
0.5013	25.1945	1.79	6.39132	-11.5861	57.7491	278.416	-39.3353	14.4995	24.8755	0.319622
0.5020	43.805	0.56352	7.59597	11.3115	12.5661	323.278	-22.2437	17.2209	4.42829	0.319622
0.5027	113.389	-2.78445	11.578	28.3911	-12.1525	302.828	5.52836	19.3894	-7.16229	0.319622
0.5033	198.211	-4.01093	17.0658	21.9987	-31.9865	261.33	65.3417	20.2824	10.8204	0.319622
0.5040	199.14	-3.41427	14.6231	7.34122	-54.5583	232.337	124.547	25.7675	26.0692	0
0.5047	144.503	-1.25963	4.85205	-9.13907	-75.9286	221.359	119.352	31.2952	20.2931	0
0.5053	101.787	3.01649	0.568861	-25.6194	-84.7722	212.815	62.592	22.4084	4.73635	0
0.5060	59.681	4.20982	2.10813	-25.6194	-69.5077	150.867	12.8513	8.07893	-15.0947	0.319622
0.5067	14.4955	4.20982	3.01162	-1.49821	-33.5031	30.3138	-5.75991	1.65831	-33.424	0
0.5073	4.75218	7.29261	3.31278	23.8215	-13.3737	-47.5033	6.74402	4.71979	-40.4323	0
0.5080	5.3628	7.29261	3.61394	34.2091	-35.3349	-111.907	28.4088	7.78128	-40.4323	0
0.5087	9.63711	2.08834	6.39132	33.2852	-48.1571	-191.54	36.354	2.59376	-39.2385	0
0.5093	65.7872	-1.88945	12.1803	24.1212	-6.95274	-152.786	46.7305	-2.59376	-33.1159	0
0.5100	119.787	-3.41427	15.8277	17.7288	37.8954	-13.3306	54.0534	-0.467727	-24.8755	-0.319622
0.5107	160.99	-6.76224	18.8728	17.4042	53.475	130.706	30.8546	5.31508	-22.4495	0
0.5113	254.069	-13.1598	24.6953	13.1343	48.2752	193.274	-10.0292	8.37657	-27.9175	0.319622
0.5120	351.715	-16.8393	29.5808	17.4042	17.7659	116.364	-42.6928	12.0333	-41.6645	0.319622
0.5127	413.068	-16.2095	26.5022	29.9392	-12.448	31.2217	-60.6962	15.0948	-55.4114	0
0.5133	430.165	-11.9334	19.8097	32.0617	7.38605	11.0813	-70.1609	16.9232	-57.8374	-0.319622
0.5140	381.635	-5.53575	10.9422	41.5253	53.7705	-1.73339	-80.2335	21.8131	-58.1454	-0.319622
0.5147	232.406	3.61315	-0.635786	69.2921	70.2561	-37.1235	-80.8414	34.952	-61.4955	-0.319622
0.5153	-63.3182	19.4911	-11.9461	87.5953	55.6022	-106.109	-61.304	55.0643	-53.8712	-0.319622
0.5160	-366.661	29.5682	-21.7171	88.8188	17.4508	-209.245	-36.5856	64.844	-39.5081	0
0.5167	-411.528	28.3417	-22.0183	94.6368	-22.8278	-359.081	-6.99004	62.718	-23.3352	0
0.5173	-167.388	25.8888	-14.0877	105.599	-53.0417	-437.208	25.9775	63.9085	-2.31041	-0.319622
0.5180	94.4596	22.5408	-11.9461	109.269	-79.8876	-326.435	41.2311	65.1416	12.6688	-0.319622
0.5187	166.778	16.4415	-8.86754	104.7	-108.27	-184.834	41.839	62.718	19.677	0
0.5193	137.787	11.8671	0.568861	108.046	-160.76	-127.466	31.1585	57.2328	24.5674	0
0.5200	76.1411	4.20982	2.40929	129.72	-210.512	-127.466	-5.75991	44.3916	18.4448	0
0.5207	-48.3714	-2.78445	1.50581	123.003	-212.029	-144.243	-46.0503	40.4371	15.4028	0
0.5213	-134.415	-0.961298	1.80697	36.9558	-159.539	-101.218	-61.9118	50.8122	25.7996	0.319622
0.5220	-140.84	-0.36463	-6.75941	-71.9889	-86.3085	-33.471	-68.6269	48.9838	30.0354	0
0.5227	-86.203	-0.961298	-8.56638	-86.6464	-36.2606	2.84772	-67.4112	40.7348	30.3434	0
0.5233	64.2474	5.13797	-1.57273	-14.0082	-5.121	37.3299	-64.9654	47.1554	27.6095	0.319622
0.5240	154.884	7.88927	-5.82246	19.5516	30.273	50.1446	-70.1609	48.9838	12.3607	0
0.5247	-9.90259	5.13797	-11.9461	-21.6491	54.0856	29.6947	-64.6615	39.7993	1.6558	-0.319622
0.5253	-299.52	5.76779	-3.68087	-54.3101	56.2128	13.2275	-50.9275	36.7804	1.07819	0
0.5260	-424.935	2.38667	6.69248	-32.3363	43.7057	9.26541	-53.3732	31.2952	-7.47034	0
0.5267	-300.423	-5.53575	9.73756	-0.599283	8.31177	-3.26043	-83.2727	19.0493	-23.9513	0
0.5273	-130.751	-6.16557	8.49945	-10.9619	-31.9865	-43.8508	-111.045	19.9847	-31.8837	0
0.5280	-115.194	-4.93908	5.45437	-46.6692	-68.8971	-81.9854	-111.045	25.1722	-34.6562	0
0.5287	-186.291	-7.69038	1.80697	-53.0865	-100.332	-79.2409	-100.972	19.9847	-39.5081	0
0.5293	-247.936	-6.16557	-2.77738	-18.2781	-91.1931	-35.5965	-93.3453	14.7972	-43.5128	-0.319622
0.5300	-311.122	1.16019	-6.12362	5.81804	-16.1114	31.8408	-60.0883	20.8776	-38.0063	-0.639243
0.5307	-332.785	8.81742	-8.26522	-28.0664	98.9337	75.4852	4.61661	34.6118	-22.4495	0
0.5313	-259.246	12.1654	-16.497	-83.6	188.669	79.1377	45.1965	43.7963	-10.2428	0.319622
0.5320	-167.388	13.3919	-22.9218	-101.604	243.602	81.8823	62.8959	46.5176	0.462083	0
0.5327	-141.45	10.6406	-16.1958	-92.1398	272.89	97.4622	83.9529	46.5176	15.0947	0
0.5333	-168.61	4.20982	-9.50333	-73.8367	258.847	131.325	78.164	42.2655	26.6853	0
0.5340	-120.982	-0.36463	-11.3103	-49.1163	235.349	181.986	46.7305	37.3757	34.0016	0
0.5347	44.0971	-1.88945	-13.4519	-31.1128	221.621	237.537	22.316	38.6088	37.6983	-0.319622
0.5353	159.769	-1.88945	-12.5484	-28.0664	174.626	313.208	2.77865	39.5017	38.0063	0.319622
0.5360	166.167	-3.41427	-11.6449	-39.9522	81.8572	352.581	-10.9554	31.2952	35.2338	0.319622
0.5367	132.928	-3.7126	-9.20216	-35.982	-2.38323	309.555	-5.15208	19.0493	28.5336	0
0.5373	103.619	-1.25963	-5.82246	7.04158	-65.8639	236.299	29.6389	9.90731	21.2173	0
0.5380	82.2473	-1.25963	-6.12362	44.2721	-134.82	163.971	91.5942	-0.170083	16.3269	0.319622
0.5387	51.4244	-3.41427	-7.66289	36.9558	-138.484	131.016	143.462	-8.71673	23.6432	0
0.5393	19.699	-3.7126	-5.82246	13.7585	-41.7361	127.962	156.589	-10.8428	44.3985	0
0.5400	-2.5752	-5.53575	-5.22014	4.89415	44.0012	133.76	134.316	-13.2664	50.7906	0
0.5407	-17.8406	-5.83408	-7.06057	-1.19857	57.434	173.133	95.5595	-13.6066	39.8161	0
0.5413	-23.3361	-3.7126	-7.66289	-14.3329	40.6528	165.498	62.592	-9.01438	32.8079	0.319622
0.5420	-3.5044	-4.93908	-8.86754	-28.3661	18.9871	62.3609	35.4278	-9.31202	27.9175	0
0.5427	51.4244	-4.01093	-7.36173	-32.0117	-28.6185	1.93975	13.1552	-7.18599	25.4916	0
0.5433	95.9994	-0.662964	-5.22014	-17.9785	-105.827	8.02727	-5.75991	-1.36066	17.5592	-0.319622
0.5440	88.0614	-3.7126	-8.56638	4.29486	-190.678	-76.8059	-22.2437	-5.3576	-3.19607	0
0.5447	62.4155	-2.78445	-6.75941	18.6277	-276.12	-197.648	-14.3129	-4.42215	-6.58468	0.319622
0.5453	47.1501	0.265186	-3.68087	16.5053	-331.663	-226.641	13.763	5.65525	4.42829	0.319622
0.5460	36.4776	-4.93908	-7.96406	11.0118	-313.957	-192.469	31.1585	8.67421	5.04441	0
0.5467	34.3538	-7.06057	-7.06057	23.2222	-252.918	-118.923	35.1239	13.5641	3.81218	0.319622
0.5473	38.0175	-4.93908	-0.936948	32.0617	-201.039	-58.1925	25.6736	8.07893	6.54617	0
0.5480	38.3095	-7.69038	0.267699	13.7585	-166.255	-76.8059	4.61661	-30.9976	9.89628	-0.319622
0.5487	38.0175	-9.51354	4.24973	-0.274672	-133.599	-152.786	-0.274971	-69.7339	12.3607	0
0.5493	37.4068	-4.64075	8.49945	13.1343	-76.8347	-245.255	8.58198	-75.8568	11.7446	0.319622
0.5500	34.9644	-0.36463	3.61394	28.0914	0.669669	-357.863	9.49372	-48.6862	8.39451	0
0.5507	34.3538	-1.88945	-4.61781	24.4458	53.1599	-427.756	8.58198	-9.60967	4.12024	0
0.5513	35.867	-3.41427	-5.5213	9.16404	72.3833	-373.443	2.77865	8.67421	1.34774	0
0.5520	34.6458	-2.78445	-1.8739	-2.72175	80.3209	-256.254	-7.59787	3.18905	-2.00236	0
0.5527	32.5219	-2.18778	-2.47622	-1.49821	82.7632	-190.632	2.47474	-6.54818	-4.42829	0
0.5533	32.8139	-6.4639	-7.96406	4.89415	66.8881	-179.344	25.6736	-10.5451	-4.12024	0
0.5540	33.1325	-10.1102	-8.86754	14.6575	30.5881	-144.553	37.5697	-9.01438	-7.16229	0
0.5547	33.1325	-5.83408	-2.47622	30.2388	-9.7102	-85.9681	43.6769	-5.05996	-9.62673	0
0.5553	32.5219	-9.2152	0.267699	29.0153	-51.5054	-75.5884	44.5887	-1.70083	-3.81218	0
0.5560	32.8139	-16.541	-0.936948	17.1045	-87.5297	-106.109	30.8546	4.1245	3.19607	0
0.5567	35.575	-10.74	5.45437	19.5516	-115.301	-118.304	12.2434	15.6901	2.88802	0
0.5573	35.575	-2.48612	12.1803	30.5385	-134.21	-120.45	-2.09846	14.2019	-2.00236	0
0.5580	30.3715	-3.7126	8.19829	38.7786	-143.979	-124.722	-23.7633	-11.4381	-11.4366	0.319622
0.5587	26.7078	-8.58539	2.10813	40.6014	-170.844	-115.25	-45.7464	-31.8905	-22.7576	0.319622
0.5593	25.8051	-8.58539	1.50581	36.6312	-197.69	-82.914	-55.5007	-30.9976	-23.6432	-0.639243
0.5600	26.4158	-5.53575	3.94857	28.7157	-179.688	-47.8128	-53.6772	-21.8131	-15.7108	-0.639243
0.5607	26.4158	-5.23742	9.73756	17.4042	-125.977	-42.3237	-36.8895	-17.8587	-9.93478	0
0.5613	24.5839	-6.4639	14.6231	7.96547	-64.6427	-22.4722	-17.6705	-19.9847	-8.08645	0
0.5620	21.5308	-7.69038	10.3399	-0.599283	-22.8278	44.6555	-8.50962	-21.5155	-6.58468	0
0.5627	18.7698	-6.4639	4.85205	-4.24492	-2.67868	96.224	-6.99004	-18.7941	-4.73635	0
0.5633	18.4778	-1.88945	5.15321	2.77169	12.8813	77.3011	-6.99004	-13.2664	-6.58468	-0.319622
0.5640	17.8671	0.265186	4.85205	10.3876	16.8402	19.6245	-11.2593	-10.2475	-15.4028	-0.319622
0.5647	18.7698	-1.55797	8.80062	14.3578	15.3236	-10.5861	-21.6358	-11.7357	-21.5254	0
0.5653	22.1414	-4.30927	11.2434	16.5053	19.2825	-14.8577	-25.9051	-13.9043	-19.369	0
0.5660	21.8229	-9.2152	1.17118	12.535	22.6506	-25.2374	-16.7443	-15.7326	-15.4028	0
0.5667	20.6016	-5.53575	-12.5484	3.99522	24.7777	-35.5965	-8.50962	-17.8587	-10.2428	0
0.5673	22.4335	3.91149	-16.1958	-2.4221	28.4412	-32.2535	-11.8672	-14.7972	-2.61847	-0.319622
0.5680	23.0441	2.08834	-14.3888	-6.692	33.9365	-21.2547	-19.7979	-6.25054	0.462083	0
0.5687	19.0884	-6.16557	-17.7351	-11.5861	40.3377	-5.3859	-33.228	-4.1245	-6.27663	0
0.5693	15.1061	-5.23742	-18.6386	-12.7847	48.2752	13.2275	-42.6928	-1.70083	-9.62673	0.319622
0.5700	14.2034	3.31482	-20.1778	-5.16882	50.107	14.7545	-34.4437	12.3735	-7.16229	0
0.5707	11.761	7.29261	-31.1535	-0.898925	38.2105	7.73837	-13.7051	17.561	-11.1285	0
0.5713	9.02649	3.31482	-13.4519	-9.73835	27.2201	5.28273	15.2971	5.01744	-14.2091	0
0.5720	10.2477	-3.7126	21.9513	-25.3197	24.1672	4.06522	42.4613	-1.36066	-9.62673	0
0.5727	12.9822	-6.16557	34.1317	-35.083	18.9871	10.4829	50.0881	0.765372	-7.47034	0
0.5733	17.8671	-3.41427	35.3698	-25.919	20.8188	27.5692	30.2468	-1.99847	-11.7446	0
0.5740	21.8229	2.38667	33.8305	-2.12246	31.4941	62.9594	-6.68613	-11.4381	-14.8252	0
0.5747	19.991	6.36446	24.3941	21.0748	35.1576	94.0986	-31.0862	-10.2475	-16.0189	0.319622
0.5753	16.9379	0.265186	-0.635786	34.8084	34.547	91.6636	-32.6202	16.0303	-14.8252	0.319622
0.5760	16.0353	-4.30927	-28.1084	35.4326	25.9989	68.758	-28.3509	44.9869	-9.62673	0.319622
0.5767	16.0353	-1.88945	-46.7135	29.6146	10.1435	49.8351	-27.7431	47.7507	-8.70256	0
0.5773	16.6459	-9.51354	-43.9696	26.5682	76.0468	43.1285	-28.9587	37.078	-9.01062	0
0.5780	17.2565	-19.2591	6.69248	21.9987	219.494	34.2758	-28.6548	29.1266	-4.42829	0
0.5787	13.5928	-12.8615	48.1859	14.6575	297.609	20.5531	-24.6895	-7.18599	-1.6943	0
0.5793	9.92914	-2.18778	35.0686	15.2817	284.491	14.7545	-19.494	-63.9511	-1.07819	0.319622
0.5800	11.4424	-0.36463	19.2074	25.3447	231.686	12.9179	-3.63251	-59.3588	0.770138	0.319622
0.5807	12.053	-3.7126	11.8792	40.3018	169.741	23.2977	22.0121	-14.4995	0.770138	0
0.5813	9.92914	-6.76224	-4.61781	50.6894	117.251	52.8892	28.4088	-17.8587	-0.770138	0
0.5820	9.63711	-2.48612	-19.5755	44.8713	58.9702	76.3932	13.4591	-17.2634	1.34774	0.319622
0.5827	13.2743	3.91149	-26.268	27.1925	-22.8278	82.1918	-3.93642	19.3894	6.23812	0
0.5833	14.8141	3.01649	-17.7351	-2.4221	-71.6546	79.7568	-21.028	36.7804	6.23812	0
0.5840	11.761	-0.961298	3.94857	-50.6394	-73.7818	81.2838	-31.4045	61.4849	-1.6943	0
0.5847	9.92914	-6.4639	25.5987	-91.5405	-97.8898	87.3713	-21.3319	104.516	-7.47034	0
0.5853	10.8318	-15.3145	50.9298	-112.89	-130.251	82.5013	1.25908	86.1894	-6.85423	0
0.5860	11.1504	-17.7343	59.4627	-115.936	-113.154	68.758	14.0669	-1.36066	-5.96857	0
0.5867	11.761	-6.4639	32.3247	-80.2291	-70.1183	62.9594	15.601	-78.2805	-6.85423	0.319622
0.5873	13.2743	5.13797	5.75554	-23.7716	-60.9793	60.2148	17.1205	-115.529	-4.12024	0.319622
0.5880	11.4424	3.61315	-8.26522	27.1925	-76.2241	48.3287	22.316	-113.36	1.6558	0.319622
0.5887	10.5398	-4.93908	-46.4124	69.5918	-89.0463	41.6015	24.4434	-71.2646	3.19607	0.319622
0.5893	12.3716	-19.8889	-80.3098	96.7593	-101.258	48.3287	17.7284	-42.9033	-4.73635	0
0.5900	11.4424	-23.8667	-71.1411	104.7	-114.691	55.9433	7.97415	-45.327	-12.6688	-0.319622
0.5907	10.8318	2.38667	-93.7282	110.493	-114.08	51.6717	5.22444	-12.0759	-9.01062	0
0.5913	13.2743	22.5408	-136.159	131.867	-93.6355	37.6394	5.52836	45.6247	-2.00236	0.319622
0.5920	16.6459	19.7895	-37.5783	135.813	-64.9382	19.934	-3.01021	38.6088	-1.6943	0
0.5927	18.1592	34.7393	101.291	82.4264	-37.7772	0.103178	-14.6169	6.54818	1.34774	-0.319622
0.5933	15.1061	49.6892	47.8847	3.07133	-18.8492	-12.1131	-12.7789	18.1563	8.08645	0
0.5940	7.48668	23.7673	-24.7622	-47.2934	10.7541	-19.7277	-4.54425	17.8587	5.35246	0.319622
0.5947	1.08849	-8.28705	56.4176	-45.146	47.3692	-19.1292	0.0289443	30.955	-1.07819	0
0.5953	-2.28317	-21.7121	101.893	-6.09271	57.1385	-2.33183	8.58198	75.219	-0.154028	0
0.5960	-1.96459	-36.9603	50.3275	34.5087	47.3692	19.0261	15.2971	69.0961	-0.770138	0
0.5967	1.6991	-46.1423	34.4663	56.4825	33.0304	33.0583	4.00878	16.3279	-7.47034	0.319622
0.5973	5.04422	-33.9106	55.8153	65.6215	23.5566	37.3299	-8.2057	-30.0621	-6.85423	0
0.5980	7.48668	-15.9111	60.7008	78.7558	26.9246	38.8569	-4.54425	-58.7635	1.34774	0
0.5987	6.87606	-4.30927	45.1408	52.2126	27.2201	38.5474	-4.24034	-92.61	2.57996	0
0.5993	5.97341	16.4415	24.0595	-53.0865	21.1143	34.8949	-14.3129	-96.6069	2.57996	0.319622
0.6000	9.92914	40.2419	12.7826	-133.341	24.4823	35.2044	-17.3666	-41.6702	9.01062	0
0.6007	12.3716	24.6623	-4.01549	-116.86	35.1576	33.9663	-14.009	20.8776	9.31867	0.319622
0.6013	12.6636	-7.98872	-25.0634	-77.807	34.8622	20.5531	-14.6169	49.5791	0.154028	0.319622
0.6020	18.1592	8.18761	-18.0362	-65.5966	27.8307	9.55431	-10.0292	47.4531	-0.770138	0
0.6027	19.3804	27.1152	29.2796	-64.373	31.4941	12.2988	-3.63251	36.7804	6.23812	0
0.6033	12.3716	-3.41427	71.3753	-64.6727	40.3377	22.369	-5.456	11.1404	6.23812	0
0.6040	6.58403	-27.513	53.6737	-64.9723	48.5904	33.9663	-8.50962	-24.8746	4.73635	0
0.6047	2.30972	-22.0104	16.43	-54.9093	51.6433	38.2379	-8.81353	-39.5442	3.19607	0
0.6053	-1.67256	-4.30927	9.13524	-27.1425	46.1481	36.4219	-11.8672	-23.3438	-0.154028	0
0.6060	-1.67256	3.91149	14.0208	1.24851	37.3045	31.8408	-19.494	11.4381	-0.770138	0.319622
0.6067	1.08849	-2.18778	18.2705	13.7585	27.8307	18.0975	-21.3319	18.454	1.96385	0
0.6073	3.53095	-1.25963	9.73756	14.6575	18.3765	-0.206357	-14.3129	12.6712	3.19607	-0.319622
0.6080	4.14157	-6.16557	-11.3103	15.2817	11.345	-5.09701	-10.3476	61.7825	2.27191	0
0.6087	2.92034	-15.3145	-23.5241	16.2056	5.55431	4.68429	-16.4403	112.467	0.462083	0.319622
0.6093	3.21237	-7.06057	-34.5332	17.4042	-1.45751	8.3368	-18.2783	85.8917	-1.6943	0
0.6100	10.2477	5.13797	-65.6533	20.1509	-7.87846	1.32068	-13.7051	-7.18599	-2.61847	0
0.6107	19.699	18.8613	-83.656	4.29486	-8.1739	3.46679	-15.5286	-124.075	0.154028	0
0.6113	26.4158	7.88927	-37.2771	-29.8893	-6.6573	8.64634	-17.6705	-186.028	3.19607	0.319622
0.6120	29.1503	-28.7395	-6.75941	-50.3398	-6.04672	-1.42386	-12.475	-147.844	0.770138	0
0.6127	27.637	-15.0161	-34.8344	-51.2387	-0.846934	-13.3306	4.61661	-18.1563	0.462083	0
0.6133	22.4335	40.8386	-38.1806	-47.2934	3.42713	-9.96702	26.8892	182.329	5.93006	0.319622
0.6140	13.5928	59.7662	-68.6983	-44.5467	3.42713	4.06522	40.0155	323.327	9.89628	0.319622
0.6147	5.97341	35.6675	-127.893	-35.982	5.86945	30.9328	36.9618	292.202	12.0527	0
0.6153	8.41587	27.7119	-68.9995	-16.4553	11.0495	59.6164	22.316	165.533	13.8625	0
0.6160	12.9822	48.4627	66.1887	4.89415	11.6601	62.0514	9.18981	80.4066	9.31867	0
0.6167	9.02649	64.639	135.155	20.4755	12.5661	42.2205	1.86691	79.8113	1.34774	0
0.6173	6.26545	41.7667	120.197	31.762	18.3765	26.3517	-2.40237	123.735	0.462083	0
0.6180	2.92034	-36.3636	55.213	36.0319	18.6719	14.1354	-6.06383	139	3.19607	0
0.6187	-8.99994	-91.5885	-32.3916	53.1115	13.7873	-0.515891	-11.8672	84.361	-0.154028	0.319622
0.6193	-15.1061	-62.617	-86.7011	94.9365	15.619	0.412713	-12.475	-21.5155	-6.85423	0
0.6200	-4.72563	-8.28705	-51.599	127.897	23.5566	-0.80479	-7.29396	-110.001	-9.62673	-0.319622
0.6207	6.87606	22.5408	29.8819	123.927	24.4823	-30.417	-4.84817	-88.6556	-9.93478	0
0.6213	10.2477	21.911	86.9354	72.9628	18.9871	-40.1776	1.56299	-22.7486	-7.47034	0
0.6220	12.6636	-2.78445	114.107	15.2817	14.713	-13.3306	12.2434	-16.0303	-1.07819	0
0.6227	14.2034	-18.9608	92.122	5.5184	15.3236	6.21133	15.2971	-55.1068	1.34774	0
0.6233	12.6636	-9.81187	39.3183	29.9392	18.0614	9.86384	7.35185	-84.7011	-2.00236	0
0.6240	12.053	4.54131	9.13524	65.6215	17.1553	13.8259	-4.54425	-61.825	-2.88802	0.319622
0.6247	11.761	-2.48612	-8.86754	93.4133	12.2707	15.972	-9.72528	-53.8737	-2.00236	-0.319622
0.6253	6.26545	-20.1873	-20.1778	38.1793	7.38605	8.02727	-12.7789	-78.8758	-2.00236	-0.319622
0.6260	2.30972	-21.4137	0.267699	-84.8236	4.33315	0.412713	-15.8325	-83.468	3.81218	0
0.6267	4.75218	-8.28705	48.487	-123.577	6.48003	0.412713	-13.3867	-67.3102	12.3607	0
0.6273	4.4336	-4.93908	58.8604	-67.1197	12.8813	-3.85887	-10.6515	-8.07893	11.1285	0
0.6280	-1.35397	-11.0384	24.6953	-29.5896	19.2825	-10.875	-8.50962	56.2974	5.93006	0
0.6287	-3.18582	5.13797	14.6231	-36.6062	22.3354	-2.64136	-1.79455	29.1266	9.58822	0
0.6293	0.159291	26.1871	17.367	-47.2934	19.8931	8.64634	8.58198	-59.6565	12.9768	0
0.6300	4.14157	9.11576	-8.86754	-41.8	16.5448	2.53819	24.4434	-101.157	7.7784	0
0.6307	6.87606	-17.7343	-38.7829	-17.6789	17.1553	-8.43998	41.839	-82.2349	3.81218	0.319622
0.6313	10.5398	-5.83408	-78.1682	15.5814	16.8402	-8.74952	38.1775	-55.1068	4.12024	0
0.6320	16.6459	31.3914	-163.899	15.5814	16.2296	1.01115	12.8513	-50.5145	1.34774	-0.319622
0.6327	24.8759	42.9932	-166.643	-28.3661	16.5448	14.445	-4.84817	-87.4225	-2.61847	0
0.6333	29.7609	16.7398	-27.8073	-75.0602	14.3979	22.369	-4.84817	-133.813	-1.38625	0
0.6340	25.1945	-5.83408	48.1859	-106.173	7.99663	24.5152	-3.32859	-134.748	0.154028	0
0.6347	18.4778	3.61315	19.5086	-113.514	4.64829	27.8788	-3.01021	-29.7645	0.462083	-0.319622
0.6353	13.5928	16.4415	4.24973	-99.1564	6.16489	26.6613	-1.49063	120.674	1.6558	0
0.6360	8.70791	22.8391	6.0567	-85.7225	8.31177	17.499	-0.8828	141.764	1.96385	0
0.6367	8.70791	43.5899	21.6502	-95.8104	9.53293	5.59226	2.17082	13.8617	3.81218	0
0.6373	13.2743	36.894	56.4176	-103.127	11.0495	-9.65749	10.1016	-169.827	9.01062	-0.319622
0.6380	14.2034	-2.18778	42.0957	-60.7024	11.9556	-40.1776	18.6546	-260.184	10.2043	0
0.6387	8.41587	-27.513	24.3941	-16.1557	9.82837	-66.4262	17.7284	-152.734	6.85423	0
0.6393	6.58403	-42.4629	63.1436	-7.31625	8.92235	-54.2305	11.0278	39.7993	5.62201	0
0.6400	9.63711	-44.9158	41.4599	12.535	8.92235	-34.6885	4.92053	141.764	1.6558	0
0.6407	10.8318	-30.861	-27.5061	27.4921	7.99663	-28.5804	-0.274971	81.6397	-3.50413	0.319622
0.6413	15.1061	-11.635	-0.0334624	4.89415	9.21779	-20.9658	-0.8828	-63.6534	-2.00236	0.319622
0.6420	20.6016	-1.25963	78.1013	0.624254	11.345	-13.3306	1.86691	-108.81	1.34774	0.319622
0.6427	15.4247	-11.3367	71.9777	44.2721	9.82837	-13.0211	1.56299	-40.1395	-2.61847	0
0.6433	5.04422	-17.1376	29.5808	80.279	7.09061	-16.3847	-0.578886	9.01438	-9.31867	0
0.6440	1.6991	-9.2152	28.6438	93.7129	7.99663	-14.2386	1.25908	34.3142	-9.62673	-0.319622
0.6447	-0.451325	-17.436	38.1137	103.476	7.70119	-12.402	2.77865	45.9223	-8.39451	0
0.6453	-4.11502	-22.0104	28.945	108.67	4.33315	-13.9291	-1.79455	44.3916	-9.93478	0.319622
0.6460	-3.79644	-5.83408	-0.0334624	108.67	4.64829	-13.3306	-4.84817	48.346	-7.47034	0
0.6467	3.53095	-4.30927	-4.01549	87.5953	7.38605	-10.5861	-1.79455	32.1881	-2.00236	-0.319622
0.6473	14.8141	-16.541	14.3219	59.2292	5.86945	-12.1131	-0.8828	16.0303	-0.770138	-0.319622
0.6480	23.6547	-14.3863	-11.3103	37.2555	3.72257	-13.6402	-2.40237	40.1395	-1.38625	0
0.6487	28.5396	-7.06057	-44.2708	-42.9986	4.03771	-11.1845	-1.79455	71.5623	1.96385	0
0.6493	28.2476	-0.662964	-22.3194	-154.091	3.42713	-8.13045	-2.09846	83.1704	4.73635	0
0.6500	22.1414	3.31482	-11.3103	-189.498	2.20597	-5.3859	-2.70629	93.8431	4.42829	-0.319622
0.6507	20.3096	-8.28705	-42.765	-140.058	3.72257	-0.80479	1.25908	100.561	4.12024	-0.319622
0.6513	23.6547	-21.7121	-18.0362	-75.9592	5.86945	-0.80479	2.77865	49.5791	5.04441	0.319622
0.6520	13.5928	-29.6345	55.5141	-56.1329	3.11199	-8.43998	-2.70629	-64.844	2.88802	0.319622
0.6527	1.38052	-27.2147	67.0921	-52.4623	1.28025	-8.74952	-3.63251	-141.169	0.770138	0
0.6533	1.6991	-1.55797	35.0686	-37.5051	2.81655	1.63022	1.56299	-108.173	0.154028	0
0.6540	-2.89379	24.3639	2.10813	-26.8429	1.59539	8.3368	0.0289443	-29.4668	-5.96857	0
0.6547	-13.2743	39.9436	-53.1383	-14.0082	0.669669	10.1734	-4.24034	-27.0006	-14.2091	-0.319622
0.6553	-15.7167	66.7936	-91.5866	-0.898925	3.11199	13.537	-2.40237	-86.2319	-12.9768	0.319622
0.6560	-11.1238	72.5946	-96.4721	1.24851	3.42713	13.8259	-1.79455	-77.9829	-8.70256	0
0.6567	-3.5044	15.8117	-77.2313	-4.86918	0.374227	12.6084	-4.54425	0.765372	-9.62673	-0.319622
0.6573	6.87606	-33.6123	-12.5484	-8.51482	0.984807	19.0261	-0.274971	66.3747	1.34774	-0.319622
0.6580	13.5928	-8.88372	71.3753	-5.46846	3.11199	23.6072	4.61661	78.8758	16.3269	-0.319622
0.6587	10.5398	2.38667	104.336	-3.346	0.984807	19.6245	-0.578886	53.5335	7.16229	-0.319622
0.6593	11.1504	-22.0104	63.7459	0.0249701	1.28025	24.8247	-3.63251	29.4243	-3.19607	0.319622
0.6600	18.4778	15.5134	2.40929	4.89415	4.03771	37.3299	-0.274971	29.1266	3.19607	0.319622
0.6607	17.2565	54.5951	-22.3194	2.47204	2.81655	38.8569	0.0289443	26.4053	7.47034	-0.319622
0.6613	9.31852	17.668	-14.9912	-1.19857	0.984807	38.5474	-0.578886	-47.4531	5.04441	0
0.6620	5.04422	-33.9106	-16.497	-1.49821	0.984807	37.0204	-1.49063	-142.359	1.6558	0
0.6627	6.26545	-57.4127	-41.2257	0.324612	-0.236354	16.5704	-4.24034	-147.249	-1.6943	-0.319622
0.6633	10.5398	-50.3853	-61.0689	0.923895	-2.38323	-6.31451	-6.36774	-70.967	-3.19607	0
0.6640	13.2743	-20.1873	-56.7857	3.37097	0.0590884	-22.7818	-4.54425	4.71979	0.770138	0.319622
0.6647	12.6636	-21.1154	-52.2348	8.8644	4.33315	-44.7587	-1.49063	16.9232	4.42829	0
0.6653	10.2477	-51.9432	-17.7351	9.16404	1.28025	-56.975	-4.84817	-12.0759	-0.770138	-0.319622
0.6660	9.92914	-29.6345	48.1859	6.74194	-2.06809	-49.3398	-7.59787	-9.90731	-3.50413	0
0.6667	13.8849	17.9663	64.0471	6.11768	-0.236354	-34.379	-4.24034	20.58	1.6558	0.319622
0.6673	15.1061	34.441	32.0235	1.84779	-0.236354	-23.7104	-4.24034	30.0621	2.88802	0
0.6680	14.2034	20.0878	8.49945	-2.4221	-2.38323	-17.9117	-6.68613	33.7189	0.770138	0.319622
0.6687	17.8671	-18.0658	2.71046	0.624254	-0.846934	-11.4941	-4.54425	48.346	2.27191	0.319622
0.6693	18.7698	-22.0104	6.99365	3.07133	-0.236354	-10.5861	-4.24034	50.5145	2.27191	0
0.6700	11.1504	15.5134	47.5836	-0.274672	-2.06809	-16.0752	-5.456	35.2496	0.462083	-0.319622
0.6707	5.65483	36.894	47.5836	-0.898925	-1.16207	-16.9831	-1.18672	36.7804	2.88802	0
0.6713	5.3628	40.5403	-29.9489	3.67061	0.669669	-14.2386	2.17082	41.6702	4.12024	0
0.6720	1.08849	52.7388	-49.4575	6.11768	-2.06809	-14.5481	-1.18672	-6.88835	-1.6943	0
0.6727	-1.96459	67.3903	-27.2049	7.96547	-1.77265	-12.7116	-2.70629	-40.7348	-4.12024	0.319622
0.6733	3.21237	65.8655	-41.2257	12.535	2.81655	-8.74952	0.651246	9.01438	-1.07819	0.319622
0.6740	7.48668	39.9436	-45.2077	14.9821	3.11199	-5.69544	1.56299	120.376	-0.154028	0.319622
0.6747	10.5398	-33.0156	-47.3493	11.9108	0.669669	1.63022	-1.49063	215.622	-0.462083	0.319622
0.6753	12.9822	-94.6381	-49.1563	1.24851	-1.16207	8.64634	-4.24034	167.999	-0.154028	0
0.6760	8.09729	-64.4401	-0.936948	-10.038	-0.551492	7.1193	-4.84817	57.8281	-1.07819	0
0.6767	4.14157	-18.0658	53.3726	-9.43871	0.0590884	1.32068	-6.06383	-21.8131	-2.00236	0.319622
0.6773	8.70791	1.16019	49.0894	2.14743	3.11199	3.15725	-4.24034	-118.25	0.462083	0.319622
0.6780	13.8849	20.7176	-8.86754	11.0118	4.94373	5.9018	-1.79455	-137.172	2.57996	0
0.6787	13.2743	28.6401	-57.4215	11.3115	1.59539	0.701612	-5.15208	-52.0453	-1.38625	0
0.6793	9.92914	29.8665	-40.6234	18.0284	1.59539	-1.42386	-6.36774	-1.99847	-3.19607	-0.319622
0.6800	13.2743	18.8613	-10.4068	29.3149	4.64829	1.32068	-2.09846	18.454	0.462083	0
0.6807	25.1945	-4.01093	-18.9397	21.0748	3.11199	-1.73339	0.955161	58.721	1.6558	-0.319622
0.6813	36.1856	-0.961298	6.0567	5.5184	1.89083	-2.9509	0.651246	28.829	1.07819	-0.639243
0.6820	42.8758	10.3422	43.3004	4.89415	4.03771	1.93975	-1.18672	-30.3597	2.57996	-0.319622
0.6827	46.2475	-30.2643	-19.5755	6.74194	3.72257	2.53819	-5.456	-18.454	1.34774	0.319622
0.6833	43.805	-66.2633	-71.1411	2.77169	1.89083	1.93975	-9.42136	-45.327	-2.61847	0.319622
0.6840	31.3007	-27.2147	-40.3222	3.67061	4.33315	7.73837	-9.11745	-107.875	-1.38625	-0.319622
0.6847	8.41587	-8.88372	-48.2528	4.89415	5.86945	8.3368	-4.24034	-105.451	0.462083	-0.319622
0.6853	-14.4955	-61.0922	-70.2376	1.84779	2.81655	1.01115	1.25908	-93.2478	-1.07819	0
0.6860	-21.5043	-80.6164	-32.9939	2.77169	3.42713	-0.206357	7.67023	-106.047	0.154028	0.319622
0.6867	-14.7875	-33.314	10.641	5.5184	5.25887	1.32068	8.58198	-114.891	1.6558	0
0.6873	-6.84951	22.5408	18.8728	3.07133	3.42713	0.701612	5.22444	-84.9988	0.462083	-0.319622
0.6880	-0.132743	37.4906	22.5537	1.24851	2.81655	1.32068	4.92053	-23.0462	-0.462083	-0.639243
0.6887	3.82298	3.61315	29.2796	2.77169	3.42713	-2.04293	4.00878	57.8281	-0.462083	0
0.6893	-1.06194	-5.53575	-35.4367	1.84779	2.20597	-8.43998	1.86691	142.657	-1.38625	0.319622
0.6900	-9.29198	32.9162	-128.195	0.923895	1.59539	-8.43998	2.77865	130.751	-0.462083	0
0.6907	-9.90259	43.5899	-102.562	4.89415	3.42713	-1.11433	4.92053	36.1426	2.27191	0
0.6913	-1.06194	46.6395	-67.7949	6.11768	1.89083	1.01115	2.47474	1.06302	1.34774	0.319622
0.6920	11.761	58.2414	-68.096	3.07133	-2.67868	-2.64136	-2.70629	30.0621	-2.61847	0
0.6927	16.6459	22.5408	72.9146	2.47204	-2.99381	-1.42386	-3.32859	103.283	-2.61847	0
0.6933	8.09729	-14.6847	191.606	2.77169	-1.16207	1.01115	-3.63251	207.076	-1.6943	0
0.6940	-5.62828	-7.98872	117.453	3.37097	0.374227	1.32068	-4.84817	238.201	-2.00236	0
0.6947	-10.5132	-13.4582	39.653	5.81804	3.11199	4.06522	-2.09846	129.56	-0.154028	0.319622
0.6953	-5.62828	-37.8884	13.6861	5.5184	3.11199	4.99383	-0.274971	-129.858	0.770138	0
0.6960	-1.06194	-16.8393	6.39132	2.14743	0.374227	1.93975	-2.70629	-383.749	-1.6943	-0.319622
0.6967	8.09729	41.4684	42.0957	2.14743	0.669669	1.32068	-2.40237	-438.686	-1.38625	-0.319622
0.6973	20.3096	53.3686	15.5266	2.77169	2.20597	3.15725	0.332859	-323.029	1.07819	0
0.6980	21.2123	15.5134	-58.6262	0.324612	0.984807	1.63022	-1.49063	-183.562	-0.154028	0.319622
0.6987	15.7167	2.08834	-67.4937	2.14743	0.0590884	0.701612	-3.63251	-112.169	-1.07819	0
0.6993	14.4955	32.9162	-91.5866	7.34122	1.89083	2.22865	-2.40237	-91.1218	0.462083	0
0.7000	11.761	57.6447	-134.017	7.96547	2.50141	0.701612	-2.40237	-100.859	0.462083	0
0.7007	8.09729	41.1369	-75.7254	6.41733	2.50141	-1.11433	-2.70629	-117.952	-0.462083	0
0.7013	7.80526	0.56352	16.1289	6.74194	3.11199	-0.515891	-0.8828	-143.592	0.770138	0
0.7020	8.09729	-49.1919	24.6953	5.5184	1.89083	-0.206357	-0.8828	-195.765	1.07819	0.319622
0.7027	15.1061	-63.2136	1.50581	5.5184	0.669669	1.63022	-1.79455	-97.4999	0.154028	0
0.7033	26.7078	-12.8615	40.2553	4.89415	2.50141	4.99383	0.0289443	154.86	0.154028	0
0.7040	26.7078	28.9384	93.3601	-2.4221	3.72257	4.68429	1.25908	303.81	0.770138	0
0.7047	10.5398	22.2424	48.487	-9.13907	1.89083	1.93975	-0.578886	259.844	-0.770138	0
0.7053	-2.28317	9.11576	-14.3888	-7.31625	-0.551492	1.01115	-3.01021	116.719	-3.19607	0
0.7060	0.159291	33.5128	38.1137	-2.4221	-1.16207	1.63022	-3.01021	29.7645	-4.42829	0
0.7067	5.3628	58.2414	126.321	-0.274672	0.0590884	2.22865	-1.49063	44.0939	-2.61847	0
0.7073	5.04422	28.9384	135.155	0.923895	1.89083	3.46679	0.0289443	108.81	-0.462083	0.319622
0.7080	1.6991	2.38667	76.562	1.54815	1.89083	2.53819	-0.274971	98.3928	-0.154028	0
0.7087	-1.06194	-4.01093	22.5537	0.0249701	0.0590884	0.103178	-1.49063	-58.7635	-0.462083	0
0.7093	-2.5752	-27.8113	-7.06057	-1.49821	-1.16207	-0.515891	-2.70629	-135.641	-1.38625	0
0.7100	0.769907	-41.8662	-49.1563	-1.19857	-1.45751	1.32068	-1.49063	-37.7158	-2.31041	-0.319622
0.7107	7.80526	-56.1862	-47.9516	-1.82282	-2.67868	3.15725	0.651246	48.0483	-2.31041	-0.639243
0.7113	12.053	-112.041	56.1165	-1.19857	-2.38323	2.84772	0.0289443	55.7021	-1.6943	0
0.7120	8.09729	-154.172	152.856	0.624254	0.0590884	0.701612	-1.18672	31.5928	-0.770138	0
0.7127	-2.28317	-58.3409	127.525	1.54815	2.20597	1.93975	-1.18672	-6.25054	0.462083	0
0.7133	-17.5486	87.8428	56.1165	0.324612	1.59539	3.75569	-2.09846	-34.6543	0.154028	0.319622
0.7140	-27.6104	69.2135	69.8361	-0.898925	0.374227	2.53819	-3.32859	-29.1692	-1.38625	0
0.7147	-22.7255	8.81742	128.429	0.324612	1.89083	0.103178	-2.40237	-23.9817	-0.462083	0
0.7153	-11.7344	50.6173	149.811	1.24851	2.50141	-0.80479	-2.09846	-24.8746	0.154028	0
0.7160	1.99114	50.6173	117.754	0.324612	1.59539	-1.11433	-3.01021	0.127562	-0.462083	0
0.7167	13.2743	-20.1873	46.9478	0.624254	1.28025	-0.80479	-2.70629	-68.8409	-0.154028	0
0.7173	8.70791	-45.8108	63.1436	2.47204	1.89083	1.01115	-0.578886	-287.652	0.770138	0
0.7180	-1.67256	-12.5632	93.6613	0.923895	-0.846934	0.412713	-1.18672	-391.998	-1.38625	0
0.7187	2.92034	30.4632	-30.5512	-1.82282	-2.99381	-2.04293	-2.40237	-237.605	-4.42829	0
0.7193	13.5928	24.0656	-148.975	0.324612	-0.846934	0.412713	0.332859	39.7993	-2.31041	0.319622
0.7200	11.1504	-49.7886	-122.707	2.14743	0.0590884	2.22865	2.77865	287.014	-0.462083	0.319622
0.7207	-2.28317	-122.416	-91.2855	0.624254	-1.16207	0.701612	1.25908	359.044	-1.6943	0.319622
0.7213	-9.90259	-187.718	-125.752	1.84779	-0.551492	2.22865	1.56299	283.655	-0.462083	0
0.7220	-1.06194	-273.473	-121.502	2.47204	-1.77265	2.84772	1.86691	197.296	0.154028	0.319622
0.7227	17.5486	-361.083	-109.288	-0.599283	-5.43614	-0.206357	-1.49063	131.389	-3.81218	0.319622
0.7233	31.9113	-414.485	-123.644	-0.274672	-5.121	1.01115	-1.49063	128.923	-3.50413	0
0.7240	37.4068	-293.627	-55.5811	1.84779	-3.28926	3.46679	0.955161	165.873	-0.462083	0
0.7247	34.3538	-61.6888	-3.07854	0.324612	-4.21497	1.01115	0.0289443	148.78	-2.31041	0.319622
0.7253	19.991	-94.3398	-81.5145	0.923895	-2.99381	0.701612	0.0289443	43.4986	-2.00236	0
0.7260	-7.77871	-193.221	-79.3728	3.37097	-0.551492	2.53819	2.17082	-80.4066	0.770138	0
0.7267	-40.1148	15.5134	48.487	2.47204	-1.45751	-0.515891	0.0289443	-69.7339	-1.38625	0.319622
0.7273	-55.9908	180.625	114.709	3.07133	-1.45751	-0.80479	-0.578886	45.6247	-2.00236	0.319622
0.7280	-50.4953	132.394	145.528	6.41733	0.984807	2.53819	2.47474	114.891	1.34774	0
0.7287	-38.6015	124.77	156.537	5.21876	0.0590884	0.103178	0.332859	63.0156	1.07819	0
0.7293	-27.2919	165.973	124.179	1.84779	-2.06809	-2.9509	-3.63251	-45.6247	-2.00236	0.319622
0.7300	-14.7875	152.25	116.55	2.47204	-1.77265	-0.206357	-1.79455	-87.7626	-1.6943	0.319622
0.7307	-8.68136	130.869	69.5349	3.99522	-2.38323	1.01115	0.0289443	-85.8917	-1.6943	0.319622
0.7313	-6.2389	128.416	-39.7199	3.37097	-3.28926	-1.11433	-1.18672	-51.7476	-3.50413	0.319622
0.7320	-0.132743	101.268	-108.686	3.99522	-1.77265	0.412713	-0.578886	11.4381	-2.00236	0
0.7327	4.75218	90.8924	-158.11	3.07133	-1.77265	0.412713	0.0289443	-5.95289	-1.07819	0.319622
0.7333	5.3628	149.2	-201.444	-1.49821	-4.21497	-1.73339	-2.40237	-111.532	-3.19607	0.319622
0.7340	3.53095	170.548	-134.318	-2.4221	-4.21497	0.103178	-2.40237	-161.578	-1.6943	0.319622
0.7347	4.14157	98.2181	-65.6533	-1.49821	-2.67868	1.93975	0.332859	-105.154	2.27191	0.319622
0.7353	9.92914	18.8613	-83.3549	-5.46846	-3.89984	-0.515891	-0.578886	-34.3567	1.6558	0.319622
0.7360	15.1061	-66.8931	-47.3493	-4.86918	-3.89984	-0.515891	-1.49063	49.8767	1.34774	0
0.7367	12.3716	-108.991	-47.6505	-0.599283	-1.45751	0.701612	0.0289443	138.702	3.19607	0.319622
0.7373	9.63711	-29.3362	-105.641	-1.49821	-2.67868	-2.04293	-1.49063	163.109	0.770138	0.319622
0.7380	10.8318	28.3417	-105.306	-2.4221	-4.51042	-2.64136	-3.01021	178.969	-2.00236	0.319622
0.7387	9.02649	-3.08278	-96.4721	-0.274672	-3.89984	-0.206357	-1.18672	268.39	-0.462083	0.319622
0.7393	2.60175	-45.5125	-54.6441	0.324612	-4.82555	0.701612	-0.578886	395.952	-0.154028	0
0.7400	-5.62828	-72.3625	-12.2472	-0.274672	-5.43614	1.93975	-0.578886	422.528	-0.462083	-0.639243
0.7407	-13.5663	-64.1418	-42.4638	0.0249701	-3.60439	2.22865	-0.578886	265.031	0.770138	0
0.7413	-15.7167	14.2869	-56.7857	-2.72175	-3.89984	-1.11433	-2.40237	-1.70083	0.770138	0
0.7420	-10.5132	75.6442	27.138	-6.692	-6.04672	-2.04293	-4.24034	-222.638	-1.07819	-0.319622
0.7427	-5.94686	45.7445	111.062	-4.86918	-4.51042	0.412713	-2.70629	-324.263	-1.38625	-0.319622
0.7433	-6.84951	64.9705	50.6286	-1.49821	-1.45751	0.412713	-0.578886	-304.405	0.462083	0.319622
0.7440	-5.33625	103.422	-33.5963	-0.274672	-0.551492	-0.206357	-0.578886	-183.859	1.96385	0.319622
0.7447	5.3628	21.3143	9.73756	-1.49821	-2.06809	-0.515891	-1.18672	-82.2349	1.07819	0
0.7453	0.769907	-33.9106	119.294	-4.24492	-4.82555	-2.04293	-2.70629	-118.888	-1.07819	0
0.7460	-27.2919	75.9426	189.163	-4.86918	-6.04672	-2.33183	-3.63251	-154.265	-1.6943	0.319622
0.7467	-44.7077	181.221	192.543	-3.64564	-5.43614	-1.73339	-3.01021	-124.671	-1.38625	0
0.7473	-37.6723	140.946	181.835	-0.599283	-4.82555	0.412713	-0.8828	-180.84	-0.462083	0
0.7480	-29.7343	78.9922	146.465	1.54815	-3.89984	1.93975	0.0289443	-226.89	0.770138	0
0.7487	-32.4954	78.6939	57.02	0.0249701	-3.28926	0.103178	-1.18672	-202.781	1.07819	0
0.7493	-29.4423	95.1685	-39.7199	-1.19857	-3.28926	-0.206357	-2.09846	-187.218	1.6558	0
0.7500	-15.3981	96.6933	-116.617	-1.19857	-4.21497	0.701612	-2.40237	-149.375	1.34774	0
0.7507	-0.743358	76.5392	-156.905	-2.72175	-6.04672	-1.42386	-3.93642	-71.5623	-1.6943	0
0.7513	13.5928	61.8877	-127.592	-2.4221	-5.73158	-0.80479	-3.32859	13.8617	-2.00236	0.319622
0.7520	24.2653	60.0646	-82.4179	0.624254	-2.38323	1.01115	-0.8828	7.18599	0.462083	0.319622
0.7527	22.1414	41.1369	-105.306	0.624254	-2.38323	-0.515891	-2.40237	14.7972	-0.154028	0
0.7533	20.9202	36.2641	-149.878	-0.599283	-3.28926	-0.80479	-3.32859	170.125	-1.07819	-0.319622
0.7540	28.5396	44.518	-209.676	0.0249701	-2.38323	1.32068	-1.18672	196.36	0.154028	0
0.7547	23.0441	14.9167	-266.762	-0.599283	-3.28926	-0.206357	-1.49063	61.7825	-0.462083	0.319622
0.7553	10.8318	60.9927	-197.161	-1.19857	-4.51042	-2.33183	-2.40237	34.6118	-2.31041	0
0.7560	8.41587	163.52	-121.201	1.24851	-2.06809	0.412713	0.0289443	60.5919	0.462083	0
0.7567	-0.743358	83.2683	-162.694	1.24851	-2.38323	0.103178	-0.274971	68.2031	1.07819	0
0.7573	-17.8406	-75.7437	-146.833	-0.898925	-5.121	-2.33183	-3.93642	48.6862	-2.00236	0
0.7580	-21.7963	-101.367	-22.9218	0.624254	-4.82555	0.103178	-2.70629	-84.0633	-1.38625	0
0.7587	-19.3804	-71.4675	82.0498	0.923895	-5.121	0.103178	-1.79455	-211.625	-1.38625	0
0.7593	-23.6282	-40.6397	85.4296	-1.82282	-7.56332	-2.64136	-3.93642	-120.716	-3.50413	0.319622
0.7600	-30.0529	-5.53575	0.267699	0.624254	-5.43614	1.01115	-1.49063	75.219	-1.07819	0
0.7607	-34.3272	-39.4132	-34.1986	2.47204	-3.28926	2.84772	1.56299	140.233	1.07819	0
0.7613	-31.5662	-112.041	9.73756	-0.274672	-4.51042	0.103178	0.0289443	69.4362	-1.6943	0
0.7620	-22.4069	-125.168	39.0172	-2.4221	-5.121	-0.80479	-1.79455	-27.0006	-2.88802	-0.319622
0.7627	-14.4955	-109.621	77.4655	-3.346	-5.121	-1.73339	-2.70629	-30.6574	-2.61847	0
0.7633	-5.62828	-119.997	218.476	-3.94528	-4.51042	-2.9509	-4.24034	70.0315	-2.88802	0
0.7640	1.38052	-108.991	388.766	-0.599283	-0.551492	0.412713	-2.09846	179.905	0.154028	0
0.7647	-8.99994	-39.7116	346.035	0.624254	1.59539	3.15725	0.651246	206.735	3.50413	0.319622
0.7653	-24.2388	84.1965	100.688	-3.346	-1.45751	-0.80479	-2.09846	162.812	0.462083	0
0.7660	-18.4512	122.947	-94.3306	-4.24492	-1.45751	-2.33183	-3.93642	96.2668	-1.07819	0
0.7667	-6.84951	-71.7659	-167.279	-3.02139	-0.236354	-0.515891	-1.79455	11.4381	0.462083	0
0.7673	-14.4955	-251.827	-168.483	-4.86918	-1.77265	-2.9509	-2.70629	-30.6574	-0.770138	0.319622
0.7680	-24.2388	-194.746	-84.2584	-2.72175	-0.236354	-1.73339	-2.40237	-23.9817	-0.154028	0
0.7687	-18.1592	-63.2136	32.6259	1.54815	3.11199	2.84772	1.86691	3.82686	3.19607	0
0.7693	-8.99994	13.6902	38.1137	-1.49821	0.374227	-0.515891	0.332859	26.703	1.07819	0
0.7700	-0.743358	-1.25963	-88.8427	-4.56954	-2.06809	-2.64136	-3.01021	-38.6088	-1.07819	0
0.7707	5.65483	-35.4354	-152.321	-2.4221	-0.236354	0.412713	-1.18672	-160.686	1.34774	0
0.7713	6.26545	45.1147	-95.8698	-3.94528	-1.45751	-0.80479	-2.70629	-206.14	0.462083	-0.319622
0.7720	8.70791	183.973	-105.641	-4.86918	-1.77265	-1.11433	-5.15208	-99.3283	-0.462083	-0.319622
0.7727	13.2743	213.276	-73.885	0.0249701	2.81655	2.22865	-1.18672	164.045	3.19607	0
0.7733	12.9822	89.6659	116.851	-0.274672	3.11199	0.412713	-0.8828	446.637	2.88802	0.319622
0.7740	10.5398	9.41409	247.153	-3.64564	0.0590884	-2.04293	-3.32859	417.34	-0.770138	0
0.7747	6.87606	48.7942	191.606	-1.49821	0.0590884	1.01115	-1.49063	70.967	-0.154028	0
0.7753	-1.35397	68.3185	71.6765	-2.12246	-1.16207	0.412713	-1.49063	-182.031	-0.770138	0
0.7760	-8.99994	20.7176	28.0415	-4.24492	-2.38323	-1.42386	-2.70629	-232.418	-2.61847	-0.319622
0.7767	-15.1061	-36.0653	26.2011	0.0249701	1.28025	2.22865	2.17082	-211.625	0.154028	0
0.7773	-26.3892	-52.5399	-0.334624	0.624254	1.89083	3.75569	4.61661	-153.032	1.34774	0.319622
0.7780	-31.5662	-36.3636	-33.5963	-2.72175	-1.45751	1.01115	2.17082	-68.5008	-1.38625	0
0.7787	-19.0618	-29.3362	-43.0661	-3.02139	-2.38323	0.701612	2.47474	47.1554	-2.61847	0
0.7793	4.14157	-22.9386	-56.1834	-3.64564	-2.99381	-0.206357	4.00878	124.033	-3.19607	0
0.7800	27.929	16.7398	-97.3756	-4.86918	-2.99381	-2.04293	4.3127	170.72	-3.19607	0
0.7807	35.867	68.9151	-70.2376	-1.19857	2.20597	1.63022	6.13619	359.64	1.96385	0.319622
0.7813	19.3804	27.1152	85.7307	0.624254	5.86945	2.53819	6.13619	588.826	5.35246	0
0.7820	7.19464	-192.923	191.003	-4.56954	4.33315	-3.26043	-1.49063	504.295	1.6558	0
0.7827	13.8849	-299.428	151.016	-5.46846	4.03771	-3.85887	-5.456	103.92	0.770138	0
0.7833	17.2565	-196.271	169.956	-2.72175	4.33315	-1.42386	-4.24034	-186.921	2.27191	-0.319622
0.7840	11.4424	-182.846	180.028	-3.94528	1.28025	-2.04293	-5.456	14.7972	-0.462083	-0.319622
0.7847	7.48668	-59.8657	32.3247	-0.898925	1.28025	1.01115	-3.01021	312.952	-0.154028	0
0.7853	-0.451325	115.919	-119.662	2.47204	2.50141	3.15725	1.25908	-1.36066	1.6558	0
0.7860	-11.7344	0.265186	-173.068	-1.19857	-0.551492	-0.515891	0.332859	-517.136	-1.6943	0
0.7867	-8.38933	-120.593	-107.448	-1.49821	-2.06809	-1.11433	0.651246	-705.715	-3.81218	0
0.7873	0.477873	-163.321	18.5716	1.84779	-1.16207	1.93975	4.61661	-578.153	-2.00236	0
0.7880	-10.5132	-132.195	118.691	0.0249701	-2.67868	0.103178	4.92053	-164.045	-3.50413	0.319622
0.7887	-31.5662	108.295	120.498	-1.19857	-2.06809	0.103178	4.61661	167.064	-3.81218	0.319622
0.7893	-36.1591	249.573	-50.6956	2.47204	1.59539	3.75569	7.67023	199.422	-0.462083	0
0.7900	-23.0175	187.022	-299.723	2.14743	1.59539	1.63022	5.52836	105.749	-0.770138	0
0.7907	-0.132743	131.797	-395.86	-1.49821	1.28025	-1.73339	0.651246	165.533	-2.00236	0
0.7913	23.6547	136.073	-250.265	-0.898925	4.64829	-0.206357	0.0289443	444.809	1.07819	0
0.7920	19.3804	147.045	27.4392	-1.82282	4.64829	-2.64136	-2.09846	530.828	1.07819	0
0.7927	-12.9557	136.67	302.4	-3.02139	3.72257	-4.78747	-3.93642	315.078	0.154028	0
0.7933	-32.1768	120.792	405.23	0.624254	4.94373	0.701612	0.651246	66.3747	2.88802	0.319622
0.7940	-26.6812	54.5951	332.014	1.84779	3.42713	1.32068	2.47474	-83.468	1.07819	0
0.7947	-21.7963	37.1923	286.238	-0.898925	0.669669	-1.73339	0.332859	-38.3111	-2.31041	0
0.7953	-26.9998	123.543	326.794	-0.274672	1.28025	-0.206357	2.47474	-62.4203	-1.38625	0
0.7960	-25.46	148.272	320.704	-0.898925	-0.236354	-1.11433	4.3127	-336.764	-2.88802	0
0.7967	-12.6636	59.7662	215.13	-1.19857	-2.38323	-2.04293	4.92053	-452.42	-4.73635	0.319622
0.7973	0.159291	-23.5352	92.122	2.14743	0.374227	2.84772	8.58198	-280.594	-2.00236	0
0.7980	-4.72563	-27.513	64.984	3.07133	2.20597	4.37476	10.7094	-214.984	-1.07819	-0.319622
0.7987	-30.3449	-0.0331482	99.7515	-0.274672	-0.236354	0.103178	8.58198	-308.7	-3.81218	0
0.7993	-50.4953	-1.55797	-28.1084	-1.19857	-1.16207	1.63022	7.04793	-216.813	-3.81218	-0.319622
0.8000	-53.5483	-44.6175	-237.75	-0.898925	0.669669	4.06522	6.4401	-29.1692	-2.88802	-0.319622
0.8007	-50.8138	-14.6847	-324.753	-2.4221	-1.16207	0.412713	4.61661	-21.8131	-4.12024	0
0.8013	-38.8936	122.648	-339.075	0.324612	2.20597	2.84772	6.4401	-14.2019	-1.07819	0
0.8020	-23.0175	87.8428	-320.771	1.84779	15.9342	4.06522	7.04793	156.093	1.6558	-0.319622
0.8027	-15.7167	-92.5167	-287.208	-2.72175	26.6095	-2.04293	1.56299	292.797	-1.38625	0
0.8033	-3.18582	-180.094	-253.009	-3.346	34.547	-2.04293	-0.578886	228.719	-1.38625	0.319622
0.8040	12.9822	-325.681	-148.038	-1.49821	37.8954	0.701612	0.332859	68.7984	0.770138	0.319622
0.8047	21.8229	-486.483	35.0686	-3.346	29.6624	-2.33183	-2.40237	56.8926	-1.38625	0.319622
0.8053	28.8582	-370.829	146.766	-2.72175	22.946	-2.04293	-3.93642	258.951	-1.07819	0
0.8060	17.2565	-120.892	140.944	0.923895	20.2082	2.22865	-2.40237	406.965	1.96385	0
0.8067	-19.3804	-25.3915	93.9625	-1.19857	11.9556	0.103178	-4.54425	294.03	0.154028	0
0.8073	-39.5042	-5.83408	21.0144	-2.72175	6.16489	-0.515891	-6.99004	63.0156	-0.770138	0
0.8080	-35.8405	152.846	-46.1112	-0.898925	3.11199	2.84772	-5.15208	-125.266	1.96385	0.319622
0.8087	-36.1591	408.585	-68.096	-3.64564	-6.95274	-1.11433	-4.24034	-213.794	0.154028	0.319622
0.8093	-30.9556	414.386	-112.936	-3.64564	-16.1114	-2.64136	-2.40237	-177.141	-1.38625	0
0.8100	-19.0618	130.869	-247.521	0.923895	-17.0175	1.93975	3.6904	-46.5601	3.19607	0
0.8107	-3.18582	-29.0378	-385.788	0.624254	-15.7963	0.103178	5.83227	78.8758	3.81218	0
0.8113	26.7078	23.7673	-458.402	-2.12246	-16.722	-2.33183	4.3127	-13.6066	1.07819	0
0.8120	50.5218	-31.1593	-333.888	-2.4221	-19.4598	-2.04293	4.3127	-326.091	0.462083	0.319622
0.8127	48.69	-178.569	11.2434	-3.346	-22.8278	-3.26043	2.17082	-578.153	-2.00236	0.319622
0.8133	32.8139	-165.144	262.111	-3.02139	-25.2702	-1.11433	0.955161	-547.624	-3.81218	0.319622
0.8140	13.5928	-191.994	198.332	1.54815	-21.6067	5.59226	5.83227	-179.607	-0.154028	0.319622
0.8147	-1.06194	-386.11	3.01162	1.54815	-14.8903	5.59226	5.22444	230.845	-0.154028	0
0.8153	2.30972	-359.857	-41.828	-2.4221	-10.6162	1.01115	-0.8828	320.563	-4.12024	-0.319622
0.8160	14.2034	-90.0637	34.7675	-1.82282	-6.04672	2.22865	-1.49063	201.548	-4.12024	-0.319622
0.8167	8.09729	-27.513	143.085	-0.599283	-3.28926	2.84772	-1.49063	47.7507	-3.19607	0
0.8173	-3.79644	-120.892	216.937	-2.12246	-0.551492	0.701612	-4.54425	-202.781	-3.19607	0.319622
0.8180	7.48668	-24.165	189.163	0.923895	6.77547	3.46679	-2.70629	-364.232	2.27191	0
0.8187	20.3096	163.52	181.534	2.14743	7.70119	3.75569	-3.01021	-351.093	3.81218	0
0.8193	19.699	274.931	233.735	-2.4221	0.984807	-1.73339	-10.3476	-367.591	-2.00236	0
0.8200	33.1325	264.224	243.205	-1.19857	1.28025	-1.11433	-11.8672	-248.576	-1.6943	0
0.8207	44.7077	187.022	186.72	0.0249701	4.94373	-0.515891	-7.90179	103.283	1.07819	0.319622
0.8213	34.9644	200.746	124.48	-3.64564	3.11199	-3.85887	-7.90179	337.997	-1.6943	0
0.8220	27.0264	205.652	95.1671	-0.898925	3.42713	1.32068	-5.75991	339.187	-1.38625	-0.319622
0.8227	15.1061	95.1685	56.4176	2.77169	4.33315	7.42883	-2.70629	287.907	1.34774	-0.319622
0.8233	1.08849	-26.9163	-11.0091	0.0249701	0.984807	5.9018	-4.24034	223.233	-0.154028	-0.319622
0.8240	-4.40705	-18.0658	-13.1507	-1.19857	1.59539	3.75569	-3.93642	79.8113	-0.154028	-0.319622
0.8247	-19.6724	80.2187	151.652	-0.898925	7.70119	1.32068	-3.32859	-146.654	1.6558	0
0.8253	-39.2121	42.9932	285.903	-2.12246	9.53293	-3.85887	-6.06383	-239.094	-0.154028	0.319622
0.8260	-34.0086	-45.5125	178.187	0.0249701	10.7541	-2.33183	-3.93642	48.0483	-0.770138	0.319622
0.8267	-12.053	2.08834	-9.80449	3.99522	13.4919	2.84772	1.86691	290.374	1.96385	0
0.8273	-0.743358	121.422	-107.147	1.54815	10.7541	0.701612	1.86691	-56.9352	-0.462083	0
0.8280	2.92034	210.226	-61.6712	-0.898925	8.60721	-0.80479	4.92053	-513.479	-2.31041	0
0.8287	10.5398	142.471	59.7973	-1.49821	7.99663	-0.206357	9.49372	-563.229	-0.154028	0
0.8293	23.3627	-0.961298	195.287	-3.94528	5.25887	-4.78747	7.67023	-308.998	-0.154028	0
0.8300	30.9821	106.77	241.364	-2.72175	7.70119	-6.31451	4.00878	105.451	1.6558	-0.319622
0.8307	30.6901	273.406	32.927	0.324612	13.4919	-1.73339	-2.70629	295.561	4.73635	0
0.8313	35.867	144.924	-255.787	-0.898925	15.0085	-1.42386	-12.1711	131.984	2.88802	0
0.8320	45.0263	-48.2638	-297.28	-3.94528	13.4919	-5.09701	-14.9208	42.2655	-0.462083	-0.319622
0.8327	51.1324	-121.82	-95.5687	-3.94528	12.8813	-4.1684	-14.9208	30.3597	-0.154028	-0.319622
0.8333	54.1855	-150.493	78.7036	-2.4221	11.9556	-2.33183	-21.028	-131.984	-0.770138	0
0.8340	46.2475	-114.196	76.8632	-1.49821	11.345	1.01115	-25.6012	-214.389	-1.07819	0
0.8347	30.9821	-11.0384	-82.4179	0.624254	13.4919	8.3368	-22.2437	-323.327	1.6558	-0.319622
0.8353	12.053	77.7657	-252.407	-0.599283	10.7541	9.26541	-20.1018	-554.682	1.96385	-0.639243
0.8360	-12.053	82.6716	-303.671	-4.24492	5.55431	3.75569	-20.1018	-626.372	0.462083	0
0.8367	-8.07074	-7.3589	-310.397	-3.94528	9.21779	0.701612	-15.5286	-543.371	1.07819	0
0.8373	25.8051	-112.671	-272.853	-3.346	13.7873	-2.64136	-10.9554	-243.686	0.154028	0
0.8380	38.0175	-201.475	-104.704	-3.64564	13.4919	-3.56997	-17.3666	260.141	-2.00236	0
0.8387	23.6547	-273.804	78.7036	-0.599283	12.2707	1.01115	-26.8169	736.245	-0.154028	0
0.8393	4.14157	-179.498	179.727	0.624254	8.31177	2.53819	-21.3319	886.683	0.770138	0
0.8400	-11.1238	114.991	225.503	-3.64564	5.86945	0.701612	-6.06383	670.296	-0.770138	0
0.8407	-20.8937	346.332	134.854	-5.16882	9.21779	4.99383	-2.70629	296.794	0.770138	0
0.8413	-36.4511	266.081	-75.4243	-5.16882	10.439	8.3368	-13.3867	-123.735	1.96385	0.319622
0.8420	-44.9997	-9.51354	-154.463	-6.39236	9.53293	5.9018	-25.9051	-305.043	1.07819	0
0.8427	-31.2741	-235.651	-6.12362	-5.16882	15.0085	6.21133	-48.1777	-106.047	1.96385	-0.319622
0.8433	-19.6724	-347.029	175.745	-6.39236	26.9246	7.1193	-79.0034	169.827	4.73635	0
0.8440	-17.5486	-315.604	188.26	-10.6622	30.8836	4.06522	-107.383	197.593	4.73635	0
0.8447	-8.99994	-266.478	91.5197	-10.9619	36.9894	4.99383	-122.955	81.6397	4.73635	0
0.8453	-11.1238	-298.201	173.603	-10.9619	64.7609	12.9179	-108.917	39.5017	5.04441	0
0.8460	-29.7343	-177.973	441.57	-13.7086	106.576	17.499	-93.0414	73.9859	5.04441	0
0.8467	-36.1591	92.4172	303.303	-14.6325	165.467	8.3368	-104.952	153.967	8.70256	0
0.8473	-33.7166	175.42	-220.383	-16.1557	224.359	-13.3306	-111.653	265.967	12.3607	0
0.8480	-29.1237	93.3454	-362.264	-20.7252	254.888	-34.9981	-81.7531	220.47	13.8625	0
0.8487	-6.2389	130.272	-107.749	-25.6194	268.005	-54.2305	-39.9431	-97.2022	15.7108	0
0.8493	26.4158	279.506	111.363	-26.2186	250.909	-77.1154	-6.99004	-272.685	13.8625	0.319622
0.8500	53.8669	279.804	21.0144	-20.7252	192.333	-87.1856	28.1049	-196.701	9.58822	0
0.8507	65.1766	64.9705	-248.157	-12.1854	135.864	-75.2789	69.9149	-179.012	9.89628	0
0.8513	59.0704	-78.1635	-348.846	-7.91553	100.765	-58.5021	123.635	-84.7011	12.0527	0
0.8520	48.982	-33.0156	-423.634	-14.0082	57.434	-48.7208	167.269	183.859	13.5544	0
0.8527	41.0705	-26.9163	-476.706	-17.9785	-9.09962	-47.8128	189.238	377.328	14.4786	0.319622
0.8533	19.991	-37.2917	-313.442	-4.24492	-74.7075	-46.2858	220.063	292.202	11.7446	0
0.8540	-8.38933	22.2424	-251.805	7.04158	-124.755	-20.3468	236.851	87.4225	9.89628	0
0.8547	-5.94686	-13.7897	-368.689	6.41733	-172.066	37.0204	203.594	127.392	5.04441	0.319622
0.8553	30.6901	-72.3625	-340.915	11.0118	-204.091	95.0065	129.728	400.545	-9.01062	0
0.8560	62.7341	-14.6847	-235.308	13.4589	-202.87	128.581	51.3037	641.637	-16.3269	0
0.8567	69.4509	0.265186	-75.7254	1.24851	-193.121	122.163	6.74402	686.198	-10.8589	0
0.8573	56.0173	-62.617	260.572	-8.51482	-180.594	79.1377	-13.3867	521.686	-6.27663	0
0.8580	10.8318	-134.615	481.223	-5.16882	-149.159	47.4001	-31.4045	330.641	-5.04441	0
0.8587	-42.8758	-122.118	412.257	-2.4221	-106.438	40.0744	-37.1934	221.107	-4.73635	0
0.8593	-52.3271	64.639	288.647	-3.94528	-60.0535	33.9663	-25.9051	-160.09	-6.58468	-0.319622
0.8600	-46.2209	192.226	149.209	-3.64564	-19.4598	25.1342	-4.24034	-639.213	-9.01062	0
0.8607	-45.9289	205.32	-26.9038	-3.346	0.984807	15.3529	18.9585	-568.076	-9.01062	0.319622
0.8613	-26.6812	267.605	-145.595	-5.46846	8.92235	9.26541	29.9429	-293.435	-7.7784	0
0.8620	-17.23	196.171	-295.139	0.324612	4.03771	7.1193	22.9239	-159.155	-9.62673	0
0.8627	-22.1149	-100.771	-479.784	12.535	-16.1114	10.7924	-4.84817	4.42215	-14.8252	0
0.8633	-7.46013	-201.773	-409.881	17.4042	-36.556	16.88	-35.6738	234.501	-20.9093	0
0.8640	11.1504	26.1871	-54.9787	14.3578	-50.5994	15.972	-32.3163	430.139	-20.2931	0
0.8647	12.053	143.996	330.174	8.8644	-65.8639	15.064	-11.2593	250.107	-13.2849	0
0.8653	-3.18582	10.6406	502.907	2.47204	-80.8133	17.499	-20.7241	-280.296	-12.0527	0.639243
0.8660	-22.7255	-204.193	273.087	-0.599283	-87.8251	23.2977	-41.7811	-839.103	-12.9768	0.319622
0.8667	-31.2741	-289.052	48.487	1.24851	-83.551	30.0042	-59.7844	-956.885	-10.5509	-0.319622
0.8673	-29.7343	-152.648	248.09	1.84779	-75.6135	28.4772	-129.974	-554.98	-14.2091	0
0.8680	-30.3449	-49.7886	449.199	0.624254	-74.0969	19.3356	-224.275	-130.794	-18.4833	0.319622
0.8687	-36.7697	15.8117	376.854	1.54815	-70.1183	13.537	-270.962	165.533	-15.0947	0
0.8693	-35.5484	175.122	321.942	1.84779	-58.2218	11.7004	-272.481	217.451	-12.3607	-0.319622
0.8700	-23.0175	290.478	408.61	1.84779	-47.2313	6.50023	-252.047	62.4203	-12.3607	-0.319622
0.8707	-5.62828	276.754	436.049	3.67061	-39.3135	0.103178	-224.275	-190.875	-10.8589	0
0.8713	1.08849	212.049	292.328	3.07133	-34.1137	-5.69544	-187.342	-413.046	-9.31867	-0.319622
0.8720	-29.4423	161.995	175.443	-0.599283	-29.8397	-9.96702	-139.121	-293.137	-9.01062	-0.319622
0.8727	-68.4951	61.291	129.667	-3.02139	-24.049	-13.6402	-70.7688	40.7348	-9.62673	0
0.8733	-67.5925	-23.8667	-28.4096	-0.898925	-16.722	-17.6022	22.62	291.607	-7.47034	0
0.8740	-49.5926	-13.4582	-216.401	0.624254	-11.8374	-21.5643	115.994	302.577	-5.04441	0
0.8747	-38.6015	-40.3414	-238.085	-0.898925	-9.7102	-20.9658	188.022	188.154	-5.66052	0
0.8753	-22.1149	-116.019	-61.3701	-3.346	-6.95274	-20.3468	235.939	83.468	-6.58468	0
0.8760	-2.28317	-183.442	132.712	-5.16882	-2.67868	-23.9993	263.711	-3.52921	-5.66052	0
0.8767	24.2653	-295.45	50.9298	-5.16882	1.59539	-24.9279	269.196	102.687	-4.42829	0.319622
0.8773	47.7608	-456.882	-216.703	-2.72175	4.33315	-19.1292	253.639	183.562	-4.73635	0.319622
0.8780	43.805	-458.738	-350.385	-0.898925	5.86945	-13.3306	224.333	91.0792	-5.66052	0
0.8787	20.9202	-26.9163	-316.488	-1.19857	7.38605	-9.96702	188.934	140.828	-7.16229	0
0.8793	-5.01767	443.357	-85.1618	-1.19857	7.38605	-7.22248	155.677	308.998	-9.01062	-0.319622
0.8800	-35.5484	265.451	224.566	0.923895	7.38605	-5.69544	106.24	361.17	-9.01062	-0.319622
0.8807	-71.5482	-24.165	274.626	3.37097	8.60721	-5.69544	27.801	197.891	-7.47034	0
0.8813	-78.265	79.5889	39.0172	4.59451	9.53293	-4.1684	-25.2973	7.48364	-5.96857	0
0.8820	-49.274	103.091	-244.778	2.77169	7.38605	0.701612	-17.6705	65.7795	-4.42829	0.319622
0.8827	-27.6104	27.7119	-348.846	-0.898925	2.81655	8.3368	0.332859	175.015	-2.88802	0.319622
0.8833	-12.053	-20.4856	-300.928	-2.4221	-1.16207	18.7165	0.332859	52.3429	-1.38625	0
0.8840	8.41587	-77.2685	-224.633	-1.19857	-2.67868	25.7327	1.25908	-95.9691	-2.88802	0
0.8847	24.5839	-96.4944	-87.6046	1.54815	-2.99381	24.2056	6.74402	-132.622	-6.58468	0.319622
0.8853	18.4778	-109.919	-58.9273	3.37097	-1.45751	16.88	10.4055	-212.858	-6.85423	0
0.8860	-12.9557	-67.7881	-184.679	2.14743	-2.38323	8.64634	7.35185	-240.029	-6.58468	0
0.8867	-8.99994	25.5904	-173.971	-0.274672	-7.87846	8.02727	2.17082	-46.5601	-7.16229	0
0.8873	35.2564	1.16019	-67.4937	-1.49821	-7.56332	11.3909	2.17082	190.28	-5.04441	0
0.8880	41.0705	-169.719	24.6953	-1.82282	-0.846934	8.95587	5.52836	343.184	-3.19607	-0.319622
0.8887	12.053	-300.953	194.049	-1.82282	4.64829	4.06522	11.6356	460.669	-2.88802	0
0.8893	-17.8406	-345.802	460.476	-1.19857	7.38605	1.63022	21.3898	406.03	-1.6943	0
0.8900	-53.2297	-374.508	648.167	-0.274672	8.92235	0.103178	29.9429	159.452	0.770138	0
0.8907	-77.6544	-342.454	552.933	0.324612	11.345	-0.80479	30.8546	-49.9193	2.88802	0
0.8913	-90.1587	-288.754	304.24	-0.274672	12.2707	-1.11433	23.5317	-123.437	3.19607	0
0.8920	-95.6543	-58.6392	130.872	-2.12246	9.82837	-2.9509	12.2434	-273.28	0.154028	-0.319622
0.8927	-71.2562	396.983	-15.5935	-1.49821	11.345	-1.42386	6.13619	-599.839	0.462083	-0.319622
0.8933	-28.8317	554.139	-287.208	1.24851	15.0085	1.01115	6.74402	-650.481	3.50413	0
