MR32 ASCII
Name	SORD30_fast
Frequency	1500
Date	04-09-2015 12:52:01
"Time,s"	"RT TIB.ANT.,uV"	"RT MED. GASTRO,uV"	"RT LAT. GASTRO,uV"	"RT BICEPS FEM.,uV"	"RT VMO,uV"	"RT VLO,uV"	"RT RECTUS FEM.,uV"	"RT SOLEUS,uV"	"RT SEMITEND.,uV"	"Channel 12,uV"
0.0000	-59.3401	87.789	259.495	4.85848	16.8481	20.8087	16.8188	-413.288	3.08255	-10169.5
0.0007	-39.2176	186.676	327.231	3.62886	12.8803	14.6966	17.7296	-34.2509	1.85797	-10010.9
0.0013	-35.5537	170.163	174.938	-0.329896	9.82808	8.60436	14.977	251.992	-0.88676	-9576.94
0.0020	-40.1287	107.298	8.92003	-2.48922	11.6594	6.46811	12.8519	264.183	-1.18235	-9911.43
0.0027	-29.1369	353.268	-252.286	-0.659793	14.7116	8.90106	12.8519	30.4105	1.2668	-9808.23
0.0033	-1.06622	530.574	-565.098	2.69915	14.1012	12.2637	13.1555	-156.027	4.01153	-9800.45
0.0040	28.536	362.447	-591.94	2.09934	11.3542	11.6505	8.58144	120.168	3.08255	-9816.62
0.0047	42.5713	137.828	-40.8122	-0.959699	9.52286	9.21755	2.46919	852.878	-0.295587	-9816.62
0.0053	33.7314	114.325	747.164	-1.2596	7.99676	10.7406	-0.586938	1463.23	-3.04032	-9800.77
0.0060	2.28753	99.6939	1000.14	1.19962	6.77588	19.2856	-1.19412	1166.32	-4.26489	-9808.85
0.0067	-39.2176	-119.433	679.714	5.75819	7.38632	29.9669	0.344067	87.7929	-2.11133	-9912.99
0.0073	-64.2253	-278.728	381.24	7.28771	4.94456	34.2394	0.0404785	-785.314	-1.81575	-9578.18
0.0080	-55.6956	-275.08	132.538	3.92877	-1.77027	33.0131	-3.92641	-1025.47	-6.37623	-10012.5
0.0087	-24.8721	-198.159	-288.007	3.02905	-6.04335	34.5361	-4.55383	-759.369	-8.2342	-10186.2
0.0093	-5.33111	-69.394	-640.491	4.52858	-6.04335	41.5581	-2.10488	-365.685	-6.08064	-4917.01
0.0100	-14.7914	-1.03688	-706.067	7.58762	-2.68593	49.1932	-0.890526	-185.008	-3.63149	108.804
0.0107	-29.1369	6.29807	-580.046	7.88753	-0.854615	51.013	-0.586938	33.1791	-1.52016	108.804
0.0113	-24.8721	-82.4894	-392.074	-1.55951	-4.51725	46.1471	-4.55383	292.584	-2.70251	-237.815
0.0120	-11.1275	-253.997	-221.453	-8.87721	-5.43291	43.6943	-7.28613	333.176	-3.33591	96.3694
0.0127	-5.33111	-299.773	-169.888	-6.74788	-1.15984	44.3075	-6.98254	278.83	-1.18235	-6.83912
0.0133	-5.95146	-399.275	-152.496	-2.48922	0.366264	42.7845	-7.28613	262.039	-0.591174	-14.3
0.0140	-12.9691	-643.709	-19.7544	1.49953	0.366264	40.3317	-4.55383	149.15	1.2668	1.55434
0.0147	-25.1628	-604.039	3.13627	0.269915	-1.77027	33.3295	-5.16101	-164.869	-0.295587	-0.621738
0.0153	-25.473	-181.684	-196.729	-3.38894	-5.73813	23.8549	-8.82431	-508.493	-5.15166	-0.621738
0.0160	-20.898	284.911	-328.575	-3.08903	-6.04335	18.6725	-6.98254	-576.861	-4.85607	-0.932607
0.0167	-20.898	420.742	-281.897	-0.659793	-2.99115	15.6263	-3.62282	-329.38	-2.40692	-0.621738
0.0173	-8.39407	194.587	-185.447	1.19962	-1.15984	11.0373	-2.40847	96.6348	-1.18235	-0.310869
0.0180	5.04032	-2.53459	-74.6594	-0.959699	-3.60159	2.1956	-3.92641	462.543	-3.33591	-0.310869
0.0187	10.8367	-132.567	-2.03654	-4.61855	-7.26423	-9.39557	-5.46459	431.105	-6.08064	-0.310869
0.0193	20.6072	-286.37	-115.879	-5.21836	-7.26423	-19.7801	-4.25024	260.833	-5.15166	0
0.0200	21.2081	-229.611	-262.672	-5.21836	-5.43291	-32.8944	-2.71206	266.951	-3.04032	-0.310869
0.0207	8.10329	-216.17	-188.217	-5.51827	-3.29637	-55.78	0.647656	277.937	-0.88676	-0.932607
0.0213	-7.46355	-598.24	31.1997	-5.51827	-2.99115	-84.1645	4.00737	230.334	-0.591174	-0.310869
0.0220	-26.3841	-814.641	233.835	-6.74788	-5.12769	-100.048	2.77278	121.374	-3.63149	-0.310869
0.0227	-32.8009	-258.298	343.401	-5.84817	-5.73813	-100.958	2.77278	-136.2	-5.15166	-0.310869
0.0233	-30.0481	408.223	313.504	-2.15932	-3.90681	-98.8216	4.91813	-438.607	-4.26489	-0.310869
0.0240	-48.6779	389.29	172.82	0.569821	-5.12769	-90.5733	4.91813	-565.251	-4.26489	0
0.0247	-70.3319	218.704	-3.25846	0.269915	-7.56945	-76.5492	4.00737	-483.174	-5.15166	0
0.0253	-69.7309	431.418	-185.773	-0.329896	-6.95901	-69.2107	4.31096	-441.376	-5.15166	-0.310869
0.0260	-56.2965	560.49	-279.453	-0.329896	-6.65379	-65.8679	4.00737	-657.733	-5.15166	-0.310869
0.0267	-39.8185	360.603	-230.943	-1.2596	-8.48511	-61.5954	2.77278	-698.012	-5.44724	-0.310869
0.0273	-26.3841	164.096	-117.386	-2.78912	-9.40077	-59.4591	0.344067	-283.295	-6.37623	-0.310869
0.0280	-17.5442	48.1188	67.5315	-2.15932	-8.79033	-57.3229	-1.19412	163.172	-6.37623	0
0.0287	-9.30521	16.9741	241.492	0.569821	-8.48511	-53.9602	-1.4977	362.782	-5.78506	0
0.0293	-5.02094	46.2755	257.052	2.09934	-7.87467	-50.5976	-2.10488	374.348	-5.44724	-0.310869
0.0300	-8.68486	116.783	134.371	3.62886	-7.26423	-46.3251	-2.40847	286.466	-4.85607	-0.310869
0.0307	-17.5442	286.447	-175.997	2.69915	-7.87467	-44.1888	-4.55383	147.944	-6.67182	-0.310869
0.0313	-12.659	443.323	-581.594	1.49953	-8.17989	-43.279	-6.37536	-59.3027	-6.67182	0
0.0320	11.7478	498.239	-771.073	3.62886	-6.65379	-39.3031	-5.76818	-337.016	-3.63149	0
0.0327	25.4924	433.223	-727.451	3.32896	-6.95901	-37.1669	-6.67895	-479.199	-3.92708	-0.310869
0.0333	15.7219	360.296	-567.216	0.869727	-9.09555	-36.257	-9.1279	-281.464	-6.37623	-0.310869
0.0340	-11.1275	374.351	-358.512	-0.959699	-11.8425	-34.4372	-10.9494	123.205	-7.6008	-0.310869
0.0347	-40.7297	321.547	-233.061	0.269915	-13.6738	-31.0746	-10.9494	302.631	-8.2342	0
0.0353	-48.9687	139.979	-192.493	4.22867	-10.6216	-25.5757	-9.1279	249.848	-5.44724	0
0.0360	-37.0658	12.0969	-64.5989	4.85848	-7.26423	-21.0065	-9.43149	356.664	-3.33591	0
0.0367	-13.5701	20.968	246.665	3.32896	-7.56945	-18.8703	-10.9494	504.385	-3.92708	0
0.0373	5.66067	77.7275	549.702	1.19962	-9.09555	-18.5538	-13.0948	407.304	-6.37623	-0.310869
0.0380	2.90788	82.9118	627.823	1.19962	-7.87467	-14.8944	-14.6127	189.742	-6.67182	0
0.0387	-14.7914	2.95702	511.578	6.388	-5.12769	-6.05272	-9.73507	13.352	-3.63149	0
0.0393	-44.0834	30.4151	332.118	8.81723	-7.26423	-0.850546	-5.76818	-83.4167	-4.56048	0
0.0400	-72.1735	136.906	169.766	6.98781	-10.9269	2.4923	-5.76818	-209.435	-7.30522	0
0.0407	-68.5096	63.0575	69.9754	3.92877	-13.0634	4.62855	-5.76818	-473.707	-7.89639	0
0.0413	-42.8621	-39.171	-49.3656	2.39925	-13.9791	6.76481	-3.92641	-538.725	-8.2342	0
0.0420	-26.6943	-24.8083	-337.128	6.388	-11.2321	14.1032	2.1656	-205.46	-4.85607	0
0.0427	-24.5619	-33.6793	-571.208	7.58762	-9.40077	20.512	6.73967	136.959	-2.11133	0.310869
0.0433	-26.0934	-101.422	-501.64	3.32896	-13.6738	24.7845	6.43608	232.165	-4.26489	0
0.0440	-28.2258	-177.729	-259.292	0.869727	-18.2521	29.9669	7.04325	228.19	-6.37623	-0.310869
0.0447	-30.6684	-218.013	-82.3168	0.269915	-18.5574	34.5361	7.04325	179.337	-6.67182	-0.310869
0.0453	-27.6055	-206.416	-132.375	2.09934	-15.5052	41.5581	8.58144	-9.24371	-3.33591	-0.310869
0.0460	-18.1452	-224.734	-229.11	6.388	-12.453	47.9669	11.3137	-47.3796	-0.295587	-0.310869
0.0467	-11.7478	-240.594	-99.3829	5.45829	-13.0634	48.8767	8.58144	100.029	-2.11133	-0.310869
0.0473	-12.9691	-36.4059	82.1946	1.49953	-15.8104	48.8767	3.70378	41.7083	-5.15166	0
0.0480	-11.1275	219.933	130.99	0.569821	-17.0313	53.7624	2.77278	-118.203	-4.85607	0
0.0487	-1.06622	178.727	64.8026	0.869727	-17.3365	57.7382	4.00737	-210.953	-2.11133	0
0.0493	6.5718	35.5995	-48.7547	-0.329896	-17.0313	61.1009	3.70378	-247.571	0.6334	0
0.0500	5.3505	-5.91405	14.7445	-0.959699	-16.4208	68.4195	2.46919	-73.3245	2.15356	0
0.0507	-5.33111	-10.484	91.0332	-2.48922	-17.3365	70.2393	0.344067	202.87	1.2668	0
0.0513	-19.3665	-3.14904	-98.772	-6.14807	-20.0835	63.5338	-5.46459	250.161	-1.18235	-0.310869
0.0520	-8.39407	-29.7238	-263.568	-4.91846	-17.9469	61.3976	-9.73507	140.621	0.337813	-0.310869
0.0527	23.6507	-8.64065	-186.384	1.79944	-12.1477	62.6239	-9.43149	141.826	5.19388	-0.310869
0.0533	34.3323	45.3538	46.1886	0.869727	-13.0634	54.9888	-15.5235	305.4	3.67372	0
0.0540	24.5813	-56.2602	350.121	-2.48922	-16.1156	46.1471	-24.0847	463.793	-1.18235	0
0.0547	10.8367	-118.204	532.025	-0.659793	-15.8104	41.8746	-26.5134	239.801	-2.40692	0
0.0553	-6.55242	-37.3276	517.973	1.19962	-15.8104	38.5119	-28.3552	-357.468	-2.70251	0
0.0560	-10.5265	29.8006	398.021	5.45829	-13.9791	38.8086	-26.5134	-624.777	-1.18235	0
0.0567	-4.73015	67.013	201.495	7.58762	-13.9791	37.8988	-24.0847	-486.523	-1.52016	0.310869
0.0573	-4.41997	-24.5394	19.6322	3.92877	-18.2521	31.7867	-27.4242	-379.439	-4.85607	0.310869
0.0580	-0.756048	-111.484	-55.7604	1.49953	-20.3887	26.6043	-29.5695	-330.273	-7.89639	0
0.0587	7.79311	-66.629	-51.8095	2.69915	-19.7782	27.2175	-26.817	-223.189	-7.89639	0
0.0593	10.8367	-75.5001	-42.3192	5.15838	-18.2521	33.9229	-22.5465	-11.0746	-5.78506	0
0.0600	9.61538	-101.729	-22.4834	6.388	-16.4208	36.0592	-19.8142	24.3373	-4.56048	0
0.0607	6.5718	-57.4891	37.3093	5.75819	-15.5052	33.3295	-18.276	-109.942	-5.15166	-0.310869
0.0613	2.28753	-3.76348	60.5258	3.32896	-17.3365	29.6504	-18.8832	-89.4899	-7.30522	0
0.0620	2.5977	71.3142	11.3639	2.09934	-19.473	25.9911	-22.8501	43.5392	-9.12096	0
0.0627	7.79311	64.2864	-40.4863	6.6879	-15.5052	28.7405	-22.8501	150.043	-6.08064	0
0.0633	9.01442	-88.9027	-79.5471	7.58762	-13.3686	29.6504	-20.725	132.359	-3.92708	0
0.0640	5.95146	-123.696	-123.21	3.02905	-16.726	26.3076	-26.2098	-33.3577	-7.00963	0
0.0647	7.17277	-29.7238	-103.049	1.19962	-19.473	23.2417	-36.8961	-192.332	-9.12096	0
0.0653	17.5636	6.91252	-35.9245	1.49953	-19.473	22.3318	-51.5493	-206.398	-8.82538	0
0.0660	29.7573	9.37031	-22.8092	4.52858	-15.5052	28.1274	-59.1795	-25.7216	-2.70251	-0.310869
0.0667	33.7314	-26.6516	5.90595	3.62886	-13.0634	34.5361	-57.6413	142.451	4.60271	-0.310869
0.0673	31.5989	-83.7183	113.924	-3.38894	-15.8104	35.7625	-55.2126	79.8889	6.41846	0
0.0680	25.4924	-69.0868	172.209	-8.57731	-18.5574	34.2394	-48.7968	-44.343	5.5317	0
0.0687	15.121	43.5489	172.209	-9.80692	-20.0835	32.7164	-39.6487	-66.3136	5.82728	0
0.0693	15.121	123.811	142.598	-6.44798	-17.3365	35.7625	-27.748	35.3226	10.7256	0
0.0700	24.8721	72.2358	106.592	-4.91846	-15.5052	36.9889	-13.0948	256.859	13.7659	0
0.0707	22.4294	-34.9082	220.109	-5.51827	-17.6417	32.3999	-6.37536	493.668	11.0212	0
0.0713	5.04032	-114.556	388.571	-5.84817	-19.473	26.6043	-8.52072	500.723	6.41846	0
0.0720	-8.0839	-97.1593	366.006	-5.84817	-20.0835	20.1955	-5.16101	178.131	2.44915	0
0.0727	-3.50884	-9.2551	103.863	0.869727	-16.726	17.4461	19.5713	-160.314	2.78696	0
0.0733	11.1469	31.9512	-131.438	7.58762	-13.6738	15.3098	36.6533	-312.902	2.15356	-0.621738
0.0740	23.9609	3.84029	-92.0922	7.28771	-15.1999	13.7868	13.4591	-360.192	-3.63149	-0.621738
0.0747	30.6684	-21.4672	39.7532	5.15838	-16.1156	19.2856	-21.0286	-266.192	-5.44724	0
0.0753	36.775	-34.601	-2.03654	2.09934	-17.3365	28.4438	-36.289	-82.1663	-3.33591	0.310869
0.0760	38.6166	-46.8131	-109.769	0.869727	-16.4208	41.2614	-32.9292	24.3373	2.78696	0
0.0767	19.696	-10.7912	-32.5438	-0.329896	-13.0634	54.6921	-22.2429	37.4661	11.6123	0
0.0773	2.28753	34.0634	149.034	-6.74788	-13.3686	56.8284	-14.3091	65.8224	13.4703	0
0.0780	6.26163	16.3596	306.173	-12.5361	-14.2843	54.0789	-2.71206	173.844	12.5413	-0.310869
0.0787	11.1469	-14.1323	393.785	-14.3655	-13.9791	52.5558	11.9412	263.87	14.3571	0
0.0793	15.121	-9.2551	309.553	-12.866	-13.0634	49.8064	23.2346	201.933	14.9905	0
0.0800	18.7849	2.03535	163.371	-11.3364	-10.9269	45.2174	36.3497	-0.401901	14.3571	0
0.0807	12.6783	4.14751	70.8715	-13.7657	-10.6216	40.9449	54.0388	-157.232	15.2861	-0.310869
0.0813	9.61538	33.4489	-33.1548	-14.9953	-10.3164	40.9449	83.9524	-114.542	17.4396	0
0.0820	19.696	99.3867	-72.5414	-12.866	-9.40077	41.5581	119.958	20.363	17.1018	-0.310869
0.0827	35.5537	102.421	148.708	-9.80692	-8.79033	40.035	141.027	139.058	14.6527	-0.310869
0.0833	39.5278	4.76196	352.891	-8.87721	-10.3164	37.8988	138.882	193.716	11.0212	0
0.0840	31.5989	-121.584	122.762	-10.1068	-12.1477	39.7383	112.652	147.006	6.75627	0
0.0847	24.8721	-176.807	-203.776	-9.80692	-12.453	42.468	61.669	129.323	4.60271	0
0.0853	23.36	-97.1593	-282.793	-8.57731	-11.5373	38.8086	17.1224	155.268	3.67372	0
0.0860	28.536	17.2813	-354.52	-4.31865	-7.87467	40.6482	11.0101	144.55	5.82728	0
0.0867	37.0851	52.6888	-475.368	-2.15932	-6.34857	48.2833	6.13249	108.245	8.27643	0
0.0873	43.5019	43.8561	-419.526	-5.84817	-9.70599	47.6701	-14.6127	14.8703	6.12287	0.310869
0.0880	49.589	49.3477	-233.061	-7.34769	-11.5373	45.5339	-12.4876	-108.736	3.67372	0.310869
0.0887	57.227	54.8393	-168.055	-5.21836	-10.6216	49.1932	-10.0387	-135.574	5.19388	0
0.0893	55.4048	-1.92014	-165.937	-0.959699	-7.26423	57.4218	-30.1767	-74.5302	9.501	0
0.0900	42.2805	-131.645	-74.9853	-0.959699	-6.95901	61.1009	-43.9191	-66.001	12.8369	0
0.0907	30.6684	-175.885	-9.69391	-4.91846	-9.70599	57.7382	-36.289	-101.1	11.6123	0
0.0913	24.2711	-104.187	1.01827	-6.14807	-10.9269	54.9888	-15.2199	-101.1	9.501	0
0.0920	23.36	-70.8917	-2.36238	-5.21836	-10.3164	59.8745	11.9412	-138.343	8.8676	0
0.0927	27.935	-77.305	-39.8754	-1.2596	-6.95901	63.2371	37.8676	-217.071	11.3168	0
0.0933	32.5101	-54.1097	-35.9245	0.269915	-6.04335	54.6921	45.8014	-288.788	10.3878	0.310869
0.0940	34.9527	-10.7912	30.3037	-1.2596	-8.48511	44.6042	29.6302	-290.931	4.60271	0
0.0947	36.775	-0.422432	61.7478	-0.329896	-9.09555	38.1955	-6.98254	-177.104	0.6334	-0.310869
0.0953	37.9963	-23.3106	43.7448	1.19962	-9.09555	30.8768	-41.4702	-55.9535	-0.88676	0
0.0960	41.0592	-30.0311	36.0874	7.58762	-6.04335	30.2636	-46.955	21.5687	1.2668	0.310869
0.0967	41.9704	-22.3889	36.6984	12.776	-4.51725	26.9208	-38.1105	51.1753	1.2668	0
0.0973	38.9074	-19.6239	26.9637	9.71695	-9.09555	16.8329	-32.6257	34.0722	-4.26489	0
0.0980	39.2176	-17.5117	19.3064	8.81723	-10.6216	14.1032	-40.2558	19.4252	-6.37623	0
0.0987	40.1287	-15.6684	16.2516	8.81723	-9.40077	14.6966	-59.7867	15.1829	-6.67182	0
0.0993	40.7491	-10.7912	19.9173	12.776	-6.65379	15.923	-60.0903	27.0613	-6.67182	0.310869
0.1000	41.9704	-6.52849	29.6927	18.2643	-4.21203	14.3999	-32.3221	50.2822	-7.00963	0.310869
0.1007	40.1287	-8.0262	30.3037	16.4348	-6.65379	5.55822	7.04325	49.3445	-12.7947	0
0.1013	38.9074	-4.99238	26.6379	17.0646	-7.26423	1.87911	46.4288	36.5283	-16.764	0
0.1020	39.2176	0.192014	26.0269	18.2643	-6.34857	0.969227	63.2071	36.2157	-17.0596	0.621738
0.1027	41.0592	3.26425	27.5747	21.3233	-4.82247	1.58241	61.0618	37.734	-17.693	0.310869
0.1033	45.9445	3.26425	32.7475	27.4414	-1.46505	5.24174	62.9035	37.1535	-17.0596	-0.621738
0.1040	47.1658	-1.03688	33.3585	24.6823	-3.60159	4.62855	63.5107	39.5649	-18.2842	-0.621738
0.1047	44.7232	-0.115209	29.6927	21.0234	-6.04335	7.69448	58.3295	50.2822	-17.3552	0.310869
0.1053	42.8815	-0.422432	26.0269	19.4939	-6.65379	11.0373	43.9799	53.3188	-15.2438	-0.310869
0.1060	43.7926	-1.03688	22.9721	18.8941	-6.04335	11.6505	20.7857	41.7083	-13.0903	-0.621738
0.1067	46.2353	3.26425	23.298	21.0234	-4.51725	13.7868	4.31096	38.6718	-8.52979	0
0.1073	46.2353	-1.92014	25.1309	18.8941	-7.26423	12.2637	-2.10488	40.1901	-8.52979	0.310869
0.1080	46.5454	-11.0984	24.805	15.835	-9.70599	11.967	2.77278	35.6352	-10.3455	0
0.1087	45.3241	-11.7129	21.4651	14.0056	-10.0112	18.9692	12.5483	27.6865	-8.82538	0.310869
0.1093	45.014	-1.92014	19.6322	13.7057	-7.56945	31.1933	22.3036	23.087	-2.70251	0
0.1100	46.8556	4.45474	19.6322	14.0056	-3.90681	38.5119	25.0562	23.087	3.08255	0
0.1107	45.9445	-2.84181	19.0212	10.0468	-5.43291	37.2856	-3.31924	20.363	1.85797	0.310869
0.1113	42.8815	-8.94787	15.6406	4.85848	-8.17989	36.3757	-42.9881	15.4955	0.6334	0.310869
0.1120	39.8379	-8.33343	12.5858	1.49953	-8.48511	39.7383	-56.1234	12.4143	4.60271	0
0.1127	38.9074	-7.45016	15.9664	0.269915	-7.26423	44.3075	-50.0112	11.5211	10.0922	0
0.1133	39.8379	-4.99238	18.6954	-2.78912	-7.26423	46.4438	-45.1335	9.37768	13.4703	0.310869
0.1140	41.6602	-3.45626	18.6954	-5.51827	-7.56945	44.6042	-36.5925	9.37768	14.3571	0
0.1147	42.2805	-8.0262	21.1392	-6.14807	-6.95901	41.8746	-14.6127	11.8337	14.3571	0
0.1153	41.0592	-13.249	22.687	-6.14807	-4.82247	41.5581	11.3137	14.2451	14.6527	0.310869
0.1160	41.35	-12.3273	22.687	-2.78912	0.061044	43.3976	30.2374	19.1573	16.8062	0
0.1167	40.1287	-12.9418	19.6322	-4.31865	0.976703	40.9449	39.1022	15.7634	15.5816	-0.621738
0.1173	36.4842	-13.5178	13.1968	-10.4067	-1.46505	37.8988	51.0029	9.69027	13.7659	-0.310869
0.1180	33.7314	-12.3273	10.7529	-13.7657	-2.68593	36.3757	68.3884	11.2086	14.6527	0
0.1187	32.8203	-12.3273	12.5858	-14.9953	-1.77027	35.1493	66.8704	17.0138	14.6527	0
0.1193	33.7314	-7.71898	17.4735	-11.0365	3.72368	37.8988	56.7913	29.83	18.0308	0.310869
0.1200	33.111	-4.68515	16.5774	-10.1068	5.86022	33.3295	40.6202	31.3482	18.3264	0.310869
0.1207	30.9786	-5.60682	12.3007	-11.3364	4.0289	21.4219	13.4591	21.5687	14.6527	0
0.1213	29.4471	-1.92014	10.7529	-8.87721	4.63934	11.3538	-19.8142	17.9069	12.5413	0
0.1220	27.0239	1.72813	8.3498	-7.67759	4.63934	2.4923	-69.542	13.9326	9.16319	0
0.1227	28.2452	8.75586	6.80203	-3.68884	8.30198	0.969227	-113.502	13.6646	10.3878	0
0.1233	28.536	13.9403	3.46211	-2.15932	10.7437	-1.16703	-120.504	15.4955	12.8369	0
0.1240	24.2711	4.76196	4.35819	-7.04779	7.0811	-8.80216	-94.2744	15.7634	9.16319	0
0.1247	23.0498	-7.14294	12.3007	-8.57731	6.77588	-11.8483	-59.4831	22.5064	8.57202	0.310869
0.1253	23.36	-11.0984	11.6897	-8.2774	8.30198	-13.3714	-46.3479	24.6499	9.79659	0
0.1260	21.5183	-8.94787	8.63491	-5.84817	10.1333	-12.7582	-46.0443	24.3373	10.3878	0
0.1267	20.9173	-6.22127	11.0788	-2.78912	11.9646	-11.8483	-22.2429	29.5174	11.3168	0
0.1273	19.696	-7.71898	8.02395	-3.68884	10.1333	-18.8703	10.403	27.9991	7.05186	0
0.1280	17.2534	-6.83571	1.30338	-3.38894	8.6072	-25.8922	17.426	22.819	2.44915	0
0.1287	15.4118	-4.68515	-2.97334	-3.38894	8.30198	-30.1647	14.6734	18.8447	0.0422267	0
0.1293	17.5636	0.192014	-2.6475	-2.15932	10.4385	-29.2351	26.8777	19.7378	1.2668	0
0.1300	20.9173	7.21974	0.692422	-2.15932	11.6594	-19.167	41.5309	24.9178	5.5317	0
0.1307	21.5183	7.52697	2.5253	-6.14807	8.91242	-8.80216	40.6202	24.9178	6.12287	0.310869
0.1313	21.5183	4.45474	0.407307	-8.2774	7.0811	-7.25931	29.3267	19.7378	5.19388	0
0.1320	21.2081	0.499238	-0.529499	-7.67759	7.69154	-9.09887	8.88503	20.363	6.75627	0.310869
0.1327	22.4294	-2.84181	4.07307	-4.31865	8.91242	-8.48568	-19.1868	26.1682	9.79659	0.310869
0.1333	22.7396	-7.14294	5.58011	-3.08903	7.99676	-10.9384	-44.8299	21.2561	7.98084	-0.621738
0.1340	21.2081	-7.45016	2.5253	-3.38894	7.38632	-14.5977	-65.5751	13.9326	4.30712	-0.621738
0.1347	21.2081	-3.76348	-1.42558	-3.68884	7.0811	-15.8043	-82.9809	14.5577	3.08255	0
0.1353	23.0498	-1.3441	-0.203654	-2.78912	8.6072	-11.2351	-142.181	18.2195	4.60271	0
0.1360	26.4035	1.72813	6.19107	0.269915	13.1855	-2.07692	-278.593	24.3373	9.79659	0
0.1367	27.0239	2.95702	5.90595	-2.48922	12.8803	-1.46373	-389.362	24.0247	11.3168	0
0.1373	24.2711	5.3764	0.692422	-5.21836	10.7437	-2.07692	-355.199	21.8813	9.79659	0
0.1380	21.2081	8.14141	-2.97334	-3.98875	10.1333	-2.9868	-258.759	22.1938	8.27643	0
0.1387	19.696	6.29807	-4.19526	-2.78912	10.1333	-17.9406	-188.873	21.5687	5.82728	0.310869
0.1393	20.9173	6.29807	2.24019	3.02905	13.7959	-35.3471	-96.7031	28.3117	8.57202	0
0.1400	19.3859	5.68363	5.58011	4.22867	14.7116	-49.6877	-48.7968	33.8043	10.0922	0
0.1407	15.4118	0.806461	2.24019	-2.78912	11.3542	-64.0283	-83.8916	27.9991	6.75627	0
0.1413	16.3423	-1.65132	2.24019	-5.21836	11.6594	-70.7338	-49.404	23.7121	6.41846	0.310869
0.1420	17.5636	-1.3441	2.5253	-5.84817	12.8803	-69.5272	63.2071	20.6756	7.05186	0
0.1427	16.6331	1.42091	3.74723	-6.14807	15.322	-65.8679	99.5163	20.9881	9.501	0
0.1433	16.0321	5.68363	3.74723	-5.51827	16.2377	-67.0745	68.0848	23.3995	12.8369	0
0.1440	13.2793	6.29807	-3.25846	-7.34769	11.9646	-74.0964	112.024	17.5943	7.64303	0
0.1447	13.2793	7.21974	-9.08295	-6.44798	9.82808	-72.2766	171.548	14.8703	1.56239	0
0.1453	15.4118	7.83419	-10.59	-3.38894	10.1333	-63.4151	123.925	16.3886	-3.04032	0
0.1460	20.6072	9.06308	-6.02815	2.69915	12.2698	-57.0064	80.2891	19.7378	-3.63149	0
0.1467	25.1822	13.3258	-2.03654	8.51733	14.1012	-47.8482	101.662	24.0247	-0.295587	0
0.1473	25.4924	13.3258	-5.7023	6.98781	10.4385	-32.8944	156.591	20.363	-3.33591	0
0.1480	27.935	9.06308	-6.31326	5.75819	7.38632	-18.2571	253.031	14.2451	-10.05	0
0.1487	33.4212	5.3764	-4.19526	6.6879	5.86022	-7.25931	335.728	11.8337	-14.3148	-0.310869
0.1493	37.3953	4.76196	-4.48038	8.21742	4.0289	-2.07692	361.979	10.5834	-15.835	0
0.1500	39.5278	7.52697	-3.25846	11.2465	4.63934	1.58241	369.913	11.2086	-13.3859	0.310869
0.1507	37.0851	9.94635	-2.6475	12.1762	6.16544	11.6505	376.308	12.1017	-11.5701	0
0.1513	32.5101	8.44864	-2.97334	10.3468	5.24978	15.6263	321.075	9.37768	-13.0903	0
0.1520	32.1999	5.68363	0.0814614	8.51733	4.63934	6.15162	214.576	7.85939	-11.8657	0.310869
0.1527	33.4212	9.06308	5.29499	10.0468	8.30198	1.87911	157.198	15.4955	-5.44724	0.310869
0.1533	32.8203	11.7897	7.12788	9.41704	9.21764	5.85492	131.859	22.1938	-3.33591	0
0.1540	33.111	8.44864	5.58011	6.0581	7.0811	8.60436	84.2559	20.6756	-5.78506	0
0.1547	34.0416	5.68363	7.12788	4.22867	7.99676	14.6966	61.669	17.9069	-7.00963	0.310869
0.1553	28.2452	3.57147	7.73884	1.49953	7.38632	26.3076	41.8345	15.1829	-8.82538	0.310869
0.1560	23.36	2.6498	10.4678	3.32896	7.99676	35.4658	-0.26311	17.3264	-9.12096	0
0.1567	29.1563	2.6498	17.4735	10.3468	12.2698	32.7164	4.91813	25.2304	-5.15166	0
0.1573	29.7573	-1.65132	17.7993	9.41704	9.82808	18.0593	19.8749	24.3373	-5.78506	0.310869
0.1580	11.457	-4.37793	11.0788	2.69915	4.0289	10.4241	-7.8933	18.2195	-8.2342	0.310869
0.1587	-14.7914	-0.115209	7.41299	0.869727	3.41846	14.3999	-28.6588	20.0504	-5.78506	0.310869
0.1593	-33.712	3.84029	7.12788	0.269915	3.41846	20.512	-33.2328	23.3995	-2.11133	0.310869
0.1600	-33.712	9.06308	8.92003	-0.329896	3.41846	34.5361	-55.5162	29.5174	5.82728	0.310869
0.1607	-27.0045	14.2475	5.90595	-2.15932	2.19758	44.6042	-84.1952	44.7896	12.5413	0.310869
0.1613	-38.5972	13.3258	-2.36238	-6.44798	-3.29637	38.8086	-84.1952	56.668	9.79659	0.310869
0.1620	-53.5437	12.4041	-4.80622	-7.04779	-6.65379	33.6262	-81.4427	41.7083	7.05186	0.310869
0.1627	-64.8457	11.1752	-3.86942	-6.14807	-7.56945	35.7625	-87.5549	18.8447	7.34744	0
0.1633	-48.6779	13.9403	-6.31326	-3.98875	-7.56945	39.1251	-44.8299	18.2195	6.75627	-0.932607
0.1640	30.0675	28.2645	-14.5409	-0.659793	-8.17989	39.4218	27.5051	26.1682	3.67372	-0.310869
0.1647	105.75	39.8622	-23.7053	1.49953	-9.40077	37.2856	65.3323	31.3482	-1.81575	0.621738
0.1653	123.139	38.6333	-25.5382	3.32896	-8.48511	35.1493	91.8861	31.9734	-5.15166	0.310869
0.1660	110.635	32.5272	-22.8092	2.69915	-6.95901	30.5801	116.618	27.3739	-5.15166	0.310869
0.1667	101.485	22.7729	-15.4777	2.09934	-6.04335	34.5361	112.955	21.5687	-2.11133	0
0.1673	104.529	13.633	-5.09134	2.09934	-4.51725	51.013	90.9754	17.0138	3.67372	0
0.1680	108.503	7.21974	-1.42558	-4.31865	-6.95901	55.602	67.174	6.92162	4.30712	0
0.1687	107.572	4.76196	0.0814614	-7.9775	-8.17989	45.8306	59.8474	-4.37625	3.08255	0
0.1693	113.078	4.14751	4.96915	-6.44798	-6.34857	35.1493	67.7812	-9.24371	3.67372	0.310869
0.1700	125.291	3.26425	11.0788	-4.61855	-4.21203	28.7405	65.9597	-4.95677	1.85797	0.310869
0.1707	126.202	4.14751	15.9664	-0.659793	-0.854615	28.1274	32.0792	3.57245	1.2668	0.310869
0.1713	115.83	2.6498	14.4187	-0.959699	-1.46505	23.2417	-38.1105	5.40333	-0.295587	0.310869
0.1720	95.0682	1.72813	10.4678	-4.91846	-4.82247	18.0593	-110.446	7.23421	-2.11133	0
0.1727	79.1912	4.45474	7.73884	-5.21836	-5.12769	19.5823	-156.834	13.0394	-1.52016	0
0.1733	74.6161	6.91252	3.46211	-7.04779	-5.43291	17.4461	-158.352	19.4252	-2.40692	0
0.1740	54.7844	12.0969	1.62923	-5.84817	-2.38071	12.5604	-127.224	30.7231	0.337813	0.310869
0.1747	37.0851	16.9741	2.85115	-2.78912	0.671484	5.85492	-115.93	35.3226	4.01153	0.310869
0.1753	5.95146	13.0186	0.407307	-6.14807	-1.15984	-7.8725	-128.438	27.3739	-0.591174	0.310869
0.1760	-41.0399	9.63913	1.30338	-5.21836	5.555	-17.9406	-133.336	27.6865	-3.04032	0.310869
0.1767	-48.3677	7.21974	6.51691	-1.85942	13.7959	-24.9625	-127.831	30.4105	-3.04032	0.310869
0.1773	-42.2612	1.42091	7.12788	-3.98875	13.1855	-31.3713	-120.201	25.2304	-6.08064	0
0.1780	-34.9333	2.6498	9.24587	-0.659793	15.0168	-27.4153	-105.568	28.5796	-3.92708	0.310869
0.1787	-37.6861	6.6053	11.9748	3.92877	17.4586	-21.9164	-86.037	33.1791	-1.81575	0.621738
0.1793	-63.004	2.03535	11.3639	0.869727	14.4064	-24.3494	-70.1492	25.8556	-6.37623	0.310869
0.1800	-63.6244	-4.99238	14.1336	-1.55951	11.9646	-26.4856	-37.1997	17.3264	-9.12096	0
0.1807	-65.4466	-8.64065	18.0844	-0.329896	10.7437	-24.3494	11.3137	17.5943	-8.82538	0.310869
0.1813	-79.1912	-7.14294	15.6406	-0.329896	8.30198	-19.4834	36.0461	23.087	-8.82538	0.310869
0.1820	-59.0493	-3.45626	12.9116	-0.959699	7.69154	-15.2109	25.0562	28.3117	-7.00963	0.310869
0.1827	-17.234	-2.22737	13.1968	-0.659793	7.69154	-17.0307	3.70378	32.2414	-7.6008	0.310869
0.1833	23.6507	-0.729655	15.3555	2.39925	9.52286	-18.2571	2.46919	41.3958	-7.30522	0
0.1840	67.3077	-3.45626	18.4103	0.569821	7.99676	-17.3472	-1.80129	47.8262	-6.67182	0.310869
0.1847	140.547	-10.484	21.1392	-6.44798	2.5028	-14.8944	-7.58971	45.3701	-7.30522	0.310869
0.1853	242.168	-7.14294	22.3612	-7.04779	1.28192	-6.66591	7.04325	50.5502	-3.92708	0.310869
0.1860	307.77	2.34258	18.4103	-5.51827	0.976703	-7.5758	14.0663	59.7492	-0.88676	0.310869
0.1867	285.495	9.37031	8.92003	-7.34769	-0.244176	-17.0307	31.1684	61.2675	-2.11133	0
0.1873	216.831	19.4319	-1.42558	-7.04779	-0.244176	-18.8703	56.1841	61.848	-3.04032	0
0.1880	174.104	28.879	-11.2009	-6.74788	-2.68593	-20.0768	34.5079	63.6789	-5.15166	0
0.1887	112.167	31.0295	-16.0886	-7.67759	-5.43291	-26.1889	-4.85742	63.411	-6.37623	0.310869
0.1893	25.4924	30.4151	-11.2009	-5.84817	-2.68593	-28.6219	-57.3378	59.124	-3.04032	0.310869
0.1900	-10.5265	25.2307	-3.25846	-2.78912	0.671484	-25.5757	-140.339	50.8627	-2.40692	0.310869
0.1907	-102.687	16.0524	1.91434	-1.85942	1.28192	-24.3494	-180.028	36.5283	-5.78506	0
0.1913	-278.769	12.0969	2.24019	-2.15932	1.28192	-32.301	-172.701	17.0138	-7.30522	0.310869
0.1920	-354.141	11.4825	-2.03654	-2.48922	1.28192	-46.6416	-168.431	1.74157	-7.00963	0.310869
0.1927	-318.451	11.1752	-1.14046	1.19962	4.0289	-49.3712	-166.589	0.223278	-5.15166	0.310869
0.1933	-288.849	6.91252	4.96915	4.22867	5.555	-44.5053	-182.153	2.94727	-5.15166	0
0.1940	-255.874	-7.14294	9.53099	2.39925	1.28192	-45.4152	-184.602	-16.2546	-10.3455	-0.932607
0.1947	-162.201	-19.0478	15.3555	2.09934	0.061044	-39.6196	-99.4556	-38.2252	-12.4991	-0.310869
0.1953	-65.7568	-20.5455	22.687	2.09934	1.89236	-24.9625	70.2302	-33.3577	-10.6411	0.621738
0.1960	-23.6507	-20.8528	27.5747	-1.2596	1.28192	-15.5076	253.335	-22.0599	-9.41655	0.310869
0.1967	19.9868	-22.0817	30.9146	0.569821	0.976703	-10.0088	341.82	-20.5416	-8.52979	-0.621738
0.1973	77.0588	-23.3106	33.0326	5.75819	0.061044	-4.52965	314.659	-24.8285	-8.2342	-0.932607
0.1980	94.4673	-23.0033	34.2545	3.62886	-3.29637	0.672525	245.704	-25.0965	-8.82538	0.310869
0.1987	34.0416	-22.3889	33.6436	-1.2596	-5.43291	4.01537	157.805	-24.5159	-9.75436	0.310869
0.1993	-78.881	-23.3106	28.1857	-1.55951	-6.04335	1.87911	84.2559	-35.1886	-11.8657	0
0.2000	-194.246	-17.2045	19.6322	2.39925	-4.82247	-4.21317	66.8704	-36.3943	-11.2745	0.310869
0.2007	-302.885	-0.115209	9.53099	8.21742	-1.77027	-4.52965	82.4344	-14.1112	-9.41655	0
0.2013	-338.884	8.14141	1.01827	8.51733	-2.99115	0.0593404	96.7638	2.36675	-12.7947	0
0.2020	-263.822	2.03535	-0.203654	3.92877	-5.73813	1.28571	101.965	4.19763	-16.4684	0.310869
0.2027	-153.342	-3.45626	3.74723	3.32896	-6.65379	-4.21317	76.0186	10.0029	-14.3148	0
0.2033	-27.6055	-6.83571	4.68403	1.49953	-9.40077	-11.5318	37.2604	10.2708	-13.7237	0
0.2040	84.6968	-7.14294	1.01827	0.869727	-10.9269	-10.6219	61.9928	-1.29501	-14.9482	0
0.2047	93.5367	-4.68515	0.407307	5.15838	-7.87467	2.80878	115.08	-14.4238	-11.8657	0
0.2053	11.7478	-8.0262	2.5253	4.85848	-6.95901	18.9692	124.552	-28.1777	-9.12096	0
0.2060	-81.6338	-10.484	0.407307	0.869727	-9.09555	24.7845	129.734	-32.152	-10.05	0
0.2067	-135.042	-5.60682	-2.6475	1.19962	-10.0112	21.7186	143.78	-24.5159	-10.3455	0.310869
0.2073	-109.705	-4.68515	-1.75142	0.569821	-10.3164	20.1955	116.922	-20.8542	-12.1613	0
0.2080	-1.06622	-6.22127	1.30338	-0.959699	-10.3164	22.0351	60.151	-13.7986	-12.1613	0
0.2087	97.5108	0.192014	3.46211	2.09934	-7.56945	21.1054	-0.26311	1.11639	-6.08064	0
0.2093	70.9522	9.06308	-2.36238	1.19962	-7.87467	16.2395	-54.5852	10.896	-4.85607	0
0.2100	-17.8544	12.0969	-10.3049	-4.61855	-12.1477	15.6263	-102.512	13.6646	-8.52979	0
0.2107	-31.2694	9.63913	-5.41719	-3.68884	-11.5373	21.1054	-144.002	15.4955	-6.67182	0.310869
0.2113	-1.06622	0.499238	4.07307	-2.78912	-10.6216	21.1054	-149.204	6.02851	-7.00963	0
0.2120	-22.4294	-10.7912	9.53099	-4.31865	-10.9269	16.5362	-132.729	-10.762	-9.12096	0
0.2127	-67.5985	-12.3273	15.0296	-0.659793	-7.56945	16.2395	-99.4556	-12.2803	-3.33591	0
0.2133	-53.5437	-9.86954	14.7445	-0.659793	-7.87467	16.5362	-35.9854	-6.20713	0.6334	0
0.2140	2.28753	-12.0201	9.53099	-6.14807	-13.0634	13.1736	18.3368	-8.61853	-2.40692	0
0.2147	14.5006	-10.484	4.96915	-7.67759	-14.5895	8.90106	43.9799	-7.41283	-3.63149	0
0.2153	-48.9687	-6.22127	1.01827	-6.44798	-13.6738	4.62855	36.0461	-0.401901	-3.92708	0
0.2160	-119.475	-4.37793	0.407307	-4.91846	-12.1477	3.10548	7.34684	2.67934	-3.92708	0
0.2167	-99.9341	-1.3441	3.74723	-1.55951	-7.87467	8.28788	-22.2429	12.4143	0.337813	0.310869
0.2173	-21.2081	2.34258	1.01827	-2.48922	-8.17989	11.6505	-51.2458	21.8813	1.2668	0.310869
0.2180	38.3064	4.76196	-3.5843	-4.61855	-10.6216	11.6505	-66.5061	20.6756	-0.591174	0
0.2187	54.4743	4.14751	-4.48038	-5.84817	-11.8425	8.28788	-70.473	21.5687	-1.52016	0.310869
0.2193	0.775434	4.14751	-5.7023	-6.74788	-12.7582	3.71867	-75.6543	28.5796	-4.26489	0.310869
0.2200	-65.7568	6.6053	-2.6475	-1.55951	-10.3164	5.24174	-68.0241	31.9734	-4.56048	-0.310869
0.2207	-81.0135	3.57147	5.58011	6.0581	-8.48511	4.94504	-53.0673	20.0504	-3.33591	-0.621738
0.2213	-63.3142	-5.91405	11.3639	4.22867	-11.5373	-0.257142	-65.5751	6.92162	-5.15166	0.310869
0.2220	-17.234	-11.4057	13.1968	-2.48922	-13.3686	-3.59999	-99.4556	8.43991	-5.44724	0.310869
0.2227	47.4566	-14.1323	15.9664	-4.31865	-11.5373	-6.96261	-119.594	13.0394	-3.92708	0
0.2233	86.5191	-17.2045	20.2432	-3.08903	-8.79033	-8.80216	-114.412	14.2451	-2.40692	0.310869
0.2240	74.9263	-15.6684	21.7502	-1.85942	-5.73813	-7.8725	-88.4657	15.4955	1.85797	0
0.2247	49.8992	-8.0262	13.5226	0.569821	-5.12769	-10.6219	-71.991	9.06509	3.67372	-0.932607
0.2253	47.4566	1.72813	1.62923	3.92877	-6.04335	-10.9384	-67.4169	2.05416	2.15356	-0.621738
0.2260	30.3776	11.1752	-9.97903	1.79944	-7.56945	-8.18898	-61.6082	10.5834	1.85797	0.621738
0.2267	-51.1011	16.3596	-21.8724	-4.31865	-11.2321	-8.80216	-65.2715	21.2561	-0.295587	0.310869
0.2273	-92.9164	17.5885	-24.3162	-3.98875	-13.0634	-8.18898	-56.427	24.0247	-0.88676	0
0.2280	-57.828	18.203	-18.5325	0.269915	-12.453	-6.34943	-31.7149	26.7487	3.67372	0.310869
0.2287	-97.8016	16.3596	-14.8667	-1.2596	-14.2843	-4.52965	-21.9393	24.3373	7.34744	0.310869
0.2293	-159.138	13.0186	-10.9158	-3.68884	-15.5052	0.969227	-10.9494	17.3264	6.12287	0.310869
0.2300	-132.89	10.5608	-6.02815	-2.48922	-14.2843	6.46811	24.7526	17.3264	2.78696	0.310869
0.2307	-66.668	6.91252	-4.48038	-1.85942	-13.3686	7.69448	58.0057	22.5064	-1.52016	0.310869
0.2313	17.2534	4.45474	-2.97334	-0.0299906	-12.1477	6.76481	71.1409	26.4808	-3.33591	0.310869
0.2320	98.7322	4.76196	1.91434	4.52858	-8.79033	4.94504	68.3884	30.1425	-2.11133	0
0.2327	141.769	3.57147	4.68403	4.52858	-7.87467	-0.850546	41.2273	29.2048	-1.52016	0.310869
0.2333	140.838	0.192014	6.19107	1.79944	-9.09555	-6.34943	17.1224	19.7378	-1.18235	0.310869
0.2340	117.963	-0.422432	7.73884	1.19962	-9.09555	-7.5758	15.3009	8.7525	0.337813	0.310869
0.2347	77.0588	1.42091	5.29499	-0.0299906	-10.9269	-8.80216	17.7296	1.11639	0.0422267	0.310869
0.2353	-12.659	4.45474	1.91434	0.569821	-11.5373	-8.18898	48.8575	-4.64418	0.928987	0.310869
0.2360	-103.598	9.63913	1.01827	4.85848	-9.70599	-7.25931	101.965	-5.89454	2.78696	0
0.2367	-146.635	14.2475	-2.36238	6.388	-11.2321	-10.0088	116.922	-2.23278	-0.295587	-0.310869
0.2373	-145.413	16.9741	-6.92422	6.98781	-12.1477	-10.3252	87.3121	-3.75107	-2.40692	0
0.2380	-105.129	16.3596	-8.7571	7.28771	-10.9269	-6.34943	35.4389	-12.9055	-2.11133	0.310869
0.2387	-79.1912	12.7114	-10.3049	5.75819	-10.6216	-4.21317	-12.184	-17.1924	-1.81575	0
0.2393	-74.9069	9.06308	-9.69391	6.98781	-10.3164	-1.46373	-33.5364	-19.6038	0.0422267	0
0.2400	-67.5985	6.6053	-8.47199	6.6879	-10.6216	0.0593404	-34.7508	-26.6594	0.337813	0.310869
0.2407	-61.7827	5.68363	-8.14614	4.52858	-11.8425	-2.6901	-14.0056	-28.4903	-1.81575	0.310869
0.2413	-56.2965	5.3764	-6.31326	5.75819	-11.2321	-6.05272	18.3368	-26.0342	-2.11133	0.310869
0.2420	-48.3677	4.45474	-4.48038	5.75819	-10.0112	-8.18898	25.9669	-26.6594	-1.18235	0.310869
0.2427	-33.111	5.3764	-3.5843	5.15838	-8.48511	-6.96261	24.7526	-23.5782	-0.295587	0
0.2433	-19.0757	7.83419	-1.75142	8.21742	-5.73813	-4.21317	65.3323	-19.2912	1.85797	0
0.2440	-14.7914	6.29807	-1.42558	7.58762	-4.82247	-7.25931	123.318	-27.2399	2.15356	0
0.2447	-15.4118	1.72813	-2.6475	2.39925	-6.34857	-12.7582	135.522	-39.4756	0.928987	0
0.2453	-16.0127	2.03535	-3.5843	0.869727	-5.12769	-11.8483	97.9984	-38.8504	3.08255	0
0.2460	-17.8544	5.99085	-6.63911	-0.0299906	-4.82247	-11.8483	36.0461	-27.8651	4.8983	0.310869
0.2467	-27.3147	9.37031	-8.7571	0.269915	-4.82247	-15.2109	-23.1537	-14.4238	5.5317	0.310869
0.2473	-32.8009	9.63913	-5.41719	3.62886	-2.07549	-14.5977	-56.7306	-6.78765	6.12287	0.310869
0.2480	-23.3406	3.57147	-2.36238	3.02905	-1.46505	-14.8944	-63.1464	-11.9677	3.37813	0.310869
0.2487	-13.8803	-1.3441	-1.14046	1.79944	-2.07549	-16.1208	-53.3709	-16.5672	0.6334	0.310869
0.2493	-9.30521	-0.729655	-0.529499	3.92877	-0.549396	-14.2813	-47.886	-12.5929	0.6334	0
0.2500	-1.66718	1.11368	-2.03654	4.52858	-0.244176	-12.7582	-54.5852	-8.03801	-0.295587	0.310869
0.2507	8.39407	1.72813	-1.14046	5.15838	-0.244176	-13.9846	-61.0011	-5.58195	1.2668	0.310869
0.2513	11.7478	0.806461	-1.14046	4.85848	-1.77027	-16.734	-63.7536	-5.89454	2.15356	0.310869
0.2520	9.61538	-1.3441	-3.25846	1.79944	-3.90681	-19.167	-63.1464	-8.61853	0.928987	0.310869
0.2527	5.95146	-2.84181	-1.14046	0.269915	-3.60159	-20.0768	-50.0112	-9.24371	2.44915	0
0.2533	3.50884	-5.2996	3.74723	1.49953	-2.38071	-21.0065	-21.0286	-10.762	5.5317	0
0.2540	19.9868	-8.64065	9.85683	2.39925	-0.854615	-20.3933	16.5152	-14.1112	5.19388	0.310869
0.2547	63.3336	-13.249	14.4187	3.62886	-1.46505	-19.7801	54.6662	-14.7364	2.15356	-0.310869
0.2553	97.821	-16.2828	15.0296	6.98781	-3.29637	-24.6658	72.6589	-18.3981	-1.18235	-1.55434
0.2560	71.5726	-12.3273	11.3639	10.0468	-1.77027	-31.0746	66.2633	-17.1924	-2.70251	0
0.2567	2.28753	-6.22127	5.90595	8.51733	-0.854615	-34.1208	56.1841	-7.72542	-3.04032	0.932607
0.2573	-26.3841	-3.14904	1.62923	5.75819	-1.15984	-35.0306	31.1684	-4.95677	-3.04032	0.310869
0.2580	-8.39407	-1.3441	0.692422	5.15838	0.366264	-35.0306	-24.0847	-3.43848	-1.81575	0.621738
0.2587	-2.28753	1.11368	-0.814614	6.0581	0.671484	-34.1208	-69.8456	1.42898	0.0422267	0.621738
0.2593	-18.1452	6.6053	-9.36806	4.52858	-2.07549	-34.1208	-77.1722	2.67934	0.0422267	0.310869
0.2600	-32.1805	13.0186	-20.3654	2.39925	-4.21203	-35.3471	-60.0903	2.94727	-0.88676	0
0.2607	-20.2776	11.7897	-22.4834	3.32896	-4.21203	-35.9603	-41.4702	3.57245	-0.88676	0
0.2613	15.4118	3.84029	-21.5873	2.09934	-5.12769	-41.1427	-34.4472	-0.401901	-1.18235	0.310869
0.2620	43.1917	-1.3441	-20.0395	1.19962	-6.04335	-44.1888	-32.6257	-5.58195	-0.88676	0
0.2627	41.9704	-3.45626	-14.5409	3.02905	-7.26423	-40.5295	-31.0875	-9.24371	-0.88676	0.310869
0.2633	26.4035	-6.22127	-12.4229	2.09934	-10.0112	-39.6196	-25.299	-13.7986	-3.04032	0
0.2640	14.5006	-5.60682	-13.3189	2.69915	-10.6216	-41.7559	-13.0948	-14.1112	-3.92708	0.310869
0.2647	7.79311	-2.84181	-13.3189	4.52858	-9.70599	-43.5757	-0.26311	-9.86889	-3.04032	0.310869
0.2653	14.8108	-2.22737	-13.3189	4.52858	-10.3164	-45.1185	22.3036	-9.24371	-2.40692	0
0.2660	35.5537	-4.07071	-9.36806	5.45829	-12.1477	-42.0526	51.3065	-10.4494	0.0422267	0
0.2667	42.8815	-8.64065	-5.41719	4.52858	-13.9791	-34.1208	59.5438	-11.6998	1.2668	0.310869
0.2673	55.6956	-14.7467	-5.7023	0.269915	-16.726	-31.3713	47.036	-15.6295	-0.88676	0.310869
0.2680	97.821	-17.8189	-5.7023	-1.55951	-18.2521	-39.6196	35.1353	-16.2546	-2.70251	0
0.2687	121.918	-17.8189	-5.09134	-0.329896	-17.9469	-47.5515	28.1123	-12.9055	-3.33591	-0.310869
0.2693	109.724	-13.825	-6.02815	3.32896	-14.8947	-44.802	25.0562	-8.93112	-3.04032	0
0.2700	64.5549	-8.33343	-5.41719	6.98781	-11.2321	-37.7801	27.2015	-2.54537	-0.591174	0
0.2707	8.70425	-7.71898	-4.19526	6.98781	-10.9269	-36.257	26.5741	2.05416	-1.18235	0
0.2713	-17.5442	-12.3273	-4.48038	5.15838	-12.1477	-37.1669	20.1785	-0.401901	-4.26489	0.310869
0.2720	-25.1628	-15.6684	-3.86942	3.92877	-11.8425	-33.5076	14.0663	-5.58195	-3.92708	0.310869
0.2727	-10.2163	-18.1262	-2.36238	2.39925	-12.7582	-29.2351	6.43608	-11.3872	-3.04032	0.310869
0.2733	10.8367	-17.8189	-1.75142	2.39925	-13.0634	-28.0285	-3.92641	-12.9055	-2.40692	0.310869
0.2740	1.99674	-13.825	-0.203654	4.85848	-9.70599	-27.712	-10.9494	-6.78765	-0.295587	0
0.2747	-20.2776	-12.3273	-2.36238	3.32896	-9.09555	-30.7581	-16.7581	-4.64418	-1.18235	0
0.2753	-23.3406	-12.3273	-6.02815	1.49953	-9.40077	-32.5977	-20.4214	-6.78765	-2.11133	0
0.2760	9.3246	-7.14294	-9.36806	2.39925	-7.87467	-30.7581	-17.3653	-4.64418	-0.88676	0.310869
0.2767	57.5372	-1.92014	-15.4777	0.869727	-9.09555	-31.3713	-13.3984	-2.54537	-1.52016	0.310869
0.2773	82.2542	1.42091	-18.8176	0.569821	-9.70599	-32.5977	-9.73507	0.223278	-2.11133	0.621738
0.2780	56.0057	2.6498	-18.2066	2.09934	-8.48511	-31.9845	-8.52072	-0.401901	-1.18235	0.621738
0.2787	-1.66718	-0.115209	-16.0886	1.49953	-8.17989	-31.9845	-11.5566	-5.26936	-1.81575	0.310869
0.2793	-27.3147	-3.76348	-13.6448	-0.329896	-9.09555	-32.5977	-14.0056	-5.89454	-2.70251	0.310869
0.2800	-9.30521	-7.14294	-10.9158	-1.55951	-9.70599	-34.1208	-13.702	-4.64418	-3.92708	0.310869
0.2807	19.0757	-10.7912	-7.86103	-0.659793	-8.48511	-35.0306	-13.3984	-9.86889	-3.92708	0.310869
0.2813	30.6684	-11.7129	-4.80622	1.79944	-6.34857	-33.824	-8.52072	-14.7364	-2.70251	0
0.2820	14.8108	-10.7912	-3.86942	2.39925	-5.12769	-33.5076	1.25483	-11.6998	-1.52016	0.621738
0.2827	-5.95146	-10.484	-4.80622	1.79944	-5.12769	-34.1208	3.70378	-7.10024	-1.52016	0.310869
0.2833	-12.0386	-9.56232	-6.31326	2.69915	-6.04335	-36.257	-4.85742	-14.4238	-3.04032	-1.55434
0.2840	-2.88849	-7.45016	-8.7571	3.32896	-7.56945	-37.7801	-12.4876	-23.8908	-5.44724	-0.621738
0.2847	18.7849	-4.99238	-9.97903	1.79944	-6.95901	-36.8702	-12.7912	-15.3615	-5.78506	1.24348
0.2853	31.8897	-2.84181	-8.14614	2.39925	-3.90681	-34.4372	-9.1279	-3.43848	-3.33591	0.621738
0.2860	25.8026	-2.53459	-5.41719	3.32896	-2.68593	-33.5076	-4.85742	-1.92019	-2.11133	0
0.2867	14.1904	-2.84181	-4.48038	3.02905	-3.29637	-33.5076	0.647656	-0.982424	-2.11133	0.310869
0.2873	5.3505	-4.37793	-4.80622	1.79944	-4.51725	-34.7339	0.344067	-1.92019	-3.33591	0.310869
0.2880	-1.06622	-8.33343	-5.41719	-1.85942	-6.34857	-37.7801	-1.19412	-7.72542	-6.37623	0.310869
0.2887	-5.02094	-8.94787	-2.6475	-0.659793	-3.29637	-36.257	7.34684	-7.72542	-5.44724	0
0.2893	-6.86259	-6.52849	0.407307	3.32896	0.976703	-32.5977	13.1555	-6.20713	-2.40692	0
0.2900	-7.46355	-6.83571	-1.14046	2.39925	0.976703	-33.824	7.34684	-10.1368	-3.33591	0
0.2907	-7.46355	-8.0262	-3.5843	0.569821	0.671484	-35.6438	0.344067	-12.2803	-6.08064	0.310869
0.2913	-7.77373	-8.94787	-6.02815	-0.659793	0.061044	-37.1669	-3.01565	-11.0746	-8.2342	0
0.2920	-6.55242	-7.71898	-6.63911	-0.329896	0.976703	-36.5735	-3.31924	-8.93112	-7.89639	0.310869
0.2927	-6.55242	-4.37793	-2.36238	3.02905	5.555	-32.301	0.951244	-5.58195	-3.63149	0.310869
0.2933	-8.68486	-3.76348	0.692422	3.32896	7.38632	-30.7581	3.70378	-3.12589	-1.18235	0
0.2940	-7.77373	-5.60682	1.91434	1.19962	7.38632	-31.3713	3.07636	-1.92019	-1.81575	-0.310869
0.2947	-1.97736	-8.94787	4.96915	-0.329896	6.77588	-32.301	2.1656	-3.12589	-1.81575	0
0.2953	0.465261	-14.1323	5.29499	-4.31865	4.33412	-35.6438	-0.586938	-6.78765	-3.33591	0.310869
0.2960	0.465261	-14.7467	4.96915	-5.51827	4.33412	-35.6438	0.344067	-5.26936	-2.40692	0
0.2967	8.70425	-10.1768	7.73884	-1.55951	7.99676	-32.8944	5.52531	0.848457	1.85797	0.310869
0.2973	19.696	-8.33343	8.02395	-1.2596	8.6072	-33.5076	6.73967	3.88504	3.37813	0.310869
0.2980	26.7137	-8.33343	7.12788	-2.48922	7.38632	-43.8921	4.00737	5.40333	2.44915	0.310869
0.2987	29.4471	-7.71898	4.35819	-3.68884	5.86022	-61.8921	2.46919	6.60903	0.6334	0.310869
0.2993	26.7137	-5.2996	-0.814614	-4.61855	4.63934	-72.2766	1.55842	7.85939	-2.11133	0.310869
0.3000	22.1386	0.499238	-3.86942	-0.329896	6.47066	-70.7338	2.46919	13.0394	-1.18235	0.310869
0.3007	12.058	4.76196	-6.63911	3.02905	8.6072	-68.914	2.46919	15.1829	0.0422267	0
0.3013	-1.35701	4.14751	-11.5268	1.49953	7.38632	-71.0503	-2.40847	13.6646	-2.70251	0
0.3020	-9.90617	1.11368	-14.8667	-1.2596	4.94456	-73.4832	-6.37536	12.4143	-5.78506	0.310869
0.3027	-4.41997	-0.422432	-14.5409	-0.959699	4.33412	-72.5733	-5.46459	14.2451	-6.08064	0.310869
0.3033	9.61538	0.806461	-11.8119	1.49953	5.555	-69.8239	-2.71206	19.7378	-4.56048	0.310869
0.3040	6.5718	0.806461	-9.69391	2.39925	6.16544	-66.7778	-1.19412	22.819	-3.63149	0.310869
0.3047	5.04032	-2.53459	-7.86103	0.869727	5.86022	-66.1646	-0.26311	18.2195	-3.92708	0.310869
0.3053	21.5183	-6.83571	-6.31326	-0.959699	5.24978	-66.4613	1.86201	12.1017	-4.56048	0
0.3060	35.2629	-10.484	-5.09134	-2.48922	3.11324	-66.7778	2.77278	7.85939	-5.78506	0.310869
0.3067	46.8556	-10.484	-3.25846	-1.2596	3.41846	-64.9382	1.86201	9.37768	-6.67182	0.310869
0.3073	61.4919	-5.2996	-1.75142	2.69915	6.16544	-60.0525	2.77278	17.0138	-4.56048	0.310869
0.3080	85.2978	-0.729655	-3.25846	4.22867	7.69154	-57.0064	2.1656	22.1938	-2.70251	0.310869
0.3087	78.5902	0.192014	-6.31326	1.19962	6.47066	-56.7097	0.0404785	22.1938	-2.70251	0
0.3093	28.2452	-1.65132	-7.86103	-2.48922	4.0289	-56.7097	-1.80129	19.1573	-2.70251	-0.310869
0.3100	-7.77373	-2.53459	-6.31326	-2.78912	4.0289	-55.1866	0.951244	17.5943	-1.52016	0
0.3107	-34.3323	-3.45626	-2.03654	-0.959699	5.555	-52.1207	5.8289	13.0394	1.2668	0.310869
0.3113	-42.8621	-7.14294	0.0814614	-1.55951	5.24978	-50.9141	5.52531	-0.401901	1.85797	0
0.3120	-8.39407	-9.2551	-0.203654	-3.08903	5.24978	-50.5976	2.1656	-6.47506	1.2668	0.310869
0.3127	22.1386	-10.1768	-2.6475	-4.61855	3.41846	-50.9141	-1.4977	-8.30594	0.337813	-0.310869
0.3133	27.0239	-12.0201	-4.48038	-3.68884	1.58714	-52.1207	-5.76818	-21.1221	-1.81575	-1.24348
0.3140	19.0757	-9.86954	-1.42558	-1.55951	4.0289	-49.9844	-5.46459	-23.2656	0.337813	-0.310869
0.3147	3.81901	-8.94787	0.407307	-3.68884	6.16544	-47.8482	-4.55383	-12.2803	2.15356	0.621738
0.3153	-9.90617	-11.0984	0.692422	-5.21836	6.47066	-47.235	-4.25024	-10.4494	1.85797	0
0.3160	-15.1016	-12.6346	3.74723	-4.31865	6.77588	-46.6416	-2.71206	-12.9055	2.15356	0
0.3167	-16.6331	-15.0539	3.13627	-7.04779	5.86022	-47.8482	-4.25024	-11.9677	0.337813	0.310869
0.3173	-17.8544	-15.9756	2.85115	-8.2774	5.555	-47.5515	-5.76818	-8.03801	-0.591174	0.310869
0.3180	-12.9691	-15.6684	6.51691	-6.14807	7.69154	-44.802	-3.62282	-5.26936	1.56239	0.310869
0.3187	-11.4377	-14.4395	9.85683	-4.31865	9.82808	-41.4394	-1.19412	-4.64418	4.01153	0
0.3193	-20.5878	-13.825	8.3498	-4.31865	9.52286	-40.2328	-0.890526	-6.20713	4.60271	0
0.3200	-31.8897	-13.5178	3.74723	-6.44798	7.99676	-41.4394	-3.62282	-7.10024	1.56239	0
0.3207	-34.9333	-9.86954	1.62923	-5.21836	8.6072	-39.0064	-3.31924	0.223278	2.44915	0
0.3213	-11.1275	-2.22737	-0.814614	-3.38894	8.91242	-35.3471	-0.890526	9.06509	5.19388	0
0.3220	36.174	3.84029	-6.92422	-3.68884	7.38632	-34.7339	-1.19412	14.2451	4.8983	0
0.3227	49.8992	6.29807	-8.7571	-2.15932	7.69154	-33.5076	-0.890526	20.6756	5.19388	0
0.3233	22.7396	4.45474	-6.92422	-2.78912	7.99676	-33.5076	-1.19412	22.819	4.8983	0
0.3240	6.5718	0.499238	-7.25007	-4.91846	6.77588	-34.1208	-2.71206	20.9881	3.67372	0.310869
0.3247	28.2452	-2.84181	-5.41719	-4.61855	6.47066	-32.5977	-3.31924	25.2304	3.37813	0
0.3253	97.821	-5.60682	0.0814614	-3.68884	7.99676	-30.7581	-2.40847	30.4105	3.37813	0
0.3260	157.316	-6.22127	3.13627	-3.38894	8.30198	-28.9384	-2.40847	24.9178	3.37813	0.310869
0.3267	158.247	-7.14294	4.68403	-2.78912	8.30198	-27.4153	-3.62282	14.5577	3.37813	0
0.3273	142.99	-9.86954	6.19107	-1.85942	9.52286	-28.0285	-3.31924	10.2708	3.08255	0
0.3280	112.167	-12.3273	5.90595	-3.08903	9.21764	-28.6219	-4.25024	5.71592	0.928987	0
0.3287	77.0588	-12.0201	5.58011	-2.15932	9.82808	-26.4856	-3.62282	1.11639	0.928987	0.310869
0.3293	83.1653	-11.4057	7.41299	0.569821	11.3542	-23.4395	-1.80129	-0.71449	3.08255	0
0.3300	77.6791	-11.0984	9.24587	1.49953	11.9646	-21.3032	-1.19412	-0.401901	4.30712	0
0.3307	23.0498	-6.83571	6.51691	1.19962	11.9646	-20.69	-1.80129	4.77815	4.01153	0
0.3313	-19.0757	-0.115209	-0.203654	0.569821	10.4385	-21.0065	-2.71206	9.06509	3.08255	0.310869
0.3320	-32.8009	5.06918	-2.6475	1.49953	10.4385	-18.5538	-1.19412	10.5834	4.60271	0.310869
0.3327	-67.8893	5.3764	-3.86942	-0.0299906	9.52286	-17.6439	-1.80129	10.0029	4.01153	0
0.3333	-108.483	5.06918	-5.7023	-1.55951	7.38632	-17.3472	-3.62282	7.85939	2.78696	0
0.3340	-99.0229	7.21974	-3.25846	0.869727	8.6072	-13.3714	-0.890526	6.60903	6.75627	0
0.3347	-47.7474	3.26425	1.30338	-0.0299906	9.21764	-12.145	0.0404785	1.11639	7.64303	0
0.3353	8.70425	-4.07071	6.19107	-2.15932	7.99676	-12.145	-1.19412	-5.26936	6.41846	0.310869
0.3360	17.2534	-9.86954	6.80203	-5.21836	5.86022	-13.0747	-3.92641	-9.24371	4.8983	0
0.3367	-24.2517	-8.94787	2.24019	-6.74788	4.63934	-12.4615	-6.07177	-8.30594	4.01153	0.310869
0.3373	-51.4113	1.11368	-0.203654	-2.15932	7.69154	-6.05272	-1.19412	4.51022	8.57202	0.310869
0.3380	-83.4561	7.83419	-4.19526	-1.2596	8.30198	-3.91647	0.647656	16.076	10.3878	0.310869
0.3387	-117.633	5.68363	-4.80622	-3.98875	6.47066	-4.52965	-1.4977	18.2195	8.57202	0.310869
0.3393	-88.9423	0.192014	-0.203654	-5.51827	5.86022	-4.52965	-2.10488	16.076	7.64303	0.310869
0.3400	-55.3854	-6.83571	1.91434	-7.67759	4.0289	-5.43954	-4.55383	9.69027	5.82728	0.310869
0.3407	-61.7827	-3.76348	3.74723	-4.31865	5.555	-0.553844	-2.10488	10.896	8.57202	0.310869
0.3413	-63.004	4.14751	2.85115	-1.55951	7.69154	3.10548	1.25483	17.0138	11.6123	0.310869
0.3420	-47.4566	4.14751	-2.36238	-3.68884	6.77588	1.58241	-0.890526	15.1829	9.16319	0
0.3427	-18.1452	1.11368	-6.02815	-5.51827	4.94456	0.356043	-3.92641	10.5834	6.41846	0
0.3433	-6.24224	-0.115209	-8.7571	-6.74788	1.89236	-1.46373	-4.85742	-1.92019	3.37813	-1.24348
0.3440	-5.64128	2.95702	-5.09134	-3.38894	3.72368	1.58241	-0.26311	-6.78765	6.12287	-1.24348
0.3447	29.7573	4.76196	1.01827	-0.329896	7.38632	6.76481	2.77278	6.60903	11.0212	0.310869
0.3453	84.3866	0.806461	-0.203654	-3.68884	5.86022	5.85492	-1.19412	11.5211	9.16319	0.621738
0.3460	115.83	-3.45626	-1.42558	-5.84817	4.33412	4.62855	-3.01565	6.60903	7.34744	0
0.3467	76.768	-4.37793	-0.814614	-6.44798	4.33412	4.94504	-3.01565	5.71592	7.05186	0.310869
0.3473	1.06622	-2.53459	-0.529499	-6.44798	4.94456	6.15162	-3.01565	9.37768	7.05186	0.310869
0.3480	-11.7478	1.42091	1.62923	-3.68884	7.0811	8.90106	-0.586938	16.076	10.0922	0
0.3487	12.9691	2.34258	-1.42558	-3.08903	7.69154	9.51425	0.344067	13.6646	10.7256	0
0.3493	3.81901	0.806461	-6.92422	-5.21836	5.555	7.69448	-1.19412	5.40333	8.57202	0.310869
0.3500	-14.1904	-1.03688	-7.53518	-7.34769	3.11324	5.55822	-3.62282	3.57245	6.12287	0.310869
0.3507	-26.0934	-1.3441	-5.09134	-7.04779	3.11324	5.55822	-4.55383	5.71592	5.19388	0
0.3513	-38.9074	2.34258	-1.42558	-3.98875	5.555	9.21755	-1.19412	12.4143	7.34744	0
0.3520	-35.2435	4.76196	0.0814614	-1.85942	7.0811	10.7406	0.647656	17.9069	9.16319	0
0.3527	-26.0934	3.84029	0.0814614	-2.78912	6.77588	9.51425	-0.586938	15.4955	7.98084	0.310869
0.3533	-25.1628	1.42091	-1.14046	-5.51827	4.94456	7.69448	-2.71206	11.8337	6.12287	0.310869
0.3540	-24.5619	-0.422432	-3.5843	-7.34769	3.11324	5.85492	-4.25024	10.5834	4.30712	0
0.3547	-18.4553	0.806461	-2.36238	-4.91846	4.94456	7.99118	-3.01565	11.8337	6.41846	0.310869
0.3553	-8.0839	3.26425	0.692422	-1.2596	7.0811	10.7406	-0.586938	13.6646	9.501	0
0.3560	-2.57832	3.26425	-0.203654	-1.85942	6.47066	9.21755	-0.890526	14.5577	8.8676	0.310869
0.3567	-1.66718	2.6498	-2.03654	-3.98875	4.94456	6.76481	-2.71206	16.3886	6.75627	0.310869
0.3573	-2.28753	1.42091	-2.03654	-5.51827	3.72368	4.94504	-4.55383	18.2195	3.67372	0.310869
0.3580	-4.73015	1.11368	-0.814614	-3.68884	4.94456	5.55822	-4.55383	20.0504	4.01153	0
0.3587	-5.95146	2.95702	1.91434	0.869727	7.38632	8.90106	-0.586938	21.2561	7.64303	0
0.3593	3.50884	3.57147	2.85115	1.79944	7.0811	9.51425	0.647656	20.0504	8.27643	0
0.3600	20.297	3.26425	1.62923	1.19962	5.555	8.90106	-0.890526	20.9881	7.34744	0
0.3607	28.536	3.57147	-2.6475	-0.0299906	4.0289	7.08129	-2.10488	20.0504	4.8983	0
0.3613	33.4212	4.45474	-6.02815	-1.55951	3.11324	5.85492	-3.31924	18.2195	3.08255	0.310869
0.3620	45.3241	8.14141	-2.97334	0.569821	6.16544	9.51425	-0.586938	22.819	7.34744	0.310869
0.3627	63.3336	8.44864	-1.75142	0.569821	7.0811	10.1274	0.951244	24.3373	8.57202	0
0.3633	80.1217	4.76196	-4.19526	-1.85942	4.94456	7.08129	-1.4977	22.1938	5.19388	0
0.3640	66.3772	2.34258	-4.19526	-2.15932	4.63934	6.15162	-2.71206	22.5064	3.67372	0.310869
0.3647	6.88198	0.499238	-4.48038	-3.38894	4.0289	4.62855	-3.62282	19.7378	1.85797	0.310869
0.3653	-36.775	1.72813	-1.42558	-0.329896	6.77588	7.08129	-1.4977	20.363	4.01153	0.310869
0.3660	-49.8798	4.76196	2.24019	4.52858	10.4385	10.4241	0.951244	24.6499	7.64303	0.310869
0.3667	-69.1106	2.95702	1.62923	2.39925	8.6072	8.60436	-0.586938	23.087	6.41846	0
0.3673	-62.7132	-1.3441	2.24019	-1.55951	6.47066	6.76481	-2.71206	18.8447	4.8983	0
0.3680	-37.3759	-5.60682	4.35819	-4.61855	4.63934	5.24174	-3.92641	16.076	4.30712	0
0.3687	-37.0658	-7.14294	7.41299	-4.61855	4.94456	6.76481	-2.40847	17.3264	7.05186	0
0.3693	-51.4113	-6.83571	11.9748	-3.08903	7.99676	10.1274	1.55842	19.7378	12.5413	0
0.3700	-54.1641	-5.2996	11.6897	-4.31865	7.69154	10.7406	2.77278	21.2561	14.0615	0.310869
0.3707	-37.0658	-0.115209	6.19107	-6.14807	5.24978	10.1274	1.86201	25.8556	13.4703	0.310869
0.3713	-11.1275	5.68363	-2.97334	-8.87721	2.80802	8.28788	-0.586938	27.0613	11.3168	0
0.3720	15.4118	10.868	-10.9158	-10.7066	2.19758	7.37799	-2.40847	28.8922	9.501	0
0.3727	34.0416	16.0524	-12.708	-7.04779	4.33412	8.60436	0.951244	32.2414	11.0212	-0.621738
0.3733	36.174	16.6669	-13.0338	-3.68884	5.86022	6.46811	3.70378	19.1573	10.0922	-1.55434
0.3740	35.5537	13.0186	-12.097	-3.68884	6.47066	10.4241	1.86201	5.09074	8.27643	-0.310869
0.3747	30.0675	5.06918	-8.47199	-4.31865	6.16544	15.6263	-1.80129	5.40333	5.5317	0.621738
0.3753	16.6331	-3.45626	-2.36238	-2.78912	4.94456	12.8769	-3.31924	2.67934	3.37813	0
0.3760	8.70425	-4.68515	5.58011	2.69915	7.38632	15.0131	0.0404785	2.36675	4.8983	0.310869
0.3767	5.95146	-3.14904	9.53099	7.58762	9.82808	17.4461	2.46919	7.5468	5.19388	0.310869
0.3773	6.26163	-3.76348	8.63491	10.0468	9.82808	14.3999	1.25483	7.5468	1.56239	0
0.3780	9.01442	-4.37793	5.58011	10.3468	9.21764	12.8769	-1.80129	4.77815	-1.81575	0
0.3787	9.01442	-4.07071	1.91434	8.21742	7.69154	13.4901	-3.92641	4.51022	-4.26489	0.310869
0.3793	7.17277	-2.53459	1.62923	8.51733	8.6072	15.0131	-2.71206	8.7525	-3.33591	0.310869
0.3800	8.10329	-0.115209	4.35819	10.6467	11.6594	18.3758	0.647656	15.1829	0.0422267	0
0.3807	7.48294	0.192014	5.29499	9.11714	11.9646	20.1955	1.25483	16.7012	1.2668	0
0.3813	5.3505	-1.3441	3.13627	4.85848	9.21764	19.2856	-0.586938	13.0394	0.0422267	0
0.3820	7.17277	-2.53459	-0.203654	1.19962	6.47066	16.5362	-3.01565	10.0029	-3.63149	0
0.3827	10.2357	-2.22737	-1.14046	1.79944	6.77588	16.5362	-3.01565	10.2708	-6.37623	0
0.3833	12.058	0.192014	3.13627	5.45829	9.82808	20.8087	0.951244	13.9326	-4.26489	0.310869
0.3840	12.9691	1.72813	6.51691	5.75819	10.7437	23.2417	3.37995	15.7634	-0.591174	0
0.3847	13.2793	-1.03688	4.96915	1.49953	8.6072	22.0351	1.25483	13.9326	-0.591174	0
0.3853	12.3682	-4.37793	2.24019	-3.68884	6.47066	20.1955	-1.80129	10.5834	-0.88676	0
0.3860	7.79311	-4.68515	1.62923	-4.91846	6.47066	18.6725	-2.40847	9.69027	1.56239	0.310869
0.3867	5.95146	-3.14904	3.74723	-3.98875	8.91242	19.2856	-0.586938	11.8337	8.57202	0.310869
0.3873	6.26163	-1.03688	5.90595	-1.85942	12.2698	20.1955	1.55842	13.9326	2.15356	0
0.3880	-0.155087	-2.22737	4.96915	0.569821	11.6594	17.1494	0.647656	11.8337	-35.9771	0.310869
0.3887	-4.73015	-4.99238	2.85115	2.39925	9.21764	13.4901	-2.40847	8.43991	-70.4763	0.310869
0.3893	-7.77373	-5.60682	2.85115	3.02905	8.6072	11.6505	-3.01565	7.85939	-84.4956	0
0.3900	-21.4989	-3.14904	4.96915	3.32896	10.4385	11.967	-1.19412	11.5211	-86.9447	0
0.3907	-29.7379	0.192014	6.19107	0.569821	13.1855	13.7868	1.25483	15.7634	-15.835	0.310869
0.3913	-20.898	0.806461	3.74723	-5.21836	12.2698	11.3538	0.344067	15.7634	72.3343	0.310869
0.3920	-13.2599	-1.3441	0.407307	-7.9775	9.21764	5.55822	-2.71206	13.0394	28.0807	0.310869
0.3927	-18.4553	-2.53459	-0.814614	-7.9775	7.99676	2.80878	-4.55383	11.5211	-90.914	0.310869
0.3933	-22.7202	-0.729655	0.407307	-5.51827	9.21764	4.01537	-2.71206	13.352	-198.339	0.310869
0.3940	-18.4553	2.95702	3.46211	0.569821	12.5751	6.76481	0.951244	17.9069	-305.13	0.310869
0.3947	-1.66718	2.03535	4.35819	-0.959699	12.5751	5.85492	1.25483	18.2195	-316.151	0.310869
0.3953	43.5019	-1.92014	1.30338	-14.3655	8.91242	2.1956	-1.80129	13.6646	-198.339	0.310869
0.3960	95.6886	-0.422432	-1.42558	-16.8247	8.6072	0.356043	-3.31924	13.9326	-146.78	0
0.3967	108.192	4.14751	-2.03654	-0.0299906	11.3542	0.969227	-2.40847	18.8447	-224.899	0
0.3973	55.6956	5.99085	0.407307	4.85848	14.1012	6.15162	0.647656	20.9881	-166.584	0
0.3980	-12.0386	3.84029	2.24019	-14.3655	15.6273	10.1274	2.1656	17.0138	62.8755	0.310869
0.3987	-32.1805	-0.422432	0.692422	-25.9718	16.2377	7.37799	0.344067	7.23421	159.955	0.621738
0.3993	-25.1628	-2.53459	-0.203654	-21.0834	16.5429	4.94504	-0.890526	-1.29501	168.78	0
0.4000	-24.5619	-2.22737	1.62923	-20.7835	16.8481	5.55822	-0.586938	-2.8133	208.135	0
0.4007	-25.473	-1.92014	5.90595	-18.0543	16.8481	7.69448	0.647656	3.57245	190.78	0.310869
0.4013	-16.3229	-2.53459	8.3498	-7.67759	14.7116	8.28788	0.951244	8.17198	145.598	0.310869
0.4020	-9.30521	-1.3441	5.58011	-0.959699	11.049	6.76481	-0.890526	8.43991	105.609	0.310869
0.4027	-5.02094	1.42091	0.0814614	2.39925	7.0811	3.71867	-3.31924	8.43991	43.958	0.310869
0.4033	16.9432	3.57147	-2.03654	8.21742	6.16544	1.58241	-3.31924	10.5834	-25.9272	0
0.4040	41.0592	5.3764	0.692422	20.7235	9.52286	4.01537	-0.890526	14.8703	-79.6395	0.310869
0.4047	38.9074	5.06918	3.46211	31.4001	11.3542	7.99118	0.344067	13.352	-145.555	0
0.4053	29.1563	0.806461	2.24019	21.9231	9.82808	4.62855	-1.19412	-1.6076	-223.041	-1.86521
0.4060	59.0493	-1.65132	0.407307	4.85848	8.6072	2.4923	-2.71206	-7.41283	-172.707	-0.932607
0.4067	104.839	2.34258	1.30338	6.0581	10.1333	7.69448	-1.80129	6.60903	4.60271	0.932607
0.4073	107.572	5.68363	2.24019	9.41704	11.6594	8.60436	-0.586938	14.2451	176.423	0.310869
0.4080	78.9004	5.06918	2.85115	3.32896	12.2698	7.08129	-0.26311	11.5211	271.94	0
0.4087	50.2094	2.6498	3.13627	14.9053	11.6594	6.76481	0.0404785	7.5468	210.584	0.310869
0.4093	28.2452	-1.3441	1.01827	47.2652	8.91242	3.71867	-1.19412	-0.401901	66.5493	0.310869
0.4100	18.1645	-1.92014	1.30338	62.8303	8.91242	3.42196	-0.890526	-4.37625	-31.1211	0
0.4107	17.2534	0.192014	3.46211	39.9475	11.6594	5.85492	0.951244	-2.54537	-75.6702	0
0.4113	17.5636	0.499238	3.13627	25.9119	12.5751	4.94504	1.86201	-0.71449	-156.83	0.310869
0.4120	18.4747	1.11368	4.07307	60.401	11.9646	4.33185	3.37995	1.11639	-239.848	0.310869
0.4127	18.1645	2.6498	5.58011	75.9662	11.3542	6.46811	4.91813	3.25986	-121.148	0
0.4133	16.0321	2.6498	5.29499	33.8294	10.1333	6.76481	5.8289	4.19763	49.7853	0
0.4140	14.5006	1.72813	5.29499	8.51733	9.82808	7.99118	7.34684	5.09074	-30.1921	0.310869
0.4147	12.3682	0.499238	3.74723	21.0234	9.52286	10.4241	5.52531	3.57245	-148.891	0.310869
0.4153	10.2357	-1.03688	2.24019	30.8003	7.69154	12.5604	2.77278	2.36675	-57.6394	0.310869
0.4160	10.2357	-0.422432	4.35819	29.8706	8.6072	15.6263	4.61455	5.40333	-5.44724	0.310869
0.4167	9.01442	0.806461	5.90595	30.1705	10.4385	16.5362	5.22172	7.85939	-60.3842	0.621738
0.4173	7.17277	0.806461	5.58011	13.7057	11.3542	17.4461	3.37995	8.17198	3.08255	0.310869
0.4180	5.04032	-0.115209	4.96915	-50.6841	10.4385	18.0593	1.25483	6.60903	39.1019	0
0.4187	1.68657	-3.45626	2.5253	-80.9146	9.21764	13.7868	-3.31924	2.67934	-97.6281	0
0.4193	0.775434	-3.14904	2.85115	-18.6541	12.8803	12.2637	-5.16101	3.88504	-133.014	0
0.4200	1.3764	-0.422432	5.58011	45.4357	16.5429	13.7868	-3.92641	6.92162	-52.15	0
0.4207	-0.155087	0.499238	5.90595	57.0421	14.1012	15.3098	-3.31924	6.92162	-64.6913	0.310869
0.4213	-1.97736	-0.115209	3.74723	70.4479	7.0811	18.3758	-3.92641	6.02851	-153.156	0
0.4220	-3.79963	-1.3441	1.30338	118.073	0.061044	20.512	-4.85742	5.09074	-320.12	0
0.4227	-4.73015	-0.115209	2.5253	137.897	-1.15984	23.5582	-1.80129	8.17198	-439.749	0
0.4233	-4.73015	0.806461	3.74723	122.032	-0.549396	27.5142	2.46919	10.5834	-311.844	0.310869
0.4240	-5.64128	-0.115209	3.13627	61.0009	-0.549396	29.057	4.61455	12.1017	34.2036	0.621738
0.4247	-7.77373	-1.3441	2.5253	-165.428	0.061044	27.5142	5.8289	7.85939	363.192	-0.621738
0.4253	-9.61538	-3.76348	1.62923	-371.134	0.061044	27.8307	7.34684	-0.0893112	489.534	-0.932607
0.4260	-9.90617	-2.22737	2.85115	-255.46	2.80802	34.5361	11.0101	6.3411	463.607	0.310869
0.4267	-10.2163	1.11368	4.07307	-9.50702	4.33412	40.3317	13.7627	14.2451	340.896	0.621738
0.4273	-10.5265	1.72813	0.692422	116.543	-0.549396	42.7845	12.5483	11.8337	174.565	0
0.4280	-11.1275	2.34258	-4.80622	140.356	-7.26423	44.3075	10.0994	9.69027	39.9887	0
0.4287	-12.3488	2.6498	-7.25007	83.5838	-11.2321	44.6042	8.27785	8.7525	-94.2922	0
0.4293	-13.8803	2.6498	-7.25007	-2.78912	-11.5373	44.6042	7.04325	8.17198	-275.234	0.310869
0.4300	-16.0127	2.34258	-5.7023	17.9644	-10.6216	46.1471	6.43608	8.17198	-364.965	0.310869
0.4307	-16.9239	2.03535	-2.36238	159.58	-9.40077	46.7405	6.43608	8.7525	-291.702	0
0.4313	-18.4553	1.72813	-1.75142	275.524	-8.48511	43.0812	4.61455	8.7525	-140.066	0
0.4320	-21.2081	-0.422432	-0.529499	269.435	-8.48511	38.5119	1.86201	8.43991	76.3036	0.621738
0.4327	-22.7202	-2.22737	8.3498	189.181	-7.56945	39.4218	2.1656	8.17198	134.914	-0.310869
0.4333	-23.0304	-1.3441	10.4678	122.632	-5.12769	41.2614	5.52531	3.57245	14.0615	-1.86521
0.4340	-22.4294	-1.3441	0.0814614	122.632	-4.21203	40.9449	7.04325	2.94727	-32.6412	-0.621738
0.4347	-25.473	-2.84181	-6.02815	191.31	-6.95901	40.035	2.77278	7.23421	-45.1403	0.621738
0.4353	-27.6055	-1.92014	-3.5843	267.606	-8.17989	39.7383	-1.19412	9.06509	-130.903	0.310869
0.4360	-24.8721	1.11368	-1.42558	271.565	-6.04335	42.7845	0.647656	12.7269	-287.141	0.310869
0.4367	-22.1193	3.26425	1.30338	-18.9541	-6.95901	47.6701	4.00737	16.7012	-332.915	0.310869
0.4373	-22.4294	1.11368	12.3007	-508.46	-11.5373	47.6701	4.61455	13.0394	-171.778	0.310869
0.4380	-25.1628	-4.99238	27.2488	-573.78	-12.1477	43.0812	2.1656	8.43991	34.4992	0.310869
0.4387	-24.2517	-6.52849	33.0326	-267.366	-7.26423	43.0812	3.37995	11.5211	260.961	0.310869
0.4393	-22.7202	-4.99238	28.1857	-142.245	-5.12769	45.5339	6.13249	13.0394	379.66	0.310869
0.4400	-26.3841	-5.91405	20.5283	-191.07	-4.51725	43.6943	5.22172	10.5834	139.475	0.310869
0.4407	-29.1369	-10.1768	11.6897	-207.565	-1.46505	37.8988	3.07636	10.5834	-183.982	0
0.4413	-27.3147	-15.0539	4.96915	-170.317	-1.15984	32.1032	0.647656	10.0029	-157.125	0
0.4420	-27.6055	-15.3612	3.74723	-126.98	1.58714	29.6504	0.647656	10.0029	56.4993	0
0.4427	-24.5619	-11.7129	7.41299	-94.3204	7.38632	29.3537	3.70378	12.4143	134.323	0.310869
0.4433	-13.5701	-0.422432	19.0212	-58.3317	10.1333	27.5142	5.52531	12.7269	176.719	0.310869
0.4440	-10.5265	10.2536	29.6927	-4.31865	9.82808	24.7845	4.61455	7.5468	254.247	0.310869
0.4447	-15.4118	7.21974	29.9778	84.1836	10.1333	23.2417	3.37995	2.05416	308.55	0
0.4453	-12.0386	3.26425	30.5888	200.157	14.7116	24.468	6.13249	4.77815	354.62	0.310869
0.4460	-10.5265	5.3764	30.9146	287.76	17.7638	25.9911	9.18861	9.69027	304.581	0.310869
0.4467	-17.5442	8.75586	14.7445	315.531	18.069	26.3076	10.0994	12.1017	158.392	0.310869
0.4473	-33.4018	13.633	-16.0886	324.678	15.6273	23.2417	9.79579	15.4955	41.2132	0.310869
0.4480	-62.4031	18.203	-42.3192	330.466	9.52286	16.2395	6.43608	18.2195	-41.8044	0.310869
0.4487	-77.0588	17.2813	-42.9302	301.465	7.69154	12.5604	5.52531	21.2561	-15.835	0.310869
0.4493	-62.4031	4.45474	-22.4834	225.169	7.38632	9.21755	5.8289	21.5687	197.156	0.310869
0.4500	-33.4018	-8.33343	-10.59	167.497	5.555	1.87911	2.77278	19.4252	320.458	0
0.4507	-13.2599	-12.6346	-12.4229	216.322	6.77588	-3.91647	1.55842	21.2561	237.145	0
0.4513	-19.0757	-10.1768	-18.8176	199.557	7.69154	-9.71205	1.25483	24.3373	143.148	0.310869
0.4520	-26.6943	9.94635	-23.4202	-75.4263	7.99676	-14.2813	0.344067	29.83	61.651	0.310869
0.4527	-29.7379	27.9573	-25.864	-256.39	11.9646	-18.8703	1.55842	35.3226	18.622	0.310869
0.4533	-34.3323	30.1079	-29.2039	-88.2323	15.6273	-24.6658	3.07636	35.6352	94.9256	0.310869
0.4540	-37.0658	35.9067	-37.7574	68.0187	15.0168	-35.9603	3.70378	31.0357	226.462	0.310869
0.4547	-41.6408	13.9403	-50.2617	32.6298	11.3542	-47.8482	3.37995	22.1938	270.124	0.310869
0.4553	-42.5713	-51.6903	-49.9766	-10.1068	8.91242	-46.3251	5.52531	15.7634	156.577	0.310869
0.4560	-38.5972	-78.5339	-52.4204	-12.2362	8.30198	-40.2328	10.403	16.3886	-93.3632	0
0.4567	-36.1546	-22.3889	-63.7028	-124.551	5.555	-38.0966	13.7627	20.9881	-442.156	0.310869
0.4573	-34.3323	55.4154	-5.41719	-392.487	8.91242	-32.8944	15.3009	24.3373	-690.913	0.310869
0.4580	-34.3323	82.2974	112.376	-585.356	18.9847	-28.0285	15.3009	23.7121	-681.75	0
0.4587	-37.3759	79.5324	182.596	-513.349	23.2577	-27.4153	13.7627	21.5687	-524.582	0
0.4593	-39.2176	89.6324	177.382	-319.55	27.836	-24.0527	12.8519	21.5687	-182.757	0.310869
0.4600	-40.1287	91.1301	169.155	-233.807	35.1613	-20.0768	11.3137	21.8813	287.817	0.310869
0.4607	-41.35	60.3309	253.101	-200.547	36.6874	-17.3472	8.58144	25.8556	432.443	0
0.4613	-40.1287	10.868	338.228	-99.2089	33.0248	-13.3714	8.58144	29.2048	195.045	-0.310869
0.4620	-39.8185	-31.5288	264.057	-5.21836	26.3099	-10.6219	9.4922	22.1938	-150.411	0.310869
0.4627	-41.6408	-57.4891	136.204	21.3233	16.2377	-10.9384	9.18861	20.9881	-523.949	0.310869
0.4633	-43.7926	-49.847	144.146	3.32896	3.72368	-17.9406	5.52531	22.5064	-762.318	-1.24348
0.4640	-45.3047	-4.99238	214.325	-19.8838	-2.68593	-23.4395	1.55842	16.3886	-749.481	-0.932607
0.4647	-43.4825	28.5718	132.538	-26.5717	-3.29637	-21.0065	3.70378	20.363	-596.579	0.621738
0.4653	-41.35	34.6778	-81.0949	-47.955	-3.90681	-13.0747	7.34684	31.0357	-337.18	0.621738
0.4660	-40.7297	38.3261	-156.447	-111.715	-0.244176	1.28571	8.88503	41.3958	77.5282	0
0.4667	-41.6408	39.8622	-54.2126	-134.928	3.11324	11.967	8.88503	48.7193	357.998	0.310869
0.4673	-41.6408	34.985	-19.7544	-36.6485	1.58714	12.8769	5.8289	49.3445	365.641	0.310869
0.4680	-40.1287	31.3368	-101.827	55.8125	0.671484	12.8769	4.31096	50.2822	415.046	0.310869
0.4687	-42.8621	13.633	-151.6	42.0768	4.33412	17.1494	5.22172	55.1497	410.19	0
0.4693	-44.3936	-30.3383	-122.885	54.8828	14.1012	21.7186	6.43608	56.668	166.035	0
0.4700	-42.5713	-40.7071	-85.9825	191.91	22.9525	20.512	4.91813	43.2266	-79.9351	0.310869
0.4707	-46.5261	0.192014	-127.487	327.407	22.9525	14.3999	-0.26311	27.3739	-133.014	0.310869
0.4713	-50.5001	16.0524	-215.669	362.196	25.6995	13.4901	-3.62282	28.5796	-90.3229	0.310869
0.4720	-50.19	-15.3612	-199.173	371.973	36.3822	17.7626	-3.62282	35.9031	-97.9237	0.310869
0.4727	-54.765	-35.8299	-117.101	401.274	42.1814	20.1955	-3.62282	35.01	-54.0079	0
0.4733	-72.4643	-61.4446	-89.0374	374.732	34.8561	22.0351	-3.31924	31.6608	18.3264	0
0.4740	-92.0053	-116.668	-82.9277	300.866	20.2056	20.1955	-1.19412	32.5539	-12.7947	0.310869
0.4747	-65.4466	-121.584	-92.7031	298.106	13.7959	11.3538	-0.26311	30.7231	-36.2727	0.310869
0.4753	5.04032	-57.7964	-109.158	316.131	13.4907	4.62855	-2.10488	20.9881	61.651	0.310869
0.4760	35.2629	-2.84181	-87.2045	220.011	6.47066	4.01537	-1.4977	9.06509	283.552	0.310869
0.4767	7.79311	-12.9418	-56.9823	43.0065	-10.0112	-5.12306	1.25483	-2.54537	418.424	0
0.4773	-16.3229	-51.3831	-48.4288	-70.8378	-26.1879	-24.6658	-1.80129	-15.0489	311.295	0.310869
0.4780	-8.99504	-97.4665	-52.7056	-144.675	-33.5131	-34.1208	-4.55383	-17.7729	152.312	0
0.4787	13.8997	-138.98	-52.4204	-288.12	-35.0392	-34.1208	0.0404785	-4.95677	52.1922	0.310869
0.4793	52.652	-68.4724	-34.9877	-344.892	-27.1035	-32.5977	4.61455	11.8337	-12.1613	0.310869
0.4800	76.4578	48.7333	-18.2066	-196.888	-13.0634	-33.5076	1.86201	21.2561	-3.04032	0.310869
0.4807	11.7478	69.1636	-17.5957	-47.3251	-6.65379	-36.5735	-4.85742	22.1938	120.895	0.310869
0.4813	-63.9345	77.4202	-26.1491	-48.8547	-8.48511	-30.7581	-5.76818	26.4808	275.909	0.310869
0.4820	-53.2529	150.962	-38.9793	-106.856	-11.5373	-19.167	-4.55383	37.1535	264.592	0.310869
0.4827	-32.4907	198.274	-57.5932	-159.04	-10.9269	-14.5977	-7.28613	47.201	104.089	0
0.4833	-70.9522	151.576	-75.5962	-184.982	-8.17989	-13.9846	-12.184	44.7896	-16.4684	0
0.4840	-131.378	59.7165	-76.8181	-184.352	-2.07549	-11.2351	-15.2199	30.1425	-29.8965	0
0.4847	-127.094	18.8174	-60.648	-296.367	3.11324	-8.18898	-17.0617	13.0394	24.1537	0.310869
0.4853	-74.9069	25.5379	-39.2644	-404.993	4.63934	0.356043	-16.1509	-1.29501	125.16	0.310869
0.4860	-66.067	-38.2493	-31.0368	-294.538	7.38632	8.28788	-14.6127	-15.9421	328.101	0
0.4867	-81.0135	-108.143	-34.0916	-122.092	13.1855	5.24174	-15.2199	-31.2143	482.524	0.310869
0.4873	-78.881	-73.0423	-13.9299	-17.1246	23.563	3.10548	-10.9494	-33.9829	394.017	0
0.4880	-77.0588	-23.925	13.1968	31.7001	30.8882	3.10548	-6.37536	-27.5525	218.819	0.310869
0.4887	-57.5178	-10.7912	5.90595	-20.1837	32.7196	4.33185	-7.28613	-21.7473	126.976	0.310869
0.4893	-0.445875	-10.1768	-5.41719	-139.816	38.2135	12.5604	-10.0387	-15.9421	86.1002	0
0.4900	45.014	-18.4334	3.13627	-234.706	44.9284	18.0593	-14.6127	-23.2656	61.651	0.310869
0.4907	55.6956	-25.4227	15.0296	-254.56	48.5605	21.7186	-16.1509	-33.6703	91.5897	0.310869
0.4913	56.0057	-34.2938	30.9146	-231.048	45.5388	26.3076	-11.8602	-35.8138	111.394	0
0.4920	51.1205	-51.0758	48.6325	-207.235	36.3822	24.1713	-5.76818	-34.876	19.8465	0.310869
0.4927	56.6261	-56.8747	53.4794	-133.098	27.836	28.1274	1.25483	-31.5269	-88.4649	0
0.4933	75.8375	-26.9588	48.9176	-29.9306	18.069	39.7383	4.61455	-37.3321	-104.976	-1.24348
0.4940	62.1123	5.99085	50.4246	38.7178	8.6072	45.8306	6.43608	-40.0561	-68.9562	-0.932607
0.4947	12.9691	1.11368	52.2575	134.538	5.86022	48.2833	8.27785	-25.7216	-148.891	0.621738
0.4953	9.92556	-12.0201	48.0215	287.13	10.1333	44.9207	11.0101	-13.5307	-436.371	0.310869
0.4960	50.5195	-9.56232	40.079	385.109	8.91242	42.1713	12.8519	-9.24371	-637.496	0
0.4967	56.9169	-4.68515	32.7475	352.15	-4.21203	44.0108	4.61455	-4.64418	-546.836	0
0.4973	32.1999	-2.53459	28.1857	279.212	-21.3043	45.8306	-9.43149	-0.0893112	-290.52	0.310869
0.4980	4.12919	0.499238	25.1309	221.51	-36.5653	49.1932	-15.2199	7.5468	59.244	0.310869
0.4987	-3.50884	5.06918	20.8541	163.539	-50.9107	51.9427	-10.6458	22.819	303.99	0
0.4993	14.5006	8.75586	13.8077	116.843	-63.4247	53.4657	-9.1279	34.3848	283.552	0
0.5000	25.4924	9.37031	7.41299	39.0178	-69.5291	58.3514	-12.184	36.2157	187.402	0.310869
0.5007	-23.0304	10.5608	4.68403	-33.6194	-67.6978	61.6943	-11.5566	37.1535	164.22	0.310869
0.5013	-112.748	11.4825	6.51691	-62.8903	-65.8664	62.0108	-7.8933	41.1278	133.099	0.310869
0.5020	-152.121	9.94635	12.5858	-148.963	-65.256	65.0569	0.344067	45.9953	66.5493	0.310869
0.5027	-133.51	7.52697	15.3555	-276.213	-57.9307	69.9426	7.97426	45.6827	42.4378	0.310869
0.5033	-100.554	5.06918	13.5226	-317.12	-52.4368	75.125	6.43608	36.8409	103.498	0
0.5040	-45.014	4.14751	10.1419	-253.031	-40.228	79.3975	0.951244	28.3117	213.034	0
0.5047	43.1917	5.68363	6.19107	-175.205	2.80802	79.1008	-2.71206	20.0504	277.429	0.621738
0.5053	100.264	9.06308	7.12788	-163.599	48.2552	87.3293	2.1656	9.69027	318.938	0.621738
0.5060	69.13	9.06308	11.6897	-183.752	62.9058	99.237	12.2447	3.57245	368.681	0.310869
0.5067	-4.73015	4.45474	13.8077	-177.964	59.8536	97.7139	16.2116	2.94727	360.743	0
0.5073	-47.1464	-1.65132	15.9664	-126.38	63.211	103.213	18.3368	2.36675	325.357	0.310869
0.5080	-41.6408	-9.2551	21.4651	-84.5735	83.966	126.098	21.3929	-2.23278	302.132	0.310869
0.5087	-0.445875	-13.249	27.2488	-94.6503	104.416	140.439	22.6072	-10.4494	273.46	0.310869
0.5093	40.7491	-11.0984	29.0817	-86.7028	108.078	137.076	22.3036	-24.5159	258.512	0.310869
0.5100	44.7232	-10.484	28.7559	-76.9259	94.0382	131.281	15.6045	-44.343	219.156	0.310869
0.5107	35.2629	-11.7129	27.5747	-76.626	68.0945	120.6	6.43608	-57.4718	105.905	0.621738
0.5113	-1.97736	-7.14294	23.298	-7.04779	41.2657	95.5777	2.77278	-58.0523	-7.30522	0.310869
0.5120	-84.6774	1.42091	21.4651	108.296	13.7959	68.7162	7.34684	-47.067	-72.2921	0
0.5127	-88.6515	5.68363	26.3528	200.757	-13.6738	49.4899	18.0332	-31.5269	-119.29	0.310869
0.5133	-7.46355	3.57147	30.3037	265.177	-43.8906	30.8768	22.3036	-24.8285	-151.34	0.310869
0.5140	34.9527	-0.422432	24.5199	303.925	-84.7901	14.1032	14.3699	-29.0708	-104.638	0.310869
0.5147	55.0946	0.192014	16.2516	301.165	-86.3162	3.10548	5.8289	-33.3577	12.5413	0
0.5153	73.705	1.11368	8.92003	274.624	-18.2521	-8.18898	0.0404785	-35.1886	32.979	0
0.5160	55.0946	-5.2996	5.58011	242.894	21.1212	-25.5757	-8.21713	-32.42	-25.2938	0.310869
0.5167	10.8367	-15.0539	14.1336	199.857	-2.38071	-38.7097	-15.5235	-26.9273	-2.11133	0.310869
0.5173	-9.30521	-19.9311	21.1392	209.004	-16.726	-44.1888	-22.8501	-30.5891	25.6738	0
0.5180	-31.5796	-13.249	16.8625	267.906	-16.1156	-47.8482	-27.748	-26.9273	-28.0385	0
0.5187	-113.969	4.14751	9.53099	132.708	-33.2079	-58.8459	-23.1537	-1.92019	-64.9869	0.310869
0.5193	-172.263	18.8174	-0.203654	-194.429	-72.5813	-73.7997	-10.9494	22.1938	-40.5798	0.310869
0.5200	-103.288	24.6163	-9.36806	-371.733	-94.5571	-71.347	5.8289	37.4661	-28.3763	0
0.5207	51.1205	23.6946	-10.9158	-357.398	-80.8222	-58.2327	17.426	43.2266	-64.6913	0.310869
0.5213	167.707	11.4825	-3.25846	-235.336	-66.1717	-56.0965	16.5152	31.0357	-106.158	0.310869
0.5220	191.804	-5.2996	9.24587	-45.4957	-65.5612	-57.9163	12.2447	8.43991	-112.281	0
0.5227	179.61	-16.2828	18.6954	36.5885	-84.7901	-57.6196	4.00737	-9.86889	-86.9447	0.621738
0.5233	175.035	-22.6961	23.9089	-7.9775	-113.786	-58.2327	-9.73507	-20.229	-84.4956	0
0.5240	140.838	-23.0033	26.9637	-7.04779	-118.364	-52.4372	-18.276	-30.9017	-176.381	-1.55434
0.5247	63.0234	-17.5117	25.1309	57.6419	-104.019	-38.0966	-21.6357	-39.7435	-302.723	-0.621738
0.5253	27.3147	-11.7129	20.5283	45.1358	-96.0832	-11.8483	-26.5134	-36.3943	-341.783	0.621738
0.5260	55.0946	-7.45016	17.7993	-49.7844	-101.272	24.468	-29.8731	-29.0708	-338.109	0.621738
0.5267	101.175	-3.76348	13.5226	-109.586	-104.629	52.2394	-30.1767	-28.4903	-315.222	-0.310869
0.5273	171.371	-0.422432	11.0788	-91.2914	-76.2439	66.8964	-33.2328	-28.7582	-195.003	-0.932607
0.5280	182.654	1.42091	11.6897	-39.1077	-37.7862	73.9184	-37.8069	-20.229	-60.722	0.621738
0.5287	49.2982	3.57147	8.02395	21.9231	-23.4409	81.5338	-37.1997	-9.24371	-30.1921	0.621738
0.5293	-126.803	11.7897	1.62923	78.3954	-20.6939	84.5997	-36.289	-5.89454	-11.5701	0
0.5300	-197.29	18.8174	-4.80622	95.49	-25.8826	76.3514	-42.0774	-8.30594	34.7948	0.310869
0.5307	-126.183	21.8512	-3.86942	61.6007	-32.5975	79.1008	-47.5824	-7.72542	20.7755	0.310869
0.5313	16.0321	18.8174	2.5253	-7.67759	-36.8706	85.8063	-42.6846	-2.8133	7.98084	0.310869
0.5320	115.21	8.14141	4.07307	-30.8603	-41.7541	72.692	-32.6257	-0.401901	74.7835	0.621738
0.5327	122.228	0.499238	2.5253	37.8181	-41.7541	49.8064	-30.7839	1.11639	122.711	0.310869
0.5333	76.768	-2.84181	1.91434	66.789	-41.4488	42.468	-39.0213	-4.06366	70.8141	0.310869
0.5340	48.0769	-6.52849	3.74723	-18.3542	-43.8906	53.1492	-43.9191	-14.1112	1.2668	0.310869
0.5347	83.1653	-7.71898	4.96915	-80.2848	-42.0593	63.2371	-40.863	-16.8798	-27.7429	0.310869
0.5353	124.36	-6.83571	3.13627	-64.7197	-34.4288	87.0326	-25.299	-14.4238	-24.7026	0.310869
0.5360	88.3607	-2.84181	1.91434	-25.6719	-25.5774	130.668	17.7296	-5.89454	26.5606	0
0.5367	-61.7827	3.26425	4.68403	26.2118	-21.3043	152.03	62.2964	11.2086	63.8045	0.310869
0.5373	-263.822	4.45474	8.92003	46.9653	-27.4087	141.052	72.6589	25.543	52.53	0.310869
0.5380	-302.574	-1.65132	16.8625	28.0412	-34.734	129.145	54.3626	25.2304	47.3361	-0.310869
0.5387	-147.856	-9.2551	28.7559	38.4179	-31.987	135.257	26.5741	16.3886	49.4474	0
0.5393	-11.4377	-13.5178	37.9203	99.4488	-31.3766	148.687	-3.31924	12.4143	41.2132	0.310869
0.5400	79.1912	-15.9756	42.197	127.22	-33.8184	146.848	-27.748	11.8337	28.0807	0
0.5407	203.707	-17.8189	41.5861	-21.7132	-28.3244	120.303	-39.3451	11.8337	34.4992	0
0.5413	279.389	-12.9418	36.4133	-281.102	-22.5252	88.8722	-42.6846	15.4955	56.7949	0
0.5420	249.186	-5.91405	28.1857	-356.168	2.5028	48.58	-43.6156	13.352	43.0712	0
0.5427	170.15	-2.53459	11.9748	-218.242	61.0745	6.46811	-42.381	-0.0893112	1.56239	0.310869
0.5433	77.0588	5.06918	-7.25007	-105.627	107.773	7.37799	-32.9292	-7.41283	-22.2535	0.310869
0.5440	35.8638	10.868	-16.6996	-129.439	121.203	22.6483	-15.2199	-4.95677	-26.8139	0
0.5447	22.7396	5.3764	-17.9215	-186.511	119.066	22.945	9.79579	-8.61853	-1.18235	0
0.5453	-57.828	2.34258	-13.9299	-170.317	102.584	40.6482	51.0029	-10.4494	42.1422	0
0.5460	-78.5709	-0.115209	-9.97903	-142.245	80.3033	63.8305	82.738	-4.64418	57.3861	0
0.5467	-15.4118	2.03535	-7.53518	-137.657	63.5162	60.1712	77.5568	0.848457	46.1115	0
0.5473	30.9786	16.0524	-4.48038	-41.2371	40.6553	29.6504	55.5769	5.71592	7.98084	0
0.5480	48.0769	18.203	-0.814614	169.657	7.99676	-21.9164	32.0792	8.17198	-58.5684	0
0.5487	-26.3841	9.63913	7.41299	334.755	-23.7461	-85.0942	9.79579	8.17198	-96.6991	0
0.5493	-98.7128	0.192014	10.7529	395.486	-52.4368	-152.228	-15.2199	-8.93112	-88.7605	0.310869
0.5500	-100.845	-17.2045	13.8077	397.315	-71.3604	-206.861	-39.9523	-43.1373	-69.5473	0.310869
0.5507	-135.643	-32.4504	25.1309	355.179	-71.9708	-254.452	-49.7076	-65.3758	-32.6412	0.310869
0.5513	-169.82	-32.1432	29.3668	302.395	-50.3002	-309.085	-46.3479	-69.6628	31.4589	0
0.5520	-171.352	-20.2383	28.7559	141.556	16.5429	-342.968	-33.2328	-62.0267	76.6414	0.310869
0.5527	-214.679	-13.249	25.1309	-147.134	106.552	-358.218	-23.7811	-51.6665	65.6203	0
0.5533	-265.334	-8.33343	12.9116	-280.172	154.777	-343.878	-21.6357	-57.4718	20.1844	-1.55434
0.5540	-233.309	6.6053	-0.814614	-284.761	168.512	-290.768	-17.9724	-62.0267	-11.8657	-0.932607
0.5547	-149.988	19.7391	-20.0395	-350.98	175.532	-259.951	-25.6026	-43.4053	-10.05	0.621738
0.5553	-42.8621	20.968	-32.2587	-328.097	166.681	-234.929	-34.7508	-21.1221	-2.70251	0.310869
0.5560	46.5454	13.9403	-24.0311	-188.941	137.99	-183.659	-28.0516	-8.93112	-18.5797	0
0.5567	83.1653	6.29807	-12.097	-94.9502	90.6808	-150.705	-16.1509	3.25986	-38.7219	0.621738
0.5573	135.662	4.45474	-1.14046	-69.9081	38.5187	-143.366	-4.85742	24.0247	-36.2727	0.621738
0.5580	231.176	-8.0262	11.3639	-59.2314	-13.6738	-142.16	14.0663	33.8043	-25.5894	0.310869
0.5587	324.868	-30.6071	30.9146	-41.8369	-72.276	-140.32	42.1381	18.5321	-17.9886	0
0.5593	342.257	-39.4782	47.4106	-21.0834	-127.521	-146.729	52.8244	-3.43848	-13.3859	0.310869
0.5600	307.77	-33.0649	41.5861	-9.17712	-165.338	-171.454	33.9007	-14.4238	-16.764	0.310869
0.5607	243.99	-21.16	22.9721	-13.1659	-177.852	-204.408	11.3137	-5.89454	-25.9272	0
0.5613	160.98	-12.0201	4.96915	-22.0131	-177.241	-217.839	-7.58971	11.8337	-38.4263	0
0.5620	114.9	-1.03688	-3.5843	-17.1246	-163.811	-181.819	-25.6026	32.2414	-42.9868	0
0.5627	106.661	11.7897	-1.42558	-14.3655	-127.826	-151.911	-35.6818	50.5502	-34.1614	0
0.5633	180.211	10.868	-3.25846	-65.9493	-96.9988	-179.386	-41.4702	52.1131	-17.9886	0
0.5640	269.328	8.75586	-14.8667	-132.468	-85.0953	-205.931	-41.7738	49.3445	4.8983	0.310869
0.5647	278.478	10.868	-28.9188	-119.063	-74.1074	-200.135	-41.7738	47.8262	14.0615	0
0.5653	215.92	9.94635	-34.0916	-56.5023	-50.6054	-178.16	-38.7177	39.5649	8.57202	0
0.5660	18.7849	13.3258	-36.8206	-18.9541	-25.2722	-150.388	-24.3883	30.1425	7.98084	0
0.5667	-172.573	15.1691	-43.256	-5.51827	-13.6738	-131.162	-17.6689	23.087	6.12287	0.310869
0.5673	-168.289	18.5102	-34.7026	11.8763	-8.48511	-128.729	-19.4904	24.3373	5.5317	0.310869
0.5680	-201.264	25.8451	-26.475	24.6823	-8.79033	-135.435	-14.3091	28.8922	1.56239	0
0.5687	-349.275	25.5379	-29.8149	20.7235	-10.3164	-122.617	-3.01565	25.2304	-9.41655	0
0.5693	-344.68	22.1585	-22.1982	13.4058	-9.09555	-88.1403	3.07636	15.4955	-15.2438	0
0.5700	-163.113	10.2536	-13.0338	22.253	1.28192	-68.3008	-3.31924	0.848457	-21.0289	0.310869
0.5707	-53.5437	-6.83571	-10.59	61.6007	79.6929	-71.6635	-0.26311	-5.89454	-28.9675	0.310869
0.5713	-106.351	-12.9418	0.0814614	81.7543	204.528	-76.8459	13.1555	-1.6076	-37.8351	0
0.5720	-146.324	-11.7129	14.1336	45.1358	271.035	-70.7338	16.2116	-7.41283	-45.1403	0.310869
0.5727	-51.4113	-10.484	17.4735	4.22867	283.549	-49.6877	20.1785	-20.8542	-41.171	0.310869
0.5733	80.1217	-15.6684	13.8077	0.569821	270.12	-23.756	23.2346	-30.9017	-38.4263	0.310869
0.5740	84.6968	-17.2045	7.73884	10.6467	224.062	-6.34943	26.8777	-35.8138	-39.0175	0.310869
0.5747	27.6248	-4.07071	-5.09134	9.11714	173.09	36.0592	32.99	-34.876	-33.2324	0
0.5753	41.35	8.44864	-20.6505	9.71695	128.833	112.371	21.0893	-38.8504	-29.5587	0.310869
0.5760	64.8651	15.7452	-19.1434	-26.9016	74.1989	161.802	0.344067	-45.8613	-21.6623	0.310869
0.5767	-29.1369	18.203	-9.69391	-110.815	14.4064	187.437	-17.0617	-48.0048	-15.2438	0
0.5773	-183.565	13.3258	-6.31326	-98.3092	-46.9428	214.298	-29.5695	-37.6447	-18.8753	0
0.5780	-201.865	4.14751	0.692422	20.7235	-113.786	212.162	-28.6588	-30.5891	-5.78506	0.310869
0.5787	-118.855	-7.14294	3.74723	96.7197	-152.244	163.325	-21.6357	-39.7435	7.98084	0.310869
0.5793	-48.3677	-7.14294	0.407307	129.649	-150.107	97.7139	-14.6127	-40.9939	-15.5394	0.310869
0.5800	2.90788	-3.14904	-3.86942	172.386	-127.216	53.4657	-1.19412	-37.6447	-52.4455	0.310869
0.5807	20.9173	-14.7467	-5.41719	169.327	-56.4046	20.1955	17.7296	-44.343	-66.507	0.310869
0.5813	18.4747	-26.0372	6.19107	115.944	24.1734	-18.8703	30.2374	-50.4608	-61.0176	0
0.5820	30.3776	-26.0372	26.0269	68.6185	60.464	-24.9625	36.6533	-50.1483	-16.4684	0.310869
0.5827	64.8651	-26.9588	48.0215	61.3008	78.7772	23.8549	49.4647	-38.2252	33.2746	0.621738
0.5833	121.918	-33.9866	59.589	40.8472	96.1748	76.9645	54.6662	-37.6447	23.2247	-1.24348
0.5840	127.714	-33.9866	51.6465	-47.955	114.488	105.349	44.2835	-55.9535	6.75627	-1.55434
0.5847	-61.4919	-14.7467	33.9694	-86.7028	112.962	131.597	28.1123	-47.067	2.78696	0.310869
0.5853	-229.936	8.75586	11.3639	-24.7422	88.239	161.505	9.79579	-19.0233	-32.3034	0.621738
0.5860	-91.6951	22.7729	-3.5843	54.283	61.0745	179.505	1.86201	-12.2803	-77.1904	0
0.5867	95.9794	30.1079	-9.36806	140.956	8.30198	179.188	6.73967	-9.86889	-126.638	0.310869
0.5873	142.37	31.0295	-19.4286	211.464	-60.9829	138.303	7.04325	1.42898	-156.534	0.310869
0.5880	102.706	26.7668	-23.0943	217.852	-108.292	47.3537	6.43608	9.06509	-87.5781	0.310869
0.5887	37.7055	19.1246	-16.3737	177.874	-144.918	-21.0065	15.6045	8.7525	23.2247	0
0.5893	78.5902	15.1691	-9.36806	129.649	-167.169	-34.4372	24.449	-1.92019	53.1212	0.310869
0.5900	155.184	14.2475	-2.03654	76.8659	-172.052	-47.8482	21.3929	-25.409	35.4282	0.310869
0.5907	109.724	12.4041	-3.5843	6.0581	-190.366	-89.9601	12.8519	-40.9939	30.5299	0
0.5913	-7.77373	11.7897	-11.2009	-80.2848	-227.908	-120.184	-1.4977	-30.9017	9.16319	0.310869
0.5920	-91.3849	9.06308	-11.2009	-173.975	-248.968	-93.9359	-17.0617	-16.5672	-20.4377	0.310869
0.5927	-108.173	7.21974	-1.75142	-251.801	-223.635	-32.5977	-17.6689	-6.78765	-10.3455	0
0.5933	-95.9794	5.68363	2.85115	-239.895	-183.651	7.37799	-10.3423	6.92162	6.12287	0.310869
0.5940	-99.6239	-7.45016	-1.42558	-134.628	-155.601	2.1956	-6.67895	13.352	12.2457	0
0.5947	-83.7663	-18.7406	0.407307	-38.4779	-124.774	-13.0747	1.25483	1.11639	34.2036	0
0.5953	-37.0658	-12.3273	6.51691	6.388	-102.798	-24.0527	13.4591	-26.3468	41.5088	0.310869
0.5960	-12.9691	-1.03688	7.73884	24.3823	-83.264	-40.846	32.0792	-41.5744	27.4896	0.310869
0.5967	-15.4118	5.06918	7.12788	30.1705	-6.34857	-42.0526	50.0719	-36.7069	17.7352	0
0.5973	-12.9691	8.14141	2.5253	16.7347	105.331	-45.1185	56.1841	-40.0561	8.27643	0
0.5980	-29.4471	11.4825	-0.814614	-3.38894	154.167	-71.347	48.2503	-49.5231	-1.52016	0
0.5987	-88.3413	13.9403	5.90595	-6.14807	142.263	-78.3689	24.449	-45.2361	-1.18235	0.310869
0.5993	-127.714	12.0969	20.8541	7.58762	116.014	-31.6878	3.70378	-27.2399	2.78696	0.310869
0.6000	-84.6774	9.06308	31.5256	21.6232	85.4921	34.5361	-8.52072	-8.93112	-1.18235	0.310869
0.6007	23.36	0.806461	31.1997	19.4939	74.8094	53.1492	-23.7811	-0.401901	-12.7947	0.310869
0.6013	90.183	-11.4057	24.805	9.41704	101.058	33.9229	-28.6588	6.02851	-19.8043	0.310869
0.6020	52.0316	-15.9756	12.9116	3.02905	145.926	46.7405	-20.4214	16.076	-14.0193	0.310869
0.6027	0.465261	-9.56232	3.74723	-3.68884	187.13	93.7381	-8.21713	24.3373	1.2668	0
0.6033	-38.2871	-3.45626	5.58011	-18.9541	205.138	124.259	4.61455	27.3739	20.1844	0.310869
0.6040	-86.5191	-0.729655	6.51691	-33.2896	181.942	127.325	26.2705	28.8922	38.4685	0.310869
0.6047	-73.6856	4.14751	3.13627	-23.5426	137.379	135.257	54.6662	33.1791	46.4071	0.310869
0.6053	-70.3319	5.06918	2.85115	3.32896	101.669	154.483	75.4114	35.6352	39.1019	0.310869
0.6060	-193.025	-0.115209	8.63491	14.6054	75.1146	168.824	95.853	31.9734	29.6431	0.310869
0.6067	-303.796	-1.03688	13.5226	0.869727	32.7196	179.188	123.621	24.3373	34.4992	0.310869
0.6073	-220.785	-1.65132	13.5226	-10.7066	-32.9027	184.074	129.43	14.2451	44.887	0.310869
0.6080	-33.4018	-7.71898	15.9664	-5.21836	-92.7258	221.617	82.738	7.23421	45.816	0
0.6087	97.821	-13.825	20.2432	-3.68884	-128.436	279.909	9.18861	8.7525	44.887	0
0.6093	150.008	-16.8973	24.5199	-2.48922	-133.93	249.685	-49.404	10.896	44.5914	0.310869
0.6100	163.423	-21.7744	27.2488	24.0824	-124.163	175.845	-82.6773	-5.26936	27.7852	0.310869
0.6107	199.752	-21.7744	21.7502	57.342	-123.248	221.3	-91.8254	-27.5525	7.64303	0.310869
0.6113	252.85	-14.7467	17.4735	64.6597	-129.657	344.293	-78.4068	-28.7582	9.501	0
0.6120	265.664	-10.1768	17.7993	49.3945	-136.983	370.541	-57.9449	-19.0233	19.8465	0.310869
0.6127	209.212	0.499238	11.3639	35.3589	-122.332	298.819	-44.2227	-19.2912	27.4896	0
0.6133	91.7145	13.633	-2.6475	28.641	-69.2238	276.249	-31.7149	-34.2509	33.6124	-1.24348
0.6140	10.8367	16.6669	-7.53518	21.3233	-9.70599	319.568	-17.9724	-37.6447	32.979	0
0.6147	0.465261	14.5547	-0.203654	5.75819	15.322	313.772	-6.07177	-17.7729	26.5606	0.932607
0.6153	-32.1805	9.06308	9.53099	-43.3664	-2.38071	246.342	19.8749	0.535867	26.265	0.310869
0.6160	-93.5367	0.192014	23.5831	-91.5913	-27.1035	175.529	56.1841	13.0394	40.3265	0
0.6167	-87.7404	-7.14294	33.0326	-65.3495	-3.29637	102.283	66.5669	21.8813	49.1519	0.310869
0.6173	-10.5265	-10.484	32.4217	-11.3364	73.2833	23.5582	36.6533	23.087	43.958	0.310869
0.6180	17.2534	-15.6684	28.7559	-11.0365	170.343	-90.5733	-13.0948	9.69027	34.7948	0
0.6187	-26.0934	-25.4227	26.3528	-20.4836	257.026	-297.79	-50.3147	-15.6295	18.622	0.310869
0.6193	-67.8893	-26.6516	29.3668	7.58762	281.107	-532.482	-54.2816	-24.5159	7.98084	0.310869
0.6200	-45.6149	-22.3889	26.0269	30.1705	250.311	-648.136	-33.2328	-19.2912	7.98084	0
0.6207	22.7396	-22.0817	15.3555	26.5117	194.15	-624.024	14.977	-15.6295	12.8369	0.310869
0.6213	-17.234	-19.0478	12.5858	12.1762	110.215	-545.299	79.6819	-4.37625	23.2247	0.621738
0.6220	-117.633	-20.5455	13.1968	0.869727	22.6473	-458.919	96.1566	1.42898	24.4492	0.310869
0.6227	-62.0929	-27.8805	20.8541	21.9231	-40.8384	-407.965	72.3553	4.51022	9.16319	0.310869
0.6233	164.954	-34.9082	38.8571	48.4948	-99.1354	-378.355	60.4546	11.2086	-14.6104	0.310869
0.6240	378.276	-44.9698	50.7505	46.3655	-136.067	-311.221	41.5309	7.5468	-36.6105	0.310869
0.6247	420.072	-42.8192	51.6465	56.1124	-127.521	-240.724	3.70378	13.6646	-51.2632	0.621738
0.6253	309.922	-27.5733	45.2518	82.984	-138.509	-211.133	-21.3322	26.1682	-68.9562	0.621738
0.6260	132.308	-12.0201	36.4133	95.1901	-187.619	-196.773	-26.817	28.8922	-82.3843	0.310869
0.6267	9.61538	7.83419	21.4651	98.2192	-210.51	-152.841	-37.5033	41.7083	-84.4956	0
0.6273	29.4471	27.6501	-2.03654	91.8312	-197.996	-96.982	-52.4601	63.6789	-80.8641	0.310869
0.6280	96.9099	39.8622	-18.8176	52.7534	-190.976	-61.2789	-48.7968	83.5507	-62.8333	0.310869
0.6287	63.9345	39.2478	-19.4286	16.7347	-162.621	-7.8725	-42.0774	89.9364	-41.8044	-0.621738
0.6293	-36.775	29.1862	-5.7023	51.5538	-98.5249	60.1712	-35.6818	96.0542	-35.0904	0.310869
0.6300	-4.73015	22.7729	0.692422	101.908	-65.5612	104.736	-19.4904	107.352	-34.457	0.621738
0.6307	225.981	16.9741	-7.53518	89.0721	-68.6134	142.575	-25.9062	103.065	-30.1921	-0.310869
0.6313	383.161	9.94635	-13.0338	34.7591	-69.5291	173.709	-47.2789	84.4438	-22.549	-0.310869
0.6320	232.087	0.806461	-10.9158	-6.44798	-64.6456	186.527	-58.5521	52.1131	-17.0596	0.310869
0.6327	12.9691	-5.60682	-7.25007	-7.67759	-66.1717	174.916	-69.2384	26.4808	-16.1306	0.310869
0.6333	-5.64128	-4.99238	-9.08295	23.7825	-33.2079	140.142	-74.7435	24.6499	-14.6104	0.310869
0.6340	10.8367	-5.2996	-11.2009	68.9484	70.8415	87.0326	-58.8759	25.543	-10.05	0.310869
0.6347	-20.898	-3.76348	-14.5409	99.7487	174.311	-6.96261	-36.5925	16.7012	-5.15166	0.621738
0.6353	-31.8897	7.83419	-25.253	114.714	229.556	-107.663	-25.299	12.7269	-0.88676	0.310869
0.6360	-110.015	20.3535	-30.4258	121.732	229.861	-157.41	-0.586938	15.7634	5.82728	0.310869
0.6367	-227.803	19.1246	-29.5298	53.3832	174.921	-176.953	31.1684	4.77815	14.0615	0.310869
0.6373	-225.981	17.8957	-33.1548	-54.9728	119.371	-219.975	30.2374	-8.03801	16.5106	0
0.6380	-143.281	17.8957	-32.8697	-79.9849	90.3756	-283.766	16.5152	-7.41283	9.501	0
0.6387	-124.961	7.83419	-27.982	-55.2727	59.8536	-274.904	14.977	-7.41283	2.44915	0.310869
0.6393	-146.014	7.52697	-24.6421	-55.2727	15.9325	-164.136	6.73967	0.535867	4.01153	0.310869
0.6400	-188.43	13.3258	-26.475	-79.685	-31.3766	-59.1426	-26.5134	9.69027	-1.18235	0
0.6407	-244.901	12.7114	-32.8697	-71.1377	-74.4126	-14.2813	-64.968	0.535867	-16.764	0
0.6413	-224.449	11.1752	-34.7026	-1.55951	-91.1997	-13.9846	-65.2715	-16.8798	-26.5184	0.310869
0.6420	-163.113	-0.422432	-29.2039	73.5069	-58.8464	-46.9383	-28.9623	-40.3687	-38.1307	0.621738
0.6427	-139.617	-5.60682	-15.1518	101.578	10.4385	-65.5514	4.91813	-53.4974	-38.7219	0.310869
0.6433	-131.669	1.72813	-5.7023	55.8125	91.2912	-47.235	4.00737	-54.1226	-23.1824	-0.932607
0.6440	-115.811	-0.729655	-8.14614	-15.2952	153.556	-5.73624	-24.3883	-61.4461	-10.05	-0.932607
0.6447	-85.2978	-4.37793	-7.53518	-61.0608	212.769	49.4899	-39.9523	-60.5084	10.7256	0.310869
0.6453	-47.4566	-6.52849	-4.48038	-100.438	255.499	64.4437	-33.2328	-50.4608	29.3053	0.310869
0.6460	-32.1805	-14.7467	-4.80622	-125.781	250.616	24.1713	-20.1178	-37.3321	34.2036	0
0.6467	-33.111	-15.9756	-2.03654	-120.592	271.951	-24.9625	-9.73507	-18.0855	44.2958	0.310869
0.6473	-31.5796	-14.7467	0.0814614	-88.2323	296.674	-57.3229	0.951244	-11.3872	51.0098	0
0.6480	-25.473	-18.4334	-1.75142	-43.3664	219.789	-79.2788	30.2374	-18.0855	40.3265	0.310869
0.6487	-14.1904	-20.8528	-3.25846	-2.48922	82.4399	-94.2326	61.3654	-23.8908	27.194	0.310869
0.6493	-0.756048	-21.4672	-0.529499	25.612	-21.6096	-71.0503	64.4215	-25.409	23.2247	0
0.6500	11.457	-19.3167	4.96915	39.9475	-82.0431	-36.5735	50.0719	-19.2912	22.2957	0
0.6507	21.2081	-14.4395	3.46211	59.4713	-127.521	-20.0768	30.8648	-19.0233	8.27643	0.310869
0.6513	28.8462	-11.0984	-2.03654	91.2014	-180.904	9.21755	16.2116	-45.2361	-11.5701	0.310869
0.6520	30.9786	-10.484	-5.09134	106.766	-243.169	54.9888	18.3368	-80.9606	-19.2131	0
0.6527	31.5989	-7.45016	-5.7023	106.766	-295.666	108.098	41.5309	-97.126	-13.3859	0
0.6533	39.2176	-4.37793	-1.14046	105.867	-304.518	134.643	71.4445	-79.4423	-8.2342	-0.310869
0.6540	43.7926	-2.84181	-1.42558	18.5942	-260.566	134.94	78.7711	-29.0708	-9.41655	-0.310869
0.6547	40.1287	3.26425	-9.36806	-166.358	-204.406	157.232	81.5237	5.40333	-5.15166	0.310869
0.6553	40.7491	0.806461	-11.8119	-218.841	-165.643	196.278	88.83	-0.982424	-5.78506	0.621738
0.6560	48.9881	-10.7912	-6.92422	-96.4797	-124.469	274.113	79.6819	-7.41283	-14.6104	0.310869
0.6567	57.5372	-12.3273	2.85115	-30.2605	-56.0994	410.834	77.5568	-3.43848	-6.08064	0
0.6573	59.6697	-9.2551	11.0788	-52.8434	-6.65379	479.787	81.1998	-7.10024	3.67372	-0.310869
0.6580	59.0493	-8.64065	11.3639	-52.5135	-10.9269	424.245	65.0287	-6.20713	-3.92708	0
0.6587	60.2706	-5.91405	6.51691	-25.0721	-43.2802	350.702	39.1022	6.92162	-10.6411	0.310869
0.6593	59.3595	-4.07071	2.24019	-0.329896	-74.4126	334.225	-2.40847	11.2086	-13.7237	0
0.6600	61.4919	-1.03688	6.51691	18.5942	-72.276	362.293	-51.5493	10.2708	-18.8753	0
0.6607	64.8651	2.95702	10.4678	21.6232	-56.7098	339.111	-77.1722	8.7525	-26.8139	0
0.6613	61.8021	-1.3441	5.29499	15.2352	-60.3725	217.028	-77.7794	0.535867	-34.7526	0
0.6620	62.1123	-4.68515	5.90595	15.2352	-64.3403	64.4437	-59.7867	4.51022	-25.5894	0.310869
0.6627	65.7762	-8.0262	5.29499	8.81723	-66.4769	-27.4153	-39.3451	9.06509	-10.9789	0
0.6633	66.6873	-9.2551	3.13627	8.21742	-76.8543	-46.6416	-20.725	3.25986	-7.6008	0
0.6640	67.9086	-4.68515	8.3498	21.3233	-85.7057	-89.3667	0.951244	1.74157	-2.70251	0.310869
0.6647	64.8651	-7.45016	10.7529	10.9466	-85.7057	-187.634	9.4922	0.848457	7.34744	0.310869
0.6653	60.5808	-10.7912	11.3639	-7.04779	-75.6335	-263.313	7.67067	16.3886	13.1325	0.310869
0.6660	57.8474	-5.60682	11.9748	-3.98875	-58.2359	-252.019	3.70378	38.6718	7.34744	0
0.6667	53.2529	0.192014	11.6897	-3.38894	-62.8142	-160.773	-3.62282	48.4513	-4.26489	0.310869
0.6673	51.4307	2.95702	12.9116	-8.87721	-42.9749	-72.2766	-13.0948	48.4513	-11.2745	0.310869
0.6680	51.4307	-7.14294	8.92003	-0.959699	48.5605	-37.4834	-23.7811	25.543	-17.0596	0
0.6687	52.652	-19.0478	9.24587	11.2465	112.657	-30.7581	-31.0875	-3.43848	-21.0289	0
0.6693	56.3159	-15.9756	15.9664	6.6879	121.203	-17.3472	-26.817	-11.9677	-16.4684	0.310869
0.6700	55.6956	-17.5117	18.6954	-0.0299906	118.456	4.94504	-15.8271	-12.9055	-12.4991	0.310869
0.6707	53.2529	-24.8083	19.6322	10.0468	100.753	18.9692	-7.28613	-9.24371	-14.6104	0.310869
0.6713	51.1205	-21.7744	17.4735	15.835	67.1789	21.4219	-2.10488	7.23421	-18.8753	0.310869
0.6720	49.2982	-25.1155	20.8541	8.51733	17.1534	30.5801	1.86201	33.4917	-20.4377	0
0.6727	50.2094	-38.5565	32.4217	0.269915	-41.4488	39.4218	1.55842	80.4694	-17.3552	0.310869
0.6733	52.3418	-52.612	35.1913	-2.78912	-92.1153	25.6944	-5.46459	137.852	-16.1306	-0.310869
0.6740	59.0493	-61.1374	28.7559	5.15838	-148.581	24.7845	-10.6458	169.602	-14.0193	-1.24348
0.6747	59.6697	-40.0926	11.9748	13.7057	-203.185	53.1492	-5.76818	182.999	-7.6008	-0.310869
0.6753	41.9704	-8.64065	-11.2009	8.81723	-221.803	81.2371	-1.80129	174.782	-7.00963	0.621738
0.6760	28.2452	-10.484	-7.53518	1.79944	-213.562	107.169	-1.19412	107.933	-7.6008	0
0.6767	23.9609	-27.2661	5.90595	4.52858	-187.619	105.962	0.951244	-1.6076	-6.37623	0
0.6773	7.48294	-20.5455	-6.02815	16.7347	-145.529	54.0789	4.31096	-106.593	-8.82538	0
0.6780	-8.39407	6.29807	-21.5873	27.7413	-110.429	3.42196	10.0994	-172.192	-7.6008	0
0.6787	-9.61538	25.2307	-23.7053	40.5473	-92.7258	-27.4153	12.8519	-196.931	-5.78506	0
0.6793	-8.39407	32.8345	-20.0395	61.9006	-74.4126	-88.1403	10.7066	-185.946	-8.2342	0
0.6800	-6.55242	38.3261	-11.2009	73.207	-54.8785	-123.843	4.61455	-133.431	-10.05	0.310869
0.6807	-2.57832	38.3261	-2.6475	79.2951	-38.0914	-70.7338	-5.16101	-69.0376	-11.8657	0.310869
0.6813	2.90788	31.9512	4.07307	97.6194	-9.70599	-10.0088	-6.67895	-11.6998	-8.82538	0.310869
0.6820	7.17277	23.6946	8.3498	107.396	11.9646	12.5604	-1.19412	23.7121	-2.70251	0
0.6827	4.43936	19.7391	3.74723	117.143	8.30198	20.512	-3.92641	32.8665	-3.63149	0
0.6833	2.28753	25.8451	-5.41719	133.008	8.6072	29.3537	-6.67895	43.8518	-1.81575	0
0.6840	3.21805	29.4934	-7.86103	108.926	20.2056	33.6262	-2.40847	43.2266	4.01153	0.310869
0.6847	3.50884	23.6946	4.07307	67.4188	28.1413	28.1274	1.86201	34.6974	1.85797	0.310869
0.6853	7.17277	17.8957	15.3555	17.6645	33.33	33.6262	7.04325	40.5026	0.337813	0.310869
0.6860	10.8367	12.0969	10.7529	-66.879	28.1413	43.0812	5.22172	42.0209	6.41846	0.310869
0.6867	9.01442	3.57147	2.85115	-116.304	41.2657	42.468	-3.62282	30.1425	7.98084	0.310869
0.6873	7.79311	2.6498	4.07307	-88.8321	107.468	62.6239	-2.10488	15.7634	8.8676	0.310869
0.6880	7.79311	2.95702	3.74723	-35.119	166.375	88.8722	2.77278	-10.1368	8.27643	0
0.6887	10.5265	-0.729655	1.01827	-21.7132	173.09	88.5557	7.04325	-33.6703	3.67372	0
0.6893	17.5636	2.6498	4.07307	-39.1077	159.66	87.6458	23.8418	-10.762	6.12287	0.310869
0.6900	18.4747	5.68363	6.80203	-40.0074	137.379	87.0326	39.4058	22.1938	9.79659	0
0.6907	13.5895	7.52697	2.24019	-36.0487	105.942	75.4415	43.3727	19.4252	6.41846	0
0.6913	12.6783	5.3764	0.692422	-47.3251	71.1467	66.2833	43.0691	17.3264	-0.591174	0
0.6920	15.7219	-3.14904	10.7529	-81.5144	30.8882	65.0569	37.2604	31.3482	-3.33591	0.310869
0.6927	14.1904	-1.03688	17.7993	-95.2501	-4.51725	60.4877	26.2705	40.1901	0.6334	0.310869
0.6933	7.79311	2.95702	11.6897	-42.7666	-33.5131	44.3075	16.5152	24.3373	2.15356	0.310869
0.6940	5.3505	2.95702	-0.814614	18.5942	-69.5291	32.7164	7.97426	-1.29501	-0.88676	0.310869
0.6947	8.70425	11.4825	-10.9158	49.6944	-92.1153	15.6263	-0.890526	4.77815	-3.04032	0
0.6953	10.5265	16.9741	-15.1518	75.9662	-85.4005	-31.3713	-9.1279	23.7121	-4.26489	0.310869
0.6960	11.7478	9.94635	-19.7544	113.184	-65.5612	-68.5975	-11.253	38.0466	0.0422267	0.621738
0.6967	14.8108	-9.86954	-13.9299	127.52	-41.7541	-71.6635	-3.62282	86.2747	7.98084	0.310869
0.6973	11.457	-40.7071	12.5858	67.4188	-28.0192	-59.7558	4.31096	144.863	6.12287	0
0.6980	4.43936	-62.6735	33.3585	-23.8425	-18.2521	-40.2328	6.73967	147.631	-2.11133	0
0.6987	6.88198	-63.5952	9.85683	-93.7206	2.80802	-28.0285	8.58144	111.282	-4.85607	0.310869
0.6993	16.3423	-45.277	-17.5957	-133.398	23.8682	-28.3252	7.97426	67.6533	-4.85607	0.310869
0.7000	24.8721	-18.7406	11.0788	-106.227	36.9926	-27.0988	7.34684	-1.29501	-3.63149	0
0.7007	29.7573	-6.83571	25.7418	-46.4254	40.0448	-25.279	11.3137	-56.8466	-1.52016	0
0.7013	29.1563	-3.76348	-12.097	-24.1424	34.2457	-30.1647	11.0101	-55.6409	-2.70251	0
0.7020	24.2711	11.1752	-47.2069	-21.3833	31.8039	-32.301	7.67067	-44.343	-2.40692	0.310869
0.7027	12.3682	5.06918	-98.161	-21.0834	33.0248	-26.4856	6.73967	-47.3796	0.6334	0.310869
0.7033	-1.06622	-38.5565	-139.666	-27.2015	32.4143	-27.4153	3.07636	-69.6628	0.337813	-1.24348
0.7040	-0.155087	-52.9192	-81.7058	-21.3833	36.9926	-31.6878	0.951244	-97.7511	2.44915	-0.932607
0.7047	6.26163	-2.53459	-8.47199	-12.866	40.3501	-33.5076	0.0404785	-28.7582	3.37813	0.621738
0.7053	4.12919	51.7671	11.0788	-15.2952	34.5509	-38.7097	-3.92641	93.9108	-2.11133	0.310869
0.7060	4.12919	63.3648	68.4683	-13.4658	32.1091	-39.9163	-2.10488	117.4	-3.63149	0.310869
0.7067	6.26163	54.8393	83.7016	-7.04779	34.8561	-36.5735	3.70378	84.1312	-1.81575	0.310869
0.7073	2.90788	28.2645	32.4217	-4.91846	35.7718	-36.8702	6.73967	78.326	-1.52016	0.310869
0.7080	1.06622	-13.249	44.0299	-4.31865	36.3822	-39.9163	9.4922	60.0172	0.337813	0.310869
0.7087	0.775434	-20.2383	68.4683	-4.91846	36.077	-44.802	11.6376	-4.37625	-0.295587	0.310869
0.7093	-1.06622	-3.76348	63.8658	-6.44798	34.8561	-43.8921	11.0101	-79.1298	-3.92708	0
0.7100	-1.06622	-15.3612	67.2464	-6.14807	35.1613	-37.7801	8.27785	-130.394	-5.44724	0
0.7107	0.465261	-25.1155	58.3671	-5.21836	36.6874	-34.7339	4.31096	-146.872	-4.56048	0
0.7113	4.12919	2.6498	50.4246	-3.08903	40.3501	-35.0306	3.70378	-137.093	-0.591174	0
0.7120	6.88198	18.5102	69.0793	-1.55951	42.7918	-36.8702	3.07636	-139.549	0.928987	0
0.7127	4.73015	-3.14904	75.1482	-3.08903	40.6553	-39.9163	-0.890526	-148.391	-5.15166	0
0.7133	4.73015	-24.5394	56.5342	-2.78912	36.9926	-38.3933	-1.80129	-114.229	-9.41655	0.310869
0.7140	7.79311	-33.9866	35.8023	-3.98875	31.1935	-36.8702	-2.40847	-26.6594	-13.0903	0.310869
0.7147	10.5265	-34.9082	21.4651	-4.61855	27.836	-38.0966	-4.25024	67.6533	-20.7333	0
0.7153	14.1904	-22.6961	23.5831	0.569821	30.8882	-35.0306	-1.80129	97.2599	-11.5701	0
0.7160	12.058	-15.9756	14.4187	4.22867	31.1935	-33.2109	0.647656	60.9549	13.4703	0
0.7167	6.5718	-17.5117	-38.3683	6.98781	29.3621	-34.1208	0.0404785	23.087	15.8772	0.310869
0.7173	6.5718	-16.2828	-88.4264	11.5464	29.3621	-33.824	3.07636	6.02851	2.44915	0
0.7180	7.79311	12.0969	-119.545	5.75819	26.0047	-38.7097	4.91813	27.0613	-3.33591	0
0.7187	12.6783	54.5321	-165	-0.0299906	25.3943	-41.7559	6.43608	78.9511	0.928987	0
0.7193	19.0757	25.2307	-137.833	3.62886	30.8882	-35.6438	10.403	76.4951	-1.81575	0
0.7200	17.8544	-33.9866	8.63491	3.02905	32.4143	-31.9845	7.34684	3.25986	-18.5797	0.310869
0.7207	13.8997	-33.6793	92.866	-0.0299906	29.9726	-29.5515	1.86201	-31.5269	-26.2228	0
0.7213	12.6783	-11.7129	26.9637	3.02905	28.4465	-25.5757	1.55842	36.5283	-40.242	0
0.7220	16.6331	24.0018	-21.5873	5.45829	26.0047	-26.1889	-1.4977	142.139	-72.9255	0
0.7227	23.0498	60.6382	-3.25846	11.5464	26.9204	-22.2131	-3.31924	187.911	-88.1693	-0.310869
0.7233	22.7396	30.4151	0.692422	18.5942	30.8882	-15.2109	1.25483	103.958	-84.8334	-0.310869
0.7240	13.5895	-6.83571	6.80203	12.4761	29.6674	-17.3472	0.951244	-71.4936	-93.0676	0
0.7247	6.5718	18.8174	38.2461	-0.659793	26.6152	-20.69	-2.71206	-160.894	-65.8736	0
0.7253	0.155087	-7.45016	100.483	-12.866	26.0047	-20.0768	-3.62282	-184.115	7.98084	0
0.7260	-9.61538	-89.5171	138.647	-21.3833	25.0891	-21.0065	-5.46459	-235.38	13.4703	0
0.7267	-10.8173	-91.6677	114.209	-15.2952	26.9204	-17.9406	-3.62282	-172.192	-37.8351	0
0.7273	-5.02094	-50.1542	98.6498	-2.48922	29.0569	-14.2813	0.647656	-72.6993	-94.2922	0
0.7280	-3.50884	-32.4504	98.3647	-1.85942	23.563	-20.0768	-2.71206	-102.306	-153.494	0
0.7287	-5.02094	2.95702	69.0793	-7.9775	19.2899	-21.0065	-5.76818	-136.825	-135.759	0
0.7293	-9.30521	47.1972	31.1997	-9.17712	19.5951	-14.2813	-3.92641	-110.88	-57.0482	0
0.7300	-16.6331	51.1527	11.9748	-4.31865	18.9847	-11.5318	-3.92641	-43.1373	59.8352	0
0.7307	-16.0127	45.661	4.68403	8.81723	21.1212	-7.25931	-1.19412	42.6461	178.239	0
0.7313	-5.64128	54.8393	7.41299	17.6645	23.2577	-5.43954	1.55842	68.9036	165.74	-0.621738
0.7320	1.06622	45.0466	0.407307	12.776	20.2056	-10.0088	-1.19412	46.3079	67.1827	-0.932607
0.7327	-2.57832	22.4657	-27.6969	5.75819	18.6795	-8.80216	-2.10488	7.23421	6.12287	0
0.7333	-11.7478	-2.53459	-43.256	1.79944	17.7638	-6.96261	-1.19412	-43.1373	1.56239	0
0.7340	-19.0757	-12.6346	-41.7083	-0.959699	15.9325	-8.48568	-1.19412	-51.6665	28.0807	0
0.7347	-19.9868	20.968	-38.9793	1.49953	17.4586	-4.21317	1.86201	-46.7991	22.0001	0
0.7353	-13.8803	30.7223	-16.3737	11.5464	18.6795	-1.78021	4.61455	-30.5891	-57.0482	-0.310869
0.7360	-7.46355	-19.3167	-0.814614	17.6645	16.5429	-6.34943	1.86201	42.0209	-130.903	0
0.7367	-11.7478	-51.6903	-28.9188	12.1762	14.4064	-9.71205	-0.586938	49.9696	-161.433	-1.24348
0.7373	-18.1452	-48.6181	-5.09134	1.79944	14.4064	-9.39557	0.647656	-19.0233	-134.576	-0.932607
0.7380	-13.8803	-41.0143	96.5318	-7.9775	15.6273	-5.43954	2.1656	-50.4608	-2.11133	0.310869
0.7387	-7.46355	-15.3612	147.486	-3.98875	16.8481	-0.850546	3.70378	-76.0932	117.517	0.621738
0.7393	-9.61538	21.8512	97.4279	6.98781	16.5429	-1.78021	3.07636	-102.306	149.863	-0.310869
0.7400	-14.1904	34.985	28.1857	6.0581	14.1012	-4.82635	0.344067	-90.115	170.934	0
0.7407	-13.2599	35.2923	7.41299	-4.91846	11.9646	-3.30328	0.344067	-57.4718	166.669	0
0.7413	-11.7478	31.644	-0.203654	-11.0365	8.91242	-2.9868	0.344067	-0.982424	97.6703	0
0.7420	-12.0386	5.06918	-2.6475	3.62886	7.99676	-1.78021	1.25483	25.2304	15.2861	0
0.7427	-9.90617	-9.56232	27.5747	20.0937	11.3542	3.10548	5.8289	-14.7364	-19.5087	-0.310869
0.7433	-10.8173	-7.14294	37.3093	16.4348	11.049	2.4923	6.13249	-51.6665	-12.4991	-0.310869
0.7440	-14.7914	-15.6684	8.92003	7.88753	9.52286	1.58241	3.37995	-44.6556	-5.44724	0
0.7447	-11.7478	-23.925	-14.2558	5.45829	8.91242	1.87911	2.46919	-12.9055	-6.67182	0
0.7453	-2.88849	-26.3444	-23.4202	15.835	6.47066	0.969227	0.647656	-24.8285	-28.9675	0
0.7460	1.99674	-29.4166	-6.92422	37.4882	6.77588	4.62855	3.07636	-78.5046	-84.2	0.310869
0.7467	-0.155087	-24.2322	30.3037	36.2886	9.21764	8.60436	7.34684	-85.8281	-120.219	0.310869
0.7473	-2.88849	-2.22737	46.1886	1.49953	8.30198	6.46811	6.13249	-19.0233	-60.0886	0
0.7480	-4.1098	20.3535	29.3668	-28.4311	6.47066	4.94504	3.37995	47.201	90.6607	0
0.7487	-7.46355	22.7729	6.51691	-30.5604	4.33412	3.71867	1.55842	53.0062	138.884	-0.310869
0.7493	-11.4377	19.7391	-7.53518	-18.0543	1.58714	2.4923	0.344067	49.0319	11.3168	0
0.7500	-8.39407	17.5885	-14.2558	4.52858	1.89236	7.69448	3.07636	61.5801	-111.985	0
0.7507	-3.50884	-9.2551	-25.864	14.3055	0.976703	11.3538	5.52531	75.602	-154.085	0
0.7513	-1.66718	-32.4504	-42.3192	-10.7066	-1.15984	9.51425	4.00737	99.716	-126.638	0.310869
0.7520	1.06622	-9.86954	-40.2012	-6.44798	-0.549396	7.69448	2.46919	108.245	-63.7623	0.310869
0.7527	1.06622	11.1752	-26.7601	44.506	-0.854615	4.94504	0.344067	84.4438	-106.158	0
0.7533	-1.97736	-0.115209	-36.8206	67.4188	-0.549396	5.24174	1.25483	64.3041	-223.379	0
0.7540	-1.06622	-12.6346	-63.988	43.3064	2.19758	11.6505	6.13249	52.6936	-198.339	0.310869
0.7547	-2.88849	-23.6178	-57.5932	2.39925	0.976703	12.5604	6.13249	36.5283	-55.2325	0
0.7553	-9.61538	-58.4108	-22.8092	-32.9896	-2.99115	7.99118	2.77278	38.0466	88.8449	0
0.7560	-10.5265	-89.2099	-14.5409	-45.1958	-4.51725	5.55822	1.55842	35.9031	191.963	0
0.7567	-8.68486	-58.718	-42.9302	-34.8191	-3.90681	3.10548	-0.26311	-34.2509	185.882	0
0.7573	-10.2163	-9.2551	-71.6453	-16.8247	-2.07549	4.94504	1.86201	-56.2214	121.191	0
0.7580	-8.99504	9.63913	-65.2099	1.79944	-1.77027	8.28788	5.22172	26.4808	84.2422	0
0.7587	-2.28753	20.3535	-42.3192	13.0759	-4.51725	7.99118	3.70378	19.1573	94.3344	0
0.7593	4.43936	19.7391	-15.7628	12.776	-7.26423	7.99118	2.46919	-32.42	141.924	0
0.7600	6.5718	4.45474	31.8107	9.11714	-9.70599	7.37799	1.86201	25.2304	143.782	0
0.7607	3.21805	6.29807	52.2575	9.71695	-9.70599	7.08129	1.25483	85.6495	80.9063	-0.310869
0.7613	-0.445875	11.4825	37.0242	12.1762	-7.26423	8.90106	3.37995	37.734	30.8677	0
0.7620	-3.50884	0.806461	62.0329	10.6467	-6.95901	9.21755	4.61455	-36.3943	13.1325	0
0.7627	-8.39407	-4.68515	83.7016	6.98781	-10.0112	5.85492	2.1656	-60.8209	-1.52016	-0.310869
0.7633	-8.68486	-0.115209	61.4219	5.15838	-12.453	3.42196	-0.890526	-55.0157	-11.5701	-1.24348
0.7640	-5.64128	31.3368	56.2491	0.869727	-9.70599	4.94504	-0.26311	-40.3687	22.5913	-0.621738
0.7647	-3.79963	63.9792	49.5286	-10.1068	-5.73813	7.08129	2.46919	-47.3796	72.6721	0.621738
0.7653	1.06622	33.4489	-6.63911	-15.5951	-5.12769	6.15162	2.46919	-79.1298	37.8773	0.310869
0.7660	2.28753	-29.7238	-81.7058	-12.5361	-5.12769	4.33185	1.55842	-105.968	-31.4167	0
0.7667	-3.19867	-73.964	-82.3168	-10.1068	-5.12769	3.10548	0.647656	-85.5155	-33.2324	0
0.7673	-4.73015	-90.4388	-8.47199	-4.61855	-6.34857	3.10548	0.0404785	-0.71449	-35.0904	0
0.7680	-2.28753	-81.2989	18.4103	1.79944	-7.26423	3.10548	0.0404785	53.0062	-25.5894	0
0.7687	-0.155087	-45.5842	-11.2009	2.39925	-6.04335	5.55822	1.25483	33.1791	87.3248	0.310869
0.7693	1.68657	12.7114	-32.8697	1.79944	-5.12769	6.76481	2.46919	26.1682	157.801	0.310869
0.7700	0.775434	40.7839	-39.8754	2.09934	-6.34857	3.42196	0.647656	37.734	101.64	0.310869
0.7707	-1.97736	19.1246	-50.5876	-0.0299906	-8.79033	1.58241	-1.19412	0.223278	66.5493	0
0.7713	-0.155087	-26.6516	-30.7517	-1.55951	-11.5373	1.58241	-1.4977	-46.4865	69.5896	0.310869
0.7720	5.95146	-43.1264	29.0817	2.09934	-12.1477	3.10548	-0.586938	-24.5159	38.1729	0
0.7727	1.68657	24.0018	35.8023	6.0581	-10.9269	6.15162	0.951244	20.0504	4.60271	-0.310869
0.7733	-9.30521	66.437	3.13627	1.49953	-9.40077	6.76481	2.1656	34.3848	8.27643	-0.310869
0.7740	-7.46355	27.3429	0.407307	-8.2774	-9.09555	5.85492	2.46919	40.8152	26.265	0
0.7747	0.465261	1.11368	7.73884	-14.6954	-10.0112	4.62855	1.25483	49.657	51.601	0
0.7753	-0.445875	-17.8189	12.5858	-12.2362	-10.0112	3.42196	0.647656	45.9953	67.4782	0.310869
0.7760	-5.33111	-44.0481	19.6322	-2.78912	-6.95901	5.55822	2.77278	37.1535	48.8563	0
0.7767	-5.95146	-32.1432	18.6954	3.32896	-5.73813	8.90106	4.61455	13.0394	33.2746	0
0.7773	-3.50884	20.6608	-0.529499	0.869727	-8.48511	8.28788	3.70378	-19.9164	32.3879	0
0.7780	-1.35701	56.9515	-15.4777	-3.68884	-11.5373	5.24174	1.55842	-1.6076	29.9387	0.310869
0.7787	2.90788	34.3706	-1.42558	-3.38894	-10.9269	4.33185	0.344067	38.0466	32.3879	0
0.7793	7.17277	-14.1323	13.1968	0.269915	-7.56945	5.85492	1.86201	35.01	35.7238	0
0.7800	5.66067	-36.1371	1.30338	1.79944	-5.43291	7.08129	3.70378	23.3995	35.4282	0
0.7807	3.50884	-29.1094	-13.3189	1.19962	-5.73813	6.46811	3.37995	13.352	21.7045	0
0.7813	5.04032	-34.9082	-6.63911	-0.329896	-6.95901	4.33185	1.25483	-24.8285	-10.6411	0
0.7820	9.01442	-54.4169	3.46211	-1.55951	-8.17989	3.10548	-0.26311	-41.887	-27.1518	0
0.7827	12.3682	-58.4108	-13.6448	0.869727	-7.87467	5.24174	1.25483	-39.163	-12.1613	0
0.7833	11.7478	-47.6964	-45.6999	4.22867	-6.65379	7.69448	3.70378	-72.1188	2.78696	0
0.7840	9.01442	4.14751	-55.4345	6.0581	-5.73813	8.90106	5.22172	-95.2951	1.56239	0
0.7847	5.04032	87.1746	-56.9823	2.69915	-6.34857	5.85492	3.07636	-73.6371	-6.67182	-0.310869
0.7853	1.68657	103.649	-65.5357	-1.2596	-7.87467	3.10548	-0.586938	-45.8613	-10.9789	-0.310869
0.7860	4.43936	59.4093	-64.5989	-0.0299906	-5.73813	4.94504	0.344067	-28.1777	-10.6411	0
0.7867	9.61538	51.7671	-64.9248	2.09934	-4.21203	6.76481	2.46919	-6.47506	-10.9789	0
0.7873	12.3682	70.0853	-59.4261	2.69915	-3.90681	7.08129	3.07636	18.8447	-9.75436	0
0.7880	13.8997	57.8732	-17.9215	2.09934	-3.29637	7.08129	3.37995	-26.3468	-8.2342	0
0.7887	12.9691	29.4934	43.4189	-1.2596	-4.82247	4.01537	1.25483	-160.894	-12.1613	0
0.7893	9.92556	8.14141	68.4683	-2.78912	-5.43291	3.10548	-0.26311	-191.751	-15.835	0
0.7900	10.5265	-8.33343	37.3093	-0.329896	-2.68593	6.15162	0.951244	-55.3283	-13.3859	0
0.7907	15.4118	-16.8973	15.3555	1.49953	-0.244176	7.99118	2.1656	101.234	-11.5701	-0.310869
0.7913	21.2081	-12.6346	36.6984	1.19962	0.671484	7.99118	2.77278	212.605	-11.8657	-0.310869
0.7920	19.9868	4.76196	35.8023	-0.329896	0.671484	7.37799	2.77278	215.687	-12.1613	0
0.7927	9.3246	29.8006	0.0814614	-1.85942	-0.244176	5.85492	1.25483	112.532	-14.6104	0.310869
0.7933	1.99674	51.1527	-28.593	-0.329896	-2.07549	3.71867	-1.19412	31.6608	-15.5394	-0.932607
0.7940	7.48294	60.9454	-63.7028	3.32896	-1.46505	3.71867	-1.80129	33.1791	-16.1306	-0.621738
0.7947	14.1904	50.5382	-77.7142	2.69915	1.28192	6.76481	0.647656	82.9255	-25.2938	0.621738
0.7953	16.9432	6.29807	-30.7517	-0.959699	1.89236	8.28788	1.86201	95.4291	-35.6815	0
0.7960	16.3423	-32.7577	10.4678	-0.0299906	1.28192	7.37799	0.951244	20.0504	-37.2017	-0.310869
0.7967	8.10329	-20.8528	5.58011	1.79944	0.976703	7.08129	1.25483	-58.9901	-22.549	0
0.7973	-2.28753	-21.7744	-10.3049	0.869727	2.19758	7.69448	2.1656	-49.8357	-7.89639	0
0.7980	-8.99504	-83.4111	-7.86103	1.19962	2.5028	7.08129	1.86201	-7.72542	-58.5684	0
0.7987	-7.77373	-95.0088	19.3064	3.92877	1.58714	6.76481	0.951244	-22.3725	-142.177	0
0.7993	4.12919	-8.0262	51.9724	1.79944	1.28192	7.37799	0.647656	-88.9093	-149.82	-0.310869
0.8000	12.6783	54.8393	47.0847	-5.84817	0.671484	8.60436	0.0404785	-116.953	-60.3842	0
0.8007	9.92556	60.9454	0.0814614	-4.61855	2.19758	11.3538	0.951244	-57.1592	61.9888	0
0.8013	3.81901	49.6549	-17.5957	8.51733	3.11324	11.3538	2.1656	12.1017	86.987	0
0.8020	-1.06622	29.4934	10.4678	19.7938	1.28192	8.60436	-0.586938	52.6936	14.6527	-0.310869
0.8027	-0.155087	30.7223	21.4651	24.0824	3.41846	10.4241	0.344067	77.4328	-39.6509	0
0.8033	4.73015	48.426	-22.1982	21.0234	6.16544	11.6505	2.46919	60.3297	-72.2921	0
0.8040	8.10329	39.2478	-68.5905	13.7057	4.94456	8.90106	0.951244	7.85939	-97.6281	0
0.8047	10.8367	-34.2938	-35.9245	7.28771	4.33412	7.99118	0.647656	32.8665	-95.8123	0
0.8053	9.3246	-133.181	18.4103	-1.55951	2.19758	5.24174	-1.4977	163.484	-70.1807	0.310869
0.8060	7.17277	-155.455	-14.8667	-7.04779	1.58714	5.24174	-1.80129	253.51	-85.4246	0
0.8067	8.10329	-92.8966	-60.3222	-6.74788	4.63934	9.21755	2.1656	238.863	-162.615	-0.310869
0.8073	4.43936	-26.3444	-27.6969	-12.866	5.555	9.51425	2.46919	136.334	-140.066	0
0.8080	-0.756048	-80.07	14.1336	-22.313	4.33412	8.90106	1.55842	18.8447	17.7352	0
0.8087	-7.46355	-160.025	33.0326	-24.4423	1.89236	7.69448	0.647656	-78.8172	130.354	0
0.8093	-17.234	-35.8299	29.9778	-17.4245	0.671484	4.33185	-1.4977	-163.975	121.782	0
0.8100	-20.5878	94.8167	7.12788	-3.98875	4.0289	6.46811	0.344067	-124.902	61.3554	0.310869
0.8107	-17.234	14.8619	0.407307	2.09934	7.0811	9.21755	3.70378	13.0394	20.7755	0.310869
0.8113	-12.0386	-84.9472	1.30338	-0.959699	6.47066	7.99118	2.77278	74.3963	9.79659	0
0.8120	-4.73015	-58.718	-0.203654	-0.0299906	4.63934	6.15162	0.344067	62.1606	15.8772	0
0.8127	-1.97736	47.1972	2.24019	-1.2596	1.89236	4.01537	-1.19412	27.6865	24.7448	0
0.8133	-3.50884	81.3757	22.687	-7.34769	2.19758	4.94504	0.0404785	-29.696	27.194	0
0.8140	-3.79963	-13.5178	57.1452	-8.87721	4.63934	7.99118	3.70378	-46.1739	33.908	0
0.8147	-3.50884	-50.7686	55.9233	-9.80692	3.11324	5.85492	2.46919	-10.762	46.1115	0
0.8153	-3.19867	24.9235	7.73884	-10.4067	1.89236	1.87911	-1.19412	46.8884	47.0405	0
0.8160	-2.28753	38.3261	-46.3108	-5.21836	3.11324	0.672525	-2.40847	97.5725	34.7948	0.310869
0.8167	-0.445875	30.1079	-64.9248	5.45829	4.0289	0.969227	-3.01565	108.558	22.0001	0.310869
0.8173	-0.155087	101.499	-20.6505	17.0646	5.555	3.10548	-1.19412	90.8742	14.9905	0.310869
0.8180	-4.41997	56.337	56.5342	17.6645	5.86022	3.71867	0.344067	63.0984	12.2457	0
0.8187	-12.659	-80.9917	62.9697	10.3468	3.41846	1.87911	-1.4977	20.6756	11.9079	0
0.8193	-18.1452	-61.7519	-0.203654	6.6879	2.19758	1.28571	-2.71206	-69.9753	11.3168	0
0.8200	-16.9239	-27.2661	-34.7026	6.6879	1.28192	0.356043	-3.01565	-130.394	9.16319	0
0.8207	-5.95146	-96.8521	-60.648	7.88753	2.80802	1.58241	-1.4977	-76.9863	10.7256	0
0.8213	9.3246	-25.1155	-115.879	9.11714	5.24978	4.33185	1.25483	-51.9791	7.34744	-0.310869
0.8220	13.5895	154.303	-147.934	7.28771	2.80802	2.4923	0.647656	-82.1663	-3.63149	0.310869
0.8227	4.73015	202.844	-103.049	4.85848	-0.244176	-0.553844	-2.40847	-67.5193	-3.63149	-0.310869
0.8233	-5.64128	118.319	-82.9277	6.0581	-0.854615	-3.30328	-5.16101	-89.1773	2.15356	-1.55434
0.8240	-3.19867	12.7114	-121.378	7.88753	0.976703	-1.78021	-3.62282	-108.424	4.01153	-0.310869
0.8247	5.3505	2.03535	-6.02815	6.388	4.0289	2.4923	0.647656	-40.6813	5.82728	0.621738
0.8253	1.99674	43.8561	173.431	2.09934	2.80802	1.58241	0.344067	30.7231	6.41846	0
0.8260	-7.77373	70.3925	142.598	-0.959699	0.061044	-0.553844	-2.10488	45.3701	4.30712	0
0.8267	-10.8173	112.789	-5.09134	-1.55951	-0.244176	-0.850546	-2.71206	-34.5634	2.15356	0
0.8273	-5.64128	120.124	-63.0919	0.269915	1.28192	-2.07692	-3.62282	-140.487	0.6334	-0.310869
0.8280	3.50884	63.3648	-4.80622	4.52858	4.0289	-0.553844	-2.10488	-76.3611	0.6334	0
0.8287	5.04032	12.0969	54.4162	6.388	5.555	0.969227	0.0404785	108.245	1.56239	-0.310869
0.8293	-2.88849	-59.9085	32.1365	3.62886	3.72368	-0.553844	-1.4977	147.319	0.337813	-0.310869
0.8300	-4.41997	-172.544	-16.0886	1.19962	1.58714	-1.78021	-3.92641	53.944	-1.81575	0
0.8307	5.66067	-219.242	-38.9793	-0.0299906	0.671484	-2.9868	-4.85742	25.2304	-3.04032	-0.310869
0.8313	12.9691	-178.65	-2.6475	2.39925	1.89236	-0.553844	-2.40847	82.9255	-2.11133	0
0.8320	3.81901	-144.472	80.3617	5.15838	2.80802	3.10548	1.25483	83.8186	-1.18235	0.310869
0.8327	-14.7914	-152.997	82.4797	3.92877	-0.244176	0.672525	-0.586938	39.2969	-4.56048	-0.621738
0.8333	-27.0045	-90.746	28.4708	4.52858	-2.68593	-1.78021	-3.01565	125.348	-6.67182	-0.932607
0.8340	-28.536	55.7226	37.6352	5.45829	-2.38071	-0.257142	-2.10488	220.867	-5.15166	0.310869
0.8347	-26.0934	59.7165	12.5858	6.388	-2.68593	0.969227	-0.586938	194.922	-4.56048	0.310869
0.8353	-23.0304	-24.8083	-96.654	4.85848	-0.244176	3.71867	1.86201	133.878	-2.40692	-0.310869
0.8360	-16.3229	5.3764	-148.219	-3.98875	2.19758	2.1956	2.46919	41.7083	-1.81575	0
0.8367	-7.46355	29.8006	-111.928	-7.04779	0.976703	-1.16703	-0.26311	-50.1483	-4.26489	0
0.8373	-1.97736	-39.171	-105.207	-2.78912	-0.854615	-1.78021	-2.10488	-145.667	-6.08064	0
0.8380	2.5977	-64.2096	-87.2045	-0.329896	-0.854615	-1.16703	-1.4977	-264.986	-6.08064	0
0.8387	9.01442	39.2478	41.9119	3.62886	1.89236	1.87911	3.07636	-250.92	-3.04032	0
0.8393	1.99674	50.5382	169.155	4.52858	3.41846	1.58241	4.31096	-96.5008	-2.11133	0
0.8400	-14.7914	-133.488	179.541	1.49953	2.19758	-1.46373	0.951244	42.6461	-4.26489	0.310869
0.8407	-19.3665	-114.556	94.3731	0.569821	2.80802	-1.46373	0.0404785	137.852	-4.26489	0
0.8413	-11.7478	102.421	8.92003	1.19962	3.41846	-1.46373	-0.26311	165.315	-4.85607	0
0.8420	-4.1098	158.297	4.68403	4.52858	4.0289	0.969227	1.25483	129.323	-4.26489	0.310869
0.8427	-2.88849	116.169	66.9206	6.6879	4.33412	3.42196	3.70378	107.933	-2.70251	0
0.8433	-6.24224	27.9573	105.37	3.92877	2.5028	0.969227	1.55842	111.282	-4.56048	0
0.8440	-4.73015	-53.2264	45.8628	1.79944	1.28192	-0.257142	-0.890526	117.712	-6.08064	0
0.8447	-2.57832	18.5102	-89.3225	0.569821	0.061044	-1.16703	-2.40847	124.411	-7.30522	0
0.8453	3.50884	139.979	-203.165	1.19962	0.061044	-0.257142	-2.40847	142.719	-6.67182	0
0.8460	19.696	148.504	-246.176	4.85848	2.19758	3.71867	0.951244	138.477	-3.04032	0
0.8467	30.9786	53.6104	-267.845	3.32896	1.58714	3.10548	0.951244	81.9877	-2.70251	0.310869
0.8473	33.7314	41.7055	-262.672	0.869727	0.976703	1.58241	-0.586938	54.5245	-3.04032	0.310869
0.8480	29.1563	118.319	-190.946	-0.659793	0.061044	0.672525	-0.586938	152.812	-3.92708	0.310869
0.8487	21.5183	33.7561	-14.8667	-1.55951	-1.77027	0.0593404	-0.890526	305.712	-5.15166	0.310869
0.8493	18.7849	-122.467	266.501	2.09934	-0.244176	4.33185	2.46919	275.168	-0.88676	0.310869
0.8500	8.10329	-85.2544	409.955	3.62886	0.061044	5.24174	4.00737	-40.6813	0.337813	0
0.8507	-6.86259	2.6498	244.547	0.569821	-1.77027	3.10548	1.25483	-426.104	-2.11133	0
0.8513	-12.659	-10.484	62.0329	-1.55951	-2.68593	1.28571	-0.26311	-597.626	-3.33591	-0.310869
0.8520	-12.3488	10.868	86.1455	-1.55951	-2.38071	0.969227	0.344067	-467.902	-3.63149	0.310869
0.8527	-11.7478	96.6217	124.921	1.79944	-0.244176	4.01537	3.70378	-156.652	-0.591174	0
0.8533	-12.0386	143.627	46.1886	5.15838	-0.549396	2.4923	3.07636	33.4917	0.337813	-1.24348
0.8540	-4.41997	147.582	-22.8092	4.85848	-1.15984	-0.257142	0.344067	0.223278	-1.52016	-0.310869
0.8547	7.17277	136.906	-19.7544	0.869727	-1.15984	0.356043	0.0404785	3.88504	-2.40692	0.621738
0.8553	9.92556	71.9286	-29.2039	-0.959699	-2.99115	-2.9868	-2.40847	91.4547	-4.56048	-0.932607
0.8560	6.26163	-31.5288	-53.6016	4.85848	-0.244176	-0.850546	-1.19412	150.668	-1.52016	-0.621738
0.8567	1.99674	-47.1203	-12.708	6.6879	2.5028	4.62855	3.07636	200.727	2.15356	0.621738
0.8573	-6.55242	24.309	62.9697	0.869727	-0.549396	2.1956	0.951244	163.797	-1.18235	0.310869
0.8580	-12.9691	46.2755	43.7448	-1.55951	-3.29637	-1.16703	-2.40847	12.7269	-3.63149	0
0.8587	-7.77373	45.661	-71.6453	-2.48922	-4.21203	-2.07692	-3.01565	-135.262	-4.26489	0.310869
0.8593	0.775434	59.1021	-95.4321	-2.15932	-3.29637	0.0593404	-1.4977	-189.608	-3.33591	0
0.8600	3.21805	56.0298	80.3617	2.39925	0.061044	5.24174	2.77278	-137.405	0.928987	0
0.8607	4.43936	41.7055	268.049	2.69915	0.366264	4.94504	3.07636	-91.6333	1.85797	0
0.8613	5.04032	10.5608	267.112	-1.2596	-2.38071	1.28571	-0.586938	-80.3355	-1.18235	0
0.8620	-0.445875	-29.1094	131.601	-3.08903	-3.60159	-0.850546	-1.80129	32.8665	-3.04032	0.310869
0.8627	-4.41997	-59.6013	48.6325	-2.15932	-2.38071	0.0593404	-0.586938	214.436	-1.81575	0.310869
0.8633	0.465261	-116.092	38.2461	1.79944	0.061044	3.10548	2.46919	290.44	1.56239	0
0.8640	5.3505	-215.248	-96.9391	3.32896	0.671484	4.62855	4.31096	330.094	2.78696	0
0.8647	8.39407	-231.723	-265.401	0.569821	-0.854615	9.83073	2.1656	251.366	0.0422267	-0.310869
0.8653	15.121	-94.7015	-253.834	-2.78912	-2.07549	15.6263	-0.26311	-46.1739	-2.11133	-0.310869
0.8660	20.9173	86.8673	-214.447	-2.78912	-2.38071	16.2395	-1.4977	-160.001	-1.18235	0
0.8667	19.0757	200.694	-186.669	0.869727	-0.854615	18.9692	0.344067	-74.2623	1.2668	0
0.8673	7.17277	186.676	-41.7083	3.02905	0.366264	21.4219	1.86201	-61.1335	2.78696	0
0.8680	-3.79963	93.8951	96.5318	1.19962	-1.46505	19.5823	0.0404785	-69.0376	1.2668	0.310869
0.8687	-8.68486	84.4096	88.3042	-1.85942	-4.82247	17.1494	-3.01565	-69.3502	-0.88676	0
0.8693	-17.5442	123.504	45.5777	-2.48922	-6.04335	15.923	-4.25024	21.2561	-2.40692	0.310869
0.8700	-25.473	57.8732	94.088	1.19962	-3.60159	18.9692	-0.26311	90.249	-0.295587	0.310869
0.8707	-22.7202	-24.2322	124.31	3.32896	-1.15984	20.8087	4.31096	-26.0342	2.15356	0.310869
0.8713	-13.5701	-21.7744	9.24587	0.569821	-2.07549	18.6725	2.77278	-119.409	0.0422267	0
0.8720	-8.99504	-14.4395	-164.104	-0.959699	-2.38071	17.7626	-0.586938	-80.9606	-2.11133	-0.310869
0.8727	-10.8173	-39.4782	-183.003	-1.85942	-1.77027	17.1494	-2.10488	5.40333	-1.52016	0
0.8733	-8.39407	-13.5178	-7.53518	-0.659793	-0.854615	18.0593	-0.586938	38.6718	0.928987	0
0.8740	-4.73015	23.6946	115.431	3.32896	1.28192	22.0351	2.77278	6.3411	4.01153	0
0.8747	-14.1904	-32.4504	50.1395	2.09934	0.061044	19.8988	0.344067	-0.71449	2.44915	0
0.8753	-22.1193	-66.629	-56.3713	-2.48922	-2.99115	15.3098	-5.76818	30.1425	-1.18235	0
0.8760	-10.2163	3.84029	-102.153	-3.08903	-2.68593	14.3999	-9.1279	73.4585	-1.18235	-0.310869
0.8767	8.70425	68.2419	-83.2129	-0.959699	-0.854615	15.923	-8.21713	124.098	0.6334	0
0.8773	19.3859	-2.84181	15.0296	1.79944	1.28192	18.6725	-6.37536	208.363	3.37813	0.310869
0.8780	18.4747	-206.108	129.809	0.869727	0.366264	18.6725	-7.28613	391.764	3.08255	0
0.8787	12.6783	-360.219	109.973	-1.85942	-1.77027	15.923	-9.1279	527.874	0.0422267	0
0.8793	9.3246	-299.197	-52.4204	-2.48922	-3.29637	15.3098	-8.21713	395.426	-1.52016	0.310869
0.8800	7.17277	-155.455	-147.608	-1.2596	-4.21203	15.923	-6.07177	122.58	-2.40692	0
0.8807	1.06622	4.14751	-67.9796	2.39925	-2.99115	18.6725	-3.01565	-2.54537	-1.18235	0
0.8813	-6.55242	244.626	66.6355	3.92877	-1.77027	19.5823	-0.890526	-48.0048	0.928987	0
0.8820	-9.90617	318.782	12.9116	0.869727	-3.60159	16.2395	-2.10488	-190.813	-0.591174	0.310869
0.8827	-9.61538	146.699	-118.934	-1.55951	-4.21203	14.6966	-4.85742	-167.95	-2.40692	0
0.8833	-11.4377	-61.1374	-34.7026	-0.959699	-2.99115	14.1032	-5.76818	-84.6224	-3.04032	-1.24348
0.8840	-1.66718	-151.768	34.5804	2.39925	1.58714	15.0131	-3.01565	-202.424	-0.591174	-0.932607
0.8847	17.8544	-147.198	-9.69391	4.52858	5.24978	18.3758	1.25483	-206.711	3.37813	0.310869
0.8853	16.6331	-128.573	55.6382	1.49953	1.89236	17.7626	0.647656	-142.585	0.928987	0.310869
0.8860	1.99674	-2.53459	96.8169	-0.959699	-1.77027	15.6263	-2.40847	-78.192	-3.92708	0
0.8867	-12.3488	243.743	58.693	0.269915	-2.68593	16.5362	-3.01565	40.1901	-3.92708	0
