MR32 ASCII
Name	USMC30_slow
Frequency	1500
Date	04-09-2015 14:18:22
"Time,s"	"RT TIB.ANT.,uV"	"RT MED. GASTRO,uV"	"RT LAT. GASTRO,uV"	"RT BICEPS FEM.,uV"	"RT VMO,uV"	"RT VLO,uV"	"RT RECTUS FEM.,uV"	"RT SOLEUS,uV"	"RT SEMITEND.,uV"	"Channel 12,uV"
0.0000	-102.526	0.598507	3.51641	-1.06829	-3.29136	-1.00205	-3.03845	14.5871	7.86995	-9592.92
0.0007	-53.6973	-1.22422	5.37804	-1.68677	-3.29136	0.232618	-2.43076	13.9835	8.46316	-10246.8
0.0013	-34.7953	0	2.62007	-4.1326	-4.51039	-1.30624	-3.3423	14.8889	7.86995	-9530.19
0.0020	-71.405	3.97191	-0.723967	-4.41373	-4.19344	-1.30624	-3.03845	16.7501	8.46316	-9882.88
0.0027	-86.0581	7.3181	2.62007	-0.449806	-0.219424	2.66616	0.0159919	20.6735	12.1411	-9831.35
0.0033	-82.0848	4.57041	5.65384	-0.449806	-0.536371	2.36196	0.0159919	22.5346	12.7343	-9791.67
0.0040	-47.9096	0	6.89493	-2.58639	-2.07234	1.44939	-0.591699	21.6292	12.4179	-9815.35
0.0047	9.46249	-2.14918	6.89493	-3.20487	-2.36491	1.75358	-1.19939	17.6555	12.1411	-9814.71
0.0053	18.6264	-3.67265	5.06777	-4.1326	-3.90088	0.232618	-3.03845	13.0781	10.0055	-9806.71
0.0060	-3.65178	0	4.44723	-1.68677	-1.75539	1.75358	-1.19939	15.1908	12.1411	-9791.35
0.0067	-32.9579	7.01885	1.10319	1.37753	0.9996	4.7955	1.23137	20.9753	15.1862	-9911.68
0.0073	-70.1878	10.365	-3.79221	0.140565	0.390088	3.88293	0.623683	20.6735	13.3671	-9656.61
0.0080	-81.1661	11.29	-7.44652	-1.06829	-0.536371	1.44939	-1.19939	17.0519	10.2823	-9793.27
0.0087	-74.4597	9.76654	-8.68761	-0.759048	-1.75539	0.232618	-1.80708	13.0781	8.46316	-10486.8
0.0093	-85.1394	3.97191	-5.92964	-1.06829	-3.58393	-1.91462	-2.43076	8.50078	6.64398	-6307.06
0.0100	-106.499	1.52347	-1.03424	0.759048	-2.36491	-0.697853	-1.80708	7.59538	7.23719	-215.388
0.0107	-101.01	3.97191	0.792917	3.20487	-0.536371	2.05777	-0.287854	10.9152	9.09592	110.414
0.0113	-53.6973	6.09388	-1.34451	1.68677	-1.14588	1.44939	-0.591699	13.3799	9.68913	-281.636
0.0120	-13.7344	5.49538	-1.96505	0.140565	-2.97442	-0.697853	-0.895544	13.6817	9.37275	71.6893
0.0127	-13.4358	2.12198	1.68926	-0.449806	-3.58393	-1.61043	-1.19939	13.9835	8.77954	19.2025
0.0133	-23.794	-0.299253	2.93034	-2.58639	-4.51039	-1.61043	-2.73461	15.4926	7.23719	-20.4826
0.0140	-23.794	0.299253	1.99953	-2.89563	-4.80295	-0.697853	-3.03845	16.0962	7.55357	3.52045
0.0147	-26.2515	2.74769	2.62007	-0.168677	-2.68185	1.1452	-1.50323	14.8889	10.2823	0.960124
0.0153	-36.0126	4.27116	4.44723	1.68677	-0.536371	2.66616	0.319837	14.5871	12.4179	1.28017
0.0160	-38.4471	4.27116	5.06777	1.37753	-0.536371	2.05777	0.319837	14.2853	12.4179	1.28017
0.0167	-35.3925	1.22422	1.68926	-2.30526	-4.19344	-1.30624	-2.11093	10.6134	9.68913	1.28017
0.0173	-39.0672	-0.299253	-0.137899	-4.1326	-5.1199	-1.91462	-3.3423	10.0098	9.09592	1.28017
0.0180	-39.3658	2.44844	3.24062	-1.99602	-1.14588	1.75358	-1.50323	15.4926	12.7343	1.28017
0.0187	-14.3315	4.57041	4.44723	-2.30526	-0.536371	2.36196	-0.895544	18.2591	13.6439	1.28017
0.0193	17.4091	5.49538	3.51641	-2.58639	-1.14588	2.05777	-1.50323	18.5609	13.0507	1.28017
0.0200	14.9516	6.7196	2.93034	-1.06829	-0.219424	2.97035	-0.895544	20.3717	13.6439	1.28017
0.0207	-18.0063	5.49538	-1.03424	-2.30526	-2.97442	0.232618	-2.11093	16.7501	10.5987	1.28017
0.0213	-41.2032	3.3462	-2.5856	-3.51411	-4.80295	-2.21882	-3.94999	10.6134	8.14678	1.92025
0.0220	-39.3658	3.3462	0.482645	-1.37753	-2.68185	-0.0715747	-2.73461	12.4745	10.0055	1.60021
0.0227	-35.0939	4.27116	2.3098	0.140565	-1.14588	1.1452	-1.50323	17.0519	11.2315	1.60021
0.0233	-30.822	4.57041	3.51641	0.759048	-1.14588	0.841003	-1.80708	19.4663	11.5083	1.28017
0.0240	-18.925	5.19613	4.44723	1.68677	-0.828936	2.36196	-2.73461	22.2328	12.1411	1.28017
0.0247	-16.4675	5.19613	3.82669	0.759048	-2.07234	2.66616	-3.3423	22.5346	11.2315	1.60021
0.0253	-28.9846	2.12198	0.172373	-3.20487	-6.33892	-1.00205	-6.70059	17.3537	7.55357	1.60021
0.0260	-34.1752	1.82272	-0.723967	-3.82336	-6.02198	-1.61043	-8.82751	15.4926	6.64398	1.60021
0.0267	-33.578	2.74769	0.482645	-2.30526	-3.90088	0.841003	-8.21982	20.0699	8.77954	1.60021
0.0273	-42.1218	2.12198	-1.96505	-3.20487	-5.1199	-0.0715747	-8.82751	20.9753	7.86995	1.60021
0.0280	-46.9909	4.86967	-4.10248	-4.1326	-4.19344	0.232618	-8.21982	19.7681	8.14678	1.92025
0.0287	-46.9909	8.24307	-4.10248	-2.89563	-1.75539	2.36196	-7.91597	18.8627	10.2823	1.92025
0.0293	-53.6973	5.19613	-4.41275	-3.20487	-4.19344	0.232618	-9.75504	15.4926	8.46316	1.60021
0.0300	-59.8066	2.44844	-1.96505	-2.89563	-4.19344	0.53681	-10.0589	14.2853	8.14678	1.60021
0.0307	-61.644	2.44844	4.44723	0.140565	-0.219424	5.42178	-7.91597	17.0519	12.7343	1.92025
0.0313	-67.4317	-0.625711	5.96411	-0.449806	-1.75539	4.18712	-8.21982	14.2853	13.0507	1.60021
0.0320	-72.6223	-3.04694	1.99953	-3.82336	-4.80295	0.232618	-10.3627	10.6134	9.68913	1.60021
0.0327	-68.0518	-0.924965	0.482645	-4.1326	-3.90088	0.53681	-10.6666	13.3799	10.0055	1.60021
0.0333	-62.5626	0.598507	-1.34451	-5.03221	-4.19344	-0.375767	-11.2743	14.2853	10.9151	1.92025
0.0340	-55.2361	1.22422	-3.79221	-5.65069	-4.51039	-1.61043	-11.882	14.5871	10.9151	1.92025
0.0347	-31.1206	4.27116	-1.34451	-2.58639	-0.536371	1.1452	-9.13135	19.7681	14.2766	1.92025
0.0353	-8.24522	4.57041	0.482645	-2.58639	-0.219424	1.1452	-5.16537	21.931	15.5026	1.92025
0.0360	9.76106	1.82272	-1.34451	-4.72297	-2.68185	-1.00205	-3.3423	19.7681	13.6439	1.92025
0.0367	36.6327	3.67265	-1.03424	-3.20487	-1.14588	1.1452	-0.591699	20.0699	14.2766	1.60021
0.0373	54.0188	4.57041	-1.34451	-1.68677	-0.536371	1.44939	3.37428	21.3274	13.9603	1.60021
0.0380	46.6923	2.12198	-2.8614	-2.58639	-2.68185	-0.697853	5.82104	20.3717	10.9151	1.92025
0.0387	34.7953	0	-1.03424	-1.99602	-2.97442	0.53681	8.55565	19.1645	9.37275	1.60021
0.0393	39.0672	-0.924965	1.10319	-1.06829	-2.07234	1.1452	10.3947	20.0699	7.55357	1.92025
0.0400	42.1218	-2.44844	-0.137899	-1.68677	-3.29136	-0.0715747	10.3947	21.931	5.10163	1.92025
0.0407	14.6531	-1.82272	0.172373	-0.168677	-3.29136	0.841003	11.6101	24.0436	3.59882	1.92025
0.0413	-32.9579	0	1.10319	1.68677	-2.07234	1.44939	12.5376	24.949	3.87565	1.92025
0.0420	-64.0785	-0.299253	-1.96505	-0.449806	-4.51039	-1.00205	9.78702	21.931	3.59882	1.60021
0.0427	-61.0238	0	-2.5856	0.449806	-4.19344	-0.0715747	8.2518	20.3717	-6.80217	1.60021
0.0433	-40.583	2.12198	1.37899	6.55031	0.0731414	3.27454	10.6986	22.8364	-37.0164	1.60021
0.0440	-30.2019	0.924965	0.792917	8.99613	-0.828936	1.75358	10.0909	21.931	-92.2247	1.92025
0.0447	-29.9033	-1.52347	-1.96505	9.30537	-3.29136	-0.697853	6.42873	18.5609	-170.964	1.92025
0.0453	-26.5501	-1.82272	-1.65478	6.85955	-2.68185	-0.375767	5.21335	18.8627	-201.178	1.92025
0.0460	-23.794	-2.74769	-2.27533	-6.26918	-2.68185	-1.00205	4.28582	18.5609	-111.168	1.60021
0.0467	-19.8437	-2.74769	-1.34451	-17.5425	-1.46283	0.232618	3.37428	18.2591	14.2766	1.28017
0.0473	-15.2502	-2.14918	0.172373	-19.3698	0.0731414	0.841003	3.37428	19.4663	94.2417	1.60021
0.0480	-16.789	-3.3462	-1.96505	-19.3698	-2.36491	-0.697853	1.85506	18.5609	111.326	1.60021
0.0487	-17.3862	-3.3462	-1.96505	-16.3336	-5.1199	0.232618	0.623683	18.2591	59.1235	1.60021
0.0493	-14.3315	-2.14918	-0.137899	-8.09652	-5.1199	2.36196	1.55121	19.7681	32.2707	1.92025
0.0500	-15.2502	-2.74769	-1.96505	-1.99602	-6.33892	0.53681	0.0159919	18.5609	28.5928	1.60021
0.0507	-14.6531	-3.04694	-1.65478	5.34145	-6.02198	0.53681	-1.80708	17.9573	2.37285	1.60021
0.0513	-9.76106	-1.52347	1.99953	13.2693	-3.29136	3.88293	-1.19939	20.9753	10.2823	1.92025
0.0520	-11.897	-2.74769	-0.137899	11.7512	-5.41247	1.75358	-2.73461	19.4663	28.316	1.92025
0.0527	-14.9516	-4.57041	-3.17167	8.09652	-6.63149	-1.00205	-4.25384	16.7501	-11.0733	1.60021
0.0533	-11.897	-3.3462	-1.03424	9.30537	-2.36491	1.1452	-3.03845	18.2591	-87.9536	1.60021
0.0540	-12.5171	-3.67265	-0.723967	6.55031	-1.75539	-0.0715747	-3.3423	17.6555	-154.512	1.60021
0.0547	-12.8157	-4.27116	-1.65478	3.20487	-2.68185	-1.91462	-3.94999	15.7944	-198.449	1.92025
0.0553	-9.76106	-3.67265	-0.44817	1.9679	-1.75539	-0.697853	-2.73461	17.0519	-195.404	1.92025
0.0560	-10.0596	-3.67265	-1.03424	-4.1326	-2.68185	-1.00205	-2.11093	16.398	-69.9595	1.92025
0.0567	-10.6797	-2.74769	-1.65478	-7.16879	-3.90088	-0.697853	-1.80708	15.7944	96.6541	1.92025
0.0573	-8.24522	-1.52347	-0.137899	-2.58639	-3.29136	2.36196	-0.287854	17.3537	92.6993	1.60021
0.0580	-9.16391	-3.04694	-1.03424	-3.82336	-4.51039	1.75358	-0.895544	16.0962	-25.7059	1.60021
0.0587	-12.5171	-4.89687	-3.79221	-11.7512	-7.241	-1.30624	-2.73461	12.7763	-78.5018	1.92025
0.0593	-10.3812	-4.57041	-2.8614	-12.96	-5.72941	-0.375767	-3.64614	13.0781	-37.2933	1.92025
0.0600	-7.92368	-4.27116	-0.44817	-5.95994	-2.68185	1.75358	-3.3423	14.2853	75.6148	1.92025
0.0607	-9.16391	-4.89687	-1.96505	5.03221	-2.36491	1.75358	-2.73461	13.9835	98.7896	1.60021
0.0613	-10.3812	-3.67265	-4.99882	14.197	-1.75539	2.36196	-2.73461	12.4745	-8.93773	1.60021
0.0620	-10.3812	-2.44844	-6.86045	13.2693	-0.828936	1.44939	-2.11093	11.217	-103.535	2.24029
0.0627	-9.76106	-4.27116	-8.96341	7.47803	-2.07234	-1.00205	-2.43076	11.8206	-208.811	1.92025
0.0633	-6.40785	-4.57041	-8.37734	1.06829	-2.36491	-0.375767	-3.03845	13.0781	-278.098	1.60021
0.0640	-3.97333	-3.04694	-7.13625	-14.5063	-3.90088	0.841003	-2.43076	12.7763	-152.653	1.92025
0.0647	-6.70642	-3.97191	-8.37734	-31.5989	-8.16746	-0.697853	-2.43076	9.40619	24.9545	1.92025
0.0653	-8.5438	-3.67265	-8.37734	-27.3257	-9.38648	-0.375767	-2.43076	9.10439	81.3887	1.92025
0.0660	-6.40785	-2.14918	-2.5856	-9.30537	-6.94844	2.05777	-1.80708	12.1727	194.613	1.92025
0.0667	-7.32654	-2.14918	5.65384	7.47803	-5.41247	2.36196	-2.43076	11.8206	303.566	1.92025
0.0673	-6.10927	-0.924965	9.9287	27.2976	-2.68185	4.18712	-1.80708	12.4745	166.851	1.92025
0.0680	-0.298574	2.74769	8.72208	38.2898	1.90168	7.24694	0.623683	16.0962	-41.8808	1.92025
0.0687	-3.65178	0	0.172373	27.6069	-0.828936	3.27454	-0.287854	13.3799	-95.9026	1.92025
0.0693	-8.24522	-3.04694	-9.58395	7.16879	-5.41247	-0.0715747	-1.19939	9.10439	-2.53104	1.60021
0.0700	-4.86905	-1.22422	-13.2383	-8.09652	-4.19344	2.36196	0.319837	10.9152	84.157	1.92025
0.0707	-6.70642	-3.04694	-9.27368	-19.9883	-5.1199	0.841003	-0.287854	10.0098	74.7052	2.24029
0.0713	-10.6797	-5.79463	-7.75679	-13.5785	-6.63149	-1.61043	-2.73461	8.50078	8.46316	1.92025
0.0720	-8.24522	-5.49538	-10.5148	12.6508	-4.80295	-0.375767	-2.73461	9.40619	-108.123	1.60021
0.0727	-6.40785	-4.89687	2.3098	18.7794	-4.19344	0.841003	-2.11093	8.50078	-217.037	1.60021
0.0733	-6.70642	-2.14918	16.0307	0.759048	-5.1199	2.97035	-1.50323	7.89718	-218.263	1.60021
0.0740	-4.2719	1.22422	13.6175	-10.8235	-3.29136	6.63855	-0.287854	10.6134	-68.4171	1.92025
0.0747	-2.7331	2.44844	7.79127	-16.6428	-1.46283	6.63855	-0.287854	12.1727	131.772	1.60021
0.0753	-4.86905	0.598507	4.44723	-18.4702	-2.68185	2.66616	-2.43076	8.80259	212.014	1.60021
0.0760	-4.86905	-0.924965	3.82669	-8.09652	-2.07234	0.841003	-3.3423	6.63967	146.721	1.92025
0.0767	-3.97333	-0.625711	3.82669	11.442	-1.75539	1.1452	-2.43076	7.89718	-27.8414	1.92025
0.0773	-5.78773	-1.22422	2.3098	23.643	-3.90088	0.53681	-1.50323	7.89718	-192.636	1.92025
0.0780	-4.57047	-0.625711	2.3098	18.1609	-2.07234	2.05777	-0.591699	7.89718	-127.027	1.92025
0.0787	-3.65178	0	1.99953	3.51411	-0.536371	1.44939	-0.895544	6.33786	25.2708	1.92025
0.0793	-5.48916	-0.299253	0.172373	-12.96	-1.14588	0.53681	-0.895544	5.13065	17.6382	1.92025
0.0800	-1.83738	2.74769	1.37899	-28.5346	0.682653	4.18712	1.23137	7.24327	54.536	1.92025
0.0807	0	5.49538	1.68926	-26.0888	-0.219424	5.0997	1.55121	6.03606	127.778	1.92025
0.0813	-6.40785	3.04694	-1.96505	-19.679	-4.80295	2.36196	-0.895544	1.15691	2.05647	1.92025
0.0820	-8.84237	-0.625711	-3.79221	-23.643	-5.72941	2.05777	-2.73461	1.15691	-149.015	1.92025
0.0827	-6.10927	-1.52347	5.06777	-3.20487	-3.58393	2.36196	-1.80708	5.73426	-164.28	1.92025
0.0833	-6.10927	-0.924965	19.7195	21.5064	-1.75539	0.841003	-0.895544	6.94147	-203.63	1.92025
0.0840	-5.48916	-0.299253	28.2347	9.30537	3.73021	2.05777	-0.895544	5.73426	-305.86	1.92025
0.0847	-3.05464	1.22422	30.3722	-14.5063	10.1423	4.49131	1.85506	7.24327	-350.707	1.92025
0.0853	-5.78773	1.82272	27.0281	-28.5346	8.63069	2.66616	3.37428	4.52704	-261.29	1.92025
0.0860	-8.24522	5.49538	13.8933	-36.1532	4.04716	1.44939	2.76659	0.855108	-26.0222	1.92025
0.0867	-3.65178	13.412	-20.5814	-40.4264	3.43765	3.88293	3.67813	4.22524	230.641	1.60021
0.0873	-2.13595	16.1597	-66.674	-29.7435	0.390088	2.66616	3.67813	7.89718	365.814	1.60021
0.0880	-3.65178	14.0377	-91.6681	5.34145	-6.02198	0.841003	2.1589	8.50078	280.392	1.60021
0.0887	-3.65178	13.412	-88.9446	42.5629	-8.77697	1.75358	0.927528	8.19898	91.4733	1.60021
0.0893	-5.19059	12.8135	-82.222	65.4468	-8.16746	1.44939	0.0159919	8.19898	10.2823	1.92025
0.0900	-5.48916	6.39314	-76.7406	79.8125	-6.02198	2.05777	-0.591699	8.19898	-106.264	1.92025
0.0907	-3.05464	2.12198	-63.916	78.8848	-2.07234	5.72598	0.319837	8.80259	-334.255	1.60021
0.0913	-2.7331	7.61736	-32.4751	58.4467	1.60911	6.03017	1.55121	9.40619	-500.869	1.92025
0.0920	-3.97333	7.3181	22.1327	49.5912	1.90168	2.66616	0.0159919	6.63967	-530.767	1.92025
0.0927	-1.21726	1.22422	70.3627	64.5472	3.43765	3.57873	0.623683	5.43245	-459.067	1.60021
0.0933	-1.21726	0.598507	79.2227	62.7199	2.82814	3.88293	1.85506	6.03606	-307.996	1.60021
0.0940	-7.32654	-1.82272	62.4336	35.5628	-2.36491	-1.30624	-1.19939	2.06232	26.7736	1.92025
0.0947	-8.24522	-0.924965	55.0905	15.4059	-2.97442	-1.30624	-0.287854	2.36412	391.481	1.92025
0.0953	-7.00499	5.79463	64.571	12.96	-2.97442	1.1452	3.67813	6.03606	474.768	1.60021
0.0960	-9.46249	10.6915	73.431	23.0245	-6.02198	0.232618	3.37428	4.52704	415.881	1.92025
0.0967	-9.16391	14.0377	71.2936	51.4185	-6.63149	2.05777	2.46275	5.13065	472.039	1.92025
0.0973	-9.16391	13.412	44.4378	107.279	-7.55795	5.42178	3.98197	6.33786	490.349	1.92025
0.0980	-13.1143	9.14083	16.6513	145.709	-9.38648	3.88293	3.37428	1.45871	327.058	1.92025
0.0987	-13.1143	8.84157	54.8147	67.3023	-4.80295	4.7955	3.07044	-0.0503005	199.201	1.60021
0.0993	-8.84237	11.5893	120.11	-50.5189	4.04716	8.7679	7.64411	5.43245	137.269	1.92025
0.1000	-8.24522	10.9908	121.937	-46.2457	7.09472	8.15952	9.17933	4.82885	-39.4288	1.92025
0.1007	-9.46249	9.46729	101.493	12.0604	5.26618	4.7955	7.03642	-1.25751	-228.347	1.92025
0.1013	-9.76106	5.19613	144.518	25.7795	1.60911	0.232618	4.28582	-7.09237	-318.674	1.92025
0.1020	-11.2999	-1.82272	213.191	24.2614	-4.80295	-5.26074	1.55121	-11.6697	-395.593	1.60021
0.1027	-11.2999	-1.82272	188.783	22.1249	-7.55795	-4.34816	1.85506	-7.99778	-270.465	1.60021
0.1033	-9.46249	3.67265	40.4732	-18.7794	-3.58393	1.1452	4.28582	3.92344	127.778	1.60021
0.1040	-11.5984	9.46729	-81.0154	-91.0858	-2.07234	1.44939	4.89351	12.1727	413.429	1.60021
0.1047	-19.8437	11.8885	-38.8874	-124.962	-3.58393	0.841003	3.67813	14.2853	462.587	1.92025
0.1053	-31.4191	7.61736	16.0307	-99.351	-4.19344	1.1452	2.1589	13.3799	393.893	1.60021
0.1060	-43.3391	6.7196	-78.878	-26.7073	-5.1199	-0.697853	-0.895544	8.80259	265.72	1.60021
0.1067	-54.0188	15.8604	-145.104	40.4264	-4.80295	0.232618	-2.11093	5.73426	185.794	1.92025
0.1073	-59.8066	23.1785	-59.9514	63.3103	0.0731414	5.0997	0.0159919	10.6134	166.534	1.92025
0.1080	-55.8333	27.1504	-10.825	74.9209	2.21862	6.63855	0.927528	16.0962	99.4224	1.92025
0.1087	-51.8829	32.0473	-102.976	67.3023	-1.14588	2.97035	-1.50323	14.5871	-25.7059	1.92025
0.1093	-42.4204	24.4027	-181.716	12.6508	-1.75539	2.05777	-2.11093	13.6817	-160.602	1.60021
0.1100	1.83738	2.12198	-133.796	-70.6477	1.29217	3.27454	-1.19939	13.0781	-333.029	1.60021
0.1107	56.4534	-19.2338	-78.2574	-103.905	3.1207	0.841003	-1.19939	11.5188	-481.332	1.60021
0.1113	75.3783	-28.7011	-81.9118	-70.957	7.38728	-0.0715747	0.623683	15.1908	-517.36	1.60021
0.1120	61.3454	-30.5238	-77.0508	-56.3102	10.4592	-0.375767	2.46275	18.2591	-422.763	1.92025
0.1127	30.2248	-31.4488	-63.916	-52.3462	7.38728	-3.43559	2.46275	13.6817	-213.398	1.60021
0.1133	-1.51584	-32.9723	-67.5703	-5.03221	1.29217	-6.19121	2.1589	5.13065	-113.304	1.60021
0.1140	-17.0876	-29.8981	-67.26	50.4908	-1.46283	-6.4954	3.67813	0.855108	-149.292	1.60021
0.1147	-19.8437	-22.2808	-50.7811	65.4468	-2.36491	-5.56493	4.89351	2.36412	-16.254	1.60021
0.1153	-19.2235	-15.5612	-49.2643	49.5912	-6.63149	-6.4954	3.07044	4.52704	225.737	1.92025
0.1160	-12.8157	-2.14918	-48.954	48.9727	-5.72941	-3.43559	3.37428	15.4926	256.9	1.92025
0.1167	-8.84237	13.7384	-11.1008	81.0214	-1.46283	0.53681	4.28582	26.5084	70.4341	1.60021
0.1173	-11.897	18.0096	36.4742	114.588	-0.828936	1.75358	2.76659	19.1645	-163.054	1.92025
0.1180	-12.5171	16.1597	59.6756	129.235	1.29217	2.36196	1.55121	3.62164	-300.363	1.92025
0.1187	-13.7344	16.7854	62.1233	67.5834	3.43765	-0.697853	-0.287854	-3.42043	-260.104	1.60021
0.1193	-18.3049	22.58	104.251	-117.034	4.04716	-4.65236	-1.50323	-1.91142	-58.3721	1.92025
0.1200	-16.789	32.9451	184.198	-233	9.2402	-1.91462	1.55121	5.73426	219.647	1.92025
0.1207	-14.9516	39.6647	172.304	-160.974	11.6782	-2.21882	4.28582	14.2853	309.973	1.92025
0.1213	-20.1422	39.6647	69.1561	-66.993	4.94924	-8.92894	3.67813	19.7681	141.54	1.92025
0.1220	-24.4141	35.3935	20.6158	-9.92386	-2.68185	-13.8139	2.46275	23.44	37.4515	1.92025
0.1227	-25.6314	21.3558	52.9875	31.88	-6.33892	-15.0307	0.927528	22.5346	77.434	1.60021
0.1233	-26.8487	3.67265	47.7819	23.0245	-5.41247	-11.9888	0.319837	20.0699	129.32	1.60021
0.1240	-18.6034	-4.89687	-64.2263	17.8517	0.0731414	-3.43559	2.76659	23.7418	237.641	1.92025
0.1247	-5.78773	-10.9908	-167.96	58.1375	2.21862	0.232618	3.67813	26.8102	257.81	1.92025
0.1253	-7.00499	-14.337	-146	61.4829	-0.536371	-4.34816	0.927528	20.6735	114.055	1.60021
0.1260	-12.5171	-8.54232	-71.2246	26.0888	-0.828936	-7.10379	-0.895544	14.2853	55.762	1.92025
0.1267	-11.897	-8.54232	-23.3393	60.5833	-0.828936	-10.4499	-3.64614	9.708	20.367	1.92025
0.1273	-9.76106	-5.79463	10.239	145.119	-1.14588	-14.4223	-5.77306	6.63967	-176.461	1.28017
0.1280	-3.05464	11.29	42.8865	207.67	2.51119	-12.9013	-4.25384	10.3116	-419.678	1.60021
0.1287	6.10927	26.2527	36.4742	219.562	1.90168	-12.5971	-3.03845	14.2853	-633.63	1.92025
0.1293	5.19059	29.8981	-14.7896	152.737	-6.33892	-14.1181	-3.64614	14.8889	-790.475	2.24029
0.1300	-14.033	23.1785	-46.8166	46.5269	-11.532	-12.293	-3.3423	15.1908	-626.314	1.92025
0.1307	-48.5297	9.14083	-81.2912	-93.5316	-7.85051	-8.01637	-2.73461	14.8889	-168.551	1.60021
0.1313	-66.8345	-10.9908	-113.042	-230.245	-5.72941	-3.43559	-1.19939	12.7763	238.59	1.60021
0.1320	-50.6656	-27.1504	-92.9092	-256.502	-9.38648	-1.91462	-0.287854	4.82885	533.061	1.60021
0.1327	-43.9362	-27.7761	-67.8806	-216.216	-11.8245	-4.04397	-0.895544	-2.51502	571.817	1.60021
0.1333	-56.1548	-22.2808	-57.814	-177.449	-11.8245	-7.10379	-4.25384	-5.53305	436.921	1.92025
0.1340	-47.611	-16.7854	-45.9202	-117.653	-13.3605	-10.1457	-8.21982	-12.8769	361.266	1.92025
0.1347	-21.0609	-5.49538	-33.4059	-49.2819	-10.3129	-9.53733	-8.21982	-16.5489	245.59	1.28017
0.1353	17.4091	2.44844	-20.2711	-15.4059	0.390088	-6.19121	-4.25384	-7.69598	171.755	1.60021
0.1360	62.2641	-3.97191	-10.5148	-5.03221	8.31374	-6.19121	-1.80708	5.43245	155.857	1.92025
0.1367	85.7595	-14.9627	-6.23991	-9.92386	11.3613	-9.53733	-2.11093	14.5871	69.4849	1.92025
0.1373	104.684	-18.6081	-4.72303	-18.4702	17.1639	-10.1457	-1.50323	16.0962	-86.7276	1.92025
0.1380	127.261	-20.458	-6.86045	16.924	22.6495	-8.92894	-0.287854	12.4745	-209.72	1.60021
0.1387	145.888	-22.8793	-13.8588	88.0496	21.7474	-10.7541	0.319837	7.59538	-179.229	1.92025
0.1393	140.376	-14.6634	-17.8234	131.681	21.7474	-8.62475	2.1589	10.0098	-59.8749	1.92025
0.1400	49.1268	-1.82272	-15.686	134.127	23.5759	-3.73978	4.89351	16.0962	95.4281	1.92025
0.1407	-77.8129	0.299253	-12.6522	151.219	19.3093	-6.7996	3.98197	14.2853	249.268	1.92025
0.1413	-116.581	-4.89687	-7.75679	174.722	13.7993	-10.7541	0.927528	15.1908	318.239	1.60021
0.1420	-39.9859	-5.19613	-0.137899	149.673	14.1163	-7.71217	1.23137	24.0436	255.951	1.60021
0.1427	34.1752	-0.924965	-1.03424	95.9775	13.7993	-4.65236	2.46275	26.8102	176.303	1.60021
0.1433	51.2628	0	-8.96341	29.4342	8.02118	-2.21882	3.07044	25.5527	225.737	1.92025
0.1440	57.3721	-2.74769	-14.1691	-62.1014	2.21862	2.05777	5.82104	28.3192	219.647	1.92025
0.1447	-30.5234	-8.24307	-19.3403	-181.131	-2.07234	2.66616	6.42873	24.949	120.145	1.60021
0.1453	-152.594	-16.7854	-26.3731	-284.896	-5.72941	-0.0715747	3.07044	12.1727	80.7955	1.60021
0.1460	-110.174	-22.8793	-26.0628	-270.84	-4.19344	3.27454	1.23137	3.62164	58.8071	1.92025
0.1467	3.05464	-26.2527	-17.5131	-189.987	1.29217	10.9151	2.76659	1.45871	112.552	1.92025
0.1473	2.13595	-31.1223	-12.0316	-151.219	3.73021	12.7403	3.67813	-1.25751	241.635	2.24029
0.1480	-73.8395	-30.2246	-9.89422	-74.6116	4.65667	10.2889	3.98197	-5.53305	273.669	1.92025
0.1487	-133.049	-27.1504	-4.99882	30.9804	4.04716	6.63855	3.07044	-16.5489	265.126	1.60021
0.1493	-153.49	-17.4111	3.51641	47.1453	5.55875	3.88293	0.623683	-25.4018	274.262	1.60021
0.1500	-127.858	4.57041	9.9287	37.3902	11.0687	3.88293	-0.895544	-21.428	206.833	1.92025
0.1507	-82.7049	14.337	17.5821	73.6839	14.1163	5.72598	-1.19939	-15.3417	143.676	1.60021
0.1513	-64.9972	5.49538	28.2347	103.596	11.9708	7.24694	0.0159919	-11.9715	157.715	1.60021
0.1520	-78.1114	-3.67265	28.2347	105.733	8.02118	6.03017	0.0159919	-10.1104	162.896	1.92025
0.1527	-81.4876	-6.09388	23.6841	127.717	7.09472	2.66616	-1.19939	-11.0661	56.9879	1.92025
0.1533	-70.4863	-8.54232	24.2701	191.196	7.38728	-0.375767	-2.11093	-14.3859	-195.404	1.92025
0.1540	-79.3517	-14.6634	22.443	200.051	6.77777	-0.697853	-2.11093	-16.8507	-364.746	1.92025
0.1547	-106.797	-15.5612	24.8907	113.07	9.84971	3.88293	0.319837	-9.8086	-322.352	1.92025
0.1553	-121.772	-10.6915	26.4076	32.8078	12.8973	8.15952	2.1589	1.15691	-243.929	1.92025
0.1560	-123.908	-6.09388	20.6158	-31.2897	12.8973	7.85532	1.23137	-1.25751	-124.575	1.92025
0.1567	-119.315	-4.89687	19.4092	-85.6038	11.9708	7.24694	-2.11093	-10.1104	36.2255	1.92025
0.1573	-104.363	-5.79463	20.9261	-141.464	10.7518	7.85532	-6.39674	-8.90319	63.711	1.92025
0.1580	-76.297	-5.49538	19.7195	-264.43	9.2402	7.55113	-10.3627	-3.42043	-21.7511	1.92025
0.1587	-20.4408	-4.27116	19.7195	-375.532	9.2402	7.55113	-14.0249	-1.55932	-57.1461	1.60021
0.1593	48.2311	-3.67265	19.4092	-373.677	0.0731414	9.98467	-15.5441	0.553305	-19.6156	1.60021
0.1600	79.6502	0.598507	17.2718	-264.121	-32.2798	14.5655	-12.1858	3.62164	27.9996	1.92025
0.1607	41.8003	4.27116	11.4801	-157.629	-73.4828	11.5235	-11.2743	-1.55932	125.366	1.92025
0.1613	-10.9783	2.74769	8.10154	-114.279	-100.326	3.27454	-14.3287	-11.0661	253.539	1.28017
0.1620	4.89201	2.74769	15.4446	-71.5755	-107.03	19.1462	-10.9704	-11.9715	297.16	1.28017
0.1627	51.8829	5.19613	23.0635	-52.037	-100.643	50.2812	-2.43076	-5.53305	280.668	1.60021
0.1633	55.8562	6.39314	23.0635	-102.387	-87.8185	63.7015	3.07044	-1.25751	254.765	1.92025
0.1640	33.8766	7.3181	16.9615	-127.098	-85.673	70.1074	2.76659	-4.32584	197.975	1.60021
0.1647	4.89201	6.7196	10.239	-74.0213	-93.3041	76.5134	-0.591699	-12.2733	148.857	1.92025
0.1653	-21.3595	1.52347	8.41181	-41.3541	-78.9684	70.7158	3.67813	-15.6435	136.953	1.60021
0.1660	-12.5171	-3.67265	11.1698	-41.9726	-51.8085	63.3973	13.1453	-13.7823	139.405	1.60021
0.1667	16.789	-3.04694	15.4446	-5.03221	-36.2294	61.8763	18.0228	-10.714	165.941	1.92025
0.1673	36.0126	-1.22422	20.6158	12.96	-19.7726	54.2357	19.8619	-7.39417	190.065	1.92025
0.1680	52.1815	-0.924965	20.3056	-52.9366	0.0731414	38.6861	18.0228	-10.714	152.495	1.60021
0.1687	69.5906	0.924965	14.5138	-109.415	20.5284	26.7689	14.6645	-18.6615	80.2023	1.60021
0.1693	93.0861	5.79463	15.1344	-77.676	41.5687	20.6672	11.3062	-17.4543	28.316	1.92025
0.1700	122.691	7.3181	25.5112	-8.68689	58.6594	14.5655	5.51719	-11.6697	3.87565	1.92025
0.1707	141.294	1.22422	34.3712	36.1532	80.3337	9.98467	2.1589	-5.83486	26.1804	1.92025
0.1713	146.783	-6.42034	30.6824	37.9805	84.6003	-1.61043	0.0159919	-3.11863	77.7504	1.92025
0.1720	171.197	-12.215	19.099	11.1327	55.6119	-31.815	-7.00444	-7.99778	86.2926	1.92025
0.1727	177.927	-9.16803	3.82669	-16.3336	49.5168	-55.6135	-9.4352	-8.90319	35.9487	1.92025
0.1733	94.3033	-0.299253	-5.61937	9.30537	53.4908	-58.6734	-4.55768	-3.42043	-13.4857	1.92025
0.1740	-8.5438	0.924965	0.172373	97.8048	-19.4556	-63.5583	0.0159919	0.855108	-32.7453	1.92025
0.1747	-83.6236	-1.52347	8.10154	186.923	-105.519	-82.4719	6.42873	7.59538	-47.9711	1.92025
0.1753	-147.702	-0.625711	9.61842	267.775	-112.833	-99.8646	10.3947	13.6817	-58.3721	1.92025
0.1760	-136.402	-0.299253	8.72208	337.664	-78.6514	-96.8227	8.55565	17.0519	-58.0557	1.92025
0.1767	-82.7049	2.44844	4.44723	356.584	-49.663	-79.43	4.89351	23.44	-58.6885	1.92025
0.1773	-54.3174	7.94381	0.792917	330.973	-25.2582	-59.5859	4.58966	30.7839	-43.4231	1.60021
0.1780	-17.3862	13.1127	0.172373	302.27	8.31374	-37.6125	5.51719	30.7839	-21.7511	1.28017
0.1787	29.6047	13.412	-2.27533	232.072	43.7142	-21.7408	2.76659	21.6292	-22.9771	1.60021
0.1793	47.611	9.14083	-2.8614	86.8127	73.3121	-12.9013	-1.50323	10.0098	-27.525	1.92025
0.1800	34.7953	5.19613	-0.137899	-36.7717	101.691	-7.10379	-4.55768	-1.91142	-23.2539	1.92025
0.1807	35.3925	0.598507	1.10319	-111.243	126.413	-4.04397	-5.46922	-17.1525	-33.9317	1.92025
0.1813	50.9642	-4.89687	4.44723	-164.039	151.135	0.232618	-3.94999	-27.5144	-93.1739	1.60021
0.1820	48.5297	-3.97191	11.4801	-183.268	180.44	8.15952	0.623683	-27.2126	-187.139	1.60021
0.1827	29.9033	-1.22422	12.3764	-191.814	195.385	11.5235	3.07044	-29.0737	-261.013	1.60021
0.1833	26.5501	-2.44844	9.34263	-153.974	190.802	9.98467	0.319837	-35.7637	-287.233	1.92025
0.1840	61.0468	-3.3462	9.61842	-18.4702	176.466	7.24694	-3.94999	-41.85	-221.624	1.92025
0.1847	106.2	-5.79463	10.239	126.789	153.28	2.05777	-7.30828	-47.3831	-49.8298	1.92025
0.1853	146.485	-8.24307	12.0661	251.92	132.825	-1.00205	-7.91597	-45.2201	91.4733	1.60021
0.1860	186.149	-6.09388	15.7549	403.589	115.125	-0.375767	-6.39674	-36.6691	95.7445	1.60021
0.1867	215.455	-3.97191	16.9615	507.354	85.5267	-1.91462	-5.46922	-32.6953	40.813	1.60021
0.1873	240.788	-5.49538	13.8933	529.928	52.2717	-4.65236	-6.39674	-35.16	-13.8021	1.60021
0.1880	227.352	-6.7196	11.7559	469.204	28.769	-2.21882	-5.77306	-36.0655	-79.7277	1.92025
0.1887	155.649	-7.3181	12.0661	330.355	9.2402	-1.91462	-2.43076	-32.6953	-101.993	1.92025
0.1893	55.2361	-4.89687	13.3072	179.276	-5.72941	-1.61043	3.98197	-27.8162	-65.372	1.92025
0.1900	-75.0798	-0.625711	13.8933	-36.1532	-16.7006	5.0997	10.0909	-23.5406	-57.7393	1.60021
0.1907	-177.605	2.74769	10.239	-316.017	-24.6487	12.7403	9.78702	-18.3597	-67.5076	1.60021
0.1913	-211.781	5.19613	5.06777	-463.413	-22.5032	15.478	5.82104	-17.7561	-58.9653	1.92025
0.1920	-217.293	3.3462	0.792917	-392.006	-19.1631	12.7403	2.76659	-26.3072	-85.818	1.60021
0.1927	-252.387	2.12198	-1.03424	-283.659	-15.4816	10.2889	0.319837	-30.8845	-141.975	1.60021
0.1933	-326.226	5.79463	-1.96505	-279.386	-2.36491	12.7403	-2.11093	-29.3755	-161.512	1.60021
0.1940	-310.677	12.8135	-5.30909	-273.286	-7.85051	17.3211	-2.11093	-27.8162	-124.575	1.92025
0.1947	-193.476	18.0096	-7.13625	-229.036	-45.7134	21.5798	0.927528	-26.3072	-81.5469	1.60021
0.1953	-125.722	17.7104	-5.92964	-206.152	-65.8517	25.8564	2.76659	-24.4963	-60.824	1.60021
0.1960	-118.097	14.6362	-8.68761	-170.758	-54.8561	27.3952	0.927528	-23.2388	-38.5192	2.24029
0.1967	-80.2474	14.0377	-12.3419	-99.0418	-39.5939	24.9438	1.55121	-24.4963	-3.44063	1.92025
0.1973	-25.6314	17.3839	-8.06707	-19.0887	-22.2106	24.9438	3.07044	-23.8424	7.23719	1.60021
0.1980	-46.9909	15.8604	-2.5856	48.0731	-9.996	26.4647	-3.64614	-25.0999	4.82479	1.92025
0.1987	-140.077	7.3181	-2.8614	50.8	-6.02198	27.6994	-12.4896	-28.118	43.5813	1.92025
0.1993	-147.702	5.49538	-3.79221	16.3336	2.21862	34.1053	-14.3287	-18.3597	57.8975	1.60021
0.2000	-0.918688	10.365	-4.99882	54.4828	9.53277	40.2071	-10.9704	-8.90319	-17.1636	1.60021
0.2007	103.766	13.1127	-7.75679	138.709	14.4089	39.2945	-8.82751	-16.8507	-112.671	1.60021
0.2013	38.1485	14.0377	-2.5856	194.232	29.988	38.9903	-10.3627	-31.4881	-130.981	1.60021
0.2020	-73.541	10.9908	8.41181	243.064	48.5903	37.7557	-15.2402	-44.9183	-68.4171	1.92025
0.2027	-111.689	5.19613	11.4801	295.551	53.4908	32.5665	-21.3491	-51.3065	-61.4172	1.92025
0.2033	-106.499	0	10.239	287.005	53.7833	34.1053	-23.7799	-47.6849	-193.269	1.92025
0.2040	-107.716	-4.57041	13.6175	248.855	56.8309	41.4239	-23.7799	-39.4356	-336.984	1.60021
0.2047	-62.5626	-4.89687	13.6175	213.152	45.2502	42.6406	-26.5305	-33.9528	-339.436	1.60021
0.2053	5.8107	-6.09388	11.1698	63.9287	15.0184	38.6861	-26.5305	-35.4618	-200.268	1.92025
0.2060	-10.0596	-5.19613	9.9287	-141.155	-38.0823	35.3221	-14.9364	-38.832	20.6833	1.92025
0.2067	-56.7519	-0.625711	4.13696	-271.149	-111.614	33.497	-0.287854	-38.2284	223.325	1.60021
0.2073	-47.2895	-2.14918	2.62007	-430.465	-175.393	36.8431	8.55565	-34.8582	237.364	1.60021
0.2080	-27.4688	-3.04694	10.5492	-537.884	-212.33	43.249	13.1453	-29.3755	99.4224	1.60021
0.2087	-15.8703	-0.924965	11.7559	-418.854	-228.494	47.2214	11.0024	-26.9108	8.46316	1.92025
0.2093	-36.3111	-4.27116	4.7575	-255.574	-222.082	53.6273	1.55121	-26.3072	6.3276	1.60021
0.2100	-131.832	-0.924965	0.482645	-147.565	-194.02	62.1805	-10.6666	-21.7298	12.7343	1.60021
0.2107	-211.482	9.46729	-5.30909	-35.2536	-161.984	56.9914	-22.8684	-18.9633	-4.35022	1.60021
0.2113	-238.652	11.29	-10.2045	26.7073	-127.486	37.7557	-27.1382	-16.2471	-15.9376	1.60021
0.2120	-272.529	5.79463	-8.06707	36.1532	-84.454	21.5798	-21.0453	-7.09237	-10.7569	1.60021
0.2127	-278.615	0	-0.723967	54.4828	-37.1558	16.0864	-10.6666	2.66593	-1.89828	1.92025
0.2133	-214.238	-12.5142	6.58466	83.7765	10.4592	10.2889	1.23137	-3.72224	2.37285	1.60021
0.2140	-104.363	-33.2715	9.61842	102.696	46.4692	5.72598	10.6986	-20.5226	2.37285	1.60021
0.2147	-33.578	-41.5146	12.6867	96.8771	63.243	4.18712	5.21335	-33.651	-0.988687	1.92025
0.2153	-42.719	-26.5519	16.0307	21.5064	74.2386	-12.293	-9.13135	-51.9604	-1.89828	1.60021
0.2160	-41.8003	-7.01885	16.0307	-149.982	77.5787	-28.4688	-17.3832	-64.7367	11.5083	1.60021
0.2167	-20.7394	10.6915	17.5821	-297.406	59.2689	-14.1181	-20.1178	-53.7712	35.9487	1.60021
0.2173	-51.5614	18.6081	18.7887	-296.788	49.8093	8.15952	-17.0793	-33.9528	55.762	1.28017
0.2180	-92.4659	14.337	14.2036	-208.907	57.7574	10.5931	-10.0589	-21.428	53.6264	1.60021
0.2187	-44.5564	10.6915	10.239	-128.335	50.7358	-5.56493	3.37428	-8.90319	30.1352	1.60021
0.2193	88.194	12.8135	7.51547	-82.5395	25.7214	-37.3083	28.7054	8.80259	20.6833	1.92025
0.2200	174.872	15.2619	-0.137899	-57.2098	-4.19344	-72.7199	50.6782	14.2853	32.5871	1.92025
0.2207	117.5	12.5142	0.172373	-29.4623	-6.33892	-69.0517	50.0705	6.94147	31.9544	1.92025
0.2213	79.6502	11.8885	13.6175	-27.3257	24.7949	-28.4688	32.0637	8.19898	23.7285	1.92025
0.2220	182.199	11.8885	13.6175	-42.2818	45.2502	-0.697853	11.0024	11.8206	19.141	1.28017
0.2227	203.857	13.7384	5.96411	-19.679	50.4188	21.9019	-5.77306	16.398	9.37275	1.60021
0.2233	123.609	20.7573	21.5466	24.8799	65.0715	46.0046	-14.6326	26.8102	-0.988687	1.92025
0.2240	185.253	28.6739	35.5778	39.836	81.2601	48.134	-20.4216	27.4138	-9.84732	1.92025
0.2247	361.021	39.0662	23.0635	-5.34145	92.5483	34.4095	-25.0113	18.8627	-21.1184	1.60021
0.2253	420.231	44.8608	9.34263	-52.9366	103.836	7.55113	-24.7074	12.4745	-29.0674	1.92025
0.2260	267.637	29.8981	-2.5856	-49.2819	96.8149	-23.8881	-25.3151	-1.25751	-34.2481	1.92025
0.2267	-45.4751	15.8604	-22.0982	-39.5267	75.7501	-25.7132	-28.3696	-11.0661	-36.0673	1.60021
0.2273	-323.171	11.5893	-39.1977	-39.5267	59.8785	-13.5097	-28.3696	-0.653906	-30.8866	1.60021
0.2280	-368.646	-4.89687	-47.1268	-41.3541	44.6407	-16.2475	-28.9773	6.33786	-19.2992	1.60021
0.2287	-241.087	-23.8042	-31.8546	-49.9004	30.5975	-21.4366	-31.7119	0.553305	-8.02814	1.92025
0.2293	-101.63	-28.7011	0.172373	-41.9726	23.8685	-11.9888	-30.1926	0.553305	-6.48579	1.92025
0.2300	-102.847	-28.0754	13.8933	-29.4623	12.2878	21.9019	-28.3696	-9.8086	-16.254	1.92025
0.2307	-239.869	-38.7669	13.8933	-34.6351	-4.51039	54.5399	-28.0497	-35.16	-24.7963	1.92025
0.2313	-259.392	-37.8419	18.7887	-33.4262	-11.215	60.0333	-23.4761	-47.3831	-17.1636	1.60021
0.2320	-103.146	-7.64456	21.8569	-25.7795	-13.0436	48.7424	-19.8139	-56.5378	-6.48579	1.60021
0.2327	6.10927	8.24307	16.0307	-24.5707	-13.3605	46.0046	-20.4216	-64.7367	-8.30497	1.92025
0.2333	2.75606	2.12198	8.72208	-19.3698	-6.94844	42.9448	-13.0973	-51.9604	-17.1636	1.92025
0.2340	4.89201	0	10.8595	-17.8517	-4.80295	7.24694	0.0159919	-40.341	-26.6155	1.60021
0.2347	35.0939	-7.64456	13.8933	-30.0527	-12.434	-37.3083	5.82104	-38.832	-24.2031	1.60021
0.2353	46.6923	-18.3089	10.239	-37.3902	-22.8201	-67.2265	4.28582	-19.5669	-10.7569	1.92025
0.2360	101.331	-18.0096	5.37804	-32.1893	-41.7394	-93.7628	2.1589	-6.79057	-12.2993	1.60021
0.2367	162.355	-7.64456	0.792917	-24.8799	-59.7322	-99.2562	0.319837	-19.5669	-5.25982	1.60021
0.2373	106.499	4.86967	-2.27533	-14.8155	-64.6326	-71.7894	-2.73461	-19.2651	34.4063	1.92025
0.2380	26.8487	13.412	-1.03424	-5.95994	-68.5823	-47.3825	-6.0929	-4.62765	57.3043	1.60021
0.2387	-3.97333	15.8604	2.93034	-6.55031	-74.0923	-52.2674	-7.61213	-4.62765	38.6774	1.60021
0.2393	-4.57047	14.9627	4.13696	-1.37753	-70.1183	-58.9776	-4.25384	-10.1104	11.2315	1.60021
0.2400	58.2907	12.215	2.3098	13.8878	-66.1442	-54.3968	5.82104	-9.20499	-6.16941	1.60021
0.2407	173.333	6.7196	0.482645	16.924	-72.2637	-56.544	18.9344	-4.92945	-14.4348	1.60021
0.2413	194.394	8.24307	-1.34451	8.68689	-76.8229	-60.1943	27.7939	3.62164	-12.2993	1.92025
0.2420	61.0468	19.2338	-4.10248	1.06829	-76.8229	-60.8027	29.3131	19.7681	-1.89828	1.92025
0.2427	-2.13595	25.0285	-6.55018	2.27715	-74.0923	-62.3416	26.8663	39.6368	4.82479	1.92025
0.2433	25.9529	16.4861	-4.10248	12.3697	-83.2349	-58.3692	18.0228	43.9123	5.41801	1.92025
0.2440	3.67475	3.97191	3.24062	15.7151	-181.513	-54.0926	8.87548	27.112	10.0055	1.92025
0.2447	-4.86905	-3.3462	7.51547	10.2331	-338.669	-49.2076	9.48317	5.13065	16.0958	1.92025
0.2453	-77.2157	-11.29	12.6867	6.55031	-412.225	-32.7275	14.3607	-14.9895	18.5478	1.92025
0.2460	-213.021	-18.0096	26.1318	2.27715	-404.887	-19.9157	21.685	-30.8845	21.2765	1.28017
0.2467	-124.207	-18.6081	34.0609	-7.47803	-359.734	-26.93	29.0092	-41.85	21.5929	1.28017
0.2473	165.111	-16.7854	28.2347	-7.78727	-276.426	-42.1933	29.0092	-47.031	15.1862	1.92025
0.2480	233.462	-11.5893	19.099	6.55031	-184.56	-63.5583	26.5625	-40.0392	3.59882	1.92025
0.2487	52.8016	-3.04694	9.34263	11.442	-93.621	-77.8912	27.49	-31.4881	-6.16941	1.60021
0.2493	-37.2298	7.94381	-3.48194	-0.449806	18.9924	-64.1667	32.6714	-27.2126	-3.75701	1.60021
0.2500	-95.5206	20.7573	-13.5485	8.68689	136.189	-36.3957	34.8143	-23.5406	2.37285	1.92025
0.2507	-240.467	36.0192	-25.7526	48.0731	227.421	4.49131	22.2927	-14.3859	-4.6666	1.92025
0.2513	-362.537	49.4312	-46.196	66.993	293.053	49.0466	2.1589	-1.25751	-21.7511	1.60021
0.2520	-375.054	50.6554	-56.2971	51.4185	327.235	55.7746	-10.6666	0.251502	-36.3837	1.28017
0.2527	-211.781	34.795	-39.5079	32.4985	322.042	31.3497	-11.5781	-10.1104	-40.6548	1.60021
0.2533	-76.5956	8.84157	-11.7214	21.8156	287.86	13.3487	-7.30828	-21.428	-34.8809	1.60021
0.2540	-134.886	-8.24307	8.41181	13.8878	261.603	1.44939	-6.39674	-25.7036	-27.8414	1.60021
0.2547	-102.227	-12.8135	20.6158	8.68689	252.143	-32.1191	-5.46922	-30.8845	-26.6155	1.60021
0.2553	109.875	-15.5612	19.9953	2.89563	214.621	-96.2143	-4.55768	-42.8057	-30.6098	1.60021
0.2560	247.196	-14.6634	10.5492	-24.8799	149.916	-149.001	-2.73461	-44.6165	-32.1126	1.60021
0.2567	210.563	-6.7196	7.79127	-48.9727	96.8149	-135.885	-0.287854	-32.6953	-29.3838	1.92025
0.2573	123.908	-3.04694	9.61842	-9.30537	62.3409	-80.951	-3.64614	-20.2208	-34.8809	1.92025
0.2580	83.325	-3.3462	10.239	56.6194	30.8901	-43.1059	-5.16537	-13.4805	-44.6491	1.28017
0.2587	-29.9033	4.27116	6.89493	67.3023	4.04716	-25.7132	2.46275	-4.62765	-40.0616	1.28017
0.2593	-129.076	14.337	-3.79221	35.844	-22.2106	-21.7408	7.64411	7.24327	-23.5703	1.60021
0.2600	7.32654	18.6081	-14.7896	30.0527	-71.6298	-27.5384	6.42873	11.8206	-8.62135	1.60021
0.2607	213.939	21.6551	-15.9962	39.836	-116.197	-20.2199	3.98197	12.1727	2.96606	1.60021
0.2613	295.726	25.9262	-17.8234	18.1609	-128.095	-4.65236	-1.19939	13.0781	7.23719	1.60021
0.2620	244.141	29.0004	-26.3731	-12.6789	-118.026	-2.8272	-7.30828	10.0098	3.28244	1.60021
0.2627	101.928	29.0004	-30.648	-16.0244	-90.866	-6.7996	-12.4896	0.553305	4.19203	1.92025
0.2633	-1.21726	32.3466	-35.5434	3.20487	-57.2941	-12.9013	-19.5101	-5.53305	12.7343	1.60021
0.2640	-48.8283	36.917	-42.852	24.2614	-24.6487	-22.6713	-17.3832	0.553305	19.4574	1.60021
0.2647	-161.436	35.0942	-41.6454	45.0088	5.26618	-29.6856	1.85506	14.2853	18.5478	1.60021
0.2653	-258.174	25.627	-31.5788	56.6194	26.9404	-31.815	25.9548	22.2328	21.9093	1.92025
0.2660	-257.256	13.1127	-16.927	40.4264	45.2502	-24.1922	39.0841	14.8889	50.2649	1.60021
0.2667	-215.455	3.97191	-2.5856	21.1971	69.3381	-9.84152	32.0637	-2.81683	75.2984	1.92025
0.2673	-137.022	-0.625711	2.62007	11.7512	105.055	-2.8272	12.5376	-20.8244	59.1235	1.92025
0.2680	-89.1127	-4.57041	0.792917	-0.168677	135.872	-0.697853	-2.11093	-35.4618	27.9996	1.92025
0.2687	-87.8955	-5.19613	1.10319	-0.449806	133.751	3.27454	-2.73461	-41.5482	10.9151	1.60021
0.2693	-21.6581	1.52347	-1.65478	25.1611	112.37	4.18712	5.51719	-32.9971	-4.35022	1.92025
0.2700	90.33	9.76654	-8.68761	55.3824	94.9863	14.2613	14.6645	-19.5669	-16.5704	1.92025
0.2707	133.049	14.6362	-12.6522	67.3023	89.7933	49.6728	21.9888	-12.8769	-15.028	1.92025
0.2713	117.799	16.4861	-16.3065	74.3024	65.0715	74.384	21.9888	-15.9453	-11.0733	1.60021
0.2720	118.717	11.8885	-18.7542	81.0214	-61.8777	98.791	10.0909	-21.428	-15.028	1.60021
0.2727	128.777	7.01885	-13.2383	86.2223	-220.863	208.962	-7.30828	-21.428	-18.706	1.92025
0.2733	93.0861	6.7196	-4.99882	98.4233	-292.59	335.005	-23.1722	-16.8507	-17.7568	1.60021
0.2740	4.89201	6.09388	-1.03424	105.142	-312.119	371.007	-31.1042	-11.6697	-19.2992	1.60021
0.2747	-70.1878	5.49538	0.172373	102.696	-308.462	363.081	-27.7459	-7.69598	-20.2088	1.92025
0.2753	-75.0798	6.09388	1.99953	94.4594	-268.478	331.641	-13.4172	-5.23125	-13.2089	1.92025
0.2760	-50.0455	4.57041	1.68926	23.643	-218.132	256.273	10.3947	0.553305	-1.62145	1.60021
0.2767	-36.0126	5.19613	1.99953	-92.3228	-170.224	143.346	32.0637	10.3116	10.0055	1.60021
0.2773	73.541	9.46729	5.65384	-145.119	-93.621	80.4857	48.5353	20.0699	20.0506	1.92025
0.2780	268.257	12.8135	4.44723	-141.155	-5.1199	123.216	63.4877	24.6472	20.6833	1.92025
0.2787	325.009	11.5893	1.10319	-120.998	66.6075	142.129	65.3268	24.949	10.5987	1.60021
0.2793	217.591	5.49538	5.96411	-87.1219	131.923	74.0798	54.6442	20.6735	-0.395475	1.60021
0.2800	110.174	4.27116	7.79127	-64.238	171.273	-17.1779	41.5149	4.82885	-4.35022	1.60021
0.2807	69.5906	8.84157	4.7575	-43.4907	173.711	-118.188	23.524	-7.69598	-3.75701	1.92025
0.2813	67.1331	2.74769	7.2052	-21.8156	179.83	-211.253	2.46275	-5.83486	-4.94344	1.92025
0.2820	66.8345	-10.365	10.239	-13.2693	203.333	-240.258	-17.9908	-3.72224	-10.7569	1.28017
0.2827	62.2641	-10.6915	9.9287	15.0966	214.304	-190.514	-30.1926	-1.25751	-18.706	1.28017
0.2833	72.6452	-4.27116	9.61842	56.0009	188.973	-121.23	-28.3696	3.62164	-26.3386	1.92025
0.2840	88.4926	-2.44844	6.58466	71.8566	133.434	-102.316	-22.8684	1.15691	-31.7962	1.92025
0.2847	99.7925	-1.52347	2.62007	81.0214	70.5815	-102.62	-23.4761	-1.55932	-38.2424	1.60021
0.2853	115.961	0.299253	4.44723	94.1501	7.70423	-71.181	-19.8139	1.45871	-44.3327	1.60021
0.2860	110.174	-1.52347	7.51547	94.4594	-59.1227	-53.4842	-1.19939	2.66593	-44.0163	1.92025
0.2867	91.2487	-0.924965	11.4801	89.877	-107.347	-65.6877	22.5965	4.82885	-33.0221	2.24029
0.2873	99.7925	4.27116	16.0307	94.7686	-114.369	-69.6601	48.2315	12.7763	-18.706	1.92025
0.2880	100.091	5.79463	11.1698	107.56	-96.3516	-71.4852	75.0978	18.5609	-11.0733	1.28017
0.2887	67.4547	6.39314	3.24062	108.178	-62.1702	-79.7342	84.8528	19.7681	-5.5762	1.60021
0.2893	45.7736	7.61736	1.99953	66.6838	-19.4556	-116.953	57.3948	18.5609	-5.5762	1.92025
0.2900	24.4141	1.82272	3.82669	6.85955	14.7258	-176.163	12.2178	13.6817	-15.9376	1.92025
0.2907	-17.7077	-1.52347	5.96411	-15.7151	47.0787	-175.251	-11.882	10.3116	-20.5251	1.60021
0.2913	-13.1143	5.49538	5.65384	1.68677	72.7026	-124.594	-10.9704	5.43245	-10.7569	1.92025
0.2920	12.5171	10.0658	-0.723967	17.8517	77.8956	-94.9975	-5.46922	-14.6877	0.553665	1.92025
0.2927	-15.8703	12.215	-5.30909	34.3259	82.7717	-86.7485	-1.50323	-30.5827	6.01122	1.60021
0.2933	-44.8549	14.337	-3.17167	56.3102	95.5958	-89.1821	1.55121	-26.609	7.23719	1.92025
0.2940	-32.9579	9.76654	-1.65478	-11.1327	102.617	-80.6468	6.42873	-21.428	7.55357	1.60021
0.2947	-14.6531	3.67265	3.24062	-101.459	104.129	-38.8293	17.4151	-16.8507	11.5083	1.60021
0.2953	2.13595	0.924965	9.9287	-56.9286	98.9604	22.5102	18.9344	-9.50679	17.6382	1.60021
0.2960	55.2361	-3.3462	3.82669	5.95994	82.7717	69.8032	-1.80708	-11.0661	12.1411	1.92025
0.2967	133.968	-3.67265	1.37899	-13.8878	69.3381	79.5732	-22.8684	-8.90319	-1.89828	1.60021
0.2973	180.982	0.924965	6.58466	-43.1814	62.0239	74.384	-30.4965	3.92344	-8.30497	1.92025
0.2980	169.98	-0.625711	3.24062	-41.3541	51.3453	86.2833	-36.9092	5.73426	-21.1184	1.92025
0.2987	141.593	-5.19613	2.93034	-4.1326	38.8381	87.1959	-43.0181	-0.955709	-34.8809	1.60021
0.2993	125.745	-4.57041	5.65384	47.1453	27.5499	68.2823	-46.3604	-3.42043	-22.9771	1.60021
0.3000	95.222	-5.49538	-2.5856	72.1658	8.63069	50.5854	-50.6462	-4.02404	-24.7963	1.60021
0.3007	55.2361	-6.42034	-8.68761	69.1296	-14.2626	12.7403	-45.7527	-0.352103	-51.3326	1.60021
0.3013	31.7407	-1.22422	0.172373	78.8848	-19.7726	-47.9908	-25.3151	11.5188	-47.9711	1.60021
0.3020	21.3595	-4.27116	2.93034	76.7482	-21.8937	-127.94	-1.50323	11.5188	-23.2539	1.92025
0.3027	21.9796	-13.7384	-1.96505	4.72297	-34.1083	-194.468	17.4151	-1.55932	-9.53094	1.60021
0.3033	36.9313	-9.76654	0.172373	-69.7481	-35.9368	-176.772	22.5965	-0.0503005	-2.80787	1.60021
0.3040	41.8003	0.924965	-3.17167	-84.0857	-30.7438	-105.358	16.5036	6.33786	-5.25982	1.92025
0.3047	33.8766	5.79463	-9.27368	-46.2457	-31.6702	-62.3416	16.5036	-3.72224	-14.7117	1.60021
0.3053	37.5284	6.09388	-2.27533	24.8799	-32.5723	-62.0374	18.6305	-5.83486	-19.6156	1.60021
0.3060	52.1815	4.27116	9.34263	52.6274	-24.9412	-79.7342	7.64411	7.59538	-12.8925	1.92025
0.3067	60.4267	-0.625711	8.72208	18.7794	-23.1127	-83.3845	-7.00444	3.62164	-2.80787	1.92025
0.3073	60.7253	-3.67265	3.24062	-9.61461	-41.4224	-69.0517	-11.5781	-15.6435	-1.89828	1.60021
0.3080	61.9425	-4.57041	2.62007	-7.16879	-66.1442	-60.4985	-21.0453	-14.6877	-10.4405	1.60021
0.3087	69.2691	-6.09388	4.44723	14.7874	-91.7925	-51.0507	-29.8888	28.0174	-19.6156	1.92025
0.3093	80.8675	-9.16803	5.65384	-3.20487	-124.438	-37.3083	-10.9704	49.6969	-20.2088	1.60021
0.3100	86.6782	-13.1127	2.62007	-88.6681	-142.748	-37.0041	20.7734	9.10439	1.46326	1.60021
0.3107	78.1344	-16.7854	-2.27533	-140.536	-138.481	-41.5849	41.5149	2.36412	44.7678	1.28017
0.3113	61.9425	-22.2808	-5.61937	-114.279	-136.653	-38.5251	58.0025	55.1796	64.3042	1.60021
0.3120	52.1815	-22.8793	-6.86045	-63.9287	-136.336	-26.0174	72.651	90.5912	46.6265	1.60021
0.3127	50.3671	-14.337	-2.8614	-22.7433	-114.052	-7.40798	64.1114	88.1265	27.4064	1.60021
0.3133	48.8283	0.598507	1.68926	9.61461	-77.1398	18.5378	33.5829	77.4628	21.2765	1.60021
0.3140	43.0405	10.6915	-4.99882	50.2096	-42.0319	52.1064	-2.73461	74.6962	18.8641	1.60021
0.3147	39.0672	15.5612	-13.5485	113.689	-5.72941	81.3983	-40.8752	62.5235	11.2315	1.60021
0.3153	37.5284	17.3839	-12.9625	169.521	24.1854	101.242	-67.1178	28.0174	-7.079	1.92025
0.3160	29.3061	9.76654	-19.3403	152.737	36.4001	105.823	-74.1383	2.06232	-29.977	1.92025
0.3167	25.3328	-0.299253	-30.9582	71.8566	44.0311	107.04	-73.5306	-3.11863	-42.7904	1.92025
0.3173	27.1702	-1.52347	-13.8588	12.3697	52.2717	106.432	-65.5986	-9.20499	-44.3327	1.92025
0.3180	19.5451	1.22422	19.4092	-5.03221	46.4692	75.905	-50.0225	-11.0661	-46.1519	1.60021
0.3187	10.3812	4.86967	17.8923	-7.78727	36.4001	44.1795	-31.1042	-4.62765	-49.5135	1.60021
0.3193	7.62511	9.76654	-3.17167	-1.99602	19.3093	35.6263	-11.2743	-1.91142	-27.2482	1.92025
0.3200	3.97333	9.46729	-1.96505	-13.5785	-29.5248	-1.91462	-1.80708	-6.13666	9.09592	1.92025
0.3207	-4.86905	5.19613	6.89493	-73.4028	-84.7709	-70.2685	-4.25384	-1.55932	36.8583	1.92025
0.3213	-14.3315	0.924965	4.7575	-127.408	-133.288	-50.4423	0.623683	16.0962	63.0782	1.92025
0.3220	-22.2782	-4.27116	0.792917	-106.351	-173.565	86.5875	22.5965	23.7418	62.1686	1.60021
0.3227	-25.6314	-6.09388	-0.44817	-64.238	-174.174	211.11	43.9616	13.0781	43.2649	1.60021
0.3233	-26.8487	-4.57041	-1.03424	-52.3462	-147.624	290.45	49.159	1.15691	39.587	1.60021
0.3240	-28.0659	-3.97191	1.37899	-39.5267	-122	352.094	47.6238	2.06232	45.9937	1.60021
0.3247	-26.8487	-4.89687	7.51547	-12.0604	-111.931	384.75	39.0841	1.76052	46.6265	1.60021
0.3253	-28.686	-6.42034	10.239	0.759048	-112.833	389.939	25.9548	-15.6435	40.2198	1.28017
0.3260	-32.9579	-4.89687	6.58466	-6.55031	-106.738	377.109	36.9412	-30.2809	39.587	1.60021
0.3267	-30.822	0.924965	7.51547	15.7151	-116.807	370.095	54.0365	-7.99778	40.4966	1.60021
0.3273	-25.3328	4.27116	14.8241	67.8927	-129.314	323.714	31.456	35.3612	35.6323	1.60021
0.3280	-31.7407	1.22422	-8.96341	87.4311	-127.486	174.177	-13.4172	32.5947	28.316	1.60021
0.3287	-35.3925	2.44844	-39.1977	98.4233	-121.073	7.55113	-36.3015	9.40619	23.1353	1.60021
0.3293	-25.93	5.79463	-19.6505	119.171	-89.647	-67.8349	-51.5578	13.3799	20.9997	1.60021
0.3300	-27.1472	-2.74769	-21.4777	101.15	-62.4872	-101.403	-85.1247	1.45871	15.7794	1.60021
0.3307	-28.686	-12.215	-77.9472	53.5551	-59.1227	-165.481	-108.313	-11.0661	14.2766	1.60021
0.3313	-18.3049	-10.0658	-92.5989	-27.0165	-22.2106	-211.879	-99.7732	-6.48876	17.6382	1.92025
0.3320	-16.1689	-1.22422	-73.6723	-126.199	33.0355	-200.892	-78.4081	-29.3755	10.2823	1.60021
0.3327	-21.3595	13.1127	-69.3975	-157.938	63.8525	-143.203	-56.7391	-63.2277	-4.94344	1.60021
0.3333	-18.3049	21.6551	-27.5797	-111.243	94.9863	-55.6135	-17.3832	-53.7712	-12.2993	1.92025
0.3340	-14.033	2.74769	52.9875	-53.8643	148.38	-3.73978	52.1974	-1.25751	-9.84732	1.92025
0.3347	-18.925	-18.6081	96.3221	-23.9522	195.093	-26.0174	122.082	24.3454	-9.84732	1.92025
0.3353	-25.93	-18.6081	69.4664	-14.197	221.326	-61.1069	151.379	12.4745	-15.028	1.92025
0.3360	-30.5234	-18.0096	17.8923	-6.55031	253.362	-76.066	132.764	35.0594	-22.3443	1.92025
0.3367	-29.9033	-12.8135	-1.96505	-10.2331	280.229	-81.5594	91.5694	80.5311	-26.0222	1.60021
0.3373	-25.6314	2.74769	13.3072	-24.5707	278.084	-62.0374	46.7122	98.5387	-26.3386	1.60021
0.3380	-25.0113	1.22422	44.7136	-11.7512	261.31	-40.6723	5.82104	61.5678	-30.2934	1.60021
0.3387	-22.5768	-13.1127	66.7084	12.96	251.85	-43.1059	-13.721	1.45871	-31.203	1.92025
0.3393	-17.3862	-21.0565	60.2961	22.1249	240.562	-94.3712	-8.21982	-35.16	-26.9318	1.60021
0.3400	-19.2235	-18.9346	35.2676	40.1171	214.012	-169.149	4.89351	-66.8997	-26.6155	1.60021
0.3407	-26.5501	-2.74769	12.6867	70.3385	197.214	-186.542	10.3947	-92.8547	-28.1578	1.92025
0.3413	-27.4688	6.39314	-0.44817	95.359	189.9	-150.844	13.4492	-107.19	-22.3443	1.92025
0.3420	-25.93	-12.8135	-15.9962	120.379	142.601	-104.141	10.0909	-100.148	-18.3896	1.28017
0.3427	-30.822	-33.2715	-16.927	154.565	67.8265	-54.701	-16.4556	-51.9604	-24.2031	1.60021
0.3433	-31.7407	-30.2246	22.7533	182.031	23.259	-4.04397	-37.5169	6.94147	-25.1127	1.92025
0.3440	-30.822	-25.9534	52.367	195.469	10.4592	20.0588	-32.9432	45.7232	-22.9771	1.60021
0.3447	-31.7407	-29.8981	37.405	209.807	20.8209	11.2193	-31.7119	63.7307	-27.8414	1.60021
0.3453	-28.0659	-17.7104	19.4092	217.425	54.1003	5.42178	-34.7663	60.0588	-26.3386	1.60021
0.3460	-21.3595	10.0658	21.5466	210.116	84.6003	-34.2664	-32.3355	51.8095	-18.3896	1.92025
0.3467	-11.5984	18.9074	2.62007	188.441	94.3768	-121.23	-29.2811	75.2998	-14.7117	1.92025
0.3473	-0.298574	-3.67265	-54.1597	73.0936	93.4504	-166.393	-25.619	108.599	-11.0733	1.92025
0.3480	2.43452	-18.3089	-54.7457	-131.062	87.6722	-155.102	-23.1722	94.8667	-4.6666	1.60021
0.3487	-1.83738	-16.1869	19.4092	-244.92	76.6766	-136.797	-21.3491	71.0243	-2.53104	1.60021
0.3493	-5.19059	-28.0754	35.8881	-245.819	62.3409	-118.188	-18.9024	71.6782	-4.03384	1.92025
0.3500	-13.4358	-39.9911	-18.7542	-214.08	47.3713	-107.201	-13.721	56.0851	-3.44063	1.60021
0.3507	-32.6594	-29.5989	-54.4355	-133.199	35.4736	-101.403	-8.21982	37.1721	-7.079	1.60021
0.3513	-43.0176	-12.215	-26.0628	-28.5346	27.5499	-79.7342	-3.3423	-2.51502	-11.0733	1.60021
0.3520	-39.9859	-9.16803	36.1984	59.0371	23.5759	-60.8027	4.28582	-76.0544	-10.1637	1.60021
0.3527	-48.2081	-7.64456	46.265	131.372	19.6019	-59.5859	3.67813	-60.1594	-16.5704	1.60021
0.3533	-59.2094	13.7384	13.8933	176.858	17.1639	-54.0926	-3.3423	5.73426	-16.8472	1.60021
0.3540	-59.2094	27.1504	12.9969	209.497	11.0687	-45.5573	-6.70059	-56.5378	-5.89258	1.28017
0.3547	-61.3454	13.7384	37.405	250.992	-3.29136	-35.7873	-11.5781	-194.462	-2.53104	1.60021
0.3553	-62.5626	10.365	41.0593	242.446	-9.67905	-8.92894	-14.3287	-229.571	7.23719	1.60021
0.3560	-54.9375	18.3089	26.4076	205.843	-3.90088	19.1462	-15.5441	-127.612	22.1861	1.60021
0.3567	-52.48	11.5893	9.03236	112.452	-5.72941	31.9581	-22.8684	-3.42043	17.0054	1.92025
0.3573	-56.1548	5.49538	-1.34451	-136.882	-7.85051	41.1197	-28.9773	71.6782	7.23719	1.92025
0.3580	-51.8829	16.1597	1.10319	-344.692	-1.75539	43.5532	-23.1722	117.15	12.7343	1.60021
0.3587	-50.3441	20.1316	5.37804	-358.13	-6.33892	28.9162	-11.882	131.184	15.7794	1.60021
0.3593	-56.1548	7.94381	3.51641	-239.719	-17.9197	18.2337	-5.16537	123.236	7.86995	1.60021
0.3600	-50.3441	0	-1.03424	-106.66	-25.8677	25.8564	2.1589	119.262	5.73439	1.92025
0.3607	-39.3658	-2.14918	7.79127	-56.6194	-39.5939	26.1606	14.9684	106.738	9.68913	1.92025
0.3613	-36.3111	-2.74769	23.3738	-40.4264	-57.2941	13.0445	21.685	86.9193	3.28244	1.60021
0.3620	-36.9313	1.22422	20.6158	-54.7921	-65.5347	6.63855	16.8074	71.3764	-3.44063	1.60021
0.3627	-37.5284	6.09388	15.1344	-65.1657	-62.1702	12.7403	7.94796	74.6962	-1.30507	1.60021
0.3633	-34.1752	7.3181	15.7549	-20.2975	-53.0275	27.6994	0.319837	89.3337	1.46326	1.60021
0.3640	-28.0659	14.0377	16.0307	-50.8281	-44.7869	41.4239	-5.16537	64.0325	8.14678	1.92025
0.3647	-24.1156	25.627	18.4784	-142.673	-40.5204	44.7879	-5.16537	16.398	19.7737	1.60021
0.3653	-22.5768	14.337	-0.723967	-149.083	-38.0823	39.9029	-4.86153	13.0781	24.9545	1.60021
0.3660	-21.9796	-8.84157	-32.4751	-89.877	-33.7913	42.0322	-9.4352	42.353	22.8189	1.60021
0.3667	-25.3328	-10.6915	-23.9254	-51.1093	-26.1603	49.3508	-12.7935	48.7915	20.9997	1.92025
0.3673	-29.9033	-7.3181	2.62007	-53.8643	-14.2626	49.6728	-10.6666	5.13065	20.367	1.92025
0.3680	-25.93	-13.4392	3.24062	-26.7073	-0.536371	53.3231	-7.91597	-60.4612	15.5026	1.92025
0.3687	-18.925	-9.16803	-6.23991	41.6633	1.60911	57.9039	-6.39674	-77.8652	4.19203	1.60021
0.3693	-14.3315	-6.09388	-4.72303	65.7561	-7.85051	54.2357	-2.73461	-33.9528	-6.48579	1.60021
0.3700	0.298574	-21.3558	14.2036	46.8361	-34.1083	49.0466	5.21335	13.9835	-8.62135	1.92025
0.3707	22.8983	-32.6458	27.6487	29.7435	-93.621	38.9903	17.1113	27.4138	-2.80787	1.92025
0.3713	35.714	-27.7761	16.9615	12.3697	-155.864	23.4228	22.9003	13.9835	2.05647	1.60021
0.3720	33.2565	-24.4299	34.647	-4.72297	-185.17	13.0445	19.8619	9.40619	2.96606	1.60021
0.3727	23.1969	-13.7384	73.7068	-8.68689	-173.272	17.6253	20.1657	13.9835	6.3276	1.60021
0.3733	2.75606	15.5612	55.0905	-76.1297	-136.336	28.9162	21.685	15.4926	12.4179	1.60021
0.3740	-21.6581	26.8512	-4.10248	-182.031	-100.033	27.0731	15.2722	25.2509	15.1862	1.60021
0.3747	-24.4141	19.5331	-34.9228	-140.227	-66.4612	11.8277	9.48317	33.5001	10.2823	1.60021
0.3753	-8.84237	24.1035	-37.9566	-24.2614	-28.0132	-5.86912	7.64411	4.82885	2.68923	1.92025
0.3760	5.48916	14.0377	-70.6385	-5.34145	10.4592	-24.4964	6.42873	-60.4612	1.14688	1.92025
0.3767	17.4091	-15.5612	-143.863	-19.9883	41.2761	-32.7275	14.3607	-120.621	4.50841	1.92025
0.3773	23.4954	0.598507	-162.479	-11.7512	62.6334	-26.0174	25.3471	-127.612	10.5987	1.60021
0.3780	21.681	46.3843	-62.6749	-10.2331	65.681	-17.7863	18.9344	-36.9709	12.1411	1.60021
0.3787	17.0876	39.9639	38.6116	-13.8878	56.2214	-4.34816	2.46275	93.3074	3.87565	1.92025
0.3793	14.033	0.598507	20.3056	-10.2331	48.5903	17.3211	-3.3423	133.296	-3.44063	1.92025
0.3800	13.4358	-2.74769	-53.5391	-4.41373	37.0096	27.3952	1.55121	62.8253	-4.6666	1.92025
0.3807	8.84237	18.0096	-49.2643	-1.99602	29.671	19.4504	5.82104	-42.1518	-4.6666	1.92025
0.3813	3.05464	3.97191	49.9193	6.85955	34.8641	11.8277	8.55565	-93.4583	-4.03384	1.92025
0.3820	2.43452	-38.7669	110.939	17.8517	24.478	7.85532	12.5376	-110.208	-4.35022	1.60021
0.3827	2.75606	-61.3469	80.7396	17.8517	-8.77697	1.44939	14.9684	-116.345	-7.39538	1.60021
0.3833	3.05464	-64.0946	49.609	15.7151	-30.4512	3.27454	14.3607	-62.0205	-6.16941	1.92025
0.3840	4.2719	-54.9266	37.405	10.2331	-33.4988	8.15952	11.0024	-25.0999	-0.395475	1.60021
0.3847	11.2999	-47.01	15.1344	-0.759048	-37.7654	5.42178	6.12488	-24.7981	4.19203	1.92025
0.3853	18.6264	-50.9547	-6.55018	14.5063	-45.7134	1.1452	0.927528	28.621	4.82479	1.92025
0.3860	21.9796	-25.627	21.8569	63.9287	-46.6155	2.05777	-0.895544	86.3157	2.96606	1.60021
0.3867	19.2235	16.4861	67.329	93.8409	-47.5419	2.97035	-6.39674	83.8509	0.553665	1.92025
0.3873	9.16391	29.0004	42.3004	96.5959	-57.6111	7.24694	-11.882	28.0174	-0.672307	1.92025
0.3880	12.5171	25.627	14.8241	104.524	-60.3417	14.2613	-4.55768	-45.5219	6.96036	1.60021
0.3887	20.4408	8.54232	33.7507	104.833	-58.5131	9.07209	-0.895544	-91.2954	10.5987	1.60021
0.3893	14.3545	-8.54232	38.6116	116.416	-60.0491	3.88293	-4.86153	-110.208	2.37285	1.60021
0.3900	12.2185	0	23.6841	171.967	-54.2466	15.1738	-1.50323	-98.6393	-5.5762	1.60021
0.3907	20.7623	15.8604	16.9615	182.34	-43.5679	31.6539	3.67813	-59.254	-4.03384	1.60021
0.3913	21.9796	15.8604	8.10154	69.1296	-45.7134	33.8012	1.55121	-34.2546	-0.672307	1.60021
0.3920	18.0063	7.61736	-10.825	-53.5551	-52.1011	20.9714	-3.64614	-21.428	-2.80787	1.92025
0.3927	23.4954	3.67265	-17.5131	-71.2662	-45.3965	12.1319	-4.55768	12.7763	-3.44063	1.92025
0.3933	29.6047	-1.52347	7.2052	-55.0732	-33.4988	9.07209	-4.55768	49.3951	-0.672307	1.92025
0.3940	24.7127	-14.0377	15.1344	-88.9492	-29.8417	9.37629	-8.52366	34.1037	-0.672307	1.92025
0.3947	26.2515	-11.9157	-14.1691	-117.962	-21.2842	16.7127	-9.4352	-13.4805	2.96606	1.92025
0.3953	38.1485	7.01885	-13.5485	-97.8048	-8.46003	17.9295	-6.0929	-41.85	9.09592	1.92025
0.3960	39.0672	5.49538	2.93034	-70.3385	-12.751	6.33436	-6.0929	-77.8652	3.59882	1.60021
0.3967	34.7953	-4.89687	0.482645	-49.9004	-22.2106	-1.61043	-2.73461	-111.768	-3.12425	1.60021
0.3973	38.4471	3.04694	0.482645	-27.9161	-13.97	4.7955	4.89351	-81.8389	0.553665	1.92025
0.3980	39.0672	25.627	0.482645	-19.0887	-3.58393	9.68048	5.82104	-14.0841	3.59882	1.92025
0.3987	32.6594	48.8327	-3.48194	-21.8156	-11.8245	2.97035	0.623683	10.0098	-0.672307	1.92025
0.3993	34.1752	45.4593	-33.0957	-15.4059	-22.5032	5.72598	0.319837	0.855108	0.830497	1.92025
0.4000	37.5284	21.3558	-69.0872	-8.99613	-26.7698	18.5378	3.37428	9.10439	4.50841	1.92025
0.4007	33.8766	18.6081	-73.6723	-11.442	-31.9628	23.1186	-0.895544	12.1727	0.830497	2.24029
0.4013	32.6594	46.9828	-107.871	-9.92386	-36.5463	15.478	-8.52366	-9.20499	-3.75701	1.92025
0.4020	35.714	69.59	-125.867	-7.16879	-37.7654	6.03017	-9.75504	-19.2651	-3.75701	1.28017
0.4027	41.2032	47.9077	-32.1648	-7.16879	-33.7913	11.2193	-6.39674	-37.8763	-0.988687	1.60021
0.4033	47.3124	13.412	48.9885	-4.1326	-25.2582	25.5522	-5.46922	-107.19	-0.988687	1.60021
0.4040	55.8562	16.4861	47.1613	0.759048	-19.4556	29.8288	-2.73461	-110.51	-0.672307	1.60021
0.4047	66.536	11.8885	63.6402	-1.99602	-22.5032	20.6672	3.07044	-30.8845	1.74009	1.60021
0.4053	76.9171	-29.2996	83.1873	-8.68689	-22.8201	12.7403	8.87548	3.92344	4.19203	1.92025
0.4060	87.8955	-74.7589	48.4024	-11.442	-17.9197	8.7679	9.78702	17.6555	5.10163	1.60021
0.4067	94.6019	-82.4035	4.7575	-10.2331	-13.3605	7.55113	2.76659	32.8965	2.37285	1.60021
0.4073	85.7595	-42.1131	7.51547	-5.65069	-2.36491	10.5931	-5.77306	16.398	-1.62145	1.60021
0.4080	66.536	-27.1504	40.749	4.41373	11.6782	12.7403	-7.00444	-31.4881	-3.44063	1.60021
0.4087	53.3987	-47.9077	37.0947	15.7151	11.3613	8.7679	-2.11093	-138.326	-2.80787	1.92025
0.4093	45.7736	-48.8327	-11.7214	19.0605	0.9996	3.27454	1.85506	-165.438	-2.21466	1.92025
0.4100	39.3658	-21.6823	-45.61	20.2975	-2.07234	4.49131	3.37428	-22.3334	-0.079095	1.92025
0.4107	37.8499	17.3839	-50.7811	21.5064	-2.97442	7.55113	3.07044	40.844	-0.079095	1.92025
0.4113	47.611	43.6366	-52.0222	13.5785	-6.63149	6.33436	1.55121	-48.5903	-1.62145	1.92025
0.4120	61.9425	32.0473	-39.5079	1.06829	-9.38648	5.72598	-0.895544	-48.2885	-2.80787	1.92025
0.4127	65.6173	10.9908	-27.3039	-1.68677	-7.85051	6.94275	-3.03845	46.025	-6.80217	1.92025
0.4133	62.2641	12.5142	-35.8192	-4.1326	-6.33892	7.85532	-4.86153	56.9905	-10.4405	1.60021
0.4140	56.4534	15.8604	-0.44817	-18.1609	-7.55795	6.33436	-6.39674	-14.6877	-11.9829	1.60021
0.4147	44.8549	25.9262	79.533	-3.82336	-6.33892	5.42178	-4.86153	-76.9598	-20.8415	1.92025
0.4153	36.3111	26.8512	91.1165	22.1249	-5.72941	3.27454	-3.03845	-56.8396	-15.3444	1.92025
0.4160	36.9313	-24.7292	12.6867	-0.449806	-8.46003	-1.00205	-4.25384	-46.1256	12.7343	1.92025
0.4167	45.7736	-65.3188	-52.0222	-20.916	-7.85051	-1.30624	-4.86153	-109.907	7.23719	1.60021
0.4173	56.7749	-34.4957	-51.4017	-5.03221	-3.58393	1.1452	-2.43076	-108.699	-13.8021	1.92025
0.4180	53.3987	1.82272	-38.8874	3.51411	-3.58393	-0.0715747	-2.11093	-34.2546	-7.079	2.24029
0.4187	39.9859	-3.97191	-26.9936	0.449806	-5.41247	-1.61043	-3.94999	46.9304	8.77954	1.92025
0.4193	36.9313	-25.0285	12.0661	1.68677	-5.1199	-0.0715747	-4.25384	67.4027	33.4967	1.60021
0.4200	43.0405	-25.9534	60.2961	5.03221	-5.72941	-0.0715747	-3.94999	27.112	40.2198	1.92025
0.4207	40.9046	-18.3089	95.0811	10.5142	-7.55795	-2.52301	-4.25384	-0.352103	16.689	1.92025
0.4213	38.4471	-13.4392	111.87	16.0244	-6.63149	-2.52301	-3.94999	-61.1151	1.74009	1.60021
0.4220	37.8499	22.2808	86.8416	13.5785	-4.80295	-1.91462	-3.03845	-128.518	-0.395475	1.60021
0.4227	24.1156	56.4501	6.58466	4.72297	-5.72941	-4.04397	-3.03845	-87.0199	-1.62145	1.92025
0.4233	17.7077	72.6369	-37.9566	1.06829	-4.80295	-2.8272	-2.43076	-7.39417	-0.079095	1.92025
0.4240	26.8487	101.311	0.482645	-0.449806	-0.536371	0.53681	-0.591699	23.7418	-1.89828	1.92025
0.4247	27.4688	96.4412	12.6867	-12.0604	0.0731414	-0.697853	0.0159919	25.9048	3.28244	1.92025
0.4253	19.2235	55.8515	-14.1691	-26.398	-2.07234	-3.43559	-0.895544	-26.0054	17.6382	1.60021
0.4260	14.033	49.7305	32.2338	-23.9522	-1.14588	-2.52301	-0.287854	-54.3748	11.8247	1.92025
0.4267	10.3812	74.7589	104.251	-5.95994	-0.536371	-2.21882	0.927528	-9.8086	-6.48579	1.92025
0.4273	4.57047	84.8247	50.5398	7.47803	-2.97442	-4.95655	0.319837	0.251502	-8.62135	1.60021
0.4280	9.46249	53.4031	-20.2711	21.8156	-1.14588	-3.13139	1.23137	-33.2989	2.68923	1.28017
0.4287	21.3595	1.22422	70.0525	35.844	0.0731414	-1.91462	1.85506	-98.3375	9.09592	1.60021
0.4293	22.8983	-1.52347	144.518	35.5628	-1.14588	-4.95655	0.319837	-161.515	8.14678	1.60021
0.4300	23.817	18.6081	22.443	41.6633	1.60911	-3.43559	0.319837	-99.5447	10.0055	1.92025
0.4307	31.1206	4.27116	-84.0492	49.9004	5.55875	0.232618	1.85506	23.44	-3.44063	1.92025
0.4313	32.3608	-11.29	-44.9894	46.2457	2.82814	-1.61043	0.319837	111.013	-44.3327	1.92025
0.4320	27.7673	-33.5708	-55.3663	44.3903	-1.14588	-4.34816	-1.80708	152.813	-72.4114	1.92025
0.4327	29.9033	-66.8423	-115.49	19.9883	0.9996	-3.13139	-0.895544	95.1685	-65.6884	1.60021
0.4333	34.1752	-64.6931	-88.324	-31.2897	4.33973	-1.61043	0.623683	9.708	-52.5586	1.60021
0.4340	21.3595	-56.1508	-33.4059	-51.4185	2.51119	-4.04397	0.0159919	-3.42043	-54.101	1.60021
0.4347	1.83738	-69.8892	6.27438	-23.643	1.60911	-4.95655	0.0159919	7.24327	-69.3663	1.60021
0.4353	0.298574	-43.0381	37.405	7.78727	5.55875	-1.61043	2.46275	-23.2388	-110.535	1.92025
0.4360	4.89201	18.9074	20.6158	18.4702	6.48521	-2.52301	2.1589	-48.8921	-169.145	1.60021
0.4367	10.9783	43.6366	4.44723	8.37765	7.38728	-3.13139	1.85506	-26.3072	-128.846	1.28017
0.4373	24.4141	25.3277	16.0307	-12.6789	10.7518	1.1452	3.07044	-19.919	24.0449	1.60021
0.4380	30.2248	-42.4123	-16.3065	-16.3336	9.84971	0.232618	2.1589	-23.2388	95.1512	1.60021
0.4387	31.4421	-117.498	-65.7431	-1.06829	6.77777	-3.73978	0.927528	-12.5751	78.6599	1.28017
0.4393	41.5017	-101.937	-59.0206	7.47803	7.09472	-2.21882	0.623683	5.13065	118.326	1.28017
0.4400	46.3937	-33.2715	-1.03424	9.30537	8.31374	-0.697853	0.623683	66.7991	134.817	1.60021
0.4407	28.9846	15.8604	69.4664	10.8235	6.77777	-3.73978	0.623683	78.67	74.982	1.60021
0.4413	12.2185	54.6273	71.2936	9.61461	8.02118	-2.52301	1.55121	-32.6953	43.2649	1.60021
0.4420	7.32654	48.207	0.792917	6.85955	8.31374	-0.697853	0.927528	-144.111	43.5813	1.60021
0.4427	2.13595	-5.19613	-36.75	3.51411	5.26618	-3.43559	-0.287854	-112.07	38.6774	1.92025
0.4433	-0.918688	-32.3466	-63.916	3.20487	5.26618	-3.13139	0.319837	56.0851	35.3159	1.92025
0.4440	-3.35321	-28.7011	-121.592	5.34145	7.38728	-0.375767	0.623683	136.968	34.4063	1.92025
0.4447	-6.40785	-3.04694	-142.656	5.03221	6.48521	-1.30624	-0.591699	70.1189	31.0448	1.28017
0.4453	1.21726	44.8608	-113.353	2.89563	5.26618	-4.34816	-0.895544	42.9566	25.5477	1.60021
0.4460	14.9516	100.087	-94.426	2.58639	6.16826	-3.73978	-0.895544	78.67	24.0449	1.92025
0.4467	14.9516	120.844	-89.5306	3.20487	7.38728	-1.91462	-0.591699	117.753	25.2708	1.60021
0.4473	-3.65178	43.9358	-55.9868	1.68677	6.16826	-4.04397	-0.591699	196.172	22.1861	1.92025
0.4480	-19.5221	-44.5615	-68.8114	1.9679	5.8757	-4.34816	0.0159919	248.635	19.4574	2.24029
0.4487	-20.1422	-67.7401	-56.5729	5.03221	9.53277	-1.00205	1.55121	235.859	20.6833	1.92025
0.4493	-20.1422	-59.1977	106.078	4.72297	9.53277	-1.61043	2.1589	197.077	18.8641	1.60021
0.4500	-28.9846	-9.76654	215.949	3.51411	8.63069	-2.52301	1.23137	54.2742	15.7794	1.60021
0.4507	-34.1752	31.1223	158.549	6.55031	12.2878	1.75358	2.1589	-117.25	17.6382	1.60021
0.4513	-31.4191	15.8604	78.9125	7.16879	12.5803	1.44939	2.1589	-151.706	17.0054	1.60021
0.4520	-34.4738	-9.46729	58.1587	2.58639	7.09472	-3.43559	-0.895544	-118.458	10.9151	1.92025
0.4527	-39.9859	4.57041	61.227	2.27715	7.09472	-3.13139	-1.50323	-119.363	9.09592	1.92025
0.4533	-35.3925	17.3839	53.5736	3.82336	9.2402	-1.30624	0.0159919	-146.224	9.68913	1.92025
0.4540	-27.1472	-17.4111	48.0921	2.58639	7.09472	-3.43559	-0.591699	-170.971	6.64398	2.24029
0.4547	-19.5221	-22.58	48.0921	3.82336	7.09472	-2.21882	-0.287854	-123.639	6.01122	1.92025
0.4553	-14.6531	3.3462	19.7195	4.72297	8.02118	-0.0715747	0.319837	-3.11863	7.23719	1.92025
0.4560	-21.0609	-23.2057	-9.58395	3.20487	6.48521	-2.52301	0.0159919	8.50078	5.41801	1.92025
0.4567	-37.5284	-58.8985	-7.13625	3.82336	7.09472	-2.21882	0.319837	-144.413	3.59882	1.60021
0.4573	-45.7736	-66.8423	-19.6505	5.95994	9.84971	1.1452	1.55121	-236.865	4.82479	1.60021
0.4580	-42.4204	-69.8892	-43.1623	5.34145	8.92325	0.232618	1.23137	-201.453	4.50841	1.92025
0.4587	-41.8003	-41.8138	-30.648	1.9679	5.55875	-3.13139	-0.591699	-130.077	1.14688	1.92025
0.4593	-40.8816	-19.8323	14.2036	2.27715	6.16826	-1.91462	-0.591699	-9.8086	0.237285	1.92025
0.4600	-38.7457	-54.6273	39.2321	4.72297	8.31374	0.53681	0.927528	33.5001	1.74009	1.92025
0.4607	-48.2081	-93.3942	3.24062	3.82336	7.09472	-0.697853	0.623683	-66.5979	0.237285	1.60021
0.4613	-57.6706	-46.3843	-2.27533	3.20487	5.55875	-1.30624	0.0159919	-181.937	-1.62145	1.60021
0.4620	-55.8333	59.1977	65.4673	5.03221	6.48521	-0.375767	0.319837	-239.33	-0.988687	1.60021
0.4627	-65.2957	72.9362	52.6772	4.72297	5.26618	-2.21882	-0.287854	-132.793	-2.53104	1.60021
0.4633	-79.3517	31.7481	-21.4777	5.34145	7.09472	-0.375767	0.623683	52.1113	-2.21466	1.92025
0.4640	-73.2424	48.8327	-31.8546	7.47803	10.4592	4.18712	2.46275	101.255	0.553665	1.92025
0.4647	-60.4267	52.1789	-11.7214	5.03221	8.02118	1.44939	1.85506	82.0401	-1.62145	1.92025
0.4653	-53.6973	7.61736	-22.4085	0.140565	2.82814	-3.73978	-0.591699	94.5649	-6.48579	1.92025
0.4660	-46.9909	-11.5893	-32.7854	0.759048	3.43765	-2.52301	-1.50323	104.021	-6.16941	1.92025
0.4667	-38.4471	2.44844	30.0964	5.34145	7.70423	1.1452	0.319837	91.4966	-2.80787	1.92025
0.4673	-42.719	0.598507	113.077	5.03221	7.38728	0.53681	0.927528	100.048	-3.12425	1.92025
0.4680	-55.5347	-8.54232	118.282	3.51411	6.48521	0.53681	0.0159919	119.564	-4.35022	1.92025
0.4687	-57.9922	-7.64456	74.6376	3.82336	7.09472	1.1452	-0.287854	57.6444	-3.12425	1.92025
0.4693	-55.8333	-9.16803	35.8881	2.27715	4.94924	-1.00205	-1.80708	-49.1939	-4.6666	1.92025
0.4700	-54.616	-14.9627	-2.8614	0.140565	0.9996	-2.8272	-3.94999	-131.284	-7.39538	1.60021
0.4707	-50.0455	-9.46729	-20.5814	2.58639	2.82814	-1.00205	-3.64614	-144.413	-4.35022	1.60021
0.4713	-46.0722	9.76654	-4.41275	5.65069	5.26618	1.1452	-1.19939	-8.29958	-0.988687	1.92025
0.4720	-44.8549	14.6362	7.79127	2.89563	0.682653	-1.30624	-2.43076	126.908	-4.35022	1.60021
0.4727	-42.1218	6.09388	5.37804	1.68677	-0.828936	-1.61043	-3.03845	95.4703	-6.16941	1.92025
0.4733	-44.2578	0	-2.27533	2.27715	0.390088	-1.00205	-1.80708	22.8364	-5.25982	2.24029
0.4740	-50.3441	-11.5893	-13.2383	0.140565	-2.36491	-3.13139	-3.3423	2.66593	-8.30497	1.92025
0.4747	-51.5614	-14.337	-3.48194	0.449806	-1.75539	-2.21882	-3.3423	-2.21322	-9.21456	1.60021
0.4753	-52.1815	-4.57041	24.5804	3.51411	2.51119	1.1452	0.319837	28.621	-5.5762	1.92025
0.4760	-54.9375	-8.24307	17.5821	4.10448	2.82814	0.841003	0.927528	71.0243	-5.5762	1.60021
0.4767	-52.48	-14.9627	-12.6522	4.41373	2.51119	0.841003	0.927528	54.576	-6.48579	1.60021
0.4773	-43.3391	-20.7573	-19.9608	5.34145	3.43765	2.05777	2.1589	18.8627	-5.25982	1.92025
0.4780	-36.3111	-22.8793	-20.2711	2.27715	0.0731414	-0.375767	0.319837	-1.25751	-7.39538	1.60021
0.4787	-35.714	-2.74769	-23.0291	-1.99602	-4.51039	-3.73978	-2.11093	-23.2388	-9.53094	1.92025
0.4793	-32.6594	14.337	-22.4085	-0.759048	-4.19344	-3.13139	-1.19939	-0.352103	-7.39538	2.24029
0.4800	-20.1422	13.7384	-47.7474	3.20487	-0.828936	0.232618	0.927528	66.447	-3.44063	1.92025
0.4807	-7.92368	-5.19613	-87.1174	4.10448	-0.219424	1.1452	1.23137	78.0664	-3.75701	1.92025
0.4813	-6.70642	-57.6743	-63.916	2.27715	-1.75539	-0.0715747	-0.287854	60.0588	-5.25982	1.92025
0.4820	-17.0876	-65.3188	9.34263	0.449806	-3.58393	-1.91462	-1.50323	119.262	-7.079	1.92025
0.4827	-32.9579	2.12198	27.0281	-0.759048	-4.80295	-2.8272	-2.43076	160.76	-8.30497	1.92025
0.4833	-36.9313	20.7573	-16.3065	-0.168677	-4.19344	-2.21882	-2.43076	88.1265	-7.71176	1.92025
0.4840	-19.8437	14.337	-43.4725	2.89563	-1.75539	0.53681	-1.19939	7.89718	-4.6666	1.92025
0.4847	-1.83738	43.3373	-52.0222	5.03221	0.390088	2.36196	0.0159919	-28.118	-1.89828	1.60021
0.4853	-3.35321	36.3185	-87.7035	3.51411	-1.14588	0.53681	-0.895544	-33.651	-2.80787	1.92025
0.4860	-8.24522	-9.76654	-107.561	0.759048	-4.19344	-2.21882	-3.03845	10.6134	-5.25982	1.60021
0.4867	3.67475	-29.2996	-24.5459	0.140565	-4.19344	-1.61043	-4.25384	55.4814	-4.6666	1.60021
0.4873	20.7623	-28.0754	78.6022	0.140565	-3.58393	-1.30624	-4.55768	28.9228	-3.75701	1.60021
0.4880	25.0342	-40.8889	78.9125	-0.759048	-4.19344	-2.8272	-4.86153	-39.7374	-5.25982	1.60021
0.4887	15.8703	-37.5427	9.9287	2.27715	-0.828936	-0.375767	-3.3423	-91.899	-2.80787	1.60021
0.4893	-3.97333	-28.0754	-53.2288	4.72297	2.21862	2.36196	-1.80708	-114.182	-0.079095	1.60021
0.4900	-21.0609	-31.4488	-74.2929	2.89563	0.390088	1.1452	-2.43076	-52.564	-1.89828	1.60021
0.4907	-25.3328	-23.505	-75.8097	1.68677	-0.536371	0.232618	-3.03845	85.1084	-3.75701	1.92025
0.4913	-23.794	-18.6081	-13.8588	1.37753	-0.828936	0.53681	-2.43076	188.526	-3.44063	1.60021
0.4920	-28.0659	-12.215	90.1857	-0.168677	-4.19344	-2.52301	-3.3423	183.647	-4.94344	1.60021
0.4927	-25.93	43.3373	88.979	1.37753	-3.29136	-1.61043	-3.03845	47.2322	-4.35022	1.60021
0.4933	-12.5171	88.4974	47.7819	5.34145	1.60911	3.88293	0.927528	-106.587	0.553665	1.60021
0.4940	-10.6797	60.422	43.507	4.10448	-0.219424	2.66616	1.55121	-129.775	-0.395475	1.92025
0.4947	-14.3315	55.8515	6.27438	1.68677	-3.29136	-0.0715747	-0.287854	-55.2802	-4.35022	1.60021
0.4953	-7.92368	97.0397	-30.648	1.68677	-2.36491	0.232618	-0.287854	42.9566	-4.6666	1.92025
0.4960	-3.35321	93.0678	-40.7146	0.140565	-3.90088	-1.30624	-1.50323	63.7307	-5.25982	1.92025
0.4967	0	24.1035	-50.7811	-0.168677	-4.80295	-2.21882	-2.73461	-29.0737	-5.25982	1.92025
0.4973	10.6797	-25.3277	-33.992	5.34145	0.390088	2.97035	0.0159919	-58.0468	0.830497	1.92025
0.4980	15.2502	-12.5142	-13.5485	6.55031	2.21862	4.7955	1.55121	32.2929	3.28244	1.92025
0.4987	9.76106	-14.9627	28.8553	1.06829	-3.58393	-1.00205	-2.11093	100.048	-1.62145	1.60021
0.4993	7.62511	-29.8981	97.839	-1.37753	-6.63149	-2.8272	-4.55768	118.659	-2.80787	1.92025
0.5000	7.32654	8.84157	69.7422	-0.759048	-6.33892	-1.00205	-4.55768	117.753	-1.30507	1.92025
0.5007	-0.298574	50.6554	-42.2314	-1.37753	-7.55795	-2.52301	-5.16537	2.06232	-2.80787	1.60021
0.5013	-1.51584	1.52347	-95.0466	0.140565	-5.1199	-1.00205	-3.94999	-211.564	-2.21466	1.60021
0.5020	14.9516	-95.8155	-59.3309	4.10448	0.390088	2.97035	-0.591699	-307.99	1.74009	1.92025
0.5027	20.7623	-109.554	-51.4017	2.89563	-0.828936	1.1452	-0.895544	-248.786	0.553665	1.92025
0.5033	14.033	-59.5242	-52.6083	0.449806	-2.97442	-0.697853	-3.03845	-124.594	-1.89828	1.92025
0.5040	17.4091	-77.5066	17.2718	0.759048	-2.36491	0.232618	-3.03845	59.1534	-1.89828	1.92025
0.5047	17.0876	-155.04	37.7153	-0.759048	-3.29136	-1.30624	-3.64614	148.236	-3.12425	1.92025
0.5053	8.84237	-162.359	-3.17167	-1.68677	-3.29136	-2.52301	-4.25384	42.6548	-3.75701	1.60021
0.5060	10.3812	-60.422	-7.13625	2.27715	1.29217	1.1452	-2.11093	-72.0806	-1.30507	1.60021
0.5067	12.5171	-6.7196	-16.3065	4.41373	3.73021	2.97035	-0.287854	-80.3299	0.553665	1.92025
0.5073	9.76106	-57.375	-51.712	2.27715	0.9996	0.232618	-0.591699	-32.9971	-1.62145	1.60021
0.5080	10.6797	-28.0754	-55.6765	1.68677	0.390088	-0.0715747	-1.19939	11.5188	-1.62145	1.60021
0.5087	12.8157	50.9547	-23.0291	0.140565	-0.536371	-0.697853	-2.11093	6.94147	-1.89828	1.60021
0.5093	18.3049	37.8419	0.482645	-1.68677	-2.07234	-2.21882	-3.3423	-45.5219	-2.80787	1.60021
0.5100	29.3061	-54.0288	-1.03424	2.27715	1.29217	0.232618	-2.11093	-100.45	0.830497	1.60021
0.5107	32.9579	-108.955	21.2364	5.34145	4.65667	3.27454	-0.895544	-116.647	4.82479	1.92025
0.5113	23.1969	-41.8138	70.3627	2.89563	1.60911	1.1452	-2.11093	-40.6428	3.87565	1.92025
0.5120	16.1689	45.7858	101.493	-0.449806	-4.51039	-3.13139	-4.25384	123.236	1.14688	1.92025
0.5127	19.8437	93.3942	119.799	-1.37753	-6.94844	-4.34816	-5.46922	250.496	-0.988687	1.92025
0.5133	23.817	65.6181	143.311	-0.168677	-4.80295	-2.8272	-4.86153	219.662	-1.62145	1.92025
0.5140	24.7127	-9.16803	211.364	2.58639	-1.46283	-0.375767	-3.03845	102.764	-0.079095	1.92025
0.5147	23.1969	-35.0942	246.459	4.72297	0.0731414	2.05777	-0.591699	83.8509	3.28244	1.60021
0.5153	26.2515	-28.0754	130.176	4.10448	-1.14588	1.1452	0.623683	148.889	4.82479	1.92025
0.5160	36.3111	-9.76654	-24.5459	0.759048	-4.51039	-1.61043	-0.895544	145.519	0.830497	1.92025
0.5167	43.9592	25.9262	-87.1174	-1.06829	-4.80295	-1.61043	-1.80708	51.5077	-1.62145	1.60021
0.5173	46.9909	27.7761	-81.9118	0.449806	-3.29136	-0.375767	-1.50323	-17.7561	-0.395475	1.60021
0.5180	47.3124	-25.0285	-19.6505	2.27715	-0.536371	1.1452	-0.591699	-8.60139	0.830497	1.60021
0.5187	43.0405	-22.58	67.329	3.82336	1.90168	2.36196	0.319837	28.9228	2.37285	1.60021
0.5193	27.4688	58.5992	45.6444	3.82336	0.9996	2.05777	0.319837	49.9987	3.59882	1.60021
0.5200	4.89201	85.7497	-96.8737	1.68677	-1.75539	-0.0715747	-1.19939	35.9649	1.74009	1.60021
0.5207	1.83738	114.75	-212.226	-0.168677	-2.97442	-1.61043	-3.03845	-74.8471	-1.30507	1.60021
0.5213	21.9796	180.042	-226.878	0.449806	-2.36491	-1.30624	-2.43076	-175.851	-0.988687	1.92025
0.5220	25.3328	144.05	-184.439	0.449806	-3.29136	-2.21882	-3.3423	-55.8839	-0.988687	1.60021
0.5227	6.70642	51.5804	-91.3923	1.37753	-2.97442	-2.21882	-3.64614	38.9829	-0.988687	1.60021
0.5233	3.35321	28.3747	16.341	4.10448	-0.219424	0.53681	-0.591699	-91.5972	2.05647	1.92025
0.5240	14.3545	69.8892	45.3342	4.10448	0.390088	1.44939	0.623683	-234.752	4.19203	1.92025
0.5247	6.40785	68.0393	-2.27533	-0.449806	-3.90088	-1.91462	-2.43076	-261.613	1.14688	1.92025
0.5253	-17.7077	11.5893	-113.973	-2.89563	-6.33892	-4.04397	-4.55768	-160.257	-1.89828	1.92025
0.5260	-19.8437	-47.9077	-139.278	0.140565	-2.97442	-1.61043	-2.73461	-17.4543	1.14688	1.92025
0.5267	-5.19059	-81.1793	1.99953	1.68677	-0.219424	0.53681	-1.80708	60.6624	3.28244	1.92025
0.5273	-6.10927	-66.8423	70.3627	1.37753	-0.219424	-0.0715747	-2.43076	43.5602	2.37285	1.60021
0.5280	-8.84237	-83.3284	32.2338	2.58639	1.90168	1.75358	-1.80708	-18.6615	2.96606	1.92025
0.5287	-0.298574	-128.488	-3.79221	1.06829	1.29217	0.841003	-2.73461	-4.92945	2.37285	1.92025
0.5293	-0.918688	-127.264	-63.6057	-2.58639	-1.46283	-2.52301	-4.86153	37.4739	-1.30507	1.60021
0.5300	-2.7331	-92.7685	-109.078	-1.37753	0.682653	-0.375767	-4.55768	-8.29958	-0.079095	1.60021
0.5307	6.40785	-32.0473	-96.5635	0.759048	3.1207	2.05777	-3.03845	-40.0392	3.59882	1.92025
0.5313	4.57047	7.94381	-89.8409	-0.168677	2.82814	1.1452	-2.73461	-5.53305	2.96606	1.92025
0.5320	-6.40785	1.52347	-116.111	0.449806	4.04716	1.75358	-2.11093	0.553305	2.05647	1.60021
0.5327	-6.10927	-3.04694	-117.938	1.9679	4.94924	3.27454	-1.19939	-3.72224	3.28244	1.92025
0.5333	-3.65178	-29.8981	-79.1538	-1.37753	0.682653	-0.375767	-2.73461	65.2397	0.553665	1.60021
0.5340	-0.918688	7.61736	-4.10248	-1.99602	-1.46283	-2.21882	-3.03845	191.293	-0.672307	1.60021
0.5347	3.35321	162.957	40.4732	1.9679	2.82814	1.44939	-0.895544	203.516	3.28244	1.60021
0.5353	-4.57047	176.396	17.2718	1.06829	3.43765	1.1452	-1.19939	72.5836	3.87565	1.92025
0.5360	-16.1689	38.1412	19.9953	-0.759048	0.9996	-0.697853	-3.3423	-34.5564	1.46326	1.60021
0.5367	-20.1422	26.2527	47.7819	0.759048	1.60911	0.841003	-3.03845	-54.6766	2.37285	1.60021
0.5373	-27.1472	97.0397	30.3722	-0.168677	1.29217	-0.0715747	-2.73461	-16.2471	2.37285	1.92025
0.5380	-32.3378	65.9173	12.6867	-1.37753	-0.536371	-1.61043	-3.94999	5.73426	1.46326	1.60021
0.5387	-21.6581	-0.299253	33.7507	-0.168677	0.9996	0.53681	-3.3423	25.9048	2.37285	1.60021
0.5393	-13.4358	-18.9346	38.3358	0.140565	1.60911	0.53681	-2.43076	104.323	2.05647	1.60021
0.5400	-20.7394	-87.2731	20.9261	-1.37753	0.390088	-1.61043	-2.11093	135.761	0.237285	1.92025
0.5407	-23.794	-144.349	-7.44652	-0.449806	1.60911	0.53681	-0.895544	24.3454	1.46326	1.92025
0.5413	-21.9796	-31.7481	-4.41275	0.449806	2.82814	1.75358	-0.591699	-187.42	2.37285	1.92025
0.5420	-23.4954	83.002	88.3585	-1.99602	0.0731414	-1.61043	-3.64614	-352.858	-0.672307	1.92025
0.5427	-18.0063	28.3747	133.831	-1.68677	1.29217	-0.697853	-4.25384	-323.533	-0.672307	1.92025
0.5433	-15.2502	13.7384	58.1587	2.27715	5.8757	3.27454	-1.50323	-145.62	3.87565	1.92025
0.5440	-21.6581	159.91	4.13696	1.06829	4.04716	1.44939	-1.80708	-2.21322	3.59882	1.92025
0.5447	-20.7394	204.771	-3.79221	-0.759048	0.682653	-0.697853	-3.94999	82.6437	1.46326	1.92025
0.5453	-18.3049	99.7874	-17.8234	-0.449806	1.90168	0.841003	-4.25384	153.165	1.46326	1.92025
0.5460	-22.5768	86.3754	-1.65478	-1.68677	0.9996	-0.375767	-5.16537	162.32	-0.079095	1.92025
0.5467	-16.1689	146.797	75.8442	-1.06829	1.60911	-0.375767	-5.77306	138.779	0.553665	1.92025
0.5473	-8.84237	39.6647	137.519	1.68677	4.65667	2.66616	-4.25384	164.734	3.59882	1.92025
0.5480	-18.6034	-138.554	104.251	0.449806	2.21862	1.1452	-4.55768	197.983	2.37285	1.92025
0.5487	-28.686	-83.6277	15.1344	-1.06829	-0.219424	-1.61043	-5.77306	154.674	-0.079095	1.60021
0.5493	-33.578	69.8892	-63.6057	1.06829	2.21862	-0.0715747	-3.94999	56.6887	2.05647	1.92025
0.5500	-43.3391	72.6369	-61.4683	1.68677	2.82814	0.53681	-2.73461	-63.2277	2.96606	1.92025
0.5507	-43.3391	22.58	12.9969	0.759048	1.29217	-0.0715747	-3.94999	-170.066	2.37285	1.60021
0.5513	-27.7673	21.6551	81.6704	1.37753	2.51119	1.44939	-3.94999	-163.326	3.87565	1.92025
0.5520	-22.8753	43.9358	100.873	-0.168677	0.9996	-0.375767	-3.94999	-87.0199	2.96606	1.60021
0.5527	-29.6047	75.6839	-36.1294	-2.30526	-3.58393	-4.04397	-5.77306	-84.9072	-0.395475	1.60021
0.5533	-27.4688	64.0946	-230.842	-0.759048	-2.36491	-1.61043	-7.00444	-64.7367	1.14688	1.60021
0.5540	-24.1156	59.8235	-230.532	1.06829	0.682653	1.1452	-6.39674	80.5311	3.59882	1.60021
0.5547	-27.7673	96.4412	-135.623	1.06829	0.9996	-0.0715747	-4.86153	206.232	2.05647	1.60021
0.5553	-29.6047	61.9454	-76.7406	1.9679	2.51119	0.841003	-3.03845	173.587	2.05647	1.92025
0.5560	-39.9859	32.9451	30.9927	1.9679	3.43765	1.75358	-1.50323	-28.4198	2.68923	1.60021
0.5567	-54.9375	68.9643	133.244	0.140565	0.9996	-0.0715747	-1.50323	-292.699	0.553665	1.60021
0.5573	-49.7469	90.6465	117.352	0.449806	0.9996	0.232618	-1.50323	-335.152	0.830497	1.60021
0.5580	-33.578	133.657	57.8484	2.58639	2.51119	1.75358	-0.591699	-56.8396	3.28244	1.92025
0.5587	-30.2019	138.554	19.4092	1.37753	0.0731414	-0.697853	-1.50323	235.255	1.46326	1.92025
0.5593	-30.822	37.5427	-12.3419	0.449806	-0.828936	-1.61043	-2.11093	306.934	-1.62145	1.92025
0.5600	-20.1422	-32.0473	-55.6765	3.82336	3.73021	1.44939	-0.591699	197.379	-0.079095	1.60021
0.5607	-20.4408	-14.6634	-169.512	4.72297	4.33973	1.44939	-1.19939	76.2556	0.237285	1.28017
0.5613	-32.3378	-69.2907	-156.377	2.89563	4.04716	1.1452	-3.94999	-3.72224	-1.62145	1.60021
0.5620	-22.8753	-162.359	86.5313	3.20487	5.8757	2.97035	-4.86153	-138.326	-1.30507	1.92025
0.5627	-4.2719	-64.3939	174.442	2.58639	5.55875	2.05777	-5.16537	-156.636	-1.30507	1.92025
0.5633	-0.597147	80.5535	66.7084	3.20487	5.8757	2.36196	-5.77306	-22.3334	-1.30507	1.60021
0.5640	-2.7331	103.759	59.6756	5.34145	9.2402	6.03017	-4.55768	25.9048	1.74009	1.92025
0.5647	-10.3812	105.283	101.183	1.68677	7.38728	4.49131	-4.55768	31.3875	1.46326	1.60021
0.5653	-18.925	29.5989	72.1899	-2.30526	4.04716	1.1452	-6.39674	35.3612	-0.672307	1.60021
0.5660	-19.5221	-165.405	11.1698	-1.68677	4.04716	2.66616	-6.0929	-16.8507	1.14688	1.92025
0.5667	-31.4191	-308.829	-20.2711	-2.58639	2.21862	2.36196	-4.55768	-27.8162	3.28244	1.92025
0.5673	-44.2578	-343.325	-3.79221	-2.30526	0.682653	1.75358	-3.64614	3.92344	5.10163	1.92025
0.5680	-33.8766	-341.502	-13.5485	1.68677	2.82814	4.49131	-2.43076	-49.4957	7.23719	1.60021
0.5687	-17.0876	-205.07	-15.0999	2.89563	2.82814	4.18712	-2.43076	-112.673	5.73439	1.92025
0.5693	-5.19059	-3.97191	59.9859	0.759048	-1.46283	0.232618	-4.55768	-30.5827	0.830497	1.60021
0.5700	17.7077	29.5989	177.165	0.759048	-0.828936	1.44939	-4.55768	157.088	0.237285	1.28017
0.5707	41.2032	-33.2715	319.373	3.20487	2.51119	4.49131	-1.50323	334.7	2.68923	1.60021
0.5713	29.3061	-20.458	345.332	2.27715	0.9996	2.97035	-1.19939	377.153	1.14688	1.92025
0.5720	-15.2502	81.7778	184.198	0.140565	-1.14588	1.1452	-3.3423	243.153	-0.672307	1.60021
0.5727	-49.4254	89.0959	60.6064	0.759048	-1.46283	1.1452	-2.43076	30.4821	0.830497	1.92025
0.5733	-53.1002	9.76654	-5.92964	0.140565	-3.58393	-0.375767	-1.19939	-93.4583	-0.079095	1.92025
0.5740	-47.2895	68.9643	-155.756	1.06829	-2.07234	1.75358	-0.591699	-83.3479	0.553665	1.60021
0.5747	-49.4254	170.901	-331.853	5.95994	4.65667	7.24694	1.85506	-79.7263	5.10163	1.60021
0.5753	-53.1002	148.321	-419.143	5.34145	5.55875	6.03017	0.0159919	-93.4583	4.19203	1.92025
0.5760	-39.6643	22.8793	-366.052	1.9679	1.60911	2.97035	-4.55768	-57.745	0.553665	1.92025
0.5767	-21.6581	-184.939	-274.487	0.759048	-1.75539	2.97035	-5.77306	20.0699	1.74009	1.60021
0.5773	-17.0876	-330.512	-121.592	-0.759048	-5.1199	0.841003	-6.39674	56.6887	2.05647	1.60021
0.5780	-12.8157	-223.705	129.556	-0.759048	-5.72941	0.232618	-7.00444	-4.92945	1.14688	1.60021
0.5787	-14.6531	25.3277	207.399	1.68677	-4.80295	2.66616	-5.77306	-35.7637	2.68923	1.92025
0.5793	-23.1969	131.835	42.3004	1.68677	-6.02198	2.36196	-3.94999	-29.6773	2.05647	1.92025
0.5800	-19.5221	81.1793	-33.4059	2.89563	-5.72941	2.66616	-1.19939	-192.299	1.74009	1.60021
0.5807	-12.8157	61.3469	112.491	6.55031	-2.36491	6.94275	2.1589	-432.484	4.82479	1.28017
0.5813	-25.3328	27.4497	258.663	6.24107	-3.29136	6.03017	1.55121	-350.695	4.82479	1.60021
0.5820	-46.3937	-3.04694	303.515	1.68677	-8.16746	0.841003	-1.19939	-44.9183	0.830497	1.60021
0.5827	-40.2845	77.5066	264.145	1.68677	-7.85051	1.75358	1.55121	169.613	1.14688	1.60021
0.5833	-13.7344	39.9639	162.238	2.58639	-5.41247	3.88293	3.67813	326.802	3.59882	1.92025
0.5840	14.9516	-62.2719	130.797	1.06829	-7.55795	2.36196	2.1589	324.338	3.28244	1.92025
0.5847	42.719	59.8235	128.97	2.58639	-6.94844	3.88293	2.76659	136.365	4.50841	1.60021
0.5853	47.3124	175.172	-61.158	3.20487	-5.72941	3.88293	3.37428	19.1645	4.50841	1.60021
0.5860	20.1422	126.339	-366.948	-0.449806	-8.16746	0.53681	0.0159919	80.8329	0.830497	1.60021
0.5867	-15.8703	45.7858	-476.508	-0.168677	-6.63149	2.36196	-0.895544	147.632	1.14688	1.60021
0.5873	-30.2019	-7.01885	-311.409	3.51411	-2.36491	6.63855	2.76659	60.9642	4.82479	1.60021
0.5880	-16.4675	48.8327	-120.075	4.41373	-1.75539	6.33436	3.98197	-20.8244	4.50841	1.92025
0.5887	-4.2719	105.283	-91.6681	2.27715	-3.29136	4.7955	1.85506	-44.3147	1.74009	1.60021
0.5893	-13.4358	26.8512	-171.339	-0.168677	-3.58393	3.88293	0.319837	-51.0047	0.553665	1.60021
0.5900	-21.6581	-137.33	-177.751	-1.99602	-5.41247	2.05777	-0.287854	119.564	0.237285	1.60021
0.5907	-17.3862	-387.587	-66.0534	-2.30526	-6.33892	2.66616	-1.19939	248.334	0.830497	1.60021
0.5913	-22.5768	-431.224	-30.648	-0.168677	-2.97442	5.42178	-0.895544	138.779	3.59882	1.92025
0.5920	-22.8753	-59.8235	-68.1908	-0.449806	-1.46283	5.0997	-1.80708	18.2591	4.19203	1.92025
0.5927	-3.97333	242.314	-73.9826	-1.37753	-0.536371	4.49131	-3.3423	-27.2126	2.68923	1.92025
0.5933	2.75606	227.052	-92.9092	0.759048	1.90168	7.24694	-1.80708	100.651	3.87565	1.92025
0.5940	-9.76106	134.882	-41.9556	-0.449806	-1.46283	5.42178	-2.11093	422.021	2.96606	1.60021
0.5947	-13.1143	52.4781	137.519	-2.30526	-5.1199	3.27454	-3.64614	646.311	0.237285	1.60021
0.5953	3.67475	-95.5162	280.038	0.759048	-3.58393	6.03017	-0.591699	538.266	3.28244	1.60021
0.5960	36.3111	-233.146	297.723	1.68677	-7.55795	4.7955	1.23137	258.746	4.82479	1.60021
0.5967	69.2691	-152.891	259.56	1.06829	-13.97	1.44939	0.623683	140.037	3.28244	1.60021
0.5973	64.6986	-36.3185	210.123	2.89563	-13.6531	3.57873	1.55121	220.568	4.82479	1.60021
0.5980	15.5718	-141.601	169.236	3.20487	-12.751	4.49131	2.1589	304.519	5.41801	1.60021
0.5987	-38.4471	-227.677	88.979	1.06829	-14.2626	2.97035	0.0159919	175.7	1.74009	1.60021
0.5993	-67.7532	-101.311	16.9615	2.89563	-12.751	5.0997	0.0159919	-178.869	1.14688	1.60021
0.6000	-66.2144	112.002	47.7819	5.03221	-9.996	8.15952	1.55121	-416.035	2.37285	1.60021
0.6007	-44.2578	233.771	-15.0999	5.03221	-9.38648	7.85532	2.1589	-430.069	1.14688	1.92025
0.6013	-29.2832	234.669	-153.033	5.95994	-6.33892	8.15952	4.28582	-500.842	1.14688	1.60021
0.6020	-33.8766	169.677	-149.654	3.82336	-6.02198	6.94275	5.51719	-504.816	0.237285	1.28017
0.6027	-42.1218	88.4974	-129.521	-0.759048	-9.996	4.7955	1.85506	-322.024	-2.53104	1.60021
0.6033	-38.1485	83.3012	-165.857	0.140565	-8.16746	7.24694	0.623683	-288.121	-0.988687	1.92025
0.6040	-29.2832	141.302	-147.827	3.51411	-4.80295	9.98467	3.67813	-387.616	2.37285	1.92025
0.6047	-29.9033	128.788	-111.215	1.9679	-6.33892	8.46371	4.58966	-311.662	0.830497	1.60021
0.6053	-24.4141	22.8793	-147.827	0.449806	-7.85051	6.63855	4.89351	-80.3299	0.237285	1.60021
0.6060	-2.43452	-75.0854	-217.432	1.68677	-8.16746	7.24694	4.28582	120.771	2.96606	1.60021
0.6067	10.6797	-143.424	-243.977	-0.168677	-10.9225	5.0997	-1.80708	145.821	2.37285	1.60021
0.6073	10.0826	-156.863	-168.581	-1.68677	-13.6531	3.27454	-8.21982	56.0851	1.46326	1.60021
0.6080	18.0063	-99.1889	-64.5365	0.140565	-19.4556	4.7955	-9.75504	49.0933	5.73439	1.60021
0.6087	24.1156	-64.3939	-27.3039	0.140565	-30.1343	4.18712	-11.2743	-5.23125	7.55357	1.60021
0.6093	18.3049	-112.601	10.5492	-0.449806	-36.5463	2.97035	-13.721	-140.439	5.41801	1.92025
0.6100	12.2185	-122.694	59.0895	-0.168677	-39.3013	3.57873	-11.882	-165.137	5.10163	1.92025
0.6107	3.05464	20.4308	132.003	-1.99602	-41.7394	2.66616	-8.52366	-220.719	2.96606	1.60021
0.6113	-11.897	180.368	133.52	-2.30526	-38.9844	1.75358	-7.91597	-258.243	0.553665	1.60021
0.6120	-12.1956	285.95	21.2364	1.37753	-30.1343	4.49131	-2.43076	-83.0461	3.87565	1.60021
0.6127	1.83738	310.679	-7.75679	3.20487	-20.9916	6.63855	4.89351	111.315	5.73439	1.92025
0.6133	-4.2719	165.705	37.7153	2.27715	-13.6531	6.63855	-1.80708	189.432	2.96606	1.92025
0.6140	-11.5984	60.7212	148.482	3.82336	-6.02198	7.55113	-14.9364	155.579	2.05647	1.92025
0.6147	10.9783	65.6181	289.484	2.89563	1.29217	4.7955	-24.0837	-24.1442	0.553665	1.60021
0.6153	36.0126	-19.5331	234.255	-1.99602	4.33973	-0.697853	-31.1042	-122.733	-2.80787	1.60021
0.6160	43.9592	-115.675	45.0239	-0.449806	3.43765	-1.00205	-31.408	108.297	-0.988687	1.92025
0.6167	33.578	-146.498	-101.769	2.58639	2.51119	2.05777	-33.2471	358.844	3.59882	1.92025
0.6173	17.7077	-165.405	-138.381	1.68677	0.682653	2.66616	-54.3084	245.617	3.59882	1.92025
0.6180	10.9783	-92.7685	-143.863	0.449806	0.682653	3.57873	-79.6395	96.6776	2.37285	1.60021
0.6187	8.5438	51.5804	-262.904	-1.37753	0.0731414	4.18712	-88.483	126.606	3.59882	1.60021
0.6193	17.0876	66.8423	-199.091	-4.1326	-4.80295	0.232618	-84.517	49.3951	2.37285	1.60021
0.6200	19.2235	48.8327	128.97	-2.89563	-7.55795	-2.52301	-74.4421	-133.749	0.237285	1.60021
0.6207	7.62511	191.658	303.204	1.9679	-4.51039	0.232618	-57.6666	-338.17	3.28244	1.92025
0.6213	6.40785	239.566	303.515	0.759048	-10.3129	-1.30624	-36.3015	-514.876	4.50841	1.92025
0.6220	0.918688	86.9739	178.406	-5.65069	-24.6487	-7.40798	-13.4172	-555.77	2.37285	1.92025
0.6227	-17.3862	40.2904	-26.3731	-7.16879	-27.3793	-9.23314	14.9684	-384.899	2.96606	1.60021
0.6233	-11.897	170.901	-92.5989	-7.78727	-19.1631	-8.32056	43.9616	-86.4163	3.28244	1.60021
0.6240	15.5718	232.846	-109.078	-10.2331	-9.67905	-8.01637	60.7531	2.66593	5.10163	1.92025
0.6247	28.3875	7.61736	-33.0957	-6.26918	0.390088	-5.86912	70.2043	-166.696	10.5987	1.60021
0.6253	16.4904	-267.342	282.761	-2.89563	3.1207	-6.19121	77.5285	-283.544	12.1411	1.60021
0.6260	-2.13595	-234.995	673.083	-6.26918	-4.80295	3.27454	72.9549	17.3537	9.68913	1.92025
0.6267	-18.0063	-97.9646	786.918	-8.68689	-15.4816	27.6994	52.1974	632.579	6.64398	1.92025
0.6273	-35.0939	-11.9157	542.183	-7.16879	-30.7438	44.7879	24.7394	686.904	2.96606	1.60021
0.6280	-51.5614	43.3373	299.86	-0.759048	-60.0491	46.3088	1.55121	35.9649	2.68923	1.60021
0.6287	-60.7253	-14.6634	151.551	4.10448	-93.621	42.3364	-12.4896	-411.458	3.59882	1.60021
0.6293	-59.2094	-104.983	-72.776	4.72297	-111.614	32.8886	-7.61213	-355.876	5.10163	1.92025
0.6300	-46.0722	-133.059	-293.724	4.10448	-113.442	13.6529	19.2382	-62.9259	7.86995	1.92025
0.6307	-26.8487	-50.3562	-374.567	3.82336	-111.004	-5.86912	41.8347	161.968	6.01122	1.92025
0.6313	-20.7394	-16.1869	-244.287	3.20487	-105.202	-11.3625	37.245	199.542	0.553665	1.60021
0.6320	-24.7127	-137.929	51.4362	0.140565	-103.983	-3.73978	6.12488	288.624	-2.80787	1.28017
0.6327	-20.1422	-121.47	166.513	-0.759048	-123.828	4.18712	-39.356	237.972	-3.44063	1.60021
0.6333	-19.2235	-31.1223	-17.8234	3.82336	-143.357	2.66616	-72.3152	-117.25	-2.53104	1.60021
0.6340	-28.686	-36.3185	-176.2	5.34145	-136.945	-5.86912	-81.1587	-305.827	-4.35022	1.60021
0.6347	-25.0113	11.8885	-200.953	1.9679	-103.373	-13.5097	-64.9909	-141.344	-6.16941	1.92025
0.6353	-7.62511	-72.3377	-181.095	0.449806	-54.5635	-19.0031	-31.7119	323.432	-5.89258	1.92025
0.6360	13.7344	-277.707	-96.2532	-0.168677	-9.67905	-23.2797	-14.3287	748.522	-6.48579	1.60021
0.6367	38.1485	-213.014	42.6107	-1.06829	19.6019	-19.0031	-13.0973	674.982	-5.25982	1.60021
0.6373	43.9592	-128.189	245.839	0.449806	44.9332	-10.4499	-4.25384	498.277	0.830497	1.92025
0.6380	16.789	-306.408	399.354	-1.37753	83.6982	-9.53733	3.67813	465.934	5.10163	1.92025
0.6387	-28.9846	-237.743	256.836	-9.92386	133.751	-8.01637	14.6645	267.599	3.87565	1.60021
0.6393	-45.1535	181.266	-58.1242	-15.4059	186.852	4.7955	44.8732	59.1534	3.59882	1.92025
0.6400	-26.8487	284.427	-194.23	-15.7151	217.961	13.9571	89.4425	74.6962	6.96036	2.24029
0.6407	-25.3328	71.1135	-75.1892	-19.679	196.312	3.57873	125.744	3.92344	6.3276	1.92025
0.6413	-31.7407	-4.89687	15.7549	-21.5064	149.306	-5.26074	127.583	-149.594	3.28244	1.92025
0.6420	-28.3875	-3.04694	-204.607	-8.99613	115.734	2.66616	101.948	-188.979	-0.079095	1.60021
0.6427	-28.3875	-38.4676	-508.846	14.5063	103.227	17.3211	72.9549	-356.48	-12.2993	1.60021
0.6433	-19.8437	-82.7027	-548.836	30.6712	101.398	30.7413	51.2859	-528.306	-21.4347	2.24029
0.6440	-2.43452	-114.75	-406.008	25.1611	90.1102	31.9581	38.4764	-413.571	-18.0732	2.56033
0.6447	-3.35321	-126.339	-232.669	15.4059	70.5815	17.0169	27.7939	-115.389	-17.1636	1.92025
0.6453	-15.5718	-164.48	-65.1226	18.1609	57.1478	6.33436	14.3607	52.1113	-22.0675	1.60021
0.6460	-18.6034	-119.62	-4.10248	22.1249	53.7833	12.7403	12.2178	-157.541	-20.2088	1.92025
0.6467	-37.8499	-13.1127	-93.8055	18.7794	46.4692	18.5378	19.5421	-304.922	-15.9376	1.92025
0.6473	-71.1064	-29.0004	-102.355	10.8235	33.6451	18.2337	20.1657	-77.2616	-15.9376	1.92025
0.6480	-79.0301	56.1508	51.4362	6.24107	26.3309	20.0588	14.0568	9.708	-14.1185	1.92025
0.6487	-55.5347	307.605	92.9436	5.34145	22.9664	18.842	7.03642	-66.8997	-13.8021	1.60021
0.6493	-22.2782	363.756	11.1698	5.03221	26.014	15.1738	2.1589	-60.763	-14.4348	1.60021
0.6500	-0.918688	270.09	36.4742	8.09652	28.769	17.0169	0.623683	-95.8727	-8.93773	1.92025
0.6507	7.62511	216.986	158.273	8.09652	21.4304	15.478	-0.591699	-92.8547	-5.89258	1.92025
0.6513	15.5718	99.7874	267.523	3.20487	13.1898	9.37629	-2.11093	193.104	-7.71176	1.92025
0.6520	8.5438	-20.7573	285.829	0.759048	10.4592	7.85532	-1.50323	577.651	-8.02814	2.24029
0.6527	-18.3049	46.6835	70.3627	-0.449806	8.02118	8.7679	-1.19939	299.338	-8.93773	1.92025
0.6533	-23.4954	220.958	-186.301	-1.37753	6.77777	8.46371	-0.591699	-445.914	-8.93773	1.92025
0.6540	0	207.219	-249.769	0.759048	10.1423	9.98467	3.37428	-728.502	-4.03384	2.24029
0.6547	24.1156	-25.9534	-201.228	2.58639	13.5068	11.8277	6.42873	-313.473	-1.30507	2.24029
0.6553	42.1218	-205.696	-63.916	0.759048	10.7518	8.46371	4.89351	321.621	-5.5762	1.60021
0.6560	43.0405	-172.724	46.851	-0.168677	8.63069	5.72598	2.1589	379.568	-8.02814	1.60021
0.6567	18.6264	58.8985	45.3342	-1.37753	8.02118	5.42178	1.23137	194.361	-7.079	1.92025
0.6573	-11.897	293.894	11.1698	-3.51411	5.26618	4.18712	-0.895544	290.485	-6.48579	1.92025
0.6580	-29.6047	340.278	-10.825	-3.82336	4.65667	3.57873	-2.43076	331.078	-5.25982	1.92025
0.6587	-22.2782	201.425	82.5668	-2.89563	7.09472	4.49131	-0.591699	184.251	-2.21466	1.92025
0.6593	-7.92368	32.9451	210.433	-3.82336	7.70423	2.66616	-2.11093	-130.379	-0.672307	1.60021
0.6600	-14.9516	-39.0662	175.959	-8.68689	4.65667	-2.21882	-7.00444	-407.484	-3.75701	1.60021
0.6607	-31.7407	2.44844	153.998	-11.1327	5.26618	-4.95655	-11.882	-319.257	-6.16941	1.60021
0.6613	-37.5284	128.162	262.318	-9.30537	9.2402	-3.43559	-19.2062	61.266	-5.25982	1.92025
0.6620	-35.714	164.181	341.678	-6.85955	9.53277	-1.91462	-25.619	327.104	-4.6666	1.60021
0.6627	-28.0659	68.665	353.882	-2.89563	9.53277	-0.697853	-24.0837	227.912	-3.44063	1.60021
0.6633	-13.4358	-63.1696	330.681	1.06829	8.92325	-0.697853	-14.6326	-22.3334	-1.62145	1.60021
0.6640	-14.033	-209.668	191.817	-2.30526	0.682653	-5.26074	-7.30828	-221.926	-4.94344	1.60021
0.6647	-29.6047	-271.613	15.4446	-2.30526	-7.55795	-7.10379	-1.80708	-168.205	-6.80217	1.92025
0.6653	-42.4204	-205.995	70.3627	3.82336	-9.38648	-4.95655	5.82104	326.802	-2.53104	1.60021
0.6660	-57.9922	-106.507	211.364	4.72297	-13.0436	-6.19121	8.55565	606.02	-2.21466	1.60021
0.6667	-62.2641	-87.5996	75.5684	3.20487	-16.4081	-8.32056	9.17933	264.53	-2.80787	1.92025
0.6673	-41.5017	-92.7685	-172.235	2.58639	-15.7985	-7.40798	11.3062	-171.575	-1.62145	1.92025
0.6680	-19.8437	-56.4501	-206.434	1.9679	-14.2626	-5.86912	11.3062	-448.379	-1.30507	1.60021
0.6687	-21.0609	-34.1693	-160.031	-0.449806	-14.5795	-7.71217	9.78702	-490.178	-1.62145	1.92025
0.6693	-35.3925	60.1227	-105.734	-3.82336	-13.6531	-7.10379	9.48317	-336.359	1.74009	1.92025
0.6700	-36.0126	207.519	73.431	-5.34145	-11.8245	-4.34816	10.0909	-237.167	8.14678	1.92025
0.6707	-39.3658	184.639	102.7	-9.61461	-13.3605	-6.19121	8.55565	-105.631	10.2823	1.92025
0.6713	-54.9375	71.1135	-150.275	-14.197	-12.751	-7.10379	6.12488	119.564	10.9151	1.92025
0.6720	-46.3937	18.0096	-378.532	-12.6789	-11.215	-6.19121	5.82104	172.38	11.8247	1.92025
0.6727	-28.3875	-138.554	-384.358	-11.1327	-14.8721	-8.92894	6.73257	82.9455	9.68913	1.92025
0.6733	-35.0939	-223.705	-200.642	-8.40576	-15.7985	-8.92894	9.17933	85.4102	9.68913	1.92025
0.6740	-62.5626	-23.505	37.405	-1.68677	-13.3605	-5.86912	13.1453	115.289	10.5987	1.28017
0.6747	-94.3033	94.9177	214.088	-1.06829	-16.7006	-8.01637	11.6101	221.825	5.73439	1.60021
0.6753	-108.336	64.3939	225.395	-6.55031	-22.2106	-12.5971	4.28582	205.025	-0.988687	1.60021
0.6760	-93.9818	-40.2904	56.3316	-5.03221	-18.8461	-10.1457	0.927528	-76.658	0.830497	1.60021
0.6767	-60.4267	-227.677	-166.133	-1.37753	-13.6531	-6.7996	1.55121	-51.3065	6.01122	1.92025
0.6773	-24.7127	-137.929	-325.13	-3.82336	-15.4816	-7.10379	0.623683	100.048	6.01122	1.92025
0.6780	-1.83738	86.3754	-429.83	-6.85955	-18.2366	-8.32056	0.319837	-3.72224	4.50841	1.92025
0.6787	0.918688	42.7116	-462.477	-9.61461	-20.0651	-10.4499	-0.591699	38.6811	1.74009	1.92025
0.6793	-11.2999	-25.627	-334.921	-10.8235	-20.9916	-11.9888	-2.11093	214.18	-1.89828	1.60021
0.6800	-14.9516	74.1604	-52.0222	-8.40576	-17.6271	-9.84152	0.927528	227.006	-1.62145	1.92025
0.6807	-10.9783	134.582	237.599	-4.41373	-13.6531	-6.4954	4.89351	194.009	1.74009	1.92025
0.6813	-23.1969	10.0658	388.977	-1.99602	-15.4816	-6.7996	5.21335	215.387	3.59882	1.60021
0.6820	-38.1485	-172.424	518.671	-2.58639	-20.9916	-10.1457	4.89351	101.557	3.87565	1.60021
0.6827	-38.7457	-155.938	689.252	-5.03221	-24.6487	-11.3625	4.28582	-109.303	2.05647	1.92025
0.6833	-30.822	-14.337	653.846	-5.65069	-24.6487	-10.4499	2.76659	-240.235	-0.395475	1.92025
0.6840	-26.2515	-28.3747	299.24	-5.03221	-24.0392	-10.1457	3.07044	-402.303	-3.75701	1.60021
0.6847	-32.6594	-149.246	-283.037	-1.37753	-20.3821	-6.7996	5.82104	-328.412	-2.53104	1.60021
0.6853	-39.0672	-135.807	-764.303	2.58639	-14.5795	-2.52301	8.87548	-5.83486	1.74009	1.60021
0.6860	-39.9859	-39.0662	-829.598	0.140565	-14.5795	-4.34816	6.42873	48.1376	-0.988687	1.60021
0.6867	-37.5284	-27.7761	-642.814	-1.99602	-15.189	-5.56493	3.07044	-136.767	-3.44063	1.92025
0.6873	-41.5017	-48.207	-440.793	-0.759048	-13.0436	-3.73978	2.1589	-238.424	-1.89828	1.92025
0.6880	-59.508	-186.163	-246.701	-2.58639	-15.189	-5.86912	0.0159919	-117.552	-2.80787	1.92025
0.6887	-67.7532	-402.822	-59.6411	-2.58639	-15.7985	-5.56493	-0.591699	-69.6159	-2.53104	1.92025
0.6893	-68.9705	-294.792	20.9261	0.759048	-13.0436	-2.52301	0.319837	-68.1069	0.237285	1.92025
0.6900	-83.6236	32.9451	53.2633	0.140565	-14.2626	-4.34816	-1.19939	99.7459	-1.89828	1.60021
0.6907	-92.1674	162.359	210.433	-1.99602	-14.5795	-5.26074	-2.73461	-44.9183	-4.35022	1.60021
0.6913	-86.3567	173.948	324.579	-1.99602	-12.434	-3.73978	-2.43076	-333.945	-3.75701	1.60021
0.6920	-78.433	161.134	215.329	-2.89563	-13.97	-5.86912	-2.43076	-255.778	-5.5762	1.92025
0.6927	-63.7799	118.722	77.9816	-2.30526	-14.5795	-6.4954	-2.11093	15.7944	-6.48579	1.92025
0.6933	-43.9362	185.836	58.7793	2.27715	-9.38648	-2.8272	0.927528	220.266	-2.53104	1.92025
0.6940	-39.3658	181.892	38.9219	3.20487	-9.06954	-2.8272	1.85506	164.432	-1.62145	1.92025
0.6947	-48.8283	66.2166	18.4784	-0.168677	-13.97	-6.19121	-0.591699	52.4131	-4.35022	1.60021
0.6953	-53.1002	28.3747	45.3342	-2.58639	-16.4081	-7.10379	-2.11093	136.968	-4.94344	1.60021
0.6960	-43.3391	-60.422	60.9167	-2.30526	-16.0911	-6.4954	-2.43076	218.153	-4.94344	1.92025
0.6967	-21.6581	-140.078	97.5288	0.759048	-14.5795	-4.65236	-1.80708	164.432	-3.12425	1.92025
0.6973	0.620114	-5.49538	127.418	4.10448	-13.6531	-2.8272	0.0159919	43.9123	-0.395475	1.92025
0.6980	11.5984	226.752	41.9901	3.51411	-13.6531	-2.8272	-1.19939	-13.4805	-0.079095	1.92025
0.6987	12.5171	383.915	-116.697	-1.99602	-18.5292	-7.40798	-7.61213	96.6776	-3.75701	1.92025
0.6993	17.7077	353.092	-152.102	-5.34145	-23.1127	-11.0583	-12.4896	271.572	-5.89258	1.92025
0.7000	34.1752	133.657	-128.315	-3.82336	-20.6746	-9.23314	-13.0973	306.934	-4.03384	1.92025
0.7007	47.611	0.598507	-236.944	-1.06829	-14.5795	-5.56493	-12.1858	222.127	-1.30507	1.92025
0.7013	35.3925	59.497	-248.528	1.06829	-10.6055	-3.43559	-9.4352	169.915	-0.395475	1.92025
0.7020	9.76106	-13.1127	-57.814	1.06829	-7.85051	-3.43559	-6.70059	213.274	-1.30507	1.92025
0.7027	11.897	-250.257	30.0964	-1.99602	-8.16746	-6.19121	-5.77306	268.202	-5.25982	1.92025
0.7033	29.6047	-228.874	-95.3569	-4.1326	-9.38648	-7.71217	-3.94999	149.191	-9.84732	1.92025
0.7040	33.2565	15.2619	-225.671	-1.68677	-4.80295	-3.73978	1.23137	83.5491	-9.84732	1.60021
0.7047	27.7673	10.365	-228.705	0.449806	-0.828936	-1.30624	3.98197	95.1685	-8.30497	1.60021
0.7053	0.298574	-208.743	-87.7035	0.759048	-2.36491	-2.52301	3.07044	-249.993	-8.02814	1.92025
0.7060	-40.8816	-322.867	278.486	3.20487	-3.29136	-1.61043	3.37428	-603.707	-5.89258	1.92025
0.7067	-75.0798	-386.962	637.677	3.20487	-4.80295	-1.91462	2.46275	-437.061	-4.94344	1.92025
0.7073	-99.7925	-399.775	780.506	0.759048	-8.16746	-4.65236	0.319837	-112.07	-7.39538	1.92025
0.7080	-77.5143	-72.3377	755.788	2.58639	-5.41247	-2.21882	0.927528	-173.084	-6.48579	1.60021
0.7087	-28.9846	309.129	491.815	2.89563	-3.90088	-1.00205	-0.287854	-347.023	-4.94344	1.92025
0.7093	-20.1422	332.634	218.362	-2.30526	-10.3129	-5.86912	-4.25384	-141.344	-8.02814	1.92025
0.7100	-30.5234	275.884	136.589	-3.20487	-13.0436	-6.7996	-5.16537	241.342	-8.02814	1.60021
0.7107	-27.4688	178.518	-28.5105	-1.37753	-10.3129	-5.26074	-4.55768	370.715	-6.48579	1.60021
0.7113	-21.9796	-18.0096	-317.511	-1.99602	-9.996	-5.86912	-5.77306	141.847	-7.39538	1.60021
0.7120	-25.0113	-24.1035	-419.453	-2.30526	-9.67905	-4.65236	-5.16537	-185.005	-7.71176	1.92025
0.7127	-35.3925	146.797	-232.98	-1.06829	-7.55795	-2.8272	-2.11093	-168.205	-6.48579	1.92025
0.7133	-46.6923	193.182	-19.3403	-1.68677	-6.94844	-3.13139	-2.43076	169.311	-6.80217	1.92025
0.7140	-35.3925	61.6462	-48.6437	-1.99602	-5.41247	-2.8272	-3.94999	246.825	-7.71176	1.60021
0.7147	7.02796	22.58	-319.649	0.140565	-2.36491	-0.375767	-4.25384	54.8778	-5.5762	1.60021
0.7153	40.2845	105.881	-561.351	-0.168677	-2.36491	-1.61043	-6.39674	20.3717	-6.16941	1.60021
0.7160	42.4204	29.5989	-442.93	-2.89563	-3.58393	-3.73978	-7.61213	114.987	-8.62135	1.92025
0.7167	36.6327	-23.8042	-147.827	-2.89563	-1.75539	-2.52301	-5.77306	4.22524	-8.30497	1.92025
0.7173	23.817	105.283	-56.8832	-3.51411	-0.828936	-2.8272	-6.70059	-419.657	-8.02814	1.92025
0.7180	6.70642	48.207	-53.8494	-5.03221	-2.07234	-3.73978	-8.82751	-603.103	-9.21456	1.92025
0.7187	-1.51584	-119.32	11.4801	-2.30526	0.0731414	-1.00205	-8.21982	-266.492	-5.89258	1.92025
0.7193	-36.6097	-95.2169	103.32	-0.168677	3.43765	0.841003	-7.91597	198.938	-4.03384	1.92025
0.7200	-85.1394	61.3469	162.238	-0.759048	6.48521	1.44939	-8.21982	441.236	-6.16941	1.92025
0.7207	-95.5206	180.368	145.759	0.140565	9.2402	2.66616	-7.30828	327.708	-6.80217	1.60021
0.7213	-84.2207	192.556	93.2539	-1.99602	6.77777	0.232618	-7.30828	159.855	-8.93773	1.60021
0.7220	-73.541	191.957	-20.2711	-5.34145	4.33973	-2.21882	-5.77306	36.8703	-11.6665	1.28017
0.7227	-60.1281	185.537	-191.162	-3.51411	8.02118	0.232618	-1.50323	-184.703	-10.1637	1.60021
0.7233	-38.1485	103.134	-309.582	0.759048	12.8973	3.57873	0.319837	-234.451	-7.39538	1.92025
0.7240	-17.7077	-25.9534	-392.287	1.37753	13.5068	3.27454	0.319837	-82.4425	-6.48579	1.60021
0.7247	-5.48916	3.04694	-493.918	-2.30526	9.84971	-0.697853	-1.80708	62.5235	-6.80217	1.60021
0.7253	28.0889	138.854	-428.278	-6.26918	5.55875	-4.34816	-10.0589	139.081	-7.71176	1.60021
0.7260	71.1064	104.684	-64.2263	-7.47803	2.82814	-6.4954	-16.4556	167.501	-8.62135	1.60021
0.7267	59.508	27.1504	161.307	-4.41373	5.8757	-4.04397	-13.4172	434.798	-5.89258	1.60021
0.7273	6.10927	53.7024	-34.6125	0.140565	10.7518	0.53681	-7.30828	694.197	-1.89828	1.60021
0.7280	-15.2502	20.4308	-82.222	0.140565	10.4592	0.841003	-4.55768	295.063	-2.80787	1.60021
0.7287	-10.0596	-106.208	211.674	-2.30526	8.02118	-1.91462	-5.46922	-318.352	-6.16941	1.60021
0.7293	-16.789	-224.603	458.547	-3.82336	7.09472	-2.52301	-7.00444	-363.22	-8.02814	1.92025
0.7300	-33.8766	-221.257	560.799	-4.72297	8.02118	-1.61043	-5.16537	-31.4881	-8.30497	2.24029
0.7307	-61.644	-0.299253	629.748	-4.41373	8.92325	-1.61043	-2.73461	161.666	-8.02814	1.92025
0.7313	-90.33	238.042	637.091	-0.168677	12.8973	1.44939	1.55121	31.3875	-4.6666	1.92025
0.7320	-98.2537	144.947	472.889	2.27715	16.5543	4.49131	7.64411	-122.431	-3.75701	1.60021
0.7327	-86.9768	-64.0946	273.315	-1.68677	13.5068	0.841003	8.87548	-28.7216	-8.02814	1.60021
0.7333	-70.1878	-125.741	137.209	-3.20487	10.4592	-1.30624	8.2518	-150.499	-10.1637	1.60021
0.7340	-56.7519	-170.901	25.201	-1.99602	11.0687	-0.0715747	14.6645	-467.593	-8.93773	1.92025
0.7347	-42.1218	-72.6369	-40.7146	-4.1326	8.63069	-1.61043	19.2382	-376.348	-9.21456	1.60021
0.7353	-25.93	65.6181	-87.1174	-3.51411	9.84971	-1.30624	17.719	-114.786	-6.48579	1.60021
0.7360	-20.1422	18.0096	-185.68	-0.168677	13.7993	0.841003	17.719	3.92344	-2.21466	1.92025
0.7367	-29.9033	-28.7011	-276.004	-1.99602	12.2878	-0.697853	15.2722	58.248	-4.6666	1.92025
0.7373	-42.719	-65.3188	-291.862	-1.68677	12.5803	0.232618	5.82104	-81.2353	-7.079	1.92025
0.7380	-44.8549	-117.797	-269.592	0.449806	13.5068	1.75358	5.82104	-318.352	-7.71176	1.60021
0.7387	-47.611	-111.703	-224.43	-2.58639	9.53277	-2.21882	10.3947	-336.058	-11.3501	1.60021
0.7393	-41.8003	-36.917	-123.419	-0.759048	14.1163	2.66616	-14.6326	-63.5295	-8.62135	1.60021
0.7400	-29.6047	150.443	56.0213	3.82336	20.8209	9.98467	-63.4557	250.195	-2.21466	1.92025
0.7407	-57.0735	277.707	75.5684	-0.449806	15.3353	5.0997	-93.0566	100.349	-4.6666	1.92025
0.7413	-99.7925	203.846	-69.7077	-2.89563	11.6782	2.66616	-95.8072	-539.624	-7.39538	1.92025
0.7420	-111.391	16.4861	-65.7431	-1.06829	13.1898	2.97035	-88.7868	-749.276	-7.079	1.92025
0.7427	-112.608	-171.2	-54.4355	-3.20487	9.2402	-2.21882	-77.8004	-240.235	-10.1637	1.60021
0.7433	-107.716	-164.48	-173.787	0.140565	10.7518	-0.375767	-54.3084	192.802	-7.39538	1.92025
0.7440	-93.3846	-29.5989	-169.512	5.03221	16.2374	5.0997	-27.442	317.648	-0.988687	1.60021
0.7447	-99.7925	18.0096	-11.4111	0.449806	12.8973	2.66616	-15.2402	268.504	-4.35022	1.60021
0.7453	-122.989	0.299253	46.5752	-4.1326	10.4592	0.53681	-8.82751	25.2509	-6.80217	1.60021
0.7460	-138.538	-65.6181	5.37804	-4.1326	11.6782	0.841003	2.1589	-235.356	-4.35022	1.60021
0.7467	-148.001	-160.536	1.37899	-5.03221	9.2402	-1.91462	21.0773	-308.594	-5.89258	1.60021
0.7473	-149.539	-178.845	19.4092	-0.449806	11.0687	1.1452	60.1454	-173.688	-3.44063	1.92025
0.7480	-145.268	-156.863	-26.6834	5.34145	15.3353	4.7955	99.5014	-9.50679	2.05647	1.92025
0.7487	-157.463	-193.78	-156.998	0.449806	7.70423	-4.04397	93.7123	76.8592	-1.62145	1.60021
0.7493	-173.632	-147.695	-163.996	-2.58639	2.51119	-10.1457	58.914	191.595	-5.25982	1.92025
0.7500	-171.818	69.59	-105.734	0.449806	5.26618	-6.4954	38.4764	263.323	-3.12425	1.60021
0.7507	-172.415	160.835	-142.966	-1.68677	-1.46283	-7.10379	30.8483	211.715	-4.6666	1.60021
0.7513	-174.551	-5.79463	-60.8477	-0.449806	-6.02198	-2.52301	29.9208	176.354	-2.21466	1.60021
0.7520	-167.224	-148.321	139.933	4.41373	-4.19344	6.63855	36.3335	176.052	3.28244	1.60021
0.7527	-178.823	-133.657	263.834	0.449806	-10.6055	6.33436	36.3335	159.251	-0.079095	1.60021
0.7533	-208.749	-18.9346	252.251	-1.99602	-13.97	5.0997	31.456	53.9724	-2.53104	1.60021
0.7540	-217.89	80.88	189.679	0.759048	-11.532	7.24694	36.0297	-149.594	0.237285	1.60021
0.7547	-204.454	74.1604	222.327	-1.68677	-14.2626	3.88293	45.8007	-296.672	-2.21466	1.60021
0.7553	-189.204	94.5912	324.579	-1.68677	-9.67905	3.88293	48.5353	-277.759	-2.80787	1.60021
0.7560	-170.6	133.358	449.101	3.51411	4.04716	8.15952	43.6578	-172.48	1.74009	1.60021
0.7567	-151.354	56.7493	480.818	1.68677	8.02118	6.94275	42.1386	-127.009	-0.395475	1.60021
0.7573	-147.082	-22.2808	243.081	-1.37753	10.4592	7.85532	45.177	-98.3375	-2.53104	1.60021
0.7580	-160.518	-51.8796	-124.936	1.06829	16.8713	10.9151	38.1726	-66.5979	0.830497	1.60021
0.7587	-172.415	-28.7011	-334.921	0.759048	14.4089	7.24694	15.2722	-33.9528	-1.62145	1.92025
0.7593	-151.675	60.1227	-284.243	3.51411	18.9924	5.72598	-3.3423	76.5574	-2.80787	1.92025
0.7600	-122.668	42.4123	-144.483	9.92386	34.8641	8.7679	-3.3423	166.545	1.46326	1.60021
0.7607	-138.24	-141.003	-147.827	6.85955	33.0355	6.33436	-8.52366	141.546	-0.079095	1.60021
0.7613	-168.763	-226.127	-131.348	2.27715	21.4304	2.97035	-28.0497	59.1534	-2.80787	1.60021
0.7620	-171.197	-105.582	67.6048	4.10448	20.8209	3.88293	-42.0906	-10.4122	-0.988687	1.28017
0.7627	-167.224	-8.84157	132.314	2.89563	23.8685	1.75358	-51.2539	-27.2126	-2.80787	1.28017
0.7633	-157.165	13.1127	-34.6125	2.58639	24.1854	-3.13139	-55.2199	42.9566	-3.12425	1.60021
0.7640	-139.158	35.0942	-181.406	8.09652	21.4304	-4.65236	-38.7323	-44.0129	1.14688	1.60021
0.7647	-138.24	92.4693	-295.551	8.37765	13.7993	-5.56493	-12.1858	-381.831	-0.079095	1.60021
0.7653	-151.675	150.144	-385.564	4.41373	4.65667	-7.10379	4.58966	-408.993	-2.80787	1.60021
0.7660	-161.735	148.919	-288.518	4.72297	0.682653	-5.86912	-7.30828	-39.7374	-0.988687	1.60021
0.7667	-155.327	72.0112	-110.595	5.03221	0.682653	-5.56493	-45.145	403.058	-2.80787	1.60021
0.7673	-139.158	-61.9454	-82.222	5.03221	0.682653	-4.95655	-66.814	588.315	-5.25982	1.60021
0.7680	-142.81	-50.6554	-156.067	9.61461	5.8757	0.232618	-65.9025	320.666	-1.62145	1.92025
0.7687	-169.36	60.1227	-164.927	7.78727	7.09472	1.1452	-57.3468	10.6134	-0.988687	1.92025
0.7693	-184.633	21.9815	-61.7786	1.9679	6.16826	2.05777	-35.9977	-99.5447	-3.75701	1.92025
0.7700	-179.144	-42.7388	37.405	1.06829	14.7258	10.5931	-11.5781	-108.398	0.553665	1.92025
0.7707	-193.476	15.5612	55.711	-1.68677	21.7474	13.9571	-0.287854	-101.355	3.87565	1.60021
0.7713	-219.727	54.6273	102.114	-3.82336	28.452	12.7403	6.73257	-87.9253	3.59882	1.60021
0.7720	-219.107	-27.1504	273.315	-0.168677	35.181	13.9571	18.6305	-135.862	7.23719	1.60021
0.7727	-210.563	-103.161	348.677	-0.168677	28.452	11.5235	27.1862	-244.813	8.14678	1.60021
0.7733	-205.694	-54.0288	292.828	-3.20487	12.5803	6.94275	26.2586	-196.876	4.50841	1.60021
0.7740	-198.666	1.22422	337.403	-1.06829	4.33973	7.85532	33.2791	63.7307	5.73439	1.60021
0.7747	-204.454	-62.5711	276.659	-0.449806	2.51119	6.33436	54.948	317.949	5.41801	1.92025
0.7753	-217.89	-64.6931	-32.4751	-2.58639	5.26618	0.232618	68.685	353.009	0.237285	1.92025
0.7760	-216.971	29.5989	-203.056	2.27715	16.2374	1.1452	63.1838	234.903	2.05647	1.60021
0.7767	-203.237	44.8608	-148.758	5.95994	19.9188	2.66616	55.2519	74.998	6.3276	1.92025
0.7773	-192.258	72.3105	-142.656	1.37753	10.7518	-1.00205	50.9821	-41.2464	3.87565	1.92025
0.7780	-189.824	129.087	-150.275	1.9679	7.09472	0.841003	42.4424	10.6134	3.87565	1.60021
0.7787	-192.557	83.6277	-106.63	2.89563	7.09472	2.36196	22.9003	179.07	3.87565	1.60021
0.7793	-189.502	-39.0662	-109.078	-1.99602	0.9996	-0.697853	4.28582	270.918	0.830497	1.60021
0.7800	-183.094	-152.293	-128.004	1.06829	-1.75539	2.66616	-0.591699	249.289	4.50841	1.60021
0.7807	-179.144	-147.396	-70.9143	5.03221	-4.51039	2.66616	-3.03845	234.903	6.01122	1.92025
0.7813	-167.844	-49.1319	0.792917	1.06829	-12.751	-3.13139	-14.3287	186.112	0.553665	1.60021
0.7820	-163.572	32.3466	70.673	1.9679	-15.7985	-0.375767	-19.8139	-0.0503005	1.74009	1.60021
0.7827	-180.361	88.4974	207.986	2.89563	-17.3101	0.53681	-14.0249	-253.364	3.87565	1.60021
0.7833	-190.421	78.1323	238.53	-1.68677	-17.6271	-3.73978	-10.6666	-329.368	-0.079095	1.60021
0.7840	-180.959	-2.44844	33.1301	3.20487	-2.97442	2.05777	-8.52366	-243.907	5.10163	1.60021
0.7847	-176.388	-64.6931	-189.645	7.47803	14.1163	4.18712	-6.70059	-265.235	9.37275	1.92025
0.7853	-178.225	-63.1696	-283.037	0.140565	21.4304	-4.04397	-14.6326	-365.986	0.553665	1.92025
0.7860	-170.6	-32.0473	-178.337	1.37753	26.3309	-2.52301	-19.2062	-285.103	-1.89828	1.60021
0.7867	-168.763	-16.4861	153.067	5.65069	18.6998	0.232618	-19.8139	33.1983	0.237285	1.92025
0.7873	-179.741	-15.5612	374.326	1.37753	4.65667	-4.95655	-24.3876	200.146	-4.35022	1.60021
0.7880	-182.199	-29.5989	317.856	4.10448	6.16826	-1.91462	-22.5645	94.5649	-1.89828	1.60021
0.7887	-178.823	-27.4769	247.045	7.78727	9.2402	0.841003	-19.2062	-121.828	2.96606	1.92025
0.7893	-178.823	25.627	224.464	1.37753	0.682653	-6.7996	-25.3151	-429.114	-2.80787	1.92025
0.7900	-166.328	59.497	175.028	-0.168677	-1.46283	-8.01637	-29.2811	-625.99	-4.35022	1.60021
0.7907	-156.544	24.4027	203.711	2.58639	2.21862	-3.73978	-28.3696	-484.997	-0.079095	1.60021
0.7913	-172.736	-30.5238	230.566	-0.759048	-0.536371	-7.40798	-30.4965	-105.329	-3.75701	1.28017
0.7920	-179.741	-33.87	67.6048	1.68677	3.1207	-6.19121	-29.5849	92.402	-2.80787	1.28017
0.7927	-151.974	-7.3181	-116.111	7.78727	9.2402	-3.43559	-24.7074	223.636	1.46326	1.60021
0.7933	-121.772	-34.795	-146.621	3.82336	3.73021	-10.4499	-26.8343	445.813	-4.03384	1.60021
0.7940	-106.2	-87.8988	-89.8409	2.27715	0.682653	-13.2055	-27.7459	422.021	-7.079	1.92025
0.7947	-97.3579	-95.5162	-26.6834	6.24107	3.73021	-11.0583	-24.0837	255.979	-4.35022	1.92025
0.7953	-101.01	-64.6931	-2.27533	4.72297	0.682653	-15.3349	-24.7074	111.315	-7.71176	1.92025
0.7960	-111.092	-18.0096	-7.44652	5.95994	2.21862	-14.1181	-22.2607	-76.9598	-7.079	1.60021
0.7967	-122.071	36.917	-23.6151	11.1327	8.63069	-8.01637	-15.2402	-244.813	-0.079095	1.60021
0.7973	-129.397	58.2728	-54.7457	7.16879	4.33973	-11.0583	-15.8479	-307.085	-2.53104	1.92025
0.7980	-113.527	43.6366	-54.4355	2.27715	0.390088	-11.9888	-18.5985	-235.054	-5.25982	1.60021
0.7987	-88.8141	29.5989	13.3072	3.51411	3.1207	-8.01637	-16.1518	-83.7	-0.672307	1.60021
0.7993	-78.1114	6.39314	61.227	-0.449806	-0.219424	-10.1457	-14.6326	58.8516	-1.62145	1.92025
0.8000	-70.1878	-5.19613	34.3712	-0.759048	-0.219424	-7.40798	-10.9704	115.591	-0.395475	1.92025
0.8007	-61.644	6.39314	-2.27533	5.95994	5.8757	1.1452	-4.55768	31.6893	7.55357	1.92025
0.8013	-58.8879	0.598507	-10.825	5.03221	2.82814	-1.00205	-4.55768	-108.398	4.50841	1.92025
0.8020	-51.8829	-18.6081	4.44723	1.37753	-2.07234	-4.95655	-7.61213	-139.534	-1.62145	1.92025
0.8027	-39.9859	-20.7573	4.7575	1.9679	-1.46283	-4.04397	-6.39674	-46.4274	-0.395475	1.92025
0.8033	-36.6097	-12.5142	-23.0291	-0.168677	-4.19344	-6.7996	-4.25384	58.5498	-3.12425	1.60021
0.8040	-28.686	-9.16803	-30.648	0.140565	-4.51039	-4.65236	0.0159919	124.745	-2.53104	1.92025
0.8047	-5.78773	1.52347	-9.89422	5.34145	2.51119	4.7955	9.17933	153.165	6.01122	1.92025
0.8053	7.32654	13.1127	7.79127	1.37753	0.0731414	4.49131	14.3607	139.735	6.3276	1.60021
0.8060	12.5171	22.58	13.6175	-5.03221	-4.80295	1.75358	14.9684	68.3081	2.68923	1.60021
0.8067	24.4141	20.7573	20.6158	-5.95994	-2.07234	7.85532	18.0228	-47.6849	6.64398	1.92025
0.8073	34.4967	-18.9346	23.6841	-9.61461	-2.97442	9.37629	16.8074	-127.914	8.77954	1.60021
0.8080	46.9909	-51.8796	22.443	-10.5423	-2.97442	9.68048	8.55565	-147.481	8.77954	1.60021
0.8087	66.8345	-50.3562	30.9927	-5.03221	3.43765	14.8696	3.67813	-150.197	13.9603	1.60021
0.8093	75.3783	-53.1039	25.201	-5.03221	2.82814	12.4361	0.623683	-183.144	13.3671	1.92025
0.8100	76.5956	-58.3	1.37899	-8.68689	-1.46283	6.63855	-6.0929	-227.71	6.3276	1.92025
0.8107	83.6236	-54.0288	-5.30909	-7.78727	-0.828936	6.03017	-10.3627	-209.099	3.87565	1.92025
0.8113	86.3567	-50.3562	-0.723967	-7.16879	-1.14588	4.49131	-12.7935	-120.922	3.28244	1.92025
0.8120	86.9768	-46.3843	1.37899	-6.55031	-1.14588	3.88293	-13.721	-46.4274	3.28244	1.92025
0.8127	95.8191	-39.9911	5.65384	-3.20487	1.90168	6.33436	-9.4352	-34.5564	5.41801	1.92025
0.8133	99.7925	-35.3935	14.2036	-3.51411	0.9996	5.42178	-4.55768	-39.4356	5.10163	1.92025
0.8140	98.5752	-31.4488	24.2701	-7.16879	-2.36491	3.27454	0.0159919	-38.5302	2.96606	1.92025
0.8147	101.63	-26.5519	23.3738	-8.68689	-3.58393	4.49131	6.73257	-33.2989	3.28244	1.92025
0.8153	107.418	-20.7573	19.099	-8.09652	-2.68185	6.63855	14.3607	5.73426	5.73439	1.92025
0.8160	111.689	-10.9908	15.4446	-5.95994	0.0731414	9.07209	22.2927	68.9117	8.14678	1.92025
0.8167	110.771	0.598507	14.5138	-3.82336	1.60911	9.98467	29.3131	112.874	8.77954	1.60021
0.8173	105.902	6.39314	48.9885	-4.1326	-0.219424	7.55113	36.0297	108.297	6.64398	1.60021
0.8180	104.983	3.67265	95.7016	-5.34145	-2.68185	6.03017	39.388	77.161	5.10163	1.60021
0.8187	107.119	-4.57041	104.837	-6.85955	-5.1199	4.7955	32.9752	61.266	3.28244	1.92025
0.8193	113.228	-10.9908	93.8745	-6.26918	-5.1199	4.7955	25.0433	51.5077	2.05647	1.60021
0.8200	120.233	-10.0658	91.1165	-5.34145	-3.90088	6.94275	23.8279	37.7757	4.19203	1.60021
0.8207	122.071	0.299253	38.6116	-7.16879	-4.80295	6.63855	23.8279	39.2847	5.10163	1.92025
0.8213	125.125	12.215	-75.1892	-7.16879	-5.1199	6.33436	22.9003	56.9905	3.59882	1.60021
0.8220	132.452	14.0377	-114.249	-5.34145	-4.19344	8.15952	23.8279	48.4897	4.19203	1.60021
0.8227	135.506	9.14083	-70.3283	-7.16879	-6.02198	6.63855	23.8279	14.8889	3.28244	1.92025
0.8233	135.185	6.39314	-39.1977	-7.78727	-7.55795	4.49131	18.9344	9.10439	0.830497	1.92025
0.8240	140.376	6.09388	-23.6151	-1.68677	-4.19344	6.94275	16.5036	30.7839	1.74009	1.92025
0.8247	139.457	2.44844	-16.3065	0.140565	-4.19344	5.72598	19.5421	59.4552	0.553665	1.60021
0.8253	133.049	-2.44844	-17.8234	-3.20487	-8.77697	1.1452	19.2382	73.7908	-3.12425	1.60021
0.8260	136.724	-5.79463	-13.5485	-2.89563	-8.77697	1.44939	15.5761	46.9304	-1.89828	1.92025
0.8267	143.43	-11.5893	-8.06707	-1.99602	-7.85051	2.05777	14.3607	13.6817	-0.395475	1.92025
0.8273	145.888	-13.1127	-7.13625	-1.37753	-8.46003	1.1452	11.3062	16.398	-1.30507	1.60021
0.8280	151.055	-8.54232	-5.92964	1.37753	-6.94844	2.36196	5.21335	27.7156	0.553665	1.92025
0.8287	154.73	-8.24307	-7.13625	1.06829	-7.85051	1.1452	3.37428	11.8206	-0.672307	2.24029
0.8293	154.11	-11.5893	-14.1691	0.759048	-10.9225	-2.8272	3.98197	-19.5669	-5.89258	1.60021
0.8300	156.246	-10.365	-18.4439	2.89563	-9.38648	-1.61043	1.85506	-29.3755	-5.5762	1.60021
0.8307	157.165	-4.89687	-15.686	2.58639	-8.16746	1.1452	0.0159919	-11.0661	-1.89828	1.92025
0.8313	152.893	1.22422	-9.27368	0.449806	-8.77697	0.841003	0.927528	14.2853	-0.395475	1.92025
0.8320	150.757	5.19613	-3.79221	1.06829	-7.241	2.97035	-0.287854	36.2667	2.68923	1.92025
0.8327	148.919	7.01885	-3.48194	1.37753	-6.33892	5.42178	-7.00444	59.4552	5.41801	2.24029
0.8333	146.783	8.24307	-5.61937	0.759048	-7.241	5.0997	-5.46922	69.5153	5.10163	1.92025
0.8340	146.485	6.39314	-7.44652	-0.168677	-9.38648	2.36196	1.23137	52.1113	1.74009	1.92025
0.8347	146.485	4.27116	-9.27368	-1.37753	-11.215	-1.00205	-0.287854	36.2667	-2.21466	1.92025
0.8353	149.539	8.24307	-6.86045	1.68677	-9.06954	0.53681	-3.03845	52.1113	-0.988687	1.60021
0.8360	154.11	14.6362	-1.65478	6.24107	-4.80295	4.18712	3.67813	80.179	2.68923	1.92025
0.8367	149.241	12.8135	-4.99882	2.89563	-8.16746	0.53681	17.719	80.8329	-1.30507	1.92025
0.8373	147.403	9.46729	-8.37734	0.140565	-10.3129	-1.30624	29.3131	62.8253	-5.25982	1.92025
0.8380	156.246	11.8885	-3.48194	5.03221	-5.41247	2.97035	34.8143	56.0851	-0.079095	1.60021
0.8387	153.811	9.14083	-5.61937	0.759048	-8.16746	-2.21882	16.8074	48.4897	-1.30507	1.92025
0.8393	150.757	6.39314	-8.37734	-3.20487	-11.215	-5.56493	-19.8139	36.5685	-4.35022	1.92025
0.8400	159.002	12.215	-3.48194	2.89563	-5.72941	1.44939	-53.6847	32.2929	1.74009	1.60021
0.8407	162.975	12.8135	-4.72303	3.51411	-6.02198	0.841003	-112.599	29.8282	2.05647	1.92025
0.8413	160.839	7.61736	-10.825	-1.06829	-11.215	-5.86912	-184.306	24.0436	-3.75701	1.92025
0.8420	163.274	9.46729	-9.58395	-1.06829	-9.996	-6.7996	-218.785	21.931	-2.80787	1.60021
0.8427	166.007	12.5142	-8.06707	-1.06829	-8.46003	-7.40798	-218.481	20.6735	-0.672307	1.60021
0.8433	164.491	7.94381	-11.4111	-3.20487	-10.9225	-11.0583	-184.61	16.7501	-2.80787	1.92025
0.8440	166.926	5.49538	-11.4111	-1.99602	-10.3129	-10.7541	-137.002	17.3537	-1.89828	1.92025
0.8447	169.682	7.61736	-9.89422	-4.1326	-9.38648	-9.84152	-115.637	17.9573	0.553665	1.92025
0.8453	169.062	7.94381	-10.5148	-8.40576	-10.3129	-11.6846	-101.292	15.1908	1.74009	1.92025
0.8460	168.763	7.94381	-11.4111	-10.5423	-10.3129	-12.9013	-88.7868	15.1908	4.50841	1.60021
0.8467	170.302	7.61736	-12.6522	-11.7512	-9.996	-14.7265	-90.0022	14.2853	7.23719	1.92025
0.8473	175.469	8.24307	-12.0316	-10.5423	-8.46003	-15.6391	-64.3672	12.7763	8.46316	1.92025
0.8480	181.28	10.365	-9.27368	-5.95994	-5.1199	-15.0307	-20.7255	15.7944	8.46316	1.92025
0.8487	182.497	10.365	-9.58395	-2.58639	-6.02198	-15.9433	21.685	16.0962	3.59882	1.92025
0.8493	182.199	7.61736	-12.0316	-1.06829	-8.46003	-18.3947	61.6646	10.9152	-3.12425	1.92025
0.8500	184.633	6.39314	-11.4111	0.759048	-8.16746	-16.5516	50.3744	8.50078	-5.5762	1.92025
0.8507	184.633	6.09388	-11.4111	1.37753	-9.38648	-13.5097	21.0773	6.94147	-8.62135	1.92025
0.8513	184.633	4.57041	-12.6522	1.9679	-10.6055	-10.4499	24.7394	3.62164	-11.6665	1.60021
0.8520	187.688	4.57041	-11.7214	4.10448	-9.06954	-6.7996	29.9208	2.06232	-11.0733	1.28017
0.8527	187.688	5.19613	-10.825	4.41373	-8.16746	-5.26074	40.9072	3.92344	-9.21456	1.60021
0.8533	188.607	7.01885	-8.96341	3.20487	-5.72941	-1.91462	56.7871	7.59538	-5.25982	1.92025
0.8540	192.879	8.24307	-7.13625	2.89563	-2.97442	3.88293	33.2791	8.19898	-0.672307	1.60021
0.8547	191.34	8.24307	-7.44652	1.06829	-3.58393	5.72598	-21.3491	7.24327	-0.395475	1.60021
0.8553	188.607	8.84157	-7.44652	-1.06829	-4.80295	6.94275	-61.6326	10.0098	0.830497	1.92025
0.8560	189.525	10.365	-7.13625	-1.68677	-3.90088	9.68048	-94.5919	12.7763	2.96606	1.60021
0.8567	186.769	10.0658	-8.96341	-3.82336	-5.72941	8.46371	-170.873	10.9152	0.553665	1.60021
0.8573	181.877	8.24307	-11.1008	-7.16879	-9.38648	5.0997	-216.962	9.708	-2.21466	1.92025
0.8580	180.361	7.3181	-11.7214	-8.99613	-10.9225	3.57873	-147.381	10.9152	-1.30507	1.92025
0.8587	179.443	6.7196	-12.0316	-9.30537	-11.215	3.57873	-46.3604	10.3116	-1.30507	1.92025
0.8593	181.28	9.76654	-9.89422	-5.03221	-7.55795	5.72598	51.5897	14.5871	-0.079095	1.92025
0.8600	185.253	14.337	-5.61937	1.06829	-3.58393	3.88293	158.096	22.5346	2.68923	1.92025
0.8607	179.741	11.5893	-9.27368	-1.68677	-9.06954	-7.10379	217.601	17.9573	-4.03384	2.24029
0.8613	180.66	12.215	-8.37734	1.9679	-7.55795	-7.71217	216.69	19.4663	-4.35022	1.92025
0.8620	186.471	16.7854	-3.17167	7.16879	-1.14588	-4.65236	178.853	28.0174	2.68923	1.92025
0.8627	176.388	10.6915	-9.89422	-1.37753	-8.46003	-12.293	148.948	19.7681	-3.44063	1.92025
0.8633	174.574	9.46729	-11.4111	-1.06829	-9.06954	-11.6846	157.184	16.7501	-6.48579	2.24029
