MR32 ASCII
Name	CORE15_slow
Frequency	1500
Date	26-08-2015 13:11:50
"Time,s"	"RT TIB.ANT.,uV"	"RT MED. GASTRO,uV"	"RT LAT. GASTRO,uV"	"RT BICEPS FEM.,uV"	"RT VMO,uV"	"RT VLO,uV"	"RT RECTUS FEM.,uV"	"RT SOLEUS,uV"	"RT SEMITEND.,uV"	"Channel 12,uV"
0.0000	43.9057	10.7781	29.7183	-0.477086	-3.36994	2.10336	5.24553	4.72286	-3.67996	-8876.2
0.0007	6.97638	5.90823	19.0533	-1.10097	-3.0568	2.10336	4.9419	2.28	-3.03596	-10428
0.0013	-19.2609	-1.71876	3.79468	-3.2295	-1.83408	-0.638797	2.18826	-2.60572	-5.79593	-9536.95
0.0020	27.1472	-8.45057	-8.10863	-2.31203	-0.626272	-0.342769	3.10963	-5.33358	-4.59994	-9839.11
0.0027	144.305	-15.7553	-18.4941	-1.39456	-0.0149112	-0.0311608	4.63827	-7.77644	-3.67996	-9858.46
0.0033	233.178	-21.2696	-27.0421	-2.64232	0.909585	-2.16568	2.50236	-10.83	-5.47393	-9787.52
0.0040	228.249	-19.7299	-25.5042	-1.39456	1.20781	-0.342769	3.41326	-8.10216	-3.67996	-9816.22
0.0047	176.684	-14.8601	-19.7124	-0.183495	0.909585	1.79175	5.54917	-0.488572	-1.51798	-9815.57
0.0053	158.713	-11.4942	-17.2758	-1.10097	0.909585	0.264867	4.33463	3.50143	-3.67996	-9812.99
0.0060	184.95	-7.84184	-14.5196	-1.72485	1.20781	-0.0311608	3.7169	4.72286	-3.95595	-9786.55
0.0067	219.074	-5.08466	-10.2456	-1.10097	0.909585	0.576475	4.33463	6.2293	-2.43797	-9897.48
0.0073	244.704	-4.7982	-13.0018	-2.93591	0.298225	-1.26201	1.58099	6.55501	-5.19794	-9736.24
0.0080	227.036	-2.97202	-15.4384	-2.31203	0.298225	-1.26201	1.27736	8.67216	-6.11793	-9649.82
0.0087	127.243	4.08205	-5.37247	1.02757	0.298225	2.10336	4.9419	13.8836	-1.83998	-10566.6
0.0093	-25.6306	12.6042	8.66785	0.110097	-0.313136	2.10336	5.24553	17.5479	-1.83998	-7439.56
0.0100	-190.41	17.5099	16.9163	-1.10097	-0.924496	1.18411	2.80599	17.5479	-4.59994	-934.218
0.0107	-284.136	16.8653	18.1346	0.440387	-0.626272	-0.0311608	0.973722	14.1686	-5.47393	109.642
0.0113	-258.202	11.3868	14.1601	-0.477086	-0.313136	-0.342769	-0.858551	9.28287	-6.71592	-278.943
0.0120	-208.154	5.58597	13.561	-2.01844	-0.313136	0.872503	-0.251283	5.61858	-5.79593	24.8308
0.0127	-173.045	4.69078	18.7337	-0.183495	-0.626272	2.39938	2.80599	4.72286	-1.83998	44.1794
0.0133	-141.651	3.15106	19.0533	0.110097	-0.626272	2.10336	3.41326	2.28	-1.83998	-27.4106
0.0140	-140.665	-2.97202	10.5053	-3.2295	-0.0149112	-0.342769	-1.46582	-5.94429	-6.71592	1.28991
0.0147	-133.992	-5.40693	5.31255	-2.93591	1.20781	-0.950405	-2.38719	-9.9343	-7.03791	-0.967433
0.0153	-101.613	-3.25848	3.79468	-1.72485	2.13231	-0.950405	-0.251283	-5.33358	-4.87594	-0.967433
0.0160	-82.1241	-2.32749	0.439384	-2.64232	1.52095	-1.55804	-2.08356	-2.60572	-6.11793	-0.644955
0.0167	-69.9155	-1.4323	-0.179748	-1.72485	2.13231	0.264867	-2.38719	-3.82715	-4.87594	-0.644955
0.0173	-50.048	-0.214845	0.738964	-1.10097	2.43053	2.10336	-0.858551	-5.04858	-3.67996	-0.644955
0.0180	-32.3795	-0.823572	-2.01717	-3.2295	1.52095	-0.0311608	-4.5231	-6.55501	-6.71592	-0.322478
0.0187	-14.9386	0.71615	-0.79888	-3.2295	0.909585	-0.950405	-6.659	-5.33358	-7.31391	-0.322478
0.0193	-18.0476	3.43752	2.87597	-2.01844	1.52095	-0.342769	-4.5231	-1.995	-4.87594	0
0.0200	-64.9865	1.9336	-0.179748	-2.01844	2.13231	-1.86965	-3.90536	-2.28	-5.47393	-0.644955
0.0207	-107.451	0.393882	-3.83462	-0.183495	2.13231	-1.26201	-3.90536	-3.82715	-6.39392	-1.28991
0.0213	-94.9394	3.15106	-1.09846	1.02757	2.43053	0.872503	-1.16218	-0.162857	-4.59994	-0.967433
0.0220	-61.65	5.29951	-0.179748	-1.72485	2.43053	-0.342769	0.366455	1.34357	-3.95595	-0.322478
0.0227	-52.7778	4.69078	-1.09846	-2.31203	2.43053	-1.55804	0.366455	-0.488572	-4.27795	-0.322478
0.0233	-53.9911	4.08205	0.119832	-0.477086	2.74367	-0.342769	2.18826	1.66929	-2.43797	-0.322478
0.0240	-34.5028	2.54233	-0.79888	-0.807376	2.13231	0.576475	2.50236	5.33358	-2.11597	0
0.0247	21.0808	2.22006	-2.61633	-0.807376	1.81917	0.872503	1.27736	6.55501	-3.03596	0
0.0253	91.2238	2.82879	-3.83462	-0.807376	2.13231	0.576475	3.7169	7.77644	-2.11597	-0.322478
0.0260	147.717	2.22006	-7.50947	-1.72485	2.74367	0.264867	6.15644	9.28287	-0.597993	-0.322478
0.0267	141.272	-1.11003	-14.5196	-2.93591	3.04189	-0.0311608	5.24553	7.16573	-1.24198	0
0.0273	59.8301	-4.18948	-20.9307	-4.77086	2.74367	-1.55804	4.33463	2.28	-3.03596	0.322478
0.0280	6.67306	-4.7982	-23.9864	-5.35804	1.81917	-1.55804	5.8528	1.05857	-3.03596	0
0.0287	20.3983	-4.7982	-27.0421	-5.06445	0.909585	-0.342769	8.60645	4.72286	-1.51798	-0.322478
0.0293	40.8725	-4.18948	-30.0778	-4.44057	0.909585	-0.0311608	10.4282	10.83	0	0
0.0300	47.3181	-1.71876	-26.7225	-3.2295	2.43053	0.576475	9.82098	17.5479	0.597993	0
0.0307	45.8015	5.90823	-12.6822	-2.64232	3.04189	1.49572	8.29234	24.8765	0.321996	0
0.0313	12.8153	16.2566	5.93168	-3.2295	1.20781	-0.0311608	6.15644	30.0472	-1.24198	0
0.0320	0.606642	26.032	24.5456	-4.77086	-0.626272	-0.638797	4.02053	30.9836	-3.03596	-0.322478
0.0327	74.4653	33.659	45.8956	-4.77086	-2.14722	0.872503	4.33463	28.215	-3.03596	-0.322478
0.0333	144.912	38.2424	61.7734	-4.14698	-2.44544	2.10336	6.15644	26.3829	-2.43797	0
0.0340	99.4893	40.3908	66.6466	-5.68833	-1.23763	1.49572	6.15644	30.6579	-3.67996	0
0.0347	-93.4228	40.0686	62.6921	-7.52328	-0.0149112	0.872503	4.9419	34.6072	-4.87594	0
0.0353	-310.98	33.3726	48.0326	-9.32153	-0.0149112	-0.950405	3.7169	29.7622	-6.11793	-0.322478
0.0360	-352.459	20.2312	24.226	-11.4868	-0.0149112	-3.39653	1.58099	18.4436	-7.9579	0
0.0367	-219.149	4.97724	2.57639	-10.5693	0.596449	-2.47729	2.18826	5.61858	-7.03791	0
0.0373	-53.6878	-9.05929	-12.6822	-9.02793	1.81917	-0.950405	3.7169	-9.32359	-4.87594	0
0.0380	61.0433	-21.8784	-25.2047	-8.73434	2.43053	-1.86965	1.88462	-23.655	-5.79593	0
0.0387	117.158	-31.9403	-31.9153	-8.44075	2.74367	-2.47729	1.27736	-34.9736	-6.11793	0
0.0393	103.736	-33.7665	-28.2604	-7.19299	3.65325	-1.55804	2.50236	-38.9229	-4.59994	0
0.0400	34.8061	-27.9656	-20.6311	-7.52328	3.65325	-2.78889	1.58099	-34.0372	-5.19794	0.322478
0.0407	-28.0572	-20.3386	-12.3826	-8.11046	2.74367	-3.69256	-0.554917	-24.8765	-7.31391	0
0.0413	-58.0101	-11.4942	-1.39804	-6.27552	2.74367	-0.950405	0.973722	-16.6522	-5.47393	0
0.0420	-67.4889	-4.7982	4.69342	-5.35804	3.04189	0.576475	3.10963	-12.0514	-4.27795	0
0.0427	-54.3703	-3.25848	4.69342	-6.27552	3.04189	-0.638797	2.50236	-12.3772	-4.87594	0
0.0433	-21.3841	-4.18948	4.69342	-5.68833	2.43053	-0.342769	3.41326	-13.2729	-3.35796	0.322478
0.0440	10.3887	-5.69339	0.439384	-6.60581	1.81917	-0.342769	2.18826	-13.2729	-3.67996	0.322478
0.0447	26.5406	-8.1283	-4.75333	-8.44075	1.20781	-0.638797	-1.46582	-15.4307	-4.87594	0
0.0453	32.0004	-8.73703	-3.53504	-5.98192	1.20781	1.18411	0.0523506	-16.3265	-2.11597	-0.322478
0.0460	56.1144	-7.23311	-1.39804	-5.35804	1.81917	1.18411	0.670088	-13.5986	-1.24198	-0.322478
0.0467	91.8304	-5.69339	-2.01717	-7.19299	1.20781	-1.55804	-2.38719	-11.4407	-4.27795	0
0.0473	94.257	-4.7982	-1.69762	-8.11046	0.596449	-1.86965	-2.99446	-11.1557	-5.19794	0
0.0480	54.2944	-3.58075	-0.479328	-7.81687	1.20781	-0.638797	-1.46582	-9.9343	-3.95595	0
0.0487	-17.441	-2.32749	0.119832	-8.11046	1.81917	-1.86965	-0.858551	-8.10216	-3.95595	0
0.0493	-76.5885	-0.214845	1.95726	-8.44075	2.13231	-1.86965	1.88462	-6.27001	-2.11597	0.322478
0.0500	-53.9911	1.00261	3.17555	-7.52328	1.52095	-0.342769	5.24553	-6.55501	0.919989	-0.322478
0.0507	17.6684	-1.71876	-2.31675	-7.19299	0.596449	-0.950405	3.7169	-9.60859	-0.597993	-1.28991
0.0513	65.2898	-5.40693	-8.10863	-6.8994	1.20781	-1.86965	1.88462	-11.4407	-1.83998	-1.28991
0.0520	80.2284	-5.69339	-7.18992	-6.8994	2.13231	-0.950405	4.02053	-8.99787	0.321996	-0.322478
0.0527	82.9583	-5.08466	-5.37247	-6.8994	2.13231	-0.0311608	5.8528	-5.65929	2.43797	0
0.0533	88.4939	-5.40693	-5.37247	-5.98192	2.13231	0.264867	5.54917	-3.21643	4.27795	0
0.0540	85.1573	-5.40693	-4.15418	-5.68833	2.13231	0.264867	4.9419	-0.773573	5.47393	0
0.0547	73.5553	-4.47593	-2.93588	-6.60581	1.81917	-0.950405	2.80599	-0.488572	3.95595	-0.322478
0.0553	67.7164	-3.25848	-2.93588	-8.73434	2.13231	-4.00417	-0.858551	-1.71	0.597993	-0.322478
0.0560	42.0858	-1.11003	-0.179748	-9.32153	2.74367	-4.31577	-0.858551	-0.162857	0.597993	0
0.0567	-17.1376	1.9336	3.47513	-8.44075	3.65325	-2.78889	1.58099	3.17572	1.83998	0
0.0573	-67.1856	1.9336	2.25684	-10.239	3.95148	-3.69256	-0.554917	3.78643	-0.321996	0
0.0580	-86.674	0.107422	-0.179748	-12.0739	3.34012	-4.00417	-2.99446	4.11215	-1.83998	0
0.0587	-88.7972	-0.214845	-1.39804	-12.6978	3.34012	-4.6118	-2.69082	4.11215	-2.75997	0
0.0593	-69.9155	-0.214845	-1.39804	-12.0739	3.65325	-5.53105	-2.08356	3.50143	-2.43797	0
0.0600	-42.4649	-0.823572	-1.39804	-11.1565	4.56284	-4.6118	-2.08356	3.78643	-1.83998	0
0.0607	-28.0572	-1.4323	-2.01717	-9.94541	4.26461	-3.69256	-1.76945	2.89072	-1.24198	-0.322478
0.0613	-24.4173	-1.4323	-1.09846	-7.52328	3.65325	-1.55804	-0.251283	1.66929	1.83998	0
0.0620	-22.2941	-0.823572	-0.179748	-5.98192	3.04189	-0.342769	1.88462	1.34357	4.27795	0.322478
0.0627	-21.0808	-1.71876	-1.09846	-5.68833	1.52095	-0.638797	2.18826	1.34357	4.27795	0
0.0633	-20.4742	-2.32749	-1.09846	-4.77086	0.298225	0.872503	3.10963	1.95429	5.47393	0
0.0640	-20.4742	-1.71876	-1.69762	-3.2295	0.596449	1.79175	3.7169	2.565	6.39392	0
0.0647	-21.6874	-1.71876	-3.23546	-2.01844	-0.0149112	2.10336	3.41326	2.89072	7.03791	0
0.0653	-18.0476	-0.823572	0.119832	1.94504	-0.924496	6.06078	7.98871	5.00786	11.9139	0
0.0660	-12.2087	0.393882	2.87597	4.69746	-0.626272	8.21088	11.046	6.2293	14.9498	0
0.0667	-10.3887	0.107422	0.439384	3.15611	-0.924496	5.76475	7.68508	5.61858	11.9139	0
0.0673	-7.35553	-0.214845	-1.39804	1.94504	-1.23763	4.54948	4.33463	4.72286	9.75188	0.322478
0.0680	-5.83893	-0.501305	-1.39804	2.27533	-1.23763	4.84551	3.7169	4.72286	9.75188	0
0.0687	-5.83893	-1.11003	-2.31675	1.65145	-1.23763	4.23787	2.80599	5.33358	8.5559	0
0.0693	-3.03321	-0.501305	-0.79888	2.56892	-0.626272	5.45315	4.33463	6.2293	10.6719	0
0.0700	-2.72989	1.00261	2.57639	4.07358	-0.313136	7.29163	6.47054	7.45073	14.0298	-0.322478
0.0707	-15.2419	1.61134	1.33812	1.65145	-0.0149112	5.15712	3.41326	8.38716	11.2699	0
0.0713	-20.1708	1.9336	0.119832	-0.477086	0.298225	3.31863	0.973722	7.45073	8.2339	0
0.0720	4.24649	1.9336	1.33812	-0.807376	1.20781	2.71099	3.41326	7.77644	10.0739	-0.322478
0.0727	31.0904	1.61134	0.119832	-2.31203	1.20781	0.872503	3.41326	8.38716	8.5559	0
0.0733	39.9625	1.9336	-0.479328	-2.64232	1.52095	0.576475	2.50236	8.06144	7.03791	0
0.0740	42.0858	2.54233	1.65768	-1.72485	2.13231	2.10336	4.02053	8.99787	9.15389	0
0.0747	34.5028	1.9336	0.738964	-2.93591	2.13231	1.49572	2.50236	9.60859	7.03791	0
0.0753	18.8817	1.61134	0.439384	-4.14698	2.13231	-0.342769	0.366455	8.67216	4.27795	-0.322478
0.0760	0.303321	1.9336	3.17555	-5.98192	2.74367	-1.26201	0.0523506	7.77644	4.27795	0
0.0767	-10.6921	3.15106	5.31255	-8.44075	2.74367	-3.08492	-2.38719	7.45073	2.11597	0
0.0773	-7.35553	6.51696	10.5053	-9.02793	2.74367	-3.08492	-3.60172	8.99787	0	0
0.0780	-22.9007	8.6296	14.4597	-8.73434	2.13231	-1.55804	-2.99446	10.5043	0.597993	0
0.0787	-60.74	8.6296	12.3227	-8.44075	1.81917	-1.26201	-3.90536	10.5043	1.51798	0
0.0793	-84.854	8.02087	9.28698	-7.19299	1.52095	-1.55804	-4.82673	9.89359	-0.321996	0
0.0800	-71.1288	7.41215	9.28698	-5.06445	0.298225	-0.638797	-3.90536	9.28287	-3.03596	0.322478
0.0807	-23.5074	4.08205	6.23126	-4.77086	-1.53586	-0.638797	-4.82673	6.84001	-7.31391	-0.644955
0.0813	25.6306	0.393882	3.17555	-2.93591	-1.83408	-0.342769	-5.434	3.17572	-9.75188	-1.61239
0.0820	59.2234	-0.214845	5.61213	1.35786	-1.53586	3.0226	-1.46582	4.39715	-6.71592	-0.644955
0.0827	69.5363	-1.11003	6.53084	1.94504	-2.44544	3.63024	1.88462	6.55501	-4.27795	0.644955
0.0833	45.4223	-3.86721	3.17555	0.440387	-4.27952	1.79175	0.670088	3.78643	-4.87594	-0.967433
0.0840	14.3319	-5.08466	0.439384	-2.01844	-4.27952	2.10336	-0.251283	-0.162857	-2.43797	-1.93487
0.0847	10.3887	-6.01566	-1.69762	-7.19299	-2.44544	3.63024	0.0523506	-2.28	6.39392	-0.967433
0.0853	24.7207	-7.23311	-2.31675	-10.8629	-2.44544	4.54948	3.10963	-3.50143	13.1098	0
0.0860	46.7114	-7.23311	-0.79888	-9.65182	-3.0568	6.98003	8.60645	-4.11215	18.6298	-0.322478
0.0867	62.2566	-6.91084	0.738964	-6.60581	-2.75858	9.73776	12.8783	-3.21643	29.8996	0
0.0873	57.631	-7.23311	-0.179748	-5.06445	-3.36994	8.81852	11.046	-4.43786	30.4976	0
0.0880	42.9957	-7.23311	-2.61633	-5.98192	-4.59266	6.37239	4.33463	-6.88072	16.4678	-0.322478
0.0887	28.9671	-7.23311	-2.31675	-6.8994	-5.20402	6.06078	0.0523506	-6.88072	10.0739	0
0.0893	17.9718	-6.01566	0.119832	-4.44057	-6.11361	7.58766	0.0523506	-3.50143	12.1899	0
0.0900	10.3887	-4.47593	1.33812	-3.2295	-7.02319	8.50691	-0.554917	-1.71	7.9119	-0.322478
0.0907	5.45978	-4.47593	0.439384	-6.60581	-8.24591	8.21088	-2.38719	-3.21643	2.11597	0
0.0913	0.303321	-5.08466	0.439384	2.56892	-8.85727	9.11454	-2.99446	-5.65929	14.6278	0.322478
0.0920	-6.74889	-5.40693	-1.09846	22.3863	-8.85727	7.58766	-5.13036	-6.88072	48.5294	0
0.0927	-12.512	-5.69339	-2.31675	20.8817	-8.85727	5.15712	-7.5699	-6.55501	67.7572	0
0.0933	-14.0286	-4.7982	-0.479328	3.4864	-9.46863	5.76475	-5.434	-4.11215	47.9314	0
0.0940	-14.6352	-3.25848	0.439384	-5.68833	-9.17041	5.45315	-4.5231	-2.28	37.8575	0
0.0947	-10.0854	-1.71876	0.439384	-6.27552	-7.94769	4.54948	-5.13036	-0.773573	22.5857	0
0.0953	10.3887	-0.501305	2.57639	2.56892	-5.50224	6.06078	-1.46582	0.732858	-40.2955	0
0.0960	34.5028	-0.501305	3.79468	2.27533	-2.44544	6.98003	1.88462	0.447858	-50.0474	0.322478
0.0967	39.6592	-1.71876	1.03854	-24.5883	-1.23763	4.54948	1.27736	-0.488572	-14.3518	-0.322478
0.0973	32.9103	-1.71876	0.439384	-49.3233	-0.0149112	2.10336	4.33463	-0.488572	-59.2013	-0.322478
0.0980	26.5406	-1.11003	3.17555	-61.2138	1.20781	2.10336	11.3496	0.122143	-81.189	0
0.0987	18.8817	-1.11003	2.25684	-74.352	0.909585	0.872503	12.8783	0.732858	-16.1918	0.322478
0.0993	17.0618	-1.11003	1.95726	-85.325	1.20781	0.576475	11.046	1.66929	6.11793	0
0.1000	24.4173	-0.214845	3.47513	-80.7376	1.81917	2.71099	10.1246	1.95429	-19.8258	-0.322478
0.1007	30.4838	-1.4323	0.439384	-54.4979	0.596449	2.39938	4.63827	0.447858	-60.1213	0
0.1013	34.5028	-2.64975	-1.69762	-33.4327	-0.313136	1.18411	-0.858551	-1.09929	-64.0772	0
0.1020	35.1094	-2.32749	1.03854	-32.8455	-0.626272	0.264867	-1.46582	-1.38429	24.7017	0
0.1027	27.4505	-1.4323	2.25684	-24.5883	-0.626272	-1.55804	-3.60172	-0.162857	45.1714	-0.322478
0.1033	19.7917	-1.11003	1.33812	26.6801	-0.626272	-2.16568	-6.35537	1.34357	-15.8698	-0.322478
0.1040	15.8485	-1.4323	1.95726	89.5454	-1.83408	0.264867	-4.82673	1.66929	17.7098	-0.322478
0.1047	11.602	-2.32749	0.738964	78.2421	-3.66816	1.18411	-3.29809	-0.488572	40.5715	-0.322478
0.1053	6.36974	-2.97202	-1.69762	-4.14698	-4.89088	0.872503	-3.60172	-4.43786	-31.7396	0
0.1060	0.606642	-2.32749	0.439384	-77.1044	-4.27952	3.92626	0.0523506	-5.65929	-137.308	0
0.1067	-7.35553	-2.04103	1.33812	-108.519	-4.89088	6.37239	3.10963	-4.43786	-279.217	0
0.1073	-11.602	-2.04103	-1.09846	-91.1234	-7.02319	6.684	1.88462	-3.50143	-419.929	0
0.1080	-8.2655	-1.4323	1.03854	-21.8359	-6.72497	9.42615	3.10963	-2.89072	-456.866	-0.322478
0.1087	-4.62564	-1.11003	2.57639	22.7166	-3.66816	10.0338	4.63827	-2.28	-271.627	-0.322478
0.1093	-3.63985	-1.4323	0.738964	-1.72485	1.52095	6.06078	1.27736	-1.71	13.1098	0
0.1100	-2.42657	-1.11003	1.95726	-43.5249	7.61964	4.54948	-0.554917	-0.773573	220.659	0
0.1107	-2.72989	-1.71876	1.65768	-44.4424	11.586	3.63024	-1.76945	-3.21643	367.72	-1.28991
0.1113	-5.23229	-2.32749	-1.39804	23.3038	11.586	0.264867	-4.21946	-5.65929	412.293	-1.28991
0.1120	-5.83893	-1.71876	-0.79888	102.647	9.14059	0.576475	-1.16218	-3.82715	341.776	0
0.1127	-4.92897	-0.823572	0.738964	128.923	5.1742	3.63024	3.7169	-1.09929	262.473	0
0.1133	-4.92897	-0.501305	-0.179748	121.877	1.20781	3.63024	4.33463	0.122143	200.19	-0.322478
0.1140	-4.62564	-0.214845	-0.179748	112.409	-1.23763	3.31863	5.8528	1.05857	141.908	0.322478
0.1147	-3.03321	0.393882	2.25684	102.06	-3.36994	6.37239	10.7424	2.565	59.2013	0.322478
0.1153	-3.63985	-0.214845	1.33812	83.4166	-5.81538	5.45315	9.82098	1.95429	-51.2894	-0.322478
0.1160	-5.53561	-1.4323	-0.479328	63.3056	-8.24591	2.71099	4.33463	-1.09929	-71.7131	-0.322478
0.1167	-2.72989	0.107422	2.57639	71.8198	-9.17041	5.45315	4.33463	-0.162857	-28.7036	0
0.1173	0.303321	1.32488	5.31255	99.6009	-10.08	7.29163	4.9419	1.66929	-52.8074	0
0.1180	-0.909963	0.393882	4.09426	97.7659	-12.5254	4.84551	2.18826	-0.773573	-112.285	0
0.1187	-1.21328	0.107422	4.09426	91.3803	-11.6009	4.84551	0.366455	-1.71	-145.864	0
0.1193	-1.5166	0.107422	3.47513	124.63	-6.11361	4.84551	-3.29809	0.447858	-169.048	-0.322478
0.1200	-5.23229	-1.11003	0.738964	171.934	-1.53586	1.49572	-8.49127	0.122143	-167.254	-0.322478
0.1207	-5.53561	-1.11003	0.119832	153.915	3.65325	1.49572	-10.6272	-1.09929	-91.8609	-0.322478
0.1213	-3.33653	-1.11003	1.03854	60.5532	8.84236	4.23787	-10.0094	-0.488572	-0.597993	0
0.1220	-2.42657	-1.11003	1.95726	-6.8994	10.0651	3.92626	-9.09854	0.122143	77.831	0.322478
0.1227	-1.81993	0.107422	3.17555	-50.2408	8.84236	2.39938	-10.6272	0.122143	109.249	0
0.1233	-1.5166	0.71615	3.17555	-116.776	5.1742	1.79175	-12.7631	-0.162857	48.5294	0
0.1240	-2.12325	-0.501305	1.95726	-174.43	-1.83408	0.264867	-15.2026	-0.773573	-21.6657	0
0.1247	-3.63985	-0.501305	3.79468	-201.294	-9.17041	-3.39653	-15.8099	-0.773573	-96.1388	0
0.1253	-6.74889	0.71615	7.44955	-196.706	-12.2123	-7.35396	-13.0667	0.732858	-204.146	0
0.1260	-10.3887	0.107422	7.74913	-186.944	-10.6914	-12.2462	-11.2344	0.732858	-207.503	0
0.1267	-7.96217	-1.4323	6.53084	-188.486	-7.33633	-13.4615	-6.96264	-0.488572	-82.385	0.322478
0.1273	-1.81993	-2.04103	5.61213	-142.098	-0.924496	-10.4077	3.10963	-0.488572	-79.349	0
0.1280	0	-3.25848	2.25684	-15.7438	7.00828	-9.48847	8.91008	-1.995	-175.166	0
0.1287	0	-3.86721	0.119832	73.6547	13.4201	-5.21944	11.046	-3.82715	-70.5171	0
0.1293	3.03321	-2.32749	1.65768	41.323	17.6847	4.84551	16.2287	-2.60572	203.226	0
0.1300	5.7631	-1.4323	2.57639	-41.9836	16.7751	10.3454	18.6682	-1.71	402.219	-0.322478
0.1307	4.85313	-1.71876	1.65768	-94.1694	10.6764	7.29163	13.4855	-1.995	478.532	-0.322478
0.1313	2.72989	-0.823572	1.03854	-60.9202	5.48733	3.63024	7.38144	-1.71	409.855	-0.322478
0.1320	1.5166	-1.11003	0.439384	38.8642	1.20781	1.79175	4.02053	-1.71	255.113	0
0.1327	0	-1.4323	0.439384	85.2516	-3.0568	0.576475	0.366455	-2.28	72.9551	0
0.1333	0.909963	-0.214845	2.57639	40.1119	-3.9813	0.872503	-1.16218	-0.488572	-272.501	0
0.1340	3.03321	0.71615	5.01297	-10.239	-0.313136	1.49572	-2.08356	1.66929	-413.213	0
0.1347	2.72989	-0.214845	4.39384	-48.4059	5.48733	0.576475	-5.13036	1.66929	-132.156	0
0.1353	1.81993	0.107422	2.87597	-82.279	7.61964	1.79175	-6.659	1.66929	115.643	0
0.1360	1.21328	0.393882	1.95726	-80.1504	5.48733	1.79175	-8.18764	1.34357	169.968	0
0.1367	0.606642	0.107422	1.95726	-83.49	3.95148	-1.26201	-10.3235	0.447858	48.2074	0
0.1373	0.303321	-0.214845	1.65768	-110.354	4.26461	-1.26201	-11.5381	0.447858	-132.432	0
0.1380	-0.303321	0.393882	1.95726	-120.409	3.65325	0.872503	-12.1454	0.122143	-166.932	0
0.1387	-2.42657	0.393882	3.47513	-109.143	1.20781	0.264867	-10.9308	0.122143	-169.048	-0.322478
0.1393	-5.23229	-0.214845	2.87597	-47.782	-1.83408	-1.86965	-8.79491	0.122143	-220.337	0
0.1400	-7.05221	-1.11003	0.738964	70.6087	-4.27952	-4.00417	-5.73763	0.122143	-189.518	0.322478
0.1407	-9.47878	-2.32749	-1.69762	143.86	-6.41183	-7.35396	-5.13036	-2.60572	-170.29	-0.967433
0.1413	-9.47878	-2.32749	-1.39804	123.418	-5.20402	-8.88084	-5.434	-4.11215	-258.471	-1.61239
0.1420	-4.92897	0.107422	4.69342	48.9564	-3.0568	-2.78889	-0.251283	0.122143	-181.882	-0.644955
0.1427	-1.21328	1.61134	9.88614	-19.7073	-4.89088	3.63024	6.77417	4.39715	63.8012	0.322478
0.1433	-0.909963	1.9336	11.1044	-34.0566	-7.02319	3.92626	7.68508	3.78643	177.328	0
0.1440	-1.5166	1.9336	11.424	-48.4059	-3.9813	1.49572	5.8528	2.565	116.563	0
0.1447	-2.12325	1.32488	10.8049	-101.216	0.909585	-1.26201	3.41326	1.66929	-0.597993	0
0.1453	-0.909963	0.71615	9.28698	-138.722	7.32142	-3.69256	0.670088	0.732858	20.7457	-0.322478
0.1460	1.5166	1.61134	9.28698	-149.401	16.1638	-2.47729	-0.251283	0.732858	253.917	0
0.1467	3.63985	4.69078	10.8049	-185.109	19.2206	-1.86965	-0.554917	0.732858	418.411	0.322478
0.1473	6.36974	4.97724	8.06869	-193.66	16.1638	-2.16568	-3.60172	0.122143	364.086	0
0.1480	11.2987	2.54233	1.95726	-128.373	11.2878	0.576475	-6.659	-0.488572	231.929	0
0.1487	17.3651	1.32488	0.738964	-142.098	5.1742	4.54948	-6.04126	0.122143	101.337	0
0.1493	19.185	1.00261	2.57639	-197.33	0.596449	5.15712	-5.13036	0.732858	-48.5294	0
0.1500	15.8485	2.54233	3.47513	-100.592	-2.14722	4.54948	-4.21946	0.732858	-173.648	0
0.1507	12.512	3.15106	5.31255	12.0372	-3.66816	5.45315	-2.38719	2.28	-117.483	0
0.1513	7.2797	5.29951	6.23126	24.8452	-5.20402	2.71099	-3.29809	3.50143	52.8074	-0.322478
0.1520	-0.303321	10.4558	5.31255	77.031	-7.02319	-0.342769	-3.60172	3.17572	149.544	0
0.1527	-3.63985	-5.08466	5.93168	138.979	-7.02319	0.264867	-2.08356	3.17572	235.885	0.322478
0.1533	-3.63985	-46.2991	5.93168	194.211	-7.33633	0.264867	-1.46582	5.00786	258.195	0
0.1540	-3.63985	-82.2856	4.69342	312.014	-8.85727	-3.08492	-1.76945	8.38716	38.7775	0
0.1547	-1.21328	-106.098	6.83042	308.968	-9.78177	-5.82708	-0.554917	12.9472	-390.949	0
0.1553	0	-127.152	9.28698	164.301	-10.08	-5.82708	0.973722	14.4943	-816.352	0
0.1560	-1.5166	-146.095	9.28698	98.6834	-10.3931	-6.74632	1.88462	13.5579	-953.384	-0.322478
0.1567	-1.81993	-155.834	10.8049	91.3803	-8.24591	-6.45029	3.10963	15.105	-995.198	0
0.1573	-2.12325	-109.141	13.2414	42.8276	-4.89088	-1.55804	4.33463	14.7793	-1138.3	0.322478
0.1580	-3.63985	9.84706	15.0789	-5.98192	-4.59266	-1.86965	3.10963	12.3364	-1001.59	0
0.1587	-1.81993	121.566	16.9163	2.86252	-1.23763	-8.88084	0.973722	12.6622	-483.086	0
0.1593	3.63985	162.459	14.4597	35.231	10.9747	-7.66556	2.80599	8.99787	266.429	0
0.1600	4.54981	128.871	6.53084	17.8357	22.8738	0.872503	3.41326	-1.38429	946.024	0
0.1607	1.81993	73.656	0.738964	-36.809	25.3193	4.54948	-0.554917	-7.49144	1009.23	0
0.1613	4.85313	42.5035	1.33812	-47.4884	20.4433	5.45315	-4.21946	-8.38716	621.36	0
0.1620	11.9053	17.1876	1.03854	13.2483	12.8087	3.0226	-10.6272	-14.2093	340.258	0
0.1627	17.0618	-0.823572	0.738964	67.5627	6.71005	0.264867	-16.4172	-21.2122	224.017	0
0.1633	23.2041	-6.01566	5.93168	90.4628	3.34012	1.49572	-14.899	-20.9272	136.112	0
0.1640	25.3273	-20.0522	5.31255	115.785	-0.313136	-1.86965	-16.1135	-19.095	126.36	0
0.1647	19.185	-28.5744	0.119832	103.564	-4.27952	-8.2732	-17.9458	-17.8736	274.065	0
0.1653	11.9053	-4.7982	1.95726	55.342	-7.33633	-8.88084	-12.7631	-12.6622	367.72	0
0.1660	4.54981	-5.69339	2.87597	11.1198	-8.85727	-10.7193	-9.70581	-4.72286	228.893	0
0.1667	-1.81993	-29.5054	-0.79888	-40.7725	-8.24591	-14.9884	-6.04126	7.77644	12.8338	0.322478
0.1673	0.303321	8.02087	2.57639	-74.9392	-6.11361	-12.5422	6.15644	28.5408	-181.284	0.322478
0.1680	2.72989	58.0797	2.87597	-68.5536	-5.50224	-12.2462	8.91008	43.7679	-426.921	0
0.1687	-0.303321	58.0797	-2.61633	-37.7265	-3.9813	-17.7305	0.366455	41.0401	-553.281	0
0.1693	-3.63985	40.9996	0.439384	-5.35804	1.20781	-18.0421	-0.554917	29.4365	-155.662	0.322478
0.1700	-10.9954	20.84	5.93168	-7.52328	5.48733	-16.2036	2.80599	21.2122	523.06	0
0.1707	-17.441	52.2789	4.69342	-57.2503	3.65325	-14.6768	4.33463	22.7186	749.193	-1.61239
0.1713	-11.2987	129.193	6.23126	-62.4249	-0.626272	-6.74632	11.9569	30.9836	407.095	-1.61239
0.1720	-2.42657	102.624	7.74913	17.8357	-2.44544	-3.08492	16.2287	29.4365	-152.304	0
0.1727	0.909963	-2.04103	2.57639	44.0754	-0.924496	-7.35396	10.4282	16.0007	-669.568	0
0.1733	7.88634	-45.0816	0.738964	-22.4597	2.13231	-6.74632	7.38144	-1.38429	-980.248	0
0.1740	16.7585	-52.0999	0.738964	-100.885	4.87597	-6.45029	5.24553	-18.1586	-912.491	0.322478
0.1747	18.8817	-63.057	-1.09846	-193.367	13.7183	-14.3807	-2.99446	-21.2122	-456.544	0.322478
0.1753	17.0618	-62.1618	5.31255	-269.957	26.8402	-17.4345	-6.96264	-12.9879	104.695	0
0.1760	15.5452	-75.2673	13.2414	-328.565	31.1197	-11.327	-5.434	-11.4407	509.628	0
0.1767	12.512	-100.905	13.2414	-401.486	24.4097	-6.74632	-6.04126	-11.7664	641.186	0
0.1773	7.58302	-55.7522	11.7236	-334.657	16.4769	-2.16568	-4.82673	-2.28	559.399	0
0.1780	3.03321	38.5647	9.28698	-118.904	9.14059	3.92626	0.0523506	8.06144	445.551	0
0.1787	-1.81993	85.8663	5.01297	-21.2487	3.04189	3.0226	1.88462	16.9372	337.222	0.322478
0.1793	-1.81993	87.3702	4.39384	-42.901	-2.14722	0.872503	4.9419	27.93	185.838	0.322478
0.1800	3.94317	47.6956	4.39384	-4.14698	-10.3931	4.54948	8.29234	25.7722	-34.4996	0
0.1807	6.97638	-22.4871	-0.79888	126.171	-16.79	3.31863	3.41326	6.2293	-297.846	0
0.1813	9.7821	-114.047	-0.479328	324.235	-17.7145	0.576475	3.10963	-11.7664	-448.909	0.322478
0.1820	17.0618	-212.303	6.53084	457.892	-14.6577	0.872503	13.1819	-16.3265	-283.817	0
0.1827	23.8107	-255.63	8.36827	412.716	-7.94769	-1.86965	18.6682	-8.71287	-26.8637	-0.322478
0.1833	24.7207	-332.544	13.561	287.279	-2.75858	-2.47729	19.286	0.447858	-13.1098	0
0.1840	17.6684	-459.195	20.2716	184.742	-3.36994	-0.0311608	16.8464	4.72286	-37.8575	-0.322478
0.1847	5.15646	-492.138	15.698	70.6087	-5.20402	-2.16568	9.51735	-3.82715	53.7273	0
0.1853	-3.94317	-483.007	9.58656	-59.0853	-3.66816	-8.2732	4.02053	-9.60859	176.684	0.322478
0.1860	-7.96217	-320.656	12.3227	-161.916	-1.83408	-12.5422	3.10963	9.89359	216.381	0
0.1867	-13.422	31.8328	9.58656	-264.159	-4.27952	-17.1229	-1.46582	24.2658	54.3253	-0.322478
0.1873	-15.5452	203.351	-1.39804	-338.621	-7.02319	-22.6228	-5.13036	16.6115	-165.092	0
0.1880	-14.3319	313.53	-3.83462	-328.565	-5.20402	-27.4994	-1.76945	1.34357	-327.148	0.322478
0.1887	-19.8675	546.351	-2.61633	-269.333	0.909585	-28.1071	0.973722	-10.83	-443.435	0.644955
0.1893	-22.2941	513.085	-9.32692	-184.816	6.71005	-14.6768	1.58099	-10.83	-372.917	0.322478
0.1900	-12.2087	270.167	-13.6009	-102.427	8.84236	2.71099	3.7169	-16.6522	-215.737	0
0.1907	-8.2655	212.517	-10.5652	0.733978	9.75195	1.49572	0.670088	-37.7015	-194.072	0
0.1913	-12.512	267.446	-5.97163	219.863	10.0651	-1.26201	-1.46582	-52.0329	-115.965	0
0.1920	-10.0854	248.826	2.25684	424.606	10.6764	13.3992	7.98871	-51.1372	130.914	-0.322478
0.1927	-6.14225	207.612	9.28698	425.524	10.0651	26.8139	16.8464	-41.6508	356.128	0
0.1933	-7.96217	199.985	8.96743	308.344	4.87597	25.9102	14.0928	-34.6479	532.214	0.322478
0.1940	-7.05221	189.314	3.79468	201.55	-0.924496	18.8835	7.38144	-34.3629	617.358	0
0.1947	2.72989	163.354	-3.23546	108.776	-5.81538	10.3454	3.10963	-36.4801	491.32	0
0.1953	14.6352	143.516	-5.97163	10.2023	-10.08	5.76475	0.366455	-35.8693	273.145	-0.322478
0.1960	14.6352	107.53	-2.31675	-105.766	-11.9141	4.54948	0.0523506	-27.3193	64.6752	-0.322478
0.1967	2.72989	40.3908	0.119832	-204.34	-12.5254	0.576475	1.58099	-16.6522	-181.56	0.322478
0.1973	-7.96217	13.213	-3.53504	-207.386	-14.0464	-7.05793	-0.554917	-15.105	-328.988	0.322478
0.1980	-13.422	36.7027	-12.6822	-121.951	-13.7482	-16.2036	-6.659	-23.37	-277.101	0.322478
0.1987	-13.422	40.9996	-19.7124	-33.1391	-10.9896	-20.7843	-9.09854	-28.8665	-227.375	0.322478
0.1993	-18.6542	29.3979	-19.7124	30.9372	-7.33633	-21.7035	-9.40218	-28.2558	-248.719	0
0.2000	-27.7539	35.1988	-15.1388	124.336	-1.83408	-21.0959	-10.9308	-21.2122	-143.15	-0.322478
0.2007	-27.7539	51.6702	-5.05292	280.27	6.71005	-21.0959	-11.2344	-7.77644	196.832	0.322478
0.2013	-26.2373	56.8623	7.74913	398.697	15.8656	-25.9726	-15.5063	-0.773573	560.319	-0.322478
0.2020	-27.1472	32.1551	12.6423	352.603	24.0966	-29.3379	-21.914	9.60859	664.37	-1.28991
0.2027	-24.7207	18.7273	14.1601	168.265	30.5084	-26.2842	-17.9458	38.5972	462.662	-0.644955
0.2033	-27.1472	42.5035	19.6524	5.61493	27.7647	-23.2304	-8.49127	60.2572	190.714	0
0.2040	-39.6592	57.7933	21.4899	-84.4075	15.5524	-19.865	-4.82673	55.6972	57.0853	0
0.2047	-50.9579	58.6885	15.0789	-195.789	6.39692	-18.0421	-4.21946	36.7651	-88.8249	0
0.2053	-51.8679	63.8805	8.36827	-298.326	5.48733	-18.9614	-0.858551	21.2122	-302.124	-0.322478
0.2060	-37.8393	40.9996	1.03854	-334.364	5.78556	-17.7305	-0.251283	14.4943	-436.995	-0.322478
0.2067	-2.42657	-27.9656	-9.64647	-384.091	0.909585	-12.5422	-3.90536	8.67216	-477.888	0
0.2073	45.119	-85.365	-19.0932	-462.847	-7.94769	-0.950405	-3.60172	-0.162857	-467.216	0
0.2080	72.0387	-70.7198	-26.7225	-455.213	-13.1368	9.73776	-1.16218	-7.49144	-348.492	-0.322478
0.2087	77.8018	-37.4546	-29.4787	-369.448	-9.78177	10.0338	0.366455	-12.0514	-28.0597	-0.322478
0.2093	86.3706	-46.9078	-20.9307	-201.587	4.26461	8.21088	2.80599	-19.7057	306.402	0.322478
0.2100	82.9583	-60.6221	-11.4639	204.89	20.4433	12.1683	3.41326	-31.3093	356.772	0
0.2107	62.5599	-34.9839	-9.02734	635.478	25.021	18.8835	1.58099	-36.7651	257.275	-0.322478
0.2113	57.9343	51.9925	-0.79888	683.114	23.7983	25.287	3.41326	-21.2122	232.849	0
0.2120	69.233	121.244	5.01297	416.68	25.3193	26.8139	7.38144	14.7793	212.701	0
0.2127	77.4985	67.2464	-0.479328	154.246	21.9642	18.5874	2.18826	45.6001	206.905	-0.322478
0.2133	89.1005	-24.0268	-2.61633	54.1309	16.1638	10.6414	-5.13036	52.6437	267.027	0
0.2140	85.764	-115.873	0.439384	91.9675	12.8087	12.1683	-2.99446	48.0429	255.435	0.322478
0.2147	33.8961	-219.034	-0.79888	172.228	6.09869	12.7759	-2.38719	48.0429	84.547	-0.644955
0.2153	-30.8629	-218.426	0.119832	246.69	-6.72497	8.81852	-5.73763	58.4251	-136.71	-0.967433
0.2160	-100.399	-132.667	7.44955	273.847	-21.3678	6.98003	-4.5231	70.9244	-305.16	0.322478
0.2167	-143.471	-50.8824	6.83042	187.788	-34.1915	5.76475	-2.38719	59.0358	-436.397	0.322478
0.2173	-69.3088	-41.7157	3.47513	60.8468	-39.9919	1.79175	-3.60172	22.7186	-483.408	0
0.2180	47.3181	-164.714	9.28698	9.87201	-33.5801	-4.00417	-3.29809	-1.38429	-376.597	0
0.2187	128.76	-306.906	11.7236	15.0833	-19.5486	-9.48847	-2.08356	-2.28	-198.994	0.322478
0.2193	198.372	-345.363	2.57639	30.9372	-7.63455	-13.7731	-5.73763	5.33358	-94.8968	0.322478
0.2200	266.392	-304.149	-11.7835	1.65145	-2.75858	-11.6386	-10.0094	17.8329	-109.571	0
0.2207	364.364	-285.851	-24.5855	-103.638	-4.27952	-6.45029	-12.1454	34.9329	-68.3552	0
0.2213	476.062	-380.454	-29.1791	-257.737	-7.63455	0.576475	-14.2813	51.0965	180.962	0
0.2220	500.783	-424.713	-22.7681	-427.139	-7.94769	20.4103	-10.9308	66.9751	432.441	0
0.2227	418.962	-161.957	-7.80905	-506.775	-3.36994	38.7173	-4.5231	83.7494	468.734	0
0.2233	309.766	225.945	1.95726	-441.158	-1.53586	41.7711	-4.21946	101.46	345.134	0
0.2240	173.955	343.107	-5.97163	-336.199	-3.36994	40.2442	-10.0094	109.684	218.221	0
0.2247	17.3651	186.879	-19.0932	-280.93	1.52095	34.7599	-13.674	94.7423	153.5	0
0.2253	-97.9727	102.016	-22.4485	-251.644	9.14059	25.287	-10.9308	64.5322	96.1388	0
0.2260	-155.983	187.774	-20.3115	-290.105	11.586	19.1951	-8.79491	19.9907	29.6236	0
0.2267	-227.642	215.239	-15.1388	-357.851	13.7183	17.6682	-3.29809	-36.7651	-17.7098	0
0.2273	-342.449	180.47	-9.94605	-238.837	14.6428	13.6952	2.18826	-86.8437	-54.3253	0
0.2280	-409.862	211.264	-14.5196	9.57842	14.9411	6.06078	-3.29809	-117.054	-96.4148	0.322478
0.2287	-435.493	232.641	-16.9562	204.266	13.7183	4.84551	-4.82673	-112.168	-166.61	0
0.2293	-450.128	190.209	-13.0018	274.178	10.3633	9.42615	3.7169	-86.518	-215.139	0.322478
0.2300	-460.517	151.143	-13.9205	100.518	7.00828	13.6952	9.51735	-73.693	-163.574	0
0.2307	-454.451	132.846	-16.0575	-82.279	1.81917	28.3408	11.3496	-65.7944	-14.9498	-1.28991
0.2313	-334.184	113.331	-12.6822	131.052	-4.27952	46.3517	11.3496	-54.1908	139.792	-1.28991
0.2320	-135.509	93.7798	-8.10863	485.967	-9.78177	50.0131	3.7169	-53.8651	166.932	0
0.2327	18.8817	86.1528	2.57639	518.299	-14.3595	50.3247	-1.16218	-55.4122	59.2013	0
0.2333	109.878	81.5694	19.6524	344.676	-16.4918	50.9324	2.50236	-45.9258	-101.613	0
0.2340	122.693	79.4568	32.1749	272.343	-13.1368	45.1365	3.41326	-32.2051	-251.755	0
0.2347	15.8485	85.2576	38.8855	311.39	-8.85727	41.7711	1.27736	-23.0443	-309.162	-0.322478
0.2353	-154.77	76.3773	35.8298	286.362	-7.63455	45.4325	1.88462	-24.2658	-231.331	-0.322478
0.2360	-197.159	53.8186	20.8707	201.55	-6.72497	46.0401	-0.251283	-31.3093	-47.0114	0
0.2367	-79.6976	32.4416	-0.79888	161.255	-4.89088	43.298	-8.49127	-38.3122	148.026	0
0.2373	2.12325	0.107422	-23.3672	129.217	-6.11361	48.4863	-16.4172	-39.8186	237.725	-0.322478
0.2380	0	-38.0634	-38.3263	66.0214	-10.9896	67.4009	-17.3385	-38.3122	209.343	-0.322478
0.2387	22.2941	-51.7776	-42.3007	-40.4789	-12.5254	97.3153	-13.674	-41.6508	159.894	0
0.2393	71.7354	-35.5926	-41.0824	-150.319	-9.17041	115.622	-11.8417	-44.4194	161.136	0
0.2400	88.7972	-15.7553	-38.0267	-146.979	-8.85727	114.703	-11.8417	-38.9229	179.766	0
0.2407	68.6264	-15.7553	-36.8084	-95.7108	-14.0464	100.369	-15.8099	-27.645	162.056	0
0.2413	58.3134	-23.7046	-34.0523	-131.419	-18.3259	78.4007	-22.2176	-20.3165	122.083	0
0.2420	89.7072	-23.7046	-24.9051	-114.611	-14.3595	60.0781	-21.0031	-18.1586	98.2548	0
0.2427	82.9583	-21.2696	-17.8749	46.8278	-0.626272	39.0289	-14.5954	-14.2093	80.867	0
0.2433	61.9533	-20.9474	-16.3571	195.128	9.14059	10.6414	-13.674	-4.43786	16.1918	0
0.2440	124.513	-21.2696	-14.5196	236.341	6.09869	-11.0154	-13.674	7.16573	-84.823	0
0.2447	186.163	-18.226	-7.50947	190.541	-0.0149112	-28.7147	-9.70581	14.7793	-158.698	0
0.2453	211.491	-15.1466	-2.31675	142.318	-1.83408	-55.5753	-9.70581	17.8329	-194.394	0
0.2460	293.842	-15.1466	-3.23546	156.668	-1.53586	-76.3285	-8.49127	22.7186	-164.172	0.322478
0.2467	462.944	-13.3204	-0.479328	138.979	-2.14722	-78.463	0.0523506	30.0472	-80.269	0
0.2473	700.368	-12.4252	2.57639	41.9469	-1.83408	-76.9361	4.63827	34.3222	-28.3817	0
0.2480	845.659	-20.3386	-5.05292	-34.3502	-6.11361	-78.7746	1.88462	30.0472	21.3437	0
0.2487	762.321	-28.5744	-11.7835	-100.298	-12.8237	-74.5055	1.58099	24.2658	63.1572	0
0.2493	607.931	-27.6792	-5.97163	-214.101	-11.9141	-69.9249	1.58099	23.94	-55.8433	0
0.2500	500.783	-22.1648	4.69342	-208.633	-41.2146	-73.2747	-2.99446	24.5508	-245.361	0.322478
0.2507	397.654	-19.4435	5.31255	-35.5979	-104.08	-78.463	-6.96264	24.2658	-266.429	0.322478
0.2513	336.914	-19.1212	-6.89034	45.9103	-135.812	-85.4897	-9.09854	21.8229	-136.112	0
0.2520	126.03	-13.9291	-11.7835	-21.5423	-132.158	-81.8283	-9.70581	20.6015	43.6535	0
0.2527	-459.607	-3.58075	-5.37247	-92.6648	-118.425	-61.6829	-6.96264	23.0443	261.829	0
0.2533	-968.352	2.82879	-0.79888	-134.758	-98.2799	-47.0373	-2.38719	22.1079	402.817	0
0.2540	-973.205	-1.11003	-0.79888	-59.7091	-68.9794	-41.849	-2.69082	13.5579	362.568	0
0.2547	-801.374	-8.45057	-0.79888	103.895	-29.3006	-32.6877	-5.13036	2.565	229.169	0
0.2553	-793.184	-14.2514	3.17555	86.4994	2.43053	-22.3112	-5.13036	-12.0514	104.971	-0.322478
0.2560	-847.175	-32.2625	6.83042	-86.536	16.7751	-21.3919	-11.5381	-30.0879	47.9314	-0.322478
0.2567	-803.27	-59.7269	5.31255	-185.44	26.8402	-30.5532	-21.0031	-43.8086	61.3172	0
0.2573	-707.42	-69.18	3.79468	-190.908	33.2521	-38.1876	-19.4744	-44.0936	65.3192	0
0.2580	-647.59	-64.5967	-4.45376	-172.301	29.897	-41.849	-15.2026	-38.5972	47.0114	0
0.2587	-555.153	-67.6403	-19.7124	-150.649	28.9874	-44.5911	-13.3704	-40.1443	49.7254	0
0.2593	-364.364	-70.3975	-26.7225	-47.4884	32.3425	-44.5911	-9.70581	-38.9229	34.7756	0.322478
0.2600	-144.381	-60.6221	-15.1388	104.482	32.3425	-42.4566	-8.18764	-26.4236	-44.5735	-0.322478
0.2607	-58.0101	-44.7593	4.09426	68.1866	32.6407	-40.3221	-10.0094	-6.27001	-122.083	-1.28991
0.2613	-188.59	-35.3062	10.2057	-64.2598	37.2184	-31.4724	-5.73763	12.9472	-119.001	-0.967433
0.2620	-282.923	-35.9149	-3.23546	-23.6708	42.4075	-14.3807	2.80599	23.0443	-98.5768	0.322478
0.2627	-50.9579	-40.4983	-26.423	54.4245	49.1176	-4.00417	7.07781	23.94	-116.885	0.322478
0.2633	433.673	-47.1943	-50.2296	55.9659	55.8426	-0.950405	9.82098	19.0543	-117.805	0
0.2640	908.522	-52.7086	-67.6252	124.006	56.1408	12.4799	8.29234	13.2729	-92.7809	0
0.2647	1177.34	-52.3863	-74.6354	214.982	57.6617	25.9102	1.88462	11.7257	-92.4589	0
0.2653	1187.43	-47.803	-69.7622	199.385	55.5294	17.0606	-2.08356	19.9907	-149.82	-0.322478
0.2660	937.489	-36.2014	-45.9556	140.483	9.14059	10.6414	0.366455	41.0401	-230.089	0
0.2667	668.292	-17.6173	-11.1643	99.3073	-50.6684	17.0606	1.27736	59.9722	-277.423	0.322478
0.2673	624.386	4.08205	26.9822	99.9312	-73.5571	11.5607	0.0523506	68.8073	-281.701	0
0.2680	487.058	22.0574	63.9104	176.522	-76.9121	-3.39653	7.38144	73.0823	-233.769	0.322478
0.2687	-17.7443	29.3979	77.6311	221.074	-64.4016	-16.2036	15.0142	68.1965	-127.28	0.322478
0.2693	-436.403	29.6844	65.4283	157.879	-33.5801	-26.2842	11.6533	63.3108	92.4589	0
0.2700	-381.805	27.2495	55.9815	86.4994	-0.626272	-36.3491	9.21371	65.143	366.202	0
0.2707	-136.115	11.709	44.3778	8.66094	34.1765	-45.1988	11.9569	41.0401	407.095	0
0.2713	-102.826	-14.8601	15.9976	-140.557	56.4539	-42.145	16.5323	-6.27001	192.876	0
0.2720	-376.27	-36.2014	-11.4639	-267.829	52.7858	-32.3917	28.1332	-29.7622	11.9139	0
0.2727	-625.599	-52.7086	-34.6714	-305.041	43.6303	-27.4994	36.9805	-31.3093	-27.1397	0
0.2733	-605.201	-55.7522	-37.108	-302.326	40.2752	-22.0151	34.541	-30.9836	-4.27795	0
0.2740	-625.599	-38.3498	-8.72776	-270.875	36.6071	-7.35396	31.4942	-26.0979	21.6657	-0.322478
0.2747	-689.676	-26.4617	8.96743	-201	27.7647	7.29163	30.8764	-19.38	33.2576	0.322478
0.2753	-391.587	-34.9839	-5.37247	-145.438	20.4433	3.31863	20.1969	-23.9808	28.7036	0.322478
0.2760	-39.6592	-43.2554	-17.2758	-169.879	26.8402	-8.58481	0.670088	-30.6986	19.8258	-0.322478
0.2767	-41.1758	-36.5236	-9.02734	-232.745	24.4097	-16.5152	-12.7631	-24.8765	7.03791	0
0.2773	-64.6832	-30.7228	-8.10863	-226.946	5.78556	-32.0801	-16.1135	-23.37	-5.47393	0
0.2780	151.964	-31.3315	-16.6566	-111.895	3.34012	-47.0373	-11.2344	-30.3729	2.75997	0
0.2787	210.884	-30.7228	-20.6311	-1.10097	8.231	-47.9409	0.670088	-29.1515	18.9058	0
0.2793	-119.66	-33.1577	-32.834	2.86252	7.91786	-45.1988	4.02053	-24.8765	3.95595	0
0.2800	-279.586	-36.5236	-49.0113	-16.6613	6.39692	-33.607	-1.76945	-18.7693	-28.7036	0
0.2807	60.74	-30.1141	-49.93	-0.807376	-0.924496	-6.74632	-3.60172	2.89072	-36.2936	0
0.2813	648.5	-17.9037	-38.0267	28.8087	-0.0149112	7.89927	-2.99446	23.655	-30.8196	0.322478
0.2820	1127.9	-8.45057	-19.7124	52.9198	8.84236	6.98003	0.366455	25.4872	-38.7775	0
0.2827	1161.79	-4.18948	1.65768	49.8738	12.4956	9.42615	13.4855	24.8765	-38.1335	-0.322478
0.2833	678.681	-2.32749	19.0533	21.1753	17.0734	10.953	29.9655	27.6043	-13.4318	0
0.2840	-13.1186	2.22006	27.9009	-12.6978	24.7079	9.11454	37.2841	28.215	12.8338	0.322478
0.2847	-532.859	12.3178	36.7485	59.6357	26.2289	13.0875	34.2373	24.8765	36.0176	0
0.2853	-693.392	20.5535	44.0782	282.398	27.4516	33.8407	24.7723	13.5579	58.6033	0
0.2860	-434.583	14.4304	28.5	398.073	32.3425	68.6317	12.8783	-4.72286	55.5213	0
0.2867	56.4177	-4.18948	-11.4639	283.316	30.5084	93.3423	-0.251283	-12.3772	31.7396	0
0.2873	603.305	-28.2879	-53.5849	147.53	26.542	90.9117	-15.5063	-4.11215	11.9139	0.322478
0.2880	1291.16	-49.0204	-79.2289	76.7374	32.0293	72.5892	-30.4576	-1.71	-8.2339	0
0.2887	1994.64	-47.5165	-72.8179	25.7626	37.5316	53.9861	-40.5299	-1.09929	-25.9437	0
0.2893	2167.08	-25.853	-32.834	12.6244	34.1765	39.0289	-38.0903	7.16573	-30.4976	0.322478
0.2900	1428.79	-2.97202	13.2414	20.8817	24.7079	27.1255	-27.7144	8.67216	-28.7036	0.322478
0.2907	118.978	15.3614	36.4489	15.6704	17.6847	14.3028	-17.0349	10.83	-32.9816	-0.967433
0.2913	-874.019	29.6844	39.4846	56.2594	15.8656	-0.0311608	-5.13036	32.2051	-45.4934	-1.61239
0.2920	-1028.79	39.4598	45.5961	130.722	10.0651	-18.3537	4.33463	51.0965	-58.0053	-0.322478
0.2927	-914.285	51.9925	60.8547	126.171	-2.75858	-16.8268	5.8528	48.3686	-60.4433	0.322478
0.2933	-1191.14	63.2718	68.484	61.7643	-10.3931	26.8139	4.9419	42.5465	-62.5592	0
0.2940	-1439.26	49.5217	42.5404	8.36735	-16.1787	73.82	-1.16218	28.8258	-75.0711	0
0.2947	-1176.73	11.9955	-2.93588	-35.2677	-39.6788	89.6809	-14.899	-5.04858	-72.6331	0
0.2953	-715.003	-23.4181	-35.5701	-71.306	-69.2776	72.9008	-17.9458	-35.8693	-40.2955	0
0.2960	-281.103	-51.1689	-61.2142	-81.6551	-78.4331	47.567	-10.0094	-56.9187	-10.6719	0
0.2967	151.054	-74.9809	-86.2391	-60.2963	-70.5003	49.4055	-7.5699	-80.4108	1.83998	0
0.2973	396.744	-79.8507	-89.894	-31.6345	-50.9815	48.1746	5.54917	-92.9509	19.8258	0
0.2980	426.014	-57.292	-58.478	-32.8455	-22.5905	21.9372	31.7978	-71.2501	34.7756	0
0.2987	579.191	-18.5125	-5.97163	-52.0758	-3.0568	17.0606	36.6769	-22.4336	6.11793	0
0.2993	808.729	13.5352	40.7229	-57.5439	5.48733	25.287	22.3328	15.39	-59.5233	0
0.3000	372.023	32.4416	68.7836	-53.5804	12.8087	7.58766	10.1246	31.8793	-101.935	0
0.3007	-465.673	49.2353	81.9052	-34.9741	16.7751	14.0068	-1.76945	48.6536	-118.403	0
0.3013	-757.165	61.4456	87.3975	-2.31203	19.8319	51.8516	-4.5231	60.2572	-123.002	0
0.3020	-694.605	52.6012	81.0064	15.3768	18.2961	43.298	12.2605	40.1036	-93.7009	-0.322478
0.3027	-485.238	25.1369	58.1185	14.753	6.09869	-2.78889	23.5578	-9.9343	-68.3552	0.322478
0.3033	-191.699	3.15106	37.0481	8.95454	-7.02319	-15.3	13.4855	-52.6437	-68.6772	0.322478
0.3040	-245.69	-6.62438	25.1447	-2.01844	-6.41183	10.3454	6.15644	-66.6901	-43.3315	0.322478
0.3047	-442.242	-13.0339	14.1601	-9.32153	-1.53586	14.3028	6.77417	-68.848	30.8196	0.322478
0.3053	-345.786	-22.4871	2.87597	-10.5693	-28.6892	-4.92341	4.02053	-80.1258	157.456	0.322478
0.3060	-144.987	-33.7665	-7.18992	-44.736	-107.435	-20.7843	12.5642	-95.6787	232.251	0.322478
0.3067	-139.148	-39.5673	-20.9307	-114.024	-227.366	-38.4836	29.3582	-103.618	166.932	0
0.3073	-325.918	-41.107	-42.8998	-146.686	-307.022	-58.6291	39.42	-106.957	98.5768	0
0.3080	-336.307	-44.1506	-66.1073	-122.868	-283.209	-76.6401	52.8532	-106.346	78.107	0
0.3087	53.9911	-49.9514	-82.2647	-50.5344	-208.146	-76.9361	70.2441	-99.058	48.2074	0
0.3093	476.972	-56.361	-95.3863	53.5437	-125.433	-79.9899	73.605	-86.8437	86.3869	0
0.3100	766.568	-60.0133	-103.635	112.115	-46.0906	-113.566	66.8937	-73.693	195.912	0
0.3107	1145.34	-60.6221	-103.934	108.152	13.4201	-153.841	54.6855	-60.583	230.411	0
0.3113	1615.26	-55.7522	-88.3761	83.7469	57.3635	-164.529	29.9655	-44.0936	172.406	0
0.3120	1911.6	-31.0451	-37.108	89.5454	95.2082	-105.324	4.02053	-17.8736	113.205	0
0.3127	1769.12	15.3614	37.3476	156.374	118.395	-1.55804	-2.08356	23.3293	58.2813	0
0.3133	915.195	58.402	87.0979	178.357	129.385	67.4009	13.1819	63.3108	-3.67996	0
0.3140	-552.651	88.3012	98.7016	111.822	142.208	120.811	33.6301	84.9708	-9.75188	0.322478
0.3147	-1658.63	106.921	93.5089	68.4802	146.786	147.967	56.2141	91.078	52.1634	0
0.3153	-1728.25	102.947	75.1946	63.3056	144.341	125.391	80.62	86.518	78.107	0
0.3160	-1419.39	75.7686	43.1595	57.5072	166.305	114.407	84.5882	70.0287	70.7931	0.322478
0.3167	-1271.07	42.5035	12.6423	48.0389	193.771	124.472	60.4859	49.8751	110.169	0
0.3173	-1024.77	10.7781	-13.0018	33.9832	180.038	133.322	17.7573	37.9865	135.192	-1.28991
0.3180	-639.325	-18.5125	-42.6003	19.9642	143.416	120.203	-35.3472	19.665	96.7368	-0.967433
0.3187	-302.108	-41.3934	-62.4325	9.87201	106.794	62.8358	-76.5471	-19.095	56.4413	0.322478
0.3193	-126.03	-53.3173	-57.8589	9.87201	70.4854	-21.0959	-85.698	-49.9158	40.2955	0
0.3200	-172.438	-51.4912	-42.3007	16.5879	38.1429	-110.808	-73.1862	-44.0936	33.5796	0
0.3207	-265.785	-44.7593	-29.1791	23.0102	-1.23763	-174.594	-54.8739	-33.1415	35.4196	0
0.3213	-210.581	-35.5926	-14.2201	21.7992	-24.4246	-185.282	-34.1222	-34.6479	43.3315	-0.322478
0.3220	-138.845	-16.0776	1.33812	-0.477086	-20.1451	-180.998	-19.4744	-22.4336	38.4555	0
0.3227	-112.001	4.97724	7.74913	-29.7995	-23.2019	-178.567	-14.899	-1.38429	15.2718	0
0.3233	-37.2326	19.6225	13.561	-45.0296	-26.5569	-170.933	-16.4172	14.1686	-12.8338	-1.28991
0.3240	252.97	31.8328	24.8452	-56.3328	-20.1451	-162.083	-17.3385	31.8793	-39.0535	-0.967433
0.3247	926.19	28.1805	25.1447	-73.1042	-30.2251	-129.13	-9.09854	42.5465	-54.3253	0.322478
0.3253	1377.53	7.41215	15.0789	-88.371	-52.8007	-72.0594	9.82098	34.6072	-56.7633	0.322478
0.3260	1297.3	-6.91084	10.8049	-100.592	-48.2229	-32.6877	19.8932	19.38	-59.2013	0
0.3267	1203.88	-1.71876	19.952	-110.647	-31.4478	-10.7193	15.6214	14.7793	-58.0053	0.322478
0.3273	732.141	20.2312	39.1851	-118.904	-40.2902	19.1951	10.4282	23.655	-25.9437	0.322478
0.3280	-358.904	42.5035	50.1697	-124.997	-50.3701	35.6636	-0.858551	31.2686	11.5919	0
0.3287	-1141.7	42.8257	34.3119	-103.638	-44.2565	34.4483	-21.6103	25.1615	-1.83998	0
0.3293	-1094.69	20.84	0.439384	-47.782	-41.2146	40.8518	-34.1222	3.17572	-40.2955	0
0.3300	-623.173	-4.18948	-28.56	-26.1296	-30.8364	36.2868	-37.7867	-22.7593	-61.3633	0
0.3307	-182.827	-17.6173	-45.0369	-30.717	1.52095	2.10336	-45.1053	-36.7651	-73.8751	0
0.3313	80.5317	-26.4617	-57.2397	33.6896	31.418	-42.4566	-48.1626	-36.7651	-79.947	0
0.3320	238.941	-45.3681	-75.2545	99.6009	47.2984	-75.1132	-50.2985	-43.1979	-86.6629	0
0.3327	369.824	-60.6221	-80.7468	62.6818	52.1744	-85.4897	-62.8103	-55.0865	-88.5029	0
0.3333	339.34	-50.2737	-53.5849	4.69746	38.4412	-83.6513	-67.0821	-48.9794	-63.8012	0
0.3340	212.4	-25.2443	-8.42818	-3.5231	17.6847	-90.678	-43.5872	-24.8765	-36.6156	0.322478
0.3347	189.5	-0.214845	35.2306	2.86252	9.14059	-79.6938	-7.5699	1.66929	-27.7837	0.322478
0.3353	36.626	22.9884	66.9661	3.4864	3.65325	-31.7685	15.3178	16.6115	-21.3437	0.322478
0.3360	-375.36	34.8765	73.0576	4.07358	-12.2123	13.0875	22.9505	21.4972	-9.75188	0
0.3367	-567.058	32.7638	60.8547	2.86252	-23.2019	50.3247	20.5005	26.9936	-3.95595	0
0.3373	-341.843	22.0574	41.3221	-5.68833	-16.4918	76.8738	13.1819	25.4872	-24.7017	0
0.3380	-140.362	6.19469	14.4597	-17.8724	-8.55905	74.4276	13.4855	8.67216	-68.0332	0
0.3387	-127.85	-5.40693	-6.59076	-27.3407	-5.81538	100.369	23.2542	-7.49144	-107.409	0
0.3393	-124.21	-7.23311	-13.3013	-29.4692	-2.44544	155.306	34.2373	-2.89072	-116.885	0
0.3400	-75.6786	-9.05929	-18.7936	-26.7168	-3.9813	171.774	37.2841	10.5043	-82.707	0
0.3407	-72.9487	-15.7553	-27.0421	-27.3407	-10.08	190.097	24.4687	5.33358	-16.4678	-0.322478
0.3413	-120.873	-20.6609	-30.9965	-31.9281	-7.94769	218.173	4.63827	-13.5986	42.1355	-0.322478
0.3420	-110.485	-22.7736	-34.0523	-34.3502	3.95148	183.678	-1.76945	-27.3193	52.4854	0
0.3427	-31.4695	-24.0268	-40.7628	-32.5152	12.4956	106.477	2.18826	-27.645	23.5057	0
0.3433	51.8679	-24.3133	-49.93	-31.0106	14.3297	41.1635	1.88462	-15.7157	0.321996	0
0.3440	108.361	-26.4617	-60.9146	-32.5152	16.4769	-4.31577	-0.554917	-0.773573	-5.79593	0
0.3447	269.121	-26.7482	-67.3256	-32.5152	21.0398	-36.6607	-6.659	10.83	-6.11793	0
0.3453	612.784	-20.9474	-60.595	-28.2582	28.3761	-64.129	-14.5954	23.3293	-2.11597	0
0.3460	871.289	-13.0339	-43.8186	-24.0011	35.9957	-90.3664	-21.3067	37.0501	-6.71592	0
0.3467	901.773	-2.04103	-19.7124	-20.6248	35.3844	-108.377	-29.5467	50.8115	-20.4697	0
0.3473	757.771	24.5281	20.5712	-16.9549	26.542	-106.539	-28.0181	76.4208	-27.1397	0
0.3480	550.831	59.6195	70.0018	-13.6153	20.7415	-96.4739	-16.7313	108.463	-27.4617	0
0.3487	329.558	76.0909	92.2906	-7.81687	20.4433	-85.4897	-5.13036	120.067	-22.9077	-0.322478
0.3493	-158.106	69.6814	79.7682	-1.72485	20.4433	-60.156	4.9419	109.074	-6.11793	0
0.3500	-761.715	55.9313	56.8802	-2.31203	23.4852	-33.2953	15.3178	87.7394	3.67996	0
0.3507	-797.734	37.9559	30.637	-6.27552	31.7311	-19.2574	27.8296	58.7508	-6.71592	-1.28991
0.3513	-346.696	16.8653	4.69342	-7.81687	39.6639	-8.58481	34.541	31.8793	-13.4318	-0.967433
0.3520	-106.238	1.00261	-14.8192	-11.1565	40.8866	3.63024	31.7978	11.7257	-10.3959	0
0.3527	-112.608	-9.99029	-30.3974	-12.0739	37.2184	8.81852	25.0864	-5.33358	-1.83998	0
0.3533	-187.376	-14.8601	-36.4888	-8.44075	34.773	8.21088	16.2287	-22.4336	8.2339	0
0.3540	-309.16	-18.226	-37.7071	-6.27552	22.5756	23.7757	1.88462	-41.6508	18.3078	0
0.3547	-344.269	-27.6792	-42.3007	-9.02793	1.20781	49.0939	-16.7313	-62.4151	23.1837	0.322478
0.3553	-324.705	-36.2014	-41.6816	-15.4502	-0.0149112	37.1905	-33.5149	-78.5787	-2.43797	0
0.3560	-318.942	-37.1324	-31.6157	-23.0836	28.3761	0.872503	-44.8017	-81.6323	-44.5735	0
0.3567	-268.287	-35.9149	-22.1489	-19.7073	58.2731	36.8944	-44.1944	-79.8001	-45.1714	0
0.3573	-195.642	-38.6721	-17.8749	-2.01844	67.4286	145.833	-31.9862	-83.1794	-15.8698	0
0.3580	-144.987	-44.4729	-20.0119	12.0372	55.5294	207.173	-31.9862	-102.722	-5.47393	0.322478
0.3587	-89.7072	-41.107	-22.7681	20.5514	33.2521	199.242	-41.4512	-130.164	18.6298	0
0.3593	-37.536	-24.3133	-12.0831	32.1483	15.2542	181.855	-21.914	-124.667	70.7931	-0.322478
0.3600	-19.5642	-12.1029	-5.97163	36.7356	-4.89088	153.779	9.21371	-87.4544	85.145	-0.322478
0.3607	-16.8343	-13.3204	-10.5652	32.4785	-29.3006	103.423	14.7105	-59.6872	55.8433	-0.322478
0.3613	-4.62564	-14.2514	-8.72776	23.3038	-36.6369	33.8407	7.07781	-48.3686	29.6236	0
0.3620	6.97638	-10.8855	-3.83462	10.7895	-33.5801	-15.3	14.0928	-34.3629	19.8258	0.322478
0.3627	9.7821	-9.05929	-4.75333	0.440387	-44.8679	-1.55804	23.8614	-16.6522	15.2718	0
0.3633	12.8153	-1.71876	-8.42818	-4.77086	-47.9247	14.6144	6.47054	-7.49144	11.2699	0.322478
0.3640	24.4173	9.5606	-6.89034	-2.64232	-43.9583	-7.97717	-13.3704	1.05857	8.83189	0.322478
0.3647	34.8061	10.7781	-5.67205	0.733978	-105.9	-27.4994	-15.2026	7.77644	3.95595	0
0.3653	35.1094	8.34314	-7.80905	-2.31203	-239.579	-54.6561	-19.7781	7.45073	-3.35796	-0.322478
0.3660	47.3181	10.1693	-8.10863	-10.8629	-331.73	-117.523	-23.7463	10.83	-11.5919	0
0.3667	78.1051	12.6042	-5.67205	-14.5328	-342.422	-180.998	-22.5212	14.4943	-16.4678	0.322478
0.3673	103.736	12.6042	-1.69762	-9.65182	-325.333	-200.847	-25.8822	16.0007	-12.8338	0
0.3680	116.854	8.6296	0.119832	-1.72485	-279.243	-118.146	-12.1454	21.2122	-7.63591	0
0.3687	107.072	-0.501305	0.439384	2.27533	-208.444	40.5558	11.3496	31.5943	-4.87594	0.322478
0.3693	81.4417	-11.2077	-1.09846	-4.44057	-132.158	123.864	11.6533	45.3151	-9.75188	0.322478
0.3700	92.437	-11.2077	-0.79888	-16.9549	-35.4142	147.967	0.0523506	63.3108	-22.5857	0.322478
0.3707	47.9247	0.71615	8.06869	-20.6248	43.6303	171.774	4.9419	83.4644	-28.0597	0
0.3713	-110.788	5.58597	13.2414	-11.4868	68.9645	108.907	33.9337	95.068	-20.7457	0
0.3720	-172.741	1.9336	9.58656	0.110097	78.4182	1.49572	64.7578	97.1852	-12.1899	0
0.3727	-110.181	-2.04103	7.14997	1.35786	98.8615	-43.3759	59.5646	94.1316	-14.3518	0
0.3733	-19.8675	-5.40693	4.39384	-7.52328	107.107	-37.58	18.6682	79.8001	-22.9077	0
0.3740	92.437	-8.1283	-2.31675	-19.7073	88.185	-44.2795	-20.0817	54.4758	-28.3817	0
0.3747	89.7072	-4.18948	-3.83462	-24.0011	76.2859	-111.727	-28.9394	25.1615	-27.1397	0
0.3753	-19.8675	8.34314	5.93168	-14.8264	97.0423	-195.659	-24.6572	-1.71	-16.7898	0
0.3760	-64.6832	19.336	14.7793	-5.35804	131.517	-240.203	-28.6253	-13.2729	-8.2339	0
0.3767	-31.1662	26.3543	19.6524	-5.98192	144.639	-257.295	-37.7867	-13.2729	-9.75188	0
0.3773	28.9671	30.0067	21.4899	-10.5693	132.128	-261.268	-50.9058	-30.0879	-15.8698	-0.322478
0.3780	57.0243	25.4233	14.4597	-7.81687	127.252	-273.171	-55.1776	-52.0329	-17.3878	0
0.3787	35.4127	17.7963	8.66785	4.07358	127.252	-294.532	-33.5149	-37.7015	-5.47393	0
0.3793	22.9007	15.6479	7.44955	12.0372	110.776	-292.694	-6.659	-8.10216	7.9119	0
0.3800	43.2991	14.4304	1.95726	11.1198	96.7292	-263.714	14.3964	0.447858	12.1899	0
0.3807	73.252	8.95187	-3.53504	12.6244	99.1746	-227.396	44.3096	-1.71	17.7098	0
0.3813	79.3184	1.00261	-3.53504	17.2118	101.009	-173.379	53.1568	-2.28	21.6657	0
0.3820	65.2898	-1.71876	-2.61633	17.5054	92.4646	-90.0548	27.2223	-1.38429	15.2718	-0.644955
0.3827	71.1288	3.75979	-5.05292	11.1198	75.3614	-7.05793	8.91008	1.34357	3.03596	-1.28991
0.3833	94.257	11.9955	-3.83462	6.826	65.9077	43.6096	4.33463	6.84001	-1.51798	-0.322478
0.3840	104.646	18.7273	-0.79888	4.07358	66.2059	41.4751	-4.82673	13.5579	-2.11597	0
0.3847	101.309	18.7273	-2.61633	-5.35804	18.6092	26.8139	-14.2813	16.0007	-9.15389	0
0.3853	101.916	13.5352	-4.75333	-9.02793	-79.0444	70.1586	-12.7631	14.7793	-10.6719	0.322478
0.3860	108.361	9.5606	-5.05292	-0.807376	-147.711	118.068	-5.13036	14.1686	-4.59994	0.322478
0.3867	108.968	6.80342	-5.05292	6.53241	-159.61	91.5194	-4.21946	12.9472	-0.919989	-0.322478
0.3873	112.911	5.29951	-4.75333	6.53241	-139.48	44.2172	-10.0094	9.89359	0.321996	-0.322478
0.3880	146.504	6.19469	-2.01717	3.77999	-120.244	31.7061	-17.0349	9.28287	0.919989	0
0.3887	165.992	4.97724	3.17555	5.32134	-102.858	35.0559	-15.8099	7.45073	4.27795	0
0.3893	83.9441	-0.823572	1.95726	10.2023	-70.5003	89.3848	2.50236	1.34357	10.0739	0
0.3900	-65.5931	-2.97202	-4.45376	21.1753	-39.3806	202.608	42.4773	1.34357	19.5498	0
0.3907	-137.329	2.22006	-5.05292	33.9832	-15.8805	263.325	89.7814	8.67216	30.2216	-0.322478
0.3913	-93.7262	7.41215	-7.18992	34.9007	12.4956	243.491	103.204	11.7257	28.7036	0
0.3920	-37.2326	8.6296	-14.5196	25.7626	32.0293	211.753	78.4841	11.115	17.3878	0
0.3927	-25.024	2.82879	-16.9562	16.5879	32.9538	168.424	56.5178	7.45073	11.5919	0
0.3933	-34.8061	-7.23311	-9.32692	11.4134	35.0861	106.165	40.645	1.34357	12.8338	0
0.3940	-34.8061	-10.8855	-1.69762	9.57842	51.563	57.3359	17.1501	2.565	3.03596	0
0.3947	-23.8107	-7.51957	0.439384	8.95454	69.2627	14.3028	-3.90536	8.38716	-7.03791	-0.322478
0.3953	-17.441	-2.32749	1.03854	7.74347	75.6745	-30.5532	-9.70581	4.72286	6.11793	0
0.3960	-13.7253	0.393882	0.439384	6.826	64.6849	-73.5863	2.50236	0.122143	17.7098	0.322478
0.3967	-12.512	-0.214845	-4.15418	2.86252	37.5316	-122.104	6.77417	7.45073	5.79593	0.322478
0.3973	-12.2087	1.61134	-4.75333	-2.01844	26.8402	-154.449	-6.35537	13.5579	-7.31391	0.322478
0.3980	-11.602	3.43752	-2.61633	-5.35804	38.7543	-172.46	-20.3853	10.83	-11.5919	0.322478
0.3987	-13.1186	3.43752	-4.15418	-9.65182	38.4412	-160.556	-33.2113	8.38716	-14.9498	0
0.3993	-12.2087	4.69078	-2.01717	-8.73434	26.542	-77.2477	-33.8185	10.83	-11.9139	0
0.4000	-10.3887	5.29951	-0.179748	-5.68833	23.4852	9.73776	-23.139	12.0514	-8.2339	0
0.4007	-11.2987	4.69078	-2.93588	-10.8629	20.7415	50.0131	-23.139	10.5043	-13.1098	0
0.4013	-10.0854	6.19469	-3.83462	-17.2852	13.107	81.4388	-38.394	9.60859	-17.7098	0.322478
0.4020	-7.35553	8.6296	-2.01717	-17.5788	11.586	101.288	-57.9312	10.2193	-15.5478	0
0.4027	-9.17546	7.41215	-3.53504	-17.2852	10.6764	96.7076	-69.218	8.67216	-13.4318	0.322478
0.4033	-12.8153	4.69078	-5.05292	-15.12	1.81917	76.8738	-53.6489	6.55501	-10.3959	0
0.4040	-11.2987	5.58597	-0.79888	-3.85339	1.20781	42.3787	-10.3235	8.38716	1.51798	0
0.4047	-10.0854	6.19469	1.03854	4.69746	7.61964	8.50691	16.5323	9.89359	7.9119	0.322478
0.4053	-11.9053	4.69078	-2.31675	3.4864	2.13231	4.54948	6.15644	8.06144	-1.24198	0.322478
0.4060	-11.2987	5.29951	-2.31675	1.65145	-3.36994	21.6256	-11.8417	7.45073	-12.8338	-0.322478
0.4067	-9.7821	8.02087	-1.09846	0.440387	-1.53586	17.9642	-15.5063	8.38716	-17.9858	-0.322478
0.4073	-10.6921	8.6296	-2.31675	-1.39456	-6.41183	-16.5152	-4.21946	8.38716	-14.3518	0
0.4080	-13.1186	6.51696	-2.61633	-2.01844	-12.2123	-38.1876	11.046	8.38716	-7.9579	0
0.4087	-13.422	4.97724	-0.79888	1.35786	-16.4918	-22.6228	12.2605	8.06144	-7.03791	0
0.4093	-10.3887	6.51696	4.39384	8.07376	-22.2923	2.39938	4.02053	10.83	3.95595	0
0.4100	-10.0854	6.51696	5.01297	12.0372	-19.5486	7.89927	-3.29809	10.83	27.7837	0
0.4107	-12.2087	4.08205	0.439384	13.2483	-4.27952	-7.97717	-6.659	6.55501	37.5355	-1.28991
0.4113	-11.602	4.36851	0.119832	12.0372	23.4852	5.15712	2.18826	6.55501	30.8196	-0.967433
0.4120	-9.7821	4.69078	1.33812	7.44988	46.0757	77.4814	4.33463	7.77644	23.5057	0.322478
0.4127	-9.17546	3.75979	1.95726	4.69746	54.9181	145.833	-13.674	7.16573	17.3878	0.322478
0.4133	-9.7821	3.75979	1.65768	5.61493	59.1976	197.108	-7.5699	7.77644	11.9139	0
0.4140	-9.7821	4.08205	1.65768	9.28483	57.0653	251.437	37.9019	8.06144	10.9939	0.322478
0.4147	-8.87214	3.43752	1.65768	12.3308	53.3971	260.582	58.35	6.55501	11.2699	0
0.4153	-9.7821	2.82879	-0.179748	8.36735	49.729	212.673	38.8128	5.61858	9.75188	0
0.4160	-10.6921	2.54233	-1.39804	1.94504	39.3507	138.51	35.1482	5.33358	12.8338	0.322478
0.4167	-8.2655	2.82879	1.65768	5.90853	22.5756	55.809	62.0041	5.33358	23.5057	0.322478
0.4173	-7.05221	3.15106	3.17555	11.707	9.14059	-8.2732	80.0127	5.61858	23.5057	0
0.4180	-10.6921	3.15106	0.119832	2.56892	-3.0568	-25.3649	58.35	4.39715	-0.597993	0
0.4187	-11.2987	3.43752	0.119832	-12.9914	-25.036	-12.8538	7.07781	4.72286	-29.3016	0
0.4193	-9.47878	3.75979	3.79468	-22.7533	-51.2797	-22.0151	-41.1371	5.61858	-45.4934	0.322478
0.4200	-10.0854	3.43752	3.79468	-27.0471	-65.3112	-76.3285	-64.9462	5.00786	-46.0914	0
0.4207	-10.9954	3.43752	1.95726	-26.4232	-64.4016	-155.072	-66.1608	4.39715	-28.9796	-0.322478
0.4213	-9.47878	4.08205	3.17555	-22.1661	-55.8575	-208.17	-60.0671	4.72286	-14.6278	-0.322478
0.4220	-8.2655	4.36851	4.69342	-17.5788	-48.8343	-201.455	-57.6171	5.00786	-13.7538	0
0.4227	-9.17546	3.75979	3.47513	-15.12	-47.0002	-159.341	-57.0099	4.11215	-14.3518	0
0.4233	-9.17546	4.97724	4.09426	-12.0739	-40.6033	-117.227	-42.6658	4.39715	-11.2699	0
0.4240	-8.56882	5.58597	5.61213	-7.19299	-32.0592	-83.9629	-17.0349	5.00786	-7.03791	0
0.4247	-9.47878	4.08205	3.79468	-6.27552	-28.391	-66.2635	-6.35537	2.89072	-6.71592	0
0.4253	-9.47878	4.08205	3.47513	-8.11046	-28.6892	-59.5483	-10.0094	1.66929	-8.5559	0
0.4260	-8.87214	4.69078	4.69342	-8.44075	-29.3006	-49.1718	-16.1135	2.565	-9.75188	0
0.4267	-8.87214	4.08205	4.69342	-9.65182	-25.036	-33.607	-20.3853	1.95429	-10.9939	0
0.4273	-9.17546	3.43752	5.01297	-11.1565	-20.7564	-9.19245	-21.6103	1.05857	-11.5919	0
0.4280	-7.96217	5.29951	7.14997	-9.02793	-20.1451	17.3566	-19.1708	3.17572	-8.5559	-0.322478
0.4287	-9.17546	5.29951	5.93168	-8.11046	-15.8805	15.8297	-18.2494	2.565	-7.9579	0
0.4293	-10.6921	4.08205	4.69342	-7.81687	-13.1368	-5.53105	-20.6994	0.447858	-7.63591	0
0.4300	-7.65885	5.29951	8.36827	-5.35804	-16.1787	-14.0691	-14.5954	2.565	-2.11597	0
0.4307	-7.65885	5.29951	7.44955	-5.35804	-17.4014	-17.7305	-4.82673	1.95429	-2.43797	-0.322478
0.4313	-10.3887	3.15106	3.17555	-7.52328	-12.5254	-22.0151	-6.96264	-1.71	-6.39392	-0.322478
0.4320	-7.96217	3.75979	5.61213	-5.06445	-7.02319	-14.9884	-9.40218	-1.09929	-3.35796	0.322478
0.4327	-2.72989	5.90823	11.1044	-2.64232	-3.36994	-6.13868	-3.60172	1.66929	1.83998	0.322478
0.4333	-4.62564	4.97724	8.06869	-7.81687	0.298225	-8.58481	-2.99446	-0.162857	-2.11597	0
0.4340	-8.2655	3.43752	3.79468	-11.7804	1.52095	-9.80008	-5.434	-3.21643	-7.03791	0
0.4347	-5.83893	4.69078	8.06869	-7.81687	3.65325	-4.92341	-2.69082	-1.09929	-2.43797	0.322478
0.4353	-4.62564	4.97724	9.88614	-6.27552	9.45372	-7.35396	-2.08356	-0.162857	-0.919989	0
0.4360	-8.2655	2.82879	4.39384	-8.11046	8.84236	-13.4615	-5.434	-3.50143	-4.87594	-0.322478
0.4367	-7.05221	3.43752	6.53084	-4.77086	6.71005	-12.2462	-2.38719	-3.50143	-1.24198	0
0.4373	-3.63985	4.36851	12.0231	0.110097	11.586	-0.342769	2.18826	-1.09929	5.19794	0.322478
0.4380	-3.94317	2.82879	9.58656	-1.10097	10.6764	13.0875	0.670088	-2.28	4.27795	0.322478
0.4387	-5.53561	0.71615	5.01297	-2.93591	2.13231	14.6144	4.33463	-5.65929	1.51798	0.322478
0.4393	-4.62564	0.71615	6.23126	-0.807376	0.298225	12.7759	18.061	-6.27001	2.11597	0.644955
0.4400	-3.03321	1.32488	8.66785	0.440387	3.34012	9.73776	28.1332	-4.43786	3.95595	0
0.4407	-5.53561	0.393882	6.53084	-0.807376	2.13231	-4.6118	29.0441	-6.55501	1.51798	-1.28991
0.4413	-5.83893	0.393882	6.23126	1.94504	11.2878	19.4911	30.5728	-8.10216	1.83998	-1.61239
0.4420	-3.33653	1.00261	8.36827	5.32134	34.1765	88.4656	34.541	-5.94429	6.39392	-0.322478
0.4427	-3.03321	0.107422	7.14997	3.4864	45.1512	122.945	36.3732	-6.55501	6.39392	0
0.4433	-3.63985	-0.823572	5.61213	1.02757	43.6303	111.353	37.2841	-7.77644	4.27795	-0.322478
0.4440	-4.32232	-1.4323	5.01297	-2.01844	39.3507	76.5622	36.9805	-7.77644	2.43797	0
0.4447	-3.94317	-1.4323	4.39384	-6.60581	33.2521	62.8358	33.3264	-7.77644	0.597993	0
0.4453	-3.33653	-0.214845	5.93168	-10.239	25.9306	120.203	25.3901	-7.16573	-1.24198	0
0.4460	-3.03321	0.107422	6.83042	-11.4868	10.0651	172.382	14.3964	-6.27001	-2.11597	0.322478
0.4467	-2.42657	-0.823572	6.53084	-10.239	-7.63455	152.252	3.41326	-6.88072	-2.11597	0
0.4473	-1.21328	-0.823572	7.44955	-8.11046	-18.6241	107.38	0.0523506	-7.77644	-1.51798	-0.322478
0.4480	0	-0.214845	8.36827	-6.8994	-16.4918	68.9278	2.18826	-6.88072	-2.11597	0
0.4487	-1.5166	-0.214845	8.06869	-6.27552	4.87597	26.2063	-1.76945	-5.65929	-4.59994	0.322478
0.4493	-2.12325	-0.823572	7.44955	-3.85339	23.187	-18.9614	-11.2344	-6.88072	-3.95595	0
0.4500	-0.303321	-1.11003	8.06869	-1.39456	13.4201	-47.3333	-17.9458	-6.88072	0	0
0.4507	0.303321	0.107422	7.44955	-2.31203	-2.14722	-65.3443	-24.0499	-4.72286	0	0.322478
0.4513	0	0.107422	4.09426	-4.14698	-7.02319	-94.3394	-25.2749	-5.33358	-3.95595	0.322478
0.4520	1.21328	-0.214845	2.87597	-3.85339	-54.0234	-130.034	-14.5954	-6.88072	-2.43797	0
0.4527	2.42657	0.107422	5.31255	-3.85339	-121.78	-162.691	-4.82673	-7.49144	1.24198	0
0.4533	0.606642	-0.501305	5.61213	-6.60581	-134.589	-191.997	-10.9308	-8.10216	-1.83998	0.322478
0.4540	-1.5166	-0.823572	5.01297	-10.239	-116.591	-200.224	-19.4744	-8.71287	-7.63591	0
0.4547	-0.606642	-1.11003	6.53084	-11.4868	-107.435	-180.702	-13.0667	-8.10216	-6.71592	0
0.4553	-0.606642	-0.214845	6.83042	-11.7804	-96.7441	-152.018	-3.29809	-5.94429	-5.47393	0
0.4560	-1.81993	0.71615	5.31255	-11.1565	-68.9794	-124.55	1.88462	-4.43786	-5.47393	0
0.4567	0	-0.214845	5.31255	-9.02793	-43.0338	-105.012	8.60645	-5.04858	-3.35796	0
0.4573	2.12325	-1.11003	5.61213	-9.02793	-23.515	-83.9629	15.9251	-6.27001	-4.27795	-0.322478
0.4580	1.21328	-1.11003	3.17555	-11.4868	5.1742	-47.0373	15.3178	-6.55501	-8.83189	-0.322478
0.4587	1.5166	-0.823572	3.47513	-12.4042	24.0966	-7.97717	4.63827	-5.65929	-9.15389	0.322478
0.4593	3.63985	-0.501305	5.31255	-9.65182	27.4516	20.722	-6.04126	-5.33358	-5.79593	0.322478
0.4600	3.03321	-1.11003	4.09426	-6.8994	29.5988	25.5986	-10.6272	-6.55501	-6.71592	0
0.4607	1.81993	-1.11003	3.79468	-3.2295	35.9957	8.50691	-9.70581	-6.88072	-9.15389	0
0.4613	3.33653	-0.214845	5.31255	3.77999	44.853	3.0226	-5.73763	-6.27001	-7.31391	0
0.4620	3.94317	0.393882	6.23126	13.5419	50.3403	9.11454	-4.82673	-5.94429	-5.19794	0
0.4627	3.63985	0.393882	5.93168	21.7992	50.0421	8.50691	-6.96264	-5.94429	-3.67996	0
0.4633	4.85313	1.32488	7.74913	20.8817	48.5062	9.11454	-7.5699	-3.21643	-0.321996	0
0.4640	6.06642	1.32488	7.14997	13.5419	52.4875	8.21088	-10.6272	-3.21643	-0.597993	0
0.4647	3.94317	-1.71876	1.03854	8.07376	54.6198	-1.26201	-13.9776	-7.77644	-6.39392	0
0.4653	3.33653	-2.32749	0.439384	5.61493	31.7311	-5.53105	-9.70581	-8.38716	-7.63591	0
0.4660	5.15646	-0.823572	3.47513	10.2023	-26.5569	-3.69256	-4.5231	-6.27001	-4.59994	0.322478
0.4667	6.06642	-0.823572	3.79468	22.0927	-72.0362	-5.53105	-3.29809	-7.16573	-4.27795	0.322478
0.4673	4.85313	-0.823572	2.25684	14.1658	-71.4248	-8.2732	0.0523506	-7.77644	-6.11793	0
0.4680	5.7631	0.107422	4.09426	-21.2487	-59.2125	-6.45029	7.07781	-4.43786	-4.59994	0
0.4687	5.7631	0.393882	3.79468	-47.782	-47.3133	-5.53105	9.21371	-3.21643	-4.59994	0
0.4693	3.63985	-0.823572	1.03854	-49.6169	-22.5905	-7.66556	8.29234	-5.94429	-8.2339	0.322478
0.4700	2.42657	-1.4323	0.738964	-41.3964	5.48733	-11.0154	9.82098	-6.88072	-7.31391	-0.322478
0.4707	2.12325	-1.71876	0.439384	-29.7995	28.0629	-15.596	9.51735	-7.49144	-3.67996	-1.61239
0.4713	2.72989	-2.04103	-0.179748	-16.9549	43.332	-8.58481	5.8528	-7.77644	-0.919989	-0.967433
0.4720	4.24649	-0.501305	1.95726	-3.2295	53.084	25.287	4.33463	-5.04858	2.43797	0.322478
0.4727	5.45978	1.32488	5.31255	12.6244	58.2731	58.2552	5.8528	-1.995	4.59994	0
0.4733	3.94317	0.71615	3.79468	19.3403	56.1408	56.7283	2.18826	-3.21643	2.43797	0
0.4740	3.03321	-0.214845	1.65768	9.87201	50.6535	39.325	-5.434	-4.72286	-0.597993	0
0.4747	3.63985	-0.823572	1.33812	-2.01844	46.0757	28.0447	-11.2344	-4.72286	-8.83189	0
0.4753	4.24649	-1.4323	-0.179748	5.61493	47.5967	21.6256	-11.5381	-5.94429	-17.7098	0
0.4760	5.7631	-1.4323	0.119832	28.1848	50.0421	20.4103	-4.5231	-6.27001	-11.2699	0
0.4767	8.18966	0.107422	4.09426	32.1483	43.332	22.5449	3.41326	-4.11215	-0.919989	0
0.4773	8.87214	1.32488	5.61213	10.4959	36.6071	22.2488	3.10963	-2.28	-5.47393	-0.322478
0.4780	6.67306	1.00261	1.95726	-10.8629	35.0861	18.2758	-4.5231	-4.11215	-12.5118	-0.322478
0.4787	6.67306	0.71615	1.03854	-15.12	30.1952	16.1413	-8.18764	-5.94429	-10.3959	-0.322478
0.4793	7.58302	1.00261	1.95726	-12.4042	22.8738	14.9105	-6.35537	-6.27001	-8.2339	-0.322478
0.4800	5.7631	1.61134	0.119832	-16.6613	17.6847	12.1683	-3.29809	-6.55501	-3.03596	0
0.4807	6.36974	1.32488	0.738964	-18.4963	12.4956	11.8723	3.10963	-5.94429	9.47588	-0.322478
0.4813	9.7821	-1.4323	2.87597	-0.183495	7.61964	11.2491	10.1246	-3.82715	16.4678	-0.322478
0.4820	8.87214	-4.47593	-0.79888	17.8357	7.00828	4.54948	6.77417	-4.72286	8.2339	0
0.4827	7.58302	-4.18948	-4.75333	16.0007	8.52923	-1.26201	1.88462	-6.88072	-2.75997	0.322478
0.4833	9.7821	-3.58075	-0.179748	1.65145	7.32142	-1.86965	11.3496	-6.88072	-0.597993	0
0.4840	10.0854	-4.18948	5.61213	-8.11046	5.48733	-3.39653	23.5578	-6.88072	2.75997	-0.322478
0.4847	7.58302	-4.47593	5.01297	4.07358	4.26461	-7.66556	25.9973	-7.16573	2.75997	0
0.4853	9.17546	-2.64975	5.01297	13.8355	0.298225	-5.82708	25.6937	-5.04858	6.39392	0.322478
0.4860	11.2987	-1.11003	6.53084	-4.77086	-3.66816	7.58766	21.4219	-1.995	6.71592	0
0.4867	6.97638	-1.71876	1.33812	-27.6343	-4.89088	20.0987	8.60645	-3.82715	-0.321996	0
0.4873	2.72989	-1.4323	-2.61633	-32.5152	-5.81538	19.1951	1.27736	-8.10216	-3.03596	0
0.4880	2.42657	-1.11003	-1.09846	-28.882	-5.81538	13.6952	1.88462	-4.72286	-2.43797	0
0.4887	-1.21328	-2.64975	-2.61633	-29.4692	-4.89088	14.9105	-3.90536	-0.488572	-5.79593	0
0.4893	-3.63985	-3.58075	-3.23546	-31.3042	-5.81538	20.4103	-11.5381	5.94429	-7.31391	-0.322478
0.4900	-0.606642	-1.11003	1.65768	-31.3042	-6.41183	26.2063	-10.3235	21.8229	-2.11597	0
0.4907	0.303321	1.00261	3.79468	-15.4502	-8.55905	25.9102	-6.96264	15.39	0.919989	0
0.4913	-3.33653	-0.214845	-0.179748	21.7992	-10.6914	18.5874	-8.18764	-12.9879	-2.43797	0
0.4920	-4.32232	-1.11003	-0.79888	57.5072	-6.11361	17.0606	-7.87354	-16.0415	-3.67996	0
0.4927	-0.909963	-0.823572	1.33812	83.7469	-3.66816	21.018	-7.26627	-5.94429	-2.75997	0
0.4933	2.72989	-1.4323	0.119832	87.0865	-6.72497	20.0987	-9.09854	-7.49144	-5.19794	0
0.4940	6.06642	-1.11003	1.33812	57.5072	-8.55905	18.5874	-4.82673	-7.77644	-5.47393	0.322478
0.4947	0.909963	1.00261	5.93168	33.396	-10.3931	22.2488	1.88462	-3.21643	-2.75997	0.322478
0.4953	-12.8153	1.32488	4.39384	38.277	-11.9141	19.1951	-1.76945	-1.995	-4.87594	0
0.4960	-21.9908	0.393882	0.439384	41.9469	-10.6914	12.7759	-8.49127	-2.89072	-8.5559	0
0.4967	-22.5974	-0.214845	1.95726	31.2308	-7.94769	11.5607	-9.09854	-2.60572	-6.39392	0
0.4973	-22.5974	-0.501305	1.95726	25.7626	-6.41183	10.3454	-8.18764	-1.995	-4.59994	0.322478
0.4980	-27.7539	-0.501305	-1.39804	22.3863	-5.50224	6.684	-8.79491	-1.995	-5.79593	0
0.4987	-33.2895	1.00261	1.03854	32.7721	-5.81538	10.3454	-5.434	0.447858	-0.919989	-0.322478
0.4993	-30.5596	1.9336	5.31255	45.5801	-4.89088	15.2221	-2.69082	2.565	7.03791	0
0.5000	-19.5642	-0.501305	0.738964	25.1388	-1.23763	9.73776	-10.9308	0.447858	3.35796	0
0.5007	-8.87214	-2.64975	-2.93588	-2.01844	2.43053	7.89927	-15.8099	-2.60572	-2.43797	-0.967433
0.5013	-2.12325	-0.823572	1.33812	-2.93591	4.87597	20.0987	-9.70581	-1.09929	-0.919989	-0.967433
0.5020	4.85313	0.71615	2.87597	8.66094	6.09869	24.3834	-7.87354	0.447858	-1.24198	0
0.5027	14.0286	1.00261	2.25684	13.8355	6.71005	14.9105	-3.60172	0.122143	-1.51798	0
0.5033	24.114	3.15106	8.36827	13.5419	7.00828	9.42615	14.3964	2.89072	5.79593	0
0.5040	31.0904	4.69078	9.58656	12.0372	5.1742	2.39938	27.8296	4.72286	9.47588	0
0.5047	41.7825	1.61134	1.03854	8.95454	1.52095	-7.66556	24.4687	1.34357	5.47393	-0.322478
0.5053	50.6546	-0.501305	-2.01717	6.53241	-3.0568	-13.1655	17.7573	-1.71	4.59994	-0.322478
0.5060	30.4838	-0.214845	0.119832	-1.72485	-7.63455	-21.0959	12.8783	-0.773573	3.95595	0
0.5067	-1.81993	-2.32749	-1.39804	-12.9914	-12.5254	-25.3649	8.60645	1.34357	-1.83998	0
0.5073	1.21328	-2.97202	-0.179748	-2.31203	-17.1032	1.18411	11.046	2.565	-1.83998	0.322478
0.5080	28.6638	-0.501305	3.47513	14.1658	-19.2355	35.3675	13.4855	3.78643	1.83998	0
0.5087	48.8347	-1.4323	1.03854	1.35786	-19.5486	34.7599	5.54917	3.17572	-5.19794	0
0.5093	62.5599	-2.97202	-2.31675	-12.6978	-21.0696	17.0606	-0.858551	1.05857	-10.3959	0
0.5100	57.9343	-2.64975	-2.01717	-5.68833	-23.2019	2.71099	-3.60172	-1.09929	-6.71592	0
0.5107	27.4505	-5.08466	-4.75333	-4.14698	-22.2923	-9.80008	-11.5381	-1.995	-7.03791	0
0.5113	11.9053	-6.91084	-7.18992	-13.9089	-18.3259	-13.7731	-17.9458	-1.71	-10.6719	0.322478
0.5120	30.4838	-4.7982	-2.93588	-15.7438	-14.0464	-4.31577	-12.7631	-0.162857	-8.2339	0
0.5127	33.2895	-2.97202	0.119832	-5.35804	-11.3027	5.15712	-4.21946	1.34357	-5.47393	0
0.5133	6.06642	-4.18948	-5.05292	3.77999	-7.63455	7.89927	-0.251283	1.95429	-7.03791	0.322478
0.5140	28.0572	-3.58075	-6.59076	12.0372	-3.9813	13.6952	6.15644	5.33358	-5.47393	0.322478
0.5147	129.973	-0.823572	-2.93588	20.2578	-2.14722	17.0606	10.4282	9.60859	-3.03596	0.322478
0.5153	227.946	0.393882	-3.83462	18.7531	-3.36994	10.0338	4.9419	14.7793	-5.79593	0
0.5160	275.87	2.82879	-0.79888	12.0372	-4.89088	6.37239	2.80599	31.2686	-4.27795	0
0.5167	304.231	7.73442	8.96743	6.826	-3.66816	10.0338	7.07781	50.8115	2.11597	0
0.5173	344.8	9.23833	12.6423	1.02757	-3.66816	8.81852	4.63827	60.868	0.597993	0
0.5180	371.72	8.02087	13.2414	-4.77086	-4.89088	5.45315	0.0523506	63.6365	-3.95595	0
0.5187	309.16	9.5606	22.089	-5.98192	-4.89088	5.45315	0.973722	33.3858	-2.75997	0
0.5193	61.3467	12.3178	30.0379	-7.19299	-4.59266	4.23787	0.670088	-23.37	-2.11597	0
0.5200	-326.222	13.5352	28.5	-11.1565	-4.59266	1.79175	-1.76945	-40.7551	-4.27795	0
0.5207	-559.703	18.1186	26.363	-10.5693	-3.0568	4.54948	1.88462	-16.9372	-1.24198	-0.322478
0.5213	-486.148	20.2312	21.7894	-6.8994	-0.0149112	6.98003	5.8528	-2.28	2.43797	0
0.5220	-300.288	13.8217	9.88614	-5.06445	1.52095	4.54948	4.02053	-4.72286	0.321996	0.322478
0.5227	-151.66	1.32488	-1.69762	-4.14698	1.52095	2.39938	3.7169	-15.105	0	-0.644955
0.5233	-35.716	-11.8165	-11.4639	-6.8994	1.81917	1.79175	3.10963	-27.93	0.919989	-1.28991
0.5240	8.87214	-20.9474	-19.7124	-14.5328	3.04189	0.576475	-0.858551	-35.8693	-2.11597	-0.644955
0.5247	-14.3319	-24.3133	-19.7124	-20.9184	3.34012	1.18411	-0.858551	-39.8186	-3.35796	0.322478
0.5253	-39.0526	-22.4871	-12.3826	-24.9186	2.74367	3.92626	4.9419	-39.5336	-0.597993	0
0.5260	-57.7068	-20.9474	-9.64647	-29.1756	2.74367	1.49572	3.7169	-38.3122	-3.95595	0
0.5267	-74.162	-20.6609	-11.1643	-27.0471	1.52095	-3.69256	-2.38719	-39.2079	-7.31391	0
0.5273	-75.9819	-18.8347	-8.42818	-33.1391	-0.924496	-3.69256	-1.46582	-37.9865	-2.43797	0
0.5280	-66.5031	-16.6863	-7.80905	-67.6361	-1.83408	-4.6118	-1.76945	-34.3629	-1.83998	-0.322478
0.5287	-57.1002	-13.6426	-7.80905	-111.895	-1.23763	-6.13868	-2.99446	-28.8665	-3.95595	-0.322478
0.5293	-44.2849	-9.99029	-3.23546	-138.135	-0.924496	-4.00417	2.50236	-21.5379	0.919989	0.322478
0.5300	-26.8439	-8.1283	-2.01717	-146.062	-0.924496	-4.00417	4.33463	-15.4307	2.75997	0
0.5307	-12.512	-8.1283	-5.37247	-152.778	-3.36994	-6.45029	-1.76945	-14.2093	-1.24198	-1.28991
0.5313	-4.92897	-7.23311	-5.67205	-160.998	-4.59266	-5.82708	-2.99446	-13.8836	0	-0.967433
0.5320	-0.606642	-5.69339	-3.53504	-168.632	-3.36994	-4.92341	-1.16218	-11.1557	2.75997	0
0.5327	4.54981	-6.01566	-4.15418	-171.09	-1.83408	-3.39653	-3.90536	-8.38716	-0.321996	0
0.5333	9.7821	-6.01566	-2.31675	-128.96	-2.75858	2.10336	-3.29809	-6.55501	3.35796	0
0.5340	19.4884	-2.64975	2.87597	19.3403	-5.20402	10.3454	2.50236	-3.21643	15.2718	0
0.5347	42.0858	-0.501305	1.95726	235.424	-6.11361	12.7759	1.58099	-2.89072	19.5498	0
0.5353	66.8064	-1.71876	-2.01717	339.795	-5.81538	12.7759	-2.38719	-4.43786	15.8698	0
0.5360	76.2852	-2.04103	-4.75333	264.709	-5.50224	15.2221	-1.46582	-3.82715	10.6719	0
0.5367	74.4653	-1.71876	-6.59076	153.622	-4.89088	13.6952	-1.46582	-0.773573	3.67996	0.322478
0.5373	78.4085	-4.7982	-4.45376	96.5549	-4.59266	11.5607	-2.69082	2.565	-0.597993	0.322478
0.5380	88.4939	-7.23311	1.03854	72.7373	-4.27952	13.3992	-0.251283	3.17572	2.11597	0
0.5387	92.7404	-7.23311	2.57639	64.8103	-4.27952	13.0875	2.18826	0.447858	4.87594	0
0.5393	88.4939	-9.34575	-1.39804	57.5072	-3.0568	7.29163	-0.251283	-2.89072	3.03596	0
0.5400	79.9251	-8.45057	-2.61633	44.0754	-1.53586	4.23787	-0.554917	-3.50143	3.35796	0.322478
0.5407	60.74	-5.40693	-4.15418	31.8547	-2.14722	3.0226	-0.858551	-5.33358	4.27795	0.322478
0.5413	25.3273	-4.7982	-6.59076	26.6801	-2.14722	1.49572	-3.90536	-6.27001	1.83998	0
0.5420	-22.5974	-2.04103	-2.01717	26.9737	-0.924496	2.71099	-3.29809	-0.773573	3.03596	0
0.5427	-67.1856	0.107422	2.57639	28.1848	-0.626272	3.0226	-1.16218	3.17572	6.39392	0
0.5433	-80.3042	1.61134	2.87597	27.8912	-0.924496	1.18411	-1.46582	3.17572	6.39392	-0.322478
0.5440	-69.3088	3.15106	4.69342	29.1022	-0.626272	3.63024	-1.16218	4.11215	5.19794	0
0.5447	-57.7068	1.9336	5.31255	28.8087	-0.313136	8.81852	-1.46582	2.28	4.27795	-0.322478
0.5453	-44.5882	-1.71876	3.47513	24.8452	-0.313136	8.81852	-2.99446	-2.60572	1.51798	-0.322478
0.5460	-31.1662	-5.08466	4.09426	19.0467	-0.0149112	5.45315	-3.29809	-3.50143	0.597993	0.322478
0.5467	-20.7775	-4.47593	4.39384	14.1658	0.596449	5.45315	-0.251283	1.66929	3.35796	0.322478
0.5473	-14.0286	0.71615	-0.179748	12.9547	0.596449	7.29163	2.18826	6.84001	4.87594	0
0.5480	-12.512	4.69078	-5.67205	10.7895	0.298225	4.84551	0.0523506	8.67216	1.24198	0
0.5487	-9.7821	6.80342	-7.80905	3.77999	0.596449	2.10336	-3.29809	15.7157	-1.24198	0
0.5493	-3.94317	9.23833	-10.2456	-2.93591	0.298225	-1.26201	-4.5231	30.6579	-1.24198	-0.322478
0.5500	2.42657	9.84706	-13.0018	-4.44057	-0.313136	-4.6118	-5.13036	46.5365	-1.83998	-0.322478
0.5507	8.18966	15.6479	-11.4639	-4.14698	0.298225	-3.39653	-4.82673	59.9722	-0.321996	0
0.5513	12.8153	10.1693	-7.18992	-4.44057	1.20781	-0.0311608	-3.60172	51.4222	1.51798	0
0.5520	13.1186	-27.0705	-5.97163	-6.27552	1.20781	-0.342769	-2.69082	17.5479	1.24198	0
0.5527	12.2087	-58.1872	-8.42818	-9.65182	0.596449	-2.78889	-4.21946	7.77644	-1.24198	0.322478
0.5533	13.422	-64.3102	-9.64647	-11.4868	0.596449	-3.08492	-3.60172	12.6622	-2.75997	0
0.5540	14.9386	-68.8578	-8.42818	-11.4868	0.596449	-3.08492	1.58099	-13.2729	-2.75997	0
0.5547	15.2419	-80.1729	-9.64647	-9.65182	0.596449	-3.69256	6.15644	-26.4236	-1.24198	0.322478
0.5553	14.9386	-101.836	-3.83462	-6.8994	1.20781	0.576475	7.07781	-1.995	2.11597	0
0.5560	13.422	-95.4269	6.83042	-6.60581	1.81917	6.37239	5.54917	21.2122	3.67996	0
0.5567	8.56882	-29.1831	1.03854	-9.65182	1.20781	2.39938	0.366455	33.1008	0.321996	0
0.5573	3.33653	-2.04103	-9.94605	-10.5693	-1.23763	-3.39653	-1.76945	23.655	-1.51798	-0.322478
0.5580	0	-56.9697	-7.18992	-8.11046	-2.75858	-1.55804	0.670088	-5.33358	0.321996	0
0.5587	-0.606642	-99.4016	-3.83462	-6.60581	-3.36994	0.264867	0.366455	-23.37	0.321996	0
0.5593	2.72989	-52.0999	-4.45376	-5.68833	-3.66816	-0.342769	-0.554917	-30.6986	-0.321996	0
0.5600	10.6921	91.3449	-1.69762	-4.77086	-3.0568	1.18411	3.10963	-22.4336	2.75997	0
0.5607	13.1186	181.687	-4.75333	-7.81687	-2.44544	-1.26201	2.50236	-6.55501	1.83998	-0.644955
0.5613	8.87214	131.306	-7.80905	-13.6153	-1.83408	-4.6118	-2.99446	-7.77644	-3.67996	-1.28991
0.5620	7.88634	74.8734	0.119832	-13.9089	-0.0149112	-0.342769	-1.16218	-1.995	-0.919989	-0.322478
0.5627	9.7821	69.9678	6.53084	-9.65182	1.52095	3.31863	2.50236	36.4393	3.35796	0.322478
0.5633	8.87214	63.5583	5.61213	-7.19299	0.596449	1.49572	0.670088	66.0794	1.51798	0
0.5640	7.2797	29.3979	1.65768	-4.44057	-0.626272	0.576475	-1.46582	35.8286	-0.321996	0
0.5647	5.7631	-12.1029	-2.31675	-5.35804	-0.0149112	0.264867	-2.08356	-9.9343	-0.321996	0
0.5653	3.33653	-23.0958	-1.39804	-20.0376	2.74367	-1.26201	-2.69082	-32.5308	-1.51798	0
0.5660	3.33653	-46.2991	-1.39804	-31.3042	5.78556	-0.638797	-0.858551	-37.0908	-1.24198	0
0.5667	3.63985	-103.34	-5.37247	-27.9646	6.39692	1.79175	2.50236	5.33358	1.24198	0.322478
0.5673	1.5166	-148.207	-1.39804	-27.6343	4.87597	2.10336	2.50236	59.9722	1.51798	0
0.5680	-1.81993	-225.444	11.424	-29.7995	3.65325	1.18411	0.366455	84.6858	-0.919989	0
0.5687	0.303321	-251.655	17.5154	-24.2947	2.74367	1.79175	0.670088	101.745	0.321996	0
0.5693	3.33653	-110.359	16.2971	-18.2027	2.13231	1.79175	0.670088	49.5901	0.919989	0
0.5700	1.5166	-58.5094	14.4597	-16.6613	0.909585	-0.950405	-2.08356	-22.1486	-2.11597	0.322478
0.5707	2.72989	-191.856	15.698	-16.0374	0.298225	-1.26201	-2.99446	-3.21643	-2.43797	0.322478
0.5713	6.97638	-265.083	15.3784	-15.4502	0.298225	-0.950405	-3.60172	32.7751	-2.43797	0
0.5720	8.18966	-252.586	7.74913	-16.0374	-0.626272	-2.16568	-5.13036	70.3137	-4.59994	0.322478
0.5727	12.8153	-257.169	1.65768	-14.5328	-0.626272	-0.638797	-2.38719	115.507	-2.43797	0
0.5733	16.1518	-295.913	3.47513	-12.4042	-0.0149112	0.576475	1.58099	116.728	0.919989	0
0.5740	9.47878	-251.977	8.66785	-13.6153	0.596449	-1.86965	-0.858551	119.456	-2.11597	0
0.5747	6.97638	-23.7046	17.2159	-12.4042	1.52095	-0.638797	-1.46582	94.4573	-1.51798	-0.322478
0.5753	12.2087	237.511	21.7894	-8.73434	2.43053	2.39938	2.50236	-12.6622	2.43797	0
0.5760	11.9053	398.358	10.8049	-9.02793	3.34012	-0.342769	2.18826	-92.9509	0.919989	0
0.5767	10.3887	438.928	-7.50947	-10.5693	3.65325	-3.08492	0.0523506	-78.5787	-0.321996	0
0.5773	14.0286	355.64	-16.3571	-8.73434	3.95148	-1.86965	1.27736	-41.0401	1.83998	0.644955
0.5780	13.7253	266.515	-12.3826	-7.81687	3.34012	-1.86965	-0.251283	-48.9794	1.51798	0.322478
0.5787	9.47878	243.634	-4.45376	-7.19299	2.43053	-2.16568	-2.38719	-101.501	0.919989	0
0.5793	8.56882	221.04	-5.05292	-4.44057	2.13231	-0.0311608	0.670088	-143.885	3.67996	0
0.5800	7.2797	173.451	-11.1643	-3.85339	1.52095	0.872503	1.58099	-145.106	3.35796	0.322478
0.5807	4.24649	126.15	-7.50947	-5.98192	0.909585	-1.55804	-2.69082	-130.164	-0.321996	0
0.5813	4.85313	79.1345	1.65768	-5.68833	0.909585	-1.26201	-3.29809	-114	-0.321996	0
0.5820	6.97638	48.0178	3.47513	-2.93591	1.20781	0.872503	-0.251283	-79.5151	2.43797	0.322478
0.5827	6.67306	50.1305	0.439384	-2.93591	0.909585	1.18411	0.366455	-19.9907	2.75997	0
0.5833	8.56882	46.8004	0.119832	-3.2295	0.909585	0.576475	0.670088	26.0979	2.43797	0
0.5840	10.3887	3.75979	0.439384	-4.44057	0.298225	-0.638797	-0.251283	34.3222	1.24198	0
0.5847	7.58302	-8.1283	3.79468	-6.8994	-0.313136	-3.08492	-4.82673	10.83	-2.75997	0
0.5853	3.63985	70.8988	12.9419	-5.98192	-0.0149112	-3.08492	-4.21946	-29.7622	-2.43797	0
0.5860	5.15646	117.269	12.0231	-3.2295	0.298225	-0.342769	2.18826	-47.7579	0.597993	0
0.5867	10.9954	62.0544	-1.09846	-2.64232	0.298225	0.264867	5.24553	-29.7622	1.51798	0
0.5873	13.422	1.9336	-15.7379	-3.2295	0.909585	-0.342769	5.54917	-13.5986	1.51798	0
0.5880	10.0854	-56.361	-27.3417	-4.14698	1.81917	-0.638797	4.33463	-20.6015	-0.321996	0
0.5887	5.45978	-130.841	-19.0932	-4.77086	1.52095	-1.55804	0.973722	17.5479	-2.43797	-0.322478
0.5893	4.54981	-135.997	4.69342	-4.77086	0.596449	-2.16568	-0.858551	44.9894	-3.03596	0.322478
0.5900	7.58302	-90.8436	10.2057	-4.14698	0.298225	-0.638797	0.973722	-5.33358	-1.83998	0.322478
0.5907	10.3887	-83.503	-2.93588	-1.10097	-0.0149112	0.872503	2.50236	-12.9879	0.321996	-1.28991
0.5913	8.18966	-68.5713	-4.15418	1.02757	0.596449	0.264867	0.366455	-20.6015	0.597993	-1.28991
0.5920	3.94317	-64.5967	3.79468	-0.807376	1.52095	-0.950405	-1.76945	-79.1894	0.321996	-0.322478
0.5927	2.12325	-16.0776	-2.93588	-2.01844	1.20781	-1.86965	-2.38719	-78.2937	0.597993	0
0.5933	1.81993	135.603	-14.2201	-2.64232	0.596449	-2.78889	-3.60172	-17.8736	-0.321996	0
0.5940	1.21328	117.592	-16.3571	-4.14698	0.298225	-3.08492	-4.21946	20.6015	-2.11597	0
0.5947	3.03321	-54.8213	-11.7835	-2.01844	-0.0149112	0.264867	0.0523506	6.84001	0	0.322478
0.5953	4.54981	-142.12	-5.37247	0.440387	-0.0149112	1.79175	2.50236	-17.2629	2.75997	0
0.5960	1.81993	-163.461	-1.39804	-0.477086	-0.0149112	-0.638797	-0.251283	-23.37	1.24198	-0.322478
0.5967	-0.303321	-72.546	1.03854	-1.10097	-0.0149112	-0.950405	-0.858551	-12.0514	-0.597993	0
0.5973	-2.42657	81.283	3.47513	-2.01844	-0.0149112	-0.342769	1.58099	30.9836	-1.24198	0
0.5980	-9.17546	72.725	1.95726	-3.85339	-0.0149112	-2.47729	0.366455	81.0216	-3.67996	0
0.5987	-11.2987	22.9884	1.65768	-2.01844	0.298225	-0.638797	0.973722	127.11	-1.83998	0
0.5993	-5.53561	116.052	2.25684	1.02757	0.909585	2.10336	4.02053	174.99	2.43797	0
0.6000	-3.63985	213.735	-1.09846	-0.807376	1.20781	-1.26201	0.670088	179.876	0.321996	-0.322478
0.6007	-7.05221	123.07	-3.23546	-2.64232	1.20781	-4.31577	-2.99446	125.563	-1.83998	0
0.6013	-5.53561	-63.988	-6.29118	-3.2295	1.20781	-3.69256	-2.69082	65.7537	-1.83998	0
0.6020	2.42657	-55.43	-12.6822	-3.85339	0.596449	-3.08492	-1.76945	24.8765	-2.75997	0
0.6027	8.87214	104.773	-11.7835	-3.2295	0.909585	-1.86965	1.88462	-2.28	-2.43797	0
0.6033	11.2987	209.151	-3.53504	-1.10097	1.52095	0.264867	6.15644	-12.9879	0.321996	0
0.6040	11.2987	220.144	-0.479328	-1.10097	1.52095	0.264867	6.15644	-40.4293	-0.321996	0.322478
0.6047	9.17546	160.632	-3.23546	-2.93591	1.20781	-1.86965	2.50236	-90.508	-2.75997	0
0.6053	8.18966	96.8234	-4.75333	-2.93591	1.52095	-2.47729	0.670088	-121.329	-3.03596	0
0.6060	8.56882	59.9059	-3.83462	-2.64232	1.81917	-2.47729	0.366455	-130.164	-3.03596	0
0.6067	8.56882	72.1163	0.439384	-1.72485	1.81917	-1.86965	1.88462	-118.275	-1.24198	0
0.6073	9.47878	155.118	5.01297	0.110097	1.20781	0.264867	4.63827	-87.7394	1.51798	0
0.6080	8.87214	187.166	4.69342	-0.183495	0.909585	0.576475	4.63827	-65.4687	1.24198	0
0.6087	5.15646	135.281	4.09426	-1.72485	0.596449	-0.638797	1.88462	-54.1908	-1.51798	0
0.6093	1.81993	114.226	7.14997	-2.31203	-0.626272	-2.16568	0.0523506	-39.2079	-3.35796	0
0.6100	1.21328	71.5075	8.06869	-1.72485	-1.53586	-2.47729	-1.16218	-22.7593	-3.95595	0
0.6107	1.81993	-42.3244	7.14997	-1.10097	-1.53586	-1.26201	-1.46582	-12.9879	-3.95595	-0.322478
0.6113	1.81993	-135.71	7.14997	0.440387	-2.14722	0.872503	0.366455	-6.27001	-2.11597	0
0.6120	3.94317	-218.103	2.87597	1.65145	-2.44544	2.10336	2.50236	1.95429	-0.597993	0
0.6127	5.15646	-336.805	-0.479328	0.440387	-3.36994	0.264867	0.973722	5.61858	-2.75997	-0.322478
0.6133	2.12325	-395.1	5.61213	-1.39456	-5.50224	-1.26201	-0.858551	8.67216	-5.47393	-0.322478
0.6140	2.12325	-382.889	15.3784	-0.807376	-7.63455	0.872503	0.973722	20.8865	-5.47393	0
0.6147	2.72989	-416.763	18.4342	-0.183495	-8.24591	2.71099	2.80599	35.2179	-6.11793	0
0.6153	-5.53561	-300.496	20.2716	-0.183495	-6.41183	2.39938	2.50236	55.0865	-6.11793	0
0.6160	-11.602	39.4598	19.3529	1.65145	-3.36994	1.49572	4.63827	85.2966	-2.75997	0
0.6167	-8.56882	187.488	12.0231	3.15611	-1.23763	1.18411	6.77417	116.117	0.321996	0
0.6173	-12.2087	54.7138	6.83042	0.733978	-0.924496	-1.26201	2.50236	148.16	-2.11597	0
0.6180	-14.3319	-99.0793	5.31255	-1.39456	-2.14722	-3.08492	-2.69082	168.924	-5.79593	0
0.6187	1.5166	-155.225	-1.69762	0.733978	-3.36994	-0.342769	-1.16218	156.384	-4.27795	0
0.6193	14.3319	-163.461	-8.72776	1.65145	-3.66816	-0.0311608	0.366455	139.895	-2.43797	0.322478
0.6200	11.2987	-204.353	-3.83462	-0.183495	-2.75858	-3.08492	-1.76945	122.835	-3.67996	-0.644955
0.6207	9.17546	-210.763	11.7236	1.94504	-0.626272	-2.47729	-0.858551	70.3137	-1.51798	-1.93487
0.6213	7.88634	-243.133	21.4899	2.56892	0.909585	-1.86965	0.670088	12.0514	0.321996	-1.28991
0.6220	0.606642	-404.553	16.2971	-0.477086	2.43053	-4.31577	-0.251283	-13.2729	-0.597993	0.322478
0.6227	-5.23229	-393.596	9.28698	0.733978	5.48733	-3.69256	2.80599	6.55501	3.67996	0
0.6233	-12.2087	-183.298	6.53084	1.94504	7.32142	-4.6118	3.41326	63.0258	6.71592	-0.322478
0.6240	-21.9908	-111.612	-3.23546	-0.807376	8.52923	-9.19245	-1.16218	83.7494	3.35796	0
0.6247	-19.8675	-99.688	-16.6566	-1.10097	11.2878	-8.88084	-1.46582	35.5436	3.03596	0
0.6253	-9.47878	48.6266	-16.9562	-0.477086	11.586	-6.74632	2.50236	-30.0879	4.87594	0
0.6260	-3.33653	266.515	-13.3013	-1.72485	9.45372	-8.2732	1.88462	-85.6223	3.03596	0
0.6267	4.24649	410.569	-14.5196	-0.807376	8.52923	-7.05793	1.88462	-144.495	4.59994	0
0.6273	10.0854	391.018	-15.4384	1.94504	7.00828	-4.31577	3.10963	-197.627	7.9119	0
0.6280	10.0854	282.091	-22.4485	0.110097	4.26461	-6.45029	-1.46582	-220.794	3.95595	0
0.6287	8.87214	242.417	-25.8238	-2.01844	3.65325	-8.2732	-4.82673	-222.952	-0.321996	-0.322478
0.6293	9.17546	227.163	-18.7936	0.110097	4.26461	-5.53105	-2.38719	-202.513	2.43797	-0.322478
0.6300	9.7821	106.921	-13.0018	1.35786	3.34012	-4.92341	-2.38719	-121.614	3.35796	-0.322478
0.6307	9.17546	6.51696	-8.72776	0.110097	2.13231	-5.82708	-3.29809	-22.7593	2.11597	0
0.6313	8.56882	109.034	-6.29118	0.110097	2.43053	-4.6118	-0.251283	-16.3265	2.11597	0
0.6320	8.87214	252.765	-13.9205	-1.10097	2.13231	-5.53105	0.670088	-65.1837	0.321996	0
0.6327	9.47878	271.994	-25.8238	-2.64232	1.81917	-7.05793	0.366455	-71.8608	-1.51798	-0.322478
0.6333	10.3887	237.833	-27.3417	-1.10097	1.52095	-5.53105	2.80599	-35.2586	0.321996	-0.322478
0.6340	11.9053	162.459	-21.2302	1.02757	0.909585	-3.69256	4.63827	-21.5379	3.35796	0
0.6347	13.1186	53.4964	-16.3571	1.65145	0.909585	-3.08492	2.50236	-77.683	3.35796	0
0.6353	12.2087	-41.7157	-9.94605	0.733978	0.909585	-4.00417	0.0523506	-100.279	1.24198	-0.322478
0.6360	9.7821	-105.811	-6.89034	-0.183495	-0.313136	-5.21944	0.670088	-36.1543	-0.321996	0
0.6367	10.3887	-110.681	-13.3013	0.440387	-0.626272	-4.92341	2.18826	-2.60572	-0.321996	0
0.6373	11.9053	-46.9078	-23.9864	0.440387	-0.626272	-5.21944	1.88462	-13.8836	-0.919989	0
0.6380	12.512	59.6195	-24.9051	0.733978	-0.626272	-4.31577	1.88462	-1.38429	0.919989	0
0.6387	11.9053	149.031	-10.5652	2.86252	-0.626272	-2.47729	2.80599	44.3786	2.75997	0
0.6393	7.2797	154.832	3.17555	4.99105	-1.53586	-3.39653	1.88462	97.1852	1.24198	0.322478
0.6400	0	87.3702	9.88614	5.61493	-2.44544	-3.69256	0.670088	106.957	-0.321996	0.322478
0.6407	-6.44557	23.8836	16.5967	4.99105	-3.66816	-3.39653	0.670088	181.708	-1.24198	-0.322478
0.6413	-11.602	-52.3863	23.6269	4.07358	-4.89088	-3.69256	-0.251283	292.818	-2.43797	-0.322478
0.6420	-10.0854	-178.142	26.9822	6.23882	-5.50224	-0.950405	2.18826	167.092	0.597993	0
0.6427	-3.94317	-183.298	21.1903	8.66094	-5.20402	1.79175	5.54917	-25.8129	4.27795	0.322478
0.6433	0	6.19469	10.5053	6.23882	-5.20402	-1.55804	3.10963	-17.8736	0.597993	0
0.6440	4.24649	39.4598	5.01297	3.4864	-5.81538	-3.39653	0.366455	38.5972	-2.75997	-0.322478
0.6447	8.18966	-174.776	6.83042	3.4864	-6.41183	-2.47729	0.366455	31.2686	-1.51798	0
0.6453	8.87214	-330.396	13.2414	1.65145	-5.81538	-3.39653	-1.16218	-1.995	-3.03596	0.322478
0.6460	10.6921	-341.102	16.2971	1.35786	-5.20402	-2.47729	1.27736	-52.9694	-1.51798	0.322478
0.6467	11.2987	-131.736	4.09426	3.15611	-3.66816	-0.0311608	5.54917	-87.7394	3.35796	0
0.6473	4.54981	206.717	-32.2148	1.94504	-2.14722	-1.55804	2.18826	-85.0116	2.43797	-0.322478
0.6480	-3.03321	271.707	-61.8333	-0.477086	-2.14722	-3.39653	-2.38719	-74.9144	0.321996	0
0.6487	-10.9954	8.95187	-27.0421	-1.10097	-2.75858	-2.16568	-2.69082	-51.1372	1.24198	0.322478
0.6493	-21.0808	-213.842	24.8452	-2.93591	-2.75858	-2.16568	-3.60172	-33.4265	-1.24198	-0.322478
0.6500	-21.9908	-79.242	24.8452	-4.14698	-2.75858	-3.39653	-3.90536	-36.4801	-3.67996	0
0.6507	-9.47878	156.658	10.8049	-2.01844	-2.44544	-1.86965	-0.858551	-109.725	-0.321996	-0.322478
0.6513	1.81993	56.2536	14.1601	-0.477086	-0.924496	-1.86965	-2.38719	-235.451	-0.919989	-1.28991
0.6520	2.72989	-128.979	23.0077	-0.807376	0.298225	-3.39653	-4.21946	-232.113	-3.03596	-0.644955
0.6527	-2.72989	-141.511	31.5558	-1.39456	0.909585	-3.08492	0.0523506	-134.764	-1.24198	0.322478
0.6533	-8.87214	-111.612	46.2152	-2.93591	0.909585	-3.69256	3.10963	-22.7593	-1.24198	0
0.6540	-3.63985	64.4893	63.9104	-2.93591	0.298225	-4.31577	3.10963	144.78	-1.51798	0
0.6547	17.3651	315.965	54.1441	-0.183495	-0.626272	-1.86965	4.9419	220.794	1.51798	0.322478
0.6553	31.0904	328.784	8.66785	1.02757	-0.924496	-1.26201	4.63827	143.885	2.11597	0
0.6560	24.4173	178.608	-31.9153	-0.807376	-1.83408	-3.39653	-0.554917	45.3151	-1.24198	0
0.6567	14.0286	116.983	-49.6104	0.733978	-3.36994	-2.78889	-1.46582	-19.095	-1.24198	0
0.6573	6.67306	130.089	-59.6963	1.35786	-3.9813	-2.78889	-0.858551	-12.3772	-1.83998	0
0.6580	-2.12325	59.2972	-56.341	-0.183495	-4.89088	-2.78889	-3.60172	6.84001	-4.59994	0
0.6587	-10.9954	-1.11003	-22.1489	1.94504	-6.11361	0.872503	-1.46582	47.7579	-3.03596	-0.322478
0.6593	-11.602	46.8004	18.1346	4.40387	-7.02319	3.92626	2.18826	173.484	-0.321996	-0.322478
0.6600	-7.35553	62.9495	24.5456	2.86252	-6.72497	2.10336	0.366455	224.458	-2.75997	0
0.6607	-9.17546	38.5647	12.9419	1.35786	-6.11361	-0.342769	-2.38719	128.006	-5.79593	-0.322478
0.6613	-14.0286	12.9265	5.93168	1.02757	-6.41183	-0.950405	-4.21946	26.7086	-6.39392	-0.322478
0.6620	-12.512	-60.9443	5.93168	1.02757	-7.02319	-1.26201	-4.82673	33.7115	-7.03791	0
0.6627	-8.2655	-99.688	16.5967	2.56892	-6.72497	-0.0311608	-2.69082	74.9144	-5.19794	0
0.6633	-7.96217	-31.6538	22.7082	4.40387	-5.81538	2.71099	0.973722	76.1358	-1.24198	0
0.6640	-6.44557	-31.6538	5.01297	3.77999	-4.27952	0.872503	0.670088	82.243	0	0
0.6647	-1.21328	-193.683	-15.7379	1.02757	-1.83408	-2.78889	-4.21946	89.5716	-2.75997	0
0.6653	-1.81993	-252.586	1.65768	0.110097	-2.44544	-2.16568	-5.434	61.4787	-4.27795	0
0.6660	-3.94317	-101.228	38.8855	0.733978	-5.20402	-0.0311608	-3.60172	28.215	-3.95595	-0.322478
0.6667	-1.81993	20.5535	56.8802	1.35786	-5.20402	-0.0311608	-2.99446	29.1515	-3.67996	0
0.6673	-1.5166	16.8653	52.9258	3.4864	-2.44544	0.872503	-1.76945	44.7044	-1.24198	0
0.6680	-3.33653	-109.141	37.0481	4.69746	1.52095	-0.0311608	-1.46582	81.9173	1.51798	0
0.6687	0	-321.265	11.7236	1.35786	3.04189	-4.6118	-6.04126	140.831	-0.919989	0.322478
0.6693	14.6352	-404.875	-25.5042	-0.807376	2.43053	-5.82708	-8.18764	193.312	-2.75997	0.322478
0.6700	28.3605	-423.173	-43.519	1.02757	1.52095	-3.39653	-4.5231	246.403	0.321996	0
0.6707	25.9339	-456.151	-30.697	2.56892	1.20781	-1.86965	-2.08356	274.781	1.83998	0
0.6713	12.512	-219.321	-30.9965	3.4864	3.65325	-0.950405	-1.76945	182.034	1.83998	0
0.6720	2.12325	137.429	-50.2296	4.69746	7.32142	-0.638797	-0.251283	71.5351	4.87594	0
0.6727	0.606642	176.782	-58.7776	3.4864	7.91786	-3.69256	-2.38719	164.934	3.95595	0.322478
0.6733	7.2797	89.8052	-41.9811	2.27533	7.61964	-5.21944	-5.13036	256.175	1.24198	0.322478
0.6740	20.7775	153.292	-5.37247	3.15611	7.91786	-2.78889	-2.69082	88.3501	2.43797	-0.322478
0.6747	28.6638	258.566	15.9976	3.15611	7.00828	-2.16568	-2.08356	-254.058	1.51798	-0.322478
0.6753	27.4505	358.075	16.2971	3.77999	6.09869	-1.26201	-2.99446	-534.824	0.597993	0
0.6760	29.5738	387.365	30.9566	5.90853	5.1742	1.49572	-0.554917	-573.909	3.67996	0
0.6767	33.5928	308.947	32.1749	4.07358	3.04189	0.872503	-0.251283	-436.254	2.11597	0
0.6773	31.0904	201.524	-44.7373	1.35786	2.13231	-0.950405	-1.46582	-177.759	-2.11597	0
0.6780	18.2751	103.555	-123.467	1.94504	1.81917	1.18411	0.670088	96.2894	-1.83998	0
0.6787	-4.92897	29.3979	-103.635	2.56892	1.20781	1.49572	1.27736	214.076	-1.51798	-0.322478
0.6793	-22.2941	-24.3133	-52.9657	1.94504	1.20781	0.576475	-0.858551	241.843	-3.03596	0
0.6800	-24.114	11.9955	-35.8897	2.86252	1.20781	2.10336	-0.858551	124.342	-2.11597	0
0.6807	-21.3841	83.1092	-21.5498	3.4864	1.20781	2.10336	-1.46582	-244.286	-2.11597	-0.644955
0.6813	-24.114	11.1003	-5.67205	3.15611	2.43053	-0.0311608	-6.04126	-493.336	-5.19794	-1.28991
0.6820	-25.3273	-135.997	-4.45376	3.4864	3.95148	1.49572	-5.434	-417.933	-4.27795	-0.322478
0.6827	-16.1518	-214.451	-23.9864	2.27533	3.04189	3.92626	-1.16218	-229.67	-1.51798	0.322478
0.6833	-8.56882	-216.564	-46.5747	-0.183495	3.04189	1.49572	-1.76945	-73.693	-2.11597	0
0.6840	-7.65885	-211.085	-43.8186	-1.10097	3.95148	-0.0311608	-2.99446	-27.3193	-3.95595	0
0.6847	-9.47878	-252.908	-51.7474	-1.10097	4.26461	0.264867	-2.08356	-17.5479	-7.9579	0
0.6853	-13.7253	-150.642	-66.7065	-1.39456	5.1742	-0.342769	-1.46582	29.4365	-12.1899	0
0.6860	-15.5452	173.451	-12.0831	1.02757	7.00828	-0.0311608	0.0523506	58.4251	-11.2699	0
0.6867	-15.5452	352.883	106.331	3.77999	7.91786	2.10336	2.50236	50.8115	-7.31391	-0.322478
0.6873	-16.1518	243.634	179.269	4.99105	7.61964	3.0226	2.18826	27.93	-6.11793	0
0.6880	-18.0476	94.1021	131.655	5.32134	7.00828	2.10336	-0.554917	-0.773573	-7.9579	0.322478
0.6887	-17.1376	4.08205	61.1543	6.53241	5.78556	3.63024	-1.46582	-19.9907	-7.9579	0
0.6893	-10.0854	-37.4546	54.7432	8.95454	4.87597	6.06078	-1.46582	-10.83	-7.03791	0
0.6900	1.21328	-29.5054	48.9514	13.2483	3.34012	7.29163	-1.16218	-27.645	-6.11793	0.322478
0.6907	10.9954	-102.732	31.8553	18.4229	1.20781	10.0338	0.973722	-56.9187	-3.03596	0
0.6913	12.512	-240.698	40.4034	21.4689	-0.0149112	10.953	-0.251283	-39.2079	-1.83998	0.322478
0.6920	13.1186	-194.9	59.3368	21.4689	-0.626272	11.5607	-1.76945	-26.4236	-1.24198	0.322478
0.6927	26.5406	-57.9007	73.0576	19.6339	-1.53586	13.6952	0.670088	-33.1415	3.03596	0
0.6933	49.138	-106.706	49.8701	14.753	-3.0568	12.7759	0.0523506	-16.6522	5.19794	0
0.6940	58.6168	-254.412	-19.7124	9.28483	-3.66816	10.6414	-2.38719	22.4336	5.19794	0
0.6947	44.8157	-259.604	-124.086	6.53241	-3.0568	10.953	-3.60172	52.9287	8.5559	-0.322478
0.6953	29.8771	-148.816	-222.648	4.40387	-0.924496	10.6414	-3.90536	84.0751	14.3518	0
0.6960	18.8817	23.2749	-210.445	2.56892	3.95148	8.81852	-1.76945	229.018	19.2278	0.322478
0.6967	-1.81993	203.959	-139.944	2.27533	8.231	7.89927	0.670088	355.07	21.3437	-0.322478
0.6973	-32.3795	112.4	-110.645	3.4864	9.14059	8.81852	0.0523506	247.34	20.7457	-0.322478
0.6980	-44.2849	31.5464	-88.3761	6.53241	6.39692	10.3454	-2.38719	106.02	17.1118	0
0.6987	-24.114	209.438	-66.7065	9.87201	2.43053	13.3992	-1.46582	-78.2937	13.1098	0
0.6993	-7.96217	254.627	-41.382	11.707	-0.924496	16.7489	0.670088	-323.638	10.6719	0.322478
0.7000	-7.05221	177.713	36.1293	12.6244	-3.9813	17.9642	1.27736	-358.123	7.9119	0.322478
0.7007	0.606642	102.947	112.422	12.6244	-6.72497	19.4911	2.18826	-271.158	6.71592	0
0.7013	20.7775	27.8582	134.412	10.4959	-8.85727	19.1951	0.366455	-169.86	3.95595	0
0.7020	47.6214	6.19469	202.157	8.36735	-10.08	17.3566	-2.69082	-2.89072	0	0
0.7027	71.1288	-111.898	268.384	9.28483	-9.78177	17.3566	-1.46582	74.5887	1.24198	0.322478
0.7033	71.7354	-270.275	135.31	9.28483	-6.11361	14.6144	0.670088	9.89359	4.87594	0
0.7040	40.2659	-313.029	-97.5233	6.23882	-0.313136	6.98003	-0.554917	-36.4801	3.35796	0
0.7047	-1.5166	-526.943	-175.055	3.15611	3.34012	1.49572	-1.46582	56.3079	0.597993	0
0.7053	-27.7539	-606.292	-127.441	1.35786	5.48733	-0.0311608	0.0523506	301.042	-0.321996	0
0.7060	-47.6214	-50.5602	-114.619	-0.807376	6.71005	-3.08492	-1.16218	525.663	-3.67996	0
0.7067	-63.1666	395.315	-126.523	-2.01844	7.32142	-4.92341	-2.69082	428.315	-6.39392	0
0.7073	-57.4035	358.075	-120.731	-1.72485	7.00828	-3.08492	-1.76945	111.842	-6.11793	0
0.7080	-43.0716	315.965	-109.746	-4.14698	6.09869	-3.39653	-0.858551	-77.3573	-8.5559	0.322478
0.7087	-32.6828	308.947	-95.0867	-6.27552	4.26461	-3.69256	0.366455	-196.406	-11.9139	0
0.7093	-21.6874	189.923	-93.2493	-7.52328	2.43053	-2.78889	2.50236	-264.155	-13.4318	0
0.7100	-13.7253	-0.214845	-128.66	-9.65182	0.909585	-4.6118	0.670088	-126.825	-17.9858	0
0.7107	-2.72989	-89.6261	-164.37	-11.1565	-0.313136	-5.82708	-2.08356	75.5251	-23.5057	-1.28991
0.7113	17.6684	-164.392	-151.847	-11.7804	-2.44544	-2.78889	-0.251283	150.277	-24.1037	-1.28991
0.7120	26.5406	-379.559	-147.573	-14.5328	-5.20402	-3.08492	0.670088	171.326	-22.9077	0
0.7127	21.9908	-542.197	-164.969	-15.4502	-5.50224	-5.21944	0.670088	169.82	-20.1478	0
0.7133	21.6874	-671.605	-90.8127	-12.4042	-0.924496	-6.45029	1.58099	156.384	-13.1098	-0.322478
0.7140	8.18966	-681.345	-10.5652	-8.44075	7.00828	-11.9346	-0.858551	161.27	-4.27795	0.322478
0.7147	-10.6921	-269.666	-73.1175	-4.14698	14.3297	-17.4345	-4.82673	107.852	4.87594	0.322478
0.7153	-13.1186	181.687	-60.595	0.110097	16.4769	-15.9076	-3.60172	99.0173	14.9498	0.322478
0.7160	-18.0476	273.247	137.148	-0.807376	15.8656	-13.7731	-1.76945	194.859	16.7898	0
0.7167	-28.9671	299.78	290.652	-3.85339	16.1638	-13.1655	-2.38719	377.015	10.0739	0
0.7173	-22.5974	362.658	304.992	-0.807376	15.2542	-9.80008	-0.858551	554.937	5.79593	0
0.7180	3.63985	332.114	265.628	3.4864	12.8087	-6.74632	-0.858551	380.068	3.03596	0.322478
0.7187	32.607	398.967	232.973	2.86252	10.9747	-6.74632	-4.5231	-92.6251	-1.83998	0
0.7193	57.9343	513.085	147.214	4.69746	10.0651	-3.08492	-4.21946	-356.617	-1.24198	0
0.7200	68.323	460.305	50.7888	9.87201	10.0651	1.49572	-1.16218	-325.471	1.24198	0
0.7207	57.0243	358.684	55.0628	12.9547	9.14059	3.31863	-1.16218	-335.242	2.75997	0
0.7213	47.6214	284.204	74.895	14.753	8.84236	6.37239	-0.251283	-428.641	8.83189	0
0.7220	46.4081	225.301	50.4892	15.0833	8.84236	9.42615	3.7169	-489.061	12.8338	0
0.7227	38.1426	199.985	23.3273	11.1198	7.32142	8.81852	3.7169	-516.828	8.5559	0
0.7233	24.4173	187.488	17.5154	8.36735	5.48733	7.29163	1.27736	-380.394	8.2339	0
0.7240	11.602	234.467	24.8452	10.7895	2.74367	9.11454	0.670088	-186.92	12.1899	-0.322478
0.7247	5.45978	214.952	19.6524	10.7895	-0.313136	9.42615	-2.08356	-89.2866	8.2339	0
0.7253	14.3319	-70.3975	19.0533	8.95454	-4.27952	9.73776	-4.21946	62.4151	3.35796	0.322478
0.7260	37.8393	-440.897	37.6672	7.74347	-7.33633	11.5607	-2.69082	194.533	2.43797	0
0.7267	61.0433	-681.345	56.5807	4.07358	-8.55905	10.953	-2.99446	29.1515	1.24198	0
0.7273	72.0387	-803.126	38.2663	-2.31203	-10.08	8.50691	-3.60172	-248.887	0.321996	0
0.7280	70.4463	-898.338	-40.1637	-8.11046	-11.9141	7.58766	0.0523506	-231.502	0.321996	-0.967433
0.7287	58.9201	-941.056	-148.192	-12.0739	-10.6914	7.29163	2.80599	-30.9836	0	-0.644955
0.7293	34.1994	-628.887	-229.059	-13.3217	-6.41183	4.23787	0.0523506	63.3108	-1.83998	0.322478
0.7300	9.17546	-183.298	-255.622	-11.7804	-4.27952	2.10336	-2.08356	79.8001	-2.43797	-0.322478
0.7307	3.94317	-64.919	-225.704	-11.4868	-3.36994	2.10336	-0.858551	231.461	-3.03596	0
0.7313	-4.62564	76.6996	-113.401	-13.6153	-0.313136	-0.638797	-1.76945	269.61	-5.19794	0
0.7320	-21.9908	349.23	17.835	-13.3217	6.39692	-3.39653	0.366455	92.2994	-1.51798	-0.322478
0.7327	-24.4173	509.147	34.3119	-12.6978	11.2878	-5.21944	3.7169	137.777	1.51798	0
0.7333	-21.3841	615.316	-36.8084	-15.4502	10.9747	-8.58481	1.58099	264.114	-5.19794	0
0.7340	-24.4173	496.936	-86.2391	-17.5788	8.84236	-10.1117	1.58099	84.9708	-10.0739	0
0.7347	-36.626	253.087	-78.6098	-18.7898	7.32142	-10.4077	3.7169	-257.111	-11.9139	0
0.7353	-43.3749	268.664	-3.53504	-18.7898	3.34012	-12.5422	0.973722	-445.741	-15.5478	0
0.7360	-18.3509	289.396	44.0782	-12.4042	-1.53586	-11.0154	-1.76945	-313.256	-14.0298	-0.322478
0.7367	4.85313	44.6519	45.8956	-4.14698	-5.20402	-8.2732	-2.99446	-149.096	-10.6719	-0.322478
0.7373	-7.05221	-228.488	145.995	-2.31203	-7.33633	-9.19245	-3.60172	-261.101	-13.4318	-0.322478
0.7380	-22.9007	-346.294	243.359	-4.14698	-7.94769	-10.1117	-1.76945	-319.689	-14.6278	-0.322478
0.7387	-21.9908	-383.82	212.522	-7.19299	-5.20402	-12.2462	-0.554917	-191.195	-12.5118	-0.322478
0.7393	-19.5642	-393.274	130.437	-10.5693	-0.313136	-17.4345	-2.99446	42.8722	-10.3959	0
0.7400	-14.3319	-30.1141	33.3932	-11.7804	3.65325	-19.569	-2.69082	347.741	-4.87594	0
0.7407	-0.909963	495.11	-73.4171	-12.0739	6.71005	-19.865	-2.69082	537.877	0	-0.967433
0.7413	8.18966	418.482	-107.909	-13.6153	10.3633	-21.7035	-4.82673	689.213	-2.43797	-1.28991
0.7420	12.2087	-19.7299	-20.3115	-14.5328	13.4201	-22.6228	-3.60172	709.692	-4.87594	-0.644955
0.7427	17.6684	-141.189	70.621	-13.6153	13.7183	-20.7843	-0.554917	410.279	-3.95595	0
0.7433	12.2087	124.288	78.8694	-12.0739	14.0315	-18.3537	0.670088	85.2966	-4.87594	-0.322478
0.7440	2.72989	361.727	38.2663	-6.8994	14.3297	-13.4615	2.50236	-88.0651	-5.19794	0
0.7447	-2.42657	385.826	-9.02734	1.02757	13.4201	-5.21944	4.63827	-310.813	-2.11597	0
0.7453	-10.3887	329.071	-19.0932	6.53241	11.8992	-0.342769	4.33463	-583.966	0	-0.322478
0.7460	-8.87214	245.138	-66.4069	8.36735	10.9747	1.79175	4.33463	-514.1	0.597993	0
0.7467	-1.21328	282.7	-93.5688	9.28483	10.3633	4.84551	7.07781	-189.077	-1.51798	0
0.7473	-8.87214	411.786	72.4584	6.53241	8.52923	6.06078	8.29234	12.9472	-6.39392	0
0.7480	-9.7821	421.561	174.995	1.02757	4.56284	6.684	5.54917	105.124	-8.2339	-0.322478
0.7487	3.33653	326.958	52.6062	1.65145	-0.313136	9.42615	3.7169	-12.6622	-5.19794	-0.322478
0.7493	-0.909963	227.163	-12.6822	5.61493	-4.59266	10.0338	0.670088	-178.37	0.597993	0
0.7500	-15.5452	136.498	44.3778	5.61493	-6.72497	7.89927	-3.60172	-159.152	4.27795	0.322478
0.7507	-6.74889	50.4527	92.8898	5.32134	-8.24591	8.21088	-0.858551	-129.268	7.63591	0
0.7513	24.114	36.7027	109.387	6.23882	-9.46863	10.3454	4.02053	-239.115	10.0739	-0.322478
0.7520	39.3559	34.2678	124.945	8.95454	-9.17041	11.8723	4.33463	-396.273	13.7538	-0.322478
0.7527	24.4173	-101.514	107.549	15.0833	-7.94769	15.8297	6.15644	-345.624	21.0677	0.322478
0.7533	-6.14225	-190.925	36.1293	19.0467	-5.20402	17.0606	6.15644	-115.507	23.5057	0
0.7540	-35.1094	-70.7198	59.0173	18.7531	-3.0568	14.9105	1.88462	124.342	19.8258	0
0.7547	-42.7682	-116.482	110.285	19.0467	-3.66816	15.2221	0.973722	348.637	17.1118	0
0.7553	-33.8961	-413.72	59.3368	19.0467	-5.20402	18.5874	4.02053	459.136	14.3518	0
0.7560	-33.8961	-346.581	68.1844	19.3403	-5.20402	21.3296	7.07781	346.805	12.5118	-0.322478
0.7567	-43.0716	110.86	161.254	20.2578	-4.27952	21.018	8.60645	157.931	12.1899	0
0.7573	-37.2326	204.855	187.198	19.9642	-3.0568	18.2758	4.63827	12.3364	10.6719	0
0.7580	-11.2987	-121.674	121.29	17.2118	-2.75858	14.6144	-2.69082	-93.2359	6.11793	-0.322478
0.7587	15.8485	-227.879	38.8855	14.4594	-3.36994	14.0068	-3.90536	-162.206	5.19794	-0.322478
0.7593	31.0904	-106.706	-14.2201	14.753	-3.36994	15.5337	1.27736	-216.845	11.2699	0
0.7600	34.8061	-245.89	-67.9248	13.5419	-2.44544	13.6952	2.50236	-200.07	15.8698	0
0.7607	30.7871	-621.546	-100.879	10.7895	-1.53586	10.6414	-0.251283	-37.3758	17.9858	-0.322478
0.7613	17.0618	-763.451	-66.4069	7.15629	0.298225	7.58766	-1.46582	157.605	19.5498	-0.322478
0.7620	11.2987	-650.837	-38.9454	0.440387	0.909585	3.63024	-3.29809	149.992	16.4678	0
0.7627	23.5074	-615.459	-26.423	-6.27552	-0.626272	0.264867	-4.21946	75.8101	12.5118	-0.322478
0.7633	32.9103	-519.316	-3.83462	-9.02793	-1.83408	0.264867	-0.554917	146.612	11.9139	-0.322478
0.7640	28.9671	-202.849	-28.2604	-9.94541	-1.83408	-0.638797	0.973722	222.911	10.0739	0
0.7647	18.2751	233.25	-53.2853	-11.7804	-1.53586	-3.08492	-2.99446	288.828	4.87594	0
0.7653	19.7917	343.716	-36.4888	-12.6978	-1.83408	-4.92341	-3.60172	388.618	2.11597	0
0.7660	24.114	-39.2808	13.8606	-13.3217	-1.83408	-8.58481	-2.08356	468.296	2.11597	0
0.7667	11.2987	-248.611	67.5653	-15.7438	-1.23763	-13.4615	-3.60172	375.793	-0.321996	0
0.7673	-6.44557	-329.178	38.5859	-16.9549	-2.14722	-14.9884	-3.29809	2.28	-3.03596	-0.322478
0.7680	-10.0854	-281.59	-51.4479	-18.2027	-3.0568	-14.3807	1.88462	-351.406	-3.35796	0
0.7687	5.15646	85.8663	-75.8536	-22.4597	-2.44544	-17.1229	3.10963	-551.924	-7.9579	0
0.7693	29.5738	236.902	36.7485	-24.5883	-1.23763	-21.3919	-0.251283	-657.211	-14.0298	0
0.7700	46.7114	259.819	174.695	-23.3772	-1.53586	-22.3112	-0.251283	-537.877	-14.6278	0
0.7707	44.8157	447.164	186.578	-27.9646	-2.44544	-24.7573	-0.251283	-231.787	-17.9858	-0.322478
0.7713	36.9293	641.885	46.5148	-35.5979	-0.313136	-29.3379	-3.60172	19.9907	-25.3457	-1.28991
0.7720	30.7871	671.175	-162.832	-34.6805	3.04189	-27.2034	0.0523506	153.656	-23.7817	-0.967433
0.7727	4.54981	498.154	-223.567	-32.8455	3.04189	-25.9726	4.02053	235.125	-21.9877	0.322478
0.7733	-29.9529	330.897	-104.853	-36.1851	2.13231	-29.3379	-0.554917	101.745	-27.7837	0.322478
0.7740	-45.8015	212.804	-38.3263	-37.1026	1.52095	-29.9456	-2.99446	89.5716	-30.8196	-0.322478
0.7747	-58.3134	125.541	-67.9248	-36.5154	-0.0149112	-28.1071	-2.99446	429.536	-31.4176	0
0.7753	-66.8823	106.599	-84.7212	-35.8915	-1.83408	-26.2842	-4.5231	238.179	-32.9816	0
0.7760	-51.2612	87.3702	-100.279	-30.0931	-3.0568	-21.3919	-0.554917	-466.464	-28.0597	-0.322478
0.7767	-33.2895	85.2576	-95.0867	-24.5883	-3.36994	-16.2036	4.63827	-800.322	-22.2637	-0.322478
0.7773	-33.8961	102.947	-38.9454	-25.2122	-2.14722	-16.5152	2.18826	-685.263	-23.5057	-0.322478
0.7780	-34.1994	125.219	-19.4128	-25.836	-0.313136	-18.3537	-1.16218	-377.666	-24.4257	0
0.7787	-33.2895	189.923	-56.341	-24.5883	-0.0149112	-18.0421	-1.46582	-97.8366	-22.5857	0.322478
0.7793	-44.5882	257.957	-62.732	-23.0836	-1.23763	-15.3	0.366455	54.7608	-21.0677	0
0.7800	-46.7114	258.566	-8.10863	-19.1201	-3.0568	-10.4077	3.10963	94.4573	-17.9858	-0.322478
0.7807	-23.2041	130.411	26.363	-14.2392	-5.81538	-5.53105	4.33463	77.3573	-14.0298	0
0.7813	-2.12325	-87.4777	24.5456	-15.12	-8.85727	-5.21944	0.973722	33.1008	-16.7898	0.322478
0.7820	20.7775	-296.522	38.2663	-17.2852	-11.6009	-5.53105	-1.16218	-42.5872	-20.4697	0
0.7827	42.0858	-465.282	6.23126	-15.4502	-13.1368	-4.00417	-0.251283	-7.77644	-17.7098	-0.322478
0.7833	19.4884	-528.483	-81.0464	-11.4868	-11.9141	-3.08492	-0.251283	273.885	-13.1098	0.322478
0.7840	-22.5974	-421.955	-105.772	-5.68833	-8.85727	-1.26201	1.58099	795.721	-6.39392	0.322478
0.7847	-52.7778	-170.479	-52.6662	-0.183495	-2.14722	-0.0311608	3.10963	1143.34	0.321996	-0.322478
0.7853	-75.6786	30.9377	-8.10863	2.86252	4.87597	-1.26201	2.80599	806.714	4.59994	0
0.7860	-75.3752	5.90823	42.5404	3.15611	7.61964	-3.39653	0.973722	274.781	5.79593	0
0.7867	-47.6214	-80.7817	131.655	3.4864	5.1742	-2.78889	-0.251283	175.601	5.79593	-0.322478
0.7873	0.606642	-88.4087	161.573	5.90853	0.596449	0.576475	-0.554917	263.218	6.71592	-0.322478
0.7880	51.2612	-129.587	100.219	8.95454	-4.89088	5.15712	-0.858551	208.58	7.31391	0
0.7887	88.1906	-18.5125	20.5712	12.0372	-8.55905	10.953	2.50236	-22.1486	10.0739	-0.322478
0.7893	95.1669	293.048	-81.0464	14.1658	-8.55905	13.0875	6.15644	-291.596	11.9139	0
0.7900	46.4081	350.126	-186.638	12.9547	-7.02319	10.0338	3.41326	-420.091	8.83189	0
0.7907	-21.0808	217.387	-150.329	12.6244	-6.41183	8.81852	0.670088	-70.3544	7.9119	0
0.7913	-34.8061	287.283	-6.59076	15.3768	-5.81538	11.5607	2.50236	601.636	11.9139	0
0.7920	-4.62564	272.316	54.7432	16.0007	-3.36994	11.8723	2.18826	740.513	13.7538	0
0.7927	14.6352	-13.6426	41.0225	15.6704	-0.924496	10.3454	0.670088	62.0894	13.7538	-0.322478
0.7933	20.095	-40.7847	38.8855	16.5879	-0.313136	10.3454	2.80599	-851.622	14.6278	0
0.7940	21.9908	137.107	56.5807	14.753	-2.14722	10.953	4.33463	-1334.09	13.1098	0
0.7947	13.1186	35.1988	19.6524	10.4959	-3.9813	10.3454	4.33463	-1085.97	8.83189	0
0.7953	4.54981	-143.946	-49.93	10.7895	-4.59266	11.5607	5.8528	-331.903	9.75188	-0.322478
0.7960	-3.03321	-182.69	-18.1945	13.5419	-4.89088	14.6144	7.38144	178.044	14.3518	0
0.7967	-19.2609	-192.465	60.8547	13.2483	-5.20402	14.0068	4.9419	124.667	14.0298	0
0.7973	-18.3509	-168.044	62.9917	14.1658	-6.41183	13.3992	2.18826	40.7143	14.0298	0
0.7980	9.17546	-126.544	12.6423	15.0833	-7.94769	14.9105	2.18826	206.747	16.1918	0
0.7987	27.7539	-85.0428	8.36827	12.3308	-9.46863	13.0875	0.670088	394.441	13.1098	0
0.7993	30.4838	-61.8395	18.7337	11.4134	-10.9896	10.3454	0.670088	421.882	11.5919	-0.322478
0.8000	18.2751	-72.8324	-39.8441	11.4134	-12.2123	9.11454	1.58099	53.5394	11.5919	0.322478
0.8007	-14.9386	63.5583	-97.5233	7.44988	-12.8237	5.76475	-1.16218	-575.742	6.39392	-0.644955
0.8013	-32.9861	261.645	-61.5137	5.61493	-13.435	4.84551	-2.38719	-764.615	3.35796	-1.28991
0.8020	-28.9671	230.493	34.3119	5.90853	-14.0464	6.684	1.88462	-517.724	5.19794	-0.322478
0.8027	-25.3273	141.081	70.9206	4.07358	-14.0464	4.54948	2.18826	-264.155	3.95595	0.322478
0.8033	-18.6542	203.959	41.3221	3.4864	-13.7482	2.10336	0.670088	96.5744	3.03596	0
0.8040	-20.7775	228.38	40.1038	5.61493	-12.8237	2.71099	2.18826	312.93	6.11793	-0.322478
0.8047	-31.1662	75.7686	55.9815	5.32134	-10.9896	0.872503	0.366455	181.423	4.59994	0
0.8053	-32.9861	-76.4848	58.4181	2.56892	-9.78177	-2.47729	-3.60172	23.94	0.919989	0
0.8060	-20.1708	-201.31	39.1851	2.56892	-9.78177	-0.950405	-2.08356	3.17572	2.11597	0
0.8067	-1.5166	-359.077	-55.4223	3.4864	-9.78177	0.576475	1.27736	215.908	3.67996	-0.322478
0.8073	-4.32232	-356.642	-168.644	2.56892	-8.85727	-0.950405	1.58099	436.865	3.03596	0
0.8080	-20.1708	-207.719	-173.816	3.15611	-7.02319	0.264867	1.58099	224.132	4.59994	0
0.8087	-37.536	37.9559	-64.869	3.77999	-5.20402	1.79175	3.10963	-120.718	6.71592	0
0.8093	-63.7732	310.164	47.4335	2.27533	-4.27952	-0.638797	1.58099	-128.332	4.87594	-0.322478
0.8100	-75.0719	381.564	82.2247	3.15611	-4.59266	-1.86965	0.973722	-112.779	4.59994	0
0.8107	-52.4745	326.636	44.6774	5.32134	-5.20402	0.576475	3.41326	-146.938	7.9119	0.322478
0.8113	1.21328	243.312	-12.0831	3.77999	-5.81538	0.872503	2.18826	-53.8651	7.03791	0
0.8120	61.0433	140.186	-0.479328	3.15611	-7.33633	0.576475	0.973722	-92.0144	5.79593	0
0.8127	79.0151	25.7456	34.3119	4.40387	-8.24591	0.576475	2.50236	-169.25	7.31391	0
0.8133	52.1712	-106.42	7.14997	3.77999	-9.17041	-0.638797	1.58099	-24.8765	5.79593	0
0.8140	25.9339	-164.07	-13.3013	2.56892	-10.3931	-1.86965	-0.554917	210.412	3.35796	0
0.8147	42.0858	-181.186	-67.0061	3.4864	-11.6009	0.872503	0.973722	195.144	3.95595	0
0.8153	86.674	-149.747	-114.919	3.77999	-12.8237	3.92626	3.7169	-0.162857	5.19794	0
0.8160	111.395	4.69078	-22.7681	1.94504	-13.1368	2.39938	4.33463	53.5394	4.27795	0
0.8167	102.522	142.621	11.1044	0.440387	-11.6009	-0.638797	2.50236	112.738	1.83998	0
0.8173	74.4653	213.735	-55.4223	0.733978	-10.3931	-1.86965	1.58099	7.77644	1.51798	0
0.8180	43.9057	203.028	-34.6714	0.733978	-10.3931	-1.86965	-0.251283	118.234	1.24198	0
0.8187	-8.56882	77.5948	36.4489	0.110097	-8.55905	-2.47729	-2.08356	288.828	1.24198	0
0.8193	-76.5885	12.3178	66.6466	2.27533	-6.72497	-0.0311608	2.50236	337.685	4.87594	0
0.8200	-91.2238	70.8988	46.2152	3.15611	-7.33633	1.49572	5.8528	261.671	6.39392	0
0.8207	-45.8015	101.407	-17.2758	1.02757	-8.85727	-0.638797	3.10963	-206.462	2.75997	-0.322478
0.8213	-9.7821	30.9377	-53.2853	0.733978	-10.08	-0.638797	1.27736	-562.591	0.919989	0.322478
0.8220	-17.1376	-51.1689	-1.09846	1.02757	-10.3931	-0.342769	0.973722	-146.938	0.597993	0.322478
0.8227	-26.8439	-61.2308	-13.0018	0.440387	-10.6914	-1.55804	0.366455	458.81	-1.51798	0
0.8233	0	1.32488	-107.909	3.77999	-10.9896	2.10336	4.9419	564.423	3.03596	0
0.8240	21.0808	39.7821	-138.426	7.74347	-10.9896	6.06078	7.98871	186.92	8.5559	0
0.8247	0	-40.4983	-57.5593	5.32134	-10.9896	3.31863	2.80599	-298.64	3.95595	0
0.8253	-22.2941	-158.305	87.3975	3.4864	-11.3027	2.10336	1.27736	-254.058	1.24198	0
0.8260	-25.024	-218.426	138.066	3.77999	-10.9896	3.0226	5.8528	354.133	3.35796	0
0.8267	-24.114	-197.98	86.4987	0.440387	-10.08	-0.0311608	4.9419	503.677	0	0
0.8273	-7.35553	-89.9126	50.4892	0.733978	-9.78177	1.18411	6.77417	-114	-0.597993	-0.322478
0.8280	27.4505	-32.549	33.9923	6.23882	-10.08	6.06078	13.4855	-518.049	5.19794	-0.322478
0.8287	52.1712	-143.624	2.57639	7.15629	-9.78177	4.84551	7.98871	-351.406	3.35796	-0.322478
0.8293	56.721	-263.579	-15.4384	6.826	-9.78177	2.10336	-1.76945	-60.583	1.83998	0
0.8300	48.5313	-229.383	-3.53504	7.74347	-10.3931	2.39938	-3.60172	154.267	5.47393	0
0.8307	45.4223	-113.116	-9.02734	4.69746	-9.46863	0.872503	-4.82673	131.996	3.35796	0
0.8313	60.4367	-97.8618	-56.9402	3.15611	-9.17041	0.576475	-3.60172	-90.1823	1.24198	0
0.8320	70.4463	-127.761	-91.4318	5.61493	-11.3027	3.31863	0.670088	-92.9509	6.11793	0
0.8327	52.1712	15.3614	-58.1585	4.07358	-12.5254	0.576475	-3.60172	25.4872	5.47393	0
0.8333	21.9908	149.926	-24.5855	2.56892	-12.2123	-3.39653	-8.79491	-183.255	2.11597	0
0.8340	-20.7775	75.4822	-19.7124	4.40387	-12.2123	-1.55804	-5.434	-497.611	4.59994	0
0.8347	-71.7354	21.1622	-2.61633	3.15611	-13.1368	-1.55804	-4.82673	-471.35	3.67996	0
0.8353	-78.4085	64.4893	26.6826	2.27533	-14.0464	-1.26201	-5.73763	-198.849	2.11597	-1.28991
0.8360	-57.1002	102.016	106.63	6.53241	-14.3595	3.0226	0.0523506	28.215	6.71592	-1.28991
0.8367	-47.3181	161.241	162.792	6.826	-14.0464	2.39938	0.973722	124.342	6.71592	-0.322478
0.8373	-31.7729	225.945	87.717	3.15611	-14.0464	-1.86965	-4.82673	73.0823	1.51798	0
0.8380	-13.422	214.344	-23.9864	4.07358	-14.6577	-0.0311608	-3.60172	-73.408	2.75997	0.322478
0.8387	0	140.473	-100.579	4.40387	-14.3595	0.872503	-2.08356	-8.38716	3.67996	0.322478
0.8393	16.7585	54.1051	-184.501	1.94504	-13.435	-1.86965	-4.82673	200.355	0.919989	0
0.8400	22.9007	-54.5348	-215.937	4.40387	-13.7482	-0.0311608	-2.08356	217.415	3.35796	-0.322478
0.8407	8.18966	-109.463	-106.99	8.36735	-14.0464	3.63024	2.50236	26.7086	7.31391	-0.322478
0.8413	-8.56882	-52.9951	26.9822	8.36735	-14.3595	4.23787	2.18826	-259.269	7.03791	0
0.8420	-10.6921	3.43752	38.5859	7.74347	-14.3595	4.23787	1.27736	-371.885	6.39392	0.322478
0.8427	0	16.5789	-11.7835	7.44988	-14.0464	3.63024	1.58099	-320.91	6.11793	0
0.8433	3.94317	8.6296	-17.5754	6.23882	-13.1368	2.39938	1.27736	-248.276	4.27795	-0.322478
0.8440	1.21328	-9.05929	19.3529	6.53241	-12.8237	4.54948	3.10963	-99.343	5.19794	-0.322478
0.8447	3.03321	-12.1029	38.5859	8.66094	-12.5254	6.684	5.8528	-58.4658	7.63591	-0.322478
0.8453	-10.9954	-25.5307	12.0231	8.66094	-12.8237	5.15712	4.9419	-190.91	6.71592	-0.322478
0.8460	-35.1094	-59.1181	-2.93588	6.826	-13.1368	3.92626	4.02053	-230.28	5.47393	0
0.8467	-25.9339	-114.942	2.57639	6.23882	-14.0464	4.23787	4.9419	-50.8115	6.11793	0
0.8473	14.3319	-144.268	9.28698	5.61493	-13.7482	3.92626	4.02053	190.869	5.47393	-0.322478
0.8480	43.9057	-85.6515	21.7894	5.32134	-12.2123	3.63024	2.80599	275.392	4.87594	0
0.8487	33.2895	-19.1212	36.7485	6.53241	-11.6009	5.76475	5.8528	185.372	6.71592	0
0.8493	-10.0854	-3.58075	80.3873	7.44988	-11.3027	6.06078	7.07781	82.528	8.2339	0
0.8500	-39.9625	-33.1577	123.407	6.23882	-10.6914	1.79175	1.27736	59.6465	6.11793	0
0.8507	-27.7539	-96.0357	97.7829	5.61493	-9.46863	-0.342769	-4.21946	73.0823	3.95595	-0.322478
0.8513	-3.33653	-124.431	51.7075	5.32134	-8.85727	-0.342769	-6.659	81.6323	2.43797	-0.322478
0.8520	1.21328	-42.3244	25.1447	3.4864	-9.78177	-0.950405	-7.87354	78.253	1.24198	0
0.8527	11.602	106.599	-30.0778	3.15611	-9.78177	0.872503	-3.29809	58.7508	2.75997	0.322478
0.8533	35.716	155.727	-74.6354	4.40387	-9.78177	3.63024	1.58099	118.845	4.87594	0
0.8540	41.1758	22.6661	-70.0618	1.94504	-9.78177	0.872503	-1.46582	151.824	1.83998	0
0.8547	37.2326	-183.012	-87.757	-0.477086	-8.55905	-2.47729	-6.35537	36.7651	-2.11597	0
0.8553	46.7114	-269.988	-126.223	0.440387	-6.11361	-1.26201	-5.73763	27.6043	-1.24198	0
0.8560	53.3845	-212.303	-104.853	1.35786	-4.89088	-0.0311608	-4.21946	73.0823	1.24198	0
0.8567	50.6546	-149.747	-46.2551	1.65145	-4.59266	0.264867	-3.29809	-41.6508	2.43797	0
0.8573	43.2991	-116.482	-23.6868	2.56892	-4.27952	1.49572	-1.46582	-166.196	3.03596	-0.322478
0.8580	16.1518	-35.3062	-4.75333	0.440387	-2.75858	-1.26201	-4.82673	-108.789	0	0
0.8587	-23.8107	51.9925	34.3119	-2.31203	-2.14722	-4.31577	-10.0094	33.9965	-3.67996	0
0.8593	-40.2659	70.2901	51.7075	-1.72485	-2.75858	-2.47729	-9.09854	78.5787	-1.83998	0.322478
0.8600	-19.5642	71.5075	23.0077	-1.39456	-3.66816	-1.26201	-7.5699	59.9722	-0.321996	0
0.8607	4.24649	95.3195	-2.01717	-2.93591	-3.9813	-1.55804	-7.5699	47.1472	-2.75997	-1.28991
0.8613	8.18966	134.063	37.0481	-2.93591	-2.75858	0.872503	-3.60172	-15.105	-3.03596	-1.28991
0.8620	9.17546	131.951	27.6013	-2.93591	-2.44544	1.79175	-0.251283	-81.3473	-2.75997	0
0.8627	16.1518	33.0503	-49.93	-3.5231	-2.75858	-0.342769	-0.858551	-41.3658	-4.27795	0
0.8633	28.9671	-92.061	-52.067	-1.39456	-2.44544	0.576475	1.27736	99.9537	-1.83998	0
0.8640	31.0904	-139.971	-26.423	1.35786	-2.14722	3.0226	3.7169	268.389	2.75997	0.322478
0.8647	0.909963	-96.3221	-19.0932	1.65145	-1.53586	3.31863	0.366455	206.137	1.83998	-0.322478
0.8653	-20.7775	-38.9585	-7.80905	0.733978	-0.313136	2.39938	-3.60172	-7.49144	0.321996	-0.322478
0.8660	-0.303321	-30.7228	-44.7373	-0.477086	0.298225	0.264867	-7.5699	-10.2193	-0.597993	0
0.8667	17.0618	-30.4364	-95.7058	-2.64232	0.596449	-2.78889	-14.2813	-46.5365	-3.35796	0
0.8673	10.3887	-15.4688	-92.6501	-3.5231	1.20781	-3.39653	-17.6422	-271.483	-4.87594	0
0.8680	-6.14225	-9.34575	-56.0215	-4.77086	1.81917	-3.39653	-17.9458	-330.682	-6.11793	0
0.8687	-23.2041	-7.84184	-31.3161	-7.19299	2.13231	-5.53105	-21.0031	-183.581	-9.15389	0
0.8693	-24.7207	-11.2077	-32.834	-7.52328	2.13231	-5.82708	-21.6103	-27.93	-10.0739	0
0.8700	-9.17546	-24.0268	-33.1335	-6.27552	2.74367	-5.21944	-18.5635	76.1358	-8.5559	0
0.8707	3.03321	-22.1648	-0.79888	-7.19299	3.65325	-6.13868	-18.5635	70.0287	-9.75188	0.322478
0.8713	7.88634	-11.4942	36.7485	-8.44075	4.26461	-5.82708	-18.2494	32.4901	-10.3959	0.322478
0.8720	23.8107	-4.47593	33.3932	-7.52328	4.56284	-3.39653	-13.9776	17.2222	-8.2339	0
0.8727	29.8771	18.1186	0.738964	-7.19299	5.1742	-3.39653	-12.4595	-12.0514	-8.5559	0.322478
0.8733	11.602	13.5352	-13.6009	-7.81687	6.09869	-4.31577	-13.3704	20.8865	-9.47588	0
0.8740	3.94317	-23.4181	3.47513	-5.98192	5.78556	-2.78889	-13.0667	73.693	-7.31391	0
0.8747	-13.1186	-17.295	32.4745	-5.35804	5.48733	-2.16568	-16.4172	90.4673	-7.03791	0.322478
0.8753	-56.4935	14.144	69.1031	-5.68833	5.1742	-2.78889	-19.7781	115.792	-7.9579	0.322478
0.8760	-60.4367	7.41215	79.169	-4.77086	4.87597	-3.39653	-20.3853	115.507	-7.03791	0.322478
0.8767	-5.23229	-27.0705	33.6928	-4.77086	5.1742	-4.31577	-22.8354	67.5858	-7.63591	0
0.8773	54.2944	-44.1506	-2.01717	-4.44057	4.87597	-4.31577	-25.5785	34.6072	-8.2339	0.322478
0.8780	72.9487	-38.6721	3.79468	-3.2295	4.56284	-3.08492	-25.2749	38.5972	-6.39392	0.322478
0.8787	51.8679	-29.8276	10.2057	-3.5231	4.26461	-2.47729	-23.4426	63.0258	-6.39392	0.322478
0.8793	40.2659	-20.3386	-2.01717	-4.77086	3.65325	-2.16568	-18.8672	92.0144	-7.63591	0
0.8800	64.6832	-24.922	-24.2859	-4.77086	3.04189	-0.0311608	-7.5699	96.5744	-5.47393	-0.322478
0.8807	83.3374	-44.7593	-32.2148	-5.98192	3.04189	0.576475	1.88462	71.2501	-5.47393	0
0.8813	66.8064	-49.0204	-20.3115	-7.19299	3.65325	-1.55804	2.80599	20.2757	-7.31391	0
0.8820	20.3983	-31.0451	-10.5652	-3.2295	3.95148	0.872503	2.80599	-40.7551	-3.35796	0
0.8827	-32.0762	-2.97202	-0.179748	0.733978	4.26461	3.63024	2.18826	-69.4587	0.597993	0
0.8833	-50.6546	34.8765	24.226	0.733978	4.87597	1.79175	-1.46582	-62.1301	0.321996	0
0.8840	-43.0716	58.402	37.9668	-0.477086	5.78556	1.18411	-3.90536	-45.6408	0	0
0.8847	-37.2326	47.4091	26.363	-2.01844	5.78556	0.872503	-3.60172	-21.8229	-1.24198	0
0.8853	-35.1094	23.8836	13.8606	-2.64232	6.09869	-0.0311608	0.0523506	-4.43786	-1.51798	0
0.8860	-30.8629	14.4304	14.1601	-2.01844	5.78556	2.10336	8.29234	-8.10216	0.919989	0
0.8867	-20.4742	17.1876	16.5967	-0.807376	5.48733	4.54948	17.7573	-17.8736	3.35796	0.322478
0.8873	-7.35553	21.7709	14.4597	0.110097	5.48733	5.15712	25.3901	-14.2093	3.67996	0
0.8880	0.909963	25.1369	12.3227	0.440387	4.87597	5.15712	30.2691	1.34357	4.27795	0
0.8887	6.36974	22.3797	10.5053	-0.807376	4.87597	3.31863	28.7405	3.50143	3.35796	0
0.8893	14.3319	15.9701	9.58656	-1.72485	5.78556	2.71099	26.9082	-12.3772	2.43797	0.322478
0.8900	15.2419	8.34314	11.424	-2.01844	5.1742	3.92626	30.2691	-24.8765	3.03596	-0.322478
0.8907	8.18966	4.36851	9.58656	-3.85339	4.87597	3.63024	29.6619	-21.5379	0.919989	-1.61239
0.8913	4.24649	8.02087	2.25684	-4.14698	5.48733	3.31863	25.6937	-10.2193	-1.83998	-0.967433
0.8920	3.03321	8.02087	-4.15418	-2.31203	4.56284	5.15712	26.301	-0.488572	0.597993	0.322478
