MR32 ASCII
Name	TBAS30_fast
Frequency	1500
Date	26-08-2015 10:44:17
"Time,s"	"RT TIB.ANT.,uV"	"RT MED. GASTRO,uV"	"RT LAT. GASTRO,uV"	"RT BICEPS FEM.,uV"	"RT VMO,uV"	"RT VLO,uV"	"RT RECTUS FEM.,uV"	"RT SOLEUS,uV"	"RT SEMITEND.,uV"	"Channel 12,uV"
0.0000	-36.7198	5.52661	30.693	184.283	69.2724	7.13596	-2.31113	-70.1022	-8.81198	-5635.8
0.0007	-31.1956	-4.56267	25.4967	133.631	59.199	2.56008	-5.05224	-49.686	-15.1803	-10361.8
0.0013	-29.0292	-39.9715	19.0879	115.307	61.6338	-2.62055	0.752461	7.99469	-17.9202	-9888.42
0.0020	-27.1878	28.9826	12.3673	90.2401	72.6381	-7.51897	4.70288	35.7449	-18.2904	-9615.2
0.0027	-27.5128	69.2754	5.68132	57.6534	86.674	-11.47	1.66616	2.77502	-17.9202	-9912.77
0.0033	-27.5128	18.3149	0.484991	36.5628	115.963	-10.8652	-1.39743	-42.6824	-17.0315	-9797.66
0.0040	-20.4721	-14.6519	3.53351	41.749	139.476	-4.45494	2.57987	-60.9843	-13.1069	-9803.04
0.0047	-11.6984	-19.5359	3.84529	32.3274	132.434	0.42332	5.61658	-67.9879	-12.7366	-9815.37
0.0053	-7.04067	-37.8509	-1.66283	-38.2051	106.51	13.5462	3.19796	-81.1362	-14.8841	-9815.68
0.0060	-0.324954	-64.7128	-0.138569	-149.622	79.6561	40.6992	-1.98865	-80.8059	-9.40438	-9795.13
0.0067	10.9401	-80.5857	3.53351	-256.977	59.199	54.7494	-11.4482	-63.0986	-6.36832	-9819.16
0.0073	19.8222	-83.9274	-4.71134	-315.927	37.8348	44.6703	-17.8709	-53.9807	-8.81198	-9901.38
0.0080	19.4973	-96.7157	-15.6929	-302.529	11.6011	33.0794	-16.0435	-73.8023	-9.70058	-9546.58
0.0087	14.8396	-105.584	-12.0208	-266.744	-7.92503	23.9276	-12.0662	-98.5131	-14.5879	-10138.6
0.0093	17.6558	-65.2911	5.36954	-288.786	-18.9294	5.92648	-7.49773	-93.0292	-16.4391	-9917.51
0.0100	25.5631	22.2992	27.3327	-340.907	-27.7615	-5.38221	-1.69304	-49.0914	-9.99678	-4174.83
0.0107	15.1645	103.142	39.2496	-317.742	-36.3071	-6.59169	8.38456	-11.5626	-1.481	111.628
0.0113	-19.6056	104.363	37.4136	-218.599	-46.6908	-18.5051	19.0534	-1.78394	5.84997	75.5782
0.0120	-47.9849	22.2992	28.857	-111.158	-53.3984	-30.7008	12.0394	14.9983	8.29362	-198.274
0.0127	-59.5749	-68.3758	20.6121	38.983	-53.7088	-24.5929	-5.67033	29.0716	9.18223	99.6115
0.0133	-56.867	-112.91	17.2518	228.799	-47.9082	-6.89407	-15.1298	30.2609	15.3284	-16.4438
0.0140	-35.745	-110.468	3.53351	333.474	-40.2935	-1.10869	-21.5258	33.3002	14.6619	-10.4355
0.0147	-19.9305	-121.778	-15.3811	371.333	-32.0343	-6.28932	-25.7987	34.8199	7.99742	1.58113
0.0153	-14.0813	-199.858	-24.5613	407.636	-12.1979	-3.24545	-22.4395	25.7019	5.55377	-0.632454
0.0160	-17.4392	-320.736	-30.6584	369.777	9.14243	-1.41107	-19.6983	12.884	-4.81326	-0.316227
0.0167	-51.9927	-379.922	-30.3466	252.309	9.45274	-2.92292	-17.2529	20.4823	-20.7341	-0.316227
0.0173	-91.6371	-327.741	-21.201	136.657	-3.96251	2.86245	-11.4482	37.9252	-29.546	-0.632454
0.0180	-99.8693	-347.598	-7.44807	48.7504	-7.01795	9.87746	-9.02953	39.1145	-30.4346	-0.316227
0.0187	-87.3044	-384.806	-0.450349	-18.6704	2.4348	11.7118	-6.87964	37.2645	-24.3625	0.316227
0.0193	-61.0914	-113.231	-1.66283	-90.6723	8.85598	3.46719	-5.34785	63.5611	-17.3277	-2.21359
0.0200	-19.2806	202.621	17.2518	-175.813	9.45274	-5.38221	-5.05224	101.09	-7.25692	-3.16227
0.0207	10.2902	330.504	39.8385	-243.925	10.0734	-7.19644	-2.92922	106.838	14.6619	-0.948681
0.0213	17.9808	412.311	37.4136	-274.437	7.32826	-9.95809	-0.779334	111.133	36.0625	-2.21359
0.0220	29.8958	351.582	43.8224	-244.789	7.01795	-9.03082	5.02536	140.469	47.3181	-3.16227
0.0227	35.6366	274.981	47.4598	-206.93	9.76306	-6.59169	8.06208	115.692	46.1333	-0.632454
0.0233	26.7546	310.39	21.5475	-209.091	8.23534	-10.5628	-0.779334	21.4073	30.2865	0.316227
0.0240	34.9867	318.937	9.94231	-168.206	5.49023	-11.1676	-7.79334	-59.1343	21.9929	-0.316227
0.0247	60.9831	284.428	20.0232	-27.2276	3.36575	-4.15257	-9.32514	-133.003	20.8081	0
0.0253	85.3546	242.593	15.1386	240.727	4.27283	4.09209	-10.5345	-234.026	13.4771	-0.316227
0.0260	102.144	188.29	1.07391	578.263	8.54566	9.87746	-7.79334	-257.218	13.4771	-0.316227
0.0267	108.86	124.22	-5.61204	669.195	7.92503	35.8209	-6.26155	-143.971	5.84997	0
0.0273	101.602	69.5967	2.00925	409.797	7.32826	108.148	-7.79334	-54.8396	-24.6587	0
0.0280	84.4881	34.5092	16.3511	126.284	8.54566	175.295	-3.22483	-52.461	-47.8364	-0.316227
0.0287	70.7317	14.3306	20.9239	9.42162	7.63858	196.965	3.78918	-32.9038	-53.6864	-0.316227
0.0293	59.4666	-5.78366	21.5475	-10.1131	2.74511	195.13	11.1257	0.660718	-51.8351	-0.316227
0.0300	44.5187	-10.989	20.9239	-13.8299	-5.49023	172.856	17.5216	20.8126	-45.763	-0.316227
0.0307	29.2459	32.9669	1.38569	-38.2051	-10.0734	131.048	14.1624	36.6699	-42.9491	-0.316227
0.0313	21.0137	136.43	-32.1826	-86.0912	-16.4707	91.3766	10.212	56.4914	-44.5042	0
0.0320	20.3638	203.842	-50.1966	-131.903	-19.8364	52.3102	15.3986	56.8218	-42.0605	-0.316227
0.0327	22.2052	137.973	-49.573	-149.017	-10.3837	-0.483794	16.3123	-28.9395	-33.2485	0
0.0333	27.4045	36.6299	-51.7208	-199.929	-15.2533	-56.3419	10.212	-142.121	-22.2151	0
0.0340	29.2459	7.32597	-54.7693	-336.326	-34.1826	-107.906	1.96177	-168.417	-16.1429	0
0.0347	13.6481	31.7459	-45.5891	-476.095	-29.5995	-155.822	-5.67033	-95.4738	-12.7366	0
0.0353	-13.2148	54.3022	-26.3627	-506.693	-12.8185	-176.585	-9.62075	6.47504	0.370251	0
0.0360	-30.0041	33.2882	-5.3349	-349.205	-10.3837	-166.506	-11.4482	33.9609	20.8081	0
0.0367	-28.7043	-36.8869	12.9908	-50.3927	-6.42118	-143.626	-5.96594	-13.0822	34.8036	-0.316227
0.0373	-18.4141	-104.941	14.2033	173.911	1.2174	-71.6015	5.02536	-33.8288	42.1346	-0.316227
0.0380	-0.974863	-193.174	-10.2195	148.844	-0.310317	39.1873	9.59387	-21.0108	38.2099	0
0.0387	21.3387	-314.31	-38.2796	24.0295	-2.74511	107.241	9.88948	-8.4572	18.0683	0
0.0393	34.4451	-344.257	-45.312	122.913	-2.14835	128.286	12.335	18.368	-0.592402	0
0.0400	28.596	-326.52	-32.4944	369.777	-3.36575	131.35	15.0761	83.647	2.51771	0
0.0407	12.1316	-272.796	-15.0694	403.66	-2.74511	116.393	17.226	132.804	7.40502	0
0.0413	-4.98263	-18.3149	11.7784	242.542	2.4348	85.8734	15.3986	105.649	-5.10946	0
0.0420	-32.3871	173.06	41.3628	148.585	3.6522	38.26	10.5076	164.849	-8.21957	0
0.0427	-64.4493	116.894	42.8871	121.444	-0.907081	-19.7146	11.7438	376.015	11.6259	0
0.0433	-85.463	122.999	34.954	103.724	-6.11086	-67.0256	16.0167	488.667	23.8442	0
0.0440	-95.3199	115.031	33.4297	137.867	-9.76306	-103.028	16.0167	283.58	16.217	0
0.0447	-83.08	-48.5185	16.3511	135.706	-9.76306	-142.094	9.59387	-62.1736	-2.07341	0
0.0453	-42.4607	-158.665	-2.25174	82.9794	-9.1663	-178.399	-2.31113	-146.746	-22.5113	0
0.0460	3.89945	-205.963	-6.2356	89.9808	-9.1663	-172.009	-11.1525	-90.2541	-27.3986	0
0.0467	37.1531	-221.836	-9.59589	89.03	0.310317	-114.941	-11.7706	-122.299	-18.8828	0
0.0473	52.7509	-149.219	-26.0856	16.7688	20.1468	-76.4798	-12.6843	-14.2715	-15.5505	0.316227
0.0480	39.8611	-125.441	-42.8524	-40.366	31.1272	-85.6315	-18.1666	127.651	-14.8841	0
0.0487	1.1915	-156.544	-34.0187	-12.274	24.4196	-94.4809	-16.6616	77.8987	-9.70058	-2.84604
0.0493	-21.7719	-107.705	-15.0694	65.5192	14.943	-86.2363	-1.98865	74.1987	1.55505	-2.84604
0.0500	-21.447	50.6392	-5.02312	98.5381	7.92503	-66.7233	9.88948	204.558	11.6259	-0.316227
0.0507	-33.6869	217.916	5.05776	84.7946	-9.76306	-40.7798	4.40727	257.944	7.40502	0.316227
0.0513	-56.542	126.662	22.4482	63.704	-27.475	-22.4561	-5.96594	210.042	0.370251	0
0.0520	-65.9657	-41.1925	41.051	62.4939	-28.6924	-14.2316	-8.11583	81.863	3.11011	0
0.0527	-60.2248	-8.54697	51.4437	104.589	-25.3267	-8.42608	-8.41144	-90.9149	5.55377	0
0.0533	-47.9849	2.76331	56.64	100.353	-24.7299	-5.98695	-7.79334	-147.01	2.22151	0.316227
0.0540	-25.1298	-38.1079	56.0165	-0.950806	-27.7615	-9.65572	-6.87964	-128.444	-5.77592	0
0.0547	6.39077	137.651	37.1018	-102.601	-43.6354	-14.2316	-7.49773	-125.338	-17.9202	0
0.0553	42.0274	373.239	-8.07163	-175.208	-54.9262	-12.6996	-4.13853	-148.86	-26.2138	0
0.0560	74.9561	335.71	-68.1759	-247.901	-40.2935	-10.2605	-0.483725	-213.875	-37.7656	0
0.0567	80.1554	205.063	-102.68	-289.65	-15.2533	-11.1676	-1.07494	-258.737	-51.2427	0
0.0573	68.0238	173.96	-116.398	-309.531	0.310317	-9.33319	-0.161242	-240.7	-52.4275	0
0.0580	77.7724	175.502	-160.047	-359.578	7.63858	-7.19644	-1.39743	-194.648	-54.575	0
0.0587	107.993	103.142	-217.415	-408.674	10.6701	-3.54782	-2.92922	-144.565	-46.9478	0
0.0593	112.867	-53.7238	-216.202	-365.628	10.0734	3.78972	1.66616	-111.001	-16.1429	0
0.0600	49.0681	-81.8067	-118.234	-253.692	8.54566	8.66798	5.32097	-123.819	-4.22086	0.316227
0.0607	-66.2907	23.8415	35.5775	-198.459	8.85598	12.6391	4.70288	-121.11	-24.0663	0.632454
0.0613	-164.535	83.6061	149.1	-222.229	11.2908	14.7759	1.04807	-14.0072	-48.1326	0
0.0620	-194.431	110.468	172.899	-184.975	10.6701	19.3518	-1.39743	130.69	-54.8712	-0.316227
0.0627	-169.409	35.7302	138.43	53.9366	5.49023	31.8498	2.57987	171.258	-34.1371	0
0.0633	-137.997	-145.234	97.206	386.027	1.2174	39.4897	7.76647	38.1895	-1.7772	0
0.0640	-109.293	-126.919	75.2429	534.007	-0.620635	35.2162	5.32097	-135.447	24.4366	0
0.0647	-83.7299	48.1972	69.7694	443.335	-1.2174	28.8059	0.752461	-174.165	46.7257	0
0.0653	-71.8149	53.7238	65.7856	274.264	-1.2174	20.8636	-2.60674	-114.701	72.3471	0
0.0660	-56.867	-95.4947	56.0165	156.797	-0.310317	17.5174	-3.22483	-67.0629	88.8603	0
0.0667	-36.7198	-212.389	45.3466	125.679	0.310317	28.2012	2.87548	-46.911	88.2679	0
0.0673	-26.3213	-118.115	37.1018	109.775	-0.907081	39.7921	7.47086	-24.3805	73.0135	0
0.0680	-19.2806	136.43	27.0209	56.7026	-1.52772	40.0944	3.49357	8.32505	37.2473	0
0.0687	-21.7719	229.483	18.7761	-4.06253	-0.620635	36.4257	-1.07494	46.4485	-18.2904	-0.316227
0.0693	-40.2943	82.128	24.9077	-56.7891	-2.4348	34.6114	1.04807	76.6433	-72.5692	-0.316227
0.0700	-47.01	-128.14	43.8224	-86.4369	-5.80055	33.3818	5.02536	79.088	-89.6748	0.316227
0.0707	-29.3542	-306.984	60.0003	-81.2507	-8.23534	30.9427	7.14838	61.7111	-72.273	0
0.0713	-18.4141	-490.133	62.1135	-88.5978	-10.694	27.5763	6.55716	53.4521	-42.3567	0
0.0720	-28.1627	-664.671	52.0672	-116.344	-10.9805	21.1861	3.49357	75.454	6.14617	0
0.0727	-37.9113	-643.015	36.4782	-70.2732	-8.54566	13.2439	-0.779334	176.478	50.132	0.316227
0.0733	-44.627	-428.441	32.2173	61.2838	-4.89347	7.13596	-2.31113	327.188	76.642	0
0.0740	-57.7335	-351.84	40.7739	159.822	-1.52772	1.33043	-0.161242	461.181	93.4514	0.316227
0.0747	-69.9735	-392.775	44.4113	161.983	2.12448	-5.68458	-1.07494	567.359	82.1217	0
0.0753	-73.3313	-134.245	38.3143	101.909	5.80055	-12.6996	-5.05224	519.193	54.6491	0
0.0760	-62.9328	419.958	15.4158	42.6998	8.85598	-17.2755	-5.05224	365.972	31.7675	0.316227
0.0767	-33.362	713.833	-14.7922	15.4722	10.6701	-14.8364	-2.31113	275.652	11.6259	0.316227
0.0773	8.44881	513.332	-28.8223	6.30989	11.9114	-6.89407	0.429978	62.3058	1.25885	0.316227
0.0780	31.9538	307.948	-20.5775	-5.87771	10.3837	-0.181423	0.134368	-352.691	-1.1848	0.316227
0.0787	31.0873	311.611	-7.75985	-20.8313	2.12448	4.99921	-2.92922	-586.784	-10.9594	-1.26491
0.0793	33.2537	233.467	-8.38341	-33.3646	-3.05543	9.57509	-3.84292	-511.132	-21.6227	-3.16227
0.0800	46.5768	99.479	-18.1525	-43.0456	0	6.22885	-1.69304	-396.96	-21.3265	-0.948681
0.0807	63.3661	74.802	-27.2981	-47.6267	2.4348	0.725691	2.57987	-330.161	-14.8841	0.632454
0.0813	74.0896	72.9384	-27.887	-53.1587	-0.310317	1.95533	5.02536	-267.591	-10.9594	0.316227
0.0820	70.0818	16.1943	-16.0047	-53.7638	-4.58315	4.99921	3.49357	-209.91	-12.7366	0
0.0827	59.1417	-108.026	-5.3349	-43.3913	-10.3837	3.78972	1.34368	-147.671	-22.8075	0
0.0833	52.7509	-125.698	-5.61204	-36.995	-13.4391	1.95533	-0.161242	-98.8435	-47.244	0
0.0840	46.9017	105.006	-10.4966	-42.1812	-12.5082	3.16482	-0.779334	-128.113	-75.6053	0
0.0847	43.0023	124.799	-18.4297	-58.95	-7.92503	4.69683	-0.161242	-255.698	-86.0463	0
0.0853	42.0274	-50.9605	-27.887	-60.5058	-2.4348	3.78972	-0.779334	-343.243	-78.7154	-0.316227
0.0860	43.5439	4.88398	-34.9193	-23.5973	-2.4348	2.86245	-1.07494	-309.414	-61.3136	-0.316227
0.0867	43.2189	24.0986	-36.7554	-6.74208	-3.96251	4.99921	2.57987	-224.248	-30.1384	0
0.0873	27.0795	-90.0324	-23.626	-38.2051	-1.2174	6.53122	5.61658	-56.4254	24.4366	0
0.0880	2.05804	-132.125	5.05776	-69.6682	3.05543	5.60395	5.32097	144.103	68.4224	-0.316227
0.0887	-26.6462	-65.2911	35.2658	-85.8319	5.80055	4.99921	5.32097	210.637	56.7965	0
0.0893	-54.3757	42.4135	41.9864	-69.6682	4.89347	6.22885	4.40727	206.078	36.9511	0.316227
0.0900	-65.0992	40.6142	20.3003	-39.761	3.96251	8.97035	4.11166	200.264	33.0264	0
0.0907	-62.0663	47.9401	4.15706	-35.7849	6.11086	11.4095	5.61658	176.148	8.58982	0
0.0913	-50.6929	192.853	1.07391	-57.7399	8.23534	12.3166	7.14838	186.851	-1.7772	0.316227
0.0920	-34.5535	239.251	0.173211	-126.717	7.92503	12.9415	9.59387	152.626	14.0695	0.316227
0.0927	-21.447	154.424	1.38569	-181.95	3.96251	11.7118	7.14838	1.91608	9.84868	0.316227
0.0933	-9.85695	63.4918	-2.56352	-136.484	-1.83803	10.2	1.66616	-73.4719	-5.10946	0
0.0940	1.73309	-129.683	2.59817	-102.601	-5.80055	10.2	-0.483725	7.99469	-27.6948	0
0.0947	10.9401	-393.032	19.3996	-139.855	-7.92503	11.1071	-0.779334	87.6773	-59.4623	0
0.0953	16.681	-522.136	10.2541	-106.231	-7.32826	12.6391	0.752461	99.8346	-67.6819	0
0.0960	13.973	-348.819	-14.7922	4.49472	-5.17991	10.5024	0.134368	88.5363	-58.8699	0
0.0967	11.4817	98.001	-17.529	54.2824	-2.14835	5.30158	-2.92922	77.238	-57.0187	0
0.0973	18.5224	432.747	2.32103	10.8911	0.620635	1.95533	-3.22483	106.838	-67.6819	0
0.0980	21.5553	395.538	6.27024	-25.6718	2.74511	-0.786165	-2.92922	178.262	-48.1326	0.316227
0.0987	21.3387	71.7174	-23.0371	22.56	6.11086	-0.786165	0.752461	231.384	30.8789	0.316227
0.0993	31.0873	-272.539	-48.6723	86.9555	6.70763	0.120949	6.55716	246.316	77.9008	0
0.1000	50.5845	-281.086	-59.6539	87.5606	4.27283	-2.31818	6.85277	212.487	54.9453	0
0.1007	61.308	-146.455	-78.2568	99.1431	3.36575	-1.71344	6.55716	112.058	53.1681	0
0.1013	52.101	-258.787	-94.4347	196.817	1.52772	3.78972	8.97578	-15.7912	102.56	0
0.1020	31.9538	-224.92	-69.7001	259.051	0.310317	7.74071	10.5076	-120.185	122.701	-0.316227
0.1027	3.03291	187.391	-17.8407	188.26	0.310317	8.36561	9.88948	-171.456	83.0843	0
0.1033	-16.5727	379.023	1.07391	96.7229	-0.907081	6.22885	3.78918	-126.263	46.7257	0
0.1040	-15.9228	290.211	3.84529	66.8157	-2.14835	5.30158	-1.69304	-49.686	36.6549	0
0.1047	-33.037	238.03	20.6121	39.3288	-2.4348	6.53122	-2.92922	-32.5734	34.2112	0
0.1053	-67.8071	186.17	28.857	31.9817	-2.14835	8.06323	-1.69304	-2.04823	40.6536	0.316227
0.1060	-87.3044	118.115	6.8938	115.307	-0.620635	7.43833	0.752461	57.4164	52.5756	0
0.1067	-90.6622	13.431	-43.476	166.305	0.907081	3.46719	0.429978	59.8611	51.9092	-0.316227
0.1073	-79.3971	-75.9588	-57.8178	102.773	0.907081	-1.10869	-1.69304	-19.4912	39.0985	0
0.1080	-60.2248	-153.781	18.1872	44.7743	-2.4348	-1.41107	-1.69304	-133.003	30.5827	-0.316227
0.1087	-47.66	-228.583	109.435	26.7954	-6.70763	-0.181423	-0.779334	-194.648	26.584	-2.21359
0.1093	-32.3871	-256.666	121.941	9.68093	-6.70763	2.25771	2.87548	-184.869	23.2518	-2.21359
0.1100	-2.16636	-317.973	64.2613	-0.0864369	-6.11086	3.78972	5.93907	-152.23	20.8081	-0.316227
0.1107	39.6444	-432.425	-19.0532	-6.74208	-7.63858	2.56008	3.19796	-83.2505	17.7721	0
0.1113	72.5731	-472.397	-101.467	-18.0653	-7.32826	1.65296	0.752461	64.7504	13.1809	0
0.1120	64.9908	-250.24	-152.426	-22.9058	-3.96251	0.725691	-0.161242	192.599	11.6259	0
0.1127	20.3638	-165.413	-110.301	-13.8299	3.36575	-1.71344	-1.39743	279.286	15.9208	0
0.1133	-22.9634	-404.664	31.9055	-7.34714	9.76306	-3.85019	-0.779334	343.706	17.7721	0.316227
0.1140	-31.8455	-252.682	111.271	-16.2501	10.0734	-6.28932	-2.31113	225.305	10.4411	0
0.1147	-12.8899	172.739	42.2981	-23.8566	7.63858	-7.82134	-3.84292	-11.2322	3.99871	-0.316227
0.1153	0.866545	440.715	-35.5429	-20.4855	4.58315	-6.89407	-1.69304	-157.383	0.666452	0.316227
0.1160	7.58227	670.198	-36.7554	-9.24875	2.12448	-3.24545	1.66616	-239.841	-3.92466	0
0.1167	27.7294	721.159	-15.3811	-0.0864369	0.620635	-0.181423	4.70288	-352.427	-7.25692	0
0.1173	41.7025	599.38	-25.462	0.864369	-1.52772	-1.10869	3.78918	-391.145	-11.848	0.316227
0.1180	25.888	463.271	-26.6745	6.05058	-4.27283	-2.31818	-0.483725	-298.116	-16.4391	0
0.1187	6.6074	358.266	15.4158	3.88966	-6.11086	-0.786165	-0.779334	-220.284	-19.179	0
0.1193	-5.84918	271.318	60.901	-17.7196	-6.42118	1.02806	1.34368	-133.597	-23.1777	0
0.1200	-13.5398	88.4901	96.3053	-32.4138	-5.49023	1.95533	2.87548	32.7056	-26.8062	0
0.1207	0.866545	-31.4246	131.086	-32.6732	-5.17991	0.120949	1.04807	86.0916	-27.3986	0.316227
0.1213	25.888	-2.44199	138.118	-33.3646	-5.49023	-3.54782	-2.92922	-27.4198	-25.6214	0.316227
0.1220	40.8359	85.1484	55.1158	-35.1798	-5.17991	-2.62055	-1.39743	-48.761	-22.5113	0
0.1227	44.5187	317.973	-47.1134	-35.7849	-4.89347	0.120949	3.78918	68.1201	-22.8075	0
0.1233	43.2189	326.52	-85.2891	-37.8594	-3.96251	1.33043	7.14838	102.61	-21.9189	0.316227
0.1240	40.511	-157.444	-133.199	-45.8116	-2.4348	-0.786165	6.85277	144.433	-16.7353	0.316227
0.1247	36.8281	-449.84	-138.361	-49.1826	-2.14835	-3.85019	2.87548	390.683	-10.9594	0
0.1253	28.0544	-315.531	-89.2383	-41.5762	-3.36575	-3.54782	2.28426	494.151	-1.1848	0
0.1260	-2.49132	-236.166	-97.795	-38.5509	-5.80055	-1.41107	4.40727	204.558	8.58982	0
0.1267	-43.1106	-263.992	-128.315	-40.0203	-7.01795	1.02806	6.85277	-169.012	11.6259	0
0.1273	-56.867	-345.477	-164.62	-35.1798	-6.70763	2.86245	10.212	-319.457	10.4411	0
0.1280	-44.627	-314.31	-253.131	-31.463	-6.70763	1.33043	12.335	-247.439	4.96136	0
0.1287	-24.8048	56.7442	-345.902	-31.2037	-6.70763	-0.786165	12.9531	-145.49	-0.592402	0
0.1293	-9.85695	347.02	-397.173	-29.3885	-6.42118	-1.71344	10.212	-21.9359	-2.66581	0
0.1300	-3.14122	280.186	-431.954	-26.2768	-5.80055	-1.10869	5.61658	145.622	-4.22086	0
0.1307	0.216636	69.9181	-405.418	-22.0414	-4.89347	1.02806	4.11166	293.029	-3.62846	0
0.1313	3.24954	-207.826	-308.974	-19.8805	-4.27283	-0.181423	0.752461	328.113	-3.03606	0.316227
0.1320	7.58227	-348.177	-191.467	-19.0161	-5.17991	-2.31818	-2.60674	170.928	-4.51706	0
0.1327	10.6152	-271.318	-9.90767	-16.5095	-7.92503	-1.71344	-1.98865	9.18399	-5.10946	-0.316227
0.1333	13.973	-317.395	165.278	-14.435	-9.76306	0.725691	-0.779334	-72.5469	-5.47972	-0.316227
0.1340	18.8473	-414.432	247.068	-11.0639	-8.85598	1.65296	-0.483725	-219.953	-3.92466	0
0.1347	-0.324954	-345.156	257.738	-9.50806	-4.27283	-0.786165	-1.39743	-363.395	-0.592402	-0.316227
0.1353	-38.2363	-326.52	245.544	-11.3232	-1.52772	-4.45494	-3.52044	-331.945	1.25885	-0.316227
0.1360	-44.3021	-340.594	257.738	-12.8791	-2.4348	-6.28932	-4.75663	-154.674	1.55505	0.316227
0.1367	-13.2148	-171.196	235.151	-12.5334	-1.52772	-7.19644	-4.75663	43.0788	1.85126	0
0.1373	15.1645	71.1391	191.814	-12.8791	2.12448	-9.33319	-3.52044	216.121	2.81391	-0.316227
0.1380	17.9808	195.038	189.978	-15.9044	5.49023	-13.002	-1.98865	275.652	1.55505	0
0.1387	1.40813	145.556	168.638	-20.4855	6.70763	-15.4411	0.429978	133.729	-3.33226	0
0.1393	-1.29982	-5.2053	83.4877	-22.6465	6.11086	-15.7435	4.11166	10.7697	-6.36832	-0.316227
0.1400	32.9287	-42.4135	-19.9539	-21.4364	6.11086	-14.534	6.23467	36.6699	-6.96072	0
0.1407	66.1823	55.8445	-51.998	-20.8313	6.11086	-14.534	4.11166	47.6378	-9.10818	-0.316227
0.1413	64.016	119.015	-45.0002	-20.2262	6.39731	-14.8364	0.134368	-5.1536	-9.99678	-2.52982
0.1420	37.1531	248.44	-65.1273	-18.6704	9.14243	-13.3043	-0.483725	-111.331	-9.10818	-2.21359
0.1427	-5.19927	499.901	-21.7899	-18.6704	11.9114	-12.6996	0.752461	-105.517	-9.10818	0
0.1433	-48.8515	604.843	103.026	-19.0161	10.9805	-13.002	0.429978	98.9096	-9.99678	0
0.1440	-70.2984	513.332	225.07	-19.2754	8.54566	-13.3043	-2.60674	173.108	-11.848	-0.316227
0.1447	-58.7084	428.184	250.706	-17.7196	6.11086	-11.47	-5.34785	58.9361	-11.5518	0
0.1453	-39.1028	426.063	170.751	-14.6943	4.58315	-7.51897	-6.26155	2.18037	-9.70058	0
0.1460	-26.9712	411.411	116.432	-15.04	2.74511	-6.89407	-8.11583	-70.4326	-10.9594	-0.316227
0.1467	-9.20704	324.721	111.86	-16.2501	0.907081	-6.59169	-9.32514	-203.766	-13.4031	0
0.1473	6.93236	249.019	96.6171	-15.9044	-0.620635	-5.68458	-9.32514	-272.15	-14.5879	0.316227
0.1480	23.3967	226.463	56.0165	-15.2993	-1.2174	-5.05968	-8.70705	-253.253	-13.6993	0.316227
0.1487	58.4918	203.264	19.7114	-12.5334	-0.310317	-3.24545	-2.60674	-148.265	-9.99678	0.316227
0.1493	93.3702	166.955	14.8269	-10.7182	0.907081	-3.54782	4.11166	-99.4381	-8.21957	0
0.1500	100.627	202.621	-23.626	-10.7182	1.2174	-6.59169	4.70288	-168.681	-7.84932	0
0.1507	90.5539	187.391	-111.201	-10.7182	1.83803	-9.33319	1.34368	-155.269	-7.25692	0
0.1513	85.6796	-12.7883	-155.162	-11.0639	1.2174	-12.6996	-2.60674	-14.8662	-7.84932	0
0.1520	83.2966	-148.319	-102.056	-7.08783	1.83803	-11.47	-1.69304	146.217	-3.03606	0
0.1527	67.3738	-176.402	-31.5591	-2.76598	3.05543	-10.5628	-0.483725	258.869	2.51771	0.632454
0.1533	45.0603	-156.544	-99.631	-3.71679	2.12448	-15.1387	-3.52044	189.56	1.55505	-0.632454
0.1540	29.5708	-21.0782	-231.167	-4.32185	1.2174	-18.1826	-4.43414	-35.3484	0.666452	-1.89736
0.1547	17.3309	86.3694	-244.262	-3.71679	2.12448	-18.5051	-3.22483	-187.644	0.962653	-0.632454
0.1553	-2.81627	153.845	-280.29	-1.55586	4.27283	-16.6707	-1.39743	-123.224	2.51771	0.316227
0.1560	-32.3871	189.833	-417.924	3.02529	5.80055	-13.3043	1.34368	160.885	5.55377	-0.316227
0.1567	-74.1979	4.88398	-520.465	3.63035	5.49023	-12.0949	0.429978	486.487	4.59111	0
0.1573	-114.817	-203.264	-483.536	3.2846	4.58315	-10.2605	-5.05224	556.061	1.85126	0
0.1580	-127.274	-150.761	-263.489	2.42023	3.05543	-9.03082	-12.3887	358.968	-2.36961	0
0.1587	-106.91	-41.5139	0.796771	1.46943	1.83803	-7.82134	-16.0435	36.0752	-5.77592	0
0.1593	-56.867	-62.2708	240.348	5.44553	2.4348	-2.92292	-12.3887	-257.812	-4.22086	0
0.1600	-7.69058	-111.368	421.319	8.47082	2.74511	1.02806	-8.11583	-277.37	-2.66581	0.316227
0.1607	-0.108318	-75.0591	373.72	5.44553	0.907081	1.65296	-7.49773	-155.863	-6.07212	0
0.1613	2.05804	-27.7616	106.074	1.12368	-1.83803	0.42332	-6.87964	-59.1343	-9.99678	0
0.1620	42.3524	-118.115	-117.021	-0.691495	-3.36575	-0.786165	-5.96594	26.627	-11.5518	0
0.1627	48.4182	-245.356	-125.266	-0.0864369	-3.05543	0.120949	-2.92922	-9.3822	-9.40438	0
0.1633	-19.2806	-427.541	-77.0443	1.12368	-3.96251	1.02806	3.49357	-169.342	-6.36832	0.316227
0.1640	-61.0914	-709.848	-142.968	-0.345748	-3.36575	0.42332	13.5712	-183.68	-5.77592	0.316227
0.1647	-34.8784	-671.098	-207.334	-2.16092	-0.907081	-2.31818	26.0674	66.2701	-6.96072	0.316227
0.1653	1.1915	-277.423	-82.2406	-2.76598	1.2174	-6.59169	31.5765	228.609	-6.96072	0.316227
0.1660	26.213	-70.4964	153.673	-2.76598	3.36575	-8.72845	27.5992	96.4649	-5.47972	0
0.1667	46.9017	-82.7064	320.614	-1.55586	4.89347	-6.28932	14.4849	-138.487	-2.66581	-0.316227
0.1673	50.9095	8.86828	399.044	0.518621	3.96251	-1.71344	-10.8569	-308.754	-1.1848	0.316227
0.1680	32.6037	42.4135	405.764	-0.950806	0	0.725691	-32.8127	-303.864	-3.92466	-0.316227
0.1687	-3.46618	-99.8003	300.175	-3.45748	-2.4348	1.02806	-29.1579	-152.56	-7.84932	-2.52982
0.1693	-46.4685	-96.1373	223.269	-2.50667	0	4.09209	-4.13853	94.9452	-8.21957	-2.21359
0.1700	-69.3236	16.7726	324.563	-1.90161	3.96251	6.53122	8.38456	542.978	-5.77592	0
0.1707	-70.5151	-39.3289	340.741	-2.76598	4.89347	5.92648	-5.67033	592.4	-4.51706	0.316227
0.1713	-52.5343	-90.6107	204.043	-4.66759	3.96251	3.16482	-28.2442	-29.2698	-6.96072	-0.316227
0.1720	-2.81627	77.8224	184.193	-5.53196	6.11086	-3.24545	-42.2722	-406.144	-9.40438	-0.316227
0.1727	43.5439	276.202	184.504	-4.66759	4.89347	-7.82134	-52.0542	-398.215	-8.21957	0
0.1733	38.3446	306.406	106.663	-2.76598	-3.05543	-8.12371	-59.6863	-455.565	-6.66452	0.316227
0.1740	-0.324954	264.57	135.971	0.259311	-6.42118	-8.12371	-40.7673	-456.16	-3.92466	0
0.1747	-29.3542	104.363	192.749	2.07449	-2.4348	-15.4411	-9.32514	-304.195	-0.888602	0
0.1753	-48.8515	-260.329	124.366	1.81518	2.74511	-30.7008	0.134368	-68.9129	-0.222151	0.316227
0.1760	-66.6156	-409.548	38.6261	5.44553	10.6701	-44.7509	19.9671	313.445	4.96136	0
0.1767	-79.0722	-159.629	-6.54738	11.4961	20.4571	-41.9893	52.6185	515.228	14.3657	0
0.1773	-102.036	-80.8428	-22.7253	14.2621	25.9473	-17.2755	57.2139	205.748	18.6607	0.316227
0.1780	-122.183	-180.643	-72.7486	13.657	25.637	8.36561	54.7684	-128.444	18.0683	0.316227
0.1787	-112.326	-79.0434	-174.701	13.052	27.7615	23.6253	58.7188	-56.4254	15.6246	0
0.1793	-90.4456	-91.8317	-309.597	11.2368	11.2908	32.1723	55.3596	141.658	11.9221	0
0.1800	-69.9735	-279.222	-434.69	9.07588	-65.6202	27.8988	47.7544	269.837	8.88603	0
0.1807	-42.1357	-419.637	-383.732	8.47082	-160.219	25.762	50.4955	340.006	6.73857	0.316227
0.1813	-13.5398	-495.274	-337.969	7.86576	-204.786	34.3091	73.983	107.499	4.29491	0
0.1820	14.6229	-437.888	-539.067	8.81657	-205.382	31.245	87.7154	-302.345	4.29491	0
0.1827	31.4122	-188.869	-586.978	16.0773	-179.745	25.4395	85.2699	-365.245	10.7373	0
0.1833	33.2537	285.327	-204.909	25.8446	-156.567	21.7909	101.152	-95.4738	22.6594	0
0.1840	33.7952	680.866	258.05	25.2396	-147.401	0.42332	118.244	163.33	25.103	0
0.1847	9.42367	597.838	629.761	13.052	-117.491	-6.28932	92.3108	267.987	12.2923	0
0.1853	-10.1819	147.998	778.688	2.42023	-63.4718	17.215	9.29827	162.405	1.55505	0
0.1860	29.8958	-256.345	509.829	-6.74208	-14.943	32.4747	-37.7037	105.054	-7.55312	0
0.1867	72.5731	-225.242	168.326	-15.9044	27.475	36.7482	23.9444	259.134	-19.179	0
0.1873	76.7975	314.31	87.1598	-19.0161	67.1479	34.3091	97.4974	334.257	-24.0663	0.316227
0.1880	84.8131	742.815	131.398	-19.0161	95.2197	15.3806	110.907	303.732	-23.7701	0.316227
0.1887	91.2038	544.114	186.029	-16.8552	105.293	3.46719	91.0746	351.634	-21.0303	0.316227
0.1893	34.9867	209.047	295.879	-10.7182	99.4925	2.25771	58.7188	373.901	-13.6993	0
0.1900	-51.6677	157.508	356.919	-4.66759	99.4925	-2.62055	24.5625	-46.3164	-7.55312	0
0.1907	-78.5306	87.012	251.953	-3.45748	103.765	-9.65572	-8.41144	-714.038	-6.96072	0
0.1913	-47.9849	-145.234	95.6818	-5.53196	98.2751	-13.9091	-23.0575	-699.106	-8.51577	0
0.1920	-18.4141	-234.367	14.5151	-3.45748	86.0534	-11.7723	1.96177	-220.878	-5.77592	0.316227
0.1927	-11.6984	-76.6014	30.3812	3.63035	70.8001	0.42332	11.7438	-184.274	0.0740502	0.316227
0.1933	-22.3135	110.468	64.8849	10.0267	66.5273	17.8197	22.117	-355.136	5.55377	0
0.1940	-35.2034	237.773	13.6144	11.4961	74.1658	20.5612	124.64	-307.895	6.44237	0
0.1947	-22.6385	245.998	-3.49886	8.81657	65.6202	-0.181423	243.663	-175.421	2.81391	0
0.1953	9.96526	164.192	138.43	1.46943	43.3251	-28.564	220.767	41.8895	-3.92466	0
0.1960	57.3003	96.78	206.779	-7.9522	25.3267	-38.0182	59.0413	257.614	-13.1069	0
0.1967	117.417	-39.9715	37.7254	-15.04	16.1842	-20.3194	-144.204	126.726	-17.9202	0
0.1973	123.808	-114.452	-144.181	-20.2262	13.1288	1.65296	-314.206	50.0825	-20.3638	0
0.1980	65.8574	-86.3694	-180.486	-25.0667	12.8185	29.1083	-380.423	413.544	-25.6214	0.316227
0.1987	43.8688	-102.499	-202.449	-25.0667	18.3087	62.6715	-337.398	507.894	-25.9176	-1.26491
0.1993	68.5653	-56.4228	-290.059	-17.1145	25.9473	72.4482	-229.366	121.506	-15.8467	-2.84604
0.2000	60.3332	-51.2818	-320.267	-7.08783	33.8723	52.915	-86.2374	-217.839	-2.36961	-0.632454
0.2007	20.6888	-139.451	-333.397	-3.45748	45.4734	19.6541	75.2192	-304.195	3.70251	0.316227
0.2013	-4.00777	-80.2644	-369.078	-4.66759	49.4359	-3.24545	199.107	-316.088	3.40631	-0.316227
0.2020	-7.04067	36.6299	-271.145	-5.53196	38.7658	-9.95809	191.474	-334.39	1.85126	0
0.2027	-4.33272	36.9512	-203.696	-3.45748	25.9473	-18.1826	92.902	-233.432	3.99871	0.316227
0.2033	18.8473	50.6392	-395.337	2.07449	21.0538	-25.2178	79.1696	21.7376	10.1449	0.316227
0.2040	68.3487	166.055	-608.975	5.09978	21.3642	-20.6419	161.268	162.735	12.5885	0.316227
0.2047	85.3546	182.185	-585.765	2.07449	21.6745	-13.3043	175.001	5.55003	8.58982	0.316227
0.2053	53.0759	27.1832	-329.101	-1.90161	19.5261	-13.002	87.4198	115.428	4.29491	0.316227
0.2060	7.25731	0.899681	0.484991	-1.90161	13.4153	-14.534	-53.2635	542.384	1.85126	0
0.2067	-44.3021	124.542	158.246	-0.950806	5.80055	-13.3043	-186.315	620.811	-1.1848	0.316227
0.2073	-89.1458	139.772	221.745	-0.345748	0.620635	-9.33319	-223.857	270.762	-3.92466	0.316227
0.2080	-87.3044	73.5811	429.252	-2.16092	-2.4348	-5.05968	-203.729	-379.583	-6.36832	0
0.2087	-29.3542	89.1327	620.892	-6.74208	-6.11086	-2.01581	-179.301	-996.958	-10.6632	0
0.2093	6.6074	117.473	601.077	-9.50806	-10.694	3.16482	-125.903	-956.39	-13.9955	0.316227
0.2100	-28.1627	-7.90434	442.693	-7.69289	-12.1979	10.5024	-67.3184	-418.631	-13.4031	0
0.2107	-47.9849	-248.376	211.664	-4.06253	-10.9805	15.0782	-36.1719	162.405	-9.40438	0
0.2113	-2.49132	-408.327	-21.7899	-2.16092	-11.2908	15.0782	-24.2669	701.683	-6.96072	0.316227
0.2120	78.0973	-339.051	-110.924	-4.06253	-12.5082	12.9415	-19.6983	583.547	-8.21957	0.316227
0.2127	157.386	-191.311	-30.0348	-5.27265	-13.1288	11.4095	-14.5117	-143.376	-9.70058	0
0.2133	170.276	-166.312	79.8157	-2.76598	-11.6011	10.5024	-10.5345	-465.014	-6.96072	0
0.2140	132.04	-169.975	33.118	-1.55586	-8.54566	7.74071	-13.598	-333.2	-3.92466	0
0.2147	84.4881	-166.634	-107.564	-0.950806	-4.27283	4.39446	-16.0435	-118.335	-2.66581	0
0.2153	-14.7313	-130.904	-131.363	2.67954	0.310317	4.09209	-13.8937	55.6325	0.962653	0
0.2160	-122.399	-51.2818	-90.7626	5.09978	2.12448	3.78972	-10.8569	-85.1005	3.11011	0.316227
0.2167	-106.91	-77.8224	-93.4993	6.05058	1.83803	2.86245	-12.6843	-422.926	2.51771	0
0.2173	-10.7235	-259.686	-62.3906	7.2607	1.2174	2.86245	-28.5398	-349.652	3.40631	0
0.2180	-11.915	-273.117	59.3767	5.70484	0.310317	2.25771	-55.0909	129.435	1.25885	0.316227
0.2187	-94.9949	72.3601	126.513	6.65564	0.310317	4.99921	-80.4327	568.02	1.55505	0
0.2193	-128.249	444.635	57.8525	10.286	2.12448	8.36561	-103.92	676.642	5.55377	-0.316227
0.2200	-101.711	474.26	49.2959	9.07588	2.4348	4.69683	-116.148	260.389	4.59111	0
0.2207	-60.2248	84.2487	95.6818	5.70484	1.2174	0.42332	-120.421	-233.432	0.962653	0
0.2213	-49.5014	-79.0434	12.3673	3.88966	-0.310317	0.120949	-111.552	-367.954	-2.07341	0
0.2220	-58.0585	152.303	-68.7994	5.09978	-0.907081	4.69683	-16.6616	-318.863	-3.03606	0.316227
0.2227	-27.5128	162.071	-13.8569	9.07588	-0.310317	11.4095	114.589	-49.686	0.0740502	0.316227
0.2233	8.44881	43.9558	14.8269	12.1876	1.52772	13.8486	154.873	213.346	3.70251	0
0.2240	15.4895	-48.5185	-91.9751	11.4961	2.74511	10.8047	147.24	149.322	4.59111	0
0.2247	19.4973	-356.145	-184.47	9.42162	3.36575	5.30158	131.654	-7.2679	3.40631	0
0.2253	22.5302	-576.181	-57.8178	8.21151	2.74511	0.120949	78.874	-126.594	3.11011	-0.316227
0.2260	42.6773	-376.902	236.364	9.68093	2.12448	-1.71344	21.4989	-53.0557	5.84997	0
0.2267	60.9831	-205.063	354.771	12.7927	1.2174	1.02806	11.1257	187.446	9.84868	-0.316227
0.2273	23.7217	-290.211	234.84	14.0028	-2.14835	-0.786165	25.1537	236.603	10.1449	0
0.2280	-24.4799	-247.477	108.811	11.8419	-4.58315	-8.72845	11.1257	237.198	7.99742	0
0.2287	-24.1549	21.3996	-15.0694	9.68093	-3.6522	-14.2316	-13.3024	232.903	7.40502	-1.89736
0.2293	14.8396	40.6142	-200.336	10.286	-2.14835	-13.3043	-39.2355	89.197	8.88603	-2.52982
0.2300	34.7701	-205.706	-340.394	13.3977	-0.907081	-7.19644	-75.5417	-46.911	13.1809	-0.316227
0.2307	3.5745	-109.825	-481.388	11.8419	1.83803	-3.24545	-99.6473	-387.181	14.3657	0.316227
0.2313	-22.6385	41.1925	-812.81	6.05058	7.32826	-5.38221	-99.9698	-489.13	10.1449	-0.316227
0.2320	-38.7779	-219.394	-952.591	3.88966	12.5082	-8.42608	-73.4187	116.353	7.70122	-0.316227
0.2327	-78.2057	-229.483	-521.677	6.30989	13.7256	-7.82134	-31.6034	728.508	8.88603	0
0.2333	-99.5443	164.192	58.7532	8.81657	10.0734	-1.10869	9.88948	936.04	11.0335	0
0.2340	-92.5036	-20.1143	400.568	7.2607	4.58315	6.53122	44.0727	601.584	9.47843	0
0.2347	-69.3236	-546.235	472.901	2.42023	-1.83803	9.87746	69.7101	180.112	3.11011	0
0.2353	-6.17413	-404.342	347.461	0.518621	-6.42118	12.3166	80.997	64.4201	-1.481	0
0.2360	65.2075	-48.1972	195.798	0.864369	-6.70763	12.0142	66.969	-215.725	-3.33226	0
0.2367	116.55	-73.5168	-33.3951	1.81518	-6.11086	8.66798	43.159	-442.747	-3.33226	0
0.2373	156.845	-107.126	-309.286	5.70484	-5.80055	8.06323	30.6628	-378.658	0.962653	0
0.2380	145.471	21.0782	-430.741	6.65564	-4.89347	6.83359	13.5712	-236.471	2.22151	0
0.2387	95.4282	126.02	-500.926	6.30989	-3.96251	3.16482	3.78918	-244.4	1.25885	0
0.2393	68.3487	222.478	-489.009	7.2607	-1.2174	1.95533	23.3263	-246.844	1.25885	0
0.2400	11.8067	364.114	-186.895	7.60645	1.83803	3.16482	39.7998	-58.5397	1.55505	-0.316227
0.2407	-106.26	531.005	339.216	8.47082	6.39731	2.86245	57.5095	108.688	5.25757	-0.316227
0.2413	-201.797	719.938	562.624	7.60645	10.3837	-1.41107	85.2699	179.517	9.47843	0
0.2420	-224.977	552.661	208.304	1.12368	7.01795	-9.65572	71.2419	18.9626	5.55377	0.316227
0.2427	-181	-21.3353	-83.1413	-4.06253	1.83803	-13.002	26.6855	-61.579	-0.222151	0
0.2433	-81.5635	-138.551	-4.71134	-2.16092	3.05543	-13.002	-8.41144	182.887	2.22151	0
0.2440	42.6773	170.618	29.7577	2.42023	7.92503	-13.3043	-42.8903	202.708	8.88603	0
0.2447	168.651	325.62	93.5686	5.44553	10.6701	-9.03082	-68.2321	-89.0648	12.2923	0
0.2453	291.701	390.333	258.362	3.63035	8.85598	-5.38221	-76.4554	-29.8645	9.18223	0
0.2460	349.976	251.782	192.126	0.518621	3.96251	-5.38221	-75.5417	274.396	4.29491	-0.316227
0.2467	338.386	-7.64729	83.7995	0.864369	0	-2.62055	-56.6227	192.005	2.81391	0
0.2473	264.838	137.651	215.024	0.259311	-0.907081	0.725691	-27.9485	-176.94	-0.592402	0
0.2480	35.9616	303.385	430.776	-1.90161	-0.907081	2.86245	-3.22483	-404.888	-3.62846	-0.316227
0.2487	-192.048	-72.9384	496.388	0.864369	-1.2174	4.69683	17.226	-173.571	-0.222151	0
0.2493	-192.373	-231.925	381.653	3.88966	-1.83803	4.39446	14.7805	176.478	2.22151	0
0.2500	-71.4899	125.12	317.253	2.42023	-2.74511	5.92648	-2.31113	130.954	0.0740502	-0.316227
0.2507	1.1915	300.943	387.438	1.46943	-4.27283	10.2	-8.11583	-185.794	0.666452	-0.316227
0.2513	14.6229	201.4	368.524	0.864369	-5.80055	9.57509	-12.6843	-637.131	2.81391	0
0.2520	16.1394	215.152	106.386	0.259311	-5.80055	6.53122	-16.6616	-753.748	4.96136	0
0.2527	0.866545	264.313	-155.162	-0.0864369	-5.17991	6.83359	-10.8569	-285.893	7.40502	0.316227
0.2533	-44.3021	125.763	-115.497	-0.345748	-5.17991	6.83359	-8.70705	-99.1078	7.03477	0
0.2540	-127.924	56.1658	92.0443	2.67954	-3.96251	7.43833	-14.2161	-227.882	8.58982	0
0.2547	-203.638	154.424	138.43	6.05058	-2.74511	7.43833	-20.3164	-16.4519	11.6259	0
0.2553	-177.642	189.19	-6.2356	5.70484	-2.74511	5.30158	-22.7619	113.908	10.4411	0.632454
0.2560	-95.8615	206.927	-102.991	4.84047	-3.6522	4.39446	-17.2529	-117.74	7.03477	-0.632454
0.2567	-36.7198	273.76	-280.29	5.09978	-6.42118	4.69683	-11.4482	-266.071	4.96136	-1.89736
0.2573	1.40813	231.025	-540.28	7.60645	-8.54566	6.22885	-3.52044	-87.8095	4.96136	-0.632454
0.2580	-0.324954	151.661	-380.683	7.00139	-10.694	5.30158	12.335	206.673	2.22151	0.316227
0.2587	-23.2884	186.17	-31.2473	1.12368	-10.9805	2.56008	24.5625	341.525	-2.66581	0
0.2593	-15.2728	228.905	73.7186	-2.50667	-8.23534	3.16482	29.131	334.257	-0.592402	0
0.2600	11.4817	149.219	179.932	-4.66759	-6.42118	2.56008	27.3036	301.552	3.70251	0
0.2607	43.5439	-62.2708	207.992	-8.903	-7.01795	-2.92292	22.7082	290.584	3.11011	0.316227
0.2613	65.5324	-210.847	-16.3165	-14.435	-8.85598	-8.42608	25.4762	245.721	0.370251	-0.948681
0.2620	62.8245	-292.332	-229.02	-19.0161	-9.1663	-13.002	25.4762	112.652	-1.7772	-2.52982
0.2627	62.8245	-570.655	-203.973	-19.0161	-7.01795	-15.7435	18.4353	22.6626	-1.7772	-0.632454
0.2633	41.4858	-842.551	-90.7626	-12.8791	-4.27283	-17.2755	32.1677	-64.9486	3.70251	0.316227
0.2640	35.3117	-917.675	-287.011	-4.06253	-4.27283	-16.6707	53.2366	-182.424	10.7373	-0.316227
0.2647	115.9	-1045.24	-609.253	2.07449	-5.17991	-13.9091	42.8634	-174.496	13.1809	0
0.2653	150.129	-1103.78	-564.391	6.65564	-3.6522	-11.1676	4.11166	-266.666	15.0322	0
0.2660	53.9424	-661.33	-303.189	10.0267	-2.4348	-9.03082	-37.4081	-423.851	17.7721	0
0.2667	-37.9113	24.4199	-30.6584	12.4469	-2.74511	-4.45494	-58.4501	-177.865	19.5493	0
0.2673	-68.9986	187.069	162.541	14.6078	-3.36575	-0.786165	-48.0769	406.54	20.5119	0
0.2680	-81.2386	-98.258	79.8157	14.0028	-5.80055	-0.483794	-35.2582	680.936	16.8094	-0.316227
0.2687	-70.2984	-222.478	24.9077	13.3977	-6.42118	1.02806	-51.4361	419.094	13.7733	0
0.2693	-1.62477	-138.872	179.62	12.1876	-4.27283	2.25771	-73.4187	234.423	11.3297	-0.316227
0.2700	63.3661	-92.153	322.138	9.07588	-3.96251	4.69683	-85.3237	196.894	7.70122	-0.316227
0.2707	42.6773	-170.554	339.528	7.86576	-5.17991	11.4095	-108.193	97.3899	8.88603	0
0.2713	-3.68281	-153.203	298.027	3.02529	-5.49023	12.9415	-125.285	130.69	6.73857	0.316227
0.2720	-61.4163	160.529	377.981	-4.66759	-7.63858	9.57509	-101.179	-30.4591	0.962653	0.316227
0.2727	-150.779	570.076	482.046	-8.29794	-10.0734	8.36561	-69.4414	-330.161	-1.1848	0
0.2733	-196.922	733.369	433.201	-9.50806	-10.0734	10.2	-53.2635	-342.054	-1.7772	0
0.2740	-150.779	592.054	281.849	-7.69289	-7.63858	15.683	-12.9799	-265.477	0.666452	0
0.2747	-55.3505	406.527	122.841	-5.87771	-6.70763	16.5901	31.8721	-197.357	2.81391	0
0.2753	-2.16636	328.062	56.64	-7.9522	-7.01795	11.7118	37.6768	-56.4254	1.25885	-0.316227
0.2760	-3.46618	346.056	91.109	-9.50806	-7.32826	11.1071	16.0167	-56.095	1.25885	0
0.2767	37.1531	343.614	57.2289	-10.1131	-8.85598	10.5024	3.19796	-188.833	-0.222151	0
0.2773	143.955	254.803	-18.7414	-8.903	-10.3837	8.06323	24.24	-119.854	0.962653	-0.316227
0.2780	192.806	167.533	39.2496	-7.34714	-9.45274	3.78972	43.7771	78.8237	4.96136	0
0.2787	96.9447	185.848	158.246	-9.24875	-7.63858	-5.98695	46.5182	131.879	4.29491	0
0.2793	-36.7198	307.048	203.731	-10.7182	-6.42118	-15.4411	52.0273	-5.74825	3.40631	-0.316227
0.2800	-79.0722	372.661	157.934	-11.669	-6.11086	-20.9443	44.0727	-208.655	1.85126	-0.316227
0.2807	-49.5014	309.169	110.647	-11.669	-6.42118	-21.549	45.9001	-201.057	1.55505	0
0.2813	-1.62477	157.508	60.901	-8.29794	-5.17991	-20.017	69.4145	-65.5433	5.84997	0
0.2820	13.1065	117.794	-102.68	-8.29794	-5.17991	-23.081	66.0553	-44.4664	6.73857	0
0.2827	-21.447	272.539	-197.287	-9.85381	-5.80055	-27.032	38.2949	105.649	4.59111	0
0.2833	-24.8048	302.421	-241.214	-10.7182	-3.6522	-28.564	9.88948	405.945	3.40631	0
0.2840	9.96526	178.201	-335.51	-11.669	-1.52772	-28.564	-15.1298	453.848	1.25885	0
0.2847	10.6152	77.8224	-277.242	-11.669	-1.52772	-25.8225	-15.7211	342.186	0.0740502	0
0.2853	-8.34049	-47.2975	-236.953	-13.1384	-2.4348	-24.8952	19.0534	300.363	-4.22086	0
0.2860	-8.88208	-149.861	-258.604	-15.04	-3.6522	-24.5929	62.6961	200.858	-9.40438	0
0.2867	-4.98263	-74.7378	-229.02	-14.6943	-4.89347	-22.1537	88.0379	99.8346	-11.5518	-0.316227
0.2873	6.93236	110.468	-235.117	-15.6451	-4.89347	-19.7146	128.321	90.3863	-14.5879	0
0.2880	23.3967	171.196	-192.992	-15.6451	-3.36575	-16.0458	199.107	37.5949	-15.5505	0.316227
0.2887	-5.19927	212.71	-36.1318	-13.4842	-1.52772	-13.002	195.129	-228.212	-12.7366	-1.26491
0.2893	-78.5306	271.896	186.652	-12.8791	0	-13.002	121.899	-532.803	-11.5518	-2.21359
0.2900	-118.5	-46.0765	255.59	-11.9283	0	-14.2316	72.1556	-227.882	-10.9594	-0.316227
0.2907	-81.2386	-608.184	150.313	-12.8791	-2.14835	-15.4411	22.4126	514.568	-11.5518	0.316227
0.2913	-8.55713	-778.802	142.691	-15.2993	-3.36575	-14.534	-11.1525	701.353	-13.1069	-0.316227
0.2920	27.4045	-584.407	300.175	-14.435	-1.2174	-10.2605	-13.8937	543.573	-9.99678	0.316227
0.2927	26.7546	-328.641	364.263	-12.8791	0.310317	-8.12371	-19.6983	481.003	-7.55312	0
0.2933	25.2381	-137.651	161.918	-15.2993	0.310317	-9.33319	-31.6034	-100.627	-10.293	-0.316227
0.2940	28.0544	19.8572	-88.3376	-16.8552	-0.310317	-10.5628	-61.8093	-739.41	-10.9594	-0.316227
0.2947	48.4182	30.8462	-219.251	-13.4842	-1.52772	-7.51897	-76.1598	-661.842	-7.55312	0
0.2953	89.6874	-158.408	-220.775	-6.48277	-2.14835	2.56008	-45.0402	-373.174	-2.07341	0
0.2960	165.943	-77.8224	-261.653	-2.76598	-4.58315	11.7118	-4.13853	-226.362	1.85126	0
0.2967	222.702	140.672	-393.501	-5.53196	-10.3837	11.1071	39.5042	-143.706	-1.481	0
0.2973	157.711	163.613	-352.623	-5.53196	-14.0359	9.57509	85.888	-5.74825	-4.51706	-0.316227
0.2980	31.0873	211.811	-173.176	-0.691495	-11.9114	5.92648	87.4198	94.0863	-0.222151	0.316227
0.2987	-71.165	343.935	-71.8479	3.88966	-7.01795	-3.54782	62.4005	-73.4719	6.44237	0.316227
0.2993	-143.846	329.283	-12.0208	7.00139	-2.14835	-8.12371	53.8547	-262.107	12.2923	0
0.3000	-151.429	156.544	111.271	4.84047	-0.620635	-8.42608	28.5129	-117.145	11.9221	0
0.3007	-71.4899	48.1972	162.541	0.259311	-0.907081	-8.12371	-18.1666	134.654	7.03477	0
0.3013	12.7815	71.3961	93.8457	-1.90161	-2.14835	-6.59169	-79.519	21.143	4.59111	-0.316227
0.3020	24.3716	130.647	45.0349	-2.76598	-4.27283	-5.98695	-155.195	-208.06	3.70251	-0.316227
0.3027	16.4643	137.009	-0.727486	-1.90161	-4.89347	-6.89407	-185.401	-139.081	3.99871	0.316227
0.3033	30.4374	66.5121	-1.97461	-0.691495	-3.96251	-8.42608	-143.613	-57.945	4.59111	0
0.3040	29.5708	28.0829	38.0025	-0.950806	-4.27283	-8.12371	-50.2268	-29.5341	3.11011	-0.316227
0.3047	-3.14122	130.904	-6.85916	1.12368	-5.17991	-2.01581	54.4459	107.763	3.70251	0
0.3053	-43.1106	231.025	-63.0142	3.63035	-5.80055	2.25771	87.7154	39.1145	6.44237	0
0.3060	-61.4163	70.4964	-42.5406	3.88966	-6.42118	1.65296	67.8827	-121.374	6.73857	0
0.3067	-62.6078	-189.19	3.53351	4.49472	-7.32826	2.56008	105.425	-10.0429	7.40502	0
0.3073	-60.7664	-236.809	16.6629	4.84047	-7.32826	3.16482	156.082	-70.1022	6.14617	-0.316227
0.3080	-48.6348	-178.522	25.1849	3.63035	-6.70763	5.60395	119.776	-371.654	4.59111	-0.316227
0.3087	-36.7198	-100.057	55.1158	5.09978	-7.01795	11.1071	44.0727	-321.902	7.40502	0
0.3093	-33.037	-7.00466	-5.3349	7.2607	-8.85598	14.7759	3.49357	-95.7381	11.0335	-0.316227
0.3100	-17.1143	-4.88398	-103.58	11.4961	-10.0734	19.9565	-13.3024	17.7733	15.6246	-0.316227
0.3107	15.8144	-19.2146	-61.4899	14.6078	-10.3837	24.23	-51.1405	401.651	18.6607	-0.316227
0.3113	56.6504	-3.9843	30.3812	12.4469	-9.45274	18.7269	-99.0561	740.996	16.217	-0.316227
0.3120	85.6796	-50.9605	14.2033	10.286	-8.23534	6.53122	-105.156	475.519	12.8847	0
0.3127	88.1709	-137.009	-125.266	8.47082	-8.23534	-2.01581	-81.9645	55.3021	11.0335	0
0.3133	71.5983	-172.096	-277.242	8.21151	-7.92503	-1.71344	-70.0595	-24.9752	10.7373	0
0.3140	49.9346	-179.743	-247.034	9.68093	-6.11086	2.56008	-56.3271	274.991	11.9221	0
0.3147	28.271	-219.715	-99.631	9.42162	-4.58315	5.30158	-43.804	450.478	10.1449	0
0.3153	-12.8899	-304.221	-71.8479	8.47082	-4.58315	7.74071	-46.2495	164.255	7.99742	0
0.3160	-54.7006	-365.592	-102.68	7.86576	-5.17991	8.06323	-45.3358	-192.203	5.84997	-0.316227
0.3167	-45.277	-336.288	-123.742	8.81657	-5.49023	8.36561	-36.4943	-216.914	5.84997	-0.316227
0.3173	6.06581	-295.417	-182.945	10.8911	-5.17991	10.5024	-30.0716	41.2288	8.58982	0
0.3180	28.596	-226.463	-140.509	10.0267	-6.70763	9.27272	-30.9853	107.169	5.84997	-0.316227
0.3187	24.0466	-4.24135	13.6144	8.81657	-8.85598	7.43833	-31.3077	-167.162	3.70251	-1.58113
0.3193	88.7125	189.19	62.737	10.286	-7.32826	8.36561	-26.4167	-528.178	7.03477	-1.58113
0.3200	186.09	108.669	47.1827	10.6317	-5.49023	9.87746	-24.885	-636.206	6.44237	0.316227
0.3207	152.837	-40.8712	116.432	9.68093	-6.42118	12.0142	-26.1211	-445.787	4.59111	0.316227
0.3213	-6.49908	16.1943	189.389	8.21151	-7.63858	12.0142	-26.1211	-266.071	3.70251	-0.316227
0.3220	-111.134	131.225	149.724	7.00139	-7.92503	9.87746	-27.3305	-104.592	2.81391	0
0.3227	-103.227	156.287	41.051	7.2607	-7.92503	8.66798	-27.6261	11.034	2.22151	0
0.3233	-74.1979	130.904	-20.8893	8.21151	-9.1663	9.27272	-24.2669	49.2235	2.51771	0
0.3240	-74.8478	70.8177	-6.2356	10.6317	-11.2908	12.0142	-20.6121	174.628	4.96136	-0.316227
0.3247	-87.3044	28.7255	40.4621	10.286	-12.5082	13.2439	-23.0575	253.386	4.96136	0
0.3253	-75.1727	15.5516	102.091	7.86576	-11.9114	12.0142	-28.2442	185.001	2.51771	0
0.3260	-45.8185	5.2053	171.375	6.30989	-10.9805	10.2	-27.3305	158.771	0.962653	0
0.3267	-36.0699	0.899681	226.318	5.44553	-9.45274	8.06323	-23.9713	193.855	0.0740502	0
0.3273	-42.4607	-28.9826	264.77	6.30989	-7.32826	7.74071	-23.3532	153.881	1.25885	-0.316227
0.3280	-42.1357	-76.9227	258.362	5.09978	-6.42118	6.22885	-27.3305	33.3002	0.666452	-0.316227
0.3287	-34.5535	-82.0638	160.393	2.42023	-6.70763	3.16482	-30.394	-96.3988	-2.66581	0
0.3293	-28.4877	-48.5185	18.1872	2.42023	-6.11086	2.56008	-30.0716	-171.787	-3.62846	0
0.3300	-23.2884	-45.4339	-74.3075	2.07449	-4.89347	2.25771	-30.9853	-93.0292	-4.22086	-0.316227
0.3307	-7.36563	-73.2597	-123.118	1.81518	-4.27283	1.65296	-32.5171	103.204	-5.10946	0
0.3313	14.8396	-93.374	-136.248	3.63035	-3.6522	4.09209	-31.3077	102.61	-3.33226	0
0.3320	11.8067	-100.379	-93.2222	3.02529	-3.6522	4.09209	-26.7124	-72.8772	-4.22086	-0.316227
0.3327	-3.68281	-67.7331	-61.1781	1.12368	-4.27283	0.42332	-17.5753	-170.201	-6.66452	-0.316227
0.3333	6.06581	-0.578366	-166.456	0.864369	-4.27283	-1.10869	-13.8937	-107.367	-6.07212	0
0.3340	16.1394	74.1594	-376.11	1.46943	-3.96251	-0.483794	-18.7846	212.487	-4.22086	0
0.3347	-3.14122	166.055	-478.963	3.88966	-3.96251	1.33043	-18.489	461.776	-1.1848	-0.316227
0.3353	-36.3949	169.975	-428.004	5.70484	-3.05543	2.86245	-14.8074	307.366	1.55505	-0.316227
0.3360	-48.3099	21.6566	-348.639	6.30989	-2.14835	3.78972	-12.6843	10.7697	3.11011	0
0.3367	-39.1028	-61.3068	-187.206	7.00139	-2.4348	4.69683	-8.11583	-158.969	3.99871	0
0.3373	-36.3949	-12.7883	58.7532	8.47082	-2.74511	6.22885	-0.779334	-151.899	6.44237	0
0.3380	-30.5457	-7.00466	171.063	10.6317	-2.4348	7.43833	3.49357	-102.477	9.18223	0
0.3387	-14.7313	-24.0986	206.156	10.0267	-2.74511	5.92648	1.04807	-184.605	9.18223	0
0.3393	-10.3985	8.54697	243.396	9.68093	-2.74511	5.30158	-2.31113	-182.424	7.70122	0
0.3400	-14.0813	19.8572	190.913	11.2368	-2.14835	6.53122	-3.52044	87.9416	6.73857	0
0.3407	-6.17413	-14.6519	137.807	10.286	-0.620635	5.60395	-7.49773	258.209	4.29491	-0.316227
0.3413	4.54936	-42.7348	68.8341	9.42162	0.907081	5.60395	-14.8074	195.374	2.81391	-0.316227
0.3420	9.96526	-43.6345	-42.2635	8.47082	1.52772	5.60395	-22.1438	196.564	0.962653	0
0.3427	24.3716	-62.8491	-61.7671	4.23541	0.907081	2.56008	-25.7987	256.689	-3.33226	0
0.3433	49.0681	-108.026	-4.39956	1.12368	0.310317	2.25771	-20.6121	190.815	-5.77592	-0.316227
0.3440	52.4259	-83.9274	8.10628	0.864369	-0.907081	4.99921	-9.02953	44.5985	-4.22086	-0.316227
0.3447	0.866545	-11.8886	-11.7437	1.81518	-1.83803	7.43833	3.78918	17.7733	-1.481	-0.316227
0.3453	-65.9657	22.2992	-17.2172	4.23541	-2.14835	10.5024	12.335	67.1951	1.85126	0
0.3460	-81.2386	55.8445	-58.4068	7.2607	-3.36575	13.8486	14.1624	-33.8288	6.44237	0
0.3467	-54.3757	85.4697	-109.677	9.42162	-4.27283	15.3806	7.14838	-216.584	9.18223	0
0.3473	-26.9712	78.7221	-99.631	8.21151	-3.05543	12.9415	-5.96594	-311.859	7.03477	0.316227
0.3480	-5.84918	46.7191	-24.2495	3.88966	-2.4348	8.06323	-19.994	-298.116	2.51771	0.316227
0.3487	8.12386	0.899681	130.497	-1.29655	-3.05543	2.86245	-45.6314	-144.301	-0.888602	-1.26491
0.3493	20.0388	-10.6676	276.964	-4.66759	-2.14835	-1.41107	-77.0735	80.938	-3.03606	-1.89736
0.3500	40.8359	14.0736	210.729	-5.87771	0.907081	-4.15257	-86.8286	209.712	-6.07212	-0.316227
0.3507	55.1339	25.6409	-2.25174	-7.9522	2.4348	-8.42608	-78.9009	104.724	-11.5518	0
0.3513	49.393	26.8619	-84.6656	-10.4589	2.74511	-9.95809	-62.1318	-98.5131	-15.5505	-0.316227
0.3520	37.4781	14.6519	-9.28411	-11.3232	3.36575	-9.03082	-34.9626	-46.0521	-16.7353	0
0.3527	21.5553	-57.6438	90.2083	-14.435	3.36575	-10.8652	-9.32514	258.869	-18.5866	0
0.3533	3.03291	-143.756	172.899	-19.0161	2.4348	-13.3043	5.02536	562.47	-22.2151	0
0.3540	-10.7235	-90.932	167.703	-22.9058	1.2174	-11.7723	15.6942	795.043	-24.9549	0.316227
0.3547	-23.2884	11.3103	116.155	-24.4616	0.620635	-8.72845	29.7491	613.477	-25.6214	0
0.3553	-29.6792	-7.90434	153.049	-22.3007	-1.2174	-5.05968	42.2453	-135.712	-23.1777	-0.316227
0.3560	-33.9036	-7.90434	145.74	-16.8552	-4.27283	-1.10869	45.3089	-559.298	-18.2904	-0.316227
0.3567	-44.627	40.2929	29.4805	-11.3232	-6.42118	1.95533	38.5905	-424.446	-13.1069	0
0.3573	-41.5941	-11.5673	-39.8039	-11.3232	-7.32826	1.65296	25.1537	-369.54	-11.848	0
0.3580	-26.6462	-53.4025	-55.0811	-16.8552	-8.85598	-2.01581	4.40727	-340.799	-17.0315	-0.948681
0.3587	-20.4721	-0.899681	-70.6355	-17.7196	-7.92503	-0.786165	-1.98865	-164.717	-17.9202	-1.26491
0.3593	-19.6056	38.4935	-78.2568	-15.04	-5.80055	2.56008	15.0761	22.6626	-16.4391	0
0.3600	-14.0813	40.2929	-74.5847	-14.435	-4.58315	3.46719	30.0447	108.688	-16.7353	-0.316227
0.3607	-8.34049	33.8666	-61.7671	-13.4842	-4.27283	4.69683	38.5905	72.4147	-15.8467	-0.316227
0.3613	-4.00777	24.7412	-31.5591	-10.4589	-4.58315	6.22885	44.0727	16.2537	-14.2917	0
0.3620	0.866545	21.6566	78.9149	-6.48277	-3.96251	7.74071	38.5905	7.66433	-11.848	0
0.3627	1.1915	23.5202	195.486	-2.50667	-3.36575	8.06323	22.7082	14.734	-9.10818	0
0.3633	-0.974863	24.0986	148.477	-0.691495	-3.05543	7.13596	5.93907	16.8483	-7.84932	0
0.3640	1.73309	23.8415	49.6076	-0.0864369	-2.74511	5.30158	-2.60674	18.6983	-6.66452	0.316227
0.3647	3.24954	23.5202	22.1364	1.46943	-2.74511	3.16482	-1.98865	17.1787	-5.77592	-0.316227
0.3653	-2.16636	17.9936	-0.727486	3.02529	-2.4348	2.56008	-0.779334	14.734	-5.47972	-0.316227
0.3660	-7.36563	1.86362	-16.3165	0.259311	-1.52772	0.120949	-3.84292	18.6983	-8.21957	0
0.3667	-6.49908	-13.1096	-16.6283	-7.69289	-1.2174	-5.05968	-8.70705	29.3359	-16.1429	0
0.3673	-4.98263	-17.9936	-7.13629	-15.6451	-0.907081	-9.03082	-10.8569	39.7092	-22.8075	0
0.3680	-5.52422	-19.8572	31.5937	-21.0906	0	-9.95809	-1.07494	29.6663	-24.9549	0
0.3687	-5.84918	-22.5563	49.2959	-22.0414	0.907081	-8.12371	16.6079	0.0660718	-21.6227	0
0.3693	-4.98263	-21.6566	20.0232	-16.5095	2.12448	-2.92292	32.1677	-13.3465	-14.8841	0.316227
0.3700	-3.14122	-14.6519	-2.8753	-8.903	2.12448	2.86245	44.0727	-6.3429	-5.47972	0
0.3707	-5.19927	-4.88398	-9.90767	-5.27265	0	4.99921	35.5269	-2.97323	1.55505	-0.316227
0.3713	-7.36563	3.34167	-20.5775	-4.66759	-0.907081	5.92648	3.49357	-4.49289	4.29491	0
0.3720	-4.33272	4.88398	-29.4459	-4.66759	0.907081	7.13596	-16.9572	-6.67326	5.55377	0
0.3727	-3.68281	-3.02036	-26.9863	-9.24875	1.83803	3.78972	-7.79334	-11.8269	2.22151	-0.316227
0.3733	-6.49908	-11.8886	-14.4804	-12.8791	2.4348	1.33043	10.212	-23.4555	-3.03606	0
0.3740	-7.04067	-7.90434	-14.4804	-12.274	1.83803	1.65296	26.3899	-32.5734	-5.10946	0
0.3747	-6.49908	5.52661	-25.462	-8.64369	1.2174	2.56008	45.9001	-26.8252	-2.07341	-0.316227
0.3753	-7.36563	11.6316	-23.3142	0.518621	1.83803	8.06323	61.7824	-16.4519	7.03477	0
0.3760	-9.20704	4.88398	-11.7437	9.07588	1.52772	12.0142	70.3282	-14.8662	17.1056	0
0.3767	-9.53199	-4.56267	-2.56352	13.052	0.620635	12.3166	82.8244	-12.7519	22.3632	-0.316227
0.3773	-11.0484	-11.3103	-2.56352	14.8671	-0.310317	14.151	94.4338	-5.41789	23.2518	0
0.3780	-12.5649	-16.4513	-6.54738	16.423	-1.52772	17.215	89.2472	9.51435	23.8442	-0.316227
0.3787	-10.7235	-16.7726	-11.4319	17.0281	-1.83803	20.2589	68.7964	34.2252	25.3992	-1.58113
0.3793	-6.82404	-12.21	-15.6929	14.6078	-0.310317	20.2589	37.3543	42.1538	24.1404	-0.632454
0.3800	-2.16636	-4.56267	-13.8569	9.07588	1.2174	18.1221	22.4126	30.2609	18.0683	0.632454
0.3807	-0.649908	0	-14.4804	-1.90161	0.620635	12.0142	22.117	17.1787	5.55377	0.316227
0.3813	-0.649908	-4.24135	-15.0694	-9.50806	0.907081	6.83359	-6.87964	6.14468	-3.03606	-0.316227
0.3820	-0.649908	-9.76797	-8.97233	-8.903	3.05543	9.27272	-43.2127	0.396431	-1.7772	0
0.3827	-4.65768	-10.0893	-9.28411	-11.669	3.6522	8.66798	-56.0046	-3.89824	-4.81326	0.316227
0.3833	-5.52422	-5.78366	-8.38341	-9.85381	4.58315	8.97035	-55.4134	-6.67326	-3.03606	0
0.3840	-5.19927	2.76331	-7.75985	-0.345748	5.49023	13.2439	-37.0856	-5.1536	6.14617	0
0.3847	-7.36563	17.4153	-16.9054	3.02529	5.17991	15.0782	-4.75663	-3.30359	10.7373	0
0.3853	-4.65768	28.7255	-15.6929	4.23541	6.70763	17.8197	36.7631	-0.264287	17.7721	-0.316227
0.3860	-6.17413	22.8776	-12.6444	5.09978	6.70763	17.5174	91.0746	0.660718	20.8081	-0.316227
0.3867	-11.3734	3.08462	-25.462	10.286	5.17991	17.8197	136.249	4.62503	23.2518	0
0.3873	-11.0484	-16.4513	-41.0164	18.5839	4.58315	18.7269	167.987	9.18399	30.8789	0
0.3880	-10.7235	-22.5563	-56.8825	19.7941	3.05543	13.8486	174.087	7.99469	33.0264	0
0.3887	-8.34049	-15.2303	-69.423	20.0534	3.6522	12.6391	124.049	11.6286	33.6188	-0.316227
0.3893	-6.49908	-7.90434	-80.7163	17.6331	4.27283	10.2	70.3282	11.959	30.2865	0
0.3900	-8.01554	-3.9843	-87.4023	14.2621	3.05543	4.39446	100.83	4.36074	25.9916	0
0.3907	-4.65768	1.54231	-84.3538	17.6331	3.6522	3.46719	177.446	2.77502	31.7675	0
0.3913	0.54159	8.86828	-87.7141	20.0534	3.05543	4.99921	197.575	4.36074	33.915	0
0.3920	1.1915	11.6316	-72.7486	20.6584	2.12448	10.2	183.842	3.10538	32.7302	0
0.3927	-6.17413	4.30562	11.7784	23.7702	1.83803	15.9854	173.173	0.0660718	36.9511	0
0.3933	-16.5727	-3.66299	131.71	24.0295	0.907081	16.2877	136.867	-0.528575	40.6536	0
0.3940	-17.7642	-4.24135	165.278	21.6092	1.2174	16.9126	88.6291	4.03038	38.5061	0.316227
0.3947	-10.3985	-2.12068	107.599	19.189	2.74511	16.9126	59.6325	7.99469	31.7675	0
0.3953	-5.84918	1.86362	60.5892	14.2621	2.12448	10.8047	51.4092	6.8054	21.9929	-0.316227
0.3960	-6.82404	11.8886	37.4136	9.68093	0	3.78972	50.7911	5.55003	12.2923	0
0.3967	-9.85695	19.2146	20.0232	9.07588	-1.83803	0.725691	60.5731	4.36074	5.55377	0
0.3973	-18.4141	16.7726	14.5151	6.05058	-2.74511	-3.24545	48.05	0.991078	-1.481	0
0.3980	-32.0621	5.52661	14.8269	0.864369	-2.74511	-7.51897	-27.3305	-2.70895	-9.40438	-0.316227
0.3987	-42.7856	-7.64729	16.6629	-1.29655	-1.83803	-8.42608	-105.748	-3.89824	-14.5879	-0.316227
0.3993	-52.2093	-10.3463	16.3511	-1.29655	-2.14835	-8.42608	-123.162	-1.18929	-16.4391	0
0.4000	-62.2829	-5.46235	14.2033	0.259311	-3.6522	-6.28932	-105.156	0.991078	-16.1429	0.316227
0.4007	-68.9986	-5.2053	14.2033	0.518621	-5.17991	-3.54782	-93.8695	-1.18929	-16.1429	-0.316227
0.4013	-70.2984	-5.46235	13.6144	1.46943	-5.49023	-1.41107	-101.502	-2.04823	-14.5879	-0.316227
0.4020	-67.1572	-2.12068	10.843	2.07449	-5.49023	-1.41107	-106.366	0.0660718	-12.4404	0
0.4027	-62.2829	3.34167	7.7945	-0.345748	-5.17991	-2.62055	-80.1371	1.25537	-13.6993	0
0.4033	-56.867	8.86828	6.58202	-1.55586	-4.89347	0.120949	-30.6897	3.10538	-13.4031	-0.316227
0.4040	-54.7006	10.6676	5.05776	-2.76598	-5.80055	4.69683	7.14838	3.70002	-11.2556	0
0.4047	-49.1764	10.0893	9.31875	2.42023	-5.80055	14.151	25.1537	4.95539	-3.92466	-0.316227
0.4053	-39.1028	10.4106	17.5636	10.8911	-4.89347	23.9276	35.5269	6.47504	5.55377	-0.316227
0.4060	-33.9036	9.1896	20.6121	13.052	-5.49023	25.1371	38.5905	4.95539	9.47843	0
0.4067	-30.8707	10.4106	21.2357	15.4722	-6.11086	25.4395	40.4179	5.21968	14.3657	-0.316227
0.4073	-35.2034	14.9733	19.0879	18.5839	-7.01795	25.1371	39.7998	6.8054	19.5493	0
0.4080	-51.6677	17.4153	20.0232	21.2635	-7.63858	25.1371	37.6768	7.66433	23.548	0
0.4087	-64.4493	14.6519	17.2518	22.8193	-7.32826	25.4395	34.9357	7.99469	25.9916	-0.948681
0.4093	-69.6485	10.0893	2.32103	19.7941	-6.42118	21.1861	28.2173	5.21968	23.8442	-1.26491
0.4100	-82.755	8.54697	-3.81064	20.6584	-3.6522	22.0933	30.6628	7.06969	24.4366	0.316227
0.4107	-116.334	6.74761	-4.39956	20.6584	-3.05543	22.0933	33.0814	11.034	23.8442	0.316227
0.4113	-151.429	3.08462	-12.0208	18.2382	-4.27283	18.4245	19.349	10.4394	20.5119	-0.316227
0.4120	-147.421	0	-21.4782	21.955	-2.14835	20.5612	-2.92922	12.2894	25.3992	0.316227
0.4127	-80.372	-3.66299	-36.1318	20.6584	-0.907081	17.5174	-25.503	11.6286	23.8442	0
0.4133	1.1915	-1.221	-33.7069	16.0773	0	12.0142	-31.6034	14.9983	16.217	0
0.4140	35.6366	13.7523	-20.2657	16.0773	3.36575	12.0142	-16.6616	30.2609	15.6246	-0.316227
0.4147	79.6138	28.0829	-23.9378	13.3977	5.49023	9.27272	-10.8569	44.3342	12.2923	-0.316227
0.4153	176.992	34.1879	-16.3165	7.86576	5.49023	3.16482	-23.0575	54.0468	3.11011	0
0.4160	255.631	43.3132	5.36954	4.84047	3.96251	1.02806	-29.1579	64.4201	-5.10946	0
0.4167	305.999	56.1658	25.1849	2.67954	2.74511	0.42332	-21.8482	75.1237	-10.9594	0
0.4173	375.322	65.6124	62.737	0.518621	2.4348	-0.786165	-13.8937	87.347	-13.1069	0
0.4180	379.005	70.4964	91.4208	0.518621	2.4348	-1.71344	-14.2161	97.3899	-12.1442	0
0.4187	260.288	68.9541	87.4369	-0.0864369	2.4348	-1.41107	-38.3218	97.3899	-14.2917	0
0.4193	82.3217	62.8491	75.8664	0.259311	3.05543	-0.483794	-64.8729	91.6416	-17.624	0
0.4200	-112.651	61.6281	74.0304	2.07449	5.49023	-0.483794	-64.5504	90.0559	-17.624	0
0.4207	-175.259	65.0341	71.2937	2.67954	8.85598	-3.24545	-55.709	90.3863	-18.2904	0
0.4213	-45.277	63.4918	61.8017	2.07449	12.8185	-5.98695	-52.6723	84.9023	-18.2904	0
0.4220	88.3876	58.2865	56.64	3.88966	16.781	-5.98695	-55.709	79.4184	-13.9955	-0.316227
0.4227	109.835	53.0812	47.1827	6.65564	19.5261	-4.45494	-60.6	74.1987	-9.70058	-0.316227
0.4233	100.952	35.0876	15.1386	6.05058	19.8364	-6.59169	-65.7866	54.3771	-10.293	0
0.4240	92.0704	4.88398	-29.723	2.07449	18.9294	-10.2605	-82.5557	25.1073	-14.2917	0
0.4247	-89.1458	-17.0939	-63.2913	1.12368	19.2158	-10.2605	-97.2287	9.51435	-13.6993	-0.316227
0.4253	-338.169	-20.7569	-74.3075	2.67954	19.5261	-10.5628	-76.7779	15.3287	-11.5518	0.316227
0.4260	-390.053	-10.989	-66.6516	3.2846	20.1468	-13.6067	-35.8763	31.5163	-11.848	0.316227
0.4267	-326.904	2.76331	-42.8524	9.07588	21.3642	-10.8652	-9.94323	45.8539	-5.10946	0
0.4273	-174.609	12.21	-14.1687	12.4469	19.8364	-9.03082	4.40727	50.7432	1.55505	0
0.4280	105.827	17.4153	14.5151	7.00139	16.1842	-14.2316	19.349	47.9682	-1.481	0
0.4287	329.179	30.5249	58.7532	3.88966	12.1979	-16.3684	27.8948	44.9289	-3.62846	-0.316227
0.4293	273.395	53.0812	110.959	2.67954	7.63858	-16.3684	30.6628	46.1181	-4.22086	0
0.4300	-34.5535	68.0544	145.74	3.63035	4.58315	-14.2316	42.5678	44.3342	-3.92466	0.316227
0.4307	-287.26	61.6281	148.199	9.42162	3.05543	-5.05968	23.6219	29.6663	2.22151	0
0.4313	-336.111	37.2725	117.68	10.0267	-0.907081	-2.01581	-49.3131	-1.18929	3.70251	0
0.4320	-356.258	12.8526	77.3907	8.81657	-5.17991	-1.71344	-91.424	-28.3448	3.70251	0.316227
0.4327	-518.844	-3.66299	41.6746	11.4961	-7.01795	3.46719	-98.1424	-38.3877	8.29362	0
0.4333	-693.777	-22.8776	2.00925	9.68093	-8.23534	2.86245	-118.889	-45.1271	8.29362	0
0.4340	-527.401	-42.7348	-33.0833	7.60645	-7.63858	-2.31818	-122.839	-52.461	6.73857	0.316227
0.4347	-69.9735	-53.7238	-54.1458	9.68093	-4.27283	-3.54782	-95.3744	-57.02	8.88603	0
0.4353	264.838	-61.3068	-70.0119	10.8911	-0.620635	-2.92292	-61.5137	-60.654	8.88603	0
0.4360	381.713	-65.2911	-77.945	7.00139	-1.2174	-5.68458	-34.6669	-57.945	3.99871	0
0.4367	421.032	-60.0858	-67.587	5.70484	-3.05543	-7.19644	-1.98865	-47.5717	2.22151	-0.316227
0.4373	478.766	-53.4025	-50.4737	8.21151	-2.14835	-6.59169	30.9584	-40.2378	4.59111	0
0.4380	540.399	-48.8398	-39.8039	6.30989	-3.6522	-9.65572	43.7771	-36.2734	1.25885	-0.316227
0.4387	576.685	-43.9558	-32.7715	5.09978	-6.42118	-11.7723	46.5182	-27.0895	-5.77592	-0.948681
0.4393	600.515	-37.8509	-25.1502	8.21151	-6.70763	-9.03082	53.2366	-17.9715	-7.25692	-0.632454
0.4400	472.7	-31.1033	-18.7414	8.47082	-8.85598	-8.42608	56.5958	-10.9019	-9.40438	0
0.4407	135.181	-22.5563	-12.9562	8.21151	-13.4391	-9.95809	72.4512	0.991078	-10.293	0
0.4413	-210.679	-10.0893	-4.08778	10.8911	-17.0913	-9.65572	124.64	16.518	-8.21957	0
0.4420	-504.221	1.86362	1.07391	10.286	-20.1468	-11.7723	151.513	24.1823	-10.9594	0.316227
0.4427	-679.696	12.8526	6.58202	10.0267	-21.6745	-11.1676	108.784	29.9966	-15.1803	0
0.4433	-565.204	26.8619	21.8246	12.1876	-21.6745	-8.12371	60.8687	42.1538	-16.4391	0
0.4440	-315.964	39.0719	38.0025	11.8419	-22.2712	-9.03082	41.6272	49.2235	-17.624	0
0.4447	-180.458	43.6345	44.1342	10.6317	-23.2022	-11.1676	31.5765	46.1181	-18.5866	-0.316227
0.4453	-127.599	32.9669	33.118	8.81657	-24.7299	-11.1676	23.9444	32.3752	-18.8828	0
0.4460	-65.0992	9.76797	7.7945	10.0267	-24.1093	-8.72845	20.5852	13.2144	-13.9955	0
0.4467	-123.374	-10.0893	-19.365	12.4469	-22.2712	-7.82134	17.226	1.25537	-6.66452	-0.316227
0.4473	-361.349	-20.1143	-42.5406	10.6317	-22.2712	-10.5628	10.212	-1.78394	-5.47972	0
0.4480	-542.999	-27.4403	-58.1296	10.6317	-21.9848	-9.03082	7.14838	0.0660718	-4.22086	0
0.4487	-536.608	-38.1079	-72.7486	10.6317	-20.1468	-7.82134	4.70288	1.25537	-3.03606	0
0.4493	-495.664	-45.1768	-80.9935	7.2607	-18.9294	-9.95809	-2.31113	4.03038	-4.81326	0
0.4500	-525.234	-36.8869	-63.9149	9.07588	-17.0913	-7.51897	-5.34785	17.7733	-3.62846	-0.316227
0.4507	-491.439	-18.6362	-28.5105	10.8911	-16.1842	-5.05968	-13.598	31.5163	-3.03606	0
0.4513	-303.724	6.42629	20.6121	7.86576	-19.2158	-7.82134	-32.8127	34.8199	-5.10946	0
0.4520	-153.27	36.0515	80.4392	10.286	-22.5816	-6.59169	-45.0402	40.3699	-2.36961	0
0.4527	-155.436	54.6235	121.005	13.3977	-25.3267	-4.75731	-48.3994	48.2985	-0.222151	-0.316227
0.4533	-207.862	53.0812	124.989	11.4961	-26.2576	-6.59169	-48.0769	50.4128	-3.03606	-0.316227
0.4540	-340.66	40.8712	106.975	12.7927	-22.8919	-4.45494	-35.8763	44.0038	-0.592402	0
0.4547	-469.775	26.2835	77.7025	12.7927	-20.1468	-3.85019	-29.1579	29.3359	1.85126	0
0.4553	-301.233	13.1096	47.4598	9.68093	-17.4016	-7.51897	-40.7673	11.959	0.666452	0
0.4560	104.96	1.221	25.1849	11.8419	-13.7256	-7.51897	-52.9679	-2.04823	4.59111	0
0.4567	346.293	-16.4513	2.90995	16.7688	-10.9805	-4.45494	-57.8589	-13.0822	10.4411	0
0.4573	332.536	-42.0922	-25.1502	16.7688	-9.45274	-6.59169	-71.2688	-34.0931	7.70122	-0.316227
0.4580	298.091	-65.6124	-49.2612	13.3977	-8.23534	-9.65572	-96.2881	-60.3897	1.25885	-0.316227
0.4587	317.589	-77.1798	-60.2428	11.4961	-8.23534	-9.33319	-101.179	-69.2433	-0.222151	0
0.4593	373.806	-78.4008	-60.2428	10.286	-7.32826	-9.95809	-83.1738	-62.504	0.370251	0
0.4600	423.849	-77.5011	-58.7185	9.07588	-6.42118	-11.47	-74.3324	-58.87	-0.222151	0
0.4607	373.481	-77.5011	-62.3906	9.07588	-6.11086	-12.0949	-63.6367	-63.6933	-0.888602	-0.632454
0.4613	271.228	-78.1437	-73.684	10.8911	-3.6522	-11.47	-38.6174	-64.0236	-0.592402	-0.632454
0.4620	221.835	-79.3647	-87.7141	8.47082	-1.2174	-13.002	-15.4254	-49.0914	-3.03606	0.316227
0.4627	205.371	-75.9588	-94.7464	6.65564	-0.310317	-14.534	-18.7846	-24.0502	-4.81326	0
0.4633	186.415	-68.6328	-99.631	8.47082	2.12448	-14.2316	-121.334	-2.70895	-3.92466	-0.316227
0.4640	245.015	-61.9495	-101.155	6.65564	3.05543	-14.534	-259.868	13.4787	-6.66452	0
0.4647	378.355	-43.9558	-73.9958	4.49472	0.907081	-13.6067	-297.115	32.3752	-10.6632	-0.316227
0.4653	386.912	-15.2303	-28.8223	5.44553	-0.907081	-11.7723	-300.769	52.2628	-11.2556	0
0.4660	257.797	6.74761	2.90995	5.09978	-1.52772	-11.7723	-323.343	64.1558	-12.1442	0
0.4667	144.93	22.2992	31.0048	5.09978	-2.74511	-10.8652	-288.569	69.6397	-12.1442	0
0.4673	97.9195	37.2725	55.7047	5.09978	-4.27283	-9.33319	-191.528	73.2737	-11.5518	0
0.4680	143.413	48.5185	66.4091	4.49472	-7.01795	-6.89407	-72.1825	77.5683	-12.4404	0
0.4687	124.457	58.9291	77.0789	7.2607	-8.54566	-1.71344	45.3089	90.3863	-9.40438	0
0.4693	-118.825	65.6124	84.7002	9.42162	-8.54566	0.42332	142.645	99.8346	-6.07212	0
0.4700	-409.876	59.1862	77.9796	8.47082	-7.63858	-2.92292	221.68	86.7523	-4.81326	0
0.4707	-445.946	42.7348	65.162	8.81657	-5.80055	-6.59169	271.423	62.9004	-1.7772	0
0.4713	-211.22	27.7616	49.2959	6.05058	-4.89347	-10.8652	279.378	42.4842	-3.92466	-0.316227
0.4720	44.8437	19.8572	35.8893	4.49472	-3.6522	-11.47	264.114	28.4109	-6.66452	-1.26491
0.4727	263.321	11.8886	26.1202	5.70484	-0.907081	-7.82134	231.462	20.4823	-5.47972	-0.948681
0.4733	476.6	-6.68334	7.7945	4.49472	1.83803	-7.82134	186.61	3.10538	-5.77592	0.316227
0.4740	571.486	-27.4403	-14.4804	5.09978	3.6522	-7.19644	169.196	-24.3805	-3.33226	0
0.4747	420.816	-37.2082	-32.1826	3.02529	3.6522	-6.59169	182.929	-46.3164	-3.62846	0
0.4753	181.216	-41.1925	-46.8363	-1.90161	3.05543	-7.51897	169.519	-60.654	-9.10818	0.316227
0.4760	150.67	-46.3978	-56.2936	0.518621	4.58315	-2.62055	103.893	-67.6576	-6.96072	0
0.4767	255.631	-48.5185	-58.4068	2.07449	3.96251	0.725691	43.7771	-67.9879	-3.92466	0
0.4773	280.435	-42.0922	-54.7693	-2.16092	1.83803	-2.62055	18.4353	-64.354	-7.25692	-0.316227
0.4780	282.494	-31.4246	-44.0649	-1.55586	2.74511	-3.24545	13.2487	-60.0593	-6.36832	-0.316227
0.4787	239.166	-21.9779	-30.9701	-2.50667	4.58315	-2.92292	16.9304	-57.2843	-5.77592	0
0.4793	34.9867	-10.3463	-16.3165	-7.69289	4.27283	-3.54782	19.6715	-52.7253	-9.99678	-0.316227
0.4800	-98.3528	1.86362	-0.138569	-8.29794	3.96251	-0.181423	26.0674	-40.2378	-9.10818	0
0.4807	-24.8048	4.30562	3.22173	-11.0639	3.6522	-0.483794	30.0447	-29.2698	-10.9594	0.316227
0.4813	38.6696	-0.899681	-5.61204	-15.9044	3.96251	-3.85019	31.254	-29.8645	-16.4391	0
0.4820	17.9808	-2.76331	-11.7437	-15.2993	5.17991	-2.92292	40.1223	-31.3841	-14.8841	-0.316227
0.4827	-33.037	-2.44199	-16.6283	-16.2501	4.89347	-3.85019	57.8051	-28.9395	-13.4031	0
0.4833	-112.326	-6.68334	-24.2495	-17.1145	5.17991	-4.75731	80.7014	-31.3841	-13.9955	0
0.4840	-160.852	-13.1096	-30.6584	-14.435	7.01795	-1.71344	77.6378	-40.2378	-10.293	-0.316227
0.4847	-122.724	-17.9936	-38.2796	-15.6451	8.23534	-0.786165	37.3543	-48.4967	-10.6632	-0.316227
0.4853	-52.8592	-19.8572	-45.0002	-16.8552	10.0734	-1.41107	-25.503	-50.2807	-12.1442	0
0.4860	-1.84141	-16.7726	-46.5245	-14.0892	11.2908	-0.181423	-88.0648	-45.1271	-9.40438	0
0.4867	41.4858	-11.3103	-45.312	-11.669	11.6011	1.33043	-113.998	-35.9431	-6.66452	0.316227
0.4873	81.9968	-8.54697	-44.3767	-11.669	12.8185	3.16482	-103.329	-30.7895	-5.10946	0
0.4880	145.796	-8.54697	-42.2635	-13.1384	13.1288	2.56008	-89.5966	-31.6484	-6.66452	-0.316227
0.4887	202.23	-6.42629	-36.1318	-15.9044	13.1288	-0.181423	-103.329	-31.3841	-10.293	0
0.4893	220.319	-1.54231	-30.9701	-16.8552	13.1288	-2.62055	-120.421	-24.3805	-12.7366	0
0.4900	216.311	1.54231	-29.1341	-15.6451	14.3462	-2.01581	-103.007	-14.8662	-13.4031	0
0.4907	115.575	3.08462	-23.626	-12.274	16.1842	0.42332	-72.1825	-7.59826	-10.6632	0
0.4913	-72.6814	7.00466	-16.6283	-11.3232	16.1842	0.725691	-49.3131	-4.49289	-11.2556	0
0.4920	-207.537	13.1096	-13.268	-13.4842	14.3462	-1.71344	-30.9853	-3.30359	-14.8841	0
0.4927	-230.501	19.8572	-8.66055	-13.8299	12.8185	-2.92292	-11.7706	-0.264287	-16.1429	-0.316227
0.4933	-188.365	24.4199	-2.25174	-13.1384	11.6011	-2.92292	7.47086	-0.528575	-16.1429	-0.316227
0.4940	-153.27	24.7412	-1.35105	-12.5334	10.9805	-2.62055	21.4989	-5.1536	-12.1442	0
0.4947	-144.063	21.3996	-6.85916	-11.0639	10.9805	-1.71344	32.1677	-7.59826	-1.7772	-0.316227
0.4953	-136.481	17.7366	-9.59589	-10.4589	10.3837	-1.41107	39.5042	-8.19291	2.51771	0
0.4960	-127.924	16.7726	-5.92382	-12.274	9.14243	-2.31818	48.3456	-9.3822	-2.07341	0
0.4967	-143.197	17.0939	-6.54738	-10.7182	9.45274	-2.01581	64.8191	-6.93754	-3.33226	0
0.4973	-187.174	14.6519	-19.0532	-8.64369	9.76306	-1.41107	79.4921	-1.18929	-1.481	0
0.4980	-245.99	12.8526	-31.5591	-8.29794	8.85598	-1.10869	83.4425	5.88039	-0.222151	-0.632454
0.4987	-285.96	13.1096	-40.1157	-7.34714	9.76306	-0.786165	76.7241	12.5537	2.22151	-1.26491
0.4993	-243.932	10.0893	-51.7208	-7.69289	10.6701	-1.71344	55.6821	14.4037	2.22151	-0.632454
0.5000	-102.036	5.52661	-56.8825	-10.1131	9.14243	-3.24545	27.8948	12.884	-0.222151	0.316227
0.5007	56.4337	8.54697	-46.2127	-11.0639	6.70763	-2.92292	9.29827	13.4787	-0.222151	0
0.5013	133.34	18.3149	-23.626	-11.669	5.49023	-1.71344	3.19796	15.9233	-0.888602	0
0.5020	143.63	33.2882	12.0901	-11.669	4.58315	-0.786165	4.70288	20.4823	-0.222151	0
0.5027	155.003	54.0451	58.1643	-10.1131	3.05543	0.120949	3.19796	30.2609	1.55505	0
0.5033	173.851	73.2597	99.3539	-11.0639	0.310317	-0.483794	-7.20212	37.0002	0.0740502	0
0.5040	188.582	84.2487	122.252	-13.4842	-2.4348	-0.786165	-19.0803	36.6699	-2.36961	-0.316227
0.5047	214.145	84.2487	122.252	-15.9044	-3.96251	0.120949	-28.2442	30.8556	-3.92466	-0.316227
0.5053	223.027	77.5011	111.548	-14.6943	-4.58315	2.25771	-27.9485	25.9662	-2.07341	0
0.5060	168.976	66.8334	93.5686	-10.7182	-3.36575	4.09209	-17.2529	25.1073	3.11011	0
0.5067	26.5379	49.4182	60.901	-10.1131	-1.2174	3.16482	-11.1525	19.6233	4.96136	0.316227
0.5073	-118.5	28.4042	25.4967	-10.7182	0.620635	1.95533	-9.94323	5.88039	5.25757	0
0.5080	-109.943	6.74761	-5.3349	-11.3232	1.52772	0.120949	-9.94323	-15.7912	4.59111	-0.316227
0.5087	2.05804	-13.431	-32.4944	-12.5334	2.4348	-1.10869	-6.58403	-35.3484	3.40631	0
0.5093	77.7724	-30.7819	-54.7693	-9.24875	4.89347	2.25771	13.5712	-42.9467	8.29362	0.316227
0.5100	76.7975	-47.6188	-76.7325	-7.08783	7.01795	4.09209	35.2313	-47.836	12.2923	0
0.5107	8.77376	-54.3022	-88.9266	-9.85381	8.54566	1.95533	37.0587	-46.0521	10.4411	0
0.5113	-89.1458	-47.2975	-83.1413	-9.85381	11.9114	1.65296	27.8948	-35.3484	11.6259	-0.316227
0.5120	-147.204	-39.3289	-73.3722	-10.7182	13.4153	-0.483794	17.5216	-33.8288	11.6259	0
0.5127	-130.632	-32.3243	-59.3421	-12.5334	13.4153	-2.31818	11.1257	-36.8681	11.0335	0
0.5133	-77.2308	-21.6566	-34.6076	-9.24875	14.943	1.02806	11.4213	-31.0538	15.9208	0
0.5140	-15.9228	-9.44665	-12.9562	-10.1131	13.1288	0.725691	4.40727	-24.3805	15.9208	0
0.5147	53.2925	3.9843	5.05776	-14.6943	7.92503	-1.71344	-8.70705	-17.6412	11.3297	0
0.5153	166.593	17.7366	27.6445	-15.6451	5.17991	-1.41107	-15.1298	-9.3822	11.6259	0.316227
0.5160	273.395	24.7412	40.7739	-17.1145	3.6522	-2.01581	-21.2301	-8.4572	10.4411	0
0.5167	226.385	26.8619	44.4113	-15.6451	3.05543	1.65296	-23.0575	-5.74825	11.9221	-0.316227
0.5173	99.7609	26.5406	43.5106	-12.274	4.27283	7.13596	-19.6983	0.0660718	17.4758	0
0.5180	36.8281	20.4356	31.9055	-16.2501	3.6522	4.09209	-29.4803	-4.49289	13.1809	0
0.5187	-24.1549	13.431	19.7114	-19.2754	3.05543	2.56008	-43.2127	-11.8269	10.1449	0
0.5193	-63.2578	5.78366	7.48272	-18.6704	3.96251	3.16482	-45.3358	-13.3465	11.3297	-0.316227
0.5200	28.0544	-2.12068	-7.13629	-20.8313	3.6522	1.33043	-41.9766	-14.0072	9.18223	0
0.5207	181.216	-3.66299	-12.0208	-18.0653	4.58315	4.69683	-39.2355	-6.93754	11.9221	0
0.5213	241.983	-3.9843	-15.6929	-15.9044	4.27283	6.83359	-39.2355	1.91608	14.0695	0
0.5220	187.607	-7.90434	-23.626	-19.8805	2.12448	2.25771	-37.7037	1.58572	9.84868	0
0.5227	83.8382	-10.6676	-26.3627	-20.4855	2.12448	0.725691	-31.3077	-1.45358	10.1449	0
0.5233	-9.85695	-13.7523	-27.887	-20.4855	2.74511	0.42332	-24.5893	-6.01254	11.0335	0
0.5240	-49.1764	-14.3306	-29.1341	-22.0414	3.05543	-0.483794	-14.2161	-6.3429	9.47843	0
0.5247	-53.1842	-9.12534	-23.0371	-19.2754	4.58315	3.16482	0.752461	0.660718	13.1809	0.316227
0.5253	-75.3894	-4.24135	-17.8407	-19.2754	4.58315	3.46719	9.88948	0.991078	14.3657	0
0.5260	-80.5886	-3.9843	-21.4782	-21.4364	2.74511	0.42332	16.3123	-6.67326	11.9221	0
0.5267	-31.5206	-5.2053	-26.9863	-19.6212	1.52772	1.02806	32.4902	-10.3072	14.3657	-0.316227
0.5273	-12.8899	-5.78366	-30.6584	-19.8805	0.310317	-0.181423	48.9637	-10.3072	14.6619	0
0.5280	-61.7413	-7.64729	-33.7069	-20.2262	0.310317	-1.71344	49.2593	-9.3822	14.0695	0
0.5287	-88.8208	-11.5673	-36.7554	-17.7196	1.52772	-1.41107	33.6995	-8.4572	17.4758	-0.948681
0.5293	-53.5091	-9.12534	-33.0833	-19.0161	0.310317	-3.24545	21.4989	-7.86255	17.4758	-1.58113
0.5300	-69.9735	6.42629	-11.4319	-19.8805	-0.620635	-4.15257	25.7718	0.396431	15.9208	-0.316227
0.5307	-133.773	26.2835	20.3003	-19.8805	-2.4348	-3.24545	24.8581	11.034	15.0322	0
0.5313	-104.094	45.4982	52.9679	-20.2262	-5.17991	-0.483794	13.2487	18.9626	14.0695	-0.632454
0.5320	-85.2463	60.1501	77.7025	-17.7196	-6.11086	4.69683	15.6942	29.0716	17.4758	-0.316227
0.5327	-146.554	60.4072	79.5039	-17.7196	-5.80055	5.30158	21.2033	32.1109	18.6607	0
0.5333	-124.891	51.2818	66.0973	-21.4364	-6.70763	2.25771	16.3123	25.7019	14.6619	0
0.5340	-15.2728	43.3132	51.4437	-20.8313	-5.80055	2.86245	16.0167	24.1823	15.6246	0
0.5347	52.7509	31.4246	28.5452	-20.2262	-4.27283	2.25771	14.1624	24.1823	16.5132	-0.316227
0.5353	66.7239	11.8886	1.38569	-20.2262	-2.74511	0.120949	7.47086	13.2144	16.5132	-0.316227
0.5360	107.018	-9.12534	-21.7899	-16.5095	0	1.65296	5.32097	-4.2286	20.2157	-0.316227
0.5367	190.098	-28.0829	-45.312	-16.8552	1.2174	0.725691	1.66616	-21.9359	19.5493	0
0.5373	250.215	-42.0922	-64.2267	-19.0161	1.2174	-1.10869	4.11166	-31.0538	16.8094	0
0.5380	268.845	-47.2975	-73.0604	-19.8805	1.2174	-1.71344	10.5076	-28.0145	16.5132	0
0.5387	267.004	-43.3132	-71.8479	-20.4855	0.620635	-2.01581	8.06208	-18.2358	15.0322	-0.316227
0.5393	238.625	-36.3086	-61.7671	-17.1145	2.12448	1.33043	6.23467	-6.93754	18.9569	0
0.5400	210.245	-26.8619	-45.312	-14.6943	2.4348	2.25771	6.55716	2.77502	21.6967	0.316227
0.5407	211.437	-7.64729	-18.7414	-17.4603	0	-0.181423	1.04807	17.443	17.1056	0
0.5413	181.866	12.8526	12.9908	-19.8805	-2.14835	-1.10869	-5.96594	33.0359	13.1809	-0.316227
0.5420	127.49	21.3996	33.7415	-22.0414	-3.96251	-2.01581	-11.1525	32.3752	10.1449	0
0.5427	154.353	22.6206	43.8224	-20.8313	-4.58315	-0.786165	-10.5345	24.1823	10.7373	-0.316227
0.5433	237.65	28.4042	56.3282	-17.4603	-4.58315	2.56008	-4.75663	25.9662	15.0322	-0.316227
0.5440	290.509	32.9669	60.2774	-20.2262	-5.17991	0.725691	-4.43414	30.5913	13.4771	0
0.5447	321.271	25.0625	45.6584	-24.8074	-3.36575	-2.31818	-9.02953	26.2966	9.47843	0
0.5453	258.122	11.8886	26.432	-25.0667	-0.310317	-4.15257	-11.4482	17.7733	8.29362	0
0.5460	69.2152	3.34167	11.7784	-25.4125	2.12448	-6.89407	-13.3024	10.7697	7.03477	0
0.5467	-42.4607	-3.02036	-0.138569	-22.3007	5.49023	-5.98695	-11.4482	6.8054	9.47843	0
0.5473	-17.4392	-6.68334	-8.66055	-18.0653	7.01795	-3.54782	-8.11583	4.95539	13.4771	0
0.5480	6.39077	-4.24135	-11.7437	-17.7196	5.17991	-4.75731	-9.02953	3.43574	12.8847	0
0.5487	-59.25	-1.54231	-11.7437	-16.5095	4.58315	-5.05968	-9.94323	0.396431	11.9221	0
0.5493	-192.914	-4.88398	-15.6929	-15.6451	5.49023	-4.45494	-9.32514	-7.2679	11.6259	0
0.5500	-279.027	-12.7883	-24.5613	-14.0892	7.32826	-3.85019	-7.79334	-17.9715	12.8847	0
0.5507	-289.967	-21.9779	-35.2311	-9.85381	9.14243	-0.483794	-2.60674	-26.1645	16.5132	0
0.5513	-320.188	-28.34	-45.9009	-10.1131	9.45274	0.120949	-1.98865	-32.3091	15.6246	0.316227
0.5520	-378.138	-24.9983	-48.9494	-11.3232	7.92503	-2.01581	-5.34785	-31.3841	13.1809	0.316227
0.5527	-366.548	-14.9733	-42.5406	-10.4589	7.32826	-2.62055	-5.96594	-23.4555	13.4771	0
0.5533	-265.921	-8.86828	-36.1318	-9.50806	6.39731	-2.01581	-4.75663	-17.0465	14.0695	-0.316227
0.5540	-149.587	-10.3463	-35.8547	-5.53196	4.58315	1.95533	-1.07494	-15.1965	18.3645	0
0.5547	-64.7742	-9.76797	-28.1988	-2.76598	2.4348	6.22885	1.04807	-14.0072	21.1043	0
0.5553	-7.36563	3.34167	-1.03927	-4.32185	-0.907081	5.92648	-2.31113	-9.11792	17.7721	0
0.5560	26.213	16.7726	24.2842	-2.50667	-3.6522	6.53122	-3.22483	-2.37859	16.8094	0
0.5567	36.2866	20.1786	31.0048	1.12368	-4.58315	8.06323	-1.07494	0.0660718	18.6607	-0.316227
0.5573	26.7546	19.8572	32.529	3.2846	-4.27283	8.66798	-0.161242	1.58572	19.9195	0.316227
0.5580	-78.5306	19.8572	34.3651	7.00139	-3.05543	11.1071	1.66616	7.40005	22.9556	0
0.5587	-288.451	17.7366	27.9563	8.21151	-2.74511	12.6391	-1.98865	15.3287	24.4366	-1.58113
0.5593	-407.168	13.431	12.9908	8.47082	-2.4348	11.7118	-5.34785	21.143	25.103	-0.948681
0.5600	-391.353	7.32597	-5.3349	10.0267	-3.05543	10.8047	-1.07494	22.6626	24.7328	0.316227
0.5607	-327.771	0.321315	-24.5613	10.0267	-4.89347	9.27272	0.134368	20.4823	21.4005	0
0.5613	-206.996	-7.32597	-40.1157	10.6317	-3.96251	9.57509	-0.161242	23.2573	20.5119	0
0.5620	-29.3542	-14.6519	-47.4252	11.8419	-1.83803	9.57509	2.57987	29.9966	20.5119	0
0.5627	200.713	-16.1943	-39.8039	9.07588	-2.74511	6.22885	1.96177	32.1109	15.3284	0
0.5633	436.305	-8.54697	-18.4297	4.23541	-5.49023	3.16482	-0.483725	32.7056	8.88603	0
0.5640	600.19	3.9843	6.27024	-0.950806	-7.32826	1.33043	-0.779334	38.5199	4.29491	0
0.5647	644.168	10.989	23.9724	-7.08783	-7.92503	-0.181423	-1.69304	39.4449	-0.222151	0
0.5653	622.829	13.7523	34.3651	-11.669	-7.32826	-0.483794	-1.98865	35.4806	-3.33226	0
0.5660	614.597	18.9576	39.2496	-13.8299	-6.70763	-1.71344	-0.779334	38.7842	-5.10946	0
0.5667	410.092	29.9465	44.4113	-17.4603	-7.32826	-4.75731	-1.69304	49.2235	-8.51577	0.316227
0.5673	67.0489	46.7191	55.3929	-20.4855	-9.45274	-6.28932	-2.92922	60.1915	-11.2556	0.316227
0.5680	53.6174	58.2865	59.6885	-20.2262	-10.694	-6.59169	-3.52044	64.1558	-12.7366	0
0.5687	172.659	58.2865	52.3444	-17.4603	-7.92503	-5.68458	-2.92922	60.7861	-9.99678	0
0.5693	12.4566	45.1768	37.4136	-13.1384	-4.89347	-4.15257	-1.39743	46.7789	-6.36832	0
0.5700	-162.152	21.0782	12.9908	-11.3232	-3.96251	-5.05968	-2.60674	18.368	-6.07212	0
0.5707	-172.226	-2.76331	-10.8084	-11.3232	-2.74511	-7.19644	-5.05224	-13.3465	-7.84932	-0.316227
0.5713	-163.994	-22.2992	-26.9863	-10.4589	-1.52772	-8.42608	-5.67033	-42.3521	-8.81198	0
0.5720	-191.723	-38.1079	-35.2311	-6.48277	-0.907081	-6.59169	-4.13853	-67.0629	-7.25692	0
0.5727	-225.302	-49.7395	-37.0672	-1.55586	-0.907081	-3.85019	-1.98865	-86.2898	-3.62846	0
0.5733	-214.037	-54.6235	-34.9193	2.07449	-2.14835	-2.31818	-1.07494	-103.402	-1.481	0.316227
0.5740	-177.642	-51.5389	-28.5105	5.09978	-3.6522	-2.01581	-1.98865	-111.331	-1.1848	0.316227
0.5747	-154.787	-45.4339	-22.4135	7.00139	-4.58315	-1.71344	-4.13853	-102.808	-0.592402	0
0.5753	-142.33	-39.9715	-18.1525	9.07588	-5.80055	0.120949	-5.05224	-83.2505	0.962653	0.316227
0.5760	-130.415	-35.0876	-13.5451	13.3977	-6.42118	3.46719	-2.60674	-66.7986	4.59111	0
0.5767	-119.042	-30.7819	-11.7437	15.4722	-6.70763	5.60395	-0.161242	-57.2843	7.70122	-0.316227
0.5773	-112.651	-27.4403	-13.268	15.818	-7.01795	4.99921	-1.07494	-49.686	7.40502	0
0.5780	-108.751	-24.9983	-15.3811	16.0773	-7.63858	4.39446	-2.60674	-41.1628	6.73857	0
0.5787	-106.91	-22.8776	-16.3165	15.818	-7.01795	5.30158	-2.31113	-33.8288	8.29362	0
0.5793	-88.6042	-20.4356	-16.0047	16.0773	-5.49023	6.53122	-0.779334	-26.8252	10.1449	0
0.5800	-45.277	-17.9936	-14.4804	17.3738	-2.74511	7.13596	2.57987	-21.2751	11.9221	0
0.5807	0.216636	-17.6723	-16.0047	16.0773	-1.2174	6.53122	4.70288	-18.2358	11.9221	0.316227
0.5813	42.6773	-17.9936	-20.8893	11.4961	-0.907081	4.09209	2.57987	-16.1215	7.40502	0
0.5820	74.9561	-16.7726	-23.0371	9.42162	-0.310317	3.16482	0.134368	-11.2322	4.29491	0
0.5827	105.827	-14.6519	-23.0371	10.0267	0.620635	2.86245	0.429978	-4.82324	4.96136	0
0.5833	163.56	-12.5313	-25.1502	12.4469	2.4348	3.78972	2.87548	0.660718	5.55377	0
0.5840	181.866	-10.3463	-28.1988	16.7688	3.96251	5.60395	5.61658	6.8054	7.99742	0
0.5847	110.051	-8.22565	-31.2473	13.657	3.36575	2.56008	2.57987	11.3644	3.99871	0
0.5853	3.24954	-3.02036	-29.1341	5.70484	3.6522	-2.01581	-2.60674	14.734	-4.22086	-0.316227
0.5860	-109.618	4.88398	-19.365	4.49472	4.27283	-2.31818	-1.98865	21.7376	-5.10946	0
0.5867	-199.305	16.1943	-3.49886	7.60645	2.74511	-0.483794	-0.483725	30.8556	-2.66581	0
0.5873	-228.335	28.4042	18.7761	7.86576	1.52772	2.56008	1.04807	37.9252	-1.7772	0
0.5880	-191.723	32.6456	33.4297	3.88966	0	1.95533	0.134368	38.1895	-4.22086	0.316227
0.5887	-136.481	30.5249	40.4621	-0.950806	-3.05543	-1.71344	-6.87964	30.8556	-9.70058	-0.948681
0.5893	-97.378	33.2882	52.0672	-0.345748	-2.74511	0.42332	-9.62075	28.4109	-9.10818	-1.89736
0.5900	-50.1513	37.2725	61.8017	3.02529	-0.620635	3.46719	-4.43414	35.1502	-5.47972	-0.632454
0.5907	-9.20704	35.0876	60.5892	4.23541	-0.620635	2.25771	-1.39743	39.1145	-6.07212	0
0.5913	23.1801	28.7255	52.0672	4.23541	-1.83803	0.725691	-2.31113	34.5556	-7.84932	-0.316227
0.5920	72.2482	20.1786	41.051	4.84047	-3.05543	1.02806	-2.60674	27.2216	-9.10818	0
0.5927	126.299	7.32597	26.7091	8.21151	-3.36575	1.95533	-0.779334	16.2537	-7.55312	0
0.5933	152.512	-8.86828	8.72984	9.68093	-2.4348	1.95533	1.66616	-0.264287	-5.47972	0
0.5940	156.845	-21.9779	-7.44807	8.81657	-2.4348	1.65296	1.34368	-14.6019	-6.36832	0
0.5947	163.56	-27.7616	-16.0047	8.81657	-3.05543	2.25771	0.429978	-22.2001	-6.66452	-0.316227
0.5953	150.995	-28.6613	-19.6768	6.30989	-3.05543	1.02806	0.134368	-24.6448	-6.96072	-0.316227
0.5960	127.165	-28.0829	-23.3142	1.81518	-2.14835	-1.41107	-1.07494	-23.7198	-8.81198	0
0.5967	123.266	-26.8619	-24.8385	-0.0864369	-1.2174	-1.41107	-1.98865	-18.5662	-9.10818	0
0.5973	100.627	-28.0829	-26.6745	-2.16092	-1.2174	-1.71344	-1.69304	-14.2715	-9.70058	0
0.5980	53.0759	-31.4246	-31.2473	-6.13702	-1.52772	-3.85019	-2.92922	-15.7912	-12.7366	0
0.5987	25.5631	-31.1033	-29.723	-6.48277	-0.310317	-2.92292	-2.92922	-16.1215	-13.4031	0
0.5993	-2.49132	-26.5406	-22.1017	-4.9269	0.310317	-1.10869	-0.779334	-11.5626	-11.5518	0
0.6000	-44.952	-18.6362	-12.6444	-4.9269	-0.907081	-1.71344	-0.161242	-5.74825	-11.5518	-0.316227
0.6007	-75.7143	-9.44665	-1.03927	-5.27265	-1.83803	-2.92292	-1.07494	0.991078	-12.7366	0
0.6013	-82.1051	-3.02036	5.36954	-6.74208	-3.36575	-4.75731	-3.22483	4.03038	-15.8467	0.316227
0.6020	-89.1458	1.54231	8.41806	-7.08783	-3.36575	-5.68458	-2.92922	4.03038	-17.624	0
0.6027	-133.448	6.10498	14.2033	-4.32185	-1.52772	-2.92292	1.04807	6.47504	-14.8841	-0.316227
0.6033	-188.04	10.6676	16.94	-4.06253	-0.907081	-4.15257	0.134368	12.2894	-14.8841	0
0.6040	-201.147	14.9733	17.2518	-3.11173	-0.620635	-5.38221	-1.69304	22.6626	-14.5879	-0.316227
0.6047	-185.007	12.8526	13.8915	-0.345748	0.310317	-4.45494	-2.31113	25.3716	-13.9955	-0.632454
0.6053	-142.872	2.76331	4.74598	-0.691495	0	-5.68458	-5.34785	8.9197	-15.8467	-0.316227
0.6060	-43.9771	-4.56267	0.173211	1.12368	1.52772	-3.85019	-3.52044	-7.59826	-13.4031	0
0.6067	67.3738	-9.12534	-1.03927	2.67954	3.05543	-1.71344	0.429978	-14.6019	-9.99678	0
0.6073	137.564	-14.6519	-5.92382	0.518621	2.4348	-3.54782	0.752461	-19.4912	-11.848	0
0.6080	150.345	-17.4153	-10.4966	-2.50667	1.83803	-4.75731	-0.161242	-21.6055	-14.2917	-0.316227
0.6087	111.676	-17.4153	-13.8569	-3.45748	2.4348	-5.38221	-1.69304	-20.4162	-15.5505	-0.316227
0.6093	46.9017	-17.4153	-18.7414	-1.55586	3.96251	-4.45494	-1.07494	-16.1215	-13.1069	0
0.6100	-78.7472	-18.8933	-30.0348	1.81518	6.39731	-3.24545	2.57987	-8.78756	-8.81198	0
0.6107	-228.01	-21.9779	-47.4252	3.02529	8.23534	-3.54782	5.02536	-2.97323	-7.25692	0
0.6113	-278.052	-26.2193	-63.9149	2.67954	9.45274	-3.24545	5.93907	-0.528575	-7.84932	-0.316227
0.6120	-239.6	-28.34	-71.5362	1.81518	9.45274	-3.54782	5.32097	-1.18929	-9.40438	0
0.6127	-170.059	-20.7569	-57.5061	-0.345748	7.32826	-4.75731	3.19796	0.396431	-11.2556	0
0.6133	-74.1979	2.12068	-16.0047	0.259311	4.58315	-3.24545	3.78918	10.7697	-11.848	0.316227
0.6140	35.9616	33.8666	44.4113	2.67954	1.83803	-0.181423	4.70288	29.6663	-9.99678	0
0.6147	149.479	58.6078	99.3539	2.67954	-0.620635	0.42332	1.96177	42.1538	-10.293	-0.316227
0.6153	239.816	67.7331	124.677	0.518621	-3.05543	-1.41107	0.752461	41.8895	-13.6993	0
0.6160	239.816	69.9181	128.038	-0.950806	-5.17991	-2.92292	1.04807	41.5592	-16.1429	0.316227
0.6167	90.8789	70.4964	123.777	0.259311	-4.27283	-2.01581	3.19796	45.8539	-14.5879	0
0.6173	-118.175	65.2911	110.335	3.63035	-2.14835	-0.181423	7.76647	46.7789	-10.293	0.316227
0.6180	-228.01	52.5028	79.8157	2.67954	-1.83803	-1.41107	6.55716	39.7092	-11.2556	-0.316227
0.6187	-261.263	30.5249	37.4136	0.259311	-1.83803	-4.45494	-3.52044	25.9662	-14.2917	-1.58113
0.6193	-231.692	3.34167	-4.08778	2.42023	1.2174	-4.15257	-6.87964	9.8447	-12.1442	-0.948681
0.6200	-37.2614	-26.8619	-41.9517	4.49472	3.6522	-3.24545	-1.07494	-12.1572	-10.6632	0.632454
0.6207	248.048	-48.8398	-64.8156	6.30989	4.58315	-1.71344	4.40727	-32.5734	-8.21957	0.316227
0.6213	409.767	-51.8602	-66.0627	8.21151	5.80055	0.42332	4.70288	-36.5377	-5.47972	0
0.6220	390.27	-45.7552	-62.0788	6.65564	5.17991	-0.181423	0.134368	-30.7895	-7.55312	0
0.6227	288.343	-41.5139	-58.7185	5.09978	4.58315	-2.01581	-3.84292	-26.1645	-9.99678	-0.316227
0.6233	184.574	-39.9715	-55.3582	5.09978	4.58315	-3.24545	-4.75663	-24.6448	-9.99678	-0.316227
0.6240	110.376	-38.1079	-52.6215	7.2607	4.89347	-2.62055	-4.43414	-22.8609	-7.84932	-0.316227
0.6247	64.6659	-32.0029	-44.6884	10.286	5.80055	0.120949	-2.92922	-15.5269	-4.81326	0
0.6253	21.3387	-21.3353	-27.6098	11.2368	4.89347	0.725691	-2.92922	-6.3429	-4.81326	0.316227
0.6260	6.06581	-8.86828	-5.92382	10.8911	3.36575	0.120949	-2.92922	-2.37859	-5.47972	0
0.6267	68.5653	2.12068	14.2033	10.6317	2.12448	-0.483794	-3.22483	-3.30359	-6.96072	0
0.6273	148.504	11.3103	29.1687	9.42162	1.83803	-0.181423	-3.22483	0.0660718	-8.21957	0.316227
0.6280	176.992	21.6566	41.9864	10.8911	1.83803	2.86245	0.134368	11.959	-6.07212	0
0.6287	152.837	30.2036	51.1319	10.8911	0	3.78972	1.96177	23.2573	-5.77592	-0.316227
0.6293	88.1709	27.1832	45.9356	8.47082	-1.83803	1.02806	0.134368	22.9269	-8.51577	-0.316227
0.6300	71.9232	16.1943	31.0048	7.86576	-1.52772	-0.483794	-1.07494	13.809	-8.81198	-0.316227
0.6307	64.3409	9.44665	18.7761	8.21151	-0.310317	-0.483794	-0.161242	7.06969	-8.21957	0
0.6313	-72.0315	5.78366	8.72984	9.68093	0	1.65296	2.57987	6.8054	-6.07212	0.316227
0.6320	-188.365	-1.79936	-2.8753	11.2368	0	2.86245	4.11166	1.91608	-4.22086	0
0.6327	-171.901	-10.989	-14.1687	11.2368	0.310317	2.25771	3.19796	-8.78756	-3.92466	-0.316227
0.6333	-145.579	-14.6519	-19.0532	11.4961	0	2.56008	3.49357	-14.6019	-3.03606	-0.316227
0.6340	-130.415	-15.8729	-21.4782	11.8419	-0.620635	1.95533	3.78918	-17.0465	-2.36961	0
0.6347	-76.6892	-17.4153	-21.7899	11.8419	0	1.95533	3.78918	-20.6805	-2.36961	0
0.6353	-11.3734	-17.9936	-18.1525	13.3977	1.2174	4.09209	6.55716	-21.9359	0.0740502	0
0.6360	20.3638	-18.3149	-16.0047	13.657	1.52772	3.46719	6.85277	-24.0502	0.666452	0
0.6367	20.3638	-18.6362	-15.6929	11.4961	0.620635	0.725691	4.40727	-24.9752	-1.7772	0
0.6373	7.25731	-17.4153	-14.4804	9.07588	-0.310317	-1.10869	3.49357	-21.0108	-3.62846	0
0.6380	-12.2399	-14.6519	-12.0208	9.07588	0.620635	-0.483794	3.78918	-16.4519	-2.66581	0
0.6387	-29.3542	-11.3103	-7.75985	11.4961	1.52772	2.25771	6.85277	-13.6769	0.666452	-0.316227
0.6393	-39.1028	-9.12534	-5.61204	11.8419	1.83803	1.95533	8.68017	-14.0072	0.962653	-0.316227
0.6400	-29.6792	-8.22565	-5.61204	10.6317	1.83803	-0.483794	5.61658	-15.5269	-1.1848	0
0.6407	-0.324954	-8.22565	-5.61204	10.286	1.83803	-0.786165	2.57987	-16.1215	-1.481	0
0.6413	14.298	-8.22565	-6.2356	9.42162	0.907081	-1.71344	0.429978	-16.1215	-3.33226	0
0.6420	6.6074	-5.78366	-3.49886	11.2368	1.52772	0.120949	0.429978	-12.1572	-2.36961	0
0.6427	-1.29982	-2.76331	0.173211	12.4469	2.74511	1.33043	1.04807	-7.2679	-1.1848	0
0.6433	-6.17413	-2.44199	-0.138569	8.81657	2.4348	-1.71344	-1.69304	-6.3429	-4.22086	0.316227
0.6440	-10.3985	-2.12068	-0.450349	6.30989	2.12448	-4.15257	-4.43414	-6.3429	-6.66452	0.316227
0.6447	-12.2399	-1.221	-0.450349	5.44553	1.83803	-4.45494	-5.96594	-5.41789	-8.81198	0
0.6453	-12.2399	-0.321315	-0.138569	5.70484	2.4348	-3.24545	-5.67033	-4.49289	-9.40438	0
0.6460	-10.3985	1.221	2.90995	7.86576	3.6522	-1.41107	-1.98865	-1.45358	-6.07212	0
0.6467	-9.85695	1.86362	3.22173	8.21151	3.36575	-2.31818	-1.39743	0.396431	-5.47972	0
0.6473	-11.0484	1.86362	1.07391	8.81657	1.83803	-3.24545	-3.52044	0.0660718	-6.96072	0
0.6480	-10.7235	1.86362	-0.138569	12.1876	1.2174	-2.31818	-3.52044	0.660718	-6.07212	0
0.6487	-11.0484	1.54231	-2.25174	15.2129	0	-1.41107	-5.34785	0.396431	-5.10946	-0.948681
0.6493	-11.915	2.12068	-2.56352	19.189	0.907081	1.33043	-6.58403	1.58572	-1.7772	-1.89736
0.6500	-13.2148	2.76331	-2.56352	22.2143	2.74511	3.16482	-2.31113	4.62503	2.22151	-0.632454
0.6507	-15.5978	0	-8.38341	18.8432	1.2174	0.42332	-1.07494	3.70002	0.370251	0.316227
0.6513	-18.6307	-1.79936	-14.4804	15.4722	0	-0.786165	-3.84292	2.51073	-1.1848	0
0.6520	-26.3213	-0.899681	-15.3811	17.0281	0.620635	1.33043	-3.22483	4.36074	0.962653	0.316227
0.6527	-30.5457	1.221	-10.2195	19.4483	0.310317	3.46719	-0.161242	7.99469	3.99871	0
0.6533	-22.9634	4.88398	-0.727486	21.2635	0.620635	4.99921	2.87548	12.2894	7.99742	0
0.6540	-10.1819	8.86828	5.05776	20.0534	-0.310317	4.09209	1.04807	14.4037	7.40502	0
0.6547	-3.14122	11.3103	6.58202	17.9789	-2.4348	2.86245	-2.60674	15.593	4.96136	0
0.6553	-3.68281	13.7523	10.5312	18.8432	-3.36575	3.78972	-3.52044	18.0376	6.44237	-0.316227
0.6560	-7.69058	18.9576	19.0879	19.7941	-3.6522	4.99921	-2.31113	21.7376	7.99742	-0.316227
0.6567	-26.6462	23.8415	25.8084	20.6584	-2.4348	6.83359	-0.483725	25.7019	8.58982	0
0.6573	-38.7779	21.6566	23.3488	20.0534	-1.2174	5.60395	-0.161242	25.7019	8.88603	0
0.6580	-12.8899	18.9576	19.7114	16.7688	-1.83803	2.25771	-3.84292	23.8519	6.44237	0
0.6587	32.9287	21.6566	25.8084	15.818	-1.52772	2.86245	-4.75663	25.1073	4.59111	-0.316227
0.6593	86.6545	23.1989	31.0048	16.423	-0.907081	4.39446	-1.98865	26.2966	6.14617	-0.316227
0.6600	144.93	19.2146	27.3327	16.7688	-1.2174	3.78972	-0.161242	23.8519	8.29362	0
0.6607	189.773	13.431	20.9239	17.9789	-1.52772	4.39446	2.28426	18.0376	8.58982	0
0.6613	219.669	9.1896	14.5151	16.7688	-0.907081	4.39446	2.28426	11.6286	3.40631	0
0.6620	239.166	6.10498	9.63053	14.6078	-0.620635	3.78972	1.34368	7.40005	-1.481	0
0.6627	249.89	2.44199	5.95846	14.8671	-0.310317	3.78972	3.78918	3.43574	-0.888602	0
0.6633	211.762	-2.12068	0.484991	15.2129	-0.310317	2.25771	5.93907	-2.04823	1.85126	0
0.6640	114.384	-4.56267	-2.56352	17.0281	-0.310317	3.16482	7.76647	-6.01254	6.14617	0
0.6647	39.6444	-4.88398	-2.8753	19.189	0	7.13596	10.8032	-8.19291	11.6259	-0.316227
0.6653	-13.7564	-5.46235	-5.02312	18.8432	0	8.36561	10.8032	-10.9019	17.7721	0
0.6660	-55.0256	-4.88398	-5.02312	16.7688	-0.310317	8.06323	9.59387	-12.7519	22.6594	0
0.6667	-25.9963	-0.899681	-1.03927	11.4961	-1.52772	6.83359	8.68017	-12.1572	21.1043	-0.316227
0.6673	7.90722	2.12068	0.796771	4.23541	-3.36575	3.46719	6.23467	-11.8269	11.0335	0.316227
0.6680	-13.2148	2.12068	0.484991	-0.0864369	-3.96251	3.16482	3.49357	-12.7519	-6.07212	-0.632454
0.6687	-58.925	1.54231	-0.450349	0.259311	-3.36575	5.30158	1.96177	-13.0822	-21.9189	-1.26491
0.6693	-105.393	2.44199	0.173211	3.2846	-2.4348	4.99921	4.40727	-10.6376	-32.8783	-0.632454
0.6700	-150.237	3.34167	1.07391	3.88966	-2.74511	2.25771	5.93907	-8.78756	-39.0245	0
0.6707	-187.174	3.34167	0.484991	1.12368	-2.74511	0.42332	2.87548	-9.11792	-25.2511	0
0.6713	-196.597	3.34167	0.173211	-4.32185	-1.52772	1.65296	1.34368	-8.4572	7.40502	0
0.6720	-189.232	3.34167	1.38569	-7.69289	0.620635	4.39446	2.28426	-5.41789	62.6465	-0.316227
0.6727	-178.617	2.12068	1.38569	-11.669	1.83803	5.60395	2.57987	-4.82324	142.547	0
0.6733	-153.27	-1.54231	-1.35105	-21.4364	0.620635	4.39446	1.34368	-9.3822	182.238	-0.316227
0.6740	-128.899	-4.88398	-3.49886	-25.6718	-1.2174	1.65296	-1.07494	-15.5269	157.505	-0.316227
0.6747	-111.459	-5.46235	-3.81064	-19.8805	-2.14835	1.95533	-2.31113	-18.5662	133.142	0
0.6753	-93.1535	-4.56267	-2.56352	-12.8791	-2.4348	4.09209	-2.31113	-16.4519	119.073	-0.316227
0.6760	-77.0142	-3.66299	-1.35105	-2.50667	-3.36575	4.99921	-1.07494	-13.3465	19.2531	-0.316227
0.6767	-65.0992	-3.66299	-1.66283	8.81657	-3.96251	4.39446	-1.39743	-13.0822	-137.585	0
0.6773	-55.8921	-3.02036	-1.97461	20.3991	-3.96251	1.95533	-3.22483	-14.6019	-194.974	0
0.6780	-49.5014	-3.02036	-3.18708	28.0056	-2.4348	-1.41107	-6.26155	-15.5269	-167.205	-0.316227
0.6787	-42.4607	-2.76331	-4.39956	29.5614	-0.310317	-1.41107	-9.62075	-14.2715	-147.36	-1.26491
0.6793	-47.01	-0.899681	-2.56352	40.5389	3.05543	1.95533	-8.70705	-10.0429	-97.8944	-0.948681
0.6800	-68.457	0.642629	-1.97461	28.6106	4.89347	2.86245	-4.43414	-5.41789	-43.9118	0
0.6807	-81.8885	-0.321315	-5.61204	-2.16092	3.96251	-0.483794	-5.05224	-4.2286	-45.3928	0.316227
0.6813	-101.386	-1.54231	-10.4966	1.12368	3.05543	-0.786165	-6.58403	-2.97323	-2.07341	0
0.6820	-123.699	-2.12068	-14.4804	-22.6465	2.4348	2.25771	-4.13853	-0.264287	35.1739	0
0.6827	-119.367	-2.12068	-17.529	-98.9703	0.310317	1.95533	-2.31113	1.58572	-37.7656	0
0.6833	-119.367	-1.79936	-19.6768	-119.974	-0.620635	2.25771	-0.779334	4.03038	-104.041	0
0.6840	-114.817	-1.54231	-22.7253	-73.2985	-0.620635	4.09209	-1.39743	5.88039	-198.899	0
0.6847	-82.4301	0.642629	-21.4782	-59.555	-2.4348	4.99921	-2.92922	6.8054	-343.297	-0.316227
0.6853	-36.0699	8.22565	-6.85916	-83.4116	-3.36575	7.43833	-0.779334	11.034	-260.286	-0.316227
0.6860	25.888	24.7412	22.4482	-105.367	-1.2174	7.74071	1.04807	19.293	-9.99678	0
0.6867	121.75	47.2975	57.8525	-153.253	2.4348	5.92648	0.429978	30.5913	163.355	0
0.6873	237.108	63.8131	81.6517	-191.717	6.11086	7.74071	1.34368	40.0395	402.241	0.316227
0.6880	231.584	66.8334	84.1113	-166.391	7.32826	10.2	1.34368	40.9645	573.815	0.316227
0.6887	69.2152	60.1501	71.8826	-128.272	5.49023	10.2	-1.98865	33.0359	417.495	0
0.6893	-54.7006	51.6031	57.2289	-101.045	3.36575	9.57509	-1.98865	25.3716	187.421	0
0.6900	-46.7934	42.0922	41.6746	-17.1145	1.52772	7.43833	-0.161242	19.8876	82.7881	0
0.6907	43.8688	31.4246	26.432	39.5881	-0.620635	6.53122	0.752461	17.7733	-35.0257	0.316227
0.6913	158.036	20.4356	12.679	-47.6267	-4.89347	7.74071	-0.779334	20.218	-235.554	0.316227
0.6920	248.698	4.88398	-3.18708	-101.996	-9.76306	6.53122	-5.05224	16.2537	-408.609	0
0.6927	243.499	-13.1096	-16.9054	-76.6695	-12.8185	3.78972	-6.58403	-0.264287	-618.838	0
0.6933	85.0297	-26.2193	-23.9378	-117.814	-15.2533	-1.41107	-8.70705	-19.4912	-877.347	0
0.6940	-92.8286	-29.5609	-22.4135	-162.069	-14.3462	-4.15257	-11.7706	-28.0145	-758.644	0
0.6947	-143.197	-24.7412	-13.5451	-136.743	-9.1663	-0.181423	-9.62075	-27.4198	-366.474	0.316227
0.6953	-134.964	-17.9936	-6.85916	-117.554	-3.05543	1.33043	-7.49773	-26.8252	-206.526	0.316227
0.6960	-122.399	-13.431	-5.02312	-123.086	6.11086	1.65296	-5.05224	-26.1645	19.5493	0
0.6967	-80.5886	-11.5673	-5.61204	-68.458	16.4707	3.78972	-1.98865	-26.1645	435.563	0
0.6973	-45.8185	-11.5673	-6.85916	-16.5095	19.2158	4.39446	-1.98865	-29.8645	613.432	0
0.6980	-36.9365	-10.989	-7.13629	-121.79	14.943	4.69683	-2.60674	-30.4591	576.185	-0.316227
0.6987	-22.3135	-9.76797	-5.92382	-163.366	7.63858	6.83359	-0.483725	-27.6841	514.279	0
0.6993	-1.84141	-10.0893	-5.3349	53.6773	-1.2174	9.57509	3.78918	-25.5698	460.592	0
0.7000	7.90722	-10.989	-5.61204	186.099	-9.45274	9.27272	7.76647	-24.0502	330.264	0
0.7007	12.1316	-11.3103	-6.2356	72.0019	-14.3462	7.43833	9.29827	-23.7198	29.6201	-0.316227
0.7013	19.1723	-11.5673	-6.85916	-15.6451	-10.9805	7.13596	8.97578	-24.3805	-120.48	0
0.7020	30.7623	-10.989	-6.54738	34.1426	-3.05543	8.06323	8.97578	-23.7198	-65.9047	0
0.7027	37.4781	-9.76797	-5.61204	107.355	2.12448	10.5024	9.59387	-22.8609	-195.567	0
0.7033	37.4781	-8.86828	-6.54738	176.936	3.36575	9.57509	7.14838	-21.9359	-380.84	0
0.7040	33.2537	-7.64729	-6.85916	226.724	3.6522	2.25771	-0.161242	-20.0858	-344.778	0
0.7047	25.2381	-6.10498	-6.2356	256.026	7.01795	1.33043	-4.75663	-17.6412	-76.8641	0
0.7053	18.8473	-3.9843	-4.71134	319.125	10.6701	8.36561	-3.84292	-13.3465	321.674	-0.316227
0.7060	13.6481	-1.79936	-2.56352	386.892	6.70763	11.1071	-1.69304	-10.0429	513.686	0
0.7067	8.44881	-0.321315	-1.66283	404.006	-4.89347	10.2	-0.161242	-9.71256	373.88	0
0.7073	4.766	-1.221	-1.97461	321.027	-17.0913	10.8047	1.96177	-10.9019	156.024	0
0.7080	1.40813	-3.66299	-1.97461	168.379	-25.637	12.3166	2.28426	-12.7519	22.9556	0
0.7087	-2.81627	-4.88398	-1.97461	16.0773	-31.7478	11.4095	-1.98865	-15.1965	40.3574	-0.948681
0.7093	-3.46618	-3.34167	0.173211	-71.7426	-29.5995	8.66798	-6.26155	-15.1965	-0.592402	-1.58113
0.7100	-2.49132	0	5.05776	-26.0175	-16.781	9.57509	-2.31113	-11.2322	-374.99	-0.316227
0.7107	-4.98263	0.899681	5.36954	77.4475	-6.11086	6.22885	-2.31113	-9.3822	-586.774	0
0.7113	-7.36563	-0.899681	2.90995	139.077	2.4348	-4.75731	-11.4482	-9.11792	-237.109	0
0.7120	-5.19927	-0.321315	2.90995	161.723	19.5261	-9.65572	-15.7211	-6.93754	168.834	0.316227
0.7127	-3.68281	2.76331	2.00925	144.868	31.7478	-4.45494	-13.3024	-4.82324	337.595	0
0.7133	-3.14122	4.56267	0.484991	91.1909	25.637	1.02806	-12.0662	-4.2286	405.647	0
0.7140	-1.29982	5.78366	0.796771	50.9113	11.9114	4.99921	-11.1525	-3.30359	307.679	0
0.7147	-0.974863	7.00466	1.69747	92.7468	-0.907081	8.36561	-10.2388	-2.37859	67.4597	0
0.7153	-1.84141	6.42629	1.38569	208.399	-10.0734	10.8047	-10.2388	-2.04823	-126.33	0
0.7160	-1.62477	6.42629	2.00925	231.305	-12.5082	9.57509	-8.70705	-1.45358	-276.429	0
0.7167	-3.14122	6.10498	2.00925	95.4264	-11.2908	2.56008	-10.8569	-1.78394	-395.428	0
0.7173	-4.65768	2.44199	2.00925	-13.8299	-8.85598	-4.15257	-16.0435	-1.78394	-371.362	0
0.7180	-3.14122	0.899681	2.32103	-33.9697	-3.05543	-7.19644	-19.6983	-0.528575	-271.838	0
0.7187	-1.84141	1.54231	1.07391	-110.812	3.96251	-10.2605	-21.8482	-0.264287	-233.999	0
0.7193	-2.16636	-1.79936	-0.450349	-211.511	9.45274	-12.0949	-19.6983	-0.528575	-125.367	0
0.7200	-0.649908	-7.32597	-2.56352	-180.74	14.943	-8.72845	-16.0435	-1.78394	87.3052	0
0.7207	2.05804	-8.86828	-2.8753	-113.319	14.943	1.02806	-10.2388	-2.70895	61.98	-0.316227
0.7213	3.89945	-7.00466	-0.138569	-143.485	7.01795	11.4095	0.752461	-0.264287	-222.447	-0.316227
0.7220	1.73309	-5.2053	2.32103	-186.185	0	14.7759	11.4213	1.58572	-296.867	0
0.7227	-3.14122	-2.76331	5.36954	-156.019	-1.52772	12.0142	19.0534	1.25537	-66.4971	-0.316227
0.7233	-8.34049	3.34167	8.10628	-87.9063	-1.2174	7.43833	23.9444	2.77502	230.148	-0.316227
0.7240	-18.4141	17.7366	7.20558	14.2621	1.52772	4.09209	24.5625	5.88039	463.925	0
0.7247	-34.2285	28.7255	6.27024	129.05	4.89347	4.69683	23.0307	7.06969	506.948	0
0.7253	-42.4607	27.5045	8.72984	142.448	2.12448	6.83359	21.4989	7.40005	324.118	0
0.7260	-36.3949	20.7569	13.6144	52.7265	-6.70763	5.92648	17.226	8.9197	6.73857	-0.316227
0.7267	-25.9963	8.22565	17.2518	-36.6493	-14.3462	-0.483794	8.38456	11.3644	-355.145	-0.316227
0.7273	-20.7971	-10.6676	19.7114	-76.6695	-16.1842	-5.68458	0.134368	13.2144	-718.953	0
0.7280	-18.4141	-38.4292	19.7114	-91.6231	-15.2533	-6.28932	-3.22483	12.884	-1022.93	0
0.7287	-13.5398	-64.9698	17.8754	-99.2296	-14.943	-6.89407	-3.84292	10.7697	-1018.04	0
0.7293	-9.20704	-69.2754	15.4158	-90.0673	-13.1288	-11.47	-4.75663	8.32505	-603.583	0
0.7300	-4.00777	-45.7552	10.843	-78.8305	-6.70763	-16.6707	-7.79334	3.70002	6.73857	0
0.7307	5.09095	-3.9843	6.8938	-105.626	8.85598	-16.0458	-11.7706	-0.528575	631.13	0
0.7313	13.3231	27.1832	4.74598	-260.953	24.1093	-12.0949	-12.3887	-2.70895	883.197	0
0.7320	17.9808	37.5295	2.59817	-454.485	25.3267	-8.12371	-9.02953	-2.97323	663.786	0
0.7327	21.5553	55.2661	4.74598	-491.048	18.3087	-4.15257	-0.779334	-1.45358	519.166	0
0.7333	24.6965	63.1705	7.20558	-517.325	11.2908	-2.62055	5.61658	-0.264287	533.161	0
0.7340	21.0137	44.5342	4.74598	-576.88	5.49023	-4.15257	5.93907	0.0660718	375.138	0
0.7347	13.6481	29.6252	3.22173	-562.186	1.83803	-2.31818	7.47086	1.58572	135.882	0
0.7353	10.2902	19.2146	5.95846	-604.021	-1.83803	2.25771	10.212	2.77502	54.6491	0
0.7360	10.2902	2.44199	8.10628	-607.651	-4.89347	2.25771	9.59387	1.58572	27.8429	0
0.7367	12.7815	-20.1143	7.7945	-547.232	-3.6522	-6.28932	5.02536	0.0660718	-67.0895	-0.316227
0.7373	15.8144	-83.9274	5.95846	-498.741	2.74511	-9.65572	1.96177	-1.18929	-89.0824	0
0.7380	17.9808	-200.822	4.74598	-243.579	5.17991	8.66798	5.02536	2.51073	-104.633	0
0.7387	20.6888	-296.895	6.58202	99.1431	1.2174	28.5035	7.14838	14.9983	-178.757	-1.89736
0.7393	20.0388	-285.327	8.10628	243.493	-0.907081	27.2739	6.55716	33.9609	-267.617	-1.26491
0.7400	13.1065	-170.875	3.22173	251.704	-3.36575	15.0782	5.32097	55.6325	-481.845	0.316227
0.7407	13.6481	-128.462	-5.3349	268.473	-9.1663	10.5024	3.19796	77.8987	-408.905	0.316227
0.7413	18.1974	-144.656	-8.38341	433.308	-14.943	10.8047	0.752461	100.165	155.357	-0.316227
0.7420	12.1316	3.34167	-5.02312	682.592	-16.1842	8.06323	-1.07494	118.467	427.566	-0.316227
0.7427	7.58227	167.276	-3.49886	734.541	-14.3462	1.95533	0.134368	128.84	-129.07	-0.316227
0.7433	17.6558	227.362	-9.28411	568.15	-14.0359	-12.0949	-1.98865	131.879	-747.611	-0.316227
0.7440	32.2788	250.24	-12.0208	389.658	-6.11086	-23.3834	-2.92922	116.022	-509.614	0
0.7447	34.7701	123.899	-6.2356	258.446	8.54566	-21.2466	1.66616	78.163	-140.325	-0.316227
0.7453	12.4566	-24.7412	-3.81064	135.447	14.6565	-22.4561	2.87548	41.2288	-174.24	0
0.7460	-40.2943	10.0893	-10.2195	33.7968	17.0913	-28.8664	1.34368	1.58572	67.83	0
0.7467	-96.8364	115.995	-17.529	-50.1334	19.5261	-30.3984	1.34368	-41.427	406.832	-0.316227
0.7473	-123.699	149.54	-12.6444	-127.581	15.8739	-33.1399	0.134368	-66.4683	267.988	-0.316227
0.7480	-108.426	116.573	11.4666	-123.951	10.3837	-37.111	-0.483725	-74.3969	-84.7875	0
0.7487	-56.2171	78.7221	41.9864	-69.6682	10.6701	-35.8814	0.134368	-87.2148	-426.603	0
0.7493	-1.84141	82.3851	58.7532	-156.278	14.0359	-28.8664	-1.39743	-110.406	-898.377	-0.316227
0.7500	20.6888	87.2691	59.065	-329.93	10.6701	-23.081	-2.60674	-125.999	-1173.62	0
0.7507	8.12386	-12.21	52.0672	-401.672	5.49023	-22.7585	-5.67033	-122.629	-803.815	0
0.7513	-31.1956	-178.844	42.8871	-405.648	13.1288	-20.017	-9.94323	-108.556	-179.053	0
0.7520	-56.867	-283.785	29.1687	-405.043	33.2517	-6.59169	-8.70705	-93.0292	233.851	0
0.7527	-12.8899	-342.393	12.3673	-454.485	46.6908	12.3166	-1.07494	-75.9165	544.195	0
0.7533	63.3661	-344.257	-0.450349	-639.979	43.6354	20.8636	5.02536	-59.7289	688.519	0
0.7540	105.502	-207.184	-5.02312	-817.607	28.9789	16.9126	4.40727	-42.3521	532.865	-0.316227
0.7547	111.351	-36.3086	-6.85916	-718.118	14.6565	11.7118	-3.84292	-15.1965	311.603	-0.316227
0.7553	74.7395	116.573	-5.02312	-395.276	7.32826	8.97035	-15.4254	15.3287	267.099	0
0.7560	10.2902	280.765	-5.02312	57.3077	2.12448	5.30158	-23.0575	29.3359	388.541	0.316227
0.7567	-31.5206	331.725	-21.4782	681.987	-5.17991	0.120949	-28.5398	19.6233	457.482	0
0.7573	-50.3679	272.218	-41.6399	989.357	-15.2533	-0.786165	-34.0489	2.77502	372.398	-0.316227
0.7580	-51.9927	228.583	-49.573	706.449	-26.2576	3.16482	-36.1719	-13.3465	266.136	0
0.7587	-24.8048	184.949	-43.476	355.169	-32.9652	2.25771	-35.5806	-35.0181	292.128	0
0.7593	-2.16636	96.78	-26.9863	276.166	-33.8723	-3.54782	-31.6034	-53.9807	401.352	0
0.7600	-11.0484	-11.8886	-13.268	403.055	-36.9278	-5.38221	-26.7124	-56.4254	302.495	0
0.7607	-30.3291	-128.462	-9.28411	482.75	-39.6729	-2.62055	-19.6983	-40.502	-124.775	-0.316227
0.7613	-43.6522	-205.384	-2.25174	363.381	-31.1272	1.33043	-9.02953	-24.3805	-538.567	-0.316227
0.7620	-52.8592	-241.372	10.5312	196.212	-22.2712	5.92648	0.752461	-18.8305	-624.614	0
0.7627	-55.8921	-308.205	24.2842	97.933	-26.5441	6.53122	5.32097	-11.2322	-423.197	-0.316227
0.7633	-48.6348	-258.787	36.1665	-26.0175	-25.3267	-1.41107	3.49357	-0.858934	47.3181	-0.316227
0.7640	-39.7527	-19.2146	33.118	-167.947	-8.54566	-6.28932	-3.22483	0.991078	411.127	-0.316227
0.7647	-34.8784	149.861	24.596	-269.856	8.23534	-2.92292	-7.20212	0.991078	13.1809	0
0.7653	-26.3213	95.2377	17.2518	-412.65	14.3462	1.33043	-5.67033	-2.37859	-798.928	-0.316227
0.7660	-16.2477	18.6362	0.173211	-518.276	16.4707	7.13596	-0.779334	-3.89824	-1211.46	-0.316227
0.7667	-7.36563	165.413	-12.6444	-492.95	22.8919	16.5901	6.85277	11.6286	-1033.89	0
0.7673	2.05804	344.578	-14.1687	-418.787	32.0343	20.8636	12.0394	22.9269	-206.526	0
0.7680	3.89945	319.194	-13.268	-319.903	40.8903	16.5901	8.06208	14.4037	967.466	-0.632454
0.7687	2.05804	249.34	-8.66055	-250.926	52.8017	12.9415	0.752461	-5.1536	1515.22	-0.948681
0.7693	4.54936	213.61	-6.2356	-272.622	53.7088	14.4533	-0.779334	-21.6055	1140.52	-0.316227
0.7700	-5.84918	120.879	-9.59589	-273.832	35.7104	16.2877	1.34368	-22.8609	472.144	-0.316227
0.7707	-30.3291	48.8398	-17.529	2.42023	14.0359	17.5174	3.78918	-16.7162	-47.8364	-0.316227
0.7713	-56.2171	54.6235	-30.9701	610.936	0	13.2439	0.752461	-13.3465	-303.31	0
0.7720	-77.2308	64.3914	-32.7715	938.705	-12.1979	-2.62055	-11.4482	-11.5626	-234.295	-0.316227
0.7727	-78.7472	50.9605	-22.4135	733.59	-24.7299	5.60395	-23.3532	-14.0072	95.895	0.316227
0.7733	-65.9657	11.6316	-17.8407	616.382	-27.7615	61.7644	-26.1211	-21.9359	452.595	-0.316227
0.7740	-25.9963	-26.5406	-5.61204	702.732	-19.8364	125.847	-20.6121	-25.9002	611.951	-1.89736
0.7747	24.6965	13.431	12.9908	523.03	-11.2908	159.733	-10.2388	-18.8305	674.153	-0.948681
0.7753	24.9132	85.1484	18.4989	122.049	-7.63858	160.942	-8.11583	-6.01254	690.37	0
0.7760	12.1316	78.465	16.3511	49.9605	-9.45274	145.38	-16.9572	3.43574	553.673	-1.26491
0.7767	22.8551	40.6142	19.3996	320.076	-13.7256	123.408	-27.0348	13.809	409.276	-1.89736
0.7773	26.5379	76.2801	29.4805	447.311	-13.4391	87.4055	-33.7264	22.9269	318.934	-0.316227
0.7780	23.3967	127.241	43.8224	412.563	-11.6011	43.4608	-34.6669	31.1859	193.863	0.316227
0.7787	-26.9712	95.559	58.7532	383.521	-15.8739	1.33043	-31.6034	47.6378	62.9427	-0.316227
0.7793	-148.396	57.0655	57.5407	298.121	-21.9848	-42.9166	-30.9853	56.2271	-20.3638	0
0.7800	-216.42	54.3022	37.7254	215.66	-24.7299	-84.4221	-31.6034	41.5592	-268.506	0
0.7807	-162.152	35.4089	22.1364	217.216	-31.1272	-114.941	-28.8622	12.5537	-837.064	0
0.7813	-58.925	36.0515	16.6629	190.075	-34.493	-135.684	-24.2669	-12.4215	-1253.6	-0.316227
0.7820	47.2267	75.0591	13.6144	96.7229	-25.9473	-146.065	-19.0803	-16.7162	-1314.02	-0.316227
0.7827	143.413	40.2929	6.8938	36.9086	-15.5636	-143.626	-15.4254	-12.1572	-1237.75	0
0.7833	164.427	-77.5011	-6.85916	-7.9522	-6.70763	-122.561	-13.598	-10.9019	-736.651	-0.316227
0.7840	125.107	-106.484	-20.5775	-123.345	7.63858	-88.6956	-0.483725	-0.528575	259.176	-0.632454
0.7847	134.531	-35.9872	-36.1318	-250.926	22.2712	-55.1122	23.0307	4.62503	1105.13	-0.316227
0.7853	195.839	8.86828	-55.67	-199.324	29.5995	-21.549	41.6272	-6.3429	1260.41	-0.316227
0.7860	230.934	6.10498	-63.9149	-14.6943	29.5995	1.65296	51.4092	-15.1965	791.375	0
0.7867	201.038	-8.54697	-60.8664	-35.4391	16.781	-3.85019	43.4815	-19.7555	182.534	0.316227
0.7873	155.003	-28.9826	-57.8178	-226.465	-1.83803	-25.5201	20.8808	-24.9752	-227.927	0
0.7880	166.593	-51.5389	-59.0303	-163.625	-12.1979	-42.2917	4.70288	-24.6448	-385.061	-0.316227
0.7887	231.909	-58.8648	-66.6516	125.334	-15.2533	-50.234	-5.96594	-19.4912	-301.755	-0.316227
0.7893	296.575	-50.3179	-65.7509	248.679	-10.3837	-47.1901	-12.3887	-9.3822	6.73857	-0.316227
0.7900	292.567	-41.1925	-51.409	153.426	0.907081	-35.579	-12.6843	2.51073	438.303	-0.316227
0.7907	209.92	-37.8509	-43.476	36.5628	7.63858	-21.2466	-10.8569	11.959	766.346	0
0.7913	82.9716	-31.7459	-46.2127	-63.2718	10.3837	-11.47	-8.41144	25.9662	782.859	0
0.7920	-108.426	-26.2193	-54.1458	-226.81	6.39731	-13.002	-10.2388	37.9252	480.734	-0.316227
0.7927	-283.577	-22.2992	-60.2428	-392.251	-3.36575	-18.1826	-14.5117	37.0002	53.4643	-0.316227
0.7933	-358.966	-14.6519	-55.0811	-474.279	-4.58315	-22.1537	-13.598	40.0395	-277.022	-0.316227
0.7940	-396.228	-30.5249	-42.5406	-437.111	-2.74511	-28.2616	-15.7211	49.2235	-416.829	0
0.7947	-369.906	-65.6124	-6.54738	-303.394	-4.58315	-32.8375	-19.4027	53.4521	-428.084	-0.316227
0.7953	-249.673	-79.0434	68.2105	-247.555	-3.96251	-34.9743	-18.489	55.8968	-407.646	0
0.7960	-163.669	-73.8381	123.777	-343.068	-3.6522	-41.0822	-14.8074	54.9718	-383.284	0
0.7967	-161.177	-69.8538	132.61	-482.577	-5.49023	-45.0533	-4.75663	51.0075	-433.268	-0.316227
0.7973	-128.574	-110.789	132.299	-551.813	-6.70763	-44.4284	12.9531	51.6021	-613.95	0
0.7980	-34.2285	-137.33	112.795	-563.396	-12.5082	-49.6292	20.8808	50.4128	-711.919	0
0.7987	47.8766	-36.8869	74.0304	-620.185	-18.619	-56.9466	16.9304	41.2288	-597.215	-1.26491
0.7993	71.5983	29.9465	41.9864	-598.835	-23.799	-49.3268	24.24	31.7806	-347.221	-1.58113
0.8000	108.535	-74.4807	25.8084	-195.088	-42.1077	-30.096	42.5678	25.3716	45.5409	-0.632454
0.8007	245.015	-180.322	33.118	281.006	-61.037	-6.89407	52.941	19.8876	527.089	-1.58113
0.8013	377.705	-183.728	40.7739	376.519	-56.4539	12.9415	49.8774	21.7376	791.078	-0.948681
0.8020	434.247	-232.246	31.0048	205.028	-33.2756	19.6541	44.0727	34.8199	665.637	0.316227
0.8027	521.768	-306.663	25.4967	-11.9283	4.27283	31.8498	50.4955	60.1915	312.566	0
0.8033	625.862	-275.881	27.9563	-58.3449	40.8903	67.8723	59.0413	87.9416	77.5306	-0.316227
0.8040	639.943	-282.307	32.529	71.3105	60.1299	94.1181	52.0273	87.9416	163.355	-0.316227
0.8047	505.954	-290.211	31.0048	285.933	76.911	82.507	33.0814	58.0111	290.573	-0.316227
0.8053	157.061	-91.8317	15.7276	613.356	76.911	58.0956	7.76647	22.3323	281.391	-0.316227
0.8060	-355.933	87.2691	2.59817	860.825	24.4196	43.4608	-11.7706	1.91608	237.183	-0.316227
0.8067	-660.199	71.3961	-3.18708	793.664	-68.9621	33.0794	-16.3391	10.109	136.771	-0.316227
0.8073	-481.041	57.0655	-18.4297	506.261	-146.494	23.3229	-15.1298	18.6983	14.3657	0
0.8080	-168.543	68.0544	-43.476	222.748	-172.727	16.5901	-12.6843	0.991078	18.3645	0
0.8087	32.6037	48.8398	-69.1112	43.3049	-174.876	12.3166	-4.75663	-10.0429	88.2679	-0.316227
0.8093	218.694	38.4935	-86.1898	-7.9522	-171.51	11.1071	5.61658	-9.11792	71.1623	-0.316227
0.8100	259.963	58.6078	-88.9266	0.864369	-148.308	7.74071	13.2487	-26.8252	-54.2788	-0.316227
0.8107	86.6545	76.6014	-87.4023	-92.2282	-107.418	-7.51897	21.2033	-53.0557	-282.872	0.316227
0.8113	-146.229	43.0562	-102.368	-263.46	-62.8751	-22.7585	27.3036	-63.429	-436.674	0
0.8120	-329.07	49.1611	-112.449	-392.51	-19.2158	-11.47	25.7718	-59.1343	-404.907	-0.316227
0.8127	-482.232	110.468	-91.9751	-532.884	21.3642	4.99921	15.0761	-48.1664	-312.418	0
0.8133	-647.309	130.904	-70.0119	-574.114	47.0011	3.78972	-2.60674	-41.427	-155.876	0
0.8140	-624.129	137.009	-48.0487	-386.114	57.361	3.16482	-20.6121	-44.4664	72.0509	-0.316227
0.8147	-373.914	155.966	-5.92382	-281.093	54.3294	13.8486	-34.6669	-39.3127	227.112	0
0.8153	-196.597	180.964	53.8686	-373.321	39.6729	27.5763	-44.4221	-17.6412	275.319	0
0.8160	-38.7779	203.842	109.435	-387.324	32.0343	33.6842	-44.7177	2.18037	270.135	0
0.8167	218.478	198.701	124.366	-310.395	36.9278	26.3668	-35.8763	3.43574	181.053	-0.316227
0.8173	237.325	172.739	108.499	-114.788	36.6174	12.6391	-25.7987	-0.528575	129.144	-0.632454
0.8180	-103.227	147.419	101.19	477.218	30.5066	4.69683	-18.489	-6.01254	318.638	-0.316227
0.8187	-403.485	124.542	100.878	948.126	36.6174	-5.98695	-17.2529	-15.7912	534.717	0
0.8193	-429.481	110.468	100.255	616.727	64.0925	-19.1099	-17.2529	-1.18929	439.784	-0.316227
0.8200	-351.925	98.5793	97.206	128.705	86.9843	-36.2039	-9.02953	28.4109	129.736	-0.316227
0.8207	-258.555	72.0387	72.5061	33.5375	70.8001	-67.0256	1.96177	32.7056	-120.776	-0.316227
0.8213	-111.134	38.4935	28.857	37.1679	32.9652	-91.7394	5.02536	-1.18929	-218.448	0
0.8220	20.0388	3.66299	-18.7414	72.607	7.63858	-103.955	-1.98865	-55.7646	-204.749	0
0.8227	89.0375	-28.9826	-60.8664	240.727	-2.74511	-114.941	-11.7706	-90.9149	-168.39	0
0.8233	64.016	-58.8648	-99.0074	460.795	-3.96251	-125	-15.1298	-93.2934	-183.052	-0.316227
0.8240	27.7294	-91.2534	-141.721	484.22	3.6522	-128.669	-16.0435	-94.5488	-193.419	-0.316227
0.8247	125.649	-114.709	-172.241	302.702	16.4707	-119.517	-16.6616	-103.072	-157.431	0
0.8253	319.755	-110.147	-167.98	200.447	28.9789	-101.194	-8.11583	-89.0648	-107.373	0.316227
0.8260	602.682	-85.7267	-136.56	194.915	35.7104	-74.6454	1.66616	-53.0557	-74.7167	0
0.8267	1004	-51.8602	-76.7325	141.238	33.2517	-38.0182	6.55716	-13.3465	-29.546	-0.316227
0.8273	1286.82	-9.12534	7.20558	9.07588	32.3446	4.99921	16.0167	29.0716	37.2473	0
0.8280	1372.93	21.9779	68.8341	-138.904	37.2381	56.8861	18.4353	63.5611	-53.9826	-0.316227
0.8287	1388.75	41.1925	104.862	-140.719	36.6174	105.407	7.76647	87.6773	-324.044	-1.58113
0.8293	1066.17	64.7128	129.874	-93.179	27.475	132.56	-6.58403	114.172	-524.572	-0.948681
0.8300	328.962	71.1391	113.072	-136.743	11.2908	139.595	-28.8622	129.765	-491.916	0
0.8307	-520.685	54.0451	66.998	-14.6943	-0.310317	124.013	-43.5084	124.281	-174.833	0.316227
0.8313	-1193.88	32.6456	27.0209	155.241	-2.14835	83.7367	-39.5311	107.499	322.044	0
0.8320	-1422.76	13.7523	-1.35105	123.518	-0.620635	56.5837	-36.79	80.013	676.597	-1.26491
0.8327	-1288.55	-8.22565	-21.7899	107.355	15.5636	59.3252	-40.1492	42.1538	692.221	-1.26491
0.8333	-926.011	-33.5452	-39.4921	148.585	31.1272	44.3679	-41.9766	15.9233	535.605	0
0.8340	-346.726	-37.5295	-27.887	60.938	17.6881	22.3956	-33.1351	24.1823	303.68	0.316227
0.8347	214.47	-16.1943	12.0901	-125.506	-7.01795	31.5474	-19.4027	47.0432	-114.111	-0.632454
0.8353	612.105	0.321315	37.7254	-167.255	-23.4886	49.5486	-10.8569	45.5235	-573.371	-1.58113
0.8360	920.379	5.52661	51.7555	-95.5992	-29.9098	67.2675	-0.483725	24.4466	-823.29	-1.58113
0.8367	988.402	8.86828	61.5246	-161.205	-33.8723	85.5711	5.93907	-1.45358	-847.727	-0.948681
0.8373	466.526	16.1943	63.0488	-290.255	-38.4555	95.63	-1.98865	-21.2751	-664.601	-0.632454
0.8380	-281.41	16.7726	51.7555	-327.509	-30.5305	95.0252	-11.4482	-34.4234	-273.097	0
0.8387	-661.715	6.10498	32.2173	-323.274	-8.54566	66.945	-13.8937	-50.2807	106.558	0
0.8393	-621.421	-4.88398	23.0717	-342.117	14.6565	17.215	-7.79334	-48.761	220.966	0
0.8400	-210.354	-24.7412	7.20558	-427.949	32.6549	-20.3194	8.97578	-40.2378	142.843	0
0.8407	143.955	-49.0969	-18.4297	-471.513	50.9637	-26.1249	25.4762	-48.761	80.9369	0
0.8413	126.624	-61.0498	-26.6745	-474.279	67.7447	7.74071	34.022	-57.6147	161.207	0
0.8420	-102.036	-67.4118	-19.6768	-579.56	71.1104	57.4909	36.4406	-56.095	298.793	-0.316227
0.8427	-336.328	-81.8067	-25.7738	-525.536	59.199	78.2537	38.5905	-58.87	322.044	0
0.8433	-313.473	-105.584	-51.998	-108.738	40.2935	70.9161	41.3316	-74.7273	272.875	0
0.8440	-18.0891	-118.372	-66.0627	276.771	20.4571	62.0667	38.2949	-81.7309	207.859	-0.316227
0.8447	280.111	-113.81	-52.6215	274.61	-2.14835	46.5047	34.3176	-72.8772	90.0451	-0.316227
0.8453	461.327	-104.684	-35.5429	62.4939	-17.0913	5.92648	30.3403	-69.5076	8.88603	-0.316227
0.8460	545.273	-88.1687	-17.529	-35.1798	-21.0538	-37.4134	33.0814	-70.4326	89.4527	0
0.8467	206.563	-64.9698	4.15706	-6.74208	-28.0718	-45.6581	47.1363	-68.3183	293.609	0.316227
0.8473	-621.096	-45.1768	9.31875	133.026	-36.0207	-49.9316	54.1503	-58.2093	430.01	0
0.8480	-1147.85	-29.3039	4.4342	431.147	-31.7478	-68.86	47.1363	-40.8324	377.878	0.316227
0.8487	-1141.13	-18.6362	6.8938	674.727	-17.9984	-72.811	34.022	-30.1288	228.593	0
0.8493	-1073.97	-15.2303	6.27024	766.523	-7.32826	-60.9177	17.226	-26.8252	61.3876	0
0.8500	-934.243	-15.5516	-5.92382	771.104	-0.907081	-49.6292	2.57987	-20.6805	-124.182	0
0.8507	-648.825	-24.4199	-24.8385	647.845	-0.310317	-54.5075	-10.2388	-22.2001	-278.577	0
0.8513	-425.798	-35.4089	-28.5105	411.613	-11.6011	-74.0406	-25.503	-41.7574	-379.285	0
0.8520	-293.325	-31.4246	-7.44807	148.239	-21.9848	-98.4521	-30.0716	-51.8003	-405.869	0
0.8527	-177.425	-22.5563	7.7945	-110.207	-19.8364	-99.3592	-15.4254	-32.5734	-336.558	-0.316227
0.8533	-38.7779	-25.9622	-0.727486	-341.858	-14.943	-75.2501	-0.779334	-14.0072	-254.437	0
0.8540	28.0544	-33.8666	-12.3326	-522.252	-13.1288	-66.0984	6.23467	-19.7555	-208.081	0
0.8547	-90.6622	-35.4089	-12.3326	-714.487	-9.45274	-61.5225	13.2487	-33.4984	-260.583	-0.316227
0.8553	-252.489	-35.4089	-12.9562	-912.86	-27.475	-48.7019	21.2033	-37.4627	-454.668	0
0.8560	-270.145	-37.8509	-24.2495	-804.209	-74.7626	-38.3407	28.5129	-31.6484	-580.109	0
0.8567	-140.705	-42.7348	-48.6723	-351.625	-116.274	-32.8375	28.5129	-19.1608	-532.199	-0.316227
0.8573	153.487	-44.5342	-71.5362	-68.1123	-130.309	-36.8087	19.349	2.51073	-475.699	-0.316227
0.8580	814.769	-34.1879	-63.9149	-122.74	-116.274	-48.3996	12.335	30.5913	-487.917	-0.316227
0.8587	1680.55	-17.4153	-35.5429	-191.112	-99.1822	-66.0984	8.06208	50.7432	-504.134	-1.26491
0.8593	2354.4	-1.54231	-11.7437	67.6801	-88.512	-58.4786	8.06208	62.3058	-369.807	-1.58113
0.8600	2489.91	19.5359	8.41806	499.778	-54.9262	-6.59169	14.4849	79.6826	-71.3844	0
0.8607	1623.8	43.6345	29.7577	529.08	-22.5816	36.7482	18.7578	100.429	180.683	0.316227
0.8613	111.026	62.8491	48.3952	136.397	-44.5663	43.7632	23.6219	114.172	226.52	0
0.8620	-1076.68	68.9541	50.2312	-176.418	-84.5257	26.3668	31.5765	118.797	59.5364	0
0.8627	-1448.75	54.9448	22.1364	-24.8074	-90.6365	-14.534	37.6768	107.499	-90.2672	0
0.8633	-1182.62	26.2835	-23.9378	328.028	-72.3278	-61.8248	40.4179	87.0166	24.4366	0
0.8640	-748.695	-3.02036	-66.9634	406.772	-59.199	-96.9201	41.6272	67.7897	301.236	0
0.8647	-358.641	-16.1943	-80.7163	412.823	-56.1436	-117.683	42.5678	54.0468	526.497	0
0.8653	-261.913	-6.42629	-49.2612	466.846	-45.7837	-124.093	43.7771	54.9718	719.324	0
0.8660	-257.905	13.431	8.41806	436.939	-22.8919	-114.941	45.6045	56.2271	901.561	0
0.8667	342.935	39.0719	65.162	473.847	17.0913	-84.7244	52.0273	47.9682	959.246	0.316227
0.8673	778.482	56.7442	87.1598	536.427	61.037	-55.4146	60.5731	35.1502	824.919	0
0.8680	-112.651	54.0451	71.5708	434.173	79.3457	-48.0972	57.8051	24.7769	565.521	-0.316227
0.8687	-1352.35	43.9558	58.476	278.24	88.2017	-41.9893	45.6045	28.4109	329.005	0
0.8693	-1513.75	19.5359	48.7069	206.238	96.7474	-29.7937	36.145	17.443	227.408	0
0.8700	-796.246	-23.1989	24.9077	178.752	65.9066	-10.8652	28.2173	-25.5698	252.733	0
0.8707	39.8611	-53.0812	7.48272	165.613	-2.14835	28.2012	8.68017	-61.2486	307.086	0
0.8713	462.843	-53.7238	8.10628	170.799	-43.6354	67.2675	-22.7619	-69.8379	336.928	0
0.8720	349.326	-43.9558	10.843	168.725	-39.6729	84.9663	-45.9539	-69.2433	340.927	0
0.8727	186.09	-42.7348	2.00925	151.351	-17.712	76.7217	-47.7813	-74.0665	311.307	0
0.8733	202.013	-48.8398	-15.6929	132.421	6.70763	55.9588	-39.5311	-80.4755	252.141	-0.316227
0.8740	284.335	-54.9448	-30.9701	71.3105	40.58	81.9023	-27.6261	-74.7273	177.35	0
0.8747	452.77	-56.7442	-39.1803	-35.4391	77.818	137.458	-16.6616	-63.0986	99.8197	0
0.8753	593.475	-54.6235	-41.3282	-69.0631	86.3637	150.258	-16.3391	-56.095	21.9929	0
0.8760	623.695	-47.8759	-39.1803	-25.4125	82.9979	163.079	-24.2669	-43.2771	-60.0547	0
0.8767	721.073	-30.7819	-27.2981	-35.1798	96.7474	199.101	-36.79	-17.9715	-95.4507	0
0.8773	933.485	-12.5313	-11.1201	-79.0898	96.4371	202.75	-58.4501	1.58572	-15.5505	0
0.8780	1008.55	-6.42629	-4.71134	-108.133	77.818	182.914	-82.8782	2.77502	109.298	0
0.8787	528.159	-2.76331	3.22173	-129.742	81.1838	186.583	-89.5966	-1.78394	156.912	0
0.8793	-400.127	2.12068	12.9908	-108.392	118.112	190.857	-73.7143	-7.86255	120.628	0
0.8800	-1048.09	-1.79936	7.7945	-68.7173	176.38	150.883	-43.804	-17.9715	40.0612	0
0.8807	-1139.29	-12.7883	-7.13629	-49.7877	217.58	109.983	-7.79334	-30.1288	-39.3207	0
0.8813	-1092.6	-23.1989	-25.462	-40.366	236.199	82.507	12.9531	-46.0521	-88.7862	0
0.8820	-1044.94	-33.2239	-46.5245	-33.0189	267.637	34.3091	24.24	-58.5397	-106.78	0
0.8827	-684.245	-43.6345	-62.7024	39.3288	239.255	-38.0182	57.5095	-56.4254	-77.4565	0
0.8833	-54.0507	-46.9762	-68.1759	137.003	120.546	-85.0268	98.7067	-41.1628	-27.6948	0
0.8840	434.464	-44.8555	-72.1597	136.397	38.7658	-63.3569	123.726	-24.6448	-22.5113	0.316227
0.8847	540.399	-45.1768	-82.5177	127.235	17.9984	-50.234	142.054	-21.9359	-82.0476	0.316227
0.8853	522.418	-42.0922	-87.7141	148.585	-4.58315	-79.5237	150.895	-21.2751	-167.502	0.316227
0.8860	473.892	-31.4246	-86.1898	127.84	-32.3446	-110.668	145.709	-4.49289	-223.632	0.316227
0.8867	227.901	-26.5406	-99.9081	74.6815	-55.8571	-140.562	124.64	16.8483	-243.773	-0.316227
0.8873	121.1	-31.4246	-127.691	-26.6226	-64.9995	-93.8762	94.1382	29.9966	-249.549	-0.316227
0.8880	277.294	-33.2239	-137.46	-163.02	-40.8903	40.0944	75.5148	39.1145	-252.659	0
0.8887	413.125	-16.4513	-109.088	-351.28	-19.5261	168.582	48.9637	61.1165	-269.691	-0.632454
0.8893	496.422	19.8572	-47.4252	-708.696	-34.7794	337.648	-6.26155	101.354	-304.791	-1.58113
0.8900	764.726	61.6281	33.4297	-1080.98	-74.7626	531.125	-53.586	148.992	-328.042	-0.632454
0.8907	1268.84	107.126	125.301	-1141.4	-150.146	579.041	-75.5417	186.521	-331.967	0.316227
0.8913	1322.89	151.082	209.204	-1075.53	-221.256	509.455	-77.9872	202.973	-337.817	-0.316227
0.8920	561.196	175.759	255.59	-1139.24	-229.802	443.538	-38.9398	203.303	-301.162	-0.316227
