MR32 ASCII
Name	KneeFJC2
Frequency	1500
Date	14-09-2015 09:37:31
"Time,s"	"RT TIB.ANT.,uV"	"RT MED. GASTRO,uV"	"RT LAT. GASTRO,uV"	"RT BICEPS FEM.,uV"	"RT VMO,uV"	"RT VLO,uV"	"RT RECTUS FEM.,uV"	"RT SOLEUS,uV"	"RT SEMITEND.,uV"	"Channel 12,uV"
0.0000	-2.56207	-20.3469	36.1102	1.72636	0.775899	1.36341	0.541997	-13.1073	2.38063	-5368.41
0.0007	-5.02165	-30.1109	22.3781	1.72636	-0.172422	0.419511	0.541997	6.12227	1.77775	-10302
0.0013	-7.17378	-31.3303	17.4936	-20.2492	-1.37938	0.419511	-0.989734	16.4958	-0.973896	-9935.72
0.0020	-5.3291	-29.5056	19.9358	-33.0648	-1.98285	1.36341	-1.57886	14.6664	-2.19513	-9604.03
0.0027	-1.63972	-53.0033	25.7361	-21.4678	-1.03453	2.88414	0.848343	4.89574	-0.973896	-9916.23
0.0033	-0.717378	-92.9761	19.02	0.192946	0.775899	2.88414	2.07373	-12.494	-0.0618347	-9804.61
0.0040	-1.94717	-68.259	3.76148	17.8932	0.431055	0.734145	1.15469	-30.5074	-0.664723	-9805.87
0.0047	-3.17696	-5.99903	-6.61257	28.881	-0.775899	-1.99268	-1.27252	-34.4676	-2.19513	-9819.39
0.0053	-3.48441	-0.818859	-11.497	40.478	-0.775899	-2.62194	-2.80425	-15.2485	-2.19513	-9819.71
0.0060	-2.56207	10.4761	-10.8865	49.0286	0.775899	-0.786583	-0.989734	10.9972	-0.664723	-9800.84
0.0067	0.204965	55.0327	-7.22312	44.4486	1.72422	0.419511	0.848343	23.512	0.247339	-9818.45
0.0073	2.04965	52.8965	-4.48106	29.4903	1.37938	-0.786583	0.541997	22.5973	-0.0618347	-9909.94
0.0080	-0.717378	15.051	-7.83368	14.2374	-0.775899	-2.93658	-2.19155	22.8987	-1.88596	-9560.64
0.0087	-2.86951	-1.12148	-12.7182	8.7435	-2.58633	-2.62194	-3.41694	29.6135	-2.79802	-10096.4
0.0093	-0.40993	0.40943	-10.8865	12.704	-0.775899	0.419511	-0.377041	36.0268	-1.28307	-10025.3
0.0100	1.43476	-5.09117	-8.74952	4.46822	0.775899	1.04878	2.07373	35.7254	0.247339	-4447.21
0.0107	0.204965	-6.61318	-13.634	-26.657	0.775899	-0.157317	1.46104	22.8987	-0.355549	107.211
0.0113	-1.94717	30.9208	-24.3133	-38.2541	-0.172422	-1.73048	-1.88521	6.4237	-1.28307	107.211
0.0120	-1.94717	76.3942	-25.5344	-15.0599	-0.431055	-2.62194	-2.4979	2.45306	-0.664723	-213.479
0.0127	0.819861	62.9631	-10.5812	-1.02566	0.775899	-0.47195	-0.0706953	2.45306	0.556512	99.0365
0.0133	2.972	29.0962	1.01396	-5.91024	1.37938	1.94024	1.46104	0.322225	0.850226	-13.2049
0.0140	3.27944	32.7544	1.9298	-6.82419	0.431055	1.94024	1.76738	7.63984	-0.355549	-11.6329
0.0147	1.12731	37.6408	0.708684	0.802249	-1.37938	-0.157317	-0.683388	25.6532	-1.28307	1.88641
0.0153	-0.102483	23.5956	4.06676	7.22024	-1.63801	-1.99268	-2.80425	10.0825	-0.355549	-0.628803
0.0160	0.819861	12.007	12.9144	9.3528	-0.172422	-0.47195	-0.377041	-42.0971	1.1594	-0.943205
0.0167	-0.40993	-5.39379	12.9144	14.542	0.775899	0.734145	2.07373	-59.7987	2.07146	-0.628803
0.0173	-2.86951	-36.822	5.59315	13.3234	0.431055	0.104878	0.848343	-39.9663	1.77775	-0.314402
0.0180	-2.56207	-65.2061	-9.0548	-6.51954	-1.37938	-1.10122	-1.88521	-20.7367	-0.355549	-0.943205
0.0187	-1.63972	-81.3786	-42.3193	-18.4213	-2.24149	-1.10122	-2.4979	-6.09108	-2.19513	-1.88641
0.0193	-0.40993	-74.3649	-57.8831	-5.60559	-0.172422	1.04878	-0.0706953	6.72514	0.247339	-1.57201
0.0200	-0.102483	-14.8552	-39.8771	7.82954	1.72422	2.25487	2.38007	12.5252	2.07146	0
0.0207	-1.63972	52.5939	-32.8611	10.2668	0.431055	0.734145	1.15469	-2.12045	0.556512	0
0.0213	-3.48441	67.8496	-42.9299	8.13419	-1.37938	-1.41585	-1.57886	-17.0779	-0.973896	-0.628803
0.0220	-3.48441	64.1914	-46.8985	10.8761	-1.03453	-1.73048	-2.19155	-0.592478	-0.355549	-0.314402
0.0227	0.204965	47.4048	-44.4563	19.4266	0.775899	0.104878	0.235651	19.5414	1.1594	-0.314402
0.0233	2.972	16.5819	-12.1076	-0.721008	1.12074	1.04878	1.46104	5.509	0.850226	-0.628803
0.0240	2.66455	26.0433	59.6058	-35.2076	0.172422	0.419511	0.848343	-25.9235	-0.0618347	0
0.0247	1.12731	49.8436	91.0386	-30.6276	-1.37938	-1.41585	-0.989734	-42.4089	-0.355549	0
0.0253	0.819861	40.9964	54.1162	-8.6521	-1.37938	-1.99268	-2.4979	-37.2118	-0.0618347	-0.314402
0.0260	1.43476	30.0041	24.515	-0.721008	0.431055	-0.47195	-0.683388	-12.8058	1.46857	0.314402
0.0267	2.04965	30.3156	21.1569	1.72636	1.12074	0.419511	1.46104	13.1384	2.07146	0.314402
0.0273	1.12731	24.8239	16.5778	2.64031	0.775899	-0.47195	0.541997	8.86637	0.850226	0
0.0280	-1.33227	15.051	8.34066	2.33566	-0.172422	-1.99268	-2.4979	-7.30722	-0.973896	-0.314402
0.0287	-1.94717	12.3096	4.37203	2.03101	-1.37938	-2.62194	-3.41694	-5.47782	-1.57678	0
0.0293	1.43476	12.9148	6.20371	3.24962	0.172422	-0.47195	-0.683388	5.81044	-0.355549	0
0.0300	2.972	7.12051	5.89843	4.16357	1.98285	1.04878	2.07373	12.5252	0.556512	-0.314402
0.0307	-0.102483	-4.1744	0.708684	2.64031	0.431055	0.734145	1.15469	9.78108	0.247339	-0.314402
0.0313	-3.79186	-12.719	-4.48106	1.72636	-0.775899	-1.10122	-1.57886	5.20757	-0.664723	-0.314402
0.0320	-4.40675	-13.9384	-6.91785	-1.33031	-0.775899	-1.73048	-2.19155	6.12227	-0.355549	0
0.0327	-2.25462	-13.0216	-4.78634	-4.99628	0.172422	-0.47195	-0.377041	5.81044	0.556512	0
0.0333	-0.102483	-12.1049	-1.42827	-2.85357	0.775899	0.104878	0.848343	1.85019	1.1594	-0.314402
0.0340	0.512413	-9.05195	-2.03883	1.1069	0.431055	-0.157317	0.848343	-1.20574	1.1594	0
0.0347	-1.63972	-6.9158	-4.17578	1.72636	-0.431055	-1.73048	-1.27252	-2.12045	0.556512	0.314402
0.0353	-2.86951	-4.1744	-5.70218	2.03101	-1.03453	-2.30731	-2.19155	-1.20574	-0.355549	0
0.0360	-1.63972	-2.95501	-4.78634	3.85892	0.431055	-0.47195	-0.0706953	3.98103	0.247339	0
0.0367	-0.717378	-16.9913	-4.17578	4.77287	1.37938	0.734145	1.76738	9.47964	1.1594	-0.314402
0.0373	-0.40993	-38.9581	-5.3969	4.46822	0.775899	0.104878	0.848343	11.309	0.850226	-0.314402
0.0380	-1.33227	-49.3363	-7.83368	3.85892	-0.431055	-1.73048	-1.27252	14.3546	-0.355549	0
0.0387	-1.94717	-47.5027	-12.7182	3.24962	-1.37938	-1.99268	-1.57886	15.5811	-0.664723	-0.314402
0.0393	1.7422	-45.9807	-15.1604	1.72636	0.172422	0.419511	0.848343	11.309	0.850226	-0.314402
0.0400	5.12413	-54.828	-7.22312	-0.416357	1.12074	1.04878	2.07373	1.53836	1.46857	-0.314402
0.0407	4.81668	-62.4647	3.15092	-0.416357	0.431055	0.104878	1.15469	-2.73371	0.556512	-0.314402
0.0413	0.819861	-70.3952	4.98259	-0.416357	-0.775899	-1.41585	-1.57886	7.33841	-0.355549	0
0.0420	-2.86951	-99.082	5.28787	4.77287	-1.03453	-1.99268	-2.19155	15.2693	-0.355549	-0.314402
0.0427	-2.56207	-97.2484	6.50899	18.1978	0.775899	-0.47195	-0.0706953	5.20757	0.850226	-0.314402
0.0433	-1.02483	1.62882	4.67731	28.881	1.37938	0.734145	0.848343	-11.2779	1.77775	-0.314402
0.0440	-0.102483	92.2641	1.31924	31.0237	1.12074	0.104878	-0.0706953	-13.7205	1.77775	0
0.0447	-0.717378	67.8496	-1.42827	29.7949	-0.775899	-2.30731	-2.19155	-6.09108	-0.0618347	0
0.0453	-0.102483	15.6651	-1.12299	31.3283	-1.03453	-2.30731	-2.4979	1.23693	-0.664723	0
0.0460	3.27944	8.03728	2.23508	32.8516	0.431055	-0.47195	-0.0706953	5.81044	0.850226	0
0.0467	4.20179	5.90113	3.4562	31.0237	1.12074	0.734145	1.46104	9.78108	1.77775	0
0.0473	0.204965	-1.12148	0.0981255	26.4437	0.172422	0.104878	0.541997	26.2561	0.556512	0
0.0480	-4.0993	30.9208	-5.3969	24.301	-1.03453	-1.73048	-1.27252	34.8003	-0.973896	0
0.0487	-3.79186	77.9162	-8.74952	22.7778	-1.03453	-1.99268	-1.57886	8.86637	-0.664723	0.314402
0.0493	-1.02483	72.7361	-10.8865	-12.6227	0.172422	0.104878	0.541997	-10.3632	-0.0618347	-0.314402
0.0500	0.819861	38.8602	-11.8023	-68.1607	1.12074	1.36341	1.46104	6.12227	-0.973896	-1.25761
0.0507	1.12731	26.3459	-12.1076	-73.3499	1.12074	1.04878	1.15469	29.312	-0.664723	-0.943205
0.0513	-0.40993	22.0736	-15.1604	-36.1215	-0.431055	-1.73048	-0.683388	34.8003	-0.664723	0.314402
0.0520	-1.02483	14.7484	-15.7709	-6.51954	-1.03453	-2.30731	-2.19155	25.9547	-1.28307	-0.314402
0.0527	0.512413	13.529	-7.5284	8.7435	0.775899	0.104878	0.235651	25.6532	0.247339	-0.314402
0.0533	2.04965	10.4761	1.31924	14.8467	1.72422	0.734145	1.76738	33.5841	1.46857	0
0.0540	2.972	1.01467	9.56178	18.1978	1.12074	-0.157317	0.848343	18.0238	0.850226	-0.314402
0.0547	1.7422	-8.13519	16.5778	19.7313	-1.03453	-2.62194	-1.57886	-28.9794	-0.355549	0
0.0553	0.204965	-10.8855	11.6933	16.3699	-1.03453	-3.25121	-1.88521	-60.4119	-0.664723	0
0.0560	-0.40993	-0.818859	-1.73355	12.3993	0.431055	-1.10122	0.541997	-51.2545	0.556512	0
0.0567	-1.63972	19.0207	-8.74952	14.8467	0.775899	-0.47195	1.76738	-33.5529	0.556512	0
0.0573	-1.33227	25.4291	-8.44424	13.9327	1.12074	-1.10122	0.235651	-18.5955	-0.355549	0
0.0580	-0.102483	9.25667	-13.9393	-20.5538	-0.172422	-1.73048	-1.57886	-4.86455	-2.79802	-0.314402
0.0587	0.204965	-3.56026	-27.3661	-60.8389	-1.37938	-1.10122	-1.57886	5.20757	-4.32843	-0.314402
0.0593	0.819861	-0.507337	-27.6714	-47.1093	-0.172422	0.419511	0.541997	7.95167	-2.19513	0.314402
0.0600	1.43476	8.95405	-4.17578	-3.15822	1.12074	0.419511	1.76738	8.56494	0.850226	0
0.0607	1.7422	15.051	14.4408	22.4731	0.775899	-0.47195	0.541997	21.6826	1.77775	-0.314402
0.0613	-0.102483	15.3625	15.3566	29.4903	-1.03453	-2.30731	-1.57886	39.3842	0.850226	0
0.0620	-1.33227	15.9678	15.3566	33.7655	-1.37938	-2.62194	-1.57886	55.2563	0.850226	0
0.0627	-0.717378	15.3625	11.0827	39.8687	0.172422	-0.786583	0.235651	71.7314	2.07146	-0.314402
0.0633	-0.40993	5.90113	-6.61257	43.8393	0.775899	0.419511	1.46104	95.233	2.38063	0
0.0640	0.512413	-13.0216	-32.8611	42.6207	1.12074	-0.157317	1.15469	123.61	1.77775	0
0.0647	2.3571	-27.6721	-53.3094	38.3455	-0.172422	-2.62194	-1.88521	111.708	0.556512	0
0.0653	3.27944	-29.8083	-53.3094	34.9841	-1.03453	-2.93658	-3.11059	82.7182	0.850226	0
0.0660	4.20179	-31.3303	-40.7929	4.46822	-0.172422	0.104878	-0.377041	76.0034	0.850226	0
0.0667	3.89434	-39.2696	-30.4189	-71.522	0.775899	1.94024	1.46104	15.2693	-0.355549	0
0.0673	2.66455	-45.9807	-12.4129	-119.129	0.431055	1.94024	1.15469	-76.887	-2.5043	0
0.0680	0.819861	-44.7613	15.9672	-97.1533	-1.63801	0.734145	-1.57886	-120.834	-4.32843	0
0.0687	-1.63972	-34.9973	31.8363	-62.0575	-1.98285	-0.157317	-2.4979	-104.047	-4.32843	0
0.0693	-2.86951	-25.5359	52.8951	-36.4262	0.172422	1.36341	0.235651	-53.6972	-2.19513	0
0.0700	-3.48441	-25.8386	83.1068	-11.4041	1.37938	1.62561	1.76738	-47.2839	-0.0618347	0
0.0707	-3.79186	-36.5193	70.5958	3.24962	0.775899	0.419511	0.848343	-72.3134	0.556512	-0.314402
0.0713	-4.7142	-38.6555	29.394	2.03101	-0.775899	-1.99268	-2.19155	-72.9267	-1.28307	-0.314402
0.0720	-4.0993	-1.72672	13.525	-2.24427	-1.03453	-1.73048	-2.80425	-61.3266	-2.79802	-0.314402
0.0727	-0.717378	44.0493	13.8302	-1.63496	0.431055	0.104878	-0.0706953	-52.7825	-0.664723	0
0.0733	1.43476	43.7378	11.6933	-3.76752	1.98285	0.734145	2.07373	-35.0809	0.850226	0
0.0740	0.819861	14.7484	7.73011	-2.85357	1.72422	-1.10122	1.15469	11.9119	1.46857	0
0.0747	-1.94717	-3.25764	0.403405	4.16357	-0.172422	-3.51341	-1.57886	50.9843	1.1594	-0.314402
0.0753	-4.40675	-4.77964	-6.91785	7.22024	-0.775899	-3.25121	-2.4979	36.3282	0.556512	-0.314402
0.0760	-2.86951	-4.1744	-7.5284	4.77287	0.775899	0.104878	0.541997	-2.73371	0.850226	-0.314402
0.0767	-0.40993	-9.6661	-5.70218	3.55427	0.775899	1.94024	2.68642	-34.1662	1.77775	-0.314402
0.0773	-0.717378	-13.3243	-6.31274	4.16357	-0.172422	0.104878	0.848343	-53.3853	1.1594	0
0.0780	-3.17696	-15.1578	-9.0548	2.03101	-1.03453	-2.93658	-1.88521	-50.3398	-1.57678	-0.314402
0.0787	-2.86951	-13.6358	-8.74952	2.64031	-1.63801	-3.51341	-3.41694	-27.4515	-2.79802	-1.25761
0.0793	1.12731	2.54558	-3.8705	8.13419	0.431055	-0.47195	-0.989734	-3.94985	-0.664723	-0.943205
0.0800	3.27944	26.3459	-0.512433	4.77287	1.72422	1.36341	2.07373	-1.20574	0.247339	0.314402
0.0807	3.58689	40.9964	3.76148	-14.4506	-0.775899	1.04878	1.76738	-15.8514	-2.19513	0
0.0813	3.58689	38.2461	4.67731	-26.3523	-2.24149	0.734145	-0.683388	-17.3793	-4.01925	-0.314402
0.0820	2.972	22.3762	1.62452	-10.7948	-1.98285	-0.157317	-0.989734	9.16781	-3.10719	0
0.0827	2.972	3.15083	-0.512433	10.5714	-0.431055	0.734145	0.848343	43.9577	-0.0618347	0
0.0833	2.04965	-8.13519	-7.5284	8.43884	0.431055	1.94024	1.76738	32.6694	0.556512	0
0.0840	-0.102483	-8.13519	-17.2973	-1.02566	-0.431055	1.94024	1.15469	-39.0515	-1.28307	-0.314402
0.0847	-1.63972	-8.74933	-23.0922	-8.95675	-1.63801	1.04878	-0.683388	-80.8576	-2.5043	0
0.0853	-0.717378	-9.36348	-24.6186	-26.9617	-1.37938	0.419511	-1.27252	-45.153	-2.79802	0
0.0860	2.04965	-4.47702	-22.4816	-34.9029	0.172422	1.36341	0.235651	-13.4087	-1.28307	0
0.0867	2.66455	1.62882	-19.7396	-29.409	0.775899	1.36341	1.15469	-24.7074	0.247339	0
0.0873	1.12731	3.45345	-14.8551	-28.1803	0.431055	0.419511	0.541997	-35.6942	0.556512	0
0.0880	-1.02483	-2.34087	-6.00746	-29.409	-1.03453	-2.30731	-2.19155	-21.9529	-0.355549	-0.314402
0.0887	-0.40993	-9.05195	0.708684	-25.4384	-1.03453	-3.25121	-3.41694	13.4399	-0.664723	0
0.0893	1.7422	-8.74933	8.03539	-16.2785	1.12074	-0.786583	0.235651	43.6562	-0.0618347	0
0.0900	2.3571	-4.47702	19.6305	-7.43349	1.72422	0.734145	2.38007	64.7152	1.46857	0.314402
0.0907	1.12731	-0.204715	23.2939	-1.63496	0.775899	0.419511	0.848343	92.177	2.68981	0
0.0913	-1.94717	3.15083	14.1355	0.192946	-1.03453	-0.47195	-1.57886	96.4491	1.77775	-0.314402
0.0920	-4.40675	5.28698	8.64594	2.33566	-1.37938	-0.157317	-1.57886	78.1447	1.1594	0
0.0927	-4.7142	6.50637	11.0827	6.90543	0.172422	1.36341	0.235651	75.3902	1.77775	-0.314402
0.0933	-4.40675	6.20375	12.3038	9.3528	1.12074	1.62561	1.46104	86.0756	1.77775	-0.314402
0.0940	-2.56207	7.42314	12.6091	8.43884	0.775899	1.04878	0.541997	87.905	1.46857	-0.314402
0.0947	-2.25462	5.5896	8.64594	9.3528	-1.03453	-1.10122	-1.88521	81.8035	0.556512	0
0.0953	-3.17696	-6.9158	4.06676	13.3234	-1.37938	-2.30731	-2.80425	34.8003	-0.0618347	0
0.0960	-2.25462	-28.8915	4.06676	9.9621	0.172422	-0.47195	-0.377041	-93.0606	0.850226	0
0.0967	-1.63972	-47.2001	7.73011	-0.416357	0.172422	1.04878	1.15469	-186.443	1.1594	0
0.0973	-2.25462	-50.5556	8.95122	-3.15822	0.172422	0.104878	0.541997	-154.096	0.556512	0
0.0980	-3.48441	-45.3666	0.403405	-0.111706	-1.03453	-2.30731	-1.57886	-90.015	-0.664723	0.314402
0.0987	-3.48441	-42.6252	-7.83368	6.29613	-1.98285	-2.62194	-2.4979	-56.7427	-1.57678	0
0.0993	-1.94717	-48.4195	-6.91785	16.0653	-0.172422	1.04878	-0.0706953	-30.5074	-0.664723	0
0.1000	-1.63972	-65.5087	-4.78634	16.6746	1.12074	2.56951	1.76738	-3.33658	-0.0618347	0.314402
0.1007	-2.25462	-70.6978	-6.91785	15.1513	-0.172422	1.36341	1.15469	11.309	-0.973896	0
0.1013	-2.56207	-27.6721	-11.8023	23.3871	-1.37938	-0.786583	-1.88521	6.72514	-1.57678	-0.943205
0.1020	-1.02483	33.6711	-13.3287	24.301	-1.03453	-1.10122	-2.19155	-3.33658	0.247339	-0.628803
0.1027	2.3571	48.3216	-14.2445	14.542	0.172422	0.734145	0.541997	-3.03515	1.1594	0.314402
0.1033	3.89434	36.7241	-20.0449	15.1513	0.431055	0.734145	1.15469	7.03697	0.556512	0
0.1040	3.89434	30.3156	-24.3133	24.9205	0.172422	-0.157317	0.541997	14.6664	1.1594	0
0.1047	2.04965	36.4125	-22.7869	25.8344	-1.03453	-1.99268	-1.27252	10.3943	0.556512	0.314402
0.1053	0.819861	61.7438	-21.8765	20.6452	-0.775899	-2.62194	-2.80425	4.29286	-0.973896	0
0.1060	1.43476	68.1522	-15.1604	20.0359	0.775899	-0.47195	-0.377041	4.5943	-0.0618347	-0.314402
0.1067	2.04965	40.9964	9.56178	22.1685	1.12074	0.734145	1.76738	3.36777	1.77775	0
0.1073	1.7422	21.1568	20.8517	2.03101	0.431055	-0.786583	0.541997	-7.30722	0.556512	0.314402
0.1080	0.512413	17.8013	-2.03883	-36.4262	-1.37938	-3.25121	-3.11059	-11.2779	-2.5043	-0.314402
0.1087	0.204965	15.3625	-18.5185	-35.5122	-1.03453	-3.51341	-4.02963	7.03697	-2.5043	-1.57201
0.1093	2.3571	16.2793	-9.97064	-6.21489	1.37938	-0.47195	-0.0706953	8.25311	0.850226	-0.943205
0.1100	2.972	19.9374	-1.12299	1.1069	2.3277	0.419511	1.76738	-18.294	2.07146	0.314402
0.1107	1.7422	20.8542	-8.74952	-2.24427	0.431055	-0.786583	0.235651	-31.7235	-0.0618347	0
0.1113	1.43476	16.2793	-21.8765	-1.63496	-1.37938	-1.10122	-1.88521	-22.8779	-2.19513	-0.314402
0.1120	1.7422	8.95405	-14.2445	0.192946	-1.37938	-0.786583	-2.4979	-7.61905	-1.88596	-0.314402
0.1127	1.12731	4.37022	19.02	1.72636	0.775899	0.419511	-0.0706953	-0.904308	0.247339	0
0.1133	-0.102483	1.01467	40.9946	1.42171	1.37938	1.62561	1.15469	3.06633	0.850226	0
0.1140	-1.02483	-7.83257	34.5838	0.497597	0.172422	0.734145	0.541997	18.0238	-0.0618347	0
0.1147	-2.25462	-14.5436	27.2571	-0.416357	-1.03453	-1.41585	-1.57886	34.1974	-0.664723	0
0.1153	-3.17696	-9.36348	27.5624	-0.111706	-1.63801	-1.73048	-2.4979	44.8724	-0.973896	0
0.1160	-1.94717	3.45345	19.02	1.1069	0.172422	0.104878	-0.0706953	56.4725	0.247339	0
0.1167	-1.33227	4.68174	4.98259	1.42171	1.72422	0.419511	1.46104	52.5018	0.556512	0
0.1173	-0.717378	-7.83257	-3.8705	0.497597	0.775899	-0.786583	-0.0706953	31.1415	0.247339	0
0.1180	-1.63972	-16.9913	-10.5812	-1.33031	-1.37938	-2.62194	-2.19155	11.9119	-0.664723	0
0.1187	-1.63972	-18.5133	-16.6868	-2.54892	-1.63801	-2.62194	-1.88521	-28.6676	-1.28307	0
0.1193	2.3571	-19.7327	-22.7869	-1.33031	0.431055	-0.47195	0.541997	-80.2443	-0.355549	0
0.1200	4.50924	-20.3469	-31.3347	-0.721008	1.72422	0.419511	2.38007	-85.7429	0.850226	0
0.1207	1.43476	-18.816	-39.8771	-1.02566	1.12074	-0.47195	1.46104	-52.1692	0.556512	0
0.1213	-2.56207	-23.3998	-43.5405	-5.30093	-0.775899	-2.93658	-0.989734	-18.9073	-0.973896	0
0.1220	-2.25462	-36.822	-34.3875	-8.34745	-1.03453	-2.30731	-1.57886	-11.2779	-1.28307	-0.314402
0.1227	0.819861	-35.9141	-16.6868	-0.721008	-0.172422	0.734145	0.848343	-15.5499	-0.0618347	0.314402
0.1233	2.04965	6.20375	-6.00746	8.13419	0.431055	1.36341	2.07373	-6.09108	1.1594	0
0.1240	1.43476	51.6771	13.2197	7.22024	0.431055	0.419511	1.15469	3.36777	0.850226	-0.314402
0.1247	-0.102483	48.6242	50.4528	2.64031	-1.03453	-1.10122	-0.989734	2.15163	-0.664723	0
0.1253	-1.33227	21.4594	67.543	3.55427	-1.37938	-1.73048	-1.88521	1.23693	-0.664723	0
0.1260	-0.40993	8.64252	52.5898	6.90543	0.431055	-0.157317	-0.377041	5.81044	1.1594	-0.314402
0.1267	1.12731	7.42314	34.2785	6.90543	1.72422	0.419511	1.15469	12.5252	1.77775	0
0.1273	1.7422	4.98436	21.1569	8.13419	0.775899	0.104878	1.15469	22.2959	1.46857	0
0.1280	0.204965	2.23406	6.20371	9.04815	-1.37938	-1.41585	-1.27252	27.1708	-0.355549	0
0.1287	0.204965	7.72576	-5.09162	8.7435	-1.63801	-1.10122	-2.4979	22.8987	-1.57678	0
0.1293	0.512413	16.8845	-9.97064	10.8761	0.172422	0.734145	0.235651	19.8532	-0.355549	0
0.1300	0.204965	12.007	-12.7182	13.9327	1.12074	1.36341	2.38007	13.1384	0.247339	-0.314402
0.1307	1.12731	-4.77964	-9.66536	15.1513	0.431055	0.104878	0.848343	-14.6352	-0.664723	0
0.1313	-1.63972	-14.8552	-6.00746	16.3699	-0.775899	-1.99268	-1.57886	-42.7104	-1.57678	0
0.1320	-4.0993	-13.3243	-9.97064	19.122	-0.775899	-1.41585	-1.88521	-43.9265	-1.57678	0
0.1327	-2.25462	-10.2713	-13.0234	16.9792	0.431055	0.734145	0.541997	-33.8544	-0.355549	0
0.1333	-0.102483	-13.0216	-3.56523	13.0188	1.12074	1.36341	1.46104	-24.7074	0.850226	0
0.1340	0.819861	-16.6798	4.37203	12.0947	1.12074	0.419511	0.848343	-13.4087	0.850226	0
0.1347	-1.63972	-19.4301	2.84564	-7.73815	-1.03453	-1.99268	-1.57886	-3.64841	-1.57678	0
0.1353	-3.17696	-18.5133	8.64594	-39.4727	-1.03453	-2.30731	-2.19155	4.89574	-2.19513	0
0.1360	-1.63972	-9.36348	16.2725	-38.5587	0.431055	-0.47195	0.235651	12.837	-0.355549	0
0.1367	-1.02483	-5.69641	13.2197	-17.5073	0.431055	0.104878	1.46104	22.8987	1.1594	-0.314402
0.1373	-1.63972	-11.4996	9.56178	-9.2614	-0.431055	-0.47195	1.15469	27.4826	0.556512	0
0.1380	-3.48441	-27.3695	9.86161	-7.73815	-1.63801	-2.30731	-0.989734	17.712	-1.28307	0
0.1387	-5.63654	-33.7779	5.28787	-1.63496	-1.98285	-2.62194	-2.4979	12.2237	-0.973896	-1.25761
0.1393	-2.56207	-5.09117	-1.42827	0.192946	0.431055	0.419511	-0.377041	21.3812	1.46857	-1.25761
0.1400	0.204965	20.8542	-3.25995	-5.30093	1.72422	1.94024	2.38007	30.2267	2.07146	0
0.1407	-1.33227	14.1431	-4.48106	-6.21489	-0.172422	-0.157317	1.15469	33.8856	0.850226	0
0.1413	-3.17696	2.84821	-5.3969	-1.33031	-1.63801	-2.30731	-1.57886	39.6856	0.247339	0
0.1420	-2.56207	1.62882	-4.48106	4.46822	-1.03453	-1.73048	-1.88521	54.3416	0.556512	0
0.1427	-0.102483	3.45345	-3.25995	8.7435	1.37938	0.419511	0.541997	48.5416	1.1594	0
0.1433	1.43476	4.06759	-2.03883	10.5714	1.37938	1.04878	2.07373	-2.42188	1.1594	0
0.1440	0.512413	2.23406	-2.34411	12.704	0.172422	0.104878	1.46104	-44.8412	0.850226	0
0.1447	-0.40993	0.0979071	-4.48106	15.456	-0.775899	-1.99268	-1.27252	-38.7397	-0.355549	0
0.1453	0.204965	0.712051	-5.3969	17.5885	-0.775899	-1.73048	-2.19155	-23.1794	-0.973896	-0.314402
0.1460	1.7422	2.23406	-4.17578	14.542	1.12074	0.104878	0.235651	-17.9926	0.247339	-0.314402
0.1467	1.12731	3.15083	-4.48106	13.9327	1.37938	0.734145	1.46104	-9.13663	1.46857	0
0.1473	-0.40993	0.40943	-7.5284	21.5592	0.431055	-0.786583	0.541997	2.7649	2.68981	0.314402
0.1480	-2.56207	-9.36348	-9.66536	18.1978	-1.37938	-2.62194	-2.19155	12.837	1.46857	0.314402
0.1487	-2.25462	-15.7719	-4.78634	5.68683	-1.37938	-1.99268	-2.80425	14.6664	-0.664723	0
0.1493	0.819861	-12.719	2.23508	5.38217	0.775899	0.104878	0.541997	2.7649	-0.0618347	0
0.1500	1.7422	-9.05195	4.06676	-2.85357	1.12074	1.04878	2.38007	-16.1632	0.850226	0.314402
0.1507	0.512413	-8.13519	1.62452	-31.5416	0.431055	0.104878	1.15469	-24.7074	-0.355549	0
0.1513	-0.717378	-10.2713	-2.03883	-35.2076	-0.431055	-1.99268	-1.88521	-19.2087	-1.28307	-0.314402
0.1520	0.204965	-14.8552	-5.09162	-22.3817	-1.03453	-1.99268	-1.88521	-8.53376	-0.973896	-0.314402
0.1527	2.972	2.54558	-1.12299	-33.0648	0.172422	0.734145	0.541997	3.36777	-0.664723	0
0.1533	3.89434	48.9268	10.1669	-36.7308	1.12074	2.56951	1.76738	13.4399	-0.664723	0
0.1540	2.972	57.4714	20.8517	-20.5538	0.775899	1.36341	1.15469	16.4958	-0.355549	0
0.1547	1.43476	16.5819	24.515	-9.56605	-0.775899	-1.73048	-1.27252	7.95167	-0.664723	0
0.1553	-0.102483	-1.4241	22.9886	-6.21489	-1.37938	-1.99268	-2.19155	-10.966	-0.973896	0
0.1560	0.819861	5.5896	22.6833	-4.37683	0.172422	-0.157317	0.235651	-8.83519	0.556512	0
0.1567	2.04965	5.5896	18.4094	-3.46287	1.12074	1.04878	1.46104	12.2237	1.46857	0
0.1573	1.12731	4.98436	-2.03883	-4.07217	0.172422	0.104878	0.235651	7.63984	0.850226	0
0.1580	-1.02483	5.5896	-26.4503	-4.68148	-1.37938	-2.30731	-2.19155	-7.61905	-0.973896	0
0.1587	-1.63972	2.54558	-45.3721	-4.07217	-0.775899	-2.30731	-2.80425	-0.291042	-1.57678	-0.314402
0.1593	-0.102483	-1.72672	-66.7362	-2.54892	0.775899	0.419511	-0.377041	21.0693	-0.355549	-0.314402
0.1600	0.512413	-4.47702	-76.1944	-1.63496	1.12074	1.04878	1.15469	36.3282	0.556512	0
0.1607	-0.40993	-6.31056	-64.294	-1.93961	-0.172422	-0.157317	0.848343	42.1283	0.247339	0
0.1613	-2.56207	-7.52994	-45.9827	-1.93961	-1.98285	-1.99268	-1.88521	48.2298	-0.973896	0
0.1620	-2.56207	-2.03825	-31.3347	-1.63496	-1.37938	-1.41585	-2.4979	58.0004	-1.28307	0
0.1627	-0.717378	3.76497	-29.1978	1.1069	0.775899	1.04878	0.235651	60.4431	0.247339	-0.314402
0.1633	0.512413	4.68174	-20.0449	11.79	1.12074	1.94024	1.15469	37.2429	1.1594	-0.314402
0.1640	2.04965	6.50637	11.9986	24.9205	0.172422	0.734145	0.235651	-2.73371	1.46857	0
0.1647	2.3571	5.90113	14.1355	30.4042	-1.63801	-1.99268	-2.19155	-19.5206	0.850226	0
0.1653	2.04965	-0.204715	-20.0449	32.2423	-1.63801	-1.73048	-2.80425	-8.22193	0.247339	0
0.1660	4.20179	-2.34087	-38.656	34.3748	1.12074	0.419511	-0.0706953	3.06633	0.850226	-0.314402
0.1667	4.81668	4.37022	-40.7929	36.8222	1.98285	1.04878	1.46104	6.72514	1.77775	-0.314402
0.1673	1.43476	11.0902	-51.1724	36.2027	0.431055	-0.157317	0.541997	2.45306	1.46857	0
0.1680	-1.94717	9.25667	-59.4095	32.2423	-1.37938	-1.73048	-1.88521	-5.77925	-0.0618347	-0.314402
0.1687	-1.02483	3.45345	-12.4129	26.7484	-1.03453	-1.41585	-1.88521	-7.61905	-0.0618347	0
0.1693	1.7422	-5.99903	65.7113	24.6057	0.172422	-0.157317	0.235651	-1.81901	1.1594	-0.314402
0.1700	2.66455	-14.5436	75.1696	12.0947	0.172422	0.419511	0.235651	1.85019	0.850226	-1.57201
0.1707	2.66455	-16.6798	42.5156	-38.8634	0.431055	0.419511	-0.0706953	-12.494	-0.355549	-0.943205
0.1713	-0.717378	-13.0216	30.0046	-89.5269	-1.03453	-1.73048	-2.19155	-40.5691	-3.41636	-0.628803
0.1720	-4.0993	-4.77964	22.9886	-78.2345	-1.37938	-1.73048	-2.80425	-46.3692	-4.6376	-1.57201
0.1727	-2.86951	3.76497	14.4408	-36.7308	1.37938	1.36341	0.848343	-22.8779	-1.28307	-0.943205
0.1733	-1.94717	3.15083	2.84564	-12.0134	1.12074	1.36341	2.38007	-0.904308	-0.0618347	0.314402
0.1740	-2.56207	-5.09117	-9.36008	-0.416357	-0.172422	-0.786583	0.541997	9.78108	-0.664723	0
0.1747	-4.0993	-11.1881	-7.5284	5.38217	-0.775899	-1.99268	-1.57886	11.309	-1.28307	0.314402
0.1753	-5.02165	-8.13519	3.76148	15.1513	-0.775899	-1.73048	-2.19155	3.36777	-1.28307	0
0.1760	-3.79186	-1.4241	1.62452	27.6623	0.431055	-0.157317	-0.0706953	-4.56312	-0.0618347	-0.314402
0.1767	-2.86951	0.712051	8.64594	16.6746	1.12074	0.419511	1.15469	-6.69396	0.247339	0
0.1773	-3.48441	1.62882	56.2531	0.497597	1.12074	-0.47195	0.541997	-7.61905	1.1594	0.314402
0.1780	-5.94399	0.40943	87.3807	13.3234	-0.172422	-2.30731	-1.88521	-8.83519	1.46857	0.314402
0.1787	-6.86634	-3.56026	64.7955	36.2027	-1.03453	-2.30731	-1.57886	-3.94985	2.07146	0
0.1793	-4.0993	-5.69641	32.7521	47.1905	0.775899	-0.157317	0.848343	1.53836	2.99898	0.314402
0.1800	-2.25462	-4.47702	17.4936	53.5983	1.37938	0.419511	1.46104	-5.47782	3.2927	0
0.1807	-1.02483	-2.95501	11.6933	58.7876	0.172422	0.104878	0.235651	-18.5955	2.68981	-0.314402
0.1813	-1.63972	-1.4241	7.42483	60.0062	-1.37938	-0.786583	-1.57886	-22.2647	0.850226	-0.314402
0.1820	-3.17696	4.06759	5.89843	63.6721	-1.03453	-1.41585	-1.88521	-11.2779	0.247339	-0.314402
0.1827	-1.63972	7.42314	8.64594	54.2076	-0.172422	0.104878	-0.0706953	3.98103	0.850226	-0.314402
0.1833	0.512413	4.68174	10.4722	10.8761	0.775899	1.04878	0.848343	16.1944	-0.355549	-0.314402
0.1840	0.512413	4.68174	5.59315	-34.5982	0.431055	0.104878	-0.0706953	23.8238	-2.5043	-0.314402
0.1847	-1.33227	5.28698	-2.64939	-73.9592	-1.03453	-1.99268	-1.88521	29.6135	-4.6376	-0.314402
0.1853	-1.63972	0.40943	-6.61257	-117.301	-1.03453	-1.41585	-2.19155	35.1121	-5.54966	-0.314402
0.1860	0.204965	-5.99903	-4.78634	-116.377	0.431055	0.419511	0.541997	43.043	-4.32843	-0.314402
0.1867	0.204965	-12.1049	-1.73355	-77.3205	1.12074	0.419511	2.38007	62.2725	-2.19513	0
0.1873	-2.25462	-15.4604	1.9298	-51.3744	0.172422	-0.786583	1.76738	61.046	-0.664723	0
0.1880	-3.79186	-13.0216	6.20371	-37.6448	-1.03453	-2.62194	-0.683388	-4.26168	-0.355549	0
0.1887	-2.56207	-8.44671	9.56178	-26.657	-1.03453	-2.30731	-1.57886	-68.3428	-0.664723	0
0.1893	-1.33227	-5.99903	7.42483	-28.4951	0.431055	-0.157317	0.848343	-60.7134	0.247339	0
0.1900	0.204965	-2.03825	0.708684	-40.7014	1.37938	1.36341	2.07373	-32.9397	0.247339	0.314402
0.1907	1.43476	3.45345	-0.207154	-42.5293	1.12074	1.04878	0.235651	-30.1956	-0.355549	0
0.1913	1.7422	6.50637	2.23508	-32.7602	-0.775899	-1.73048	-3.11059	-27.4515	-0.973896	0
0.1920	1.7422	8.64252	2.84564	-23.6105	-1.37938	-2.30731	-3.11059	-14.3234	-0.0618347	0
0.1927	3.27944	10.1734	4.06676	-14.146	0.172422	-0.157317	-0.0706953	-10.0513	1.46857	0
0.1933	4.20179	7.12051	3.76148	-2.85357	1.37938	0.419511	1.46104	-14.022	2.38063	0
0.1940	3.27944	4.68174	-0.512433	1.1069	0.431055	0.419511	0.848343	-15.2485	0.850226	0
0.1947	-1.02483	7.42314	-7.83368	-5.30093	-1.98285	0.419511	-0.989734	-14.022	-1.88596	0
0.1953	-3.48441	10.7787	-13.634	-3.76752	-1.63801	0.104878	-0.989734	-9.74989	-2.5043	0
0.1960	-0.717378	6.50637	-14.2445	7.52489	0.431055	0.734145	0.848343	-3.64841	-0.0618347	0
0.1967	1.12731	-1.4241	-13.634	10.2668	0.431055	1.62561	0.848343	2.15163	0.850226	0
0.1973	0.819861	-6.9158	-16.0762	5.07752	-1.03453	1.04878	-0.0706953	11.309	-0.355549	0
0.1980	-1.94717	-13.9384	-17.9079	2.03101	-1.63801	-0.786583	-1.57886	23.2106	-1.57678	0
0.1987	-5.02165	-16.6798	-15.7709	2.33566	-1.37938	-0.157317	-1.27252	34.4988	-1.28307	0.314402
0.1993	-4.7142	-10.2713	-12.4129	3.55427	-0.775899	0.734145	0.541997	37.5548	-0.0618347	-0.314402
0.2000	-2.56207	-1.72672	-11.497	5.99148	0.431055	0.419511	1.15469	26.2561	0.850226	-1.57201
0.2007	-1.33227	5.28698	-9.36008	8.43884	1.12074	0.104878	0.541997	23.512	1.1594	-0.943205
0.2013	-1.63972	7.72576	-7.22312	9.9621	-0.775899	-2.30731	-0.989734	31.4533	-0.0618347	0.314402
0.2020	0.512413	-0.818859	-4.78634	14.542	-1.03453	-2.30731	-0.989734	8.86637	-0.973896	0
0.2027	4.20179	-14.5436	-1.73355	22.1685	0.431055	0.104878	0.541997	-32.025	0.556512	0
0.2033	4.20179	-19.1275	-3.56523	22.4731	0.775899	0.734145	1.76738	-29.2809	1.1594	0
0.2040	1.7422	-14.5436	-7.5284	12.704	0.172422	1.04878	0.848343	-6.39252	-0.973896	0
0.2047	-0.40993	-10.2713	-8.74952	2.64031	-1.03453	-0.157317	-1.88521	-28.3662	-3.10719	0
0.2053	-0.40993	-8.44671	-7.5284	-2.85357	-1.37938	-1.41585	-1.57886	-49.4251	-3.10719	0
0.2060	-0.102483	-14.241	-7.83368	-2.24427	0.431055	0.419511	0.541997	-25.9235	-1.28307	-0.314402
0.2067	0.204965	-22.483	-9.97064	3.24962	1.72422	1.36341	1.46104	-4.26168	0.556512	-0.314402
0.2073	1.43476	-23.3998	-10.8865	3.55427	0.775899	0.104878	0.235651	-3.94985	0.556512	0
0.2080	0.204965	-23.3998	-10.5812	-5.60559	-1.37938	-1.73048	-2.19155	-4.86455	-0.664723	0
0.2087	-0.717378	-21.8689	-7.22312	-12.3181	-1.37938	-1.10122	-1.57886	-1.20574	0.247339	0
0.2093	0.204965	-15.7719	-2.64939	-11.4041	0.172422	0.734145	0.848343	-1.20574	2.68981	0
0.2100	-0.102483	-13.9384	-0.512433	-8.6521	1.37938	1.04878	1.76738	-10.3632	2.68981	0
0.2107	-1.02483	-25.2333	-2.34411	-3.15822	0.172422	-0.157317	0.235651	-24.3955	1.77775	0
0.2113	-2.25462	-39.2696	-5.70218	5.99148	-1.63801	-1.99268	-2.19155	-38.4383	0.556512	-0.314402
0.2120	-1.33227	-13.3243	-6.31274	16.9792	-1.03453	-1.41585	-1.88521	-50.0384	-0.0618347	-0.314402
0.2127	0.512413	36.7241	-4.48106	27.053	0.431055	0.419511	1.15469	-49.7265	1.1594	0
0.2133	2.04965	48.3216	-2.34411	35.8981	0.775899	1.04878	2.68642	-32.6382	1.77775	0
0.2140	4.81668	31.535	0.0981255	42.6207	0.172422	0.104878	1.46104	-14.9367	0.556512	0
0.2147	5.73903	19.6348	1.62452	47.1905	-0.775899	-2.62194	-1.88521	-12.8058	-0.355549	0
0.2153	5.43158	16.8845	2.84564	47.7998	-0.172422	-3.25121	-3.11059	-17.0779	0.247339	-0.314402
0.2160	5.43158	20.5516	4.67731	35.5934	0.775899	-0.157317	0.235651	2.7649	0.247339	0
0.2167	4.81668	19.3233	2.23508	-2.85357	0.431055	1.94024	2.38007	50.371	-0.973896	0
0.2173	2.972	8.95405	-0.817712	-54.1264	-0.172422	0.734145	0.848343	74.7873	-2.5043	0
0.2180	-1.02483	2.84821	-0.207154	-67.5514	-1.03453	-1.10122	-1.57886	52.8137	-3.41636	0
0.2187	-3.48441	2.84821	1.01396	-38.8634	-1.63801	-1.10122	-2.19155	39.6856	-1.88596	-0.314402
0.2193	-2.86951	4.68174	0.0981255	-15.9739	0.431055	0.419511	0.235651	63.1872	0.247339	0
0.2200	-2.56207	7.42314	-2.34411	-8.34745	1.12074	1.04878	1.76738	72.0328	0.850226	-0.314402
0.2207	-3.17696	8.64252	-4.78634	-3.46287	-0.172422	-0.157317	0.848343	27.4826	0.556512	0
0.2213	-4.0993	8.95405	-7.22312	-1.02566	-1.98285	-2.30731	-1.27252	-30.1956	-0.0618347	0.314402
0.2220	-3.48441	10.4761	-6.61257	0.192946	-1.37938	-1.10122	-0.683388	-46.0677	-0.0618347	0.314402
0.2227	-1.63972	10.1734	-4.78634	3.24962	0.431055	1.62561	1.76738	-39.9663	-0.0618347	0
0.2233	-0.40993	6.81789	-5.70218	3.85892	0.775899	1.62561	2.07373	-35.6942	-0.355549	0
0.2240	-0.717378	4.06759	-6.61257	2.03101	-0.172422	0.419511	0.848343	-21.35	-0.0618347	0
0.2247	-2.25462	2.54558	-7.22312	1.1069	-1.03453	-1.99268	-1.57886	-8.53376	-0.0618347	0.314402
0.2253	-1.63972	4.06759	-6.31274	0.497597	-0.775899	-2.62194	-1.88521	-4.86455	-0.355549	0
0.2260	0.819861	6.20375	-3.25995	-1.02566	0.775899	-0.786583	-0.0706953	0.935491	-0.0618347	0
0.2267	2.3571	5.28698	-1.12299	-1.02566	1.37938	-0.157317	0.541997	27.7841	-0.355549	-0.314402
0.2273	1.43476	3.15083	-2.34411	-2.85357	0.431055	-1.41585	-0.0706953	62.5739	-0.973896	0
0.2280	-2.86951	-0.204715	-6.31274	-5.91024	-2.24149	-3.51341	-2.80425	73.8726	-3.10719	-0.628803
0.2287	-4.0993	-4.77964	-5.70218	-7.43349	-2.24149	-3.25121	-3.41694	86.0756	-3.72554	-1.25761
0.2293	0.512413	-5.99903	1.62452	-9.2614	0.431055	0.419511	0.235651	72.0328	-0.664723	-0.628803
0.2300	2.66455	-5.09117	4.67731	-10.7948	1.37938	1.62561	1.76738	3.06633	-0.0618347	0.314402
0.2307	1.7422	-4.77964	2.54036	-7.73815	0.431055	-0.157317	0.235651	-48.8118	-1.57678	0
0.2313	-0.102483	-5.09117	0.0981255	-2.54892	-1.37938	-1.99268	-1.88521	-54.9133	-2.79802	0
0.2320	-1.33227	-3.56026	1.9298	4.16357	-1.03453	-2.30731	-1.88521	-44.2383	-1.28307	0
0.2327	-0.40993	0.0979071	5.28787	6.90543	1.37938	0.104878	1.46104	-26.8382	2.07146	-0.314402
0.2333	0.512413	3.15083	4.37203	2.33566	1.12074	2.25487	2.68642	-5.17638	2.07146	0
0.2340	0.819861	1.93144	1.01396	3.85892	-0.431055	1.36341	1.15469	2.7649	1.1594	0
0.2347	0.204965	-2.03825	-0.817712	9.65745	-1.37938	-1.10122	-0.989734	-9.74989	1.46857	0
0.2353	0.204965	-3.56026	-0.512433	7.82954	-1.03453	-1.41585	-1.27252	-16.4646	1.1594	0
0.2360	2.04965	-4.1744	3.15092	5.07752	0.431055	0.419511	0.541997	-9.44846	1.77775	0
0.2367	1.43476	-7.83257	4.98259	4.16357	1.12074	1.04878	0.848343	-1.81901	1.77775	0
0.2373	-1.02483	-6.9158	1.01396	1.72636	0.172422	-0.157317	-0.683388	7.03697	0.556512	0
0.2380	-3.48441	-0.204715	-6.61257	-0.416357	-1.37938	-2.30731	-2.80425	21.6826	-0.355549	0
0.2387	-3.17696	7.12051	-10.5812	-3.76752	-0.775899	-1.99268	-2.80425	18.3252	-0.355549	0
0.2393	-0.40993	9.55929	-12.4129	-8.0428	0.431055	0.419511	-0.989734	-12.494	0.247339	-0.314402
0.2400	0.204965	6.20375	-16.0762	-8.95675	0.431055	1.36341	0.848343	-22.8779	0.850226	-0.314402
0.2407	-2.56207	5.90113	-17.9079	-7.12884	0.172422	0.419511	0.541997	-7.00579	0.556512	0
0.2413	-4.7142	8.3399	-11.8023	-2.24427	-1.37938	-1.41585	-2.19155	-3.03515	-0.355549	0
0.2420	-2.56207	6.20375	-0.512433	4.77287	-1.03453	-1.41585	-1.88521	-6.69396	0.247339	0
0.2427	0.512413	0.0979071	0.403405	7.22024	0.431055	0.419511	0.541997	-5.77925	1.77775	0
0.2433	1.7422	-1.72672	-6.91785	6.29613	1.12074	0.734145	1.15469	0.623661	2.07146	0
0.2440	1.12731	-1.12148	0.403405	7.22024	0.172422	-0.786583	0.235651	9.16781	1.1594	0
0.2447	0.512413	-2.03825	15.9672	7.82954	-1.37938	-2.30731	-1.88521	12.2237	-0.664723	0
0.2453	0.819861	-0.818859	15.6619	6.90543	-1.03453	-1.41585	-2.4979	16.1944	-1.88596	-0.314402
0.2460	2.04965	1.3173	4.67731	12.3993	0.775899	0.419511	-0.377041	25.9547	-0.973896	-0.314402
0.2467	2.66455	1.93144	-5.09162	22.4731	1.37938	0.734145	1.76738	30.5282	-0.0618347	0
0.2473	1.7422	0.712051	-10.5812	21.5592	0.431055	-0.157317	0.848343	37.8562	-0.355549	0
0.2480	-0.40993	-2.03825	-11.8023	11.4854	-1.37938	-2.62194	-2.4979	50.0592	-0.973896	0
0.2487	-0.717378	-10.5829	-8.13896	7.22024	-1.03453	-2.30731	-2.80425	26.2561	-0.664723	0
0.2493	1.12731	-21.8689	-2.64939	12.3993	0.431055	0.104878	0.235651	-40.2677	0.850226	-0.314402
0.2500	1.12731	-25.2333	-1.42827	19.122	1.37938	0.419511	1.46104	-85.7429	1.77775	-0.314402
0.2507	0.819861	-23.0883	1.62452	19.4266	1.12074	-0.786583	0.541997	-78.4149	0.850226	0
0.2513	-0.102483	-23.3998	4.67731	13.6281	-0.172422	-2.62194	-1.88521	-53.6972	-0.973896	0
0.2520	-0.102483	-23.3998	-2.34411	10.5714	-0.431055	-1.99268	-1.88521	-33.5529	-1.28307	0
0.2527	1.7422	-19.7327	-12.1076	-2.85357	0.431055	1.36341	1.15469	-14.022	-0.355549	0
0.2533	2.04965	-20.0442	-15.7709	-28.7997	1.12074	2.56951	2.68642	-1.81901	0.247339	0
0.2540	0.819861	-24.6192	-16.6868	-32.1509	0.775899	-0.157317	1.46104	-2.42188	0.247339	0.314402
0.2547	-1.63972	-1.72672	-5.70218	-16.2785	-0.431055	-3.25121	-1.27252	2.45306	-0.664723	0
0.2553	-1.94717	45.8739	22.3781	-4.37683	-0.431055	-2.62194	-2.19155	31.1415	-0.0618347	0
0.2560	-0.717378	59.9191	39.4682	8.43884	1.12074	-0.157317	0.541997	58.3019	1.77775	0
0.2567	-1.02483	30.9208	32.7521	20.6452	1.12074	-0.157317	2.38007	53.1151	1.46857	-0.314402
0.2573	-1.02483	9.86191	21.4622	24.301	0.431055	-1.41585	0.848343	45.7871	0.247339	0.314402
0.2580	-1.94717	10.1734	10.7774	23.9964	-1.03453	-2.62194	-2.19155	47.9283	-1.28307	0.314402
0.2587	-3.17696	15.3625	2.54036	25.2251	-1.98285	-1.41585	-3.11059	20.1546	-2.5043	-1.25761
0.2593	-1.33227	23.5956	2.84564	32.5469	0.172422	1.04878	0.235651	-21.9529	-0.0618347	-1.25761
0.2600	0.819861	29.3988	-2.03883	37.1269	1.98285	1.62561	2.38007	-33.5529	1.77775	0
0.2607	-1.02483	24.5124	-20.3501	31.0237	0.172422	1.04878	0.541997	-22.8779	-0.355549	0
0.2613	-2.56207	19.3233	-37.7456	34.0702	-2.24149	-0.47195	-2.19155	0.0103943	-1.57678	-0.314402
0.2620	-1.63972	23.293	-44.7616	44.4486	-1.37938	-1.41585	-1.57886	47.6269	-0.0618347	0
0.2627	0.819861	24.8239	-45.6774	13.0188	1.37938	0.104878	0.848343	100.42	1.1594	0.314402
0.2633	1.43476	16.8845	-40.4877	-46.5	1.98285	0.104878	1.76738	135.511	0.850226	0.314402
0.2640	0.512413	8.03728	-31.9453	-62.6668	0.431055	-1.10122	0.235651	158.399	0.247339	0
0.2647	-0.40993	12.007	-32.8611	-43.7479	-1.37938	-1.99268	-2.19155	130.938	-0.973896	0
0.2653	-0.102483	24.2097	-20.9607	-24.2198	-0.775899	-0.786583	-2.19155	36.0268	-0.664723	0
0.2660	0.819861	12.6122	19.3253	-18.7259	0.775899	0.419511	0.235651	-15.5499	-0.0618347	-0.314402
0.2667	1.7422	-16.3772	29.0887	-33.3695	1.37938	1.04878	1.76738	8.25311	-0.973896	-0.314402
0.2673	1.43476	-22.7856	4.06676	-37.9494	0.431055	0.104878	0.541997	-46.3692	-0.973896	0
0.2680	-0.40993	-19.7327	1.62452	-24.2198	-1.63801	-2.62194	-2.19155	-167.224	-2.19513	-0.314402
0.2687	-0.40993	-29.1941	10.4722	-13.232	-1.37938	-2.30731	-2.4979	-178.512	-2.19513	-0.314402
0.2693	2.04965	-41.0943	12.3038	-2.24427	0.775899	0.104878	-0.0706953	-100.69	0.556512	-0.314402
0.2700	3.89434	-48.731	27.8676	10.2668	1.12074	0.419511	0.848343	-46.9824	2.07146	-0.314402
0.2707	3.27944	-55.7447	45.2631	15.456	0.172422	-1.10122	-0.377041	-30.1956	1.46857	-0.314402
0.2713	0.819861	-58.7976	48.6212	12.704	-0.431055	-3.25121	-1.88521	-25.0088	0.556512	-0.314402
0.2720	0.204965	-50.8672	47.0948	12.0947	-0.172422	-2.93658	-1.57886	-25.3102	0.247339	-0.314402
0.2727	1.12731	-33.7779	46.7895	21.8638	1.37938	-0.786583	1.15469	-26.2249	2.99898	-0.314402
0.2733	1.7422	-25.8386	43.1261	34.6795	1.98285	-0.47195	2.68642	-17.6808	4.22021	0
0.2740	0.819861	-23.0883	28.7835	45.0579	0.431055	-1.41585	0.848343	-10.6646	2.07146	0
0.2747	-1.33227	9.25667	6.81427	59.3969	-1.37938	-2.62194	-1.27252	-9.13663	0.556512	0
0.2753	-1.63972	51.9798	-5.3969	80.1538	-1.03453	-1.73048	-1.57886	2.7649	1.1594	0
0.2760	-2.56207	51.9798	0.403405	81.0677	0.431055	0.734145	0.235651	18.3252	2.38063	-0.314402
0.2767	-5.3291	26.0433	9.2565	29.4903	1.12074	0.734145	0.848343	23.2106	2.38063	-0.314402
0.2773	-5.02165	11.6954	4.37203	-23.0012	0.431055	-1.10122	-0.377041	20.1546	0.556512	0
0.2780	-2.86951	6.81789	-6.91785	-12.6227	-1.03453	-3.25121	-3.11059	10.3943	-0.355549	0
0.2787	-0.717378	5.5896	-13.634	25.2251	-1.03453	-1.73048	-2.80425	-19.822	-0.355549	-0.314402
0.2793	1.12731	10.7787	-14.5498	42.6207	-0.172422	1.94024	0.848343	-68.3428	0.247339	0
0.2800	1.43476	15.3625	-1.73355	42.6207	0.431055	1.94024	2.07373	-89.7032	1.1594	0.314402
0.2807	0.204965	11.3928	12.9144	33.1562	0.172422	-0.47195	0.541997	-61.9399	1.46857	0.314402
0.2813	-3.48441	2.54558	9.86161	-32.1509	-1.37938	-1.73048	-1.27252	-25.3102	-1.57678	0
0.2820	-3.48441	-1.72672	5.89843	-147.208	-1.98285	1.04878	-0.0706953	-9.13663	-5.24049	0
0.2827	-1.02483	-1.4241	7.11955	-191.453	-0.431055	3.46097	1.76738	-4.56312	-6.16801	0
0.2833	-0.102483	1.3173	3.15092	-145.37	0.431055	3.19877	1.46104	1.23693	-4.6376	-0.314402
0.2840	-1.33227	9.25667	-7.22312	-95.3254	0.172422	1.94024	0.541997	13.1384	-3.41636	0
0.2847	-3.48441	15.6651	-18.2132	-62.6668	-1.98285	-0.157317	-1.27252	26.2561	-3.72554	0
0.2853	-2.86951	10.1734	-9.97064	-40.082	-2.24149	-0.786583	-2.19155	29.9253	-2.79802	-0.314402
0.2860	-1.02483	-2.03825	9.56178	-27.8756	-0.172422	0.734145	-0.0706953	14.6664	-0.973896	-0.628803
0.2867	-0.717378	-6.31056	10.7774	-21.1631	1.37938	1.36341	1.46104	-22.8779	-0.0618347	0
0.2873	-1.33227	-5.69641	-1.73355	-17.5073	0.431055	-0.157317	-0.0706953	-48.1986	-1.57678	0.314402
0.2880	-2.25462	-7.83257	-12.7182	-12.9274	-1.63801	-2.93658	-2.4979	-36.6089	-2.19513	0
0.2887	-1.02483	-5.69641	-16.6868	-8.0428	-1.37938	-2.93658	-2.19155	-19.5206	-1.28307	-0.943205
0.2893	1.7422	-1.72672	-15.1604	-8.0428	0.431055	0.104878	0.235651	-14.3234	1.1594	-1.88641
0.2900	1.7422	-5.39379	-8.13896	-9.87071	1.98285	1.62561	1.76738	-12.494	2.07146	-0.628803
0.2907	-1.02483	-12.4075	1.9298	-9.56605	1.37938	0.419511	0.541997	-10.0513	0.247339	0.314402
0.2913	-1.94717	-12.719	10.4722	-8.0428	-1.03453	-2.30731	-2.4979	-8.22193	-1.88596	-0.314402
0.2920	-0.102483	-6.31056	16.5778	-6.21489	-1.37938	-1.99268	-2.4979	-9.74989	-1.88596	-0.314402
0.2927	1.7422	1.62882	15.6619	-3.46287	1.12074	0.419511	0.848343	-10.6646	0.247339	0
0.2933	2.04965	4.98436	8.95122	-1.02566	1.72422	1.04878	2.07373	-14.6352	1.1594	-0.314402
0.2940	2.3571	1.62882	9.2565	0.802249	0.172422	-0.47195	0.235651	-16.4646	0.556512	0
0.2947	0.204965	-9.36348	12.9144	1.72636	-1.03453	-2.30731	-1.88521	3.06633	-0.355549	0.314402
0.2953	-2.25462	-19.7327	8.34066	2.64031	-0.775899	-1.41585	-1.57886	25.04	-0.664723	0
0.2960	-2.25462	-20.0442	1.9298	4.16357	0.172422	0.419511	-0.0706953	20.4665	-0.355549	-0.943205
0.2967	-0.40993	-14.8552	-0.207154	4.77287	1.12074	1.36341	0.541997	11.309	0.850226	-1.57201
0.2973	1.43476	-13.6358	-4.17578	5.38217	0.775899	0.734145	0.541997	14.9679	1.77775	-0.314402
0.2980	1.7422	-16.6798	-8.44424	6.90543	-1.03453	-1.99268	-2.19155	15.8826	-0.0618347	0
0.2987	2.66455	-18.5133	-6.61257	6.29613	-0.775899	-1.73048	-2.80425	15.8826	-0.664723	-0.314402
0.2993	2.972	-26.4527	-3.56523	0.192946	0.775899	0.734145	0.235651	18.6267	0.247339	0
0.3000	1.12731	-37.7387	-5.09162	-1.63496	1.12074	1.36341	1.46104	18.0238	-0.0618347	-0.314402
0.3007	-1.63972	-25.2333	-9.36008	2.64031	-0.172422	0.104878	-0.0706953	18.0238	-0.0618347	-0.314402
0.3013	-3.48441	-4.47702	-13.634	4.46822	-1.98285	-2.62194	-2.80425	32.0562	-0.973896	0
0.3020	-2.25462	10.1734	-15.7709	5.07752	-1.63801	-2.62194	-2.80425	45.4856	-0.973896	-0.314402
0.3027	2.3571	37.3293	-15.4657	7.22024	0.431055	-0.157317	-0.0706953	35.7254	0.556512	-0.314402
0.3033	5.12413	51.063	-12.1076	8.43884	1.72422	1.04878	1.46104	49.1445	1.1594	0
0.3040	3.58689	35.8073	-11.1918	7.52489	0.775899	-0.47195	-0.0706953	80.2755	0.247339	0
0.3047	0.204965	17.1871	-14.2445	6.29613	-1.03453	-2.30731	-2.4979	50.0592	-0.973896	-0.314402
0.3053	-0.102483	4.68174	-10.5812	6.60078	-0.775899	-1.41585	-2.19155	0.0103943	-0.664723	0
0.3060	1.7422	1.62882	-6.00746	7.52489	0.172422	-0.47195	-0.0706953	16.7973	-0.0618347	-0.628803
0.3067	2.972	8.64252	-9.36008	8.13419	1.12074	0.734145	0.235651	47.9283	0.556512	-0.943205
0.3073	2.66455	12.3096	-12.1076	8.7435	1.37938	0.734145	-0.0706953	10.9972	0.850226	-0.314402
0.3080	-0.40993	6.50637	-17.6026	6.29613	-0.775899	-1.99268	-1.88521	-31.4221	-0.664723	0
0.3087	-2.56207	4.37022	-28.8925	1.72636	-1.37938	-1.99268	-1.88521	-16.7661	-0.355549	-0.314402
0.3093	-2.56207	11.3928	-34.0822	0.497597	0.431055	0.104878	0.541997	-19.5206	1.46857	-0.314402
0.3100	-2.25462	4.37022	-28.8925	2.33566	0.775899	0.419511	1.15469	-56.4413	1.77775	0
0.3107	-2.56207	-24.6192	-20.6554	2.94496	-0.431055	-0.786583	0.235651	-56.1398	0.556512	0
0.3113	-2.86951	-34.6858	-18.2132	2.64031	-1.37938	-2.62194	-2.19155	-28.9794	-0.664723	-0.314402
0.3120	-0.40993	-5.69641	0.708684	3.55427	-0.775899	-1.99268	-1.57886	-10.966	-0.0618347	0
0.3127	2.66455	20.5516	57.169	6.90543	0.172422	0.104878	1.15469	2.7649	0.850226	0
0.3133	2.66455	19.3233	83.1068	9.9621	1.12074	0.104878	1.46104	14.9679	0.850226	-0.314402
0.3140	-1.63972	10.7787	39.163	13.9327	0.431055	-1.10122	-0.0706953	20.4665	-0.0618347	0
0.3147	-6.25144	6.81789	-5.70218	18.5025	-1.03453	-3.25121	-2.19155	15.5811	-1.28307	0
0.3153	-6.25144	5.90113	-17.6026	20.9499	-0.431055	-2.93658	-2.19155	0.935491	-0.664723	0
0.3160	-4.7142	6.81789	-20.0449	24.6057	1.37938	-1.10122	-0.0706953	-17.0779	0.850226	0
0.3167	-5.02165	9.25667	-22.7869	30.0996	1.37938	-1.10122	1.15469	-25.9235	0.850226	0
0.3173	-4.0993	12.9148	-22.1818	23.0824	0.431055	-1.99268	-0.377041	-24.0941	-0.664723	0
0.3180	-1.33227	8.03728	-20.0449	2.94496	-1.37938	-2.62194	-2.4979	-28.6676	-2.5043	0
0.3187	1.43476	-1.12148	-23.3975	-2.85357	-1.98285	-1.10122	-2.4979	-32.6382	-3.10719	-0.943205
0.3193	2.66455	-2.03825	-30.4189	10.5714	-0.172422	2.25487	0.541997	-17.3793	-1.28307	-1.25761
0.3200	1.7422	-7.83257	-28.2819	21.5592	0.431055	2.88414	2.38007	3.98103	0.850226	0.314402
0.3207	-0.102483	-27.6721	-21.266	20.9499	-1.03453	0.734145	0.541997	14.6664	1.1594	0.314402
0.3213	-1.33227	-44.1472	-31.64	20.0359	-1.63801	-1.73048	-2.19155	18.9385	0.247339	0
0.3220	-0.717378	-43.5419	-59.7148	25.2251	-0.172422	-1.73048	-2.19155	22.5973	0.247339	0
0.3227	0.512413	-34.6858	-86.2686	9.65745	0.775899	0.419511	-0.0706953	22.2959	0.556512	-0.314402
0.3233	0.512413	-29.8083	-71.0047	-28.7997	0.431055	1.36341	0.541997	23.8238	-1.28307	-0.314402
0.3240	-1.33227	-31.3303	-7.83368	-39.168	-0.431055	0.419511	-0.377041	27.4826	-2.19513	0
0.3247	-5.63654	-46.2833	22.9886	-19.6399	-1.37938	-1.99268	-2.19155	16.1944	-1.88596	0
0.3253	-8.30109	-64.9035	2.23508	-8.0428	-0.775899	-1.41585	-1.57886	0.0103943	-0.664723	-0.314402
0.3260	-6.86634	-33.1638	10.7774	-5.30093	0.775899	0.419511	0.848343	6.12227	0.556512	0
0.3267	-4.0993	39.777	74.559	-3.46287	1.12074	0.104878	1.15469	27.7841	1.1594	0
0.3273	-1.94717	68.1522	109.35	0.192946	0.172422	-0.786583	0.235651	40.6003	0.247339	0
0.3280	-1.94717	50.7604	73.9539	5.99148	-1.98285	-1.41585	-2.19155	31.1415	-1.57678	-0.314402
0.3287	-1.33227	35.1931	38.8577	11.79	-0.775899	-1.10122	-2.19155	17.4105	-1.28307	0
0.3293	0.204965	23.293	29.6993	14.8467	0.775899	0.419511	0.848343	28.0959	0.247339	0
0.3300	0.204965	11.6954	21.4622	14.2374	0.431055	1.04878	1.46104	41.2136	0.247339	0
0.3307	0.512413	5.90113	14.4408	11.79	-0.431055	-0.157317	0.235651	2.7649	-0.0618347	0
0.3313	1.12731	3.45345	8.34066	8.7435	-1.37938	-1.99268	-1.57886	-61.0148	-1.28307	0
0.3320	1.43476	4.68174	5.28787	6.29613	-0.431055	-1.73048	-1.27252	-60.7134	-0.973896	0
0.3327	1.7422	8.3399	2.84564	4.46822	1.12074	0.419511	1.15469	-42.0971	0.850226	0
0.3333	1.12731	-2.95501	0.0981255	2.94496	1.12074	1.36341	1.76738	-65.5987	1.1594	0
0.3340	-0.717378	-24.6192	-2.34411	-1.63496	-0.172422	0.419511	-0.0706953	-45.7663	-0.0618347	-0.314402
0.3347	-3.79186	-19.4301	-7.22312	-12.6227	-1.03453	-1.10122	-1.57886	14.6664	-1.28307	-0.314402
0.3353	-3.79186	-2.64349	-7.5284	-20.5538	-0.775899	-0.786583	-1.27252	29.312	-0.664723	0
0.3360	-0.717378	-2.34087	-0.512433	-19.3352	0.431055	0.734145	0.848343	9.47964	0.850226	0
0.3367	0.204965	-4.77964	5.89843	-14.146	0.775899	1.04878	1.76738	-3.33658	0.850226	-0.314402
0.3373	-0.717378	-7.83257	6.50899	-8.0428	-0.431055	-0.786583	0.235651	1.85019	0.556512	0
0.3380	-1.02483	-10.8855	8.03539	-0.111706	-1.63801	-2.62194	-2.80425	15.2693	-0.355549	0.314402
0.3387	-0.40993	-5.69641	24.8203	7.82954	-0.431055	-1.73048	-2.19155	23.8238	-0.0618347	0
0.3393	1.7422	-0.204715	36.1102	12.704	0.775899	0.104878	0.848343	20.4665	1.1594	0
0.3400	3.58689	-3.56026	21.4622	14.2374	0.775899	0.104878	1.15469	10.3943	1.1594	0
0.3407	1.43476	-6.31056	3.15092	15.7606	-0.775899	-1.10122	-0.683388	6.4237	0.247339	0
0.3413	-2.25462	19.9374	-6.61257	17.5885	-1.63801	-1.99268	-1.88521	6.72514	-0.355549	-0.314402
0.3420	-1.94717	62.3579	-9.36008	18.1978	-0.431055	-1.41585	-0.989734	-5.17638	0.247339	-0.314402
0.3427	0.512413	69.6831	-5.3969	16.6746	0.775899	-0.47195	0.848343	-32.9397	0.247339	0
0.3433	1.43476	43.1325	-1.73355	7.52489	1.12074	-0.157317	0.541997	-63.4575	-0.355549	0
0.3440	0.204965	18.4154	-0.207154	-9.87071	0.431055	-0.786583	-1.27252	-73.5296	-1.28307	0
0.3447	-1.63972	8.64252	-2.64939	-15.6692	-0.431055	-2.93658	-1.88521	-52.7825	-1.88596	0
0.3453	-1.33227	10.1734	-7.83368	-14.7553	-0.431055	-2.30731	-0.989734	-31.7235	-1.57678	-0.314402
0.3460	0.512413	10.7787	-9.66536	-23.0012	0.172422	0.734145	1.15469	-28.3662	-1.88596	-0.314402
0.3467	1.43476	6.20375	-9.36008	-17.2027	0.431055	0.419511	1.15469	-4.26168	-2.19513	-0.314402
0.3473	1.43476	5.90113	-7.83368	2.64031	0.775899	-1.41585	-0.377041	40.9121	-1.57678	-0.314402
0.3480	-0.102483	6.81789	-5.3969	9.04815	-0.172422	-2.93658	-1.57886	43.3548	-1.57678	-0.314402
0.3487	-1.63972	1.62882	-2.64939	9.04815	-0.775899	-2.93658	-1.57886	3.6796	-1.88596	-0.943205
0.3493	-0.717378	-1.4241	-0.512433	14.542	0.775899	-0.157317	0.541997	-18.294	0.247339	-1.57201
0.3500	-0.102483	1.01467	-1.12299	14.8467	1.72422	1.94024	2.68642	-15.5499	1.46857	-0.314402
0.3507	-1.02483	1.93144	-3.56523	11.79	0.172422	0.104878	0.848343	-12.8058	-0.0618347	0
0.3513	-2.25462	-0.204715	-5.09162	9.65745	-1.37938	-2.30731	-2.19155	-11.5793	-1.57678	-0.314402
0.3520	-1.33227	-0.507337	-4.17578	-10.7948	-0.775899	-1.41585	-2.19155	-7.92049	-2.19513	-0.314402
0.3527	0.819861	1.3173	-2.34411	-45.2712	0.431055	1.62561	-0.0706953	-1.81901	-2.19513	0
0.3533	1.43476	1.01467	-2.03883	-53.8218	0.775899	1.94024	1.15469	2.15163	-0.0618347	0
0.3540	0.512413	-1.12148	-2.34411	-39.168	0.431055	0.104878	0.235651	3.06633	1.77775	0
0.3547	-0.717378	-2.34087	-4.48106	-25.4384	-1.03453	-1.41585	-2.4979	1.23693	1.1594	-0.314402
0.3553	-0.40993	-0.204715	-5.3969	-11.4041	-1.37938	-1.10122	-2.4979	1.85019	1.77775	0
0.3560	0.819861	3.15083	-4.48106	-0.416357	0.431055	0.104878	-0.377041	7.03697	2.99898	0
0.3567	1.12731	4.06759	-4.78634	4.46822	0.775899	-0.157317	0.235651	10.0825	2.38063	0
0.3573	-0.102483	3.15083	-6.31274	9.04815	0.172422	-1.41585	0.235651	9.78108	0.850226	0
0.3580	-1.33227	0.40943	-8.13896	17.5885	-0.775899	-2.30731	-1.27252	6.4237	-0.355549	-0.314402
0.3587	-0.40993	-3.86288	-8.13896	27.3577	-0.775899	-1.10122	-1.57886	2.15163	0.247339	-0.314402
0.3593	1.43476	-5.99903	-5.3969	31.0237	0.431055	0.104878	0.541997	-0.904308	1.46857	0
0.3600	2.3571	-5.99903	-2.34411	33.1562	1.12074	0.419511	1.76738	-4.26168	1.77775	0
0.3607	1.7422	-5.69641	-1.73355	38.3455	-0.431055	-0.157317	0.848343	-7.00579	0.556512	0
0.3613	-0.102483	-5.39379	-3.25995	22.7778	-1.98285	-1.99268	-1.57886	-5.77925	-0.664723	0.314402
0.3620	0.512413	-3.56026	-2.03883	-23.9151	-0.172422	-1.41585	-0.989734	-3.64841	-0.355549	-0.314402
0.3627	1.7422	-1.4241	0.0981255	-56.259	1.12074	0.734145	1.15469	-1.50718	-0.355549	-0.314402
0.3633	1.7422	0.40943	-0.817712	-41.92	0.431055	1.04878	1.46104	0.0103943	0.247339	0
0.3640	1.12731	-0.818859	-2.95467	-19.3352	-0.172422	0.419511	0.235651	3.06633	0.247339	0
0.3647	-0.717378	-6.9158	-5.09162	-14.7553	-1.37938	0.419511	-1.57886	21.984	-1.57678	-0.314402
0.3653	-1.02483	-8.74933	-6.00746	-13.8413	-1.37938	1.04878	-1.57886	44.5709	-2.79802	0
0.3660	-0.717378	-6.31056	-5.3969	-10.48	-0.172422	1.04878	0.541997	34.8003	-2.19513	-0.314402
0.3667	-0.40993	-4.1744	-3.8705	-9.87071	0.775899	1.36341	1.76738	3.98103	-1.57678	-0.314402
0.3673	-0.717378	-4.77964	-4.17578	-12.6227	-0.172422	0.419511	-0.0706953	-9.44846	-1.28307	-0.314402
0.3680	-2.86951	-5.69641	-6.31274	-14.146	-1.37938	-1.41585	-2.19155	-0.904308	-1.88596	-0.314402
0.3687	-2.25462	-4.1744	-4.78634	-12.3181	-0.172422	-1.10122	-0.989734	10.9972	-0.973896	0
0.3693	-0.717378	-2.95501	-1.42827	-9.2614	0.775899	0.734145	0.541997	18.3252	0.247339	0
0.3700	0.204965	-3.86288	1.31924	-6.21489	0.431055	1.04878	0.848343	20.1546	0.556512	0
0.3707	0.512413	-4.77964	1.62452	-3.46287	-0.172422	-0.47195	-0.0706953	5.20757	0.247339	-0.314402
0.3713	-0.717378	-4.77964	-1.42827	-1.93961	-1.03453	-2.30731	-1.88521	-14.3234	-0.0618347	-0.314402
0.3720	-0.717378	-3.25764	-3.25995	-0.721008	-0.431055	-1.99268	-0.989734	-9.44846	1.1594	-0.314402
0.3727	0.819861	-1.72672	-1.73355	4.46822	0.431055	0.104878	1.15469	7.03697	2.38063	0
0.3733	2.04965	-2.03825	-0.207154	9.04815	-0.172422	0.734145	1.15469	14.3546	1.77775	0
0.3740	0.819861	-3.56026	-0.817712	9.65745	-1.03453	-0.47195	-0.377041	15.5811	-0.0618347	0
0.3747	-1.02483	-5.09117	-1.42827	16.9792	-1.37938	-2.62194	-1.27252	13.1384	-0.973896	-0.314402
0.3753	-0.717378	-4.47702	0.708684	38.3455	-0.431055	-2.30731	-0.683388	12.2237	0.247339	-0.314402
0.3760	1.7422	-0.818859	3.15092	56.3504	1.12074	-0.786583	0.848343	12.5252	2.68981	0
0.3767	2.3571	0.40943	0.0981255	61.2349	1.12074	0.104878	1.15469	14.6664	2.99898	-0.314402
0.3773	2.04965	-3.56026	-5.70218	61.8442	-0.431055	-0.157317	-0.377041	0.935491	1.46857	-0.314402
0.3780	0.819861	-6.31056	-10.2759	64.2814	-1.37938	-1.41585	-1.27252	-27.4515	0.556512	-0.314402
0.3787	0.512413	-3.56026	-11.497	67.6428	-1.63801	-1.73048	-0.989734	-28.6676	-0.0618347	-0.943205
0.3793	2.04965	2.23406	-9.97064	71.6032	-0.775899	-0.157317	-0.0706953	-11.5793	1.1594	-1.57201
0.3800	2.972	3.45345	-11.8023	72.832	0.431055	1.04878	0.541997	-5.47782	2.38063	-0.943205
0.3807	1.7422	0.0979071	-18.5185	67.0335	-0.172422	-0.47195	-0.377041	-5.17638	1.46857	0.314402
0.3813	0.204965	-2.34087	-24.9239	65.5001	-1.37938	-2.30731	-2.19155	-5.47782	0.850226	0
0.3820	0.512413	-0.204715	-19.7396	44.4486	-1.03453	-0.786583	-1.27252	-4.56312	0.247339	-0.314402
0.3827	1.7422	0.0979071	-0.512433	-69.6839	-0.172422	2.25487	1.46104	-2.12045	-2.5043	-0.314402
0.3833	1.7422	-11.4996	8.03539	-192.367	0.775899	2.25487	1.76738	-0.291042	-5.24049	0
0.3840	0.204965	-25.8386	-3.25995	-168.259	0.431055	-0.157317	0.235651	-0.291042	-4.6376	0
0.3847	-2.86951	-28.5889	-9.36008	-75.4825	-0.172422	-2.62194	-2.19155	-6.39252	-2.5043	-0.314402
0.3853	-2.86951	-24.005	10.7774	-32.7602	0.172422	-1.73048	-1.88521	-9.13663	-1.57678	-0.314402
0.3860	-0.717378	-22.483	37.6366	-22.0771	1.37938	0.104878	0.848343	-3.03515	-0.355549	0
0.3867	-0.102483	-27.058	39.7735	-16.898	1.72422	0.419511	1.15469	0.322225	0.247339	0
0.3873	-1.63972	-28.8915	25.7361	-15.0599	0.172422	-0.786583	-0.683388	-0.592478	-0.355549	-0.628803
0.3880	-2.56207	-27.3695	15.0514	-14.7553	-1.03453	-2.30731	-2.19155	-1.50718	-1.57678	-0.314402
0.3887	-0.717378	-26.7553	8.34066	-15.3646	-0.172422	-1.73048	-1.27252	1.23693	-0.664723	0
0.3893	1.7422	-8.13519	2.54036	-10.1754	0.775899	-0.47195	0.541997	22.8987	1.46857	0
0.3900	2.66455	31.535	-3.56523	3.85892	1.37938	-0.157317	0.848343	64.7152	2.68981	-0.314402
0.3907	2.04965	47.1022	-10.2759	9.04815	0.775899	-1.41585	-0.0706953	83.9343	1.1594	-0.314402
0.3913	0.512413	24.8239	-14.8551	3.24962	-1.37938	-2.30731	-2.19155	47.6269	-2.5043	-0.314402
0.3920	0.204965	8.3399	-15.7709	8.7435	-0.775899	-0.786583	-1.88521	6.12227	-2.19513	0
0.3927	0.204965	12.6122	-17.6026	26.1391	1.12074	0.419511	0.541997	14.3546	0.850226	0
0.3933	-0.40993	15.6651	-22.4816	36.8222	1.12074	0.734145	1.46104	38.4695	1.77775	0
0.3940	-1.33227	10.1734	-30.1136	37.7362	0.431055	-0.157317	0.541997	36.0268	1.46857	-0.314402
0.3947	-2.25462	4.98436	-25.8397	29.1856	-0.775899	-1.99268	-0.989734	-0.291042	-0.355549	-0.314402
0.3953	-1.63972	8.3399	-1.12299	11.4854	-0.775899	0.104878	-0.683388	-46.0677	-1.57678	0
0.3960	-0.717378	12.6122	15.6619	2.94496	0.172422	2.56951	1.15469	-59.1854	-0.664723	-0.314402
0.3967	-0.40993	9.86191	14.1355	7.82954	1.12074	1.94024	1.46104	-44.8412	1.1594	-0.314402
0.3973	-0.102483	2.54558	13.525	-17.812	0.431055	-0.157317	0.541997	-25.0088	0.247339	-0.314402
0.3980	-1.02483	-3.56026	11.0827	-76.1019	-1.03453	-1.41585	-1.57886	-11.5793	-2.19513	0
0.3987	-0.40993	-0.204715	-2.03883	-93.8022	-0.431055	-0.47195	-0.989734	-17.0779	-3.10719	0
0.3993	1.7422	9.86191	-15.4657	-60.5342	1.12074	1.36341	1.46104	-27.15	-1.57678	0
0.4000	2.66455	19.3233	-20.3501	-29.7137	0.775899	1.36341	1.46104	-28.6676	-0.355549	0
0.4007	2.66455	24.8239	-17.6026	-16.5933	-0.172422	-0.157317	0.235651	-32.025	-0.973896	0
0.4013	1.43476	25.1265	-11.8023	-10.48	-1.37938	-1.41585	-0.989734	-30.8088	-1.57678	-0.314402
0.4020	2.04965	26.0433	-2.64939	-7.12884	-0.775899	-0.157317	-0.683388	-15.2485	-0.0618347	-0.314402
0.4027	3.89434	26.6485	23.5992	-6.82419	1.12074	1.62561	1.46104	17.1091	0.850226	-0.314402
0.4033	3.27944	27.2627	49.2317	-8.6521	1.37938	1.04878	2.38007	65.9313	0.850226	0
0.4040	-0.102483	20.2401	41.6052	-8.0428	0.431055	-0.786583	0.541997	101.033	0.247339	0
0.4047	-1.63972	7.12051	15.3566	-5.91024	-1.03453	-1.73048	-1.57886	101.334	-0.664723	0
0.4053	1.43476	-8.13519	-5.70218	-4.37683	-0.775899	-1.10122	-1.27252	111.095	-0.664723	-0.314402
0.4060	4.20179	-41.4058	-11.1918	-2.24427	0.775899	0.419511	0.848343	151.996	0.247339	-0.314402
0.4067	2.972	-69.1758	-6.91785	-0.721008	1.12074	0.734145	1.15469	180.674	0.850226	-0.314402
0.4073	0.512413	-56.0473	-4.78634	-0.416357	0.172422	-0.157317	0.541997	128.193	0.247339	0
0.4080	-1.33227	-34.9973	2.54036	-1.02566	-1.03453	-1.73048	-0.683388	-14.6352	-0.664723	0
0.4087	-0.717378	-35.2999	21.4622	-1.63496	-1.03453	-1.10122	-0.989734	-130.293	-0.973896	-0.943205
0.4093	2.04965	-37.4361	28.7835	-0.721008	0.775899	1.36341	1.15469	-118.693	0.850226	-0.943205
0.4100	2.3571	-31.3303	21.1569	0.192946	1.98285	2.25487	2.68642	-58.884	1.46857	0.314402
0.4107	0.204965	-31.0276	22.0728	0.192946	0.431055	0.419511	1.46104	-64.3722	0.247339	0
0.4113	-1.33227	-36.5193	20.8517	-0.111706	-0.431055	-1.41585	-0.377041	-103.746	-0.664723	0
0.4120	-1.02483	-14.5436	3.4562	0.802249	0.172422	-0.47195	-0.0706953	-105.877	-0.664723	0
0.4127	-1.63972	39.1628	-13.0234	2.94496	1.12074	1.04878	1.15469	-78.1135	-0.355549	0
0.4133	-3.48441	62.6605	-18.8237	4.77287	1.37938	0.734145	1.46104	-50.0384	-0.355549	0.314402
0.4140	-4.40675	39.1628	-20.0449	6.29613	-0.431055	-0.47195	-0.0706953	-33.2515	-1.28307	-0.628803
0.4147	-4.40675	17.1871	-24.9239	7.82954	-1.63801	-1.10122	-0.989734	-27.7529	-1.28307	-1.25761
0.4153	-2.86951	15.6651	-34.6928	11.4854	0.431055	0.104878	0.541997	-17.9926	0.850226	-0.628803
0.4160	-2.25462	17.1871	-43.5405	18.1978	1.72422	1.04878	1.76738	2.45306	1.77775	0.314402
0.4167	-3.17696	10.7787	-43.5405	21.8638	1.12074	0.419511	1.46104	16.1944	2.07146	0
0.4173	-3.79186	-5.09117	-34.3875	20.9499	0.172422	-0.47195	0.541997	21.3812	1.1594	0.314402
0.4180	-5.02165	-20.0442	-18.5185	21.2545	-0.431055	-1.73048	-0.683388	41.2136	-0.0618347	0
0.4187	-4.0993	-12.4075	1.9298	26.7484	0.172422	-0.786583	-0.377041	61.6592	0.850226	-0.314402
0.4193	-1.33227	12.007	14.1355	32.2423	0.775899	1.04878	1.76738	51.2857	2.68981	0
0.4200	-0.40993	24.8239	16.2725	32.8516	0.775899	0.734145	2.07373	39.9974	2.68981	0
0.4207	-0.717378	20.5516	18.7147	31.0237	-0.172422	-0.786583	0.235651	47.9283	1.46857	0
0.4213	-0.40993	12.9148	20.2411	28.2717	-1.37938	-1.73048	-1.27252	55.8592	0.247339	-0.314402
0.4220	1.43476	8.95405	13.8302	27.967	-0.431055	-0.786583	-0.989734	52.8137	1.1594	-0.314402
0.4227	3.89434	4.68174	37.026	27.3577	1.12074	0.419511	0.541997	4.29286	1.77775	0
0.4233	4.50924	0.712051	97.7548	-0.721008	1.37938	0.734145	1.15469	-70.1722	0.247339	0
0.4240	2.972	0.0979071	105.997	-50.4604	0.172422	-0.157317	-0.0706953	-83.9031	-1.88596	0.314402
0.4247	0.819861	-0.507337	48.0106	-66.9421	-1.03453	-1.41585	-1.57886	-45.4545	-3.41636	0
0.4253	1.7422	-1.12148	7.73011	-41.92	-0.172422	-0.786583	-0.683388	-17.9926	-2.79802	-0.314402
0.4260	5.12413	-0.204715	1.9298	-17.5073	1.72422	0.419511	0.541997	-13.1073	-1.28307	-0.314402
0.4267	6.55889	-4.1744	2.23508	-8.95675	1.98285	0.419511	0.541997	-23.4808	-0.355549	0
0.4273	4.81668	-12.719	1.01396	-6.51954	0.431055	-0.47195	-0.0706953	-44.2383	-0.664723	0
0.4280	2.972	-13.6358	-2.34411	-4.07217	-0.775899	-2.30731	-1.57886	-55.5266	-0.973896	-0.314402
0.4287	0.819861	-3.56026	-6.00746	-2.24427	-0.431055	-1.73048	-0.683388	-41.7957	-0.355549	-0.314402
0.4293	-1.63972	5.90113	-5.09162	-1.63496	0.775899	0.104878	1.15469	-16.4646	1.1594	-0.314402
0.4300	-2.86951	5.90113	6.50899	-1.02566	0.775899	0.734145	2.07373	0.935491	1.1594	-0.314402
0.4307	-4.7142	-1.12148	14.7461	-0.721008	-0.172422	-0.47195	0.541997	4.29286	0.247339	-0.314402
0.4313	-5.02165	-7.22732	13.8302	-0.721008	-1.03453	-1.73048	-1.88521	6.72514	-0.355549	-0.314402
0.4320	-0.40993	-4.1744	13.525	-0.111706	-0.431055	-0.786583	-1.57886	15.8826	-0.0618347	-0.314402
0.4327	3.89434	-1.12148	16.883	1.1069	0.775899	0.419511	0.541997	34.8003	0.556512	0
0.4333	4.20179	-1.72672	18.4094	0.497597	1.37938	0.419511	1.46104	59.8298	0.850226	0
0.4340	1.43476	2.54558	7.11955	-3.76752	0.775899	-0.786583	0.848343	60.1313	0.247339	0
0.4347	-1.02483	2.54558	-8.74952	-8.95675	-0.431055	-1.41585	-0.377041	45.4856	-0.355549	0
0.4353	-0.717378	-5.69641	-16.0762	-10.7948	-0.431055	-0.47195	-0.0706953	39.9974	-0.0618347	0
0.4360	0.512413	-6.61318	-19.4343	-10.48	0.775899	0.419511	1.46104	34.8003	0.556512	-0.314402
0.4367	-0.717378	3.76497	-21.266	-10.48	0.775899	0.734145	1.76738	17.1091	0.247339	-0.314402
0.4373	-2.56207	9.25667	-20.6554	-9.56605	-0.172422	0.419511	0.848343	-7.92049	-0.664723	0
0.4380	-3.48441	2.23406	-20.0449	-6.51954	-0.775899	-1.10122	-0.683388	-7.61905	-1.28307	0
0.4387	-2.56207	-8.44671	-18.5185	-1.63496	-0.775899	-1.10122	-1.57886	11.9119	-0.355549	-0.943205
0.4393	-0.102483	-10.5829	-19.4343	10.2668	0.431055	1.36341	0.235651	36.0268	1.46857	-1.57201
0.4400	-0.102483	-7.22732	-23.7028	21.5592	0.775899	2.25487	1.76738	52.8137	2.07146	-0.314402
0.4407	-1.94717	-6.9158	-22.7869	23.3871	-0.431055	0.419511	0.541997	-8.53376	0.850226	0
0.4413	-2.25462	-10.2713	-16.6868	23.3871	-1.63801	-1.10122	-1.88521	-118.693	-0.355549	-0.314402
0.4420	-0.102483	-10.5829	-9.97064	25.2251	-0.775899	-0.47195	-0.683388	-158.067	0.556512	0
0.4427	1.12731	-3.56026	-6.61257	18.8071	0.431055	1.04878	1.15469	-118.392	1.46857	0
0.4433	-1.33227	3.15083	-9.0548	7.22024	0.775899	1.36341	0.848343	-54.9133	1.46857	0
0.4440	-3.79186	0.40943	-11.1918	5.38217	0.431055	0.104878	0.235651	-19.5206	0.850226	0
0.4447	-4.0993	-3.86288	-12.1076	6.29613	-0.431055	-1.73048	-0.989734	-26.8382	-0.355549	0
0.4453	-4.0993	-1.4241	-10.5812	0.192946	-0.431055	-0.157317	-1.27252	-33.8544	-1.28307	-0.314402
0.4460	-3.79186	1.62882	-8.44424	-3.76752	0.431055	1.62561	1.46104	-25.9235	-0.664723	0
0.4467	-2.25462	2.84821	-7.5284	-0.721008	0.775899	1.36341	2.38007	-21.6514	-0.0618347	0.314402
0.4473	-1.94717	1.01467	-7.22312	1.1069	0.172422	-0.157317	0.235651	-16.1632	-0.355549	0
0.4480	-2.56207	-2.95501	-8.13896	-2.54892	-0.775899	-1.41585	-1.57886	-6.69396	-0.973896	0
0.4487	-1.94717	-1.12148	-6.31274	-3.76752	-0.172422	-0.786583	-0.683388	-2.12045	-0.664723	0
0.4493	-0.717378	3.15083	-2.64939	0.802249	1.12074	0.734145	1.15469	-2.73371	0.850226	0
0.4500	-0.102483	0.40943	-1.12299	4.16357	1.37938	1.36341	1.76738	-4.56312	1.46857	0
0.4507	-0.40993	-10.8855	-0.207154	2.64031	0.172422	0.104878	0.235651	-6.39252	0.556512	0
0.4513	-0.40993	-18.816	1.01396	-1.02566	-1.03453	-1.41585	-1.57886	-9.44846	-0.355549	0
0.4520	1.12731	-16.3772	1.9298	-0.721008	-0.431055	-0.47195	-0.683388	-9.44846	0.247339	-0.314402
0.4527	2.3571	-11.1881	0.708684	1.42171	1.12074	1.36341	2.07373	-2.12045	1.46857	0
0.4533	1.12731	-8.44671	-2.64939	1.72636	0.775899	1.04878	2.38007	3.36777	1.46857	0
0.4540	-1.02483	-7.52994	-5.09162	0.802249	0.172422	-0.47195	0.541997	1.85019	0.556512	0
0.4547	-1.63972	-6.9158	-6.00746	0.497597	-0.431055	-1.41585	-1.27252	-1.20574	-0.355549	-0.314402
0.4553	-0.40993	-4.47702	-4.48106	1.1069	-0.172422	-0.157317	-0.683388	-0.291042	-0.0618347	0
0.4560	0.512413	-5.99903	-2.64939	1.72636	1.12074	0.419511	1.15469	2.15163	1.1594	0.314402
0.4567	-0.717378	-1.12148	-3.56523	1.42171	0.775899	-0.157317	1.46104	3.6796	0.556512	0
0.4573	-1.33227	26.0433	-5.09162	1.1069	-0.172422	-0.786583	0.235651	4.29286	-0.0618347	0
0.4580	-1.94717	47.1022	-6.61257	0.192946	-1.03453	-1.73048	-1.57886	3.6796	-0.355549	0
0.4587	-1.02483	31.535	-5.09162	0.192946	-0.775899	-1.10122	-1.27252	3.98103	-0.0618347	0.314402
0.4593	0.819861	3.76497	-2.03883	0.802249	0.172422	-0.157317	0.541997	5.20757	0.556512	0
0.4600	1.12731	-4.1744	-0.817712	1.1069	0.775899	0.419511	1.15469	5.20757	0.850226	-0.314402
0.4607	0.204965	-2.34087	-1.73355	1.1069	-0.172422	-0.157317	-0.0706953	5.20757	0.247339	0
0.4613	-1.02483	-5.09117	-2.64939	0.802249	-1.37938	-1.73048	-1.57886	5.20757	-0.664723	0
0.4620	-0.717378	-3.25764	-0.817712	1.1069	-0.775899	-1.10122	-0.377041	6.72514	-0.0618347	0
0.4627	0.512413	1.62882	2.54036	1.42171	0.431055	0.104878	0.848343	9.16781	0.556512	0
0.4633	1.12731	3.76497	3.4562	1.72636	0.431055	0.419511	0.541997	8.86637	0.556512	-0.314402
0.4640	0.819861	4.37022	2.54036	0.802249	-0.172422	-0.47195	-0.989734	6.12227	-0.0618347	-0.314402
0.4647	0.204965	3.76497	1.62452	-0.111706	-1.03453	-1.73048	-1.88521	5.20757	-0.664723	0
0.4653	0.204965	2.54558	2.84564	0.802249	-0.172422	-1.10122	-0.989734	6.4237	-0.355549	0
0.4660	1.43476	-12.719	2.84564	1.42171	1.37938	0.104878	0.235651	7.33841	-0.0618347	0
0.4667	1.12731	-29.5056	-0.817712	1.1069	1.37938	0.104878	0.235651	7.33841	-0.0618347	-0.314402
0.4673	-0.40993	-12.1049	-2.95467	0.497597	-0.172422	-0.786583	-0.683388	4.89574	-0.355549	0
0.4680	-1.02483	10.1734	-2.64939	-0.721008	-1.63801	-2.93658	-1.88521	0.322225	-0.664723	-0.628803
0.4687	1.43476	6.81789	0.403405	-0.416357	-0.775899	-2.30731	-1.88521	5.20757	-0.664723	-1.57201
0.4693	4.81668	1.93144	4.06676	1.42171	1.72422	0.734145	0.235651	11.6105	1.1594	-0.943205
0.4700	3.89434	6.81789	4.06676	1.42171	1.37938	0.419511	1.46104	5.81044	0.850226	0
0.4707	0.819861	10.7787	1.01396	-0.416357	-0.172422	-1.41585	-0.377041	2.7649	-0.664723	0
0.4713	-1.02483	9.55929	-2.34411	-1.02566	-0.431055	-2.30731	-2.80425	12.5252	-0.973896	0
0.4720	-0.40993	6.81789	-2.95467	-0.416357	-0.172422	-1.99268	-1.88521	25.04	-0.355549	-0.314402
0.4727	1.7422	6.20375	-1.12299	-0.111706	0.775899	-0.786583	-0.0706953	23.8238	-0.355549	-0.314402
0.4733	2.04965	5.90113	-1.42827	-0.416357	0.775899	-0.157317	-0.377041	8.25311	-0.664723	-0.314402
0.4740	0.819861	2.54558	-4.17578	-0.721008	-0.172422	-1.10122	-1.27252	-0.291042	-0.664723	-0.628803
0.4747	-0.40993	-0.507337	-5.70218	-0.721008	-1.37938	-1.73048	-2.4979	14.3546	-1.28307	-0.314402
0.4753	-0.40993	0.0979071	-3.8705	0.192946	-1.03453	-0.47195	-1.57886	37.2429	-0.973896	0
0.4760	1.12731	1.3173	-1.12299	0.802249	0.172422	0.419511	0.235651	48.843	-0.355549	0
0.4767	1.7422	3.15083	0.0981255	0.802249	0.431055	0.419511	0.541997	56.171	-0.355549	0
0.4773	2.3571	4.37022	-0.512433	0.192946	0.172422	-0.786583	-1.57886	47.6269	-0.355549	0
0.4780	2.3571	1.3173	-0.207154	-0.416357	-0.775899	-2.30731	-2.80425	-1.81901	-1.28307	-0.314402
0.4787	2.3571	-2.34087	1.9298	-0.721008	0.172422	-1.41585	-1.88521	-43.6251	-1.28307	-0.314402
0.4793	2.972	-1.4241	2.84564	-0.721008	1.12074	0.104878	-0.377041	-29.5823	-0.0618347	0
0.4800	2.972	-0.507337	2.54036	-0.111706	0.775899	0.104878	0.235651	8.25311	0.850226	-0.314402
0.4807	2.3571	-2.03825	1.9298	-0.416357	-0.172422	-0.47195	-0.377041	35.1121	-0.0618347	-0.314402
0.4813	1.7422	-3.25764	0.708684	-0.721008	-1.37938	-1.10122	-1.27252	29.6135	-0.664723	0
0.4820	1.7422	-2.34087	2.54036	-0.111706	-0.431055	-0.157317	-0.989734	-13.7205	-0.0618347	0
0.4827	1.43476	0.712051	5.28787	0.497597	0.775899	0.419511	0.235651	-49.1133	0.247339	0
0.4833	0.204965	3.45345	3.4562	0.497597	0.775899	0.419511	0.235651	-45.4545	0.247339	0
0.4840	-2.25462	3.15083	-0.817712	-0.416357	0.172422	-0.47195	-0.989734	-33.2515	-0.0618347	0
0.4847	-5.3291	1.93144	-2.95467	-1.33031	-0.172422	-1.73048	-1.57886	-30.5074	-0.973896	0
0.4853	-5.02165	3.76497	-1.12299	-1.02566	0.431055	-0.786583	-0.989734	-26.5368	-0.0618347	0
0.4860	-1.94717	6.20375	1.01396	0.192946	1.37938	0.419511	0.541997	-23.1794	0.850226	0
0.4867	-0.102483	4.98436	0.708684	0.192946	0.775899	0.419511	1.15469	-7.92049	0.247339	0
0.4873	0.204965	0.40943	-0.207154	-0.721008	0.172422	-0.47195	-0.0706953	33.8856	-0.355549	0
0.4880	-0.717378	-2.64349	-2.64939	-1.33031	-1.03453	-1.73048	-1.88521	62.8858	-0.973896	-0.314402
0.4887	-0.40993	0.40943	-2.34411	-0.721008	-1.03453	-0.786583	-0.989734	48.2298	-0.664723	-0.628803
0.4893	1.12731	6.50637	1.62452	0.192946	0.431055	1.04878	1.46104	20.7679	0.247339	-0.314402
0.4900	1.7422	9.25667	2.84564	1.1069	1.12074	1.36341	1.76738	8.56494	0.850226	0
0.4907	0.204965	6.50637	0.403405	1.1069	0.172422	0.104878	0.235651	7.63984	-0.0618347	0
0.4913	-1.63972	2.23406	-4.17578	1.1069	-1.03453	-1.41585	-1.27252	8.25311	-1.28307	-0.314402
0.4920	-0.717378	2.54558	-7.5284	2.03101	-0.431055	-0.47195	0.235651	9.78108	-0.355549	0
0.4927	0.204965	3.45345	-5.3969	2.03101	0.775899	1.04878	2.68642	10.9972	1.1594	0
0.4933	-0.717378	-4.1744	-1.73355	1.1069	1.12074	1.04878	2.99277	7.03697	0.850226	-0.314402
0.4940	-1.63972	-12.4075	-3.56523	0.802249	0.431055	-0.157317	1.76738	-3.33658	-0.0618347	0
0.4947	-1.63972	-11.1881	-6.00746	0.192946	-0.775899	-1.10122	-0.0706953	-14.9367	-0.973896	0.314402
0.4953	-0.717378	-4.47702	-3.56523	0.192946	-0.172422	-0.786583	0.541997	-14.6352	-0.664723	0
0.4960	-0.102483	-0.818859	-2.64939	1.42171	1.12074	0.734145	2.07373	-6.69396	0.850226	-0.314402
0.4967	0.512413	-2.34087	-6.31274	0.192946	0.431055	0.734145	1.76738	-13.4087	1.1594	0
0.4973	1.43476	-3.56026	-9.36008	-1.02566	-0.172422	-0.157317	0.848343	-27.4515	0.247339	0.314402
0.4980	1.43476	-3.56026	-10.5812	-1.33031	-0.775899	-1.99268	-0.377041	-7.00579	-0.664723	0
0.4987	2.3571	-2.64349	-11.497	-5.60559	-0.431055	-1.73048	-0.989734	46.0989	-0.355549	-1.25761
0.4993	3.89434	2.23406	-10.8865	-8.0428	1.12074	1.04878	0.848343	64.4034	1.1594	-0.943205
0.5000	4.20179	7.72576	-16.6868	-5.60559	1.72422	1.94024	2.38007	26.5679	1.77775	0
0.5007	4.50924	5.5896	-28.5872	-6.51954	0.172422	0.104878	1.15469	-10.3632	0.247339	0
0.5013	4.20179	-2.64349	-30.4189	-9.87071	-0.775899	-1.41585	-0.377041	-15.8514	-0.664723	-0.314402
0.5020	3.89434	-3.56026	-34.3875	-11.7088	-0.172422	-0.47195	0.848343	-3.33658	0.247339	0
0.5027	4.81668	0.712051	-47.8144	-11.0995	1.12074	1.04878	2.07373	17.1091	0.850226	0
0.5033	5.43158	1.01467	-55.1356	-10.1754	1.12074	1.04878	2.38007	33.8856	0.850226	-0.314402
0.5040	3.58689	-2.34087	-57.8831	-12.0134	0.431055	-0.47195	0.848343	39.0827	-0.0618347	0.314402
0.5047	0.204965	-8.44671	-63.3781	-12.9274	-0.775899	-1.41585	-0.683388	40.2989	-1.57678	0.314402
0.5053	-0.102483	-10.8855	-38.9613	-12.0134	-0.431055	0.419511	0.541997	40.6003	-1.57678	0
0.5060	0.819861	-7.52994	40.0788	-8.34745	0.431055	2.88414	2.68642	37.8562	-0.355549	-0.314402
0.5067	-0.717378	-1.12148	96.2284	3.85892	0.775899	2.56951	2.68642	35.7254	0.247339	0
0.5073	-4.7142	0.40943	77.6118	15.1513	-0.172422	0.734145	1.15469	43.9577	-0.0618347	0.314402
0.5080	-7.48123	-7.22732	52.8951	21.2545	-1.37938	-0.157317	-0.377041	49.1445	-0.664723	0
0.5087	-6.86634	-10.2713	56.8637	27.6623	-0.775899	-0.47195	0.541997	34.4988	0.247339	-0.314402
0.5093	-4.7142	-4.1744	59.911	25.2251	0.775899	0.419511	1.46104	18.9385	1.77775	-0.314402
0.5100	-2.56207	-0.818859	51.9792	16.3699	1.12074	0.419511	1.76738	-7.00579	1.1594	0
0.5107	-1.33227	-2.95501	38.5524	14.2374	-0.172422	-1.41585	-0.0706953	-48.8118	-0.664723	-0.628803
0.5113	-1.02483	-8.74933	25.4308	24.301	-1.63801	-2.30731	-1.27252	-61.9399	-0.664723	-0.943205
0.5120	1.43476	-13.6358	13.2197	46.2766	-0.172422	-0.47195	1.15469	-34.4676	1.77775	0.314402
0.5127	3.89434	-12.1049	4.06676	62.1489	1.37938	0.419511	2.99277	-3.94985	3.2927	0.314402
0.5133	3.27944	-6.9158	-0.207154	61.5396	1.37938	0.104878	2.38007	-14.022	2.38063	0
0.5140	-0.102483	-2.64349	-5.3969	65.1954	0.431055	-1.10122	1.15469	-49.4251	2.07146	0
0.5147	-2.25462	0.40943	-7.22312	76.7925	-0.431055	-2.93658	-0.989734	-53.0839	2.38063	-0.314402
0.5153	-1.63972	1.93144	1.62452	73.1367	0.172422	-1.73048	-0.377041	-40.2677	2.99898	-0.314402
0.5160	-1.02483	0.40943	7.42483	66.1094	1.12074	0.734145	2.07373	-36.297	2.68981	-0.314402
0.5167	-0.717378	-2.03825	8.03539	79.2398	0.775899	0.419511	2.38007	-29.2809	2.99898	0
0.5173	-0.717378	-3.56026	7.73011	84.7337	-0.172422	-1.99268	0.235651	-22.5661	2.38063	-0.314402
0.5180	-1.94717	-2.95501	-3.56523	38.9548	-1.03453	-1.99268	-1.27252	-21.0382	-0.0618347	0
0.5187	-2.56207	1.01467	-13.9393	-22.3817	-0.431055	-0.157317	0.235651	-23.1794	-1.88596	0.314402
0.5193	-1.02483	5.28698	-14.8551	-67.2467	0.775899	1.62561	2.07373	-25.9235	-2.19513	0
0.5200	-0.40993	6.20375	-14.2445	-115.768	0.775899	2.25487	1.46104	-21.35	-2.5043	-0.314402
0.5207	-1.63972	4.06759	-11.1918	-134.077	-0.172422	1.04878	-0.377041	-15.8514	-3.10719	-0.314402
0.5213	-2.56207	3.45345	-15.4657	-96.2394	-1.37938	0.734145	-0.989734	-7.92049	-1.88596	0
0.5220	-0.717378	7.42314	-24.3133	-57.1729	-1.03453	2.25487	-0.0706953	7.33841	-0.973896	0
0.5227	0.512413	12.9148	6.20371	-65.1142	0.172422	2.56951	1.46104	16.1944	-1.57678	-0.314402
0.5233	-1.02483	16.5819	56.8637	-84.947	0.172422	1.94024	1.76738	17.1091	-2.79802	0
0.5240	-2.56207	15.051	58.3847	-69.6839	-0.431055	0.419511	0.235651	17.712	-2.79802	0.314402
0.5247	-2.86951	7.12051	31.2257	-43.1386	-1.03453	-1.10122	-1.27252	17.712	-1.88596	0.314402
0.5253	-0.717378	0.40943	21.4622	-30.9323	-0.431055	0.104878	-0.0706953	20.4665	-0.973896	0.314402
0.5260	1.43476	-3.25764	17.7989	-26.0477	0.775899	1.36341	1.15469	24.4267	-0.664723	0
0.5267	1.12731	-8.74933	10.4722	-23.0012	0.775899	1.04878	0.848343	18.9385	-0.973896	0
0.5273	-1.02483	-11.4996	4.06676	-20.8585	-0.172422	0.104878	-0.377041	-1.20574	-0.973896	0
0.5280	-2.86951	-10.8855	-3.56523	-19.0306	-0.431055	-0.786583	-1.57886	-14.022	-1.28307	0
0.5287	-2.56207	-5.99903	-14.2445	-16.2785	0.172422	-0.47195	-0.377041	-6.69396	-0.355549	0
0.5293	-1.94717	3.45345	-23.3975	-14.4506	0.431055	1.04878	1.76738	2.45306	0.556512	0.314402
0.5300	-1.94717	9.25667	-25.5344	-13.8413	0.431055	0.734145	0.848343	-8.83519	0.247339	-0.628803
0.5307	-2.25462	5.5896	-29.5031	-12.6227	-0.172422	-1.10122	-0.989734	-31.1103	-0.0618347	-1.25761
0.5313	-2.86951	-1.4241	-37.4403	-8.95675	-0.172422	-1.10122	-1.57886	-29.5823	-0.355549	-0.628803
0.5320	-2.25462	-0.507337	-30.7242	-5.91024	0.431055	0.104878	-0.683388	-21.35	-0.0618347	0.314402
0.5327	-0.102483	5.28698	-18.2132	-3.46287	1.12074	0.419511	0.541997	-17.0779	0.556512	0
0.5333	1.12731	7.72576	-14.8551	-1.63496	1.37938	0.104878	0.848343	14.0532	0.556512	-0.314402
0.5340	0.204965	4.68174	2.54036	-0.416357	0.172422	-0.786583	-0.683388	49.1445	-0.355549	0
0.5347	-0.102483	-0.204715	22.6833	0.497597	-0.775899	-1.41585	-1.27252	47.3151	-0.973896	0
0.5353	1.7422	0.40943	12.6091	2.64031	0.172422	-0.786583	-0.0706953	5.509	-0.664723	0
0.5360	3.58689	4.37022	-1.42827	5.99148	1.12074	0.104878	0.848343	-32.3368	-0.0618347	0
0.5367	3.27944	3.45345	-1.73355	5.07752	0.431055	-0.157317	0.848343	-27.15	0.556512	0
0.5373	2.3571	-0.818859	-4.78634	0.802249	-0.431055	-1.99268	-0.377041	-19.822	0.556512	0
0.5380	1.43476	-1.4241	-13.3287	-0.721008	-0.431055	-2.93658	-1.88521	-35.0809	0.556512	0
0.5387	1.7422	1.3173	-9.97064	0.497597	-0.172422	-0.786583	-0.989734	-32.3368	0.850226	0
0.5393	2.972	-1.4241	2.23508	1.42171	0.775899	0.734145	0.848343	-3.33658	0.850226	0.314402
0.5400	4.20179	-9.96872	-5.3969	-1.63496	0.775899	0.734145	0.848343	20.1546	0.556512	0
0.5407	3.58689	-13.6358	-18.2132	-7.12884	-0.172422	-0.157317	-0.683388	16.7973	-0.0618347	-0.314402
0.5413	-0.102483	-10.8855	-9.0548	-7.73815	-1.03453	-1.10122	-1.88521	-3.64841	-0.973896	0
0.5420	-1.33227	-4.47702	8.03539	-3.15822	-0.172422	-0.47195	-0.0706953	-11.8911	-0.664723	0
0.5427	0.512413	1.3173	22.0728	0.802249	0.172422	1.04878	1.46104	-5.77925	0.556512	0
0.5433	-0.40993	2.54558	33.6679	2.33566	0.431055	1.04878	1.76738	-2.42188	0.556512	0
0.5440	-2.56207	-0.204715	23.9045	2.33566	0.172422	-0.47195	0.235651	0.935491	-0.0618347	0
0.5447	-2.86951	-2.03825	-2.64939	2.03101	-1.03453	-1.99268	-1.57886	11.309	-0.973896	0
0.5453	-1.33227	-2.03825	-14.5498	2.94496	-0.431055	-1.10122	-0.989734	26.8694	-0.355549	0
0.5460	0.204965	-3.56026	-12.7182	4.77287	0.775899	0.734145	0.848343	47.0136	0.850226	0
0.5467	0.819861	-5.99903	-14.5498	4.77287	1.12074	0.734145	0.541997	61.6592	0.247339	0
0.5473	0.819861	-7.52994	-18.8237	3.85892	0.431055	-0.47195	-0.683388	65.6299	-0.355549	0
0.5480	0.512413	-5.99903	-19.4343	3.55427	-0.775899	-1.10122	-2.19155	76.6167	-0.664723	0
0.5487	0.819861	1.62882	-16.0762	5.07752	0.172422	0.104878	-0.989734	78.7475	-0.355549	0
0.5493	-0.102483	9.55929	16.2725	5.38217	1.37938	1.04878	1.15469	30.84	0.850226	0.314402
0.5500	-0.40993	14.1431	63.2691	4.77287	0.775899	0.104878	1.15469	-49.4251	0.850226	0
0.5507	-0.717378	12.6122	57.4743	4.46822	-0.172422	-1.10122	-0.683388	-94.5885	-0.355549	-0.314402
0.5513	-2.86951	4.06759	17.1883	4.16357	-0.431055	-1.73048	-1.88521	-74.4443	-0.973896	0
0.5520	-3.17696	1.3173	2.23508	4.16357	0.775899	-0.786583	-0.377041	-27.15	-0.355549	0.314402
0.5527	-0.717378	1.01467	1.9298	4.77287	1.37938	0.104878	1.46104	7.03697	0.850226	0
0.5533	0.512413	-3.86288	-2.95467	5.07752	0.775899	0.104878	1.46104	41.515	0.850226	0
0.5540	-0.717378	-5.69641	-2.34411	4.77287	-0.172422	-0.786583	-0.0706953	77.2196	-0.0618347	0.314402
0.5547	-2.56207	-1.4241	3.76148	4.16357	-0.775899	-1.99268	-1.88521	77.8328	-0.664723	0.314402
0.5553	-2.86951	0.0979071	8.95122	4.77287	-0.172422	-0.47195	-0.683388	61.6592	-0.0618347	0
0.5560	-1.63972	-4.77964	11.388	5.38217	0.775899	0.419511	1.76738	77.5314	0.850226	0
0.5567	-0.40993	-6.61318	11.0827	5.99148	0.775899	-0.157317	1.46104	77.5314	0.850226	0
0.5573	-0.102483	-3.56026	4.67731	5.68683	-0.431055	-0.786583	-0.0706953	-10.6646	0.247339	0.314402
0.5580	-0.40993	-5.09117	-4.78634	4.16357	-1.37938	-1.73048	-0.683388	-104.047	-0.355549	0.314402
0.5587	0.512413	-7.52994	-7.5284	11.4854	-0.775899	-1.41585	-0.683388	-101.605	-0.0618347	-0.943205
0.5593	4.20179	-5.39379	-4.48106	28.881	0.775899	0.104878	0.235651	-51.8678	1.46857	-1.25761
0.5600	6.55889	-3.25764	-4.48106	40.7827	1.12074	1.04878	1.15469	-15.8514	2.68981	0
0.5607	4.50924	-4.1744	-1.42827	42.3059	-0.172422	-1.10122	-0.683388	8.56494	1.46857	0.314402
0.5613	4.20179	-2.64349	8.03539	42.0013	-1.03453	-2.62194	-3.11059	36.0268	-0.0618347	-0.943205
0.5620	7.17378	3.76497	9.56178	43.8393	0.431055	-0.47195	-1.27252	59.5284	1.46857	-1.57201
0.5627	6.25144	6.50637	8.34066	43.8393	1.12074	0.734145	2.07373	27.7841	2.99898	-0.314402
0.5633	0.819861	6.20375	11.0827	36.8222	0.431055	-0.157317	1.15469	-42.0971	1.46857	0
0.5640	-4.40675	8.3399	1.01396	28.5763	0.172422	-1.41585	-0.683388	-61.3266	-0.0618347	-0.314402
0.5647	-6.55889	9.25667	-13.0234	29.4903	-0.431055	-2.30731	-1.57886	-35.0809	-0.0618347	0
0.5653	-5.02165	6.20375	-13.3287	31.0237	-0.172422	-1.41585	-0.989734	-2.12045	0.556512	-0.314402
0.5660	-3.79186	3.45345	-6.00746	-3.15822	1.12074	0.419511	0.848343	32.6694	0.556512	0
0.5667	-5.02165	2.54558	-4.17578	-77.3205	0.775899	0.734145	1.76738	24.7385	-2.19513	0.314402
0.5673	-5.3291	1.3173	-13.0234	-111.502	-0.775899	0.734145	0.235651	-39.6544	-4.94677	0
0.5680	-3.79186	-1.4241	-23.7028	-76.1019	-1.37938	0.419511	-1.27252	-87.2605	-4.01925	0
0.5687	-1.94717	-7.22732	-25.5344	-34.2936	-0.431055	0.419511	0.541997	-73.2281	-1.88596	0
0.5693	-0.102483	-10.2713	-21.5712	-15.0599	0.775899	1.04878	2.38007	-38.4383	-0.0618347	0
0.5700	0.819861	-7.52994	-18.8237	-8.34745	1.12074	1.04878	1.76738	-18.9073	-0.0618347	0
0.5707	1.12731	-4.1744	-17.2973	-8.95675	0.172422	-0.786583	-0.377041	-11.8911	-1.28307	0
0.5713	0.819861	-3.25764	-14.8551	-11.4041	-1.03453	-2.30731	-1.27252	-5.47782	-1.57678	0
0.5720	0.512413	-1.72672	-11.8023	-9.87071	-0.172422	-0.786583	0.235651	3.6796	-1.28307	0
0.5727	0.512413	0.712051	2.23508	-7.43349	0.775899	0.734145	1.46104	6.12227	-0.664723	0
0.5733	0.204965	1.93144	28.1729	-6.51954	0.431055	0.419511	1.15469	8.86637	-0.0618347	0
0.5740	-2.25462	1.62882	31.8363	-7.43349	-0.172422	-0.786583	-0.0706953	16.1944	-0.355549	0.314402
0.5747	-3.48441	-0.818859	11.6933	-7.73815	-0.775899	-2.30731	-1.88521	0.935491	-0.973896	0.314402
0.5753	-0.102483	-3.25764	1.62452	-6.51954	-0.172422	-1.73048	-0.989734	-28.9794	-0.0618347	0.314402
0.5760	1.7422	-2.64349	1.9298	-5.30093	0.431055	0.104878	1.15469	-42.0971	0.556512	0.314402
0.5767	0.512413	0.712051	1.9298	-4.37683	0.431055	0.104878	0.235651	-38.7397	-0.355549	-0.314402
0.5773	-0.717378	1.3173	-1.42827	-1.33031	-0.431055	-1.10122	-1.27252	-28.9794	-1.28307	0
0.5780	-1.94717	-0.204715	-4.78634	2.64031	-0.775899	-1.41585	-1.88521	-28.9794	-1.57678	0
0.5787	-1.94717	2.54558	-4.17578	5.68683	-0.172422	-0.786583	-0.989734	-40.2677	-1.57678	0
0.5793	-0.40993	4.68174	-2.64939	9.9621	1.12074	-0.157317	0.541997	-30.1956	-0.973896	0
0.5800	0.204965	1.3173	-2.95467	10.8761	1.12074	0.734145	0.848343	2.45306	0.556512	0
0.5807	-0.40993	-8.44671	-3.56523	5.38217	-0.431055	-0.157317	-0.683388	11.9119	0.556512	0
0.5813	-1.63972	-19.7327	-3.25995	1.42171	-1.03453	-1.73048	-1.57886	-1.20574	-0.0618347	0
0.5820	-1.02483	-19.1275	-2.95467	-2.54892	-0.172422	-0.47195	-0.377041	-2.12045	-0.0618347	0
0.5827	-0.102483	-13.6358	-4.48106	-5.91024	0.431055	0.734145	0.541997	2.45306	0.556512	0
0.5833	0.512413	-13.3243	-5.09162	-0.111706	0.431055	0.104878	0.541997	-1.81901	1.46857	0
0.5840	0.819861	-13.9384	-5.3969	2.94496	-0.775899	-0.786583	-0.0706953	-3.94985	1.46857	0
0.5847	-0.40993	-13.9384	-6.91785	-4.99628	-1.37938	-1.73048	-1.57886	-2.73371	0.247339	0
0.5853	-0.102483	-19.1275	-5.3969	-10.48	-0.172422	-1.10122	-1.27252	-2.73371	-0.355549	0
0.5860	1.7422	-34.3832	-7.22312	-9.56605	1.12074	1.62561	0.848343	0.0103943	-0.0618347	0
0.5867	1.7422	-30.4135	-13.634	-3.46287	0.431055	1.62561	1.15469	2.7649	-0.0618347	0
0.5873	-0.40993	14.1431	-8.44424	2.33566	-0.775899	-0.47195	-0.377041	7.63984	-0.355549	0
0.5880	-3.48441	48.3216	0.708684	2.33566	-1.37938	-2.30731	-1.57886	23.512	-0.973896	-0.628803
0.5887	-3.17696	40.6848	2.84564	3.24962	-0.775899	-1.41585	-1.27252	31.7547	-0.355549	-1.25761
0.5893	-0.717378	24.5124	7.42483	5.68683	1.12074	1.04878	1.15469	15.2693	1.1594	-0.628803
0.5900	-0.102483	17.8013	11.388	5.68683	1.37938	0.734145	2.07373	-7.61905	1.1594	0.314402
0.5907	-0.717378	12.9148	6.20371	5.68683	-0.172422	-1.73048	-0.377041	-14.022	-0.355549	-0.314402
0.5913	-0.40993	7.72576	-0.817712	6.90543	-0.775899	-2.62194	-2.80425	-6.09108	-1.28307	-0.314402
0.5920	1.43476	7.42314	-1.12299	9.04815	0.431055	-1.10122	-0.989734	3.06633	0.247339	0
0.5927	2.972	8.95405	1.62452	11.4854	1.37938	0.734145	1.15469	6.12227	1.1594	-0.314402
0.5933	2.66455	8.3399	-0.207154	13.0188	0.775899	0.734145	1.15469	4.89574	1.1594	-0.314402
0.5940	1.12731	7.72576	-9.36008	12.704	-0.431055	-0.786583	-0.0706953	3.6796	0.247339	0
0.5947	0.204965	6.20375	-20.0449	10.8761	-1.37938	-1.73048	-1.27252	2.7649	-0.664723	0
0.5953	1.12731	5.5896	-24.9239	10.8761	-0.172422	-0.786583	-0.377041	3.36777	0.247339	0
0.5960	2.3571	5.90113	-23.7028	12.0947	0.775899	0.419511	1.46104	5.20757	1.46857	0
0.5967	1.7422	4.68174	-20.3501	13.6281	-0.172422	0.419511	2.07373	6.12227	1.77775	0
0.5973	0.819861	3.15083	-16.9921	13.9327	-0.775899	-0.47195	0.235651	4.5943	0.850226	0
0.5980	0.204965	1.62882	-4.48106	12.704	-1.03453	-1.73048	-1.88521	2.45306	-0.0618347	0
0.5987	2.04965	1.01467	20.8517	0.802249	-0.431055	-0.47195	-0.377041	3.36777	-0.355549	0
0.5993	4.81668	1.01467	43.1261	-21.4678	-0.172422	2.25487	1.76738	7.95167	-0.355549	0
0.6000	3.89434	1.93144	55.9479	-27.571	-0.172422	2.56951	2.07373	12.2237	-0.973896	0
0.6007	0.204965	4.68174	54.4215	-15.6692	-0.775899	0.104878	0.235651	11.309	-0.973896	0
0.6013	-2.56207	7.12051	41.6052	-6.51954	-1.63801	-1.41585	-1.27252	7.63984	-0.664723	0
0.6020	-1.94717	6.81789	31.2257	-2.54892	-0.775899	-0.47195	-0.377041	10.0825	-0.0618347	0
0.6027	-1.63972	5.90113	14.4408	-0.111706	1.12074	1.04878	1.15469	15.2693	0.247339	0
0.6033	-2.56207	5.5896	-9.36008	0.192946	1.12074	1.04878	2.07373	16.7973	0.556512	0
0.6040	-3.17696	4.98436	-21.5712	-1.02566	-0.775899	-0.47195	-0.0706953	15.5811	-0.355549	0
0.6047	-2.86951	5.28698	-24.9239	-1.63496	-1.37938	-1.73048	-1.57886	14.0532	-0.973896	0
0.6053	-0.102483	2.84821	-26.7555	-0.721008	0.431055	-0.157317	0.235651	15.2693	-0.355549	-0.314402
0.6060	2.66455	-2.34087	-24.9239	-0.416357	1.12074	1.04878	1.76738	18.6267	0.556512	-0.314402
0.6067	3.27944	-0.507337	-20.0449	-1.33031	0.431055	0.734145	0.848343	12.5252	0.247339	-0.314402
0.6073	2.972	8.64252	-18.2132	-1.93961	-0.172422	-0.47195	-0.683388	3.06633	-0.973896	-0.314402
0.6080	2.3571	12.3096	-19.129	-1.63496	-1.03453	-1.41585	-1.88521	6.4237	-1.57678	0
0.6087	1.43476	10.1734	-21.5712	-0.111706	-0.775899	-0.47195	-0.683388	9.16781	-0.355549	0
0.6093	1.12731	4.06759	-23.3975	1.1069	0.431055	0.734145	1.46104	1.23693	0.247339	0.314402
0.6100	1.43476	-6.31056	-8.74952	1.42171	0.775899	0.734145	1.15469	-7.61905	-0.355549	0
0.6107	0.512413	-14.8552	10.4722	2.03101	-0.431055	-0.786583	-0.377041	-23.4808	-0.664723	0
0.6113	-1.63972	-16.3772	13.2197	2.64031	-1.03453	-1.73048	-1.27252	-43.6251	-0.664723	-0.314402
0.6120	-1.94717	-8.74933	13.2197	2.33566	-0.172422	-0.47195	-0.377041	-49.4251	0.247339	0
0.6127	0.204965	-1.12148	14.4408	0.192946	1.12074	0.734145	1.15469	-33.8544	0.850226	0.314402
0.6133	2.3571	-0.204715	11.9986	-1.33031	0.775899	0.104878	0.541997	3.06633	0.247339	-0.628803
0.6140	2.3571	-1.12148	11.0827	1.1069	-0.431055	-1.10122	-0.683388	44.2695	0.247339	-0.943205
0.6147	2.04965	-2.03825	15.0514	2.33566	-1.03453	-1.73048	-1.27252	49.1445	1.1594	-0.314402
0.6153	2.04965	-5.39379	18.4094	-4.37683	-0.431055	0.104878	-0.0706953	19.8532	1.77775	0.314402
0.6160	0.512413	-9.05195	10.4722	-16.2785	0.172422	1.04878	0.848343	-0.592478	1.77775	0
0.6167	-1.94717	-8.13519	-7.5284	-24.8291	0.172422	-0.47195	0.541997	-3.03515	0.556512	-0.314402
0.6173	-2.56207	-6.61318	-23.3975	-22.3817	-0.172422	-1.99268	-0.683388	-1.20574	-1.88596	-0.314402
0.6180	-2.56207	-5.39379	-31.0295	-13.8413	-0.775899	-1.99268	-1.88521	4.89574	-2.79802	0
0.6187	-1.94717	-2.03825	-31.0295	-6.21489	-0.431055	-1.41585	-0.683388	14.9679	-2.79802	-0.314402
0.6193	-0.102483	3.45345	-25.8397	2.03101	0.431055	-0.157317	0.541997	22.8987	-2.19513	-1.25761
0.6200	1.7422	12.3096	-17.2973	11.1807	1.12074	0.734145	1.46104	27.1708	-0.973896	-0.943205
0.6207	0.512413	17.4987	-12.1076	14.2374	0.172422	-0.47195	0.541997	25.9547	-1.57678	0.314402
0.6213	-1.33227	13.529	-0.512433	12.704	-1.37938	-1.41585	-0.989734	24.7385	-2.5043	0.314402
0.6220	0.819861	15.9678	23.9045	10.8761	-0.431055	0.104878	0.235651	17.4105	-0.973896	0
0.6227	2.04965	23.293	30.6151	14.2374	0.775899	1.04878	1.46104	12.5252	0.850226	0
0.6233	-0.102483	14.4457	5.89843	20.6452	0.431055	0.104878	0.541997	41.515	1.46857	0
0.6240	-2.25462	-7.52994	-13.634	16.3699	-0.172422	-1.10122	-0.683388	62.2725	1.77775	0
0.6247	-1.94717	-20.6495	-11.497	5.68683	-0.431055	-1.99268	-1.57886	41.8268	1.46857	0
0.6253	-1.94717	-17.2939	-3.25995	10.2668	-0.172422	-1.73048	-0.989734	29.0106	2.07146	0
0.6260	-1.94717	-14.8552	6.50899	22.4731	1.12074	-0.47195	1.15469	17.4105	2.99898	-0.314402
0.6267	-1.02483	-23.0883	10.1669	25.5298	1.37938	-0.47195	1.46104	-27.4515	2.68981	0
0.6273	0.512413	-27.3695	-0.207154	24.301	-0.172422	-1.99268	-0.683388	-64.3722	1.46857	0
0.6280	3.27944	-18.2107	-10.5812	24.6057	-0.775899	-2.93658	-1.88521	-64.0707	0.850226	0
0.6287	6.04647	-4.47702	-13.634	24.9205	0.431055	-1.73048	0.235651	-51.5559	1.77775	0.314402
0.6293	4.81668	5.28698	-16.9921	26.7484	1.37938	-0.786583	1.15469	-37.5236	2.07146	0
0.6300	1.12731	2.54558	-16.9921	30.0996	1.12074	-0.47195	0.235651	-7.00579	0.850226	0
0.6307	-2.86951	-11.1881	-11.497	31.9376	0.172422	-1.99268	-0.989734	31.4533	0.556512	0
0.6313	-5.02165	-16.3772	-9.66536	31.0237	-0.775899	-2.93658	-1.27252	29.0106	0.850226	0
0.6320	-3.79186	-6.31056	-13.0234	29.7949	0.431055	-0.47195	0.235651	-6.69396	1.46857	0
0.6327	-1.33227	1.93144	-9.66536	16.3699	0.431055	2.88414	1.46104	-10.6646	0.850226	0
0.6333	1.12731	0.712051	8.95122	-30.9323	-0.775899	4.40487	2.07373	10.3943	-1.88596	0
0.6340	-0.40993	-3.56026	23.2939	-79.7577	-1.37938	2.88414	0.541997	14.3546	-4.32843	-0.314402
0.6347	-4.0993	-1.72672	14.7461	-75.1778	-1.37938	-0.157317	-1.27252	12.2237	-3.72554	0
0.6353	-3.17696	5.5896	2.84564	-39.4727	-0.431055	-0.47195	-0.683388	23.2106	-1.28307	0
0.6360	0.819861	10.4761	-2.03883	-19.0306	0.172422	0.419511	0.235651	47.3151	0.247339	-0.314402
0.6367	1.12731	15.6651	3.76148	-13.8413	0.431055	0.734145	0.541997	69.902	0.247339	-0.314402
0.6373	-1.94717	21.4594	21.1569	-12.0134	-0.431055	-0.47195	-0.377041	77.5314	-0.664723	-0.314402
0.6380	-4.0993	22.0736	23.2939	-10.48	-1.03453	-1.41585	-1.88521	77.5314	-0.664723	0
0.6387	-3.48441	14.7484	8.64594	-8.95675	0.431055	-0.47195	-0.683388	75.3902	-0.355549	-0.314402
0.6393	-1.63972	-1.12148	3.15092	-8.34745	0.775899	0.419511	0.541997	81.502	0.247339	-0.314402
0.6400	0.204965	-16.6798	3.76148	-8.6521	0.172422	0.104878	0.235651	121.479	0.247339	0
0.6407	1.43476	-25.2333	2.84564	-6.51954	-0.172422	-0.786583	-0.377041	124.223	-0.0618347	0
0.6413	-0.40993	-29.8083	4.37203	-8.95675	-0.775899	-1.73048	-0.989734	-17.6808	-0.973896	-0.314402
0.6420	-2.86951	-27.6721	10.4722	-14.7553	-0.431055	0.104878	0.235651	-178.211	-1.28307	-0.314402
0.6427	-3.48441	-22.1804	22.0728	-11.7088	0.431055	1.62561	1.76738	-190.715	-0.664723	0
0.6433	-2.25462	-18.5133	30.0046	-5.30093	0.775899	1.04878	1.46104	-126.634	0.247339	-0.314402
0.6440	-2.25462	-15.4604	20.2411	-6.82419	-0.431055	-0.786583	-1.27252	-79.6311	-0.664723	-0.314402
0.6447	-4.0993	-13.9384	2.54036	-9.87071	-1.37938	-1.73048	-1.88521	-53.9986	-1.88596	-0.314402
0.6453	-3.48441	-12.1049	-6.91785	-9.2614	-0.172422	0.419511	0.235651	-39.6544	-1.28307	-0.314402
0.6460	-0.102483	-9.05195	-8.13896	-6.51954	1.12074	1.62561	1.46104	-26.2249	0.247339	-0.314402
0.6467	1.12731	-12.1049	-6.61257	-1.93961	1.12074	1.04878	1.15469	-13.1073	0.850226	0
0.6473	-0.102483	-17.2939	-9.36008	-0.416357	0.172422	-0.786583	-0.377041	-2.12045	-0.0618347	0
0.6480	-0.102483	1.93144	-13.3287	-3.76752	-1.37938	-1.99268	-1.88521	12.5252	-1.28307	-0.314402
0.6487	1.7422	36.7241	-12.1076	-5.91024	-0.431055	-0.786583	-0.377041	10.0825	-0.973896	-0.628803
0.6493	2.3571	43.4351	-8.13896	-5.30093	1.37938	0.734145	1.15469	-30.8088	0.247339	-0.628803
0.6500	2.04965	26.96	-6.31274	-5.60559	1.37938	0.734145	1.15469	-70.7855	0.850226	0
0.6507	-0.40993	16.2793	-7.22312	-5.60559	-0.775899	-0.786583	-0.377041	-64.684	-0.664723	-0.314402
0.6513	-2.86951	15.3625	-6.00746	2.33566	-1.63801	-1.41585	-2.4979	-32.3368	-1.57678	-1.57201
0.6520	0.819861	19.3233	-4.17578	12.704	0.431055	0.104878	-0.989734	-16.7661	1.46857	-0.943205
0.6527	5.43158	19.6348	-13.0234	12.0947	1.72422	1.04878	1.76738	-18.5955	2.68981	0.314402
0.6533	3.27944	6.81789	-25.2291	5.99148	1.12074	0.104878	1.46104	-19.2087	1.1594	0
0.6540	-1.63972	-9.6661	-27.3661	3.55427	-0.172422	-1.41585	-0.0706953	-22.2647	0.556512	0
0.6547	-3.48441	-14.5436	-24.3133	2.94496	-1.03453	-1.99268	-0.989734	-26.2249	-0.0618347	0
0.6553	-1.94717	-7.52994	-18.8237	3.24962	0.172422	-0.47195	0.541997	-23.1794	0.556512	-0.314402
0.6560	-0.40993	0.0979071	-6.61257	3.55427	1.37938	0.419511	2.07373	-15.2485	1.1594	-0.314402
0.6567	-0.102483	-0.507337	-6.61257	3.85892	0.775899	-0.157317	1.15469	-2.12045	0.247339	0
0.6573	-0.102483	-7.22732	-5.09162	3.85892	-0.431055	-1.10122	-0.377041	9.78108	-0.355549	0
0.6580	-0.102483	-9.96872	17.7989	2.94496	-0.775899	-1.73048	-1.27252	8.86637	-0.355549	0
0.6587	-0.40993	-9.05195	8.03539	2.64031	0.431055	-0.47195	-0.377041	6.12227	-0.0618347	0
0.6593	-1.33227	-8.13519	-38.3562	3.55427	1.12074	0.419511	1.15469	15.8826	1.1594	0
0.6600	-0.40993	-2.95501	-63.0729	4.46822	0.775899	0.734145	1.15469	21.0693	0.850226	-0.314402
0.6607	-0.102483	3.45345	-65.5151	3.55427	0.172422	-0.157317	-0.989734	6.12227	-0.0618347	-0.314402
0.6613	-1.33227	5.28698	-66.4309	3.55427	-1.03453	-1.41585	-1.57886	-7.00579	0.247339	0
0.6620	-0.40993	6.50637	-64.9045	8.13419	-0.172422	-0.47195	-0.0706953	9.78108	1.1594	0
0.6627	1.7422	4.06759	-31.0295	16.3699	0.775899	0.734145	1.15469	39.6856	1.1594	-0.314402
0.6633	1.7422	-2.64349	47.4001	21.2545	0.431055	0.104878	1.15469	52.5018	0.556512	-0.314402
0.6640	1.43476	-5.99903	94.702	17.8932	-1.03453	-1.41585	-0.377041	48.2298	-0.664723	-0.314402
0.6647	1.7422	-2.64349	67.543	16.0653	-1.03453	-1.99268	-1.88521	43.9577	-0.973896	-0.314402
0.6653	3.27944	3.45345	35.4996	21.8638	-0.172422	-1.10122	-1.27252	56.4725	-0.0618347	-0.314402
0.6660	4.20179	6.81789	49.2317	25.8344	0.775899	0.104878	0.235651	46.4003	0.247339	-0.314402
0.6667	3.58689	5.28698	72.1222	24.6057	1.12074	0.419511	0.848343	0.623661	0.247339	-0.314402
0.6673	3.27944	3.15083	61.7427	26.7484	-0.775899	-0.786583	0.541997	-8.22193	0.247339	0.314402
0.6680	4.50924	0.712051	42.2103	26.7484	-1.63801	-1.73048	-0.377041	-17.6808	-0.664723	0
0.6687	6.04647	-2.64349	37.9418	-0.416357	-0.172422	-0.47195	0.541997	-52.1692	-1.88596	-0.314402
0.6693	6.86634	-5.99903	30.9204	-26.0477	0.431055	0.734145	1.76738	-27.7529	-1.57678	0
0.6700	5.12413	-13.0216	16.5778	-30.9323	0.775899	0.419511	1.46104	27.7841	-0.973896	0
0.6707	1.7422	-18.816	7.11955	-46.8046	-0.431055	-0.786583	-0.683388	35.7254	-1.28307	-0.314402
0.6713	0.819861	-15.7719	4.06676	-40.3968	-1.03453	-1.10122	-2.19155	5.509	-0.355549	0
0.6720	2.66455	-8.74933	4.37203	1.42171	0.431055	0.104878	-0.989734	-13.1073	1.77775	-0.314402
0.6727	-1.02483	-2.03825	1.9298	32.2423	1.12074	0.734145	0.235651	6.4237	2.99898	-0.314402
0.6733	-6.25144	4.98436	-7.22312	42.9254	0.431055	0.419511	0.541997	37.8562	2.68981	0
0.6740	-6.55889	8.03728	-21.266	46.8859	-0.431055	-0.786583	-0.683388	35.1121	1.77775	0
0.6747	-5.02165	5.28698	-34.3875	51.1611	-1.37938	-1.73048	-1.88521	11.9119	0.850226	-0.314402
0.6753	-3.17696	8.95405	-41.7088	56.655	-0.431055	-0.786583	-0.0706953	8.25311	1.46857	0
0.6760	-1.63972	14.4457	-42.9299	59.3969	0.775899	0.734145	2.07373	8.56494	2.38063	0
0.6767	-2.56207	3.76497	-38.0509	56.655	0.431055	0.419511	1.46104	-34.4676	1.46857	0
0.6773	-4.40675	-13.3243	-39.8771	49.6379	-0.431055	-1.10122	-0.377041	-95.2018	-0.355549	-0.314402
0.6780	-4.7142	-20.0442	-36.2192	47.4952	-1.03453	-2.93658	-1.88521	-98.2473	-0.664723	0
0.6787	-2.86951	-22.1804	13.525	13.0188	-0.431055	-2.30731	-1.27252	-65.2973	-0.0618347	-0.943205
0.6793	-0.717378	-24.6192	63.5744	-81.9005	0.775899	0.104878	-0.0706953	-49.1133	-1.28307	-1.57201
0.6800	0.819861	-26.1412	58.6899	-134.382	0.775899	0.734145	0.848343	-32.9397	-2.5043	-0.314402
0.6807	-0.40993	-25.5359	43.7367	-111.807	-0.775899	-1.41585	-0.377041	-19.2087	-2.79802	0.314402
0.6813	-2.25462	-21.5663	36.7207	-94.4115	-1.37938	-1.73048	-1.57886	-20.1234	-3.10719	-0.314402
0.6820	-1.94717	-20.0442	18.4094	-74.8732	0.172422	-0.47195	-0.377041	-24.0941	-1.88596	-0.314402
0.6827	-1.33227	-6.9158	4.98259	-33.9788	1.12074	-0.47195	0.848343	-22.5661	-0.0618347	0
0.6833	-1.02483	30.3156	1.9298	-1.33031	1.12074	-0.786583	0.541997	-9.74989	0.850226	0
0.6840	-1.02483	50.7604	-4.17578	13.0188	0.431055	-1.41585	-0.989734	4.5943	0.850226	-0.314402
0.6847	-0.717378	29.7014	-8.13896	18.8071	-0.431055	-2.30731	-1.88521	6.12227	0.247339	0
0.6853	0.204965	2.54558	-0.512433	22.1685	-0.172422	-0.786583	-0.683388	4.29286	0.247339	0
0.6860	1.12731	-4.47702	3.4562	25.5298	1.12074	1.04878	1.15469	14.0532	0.556512	0
0.6867	0.819861	4.68174	-2.64939	29.4903	0.431055	0.104878	1.15469	41.2136	0.850226	0
0.6873	-1.63972	12.007	-9.66536	25.2251	-0.775899	-1.41585	-0.377041	64.7152	-0.355549	-0.314402
0.6880	-3.48441	7.12051	-13.634	11.1807	-1.37938	-1.41585	-1.27252	43.9577	-1.88596	0
0.6887	-1.63972	2.54558	-12.4129	9.04815	0.172422	0.104878	0.235651	-7.61905	-0.664723	0
0.6893	0.512413	5.90113	-7.22312	8.7435	1.12074	0.734145	1.46104	-22.5661	1.46857	0
0.6900	1.43476	5.5896	-3.56523	-35.8169	0.775899	0.419511	0.848343	-10.0513	-0.0618347	0
0.6907	1.43476	-9.05195	-6.00746	-102.038	-0.775899	0.104878	-0.377041	-17.0779	-3.41636	0
0.6913	0.204965	-18.816	-1.73355	-111.502	-1.63801	0.104878	-0.989734	-25.3102	-4.32843	0
0.6920	-0.40993	6.20375	17.1883	-68.1607	-0.172422	1.04878	0.235651	-17.3793	-2.19513	0
0.6927	-0.40993	34.5879	22.0728	-33.0648	1.12074	1.94024	1.46104	-6.39252	-0.0618347	-0.314402
0.6933	-0.717378	31.535	9.56178	-19.3352	0.431055	1.04878	1.76738	0.623661	0.850226	0
0.6940	-1.94717	16.8845	3.15092	-14.7553	-0.775899	-0.47195	0.235651	2.15163	0.247339	0
0.6947	-3.17696	5.5896	3.15092	-12.3181	-1.37938	-1.41585	-0.989734	-0.904308	-0.664723	0
0.6953	-1.02483	2.23406	4.06676	-9.56605	-0.172422	-0.157317	0.235651	-4.86455	0.247339	0
0.6960	1.43476	4.68174	4.98259	-7.73815	0.775899	1.04878	1.76738	-7.61905	0.850226	-0.314402
0.6967	1.43476	5.5896	4.98259	-7.43349	0.172422	0.734145	1.46104	-7.30722	0.247339	0
0.6973	0.204965	4.37022	3.4562	-7.12884	-0.431055	-0.47195	-0.0706953	-5.77925	-0.973896	-0.314402
0.6980	-0.40993	4.37022	3.15092	-5.91024	-0.431055	-1.73048	-1.57886	-3.64841	-1.28307	-0.314402
0.6987	0.819861	5.5896	4.37203	-3.76752	0.431055	-0.786583	-0.683388	0.0103943	-0.664723	-0.314402
0.6993	1.43476	6.50637	1.9298	-2.85357	1.37938	0.104878	1.46104	0.935491	0.556512	0
0.7000	2.04965	4.68174	-3.25995	-1.63496	1.12074	0.104878	1.15469	6.12227	0.850226	0
0.7007	1.43476	0.712051	-7.83368	-0.416357	-0.431055	-1.41585	-1.27252	26.5679	-0.355549	0
0.7013	-1.33227	-1.12148	-8.74952	0.497597	-1.03453	-1.99268	-2.19155	43.3548	-0.973896	0
0.7020	-2.56207	-0.204715	-5.70218	1.72636	0.172422	-0.47195	-0.377041	34.8003	0.247339	0
0.7027	-1.63972	-0.204715	-6.31274	5.99148	1.12074	0.734145	0.848343	10.9972	1.1594	0
0.7033	0.204965	0.712051	-11.1918	9.65745	0.775899	0.419511	0.848343	-4.26168	1.1594	0
0.7040	0.204965	0.40943	-13.9393	9.04815	-0.172422	-1.10122	-0.0706953	-3.03515	0.556512	0
0.7047	-0.717378	-0.507337	-12.7182	9.65745	-0.775899	-1.41585	-0.683388	6.12227	-0.664723	0
0.7053	0.204965	0.40943	-9.0548	14.8467	0.775899	-0.157317	0.235651	21.0693	-0.0618347	0
0.7060	1.43476	2.23406	-6.00746	20.0359	1.37938	0.419511	2.07373	38.4695	1.46857	0
0.7067	1.12731	1.62882	-6.31274	20.9499	0.431055	0.104878	1.76738	50.371	1.1594	0
0.7073	0.512413	-2.34087	-5.70218	22.7778	-0.775899	-1.10122	-0.0706953	58.6137	0.247339	0.314402
0.7080	-0.102483	-6.9158	-3.8705	24.6057	-1.63801	-2.62194	-1.88521	66.5446	-0.973896	0
0.7087	0.204965	-7.22732	-1.73355	19.7313	-0.775899	-1.41585	-1.57886	76.0034	-0.973896	-1.57201
0.7093	0.512413	-2.03825	0.0981255	12.0947	1.37938	0.734145	0.235651	94.9211	0.850226	-1.25761
0.7100	-1.33227	1.01467	-1.12299	15.7606	1.72422	0.734145	0.848343	95.8358	1.77775	0
0.7107	-3.79186	-2.03825	-4.78634	19.122	-0.172422	-1.73048	-0.989734	21.6826	0.247339	0.314402
0.7113	-3.17696	-4.77964	-6.91785	-8.95675	-0.431055	-2.30731	-1.27252	-84.215	-1.28307	0
0.7120	-0.40993	-1.4241	-7.5284	-40.7014	0.775899	0.104878	0.541997	-117.477	-1.28307	0
0.7127	1.43476	5.90113	-10.5812	-33.3695	1.12074	1.04878	1.76738	-85.1297	-0.355549	-0.314402
0.7133	1.12731	9.86191	-15.7709	-12.3181	0.431055	0.734145	1.76738	-49.7265	0.247339	-0.314402
0.7140	-0.40993	1.93144	-19.4343	-5.60559	-0.775899	0.104878	-0.377041	-31.4221	0.247339	-0.314402
0.7147	-1.02483	-8.44671	-21.266	-4.37683	-1.37938	-0.47195	-1.57886	-23.1794	0.247339	0
0.7153	0.204965	-9.05195	-20.3501	1.1069	-0.172422	0.104878	0.235651	-16.7661	0.850226	-0.314402
0.7160	0.819861	-4.1744	-21.5712	13.3234	0.431055	0.734145	1.46104	-10.3632	1.77775	-0.314402
0.7167	1.12731	-0.507337	-16.6868	23.6917	0.431055	0.104878	1.15469	-11.2779	1.46857	0
0.7173	1.43476	0.0979071	2.84564	27.967	-0.431055	-1.73048	-0.683388	-16.4646	-0.664723	0
0.7180	0.819861	-0.818859	16.5778	29.4903	-1.03453	-2.30731	-1.57886	-7.92049	-0.973896	-0.314402
0.7187	0.819861	-0.204715	18.7147	25.5298	0.431055	-0.786583	-0.377041	10.6958	0.556512	0
0.7193	1.7422	0.0979071	18.4094	16.6746	1.37938	0.104878	0.848343	16.7973	0.850226	0
0.7200	2.04965	-0.818859	14.1355	10.8761	0.775899	-0.47195	1.15469	16.7973	0.556512	0
0.7207	1.12731	-3.86288	6.81427	6.29613	-0.172422	-1.99268	-0.683388	21.3812	0.247339	0
0.7213	0.819861	-7.22732	1.31924	4.46822	-0.775899	-2.30731	-1.57886	23.512	0.556512	0
0.7220	3.27944	-9.05195	1.31924	7.22024	0.172422	-0.786583	0.235651	29.9253	2.68981	0.314402
0.7227	4.50924	-5.39379	3.76148	-2.85357	0.775899	0.734145	1.15469	38.7709	3.2927	0.314402
0.7233	2.972	2.84821	2.54036	-33.6741	-0.172422	1.94024	0.848343	22.8987	-0.355549	0
0.7240	2.04965	4.37022	1.01396	-54.4311	-1.37938	1.62561	-0.377041	-12.494	-3.72554	-0.314402
0.7247	2.66455	-2.95501	9.86161	-41.3107	-1.37938	0.734145	-1.27252	-34.7795	-3.41636	0
0.7253	4.20179	-7.52994	22.6833	-17.5073	-0.172422	0.734145	-0.0706953	-41.4838	-0.973896	0
0.7260	6.04647	-3.56026	26.3412	-5.30093	0.431055	1.04878	1.15469	-36.6089	0.556512	0
0.7267	5.73903	2.23406	28.7835	0.497597	0.431055	0.734145	0.541997	-22.2647	0.556512	0
0.7273	2.66455	7.72576	26.3412	5.68683	-0.775899	-1.10122	-0.989734	-9.44846	-0.664723	-0.314402
0.7280	-0.40993	12.3096	12.9144	9.9621	-1.37938	-1.73048	-1.57886	-1.20574	-1.57678	0
0.7287	-1.63972	12.3096	-0.207154	13.3234	0.172422	-0.157317	-0.0706953	5.509	-1.28307	-0.314402
0.7293	-3.17696	5.90113	-11.1918	16.9792	1.12074	0.104878	0.848343	16.7973	-0.355549	-0.314402
0.7300	-3.79186	-0.818859	-21.266	16.6746	0.775899	0.104878	0.541997	29.9253	0.247339	0
0.7307	-3.48441	-3.56026	-32.2506	7.52489	0.172422	-0.47195	-0.989734	36.6401	-0.664723	-0.314402
0.7313	-4.0993	-6.9158	-42.9299	-1.93961	-0.431055	-1.73048	-2.19155	40.6003	-1.28307	-0.314402
0.7320	-3.17696	-9.05195	-37.135	-0.721008	0.172422	-1.10122	-0.377041	46.0989	-0.355549	0
0.7327	-0.102483	-5.09117	-24.008	3.55427	1.37938	0.419511	1.46104	48.843	0.247339	0
0.7333	1.7422	-2.34087	-29.5031	4.77287	1.37938	0.104878	1.46104	48.843	0.556512	0
0.7340	0.819861	-7.83257	-44.7616	4.77287	-0.172422	-1.73048	0.235651	30.84	0.556512	0
0.7347	-0.102483	-10.2713	-46.5932	5.07752	-0.431055	-1.99268	-0.989734	-22.5661	-0.0618347	0
0.7353	1.12731	-2.64349	-38.3562	6.29613	0.431055	-0.47195	-0.0706953	-73.2281	-0.355549	-0.314402
0.7360	2.3571	2.84821	-16.6868	7.82954	1.37938	0.419511	1.15469	-73.8414	0.247339	-0.314402
0.7367	3.27944	2.84821	19.3253	9.65745	1.12074	0.104878	0.848343	-44.8412	0.850226	0
0.7373	0.512413	2.84821	39.4682	9.04815	-0.172422	-1.10122	-0.377041	-13.1073	0.850226	0
0.7380	-4.0993	-1.12148	37.9418	5.07752	-1.03453	-1.10122	-1.27252	7.63984	-0.973896	0
0.7387	-5.02165	-0.818859	38.5524	4.16357	-1.03453	0.104878	-0.683388	3.06633	-1.28307	-0.943205
0.7393	-3.17696	8.95405	44.3473	3.55427	0.172422	0.734145	1.15469	0.0103943	0.247339	-1.57201
0.7400	-2.86951	3.76497	37.9418	-3.76752	1.12074	1.04878	2.07373	14.3546	0.850226	-0.314402
0.7407	-5.02165	-16.0746	19.9358	-8.34745	-0.775899	-0.786583	-0.0706953	15.5811	-0.0618347	0.314402
0.7413	-5.63654	-18.5133	9.56178	-4.68148	-1.63801	-1.73048	-2.19155	0.0103943	-0.355549	-0.314402
0.7420	-3.79186	-6.31056	8.03539	-0.416357	0.172422	0.104878	-0.377041	-8.22193	0.556512	-0.314402
0.7427	-2.56207	2.54558	4.98259	1.42171	0.775899	1.04878	1.46104	-1.20574	0.850226	-0.314402
0.7433	-3.17696	5.90113	0.0981255	1.1069	-0.172422	0.104878	0.848343	5.20757	0.556512	0
0.7440	-3.79186	2.84821	-2.34411	-0.111706	-0.431055	-0.786583	-0.377041	-11.5793	-0.355549	0
0.7447	-3.79186	-1.12148	-5.09162	-0.111706	-0.775899	-1.41585	-1.57886	-41.4838	-0.973896	-0.314402
0.7453	-3.17696	0.712051	-8.74952	1.1069	0.431055	-0.157317	-0.683388	-52.4706	-0.0618347	-0.314402
0.7460	-1.33227	5.5896	-7.5284	2.33566	1.37938	0.734145	0.848343	-37.5236	0.850226	0
0.7467	-0.717378	11.3928	-1.12299	2.33566	0.775899	0.419511	0.541997	-22.2647	0.247339	0
0.7473	-1.63972	14.1431	4.37203	1.42171	-0.775899	-1.10122	-1.27252	0.0103943	-0.664723	0
0.7480	-2.56207	4.06759	4.67731	0.802249	-1.37938	-1.99268	-2.19155	46.4003	-0.664723	0
0.7487	-1.33227	-13.3243	1.31924	1.42171	-0.431055	-0.47195	-0.377041	67.7607	-0.0618347	0
0.7493	-0.102483	-20.6495	-4.17578	2.03101	0.775899	0.734145	0.848343	23.8238	0.850226	0
0.7500	0.512413	-10.8855	-6.91785	1.72636	1.12074	0.419511	0.541997	-32.9397	0.556512	-0.314402
0.7507	0.512413	3.76497	-5.09162	1.1069	-0.775899	-1.41585	-0.683388	-53.0839	-0.355549	-0.314402
0.7513	2.04965	12.9148	-2.03883	1.42171	-1.03453	-1.99268	-1.27252	-54.6119	-0.355549	0
0.7520	5.43158	14.4457	-4.78634	2.64031	0.775899	-0.47195	0.541997	-50.6412	0.556512	0.314402
0.7527	6.25144	14.4457	-13.9393	2.64031	1.37938	0.734145	2.07373	-39.9663	1.1594	0.314402
0.7533	5.73903	12.6122	-23.3975	1.72636	0.775899	-0.157317	0.848343	-18.9073	0.850226	0
0.7540	6.04647	3.15083	-32.2506	0.802249	-0.431055	-1.73048	-0.683388	35.1121	0.247339	0
0.7547	4.81668	-4.77964	-38.3562	0.192946	-1.03453	-2.30731	-0.989734	99.1932	-0.0618347	0
0.7553	3.27944	-5.39379	-40.4877	1.1069	0.172422	-0.786583	0.541997	104.993	0.247339	0
0.7560	2.3571	-8.44671	-24.9239	1.42171	1.12074	0.734145	1.46104	53.7284	0.556512	0
0.7567	-1.63972	-13.6358	6.20371	-0.416357	-0.172422	-0.47195	0.848343	4.89574	0.247339	0
0.7573	-6.86634	-16.6798	15.9672	-1.02566	-1.37938	-1.99268	0.235651	-27.4515	-0.664723	0
0.7580	-5.94399	-20.0442	0.403405	1.72636	-1.37938	-1.99268	-0.989734	-41.7957	-0.664723	0
0.7587	-0.102483	-18.2107	1.9298	5.07752	0.172422	-0.157317	-0.0706953	-27.7529	0.556512	0
0.7593	3.27944	-12.4075	23.5992	3.55427	0.431055	1.36341	1.76738	-6.69396	0.850226	0
0.7600	2.3571	-10.2713	29.394	-0.111706	-0.775899	1.62561	1.46104	0.0103943	-0.0618347	0
0.7607	-0.102483	-7.52994	18.7147	-1.02566	-1.98285	0.734145	-0.0706953	-1.50718	-0.0618347	0
0.7613	-2.56207	-2.34087	10.1669	-0.416357	-1.63801	0.104878	-0.377041	1.53836	-0.355549	0
0.7620	-2.86951	0.712051	7.11955	0.497597	-0.431055	0.734145	1.15469	8.86637	-0.0618347	0
0.7627	-2.56207	-0.204715	6.81427	0.802249	0.431055	1.04878	1.76738	20.4665	0.556512	0
0.7633	-1.94717	-0.507337	5.89843	0.802249	0.431055	0.419511	1.46104	37.8562	0.850226	-0.314402
0.7640	-2.25462	0.40943	0.403405	0.192946	-0.431055	-1.41585	-0.377041	50.6724	-0.664723	-0.314402
0.7647	-1.94717	-2.34087	-6.00746	-0.111706	-0.775899	-1.41585	-1.88521	51.899	-1.28307	-0.314402
0.7653	0.819861	-5.09117	-6.31274	0.802249	0.172422	0.104878	-0.683388	48.5416	-0.0618347	-0.314402
0.7660	2.972	-3.86288	-3.25995	1.42171	0.775899	1.04878	0.848343	49.4563	0.247339	0
0.7667	2.04965	-3.25764	-2.95467	0.802249	0.431055	0.104878	1.15469	25.6532	0.247339	-0.314402
0.7673	0.512413	-0.204715	-1.42827	-0.111706	-0.775899	-1.10122	-0.683388	-33.2515	-0.0618347	0
0.7680	0.512413	5.90113	2.84564	-0.111706	-0.775899	-1.41585	-1.88521	-59.4972	-0.355549	0
0.7687	1.12731	4.98436	11.6933	0.192946	-0.172422	-0.786583	-0.683388	-57.9693	-0.664723	-0.943205
0.7693	2.3571	-0.507337	24.8203	1.42171	0.775899	0.734145	0.848343	-68.3428	0.556512	-1.25761
0.7700	5.43158	-2.64349	23.9045	1.72636	1.72422	1.36341	0.848343	-52.4706	0.850226	-0.314402
0.7707	6.55889	-6.61318	2.23508	0.192946	0.172422	-0.786583	-0.683388	-11.2779	-0.973896	0
0.7713	4.81668	-8.74933	-16.3815	-0.416357	-1.03453	-1.41585	-0.989734	21.984	-1.28307	0
0.7720	2.972	-6.61318	-20.0449	0.497597	0.172422	0.419511	0.235651	34.1974	-0.355549	0
0.7727	1.7422	-5.99903	-11.8023	1.1069	0.775899	1.36341	1.76738	23.8238	0.247339	0
0.7733	-0.102483	-2.64349	-0.512433	0.802249	0.431055	0.734145	1.46104	1.23693	0.556512	0
0.7740	-3.48441	2.84821	11.0827	-0.111706	-0.431055	-1.10122	-0.377041	-14.9367	-0.664723	0
0.7747	-5.94399	5.90113	24.515	-1.02566	-1.37938	-1.99268	-1.27252	-15.2485	-0.973896	0
0.7753	-6.55889	6.20375	27.8676	0.192946	-0.172422	-0.47195	-0.0706953	-6.69396	0.247339	0
0.7760	-6.55889	4.37022	19.02	0.802249	1.12074	0.419511	1.15469	-3.94985	1.1594	0
0.7767	-5.02165	3.45345	7.73011	0.192946	0.775899	-0.157317	1.15469	-8.53376	0.850226	0
0.7773	-3.79186	7.12051	-3.8705	-0.416357	-0.431055	-1.10122	-0.683388	-13.7205	-0.0618347	-0.314402
0.7780	-4.40675	3.15083	-9.97064	-1.02566	-1.03453	-1.73048	-1.88521	-21.9529	-0.664723	0
0.7787	-4.7142	-10.8855	-7.5284	-1.02566	-0.172422	-0.786583	-0.377041	-21.6514	-0.0618347	0
0.7793	-4.0993	-14.8552	-4.48106	-0.416357	0.431055	0.419511	1.15469	-11.5793	0.556512	0
0.7800	-4.0993	-7.22732	-3.8705	0.497597	0.172422	0.419511	0.848343	-3.64841	0.556512	-0.314402
0.7807	-5.3291	-3.86288	-5.70218	0.192946	-0.775899	-1.10122	-1.27252	0.935491	-0.355549	0
0.7813	-3.79186	-1.4241	-6.31274	-0.416357	-1.03453	-1.41585	-1.57886	0.322225	-0.0618347	0
0.7820	-0.102483	2.84821	-4.17578	0.497597	0.172422	0.419511	0.848343	-5.77925	0.850226	0
0.7827	1.43476	4.98436	-2.34411	1.42171	1.12074	1.36341	1.76738	-10.6646	0.850226	0
0.7833	1.12731	6.50637	-2.03883	0.802249	0.172422	0.734145	0.848343	-7.61905	0.556512	0
0.7840	-0.40993	3.76497	-2.34411	-0.416357	-0.775899	-1.10122	-0.683388	1.23693	-0.0618347	0
0.7847	-0.717378	-0.818859	-1.73355	-1.02566	-1.03453	-1.99268	-2.19155	3.06633	-0.973896	0
0.7853	0.204965	1.01467	0.403405	-0.416357	0.172422	-0.157317	-0.683388	-0.904308	-0.355549	0
0.7860	1.12731	4.68174	0.403405	0.497597	1.37938	1.04878	1.15469	3.6796	1.1594	0
0.7867	0.512413	5.5896	-2.03883	0.192946	0.431055	0.419511	1.15469	8.86637	0.850226	0
0.7873	-0.40993	6.20375	-4.17578	-2.85357	-1.03453	-1.41585	-0.683388	3.06633	-0.355549	0
0.7880	-1.02483	6.20375	-5.09162	-3.76752	-1.03453	-1.99268	-1.88521	-3.94985	-0.355549	0.314402
0.7887	0.512413	6.20375	-3.56523	-1.33031	-0.172422	-0.157317	-0.377041	-4.26168	-0.0618347	0
0.7893	2.3571	5.90113	-1.42827	-0.111706	0.775899	0.734145	1.15469	-0.904308	0.556512	0
0.7900	2.04965	3.45345	-0.817712	-0.111706	0.775899	0.419511	1.15469	2.7649	0.556512	0
0.7907	-0.102483	-0.818859	-2.34411	-0.721008	-0.172422	-0.47195	-0.377041	4.29286	-0.355549	-0.314402
0.7913	-1.02483	-4.47702	-2.03883	-1.33031	-1.37938	-1.73048	-0.989734	5.20757	-0.664723	0
0.7920	0.512413	-2.95501	1.9298	-1.02566	-0.172422	-0.157317	0.848343	6.72514	0.247339	0
0.7927	1.7422	-0.507337	4.06676	-0.111706	1.37938	1.62561	2.38007	4.5943	0.850226	0
0.7933	2.04965	1.01467	3.15092	-0.111706	1.12074	0.419511	2.07373	1.85019	0.850226	0
0.7940	1.12731	4.37022	1.01396	-0.721008	-0.775899	-1.41585	0.235651	1.85019	-0.355549	0
0.7947	-0.102483	8.03728	-0.512433	-1.63496	-1.37938	-1.10122	-0.683388	3.06633	-0.973896	-0.314402
0.7953	-0.102483	7.42314	1.01396	-0.721008	-0.172422	0.104878	0.541997	3.36777	-0.355549	-0.314402
0.7960	-0.102483	3.76497	2.54036	0.497597	0.775899	0.734145	1.46104	3.36777	0.556512	-0.314402
0.7967	-1.02483	0.40943	1.9298	0.497597	0.431055	0.419511	1.15469	8.25311	-0.0618347	-0.628803
0.7973	-1.94717	-1.12148	0.403405	-0.111706	-0.431055	-0.786583	-0.0706953	8.25311	-0.664723	0
0.7980	-2.56207	-1.12148	-2.03883	-0.721008	-1.03453	-1.73048	-1.27252	2.45306	-0.973896	0
0.7987	-0.717378	0.40943	-2.03883	0.192946	0.172422	-0.157317	-0.683388	6.12227	-0.355549	-1.25761
0.7993	2.3571	4.06759	4.67731	2.64031	1.98285	1.62561	1.46104	18.9385	1.1594	-0.943205
0.8000	2.3571	5.90113	7.73011	2.33566	1.12074	1.04878	1.76738	36.3282	1.1594	0.314402
0.8007	-0.102483	4.68174	-2.34411	0.802249	-1.03453	-1.10122	-0.683388	53.4165	-0.355549	0
0.8013	-0.717378	4.98436	-9.66536	0.497597	-1.03453	-1.73048	-1.57886	52.5018	-0.973896	-0.314402
0.8020	0.204965	4.68174	-9.0548	0.802249	0.172422	-0.47195	0.541997	32.368	-0.0618347	-0.314402
0.8027	0.819861	-1.12148	-6.61257	1.42171	0.775899	0.734145	1.15469	39.6856	0.556512	0
0.8033	1.7422	-4.77964	-4.78634	1.72636	0.431055	0.419511	0.235651	73.2593	0.247339	-0.314402
0.8040	0.512413	-4.1744	-5.09162	-1.93961	-0.431055	-1.41585	-0.683388	24.4267	-0.973896	0
0.8047	-0.717378	-4.77964	-4.78634	-6.51954	-0.775899	-1.73048	-1.57886	-78.1135	-0.973896	0
0.8053	0.512413	-8.13519	-2.34411	-5.30093	0.172422	-0.157317	-0.377041	-93.0606	-0.0618347	0
0.8060	2.3571	-9.05195	-0.207154	-1.63496	1.37938	1.04878	1.46104	-49.1133	0.556512	0
0.8067	2.3571	-6.61318	-0.207154	-1.02566	1.37938	0.104878	1.15469	-26.5368	0.556512	0
0.8073	1.7422	-4.77964	-1.73355	-1.93961	-0.172422	-1.73048	-0.683388	-18.9073	-0.664723	0
0.8080	1.12731	-2.64349	-2.64939	-1.33031	-0.775899	-2.30731	-1.57886	-13.7205	-0.973896	-0.314402
0.8087	1.12731	1.01467	-0.817712	-0.721008	1.12074	0.104878	0.235651	-8.22193	0.247339	-0.314402
0.8093	1.7422	1.62882	1.31924	-0.721008	1.72422	1.36341	1.76738	-4.26168	0.850226	0
0.8100	0.819861	0.0979071	1.01396	-1.02566	0.431055	0.104878	1.15469	-3.64841	0.247339	0.314402
0.8107	-0.717378	-1.72672	-0.512433	-1.63496	-0.775899	-1.41585	-0.989734	-3.94985	-0.0618347	0
0.8113	-1.33227	-2.34087	0.0981255	-1.02566	-1.37938	-1.99268	-1.57886	-2.73371	-0.0618347	-0.314402
0.8120	0.512413	-1.12148	3.4562	0.192946	0.431055	-0.47195	0.235651	0.322225	0.247339	0
0.8127	2.3571	-0.507337	4.67731	0.192946	1.12074	0.104878	1.15469	2.15163	0.850226	0
0.8133	1.7422	1.01467	3.15092	-0.416357	0.431055	-0.47195	0.848343	0.935491	0.247339	0
0.8140	0.819861	1.01467	0.403405	-1.63496	-0.431055	-1.41585	-0.377041	-1.50718	-0.664723	0
0.8147	0.512413	1.3173	-2.95467	-3.15822	-0.775899	-1.73048	-2.19155	-3.94985	-0.664723	-0.314402
0.8153	1.12731	4.98436	-4.78634	-2.54892	0.431055	0.104878	-0.683388	-2.73371	-0.0618347	-0.314402
0.8160	1.43476	8.03728	-3.56523	-1.63496	1.37938	1.04878	1.46104	-2.12045	0.556512	0
0.8167	1.7422	7.72576	-6.61257	-1.93961	1.12074	-0.157317	0.848343	-3.94985	0.556512	0
0.8173	2.04965	5.28698	-18.5185	-2.85357	-0.775899	-1.99268	-0.989734	-3.33658	-0.355549	-0.314402
0.8180	2.3571	3.76497	-27.9767	-2.54892	-1.37938	-1.99268	-1.27252	6.72514	-0.664723	-0.314402
0.8187	2.972	0.712051	-27.3661	-2.24427	0.431055	0.104878	0.541997	14.6664	0.247339	0
0.8193	3.27944	-5.69641	-22.4816	-4.99628	0.775899	1.36341	1.46104	2.15163	0.247339	0
0.8200	0.819861	-8.74933	-16.9921	-4.37683	-0.431055	1.36341	1.46104	-15.5499	-0.355549	0
0.8207	-1.63972	-3.86288	-14.2445	2.33566	-1.37938	-0.157317	-0.377041	-18.5955	-0.664723	0
0.8213	-2.86951	1.3173	-21.5712	4.46822	-1.37938	-1.41585	-1.57886	-18.9073	-0.0618347	-0.314402
0.8220	-2.86951	1.62882	-17.9079	2.64031	0.172422	-0.786583	-0.377041	-21.35	0.556512	-0.628803
0.8227	-1.33227	1.62882	23.2939	1.72636	1.12074	0.419511	1.46104	-17.9926	1.1594	-0.314402
0.8233	0.204965	3.15083	45.5684	0.802249	0.775899	0.104878	1.46104	-5.17638	0.850226	0
0.8240	-0.717378	2.84821	14.4408	-1.02566	-0.775899	-1.73048	0.235651	23.8238	-0.0618347	0
0.8247	-1.94717	-1.12148	-13.3287	-0.111706	-1.03453	-2.30731	-0.683388	44.2695	-0.0618347	0
0.8253	-1.63972	-4.47702	-17.6026	1.72636	0.431055	-0.157317	0.541997	34.8003	0.850226	0
0.8260	-1.33227	-5.09117	-10.5812	2.64031	0.775899	0.734145	1.76738	31.4533	1.1594	0
0.8267	-1.33227	-5.39379	17.1883	1.42171	0.431055	-0.157317	0.848343	40.9121	0.556512	-0.314402
0.8273	-1.94717	-6.61318	44.6525	-0.111706	-0.431055	-1.41585	-0.683388	45.7871	-0.664723	-0.314402
0.8280	-1.94717	-5.99903	44.042	-0.111706	-1.03453	-1.10122	-1.57886	47.0136	-1.57678	0
0.8287	-1.63972	0.40943	32.1415	-0.111706	-0.431055	0.734145	-0.377041	40.9121	-1.28307	-0.943205
0.8293	-1.63972	6.20375	24.515	1.1069	0.775899	2.56951	1.15469	30.2267	-0.664723	-1.25761
0.8300	-1.94717	4.68174	17.1883	1.42171	0.431055	2.25487	1.46104	28.0959	-0.355549	-0.314402
0.8307	-3.48441	-0.818859	6.20371	-1.63496	-1.63801	0.104878	-0.377041	32.0562	-0.973896	0
0.8313	-2.56207	-2.03825	-2.34411	-5.60559	-1.03453	-0.786583	-2.19155	5.509	-0.973896	-0.314402
0.8320	0.204965	-0.204715	-3.25995	-4.68148	1.12074	0.104878	-0.377041	-56.4413	-0.0618347	0
0.8327	1.43476	-0.507337	-1.73355	1.72636	0.775899	0.419511	1.15469	-85.4311	0.247339	0
0.8333	2.04965	-2.03825	-5.3969	6.60078	0.172422	0.104878	0.848343	-61.0148	-0.355549	0
0.8340	1.7422	-5.09117	-15.7709	11.1807	-0.775899	-0.786583	-0.989734	-33.8544	-0.664723	0
0.8347	1.12731	-6.61318	-25.2291	16.9792	-0.775899	-1.41585	-1.57886	-16.4646	-0.0618347	-0.314402
0.8353	2.04965	-5.09117	-28.8925	19.4266	0.172422	0.104878	-0.683388	-5.17638	0.850226	-0.314402
0.8360	2.66455	-2.34087	-24.008	18.5025	0.775899	1.36341	0.235651	-2.73371	0.850226	0
0.8367	1.12731	0.40943	-16.9921	15.7606	0.775899	0.104878	0.235651	-1.20574	0.247339	-0.314402
0.8373	-1.94717	1.93144	-20.9607	11.4854	0.172422	-1.73048	-0.989734	0.0103943	-0.355549	0
0.8380	-2.56207	2.23406	-31.64	8.7435	-0.431055	-1.99268	-1.57886	0.623661	-0.355549	0
0.8387	-0.102483	2.23406	-22.4816	10.2668	0.172422	-0.157317	-0.377041	0.322225	0.556512	0
0.8393	1.43476	1.01467	24.2097	-6.21489	0.775899	0.734145	1.15469	-7.30722	0.247339	0
0.8400	2.04965	-0.818859	64.7955	-40.3968	0.172422	0.104878	1.15469	-18.5955	-0.664723	0
0.8407	0.819861	-0.507337	56.2531	-41.3107	-0.431055	-1.10122	-0.683388	-20.1234	-0.973896	0.314402
0.8413	-1.33227	1.3173	34.8891	-16.5933	-0.775899	-1.10122	-1.27252	-13.1073	-0.0618347	0.314402
0.8420	-1.63972	2.23406	27.8676	-6.51954	0.431055	0.419511	0.541997	-1.50718	0.850226	0
0.8427	-0.102483	0.712051	20.2411	-4.99628	1.37938	1.04878	1.76738	16.4958	1.1594	-0.314402
0.8433	1.12731	-0.204715	10.4722	-3.76752	1.12074	0.104878	0.541997	48.843	0.556512	0
0.8440	1.7422	-0.204715	3.76148	-4.68148	-0.431055	-1.10122	-0.989734	87.6035	-0.0618347	0
0.8447	2.3571	1.3173	-7.83368	-4.68148	-0.775899	-1.10122	-0.989734	94.3183	-0.0618347	-0.314402
0.8453	4.20179	4.68174	-27.3661	-3.76752	0.775899	0.419511	0.541997	69.902	0.247339	-0.314402
0.8460	6.04647	8.3399	-44.7616	-2.85357	1.37938	1.04878	1.76738	52.8137	0.850226	0
0.8467	6.86634	12.3096	-54.2252	-2.54892	0.775899	0.104878	0.848343	52.8137	0.556512	0
0.8473	5.73903	7.12051	-56.662	-3.15822	-0.775899	-1.73048	-1.88521	92.7903	-0.664723	-0.314402
0.8480	5.12413	-2.03825	-45.3721	-3.15822	-0.775899	-1.41585	-2.19155	131.852	-0.973896	0
0.8487	5.43158	-0.507337	-27.9767	-2.24427	0.431055	0.104878	-0.0706953	55.8592	-0.0618347	0.314402
0.8493	2.3571	6.50637	-17.6026	-1.63496	1.12074	0.734145	1.15469	-72.6149	0.556512	0
0.8500	-1.94717	6.20375	18.4094	-1.93961	0.775899	0.419511	0.541997	-103.133	0.556512	-0.314402
0.8507	-5.3291	-2.03825	78.8329	-2.54892	-0.775899	-1.41585	-1.27252	-57.0546	-0.355549	0
0.8513	-7.17378	-3.86288	87.686	-2.54892	-0.775899	-1.73048	-1.88521	-7.30722	-0.664723	0
0.8520	-6.55889	0.712051	47.7053	-1.33031	0.431055	0.419511	0.235651	50.0592	-0.0618347	-0.314402
0.8527	-4.7142	-2.64349	24.2097	-0.721008	0.775899	1.04878	1.76738	86.9903	0.556512	0
0.8533	-5.02165	-7.83257	16.5778	-1.33031	0.431055	-0.157317	0.848343	26.2561	0.247339	0
0.8540	-4.7142	-7.83257	7.73011	-1.63496	-0.431055	-1.41585	-1.57886	-79.3296	-0.664723	-0.314402
0.8547	-2.56207	-5.39379	4.37203	-1.33031	-0.431055	-1.99268	-1.57886	-109.847	-0.664723	-0.314402
0.8553	0.204965	1.62882	1.62452	-0.721008	0.172422	-0.47195	0.848343	-76.887	0.556512	0
0.8560	2.66455	10.1734	-2.95467	-0.416357	0.431055	0.419511	1.46104	-36.297	0.850226	-0.314402
0.8567	2.972	8.64252	-11.1918	-0.416357	0.431055	-0.47195	0.541997	-8.53376	0.556512	-0.314402
0.8573	2.3571	-3.56026	-26.7555	-1.02566	-0.431055	-1.41585	-0.683388	-20.1234	-0.355549	0.314402
0.8580	2.04965	-12.719	-38.9613	-1.33031	-1.37938	-1.41585	-1.57886	-46.3692	-1.28307	-0.314402
0.8587	2.972	-10.5829	-33.1664	-0.111706	-0.172422	-0.157317	-0.377041	-52.4706	-0.0618347	-1.57201
0.8593	2.66455	-4.1744	-20.3501	1.42171	1.37938	1.04878	1.15469	-51.8678	1.46857	-0.943205
0.8600	0.819861	-4.1744	-16.9921	0.497597	0.431055	0.419511	0.848343	-54.3104	0.850226	0.628803
0.8607	1.12731	-8.44671	-10.2759	-1.63496	-0.775899	-1.41585	-1.27252	-64.9854	-0.973896	0
0.8613	3.27944	-8.13519	1.9298	-1.63496	-0.775899	-1.41585	-0.989734	-61.3266	-0.973896	-0.314402
0.8620	2.3571	-2.64349	-14.5498	-0.416357	0.431055	0.104878	0.848343	-38.7397	0.556512	0.314402
0.8627	-0.717378	1.01467	-25.8397	-0.111706	1.12074	0.734145	1.15469	-15.2485	0.247339	0
0.8633	-0.40993	-3.25764	19.9358	-1.02566	0.431055	0.104878	0.541997	29.6135	-0.355549	0
0.8640	0.204965	-10.2713	46.4842	-1.63496	-1.03453	-1.10122	-0.683388	90.0462	-0.355549	0.314402
