MR32 ASCII
Name	CORE15_fast
Frequency	1500
Date	05-09-2015 11:55:38
"Time,s"	"RT TIB.ANT.,uV"	"RT MED. GASTRO,uV"	"RT LAT. GASTRO,uV"	"RT BICEPS FEM.,uV"	"RT VMO,uV"	"RT VLO,uV"	"RT RECTUS FEM.,uV"	"RT SOLEUS,uV"	"RT SEMITEND.,uV"	"Channel 12,uV"
0.0000	-159.225	-17.4813	-20.3826	-5.15056	23.1063	2.31236	-47.3998	-75.4234	2.13325	-6485.43
0.0007	-215.064	-20.2114	-24.0361	-3.02166	21.6049	0.493304	-35.8031	-76.9319	5.5038	-10501.5
0.0013	-230.344	-22.3711	-26.1753	-2.10601	20.9824	0.184989	-23.2849	-71.1374	7.93571	-9764.68
0.0020	-151.922	-23.5528	-27.4011	-2.70118	18.8585	-2.2507	-17.7978	-65.343	9.17299	-9669.49
0.0027	-71.0399	-22.9824	-27.0887	-2.40359	16.698	-6.53627	-17.1835	-59.8598	10.6663	-9909.86
0.0033	-74.3736	-22.9824	-27.4011	-1.19035	16.698	-10.2052	-16.5692	-53.7541	13.7382	-9791.28
0.0040	-84.1366	-22.6564	-28.002	1.25903	17.0276	-11.4076	-12.9084	-48.247	16.4687	-9808.58
0.0047	-71.9527	-21.7599	-28.002	1.55661	16.698	-8.97196	-5.27956	-42.7639	17.1087	-9814.99
0.0053	-55.165	-18.989	-26.4878	-0.572284	17.3206	-4.4089	5.09694	-35.1258	15.5728	-9816.6
0.0060	20.8357	-12.5914	-20.3826	-2.40359	18.8585	-1.35658	12.4186	-28.1102	14.0368	-9791.6
0.0067	134.976	-4.64537	-12.1382	-3.02166	17.6135	-2.55901	13.6389	-22.3157	13.1408	-9837.11
0.0073	152.676	2.36343	-5.11968	-2.70118	17.3206	-4.68638	13.946	-16.21	14.3355	-9880.05
0.0080	61.3959	7.86453	1.58638	-0.869872	18.8585	-6.22796	13.3317	-11.0142	16.1701	-9529.12
0.0087	4.32589	12.4284	8.91738	0.961438	18.8585	-7.7387	9.36375	-6.75219	18.9433	-10285.8
0.0093	83.9779	18.5407	18.9885	1.25903	19.1515	-6.53627	4.48265	-1.55636	21.3752	-9507.64
0.0100	279.913	25.8755	29.973	0.343371	19.4444	-4.10059	3.56952	2.10707	21.9725	-3326.36
0.0107	402.586	34.392	41.2699	-0.869872	18.8585	-3.48396	6.61606	4.23808	21.3752	109.928
0.0113	314.401	40.5044	48.2885	-1.19035	18.236	-4.68638	7.23034	4.83667	21.3752	-49.9964
0.0120	130.372	35.9405	44.0101	-1.48794	17.6135	-5.61133	6.61606	2.39439	22.2712	-144.861
0.0127	-17.6211	24.9383	33.9389	-1.48794	16.698	-6.22796	3.56952	-0.335215	23.5085	95.5059
0.0133	-112.83	13.9769	22.0411	-2.10601	14.8671	-8.35533	-11.9952	-6.12965	22.9112	-24.0367
0.0140	-163.789	2.07819	8.91738	-1.48794	13.9517	-10.2052	-28.4731	-15.8988	23.5085	-6.0893
0.0147	-152.517	-8.31277	-1.15373	-1.48794	13.0362	-9.28027	-32.1339	-25.3566	24.7031	0.961469
0.0153	-103.98	-15.3216	-7.25889	-3.61684	11.5348	-8.97196	-32.7482	-35.7483	23.2098	-0.32049
0.0160	-105.806	-17.7665	-8.17227	-5.15056	11.2053	-8.97196	-28.7803	-44.8949	21.9725	-0.32049
0.0167	-146.723	-16.2588	-2.98047	-3.61684	12.7432	-7.46122	-11.0821	-47.9597	23.8071	-0.640979
0.0173	-153.113	-14.7103	0.985479	-3.31925	11.5348	-8.04702	3.56952	-50.402	23.8071	-0.32049
0.0180	-121.998	-10.4317	5.55233	-3.61684	9.99685	-8.35533	7.53749	-51.5992	23.2098	-0.32049
0.0187	-74.0958	-4.03414	12.8833	-2.70118	10.6194	-6.22796	17.914	-45.2062	25.6417	-0.32049
0.0193	-23.4154	-0.977973	14.4216	-3.31925	8.78844	-6.84459	29.2036	-40.3216	25.3431	-0.32049
0.0200	-20.0817	-0.36674	13.1958	-3.31925	7.25047	-7.1529	35.305	-40.0103	25.0444	0
0.0207	-88.4228	0.244493	14.4216	-1.78553	8.45888	-4.10059	45.9886	-37.568	28.0736	-0.32049
0.0213	-162.598	-1.30396	11.97	-1.78553	7.54341	-4.10059	55.452	-37.2568	29.0123	-0.32049
0.0220	-169.623	-4.64537	7.69154	-2.10601	4.79703	-4.68638	60.3331	-37.8793	28.3723	-0.32049
0.0227	-107.036	-5.86784	6.77817	-2.40359	3.88156	-2.86733	65.5214	-34.5272	30.5055	0
0.0233	1.90498	-7.0903	4.95143	-2.40359	2.05064	-3.17564	68.5679	-34.5272	30.8469	-0.32049
0.0240	142.596	-7.70154	4.03806	-1.48794	0.549278	-3.17564	76.1967	-35.437	32.0415	-0.32049
0.0247	273.801	-6.80506	7.40311	0.961438	1.13517	-1.63407	82.3064	-32.3961	36.6066	-0.32049
0.0253	344.603	-9.20924	5.8648	1.55661	-1.28165	-4.9947	68.2691	-33.9046	37.8439	-0.32049
0.0260	339.126	-13.2026	1.58638	0.961438	-4.02804	-6.84459	51.7829	-36.9694	36.6066	0
0.0267	278.683	-13.4879	1.29795	0.640958	-3.44214	-2.55901	47.8149	-34.8145	38.1426	0
0.0273	195.379	-13.4879	0.67301	-1.78553	-4.9435	-1.35658	38.667	-34.8145	37.2466	0
0.0280	98.9399	-12.8766	0.384577	-3.31925	-7.10399	0.184989	29.8096	-33.9046	37.2466	0
0.0287	0.0793741	-9.82048	2.81222	-2.10601	-8.3124	1.69573	32.5573	-24.758	41.2145	0
0.0293	-60.6418	-12.2654	-0.841263	-1.78553	-12.8897	-2.86733	31.0382	-19.8735	42.4091	0
0.0300	-89.0578	-19.6002	-9.99901	-2.40359	-18.3825	-6.22796	24.0154	-23.5369	41.8118	0
0.0307	-130.848	-24.7753	-14.8783	-2.40359	-20.5064	-4.10059	24.9285	-24.4468	41.5131	-0.32049
0.0313	-173.869	-27.2202	-17.0175	-3.02166	-22.9598	-3.79227	27.6762	-24.1355	41.2145	0.32049
0.0320	-202.563	-27.2202	-15.5033	-3.61684	-25.7062	-3.79227	27.6762	-21.6932	42.1104	0
0.0327	-223.002	-22.0451	-8.77317	-3.61684	-26.6217	-0.739955	30.1168	-12.5466	42.4091	-0.32049
0.0333	-224.232	-17.7665	-3.60541	-5.44815	-26.9146	0.801618	31.9513	-7.06346	39.3799	0.32049
0.0340	-191.57	-15.0363	0.0721082	-8.51559	-26.6217	2.00405	31.337	-6.12965	35.1134	0.32049
0.0347	-81.3982	-8.63876	8.91738	-10.0264	-25.9991	2.62068	31.9513	-0.335215	33.5774	-1.60245
0.0353	68.4205	-0.977973	17.7627	-8.51559	-27.5371	1.69573	36.5253	7.59023	34.4734	-0.961469
0.0360	145.652	4.19713	23.2669	-6.06621	-27.8301	3.2373	42.9338	14.9171	36.6066	0.640979
0.0367	124.578	7.2533	26.9204	-5.15056	-25.9991	6.90625	45.9886	21.0228	36.308	0.32049
0.0373	33.9324	6.31608	24.4928	-6.68428	-26.3287	6.28962	42.635	22.2439	32.3401	0
0.0380	-74.3736	2.07819	18.676	-7.27946	-27.8301	4.16225	37.1396	20.7115	30.2069	0.32049
0.0387	-160.772	-2.81167	13.1958	-6.68428	-28.1596	3.2373	35.305	17.958	29.9082	0.32049
0.0393	-185.458	-8.02753	6.77817	-7.59994	-28.1596	1.38742	32.8644	14.0072	27.1777	0.32049
0.0400	-171.448	-10.7577	4.03806	-7.27946	-26.3287	0.801618	32.8644	10.3438	25.9404	0.32049
0.0407	-198.277	-11.6542	5.55233	-5.15056	-22.9598	2.31236	37.1396	5.77049	27.1777	0.32049
0.0413	-214.786	-15.6476	1.58638	-5.15056	-22.6669	0.184989	34.0847	-3.99864	25.6417	0
0.0420	-170.535	-20.8227	-3.29294	-4.85297	-22.6669	-2.2507	26.4559	-11.6368	23.2098	0.32049
0.0427	-120.172	-22.3711	-4.51878	-3.61684	-21.4218	-2.55901	23.1022	-14.3903	21.3752	0.640979
0.0433	-80.4854	-23.2676	-6.03305	-3.61684	-20.8359	-3.48396	19.7403	-17.7425	18.3033	0.32049
0.0440	-45.7195	-22.6564	-4.20631	-2.40359	-19.5909	-2.55901	18.8271	-17.7425	17.706	0
0.0447	-23.4154	-20.2114	-0.55283	-0.274696	-17.76	-0.431641	17.2997	-15.3002	18.3033	0.32049
0.0453	8.01679	-19.315	-1.75463	-0.572284	-18.0895	-2.2507	8.14348	-17.1199	16.1701	0.32049
0.0460	30.2812	-18.3777	-3.60541	-0.869872	-18.6754	-3.79227	-0.0913132	-18.3411	14.0368	0.32049
0.0467	7.10399	-15.3216	-1.75463	0.0457827	-18.6754	-2.86733	-3.4533	-16.21	12.7995	0.32049
0.0473	-18.2561	-14.7103	-0.841263	0.0457827	-19.298	-2.86733	-9.86182	-15.6114	11.0076	0
0.0480	-10.5964	-15.9328	-0.841263	0.640958	-17.76	-1.04827	-14.4358	-15.8988	11.0076	0
0.0487	4.32589	-17.4813	-1.15373	2.17468	-15.3432	2.62068	-13.8298	-14.3903	11.6049	0
0.0493	1.30967	-18.3777	-3.60541	2.17468	-16.2586	0.184989	-17.4906	-14.9889	9.77031	0.32049
0.0500	-10.0011	-17.1553	-5.43215	1.87709	-16.8445	-1.94238	-22.3717	-14.9889	7.63705	0.32049
0.0507	-26.4713	-15.6476	-5.43215	2.79275	-15.3432	-1.35658	-21.4586	-11.6368	6.39976	0.32049
0.0513	-52.1091	-14.4251	-4.51878	3.7084	-15.0136	-1.63407	-19.9312	-7.97333	5.80245	0
0.0520	-71.6352	-12.8766	-2.0671	4.92165	-15.0136	-1.35658	-19.018	-3.68737	6.10111	0.32049
0.0527	-74.0958	-13.2026	0.0721082	4.30358	-14.0981	0.801618	-18.0966	-1.55636	4.26651	0.32049
0.0533	-61.8722	-15.3216	-1.75463	0.0457827	-13.8052	2.00405	-18.7109	-5.21978	-2.13325	0.32049
0.0540	-44.1717	-16.87	-3.89384	-3.61684	-15.6361	1.38742	-20.8443	-8.8832	-7.93571	0
0.0547	-31.3528	-15.9328	-2.668	-2.70118	-17.467	0.493304	-18.4038	-8.2846	-8.23436	0
0.0553	-29.2097	-15.0363	-1.75463	0.640958	-17.76	-0.739955	-10.775	-6.44092	-6.39976	0.32049
0.0560	-33.1784	-14.0991	-0.55283	4.62406	-17.467	-2.2507	-6.201	-1.55636	-3.96785	0.32049
0.0567	-47.8229	-11.6542	1.89885	8.88185	-17.76	-2.55901	-5.58671	4.83667	-0.298656	0.32049
0.0573	-63.4199	-11.9802	1.29795	9.49992	-19.5909	-2.55901	-2.83901	6.05782	-1.53594	0
0.0580	-59.729	-13.2026	-0.240361	8.58426	-20.8359	-2.2507	0.20753	5.14795	-5.20514	0
0.0587	-47.8229	-12.8766	1.58638	9.79751	-19.5909	-1.94238	1.12896	6.99163	-5.5038	0.32049
0.0593	-38.3774	-13.8139	1.89885	9.79751	-19.005	-2.86733	4.48265	6.68036	-6.10111	0
0.0600	-21.5898	-15.6476	-0.240361	8.28668	-17.76	-1.63407	15.7723	6.05782	-9.17299	0
0.0607	19.0101	-15.3216	0.384577	8.58426	-14.4277	2.00405	26.4559	8.81137	-10.9649	0
0.0613	65.6821	-15.0363	0.384577	7.9662	-13.1827	1.69573	24.6214	8.5001	-12.7995	0
0.0620	88.5816	-15.0363	-1.15373	4.92165	-14.0981	0.801618	19.4414	6.05782	-17.066	0.32049
0.0627	83.065	-14.4251	-0.240361	0.961438	-13.1827	2.92899	20.3545	6.05782	-21.9725	-0.32049
0.0633	63.539	-13.2026	1.89885	-3.02166	-12.2672	4.43973	15.1663	7.27896	-25.9404	-1.28196
0.0640	74.5323	-11.0429	4.35053	-4.2349	-9.52081	8.41699	8.75777	11.5649	-27.4763	-0.961469
0.0647	104.456	-11.0429	4.63896	-4.53249	-5.56601	13.3192	13.3317	15.8269	-29.9082	0.32049
0.0653	97.7096	-12.8766	2.21132	-6.68428	-4.9435	13.905	16.6937	14.9171	-34.1747	0.32049
0.0660	52.8632	-12.2654	1.58638	-6.68428	-5.56601	12.7026	13.0329	13.0973	-35.0707	0
0.0667	8.61209	-10.4317	2.21132	-5.76863	-4.9435	12.7026	8.45062	13.0973	-33.5774	0
0.0673	-17.6211	-11.3689	1.29795	-6.68428	-5.27307	13.0109	5.70292	12.1635	-35.0707	0
0.0680	-37.7821	-11.0429	1.58638	-7.27946	-3.73509	14.8299	5.09694	12.1635	-36.308	-0.32049
0.0687	-55.4825	-8.924	4.03806	-5.76863	0.219711	16.3715	4.1755	13.3847	-34.772	-0.32049
0.0693	-76.2389	-10.1465	2.49975	-5.76863	0.549278	14.2133	1.43611	13.6959	-34.772	0
0.0700	-96.9555	-12.8766	-0.240361	-5.15056	-0.073237	11.4693	-0.398458	14.0072	-34.1747	0
0.0707	-110.687	-13.8139	-0.55283	-3.02166	1.75769	11.4693	1.12896	14.9171	-32.0415	0
0.0713	-132.356	-15.0363	-2.668	-2.10601	2.67315	10.8527	2.34924	14.3185	-31.1455	0
0.0720	-125.371	-15.6476	-4.51878	-1.78553	2.05064	9.34194	3.26237	13.3847	-29.6096	0.32049
0.0727	-30.1225	-15.0363	-3.89384	-0.869872	2.3802	8.10868	4.78979	14.0072	-28.0736	0.32049
0.0733	46.7514	-13.8139	-2.98047	-0.572284	2.67315	6.90625	5.39578	14.0072	-27.4763	0.32049
0.0740	8.01679	-13.4879	-1.75463	-0.572284	4.50408	7.21457	6.9232	13.6959	-27.1777	0.32049
0.0747	-39.6077	-14.4251	-1.75463	-0.274696	6.62795	7.21457	9.97804	12.4748	-26.239	0.32049
0.0753	-39.6077	-16.544	-2.668	0.343371	6.95752	5.98131	9.36375	11.2536	-25.6417	0.32049
0.0760	-36.8693	-16.544	-2.37957	1.55661	7.54341	5.67299	5.39578	10.6551	-24.1058	0
0.0767	-31.9878	-15.0363	-1.4662	1.87709	8.78844	5.98131	3.87666	9.72124	-22.5698	0
0.0773	-6.94524	-14.0991	-2.0671	1.55661	9.37434	5.05636	4.1755	8.5001	-22.8685	0
0.0780	34.5674	-13.4879	-1.4662	2.47227	9.70391	5.36468	5.70292	9.12264	-22.2712	0
0.0787	80.3266	-12.5914	-0.841263	2.79275	9.99685	5.67299	5.70292	10.6551	-20.7352	0.32049
0.0793	137.714	-11.6542	-0.841263	2.47227	9.70391	5.36468	-0.0913132	12.1635	-20.1379	0.32049
0.0800	205.142	-10.7577	-0.55283	3.09034	9.99685	6.59794	-5.27956	14.9171	-18.9006	0.32049
0.0807	236.297	-13.2026	-2.668	2.79275	9.70391	6.90625	-6.201	15.5396	-18.602	0.32049
0.0813	217.644	-17.7665	-6.63396	2.47227	9.37434	5.67299	-8.3344	14.6058	-18.602	0
0.0820	199.031	-21.1487	-9.68654	3.09034	9.37434	5.67299	-9.86182	14.6058	-17.706	0
0.0827	186.212	-23.5528	-13.3641	3.7084	8.16593	4.16225	-10.4678	16.1382	-17.706	-0.32049
0.0833	148.39	-25.7125	-15.7917	4.00599	6.95752	2.31236	-12.3024	18.2692	-17.4074	0
0.0840	98.0271	-24.1641	-15.1908	4.92165	7.25047	2.62068	-11.3892	23.1538	-14.9328	0
0.0847	43.4177	-19.6002	-11.5373	4.92165	8.16593	2.31236	-8.3344	30.7919	-14.0368	0.32049
0.0853	-2.38122	-14.0991	-6.63396	3.7084	9.08139	2.62068	-6.49984	38.4061	-14.9328	0
0.0860	-19.4467	-11.3689	-3.60541	3.09034	9.99685	2.92899	-5.27956	40.561	-15.2741	0
0.0867	-50.601	-10.4317	-2.98047	3.7084	9.70391	1.69573	-4.98072	39.0286	-13.7382	0
0.0873	-112.235	-6.80506	-1.75463	4.92165	10.2898	1.69573	-3.4533	41.1596	-11.9036	0
0.0880	-132.674	-2.20044	-0.240361	5.21923	12.1207	2.92899	0.20753	45.4456	-10.9649	0
0.0887	-92.709	2.97467	1.29795	4.62406	12.7432	2.31236	1.43611	47.8879	-11.3062	0
0.0893	-15.7955	10.9207	6.17727	5.53971	13.6587	2.00405	0.514674	51.5273	-10.6663	0
0.0900	76.3579	16.707	10.7441	6.75295	13.9517	1.69573	0.514674	53.9696	-8.83167	0
0.0907	75.7626	15.4846	10.4557	7.05054	13.6587	-0.123326	-1.31159	49.109	-7.3384	0.32049
0.0913	-13.057	12.1432	8.31648	8.28668	15.1967	-0.431641	-1.61873	42.0695	-4.86382	0.32049
0.0920	-29.8447	12.4284	8.91738	10.7132	17.0276	-0.739955	0.821819	39.3399	-1.53594	0
0.0927	31.829	15.4846	12.2824	11.9493	16.698	-3.48396	0.514674	38.7173	0.597311	0.32049
0.0933	26.63	17.9295	15.335	12.865	17.0276	-4.9947	-0.705602	36.2751	2.43191	0
0.0940	-20.0817	20.6597	18.0751	13.4601	19.774	-4.4089	-0.398458	33.2342	3.07189	0
0.0947	38.814	24.0418	21.1277	13.7806	23.7288	-2.55901	1.73495	30.7919	3.6692	0
0.0953	99.8527	23.1046	21.7286	12.865	26.4752	-1.94238	2.95523	24.3749	3.96785	-0.640979
0.0960	37.6233	14.5881	14.7101	10.4156	28.3061	-4.4089	-1.01275	10.9424	2.13325	-1.28196
0.0967	-37.4646	4.80837	6.77817	10.118	29.5145	-3.48396	-1.61873	2.10707	1.53594	-0.640979
0.0973	-59.4512	-3.42291	0.67301	10.4156	29.5145	-2.2507	2.34924	-3.99864	2.13325	0.32049
0.0980	-73.183	-9.82048	-4.80722	10.4156	28.9286	-4.68638	1.43611	-15.3002	3.07189	0.32049
0.0987	-96.9555	-12.2654	-6.94643	11.9493	29.8441	-4.68638	-0.0913132	-24.4468	6.10111	0
0.0993	-116.799	-13.2026	-7.8598	13.7806	30.7596	-4.4089	1.43611	-30.8637	9.17299	0.32049
0.1000	-127.197	-13.8139	-9.39811	13.4601	31.0525	-5.30301	1.12896	-36.6582	10.069	0
0.1007	-119.855	-12.2654	-9.39811	12.2469	33.1764	-4.68638	-0.0913132	-38.4779	9.17299	-0.32049
0.1013	-93.6218	-11.6542	-10.3115	9.49992	35.0073	-3.17564	0.20753	-39.1004	6.39976	0
0.1020	-74.3736	-12.2654	-12.1382	7.37102	35.0073	-1.63407	1.43611	-38.7892	3.6692	0
0.1027	-71.9527	-11.3689	-11.8257	7.37102	35.9228	-0.123326	2.04209	-34.2159	4.26651	-0.32049
0.1033	-62.785	-9.82048	-11.2248	7.66861	37.4607	-1.04827	0.20753	-29.02	6.10111	0
0.1040	-39.2902	-8.02753	-10.6239	7.9662	38.9987	-1.63407	-0.0913132	-24.1355	7.3384	0.32049
0.1047	-21.5898	-6.19383	-10.6239	8.58426	39.9142	-1.94238	-0.398458	-18.9636	8.87434	0.32049
0.1053	-7.26273	-4.97136	-11.5373	8.28668	40.2071	-4.10059	-2.53187	-16.5213	9.77031	0.32049
0.1060	12.2633	-1.58921	-9.08564	8.88185	42.0381	-4.4089	-1.61873	-11.3255	11.3062	0.32049
0.1067	34.5674	2.07819	-6.03305	10.4156	42.9535	-2.86733	2.34924	-4.62118	13.1408	0.32049
0.1073	56.5144	2.97467	-6.34552	10.118	40.8296	-2.55901	3.87666	-1.86763	12.7995	0
0.1080	49.212	3.30066	-6.94643	9.49992	39.2917	-2.2507	4.48265	1.17325	12.5009	0
0.1087	-1.74623	2.97467	-8.17227	8.58426	38.0833	-2.86733	3.87666	5.14795	12.5009	0
0.1093	-48.7754	3.30066	-9.68654	7.37102	37.4607	-3.48396	2.34924	7.59023	12.2022	0.32049
0.1100	-50.2835	5.4196	-8.17227	7.37102	39.2917	-1.94238	3.87666	11.8762	12.7995	0.32049
0.1107	-23.7329	6.92731	-6.94643	6.75295	42.0381	-0.431641	4.78979	14.9171	12.2022	0
0.1113	-4.20683	6.92731	-8.48473	4.00599	44.4915	1.10993	3.87666	15.8269	8.87434	0
0.1120	-7.26273	7.53854	-7.8598	0.640958	48.4463	2.92899	5.09694	17.958	5.5038	0
0.1127	-17.3036	10.9207	-4.51878	-2.40359	55.477	2.92899	6.01007	19.4904	3.07189	0
0.1133	-13.9699	17.033	1.58638	-1.19035	66.7555	5.36468	8.75777	23.1538	4.26651	0
0.1140	-7.26273	21.8821	7.09064	1.25903	76.8256	8.72531	13.6389	27.1285	7.3384	0
0.1147	3.13528	22.4934	6.4657	0.0457827	79.9016	8.41699	13.946	27.1285	6.39976	0.32049
0.1153	19.9229	20.3744	1.89885	-1.48794	78.9861	6.28962	10.8912	24.6862	4.90649	0.32049
0.1160	31.5115	18.5407	-1.75463	-0.869872	78.0707	4.74805	7.84463	22.5552	5.5038	0
0.1167	23.5741	16.707	-4.20631	-0.572284	77.1552	4.16225	6.01007	20.7115	6.69842	0
0.1173	-5.11963	16.707	-3.89384	0.343371	75.9102	4.74805	5.70292	19.4904	8.53302	0
0.1180	-24.6457	18.5407	-1.15373	1.55661	76.5327	5.98131	7.53749	18.8918	10.6663	-0.32049
0.1187	-15.2001	18.5407	-1.15373	0.343371	76.5327	5.67299	8.45062	17.3594	10.069	0
0.1193	7.3818	18.2555	-2.37957	-1.78553	74.0792	5.05636	5.70292	15.8269	7.93571	0
0.1200	29.0509	18.8667	-2.37957	-3.93732	71.0399	4.74805	2.34924	15.8269	6.39976	0
0.1207	47.3864	20.3744	-1.4662	-4.2349	70.1245	5.67299	2.65638	16.7368	7.03974	0.32049
0.1213	54.0935	23.1046	1.58638	-2.70118	70.4174	7.49205	5.70292	17.0481	9.17299	0
0.1220	46.4736	23.1046	1.89885	-2.40359	68.5865	6.90625	5.70292	16.1382	10.3676	0.32049
0.1227	42.7827	20.6597	-1.75463	-3.61684	64.3021	4.16225	0.821819	12.4748	8.53302	0
0.1233	49.212	18.5407	-5.11968	-4.85297	60.9698	0.801618	-4.36643	6.68036	7.63705	-1.92294
0.1240	52.8632	17.9295	-4.80722	-4.53249	60.0544	0.801618	-4.67358	3.92681	8.53302	-1.92294
0.1247	54.411	18.8667	-2.98047	-3.02166	60.6403	4.74805	1.73495	5.45922	11.0076	0.32049
0.1253	57.4272	18.5407	-2.98047	-2.40359	61.2628	6.59794	6.61606	5.14795	12.2022	0.32049
0.1260	53.776	17.9295	-4.80722	-2.10601	59.4318	5.67299	4.78979	2.10707	11.6049	0
0.1267	42.5049	17.033	-6.34552	-2.70118	53.3166	5.05636	1.43611	-2.1789	11.3062	0.32049
0.1273	31.829	16.0958	-6.34552	-3.02166	46.9083	4.16225	0.514674	-5.53105	11.6049	0
0.1280	30.2812	15.4846	-6.63396	-2.40359	42.6606	2.92899	0.20753	-6.44092	11.6049	0
0.1287	23.5741	16.0958	-5.72059	-0.869872	38.9987	4.43973	2.34924	-5.21978	13.7382	0.32049
0.1293	6.19118	16.0958	-5.11968	-0.572284	34.7143	5.05636	2.95523	-5.84232	15.2741	0
0.1300	-1.74623	14.5881	-7.25889	-0.869872	29.2216	3.2373	-0.0913132	-6.75219	14.0368	0
0.1307	0.396871	14.2621	-8.17227	-0.572284	24.9372	2.92899	-1.31159	-4.30991	13.4395	0
0.1313	4.32589	15.4846	-6.03305	-0.869872	20.3599	3.54562	-1.61873	-0.646486	14.3355	0
0.1320	10.4377	17.6443	-4.20631	-0.572284	17.3206	4.43973	-0.398458	3.32821	14.9754	-0.32049
0.1327	17.4623	20.0484	-1.75463	0.0457827	15.4896	5.36468	0.821819	8.21277	15.8714	0
0.1333	20.2007	21.2709	-1.75463	-0.572284	9.99685	4.16225	-2.53187	8.81137	14.9754	0.32049
0.1340	19.6054	20.6597	-3.29294	-1.48794	0.842226	2.31236	-5.89385	6.68036	14.0368	0
0.1347	22.3438	20.0484	-2.98047	-0.572284	-8.93492	1.38742	-6.80698	8.21277	16.1701	0.32049
0.1353	25.995	20.0484	-2.0671	0.961438	-18.6754	1.10993	-6.80698	11.5649	19.242	0
0.1360	16.867	20.0484	-2.37957	2.79275	-29.0751	1.38742	-5.89385	13.0973	20.7352	0
0.1367	-1.46842	19.4372	-3.29294	3.09034	-40.3536	1.38742	-6.201	11.8762	20.4366	0.32049
0.1373	-14.5652	17.6443	-5.72059	1.25903	-54.7081	0.801618	-7.42127	7.59023	18.3033	0
0.1380	-23.4154	17.033	-6.63396	0.0457827	-69.0259	0.801618	-7.42127	6.05782	17.4074	0.32049
0.1387	-30.7575	18.5407	-4.80722	0.640958	-77.2651	1.38742	-7.72012	6.68036	18.0047	0.32049
0.1393	-32.9006	19.152	-3.29294	0.640958	-82.1719	0.801618	-8.94039	5.14795	17.4074	0
0.1400	-30.44	19.4372	-2.0671	0.343371	-84.5888	0.801618	-7.72012	5.14795	17.4074	0.32049
0.1407	-33.8134	20.3744	-0.55283	-0.869872	-85.2113	3.2373	-5.27956	6.99163	16.1701	0.640979
0.1413	-29.5272	21.2709	0.67301	-3.02166	-87.0422	4.74805	-2.83901	7.9015	12.5009	0
0.1420	13.1761	22.2081	1.58638	-3.93732	-88.5802	5.05636	-0.705602	9.43391	10.6663	0
0.1427	62.6262	21.8821	1.29795	-3.61684	-89.4956	5.05636	-1.01275	10.0325	10.069	0.32049
0.1433	61.7134	20.0484	-0.55283	-4.85297	-92.242	4.43973	-2.23302	8.21277	7.93571	0
0.1440	28.7731	18.5407	-0.55283	-6.68428	-93.4504	7.21457	2.34924	8.21277	5.20514	0
0.1447	3.13528	18.2555	0.67301	-7.89752	-93.1575	11.161	9.36375	10.0325	2.43191	0.32049
0.1453	-10.3186	17.6443	0.0721082	-10.0264	-93.7434	11.7776	10.2852	10.6551	-0.895967	0.32049
0.1460	-20.3595	15.8106	-2.0671	-11.8577	-94.3659	10.2669	7.23034	9.43391	-4.26651	0
0.1467	-34.0912	13.3656	-4.80722	-12.7734	-93.4504	9.65025	6.01007	6.05782	-6.69842	0
0.1473	-41.1158	11.5319	-6.03305	-13.071	-90.0815	10.5444	8.75777	4.23808	-7.63705	0
0.1480	-31.6703	11.8172	-4.51878	-12.1553	-85.2113	12.7026	11.5055	5.45922	-7.3384	0
0.1487	-8.17554	12.1432	-3.60541	-12.4758	-81.2565	12.0859	9.6709	5.14795	-7.63705	0.32049
0.1493	15.0414	12.7544	-2.668	-12.7734	-79.096	9.95857	6.31721	3.92681	-7.93571	0.32049
0.1500	9.84239	13.0396	-2.0671	-11.5601	-77.2651	8.72531	3.87666	3.92681	-8.23436	-0.32049
0.1507	-14.2873	11.8172	-2.668	-10.9421	-74.8482	6.90625	2.34924	3.61553	-7.3384	0
0.1513	-21.9073	12.1432	-1.75463	-11.2397	-70.2709	6.59794	1.12896	3.32821	-6.39976	0.32049
0.1520	-7.26273	13.9769	1.58638	-9.43125	-65.364	8.41699	2.34924	5.77049	-4.86382	0
0.1527	19.6054	13.6509	0.985479	-9.43125	-64.1556	7.21457	1.73495	6.36909	-4.56516	0.32049
0.1533	48.577	10.5947	-2.668	-11.5601	-64.1556	2.92899	-4.36643	2.10707	-6.99707	-1.60245
0.1540	81.2394	10.5947	-3.29294	-12.1553	-62.6177	1.38742	-7.42127	-0.957757	-7.63705	-2.88441
0.1547	105.964	10.9207	-1.4662	-10.6445	-60.2008	4.43973	-2.83901	2.10707	-5.5038	-0.961469
0.1553	98.6621	9.087	-1.75463	-8.51559	-57.1249	6.28962	1.43611	5.14795	-3.37054	0.640979
0.1560	66.5949	6.03083	-4.20631	-7.59994	-55.9165	5.67299	1.12896	3.01694	-3.02922	0
0.1567	30.8765	2.97467	-6.94643	-7.89752	-55.294	4.74805	-0.398458	-0.0478879	-3.96785	0
0.1573	0.0793741	0.855726	-8.17227	-7.89752	-54.0855	4.43973	0.514674	-1.24508	-4.86382	0.32049
0.1580	-16.7083	1.14097	-7.8598	-7.59994	-51.9617	4.74805	0.821819	-1.55636	-5.5038	0.32049
0.1587	-24.9632	2.97467	-5.43215	-6.98187	-48.2998	5.67299	2.04209	0.263383	-4.26651	0.32049
0.1593	-40.5205	4.80837	-2.98047	-6.06621	-45.5534	6.59794	2.95523	1.48452	-3.02922	0
0.1600	-43.8542	5.4196	-3.60541	-6.3638	-44.3084	6.28962	1.73495	0.574654	-5.20514	0
0.1607	-27.7016	4.52312	-4.20631	-7.89752	-42.4775	5.67299	2.04209	0.263383	-8.23436	0
0.1613	-50.601	4.52312	-3.29294	-8.81318	-40.0607	5.98131	3.56952	0.574654	-9.17299	0
0.1620	-112.553	6.31608	-0.841263	-7.59994	-36.9847	6.28962	3.26237	2.10707	-8.53302	0
0.1627	-135.134	9.69823	3.12469	-5.44815	-33.3228	6.28962	2.95523	7.59023	-5.5038	0.32049
0.1633	-110.092	11.5319	4.63896	-4.53249	-31.4919	4.74805	3.26237	11.2536	-3.02922	0.32049
0.1640	-58.5384	9.69823	2.21132	-4.85297	-30.906	1.69573	-0.0913132	9.43391	-3.96785	0.32049
0.1647	-7.85804	8.76101	1.89885	-4.2349	-29.368	0.493304	-3.14615	10.3438	-3.6692	0.32049
0.1653	-15.2001	9.087	3.43716	-3.61684	-26.3287	1.10993	-2.53187	13.3847	-2.43191	0
0.1660	-40.5205	7.53854	2.49975	-2.70118	-24.1682	1.38742	-1.92588	14.0072	-1.8346	0
0.1667	11.668	6.31608	1.58638	-1.78553	-22.3373	2.00405	-1.31159	13.0973	-1.23729	0
0.1673	90.4072	5.70484	0.985479	-2.70118	-21.4218	1.10993	-2.23302	11.8762	-1.8346	0
0.1680	75.7626	4.52312	0.0721082	-3.31925	-21.1289	-1.04827	-4.05929	9.72124	-2.73057	0.32049
0.1687	42.1874	3.91189	0.67301	-1.78553	-20.2134	-1.94238	-4.36643	9.12264	-1.53594	0
0.1693	81.8744	4.52312	1.58638	-1.19035	-18.6754	-2.2507	-5.58671	8.81137	-1.23729	0.32049
0.1700	120.609	3.30066	1.58638	-1.19035	-16.8445	-2.55901	-6.49984	7.59023	-0.895967	0.32049
0.1707	105.647	2.07819	1.58638	0.343371	-15.0136	-1.35658	-5.27956	6.05782	0.298656	0.32049
0.1713	66.2774	0.529735	0.985479	0.640958	-14.0981	-0.739955	-3.75214	3.92681	-0.298656	0
0.1720	36.393	-2.20044	-1.4662	-0.572284	-12.8897	-0.431641	-3.75214	1.17325	-2.13325	0
0.1727	19.6054	-4.97136	-4.20631	-1.48794	-11.9743	-0.739955	-3.75214	-1.86763	-3.6692	0.32049
0.1733	10.7552	-6.47907	-5.43215	-1.78553	-12.5968	-1.94238	-5.27956	-5.53105	-3.96785	0.32049
0.1740	14.1286	-6.80506	-4.80722	-0.274696	-10.7658	-1.63407	-6.201	-6.75219	-2.73057	0
0.1747	22.3438	-7.41629	-3.60541	0.961438	-8.3124	-1.04827	-5.27956	-4.30991	-0.895967	0
0.1753	25.7172	-7.70154	-3.60541	0.640958	-8.3124	-2.2507	-5.58671	-3.08877	0.298656	0.32049
0.1760	25.995	-6.47907	-2.98047	0.961438	-7.39694	-3.17564	-6.49984	-2.7775	0.298656	0.32049
0.1767	27.2253	-5.5826	-2.37957	0.640958	-5.56601	-3.48396	-7.42127	-3.40004	-1.53594	0.32049
0.1773	25.3997	-4.64537	-1.4662	0.0457827	-3.73509	-3.17564	-6.80698	-5.21978	-2.73057	0.32049
0.1780	13.8111	-3.13766	0.985479	0.640958	-0.9887	0.184989	-2.83901	-5.84232	-2.43191	0
0.1787	-1.15093	-4.03414	0.985479	-1.19035	0.842226	2.62068	0.514674	-6.44092	-4.86382	0
0.1793	-6.62774	-5.86784	-1.4662	-4.2349	0.549278	2.00405	-0.398458	-5.84232	-9.47165	-0.32049
0.1800	-18.2561	-6.47907	-2.37957	-4.85297	0.549278	0.493304	-1.31159	-4.62118	-10.9649	0
0.1807	-32.9006	-6.19383	-2.0671	-3.93732	1.75769	-0.431641	-1.61873	-4.62118	-10.3676	0.32049
0.1813	-26.1538	-5.5826	-0.55283	-3.31925	2.9661	0.184989	-1.61873	-2.7775	-9.77031	0.32049
0.1820	-17.6211	-3.42291	1.89885	-1.78553	5.41954	1.69573	1.43611	2.10707	-7.93571	0.32049
0.1827	-17.9386	-3.7489	1.58638	-2.40359	4.50408	0.493304	0.20753	2.70566	-9.77031	0.640979
0.1833	0.67468	-6.19383	-1.15373	-5.44815	2.05064	-1.63407	-5.58671	-1.86763	-13.4395	-1.60245
0.1840	47.0689	-5.2566	-1.15373	-5.44815	3.88156	-1.63407	-6.201	-3.99864	-13.0982	-2.24343
0.1847	95.884	-3.42291	0.384577	-3.93732	6.335	-0.431641	-2.83901	-3.08877	-11.6049	0
0.1853	116.64	-4.64537	0.384577	-2.70118	7.25047	0.801618	0.20753	-2.46623	-10.069	0.32049
0.1860	101.678	-5.86784	-0.240361	-1.19035	7.87298	-0.431641	-0.0913132	-3.99864	-8.53302	0
0.1867	72.1114	-7.41629	-2.37957	-1.48794	7.25047	-2.55901	-4.67358	-7.66206	-9.17299	0.32049
0.1873	44.9258	-9.20924	-3.60541	-2.10601	7.25047	-2.55901	-5.89385	-9.79307	-9.17299	0
0.1880	23.5741	-8.924	-2.98047	-1.19035	7.25047	-2.55901	-4.67358	-7.97333	-7.93571	0.640979
0.1887	10.7552	-7.70154	-2.37957	-0.869872	7.54341	-2.86733	-4.36643	-3.68737	-6.99707	0.32049
0.1893	-9.68365	-7.70154	-2.668	-1.19035	8.45888	-4.10059	-6.201	-3.40004	-6.99707	-2.88441
0.1900	-34.7262	-6.47907	-1.75463	0.0457827	10.2898	-4.10059	-7.42127	-3.08877	-7.3384	-2.56392
0.1907	-58.5384	-5.86784	-1.15373	-0.572284	10.2898	-3.48396	-7.11413	-1.24508	-7.3384	-1.28196
0.1913	-79.2551	-6.19383	-1.4662	-2.40359	8.78844	-6.22796	-10.1607	-3.08877	-8.23436	-3.52539
0.1920	-88.7403	-0.977973	2.81222	0.640958	11.2053	-4.10059	-7.72012	0.885926	-5.80245	-1.60245
0.1927	-106.758	3.30066	7.40311	2.47227	13.6587	0.493304	-0.705602	7.9015	-2.73057	0.961469
0.1933	-108.266	2.97467	7.69154	1.55661	12.7432	-0.431641	-1.61873	8.5001	-2.73057	0
0.1940	-83.5413	1.14097	5.2639	1.25903	12.4503	-2.55901	-6.201	5.45922	-3.96785	-0.32049
0.1947	-93.6218	-1.58921	1.58638	0.343371	11.8278	-3.17564	-6.80698	2.10707	-4.86382	0.32049
0.1953	-137.555	-3.13766	-0.55283	-0.274696	11.5348	-3.48396	-6.80698	-0.335215	-4.86382	0.32049
0.1960	-178.473	-2.81167	0.67301	1.25903	12.7432	-2.55901	-5.27956	0.885926	-3.37054	0.32049
0.1967	-163.789	-1.9152	2.81222	2.47227	14.2812	-1.63407	-3.14615	3.01694	-2.13325	0.32049
0.1973	-51.1963	-2.81167	1.29795	0.961438	13.3658	-3.79227	-5.58671	1.7958	-3.96785	0.32049
0.1980	88.5816	-3.42291	0.384577	0.0457827	12.4503	-4.9947	-8.64155	1.7958	-5.5038	0
0.1987	176.449	-2.20044	2.81222	0.0457827	13.3658	-3.79227	-7.11413	3.92681	-4.56516	0
0.1993	183.473	-2.20044	3.72559	-2.70118	14.5742	-3.48396	-6.201	3.01694	-3.37054	0
0.2000	128.546	-4.03414	3.12469	-6.98187	14.2812	-4.4089	-6.49984	-0.646486	-3.37054	0
0.2007	72.3892	-5.5826	0.985479	-8.81318	13.6587	-5.30301	-7.42127	-4.62118	-3.96785	0
0.2013	37.9012	-7.0903	-1.15373	-4.85297	13.3658	-7.1529	-9.86182	-7.06346	-3.96785	0.32049
0.2020	21.1135	-7.41629	-1.4662	4.30358	13.3658	-7.7387	-11.0821	-7.06346	-4.26651	0
0.2027	18.3751	-7.41629	-2.0671	11.9493	13.0362	-7.7387	-10.775	-6.75219	-5.5038	-0.32049
0.2033	22.0263	-7.70154	-2.37957	13.4601	13.0362	-7.46122	-9.86182	-6.44092	-6.10111	0
0.2040	28.1381	-7.41629	-1.75463	15.9095	14.5742	-5.91964	-8.64155	-5.53105	-5.20514	0.32049
0.2047	34.2499	-6.80506	-1.4662	18.9541	15.7826	-4.9947	-6.49984	-5.21978	-5.80245	0
0.2053	36.9884	-6.80506	-1.4662	17.4432	15.4896	-4.68638	-4.36643	-6.44092	-9.47165	0.32049
0.2060	37.6233	-6.80506	-2.668	24.1504	15.4896	-4.10059	-2.23302	-7.06346	-13.7382	0.32049
0.2067	39.1315	-6.47907	-3.60541	37.5876	16.1121	-3.79227	-1.92588	-6.44092	-15.2741	0.32049
0.2073	43.4177	-4.97136	-2.37957	43.6767	17.0276	-2.55901	-2.53187	-4.30991	-16.7674	0.32049
0.2080	47.3864	-2.52643	-0.240361	43.9972	18.236	-0.123326	-1.61873	-1.24508	-21.0339	0.32049
0.2087	47.0689	-2.81167	1.58638	16.2071	18.236	1.10993	-1.31159	1.48452	-24.1058	0
0.2093	43.4177	-10.4317	1.58638	-31.3841	17.3206	1.10993	-2.23302	3.01694	-24.1058	0
0.2100	37.3059	-20.8227	0.67301	-43.9057	16.4051	-0.431641	-2.23302	3.61553	-22.8685	0.32049
0.2107	26.3125	-25.3865	0.384577	-23.4637	16.4051	-1.94238	-2.83901	3.92681	-21.9725	0.32049
0.2113	5.55619	-28.1575	2.21132	-6.06621	17.3206	-1.94238	-2.23302	6.05782	-22.5698	0
0.2120	-13.9699	-12.8766	3.72559	-4.2349	17.6135	-0.739955	-1.01275	7.9015	-25.0017	0.640979
0.2127	-22.2248	22.2081	2.49975	-2.70118	16.4051	-0.739955	-1.31159	7.27896	-25.9404	0.640979
0.2133	-27.1063	11.5319	-2.0671	-0.274696	14.2812	-4.68638	-4.98072	1.7958	-24.7031	-2.24343
0.2140	-25.241	-8.02753	-3.29294	-13.071	15.1967	-5.91964	-8.94039	-1.86763	-26.5377	-2.88441
0.2147	-21.5898	37.7742	1.58638	-21.0143	19.1515	-0.123326	-3.14615	3.01694	-24.4044	0
0.2153	-26.1538	56.3964	4.35053	-6.06621	20.3599	2.62068	2.34924	7.27896	-6.69842	0.640979
0.2160	-21.2723	19.7632	1.89885	0.0457827	19.774	1.10993	0.821819	5.45922	17.706	-0.32049
0.2167	4.32589	5.09361	0.0721082	-15.5204	20.3599	1.10993	-1.01275	3.92681	58.2805	0.32049
0.2173	23.2566	6.03083	0.0721082	-28.9576	20.9824	1.38742	-1.92588	6.36909	116.902	0
0.2180	10.1599	0.244493	-0.841263	-30.4684	19.1515	-0.123326	-3.75214	8.5001	141.307	0
0.2187	-14.8827	-0.692731	-0.240361	-30.4684	18.529	0.493304	-1.61873	10.9424	108.028	0
0.2193	-28.2969	3.5859	0.985479	-38.7093	18.529	1.38742	-0.0913132	12.1635	42.1104	0.32049
0.2200	-31.9878	4.19713	0.0721082	-40.8611	17.3206	-0.739955	-3.14615	9.43391	-33.5774	0
0.2207	-22.8201	0.855726	-0.240361	-24.6769	16.4051	-1.63407	-4.67358	8.81137	-98.855	0
0.2213	-9.40584	0.244493	-0.55283	-0.572284	14.5742	-2.2507	-5.27956	9.43391	-104.359	0.32049
0.2220	-9.68365	2.07819	-0.240361	25.6841	14.5742	-3.79227	-6.201	9.43391	-33.5774	0.32049
0.2227	-19.4467	3.30066	0.985479	28.7287	17.9431	-4.68638	-6.201	11.2536	15.2741	0
0.2233	-27.1063	2.68943	-0.841263	7.37102	18.529	-8.66364	-8.64155	9.72124	-9.77031	0.32049
0.2240	-28.2969	1.46696	-2.37957	24.448	17.0276	-12.3326	-11.0821	7.27896	-9.17299	0.32049
0.2247	-24.9632	2.07819	-1.15373	85.1788	16.4051	-12.0243	-10.1607	7.27896	34.1747	0.32049
0.2253	-20.677	1.7522	-1.15373	101.043	15.1967	-10.791	-10.4678	5.45922	13.4395	0.32049
0.2260	-15.478	2.07819	-0.55283	34.5202	15.4896	-8.04702	-7.42127	4.54935	-91.2606	0.32049
0.2267	-10.9139	2.36343	-0.55283	-3.61684	14.8671	-6.22796	-2.83901	3.32821	-162.042	0.32049
0.2273	-8.17554	1.7522	-2.0671	56.1983	15.1967	-7.1529	-3.14615	0.885926	-105.596	0.640979
0.2280	-6.34993	2.36343	-1.75463	112.648	18.529	-5.30301	-3.75214	0.263383	-26.5377	0
0.2287	-6.94524	3.30066	-2.37957	92.2065	20.0669	-1.63407	-4.36643	-0.335215	-23.2098	0
0.2293	-6.94524	5.4196	-2.668	37.8852	20.3599	0.493304	-3.14615	0.263383	-50.9421	0.32049
0.2300	-5.11963	7.86453	-0.841263	-3.02166	20.9824	-1.63407	-0.0913132	3.01694	-81.1917	0.32049
0.2307	-4.20683	8.14977	-0.841263	-35.0467	20.0669	-6.84459	-2.83901	1.7958	-94.2898	0
0.2313	-2.97653	7.2533	-2.668	-65.8814	20.9824	-8.66364	-5.27956	-0.646486	-81.1917	0.32049
0.2320	-1.74623	6.03083	-2.98047	-71.6729	21.6049	-7.7387	-4.67358	-1.86763	-45.1823	0.32049
0.2327	-0.555619	7.2533	-2.0671	-11.5601	22.8133	-4.68638	-4.36643	-1.24508	66.2162	0
0.2333	1.30967	6.64207	0.67301	66.5681	24.0217	-0.431641	-1.61873	0.885926	185.55	0
0.2340	2.22248	-1.30396	1.29795	37.8852	22.5204	0.493304	-0.398458	0.263383	129.702	0
0.2347	1.90498	-7.70154	-0.240361	-54.5959	20.6895	0.184989	0.20753	-0.0478879	-80.253	0.32049
0.2353	1.30967	-7.0903	-1.75463	-86.3234	19.1515	0.493304	1.43611	0.263383	-230.391	0
0.2360	0.67468	-4.36013	-2.668	-56.1068	16.4051	-0.123326	1.43611	-0.0478879	-204.75	0.32049
0.2367	0.0793741	-1.58921	-0.55283	5.53971	17.0276	0.801618	4.1755	3.32821	-129.105	0.32049
0.2373	-2.38122	3.30066	-0.55283	45.508	19.4444	0.184989	5.70292	4.83667	-152.57	0.32049
0.2380	-5.11963	8.47577	-2.37957	-2.10601	20.3599	-2.55901	2.04209	1.48452	-189.22	0
0.2387	-5.43713	8.47577	-2.668	-64.0501	22.5204	-4.9947	-1.31159	0.263383	-120.828	0
0.2393	-3.88933	4.19713	-3.60541	-36.878	23.7288	-9.58859	-4.36643	0.574654	-20.1379	0
0.2400	-2.38122	1.7522	-3.60541	21.4034	24.3513	-12.3326	-7.11413	1.7958	44.2437	0.32049
0.2407	-0.833429	0.855726	-1.4662	37.8852	26.4752	-10.5135	-6.80698	4.83667	90.6207	0.640979
0.2413	0.992177	4.80837	-1.75463	19.5721	24.9372	-10.2052	-7.72012	4.23808	132.134	0
0.2420	1.58748	8.14977	-2.668	-9.72883	20.0669	-8.35533	-8.94039	2.39439	167.247	0.640979
0.2427	0.67468	4.19713	-3.29294	-3.31925	15.1967	-5.61133	-7.72012	2.10707	100.092	0.32049
0.2433	-0.833429	-0.692731	-5.11968	47.6369	11.2053	-5.91964	-11.9952	-0.957757	-91.8579	-1.92294
0.2440	0.396871	-18.7037	-2.37957	65.6525	12.1207	-2.55901	-13.2155	-0.335215	-203.854	-2.24343
0.2447	1.58748	-46.7797	0.384577	35.4358	15.1967	2.00405	-8.94039	5.77049	-172.41	0.32049
0.2453	0.396871	-60.1861	-2.98047	28.7287	16.1121	-1.35658	-10.775	5.14795	-81.1917	0.32049
0.2460	0.67468	-64.4647	-3.60541	77.2584	19.774	-6.53627	-13.5227	1.7958	88.1887	0
0.2467	1.90498	-66.2984	-1.15373	152.319	24.3513	-11.0993	-14.4358	1.17325	270.07	0.32049
0.2473	2.22248	-26.935	0.384577	165.138	25.8527	-14.46	-15.6561	2.10707	378.098	0.32049
0.2480	3.13528	73.7962	3.12469	80.3029	26.4752	-14.46	-14.1286	3.92681	393.073	0
0.2487	3.41309	111.326	1.58638	-28.9576	24.0217	-13.5658	-13.2155	4.23808	235.298	0
0.2493	0.0793741	17.6443	-3.89384	-107.086	18.236	-12.6409	-12.9084	3.92681	-67.7522	0.32049
0.2500	-1.46842	-69.9658	-4.80722	-149.801	13.0362	-10.2052	-10.1607	3.92681	-363.763	0.32049
0.2507	1.30967	-84.9206	-3.60541	-139.111	8.45888	-8.35533	-7.42127	2.10707	-548.076	0.640979
0.2513	3.13528	-63.2422	-2.98047	-55.8092	6.04205	-5.91964	-5.27956	1.7958	-548.417	0.32049
0.2520	2.50029	-26.935	-2.668	7.37102	6.335	-2.86733	-3.14615	1.7958	-342.729	0
0.2527	3.73059	48.1244	-1.15373	-19.4806	7.25047	-4.10059	-3.75214	-1.86763	-122.363	0.32049
0.2533	7.69929	158.635	1.58638	-50.0177	10.2898	-5.91964	-1.92588	-4.90851	-35.0707	0.32049
0.2540	8.61209	165.318	0.384577	-13.3915	13.6587	-4.68638	5.70292	-4.62118	41.8118	0
0.2547	6.46899	34.1068	-4.51878	57.7091	13.0362	-2.55901	11.5055	-3.08877	148.944	0
0.2553	4.64339	-53.1773	-8.48473	99.8293	13.3658	-1.35658	12.7257	0.574654	229.496	0.32049
0.2560	2.81778	-36.1035	-10.6239	90.6727	16.4051	-0.739955	12.1115	4.83667	254.839	0
0.2567	1.90498	-15.6476	-11.2248	69.3151	20.0669	-0.123326	11.5055	5.45922	188.622	0
0.2573	1.58748	-17.1553	-10.6239	58.9453	22.8133	1.69573	11.5055	5.45922	92.1566	0
0.2580	1.58748	17.6443	-9.39811	26.5998	21.8979	3.85393	11.5055	5.45922	19.5406	0
0.2587	2.81778	79.2566	-7.8598	-39.9454	19.1515	6.90625	12.1115	4.23808	-109.863	0
0.2593	3.73059	77.4229	-5.72059	-90.2836	18.529	10.2669	13.0329	5.45922	-234.658	0
0.2600	4.04808	41.4416	-2.98047	-96.098	18.8585	10.5444	10.584	4.83667	-181.881	0
0.2607	6.19118	35.9405	-1.75463	-136.982	18.236	8.41699	7.23034	1.17325	-98.855	0
0.2613	8.2946	32.8843	-2.668	-192.837	16.4051	5.05636	4.1755	1.17325	-170.276	0
0.2620	7.10399	28.6057	-4.20631	-111.664	14.2812	2.62068	1.43611	3.32821	-205.39	0
0.2627	5.55619	17.9295	-4.20631	-3.31925	12.4503	2.92899	1.12896	5.45922	-123.302	0.32049
0.2633	6.19118	-6.47907	-3.29294	-37.4961	10.2898	1.38742	2.34924	6.05782	-104.657	0
0.2640	5.87369	-36.1035	-2.668	-97.9293	10.2898	-2.86733	0.514674	5.77049	-110.161	0
0.2647	5.55619	-84.9206	-2.37957	-70.1392	12.4503	-5.91964	-2.83901	4.83667	-50.9421	0
0.2653	8.01679	-128.563	-1.15373	-13.071	13.6587	-4.9947	-3.14615	1.48452	-2.73057	0
0.2660	12.2633	-91.3182	2.21132	-21.6323	15.4896	-2.2507	-1.31159	-0.646486	26.239	0
0.2667	12.5808	21.8821	4.35053	-65.8814	17.6135	-1.94238	-1.31159	1.7958	78.1198	0
0.2673	10.4377	73.7962	3.12469	-48.7815	17.3206	-4.4089	-2.23302	3.61553	66.8562	0.32049
0.2680	11.0727	53.9515	1.29795	9.79751	15.7826	-5.30301	-2.53187	2.39439	-45.7796	0.32049
0.2687	11.9855	71.9625	0.0721082	39.7165	14.5742	-6.22796	-3.75214	0.885926	-36.9053	0
0.2693	11.9855	93.3149	0.0721082	43.9972	13.9517	-6.84459	-3.75214	1.7958	189.518	0
0.2700	13.8111	55.174	1.89885	54.9622	13.9517	-1.94238	-0.0913132	5.45922	362.867	0.32049
0.2707	14.4064	9.69823	1.89885	61.0742	13.0362	2.00405	2.95523	5.77049	273.441	0
0.2713	14.7239	-1.9152	0.384577	66.5681	13.0362	2.00405	2.34924	4.83667	79.9544	0
0.2720	14.7239	-2.20044	0.384577	63.8211	12.4503	1.69573	2.34924	7.27896	28.6709	0.640979
0.2727	12.8983	-11.0429	0.0721082	-6.06621	9.70391	-1.35658	0.20753	7.9015	122.065	-0.640979
0.2733	12.8983	-18.3777	0.67301	-92.1149	10.2898	-1.94238	-4.67358	7.27896	203.256	-2.56392
0.2740	16.867	6.92731	4.95143	-96.3956	13.0362	4.16225	-2.23302	10.9424	151.674	-1.28196
0.2747	18.3751	37.7742	5.2639	-67.3922	12.1207	6.90625	4.78979	12.4748	70.1841	0.640979
0.2753	17.1448	20.6597	2.49975	-75.3355	9.70391	5.36468	5.39578	11.8762	37.5453	0
0.2760	16.867	-20.5374	1.89885	-87.239	4.79703	4.74805	2.95523	13.3847	-131.835	0
0.2767	15.3192	-44.3348	2.21132	-62.8368	-0.695752	5.05636	1.43611	14.0072	-415.046	0.32049
0.2773	14.4064	-43.1123	4.95143	-24.6769	0.219711	5.67299	2.95523	16.1382	-513.602	0
0.2780	14.1286	-18.3777	6.77817	-41.4563	3.29567	1.10993	0.514674	16.4495	-378.738	0
0.2787	12.2633	19.4372	4.95143	-69.544	6.04205	-6.22796	-6.80698	13.0973	-216.056	0
0.2793	9.5249	37.4482	4.03806	22.3191	10.6194	-9.28027	-10.4678	12.4748	-29.6096	0
0.2800	8.92959	44.1718	3.72559	135.242	14.2812	-13.2575	-12.9084	9.12264	230.733	0
0.2807	8.92959	49.6729	2.81222	131.58	15.7826	-18.1289	-13.5227	5.14795	421.744	0
0.2813	6.78649	13.9769	1.89885	109.901	16.698	-19.6397	-12.3024	6.68036	490.137	0
0.2820	4.64339	-30.6024	-1.4662	134.922	16.1121	-21.4895	-14.7429	5.14795	517.869	0.32049
0.2827	4.32589	-36.7147	-2.0671	158.729	15.4896	-21.7979	-15.6561	3.32821	481.561	0
0.2833	4.64339	-35.1663	-0.240361	146.528	12.1207	-18.4372	-13.8298	3.92681	271.905	0
0.2840	5.27838	-48.0022	0.67301	107.452	7.54341	-14.1516	-11.3892	5.14795	-57.3845	0
0.2847	5.87369	-40.3414	4.03806	94.6558	7.25047	-10.2052	-5.58671	7.9015	-315.252	0.32049
0.2853	5.55619	25.5495	5.2639	107.452	7.25047	-8.66364	-4.98072	7.59023	-389.703	0.640979
0.2860	7.69929	80.805	4.35053	88.5438	8.16593	-8.66364	-8.64155	4.23808	-257.569	-0.32049
0.2867	11.668	59.4526	4.35053	52.2152	13.3658	-8.97196	-10.775	2.70566	-54.91	-1.60245
0.2873	15.0414	14.8733	4.63896	87.3306	18.529	-7.46122	-8.94039	4.54935	-5.20514	-0.32049
0.2880	17.4623	-25.1013	5.55233	165.436	22.1908	-2.86733	-2.83901	8.5001	-80.8503	0.32049
0.2887	18.3751	-65.6872	5.2639	173.379	22.1908	-2.86733	-1.92588	7.9015	-116.561	0
0.2893	18.6926	-75.4669	3.72559	146.23	20.6895	-5.61133	-4.36643	4.23808	-114.129	0.32049
0.2900	18.6926	-37	4.95143	112.351	23.7288	-3.48396	-2.83901	5.14795	-166.309	0.32049
0.2907	18.0973	-4.97136	4.03806	6.75295	27.3906	-0.123326	-3.4533	4.54935	-278.603	0
0.2913	16.867	-19.315	2.81222	-78.0825	28.3061	3.54562	-2.83901	4.54935	-325.023	0.32049
0.2920	16.5495	-12.2654	4.95143	-24.6769	28.9286	4.43973	0.514674	6.99163	-248.098	0
0.2927	16.5495	50.8953	4.35053	59.5405	27.3906	-0.123326	-3.75214	2.70566	-133.072	0
0.2933	14.1286	79.2566	4.03806	41.8454	28.3061	-2.55901	-8.3344	0.574654	-15.8714	0
0.2940	7.3818	51.7918	4.95143	-44.5237	30.43	-2.55901	-8.3344	2.10707	98.8977	0.32049
0.2947	-1.46842	31.9879	5.55233	-97.9293	30.137	-2.55901	-8.3344	2.39439	162.341	0.32049
0.2953	-5.43713	30.7654	6.4657	-51.2309	30.43	-1.04827	-7.42127	5.14795	217.592	0.32049
0.2960	-5.43713	41.4416	4.35053	36.3515	31.0525	-3.48396	-10.4678	5.14795	313.716	0
0.2967	-9.40584	35.9405	1.89885	36.672	33.7989	-6.84459	-14.7429	3.92681	372.637	0
0.2973	-16.7083	9.37224	0.0721082	-17.6492	38.0833	-7.1529	-15.0501	2.39439	330.825	-0.32049
0.2980	-19.7642	-1.58921	-2.0671	-24.0588	38.6691	-4.9947	-14.4358	0.263383	193.785	0
0.2987	-16.7083	9.087	0.985479	-31.7046	39.9142	-0.123326	-8.3344	3.32821	32.0415	0
0.2993	-13.057	14.2621	2.21132	-78.3801	40.5001	0.801618	-6.201	3.32821	-98.5564	0.32049
0.3000	-11.2314	9.087	0.67301	-104.636	38.6691	0.801618	-8.94039	-0.646486	-185.55	0.32049
0.3007	-9.68365	1.46696	1.89885	-78.0825	37.4607	4.74805	-7.42127	0.574654	-171.215	0
0.3013	-6.34993	-6.47907	-0.240361	12.865	33.5059	5.05636	-9.86182	-0.0478879	-45.1823	-0.32049
0.3020	0.396871	19.152	-0.240361	92.2065	33.5059	4.43973	-11.0821	0.574654	77.5225	0.32049
0.3027	9.5249	53.9515	1.89885	41.5478	35.9228	2.62068	-9.24754	3.32821	109.564	0
0.3033	15.0414	30.1542	-2.37957	-54.5959	35.6298	-4.68638	-17.7978	-2.7775	64.3816	-2.56392
0.3040	23.2566	-13.4879	-3.60541	-80.5318	38.3762	-6.22796	-23.592	-4.30991	-25.6417	-1.92294
0.3047	32.1068	-36.1035	-4.51878	-139.111	39.9142	-1.94238	-8.02726	0.574654	-86.3541	0.32049
0.3053	15.3192	-52.2401	-8.17227	-239.215	40.2071	3.2373	15.7723	2.39439	-13.4395	0
0.3060	-25.241	-59.5749	-8.48473	-181.231	38.9987	5.05636	19.7403	3.92681	155.045	-0.32049
0.3067	-55.165	-56.2334	-9.08564	1.87709	33.1764	-1.35658	4.1755	4.23808	239.266	0
0.3073	-62.1896	-37.6112	-7.8598	102.279	33.1764	-8.66364	-10.4678	3.92681	269.174	0
0.3080	-59.1337	-15.6476	-6.34552	105.941	35.6298	-13.2575	-17.4906	4.54935	390.94	0
0.3087	-63.4199	-14.0991	-5.11968	92.8245	34.4214	-13.8433	-17.4906	5.77049	437.914	0.32049
0.3093	-63.6978	-23.2676	-2.0671	74.5114	34.0918	-8.35533	-11.9952	8.21277	370.802	0.32049
0.3100	-44.4892	-25.3865	-1.4662	40.0141	33.7989	-5.91964	-11.0821	7.59023	420.55	0
0.3107	-9.68365	-24.7753	-1.4662	14.0782	38.0833	-9.28027	-11.6881	6.99163	444.954	0.32049
0.3113	51.3551	-23.5528	0.0721082	33.925	44.7844	-10.5135	-8.3344	9.43391	204.152	0
0.3120	112.076	-21.7599	-0.240361	75.7247	43.576	-9.58859	-8.02726	10.0325	-71.72	0
0.3127	112.076	-17.4813	1.29795	94.3353	38.9987	-6.84459	-6.80698	13.6959	-152.869	0
0.3133	55.9191	-12.2654	2.81222	89.4595	35.3369	-0.739955	-1.92588	17.958	-214.221	0.32049
0.3140	1.30967	-12.5914	-1.4662	19.5721	29.2216	6.90625	0.821819	16.4495	-342.387	0
0.3147	-35.3215	-15.9328	-6.03305	-133.617	25.8527	14.8299	2.65638	14.3185	-395.804	0.32049
0.3153	-74.0958	-19.315	-6.34552	-233.721	24.9372	23.0619	5.09694	14.3185	-369.864	0.32049
0.3160	-63.1024	-21.7599	-5.72059	-190.388	22.8133	27.0392	5.09694	13.6959	-283.808	0
0.3167	-5.11963	-22.0451	-2.98047	-109.833	23.4358	25.2201	6.61606	16.1382	-111.697	0
0.3173	13.8111	-26.609	-3.29294	-84.4921	26.1822	22.4453	8.14348	18.5805	10.3676	0.32049
0.3180	17.4623	-35.1663	-7.8598	-62.8368	26.7681	19.7013	6.61606	15.8269	-13.4395	0
0.3187	36.7105	-34.2698	-9.99901	-28.0419	24.0217	13.5967	6.01007	10.9424	-27.4763	0
0.3193	43.4177	-25.3865	-8.17227	4.00599	20.9824	5.67299	4.78979	9.12264	71.4214	0.32049
0.3200	38.2187	-13.2026	-4.20631	70.8488	21.2754	1.38742	5.09694	11.5649	168.143	0
0.3207	13.8111	-0.692731	-0.240361	137.669	21.8979	0.184989	8.14348	15.2283	234.999	0
0.3213	-41.1158	5.4196	2.81222	148.657	19.4444	-1.35658	9.36375	17.0481	291.147	0
0.3220	-54.8475	5.4196	5.8648	160.56	14.5742	-1.94238	8.14348	17.0481	238.967	0
0.3227	54.411	1.7522	8.60492	203.298	14.5742	-2.55901	6.31721	16.7368	50.3448	0
0.3233	185.299	0.529735	12.2824	228.914	30.43	-2.2507	8.14348	20.1129	-149.84	0
0.3240	188.672	3.30066	16.8493	230.745	50.2772	0.493304	12.4186	23.4651	-207.523	0
0.3247	120.331	1.46696	16.5368	217.628	54.8545	5.05636	13.3317	19.1791	-145.275	0
0.3253	85.5256	-3.7489	13.5083	151.106	46.3224	7.80036	12.7257	11.5649	-119.334	-0.32049
0.3260	64.7693	-6.19383	12.2824	33.0094	32.8834	4.43973	9.97804	5.14795	-139.771	0
0.3267	25.7172	-5.86784	11.3691	-30.7889	17.3206	1.38742	6.61606	-1.86763	-163.578	0
0.3273	-7.54054	-2.20044	10.4557	-36.878	-0.073237	8.10868	8.14348	-4.90851	-224.589	0
0.3280	-9.40584	-0.36674	7.09064	-58.8537	-16.5516	18.1906	13.0329	-5.84232	-249.335	0
0.3287	28.4556	-4.64537	0.985479	-129.657	-24.7907	21.2429	14.552	-11.0142	-180.644	0
0.3293	62.9437	-8.63876	-2.0671	-282.251	-25.4132	22.4453	13.946	-14.9889	-118.396	0
0.3300	23.5741	-9.20924	-2.37957	-355.183	-30.2835	26.1143	15.1663	-15.8988	-72.9146	0.32049
0.3307	-21.5898	-8.63876	-2.0671	-213.897	-36.3988	27.3475	16.3866	-15.3002	51.5821	0.32049
0.3313	0.0793741	-9.20924	-3.60541	-47.2707	-34.5679	20.9346	14.552	-12.8579	192.889	0
0.3320	12.5808	-11.3689	-7.57136	15.9095	-30.2835	10.5444	12.1115	-9.79307	238.669	0.32049
0.3327	-17.6211	-12.8766	-9.99901	40.0141	-16.5516	0.184989	7.53749	-7.66206	177.615	-0.640979
0.3333	-47.5451	-13.4879	-10.9124	61.0742	9.37434	-7.7387	-3.75214	-6.12965	18.602	-2.88441
0.3340	-50.8788	-12.5914	-9.08564	69.3151	22.8133	-2.55901	-2.23302	0.263383	-170.575	-1.28196
0.3347	-50.8788	-11.6542	-6.94643	68.3994	18.8585	13.0109	13.0329	6.05782	-312.479	0.640979
0.3353	-57.6256	-11.6542	-7.8598	85.7969	15.4896	18.8072	16.9926	3.92681	-353.096	0
0.3360	-17.0258	-6.19383	-3.29294	89.7571	18.529	15.4466	13.6389	6.05782	-274.635	0
0.3367	87.6687	4.52312	8.60492	21.4034	16.4051	10.5444	13.3317	15.8269	-162.341	0
0.3373	177.362	15.1993	18.3876	-53.6803	0.842226	7.21457	10.584	25.9073	-89.7247	0
0.3380	230.78	23.7158	26.007	-60.3874	-19.298	5.05636	8.14348	34.1441	-30.8042	0
0.3387	305.868	26.772	29.0596	-85.1101	-45.2239	-1.35658	6.61606	39.0286	32.6388	0
0.3393	358.652	23.4306	26.6079	-128.741	-75.7637	-4.10059	4.1755	39.0286	41.5131	0
0.3400	305.233	20.9857	24.1803	-84.1945	-84.9183	1.10993	6.01007	35.3652	-44.841	0
0.3407	146.842	19.7632	22.9545	-21.3119	-82.4649	5.98131	8.14348	28.0383	-149.541	0
0.3413	-53.0219	18.8667	22.642	-23.7612	-93.4504	8.41699	8.45062	18.5805	-179.449	0
0.3420	-158.629	17.3183	20.8152	-26.2106	-104.766	11.161	8.75777	9.72124	-164.474	0
0.3427	-122.593	13.3656	16.5368	-9.72883	-108.098	11.161	7.84463	0.574654	-117.798	0
0.3433	-82.0332	8.47577	12.8833	-14.3071	-107.805	8.10868	10.584	-7.97333	-14.0368	0
0.3440	-87.1925	4.52312	10.1432	-30.4684	-103.228	10.8527	16.6937	-15.8988	67.4535	0
0.3447	-35.639	-0.692731	7.69154	-35.6648	-92.8279	19.7013	20.3545	-24.4468	84.8609	0
0.3453	56.5144	-7.0903	3.43716	-30.7889	-61.1163	20.9346	20.3545	-33.6173	83.9222	0
0.3460	87.3512	-15.3216	-6.34552	-26.2106	-22.6669	14.5216	11.1983	-42.4526	81.789	0
0.3467	80.6441	-22.3711	-15.1908	-11.5601	-15.3432	13.0109	-11.6881	-47.9597	123.601	0
0.3473	80.9616	-26.609	-20.9835	21.1058	-29.661	7.49205	-34.5828	-49.4682	230.093	0.32049
0.3480	15.6367	-29.3799	-25.2619	36.672	-38.8156	-8.35533	-35.1888	-47.9597	289.312	0.32049
0.3487	-104.298	-27.8315	-24.9494	22.3191	-41.8916	-19.948	-22.986	-43.985	238.967	0
0.3493	-124.459	-24.7753	-24.3485	0.343371	-55.294	-17.8206	-19.624	-38.7892	43.0491	0
0.3500	-74.0958	-21.1487	-23.4352	-12.7734	-76.0566	-2.55901	-20.8443	-31.4623	-271.606	0
0.3507	-47.2276	-14.7103	-19.7577	-9.11077	-87.9577	16.9573	-15.9632	-21.6932	-385.138	0.32049
0.3513	29.0509	-8.924	-17.33	6.13489	-92.535	27.3475	-7.11413	-10.1043	-196.217	0.32049
0.3520	73.302	-4.03414	-15.7917	26.2793	-98.6503	22.1678	-1.31159	3.32821	-11.9036	0
0.3527	-21.2723	1.14097	-12.7391	37.8852	-103.521	3.85393	-1.92588	15.2283	22.9112	0
0.3533	-90.5659	7.53854	-6.03305	36.9696	-99.8587	-12.3326	-5.58671	25.9073	0.938632	0
0.3540	-93.9393	14.8733	3.43716	35.1383	-93.7434	-15.6932	-7.42127	34.4553	-36.308	0
0.3547	-98.1858	23.1046	13.1958	30.8576	-94.6589	-16.5873	-4.36643	41.7822	-133.371	0
0.3553	-64.0153	33.7808	25.4061	18.3589	-87.0422	-9.28027	3.87666	51.24	-251.468	0
0.3560	22.3438	39.2819	30.8864	7.66861	-60.7867	13.0109	8.45062	54.2809	-255.436	0.32049
0.3567	78.1835	36.2257	26.6079	7.9662	-26.6217	33.1438	7.53749	49.109	-143.739	0.32049
0.3573	45.8386	29.8282	20.5268	-3.93732	7.87298	44.7365	9.06491	40.561	-34.1747	0.32049
0.3580	15.3192	22.4934	13.1958	-27.1263	22.1908	39.2485	9.06491	24.3749	10.3676	0.32049
0.3587	64.174	15.1993	4.03806	-50.9333	12.7432	21.8595	7.53749	6.68036	5.20514	0.32049
0.3593	159.661	7.86453	-3.89384	-115.624	2.05064	15.4466	13.0329	-1.55636	49.1502	0.32049
0.3600	203.317	-0.36674	-12.1382	-163.536	-8.60535	9.65025	16.6937	-4.62118	204.792	0
0.3607	149.303	-9.20924	-19.7577	-104.934	-29.0751	-14.1516	13.0329	-8.2846	380.871	0
0.3613	39.1315	-15.9328	-24.661	-21.3119	-53.1701	-40.6975	8.75777	-9.19447	377.202	0
0.3620	-93.9393	-17.4813	-26.1753	11.3312	-69.0259	-53.5234	12.4186	-7.35079	197.155	0.640979
0.3627	-236.733	-15.6476	-22.5218	14.6963	-75.4341	-53.5234	19.4414	-8.8832	74.7919	0
0.3633	-348.135	-10.4317	-12.4507	2.47227	-79.096	-31.8489	15.1663	-15.6114	50.9848	-1.92294
0.3640	-382.306	4.19713	8.60492	-13.689	-79.7185	3.85393	11.5055	-17.7425	-20.1379	-1.60245
0.3647	-334.999	20.3744	29.973	-22.2275	-74.5187	30.0915	16.6937	-15.3002	-108.924	0.32049
0.3653	-245.584	25.2643	38.5298	7.37102	-72.6877	38.6318	17.2997	-15.3002	-48.8089	0.32049
0.3660	-161.05	25.8755	40.645	72.062	-78.803	43.2257	17.914	-11.6368	109.265	0
0.3667	-103.385	23.1046	35.7657	104.408	-76.9721	55.7125	20.0474	-7.06346	160.847	0.32049
0.3673	-44.1717	15.1993	22.9545	73.8933	-62.9472	62.7421	15.7723	-7.97333	46.6756	0
0.3680	47.9817	7.53854	12.2824	11.6288	-52.5476	54.51	14.2532	-11.0142	-104.956	0
0.3687	157.24	2.07819	5.55233	-49.102	-54.0855	44.1198	16.9926	-15.6114	-200.782	0
0.3693	264.673	-0.977973	1.29795	-97.0136	-60.7867	39.5568	18.2128	-24.758	-207.224	0
0.3700	285.429	1.46696	1.29795	-120.798	-62.0318	30.0915	20.9605	-35.437	-109.863	0
0.3707	189.585	3.30066	0.0721082	-112.259	-56.8319	14.8299	25.8499	-38.4779	-7.93571	0
0.3713	83.7	0.855726	-5.11968	-98.2269	-50.4237	4.43973	24.0154	-42.7639	24.1058	0
0.3720	10.7552	-4.03414	-10.9124	-97.6088	-44.638	-0.739955	17.6068	-52.2217	-30.8042	0.32049
0.3727	-60.6418	-9.53524	-14.8783	-77.4644	-36.3988	-10.2052	16.3866	-56.4837	-112.593	0
0.3733	-139.103	-12.8766	-15.5033	-31.0865	-26.3287	-34.5929	15.7723	-58.6387	-91.2606	0
0.3740	-187.005	-13.4879	-11.5373	6.75295	-20.5064	-51.0878	15.1663	-54.3527	-6.39976	0.32049
0.3747	-181.211	-14.0991	-8.48473	29.0263	-27.5371	-39.1868	15.4734	-41.5427	21.9725	0.32049
0.3753	-150.374	-14.4251	-6.03305	42.7611	-36.9847	-16.0015	10.2852	-34.5272	9.17299	0.32049
0.3760	-47.2276	-8.924	0.985479	49.4683	-25.4132	22.7536	6.9232	-28.7327	7.93571	0
0.3767	135.571	-0.692731	7.09064	57.7091	-6.18853	75.5679	6.01007	-21.6932	19.242	0
0.3773	245.742	5.09361	9.22985	71.444	0.549278	118.578	3.26237	-25.9792	31.4442	0
0.3780	230.78	8.76101	9.51829	80.3029	1.75769	154.281	6.61606	-31.7736	44.5424	-0.32049
0.3787	190.815	10.5947	7.09064	76.6403	2.05064	205.245	14.2532	-31.7736	61.0537	0
0.3793	136.801	7.53854	3.43716	67.7814	6.04205	254.699	21.882	-32.0849	71.4214	0
0.3800	-24.3282	-0.692731	-3.89384	58.9453	12.7432	261.112	24.6214	-32.9947	78.7598	0
0.3807	-201.055	-8.02753	-12.1382	52.5357	18.529	249.827	22.4879	-32.6835	119.036	0.32049
0.3813	-206.214	-11.6542	-15.1908	48.5526	21.6049	228.461	16.9926	-28.7327	182.18	0.32049
0.3820	-130.253	-16.87	-20.3826	42.1659	20.6895	181.752	21.2677	-24.758	219.128	0.32049
0.3827	-172.043	-22.6564	-26.4878	25.3636	34.0918	175.339	53.6174	-20.4721	212.728	0.32049
0.3833	-332.855	-29.6652	-31.6795	-7.59994	96.6729	211.658	61.8605	-16.21	126.971	0.32049
0.3840	-422.588	-37.326	-39.8999	-31.7046	235.53	214.125	34.3919	-9.50574	13.4395	0.32049
0.3847	-237.368	-36.7147	-41.1257	-25.8901	363.988	163.438	20.0474	8.21277	16.7674	0
0.3853	143.826	-32.7213	-37.4722	-12.7734	382.297	67.3359	9.06491	24.9975	80.253	0
0.3860	352.858	-28.4427	-34.1072	-3.31925	336.524	-64.222	-5.27956	37.4962	119.334	0.32049
0.3867	198.753	-17.7665	-23.4352	15.6119	277.019	-155.144	-9.55468	57.0345	184.313	0.32049
0.3873	-92.709	0.244493	-4.20631	34.2226	203.489	-126.471	-10.775	75.3516	232.567	0
0.3880	-303.289	23.1046	20.2143	43.9972	124.759	-34.0071	-10.4678	95.7997	192.249	0.32049
0.3887	-299.598	37.7742	36.6791	44.2948	46.9083	7.21457	-19.3169	117.445	79.9544	0.32049
0.3893	-116.204	40.8304	39.7316	39.7165	-17.76	-57.809	-40.377	124.485	-50.3448	-1.28196
0.3900	4.04808	38.3854	35.7657	40.9298	-64.4486	-197.568	-45.2581	120.821	-103.164	-0.640979
0.3907	108.703	30.4394	23.2669	45.8056	-95.2814	-273.568	-37.3222	102.815	-63.4857	0.640979
0.3913	167.916	26.4868	14.7101	50.0863	-78.5101	-157.888	-36.7162	82.6784	-14.6341	0
0.3920	108.425	31.6619	16.8493	45.8056	-34.5679	31.3248	-40.6842	74.4177	7.63705	0
0.3927	197.205	39.2819	23.5554	30.8576	-3.73509	120.119	-43.1247	70.7543	22.5698	0
0.3933	372.701	45.3942	32.1122	11.9493	13.3658	113.706	-36.1019	71.9755	47.6142	0.32049
0.3940	342.777	41.1156	30.8864	-38.4117	5.41954	34.3771	-29.3945	56.7232	52.8194	0
0.3947	234.154	28.6057	22.9545	-108.917	-6.18853	-57.5007	-32.7482	24.0637	3.96785	-1.92294
0.3953	153.589	15.4846	16.2484	-133.319	-13.5122	-86.7906	-35.8031	-4.90851	-59.8165	-1.92294
0.3960	9.24709	-2.81167	1.29795	-125.994	-42.1845	-38.2619	-30.3077	-29.9539	-104.359	0
0.3967	-163.511	-23.5528	-17.33	-124.46	-72.6877	48.0971	-21.4586	-47.6484	-150.437	0.32049
0.3973	-270.309	-36.1035	-27.4011	-126.612	-84.5888	97.2425	-19.9312	-61.6796	-190.713	0
0.3980	-273.047	-36.1035	-27.0887	-138.813	-86.4197	124.374	-18.0966	-76.9319	-198.051	0.32049
0.3987	-202.563	-31.2136	-21.6084	-147.97	-81.2565	105.783	-15.0501	-85.4798	-175.482	0.32049
0.3993	-102.155	-30.2764	-20.6951	-136.982	-47.9702	36.5045	-18.0966	-92.8067	-136.102	0.32049
0.4000	-42.9414	-28.1575	-19.4692	-126.91	34.0918	4.74805	-18.4038	-87.6109	-97.0631	0.32049
0.4007	-82.6285	-25.3865	-15.5033	-112.259	112.529	-63.297	-18.4038	-62.9007	-65.9176	0
0.4013	-209.27	-25.9978	-14.5899	-65.2633	145.815	-184.434	-15.6561	-48.247	-49.1502	0
0.4020	-291.66	-22.9824	-13.0516	-24.9745	157.716	-226.55	-6.201	-59.2373	-64.9789	0
0.4027	-225.74	-17.4813	-12.1382	-35.3672	154.054	-192.697	-4.98072	-79.9967	-112.295	-0.32049
0.4033	-192.482	-11.3689	-8.77317	-56.4272	121.683	-167.045	-7.11413	-87.9221	-165.413	-0.32049
0.4040	-202.563	-1.58921	-0.841263	-32.9178	86.8957	-170.714	-2.53187	-82.1277	-178.212	0
0.4047	32.1068	9.087	9.22985	25.6841	89.3492	-164.918	1.73495	-68.3839	-133.371	0.32049
0.4053	439.217	20.0484	22.642	64.1187	113.444	-156.069	7.84463	-47.0259	-108.028	0
0.4060	737.664	28.9317	33.338	54.367	136.331	-135.011	17.6068	-29.3313	-129.403	0
0.4067	845.097	30.4394	35.7657	38.8009	170.203	-55.9591	25.5428	-16.8326	-114.428	0.32049
0.4073	681.229	22.8194	29.6605	43.0816	178.149	22.1678	21.882	-15.3002	-57.3845	0
0.4080	356.509	11.5319	19.301	36.0539	130.252	85.3415	0.20753	-29.02	-25.3431	0
0.4087	123.07	2.97467	10.4557	25.0661	85.3944	194.269	-20.2383	-46.7386	-7.93571	0
0.4093	-24.9632	-3.7489	4.95143	26.5998	59.4318	307.174	-22.986	-59.8598	20.7352	0
0.4100	-203.793	-9.20924	1.58638	27.195	21.2754	376.452	-17.1835	-67.474	41.2145	0
0.4107	-419.85	-15.0363	-1.15373	20.1902	-29.9906	402.104	-12.3024	-78.153	43.945	0
0.4113	-594.711	-18.0925	-2.0671	7.66861	-112.675	401.796	-11.0821	-88.2334	44.8837	0
0.4120	-655.75	-13.4879	2.21132	-4.85297	-211.252	407.9	-9.24754	-87.9221	43.3477	0
0.4127	-461.362	-8.02753	6.4657	-10.6445	-255.817	404.848	-2.83901	-83.0376	24.7031	0
0.4133	-83.5413	-7.70154	4.95143	-0.572284	-248.493	385.301	0.20753	-79.9967	29.9082	0.32049
0.4140	35.4802	-11.6542	0.0721082	30.8576	-237.508	270.885	0.821819	-79.0868	87.8901	0
0.4147	-115.886	-20.2114	-9.68654	59.2429	-234.761	-28.5191	12.7257	-77.5544	149.541	0
0.4153	-166.844	-29.9912	-20.9835	68.1018	-213.376	-303.474	33.4787	-72.0473	198.99	0.32049
0.4160	9.5249	-31.2136	-23.1227	68.697	-170.056	-307.421	38.9658	-59.5486	233.165	0.32049
0.4167	260.387	-22.9824	-14.8783	58.3272	-152.956	-119.749	30.1168	-44.5836	201.123	0
0.4173	267.094	-19.9262	-10.3115	18.0384	-135.891	14.8299	22.7951	-40.6329	102.524	0
0.4180	132.515	-23.5528	-13.6525	-53.6803	-87.6647	2.62068	16.0794	-37.568	14.6341	0
0.4187	140.77	-24.7753	-14.8783	-104.018	-60.7867	-74.273	13.0329	-25.6679	-53.118	0
0.4193	157.835	-21.1487	-11.2248	-83.5764	-64.7781	-274.462	21.2677	-16.21	-114.428	0
0.4200	108.108	-18.7037	-10.6239	-20.7167	-73.3103	-478.042	29.8096	-8.8832	-97.0631	0
0.4207	75.1276	-19.9262	-14.5899	27.813	-68.1104	-452.082	23.4011	0.574654	-24.7031	0
0.4213	5.27838	-17.1553	-12.1382	42.1659	-33.6524	-392.577	10.584	7.59023	7.03974	0
0.4220	-121.085	-8.924	-3.60541	30.8576	-4.65055	-431.949	4.78979	13.3847	1.53594	0.32049
0.4227	-246.814	-4.64537	1.89885	18.3589	-13.5122	-391.066	-8.64155	14.6058	-0.597311	-0.640979
0.4233	-284.675	-3.42291	5.2639	26.5998	20.9824	-257.998	-34.5828	10.6551	10.069	-2.24343
0.4240	-118.625	2.07819	8.60492	47.6369	105.827	-163.684	-36.4091	17.958	19.8393	-1.28196
0.4247	139.222	8.14977	10.1432	52.2152	122.013	-103.563	-21.7574	28.9482	12.2022	0.32049
0.4253	282.651	11.5319	10.7441	30.8576	82.9409	-75.198	-20.5372	21.6214	-11.3062	0.32049
0.4260	226.494	12.4284	10.1432	6.75295	44.4915	-92.2786	-14.1286	9.72124	-39.9772	0
0.4267	-17.3036	6.92731	4.63896	-2.70118	2.05064	-101.436	-0.398458	6.68036	-64.9789	0.32049
0.4273	-256.259	-4.36013	-5.11968	-11.2397	-46.4689	-88.3322	8.45062	7.27896	-87.8901	0.32049
0.4280	-322.815	-12.8766	-10.6239	-27.4239	-115.751	-42.5474	10.2852	13.3847	-108.327	0.32049
0.4287	-287.096	-8.31277	-2.668	-38.7093	-131.314	63.9753	2.65638	29.5708	-118.694	0
0.4293	-241.02	7.2533	14.4216	-44.8213	-43.7225	174.444	-7.11413	52.4612	-122.065	0
0.4300	-217.525	16.0958	25.6946	-49.3996	13.6587	218.996	-8.3344	72.598	-119.932	0.32049
0.4307	-269.078	10.3095	24.4928	-48.1863	-4.65055	232.716	0.514674	87.2517	-104.657	0
0.4313	-278.564	-2.81167	16.2484	-41.7768	-16.8445	227.845	13.946	82.6784	-83.9222	0.32049
0.4320	-104.893	-10.4317	9.22985	-32.6202	-9.85038	175.061	21.2677	42.692	-63.7843	0.32049
0.4327	124.578	-6.80506	8.91738	-17.3517	-11.9743	85.3415	8.45062	0.885926	-41.2145	0
0.4333	128.546	-1.58921	10.1432	-4.2349	-24.4978	-69.71	-10.4678	-19.5622	-24.4044	0
0.4340	-92.709	1.14097	6.17727	0.961438	-19.5909	-232.377	-5.89385	-35.1258	-15.2741	0
0.4347	-235.821	9.98347	4.35053	6.13489	-3.44214	-261.667	13.3317	-30.8637	-4.56516	0
0.4353	-299.915	21.5969	10.7441	9.79751	-17.467	-212.213	25.5428	4.23808	7.3384	-0.32049
0.4360	-439.376	24.6531	17.1618	4.30358	-60.2008	-125.854	24.6214	25.2848	14.3355	0
0.4367	-373.455	24.6531	21.4402	1.25903	-72.1019	-88.0239	13.3317	19.1791	20.4366	0.32049
0.4373	54.0935	26.1608	27.8338	5.53971	-17.76	-207.958	4.78979	14.0072	29.6096	0.32049
0.4380	456.322	23.7158	29.6605	4.62406	32.8834	-279.364	-4.05929	17.958	34.772	0
0.4387	608.879	22.8194	30.2855	4.30358	23.7288	-259.231	-15.6561	28.3496	38.4412	0
0.4393	627.215	23.4306	30.8864	3.7084	-0.366185	-259.817	-19.3169	36.2751	39.6785	0
0.4400	590.901	13.3656	20.8152	-6.06621	-16.2586	-225.347	-9.24754	28.9482	31.4442	0
0.4407	515.218	-3.7489	4.03806	-8.19511	-54.0855	-172.255	9.97804	3.61553	25.9404	0.32049
0.4413	370.241	-20.5374	-13.965	-3.31925	-29.368	-156.069	21.5748	-29.9539	25.3431	0
0.4420	164.86	-34.2698	-30.4537	4.62406	118.937	-127.087	30.4239	-41.2315	25.9404	0
0.4427	49.212	-42.1751	-41.4382	20.7854	213.559	-74.273	38.9658	-32.3961	31.7428	0
0.4433	28.1381	-47.6762	-49.0576	31.178	179.357	-53.2151	32.5573	-35.1258	32.9801	0
0.4440	1.30967	-51.3436	-52.7351	29.3467	131.753	3.85393	19.7403	-43.0751	32.3401	0
0.4447	6.46899	-49.5099	-52.4227	25.9817	82.648	89.9046	8.14348	-42.4526	34.4734	0.32049
0.4453	17.1448	-35.7775	-41.7507	28.1106	14.2812	79.8227	-6.201	-27.7989	36.6066	0.32049
0.4460	30.2812	-11.3689	-18.5559	27.195	-57.4544	40.4509	-18.7109	3.01694	37.2466	0.32049
0.4467	97.1143	8.14977	0.67301	20.7854	-139.846	73.4097	-30.6148	36.8976	32.3401	0.32049
0.4473	30.8765	17.9295	9.83076	18.0384	-170.679	124.682	-35.4959	68.0247	25.6417	0.32049
0.4480	-223.002	23.7158	16.2484	12.5445	-144.423	126.841	-36.1019	93.6447	23.8071	0
0.4487	-345.397	30.4394	24.7812	10.118	-128.861	115.248	-53.5012	104.324	26.879	0
0.4493	-139.381	41.7268	38.8183	25.6841	-90.997	139.327	-74.2542	109.52	34.4734	0
0.4500	-0.238122	56.0704	57.4462	43.6767	-36.3988	171.392	-76.3876	116.535	49.1502	0
0.4507	-69.2143	69.5176	74.8483	43.3792	-27.5371	207.403	-64.4837	118.977	66.5149	0
0.4513	85.2082	76.5264	81.8669	33.6045	-54.0855	284.914	-39.4639	120.51	74.1519	0
0.4520	296.383	70.1288	73.9109	27.195	-77.8876	329.773	-14.1286	114.404	70.1841	0
0.4527	219.509	51.1806	55.9079	26.2793	-84.2958	240.979	-11.3892	95.7997	61.9497	0
0.4533	-8.17554	26.4868	35.7657	25.9817	-71.1864	124.682	-29.3945	69.5332	56.4459	-1.60245
0.4540	-316.385	-3.7489	9.22985	19.8697	-42.1845	70.6657	-44.6522	29.5708	60.4138	-2.24343
0.4547	-597.767	-34.555	-20.0701	12.865	-17.76	-26.6692	-37.9365	-18.6523	69.8854	-0.32049
0.4553	-557.484	-51.0583	-34.7321	10.7132	-13.8052	-54.4484	-21.4586	-57.1063	72.9573	0.32049
0.4560	-218.755	-53.7885	-35.9339	9.20233	-0.366185	131.712	-13.2155	-81.2178	99.1963	0
0.4567	139.222	-55.9075	-37.1598	6.45537	62.4712	340.133	-5.89385	-105.018	192.249	0
0.4573	236.892	-58.0671	-38.9865	7.66861	143.654	520.189	4.1755	-131.572	296.309	0
0.4580	91.32	-54.685	-38.6981	5.8373	203.16	640.123	14.2532	-137.678	341.193	0
0.4587	7.69929	-51.6288	-38.0731	0.0457827	214.145	496.387	20.3545	-122.713	358.6	0
0.4593	-32.5831	-52.8513	-43.2649	-9.72883	200.12	258.059	15.1663	-114.787	291.445	0
0.4600	-183.95	-52.566	-49.3701	-31.3841	206.528	176.572	0.821819	-110.214	75.0906	0
0.4607	-366.431	-46.4537	-49.971	-49.3996	183.642	139.327	-9.86182	-96.4701	-109.863	0
0.4613	-465.013	-33.9438	-44.1783	-41.7768	117.106	136.892	-13.2155	-85.1686	-165.114	-0.32049
0.4620	-302.058	-18.0925	-31.0546	-18.8854	39.9142	148.207	-11.9952	-74.2023	-195.918	0
0.4627	90.7247	-4.97136	-18.2434	1.55661	-45.5534	-38.8785	-6.201	-59.2373	-231.927	0
0.4633	428.541	7.86453	-4.80722	19.8697	-106.267	-300.422	6.9232	-38.7892	-229.496	-0.32049
0.4640	751.395	27.7092	15.335	34.2226	-130.069	-398.99	20.3545	-4.30991	-180.345	-0.32049
0.4647	892.086	42.6641	27.5453	43.6767	-149.294	-444.775	20.0474	28.0383	-132.432	0
0.4653	617.452	42.3381	26.6079	50.7044	-166.687	-556.138	10.2852	44.2244	-110.161	0.32049
0.4660	354.088	32.5991	15.9359	42.1659	-176.172	-548.523	-5.27956	57.633	-96.1245	0
0.4667	251.854	19.7632	0.67301	26.5998	-140.469	-374.572	-15.3489	64.05	-64.9789	0
0.4673	5.87369	11.5319	-9.68654	22.0215	-49.2153	-251.585	-3.75214	60.0753	-20.7352	0
0.4680	-311.226	5.09361	-15.5033	7.05054	20.3599	-210.086	19.7403	52.1499	-19.5406	0.32049
0.4687	-402.467	-2.81167	-21.8969	-23.1432	38.3762	-163.684	31.0382	36.2751	-68.0508	0
0.4693	-246.219	-2.81167	-19.7577	-42.6924	38.0833	-111.517	25.5428	22.2439	-108.028	0
0.4700	-156.804	9.69823	-3.89384	-51.849	25.2668	-51.3961	12.4186	24.6862	-113.233	0
0.4707	-196.173	25.8755	15.6234	-57.9381	1.13517	-4.10059	2.95523	35.6765	-101.927	0
0.4713	-154.343	33.1696	26.007	-58.8537	-21.4218	-10.791	7.84463	43.0033	-93.3939	0
0.4720	-212.008	28.3205	23.8678	-50.6128	-39.4381	-37.9535	17.2997	39.3399	-93.9912	-0.32049
0.4727	-296.859	21.2709	18.0751	-36.5804	-50.1307	-30.9548	9.6709	26.8172	-90.6207	-0.32049
0.4733	-48.4579	19.152	15.9359	-22.8456	-53.463	1.10993	3.87666	20.4002	-72.9146	0
0.4740	327.537	14.2621	12.2824	1.25903	-51.9617	28.8583	12.4186	17.3594	-53.7153	0
0.4747	434.335	2.68943	2.49975	34.2226	-54.7081	36.1962	7.23034	-4.90851	-34.4734	-0.32049
0.4753	313.171	-9.20924	-5.43215	58.3272	-75.1412	-0.431641	-16.5692	-40.3216	-4.56516	-0.32049
0.4760	249.076	-15.9328	-8.48473	72.9777	-69.3555	-81.6109	-40.6842	-66.2529	23.2098	0
0.4767	235.979	-17.7665	-9.08564	79.0897	-13.8052	-181.104	-64.1766	-80.5953	36.6066	0
0.4773	176.449	-18.0925	-8.17227	69.3151	16.4051	-257.998	-83.1033	-88.5447	40.2758	0
0.4780	162.122	-20.5374	-9.08564	50.0863	13.0362	-244.864	-77.0019	-94.0278	36.308	0
0.4787	167.916	-27.2202	-15.1908	32.0937	70.1245	-150.889	-56.5478	-101.355	26.239	0
0.4793	83.9779	-36.7147	-24.3485	21.4034	172.363	-69.71	-45.8724	-108.993	20.1379	0.32049
0.4800	-3.88933	-42.7863	-29.5403	18.9541	223.007	-19.948	-39.7627	-107.772	26.239	0
0.4807	-31.3528	-41.8898	-28.9154	20.1902	212.021	14.2133	-31.8351	-98.9124	39.6785	0.32049
0.4813	-94.5346	-40.6674	-28.627	18.9541	160.755	8.72531	-25.4266	-84.8812	47.9129	0
0.4820	-155.891	-40.6674	-28.627	14.0782	97.5883	-6.22796	-16.2704	-65.343	60.4138	0
0.4827	-137.555	-36.3887	-24.9494	6.75295	43.576	45.3531	0.821819	-43.6737	77.5225	0.32049
0.4833	-109.774	-31.8249	-22.8102	-3.02166	-14.0981	93.5735	18.8271	-27.5116	61.0537	-0.961469
0.4840	-106.441	-31.4989	-24.661	-10.0264	-64.7781	75.5679	38.3598	-21.0946	31.1455	-1.92294
0.4847	-96.3602	-29.0539	-22.8102	-8.51559	-90.0815	108.218	65.5214	-14.9889	34.772	-0.32049
0.4853	-76.8342	-22.0451	-16.1042	-10.6445	-49.8012	191.217	72.2287	-6.75219	47.6142	0.640979
0.4860	-74.3736	-13.2026	-7.57136	-20.3962	40.8296	231.514	62.7737	1.48452	47.6142	0.32049
0.4867	-21.2723	-5.5826	0.985479	-22.548	74.3722	269.035	65.5214	15.2283	47.6142	0
0.4873	106.282	-0.977973	5.55233	-15.5204	44.4915	328.232	60.026	28.6609	45.7796	-0.32049
0.4880	102.313	1.46696	6.4657	-13.071	6.62795	318.489	38.667	35.6765	36.6066	-0.32049
0.4887	-15.7955	1.46696	5.55233	-15.8179	-10.4363	139.327	14.552	37.1849	22.2712	0.32049
0.4893	-57.6256	-0.977973	2.21132	-13.3915	1.13517	-8.04702	-8.3344	36.2751	0	0
0.4900	-67.984	-4.36013	-2.98047	-2.40359	6.95752	84.7249	-13.5227	35.3652	-25.6417	0
0.4907	-88.7403	-5.86784	-4.51878	3.09034	-9.22787	124.097	-0.705602	35.3652	-50.6435	0
0.4913	-79.5726	-6.47907	-4.20631	-3.93732	-36.3988	-119.133	10.584	31.7018	-75.9865	0
0.4920	-61.5547	-6.47907	-3.89384	-10.9421	-78.1805	-349.845	9.06491	27.1285	-87.2928	0
0.4927	-61.5547	-5.86784	-3.29294	-13.9866	-128.568	-297.37	-11.3892	23.7763	-81.4903	0
0.4933	-68.3015	-6.47907	-2.98047	-14.3071	-163.355	-163.407	20.0474	23.4651	-73.8533	0
0.4940	-71.6352	-6.47907	-3.60541	-12.1553	-167.932	-173.15	125.024	26.5059	-64.083	0
0.4947	-72.548	-6.19383	-4.51878	-13.689	-134.976	-167.97	159.516	29.2595	-54.014	-0.32049
0.4953	-73.7783	-7.41629	-5.72059	-18.5649	-82.7578	-39.8034	107.326	32.6116	-49.4488	-0.32049
0.4960	-78.3423	-11.0429	-9.08564	-23.7612	-39.7311	68.2301	59.7188	32.3243	-47.3156	-0.32049
0.4967	-84.4541	-13.4879	-12.7391	-24.6769	-24.7907	80.4393	38.667	25.5961	-41.8118	0
0.4973	-86.0019	-11.0429	-10.9124	-21.6323	-19.9205	40.4509	41.4064	20.4002	-33.5774	0
0.4980	-78.6598	-6.47907	-6.03305	-21.6323	59.1389	48.0971	44.4612	24.9975	-28.9696	0.32049
0.4987	-64.6106	-4.03414	-2.37957	-18.8854	173.572	102.422	34.3919	39.0286	-26.239	0
0.4993	-50.601	-3.42291	-0.841263	-12.1553	206.821	109.729	23.4011	52.7485	-23.2098	0
0.5000	-43.8542	-5.5826	-2.668	-10.0264	195.836	103.316	16.0794	54.2809	-21.3752	0
0.5007	-42.6636	-8.31277	-4.51878	-10.6445	177.527	130.479	5.09694	49.109	-19.5406	-0.32049
0.5013	-41.4333	-7.70154	-4.20631	-10.0264	124.137	128.043	-13.2155	44.823	-13.7382	0
0.5020	-42.6636	-5.5826	-4.51878	-5.15056	54.8545	9.34194	-27.56	33.8328	-5.5038	0
0.5027	-45.9973	-4.36013	-5.72059	1.87709	-2.52668	-186.284	-36.4091	22.2439	2.13325	-0.32049
0.5033	-46.9101	-4.36013	-8.17227	5.53971	-59.2854	-248.224	-49.5333	18.5805	4.90649	0
0.5040	-45.0845	-4.64537	-9.68654	7.05054	-121.83	-150.581	-55.6346	13.3847	3.37054	0.32049
0.5047	-42.0286	-2.52643	-8.17227	7.05054	-159.071	-53.5234	-52.8869	11.2536	2.73057	-0.32049
0.5053	-37.1471	-0.977973	-6.94643	5.21923	-156.031	6.90625	-56.5478	14.0072	6.10111	-0.32049
0.5060	-32.2656	-0.36674	-6.63396	2.47227	-147.792	-31.2631	-58.9966	13.0973	11.9036	0.32049
0.5067	-28.2969	2.07819	-2.668	1.87709	-153.578	-140.807	-49.8404	17.3594	21.6739	0.32049
0.5073	-26.4713	3.30066	-0.841263	7.66861	-139.224	-163.993	-47.0927	22.5552	33.5774	0
0.5080	-24.3282	2.36343	-1.75463	13.4601	-95.2814	-112.134	-54.7215	23.4651	40.9158	0
0.5087	-20.677	3.91189	0.0721082	11.0336	-63.8627	-40.4201	-53.1941	27.4397	38.7399	0
0.5093	-20.677	3.91189	-0.55283	5.8373	-52.8771	26.4226	-50.1392	28.3496	31.4442	0
0.5100	-21.9073	1.46696	-3.29294	6.75295	-39.7311	64.5611	-51.6667	25.2848	27.775	0
0.5107	-22.5026	3.30066	-1.15373	11.3312	-18.3825	102.114	-45.8724	27.4397	26.239	0
0.5113	-23.4154	6.03083	0.384577	11.6288	3.29567	132.02	-37.0233	29.2595	25.3431	0
0.5120	-21.5898	5.4196	-1.4662	7.66861	17.6135	100.295	-31.2208	27.1285	30.2069	0
0.5127	-19.7642	4.52312	-1.75463	6.75295	23.7288	-7.1529	-33.0554	26.2186	38.4412	-0.32049
0.5133	-18.2561	3.91189	-0.841263	10.7132	21.8979	-109.082	-46.4784	23.4651	51.5821	-1.92294
0.5140	-13.9699	3.30066	-1.4662	15.6119	20.6895	-105.721	-55.0287	20.7115	72.0187	-1.92294
0.5147	-9.68365	2.68943	-2.0671	11.6288	25.8527	-34.3154	-47.0927	19.8016	88.4874	0
0.5153	-5.71494	2.07819	-1.4662	3.09034	25.2668	7.49205	-34.2757	17.958	100.092	0.32049
0.5160	-3.88933	1.7522	-1.4662	4.00599	52.1081	12.7026	-27.2528	17.0481	122.705	0
0.5167	-5.43713	1.14097	-2.98047	7.66861	124.43	-50.1628	-22.6789	15.5396	146.811	0.32049
0.5173	-5.71494	0.244493	-2.98047	0.961438	165.955	-167.353	-16.5692	12.4748	148.944	0
0.5180	-0.833429	0.244493	-2.0671	-11.8577	160.755	-202.162	-13.8298	10.0325	105.895	-0.32049
0.5187	5.27838	0.529735	-2.37957	-22.2275	143.069	-154.527	-13.2155	8.81137	35.1134	0
0.5193	8.92959	0.529735	-2.0671	-30.4684	110.698	-111.517	-5.89385	6.68036	-20.7352	0
0.5200	11.3505	2.07819	-0.55283	-38.4117	68.8794	-84.0466	12.1115	6.99163	-109.863	0
0.5207	11.9855	3.30066	0.384577	-44.5237	23.1063	-64.5303	27.9833	8.81137	-220.024	0.32049
0.5213	11.3505	3.91189	0.985479	-45.1189	-12.5968	-43.1641	33.4787	9.72124	-229.496	0
0.5220	12.2633	5.4196	0.985479	-40.243	-40.0607	-15.6932	38.667	11.2536	-155.045	0.32049
0.5227	14.1286	6.03083	0.67301	-28.3395	-60.4938	-0.431641	42.635	10.3438	-92.4553	0.32049
0.5233	13.4936	5.4196	0.67301	-12.4758	-40.3536	3.2373	37.7456	7.27896	-61.6511	0
0.5240	10.1599	4.80837	0.0721082	-6.3638	-8.01945	19.7013	29.2036	5.45922	-46.6756	0.32049
0.5247	6.78649	3.5859	-1.15373	-8.81318	-3.11257	33.4521	23.7082	2.70566	-41.2145	0.32049
0.5253	4.96088	2.68943	-2.37957	-8.51559	7.87298	41.0675	18.8271	1.17325	-36.9053	0
0.5260	1.90498	2.07819	-2.98047	-0.572284	26.7681	59.9981	13.946	1.17325	-24.7031	0
0.5267	-1.46842	1.7522	-3.89384	5.21923	21.2754	73.7181	13.6389	0.263383	-5.20514	0.32049
0.5273	-2.06373	1.46696	-4.51878	9.79751	13.0362	82.5667	18.2128	0.574654	20.7352	0.32049
0.5280	-1.74623	2.36343	-2.668	22.6167	29.5145	92.9569	14.8591	1.48452	57.9819	0.32049
0.5287	-4.20683	2.97467	-0.841263	22.6167	43.869	100.881	4.1755	1.17325	107.132	-0.32049
0.5293	-7.54054	2.97467	0.384577	6.45537	31.968	105.783	0.514674	1.17325	153.21	0
0.5300	-7.54054	4.80837	3.43716	1.87709	8.45888	90.2129	0.514674	3.01694	169.978	0.32049
0.5307	-3.57184	6.92731	6.77817	10.118	-5.85896	45.0448	-3.14615	5.14795	107.729	0
0.5313	2.81778	7.53854	7.09064	3.7084	-11.9743	-9.8969	-0.0913132	6.99163	-10.3676	0
0.5320	8.92959	7.2533	4.95143	-15.5204	-22.0443	-68.785	10.584	8.81137	-86.3541	0
0.5327	12.5808	7.86453	4.35053	-8.81318	-28.4526	-104.18	19.7403	9.72124	-99.495	0
0.5333	10.4377	9.087	6.17727	19.2745	-26.9146	-71.2207	24.0154	11.2536	-75.3892	0
0.5340	6.46899	9.69823	7.69154	33.925	-26.9146	-23.9252	20.6617	13.6959	-34.772	0.32049
0.5347	8.92959	9.37224	7.09064	36.3515	-29.9906	-16.8956	10.2852	14.0072	-13.4395	0.32049
0.5353	16.867	8.47577	6.17727	28.7287	-34.2383	-15.6932	2.95523	13.0973	-29.9082	0.32049
0.5360	23.8916	8.47577	6.4657	4.00599	-36.9847	-14.46	2.34924	13.0973	-61.0111	0
0.5367	29.3684	8.14977	5.8648	-15.2228	-28.4526	-15.6932	-1.01275	12.4748	-80.8503	0.32049
0.5373	37.6233	7.53854	5.55233	-16.436	-19.5909	-11.0993	-8.64155	11.8762	-82.9836	0
0.5380	49.212	8.14977	6.4657	-13.071	-21.4218	-6.84459	-13.2155	14.3185	-71.72	0
0.5387	58.0622	8.14977	6.77817	-10.0264	-21.7514	-3.48396	-13.2155	15.8269	-46.377	0.32049
0.5393	61.1181	7.2533	5.55233	-6.3638	-14.0981	0.801618	-10.1607	14.3185	-20.1379	0.32049
0.5400	59.2925	6.92731	5.2639	-2.40359	-4.02804	5.05636	-5.27956	13.3847	-4.26651	0.32049
0.5407	55.6016	7.53854	5.55233	4.00599	2.9661	5.36468	0.20753	13.0973	24.7031	0.32049
0.5413	49.8073	6.92731	5.55233	11.0336	5.41954	1.10993	3.56952	12.1635	53.118	0.32049
0.5420	43.6955	6.31608	4.95143	12.5445	5.71249	1.38742	6.31721	12.1635	46.0783	0
0.5427	40.0443	6.31608	4.63896	6.75295	1.75769	9.03362	10.2852	11.5649	20.4366	0.32049
0.5433	38.5361	6.64207	5.55233	-2.40359	-0.695752	15.7549	10.2852	9.72124	3.96785	-0.640979
0.5440	35.1627	8.47577	8.60492	-9.72883	1.75769	18.4989	8.14348	10.3438	-6.69842	-0.961469
0.5447	23.5741	9.087	9.83076	-9.43125	-0.9887	19.393	13.946	13.3847	-10.6663	0.32049
0.5453	5.55619	7.53854	8.31648	-3.93732	-10.4363	16.3715	19.4414	13.3847	3.37054	0.32049
0.5460	-9.68365	6.92731	7.40311	-1.48794	-12.5968	19.7013	16.3866	11.5649	21.6739	0
0.5467	-19.1689	6.03083	6.17727	-3.61684	-6.77442	31.9106	14.2532	9.72124	38.1426	0
0.5473	-28.0191	3.91189	4.03806	-4.53249	-5.56601	30.3998	18.52	5.77049	58.9205	0.32049
0.5480	-34.7262	2.97467	4.03806	-1.78553	-5.56601	22.1678	23.7082	1.7958	70.8241	0
0.5487	-36.2343	2.97467	4.95143	-0.572284	2.05064	26.4226	21.2677	-1.24508	64.6803	0
0.5493	-33.8134	2.36343	3.12469	-0.572284	19.1515	24.6035	15.4734	-3.68737	48.5102	0
0.5500	-27.1063	1.14097	-0.240361	9.20233	46.9083	13.3192	15.1663	-3.68737	14.0368	0
0.5507	-18.5339	0.529735	-0.240361	28.7287	70.7104	15.1383	12.4186	-2.7775	-41.5131	0
0.5513	-11.2314	0.855726	2.81222	39.0985	73.1638	4.43973	7.23034	-2.7775	-79.6557	0
0.5520	-5.43713	1.7522	5.2639	30.56	59.4318	-33.3905	6.31721	-1.86763	-57.0859	0
0.5527	-2.38122	1.46696	4.95143	25.6841	45.407	-48.0354	4.78979	-3.08877	-4.86382	0.32049
0.5533	-2.65903	-0.0814977	2.21132	17.7408	56.9784	-41.6225	1.12896	-7.35079	13.1408	0.32049
0.5540	-4.52433	-0.692731	-0.55283	-8.19511	91.8026	-51.7044	-3.14615	-9.50574	10.6663	0
0.5547	-4.80214	-0.36674	-0.240361	-12.1553	115.605	-56.5758	-8.02726	-8.8832	31.1455	0.32049
0.5553	-3.57184	-1.30396	1.29795	8.58426	123.844	-43.7499	-7.72012	-8.2846	59.8165	0.32049
0.5560	-1.15093	-1.30396	3.12469	18.0384	115.605	-33.6988	0.20753	-8.57193	73.5546	0
0.5567	2.50029	3.30066	5.2639	18.9541	86.8957	-7.1529	9.06491	-9.19447	83.0263	0.32049
0.5573	4.96088	9.69823	4.35053	18.3589	53.6461	63.9753	10.2852	-11.6368	78.7598	0.32049
0.5580	5.27838	14.2621	2.49975	14.6963	24.3513	121.63	1.73495	-11.0142	37.8439	0
0.5587	7.10399	18.2555	2.49975	10.7132	-5.85896	115.834	-4.98072	-1.86763	-16.7674	0
0.5593	10.1599	21.8821	0.384577	6.45537	-32.1144	154.003	-3.4533	9.43391	-34.1747	0.32049
0.5600	15.9542	25.8755	0.384577	7.05054	-43.3929	255.624	-2.23302	23.4651	-16.7674	0.32049
0.5607	22.3438	22.2081	3.12469	13.1625	-49.5082	212.275	-8.02726	43.0033	-20.1379	0.32049
0.5613	26.3125	-1.9152	2.21132	18.0384	-55.294	73.1323	-15.3489	56.4119	-41.2145	0
0.5620	30.8765	-16.544	0.67301	20.7854	-54.3785	67.3359	-19.624	60.0753	-36.9053	0
0.5627	37.6233	0.244493	0.67301	22.0215	-47.9702	88.0855	-22.3717	61.6077	-14.0368	0
0.5633	40.3618	5.09361	5.2639	21.4034	-41.8916	21.5512	-20.5372	42.3808	0.938632	0.32049
0.5640	39.7268	-8.63876	10.7441	21.1058	-41.2691	-45.5998	-15.6561	-0.335215	6.39976	0.32049
0.5647	39.7268	-11.9802	9.22985	20.4878	-45.2239	-99.9248	-17.1835	-24.4468	4.56516	0
0.5653	36.9884	-5.2566	9.51829	14.6963	-41.562	-132.575	-21.1515	-18.6523	-1.23729	0
0.5660	31.5115	2.07819	17.1618	12.2469	-29.661	-110.284	-23.2849	-11.0142	-2.43191	0
0.5667	27.8603	1.7522	18.9885	20.4878	-16.2586	-76.1229	-26.9457	-8.2846	8.87434	0
0.5673	28.1381	1.46696	18.9885	9.20233	-5.85896	-53.2151	-25.4266	5.45922	28.0736	-0.32049
0.5680	29.9637	9.087	29.973	-25.8901	-0.366185	-34.9012	-14.4358	29.2595	39.3799	-0.32049
0.5687	29.3684	7.86453	31.5113	-34.7491	-3.73509	-21.1812	-4.36643	56.1246	41.2145	0
0.5693	27.8603	5.70484	13.1958	-17.3517	-10.1433	9.95857	-3.75214	86.0306	42.7078	0
0.5700	30.5987	-7.0903	-5.11968	-10.6445	-11.3517	62.7421	-2.83901	111.962	23.8071	0
0.5707	33.9324	-47.0649	-22.5218	-11.8577	-10.1433	99.3698	1.12896	133.631	-28.6709	0
0.5713	37.9012	-52.8513	-25.5744	-5.44815	-7.10399	89.5963	-0.0913132	146.154	-61.6511	-0.32049
0.5720	45.2433	-4.64537	-1.15373	-1.19035	-4.65055	68.5384	-2.53187	125.394	-47.9129	0.32049
0.5727	51.0376	21.8821	12.5709	-0.869872	-11.9743	71.2824	-4.05929	72.598	-26.5377	0.32049
0.5733	51.9504	13.0396	8.00401	10.118	-20.8359	76.4621	-6.49984	8.21277	-16.1701	-0.961469
0.5740	48.2992	12.1432	11.3691	19.8697	-22.3373	63.9753	-2.83901	-39.4117	-6.69842	-0.640979
0.5747	41.2746	17.3183	11.0566	10.7132	-25.0837	47.1722	10.8912	-44.5836	1.23729	0.32049
0.5753	36.7105	16.707	4.03806	-12.7734	-26.6217	49.9162	24.9285	-32.9947	3.37054	0.32049
0.5760	34.8453	15.1993	4.63896	-21.3119	-9.85038	64.2836	31.337	-33.6173	1.8346	0
0.5767	30.8765	9.37224	7.09064	-0.572284	18.529	78.0036	27.9833	-34.8145	0	0
0.5773	25.3997	6.64207	5.8648	18.9541	35.6298	92.032	24.3225	-30.5525	0.298656	0.32049
0.5780	22.3438	14.5881	3.43716	16.5276	46.3224	63.9753	27.0702	-24.758	1.23729	0
0.5787	23.8916	18.8667	2.21132	-2.70118	53.3166	-25.4668	30.731	-9.50574	1.23729	0
0.5793	27.8603	14.2621	6.77817	-24.0588	46.3224	-106.924	29.5108	1.7958	3.96785	0
0.5800	29.9637	13.6509	9.22985	-29.2552	39.2917	-147.22	23.4011	-15.3002	6.39976	0.32049
0.5807	29.9637	17.6443	6.17727	-23.7612	52.7307	-142.935	15.1663	-32.6835	5.5038	0
0.5813	26.9475	14.5881	5.55233	-19.801	59.4318	-106.338	5.09694	-28.4214	7.3384	-0.32049
0.5820	21.7485	7.53854	4.95143	-16.1384	42.9535	-90.1512	-4.05929	-35.1258	11.3062	0
0.5827	18.0973	5.09361	7.40311	-12.7734	21.2754	-85.5573	-3.4533	-45.8047	12.5009	0.32049
0.5833	18.6926	5.4196	21.1277	-14.3071	3.29567	-63.6053	1.43611	-25.6679	12.7995	0.32049
0.5840	20.8357	7.53854	32.7131	-18.8854	-15.9291	-42.8558	0.20753	2.70566	12.2022	0
0.5847	19.0101	15.4846	36.3906	-14.9023	-39.1452	-28.7966	-1.61873	-5.21978	11.0076	0
0.5853	12.8983	19.7632	32.1122	-5.76863	-55.6235	-15.0766	-4.36643	-31.175	10.069	0
0.5860	1.90498	7.53854	14.4216	-6.3638	-64.1556	-9.28027	-7.42127	-19.2509	8.87434	0
0.5867	-8.17554	-5.5826	-12.4507	-12.7734	-72.6877	-7.46122	-7.11413	22.2439	9.17299	0
0.5873	-9.40584	-9.82048	-29.5403	-13.3915	-73.3103	-1.94238	-6.49984	53.0598	10.069	0
0.5880	-3.88933	-2.52643	-22.5218	4.62406	-66.2795	3.54562	-9.24754	70.467	10.3676	0
0.5887	2.81778	26.1608	-6.34552	33.6045	-59.5783	7.80036	-11.6881	87.2517	10.6663	0.32049
0.5893	6.78649	37.163	-1.15373	39.7165	-47.9702	6.28962	-13.5227	113.183	9.77031	0.32049
0.5900	9.24709	4.80837	-9.68654	20.7854	-34.2383	0.493304	-14.1286	133.631	7.03974	0
0.5907	11.3505	-11.0429	-21.6084	7.37102	-25.9991	0.801618	-10.1607	132.099	6.69842	0
0.5913	15.6367	7.2533	-24.3485	4.30358	-19.9205	2.62068	-7.72012	104.036	17.4074	0
0.5920	19.9229	11.5319	-25.8628	2.17468	-16.2586	3.2373	-6.201	50.6175	32.9801	0.32049
0.5927	18.0973	-8.02753	-31.0546	0.961438	-15.6361	4.74805	-6.201	-1.24508	40.9158	-0.32049
0.5933	16.232	-17.1553	-20.3826	2.79275	-15.3432	3.85393	-8.64155	-39.699	37.5453	-0.32049
0.5940	17.4623	1.7522	-3.60541	4.62406	-13.8052	2.62068	-6.201	-69.0064	19.8393	-0.32049
0.5947	12.2633	21.8821	-1.75463	8.58426	-10.7658	2.00405	-1.92588	-92.8067	-3.6692	-0.32049
0.5953	3.13528	23.4306	-7.25889	18.9541	-9.85038	0.493304	-3.4533	-101.043	-10.6663	0
0.5960	-1.74623	17.6443	-6.63396	33.925	-10.4363	-1.04827	-5.58671	-88.5447	-8.23436	0
0.5967	-2.38122	13.6509	-0.55283	48.5526	-10.1433	-2.55901	-4.98072	-77.2431	7.63705	0
0.5973	-1.15093	12.1432	3.43716	58.9453	-9.85038	-4.68638	-4.36643	-78.7755	49.4488	0
0.5980	-1.74623	11.2059	5.2639	60.4561	-8.93492	-4.4089	-3.75214	-70.5388	32.3401	-0.32049
0.5987	-3.29403	7.86453	6.77817	55.2827	-7.39694	-4.4089	-2.53187	-51.3119	-47.3156	0
0.5993	-7.26273	1.7522	4.35053	48.5526	-7.39694	-6.53627	-2.83901	-40.9202	-55.8486	0
0.6000	-13.3745	-3.13766	-1.75463	50.3839	-8.3124	-6.84459	-3.75214	-37.8793	-21.0339	0
0.6007	-18.8514	0.529735	-8.48473	41.5478	-7.68989	-5.61133	-2.53187	-37.568	-28.0736	0
0.6013	-21.2723	7.86453	-10.9124	-14.3071	-6.77442	-1.35658	0.821819	-37.2568	-36.9053	0
0.6020	-22.2248	8.14977	-6.63396	-59.1742	-4.65055	6.59794	5.09694	-34.2159	-33.2788	0
0.6027	-23.4154	3.5859	-2.98047	-37.4961	-3.11257	7.49205	4.48265	-28.4214	-39.3799	0
0.6033	-25.241	3.30066	-4.20631	-11.2397	-4.02804	2.31236	-1.31159	-22.627	-39.0386	-0.32049
0.6040	-26.7888	4.80837	-8.77317	-17.3517	-4.3576	0.801618	-3.14615	-19.5622	-20.1379	-0.32049
0.6047	-28.2969	6.31608	-18.5559	-29.5528	-4.02804	2.00405	-0.0913132	-17.1199	-10.9649	0
0.6053	-30.44	5.70484	-29.5403	-29.2552	-2.81963	5.36468	1.43611	-24.758	-25.9404	0
0.6060	-30.7575	-5.5826	-27.7136	-20.0986	-1.61121	9.34194	1.73495	-36.9694	-39.6785	0
0.6067	-28.6144	-14.7103	-10.9124	-13.3915	-1.90416	8.41699	0.514674	-22.9143	-33.8761	0
0.6073	-26.7888	-15.3216	1.29795	-10.0264	-2.81963	6.28962	-1.61873	3.32821	-24.4044	0
0.6080	-24.6457	-17.4813	-0.841263	-8.51559	-3.11257	5.98131	-0.0913132	6.99163	-25.9404	0
0.6087	-20.677	-14.7103	-3.60541	-4.85297	-2.19711	5.67299	3.26237	-9.79307	-21.0339	0
0.6093	-17.0258	-5.86784	0.0721082	-3.31925	-0.366185	6.28962	4.1755	-36.6582	-6.69842	0
0.6100	-17.0258	-0.0814977	1.58638	-19.801	0.219711	8.10868	3.26237	-54.664	-4.56516	0
0.6107	-18.8514	-0.36674	-1.75463	-37.1985	-0.9887	8.10868	0.821819	-47.6484	-10.9649	-0.32049
0.6113	-17.0258	-3.42291	-2.98047	-32.9178	-1.90416	6.90625	1.12896	-28.7327	-8.83167	0
0.6120	-13.3745	-5.2566	-2.0671	-28.3395	-0.695752	6.28962	2.34924	-12.2354	-5.80245	0
0.6127	-12.1442	-6.19383	-4.80722	-27.7215	2.05064	5.67299	1.12896	-1.24508	-5.80245	0
0.6133	-11.2314	-6.19383	-6.94643	-19.183	4.50408	5.36468	1.43611	3.92681	-4.86382	0.32049
0.6140	-10.0011	-4.36013	-6.34552	-8.19511	4.21113	3.54562	3.26237	8.21277	-2.43191	0
0.6147	-9.40584	-3.7489	-5.43215	4.62406	3.88156	0.801618	2.95523	14.0072	0.597311	0
0.6153	-9.68365	-5.2566	-6.03305	14.9938	4.79703	-0.431641	3.26237	16.1382	1.53594	0
0.6160	-10.3186	-6.47907	-8.17227	17.7408	3.88156	-1.94238	3.56952	8.81137	2.13325	0
0.6167	-10.0011	-3.42291	-7.8598	19.2745	2.67315	-2.2507	2.34924	-5.84232	4.56516	0
0.6173	-6.94524	1.7522	-4.20631	17.4432	2.3802	0.493304	2.04209	-18.9636	8.87434	0.32049
0.6180	-3.57184	0.855726	-0.55283	3.38792	0.549278	2.00405	1.73495	-11.948	16.4687	0.32049
0.6187	0.67468	-3.13766	3.43716	14.9938	-1.28165	3.85393	1.43611	11.2536	21.6739	0.32049
0.6193	8.61209	-1.9152	8.00401	59.5405	-1.90416	4.74805	0.821819	24.0637	21.6739	0
0.6200	13.4936	3.30066	11.6575	54.6646	-3.73509	4.16225	-0.0913132	24.6862	26.5377	0
0.6207	12.5808	9.087	13.5083	1.25903	-4.65055	5.98131	1.43611	20.1129	31.7428	0.32049
0.6213	11.3505	13.3656	10.1432	-40.243	-4.65055	6.59794	2.95523	15.8269	21.6739	0.32049
0.6220	13.1761	13.0396	5.8648	-83.874	-2.52668	5.05636	2.04209	20.7115	8.53302	0
0.6227	15.6367	15.1993	5.8648	-103.423	-0.073237	3.85393	1.43611	30.7919	9.47165	0
0.6233	16.232	24.9383	1.58638	-76.8692	-0.695752	3.2373	1.12896	34.7426	0.597311	0
0.6240	16.5495	33.7808	-1.75463	-52.1465	-0.695752	4.43973	0.821819	34.7426	-29.9082	0.32049
0.6247	18.3751	37.4482	7.09064	-39.0298	0.219711	5.98131	2.34924	39.6272	-51.8807	0.32049
0.6253	17.4623	36.2257	12.5709	-27.4239	-0.366185	4.43973	2.95523	41.7822	-44.2437	0
0.6260	11.668	21.8821	3.72559	-19.801	-1.90416	2.92899	1.12896	40.2498	-13.7382	0
0.6267	4.32589	-6.19383	-7.25889	-15.2228	-2.52668	2.62068	-1.01275	29.5708	20.7352	0
0.6273	-2.06373	-31.8249	-9.68654	-13.071	-2.52668	0.493304	-1.01275	-5.21978	42.4091	0.32049
0.6280	-7.54054	-32.4361	-6.03305	-12.7734	-1.61121	-1.63407	-0.0913132	-35.1258	54.3127	0.32049
0.6287	-11.5093	-16.544	-1.4662	-10.9421	-0.366185	-3.17564	0.514674	-42.7639	61.9497	0
0.6293	-13.9699	-10.7577	2.21132	-9.11077	-0.366185	-4.9947	0.514674	-35.7483	42.7078	0
0.6300	-13.9699	-11.9802	3.72559	-10.9421	-0.073237	-4.68638	0.20753	-0.646486	0	0.32049
0.6307	-10.9139	-7.0903	2.49975	-15.2228	1.46474	-2.86733	1.12896	30.1694	-40.5745	0
0.6313	-6.34993	1.46696	2.49975	-16.7336	2.05064	-0.431641	1.73495	7.9015	-75.3892	0
0.6320	-0.238122	6.92731	1.58638	-14.3071	3.58861	3.85393	5.39578	-34.5272	-81.4903	0.32049
0.6327	6.19118	5.09361	-2.668	-10.9421	5.12659	7.80036	8.75777	-43.0751	-61.0111	0
0.6333	12.5808	-1.9152	-1.15373	-8.51559	3.88156	8.72531	4.48265	-20.7833	-56.1473	-0.640979
0.6340	20.2007	-4.36013	6.17727	-9.43125	3.29567	9.03362	-1.61873	-0.335215	-54.6113	-0.640979
0.6347	26.3125	-3.42291	9.83076	-3.93732	3.58861	8.72531	-1.31159	13.6959	-34.1747	0
0.6353	31.194	-4.03414	11.3691	13.4601	3.58861	8.72531	1.43611	33.8328	-20.4366	0
0.6360	35.7977	-0.36674	15.0225	22.0215	2.05064	8.72531	0.514674	47.8879	-18.9006	-0.32049
0.6367	39.7268	4.52312	19.5894	15.6119	-0.073237	12.3943	-1.01275	49.109	-14.3355	0
0.6373	43.1002	10.9207	23.8678	10.4156	-1.28165	17.8823	0.20753	49.109	-8.53302	0.32049
0.6380	42.7827	22.2081	23.8678	11.3312	-1.90416	20.3179	-0.0913132	43.9132	-12.2022	0
0.6387	36.9884	24.6531	20.5268	12.865	-2.19711	21.5512	-1.92588	32.6116	-24.1058	0
0.6393	33.0196	20.0484	14.7101	13.4601	-1.28165	15.7549	-1.92588	25.5961	-26.8363	0.32049
0.6400	34.2499	19.7632	10.4557	14.0782	-0.9887	-0.123326	-1.31159	30.1694	-18.602	0.32049
0.6407	35.7977	26.4868	18.676	16.2071	-2.52668	-10.791	-1.61873	38.7173	-11.6049	0
0.6413	35.4802	31.6619	20.2143	18.0384	-3.44214	-10.5135	-0.0913132	45.1343	0.298656	0
0.6420	34.8453	3.30066	8.31648	17.7408	-1.90416	-7.1529	2.04209	51.5273	14.3355	0
0.6427	34.2499	-25.3865	4.35053	18.0384	-0.073237	-3.79227	2.04209	56.1246	16.7674	0
0.6433	31.194	-0.0814977	5.2639	17.7408	0.549278	-1.94238	1.43611	67.4022	10.6663	0
0.6440	27.2253	30.1542	1.89885	16.5276	0.549278	-1.63407	0.20753	71.6881	7.3384	0
0.6447	27.8603	37.163	-0.240361	19.8697	-0.695752	-2.2507	-2.83901	45.4456	20.4366	0
0.6453	30.8765	43.2753	4.03806	22.0215	-1.90416	-2.86733	-4.05929	17.0481	45.1823	0
0.6460	31.5115	20.6597	7.40311	18.0384	-1.28165	-2.2507	-2.53187	10.6551	57.0859	-0.32049
0.6467	31.5115	-31.2136	4.63896	14.9938	-0.9887	-1.35658	-2.23302	12.7861	48.8515	0
0.6473	31.194	-40.0561	3.12469	8.88185	-1.90416	-1.63407	-3.75214	14.6058	30.2069	0.32049
0.6480	29.9637	-1.9152	6.77817	-3.93732	-2.19711	-1.63407	-5.89385	14.6058	7.03974	0.32049
0.6487	28.1381	19.7632	12.8833	-10.3469	-1.90416	0.184989	-5.89385	3.32821	-20.1379	0
0.6493	27.5428	15.1993	19.5894	-11.5601	-0.9887	0.493304	-4.67358	-7.06346	-25.9404	-0.32049
0.6500	26.9475	-32.4361	22.9545	-14.3071	0.219711	-0.739955	-4.36643	3.92681	11.3062	-0.32049
0.6507	23.5741	-113.893	18.3876	-8.19511	2.3802	-0.739955	-2.83901	11.5649	53.7153	0
0.6513	20.5182	-195.676	6.4657	3.09034	3.88156	0.493304	-2.53187	9.43391	66.5149	0
0.6520	20.2007	-290.621	-1.75463	12.865	4.21113	1.69573	-3.4533	10.3438	68.0508	0
0.6527	18.0973	-371.181	5.2639	18.9541	4.21113	3.54562	-1.01275	15.2283	59.8165	0.32049
0.6533	14.4064	-413.275	22.9545	23.2347	2.67315	3.2373	0.20753	41.4709	24.4044	0.32049
0.6540	15.3192	-436.461	32.1122	27.813	0.842226	1.38742	-0.398458	66.4923	3.07189	0
0.6547	21.1135	-364.458	22.9545	23.8528	-0.073237	3.2373	2.34924	59.4767	-0.298656	0
0.6553	28.4556	-131.904	9.22985	16.2071	-1.28165	7.21457	2.04209	40.2498	-13.4395	0.32049
0.6560	33.9324	114.667	13.1958	14.9938	-2.81963	6.59794	-2.23302	28.3496	8.53302	0.32049
0.6567	33.9324	265.438	22.642	14.0782	-3.73509	3.54562	-2.83901	14.0072	45.481	0
0.6573	27.2253	306.635	12.2824	5.21923	-4.65055	1.69573	-3.75214	-5.21978	18.9433	0.32049
0.6580	18.3751	258.103	-6.94643	-13.3915	-4.3576	2.92899	-5.27956	-5.21978	-25.9404	0
0.6587	11.0727	213.239	-11.8257	-27.7215	-2.81963	4.43973	-4.05929	16.4495	-30.8042	-0.32049
0.6593	6.46899	179.377	-7.8598	-24.0588	-3.44214	4.43973	-2.23302	43.0033	-53.118	0
0.6600	6.78649	140.298	-9.99901	-9.43125	-4.9435	4.43973	-2.53187	48.1752	-90.6207	0.32049
0.6607	9.24709	119.231	-2.668	2.79275	-4.9435	3.85393	-2.83901	27.7271	-73.256	0
0.6613	9.5249	117.438	13.5083	7.37102	-4.3576	2.00405	-2.53187	16.7368	-29.6096	0
0.6620	8.01679	142.743	17.1618	10.4156	-3.73509	1.10993	-2.23302	27.1285	-9.47165	0
0.6627	8.2946	164.422	13.1958	12.865	-2.52668	0.801618	-1.92588	38.1187	-4.56516	0
0.6633	4.04808	112.222	4.95143	11.3312	-2.52668	0.801618	-2.53187	24.3749	-3.6692	0.32049
0.6640	-5.43713	-6.80506	-8.17227	8.28668	-2.19711	1.38742	-5.27956	-13.7678	-8.23436	-0.32049
0.6647	-7.26273	-83.087	-18.5559	5.53971	-1.28165	1.38742	-8.02726	-48.5583	-15.2741	-0.640979
0.6653	0.0793741	-69.3546	-18.2434	2.47227	-0.695752	1.69573	-5.89385	-49.1808	-18.602	0
0.6660	4.04808	-39.1189	-11.8257	0.0457827	-0.073237	1.69573	-1.92588	-29.3313	-18.0047	0
0.6667	0.67468	-78.8083	-5.43215	-0.869872	0.549278	0.184989	-3.14615	-7.06346	-15.2741	0
0.6673	-2.38122	-163.362	-4.20631	-0.869872	0.549278	0.184989	-5.58671	35.9638	-11.3062	0.32049
0.6680	-5.43713	-200.566	-9.39811	-0.274696	-0.073237	0.801618	-4.67358	70.7543	-8.23436	0.32049
0.6687	-5.71494	-144.129	-5.43215	0.961438	3.88156	0.184989	-3.75214	73.8192	-5.80245	0
0.6693	0.396871	-49.2246	8.91738	1.25903	12.4503	-0.739955	-4.05929	74.729	-3.6692	0
0.6700	5.27838	-100.487	10.7441	0.961438	16.698	-3.17564	-3.14615	75.6389	-3.6692	0
0.6707	4.96088	-236.873	4.63896	0.961438	15.4896	-4.9947	-0.398458	36.2751	-3.96785	0
0.6713	4.64339	-187.445	10.7441	1.55661	13.0362	-3.17564	0.821819	-34.8145	-3.96785	0
0.6720	2.50029	-54.3997	12.8833	1.25903	11.2053	-2.55901	-0.0913132	-69.0064	3.07189	0
0.6727	-2.65903	47.2279	4.63896	1.87709	8.45888	-8.35533	-0.0913132	-63.212	13.4395	0.32049
0.6733	-7.26273	235.528	3.72559	2.79275	3.88156	-14.7683	-0.0913132	-54.0415	14.3355	0.32049
0.6740	-14.2873	380.798	-1.4662	1.87709	-1.28165	-17.8206	-1.01275	-25.0693	9.77031	0
0.6747	-26.1538	299.626	-21.6084	0.640958	-5.85896	-18.7455	-1.01275	26.8172	7.3384	0
0.6753	-35.639	122.613	-35.9339	-0.572284	-9.22787	-19.6397	-2.83901	65.8937	5.20514	0
0.6760	-36.2343	18.5407	-22.2093	-1.48794	-9.85038	-18.4372	-2.83901	72.2867	4.90649	0
0.6767	-30.7575	-53.7885	3.12469	-0.869872	-10.1433	-12.0243	0.20753	50.3062	7.93571	0
0.6773	-26.4713	-140.461	-15.1908	0.343371	-12.5968	-3.79227	-0.0913132	-4.62118	8.23436	0.32049
0.6780	-26.1538	-182.555	-70.7382	1.25903	-10.7658	-1.63407	-0.705602	-71.76	10.3676	0.32049
0.6787	-22.5026	-163.036	-93.0196	2.47227	-4.65055	-1.94238	-1.01275	-75.4234	21.6739	0.32049
0.6793	-10.3186	-132.841	-68.2865	4.30358	-0.695752	0.801618	-2.83901	-19.5622	29.6096	0
0.6800	0.396871	-7.70154	-28.9154	6.13489	0.549278	14.5216	-2.53187	26.5059	28.6709	0
0.6807	6.78649	178.765	16.2484	7.66861	1.46474	43.5032	-1.01275	52.7485	31.1455	0
0.6813	12.8983	140.624	50.4277	6.75295	1.13517	55.1267	-2.53187	67.0909	30.2069	-0.32049
0.6820	13.4936	-70.8623	56.2204	5.8373	0.549278	31.0165	-4.36643	58.5669	24.7031	0
0.6827	13.1761	-212.791	46.1493	5.21923	0.219711	5.67299	-4.36643	28.9482	25.6417	0
0.6833	19.6054	-231.087	31.5113	4.00599	1.13517	-0.431641	-3.4533	-28.1102	32.0415	0
0.6840	22.3438	-144.74	11.97	4.92165	2.05064	2.62068	-1.61873	-83.6601	47.3156	0
0.6847	19.0101	-48.2874	-6.63396	-0.572284	0.549278	5.36468	-2.53187	-69.9163	51.8807	0.32049
0.6853	19.9229	26.1608	-9.68654	-17.3517	-2.19711	5.05636	-4.67358	-33.9046	1.23729	0
0.6860	25.7172	126.281	5.8648	-24.6769	-3.11257	4.74805	-4.05929	-29.9539	-49.7475	0
0.6867	26.63	160.428	16.8493	-14.3071	-2.52668	4.16225	-2.53187	0.263383	2.13325	0.32049
0.6873	21.7485	65.2389	7.09064	-4.53249	-0.9887	3.85393	-1.31159	40.8484	78.4184	0
0.6880	17.7798	-101.709	-6.34552	-0.869872	1.46474	4.16225	-0.705602	10.9424	100.732	-0.32049
0.6887	15.9542	-249.709	-5.72059	2.79275	2.3802	3.2373	-1.92588	-59.2373	136.102	0
0.6893	14.1286	-167.926	8.60492	4.00599	2.3802	3.2373	-1.92588	-95.5602	128.166	0.32049
0.6900	9.5249	49.0616	20.8152	0.961438	1.46474	4.43973	-1.92588	-92.4954	0.938632	0
0.6907	1.58748	113.771	22.9545	-1.48794	1.46474	5.05636	-1.61873	-75.1121	-89.7247	0.32049
0.6913	-7.54054	137.242	24.7812	-0.274696	2.3802	5.05636	-0.398458	-62.3021	-68.0508	0.32049
0.6920	-16.113	128.114	36.3906	0.0457827	2.9661	5.05636	-1.61873	-61.6796	-59.2191	0
0.6927	-23.4154	-32.7213	51.6535	-0.869872	3.29567	5.05636	-1.31159	-65.343	-88.4874	0.32049
0.6933	-32.2656	-161.203	31.7997	1.87709	4.79703	5.05636	-2.53187	-71.76	-82.0876	0
0.6940	-36.5518	-208.797	-35.9339	5.21923	6.335	5.36468	-4.05929	-86.1024	-24.7031	-0.32049
0.6947	-35.3215	-260.711	-95.7597	3.38792	6.335	8.10868	0.514674	-87.6109	55.2513	0
0.6953	-34.0912	-158.146	-110.109	-1.19035	5.12659	8.10868	1.73495	-51.3119	125.734	-0.32049
0.6960	-28.6144	158.309	-89.6546	-5.44815	3.88156	4.74805	-1.61873	-5.53105	136.102	-0.32049
0.6967	-19.7642	406.429	-62.4938	-19.801	2.3802	3.54562	-1.01275	44.5118	69.5868	0.32049
0.6973	-13.9699	367.066	-50.2835	-42.3719	0.549278	4.16225	-0.705602	144.621	-52.7767	0
0.6980	-5.43713	246.205	-23.1227	-45.1189	-0.073237	6.28962	0.821819	226.103	-169.978	0
0.6987	10.4377	206.515	53.7687	-28.3395	-1.61121	5.98131	2.65638	201.68	-186.446	0
0.6993	26.63	111	123.978	-17.6492	-4.02804	2.92899	0.20753	101.283	-129.702	0
0.7000	31.829	-16.87	126.117	-12.4758	-5.85896	-0.123326	-1.61873	-34.2159	-86.0555	0
0.7007	22.9788	-46.7797	90.3997	-2.70118	-6.48148	-2.2507	-2.53187	-110.501	-45.1823	0.32049
0.7013	11.0727	44.4978	51.6535	7.9662	-4.65055	-2.55901	-2.83901	-85.7911	-14.6341	0
0.7020	1.30967	148.244	9.83076	10.7132	-2.19711	-1.35658	-1.92588	-67.1627	-16.4687	-0.32049
0.7027	-4.20683	154.968	-23.1227	6.45537	-0.695752	-0.123326	-1.01275	-90.3644	-23.2098	0
0.7033	-3.29403	75.5892	-35.6455	0.343371	-0.695752	1.38742	-1.61873	-104.707	-37.5453	0.32049
0.7040	-1.74623	9.69823	-39.8999	-4.53249	-0.695752	1.38742	-2.23302	-94.9377	-44.5424	0.32049
0.7047	-2.06373	34.1068	-36.5589	-6.06621	-0.366185	0.801618	-1.92588	-70.8262	-10.6663	0.32049
0.7053	1.90498	71.6365	-28.627	-3.31925	0.549278	1.69573	-2.53187	-48.5583	8.53302	0
0.7060	4.64339	91.4812	-23.1227	0.0457827	2.3802	4.16225	-1.01275	-42.7639	-12.2022	0
0.7067	2.81778	118.335	-14.5899	2.79275	2.9661	5.36468	0.20753	-44.8949	-22.2712	0
0.7073	4.04808	97.2676	-6.34552	4.92165	2.3802	5.05636	-1.31159	-40.3216	-7.63705	0.32049
0.7080	7.10399	88.751	-0.55283	5.21923	2.67315	4.43973	-0.705602	-37.2568	4.90649	0.32049
0.7087	8.01679	180.884	3.43716	5.53971	2.67315	2.92899	-1.01275	-34.2159	5.5038	0
0.7093	9.24709	246.816	3.43716	6.13489	2.9661	2.62068	-1.31159	-11.3255	4.26651	0
0.7100	10.1599	171.757	2.49975	4.62406	2.67315	2.62068	-0.705602	10.9424	2.43191	0.32049
0.7107	9.24709	117.112	6.4657	3.09034	1.13517	1.38742	-2.23302	7.27896	-2.73057	0.32049
0.7113	9.84239	133.901	12.5709	3.09034	1.46474	1.38742	-2.53187	6.68036	-5.20514	0
0.7120	11.0727	34.1068	26.9204	2.47227	1.46474	1.38742	-2.23302	14.6058	-4.86382	0.32049
0.7127	6.46899	-122.124	49.2018	0.0457827	2.3802	2.31236	-2.53187	-0.957757	-4.56516	0.32049
0.7133	2.22248	-163.647	60.4988	-3.02166	4.21113	4.16225	-1.01275	-25.6679	-2.43191	0.32049
0.7140	1.30967	-153.868	59.273	-6.06621	4.50408	3.85393	-1.61873	-13.4565	-1.23729	0.32049
0.7147	-6.34993	-174.65	50.4277	-7.59994	5.41954	4.16225	-2.53187	21.334	-1.8346	0.32049
0.7153	-22.8201	-207.29	34.5639	-8.19511	7.25047	4.43973	-2.83901	24.3749	-2.73057	0.32049
0.7160	-37.1471	-266.498	16.5368	-10.3469	9.08139	3.85393	-4.67358	5.45922	-3.02922	0.32049
0.7167	-40.203	-287.565	3.12469	-12.1553	11.2053	5.05636	-2.23302	-1.55636	0.298656	0
0.7173	-35.9565	-241.763	-0.240361	-11.5601	12.1207	5.67299	-0.0913132	0.885926	7.03974	0
0.7180	-28.6144	-311.973	0.985479	-10.6445	12.1207	5.05636	-1.01275	21.9326	11.6049	0.32049
0.7187	-14.5652	-419.387	-11.8257	-8.81318	12.7432	5.67299	-1.31159	55.502	11.9036	0
0.7193	4.04808	-363.847	-56.7011	0.343371	11.2053	5.05636	-2.53187	65.2712	11.6049	0.32049
0.7200	19.6054	-322.038	-129.314	12.5445	10.2898	4.74805	-2.23302	46.3555	12.2022	0
0.7207	29.9637	-514.006	-179.069	12.5445	8.16593	3.2373	-1.61873	33.5215	11.6049	0
0.7213	34.5674	-668.73	-157.1	6.13489	2.9661	0.493304	-2.83901	31.1032	8.87434	0
0.7220	37.6233	-405.329	-66.1473	5.8373	-1.61121	-0.739955	-2.53187	17.3594	7.93571	0
0.7227	46.1561	-20.2114	52.8553	6.45537	-4.02804	-3.17564	-3.4533	16.4495	7.93571	0
0.7233	41.5921	48.7356	137.39	5.53971	-3.11257	-3.48396	-7.11413	30.4806	10.3676	-0.961469
0.7240	15.9542	44.1718	146.86	5.21923	-2.19711	-1.63407	-6.49984	45.4456	14.6341	-0.640979
0.7247	-0.833429	329.495	102.922	4.62406	-3.73509	-0.739955	-4.05929	74.4177	17.4074	0.32049
0.7253	-0.833429	574.274	54.7061	5.8373	-3.11257	0.184989	-3.75214	75.6389	19.8393	0
0.7260	1.30967	471.098	11.3691	6.45537	-2.81963	0.801618	-4.36643	44.5118	22.5698	0
0.7267	4.96088	347.832	-35.333	5.21923	-2.52668	1.38742	-2.83901	28.3496	26.5377	0.32049
0.7273	6.19118	379.25	-61.268	5.8373	-0.9887	3.54562	0.514674	5.45922	34.4734	0
0.7280	-1.15093	399.42	-54.2494	9.20233	-0.366185	3.85393	1.73495	-34.5272	40.5745	0.32049
0.7287	-14.5652	334.996	-48.1443	12.2469	0.549278	3.54562	0.821819	-65.0317	43.3477	0.32049
0.7293	-31.9878	232.758	-55.7877	12.2469	2.67315	3.85393	1.43611	-70.2276	43.3477	0.32049
0.7300	-48.1404	187.323	-56.3886	10.118	4.50408	3.85393	2.65638	-46.4273	40.2758	0.32049
0.7307	-60.364	167.763	-39.299	7.66861	6.04205	4.16225	4.1755	0.263383	34.772	0
0.7313	-62.785	100.65	-4.51878	5.21923	6.04205	4.74805	6.01007	63.4514	21.6739	0
0.7320	-52.7044	89.9328	32.1122	1.25903	5.12659	5.05636	3.87666	118.379	5.20514	0
0.7327	-49.966	81.4162	69.6565	-1.78553	5.71249	5.98131	2.04209	150.727	1.23729	0
0.7333	-53.0219	-145.636	99.245	-0.869872	6.04205	6.28962	3.26237	184.895	5.80245	0
0.7340	-48.7754	-423.666	91.0006	0.343371	6.335	6.28962	3.56952	197.729	5.80245	0
0.7347	-39.6077	-444.122	67.5173	0.343371	5.71249	6.59794	4.48265	190.091	3.96785	0
0.7353	-28.9319	-271.061	47.0626	1.25903	3.29567	4.43973	2.95523	203.523	6.69842	0.32049
0.7360	-31.3528	-206.067	20.5268	2.79275	0.549278	2.00405	-0.705602	179.412	10.3676	0.32049
0.7367	-42.9414	-338.827	-16.1042	4.00599	-0.073237	2.00405	-1.92588	111.651	12.7995	0.32049
0.7373	-33.1784	-421.832	-55.7877	3.38792	0.842226	2.92899	-1.92588	75.3516	16.7674	0
0.7380	-1.74623	-371.793	-68.9114	3.7084	2.05064	3.54562	-0.0913132	36.5863	20.7352	0
0.7387	24.1694	-177.991	-81.0977	2.79275	2.9661	4.16225	1.12896	-31.4623	22.2712	0
0.7393	33.3371	130.233	-111.023	0.0457827	2.3802	3.85393	-0.705602	-74.2023	20.4366	0
0.7400	25.7172	191.56	-131.453	-2.40359	2.05064	3.54562	-1.92588	-88.2334	16.4687	0
0.7407	11.0727	111.611	-179.67	-1.78553	1.75769	2.92899	-1.61873	-69.9163	14.3355	0
0.7413	6.19118	192.498	-248.966	0.640958	0.842226	2.92899	-1.01275	-19.5622	14.9754	0
0.7420	9.24709	130.559	-267.882	1.55661	-0.073237	2.92899	-0.705602	-1.24508	14.6341	0
0.7427	11.9855	-56.8447	-213.248	-0.274696	-1.90416	2.62068	-1.61873	-5.21978	12.7995	0
0.7433	29.6859	-101.709	-106.143	-2.10601	-3.11257	2.62068	-2.53187	-11.948	12.2022	0
0.7440	66.9124	-166.092	-20.3826	-2.70118	-3.73509	4.16225	-1.61873	-53.7541	11.9036	0
0.7447	94.6934	-203.622	20.2143	-3.31925	-4.65055	4.43973	-2.23302	-74.2023	8.53302	0
0.7453	98.0271	-0.977973	96.1924	-4.53249	-4.9435	4.74805	-1.31159	-28.1102	3.6692	0
0.7460	89.8119	219.962	214.907	-6.98187	-4.9435	5.05636	-0.705602	25.2848	-1.53594	0.32049
0.7467	74.2148	260.548	278.073	-8.81318	-4.65055	5.36468	-2.23302	-2.1789	-6.10111	0
0.7473	44.013	336.219	239.64	-10.0264	-3.73509	6.90625	-1.31159	-101.953	-9.77031	0
0.7480	8.92959	405.492	132.823	-11.2397	-2.19711	7.49205	-1.31159	-156.905	-14.6341	0
0.7487	-7.54054	264.827	32.1122	-11.2397	-0.073237	8.41699	-1.01275	-149.578	-19.242	0
0.7493	-8.45335	94.2114	-46.9184	-10.3469	0.549278	8.72531	0.514674	-104.396	-21.3752	0.32049
0.7500	-13.6524	27.3832	-116.214	-9.72883	-0.366185	6.59794	-1.31159	-48.8696	-21.3752	0
0.7507	-18.8514	122.899	-137.558	-9.72883	-1.28165	5.36468	-1.61873	-62.3021	-19.242	0
0.7513	-20.0817	285.568	-114.989	-9.11077	-2.81963	5.05636	-1.01275	-107.772	-16.1701	0
0.7520	-24.0504	168.089	-86.0011	-8.81318	-4.02804	4.43973	-2.23302	-123.024	-15.2741	0.32049
0.7527	-29.5272	-73.3072	-46.0051	-8.81318	-4.02804	3.54562	-1.92588	-110.501	-16.4687	0
0.7533	-33.1784	-38.8337	0.67301	-9.11077	-3.73509	1.69573	-4.98072	-60.7697	-15.5728	-1.28196
0.7540	-36.2343	62.1828	39.7316	-6.06621	-3.44214	1.38742	-6.80698	-25.9792	-8.53302	-1.28196
0.7547	-40.203	25.5495	81.2419	-1.19035	-3.44214	3.54562	-3.14615	-48.247	0.938632	0.32049
0.7553	-45.7195	115.279	98.6441	-0.274696	-3.44214	4.16225	-2.23302	-76.6445	10.069	0.640979
0.7560	-44.1717	216.906	76.0501	-3.61684	-2.81963	4.16225	-2.23302	-47.0259	17.4074	0
0.7567	-33.4959	29.5429	55.307	-5.76863	-3.11257	3.54562	-1.31159	55.1908	21.6739	0
0.7573	-30.7575	-237.484	56.8213	-7.27946	-3.44214	2.92899	-2.23302	154.989	23.2098	0.32049
0.7580	-33.8134	-321.101	72.3967	-10.0264	-3.44214	3.85393	-1.92588	191.001	21.9725	0.32049
0.7587	-19.7642	-231.413	77.5885	-12.1553	-4.3576	3.85393	-1.31159	149.195	18.3033	-0.32049
0.7593	-3.29403	-145.025	45.2359	-10.9421	-5.27307	2.31236	-2.23302	68.9346	15.2741	0
0.7600	-17.9386	-220.411	-12.4507	-9.11077	-4.65055	1.69573	-1.92588	50.0189	14.3355	0.32049
0.7607	-52.7044	-399.257	-44.4908	-9.72883	-4.9435	1.38742	-1.31159	156.21	12.7995	0.32049
0.7613	-65.5234	-518.57	-43.8658	-10.3469	-5.27307	0.184989	-1.92588	293.553	10.069	0.32049
0.7620	-53.9347	-488.375	-28.627	-7.89752	-5.27307	-0.431641	-1.61873	316.73	11.3062	0.32049
0.7627	-40.203	-329.658	52.8553	-3.31925	-6.18853	-1.04827	-1.92588	283.472	17.4074	0.32049
0.7633	-2.65903	-239.644	178.3	0.0457827	-6.18853	0.184989	-0.705602	225.48	22.9112	0.32049
0.7640	51.3551	-217.354	206.662	-0.572284	-4.9435	0.801618	0.821819	74.1304	23.5085	0.32049
0.7647	75.7626	-30.8876	88.8854	-3.31925	-5.27307	-0.431641	-0.398458	-61.3683	19.8393	0.32049
0.7653	80.9616	205.904	-89.0537	-3.31925	-5.85896	-0.739955	-0.705602	-52.8203	15.8714	0.32049
0.7660	79.4138	353.007	-194.019	-0.869872	-7.68989	-1.04827	-0.398458	-29.6426	1.8346	0.32049
0.7667	60.2053	325.258	-193.707	1.55661	-8.93492	-0.739955	-0.0913132	-93.7166	-25.3431	0.32049
0.7673	39.449	158.024	-130.251	4.62406	-9.22787	-0.123326	1.12896	-137.055	-38.1426	0
0.7680	33.6546	172.042	-6.94643	6.45537	-10.7658	-0.123326	1.43611	-166.674	-29.9082	0
0.7687	30.2812	348.118	83.6936	7.05054	-11.6813	1.10993	0.821819	-200.842	-24.1058	0.32049
0.7693	22.6613	418.328	53.1678	6.75295	-12.8897	3.85393	1.43611	-191.073	-27.4763	0.32049
0.7700	10.7552	297.793	-1.15373	6.45537	-13.1827	7.80036	2.95523	-186.188	-33.5774	0
0.7707	-5.43713	163.81	2.81222	9.20233	-11.6813	11.7776	4.48265	-176.73	-37.2466	0
0.7713	-3.88933	214.461	3.43716	13.7806	-10.4363	14.5216	5.09694	-117.23	-34.4734	0.32049
0.7720	18.6926	297.793	-11.8257	15.6119	-10.4363	15.4466	4.48265	-58.926	-29.9082	0.32049
0.7727	30.5987	232.146	44.3225	14.9938	-11.3517	13.3192	2.95523	-58.926	-27.4763	0.32049
0.7733	26.63	145.188	141.068	12.2469	-11.3517	10.2669	2.04209	-69.0064	-25.6417	0
0.7740	24.1694	106.721	188.371	11.0336	-10.1433	7.21457	3.26237	-37.568	-20.4366	0.32049
0.7747	24.4869	57.2929	176.16	11.9493	-8.60535	5.36468	3.56952	-27.7989	-16.4687	0.32049
0.7753	23.5741	-6.80506	87.0346	9.20233	-8.93492	4.43973	0.20753	-43.6737	-19.242	0.32049
0.7760	23.5741	10.9207	-46.63	8.28668	-9.22787	0.801618	-1.61873	-25.0693	-19.5406	0.32049
0.7767	31.194	229.131	-113.162	6.13489	-8.01945	-0.739955	-1.01275	9.72124	-11.9036	0.32049
0.7773	50.1248	362.176	-129.026	-6.98187	-7.39694	-3.17564	-1.31159	36.5863	-5.20514	0
0.7780	56.5144	268.168	-175.103	-11.2397	-7.39694	-16.5873	-0.705602	33.2342	-0.895967	0
0.7787	39.7268	242.537	-201.038	-0.869872	-9.22787	-32.4655	-1.01275	-8.2846	1.23729	0
0.7793	22.9788	214.787	-152.821	4.62406	-12.2672	-35.5179	-2.83901	-13.7678	0.597311	-0.32049
0.7800	19.0101	132.678	-82.0351	5.8373	-12.8897	-12.3326	-2.53187	47.5766	1.53594	0.32049
0.7807	21.1135	160.428	-33.1938	6.75295	-12.5968	15.7549	-1.92588	27.7271	3.37054	0.32049
0.7813	17.4623	190.949	-18.2434	6.45537	-11.9743	12.0859	-1.31159	-108.993	3.96785	0.32049
0.7820	-1.46842	122.002	-57.302	5.53971	-12.2672	-4.9947	0.514674	-165.74	5.20514	0.32049
0.7827	-31.3528	43.5605	-131.766	3.09034	-13.1827	-11.4076	-0.0913132	-80.308	4.56516	0
0.7833	-51.1963	13.3656	-192.793	1.55661	-12.5968	-9.28027	-2.23302	8.5001	5.20514	-1.28196
0.7840	-43.8542	-18.7037	-188.539	0.343371	-11.3517	-1.94238	-1.31159	27.1285	7.3384	-0.640979
0.7847	-30.44	-62.0198	-148.855	-2.10601	-11.0588	4.16225	0.514674	18.8918	8.87434	0.640979
0.7853	-50.2835	-86.1431	-122.608	-3.31925	-8.60535	9.34194	2.04209	24.9975	11.3062	0.32049
0.7860	-97.908	-134.96	-24.661	-5.15056	-6.18853	13.0109	0.821819	39.6272	12.2022	0.32049
0.7867	-130.253	-239.033	122.44	-7.59994	-5.56601	15.1383	0.514674	91.825	12.2022	0.640979
0.7873	-139.381	-405.044	190.197	-7.27946	-4.65055	16.3715	2.65638	178.191	13.4395	0.32049
0.7880	-140.294	-528.024	179.814	-6.06621	-4.9435	15.1383	1.12896	191.312	11.3062	0.32049
0.7887	-121.998	-532.914	146.26	-5.15056	-4.65055	15.4466	0.514674	185.518	9.17299	0.32049
0.7893	-83.2238	-642.161	106.263	-4.2349	-4.9435	15.7549	0.514674	259.983	7.93571	0.32049
0.7900	-25.241	-659.846	69.6565	-3.93732	-8.93492	12.0859	-3.14615	290.488	3.37054	0.32049
0.7907	39.449	-303.131	71.7958	-3.02166	-12.2672	10.2669	-2.83901	146.441	-0.597311	0
0.7913	69.6508	-73.3072	112.369	-2.70118	-11.6813	8.72531	-1.31159	-25.9792	-2.73057	0
0.7920	70.5636	38.0594	145.947	-1.78553	-9.22787	-6.53627	-2.53187	-14.9889	-2.43191	0
0.7927	64.7693	377.131	140.443	4.92165	-7.68989	-37.9535	-1.61873	78.0812	1.53594	0
0.7933	39.7268	518.122	54.3936	13.4601	-7.39694	-59.6281	-3.14615	103.414	6.10111	0
0.7940	11.3505	367.677	-79.271	16.5276	-4.9435	-48.6521	-4.98072	28.6609	10.069	0
0.7947	0.0793741	270.328	-159.84	13.1625	-0.9887	-27.5942	-2.53187	-127.597	11.9036	0.32049
0.7953	0.396871	244.086	-166.546	8.88185	1.46474	-14.46	-1.31159	-229.215	10.3676	0.32049
0.7960	-2.38122	200.729	-128.112	7.37102	3.58861	-3.17564	0.20753	-216.094	10.6663	0
0.7967	-17.3036	151.912	-65.2339	5.8373	4.79703	3.2373	0.821819	-154.462	11.3062	0
0.7973	-32.9006	66.4614	12.2824	4.30358	4.79703	4.43973	2.04209	-129.728	10.3676	0.32049
0.7980	-36.2343	-78.8083	94.9665	4.92165	5.71249	3.85393	4.1755	-156.593	10.3676	-0.640979
0.7987	-41.7508	-170.656	112.994	4.92165	5.41954	4.74805	4.48265	-133.703	11.3062	-0.640979
0.7993	-55.7603	-160.306	6.77817	3.09034	7.25047	9.03362	7.84463	-47.0259	13.1408	0.32049
0.8000	-52.4266	-138.016	-129.939	0.343371	12.1207	11.4693	10.584	-55.8851	14.0368	0.640979
0.8007	-32.5831	-200.566	-176.016	-3.02166	14.2812	15.7549	7.53749	-182.237	12.5009	0.32049
0.8013	-15.478	-274.444	-141.837	-4.85297	14.2812	20.9346	5.09694	-232.591	11.9036	0.32049
0.8020	4.04808	-246.979	-72.5649	-5.15056	16.698	27.0392	2.34924	-185.278	11.0076	0
0.8027	17.4623	-281.738	27.8338	-4.2349	20.9824	36.8128	-0.705602	-153.241	10.6663	0.32049
0.8033	14.1286	-483.485	121.526	0.961438	25.8527	31.9106	-0.705602	-97.6913	12.5009	0.32049
0.8040	21.7485	-579.001	173.709	9.20233	43.869	17.5739	-1.31159	25.9073	11.6049	0.32049
0.8047	49.212	-324.768	207.888	13.7806	74.0792	16.3715	-2.83901	158.653	9.17299	0
0.8053	76.6754	185.163	184.693	9.49992	86.3098	18.1906	-4.36643	221.218	6.69842	0.32049
0.8060	73.6195	501.007	71.1708	4.62406	72.2483	13.3192	-6.80698	160.185	4.56516	0.32049
0.8067	30.8765	355.167	-34.1072	3.7084	51.4856	8.72531	-7.72012	22.5552	5.5038	0.32049
0.8073	-16.113	171.757	-90.5679	2.17468	33.1764	18.1906	-8.02726	-31.4623	5.80245	0
0.8080	-38.9727	153.134	-135.419	0.961438	11.2053	41.3758	-7.72012	51.8386	5.80245	0
0.8087	-43.2589	37.4482	-138.183	0.343371	-7.68989	60.923	-5.58671	128.435	6.39976	0
0.8093	-21.5898	-76.9746	-107.97	-0.572284	-12.5968	74.643	-4.05929	81.146	4.90649	0
0.8100	3.73059	-59.2896	-147.029	0.343371	-10.4363	84.7249	-2.53187	12.7861	4.26651	0.32049
0.8107	-11.2314	43.2753	-266.656	0.961438	-7.10399	86.8523	-0.705602	79.3023	3.07189	0.32049
0.8113	-53.3394	168.374	-376.213	-0.274696	7.54341	75.2596	2.65638	190.402	1.23729	0.32049
0.8120	-91.7962	147.918	-407.027	-3.02166	37.7537	18.1906	4.48265	191.911	2.43191	0.32049
0.8127	-103.385	27.098	-337.466	-5.44815	64.3021	-69.0933	-4.36643	170.553	4.26651	0
0.8133	-78.0645	-30.6024	-193.106	-2.10601	78.6566	-100.819	-15.0501	205.654	5.80245	-0.640979
0.8140	-34.4087	21.5969	-13.965	2.47227	87.5182	-62.0638	-17.1835	209.318	7.93571	-0.640979
0.8147	-3.29403	103.991	132.198	2.47227	80.1945	-19.6397	-16.2704	185.518	7.93571	0.640979
0.8153	24.4869	65.2389	233.823	0.640958	60.6403	3.85393	-16.2704	259.983	6.69842	0.640979
0.8160	93.1456	54.5627	357.729	-0.869872	53.3166	20.9346	-17.1835	402.785	6.69842	0
0.8167	156.327	149.141	446.542	-1.48794	56.6855	16.9573	-20.2383	350.3	8.53302	0
0.8173	149.303	127.503	387.63	0.343371	55.1475	11.4693	-23.2849	23.4651	11.3062	0
0.8180	96.7968	-34.555	191.712	3.09034	51.4856	33.1438	-25.7254	-264.628	13.7382	0.32049
0.8187	39.449	-243.923	-39.6115	4.62406	51.1927	23.3703	-27.2528	-254.237	15.5728	0.32049
0.8193	-7.85804	-354.067	-178.756	4.00599	51.8152	-44.0582	-28.166	-95.8715	14.6341	0
0.8200	-33.4959	-238.422	-143.375	3.09034	50.8997	-88.6097	-26.0326	34.1441	11.3062	0
0.8207	-29.2097	21.8821	-22.2093	2.47227	49.9843	-84.0466	-19.624	87.8503	9.47165	0.32049
0.8213	-19.1689	243.76	55.6195	1.87709	50.8997	-65.1161	-16.8763	-87.3235	8.23436	0
0.8220	-17.3036	259	105.35	1.55661	53.0236	-48.9604	-16.5692	-397.374	7.63705	0
0.8227	7.69929	126.892	124.579	0.343371	53.0236	-42.5474	-12.9084	-550.279	7.63705	0
0.8233	49.212	78.0341	101.384	-1.19035	50.2772	-40.1117	-9.55468	-550.878	6.10111	0.32049
0.8240	55.0063	147.918	100.158	0.343371	46.9083	-36.7511	-7.42127	-539.888	5.5038	0.32049
0.8247	32.7418	192.172	105.038	1.25903	44.7844	-35.2095	-7.42127	-564.909	6.10111	0
0.8253	26.3125	214.787	76.3626	-0.274696	41.7451	-33.3905	-7.72012	-589.931	4.90649	0
0.8260	36.393	248.935	75.7617	-1.48794	38.6691	-31.8489	-6.201	-542.019	4.56516	0.32049
0.8267	40.6793	216.906	113.907	-2.10601	36.2523	-30.0299	-4.67358	-435.205	3.96785	0.32049
0.8273	25.995	140.298	142.27	-2.40359	32.5905	-24.5419	-2.83901	-324.129	3.37054	0.32049
0.8280	1.90498	92.3777	181.641	-1.19035	28.3061	-25.7443	1.12896	-227.994	3.07189	0
0.8287	-11.8267	63.4052	195.077	-0.274696	24.3513	-44.3665	4.48265	-145.004	1.8346	0.32049
0.8293	-21.2723	23.7158	123.978	0.343371	20.0669	-47.4188	4.78979	-65.9655	1.8346	0.32049
0.8300	-37.4646	-44.0088	29.3721	0.961438	16.4051	-17.8206	-0.0913132	-7.66206	2.43191	0
0.8307	-53.9347	-151.138	-28.3145	0.640958	13.6587	-0.739955	-5.27956	42.3808	1.8346	-0.32049
0.8313	-45.7195	-213.402	-33.5063	1.25903	11.8278	-10.5135	-6.201	123.551	1.8346	0
0.8320	-24.3282	-193.231	1.58638	2.17468	8.78844	-19.3622	-8.02726	164.758	2.43191	0.32049
0.8327	-33.4959	-205.171	26.3195	0.961438	5.41954	-17.204	-8.94039	114.093	2.13325	0
0.8333	-57.6256	-199.669	16.8493	-1.78553	2.9661	-11.0993	-7.42127	79.3023	1.53594	0
0.8340	-66.7537	-135.572	-38.9865	-3.61684	2.9661	-6.53627	-6.49984	140.958	1.23729	0
0.8347	-63.1024	-143.803	-129.314	-4.53249	5.41954	-2.86733	-5.27956	267.286	0.597311	0
0.8353	-29.8447	-172.205	-137.558	-4.85297	6.04205	0.493304	-4.98072	402.186	-0.597311	0.32049
0.8360	21.7485	-179.499	-79.8959	-5.76863	3.88156	3.54562	-6.80698	477.873	-1.23729	0
0.8367	51.0376	-190.216	-59.7537	-6.98187	1.46474	5.05636	-10.4678	438.509	-2.13325	0
0.8373	70.2461	-80.642	-16.4166	-8.51559	0.219711	10.8527	-12.6095	288.357	-4.56516	0
0.8380	93.1456	134.797	34.2514	-6.06621	-0.9887	16.9573	-6.80698	76.5727	-4.56516	0
0.8387	102.313	220.248	40.9575	2.47227	-1.90416	14.5216	1.73495	-113.566	-1.53594	0
0.8393	99.5749	128.4	53.1678	7.66861	-2.81963	14.2133	4.48265	-232.591	-1.53594	0
0.8400	78.8185	64.913	73.6225	5.8373	-3.11257	2.31236	4.48265	-265.227	-3.6692	0
0.8407	23.5741	75.9151	76.0501	1.55661	-2.52668	-21.7979	2.34924	-189.253	-5.5038	-0.32049
0.8413	-38.0599	70.74	32.1122	-1.48794	-0.9887	-23.6169	-1.61873	-46.116	-6.10111	0
0.8420	-64.0153	46.6167	-72.5649	-2.10601	0.219711	-10.2052	-3.14615	64.9599	-4.26651	0.32049
0.8427	-41.7508	31.3766	-158.614	-3.02166	1.46474	-3.79227	-3.4533	117.756	-2.73057	0.32049
0.8433	-3.88933	46.6167	-165.032	-3.93732	1.75769	-0.739955	-3.14615	177.879	-3.6692	0
0.8440	-2.38122	-10.1465	-213.849	-3.61684	0.549278	1.10993	-2.53187	225.48	-5.5038	0
0.8447	-35.004	-133.738	-327.684	-2.70118	-1.28165	0.184989	-1.92588	200.147	-7.3384	0
0.8453	-58.5384	1.7522	-293.505	-1.78553	-1.90416	4.16225	0.821819	194.664	-8.23436	0.32049
0.8460	-56.0778	266.661	-92.1062	-0.869872	-2.52668	11.161	2.65638	243.797	-9.17299	-0.32049
0.8467	-12.7396	273.343	98.6441	-0.572284	-2.52668	14.2133	0.821819	249.592	-10.069	-1.28196
0.8473	54.411	114.056	191.712	-0.274696	-3.11257	16.0632	1.43611	225.791	-9.17299	-0.640979
0.8480	100.17	-78.8083	219.786	-1.48794	-4.3576	18.4989	3.56952	186.116	-8.83167	0.32049
0.8487	108.108	-168.823	244.519	-2.40359	-4.9435	22.7536	4.78979	133.033	-9.17299	0
0.8493	91.9153	-68.7433	228.343	-2.70118	-4.65055	26.7309	5.09694	140.335	-9.47165	-0.32049
0.8500	98.6621	0.244493	163.95	-3.61684	-4.9435	29.7832	5.70292	171.175	-9.17299	0
0.8507	125.491	-53.1773	124.579	-3.61684	-5.85896	33.1438	5.39578	163.848	-7.93571	0.32049
0.8513	119.696	-67.1949	132.511	-3.61684	-6.18853	35.8878	1.73495	60.6979	-7.63705	0.32049
0.8520	80.6441	-40.3414	143.495	-3.31925	-5.85896	39.8651	0.514674	-213.053	-6.39976	0
0.8527	58.0622	-39.7301	99.5574	-1.19035	-4.9435	43.5032	2.34924	-503.565	-3.96785	0
0.8533	46.7514	0.855726	7.69154	0.961438	-5.56601	43.2257	1.12896	-616.197	-3.96785	0
0.8540	19.0101	73.4702	-78.0451	2.17468	-7.10399	32.5272	-2.23302	-573.146	-4.56516	0
0.8547	-2.38122	91.7665	-153.134	2.47227	-7.39694	14.5216	-5.27956	-485.87	-4.26651	0
0.8553	-17.9386	40.8304	-227.886	3.09034	-6.48148	10.2669	-5.58671	-393.112	-2.73057	0.32049
0.8560	-33.1784	-6.47907	-262.089	3.7084	-5.56601	27.3475	-3.4533	-248.155	-1.53594	0
0.8567	-43.2589	-15.9328	-239.808	2.79275	-5.85896	41.9925	-3.14615	-122.114	-1.8346	0
0.8573	-58.2209	-31.4989	-167.171	1.87709	-8.01945	9.65025	-3.14615	-86.701	-2.43191	0
0.8580	-70.1271	-73.6332	-69.5123	1.55661	-11.3517	-52.321	-4.05929	-67.7853	-4.26651	0
0.8587	-76.8342	-130.682	3.72559	0.961438	-12.5968	-70.9124	-4.05929	-32.9947	-6.10111	0
0.8593	-73.4608	-160.917	60.7872	1.55661	-11.9743	-41.3142	-1.92588	-6.75219	-5.20514	0
0.8600	-45.9973	-95.5969	98.0191	1.55661	-12.8897	-12.9492	-1.61873	-3.68737	-4.26651	0
0.8607	-12.4221	36.837	82.4678	0.961438	-13.1827	-4.68638	-1.92588	-18.0298	-4.26651	0
0.8613	-6.62774	96.3711	53.7687	0.343371	-13.5122	-4.10059	-1.01275	-34.5272	-4.56516	0
0.8620	-26.4713	49.9581	49.8027	-1.19035	-15.0136	-3.79227	-2.83901	-35.437	-4.86382	0
0.8627	-39.9252	22.8194	58.3596	-1.19035	-15.3432	-2.86733	-1.92588	-12.8579	-4.26651	0
0.8633	-35.639	50.8953	78.8143	-1.19035	-15.3432	-4.68638	-0.398458	18.2692	-3.96785	0
0.8640	-26.4713	59.1266	95.5915	-1.19035	-16.8445	-7.46122	-2.53187	48.7977	-3.96785	0
0.8647	-15.2001	27.9945	63.8398	-0.274696	-17.76	-7.7387	-2.53187	47.5766	-3.6692	0.32049
0.8653	0.992177	-34.2698	9.83076	-0.869872	-19.005	-9.58859	-2.23302	-7.66206	-3.96785	0.32049
0.8660	12.2633	-109.003	-6.63396	2.17468	-19.9205	-17.204	-1.92588	-66.5641	-3.02922	0.32049
0.8667	16.867	-139.524	1.89885	7.66861	-20.5064	-29.4132	-0.705602	-68.3839	-0.597311	0
0.8673	13.8111	-89.8105	2.21132	6.45537	-22.0443	-37.9535	-1.31159	-7.97333	-0.597311	0
0.8680	-0.833429	-29.3799	-7.57136	0.640958	-22.0443	-37.6452	-0.398458	64.05	-1.53594	0
0.8687	-22.8201	-6.80506	-7.25889	-5.76863	-22.3373	-26.9775	1.73495	112.273	-3.6692	0.32049
0.8693	-41.7508	24.3271	2.81222	-8.51559	-21.7514	-9.8969	3.87666	138.516	-5.5038	0
0.8700	-45.9973	-34.2698	4.63896	-7.27946	-21.7514	-1.04827	5.70292	125.706	-4.86382	0.32049
0.8707	-42.0286	-186.834	-12.4507	-6.06621	-22.6669	-1.94238	5.09694	101.283	-4.86382	0.32049
0.8713	-43.5764	-215.236	-32.8814	-3.31925	-22.0443	2.31236	5.70292	118.068	-3.37054	0
0.8720	-32.2656	-152.971	-31.6795	4.00599	-22.0443	14.5216	6.01007	168.733	-1.23729	0.32049
0.8727	-10.0011	-123.347	-70.7382	15.2914	-22.0443	24.9118	3.56952	221.529	0.938632	0
0.8733	-3.88933	-73.3072	-165.633	21.701	-19.298	31.3248	3.87666	260.271	3.07189	-0.961469
0.8740	-16.113	16.0958	-212.022	18.3589	-17.76	50.8411	4.78979	275.547	2.13325	-0.961469
0.8747	-36.2343	59.4526	-210.195	14.0782	-17.1741	69.4633	6.31721	265.466	1.23729	-0.32049
0.8753	-54.8475	1.7522	-195.245	13.4601	-16.2586	23.9869	4.1755	225.193	0.298656	0
0.8760	-51.5138	-41.5639	-121.695	11.9493	-17.467	-46.5247	-1.61873	151.637	-1.53594	0
0.8767	-17.6211	-5.2566	-10.3115	9.49992	-19.005	-51.3961	-1.31159	52.1499	-1.8346	0.32049
0.8773	8.61209	-5.86784	73.6225	7.37102	-20.5064	-29.4132	0.20753	-34.8145	-1.53594	0.32049
0.8780	10.1599	-27.2202	108.403	6.75295	-19.5909	-19.0539	-0.705602	-51.9104	-0.895967	0
0.8787	19.9229	31.6619	113.594	6.45537	-18.0895	-10.791	-2.23302	-78.153	0.597311	0
0.8793	42.1874	109.492	98.0191	4.92165	-19.298	-11.0993	-5.89385	-137.965	0.597311	0
0.8800	61.1181	113.445	57.7587	4.92165	-18.6754	-10.5135	-4.36643	-130.04	0.938632	0
0.8807	66.2774	71.0253	26.007	5.21923	-16.8445	-8.04702	-1.31159	-128.507	0.597311	0
0.8813	49.5295	53.0143	18.9885	4.30358	-17.467	-8.97196	-1.61873	-174.91	-0.895967	0
0.8820	32.1068	61.5715	20.2143	3.38792	-17.1741	-8.35533	0.20753	-200.53	-2.13325	0
0.8827	29.6859	57.6189	40.9575	1.55661	-17.1741	-8.97196	-0.705602	-209.988	-3.96785	0.32049
0.8833	27.5428	44.1718	75.7617	1.25903	-17.1741	-8.66364	-2.83901	-192.605	-4.56516	0
0.8840	18.6926	34.718	75.1368	2.17468	-17.467	-7.46122	-1.31159	-156.282	-2.73057	-0.32049
0.8847	10.4377	27.9945	36.9915	1.87709	-18.3825	-9.28027	-1.61873	-137.965	-1.23729	0
0.8853	16.232	23.4306	4.95143	3.38792	-17.76	-9.28027	-2.23302	-122.713	0.597311	0.32049
0.8860	29.9637	19.7632	-5.43215	4.30358	-17.467	-9.28027	-3.14615	-92.2081	2.13325	0
0.8867	27.8603	19.4372	-6.34552	3.7084	-18.0895	-9.58859	-4.05929	-54.3527	2.13325	-0.32049
0.8873	18.0973	22.8194	-11.8257	3.38792	-17.76	-8.35533	-2.83901	-15.8988	3.6692	0
0.8880	20.5182	19.152	-29.5403	4.00599	-18.0895	-8.66364	-3.14615	10.3438	5.5038	0.32049
0.8887	27.2253	-2.81167	-55.7877	4.62406	-17.76	-9.28027	-3.14615	21.9326	6.69842	0
0.8893	27.5428	-26.3238	-69.8248	5.8373	-17.1741	-9.8969	-4.05929	29.882	7.63705	0
0.8900	27.8603	-18.3777	-75.0166	7.05054	-17.467	-9.58859	-4.36643	51.8386	7.93571	0
0.8907	31.829	8.47577	-87.5154	7.37102	-16.5516	-6.22796	0.821819	79.015	8.87434	0
0.8913	31.829	20.0484	-83.2369	5.8373	-16.5516	-3.79227	4.1755	68.0247	7.03974	0
0.8920	34.2499	19.4372	-42.664	4.00599	-15.6361	-0.123326	8.14348	35.3652	4.56516	0
0.8927	36.393	21.2709	7.09064	0.961438	-14.7206	4.74805	13.946	29.2595	0.938632	0.32049
0.8933	27.5428	22.4934	35.7657	-3.31925	-14.4277	8.72531	15.7723	48.7977	-4.56516	0
0.8940	8.61209	20.0484	49.8027	-5.44815	-12.5968	13.3192	17.914	63.1402	-8.23436	0
0.8947	-11.8267	12.7544	45.2359	-7.27946	-12.2672	14.5216	18.2128	50.3062	-10.9649	0
0.8953	-18.5339	5.4196	22.3535	-8.19511	-13.5122	13.3192	15.4734	37.1849	-12.7995	0
0.8960	-11.8267	-0.0814977	14.1092	-8.19511	-12.5968	13.0109	14.2532	37.4962	-13.4395	0.32049
