MR32 ASCII
Name	TYR15_fast
Frequency	1500
Date	05-09-2015 13:48:21
"Time,s"	"RT TIB.ANT.,uV"	"RT MED. GASTRO,uV"	"RT LAT. GASTRO,uV"	"RT BICEPS FEM.,uV"	"RT VMO,uV"	"RT VLO,uV"	"RT RECTUS FEM.,uV"	"RT SOLEUS,uV"	"RT SEMITEND.,uV"	"Channel 12,uV"
0.0000	-13.6465	-3.60578	-3.42464	6.46534	56.2666	78.4681	-35.2588	15.5088	11.6164	-8130.4
0.0007	-16.0834	-5.13293	-4.96183	17.4516	43.1492	81.4918	-54.1851	13.3704	20.2024	-10527.9
0.0013	-17.9443	-4.49662	-2.82143	25.3914	34.618	95.5431	-62.4186	14.2933	26.2631	-9581.38
0.0020	-19.1406	-3.60578	-2.5101	23.5604	16.9145	134.288	-65.4737	14.901	25.0509	-9786.04
0.0027	-18.2101	-3.90273	-4.6505	16.8358	-2.93415	192.895	-58.4508	14.2933	18.6367	-9880.18
0.0033	-16.0834	-3.60578	-5.56504	11.9584	-12.6982	242.341	-37.699	15.8239	12.879	-9786.68
0.0040	-17.324	-2.67252	-5.87637	10.4353	-21.8458	268.873	-20.9151	18.2549	10.4042	-9815.28
0.0047	-20.647	-0.551472	-5.25371	12.5742	-29.4648	217.618	2.58436	19.7855	15.9094	-9814.96
0.0053	-24.6346	0.975682	-2.82143	11.6506	-26.432	71.4424	39.5052	18.57	23.8388	-9815.28
0.0060	-26.7614	1.612	0.544829	12.5742	-15.731	-39.9603	61.7845	16.4317	28.1318	-9786.04
0.0067	-25.2549	1.27263	2.66577	21.7294	-6.90388	-36.6105	58.1241	17.332	41.5663	-9877.61
0.0073	-28.8881	-0.848419	1.14803	26.9146	0.739701	9.18969	43.1656	20.7084	72.0719	-9797.29
0.0080	-34.3821	-0.551472	-0.369705	28.1299	15.0899	-18.8833	28.8219	23.7471	98.2845	-9571.74
0.0087	-24.0143	4.02999	2.66577	29.6531	40.4123	-103.132	25.1615	29.5545	96.7693	-10524.7
0.0093	-6.33589	6.4904	3.89163	28.1299	59.6446	-157.144	35.8448	38.4006	88.5368	-8281.73
0.0100	2.21534	7.38124	-0.369705	28.4378	64.8225	-157.766	53.8489	44.8157	110.204	-1680.38
0.0107	10.4564	9.84166	-1.3037	30.8846	70.3209	-111.966	70.6328	46.3238	134.649	109.241
0.0113	22.375	7.38124	1.75124	30.8846	68.1758	-86.9463	74.6006	48.7773	130.053	-233.904
0.0120	20.8242	-14.2534	0.544829	29.3452	55.0584	-129.99	60.257	48.4621	126.063	-28.5954
0.0127	10.4564	-38.9848	-6.7909	25.991	39.1795	-170.869	38.8999	31.0851	131.871	65.2231
0.0133	7.0891	-33.8095	-11.0522	16.2363	20.8842	-145.227	19.0609	2.99371	124.244	-29.5593
0.0140	9.52598	-7.55093	-3.42464	-13.6761	2.5643	-90.6222	7.7723	-14.4058	72.678	-0.642592
0.0147	11.3869	9.84166	6.63524	-55.7899	-11.1695	-47.5789	7.15743	-14.4058	-41.4653	0
0.0153	10.4564	16.8411	10.0015	-69.8386	-18.1967	-22.2628	4.71718	-6.1675	-176.367	-0.642592
0.0160	8.63984	23.586	6.34336	-49.0815	-24.5827	-28.3695	2.27693	-8.91361	-262.126	-0.642592
0.0167	6.20296	26.004	0.544829	-26.1854	-32.8427	-45.1481	5.93731	-18.3674	-249.6	-0.321296
0.0173	4.03193	24.1799	-1.9069	-6.65978	-29.1689	-40.5532	7.15743	-15.914	-185.205	0
0.0180	1.2849	17.4774	-2.5101	9.51166	-16.3474	-23.1817	4.71718	-4.9295	-148.588	-0.321296
0.0187	-1.72797	6.4904	-4.0473	-2.38197	-11.4654	-5.45453	-0.163324	6.34757	-144.598	-0.642592
0.0193	-0.841831	2.50284	-2.82143	-28.9401	-8.40794	7.05531	-2.91101	14.901	-140.962	-0.321296
0.0200	0.70891	-12.1324	1.14803	-32.2943	-4.75875	6.72923	-1.08562	21.6088	-112.578	0
0.0207	0.0886138	-35.6336	3.89163	-13.0765	-7.49564	-1.80829	0.441936	25.8855	-68.0314	-0.321296
0.0213	1.01906	-31.0521	6.63524	9.51166	-3.84645	0.326086	4.10231	22.8243	-38.0814	-0.321296
0.0220	2.21534	-13.3626	9.08696	4.01856	4.09301	12.243	9.29025	12.4701	-35.6572	0
0.0227	-1.15198	-6.32072	8.4643	-30.4632	4.70943	15.8893	9.59769	-1.28302	-41.1623	0
0.0233	-8.15247	1.27263	4.20296	-41.4495	5.62173	11.3241	6.85	-13.483	-30.7581	-0.321296
0.0240	-11.5198	7.38124	-1.9069	-24.9701	9.27092	5.51381	6.85	-23.8597	-18.8892	-0.321296
0.0247	-9.08291	2.50284	-7.70543	-14.9075	9.59146	-1.18577	5.32244	-28.429	-17.6771	0
0.0253	-4.78514	-3.30883	-6.7909	-17.0303	10.7996	-5.15808	2.58436	-13.7756	-21.9196	0
0.0260	-1.46213	-7.55093	1.45936	-19.7849	13.2407	-11.2648	0.441936	19.4704	-28.3338	-0.321296
0.0267	0.398762	-19.7682	6.34336	-15.5071	12.9448	-24.3971	-2.60358	49.385	-27.1217	0
0.0273	2.21534	-26.1737	3.28843	-7.87507	12.9448	-26.5315	-1.08562	61.9001	-17.6771	0
0.0280	3.14579	-11.8354	-0.681036	-2.38197	14.153	-2.10474	2.88219	45.4234	-9.3941	0
0.0287	6.20296	9.54471	-0.369705	2.18752	17.8268	30.237	2.27693	14.5859	-6.36374	-0.321296
0.0293	7.39925	18.0713	-5.25371	10.4353	18.4432	46.0967	-5.05344	5.44721	5.55565	0
0.0300	1.9052	19.0046	-17.4734	25.991	13.5612	45.5038	-12.3742	12.7627	36.3642	0
0.0307	-3.58886	31.5188	-21.4429	38.5004	12.0325	39.99	-13.5943	18.57	58.6373	0.321296
0.0313	-6.95618	55.02	-14.7298	39.1161	11.1202	35.7212	-12.3742	21.9239	57.4252	0
0.0320	-12.7161	62.3164	-9.84583	34.8383	8.35863	29.9406	-12.0668	19.4704	57.7282	0
0.0327	-19.4507	43.3966	-5.56504	19.5905	9.59146	28.3991	-9.62651	28.339	36.9703	0.321296
0.0333	-25.2549	26.9373	0.233498	-15.815	9.59146	26.5612	-5.96613	46.3238	-50.9099	-0.642592
0.0340	-30.4388	31.8157	-4.33917	-39.3106	6.53403	20.7806	-3.8237	61.2924	-129.952	-1.28518
0.0347	-34.3821	41.8695	-26.9301	-32.91	6.82991	21.996	-0.470757	96.3841	-107.679	-0.321296
0.0353	-29.8185	14.1262	-39.753	-33.8174	7.15045	24.4268	2.88219	147.052	-28.6368	0.321296
0.0360	-12.1401	-73.1761	-33.9545	-41.4495	5.62173	27.8062	4.10231	188.244	40.9603	0
0.0367	10.4564	-132.693	-37.924	-22.2317	6.82991	42.7469	3.18962	198.913	90.052	0
0.0373	29.0653	-102.489	-29.3624	6.77321	8.35863	58.3101	-0.163324	186.398	119.345	0
0.0380	44.9272	-49.9719	15.4887	20.4979	10.7996	64.7132	-5.6587	163.821	115.103	0
0.0387	54.719	-12.4293	59.1334	18.0673	16.2981	57.0947	-8.40638	76.5535	57.4252	0
0.0393	48.6047	7.38124	68.2787	4.6343	18.7391	36.0473	-9.31908	-74.8203	-33.5359	0
0.0400	33.6732	11.0719	55.1639	-0.243058	16.9145	22.6185	-9.31908	-196.28	-83.5872	0.321296
0.0407	22.951	25.7071	45.9991	22.9447	13.2407	25.0493	-5.6587	-235.04	-36.5663	0
0.0413	18.0772	51.3293	41.1346	60.1811	10.5038	29.0216	3.18962	-213.364	39.0916	-0.321296
0.0420	12.5832	59.2621	33.4875	81.2299	11.4161	32.6679	10.8178	-176.449	45.2028	-0.321296
0.0427	5.27252	36.9911	20.684	59.5654	9.88734	42.4504	10.2126	-138.296	5.25261	0
0.0433	1.2849	10.1386	13.0564	-6.04404	10.5038	30.8596	5.93731	-105.635	-30.4551	-0.321296
0.0440	0.70891	-1.14537	22.2018	-56.4056	16.2981	-20.1284	8.68499	-80.6277	-16.1114	0
0.0447	1.01906	-2.67252	17.9404	-58.5445	14.7694	-33.8536	9.29025	-54.382	58.6373	0
0.0453	3.76609	-4.19967	-24.4784	-42.6648	12.3284	21.996	1.9695	-32.098	114.194	0
0.0460	8.94999	-0.254526	-51.3501	-23.1391	19.6514	74.1697	-1.69088	-25.0752	128.537	0
0.0467	9.52598	21.7195	-41.874	-5.13662	21.7965	89.7329	-1.99832	-44.6131	132.477	0
0.0473	2.52549	32.4096	-42.1853	1.2801	21.1801	79.3574	-1.99832	-76.9587	64.7486	0.321296
0.0480	-0.841831	1.27263	-47.3806	6.77321	24.5334	54.3377	-0.778191	-84.5893	-36.5663	0.321296
0.0487	6.77895	-29.525	-29.0705	14.4052	21.5007	39.6935	-3.52588	-66.582	-25.6065	0
0.0493	16.2606	-31.6884	4.20296	15.3126	19.9719	47.3121	-8.71382	-39.7286	36.9703	0
0.0500	21.4445	-19.1743	43.5668	14.4052	24.5334	33.2904	-9.31908	-7.06787	69.5971	0.321296
0.0507	22.0648	-2.96947	65.8464	16.2363	21.5007	-19.5059	-9.31908	10.9394	124.244	0
0.0513	17.7671	1.27263	50.8831	22.9447	16.594	-47.2824	-9.31908	5.13208	148.033	0
0.0520	11.697	-6.66009	29.5375	25.991	18.4432	-41.4722	-6.57139	-10.7369	13.7881	0
0.0527	6.51311	-15.7806	14.2628	17.1437	17.8268	-32.0157	-5.96613	-22.0364	-173.589	-0.321296
0.0533	3.14579	-18.241	-11.3636	11.3427	15.3858	-21.3438	-7.79152	-15.6213	-195.862	0
0.0540	-0.531683	-12.4293	-36.0754	13.1737	14.7694	-14.6146	-7.49369	-0.967892	-99.7491	0.321296
0.0547	-5.09529	-10.6052	-37.3013	10.1274	15.6817	-12.1838	-5.96613	10.3317	-49.0917	0
0.0553	-9.08291	-18.241	-24.4784	-0.550931	16.594	-10.0494	-5.35126	26.2006	-57.6272	0
0.0560	-10.2792	-29.525	-33.3318	0.356485	14.7694	-8.21143	-5.05344	42.3622	-58.5363	0
0.0567	-9.96905	-33.5125	-61.1181	24.16	12.6489	-6.3735	-4.43857	62.5078	-47.5765	0
0.0573	-9.70321	-30.7552	-70.8667	43.7018	12.6489	-3.32015	-2.91101	93.3228	-39.9502	0
0.0580	-8.46262	-27.4039	-58.0632	36.3777	12.3284	-1.51185	-1.69088	96.9918	-20.7074	-0.321296
0.0587	-2.03812	-6.66009	-37.3013	11.0348	15.3858	-0.889325	-0.470757	66.4695	-6.96981	0
0.0593	6.51311	18.6652	-19.6138	-28.3243	18.7391	-1.80829	0.441936	36.5773	-12.778	0.321296
0.0600	11.0767	29.0583	-4.33917	-55.1903	15.6817	-2.43082	-1.08562	3.60146	-1.46467	0
0.0607	15.9505	40.6393	23.1163	-9.10657	13.5612	-1.80829	-2.30575	-39.7286	33.94	0
0.0613	20.2039	46.154	48.4508	56.8107	13.8571	-0.266797	-2.30575	-58.9514	54.0413	0.321296
0.0620	17.4569	40.6393	46.3104	41.8708	12.9448	4.00196	-0.470757	-63.5208	70.2537	0.321296
0.0627	12.5832	39.7484	30.452	8.60425	13.8571	6.43278	1.9695	-84.8819	131.265	0
0.0633	10.7666	36.3972	13.6596	30.5767	12.3284	2.75691	0.441936	-95.5737	187.124	-1.28518
0.0640	11.0767	29.0583	-0.681036	42.1624	9.27092	3.08299	-1.38345	-76.9587	155.659	-1.28518
0.0647	12.5832	26.5979	-8.30864	25.6831	9.59146	7.64819	-0.778191	-50.7131	89.749	0
0.0653	11.3869	21.7195	-11.0522	7.9885	6.82991	6.72923	-0.778191	-35.767	55.2534	0
0.0660	8.94999	14.4231	-8.61997	-35.0489	3.79713	6.72923	0.134502	-27.2135	7.37386	0.321296
0.0667	7.0891	9.20534	-3.73597	-55.482	3.18072	8.56716	1.66206	-17.4446	-48.7887	0.321296
0.0673	8.01955	6.4904	0.233498	-12.1529	0.739701	7.64819	0.749369	-10.4217	-41.4653	0
0.0680	9.52598	5.55714	2.9771	30.5767	-0.789015	5.51381	-0.163324	-6.46012	-6.96981	0
0.0687	9.83613	5.55714	5.7207	39.424	0.739701	4.59485	-0.163324	-4.63688	-3.93946	0
0.0693	9.26014	5.55714	7.54977	21.7294	0.739701	5.81026	1.0568	-4.02913	-22.8287	0
0.0700	7.7094	5.2602	7.8611	-12.7686	-0.789015	8.56716	2.27693	-4.32175	-87.2237	0
0.0707	6.77895	5.55714	6.94657	-18.2617	-4.14233	10.4051	2.58436	-7.06787	-161.114	0
0.0713	4.96237	8.01756	6.34336	7.68063	-7.49564	9.48613	1.66206	-9.20623	-143.992	0
0.0720	1.59505	11.3688	7.2579	33.0073	-6.28746	8.56716	0.749369	-9.20623	-74.0921	-0.321296
0.0727	0.0886138	14.7201	7.8611	47.9634	-5.05463	8.8636	1.36424	-7.99074	-29.2429	-0.321296
0.0733	-2.34827	14.4231	7.2579	9.51166	-4.46286	9.48613	1.9695	-5.24463	-10.6567	0
0.0740	-5.71559	10.1386	5.7207	-55.7899	-2.02185	10.4051	2.27693	-1.89077	-10.6567	0
0.0747	-7.53217	6.78735	3.28843	-74.1002	-3.52591	10.4051	1.66206	-1.57564	-16.768	-0.321296
0.0753	-8.77277	1.27263	1.75124	-70.1303	-7.49564	9.18969	0.441936	-0.360146	-10.0507	0
0.0760	-8.46262	-12.4293	1.45936	-59.7598	-7.19976	9.48613	1.0568	5.13208	7.6769	0.321296
0.0767	-6.33589	-22.5255	-2.21823	-39.9263	-6.90388	10.7015	1.36424	7.58558	23.2327	0
0.0773	-5.09529	-20.7014	-6.16824	-37.4795	-5.96692	12.8359	1.66206	5.13208	60.4556	0
0.0780	-3.27871	-13.3626	-2.82143	-45.7273	-5.37516	13.7549	2.58436	3.91659	122.426	0
0.0787	0.398762	-4.19967	4.49484	-49.3894	-7.81618	11.917	2.58436	6.95532	148.992	0
0.0793	1.9052	3.13915	7.8611	-40.2342	-9.34489	9.78257	2.27693	13.3704	129.144	0
0.0800	1.01906	0.975682	7.54977	-9.39824	-10.2572	7.94464	0.749369	16.4317	92.8298	-0.321296
0.0807	1.2849	-3.90273	8.4643	29.0535	-9.02436	6.72923	0.134502	18.2549	22.6266	0
0.0813	1.01906	-3.60578	6.94657	58.9496	-6.58334	6.13634	1.9695	25.5704	-47.2735	0
0.0820	-0.221534	-8.18724	0.544829	72.3826	-6.58334	5.21737	2.27693	31.0851	-45.4048	0
0.0827	2.83564	-13.6595	-1.59557	66.5816	-7.49564	4.00196	0.134502	21.6088	-10.3537	-0.321296
0.0833	7.39925	-6.95703	1.14803	53.1486	-9.02436	3.67588	-0.163324	4.20921	1.86872	-0.321296
0.0840	8.63984	1.612	1.75124	43.3939	-11.4654	4.2984	-0.163324	-3.71401	25.96	0
0.0847	8.63984	4.6663	1.75124	46.7481	-10.2572	5.51381	1.36424	0.855347	71.4658	0
0.0853	7.0891	4.96325	0.544829	56.5191	-8.11206	6.72923	3.18962	8.19332	74.7992	0
0.0860	4.65222	4.02999	-1.9069	57.4265	-9.64077	7.05531	2.58436	5.13208	24.4449	0
0.0867	3.45594	3.13915	1.75124	28.4378	-11.4654	8.56716	3.49706	-0.360146	-89.6985	0
0.0873	4.34208	0.678735	8.17243	-49.3894	-12.3777	10.4051	3.80449	6.34757	-228.842	0
0.0880	7.0891	-5.13293	11.5192	-108.582	-12.0818	9.78257	2.58436	13.6855	-221.822	0
0.0887	7.7094	-10.3083	8.17243	-98.5194	-9.02436	8.8636	2.88219	11.2321	-68.3345	0
0.0893	4.96237	-10.9022	-1.3037	-71.3618	-7.49564	7.35175	2.88219	4.20921	46.7179	0
0.0900	3.45594	-9.71439	-4.6505	-46.6347	-9.64077	4.59485	0.749369	-0.360146	80.6074	0
0.0907	1.9052	-8.48419	1.14803	-27.7248	-10.849	2.75691	-0.470757	-1.89077	92.8298	0
0.0913	-1.72797	1.27263	4.80617	-27.1091	-11.4654	3.08299	-0.163324	1.17047	58.0313	-0.321296
0.0920	-2.03812	16.2472	6.63524	-26.1854	-10.2572	5.21737	1.0568	6.6627	-39.6471	0
0.0927	-0.221534	18.3683	8.77563	-12.4608	-9.64077	6.43278	1.9695	5.13208	-126.921	0
0.0933	-1.72797	8.01756	6.94657	4.32643	-11.7859	1.5415	0.749369	2.99371	-129.346	-0.963889
0.0940	-2.96856	4.96325	1.45936	17.7594	-11.1695	-3.0237	0.134502	7.27045	-32.3238	-1.60648
0.0947	0.70891	15.017	-0.992367	25.3914	-9.34489	0.0296442	1.66206	11.8398	87.9308	-0.642592
0.0953	4.65222	19.3015	0.836701	20.19	-8.72848	3.67588	3.18962	20.0781	148.992	0
0.0960	4.34208	-1.14537	-0.992367	7.68063	-7.81618	4.00196	5.02462	28.339	140.406	-0.321296
0.0967	1.2849	-19.1743	-6.47957	-3.30559	-8.40794	4.2984	6.24474	15.2162	82.1226	0
0.0973	-0.221534	-11.5385	-8.61997	-15.1992	-10.2572	5.21737	5.02462	-10.4217	-27.1217	0
0.0980	1.2849	-1.14537	-7.70543	-22.5234	-10.849	7.35175	5.32244	-16.8368	-160.457	0
0.0987	3.45594	1.612	-6.16824	-22.8312	-11.7859	8.56716	5.32244	-0.0450183	-226.115	0
0.0993	5.89282	4.02999	-4.0473	-27.7248	-11.1695	8.8636	5.32244	21.001	-187.326	0
0.1000	7.0891	5.85409	-0.369705	-50.2968	-9.93666	7.64819	5.62988	30.1622	-120.204	0
0.1007	5.58267	4.02999	0.233498	-70.4382	-10.5531	4.59485	3.80449	24.9626	-66.1627	0
0.1013	1.59505	3.13915	-2.82143	-51.2204	-10.5531	3.08299	3.49706	18.57	-5.45464	0
0.1020	-2.65841	4.32694	-5.56504	-13.9839	-10.2572	3.37943	3.80449	10.9394	49.4958	0
0.1027	-5.09529	4.6663	-6.47957	3.71068	-9.64077	3.67588	3.18962	4.20921	91.6177	0
0.1033	-4.20915	4.96325	-5.25371	13.7895	-8.11206	2.75691	2.88219	2.7011	134.295	0
0.1040	-3.27871	4.6663	-4.33917	23.2525	-7.19976	3.37943	2.88219	2.7011	137.679	0
0.1047	-2.65841	3.73304	-4.6505	22.9447	-7.19976	4.2984	3.49706	3.60146	46.4149	0
0.1053	1.01906	1.27263	-4.6505	17.7594	-7.81618	4.59485	3.80449	3.30884	-81.769	0
0.1060	5.58267	-6.95703	-4.6505	10.4353	-9.93666	4.2984	3.18962	3.30884	-149.194	0
0.1067	8.94999	-15.4836	-3.42464	2.49539	-9.02436	4.59485	2.27693	5.44721	-143.689	0
0.1073	12.5832	-17.9441	-1.3037	7.08109	-5.37516	4.00196	2.27693	7.58558	-92.1227	0
0.1080	14.1339	-18.241	-1.3037	14.6969	-5.05463	1.86758	1.66206	9.70143	-34.142	0
0.1087	13.2035	-17.3077	-0.992367	1.2801	-5.37516	0.326086	0.441936	10.0166	-4.54553	0
0.1093	11.9629	-19.7682	-1.9069	-14.2918	-4.46286	0.0296442	-0.163324	10.3317	5.85868	0
0.1100	11.697	-19.4712	-4.96183	-9.39824	-5.05463	-0.889325	-0.470757	12.7627	22.0206	0
0.1107	10.1463	4.02999	-4.33917	0.972231	-3.84645	-0.592883	-0.163324	14.901	44.5967	0
0.1113	7.7094	28.4644	-2.21823	4.6343	-2.31773	0.948613	0.749369	14.901	22.6266	-0.321296
0.1120	6.51311	24.7738	-0.992367	4.32643	-4.75875	1.5415	0.134502	11.5472	-55.506	0
0.1127	6.77895	14.4231	0.544829	7.37275	-6.58334	0.0296442	-0.778191	6.05496	-63.7384	0
0.1133	3.45594	13.7868	3.5803	18.9747	-5.37516	-1.18577	-0.778191	0.562728	68.385	0
0.1140	-3.27871	17.4774	6.63524	31.4841	-3.52591	-0.592883	-0.163324	-2.79113	213.034	0
0.1147	-9.96905	19.5985	7.8611	34.5466	-2.02185	0.326086	1.0568	-3.71401	270.712	0
0.1153	-17.9443	16.8411	6.63524	28.4378	-2.02185	-0.592883	1.36424	-3.71401	285.661	-0.321296
0.1160	-29.8185	12.896	1.75124	19.8983	-4.75875	-2.10474	0.134502	-4.32175	330.561	0
0.1167	-40.8066	13.4899	-1.59557	10.4353	-6.90388	-2.10474	-0.163324	-6.46012	330.561	-0.321296
0.1173	-46.6109	14.7201	-0.992367	-4.82875	-6.90388	0.622527	0.749369	-8.59849	122.123	-0.321296
0.1180	-49.9782	11.3688	0.233498	-15.1992	-5.37516	4.2984	3.18962	-7.06787	-153.79	0
0.1187	-50.2883	6.78735	0.544829	-7.87507	-3.84645	5.21737	5.32244	-4.32175	-224.246	0
0.1193	-44.4841	1.90894	-0.369705	7.37275	-4.75875	2.16402	3.80449	-3.71401	-204.751	0.321296
0.1200	-34.6923	0.0848419	0.233498	14.4052	-4.14233	0.622527	1.9695	2.7011	-251.418	0.321296
0.1207	-26.1411	1.27263	1.45936	15.9284	-1.70131	0.622527	2.27693	13.6855	-223.034	0
0.1213	-21.5775	0.0848419	-0.0778327	21.7294	-0.172597	0.0296442	1.9695	18.8626	-78.0821	-0.321296
0.1220	-16.3936	1.612	-0.369705	30.8846	0.739701	1.86758	2.88219	19.1778	94.345	0.321296
0.1227	-8.15247	13.4899	1.75124	28.1299	-2.61361	1.24505	2.58436	19.1778	188.033	0
0.1233	-1.15198	27.5312	4.49484	12.5742	-6.58334	-4.23912	0.441936	19.1778	97.0723	-1.28518
0.1240	2.83564	32.4096	8.17243	0.972231	-5.96692	-5.78061	-0.163324	11.8398	-68.9405	-1.28518
0.1247	2.83564	25.1132	9.37884	-4.213	-5.37516	-3.0237	0.134502	-18.0523	-168.74	0
0.1253	2.21534	9.20534	9.37884	-4.213	-6.28746	-1.80829	-0.163324	-39.7286	-202.579	0
0.1260	2.21534	-6.66009	11.5192	-2.99771	-6.58334	-2.10474	-0.163324	-27.5287	-161.114	0
0.1267	0.398762	-14.8897	10.916	-12.1529	-8.11206	-1.51185	-1.08562	-12.5601	-66.4658	0
0.1273	0.0886138	-14.8897	1.14803	-16.1228	-9.34489	0.326086	-1.69088	-5.85237	-16.768	0
0.1280	1.59505	-22.5255	-5.87637	5.25005	-11.1695	0.326086	-1.69088	8.80107	-35.6572	-0.321296
0.1287	3.14579	-34.7003	1.45936	27.822	-11.7859	0.0296442	-0.778191	25.2777	-56.112	0
0.1293	6.51311	-12.1324	10.2934	33.3151	-10.5531	0.948613	0.749369	34.7316	-46.9705	0
0.1300	11.0767	13.4899	9.37884	30.8846	-13.29	0.622527	-0.778191	36.2622	4.293	0
0.1307	14.1339	0.678735	4.49484	28.1299	-16.6679	0.0296442	-2.30575	25.8855	92.5268	0
0.1313	15.9505	-1.78168	6.63524	24.16	-17.8761	0.948613	-1.38345	14.5859	149.598	0
0.1320	15.6403	-15.7806	12.7451	20.4979	-19.4048	1.24505	-1.38345	2.09335	174.296	0.321296
0.1327	10.4564	-86.5811	10.0015	18.9747	-20.9335	1.24505	-1.99832	-10.7369	191.367	0
0.1333	6.51311	-157.085	5.42883	14.0974	-22.4623	1.5415	-1.08562	-6.77525	122.426	0
0.1340	6.51311	-201.033	9.69017	6.15747	-24.9033	1.24505	-1.38345	3.30884	11.9194	0
0.1347	4.34208	-228.182	14.5742	-7.87507	-24.2869	0.622527	-2.60358	10.9394	4.94958	0
0.1353	0.70891	-209.262	13.6596	-30.4632	-23.6704	-0.266797	-3.21844	23.7471	51.617	0
0.1360	0.398762	-143.383	10.2934	-44.2041	-26.1115	-0.592883	-5.35126	27.7087	33.2834	0
0.1367	2.52549	-84.1631	9.37884	-41.7573	-24.9033	0.0296442	-5.6587	15.5088	-24.0913	0
0.1373	4.96237	-48.1478	10.6047	-39.9263	-23.991	1.5415	-3.8237	4.83946	-78.9912	0
0.1380	8.3297	-14.5928	9.69017	-42.0652	-25.5197	3.67588	-2.91101	11.8398	-158.942	-0.321296
0.1387	11.697	-35.0397	8.77563	-39.0027	-25.5197	4.92093	-2.91101	35.3393	-195.559	-0.321296
0.1393	12.5832	-148.855	15.1774	-32.2943	-26.1115	2.75691	-4.13114	49.7001	-114.699	0
0.1400	12.8933	-230.94	22.5131	-22.8312	-26.1115	1.24505	-5.05344	28.9467	-11.5658	0
0.1407	14.444	-234.63	11.8306	-13.0765	-24.2869	0.948613	-4.13114	-9.52136	35.7582	0
0.1413	18.3874	-255.077	-14.4185	-9.10657	-23.991	2.16402	-3.52588	-22.3291	29.95	-0.321296
0.1420	24.5017	-212.656	-32.4173	-6.04404	-23.991	2.75691	-3.21844	-5.85237	-54.5969	-0.321296
0.1427	31.1921	-39.9181	-28.7592	3.41901	-24.9033	0.326086	-4.43857	10.3317	-155.306	0
0.1433	36.4203	127.008	-12.5894	14.6969	-24.2869	-1.80829	-6.57139	13.9782	-154.397	0
0.1440	34.2492	275.651	3.28843	22.021	-20.3171	-1.80829	-7.18626	23.7471	-77.7791	-0.321296
0.1447	26.3183	412.077	17.3178	25.0836	-17.5802	-1.80829	-6.57139	50.6005	-11.2628	-0.321296
0.1453	16.2606	299.449	16.7146	24.4678	-16.6679	-1.80829	-5.96613	61.2924	40.0007	0.321296
0.1460	-0.531683	-42.9724	-1.3037	20.8058	-16.6679	-0.889325	-5.6587	34.1238	92.8298	0
0.1467	-27.0715	-213.844	-12.2781	14.6969	-16.6679	-0.266797	-5.35126	14.2933	117.224	0
0.1473	-45.1044	-117.718	-3.13277	6.46534	-15.4351	0.326086	-4.746	15.2162	65.3546	0
0.1480	-39.3002	-13.3626	6.63524	-4.52088	-14.2269	0.948613	-4.13114	-0.0450183	-42.6775	0
0.1487	-28.002	11.6658	-7.3941	-13.9839	-13.9064	1.24505	-3.52588	-10.4217	-111.365	0
0.1493	-18.5203	32.4096	-31.5028	-17.9539	-13.9064	1.5415	-4.43857	8.80107	-110.759	0
0.1500	-4.20915	46.154	-32.4173	-15.815	-14.5228	1.86758	-5.6587	35.0467	-91.2136	-0.321296
0.1507	5.89282	36.6941	-14.7298	-6.96766	-14.5228	2.16402	-4.746	38.4006	-58.5363	0
0.1513	6.51311	78.1818	-4.0473	5.54172	-11.7859	2.16402	-3.21844	10.9394	-16.1114	0
0.1520	6.20296	127.008	6.03203	17.7594	-9.64077	2.46047	-2.91101	-36.0596	5.25261	0
0.1527	14.1339	21.7195	28.6035	27.5141	-10.5531	2.46047	-3.8237	-71.1513	16.2124	0
0.1533	27.869	-152.843	39.286	31.4841	-11.4654	-0.266797	-5.05344	-74.5052	35.4551	-0.963889
0.1540	38.8571	-234.927	17.6291	28.4378	-9.93666	-1.51185	-4.13114	-63.2281	59.8495	-1.60648
0.1547	53.4784	-198.275	-1.9069	22.9447	-8.11206	2.75691	-2.91101	-38.5131	74.4962	-0.642592
0.1553	54.0987	-20.7014	10.0015	15.6205	-7.81618	5.21737	-2.91101	-1.28302	98.638	0.321296
0.1560	4.96237	179.525	23.739	6.46534	-9.34489	3.37943	-3.52588	17.9623	144.396	0.321296
0.1567	-57.2888	298.219	20.0614	-2.38197	-10.5531	1.5415	-5.35126	8.48594	136.77	0
0.1573	-88.1264	416.955	10.2934	-10.014	-9.93666	0.948613	-5.96613	-6.1675	25.96	0
0.1580	-98.4942	454.159	-1.9069	-11.5371	-7.19976	2.16402	-4.13114	-17.7597	-82.3751	-0.321296
0.1587	-76.2079	328.762	-15.6444	-5.73617	-3.84645	4.59485	-2.60358	-27.5287	-76.87	-0.321296
0.1593	-32.8757	217.365	-27.5333	0.664358	-3.52591	5.51381	-2.60358	-25.998	6.46475	-0.321296
0.1600	-9.08291	203.027	-26.0156	4.6343	-4.14233	4.59485	-4.13114	-10.4217	99.2441	0
0.1607	15.6403	186.228	-4.96183	7.37275	-3.52591	4.00196	-5.05344	5.44721	145.912	0
0.1613	104.431	134.347	12.4338	4.32643	-1.70131	4.2984	-3.8237	19.1778	102.881	0
0.1620	213.692	101.089	13.6596	-1.78242	1.94788	4.59485	-2.91101	46.6389	29.3439	0.321296
0.1627	243.289	96.8046	14.5742	-4.52088	4.70943	4.2984	-3.52588	67.0772	-21.9196	0.321296
0.1633	214.002	81.2361	19.7695	-8.18295	5.00531	4.59485	-4.746	58.8389	-91.8197	0
0.1640	163.36	30.5855	25.568	-15.815	4.70943	4.59485	-4.746	40.5389	-155.003	-0.321296
0.1647	92.2469	-29.8219	35.336	-19.7849	5.32585	3.67588	-4.13114	28.339	-132.123	0
0.1653	25.698	-77.7576	45.7072	-17.9539	8.35863	4.00196	-3.52588	25.5704	-57.3242	0
0.1660	-4.475	-116.191	47.225	-13.3682	10.5038	6.72923	-2.30575	18.57	-9.3941	0
0.1667	-9.39306	-102.786	39.5974	-8.18295	8.67916	10.7015	-1.99832	8.19332	30.253	0.321296
0.1673	-13.9567	-86.2842	19.4582	-2.99771	7.44633	11.917	-2.30575	11.5472	78.7892	0
0.1680	-4.20915	-187.925	-4.0473	0.664358	7.44633	11.3241	-2.91101	14.901	79.0922	0
0.1687	25.4322	-299.916	-8.9313	5.84959	8.06274	10.4051	-2.60358	10.0166	65.6577	0
0.1693	45.5475	-287.699	-3.73597	7.37275	8.67916	7.05531	-2.60358	13.3704	87.3247	0
0.1700	39.1673	-201.033	-2.5101	1.87965	5.00531	2.75691	-5.05344	23.7471	82.4256	0
0.1707	23.2611	-150.382	0.544829	0.664358	1.03558	2.46047	-5.05344	29.5545	-4.54553	0.321296
0.1713	15.9505	-155.558	13.971	3.71068	1.03558	4.59485	-4.13114	29.2394	-106.466	0.321296
0.1720	8.63984	-81.1088	42.341	5.25005	2.5643	5.51381	-3.8237	24.0623	-94.8501	0.321296
0.1727	1.01906	19.5985	52.4203	7.68063	4.09301	5.21737	-2.91101	24.67	14.6972	0
0.1733	-2.34827	3.73304	14.8855	14.0974	3.79713	3.67588	-2.60358	28.339	83.9408	0
0.1740	-5.71559	-12.1324	-42.1853	17.7594	3.4766	2.75691	-3.52588	22.2165	75.1023	0
0.1747	-5.40544	22.0589	-73.9216	11.6506	4.38889	3.67588	-3.52588	34.1238	58.9404	0
0.1753	-1.72797	25.7071	-65.3794	7.08109	4.70943	4.2984	-2.30575	67.6849	21.7175	0
0.1760	4.96237	55.6138	-34.869	11.0348	4.38889	6.13634	-1.69088	63.7233	-42.6775	0
0.1767	12.273	129.469	-4.0473	13.7895	4.09301	6.43278	-1.69088	21.001	-23.1317	0
0.1773	13.5136	140.456	13.6596	16.2363	3.18072	3.67588	-3.21844	-4.32175	38.4855	0
0.1780	11.3869	55.02	15.1774	18.359	3.18072	3.08299	-4.43857	1.17047	1.56568	0
0.1787	6.20296	-98.7984	11.5192	6.15747	4.70943	4.92093	-3.8237	-12.2675	-81.769	0
0.1793	0.70891	-254.738	0.544829	-2.68984	8.67916	6.43278	-3.21844	-58.0285	-84.7994	0
0.1800	0.398762	-302.97	-21.7348	1.2801	11.7119	8.27072	-2.30575	-71.1513	-33.5359	0
0.1807	-0.221534	-238.575	-38.8385	-6.65978	11.1202	8.56716	-1.99832	-42.1596	-8.78802	0
0.1813	-3.27871	-115.894	-45.2402	-14.5997	9.27092	7.05531	-2.30575	-15.6213	1.56568	0
0.1820	-6.64603	-20.3621	-57.1486	-1.78242	10.5038	5.81026	-1.69088	-1.28302	39.0916	0
0.1827	-12.4502	-53.3231	-65.3794	13.4816	12.9448	5.21737	-1.38345	9.70143	61.6677	-0.321296
0.1833	-16.0834	-64.9465	-40.6676	7.37275	13.8571	2.75691	-1.38345	29.2394	25.0509	-1.28518
0.1840	-8.46262	133.414	7.54977	-7.27553	13.8571	2.75691	0.134502	59.4466	-10.0507	-1.60648
0.1847	-5.40544	302.504	38.6828	-4.82875	13.5612	7.94464	1.66206	75.3155	-24.3943	0
0.1853	-17.9443	269.246	50.8831	5.25005	13.8571	10.7015	1.36424	72.2768	-51.819	0.321296
0.1860	-24.6346	262.204	79.8758	15.0048	14.7694	8.56716	0.441936	85.6922	-50.6069	-0.321296
0.1867	-28.6223	240.527	102.155	27.2225	16.2981	6.72923	-0.163324	91.4996	-20.1013	-0.642592
0.1873	-40.4965	85.2237	85.9856	30.2688	18.1227	4.92093	-1.08562	31.6929	14.6972	-0.321296
0.1880	-45.1044	36.1002	42.9636	23.8521	18.4432	2.16402	-2.60358	-52.5363	118.436	0
0.1887	-32.2554	153.861	-13.1926	10.7432	19.6514	0.948613	-2.91101	-97.7121	285.055	0
0.1893	-15.4631	192.93	-59.2696	0.664358	23.9417	2.46047	-1.38345	-94.6509	479.452	0
0.1900	-15.1973	108.089	-91.0253	-4.82875	27.8867	3.67588	-0.470757	-72.0742	676.021	0
0.1907	-26.1411	27.2342	-114.2	-20.0928	29.4155	4.2984	-0.778191	-80.6277	660.769	0
0.1913	-39.6104	-113.773	-119.707	-32.2943	28.5032	4.00196	-1.99832	-119.996	360.158	0.321296
0.1920	-58.7952	-330.417	-113.285	-27.4169	27.295	4.92093	-3.21844	-123.958	26.6166	0
0.1927	-72.8405	-479.357	-116.34	-26.8012	26.0621	6.72923	-2.30575	-82.1358	-210.206	0
0.1933	-68.2769	-502.561	-118.481	-59.4519	24.854	8.8636	-1.08562	-45.5135	-427.532	0
0.1940	-60.346	-428.112	-91.6285	-85.3943	25.4457	11.6205	-0.163324	-17.4446	-559.05	-0.321296
0.1947	-60.9663	-301.74	-51.0388	-53.651	23.6211	8.56716	-1.08562	6.05496	-486.725	0
0.1953	-36.243	-144.274	7.8611	-1.16668	19.6514	1.86758	-3.52588	18.8626	-302.682	0
0.1960	22.951	46.4509	82.0162	33.623	19.3555	0.0296442	-2.60358	40.8316	-145.204	0
0.1967	53.4784	189.876	100.015	52.2412	19.035	-0.592883	-1.08562	58.8389	-65.5566	0
0.1973	41.87	210.026	77.1322	57.1186	18.7391	-1.51185	0.749369	42.6773	-52.1221	-0.321296
0.1980	35.8	280.233	87.5034	53.7644	19.6514	-0.266797	2.58436	8.48594	-61.9202	0
0.1987	31.5022	383.358	88.7292	56.5191	18.4432	1.24505	1.9695	-24.7825	-54.2938	0
0.1993	15.9505	340.046	42.0491	50.4102	19.035	3.67588	1.9695	-50.7131	-25.0004	-0.321296
0.2000	0.70891	328.762	3.5803	5.84959	21.1801	5.51381	3.49706	-55.8902	-14.5962	0.321296
0.2007	-8.77277	422.131	-4.0473	-23.7549	22.413	5.81026	4.40975	-40.0212	-27.4247	0.321296
0.2013	-9.08291	429.13	2.06257	-2.68984	24.2375	6.43278	5.62988	-5.85237	0.959612	0
0.2020	-11.2096	315.612	9.69017	-1.16668	24.2375	6.13634	5.62988	7.27045	55.607	0
0.2027	-19.1406	185.931	1.14803	-42.9726	23.9417	4.59485	2.58436	-33.0209	87.3247	0
0.2033	-22.1978	75.7638	-27.2414	-68.6071	22.7088	4.59485	0.441936	-74.2126	138.891	-0.321296
0.2040	-23.394	-34.7003	-55.3196	-52.1278	20.5637	4.59485	0.441936	-71.7591	211.822	0
0.2047	-25.5651	-116.191	-59.8922	-24.9701	22.0924	4.00196	1.66206	-58.6363	250.004	0
0.2053	-22.1978	-148.261	-47.3806	-28.0165	23.3252	4.2984	3.49706	-61.0898	169.094	0
0.2060	-16.3936	-221.48	-34.869	-60.6834	21.5007	6.72923	4.71718	-55.5975	-42.6775	-0.321296
0.2067	-11.2096	-351.203	-13.8153	-78.3781	19.6514	8.27072	5.32244	-27.8213	-178.791	-0.321296
0.2073	-2.65841	-398.205	17.6291	-56.0978	17.2104	6.43278	4.71718	-2.18339	-159.548	-0.321296
0.2080	6.20296	-277.942	44.4814	-24.6623	16.2981	6.13634	5.32244	3.91659	-106.769	0
0.2087	11.9629	8.9084	61.5656	-15.815	15.6817	4.92093	6.24474	1.77822	-64.0415	0.321296
0.2093	11.9629	181.943	69.5046	-20.6923	13.5612	1.24505	5.02462	-4.9295	-50.6069	0
0.2100	5.89282	-20.3621	66.761	-23.1391	13.8571	-1.18577	3.80449	-13.1678	-79.9003	0
0.2107	4.03193	-274.591	51.7976	-22.8312	15.3858	-1.51185	3.18962	-15.0136	-94.547	0
0.2113	8.63984	-265.428	35.9392	-21.3081	17.8268	-2.10474	4.40975	-11.0295	-57.6272	0.321296
0.2120	8.94999	-119.245	36.8538	-19.7849	22.0924	-1.80829	5.62988	-1.28302	-26.2126	0.321296
0.2127	1.59505	-63.4193	35.0247	-20.0928	22.413	-2.10474	4.40975	12.7627	-20.1013	0.321296
0.2133	-5.71559	-177.532	13.0564	-16.7386	21.5007	-5.15808	2.27693	24.3549	-28.9399	-0.642592
0.2140	-7.53217	-205.614	-4.33917	-8.49082	21.7965	-7.91499	1.9695	32.9083	-79.5973	-1.28518
0.2147	-6.02574	69.6552	-0.681036	-3.30559	20.2678	-4.5652	3.18962	37.4777	-110.103	-0.321296
0.2153	-6.64603	359.56	9.37884	0.0486116	19.3555	-1.51185	3.80449	35.0467	-80.2034	0.321296
0.2160	-12.4502	338.816	8.77563	4.6343	18.1227	-1.51185	4.40975	22.8243	-41.1623	0
0.2167	-17.9443	163.024	-0.681036	7.68063	15.0899	-0.592883	4.71718	0.855347	-0.252529	0
0.2173	-19.7609	126.414	-13.8153	13.7895	12.9448	-1.18577	5.62988	-12.8752	45.2028	0.321296
0.2180	-18.5203	120.306	-30.2769	19.2826	13.2407	-3.0237	6.55218	-7.38299	83.9408	0
0.2187	-6.33589	7.67819	-34.869	19.5905	13.8571	-2.43082	8.07013	-5.85237	111.719	-0.321296
0.2193	14.7099	42.5058	-23.272	16.8358	14.153	-1.80829	9.29025	-16.2291	112.628	-0.321296
0.2200	25.4322	263.137	-18.388	10.7432	12.9448	-2.43082	9.59769	-22.9368	62.2738	0
0.2207	17.1911	343.397	-29.985	5.54172	11.4161	-2.72726	9.29025	-26.6058	41.8694	0
0.2213	1.9052	192.04	-55.6114	5.25005	11.7119	-2.43082	8.68499	-25.0752	146.215	0
0.2220	-6.33589	21.4226	-68.7457	4.01856	12.3284	-0.889325	8.37756	-19.5829	231.367	0.321296
0.2227	-7.22202	-19.7682	-60.4954	0.972231	11.4161	0.948613	8.68499	-15.914	180.407	0.321296
0.2233	0.0886138	-47.5539	-55.0082	1.2801	8.67916	1.24505	8.68499	1.17047	127.931	0
0.2240	12.5832	-114.367	-32.7286	0.664358	5.91761	3.37943	8.99243	28.339	64.4455	0
0.2247	16.5708	-146.395	1.75124	-1.47455	4.70943	6.72923	11.1252	36.5773	-81.4155	-0.321296
0.2253	16.2606	-193.1	35.6279	-2.99771	4.38889	7.05531	12.6528	25.5704	-151.316	-0.321296
0.2260	24.1916	-146.098	95.1504	-1.47455	5.32585	5.51381	11.4327	23.7471	-133.639	0
0.2267	23.2611	134.941	150.684	14.0974	3.79713	4.92093	9.90512	29.8471	-128.133	0
0.2273	11.0767	250.326	170.512	23.8521	1.94788	5.21737	8.68499	21.001	-78.3851	0
0.2280	1.59505	12.599	162.884	8.60425	1.03558	5.21737	8.99243	-10.1291	-9.3941	0
0.2287	-3.58886	-136.638	133.6	-8.18295	1.94788	4.00196	9.90512	-34.529	-15.8083	0
0.2293	-1.46213	-120.179	75.9063	-14.9075	3.79713	4.00196	11.4327	-17.152	-57.6272	0
0.2300	5.89282	-80.8119	-0.0778327	-17.3381	2.26842	2.75691	12.0379	11.8398	-80.8094	0
0.2307	6.20296	-47.5539	-43.0998	-13.3682	0.123284	-0.592883	10.5104	11.2321	-86.0115	0
0.2313	-2.65841	-110.422	-50.1242	-3.90513	0.739701	-2.72726	8.99243	1.46309	-58.5363	0
0.2320	-9.39306	-89.9748	-58.9777	3.41901	1.03558	-3.94267	9.29025	-12.5601	-19.4953	-0.321296
0.2327	-8.77277	68.7219	-64.7762	6.15747	1.35612	-4.5652	10.2126	-15.0136	-6.06071	-0.321296
0.2333	-11.2096	53.1534	-69.6602	5.54172	1.03558	-3.0237	11.4327	10.6243	-10.6567	0
0.2340	-18.2101	-100.029	-72.4038	1.58798	1.35612	-0.592883	12.6528	26.2006	-17.071	0
0.2347	-16.3936	-99.7316	-51.642	-2.99771	2.26842	2.16402	12.9602	28.6316	-21.0105	0.321296
0.2353	-7.84232	93.7503	-28.7592	-3.90513	2.26842	4.00196	12.6528	32.3006	-16.768	0
0.2360	-6.95618	273.488	-19.6138	-2.38197	1.94788	4.92093	12.3454	33.8312	-13.3841	-0.321296
0.2367	-9.70321	232.933	-2.82143	-3.90513	1.03558	4.92093	11.7401	36.8699	-24.3943	0.321296
0.2373	-10.5893	60.1953	18.5436	-8.79869	1.35612	4.59485	10.5104	35.6545	-28.9399	0
0.2380	-17.0138	-6.66009	32.8843	-6.04404	-0.172597	3.67588	8.68499	32.5932	-21.0105	-0.321296
0.2387	-15.7733	53.4928	34.1102	8.29637	-3.52591	3.08299	8.07013	38.4006	-20.1013	0
0.2393	-6.33589	21.1256	-8.9313	13.4816	-7.19976	3.67588	8.99243	52.4463	-22.2226	0
0.2400	-13.0262	-187.628	-79.7201	4.32643	-13.9064	2.75691	9.59769	69.2156	-31.4147	0
0.2407	-25.8752	-331.35	-138.309	1.58798	-19.109	1.24505	9.29025	82.9461	-55.506	0.321296
0.2413	-18.2101	-317.012	-201.489	8.91212	-22.1417	0.622527	9.29025	94.2457	-65.2536	0
0.2420	4.65222	-285.875	-224.08	16.5279	-26.432	-0.266797	8.68499	116.215	-39.0411	0
0.2427	30.6161	-274.591	-161.814	20.4979	-30.4017	-2.72726	7.15743	149.483	0.0505059	0.321296
0.2433	54.0987	-358.499	-89.4881	21.4215	-33.755	-8.83396	5.32244	197.405	35.4551	-0.963889
0.2440	71.7772	-553.805	-41.5821	25.0836	-34.6673	-11.2648	4.40975	252.935	78.4862	-1.28518
0.2447	80.0182	-503.452	19.7695	28.4378	-34.6673	-6.99602	4.71718	270.627	99.8502	0
0.2453	79.4423	-86.2842	98.1859	22.6368	-37.7248	-5.15808	5.62988	234.635	51.314	0
0.2460	68.4541	201.796	154.654	8.91212	-38.6371	-5.15808	5.62988	118.668	-27.1217	-0.321296
0.2467	43.7309	195.094	152.824	-13.0765	-39.5494	-3.32015	4.71718	-75.1355	-87.2237	-0.321296
0.2473	25.4322	153.267	118.636	-35.3406	-44.4314	-1.18577	5.62988	-202.987	-119.598	0
0.2480	32.1225	148.685	87.2115	-33.5096	-44.7273	0.948613	6.24474	-184.372	-79.2943	0
0.2487	37.9267	262.501	61.2738	-16.7386	-40.4617	2.75691	5.62988	-106.558	10.1012	0
0.2493	18.6975	373.007	17.6291	-11.2455	-36.7878	5.21737	4.40975	-71.7591	47.021	0.321296
0.2500	-6.02574	273.488	-50.7274	-10.9376	-30.6976	8.56716	4.40975	-73.2897	20.5054	0.321296
0.2507	-15.7733	115.724	-81.8605	-6.65978	-23.0787	10.1087	4.71718	-51.6359	18.3336	0
0.2513	-22.8181	-29.525	-52.5565	-1.78242	-17.8761	9.48613	4.10231	0.2476	45.5058	0
0.2520	-41.1168	-176.344	1.75124	-1.16668	-12.3777	9.48613	5.02462	61.585	18.6367	0
0.2527	-50.5985	-304.201	67.6755	-8.18295	-6.90388	11.917	6.55218	93.638	-33.2329	0
0.2533	-26.4512	-476.302	109.18	-16.4307	-4.75875	13.7549	6.85	62.5078	-21.3135	-0.321296
0.2540	5.89282	-599.917	109.18	-17.9539	-3.52591	12.243	6.55218	31.0851	18.9397	0
0.2547	14.7099	-541.927	123.832	-14.5997	-2.61361	7.94464	7.15743	59.7617	31.4652	0
0.2553	17.4569	-454.965	165.336	-10.014	-0.789015	7.05531	7.15743	97.9147	26.6166	0
0.2560	28.7552	-361.851	165.939	-5.13662	3.18072	12.243	6.85	92.1073	13.7881	0
0.2567	25.4322	-35.9305	103.984	-5.13662	7.76686	16.8082	7.46487	67.3923	-3.63642	0
0.2573	15.02	322.314	57.3043	-9.70611	12.3284	17.1047	9.29025	71.9617	-17.6771	-0.321296
0.2580	25.698	578.367	58.822	-4.213	16.2981	15.5928	10.8178	80.5151	-16.4144	-0.321296
0.2587	34.2492	740.415	54.2494	11.0348	20.5637	18.3201	11.7401	48.4621	7.37386	-0.321296
0.2593	22.6851	726.077	22.805	19.5905	26.0621	24.4268	11.7401	1.17047	27.8287	0
0.2600	2.83564	737.361	-38.2158	19.2826	30.0319	24.1303	9.59769	-31.4903	25.354	0
0.2607	-23.1282	697.103	-110.25	17.1437	33.3852	15.8893	6.85	-52.2437	17.1215	0
0.2613	-41.7371	488.647	-135.565	15.9284	39.5	5.51381	5.93731	-51.0282	15.9094	0
0.2620	-36.5532	303.098	-110.25	17.4516	44.9985	0.326086	3.80449	-46.1437	17.4245	0
0.2627	-19.7609	211.553	-89.1768	19.2826	45.9108	-1.18577	-0.778191	-75.7432	15.6063	0
0.2633	-3.58886	199.633	-112.371	10.4353	43.1492	-0.266797	-2.60358	-107.166	14.0911	0
0.2640	3.45594	196.918	-150.217	-6.35191	38.2672	-6.3735	-1.08562	-101.674	14.6972	0
0.2647	0.0886138	160.903	-142.589	-11.5371	30.9442	-27.4505	1.0568	-78.1742	16.2124	0
0.2653	-7.22202	188.349	-79.7201	-5.73617	25.1498	-39.0414	3.80449	-54.382	29.3439	0
0.2660	-15.7733	261.907	-15.6444	-4.213	21.7965	-30.5038	4.71718	-52.2437	41.8694	0
0.2667	-19.4507	242.987	8.17243	-7.5672	18.7391	-19.5059	1.9695	-58.3437	26.2631	-0.321296
0.2673	-13.3364	161.2	28.6035	-6.65978	15.3858	-17.994	0.441936	-10.4217	3.98997	0
0.2680	1.59505	88.278	71.9563	0.972231	12.0325	-20.7213	0.134502	82.6535	4.59604	0
0.2687	19.9381	19.3015	112.235	9.51166	8.35863	-17.994	0.134502	127.199	15.0002	0
0.2693	31.1921	0.381788	107.039	15.6205	5.32585	-14.3181	0.134502	81.438	34.546	0.321296
0.2700	30.9262	28.7614	24.6535	22.9447	5.91761	-13.1027	-0.470757	-17.4446	97.3754	0.321296
0.2707	28.445	43.3966	-48.8984	30.8846	10.7996	-8.83396	-1.08562	-118.466	177.326	0
0.2713	25.4322	15.017	-30.5882	35.1462	13.8571	-4.86164	-1.69088	-142.865	218.539	0
0.2720	12.5832	-57.6076	-16.5589	36.0698	17.8268	-3.64623	-1.69088	-67.1897	247.832	0
0.2727	-3.27871	-158.018	-65.0681	32.7156	23.6211	-1.51185	-0.778191	-4.32175	263.085	0
0.2733	-12.4502	-257.792	-77.2878	22.6368	25.1498	-2.10474	-1.08562	-23.5445	211.822	-0.963889
0.2740	-16.3936	-305.728	-61.1181	13.7895	25.4457	-4.23912	-1.69088	-61.0898	158.437	-1.60648
0.2747	-12.7161	-307.255	-93.1463	2.80327	26.0621	1.24505	-0.470757	-49.4976	123.941	-0.642592
0.2753	0.0886138	-329.526	-119.707	-17.9539	21.1801	8.8636	0.749369	-27.8213	2.17175	0.321296
0.2760	11.697	-422.597	-82.1718	-33.8174	16.9145	12.243	1.66206	-27.5287	-145.811	0
0.2767	19.9381	-633.175	-31.2109	-42.9726	12.6489	11.3241	1.36424	20.0781	-201.67	0
0.2773	29.0653	-823.306	24.3422	-47.5583	4.70943	9.48613	-1.08562	79.2997	-190.104	0
0.2780	26.6284	-816.9	102.155	-36.2642	-2.31773	7.64819	-1.38345	79.9074	-129.649	0
0.2787	12.273	-915.783	174.481	-20.0928	-7.49564	3.67588	-1.38345	59.4466	-27.7277	0
0.2793	6.77895	-919.431	251.691	-8.49082	-12.6982	0.0296442	-3.52588	40.5389	49.7988	0
0.2800	19.3178	-278.536	313.335	12.2663	-22.1417	-3.0237	-5.05344	24.3549	71.7689	-0.321296
0.2807	51.6618	414.198	309.074	36.6693	-31.314	-5.15808	-5.96613	7.58558	89.749	0
0.2813	81.2588	820.379	236.436	48.5792	-32.2263	-4.23912	-6.27356	-13.7756	98.2845	0.321296
0.2820	62.3398	1066.04	66.1578	24.7757	-30.6976	-1.51185	-3.52588	-12.2675	17.1215	0
0.2827	8.3297	862.503	-190.204	-27.4169	-30.9935	0.622527	-1.99832	27.4161	-85.1024	-0.321296
0.2833	-40.1864	409.617	-379.707	-43.8962	-31.9058	2.46047	-3.8237	87.2229	-93.3349	-0.321296
0.2840	-77.7586	123.657	-380.329	-41.4495	-34.9632	2.46047	-4.746	125.061	-73.183	0
0.2847	-90.5633	81.8724	-232.914	-69.2229	-37.1083	1.86758	-5.05344	140.93	-80.8094	0
0.2853	-70.4037	163.321	-62.6358	-62.8061	-37.7248	1.5415	-4.746	145.206	-84.7994	-0.321296
0.2860	-37.1292	189.579	38.6828	-6.35191	-38.9329	1.5415	-4.746	112.861	-75.6578	0
0.2867	2.83564	186.228	82.3275	1.87965	-40.1658	2.75691	-6.57139	74.7078	-65.8597	0
0.2873	31.1921	181.943	119.551	-28.6322	-40.4617	4.2984	-7.79152	72.2768	-70.1527	0.321296
0.2880	29.0653	146.564	114.667	-23.1391	-39.5494	-0.266797	-8.71382	39.0083	-75.3548	-0.642592
0.2887	17.1911	159.079	29.5375	-6.35191	-37.1083	-2.43082	-7.79152	-91.0044	-58.5363	-1.28518
0.2893	1.01906	199.336	-71.178	-6.04404	-35.8755	0.622527	-5.6587	-179.488	-44.1927	0
0.2900	-24.9448	223.134	-122.762	-6.65978	-38.0206	-2.72726	-8.40638	-142.865	-61.3142	0.321296
0.2907	-43.2435	227.122	-123.053	0.664358	-40.1658	-7.91499	-11.7593	-123.643	-79.9003	0
0.2913	-49.9782	173.714	-105.658	18.9747	-42.9027	-9.1304	-10.2414	-142.573	-71.9709	-0.321296
0.2920	-52.4151	89.8051	-115.134	24.4678	-45.9601	-8.50787	-8.71382	-94.0431	-55.506	-0.321296
0.2927	-51.4846	-54.8503	-116.963	1.2801	-45.3437	-6.99602	-7.79152	-5.85237	-51.516	0
0.2933	-47.8514	-257.198	-83.0864	-12.4608	-43.5191	-6.3735	-8.40638	60.0769	-52.7787	0
0.2940	-49.668	-343.27	-95.598	2.49539	-41.374	-7.29246	-9.01164	70.4311	-39.9502	0
0.2947	-68.2769	-327.999	-134.359	16.8358	-40.4617	-8.83396	-8.09895	-3.42139	10.1012	0
0.2953	-87.5061	-335.338	-48.2952	21.1136	-42.2863	-10.3458	-7.49369	-78.7819	84.2943	0
0.2960	-78.6447	-251.09	119.551	22.9447	-42.6068	-11.5612	-7.18626	-67.5049	122.729	-0.321296
0.2967	-48.7376	-64.3101	188.822	22.3289	-42.2863	-11.5612	-6.57139	-11.3446	123.638	0
0.2973	-27.6918	78.4787	194.621	19.2826	-40.7575	-10.3458	-6.87882	62.823	109.901	0
0.2980	-23.7042	131.293	237.662	11.3427	-38.0206	-9.1304	-7.18626	148.56	16.8185	0
0.2987	-27.0715	73.9397	268.172	-1.16668	-34.3468	-7.91499	-6.87882	114.391	-136.063	0
0.2993	-31.6351	-84.4601	206.84	-5.4445	-28.2566	-7.29246	-6.87882	2.7011	-175.154	0
0.3000	-23.7042	-250.156	71.0418	5.25005	-20.9335	-6.99602	-7.18626	-15.0136	-95.1531	0
0.3007	-6.33589	-286.511	-8.01677	15.3126	-16.6679	-5.15808	-6.57139	-15.0136	-35.9602	0
0.3013	1.2849	-179.992	13.3483	13.7895	-17.5802	-3.32015	-5.96613	-18.6601	-18.2831	0
0.3020	3.76609	-72.2429	43.2555	8.29637	-19.109	-1.80829	-4.13114	49.7001	-8.48499	0.321296
0.3027	15.6403	-6.95703	42.341	3.71068	-19.7007	-1.51185	-2.91101	85.0845	-1.16164	0
0.3033	32.7428	117.888	30.1407	-2.38197	-21.2294	-4.23912	-3.21844	26.2006	3.38389	-1.60648
0.3040	46.7881	140.159	24.6535	-7.87507	-19.4048	-3.64623	-1.69088	-40.0212	8.28297	-1.60648
0.3047	68.144	-18.8349	-34.869	-6.65978	-16.6679	0.326086	0.134502	-96.1815	15.3033	0
0.3053	93.7534	-82.9329	-213.69	1.2801	-15.4351	0.326086	-0.778191	-149.596	18.0306	0
0.3060	87.9935	-163.49	-405.041	4.32643	-13.29	0.0296442	-1.08562	-125.488	19.8993	0
0.3067	64.7767	-387.515	-459.66	-2.07409	-13.6105	-0.592883	0.441936	-79.0971	25.0509	0
0.3073	80.0182	-294.444	-375.445	-2.38197	-14.8187	-1.51185	0.749369	-104.127	28.1318	0
0.3080	105.052	139.819	-247.878	-0.243058	-13.9064	-0.592883	2.27693	-132.489	26.6166	-0.321296
0.3087	90.4304	250.92	-103.829	-5.73617	-15.731	-0.889325	4.10231	-148.988	21.1115	-0.321296
0.3093	72.3975	58.6682	108.868	-6.96766	-15.1392	-1.18577	5.02462	-165.757	18.9397	0
0.3100	73.0178	35.167	300.823	0.356485	-12.3777	-1.18577	5.62988	-153.872	20.5054	0
0.3107	57.1559	117.548	311.506	3.11114	-12.9941	-2.10474	5.32244	-132.196	17.7276	0
0.3113	28.7552	173.12	194.621	-0.243058	-14.5228	-1.51185	5.02462	-108.381	10.1012	0.321296
0.3120	10.4564	317.775	109.491	-3.30559	-16.3474	0.326086	6.55218	-78.7819	5.55565	0
0.3127	2.52549	485.889	84.1566	-4.52088	-18.7884	1.86758	8.37756	-32.098	2.17175	0
0.3133	-3.27871	253.974	55.7671	-4.52088	-22.7581	3.08299	8.99243	25.5704	-2.72732	0
0.3140	-25.8752	-141.516	10.0015	-4.52088	-29.7853	3.37943	8.99243	45.1083	-3.93946	0
0.3147	-60.346	-99.7316	-20.217	-3.61346	-32.2263	4.59485	12.0379	42.6773	-2.42428	0
0.3153	-77.4484	19.0046	-33.3318	-1.16668	-30.6976	5.81026	15.0931	76.2384	-3.63642	0
0.3160	-65.84	-30.1613	-26.0156	0.0486116	-30.6976	4.92093	13.8729	109.8	-6.36374	-0.321296
0.3167	-41.1168	18.0713	-2.82143	-1.16668	-32.2263	4.2984	12.9602	87.538	-9.3941	-0.321296
0.3173	-25.8752	73.0064	14.8855	-3.61346	-36.1961	4.2984	12.6528	45.4234	-13.9901	-0.321296
0.3180	-20.9572	36.3972	69.1933	-3.61346	-41.9904	3.08299	12.0379	39.0083	-17.6771	0
0.3187	-22.1978	-44.7965	136.655	-0.858804	-45.6396	1.86758	12.6528	33.8312	-13.9901	0
0.3193	-31.6351	-129.002	142.434	2.80327	-47.4888	1.86758	13.5655	-3.10626	-6.06071	-0.321296
0.3200	-46.921	-143.68	120.174	3.71068	-49.9298	0.326086	13.2581	-11.9523	-6.96981	0
0.3207	-57.2888	-155.897	121.691	2.18752	-50.5216	-1.51185	12.0379	-3.42139	-15.8083	0
0.3213	-57.2888	-258.428	150.995	0.356485	-49.6093	-1.80829	12.0379	-26.2907	-19.1922	-0.321296
0.3220	-48.1173	-302.037	142.745	7.68063	-47.4888	-2.72726	12.0379	-18.9752	-17.6771	-0.321296
0.3227	-31.9453	-208.966	61.5656	28.7456	-45.6396	-4.5652	12.3454	59.154	-13.9901	-0.321296
0.3233	-18.5203	-39.9181	-1.9069	47.6555	-45.0478	-5.78061	12.3454	132.691	-5.1516	0
0.3240	-18.2101	154.497	-43.4112	47.6555	-40.7575	-6.99602	10.8178	116.53	1.26265	0
0.3247	-22.5079	189.282	-118.792	38.8082	-34.9632	-7.61855	9.59769	44.2079	3.08086	0
0.3253	-18.5203	126.711	-159.674	35.7619	-34.3468	-7.61855	8.99243	-32.4131	10.4042	-0.321296
0.3260	-17.324	122.13	-152.046	30.2688	-33.1386	-8.21143	9.29025	-82.7661	21.4145	-0.321296
0.3267	-22.5079	51.6263	-137.394	15.9284	-30.9935	-9.1304	8.37756	-60.1669	25.0509	0
0.3273	-18.8304	-10.0113	-97.1157	9.20379	-30.0812	-9.75293	5.93731	-23.8597	25.657	0
0.3280	-4.475	37.288	-70.2635	8.60425	-27.6402	-8.50787	5.93731	-18.3674	28.4348	-0.321296
0.3287	-0.221534	66.6009	-83.3783	-5.73617	-25.8156	-6.99602	7.46487	-51.3208	28.1318	-0.321296
0.3293	-7.84232	80.9391	-81.8605	-20.0928	-23.6704	-5.78061	7.46487	-120.604	25.657	0
0.3300	-3.89901	95.9137	-49.521	-21.3081	-20.0212	-6.07705	5.93731	-131.881	22.6266	0.321296
0.3307	8.63984	58.9651	-40.6676	-17.646	-16.9638	-6.3735	4.10231	-75.7432	18.6367	0
0.3313	18.3874	41.5725	-67.2085	-12.1529	-11.7859	-4.86164	5.02462	-9.52136	15.6063	-0.321296
0.3320	26.3183	71.7762	-45.5516	-7.27553	-7.81618	-3.64623	5.02462	74.1	12.576	-0.321296
0.3327	23.2611	59.8984	16.0919	-5.73617	-7.19976	-3.0237	3.80449	129.945	6.16172	0
0.3333	11.9629	-30.4582	22.2018	-6.96766	-5.96692	-4.5652	2.58436	114.999	-5.75767	-0.963889
0.3340	-5.71559	-156.491	-8.61997	-8.18295	-3.23003	-6.3735	1.9695	98.8151	-18.5862	-1.92778
0.3347	-27.0715	-246.508	-24.7897	-8.49082	-0.789015	-2.43082	2.88219	94.2457	-27.4247	-0.321296
0.3353	-35.3126	-260.252	-18.9912	-7.87507	-2.61361	-0.592883	2.88219	31.6929	-37.4754	0.321296
0.3360	-28.8881	-203.79	16.4032	-5.13662	-10.5531	-2.10474	1.9695	-68.4052	-49.3948	-0.321296
0.3367	-13.0262	-74.4063	71.0418	-0.550931	-18.4925	-3.0237	2.27693	-159.365	-57.6272	0
0.3373	8.63984	91.3323	111.923	4.01856	-19.4048	-4.23912	1.9695	-225.271	-57.6272	0
0.3380	22.6851	215.541	129.319	7.68063	-16.3474	-4.23912	1.0568	-231.686	-51.819	-0.321296
0.3387	22.0648	265.555	145.197	8.29637	-8.72848	-3.94267	0.749369	-188.041	-44.1927	-0.321296
0.3393	14.444	235.988	131.459	8.29637	1.03558	-5.15808	0.749369	-159.365	-35.9602	0
0.3400	0.0886138	166.078	34.402	10.7432	8.06274	-6.07705	0.134502	-134.627	-28.3338	-0.321296
0.3407	-33.496	82.7633	-125.194	11.9584	14.4735	-5.15808	-0.163324	-56.2053	-22.5256	-0.321296
0.3413	-72.2645	5.55714	-279.011	9.81954	16.9145	-4.23912	0.441936	33.8312	-18.8892	0
0.3420	-93.6205	-81.4058	-362.311	7.9885	13.8571	-4.23912	0.134502	74.4152	-16.768	0
0.3427	-92.69	-188.519	-337.599	7.9885	17.2104	-3.0237	-0.778191	115.922	-13.081	0
0.3433	-71.9544	-259.022	-224.683	6.77321	25.1498	-2.43082	-0.163324	194.029	-9.09106	0
0.3440	-51.1745	-360.027	-13.1926	5.84959	31.5606	-2.10474	-0.163324	226.397	-6.96981	0
0.3447	-21.2673	-508.033	320.962	4.6343	33.0893	-1.80829	-0.163324	236.773	-5.75767	0
0.3453	28.1792	-529.116	569.988	2.18752	30.0319	-3.64623	-0.778191	267.881	-5.45464	-0.321296
0.3460	71.2012	-345.688	534.594	1.87965	30.0319	-5.15808	-1.69088	183.044	-4.84857	-0.321296
0.3467	96.2346	-66.4736	343.865	2.49539	34.0016	-4.86164	-2.30575	13.9782	-3.33339	0
0.3473	96.5004	164.551	166.854	2.49539	41.0288	-4.5652	-2.30575	-84.8819	-2.42428	0
0.3480	73.9482	277.772	-9.22317	3.11114	50.1764	-3.32015	-1.99832	-171.857	0.0505059	0
0.3487	40.6737	277.178	-196.917	2.80327	53.2338	-2.43082	-3.8237	-273.801	2.47479	0
0.3493	4.65222	200.269	-290.9	2.18752	53.2338	-2.43082	-5.6587	-287.824	3.68693	0
0.3500	-13.6465	126.414	-268.931	1.87965	56.883	-1.80829	-5.05344	-210.618	4.59604	0
0.3507	-6.02574	76.3577	-205.459	0.356485	59.0282	-1.51185	-6.27356	-138.003	4.94958	0
0.3513	10.7666	0.975682	-120.933	0.356485	58.7076	-0.266797	-5.96613	-109.012	5.85868	0.321296
0.3520	24.5017	-17.9441	-21.1316	0.0486116	53.5297	0.326086	-4.13114	-83.9816	6.16172	0
0.3527	31.8123	58.9651	68.9014	-2.07409	46.5026	-0.266797	-5.35126	-32.098	4.293	-0.321296
0.3533	26.9386	109.319	125.058	-2.99771	44.678	0.326086	-5.35126	-8.28336	3.98997	0
0.3540	0.398762	131.293	130.545	-3.30559	44.9985	0.948613	-5.6587	-51.3208	3.98997	0
0.3547	-40.1864	143.51	84.1566	-2.07409	47.4395	2.16402	-4.746	-90.0815	3.98997	0
0.3553	-64.2893	98.9256	25.568	-1.47455	51.0887	3.37943	-2.91101	-64.7588	4.59604	0
0.3560	-53.3012	71.4793	-26.9301	-2.68984	51.7051	3.08299	-4.13114	72.5694	3.98997	-0.321296
0.3567	-29.8185	51.0324	-75.7507	-2.99771	53.8256	3.37943	-5.35126	241.635	3.98997	-0.321296
0.3573	-10.2792	-23.7557	-61.7213	-2.07409	57.2036	4.92093	-4.746	266.058	5.55565	0
0.3580	16.5708	-70.1218	-11.6749	-2.68984	59.324	6.13634	-5.35126	230.651	5.85868	0
0.3587	34.2492	-57.9046	-13.504	-2.99771	61.7651	6.43278	-4.746	252.012	5.25261	0
0.3593	35.4898	-22.5255	-13.8153	-4.213	60.8528	5.21737	-4.43857	222.12	3.68693	0
0.3600	47.3641	15.6533	34.7134	-5.13662	60.5569	4.59485	-4.746	99.4228	3.08086	0
0.3607	73.3279	18.0713	66.4496	-4.213	62.9979	5.51381	-4.13114	-23.2519	3.08086	0.321296
0.3613	80.9487	-17.6471	37.457	-4.52088	61.1733	5.21737	-3.52588	-156.618	1.86872	-0.321296
0.3620	58.6623	-57.0137	-20.5284	-5.4445	59.9405	6.43278	-1.69088	-282.962	1.56568	0
0.3627	31.8123	-69.1886	-77.2878	-5.73617	59.6446	6.13634	-1.99832	-304.931	1.26265	-0.321296
0.3633	18.3874	-55.1472	-125.797	-6.65978	56.5872	1.86758	-4.43857	-276.84	0.0505059	-1.60648
0.3640	19.3178	-24.6466	-124.591	-6.35191	54.1461	1.24505	-3.52588	-252.44	0.0505059	-1.28518
0.3647	30.9262	42.8027	-52.5565	-5.73617	51.0887	4.92093	-2.60358	-164.542	0.959612	0
0.3653	38.2368	86.7508	21.5986	-5.73617	50.4723	7.05531	-2.91101	-28.7442	2.17175	0
0.3660	35.8	45.2207	31.9698	-5.73617	49.8805	7.05531	-2.60358	35.9471	2.47479	0
0.3667	25.122	-4.19967	-11.3636	-6.35191	45.9108	6.72923	-3.21844	16.1165	1.86872	0
0.3673	6.51311	1.612	-57.4405	-6.96766	43.7657	6.43278	-3.52588	-12.5601	1.86872	0.321296
0.3680	-11.8299	36.3972	-65.9827	-6.96766	41.6205	4.00196	-5.05344	-41.5518	-0.252529	-0.963889
0.3687	-18.5203	64.4798	-29.6737	-6.04404	40.4123	1.86758	-4.746	-58.3437	-0.555565	-1.92778
0.3693	-22.5079	90.399	37.457	-4.52088	41.0288	4.92093	-1.69088	-6.1675	1.86872	-0.321296
0.3700	-35.0024	88.278	108.868	-5.13662	37.9713	6.43278	-2.30575	52.1311	1.56568	0.321296
0.3707	-38.9901	18.3683	135.429	-5.13662	35.8262	5.51381	-3.21844	51.2083	0.656577	0
0.3713	-32.2554	-43.8633	95.4423	-4.52088	35.2098	5.21737	-3.21844	64.9388	1.26265	0
0.3720	-27.3817	-59.7287	27.3971	-3.90513	32.7688	5.81026	-2.91101	95.4612	1.26265	0.321296
0.3727	-22.5079	-58.2015	-19.6138	-2.99771	33.0893	7.05531	-0.470757	72.2768	2.47479	0
0.3733	-20.9572	-55.7835	-35.7836	-3.30559	30.3278	6.72923	-1.38345	26.8084	2.17175	-0.321296
0.3740	-25.2549	-85.0964	-24.1865	-4.213	25.4457	4.92093	-3.52588	28.0239	0.353541	-0.321296
0.3747	-29.1982	-106.731	-4.33917	-4.52088	23.3252	4.00196	-3.52588	70.7462	-0.252529	0
0.3753	-32.5656	-82.0421	7.54977	-4.52088	22.413	4.2984	-2.91101	70.1384	-0.252529	0
0.3760	-33.1859	-59.4317	23.739	-3.61346	22.7088	5.51381	-1.08562	-11.6597	0.0505059	0
0.3767	-28.002	-66.7706	37.1651	-3.30559	20.5637	4.59485	-1.38345	-70.5436	0.353541	0
0.3773	-16.7037	-78.3515	51.1944	-3.90513	17.2104	4.2984	-2.91101	-56.5204	-0.555565	-0.321296
0.3780	-4.475	-74.7033	65.8464	-4.52088	16.2981	4.59485	-2.60358	-52.8514	-1.46467	-0.321296
0.3787	1.2849	-51.499	67.6755	-4.82875	15.3858	4.00196	-3.21844	-54.6747	-1.16164	0
0.3793	-5.09529	-25.5798	58.822	-3.90513	15.6817	5.21737	-1.99832	-15.3062	-0.252529	0
0.3800	-23.1282	-35.9305	30.452	-3.90513	15.0899	5.81026	-0.778191	-1.57564	-1.46467	-0.321296
0.3807	-38.6799	-68.5947	-15.9362	-6.96766	11.4161	5.51381	-1.69088	-24.7825	-4.84857	0
0.3813	-38.6799	-71.9459	-44.3257	-9.70611	10.2079	7.64819	-0.778191	-27.2135	-7.57588	-0.321296
0.3820	-28.002	-50.6082	-42.1853	-9.70611	9.27092	8.56716	0.134502	-26.6058	-7.87892	-0.321296
0.3827	-18.5203	-31.6884	-26.6188	-8.18295	8.67916	7.35175	-0.470757	-19.8981	-6.06071	-0.321296
0.3833	-10.2792	-12.4293	2.9771	-6.96766	8.97504	6.13634	-0.778191	13.9782	-4.2425	0
0.3840	-2.96856	8.61145	31.6584	-6.35191	7.15045	4.2984	-2.30575	19.4704	-3.93946	0
0.3847	4.03193	12.896	38.0796	-5.4445	4.38889	2.16402	-4.43857	-33.3135	-3.33339	0
0.3853	11.697	6.4904	29.8294	-4.213	3.18072	0.948613	-3.8237	-88.5509	-1.76771	0
0.3860	21.4445	10.4356	16.0919	-2.99771	4.38889	1.5415	-2.60358	-100.458	-0.252529	0
0.3867	26.9386	22.3558	-7.70543	-1.47455	6.23815	1.86758	-2.30575	-76.351	0.959612	0
0.3873	21.1344	29.9916	-45.2402	-1.78242	4.09301	-0.266797	-4.43857	-47.0441	0.656577	0
0.3880	9.83613	25.7071	-72.7152	-1.78242	1.94788	-1.18577	-5.35126	-21.7213	0.0505059	0
0.3887	-1.46213	8.9084	-72.0925	-1.16668	1.03558	-1.18577	-5.05344	-5.85237	0.353541	0
0.3893	-10.8995	-3.60578	-53.7824	-0.858804	1.35612	-1.51185	-5.05344	-8.59849	0.959612	0.321296
0.3900	-15.4631	0.975682	-32.7286	-0.858804	1.94788	-2.10474	-5.05344	-22.6442	0.959612	-0.321296
0.3907	-14.577	-1.44231	-13.1926	-0.858804	0.419164	-5.15808	-6.57139	-52.5363	-0.252529	-1.28518
0.3913	-8.77277	-18.241	8.4643	-0.550931	-0.789015	-5.45453	-8.09895	-74.8203	0.353541	-0.642592
0.3920	-5.40544	-19.1743	10.0015	-0.858804	-2.02185	-2.72726	-7.79152	-64.4436	1.56568	0
0.3927	-10.2792	-9.71439	-8.9313	-0.858804	-2.61361	-3.0237	-7.49369	-41.867	0.959612	-0.321296
0.3933	-16.7037	-9.37503	-13.504	0.0486116	-1.40543	-3.94267	-8.09895	-29.6445	1.56568	0
0.3940	-17.9443	-12.1324	-2.5101	0.664358	-1.40543	-4.5652	-8.40638	-25.0752	2.47479	0
0.3947	-17.324	-14.2534	11.8306	0.664358	-2.93415	-6.3735	-9.31908	-20.5058	2.47479	-0.321296
0.3953	-13.0262	-15.4836	27.689	1.2801	-2.61361	-6.99602	-9.01164	-16.5217	3.68693	0
0.3960	-6.02574	-13.0656	47.8476	1.87965	-2.31773	-7.61855	-9.01164	-11.6597	4.94958	0
0.3967	-3.27871	-7.84787	63.1028	2.18752	-2.31773	-10.6423	-9.93394	-3.71401	4.293	-1.60648
0.3973	-1.15198	-4.19967	56.993	2.80327	-1.70131	-12.1838	-9.01164	5.13208	4.293	-1.92778
0.3980	10.1463	-5.72683	38.9942	3.41901	-2.31773	-9.1304	-8.40638	14.5859	5.55565	0
0.3987	23.8814	-8.18724	22.2018	2.80327	-3.52591	-7.61855	-9.31908	21.9239	5.55565	0.321296
0.3993	22.375	-8.78113	7.54977	2.80327	-3.84645	-7.61855	-8.40638	20.7084	4.94958	0
0.4000	7.7094	-9.71439	-5.56504	3.71068	-2.61361	-6.99602	-7.49369	6.95532	5.55565	0
0.4007	-2.65841	-10.3083	-8.9313	3.71068	-2.31773	-6.3735	-7.79152	-4.63688	6.16172	-0.321296
0.4013	-4.20915	-10.3083	-1.59557	4.01856	-2.93415	-5.78061	-7.79152	-5.24463	6.16172	-0.321296
0.4020	-4.475	-11.2415	3.5803	4.01856	-3.23003	-6.3735	-8.09895	-1.89077	5.55565	0
0.4027	-9.39306	-13.0656	2.3739	3.11114	-4.75875	-6.07705	-9.01164	2.7011	4.94958	0
0.4033	-10.8995	-14.5928	3.28843	2.18752	-4.14233	-4.23912	-9.01164	7.27045	4.59604	-0.321296
0.4040	-8.77277	-13.0656	5.7207	2.18752	-2.31773	-1.80829	-7.18626	13.0778	4.293	0
0.4047	-7.84232	-8.48419	9.69017	2.18752	-2.02185	-0.266797	-5.96613	17.6472	3.68693	0
0.4053	-2.65841	-4.19967	14.2628	1.87965	-2.61361	0.622527	-5.05344	17.9623	2.77782	-0.321296
0.4060	3.76609	-2.96947	9.69017	0.972231	-3.23003	1.5415	-4.13114	17.9623	2.77782	0
0.4067	3.76609	-3.90273	0.836701	0.0486116	-2.02185	2.75691	-3.52588	17.6472	2.17175	0
0.4073	0.398762	-6.02377	-2.21823	0.0486116	0.419164	4.92093	-2.91101	16.4317	0.959612	-0.321296
0.4080	-4.475	-10.0113	-4.33917	-0.550931	0.419164	6.43278	-2.60358	17.0394	-0.252529	-0.321296
0.4087	-8.77277	-13.6595	-11.3636	-1.78242	-0.789015	8.27072	-1.38345	16.1165	-1.46467	0
0.4093	-9.08291	-13.3626	-17.4734	-4.82875	-1.40543	10.4051	1.0568	13.0778	-4.2425	0
0.4100	-4.20915	-9.37503	-14.7298	-7.87507	-1.0849	12.5395	1.66206	12.1549	-7.27285	0.321296
0.4107	1.59505	-4.19967	-6.7909	-10.014	0.419164	15.2964	2.88219	14.2933	-9.74764	0
0.4113	3.45594	-2.37557	-4.0473	-11.845	-0.172597	15.2964	2.88219	15.5088	-12.1719	0
0.4120	0.0886138	-6.95703	-6.47957	-11.2455	-0.172597	12.8359	0.441936	13.3704	-11.8689	0
0.4127	-4.78514	-10.9022	-7.10223	-8.79869	-0.789015	9.48613	-1.69088	8.80107	-9.3941	0
0.4133	-6.02574	-6.32072	-0.0778327	-6.35191	-1.70131	5.81026	-3.8237	6.34757	-6.36374	0.321296
0.4140	-7.84232	-2.07863	7.2579	-4.213	-0.493134	4.92093	-5.05344	9.09369	-3.93946	0
0.4147	-8.46262	-4.79357	9.08696	-3.30559	-0.172597	4.59485	-3.8237	11.8398	-2.72732	-0.321296
0.4153	-6.33589	-6.32072	6.94657	-3.61346	-1.40543	4.2984	-1.99832	14.901	-2.42428	0
0.4160	-6.33589	-4.49662	2.66577	-3.90513	-3.52591	4.2984	-1.69088	16.7243	-2.42428	0
0.4167	-4.475	-0.551472	2.3739	-4.213	-5.05463	4.59485	-2.30575	17.6472	-2.07074	0
0.4173	2.21534	4.02999	6.34336	-3.90513	-2.61361	4.2984	-2.60358	21.001	-1.46467	0
0.4180	6.20296	4.32694	1.75124	-3.30559	-1.40543	3.67588	-1.99832	23.7471	-1.16164	0
0.4187	7.0891	1.612	-13.504	-2.99771	-2.93415	4.2984	-1.08562	21.3161	-0.555565	0
0.4193	10.1463	0.678735	-25.101	-3.61346	-4.46286	4.00196	-1.99832	15.5088	-1.16164	0.321296
0.4200	14.1339	1.90894	-22.3574	-4.213	-4.75875	4.00196	-4.13114	13.6855	-2.42428	0.321296
0.4207	19.9381	4.96325	-9.84583	-3.30559	-3.23003	5.51381	-3.21844	17.332	-1.76771	0
0.4213	25.698	7.67819	-1.59557	-2.07409	-2.61361	5.81026	-1.08562	18.8626	-0.555565	0
0.4220	22.6851	5.55714	-2.5101	-2.07409	-3.84645	4.00196	-1.38345	17.0394	-0.8586	0
0.4227	13.5136	1.612	-5.87637	-1.47455	-5.37516	2.75691	-1.69088	15.5088	-0.8586	0
0.4233	6.20296	0.678735	-8.30864	-0.243058	-6.28746	1.24505	-1.99832	14.901	0.353541	0
0.4240	1.01906	1.90894	-9.5345	-0.243058	-4.75875	-3.32015	-4.13114	16.1165	0.959612	-1.28518
0.4247	-1.72797	4.02999	-8.30864	0.0486116	-3.23003	-5.78061	-6.57139	18.2549	1.86872	-1.60648
0.4253	-3.89901	4.96325	-7.3941	0.356485	-4.14233	-3.32015	-5.6587	17.6472	3.38389	0
0.4260	-5.40544	1.27263	-10.7604	0.356485	-6.58334	-3.64623	-2.60358	13.3704	3.68693	0.321296
0.4267	-5.09529	-2.07863	-12.8813	0.664358	-7.19976	-7.29246	-0.470757	10.3317	3.98997	0
0.4273	-2.65841	-1.44231	-11.6749	1.58798	-5.67104	-8.50787	0.441936	11.5472	5.85868	0.321296
0.4280	-2.96856	-1.44231	-12.8813	2.80327	-5.67104	-9.75293	-0.163324	12.1549	7.07082	-0.321296
0.4287	-6.33589	-1.44231	-13.504	4.32643	-5.37516	-12.8063	-2.30575	12.7627	8.586	-0.321296
0.4293	-4.20915	0.381788	-8.9313	5.54172	-5.67104	-14.3181	-2.60358	13.0778	9.79814	0
0.4300	-1.15198	3.73304	-4.0473	5.54172	-7.81618	-15.5335	-2.91101	13.3704	9.79814	0
0.4307	-5.09529	6.4904	-0.992367	6.15747	-6.58334	-15.2371	-1.08562	13.6855	10.1012	0.321296
0.4313	-8.77277	4.32694	-0.992367	5.84959	-5.37516	-14.0217	3.49706	10.9394	9.19207	0
0.4320	-8.77277	-0.551472	-4.6505	4.32643	-6.28746	-13.1027	5.02462	9.70143	6.16172	0
0.4327	-7.53217	-2.37557	-6.47957	3.71068	-5.37516	-11.8873	5.93731	11.5472	3.68693	0
0.4333	0.398762	0.975682	-2.82143	4.32643	-4.75875	-11.2648	8.68499	13.0778	2.77782	0
0.4340	13.8238	4.96325	5.1175	5.54172	-3.23003	-10.3458	9.29025	16.7243	3.98997	0
0.4347	21.4445	4.96325	11.5192	5.25005	-1.0849	-9.1304	8.07013	17.0394	3.68693	0
0.4353	20.8242	1.90894	13.3483	4.32643	-2.61361	-8.50787	4.10231	11.2321	3.08086	0
0.4360	15.9505	-0.848419	7.2579	4.01856	-4.14233	-5.15808	-3.21844	9.09369	3.08086	0.321296
0.4367	8.94999	-3.60578	-3.13277	1.2801	-4.75875	-0.889325	-11.4615	13.9782	0.0505059	0
0.4373	7.0891	-1.14537	-4.0473	-2.68984	-3.84645	4.59485	-7.79152	16.7243	-5.45464	-0.321296
0.4380	9.83613	6.4904	3.89163	-6.04404	-3.23003	9.78257	7.15743	15.2162	-8.78802	0
0.4387	9.83613	11.3688	7.54977	-8.18295	-4.46286	11.3241	19.0609	13.6855	-10.3537	0.321296
0.4393	7.39925	10.1386	2.3739	-8.79869	-5.37516	10.7015	29.4368	12.1549	-10.9598	0
0.4400	4.03193	7.0843	-5.25371	-7.27553	-5.96692	9.18969	34.9321	13.6855	-9.74764	0
0.4407	5.27252	5.55714	-7.10223	-4.52088	-3.52591	9.48613	35.8448	17.6472	-6.96981	0
0.4413	10.4564	2.50284	-4.0473	-4.82875	-2.93415	10.7015	34.6247	15.8239	-7.57588	0.321296
0.4420	12.8933	-1.44231	-0.369705	-7.27553	-5.37516	10.1087	29.7442	10.0166	-10.0507	0
0.4427	13.2035	-3.30883	3.89163	-9.70611	-5.37516	10.998	24.5562	6.95532	-11.8689	0
0.4433	14.7099	-4.19967	6.34336	-11.845	-5.67104	11.917	19.6661	4.52433	-13.9901	0
0.4440	17.4569	-4.19967	6.34336	-12.1529	-3.84645	10.998	12.9602	5.44721	-13.081	0
0.4447	20.8242	-3.90273	4.80617	-10.9376	-1.40543	8.8636	10.2126	8.19332	-11.8689	0
0.4453	28.1792	-3.90273	2.9771	-11.5371	-3.52591	7.64819	17.8407	6.95532	-13.081	0
0.4460	31.8123	-2.07863	0.836701	-12.1529	-6.58334	8.56716	24.5562	4.83946	-12.778	0.321296
0.4467	19.9381	0.678735	-1.3037	-11.845	-6.58334	10.7015	13.8729	2.99371	-11.2628	0
0.4473	-3.89901	2.50284	-1.59557	-11.845	-3.23003	12.8359	-4.13114	3.30884	-10.9598	-0.321296
0.4480	-25.2549	2.79978	-2.21823	-12.1529	-2.61361	12.8359	-19.0897	4.83946	-11.5658	-0.321296
0.4487	-30.749	1.90894	-3.42464	-11.5371	-3.23003	13.7549	-30.3783	7.27045	-11.2628	0
0.4493	-29.8185	0.678735	-3.42464	-10.9376	-3.23003	14.6739	-38.0065	9.09369	-10.3537	0
0.4500	-32.5656	0.381788	-2.5101	-11.2455	-5.96692	12.8359	-37.699	6.95532	-10.3537	0
0.4507	-28.8881	1.612	1.45936	-8.18295	-4.14233	12.5395	-26.4105	7.27045	-7.57588	0.321296
0.4513	-27.3817	3.13915	4.49484	-6.35191	-2.93415	10.4051	-14.1996	10.0166	-5.1516	0
0.4520	-46.3007	4.02999	5.42883	-6.04404	-4.75875	7.05531	-3.52588	10.3317	-3.63642	0.321296
0.4527	-70.0935	4.96325	7.8611	-5.4445	-4.14233	5.51381	10.5104	10.0166	-1.76771	0
0.4533	-51.7948	4.32694	7.2579	-7.27553	-9.34489	0.0296442	17.2259	7.58558	-3.93946	-1.28518
0.4540	30.3059	5.85409	7.54977	-6.04404	-9.34489	-3.0237	12.9602	10.6243	-3.33339	-1.60648
0.4547	102.925	7.38124	7.2579	-2.99771	-6.28746	-1.18577	5.62988	16.4317	0.959612	-0.321296
0.4553	118.166	5.55714	0.836701	-2.68984	-11.7859	-2.43082	0.441936	16.1165	1.26265	0
0.4560	116.97	7.0843	1.14803	-0.243058	-11.1695	-2.10474	7.46487	15.8239	3.38389	0
0.4567	116.66	10.7325	6.63524	0.664358	-9.64077	-1.18577	18.446	16.1165	4.293	0
0.4573	145.061	11.9627	8.77563	-1.16668	-12.0818	-2.10474	11.7401	15.2162	2.77782	0
0.4580	201.508	13.7868	13.0564	-0.243058	-11.1695	-2.43082	-6.57139	14.5859	4.59604	0
0.4587	213.382	13.1929	11.8306	0.356485	-14.8187	-6.69958	-25.8052	10.9394	5.25261	0
0.4593	167.613	10.1386	6.03203	-0.858804	-20.0212	-11.8873	-43.8093	8.48594	4.94958	0
0.4600	111.476	9.20534	5.7207	-0.243058	-20.3171	-12.8063	-48.9972	10.6243	6.16172	0
0.4607	67.5237	9.20534	7.2579	0.0486116	-20.0212	-15.2371	-43.5018	13.3704	7.07082	0
0.4613	44.041	7.0843	6.63524	-0.858804	-23.3746	-19.5059	-38.6213	13.3704	7.07082	0
0.4620	16.5708	6.19346	5.7207	-0.858804	-24.9033	-21.0474	-32.2133	12.7627	7.37386	0
0.4627	-56.0482	6.78735	4.49484	0.664358	-25.5197	-22.5592	-18.4748	13.6855	8.586	0
0.4633	-146.7	5.85409	2.3739	1.2801	-30.0812	-27.1244	-6.57139	16.1165	9.79814	0
0.4640	-193.4	4.6663	1.75124	2.80327	-32.8427	-30.1778	2.58436	19.4704	11.6164	0.321296
0.4647	-218.123	4.96325	2.3739	5.25005	-31.9058	-29.5849	21.8086	22.5316	13.4851	0
0.4653	-258.708	6.19346	2.9771	6.46534	-32.2263	-29.2588	39.8126	24.9626	15.3033	0
0.4660	-298.983	7.38124	4.20296	7.68063	-28.873	-26.828	53.8489	27.4161	16.8185	0
0.4667	-335.935	8.61145	6.94657	7.68063	-26.7279	-23.4782	83.1511	30.1622	16.5154	0.321296
0.4673	-295.926	12.896	10.2934	6.15747	-29.7853	-21.6402	112.444	32.5932	13.4851	0
0.4680	-62.4727	21.1256	16.7146	5.84959	-27.3443	-19.2094	112.751	36.5773	11.6164	0
0.4687	271.07	30.5855	26.1712	6.46534	-20.9335	-15.5335	89.5592	42.3622	12.2729	0
0.4693	475.546	39.1121	34.7134	6.46534	-16.0515	-9.42684	61.1697	47.8544	12.2729	0
0.4700	450.512	42.8027	38.0796	5.84959	-15.4351	-5.78061	34.3173	49.385	11.3133	0
0.4707	309.218	41.5725	35.6279	5.84959	-16.9638	-5.78061	15.0931	46.6389	11.9194	0
0.4713	218.61	39.1121	32.2811	8.29637	-15.4351	-6.07705	8.99243	44.8157	15.0002	0
0.4720	203.014	35.4639	27.0858	9.20379	-13.9064	-7.29246	10.2126	40.8316	15.6063	0
0.4727	186.532	30.8824	22.805	8.91212	-9.02436	-7.29246	7.46487	35.9471	15.0002	0.321296
0.4733	87.9935	26.301	17.6291	7.9885	-4.46286	-6.3735	-13.5943	29.8471	14.3942	0.321296
0.4740	-71.6442	19.0046	8.77563	6.77321	-9.34489	-8.50787	-44.4145	17.9623	13.182	-0.321296
0.4747	-173.86	13.1929	3.89163	8.91212	-11.7859	-10.9683	-49.6025	6.95532	15.6063	-0.642592
0.4753	-182.101	10.1386	2.06257	11.0348	-11.1695	-12.1838	-23.6628	-0.360146	17.7276	-0.321296
0.4760	-154.321	5.55714	-2.5101	9.20379	-13.29	-12.4802	4.71718	-6.1675	15.9094	0
0.4767	-124.724	1.612	-4.6505	7.37275	-13.6105	-11.8873	24.8541	-9.20623	14.3942	0
0.4773	-103.678	2.20589	-2.82143	5.84959	-10.5531	-6.69958	49.5736	-10.1291	13.182	0
0.4780	-83.5185	4.96325	-0.681036	1.2801	-10.2572	0.622527	76.1282	-8.59849	8.28297	0
0.4787	-56.3584	6.4904	-0.0778327	-3.30559	-14.2269	0.948613	81.931	-6.77525	2.77782	-0.321296
0.4793	-30.4388	8.3145	2.3739	-3.30559	-14.5228	-3.64623	61.4771	-4.63688	1.86872	0
0.4800	37.9267	10.1386	4.49484	-2.07409	-11.4654	-6.99602	38.8999	-4.02913	2.47479	0
0.4807	148.384	10.7325	4.49484	-3.30559	-9.64077	-7.91499	31.5696	-4.02913	0.959612	0
0.4813	217.37	12.599	6.03203	-3.90513	-6.58334	-6.07705	31.2717	-2.49851	0.656577	0
0.4820	213.692	13.4899	7.2579	-2.07409	-1.0849	-3.94267	29.7442	-1.57564	1.56568	0
0.4827	147.808	11.6658	4.80617	-2.99771	3.4766	-1.51185	22.4138	-0.0450183	-0.252529	0
0.4833	54.719	8.01756	-0.681036	-5.13662	5.91761	0.0296442	10.5104	1.17047	-3.03035	-0.321296
0.4840	-33.8062	2.20589	-7.10223	-6.65978	5.91761	-2.72726	5.62988	-0.652765	-5.75767	-1.28518
0.4847	-120.16	-1.78168	-10.449	-8.49082	4.70943	-2.10474	8.37756	-2.18339	-7.57588	-1.28518
0.4853	-180.595	-1.14537	-8.9313	-7.87507	5.91761	6.43278	3.49706	-0.0450183	-6.36374	0
0.4860	-206.204	-0.551472	-7.70543	-6.96766	9.27092	13.1324	-16.342	3.30884	-7.27285	0
0.4867	-234.605	-0.551472	-7.10223	-9.39824	13.8571	17.7272	-42.5891	3.91659	-10.6567	-0.321296
0.4873	-245.283	0.678735	-5.25371	-12.1529	17.2104	21.3734	-74.9369	2.09335	-12.778	0
0.4880	-184.848	3.4361	-3.13277	-13.3682	19.3555	23.8339	-110.638	-0.0450183	-14.5962	-0.321296
0.4887	-53.9215	8.01756	1.14803	-14.9075	23.6211	29.9406	-129.564	0.855347	-15.8083	0
0.4893	143.51	13.1929	6.63524	-15.1992	27.295	35.4248	-131.697	4.52433	-15.2023	0
0.4900	361.101	15.6533	7.54977	-17.3381	27.5909	36.0473	-132.609	7.27045	-17.374	0
0.4907	455.12	18.3683	9.37884	-20.0928	31.2647	36.9366	-125.596	10.6243	-19.7983	0
0.4913	386.135	22.0589	13.0564	-19.1692	33.3852	32.994	-101.789	14.2933	-18.5862	-0.321296
0.4920	256.138	22.0589	12.1419	-15.815	28.5032	21.6995	-73.4093	14.2933	-15.2023	0
0.4927	132.522	20.8287	10.0015	-11.2455	27.8867	12.8359	-50.8226	16.4317	-10.9598	0
0.4933	27.2487	18.3683	7.2579	-9.10657	28.2073	8.27072	-31.5984	17.9623	-7.87892	0
0.4940	-26.7614	15.6533	3.5803	-8.49082	23.6211	5.51381	-13.9018	14.901	-6.66678	0
0.4947	8.3297	13.4899	2.9771	-6.96766	22.413	5.21737	1.0568	11.2321	-4.84857	0
0.4953	30.3059	10.1386	2.3739	-5.13662	25.7663	6.43278	17.8407	8.19332	-2.42428	0
0.4960	-89.3227	5.55714	-1.3037	-3.90513	28.8237	5.81026	30.042	3.60146	-0.555565	-0.321296
0.4967	-222.686	1.612	-4.33917	-4.82875	28.8237	3.37943	26.6891	-4.9295	-1.46467	-0.321296
0.4973	-169.297	3.4361	-0.0778327	-6.04404	30.0319	3.67588	11.7401	-11.6597	-1.76771	0
0.4980	-3.27871	10.1386	9.08696	-4.82875	32.7688	5.51381	-3.8237	-11.6597	0.656577	0.321296
0.4987	80.0182	16.2472	17.0259	-2.99771	32.177	3.67588	-14.1996	-11.0295	3.98997	0
0.4993	84.0059	19.5985	20.9759	-0.858804	30.3278	0.622527	-15.1219	-12.5601	7.37386	0
0.5000	138.326	16.5442	16.4032	0.972231	27.5909	-1.80829	-10.2414	-13.1678	8.88904	0
0.5007	182.899	8.01756	7.2579	0.664358	23.0047	-4.23912	-13.9018	-13.483	8.586	0
0.5013	125.211	0.678735	1.75124	0.972231	22.7088	-4.86164	-23.3553	-16.2291	9.49511	0.321296
0.5020	32.4326	-4.49662	-1.9069	1.58798	24.2375	-4.5652	-23.6628	-20.7984	10.1012	0
0.5027	-55.1621	-11.5385	-7.10223	0.356485	20.8842	-6.69958	-17.8696	-25.998	9.79814	0
0.5033	-118.61	-17.0108	-11.0522	0.356485	17.8268	-7.91499	-13.2869	-28.1364	9.79814	0.321296
0.5040	-165.929	-20.0651	-13.504	0.664358	17.2104	-8.21143	-6.27356	-27.5287	10.4042	0
0.5047	-200.71	-22.2286	-14.4185	0.664358	16.2981	-9.42684	3.49706	-28.7442	10.7072	0
0.5053	-160.745	-19.1743	-9.5345	1.87965	16.2981	-10.9683	10.8178	-29.9596	11.6164	0
0.5060	-66.7705	-11.5385	-1.9069	2.80327	14.153	-11.8873	13.5655	-28.1364	12.879	0
0.5067	30.9262	-3.60578	5.1175	2.80327	12.6489	-12.4802	15.0931	-25.0752	13.182	0
0.5073	140.453	4.02999	12.4338	2.49539	14.4735	-10.9683	23.6339	-22.0364	12.879	0.321296
0.5080	212.496	7.67819	17.3178	0.972231	12.3284	-11.5612	34.0098	-19.5829	11.6164	0
0.5087	210.635	9.84166	21.5986	1.2801	11.7119	-13.3992	37.9776	-15.0136	11.0103	0
0.5093	195.393	12.896	27.0858	2.80327	16.2981	-11.2648	36.1523	-9.52136	13.4851	0
0.5100	191.14	11.6658	27.0858	1.58798	13.5612	-10.6423	27.6018	-10.4217	13.7881	0
0.5107	162.119	7.0843	21.2872	1.2801	11.1202	-12.4802	21.8086	-15.6213	13.7881	0
0.5113	51.972	0.975682	12.1419	2.49539	14.153	-12.8063	21.8086	-20.7984	15.6063	0.321296
0.5120	-115.597	-9.37503	0.233498	2.18752	13.5612	-11.8873	18.1482	-27.5287	15.6063	0.321296
0.5127	-238.858	-19.7682	-8.9313	1.87965	11.4161	-11.8873	10.2126	-31.4903	15.6063	-0.321296
0.5133	-309.351	-26.4707	-13.504	1.87965	12.0325	-14.0217	8.07013	-34.8441	16.5154	-1.28518
0.5140	-338.948	-29.8219	-14.4185	3.11114	12.9448	-14.9407	17.2259	-39.1209	18.0306	-1.28518
0.5147	-309.971	-29.228	-11.6749	4.01856	11.1202	-12.4802	24.8541	-40.6515	19.2427	0
0.5153	-239.789	-26.1737	-8.9313	3.71068	8.35863	-11.8873	20.8959	-42.4747	19.8993	0
0.5160	-172.354	-24.0527	-6.16824	4.32643	9.88734	-11.5612	21.1937	-45.2208	21.1115	-0.321296
0.5167	-132.965	-22.5255	-3.42464	4.01856	11.4161	-10.9683	35.8448	-46.4363	22.3236	0
0.5173	-102.748	-21.8892	-2.82143	2.49539	7.76686	-11.5612	46.8356	-47.9669	22.3236	0
0.5180	-51.4846	-20.3621	-0.992367	2.80327	7.15045	-10.6423	50.7938	-46.4363	23.2327	0
0.5187	11.3869	-17.0108	2.06257	4.01856	9.88734	-9.1304	58.1241	-37.9054	25.354	-0.321296
0.5193	43.4208	-16.7139	2.3739	3.41901	7.76686	-8.83396	62.3994	-30.2748	25.0509	-0.321296
0.5200	23.2611	-18.8349	-0.992367	2.18752	4.70943	-8.21143	63.6195	-29.6445	23.5357	0
0.5207	-3.89901	-19.7682	-3.13277	1.58798	4.70943	-8.21143	64.5322	-28.429	23.2327	0
0.5213	35.8	-18.241	-2.5101	1.58798	1.652	-10.6423	64.5322	-24.1523	24.7479	0
0.5220	125.211	-13.9565	1.75124	2.49539	-2.02185	-11.8873	62.0919	-18.6601	26.9196	0
0.5227	144.44	-11.5385	4.49484	4.32643	-5.37516	-10.3458	55.069	-14.4058	29.647	0
0.5233	77.8915	-12.7687	2.9771	4.6343	-12.6982	-10.3458	38.8999	-13.483	31.4652	-0.321296
0.5240	45.2373	-14.2534	0.544829	3.71068	-19.7007	-10.6423	17.8407	-14.4058	31.7682	0
0.5247	34.2492	-15.4836	-0.369705	2.49539	-23.6704	-9.75293	1.0568	-14.0907	31.1621	0
0.5253	-44.7943	-17.0108	-0.681036	1.58798	-26.432	-8.83396	-12.9795	-12.2675	31.4652	0
0.5260	-126.851	-16.7139	0.233498	2.18752	-27.0238	-7.29246	-29.7634	-9.81398	32.9803	-0.321296
0.5267	-145.194	-14.8897	1.14803	1.58798	-30.6976	-6.3735	-47.4696	-7.38299	33.2834	0
0.5273	-144.263	-10.6052	4.80617	0.0486116	-32.5222	-3.0237	-57.8455	-3.10626	32.9803	0.321296
0.5280	-134.826	-5.72683	9.69017	-1.47455	-30.9935	2.46047	-62.1208	2.99371	32.6773	0
0.5287	-125.344	-5.13293	10.2934	-3.30559	-33.755	3.37943	-72.4967	6.6627	31.4652	0
0.5293	-128.401	-4.79357	12.4338	-2.07409	-31.9058	2.46047	-83.7852	8.48594	33.2834	0
0.5300	-71.6442	-2.96947	15.1774	0.972231	-26.432	2.46047	-83.1704	8.19332	36.3642	0
0.5307	35.4898	-3.60578	13.0564	1.2801	-28.5525	0.0296442	-75.5422	4.83946	36.0612	0
0.5313	79.4423	-4.19967	12.4338	0.972231	-28.5525	-2.43082	-67.914	3.30884	36.3642	0
0.5320	45.5475	-4.49662	13.6596	2.18752	-19.4048	-2.72726	-59.6709	4.20921	37.5764	0
0.5327	1.2849	-6.66009	11.8306	2.18752	-12.9941	-4.5652	-48.0749	3.30884	36.6673	0
0.5333	-22.1978	-10.0113	9.08696	1.87965	-9.34489	-5.78061	-36.1811	2.09335	36.6673	0
0.5340	-32.5656	-12.7687	6.94657	2.18752	-6.58334	-5.78061	-26.4105	-1.57564	36.9703	0
0.5347	-42.0472	-16.12	2.9771	1.87965	-8.72848	-6.99602	-10.8466	-8.59849	34.8491	0
0.5353	-61.2764	-19.1743	-0.992367	1.2801	-13.9064	-8.21143	6.85	-15.0136	32.9803	0
0.5360	-90.8734	-20.0651	-1.9069	2.18752	-15.4351	-6.99602	19.3683	-18.3674	33.5864	0
0.5367	-115.287	-20.0651	-1.9069	3.11114	-15.731	-6.3735	30.6569	-18.9752	34.243	0
0.5373	-125.344	-19.4712	-1.3037	2.80327	-19.4048	-6.69958	38.8999	-18.3674	33.2834	0.321296
0.5380	-113.115	-16.4169	1.14803	1.87965	-21.8458	-5.45453	45.308	-15.3062	31.7682	0.321296
0.5387	-38.3698	-12.1324	4.80617	1.87965	-21.2294	-3.64623	50.7938	-8.28336	30.253	0
0.5393	80.9487	-7.55093	10.0015	1.87965	-22.1417	-3.94267	52.6288	0.562728	29.3439	0
0.5400	110.546	-4.49662	12.4338	1.58798	-25.5197	-5.15808	58.1241	5.13208	27.5257	0
0.5407	26.0081	-4.49662	11.5192	1.2801	-23.0787	-2.72726	63.6195	4.83946	25.0509	0
0.5413	-38.3698	-7.55093	7.54977	0.356485	-19.109	0.622527	54.1563	4.52433	22.3236	0
0.5420	-47.5413	-12.1324	1.75124	-0.858804	-20.0212	0.622527	37.0649	3.91659	18.3336	0.321296
0.5427	-44.4841	-14.8897	-0.681036	-0.858804	-19.109	0.948613	28.8219	2.7011	16.8185	0.321296
0.5433	-15.7733	-15.7806	-1.3037	-1.47455	-20.3171	-1.80829	36.1523	2.09335	14.6972	-0.642592
0.5440	29.9958	-14.8897	-0.992367	-1.78242	-21.2294	-6.07705	45.0006	2.7011	11.9194	-1.28518
0.5447	46.4779	-11.8354	2.06257	1.58798	-15.731	-3.0237	41.9455	4.52433	13.7881	-0.321296
0.5453	26.9386	-10.3083	3.28843	3.41901	-15.731	-0.592883	30.9643	4.20921	15.9094	0.321296
0.5460	14.1339	-9.71439	3.28843	3.11114	-19.4048	-3.0237	18.446	0.562728	15.6063	0
0.5467	34.5594	-9.37503	2.9771	4.01856	-19.7007	-3.94267	9.29025	-3.71401	15.3033	0.321296
0.5473	51.6618	-11.5385	0.836701	4.32643	-23.0787	-2.72726	3.80449	-7.06787	14.3942	0
0.5480	39.7433	-13.3626	-0.992367	4.6343	-26.1115	-1.80829	-0.778191	-8.28336	13.182	0
0.5487	16.8809	-14.2534	-0.992367	5.54172	-25.5197	-0.889325	-1.38345	-7.67561	13.182	0
0.5493	3.76609	-15.4836	-2.5101	5.54172	-27.3443	-1.18577	1.66206	-8.28336	12.2729	0
0.5500	-7.84232	-15.4836	-4.33917	4.6343	-31.6099	-1.80829	3.18962	-9.81398	9.49511	0
0.5507	-28.8881	-14.2534	-4.33917	3.41901	-34.3468	-0.889325	3.18962	-9.52136	6.76779	0
0.5513	-41.1168	-13.6595	-3.42464	2.49539	-35.2838	2.16402	4.10231	-8.59849	3.98997	0
0.5520	-36.5532	-10.6052	0.544829	2.80327	-32.8427	5.21737	3.80449	-7.38299	2.77782	0
0.5527	-36.243	-5.42988	6.03203	3.71068	-30.9935	6.43278	0.441936	-6.1675	1.56568	-0.321296
0.5533	-60.0358	-3.60578	7.2579	3.41901	-31.6099	6.72923	-2.91101	-3.71401	-0.252529	-0.321296
0.5540	-84.4489	-1.78168	7.8611	3.41901	-32.2263	8.27072	-8.71382	-0.0450183	-1.46467	0
0.5547	-89.3227	-0.254526	8.77563	2.80327	-33.755	8.27072	-20.0024	2.99371	-2.72732	0
0.5553	-97.5638	-1.78168	7.54977	2.49539	-33.755	8.8636	-28.2454	2.99371	-4.54553	0
0.5560	-116.173	-4.19967	6.34336	2.80327	-31.314	11.6205	-25.8052	2.09335	-4.84857	0
0.5567	-115.597	-6.95703	3.89163	1.2801	-32.8427	11.6205	-20.0024	0.2476	-8.18195	0
0.5573	-110.103	-9.37503	0.233498	-1.78242	-33.755	11.3241	-15.4293	-1.57564	-14.2932	0
0.5580	-138.459	-11.8354	-0.992367	-3.90513	-31.6099	12.8359	-7.79152	-2.18339	-17.374	0
0.5587	-160.745	-14.5928	-2.21823	-5.4445	-32.2263	11.917	-1.69088	-2.79113	-17.9801	0
0.5593	-150.688	-15.1867	-2.5101	-3.61346	-30.0812	10.7015	2.27693	-0.967892	-16.768	0
0.5600	-140.586	-14.2534	-1.3037	-1.16668	-25.5197	10.998	7.46487	2.99371	-13.9901	0
0.5607	-131.148	-16.4169	-3.73597	-1.47455	-27.3443	8.56716	6.55218	3.91659	-14.5962	0
0.5613	-119.85	-17.9441	-6.16824	-1.78242	-29.1689	6.43278	1.9695	3.60146	-15.2023	0
0.5620	-97.2536	-17.0108	-5.25371	0.356485	-26.432	6.43278	0.749369	5.44721	-13.6871	0
0.5627	-30.749	-17.3077	-6.16824	0.972231	-25.8156	4.59485	-2.30575	6.34757	-13.081	0
0.5633	84.316	-15.7806	-4.6505	1.87965	-22.7581	3.67588	-4.43857	8.80107	-11.2628	0
0.5640	163.67	-12.4293	-1.3037	4.01856	-18.1967	4.00196	-7.18626	12.1549	-9.74764	-0.321296
0.5647	135.889	-10.9022	-1.3037	4.94218	-19.7007	1.86758	-16.9473	12.1549	-10.3537	-0.321296
0.5653	66.9034	-9.07808	0.233498	5.54172	-17.2597	0.948613	-26.4105	13.0778	-8.78802	0
0.5660	16.8809	-6.66009	3.5803	6.46534	-12.3777	1.24505	-30.9931	16.4317	-6.66678	0
0.5667	-14.8871	-5.72683	4.80617	6.15747	-12.3777	0.622527	-33.7312	17.6472	-8.18195	0
0.5673	-14.2668	-4.19967	6.34336	5.54172	-9.34489	0.948613	-31.9058	17.9623	-9.09106	0
0.5680	8.94999	-4.49662	6.34336	3.71068	-6.58334	2.46047	-29.1581	17.9623	-10.3537	0
0.5687	28.1792	-6.32072	4.20296	2.49539	-8.40794	2.75691	-32.8185	17.0394	-11.8689	0
0.5693	38.2368	-6.95703	2.3739	2.80327	-8.11206	3.08299	-38.3139	14.5859	-10.9598	0
0.5700	20.5141	-10.3083	-1.3037	2.80327	-8.40794	3.37943	-38.3139	10.0166	-10.6567	0
0.5707	-5.09529	-15.4836	-4.96183	2.49539	-8.11206	4.2984	-32.8185	7.58558	-12.1719	0
0.5713	7.0891	-17.3077	-5.87637	2.80327	-4.14233	5.81026	-23.3553	7.58558	-12.475	0
0.5720	40.9839	-18.8349	-8.01677	2.18752	-3.52591	5.81026	-15.1219	9.09369	-13.081	0.321296
0.5727	74.8343	-22.5255	-11.0522	1.2801	-4.14233	4.59485	-10.8466	7.58558	-14.5962	0
0.5733	84.6262	-24.6466	-13.504	0.356485	-3.52591	1.24505	-7.18626	7.27045	-16.1114	-1.28518
0.5740	61.4094	-23.7557	-13.504	0.972231	-2.61361	-0.266797	-2.60358	13.6855	-16.1114	-1.28518
0.5747	11.3869	-20.9984	-11.6749	2.49539	1.35612	5.51381	2.58436	19.4704	-14.5962	0
0.5753	-59.4155	-19.1743	-10.449	1.58798	3.4766	9.18969	4.71718	21.9239	-14.8992	0.321296
0.5760	-89.6328	-17.0108	-10.1377	0.664358	2.5643	8.8636	2.58436	22.8243	-16.1114	0
0.5767	-43.8638	-15.1867	-9.22317	0.972231	1.652	7.35175	-1.38345	23.1394	-15.8083	0.321296
0.5773	24.5017	-12.4293	-7.70543	2.18752	-0.172597	4.59485	-3.21844	23.7471	-13.9901	0
0.5780	-3.58886	-5.72683	-2.21823	4.01856	1.94788	3.67588	-1.69088	28.0239	-10.9598	0
0.5787	-125.964	2.50284	6.03203	6.77321	5.32585	4.59485	-1.08562	31.9855	-6.96981	0
0.5793	-115.287	10.4356	12.1419	7.9885	6.53403	4.59485	-3.21844	31.9855	-5.1516	0.321296
0.5800	98.0512	17.4774	16.0919	8.29637	8.97504	2.75691	-5.35126	33.8312	-5.1516	0
0.5807	289.368	20.1924	16.7146	7.9885	9.88734	2.16402	-7.18626	35.3393	-5.75767	-0.321296
0.5813	300.091	16.8411	13.971	7.9885	8.97504	2.16402	-7.49369	33.201	-5.75767	0
0.5820	195.704	12.599	10.6047	8.91212	12.0325	3.37943	-6.57139	32.3006	-4.2425	0.321296
0.5827	90.1202	7.38124	5.42883	9.51166	14.7694	4.00196	-5.6587	28.9467	-2.72732	0.321296
0.5833	3.45594	0.0848419	-1.9069	9.20379	14.153	2.75691	-5.96613	20.3933	-3.33339	0.321296
0.5840	-47.5413	-5.72683	-6.47957	8.91212	14.153	1.5415	-6.27356	14.5859	-3.33339	0.321296
0.5847	-17.9443	-6.66009	-7.10223	8.60425	13.8571	0.948613	-6.57139	11.2321	-3.03035	0
0.5853	33.3631	-5.42988	-5.87637	9.20379	14.7694	0.948613	-6.57139	8.48594	-2.72732	0
0.5860	34.5594	-6.02377	-5.87637	10.1274	17.8268	1.86758	-4.43857	4.52433	0.0505059	0
0.5867	-6.64603	-8.48419	-8.30864	10.1274	17.8268	1.24505	-4.43857	-1.57564	0.959612	0
0.5873	-56.3584	-10.3083	-11.0522	8.60425	16.2981	0.622527	-5.05344	-6.1675	-1.46467	0
0.5880	-77.7586	-11.2415	-11.6749	6.15747	15.3858	1.86758	-2.60358	-8.59849	-4.2425	0
0.5887	-71.0239	-9.71439	-10.7604	3.41901	14.153	3.67588	0.134502	-10.1291	-6.66678	0
0.5893	-54.5418	-6.32072	-8.01677	2.80327	17.2104	6.13634	2.88219	-11.3446	-6.96981	0
0.5900	-41.1168	-5.42988	-7.10223	2.49539	19.035	7.05531	4.10231	-13.7756	-6.36374	0
0.5907	-32.2554	-6.32072	-8.30864	1.58798	15.6817	5.21737	1.9695	-14.0907	-5.75767	0
0.5913	-2.65841	-5.72683	-7.70543	1.58798	14.7694	4.59485	0.441936	-11.3446	-5.75767	0
0.5920	49.5351	-4.79357	-8.30864	1.87965	14.4735	4.00196	0.134502	-9.20623	-5.75767	0
0.5927	83.3856	-6.02377	-11.0522	1.2801	13.8571	2.46047	-0.163324	-8.28336	-4.84857	0
0.5933	76.0749	-6.95703	-12.2781	1.87965	16.594	3.67588	1.36424	-7.38299	-3.03035	0
0.5940	37.6166	-6.66009	-12.5894	1.58798	17.8268	4.59485	2.27693	-5.85237	-3.03035	0
0.5947	-0.221534	-6.02377	-12.5894	0.356485	16.594	3.67588	2.58436	-3.71401	-3.63642	0
0.5953	-8.77277	-4.49662	-11.6749	0.356485	16.9145	4.59485	3.49706	-2.18339	-2.72732	0
0.5960	-2.03812	-3.60578	-12.2781	-0.550931	15.6817	3.08299	2.27693	-2.18339	-3.03035	-0.321296
0.5967	9.52598	-2.07863	-11.9668	-0.858804	15.0899	0.326086	2.58436	-1.28302	-3.63642	-0.963889
0.5973	32.7428	0.975682	-8.9313	0.356485	16.2981	3.37943	3.18962	1.17047	-2.07074	-0.321296
0.5980	42.8005	2.50284	-8.01677	0.356485	15.6817	5.21737	0.134502	1.46309	-1.16164	0
0.5987	29.0653	3.73304	-7.70543	0.664358	14.4735	4.00196	1.36424	2.09335	-0.252529	0
0.5993	36.4203	7.0843	-6.16824	2.18752	13.8571	4.00196	4.71718	6.6627	1.56568	0
0.6000	73.6381	10.4356	-3.73597	3.11114	13.2407	3.37943	1.9695	11.5472	3.08086	0
0.6007	86.7529	14.1262	-1.3037	4.6343	15.6817	3.08299	-0.470757	14.901	5.85868	0
0.6013	59.5928	15.314	-0.681036	5.84959	16.594	2.16402	-1.08562	16.1165	7.97993	0
0.6020	15.02	14.7201	-1.59557	5.54172	15.0899	1.5415	-2.30575	14.5859	7.6769	0
0.6027	-32.8757	14.7201	-2.5101	5.54172	12.9448	2.16402	-3.8237	12.7627	7.6769	0
0.6033	-58.7952	13.7868	-3.42464	5.25005	9.27092	-0.889325	-5.6587	10.9394	7.07082	-0.963889
0.6040	-33.496	13.7868	-3.73597	5.25005	7.44633	-5.45453	-6.57139	10.6243	7.97993	-1.92778
0.6047	23.2611	15.6533	-3.13277	7.08109	8.35863	-2.72726	-7.18626	12.4701	11.0103	-0.642592
0.6053	54.4089	15.314	-3.42464	8.29637	6.82991	1.5415	-6.87882	10.6243	12.2729	0.321296
0.6060	46.1678	13.7868	-4.6505	7.68063	5.00531	0.622527	-6.57139	7.27045	12.2729	0
0.6067	26.6284	12.2597	-6.47957	6.46534	1.94788	-0.889325	-5.35126	2.7011	11.6164	0
0.6073	15.6403	12.2597	-7.3941	6.46534	-0.172597	-0.889325	-2.91101	-1.57564	11.3133	-0.321296
0.6080	13.8238	13.1929	-6.47957	6.77321	2.26842	1.24505	-1.08562	-0.967892	12.2729	0
0.6087	0.0886138	13.1929	-7.10223	6.15747	2.26842	2.46047	-0.163324	-1.28302	11.9194	0.321296
0.6093	-23.394	12.2597	-8.61997	4.6343	-0.789015	3.08299	0.749369	-3.71401	10.1012	0
0.6100	-34.1163	11.9627	-8.61997	3.11114	-2.61361	4.59485	0.749369	-3.71401	8.586	0
0.6107	-30.4388	11.0719	-9.84583	0.664358	-5.37516	4.59485	0.134502	-3.42139	6.76779	0
0.6113	-20.647	11.3688	-10.1377	0.356485	-7.19976	4.00196	0.441936	-3.71401	7.07082	0
0.6120	-8.15247	13.4899	-7.10223	1.87965	-6.28746	4.59485	1.9695	-3.10626	10.4042	0
0.6127	8.01955	15.6533	-4.6505	2.80327	-7.19976	4.59485	2.58436	-2.79113	11.6164	-0.321296
0.6133	22.375	17.7744	-2.82143	2.49539	-9.34489	4.92093	3.18962	-1.28302	11.0103	-0.321296
0.6140	20.8242	19.5985	-1.9069	0.664358	-12.3777	5.81026	3.80449	0.562728	10.1012	0.321296
0.6147	0.398762	19.0046	-2.5101	-1.16668	-15.731	6.43278	2.88219	-0.0450183	8.28297	0.321296
0.6153	-22.5079	18.0713	-2.21823	-1.78242	-15.4351	7.35175	1.66206	-0.652765	7.07082	0
0.6160	-37.1292	17.7744	-1.3037	-2.07409	-14.8187	7.94464	1.66206	-1.28302	7.37386	0
0.6167	-51.7948	18.0713	-2.21823	-2.68984	-17.2597	7.05531	1.36424	-1.28302	7.07082	0
0.6173	-64.2893	17.4774	-3.42464	-3.61346	-20.0212	7.35175	1.36424	-0.0450183	6.46475	0
0.6180	-66.1502	16.2472	-4.6505	-4.213	-22.1417	7.35175	2.27693	1.46309	5.55565	0
0.6187	-71.6442	15.314	-5.87637	-3.90513	-22.7581	7.05531	2.58436	2.99371	6.16172	0.321296
0.6193	-78.6447	14.4231	-7.10223	-3.90513	-22.4623	6.43278	2.88219	3.91659	6.76779	0
0.6200	-52.1049	14.4231	-7.10223	-3.90513	-22.1417	6.13634	4.10231	4.20921	6.76779	0
0.6207	-28.6223	15.017	-5.56504	-3.61346	-21.55	6.43278	5.02462	4.20921	6.46475	0
0.6213	-44.174	14.7201	-6.47957	-3.30559	-22.7581	6.43278	5.02462	4.20921	6.16172	0
0.6220	-35.0024	14.4231	-7.10223	-3.61346	-23.6704	6.72923	5.62988	5.44721	6.76779	0
0.6227	14.7099	14.7201	-6.16824	-3.30559	-22.4623	7.05531	6.24474	7.58558	7.6769	0
0.6233	47.9844	13.7868	-7.10223	-2.99771	-22.7581	6.43278	4.40975	8.48594	7.6769	0
0.6240	59.5928	13.1929	-8.30864	-3.30559	-22.4623	5.51381	2.58436	8.80107	7.6769	0
0.6247	80.0182	14.4231	-7.10223	-3.61346	-19.4048	5.81026	3.49706	9.09369	7.97993	0
0.6253	97.1207	16.5442	-4.96183	-4.213	-15.731	6.43278	4.40975	10.0166	7.07082	-0.321296
0.6260	77.8915	18.0713	-3.42464	-4.52088	-9.02436	7.64819	5.02462	11.5472	6.16172	-0.321296
0.6267	44.041	19.0046	-2.5101	-4.213	-3.23003	8.56716	5.62988	13.3704	6.46475	0
0.6273	29.0653	19.3015	-1.59557	-5.13662	-2.61361	8.27072	5.02462	13.3704	5.85868	0.321296
0.6280	20.5141	19.0046	-2.21823	-6.04404	-3.84645	8.56716	4.10231	11.2321	4.293	-0.321296
0.6287	11.697	19.8954	-0.992367	-6.04404	-3.84645	8.27072	4.10231	11.8398	4.59604	0
0.6293	19.628	21.4226	1.45936	-6.35191	-1.0849	8.8636	5.02462	13.9782	4.59604	0.321296
0.6300	46.4779	21.1256	1.14803	-7.27553	2.88484	9.78257	5.62988	14.2933	3.08086	0
0.6307	67.8339	19.0046	-0.681036	-8.18295	5.00531	9.78257	5.02462	12.4701	1.56568	0
0.6313	59.5928	16.2472	-1.3037	-9.39824	4.70943	9.78257	5.02462	10.0166	0.959612	0
0.6320	34.8695	13.7868	-2.82143	-9.70611	5.62173	10.4051	4.40975	8.19332	0.959612	0.321296
0.6327	15.02	13.1929	-3.42464	-9.39824	7.44633	10.4051	3.18962	7.58558	0.656577	-0.321296
0.6333	8.3297	13.1929	-2.82143	-10.014	6.82991	6.13634	3.80449	7.87819	-0.252529	-1.28518
0.6340	11.3869	14.7201	-0.369705	-10.014	5.32585	4.59485	5.02462	9.40881	0.0505059	-1.28518
0.6347	-4.78514	15.9503	0.836701	-9.10657	4.38889	9.18969	3.80449	12.1549	0.959612	0
0.6353	-34.1163	14.7201	-0.992367	-9.39824	1.652	10.998	1.9695	13.0778	-0.252529	0
0.6360	-50.2883	13.1929	-2.21823	-9.70611	2.26842	10.7015	3.49706	12.7627	-0.8586	0
0.6367	-57.9091	13.1929	-1.59557	-9.10657	5.62173	10.998	4.10231	12.7627	0.0505059	0
0.6373	-58.7952	13.7868	-1.3037	-7.87507	6.82991	10.4051	2.27693	12.4701	0.959612	0
0.6380	-59.1054	12.896	-2.21823	-7.87507	5.00531	9.18969	1.66206	10.6243	0.959612	0
0.6387	-68.8972	10.4356	-4.6505	-8.49082	5.32585	7.94464	1.0568	6.6627	0.656577	-0.321296
0.6393	-77.4484	9.54471	-4.6505	-7.27553	10.2079	8.27072	0.749369	5.13208	0.959612	-0.321296
0.6400	-69.5175	9.54471	-4.0473	-6.35191	12.6489	7.94464	0.749369	5.13208	1.26265	0
0.6407	-50.2883	9.84166	-3.73597	-6.65978	9.88734	7.35175	-0.163324	4.20921	1.86872	0.321296
0.6413	-23.394	10.7325	-2.5101	-5.13662	7.76686	7.35175	-0.163324	5.13208	3.38389	0
0.6420	18.3874	11.9627	-1.9069	-3.61346	4.38889	6.13634	0.441936	6.05496	4.293	0
0.6427	50.7314	11.9627	-1.3037	-2.68984	-0.172597	4.59485	-1.69088	4.83946	5.25261	0
0.6433	50.1111	11.0719	-1.9069	-2.68984	-4.46286	4.00196	-3.21844	2.09335	5.25261	0
0.6440	33.6732	9.84166	-3.13277	-2.99771	-7.81618	3.67588	-3.8237	-0.652765	3.98997	0
0.6447	14.1339	9.20534	-2.5101	-2.68984	-7.81618	4.00196	-3.8237	-1.28302	3.08086	-0.321296
0.6453	-0.531683	9.54471	-1.9069	-1.78242	-5.96692	4.00196	-3.21844	-0.360146	3.68693	-0.321296
0.6460	-2.03812	8.3145	-2.82143	-2.07409	-6.58334	2.16402	-4.13114	-0.967892	3.68693	0
0.6467	1.59505	7.38124	-2.82143	-2.38197	-9.02436	0.948613	-5.35126	-2.49851	3.38389	0.321296
0.6473	1.01906	7.38124	-2.5101	-2.07409	-13.29	0.948613	-5.35126	-4.02913	3.38389	0
0.6480	1.2849	7.38124	-2.21823	-1.78242	-14.5228	1.5415	-4.13114	-4.63688	3.08086	0
0.6487	2.83564	8.61145	-0.992367	-0.550931	-10.5531	2.16402	-1.08562	-0.967892	3.08086	-0.321296
0.6493	-0.841831	9.54471	-0.681036	-0.858804	-7.81618	1.24505	-0.778191	1.77822	3.08086	0
0.6500	-1.15198	10.1386	-0.0778327	-1.78242	-7.81618	0.948613	-1.38345	2.38597	2.77782	0
0.6507	5.89282	10.1386	0.544829	-1.78242	-7.49564	0.326086	-1.99832	2.38597	2.77782	0
0.6513	3.76609	8.61145	-0.992367	-1.16668	-6.90388	-0.592883	-4.746	1.77822	1.86872	0.321296
0.6520	-8.15247	7.38124	-2.5101	-0.550931	-5.67104	0.0296442	-5.05344	2.38597	1.26265	-0.321296
0.6527	-37.1292	5.85409	-3.42464	-0.550931	-5.67104	0.622527	-4.746	3.30884	0.656577	-0.321296
0.6533	-88.1264	3.13915	-6.16824	-1.78242	-9.34489	0.622527	-6.57139	3.60146	-1.16164	0.321296
0.6540	-119.54	0.678735	-10.1377	-2.38197	-15.1392	0.948613	-6.87882	3.30884	-3.63642	0
0.6547	-107.045	-1.14537	-12.5894	-4.213	-20.9335	0.622527	-6.87882	5.13208	-5.75767	-0.321296
0.6553	-65.5299	-1.14537	-11.9668	-5.13662	-20.6377	1.86758	-6.87882	10.0166	-6.36374	0
0.6560	-9.70321	-0.551472	-10.1377	-4.52088	-18.1967	3.37943	-6.87882	13.3704	-6.36374	0
0.6567	27.2487	-0.848419	-10.1377	-5.13662	-18.1967	2.75691	-7.79152	13.3704	-7.27285	0
0.6573	-0.841831	0.381788	-9.22317	-5.73617	-16.6679	2.75691	-8.09895	15.5088	-7.57588	0
0.6580	-89.6328	3.4361	-6.7909	-5.73617	-16.0515	3.08299	-9.31908	18.8626	-8.18195	0
0.6587	-127.781	8.61145	-1.9069	-5.13662	-14.5228	2.46047	-9.62651	23.4545	-8.48499	0
0.6593	-33.496	16.8411	7.2579	-3.61346	-11.4654	2.75691	-7.49369	30.1622	-6.96981	0
0.6600	100.798	27.8281	18.2323	-2.38197	-11.4654	2.46047	-7.18626	36.2622	-5.75767	0
0.6607	222.864	38.2213	28.0003	-1.16668	-10.849	1.5415	-8.09895	42.3622	-4.54553	0
0.6613	292.736	42.5058	32.8843	-0.243058	-9.93666	0.622527	-8.09895	46.0312	-3.63642	0
0.6620	222.554	39.4515	30.452	-0.550931	-12.3777	-0.592883	-8.71382	42.9699	-4.2425	0
0.6627	98.0512	31.5188	23.1163	0.0486116	-12.6982	0.0296442	-7.79152	35.3393	-3.93946	0.321296
0.6633	41.87	21.7195	15.4887	0.0486116	-9.64077	-3.0237	-5.05344	28.0239	-3.93946	-0.963889
0.6640	70.891	16.5442	11.2274	0.0486116	-8.11206	-6.3735	-2.60358	23.1394	-4.2425	-1.60648
0.6647	106.292	12.896	8.4643	1.2801	-8.40794	-3.32015	-1.99832	16.7243	-3.63642	-0.321296
0.6653	78.2017	5.2602	2.06257	1.2801	-10.2572	-0.889325	-1.99832	6.05496	-4.84857	0
0.6660	8.94999	-1.44231	-3.73597	1.2801	-9.02436	-1.51185	-1.38345	-4.32175	-5.1516	-0.321296
0.6667	-50.5985	-5.13293	-5.25371	1.87965	-6.28746	-0.592883	-0.778191	-13.483	-4.2425	0
0.6673	-71.3341	-9.07808	-6.16824	1.58798	-7.19976	-0.592883	-1.08562	-23.2519	-4.54553	0
0.6680	-60.0358	-12.4293	-8.01677	0.664358	-9.02436	-1.51185	-2.30575	-32.7058	-6.06071	0
0.6687	-38.3698	-14.5928	-8.9313	0.356485	-9.02436	-1.18577	-2.91101	-39.1209	-6.96981	0.321296
0.6693	-24.0143	-16.12	-9.84583	0.0486116	-9.02436	-0.889325	-1.99832	-40.6515	-7.57588	0.321296
0.6700	-18.2101	-16.7139	-10.449	-1.16668	-9.34489	-1.18577	-1.99832	-40.6515	-7.57588	0
0.6707	-18.5203	-16.12	-10.1377	-1.16668	-8.11206	-0.592883	-2.60358	-39.7286	-7.87892	0
0.6713	-24.3245	-15.1867	-9.22317	-1.47455	-6.28746	0.0296442	-1.69088	-36.0596	-8.48499	0.321296
0.6720	-31.9453	-14.8897	-8.61997	-1.78242	-4.75875	0.0296442	-1.08562	-32.098	-8.48499	0.321296
0.6727	-43.2435	-13.3626	-8.30864	-1.47455	-4.46286	0.0296442	-1.38345	-29.0368	-8.78802	0
0.6733	-34.1163	-10.6052	-6.7909	-1.78242	-3.84645	0.0296442	-1.38345	-25.6829	-9.09106	0
0.6740	3.45594	-8.18724	-4.6505	-2.07409	-2.02185	0.326086	-1.08562	-21.4062	-8.78802	0
0.6747	29.0653	-6.32072	-2.82143	-2.68984	-1.40543	0.0296442	-1.69088	-18.3674	-9.09106	-0.321296
0.6753	29.0653	-4.19967	-1.59557	-1.78242	-0.789015	0.0296442	-1.69088	-16.2291	-9.3941	-0.321296
0.6760	22.0648	-3.90273	-0.992367	-1.47455	0.419164	0.0296442	-1.08562	-15.6213	-8.48499	0
0.6767	23.5713	-4.79357	-1.59557	-1.47455	1.94788	-0.266797	-1.69088	-14.6985	-7.87892	0
0.6773	39.4331	-5.42988	-2.5101	-1.47455	2.88484	-0.889325	-1.69088	-13.1678	-8.18195	0
0.6780	49.8453	-6.02377	-3.13277	-1.78242	2.88484	-1.51185	-1.08562	-11.3446	-8.78802	0
0.6787	40.3636	-6.32072	-3.42464	-2.07409	2.5643	-1.18577	-1.08562	-9.81398	-8.78802	0.321296
0.6793	26.3183	-6.32072	-3.42464	-1.78242	3.18072	-0.889325	-1.08562	-7.38299	-8.18195	0
0.6800	24.8119	-6.66009	-3.13277	-1.47455	3.79713	-1.18577	-1.38345	-5.53724	-8.18195	0
0.6807	25.4322	-8.18724	-3.73597	-1.47455	4.38889	-1.51185	-2.30575	-4.63688	-8.18195	0
0.6813	9.83613	-16.7139	-4.6505	-1.47455	4.38889	-1.51185	-2.60358	-3.42139	-8.18195	0
0.6820	-8.15247	-30.1613	-4.33917	-2.07409	4.70943	-0.889325	-1.08562	-2.18339	-8.48499	0
0.6827	-14.2668	-37.7546	-3.73597	-2.99771	4.38889	-0.266797	-0.470757	-1.57564	-9.74764	0
0.6833	-13.9567	-41.1483	-2.21823	-2.99771	4.38889	-0.266797	-1.08562	-0.652765	-10.0507	-0.321296
0.6840	-5.09529	-37.4577	-0.992367	-2.38197	5.91761	0.0296442	-0.778191	1.77822	-8.78802	0
0.6847	10.1463	0.678735	-0.992367	-2.38197	6.53403	0.0296442	-0.470757	3.60146	-8.78802	-0.321296
0.6853	11.0767	41.2756	-1.59557	-2.38197	5.91761	-0.592883	-0.470757	5.44721	-9.3941	-0.321296
0.6860	-7.53217	32.7065	-3.13277	-2.68984	5.00531	-0.889325	-0.778191	6.6627	-9.3941	0
0.6867	-25.2549	16.5442	-5.25371	-2.99771	3.79713	-1.51185	-1.38345	7.87819	-8.78802	0
0.6873	-31.9453	18.6652	-5.87637	-1.78242	5.00531	-1.51185	-0.778191	10.0166	-7.27285	-0.321296
0.6880	-30.1287	9.20534	-5.87637	-0.550931	6.53403	-2.10474	-0.778191	11.2321	-6.06071	-0.321296
0.6887	-25.2549	-5.42988	-6.47957	0.0486116	5.32585	-2.72726	-2.60358	11.2321	-5.45464	0
0.6893	-25.2549	-2.96947	-6.47957	0.664358	4.09301	-2.72726	-3.21844	10.6243	-4.54553	0.321296
0.6900	-22.5079	3.13915	-5.25371	1.58798	3.79713	-3.94267	-3.52588	10.3317	-3.33339	0.321296
0.6907	-8.46262	-0.254526	-2.82143	2.18752	5.00531	-4.23912	-3.8237	10.9394	-2.72732	0
0.6913	15.6403	-4.49662	-0.681036	2.49539	6.53403	-3.94267	-2.60358	11.5472	-1.46467	0.321296
0.6920	33.3631	-3.60578	1.14803	2.80327	5.91761	-3.94267	-2.30575	12.1549	-0.8586	0.321296
0.6927	16.5708	0.0848419	3.28843	2.18752	4.38889	-4.23912	-3.52588	11.5472	-2.07074	-0.321296
0.6933	-20.9572	2.50284	4.49484	0.664358	4.38889	-8.50787	-4.746	11.5472	-3.33339	-1.60648
0.6940	-43.5537	3.13915	5.42883	0.972231	6.82991	-9.1304	-3.52588	13.0778	-2.42428	-1.28518
0.6947	-45.9906	1.612	5.1175	1.87965	8.67916	-3.0237	-1.38345	13.3704	-1.76771	0
0.6953	-51.7948	-1.44231	1.75124	0.972231	8.35863	-0.889325	-1.08562	10.9394	-2.72732	0.321296
0.6960	-78.3346	-5.42988	-1.59557	-0.550931	6.53403	-2.43082	-2.30575	8.80107	-3.93946	0
0.6967	-87.196	-9.37503	-3.42464	-1.16668	5.62173	-2.43082	-3.21844	6.6627	-4.54553	0
0.6973	-36.243	-12.4293	-4.96183	-1.16668	5.91761	-1.80829	-2.60358	4.20921	-4.54553	0
0.6980	28.1792	-14.2534	-4.6505	-0.550931	7.44633	-1.51185	-1.08562	3.60146	-3.63642	0
0.6987	70.2707	-12.7687	-1.3037	-0.243058	9.59146	-1.18577	-0.163324	6.05496	-2.72732	0
0.6993	115.73	-6.95703	2.3739	-0.858804	8.06274	-1.18577	-0.778191	9.40881	-3.33339	-0.321296
0.7000	138.016	-2.07863	5.42883	-1.47455	6.53403	-1.18577	-1.38345	11.5472	-4.54553	-0.321296
0.7007	106.602	0.975682	7.2579	-1.47455	8.06274	-0.889325	-0.778191	11.2321	-4.84857	0
0.7013	50.7314	5.85409	6.03203	-1.78242	8.67916	-0.266797	-0.778191	8.80107	-4.84857	0
0.7020	7.0891	4.6663	3.5803	-2.07409	9.59146	1.24505	0.749369	6.05496	-4.84857	0
0.7027	-14.8871	-9.71439	0.544829	-2.68984	8.67916	1.5415	0.441936	3.30884	-5.1516	0
0.7033	-20.9572	-21.8892	-1.9069	-3.61346	6.23815	0.326086	-1.99832	-1.57564	-6.66678	0
0.7040	-21.2673	-20.9984	-1.59557	-3.30559	7.44633	0.0296442	-2.30575	-4.02913	-7.57588	0
0.7047	-40.1864	-25.5798	-1.59557	-3.61346	7.76686	0.0296442	-1.69088	-3.71401	-7.27285	0
0.7053	-63.7133	-10.3083	-0.0778327	-3.61346	8.97504	0.622527	-1.08562	-2.49851	-7.57588	0
0.7060	-61.5423	36.9911	2.06257	-2.99771	11.4161	1.5415	-0.163324	-0.652765	-7.57588	-0.321296
0.7067	-60.0358	34.2337	1.14803	-3.61346	9.59146	1.86758	-0.470757	-0.360146	-9.09106	0
0.7073	-71.9544	-4.19967	-0.0778327	-4.52088	8.06274	2.75691	0.441936	0.562728	-11.2628	0
0.7080	-77.1383	-0.551472	-0.992367	-6.04404	8.06274	2.75691	0.749369	1.77822	-12.475	0
0.7087	-73.4608	13.4899	-3.13277	-6.65978	7.44633	2.16402	0.134502	0.562728	-13.3841	0
0.7093	-52.1049	5.85409	-4.0473	-4.52088	9.59146	2.75691	1.66206	0.2476	-11.8689	0
0.7100	-3.58886	-21.8892	-5.56504	-4.52088	9.88734	1.86758	0.441936	0.562728	-10.6567	0
0.7107	43.4208	-53.9594	-8.01677	-9.10657	8.06274	0.948613	-1.99832	-0.360146	-11.5658	0
0.7113	45.5475	-62.486	-7.70543	-13.0765	8.67916	0.948613	-1.38345	-0.652765	-12.1719	-0.321296
0.7120	15.6403	-73.4731	-7.3941	-10.3219	8.06274	-0.266797	-1.99832	-0.652765	-10.9598	0
0.7127	-7.22202	-91.502	-7.70543	-2.38197	8.67916	-0.592883	-1.99832	-0.0450183	-7.87892	0
0.7133	-22.1978	-69.8249	-4.33917	5.84959	11.1202	-0.266797	-1.69088	0.855347	-6.66678	0
0.7140	-22.1978	-33.5125	0.836701	13.4816	10.2079	-0.592883	-2.60358	-1.89077	-7.87892	0
0.7147	-12.1401	-9.71439	3.5803	21.4215	10.2079	-0.592883	-2.60358	-4.63688	-7.27285	0
0.7153	-29.5084	42.5058	3.89163	27.822	10.2079	-1.18577	-2.60358	-4.02913	-7.57588	0
0.7160	-78.0244	66.6009	4.20296	30.8846	8.35863	-1.80829	-3.21844	-1.57564	-10.3537	0
0.7167	-100.621	25.4101	6.03203	34.8383	9.27092	-1.18577	-1.69088	0.562728	-12.778	0
0.7173	-55.1621	2.20589	7.8611	35.454	9.59146	-0.889325	-1.99832	0.2476	-15.5053	-0.321296
0.7180	23.8814	-84.4601	5.7207	32.7156	7.76686	-0.889325	-3.21844	0.562728	-14.2932	-0.321296
0.7187	49.8453	-159.842	1.75124	49.4866	6.53403	-1.18577	-1.99832	4.83946	-10.9598	0
0.7193	-1.72797	-30.4582	1.14803	70.2437	6.82991	-1.80829	-1.38345	7.27045	-16.768	0.321296
0.7200	-42.3574	87.0478	0.233498	38.8082	7.44633	-1.80829	-2.60358	3.60146	-26.2126	0
0.7207	-41.4269	66.007	-2.82143	-27.7248	7.76686	-1.18577	-3.21844	-0.967892	-23.4347	0
0.7213	-58.5294	37.585	-3.42464	-70.1303	8.67916	-0.266797	-2.60358	-0.967892	-18.2831	0.321296
0.7220	-71.9544	24.4769	-1.59557	-76.2391	9.27092	0.0296442	-2.30575	-0.652765	-14.2932	0
0.7227	-64.9096	16.2472	-0.681036	-55.7899	8.97504	0.0296442	-2.91101	-0.652765	-3.63642	0.321296
0.7233	-98.1841	15.314	-1.59557	-31.9864	8.67916	-4.5652	-4.13114	-1.57564	-13.081	-0.963889
0.7240	-110.989	40.6393	0.233498	-29.5558	8.35863	-9.75293	-5.35126	-3.10626	-41.4653	-1.60648
0.7247	8.63984	72.7095	3.89163	-33.2179	9.59146	-6.3735	-4.746	-0.967892	-46.0614	0
0.7253	163.36	56.2077	1.75124	-25.278	10.7996	-3.0237	-3.8237	-0.360146	-28.6368	0.321296
0.7260	199.957	27.5312	-1.3037	-16.7386	11.4161	-5.15808	-4.746	-2.49851	-10.9598	0
0.7267	146.567	26.9373	-0.681036	-7.5672	13.5612	-6.99602	-6.57139	-3.10626	31.7682	0
0.7273	79.4423	20.8287	-0.0778327	6.77321	15.3858	-6.69958	-7.18626	-3.42139	110.81	0
0.7280	3.14579	-5.13293	-1.3037	17.7594	17.8268	-6.99602	-5.96613	-5.85237	202.68	0
0.7287	-61.2764	-21.8892	-3.13277	24.16	18.7391	-8.21143	-7.18626	-8.28336	303.692	0.321296
0.7293	-77.4484	-31.9854	-4.0473	13.1737	17.5309	-8.21143	-8.71382	-7.67561	366.572	0
0.7300	-28.002	-104.61	-4.0473	-16.4307	18.4432	-5.45453	-5.6587	-4.02913	299.399	-0.321296
0.7307	56.2254	-208.075	-3.42464	-33.2179	19.3555	-1.51185	-1.99832	0.855347	107.78	0
0.7313	117.901	-205.02	-1.3037	-29.5558	18.4432	2.16402	-0.163324	4.52433	-141.265	0
0.7320	141.693	-134.814	1.14803	-27.1091	12.9448	4.92093	2.58436	5.73983	-396.37	0
0.7327	145.637	-91.1626	3.5803	-17.646	6.53403	7.94464	5.32244	6.34757	-480.917	0.321296
0.7333	136.51	-22.5255	8.4643	25.3914	5.00531	10.1087	5.93731	6.6627	-351.824	0
0.7340	117.59	32.1127	14.2628	76.9521	4.70943	7.35175	5.32244	3.60146	-215.105	0
0.7347	105.362	-29.525	16.0919	73.5979	7.15045	3.08299	4.40975	-2.18339	-133.639	0
0.7353	91.3165	-100.029	8.77563	40.3314	12.0325	2.46047	3.18962	-7.38299	-71.0618	0
0.7360	65.397	-21.5923	-0.992367	41.5629	13.2407	1.5415	0.749369	-10.7369	-21.9196	0
0.7367	50.1111	155.388	-2.82143	51.6255	14.153	-1.18577	-1.99832	-12.8752	46.1119	0
0.7373	44.9272	239.042	-0.992367	40.0397	16.594	-3.64623	-2.91101	-15.914	135.558	0
0.7380	40.3636	161.497	-3.73597	15.9284	16.9145	-6.07705	-3.52588	-17.4446	215.509	0
0.7387	42.4903	40.3423	-9.22317	4.94218	17.8268	-6.3735	-2.91101	-12.8752	242.327	0
0.7393	59.2826	-28.6341	-12.8813	3.11114	17.2104	-4.23912	0.134502	-5.24463	178.589	0.321296
0.7400	79.4423	-38.094	-13.504	-24.0627	13.5612	-2.10474	1.9695	-1.28302	51.9201	0.321296
0.7407	75.1445	-41.1483	-12.5894	-58.2367	10.2079	1.86758	4.10231	-0.652765	-99.4461	0
0.7413	62.9601	-82.339	-11.9668	-59.1441	5.62173	4.59485	6.24474	-0.652765	-278.59	0
0.7420	58.9725	-101.556	-9.5345	-31.6785	2.88484	3.67588	6.85	0.855347	-421.118	0
0.7427	44.3512	-7.55093	-5.56504	10.7432	3.18072	1.86758	5.32244	3.30884	-365.259	-0.321296
0.7433	25.698	100.792	-4.0473	52.857	3.4766	-2.43082	1.66206	4.83946	-152.831	-0.321296
0.7440	8.3297	70.2491	-2.5101	73.29	5.00531	-4.86164	-0.163324	6.05496	-17.071	0
0.7447	0.70891	18.6652	1.75124	82.1535	6.82991	-4.23912	0.134502	6.05496	11.6164	0
0.7453	14.7099	62.3164	5.42883	85.8156	6.23815	-2.43082	0.749369	4.52433	24.7479	0
0.7460	23.2611	73.6003	7.54977	60.4728	7.15045	2.46047	2.88219	6.05496	-33.2329	0
0.7467	9.52598	20.8287	10.2934	10.7432	8.97504	7.64819	5.02462	8.80107	-186.114	0
0.7473	-3.58886	15.314	12.1419	-37.4795	9.59146	7.94464	4.10231	9.40881	-275.207	0
0.7480	-14.2668	67.1948	11.2274	-84.4869	10.7996	5.51381	2.27693	7.87819	-238.59	0
0.7487	-32.5656	122.13	9.69017	-115.307	13.8571	4.59485	0.749369	6.34757	-151.619	0
0.7493	-52.7252	139.226	6.94657	-104.628	15.3858	3.67588	0.441936	4.52433	-19.1922	0
0.7500	-71.3341	86.1145	1.14803	-77.7623	15.0899	0.948613	-1.69088	2.7011	146.821	0.321296
0.7507	-83.5185	1.27263	-4.0473	-57.9288	15.3858	-0.266797	-2.60358	0.562728	308.288	0.321296
0.7513	-98.1841	-40.215	-5.56504	-48.1579	14.153	-0.889325	-1.99832	-3.71401	436.724	0
0.7520	-115.287	-53.9594	-4.33917	-52.1278	12.0325	1.5415	-0.778191	-8.59849	405.007	0.321296
0.7527	-120.16	-96.6773	-3.13277	-53.651	11.7119	5.81026	2.27693	-9.20623	188.033	0
0.7533	-107.045	-147.922	-4.6505	-49.6972	10.5038	3.08299	3.80449	-8.59849	-13.9901	-1.60648
0.7540	-76.8282	-89.6354	-2.82143	-42.9726	8.35863	-0.889325	3.18962	-7.38299	-72.2739	-1.28518
0.7547	-45.9906	38.2213	3.89163	-30.1554	8.67916	-0.592883	1.36424	-4.63688	-47.5765	0
0.7553	-27.6918	-3.90273	5.7207	-24.9701	9.88734	-3.94267	-2.91101	-3.42139	-10.6567	0
0.7560	-14.8871	-31.9854	6.03203	-28.9401	11.1202	-9.75293	-4.746	-2.18339	20.5054	0
0.7567	-8.77277	122.13	9.37884	-16.7386	11.1202	-11.8873	-5.35126	3.30884	-3.63642	0
0.7573	-11.8299	36.3972	4.80617	-4.52088	9.88734	-11.5612	-5.05344	6.95532	-14.8992	0
0.7580	-9.96905	-195.264	-4.96183	-29.8475	8.97504	-11.5612	-4.746	3.60146	39.3946	0
0.7587	-9.96905	-164.424	-7.3941	-51.5283	6.82991	-12.1838	-5.6587	-1.28302	-22.2226	0
0.7593	-30.1287	-42.0392	-6.47957	-36.2642	6.53403	-11.5612	-4.746	-1.89077	-183.69	0
0.7600	-56.3584	-35.3366	-8.30864	-19.1692	5.62173	-10.3458	-2.60358	-0.0450183	-285.914	0.321296
0.7607	-82.9425	-87.8113	-8.30864	-7.87507	3.18072	-9.75293	-2.60358	2.38597	-316.722	-0.321296
0.7613	-109.792	-48.7417	-4.0473	4.94218	2.88484	-8.21143	-2.30575	4.83946	-203.791	0
0.7620	-126.851	60.7892	0.233498	9.81954	2.26842	-7.91499	-1.69088	2.7011	6.16172	0
0.7627	-130.838	35.4639	-0.0778327	18.9747	2.26842	-9.42684	-3.52588	-0.0450183	106.264	0
0.7633	-121.977	-57.0137	-3.73597	59.2575	5.62173	-10.3458	-5.05344	4.52433	132.174	0.321296
0.7640	-89.943	9.20534	-3.42464	112.973	8.35863	-10.0494	-5.6587	10.9394	185.003	0.321296
0.7647	-17.6341	108.385	-0.681036	141.038	11.4161	-6.3735	-4.43857	14.5859	156.922	0
0.7653	82.7653	39.1121	0.836701	118.774	13.5612	-0.889325	-1.99832	18.2549	-7.57588	0
0.7660	165.486	-25.8768	2.66577	32.7156	12.9448	1.86758	-0.778191	21.6088	-182.478	-0.321296
0.7667	184.405	40.0454	5.42883	-72.5771	12.9448	2.46047	-1.69088	23.1394	-290.51	-0.321296
0.7673	161.543	12.896	5.42883	-125.677	9.59146	2.16402	-4.13114	21.3161	-310.914	0
0.7680	158.796	-127.814	3.28843	-124.462	5.32585	2.75691	-3.8237	18.2549	-259.348	0.321296
0.7687	155.118	-132.056	2.9771	-109.198	7.15045	4.2984	-0.778191	15.5088	-186.417	0.321296
0.7693	124.591	-35.9305	1.14803	-77.7623	8.97504	2.16402	-0.778191	10.6243	-52.7787	0
0.7700	102.615	32.4096	-2.82143	1.2801	8.06274	-4.86164	-4.43857	4.20921	128.537	0
0.7707	86.7529	116.955	-2.82143	103.818	8.35863	-8.83396	-6.87882	0.2476	274.398	0
0.7713	47.3641	118.185	-4.33917	167.596	7.76686	-10.3458	-8.40638	0.855347	350.056	0
0.7720	-25.2549	-6.02377	-8.9313	170.643	7.44633	-12.8063	-9.62651	5.13208	278.338	0
0.7727	-116.793	-61.2558	-9.84583	132.499	9.88734	-12.4802	-7.49369	12.1549	41.5663	0
0.7733	-185.779	3.4361	-11.6749	88.8619	11.1202	-10.0494	-5.35126	19.1778	-155.912	0
0.7740	-244.663	65.3707	-13.504	64.4427	8.35863	-8.21143	-5.35126	22.8243	-190.407	0
0.7747	-288.615	88.278	-11.6749	56.8107	5.32585	-5.45453	-3.52588	23.4545	-213.892	0
0.7753	-255.03	97.4409	-8.9313	66.2738	4.70943	-2.10474	-1.69088	26.2006	-277.984	0
0.7760	-200.134	64.1405	-8.01677	107.172	6.82991	-1.18577	-1.08562	33.5161	-189.801	0
0.7767	-246.789	-18.8349	-9.22317	154.163	8.06274	-4.5652	-2.60358	42.6773	37.8794	0.321296
0.7773	-284.051	-131.462	-10.7604	164.842	6.23815	-7.91499	-5.96613	50.6005	189.246	0.321296
0.7780	-97.2536	-270.603	-7.10223	143.177	5.91761	-7.91499	-7.18626	55.485	203.286	0
0.7787	261.632	-395.448	1.14803	86.723	6.53403	-6.07705	-7.18626	59.7617	127.931	-0.321296
0.7793	498.142	-422.3	13.0564	-6.65978	8.35863	-3.0237	-5.6587	67.6849	11.3133	-0.321296
0.7800	468.811	-377.122	29.2262	-89.98	10.7996	0.0296442	-4.13114	71.6691	-83.2842	0
0.7807	410.858	-417.719	46.9331	-133.925	9.59146	1.24505	-4.43857	69.2156	-82.9812	0
0.7813	446.569	-343.567	63.706	-145.818	6.53403	3.08299	-3.21844	64.0385	-42.3744	-0.321296
0.7820	407.491	66.3039	76.2177	-128.723	5.00531	4.00196	-1.38345	50.9156	-101.87	-0.321296
0.7827	314.712	252.15	75.3031	-86.9175	7.15045	2.16402	-2.30575	33.5161	-140.659	0
0.7833	246.346	37.288	59.7366	-26.8012	9.88734	-3.0237	-5.05344	25.8855	87.9308	-1.28518
0.7840	114.843	112.67	43.8782	16.5279	10.2079	-9.1304	-6.57139	20.3933	411.724	-1.60648
0.7847	-37.4393	540.528	33.1956	17.4516	10.7996	-11.5612	-7.79152	8.80107	443.442	-0.321296
0.7853	-88.4366	759.971	18.5436	15.0048	9.59146	-13.3992	-10.5392	-4.9295	267.075	0.642592
0.7860	-66.1502	570.434	-4.0473	38.2087	7.76686	-14.0217	-10.8466	-20.1907	268.893	0.321296
0.7867	-82.3222	225.891	-24.1865	60.1811	7.76686	-11.2648	-7.79152	-36.6674	422.078	0
0.7873	-156.758	-21.8892	-33.9545	38.5004	8.35863	-8.83396	-4.43857	-48.2821	340.612	0
0.7880	-203.147	-142.153	-38.2158	-10.014	5.32585	-10.9683	-4.43857	-57.1282	-11.8689	0
0.7887	-176.917	-200.142	-40.0449	-39.0027	0.739701	-13.1027	-9.01164	-58.6363	-259.045	-0.321296
0.7893	-107.932	-236.157	-33.9545	-82.348	4.70943	-6.69958	-7.18626	-51.0282	-226.418	-0.321296
0.7900	-44.7943	-186.101	-26.3269	-150.096	10.5038	1.24505	-3.21844	-49.7902	-85.4055	0
0.7907	-28.8881	17.4774	-22.6493	-161.99	10.7996	1.24505	-5.05344	-53.144	-51.516	0
0.7913	-74.7014	275.354	-17.7653	-97.3042	14.153	-2.72726	-6.87882	-51.6359	-34.7481	0
0.7920	-114.356	324.775	-15.9362	-34.1253	17.8268	-8.21143	-8.09895	-47.6518	177.326	0
0.7927	-9.39306	177.998	-15.0217	-26.1854	18.4432	-13.6956	-10.8466	-42.7673	356.471	0
0.7933	203.324	111.143	-8.9313	-38.711	18.1227	-14.6146	-11.7593	-37.2751	196.872	0.321296
0.7940	281.748	130.063	-1.3037	-38.4031	16.2981	-12.1838	-10.8466	-30.8825	-143.083	0.321296
0.7947	169.74	136.808	2.3739	-29.5558	14.7694	-8.21143	-8.71382	-22.9368	-413.189	0
0.7953	52.5923	141.347	1.75124	-8.18295	12.6489	-3.94267	-5.35126	-17.152	-530.362	0
0.7960	51.6618	127.942	1.45936	22.9447	8.35863	0.948613	-3.21844	-12.8752	-466.876	0
0.7967	114.533	68.425	2.06257	25.3914	6.82991	4.59485	-1.38345	-7.99074	-262.126	0
0.7973	102.615	3.4361	-0.369705	1.87965	10.2079	2.75691	-3.8237	-4.32175	-27.7277	0
0.7980	7.0891	-23.7557	-1.9069	48.887	16.9145	-1.80829	-7.79152	-0.967892	73.5871	0
0.7987	-89.3227	-31.6884	2.06257	175.828	25.4457	-3.0237	-6.87882	0.855347	69.9507	0
0.7993	-164.113	-41.7422	7.54977	253.347	28.5032	-2.10474	-5.35126	-4.32175	100.153	0.321296
0.8000	-215.066	-18.241	10.6047	234.421	26.9744	-3.32015	-8.09895	-9.81398	144.093	-0.321296
0.8007	-245.593	72.7095	9.69017	216.727	27.8867	-6.07705	-11.1541	-7.38299	155.962	-1.28518
0.8013	-163.492	94.0472	4.20296	157.518	30.3278	-2.43082	-10.8466	-0.0450183	96.7693	-0.321296
0.8020	55.3393	-20.0651	-0.0778327	-37.4795	34.2975	4.2984	-8.40638	7.87819	22.3236	0.321296
0.8027	194.773	-70.1218	0.544829	-150.096	38.5878	6.13634	-6.27356	13.9782	49.7988	0
0.8033	159.062	-39.6212	1.45936	-65.5608	38.8836	4.2984	-7.18626	16.7243	140.709	0
0.8040	-0.531683	-53.9594	-0.992367	15.0048	37.9713	3.08299	-8.71382	17.0394	242.984	0
0.8047	-219.939	-107.028	-5.25371	19.5905	38.2672	0.948613	-9.62651	15.5088	317.733	0
0.8053	-293.179	-122.003	-7.70543	9.51166	37.3549	-2.10474	-11.1541	15.8239	292.379	0
0.8060	-150.378	-18.538	-5.25371	7.9885	40.4123	0.326086	-9.01164	22.8243	170.003	0
0.8067	-41.7371	46.154	2.06257	12.8659	46.2067	4.2984	-5.05344	32.9083	48.8897	0.321296
0.8073	-126.585	-49.9719	9.37884	20.19	46.5026	4.00196	-5.35126	39.0083	34.8491	0.321296
0.8080	-241.295	-122.3	17.3178	19.8983	45.9108	0.622527	-7.18626	42.0696	105.608	0
0.8087	-240.409	-66.4736	26.4826	8.91212	47.4395	-2.43082	-6.57139	44.5005	188.336	0
0.8093	-83.5185	30.5855	34.7134	26.2989	51.0887	-2.10474	-4.746	42.0696	265.56	0
0.8100	225.921	65.3707	38.3715	56.8107	54.7626	1.86758	-2.91101	37.1851	317.43	0
0.8107	430.397	50.0991	32.573	51.3176	50.7928	4.2984	-1.69088	29.5545	229.246	0
0.8113	343.999	75.7638	21.8904	22.9447	43.1492	7.05531	0.441936	10.9394	-62.5263	-0.321296
0.8120	156.935	105.034	13.3483	-12.4608	34.618	14.9703	4.71718	-10.7369	-376.218	0
0.8127	6.77895	63.5466	6.63524	-35.9564	24.5334	19.8616	8.37756	-26.2907	-512.332	-0.321296
0.8133	-95.437	20.1924	1.14803	-11.5371	20.2678	14.9703	11.1252	-37.9054	-461.977	-1.60648
0.8140	-112.54	20.1924	-3.13277	40.3314	21.5007	10.7015	13.2581	-48.5747	-326.521	-1.60648
0.8147	-100.311	10.1386	-9.84583	73.5979	20.5637	8.27072	11.7401	-58.9514	-168.134	0
0.8153	-97.2536	-17.9441	-15.333	115.404	19.6514	0.326086	8.37756	-66.582	-6.36374	0.321296
0.8160	-80.5056	-33.5125	-17.7653	122.128	21.1801	-8.83396	4.40975	-73.8975	81.2135	0
0.8167	-49.3579	-38.6879	-18.9912	3.71068	22.413	-11.5612	3.18962	-81.5281	25.96	0
0.8173	-13.3364	-46.0267	-20.8202	-107.059	20.2678	-7.61855	6.24474	-82.1358	-75.0518	0
0.8180	20.8242	-50.2688	-21.4429	-71.9613	16.0022	0.622527	10.5104	-74.5052	-82.9812	0
0.8187	34.8695	-45.6874	-19.6138	-9.70611	13.2407	5.81026	14.1804	-65.0514	-11.2628	0.321296
0.8193	-20.3812	-37.4577	-17.4734	-8.49082	13.8571	4.92093	15.7079	-56.5204	58.3343	0
0.8200	-105.495	-29.525	-14.4185	-13.0765	16.0022	4.00196	14.7856	-47.0441	116.315	-0.321296
0.8207	-138.769	-24.3496	-10.1377	-40.8337	17.8268	1.24505	14.7856	-38.198	196.872	0
0.8213	-137.263	-23.4164	-8.61997	-100.043	16.9145	-11.2648	16.9281	-30.5674	269.196	0
0.8220	-119.54	-24.6466	-8.30864	-130.263	12.9448	-20.7213	19.0609	-24.1523	238.691	0
0.8227	-61.2764	-34.1064	-4.0473	-122.939	7.44633	-17.6679	22.116	-17.4446	120.911	0
0.8233	32.4326	-45.6874	1.45936	-111.029	3.4766	-11.2648	26.9965	-9.52136	19.2427	0
0.8240	164.246	-41.4453	6.63524	-114.999	2.26842	-1.51185	34.0098	-1.89077	-119.598	0
0.8247	295.173	-20.3621	10.6047	-74.1002	-0.493134	10.7015	42.5603	3.60146	-321.318	0
0.8253	264.379	-8.78113	9.08696	20.4979	-9.02436	13.7549	45.9133	5.13208	-393.037	0.321296
0.8260	91.3165	-43.5663	3.28843	80.0146	-14.2269	5.81026	43.1656	5.13208	-302.682	0
0.8267	-42.6232	-91.502	-2.82143	104.126	-11.4654	-2.10474	38.5925	5.44721	-161.114	-0.321296
0.8273	-99.4247	-109.785	-8.01677	150.501	-7.81618	-3.32015	35.8448	3.30884	8.88904	0
0.8280	-114.976	-130.869	-11.0522	216.727	-4.75875	-1.18577	36.4597	4.20921	91.2641	0.321296
0.8287	-110.679	-150.382	-12.2781	191.092	-5.67104	0.0296442	37.9776	8.48594	51.011	0.321296
0.8293	-96.9435	-118.948	-11.9668	58.0422	-12.3777	0.948613	40.1201	11.2321	31.4652	0
0.8300	-82.6324	-24.9435	-8.61997	-7.27553	-18.4925	5.51381	41.3402	11.2321	64.7486	0
0.8307	-81.3918	44.0329	-5.87637	26.6067	-23.0787	11.917	39.1978	5.73983	71.7689	0
0.8313	-105.495	46.7479	-6.47957	40.0397	-29.1689	13.1324	37.0649	-0.0450183	-12.778	0
0.8320	-108.862	53.7897	-7.3941	23.2525	-34.9632	7.64819	35.5374	0.562728	-116.214	0
0.8327	-44.7943	58.9651	-6.16824	10.7432	-40.7575	3.67588	33.4046	5.13208	-83.5872	0
0.8333	21.4445	41.2756	-3.73597	-0.858804	-47.1683	5.21737	30.3494	9.40881	20.8084	0.321296
0.8340	42.1802	35.167	-3.13277	-16.1228	-52.6667	7.64819	29.7442	12.1549	64.4455	0.321296
0.8347	43.1106	44.0329	-1.59557	-67.084	-57.5488	7.94464	29.7442	11.8398	71.1628	0
0.8353	21.7547	50.0991	2.66577	-152.235	-51.4586	8.27072	27.3039	10.0166	50.4049	-0.321296
0.8360	-29.5084	52.5595	6.34336	-186.101	-29.4648	7.35175	26.6891	8.48594	-13.9901	-0.321296
0.8367	-68.2769	38.8152	6.94657	-124.462	-12.0818	6.43278	26.0838	5.44721	-63.4354	0
0.8373	-52.4151	-2.67252	6.34336	-49.0815	-13.29	8.27072	21.5011	1.17047	-71.9709	0.321296
0.8380	-8.15247	-27.9978	5.42883	-29.248	-26.432	8.56716	18.1482	-3.10626	-93.3349	0
0.8387	7.7094	-10.3083	4.80617	-35.9564	-36.7878	10.4051	18.1482	-5.53724	-134.851	0
0.8393	-16.3936	8.01756	5.1175	-41.4495	-49.0175	17.7272	19.9736	-4.9295	-130.558	0
0.8400	-40.8066	-16.12	4.20296	-36.88	-71.899	26.8873	19.3683	-4.32175	-61.6172	0
0.8407	-50.2883	-80.8119	1.14803	-22.8312	-90.1943	39.1007	16.0058	-3.71401	1.26265	-0.321296
0.8413	-78.0244	-119.245	-4.96183	-3.90513	-90.8107	45.5038	15.4005	-4.9295	16.8185	0
0.8420	-103.988	-100.029	-11.0522	17.4516	-81.0466	40.3161	13.8729	-8.28336	1.56568	0.321296
0.8427	-79.8853	-51.499	-10.449	33.0073	-74.9564	36.6402	14.7856	-9.52136	3.08086	0
0.8433	-38.6799	38.8152	-7.10223	40.6393	-83.4876	40.3161	19.6661	-10.7369	73.5871	0
0.8440	-12.4502	101.386	-9.22317	36.0698	-110.043	41.5315	16.3132	-14.6985	186.215	-0.963889
0.8447	10.1463	55.9108	-13.504	26.6067	-126.514	43.9623	9.59769	-14.4058	294.853	-1.60648
0.8453	22.6851	-6.66009	-17.1621	38.8082	-126.218	54.9603	8.68499	-9.20623	378.441	-0.321296
0.8460	19.3178	-20.0651	-22.6493	63.8432	-116.75	61.9859	6.55218	-4.9295	354.955	0.321296
0.8467	1.01906	-19.1743	-24.1865	70.5516	-67.0169	61.067	4.40975	0.855347	188.033	0
0.8473	-28.6223	-17.3077	-19.3025	51.6255	-8.11206	50.3654	11.4327	6.05496	4.293	0
0.8480	-79.265	-13.6595	-13.504	28.4378	6.53403	25.3458	17.2259	8.48594	-94.8501	-0.321296
0.8487	-175.677	-9.07808	-5.25371	23.2525	3.18072	0.326086	13.5655	10.9394	-89.6985	0
0.8493	-315.775	-4.79357	3.89163	27.822	-2.93415	-14.0217	8.37756	12.7627	-22.8287	0
0.8500	-425.922	-2.07863	10.916	22.021	-14.8187	-14.3181	3.80449	14.5859	-10.9598	-0.321296
0.8507	-367.038	1.612	16.0919	9.51166	-20.6377	4.2984	-1.08562	18.8626	-87.8297	0
0.8513	-171.113	4.02999	18.2323	13.4816	-23.6704	42.4504	-4.13114	22.5316	-126.921	0
0.8520	-32.2554	6.19346	21.2872	45.5328	-22.1417	88.221	-5.6587	25.5704	-81.4155	0
0.8527	58.9725	10.7325	25.2567	61.3964	-6.90388	126.373	-5.6587	29.8471	-47.8796	-0.321296
0.8533	243.599	16.5442	28.3116	-3.30559	6.82991	164.822	-1.69088	33.5161	-13.3841	0
0.8540	427.96	21.4226	31.9698	-114.075	8.06274	202.648	8.37756	36.5773	54.9504	0
0.8547	461.19	19.0046	29.8294	-187.624	6.23815	218.833	14.7856	34.439	20.5054	-0.321296
0.8553	382.147	8.9084	20.3727	-194.349	1.94788	219.456	14.1804	28.6316	-208.387	-0.321296
0.8560	277.804	-1.78168	9.37884	-130.862	-10.5531	210.296	13.8729	22.8243	-410.108	-0.321296
0.8567	179.221	-10.6052	-2.5101	-67.6997	-20.6377	179.466	13.5655	17.0394	-367.38	0
0.8573	84.0059	-17.9441	-12.5894	-89.3643	-25.1992	137.341	12.9602	14.5859	-223.64	0.321296
0.8580	-39.3002	-25.8768	-21.4429	-118.045	-33.755	107.46	11.4327	11.5472	-142.174	0
0.8587	-194.906	-33.5125	-29.0705	-66.7761	-37.7248	87.3021	5.62988	6.6627	-90.6076	0
0.8593	-289.235	-34.4034	-29.6737	-21.3081	-27.9607	53.7449	-0.470757	6.05496	-26.5156	0
0.8600	-295.616	-30.7552	-26.3269	-19.1692	-16.6679	0.622527	-4.746	5.13208	30.5561	-0.321296
0.8607	-261.455	-25.8768	-20.217	-0.858804	-17.2597	-45.4445	-2.91101	3.30884	80.6074	0
0.8613	-170.803	-16.7139	-8.61997	31.1762	-23.991	-75.6519	6.55218	6.05496	140.406	-0.321296
0.8620	-67.3465	-3.30883	5.42883	40.6393	-22.4623	-91.8376	10.5104	12.7627	194.751	0
0.8627	-33.8062	9.84166	18.855	29.9609	-9.02436	-114.723	8.37756	22.5316	222.529	0
0.8633	-23.1282	16.8411	26.1712	29.3452	3.18072	-162.628	5.32244	30.1622	203.589	-0.321296
0.8640	136.199	20.5317	29.8294	46.7481	5.91761	-161.709	1.36424	36.2622	161.164	-0.321296
0.8647	452.373	22.6528	31.3666	58.3501	6.23815	-78.7053	2.58436	42.0696	132.174	0
0.8653	573.198	14.4231	20.9759	55.2876	4.70943	12.5395	2.88219	37.4777	140.406	-0.321296
0.8660	371.779	-1.14537	2.06257	55.5954	8.67916	62.9049	0.134502	27.7087	177.629	0
0.8667	159.062	-11.8354	-11.3636	58.0422	14.153	81.1954	-0.163324	20.0781	156.619	0.321296
0.8673	55.9153	-13.6595	-13.504	56.8107	5.00531	82.4108	-2.30575	13.3704	64.7486	0
0.8680	-38.3698	-10.0113	-7.10223	62.6117	-5.37516	81.8179	-5.05344	10.0166	-23.1317	0
0.8687	-85.9554	-6.32072	-1.59557	68.1048	28.5032	90.059	-7.79152	4.83946	-2.42428	0
0.8693	-23.394	-5.42988	2.3739	67.1974	110.289	103.488	-6.87882	-6.1675	130.053	0
0.8700	-10.8995	-7.55093	5.1175	66.2738	184.457	123.023	0.749369	-15.3062	177.983	0.321296
0.8707	-108.862	-8.48419	8.4643	62.6117	245.482	137.341	8.37756	-18.9752	83.3347	0.321296
0.8713	-171.734	-3.90273	15.8	38.2087	282.418	130.642	14.4782	-17.152	-59.7485	0
0.8720	-186.399	-2.37557	15.8	-6.96766	259.832	91.5708	15.7079	-12.5601	-235.256	0
0.8727	-159.239	-0.551472	12.1419	-48.1579	211.308	20.4841	9.29025	-10.1291	-388.441	0
0.8733	36.9963	7.67819	12.1419	-78.6859	156.077	-86.3534	1.0568	-9.52136	-391.522	-1.60648
0.8740	334.251	9.84166	8.4643	-95.7648	85.8793	-215.424	-11.1541	-11.9523	-268.186	-1.60648
0.8747	423.042	4.02999	1.45936	-90.8874	31.2647	-332.015	-24.2776	-18.3674	-120.204	0
0.8753	321.136	-2.67252	-4.6505	-64.6372	-7.49564	-392.726	-31.5984	-23.2519	28.1318	0.321296
0.8760	253.081	-8.18724	-8.01677	-30.4632	-47.1683	-367.113	-35.2588	-19.2903	139.194	-0.321296
0.8767	198.14	-10.3083	-5.56504	-7.5672	-74.6359	-295.701	-35.2588	-7.06787	200.256	-0.321296
0.8773	124.901	-13.0656	-3.42464	-2.99771	-91.1312	-217.559	-33.7312	-4.63688	229.246	-0.321296
0.8780	104.166	-12.7687	-1.59557	-13.6761	-96.0132	-144.634	-30.3783	-12.8752	165.457	-0.321296
0.8787	95.9244	-2.07863	5.7207	-29.5558	-83.8082	-97.6182	-21.8374	-15.6213	-1.16164	-0.321296
0.8793	48.2945	10.1386	14.8855	-28.9401	-50.8421	-77.4898	-13.9018	-15.6213	-100.658	0
0.8800	8.63984	9.20534	17.0259	-7.5672	-7.49564	-66.8179	-9.62651	-13.1678	-88.7894	0
0.8807	-52.7252	-2.37557	9.69017	0.972231	12.0325	-49.4168	-8.40638	-9.52136	-126.012	0
0.8813	-190.342	-12.7687	1.45936	-13.0765	10.5038	-35.988	-5.05344	-11.3446	-200.458	0.321296
0.8820	-326.143	-14.5928	0.233498	-25.8938	13.2407	-47.2824	3.49706	-14.4058	-205.963	0
0.8827	-319.763	-8.78113	2.06257	-35.9564	11.4161	-63.1421	7.15743	-14.0907	-137.578	0
0.8833	-153.435	-0.551472	4.49484	-46.0352	-4.75875	-49.7133	7.7723	-6.77525	-34.445	0
0.8840	15.9505	2.20589	5.42883	-50.6046	-33.4345	-0.592883	9.59769	-0.652765	43.9906	-0.321296
0.8847	39.4331	-0.551472	1.14803	-49.6972	-61.2226	61.3634	9.90512	-3.10626	74.1932	0
0.8853	-18.5203	-3.60578	-3.73597	-48.1579	-65.4882	100.731	11.1252	-8.28336	68.9911	0.321296
0.8860	-53.3012	-8.48419	-12.2781	-46.3268	-62.1349	131.264	5.32244	-20.1907	22.0206	0
0.8867	-127.471	-13.9565	-20.8202	-42.9726	-67.9292	153.231	-8.09895	-32.098	-38.435	0
0.8873	-212.629	-13.3626	-20.5284	-50.2968	-69.7538	133.073	-19.695	-31.7829	-59.7485	0.321296
0.8880	-251.707	-12.1324	-19.9057	-65.8687	-63.9595	108.972	-24.2776	-24.1523	-94.244	0.321296
0.8887	-297.166	-11.5385	-18.388	-60.0677	-55.4036	105	-17.8696	-10.7369	-150.104	0
0.8893	-244.042	-6.32072	-9.22317	-29.248	-53.579	56.1757	-12.0668	5.44721	-90.6076	0
0.8900	-61.5423	1.612	1.45936	8.29637	-53.579	-7.29246	-7.49369	18.57	67.1728	0.321296
0.8907	16.2606	11.0719	10.916	39.1161	-40.7575	-7.29246	7.46487	35.3393	157.831	0
0.8913	-62.7829	17.1381	18.2323	47.3639	-33.4345	5.51381	23.9414	50.6005	144.396	-0.321296
0.8920	-118.92	18.3683	21.2872	34.2387	-27.0238	-15.8596	31.877	53.3466	52.5261	-0.321296
0.8927	-150.378	11.6658	13.971	18.9747	-16.6679	-50.3358	31.877	51.5234	-54.2938	-0.321296
0.8933	-242.226	1.27263	-0.369705	10.4353	-2.93415	-64.98	29.4368	50.3079	-91.8197	-0.321296
0.8940	-354.854	4.02999	0.544829	4.01856	47.4395	-49.7133	30.6569	45.1083	-93.941	-0.321296
0.8947	-381.704	20.5317	17.0259	-6.04404	98.0844	-72.9246	28.8219	38.6932	-95.7592	0
0.8953	-245.283	39.4515	35.336	-11.2455	117.317	-142.173	21.1937	42.3622	-60.405	0
0.8960	-45.1044	50.4385	48.1395	-6.04404	125.256	-194.673	12.3454	46.3238	5.55565	0
0.8967	147.498	47.6811	48.7622	-2.07409	108.465	-209.021	2.58436	37.7928	41.2633	-0.321296
0.8973	354.677	39.4515	45.9991	-3.90513	90.4655	-147.687	2.27693	32.9083	35.1521	0
0.8980	478.293	33.6398	43.2555	-6.65978	83.7342	-17.994	-3.52588	29.8471	36.6673	0
0.8987	462.121	26.004	35.0247	-7.27553	66.0553	102.569	-24.5755	21.3161	49.4958	0
0.8993	358.974	15.017	23.4276	-2.07409	52.001	133.992	-32.8185	26.4932	51.9201	0
