MR32 ASCII
Name	TYR15_slow
Frequency	1500
Date	05-09-2015 13:42:34
"Time,s"	"RT TIB.ANT.,uV"	"RT MED. GASTRO,uV"	"RT LAT. GASTRO,uV"	"RT BICEPS FEM.,uV"	"RT VMO,uV"	"RT VLO,uV"	"RT RECTUS FEM.,uV"	"RT SOLEUS,uV"	"RT SEMITEND.,uV"	"Channel 12,uV"
0.0000	9.87473	9.53399	6.40722	54.6022	9.65679	-60.0178	-1.88883	7.59029	89.1001	-10137.7
0.0007	9.87473	8.35404	5.78403	53.3783	12.0899	-28.2636	-3.1087	11.5693	124.789	-10026.1
0.0013	5.31997	7.1269	4.86871	34.4627	12.0899	-19.7312	-4.02688	13.3917	62.5307	-9571.03
0.0020	1.63972	7.1269	1.20744	2.41755	8.13044	-18.2041	-5.85668	17.0531	-45.1898	-9909.25
0.0027	1.02027	11.3747	-1.85011	-2.16467	7.51083	-19.1252	-5.54844	23.4731	-119.644	-9808.56
0.0033	-0.801639	10.478	-6.4267	29.2736	9.03718	-21.2583	-2.49876	23.774	-99.1997	-9798.9
0.0040	-4.15395	1.32154	-9.17265	55.5126	7.51083	-23.0763	-0.360714	14.0103	44.237	-9815.42
0.0047	-5.97585	-0.519178	-3.68075	50.02	5.98449	-23.3914	1.77734	2.40749	199.271	-9815.42
0.0053	-6.88681	3.44545	0.292123	46.0548	5.98449	-20.0463	1.46909	-13.4586	241.384	-9799.83
0.0060	-9.03666	1.32154	-3.97287	65.8908	2.93179	-15.1499	-2.80045	-35.126	179.126	-9806.07
0.0067	-12.0975	-3.25666	-8.54946	68.6422	-1.32989	-12.0957	-6.46662	-47.0297	3.02173	-9912.99
0.0073	-13.6279	-2.97347	-9.17265	7.91014	-2.55399	-11.4897	-4.63682	-43.9702	-249.66	-9581.63
0.0080	-15.1218	3.16227	-7.03042	-63.5036	-5.30443	-14.5439	-0.668961	-33.9055	-363.478	-9994.97
0.0087	-15.7413	9.53399	-5.19978	-59.8419	-9.88347	-15.7559	2.07902	-21.0823	-252.083	-10214.1
0.0093	-13.0084	11.0915	-4.28447	-33.2893	-7.13303	-9.96256	2.99721	-10.7167	-56.7867	-5014.94
0.0100	-9.6561	8.96762	-3.68075	-16.2047	-1.64725	-6.90834	3.90883	-6.13577	83.9006	110.972
0.0107	-8.41721	5.56936	-3.68075	54.9057	-0.423146	-6.30235	5.43694	-0.635311	167.529	110.972
0.0113	-9.03666	1.60473	-3.36915	138.832	1.40545	7.7325	8.18493	4.54749	223.662	-241.894
0.0120	-4.15395	2.83188	2.74595	120.21	4.7755	26.6638	11.5428	3.9289	256.33	96.0096
0.0127	6.85037	3.16227	12.8144	-21.6972	7.81308	15.368	12.1528	7.28936	271.275	-4.98751
0.0133	13.555	-5.09738	15.5604	-153.226	14.5381	-9.64744	12.4545	27.7363	211.466	-14.6508
0.0140	12.9355	-6.60772	12.1913	-160.55	20.3261	-6.30235	11.8445	50.3233	1.82393	1.87032
0.0147	9.87473	0.094396	7.61467	-114.161	19.7216	17.5011	6.65681	61.0066	-258.507	-0.623439
0.0153	6.52242	2.21831	-0.0194748	-91.8871	16.0644	43.4377	1.1674	59.1675	-355.556	-0.311719
0.0160	6.23092	4.38941	-5.8035	-68.0757	13.9185	67.5563	-1.58058	38.1186	-244.46	-0.311719
0.0167	5.90298	9.86438	-2.14223	-35.7271	12.7095	69.6894	-2.49876	2.10656	-64.1096	-0.311719
0.0173	-1.09314	16.5665	3.34967	-18.6424	11.4854	40.3835	-4.02688	-28.7227	61.6323	-0.311719
0.0180	-14.2109	23.599	-1.53851	-13.7568	8.13044	15.368	-5.54844	-39.406	118.991	-0.311719
0.0187	-24.5957	15.3393	-10.088	-14.6773	1.72281	9.8656	-4.32857	-32.0665	143.709	-0.311719
0.0193	-27.0371	-10.5723	-14.6646	-24.7419	-5.60668	9.57472	-2.19052	-14.679	84.5267	-0.311719
0.0200	-26.4176	-27.3748	-15.2683	-35.1202	-11.1076	9.57472	-1.58058	1.80562	-55.8611	0
0.0207	-20.3325	-20.3423	-6.4267	-34.8167	-12.3166	8.33849	-0.668961	7.59029	-93.7007	0
0.0213	-7.50625	-2.97347	14.0219	-31.155	-12.6188	3.46629	1.46909	-2.47437	-0.0272228	0
0.0220	1.34821	2.83188	21.0523	-35.1202	-12.6188	-5.98723	2.07902	-15.5986	68.6558	-0.935158
0.0227	2.55067	-2.3599	1.83064	-44.578	-10.7902	-16.677	3.29889	-1.55484	32.6401	-1.24688
0.0233	4.99202	-3.58705	-7.63414	-54.3493	-7.73752	-12.7017	4.82701	36.8982	-140.714	-0.311719
0.0240	2.55067	-0.188792	5.18031	-59.5385	-5.90893	7.44162	1.46909	61.0066	-331.437	0.311719
0.0247	-3.5345	3.16227	13.7298	-59.235	-7.73752	26.3487	-4.9385	42.081	-365.003	0
0.0253	-2.33204	-4.767	14.9372	-57.7076	-6.21117	32.7722	-7.07655	-3.69483	-293.897	0
0.0260	0.728763	-13.0266	10.0685	-53.1254	-5.30443	27.5607	-5.85668	-32.6851	-178.554	0.311719
0.0267	4.08107	-1.74633	-2.14223	-42.1402	-11.1076	19.0282	-4.32857	-15.8995	-25.0449	0
0.0273	10.2027	11.0915	-8.54946	-32.0654	-14.7648	11.1018	-3.1087	5.76795	46.9865	-0.311719
0.0280	13.555	12.9322	-4.59606	-28.1002	-12.3166	3.46629	-2.49876	-21.7009	51.8594	0
0.0287	12.9355	18.0768	-2.14223	-17.7219	-14.4625	-1.43015	-4.02688	-67.7776	138.237	0
0.0293	12.3161	26.6669	-2.14223	-0.637262	-16.2911	0.727194	-5.85668	-75.1004	237.709	0
0.0300	12.3161	22.3718	-2.76543	11.2684	-13.5407	7.44162	-3.71863	-42.4488	265.476	0
0.0307	10.7857	14.4426	-10.3801	27.4427	-14.7648	9.57472	-2.80045	-3.69483	287.146	0.311719
0.0313	11.1136	15.3393	-18.618	32.9353	-18.1197	8.33849	-4.32857	29.5754	191.948	0
0.0320	13.555	15.3393	-14.9567	20.4227	-17.5152	9.57472	-3.71863	42.6996	-77.8299	0
0.0327	14.7574	15.9529	-3.36915	27.1393	-16.2911	11.3927	-2.49876	38.4196	-295.421	0.311719
0.0333	14.4659	22.655	7.61467	50.637	-15.9889	12.3138	-2.49876	40.2586	-317.091	0
0.0340	11.7331	27.5636	12.1913	60.7017	-14.4625	13.2349	-0.0590259	41.78	-210.895	0
0.0347	6.85037	30.9147	14.0219	56.1296	-15.3693	11.9987	2.68896	30.4782	-109.572	0
0.0353	4.70052	42.195	16.1641	39.0348	-19.9483	8.65361	1.46909	3.02609	-61.6596	0
0.0360	4.70052	50.1243	15.5604	21.0296	-21.1724	7.7325	0.249221	-26.8837	-8.57517	0
0.0367	2.25916	33.9826	11.5875	21.3331	-20.8701	8.04762	0.550909	-32.0665	59.1823	0
0.0373	-1.71259	-4.767	9.4453	27.4427	-23.6055	6.20539	-0.360714	-10.7167	93.3741	0
0.0380	-2.91505	-56.3544	10.6722	25.3084	-22.0942	5.91451	-0.360714	31.0968	105.869	0
0.0387	-4.77339	-81.0861	1.51904	19.1988	-20.5679	6.81139	-0.360714	71.3722	113.818	0
0.0393	-8.1257	-50.549	-16.4952	12.4822	-23.9228	4.07229	-1.88883	76.2707	41.188	0
0.0400	-0.801639	-20.6727	-22.5908	0.586685	-24.8296	0.727194	-2.19052	62.227	-104.399	0
0.0407	14.7574	-20.6727	-18.9296	-15.8911	-24.8296	-0.509036	-1.88883	65.2698	-169.081	0
0.0413	22.4094	-17.6048	-12.5223	-15.8911	-27.2778	-2.93302	-2.49876	74.1307	-123.02	0
0.0420	19.9681	-8.44844	-5.19978	-6.12985	-26.9755	-2.93302	-2.49876	68.6303	-43.9648	0
0.0427	18.1097	-5.71096	-5.8035	-11.9259	-23.6055	1.62407	-1.2789	55.2052	35.3896	0
0.0433	18.4377	0.094396	-12.8339	-15.5876	-23.6055	3.15117	-2.49876	41.4791	86.3506	0
0.0440	19.0571	14.4426	-12.2107	-4.29899	-25.4492	1.93918	-3.71863	32.3173	79.6266	0.311719
0.0447	16.2878	23.599	0.915318	10.3479	-24.2251	3.46629	-1.88883	7.90795	30.19	0.311719
0.0453	8.05283	26.0533	14.0219	22.8605	-25.1318	5.28428	-2.49876	-53.7339	-26.27	0.311719
0.0460	-0.182191	17.1801	15.5604	16.4575	-24.8296	5.28428	-4.02688	-115.075	-78.7554	0
0.0467	-3.86244	-0.802366	9.15318	-8.56763	-21.1724	3.75717	-3.1087	-134.92	-83.3289	0
0.0473	-4.15395	-2.3599	5.49191	-11.319	-20.5679	-1.11503	-0.360714	-108.672	18.5931	0.311719
0.0480	-4.15395	9.86438	6.69935	21.3331	-20.8701	-10.5686	1.77734	-54.3525	146.758	0
0.0487	-4.44545	1.93512	1.83064	33.8457	-20.5679	-16.677	0.859155	5.14936	169.353	0
0.0493	-4.77339	-28.8852	-9.17265	3.02446	-21.4746	-10.2777	-0.0590259	57.947	118.691	0
0.0500	-4.77339	-40.4959	-26.5637	-9.79158	-20.5679	1.62407	2.07902	93.3573	85.7245	0
0.0507	-1.09314	-18.5016	-47.3044	27.7462	-19.0416	9.57472	4.21707	94.2601	17.6676	0.311719
0.0513	7.76132	4.6726	-47.0123	59.1743	-20.5679	13.5258	5.1287	52.7642	-119.045	-0.311719
0.0520	16.2878	17.7936	-20.4486	48.8062	-18.4219	12.9198	3.60714	-10.0981	-186.476	-0.935158
0.0527	19.0571	17.5105	3.03808	36.597	-9.26387	14.4469	3.60714	-68.3962	-112.321	-0.623439
0.0533	15.6684	0.991158	11.2759	31.7114	-2.25174	23.0036	5.73863	-98.9079	-17.722	0.311719
0.0540	10.2027	-6.60772	13.1066	-4.9059	1.1032	31.8511	6.04688	-103.489	-4.9001	0
0.0547	7.14187	1.93512	12.1913	-42.7471	3.24915	37.3293	5.43694	-103.188	-28.3933	-0.311719
0.0553	8.05283	8.35404	10.9838	-33.2893	0.800954	40.6986	4.21707	-94.9455	-30.2445	0
0.0560	9.29172	10.1476	12.5029	-2.16467	-5.90893	43.1469	2.99721	-67.7776	-19.8454	0.311719
0.0567	7.43338	14.7258	13.1066	23.164	-11.4098	31.8511	2.38727	-35.7446	-0.626124	0
0.0573	4.70052	19.304	9.7569	42.3931	-12.9362	4.67828	1.1674	-12.8567	40.2625	0
0.0580	1.96766	15.0562	4.26499	42.6965	-12.6188	-19.7312	0.249221	6.36983	86.3506	0
0.0587	-0.801639	6.51332	1.51904	24.3879	-12.9362	-33.1601	-0.0590259	30.7959	96.423	0.311719
0.0593	-1.42109	-1.74633	1.51904	8.51705	-12.9362	-31.9481	0.859155	44.221	80.8516	0.311719
0.0600	-2.91505	-12.4131	-0.311598	-6.43331	-8.96162	-22.7854	6.35513	28.0373	59.4817	0.311719
0.0607	-5.68435	-18.2184	-6.71882	-18.9459	-4.68483	-15.465	12.1528	12.1712	24.9905	0
0.0613	-6.3038	-12.7435	-8.54946	-23.8316	-2.25174	-8.75057	11.5428	6.36983	1.82393	0
0.0620	-4.15395	1.32154	2.74595	-25.9659	-0.120899	-5.09036	6.96506	-18.6414	-16.1975	0
0.0627	-1.42109	9.86438	4.86871	-12.5429	-1.02764	-9.64744	4.21707	-44.5888	-17.4226	0.311719
0.0633	0.728763	7.41008	-9.17265	2.72101	-1.94949	-17.283	2.99721	-47.3307	30.19	0
0.0640	2.25916	4.05903	-5.8035	-16.5081	0.498707	-18.2041	2.68896	-42.4488	71.3781	0
0.0647	4.99202	-6.32453	14.3335	-26.5728	1.40545	-12.0957	2.68896	-29.3246	73.2292	0.311719
0.0653	8.34433	-17.6048	18.9101	17.6714	-0.120899	-1.72103	0.550909	-8.87763	46.3604	0
0.0660	12.0246	-13.3098	14.3335	48.8062	1.72281	5.91451	-0.970649	3.9289	-7.35015	0
0.0667	15.3769	-2.3599	11.5875	16.761	5.98449	4.3874	-0.360714	7.90795	-39.3913	0.311719
0.0673	15.6684	-2.3599	8.84158	-20.4733	5.68224	-1.11503	-0.0590259	17.9726	-49.1643	0
0.0680	12.0246	-18.5016	9.15318	-15.2842	6.60409	-3.24813	-0.668961	30.7959	-89.7534	0
0.0687	8.05283	-32.8498	5.78403	9.741	8.13044	-2.93302	-0.668961	21.634	-163.908	0
0.0693	5.90298	-31.3395	0.292123	26.5222	4.7755	-1.43015	-1.88883	11.2684	-173.055	0
0.0700	7.76132	-23.6934	9.7569	22.2536	3.85365	2.8603	-0.668961	11.2684	-58.9101	0
0.0707	17.5267	-13.3098	21.656	5.15879	7.81308	4.3874	2.99721	3.62796	26.8416	0
0.0713	25.4338	0.70797	19.2217	-0.637262	7.51083	1.01807	1.77734	-11.0176	28.6656	0
0.0720	22.0815	14.1122	14.6451	-12.5429	7.51083	1.62407	2.38727	-32.0665	54.6089	0
0.0727	14.7574	31.2451	15.5604	-28.1002	12.0899	5.28428	5.73863	-48.2502	89.699	0
0.0733	13.8465	51.965	14.0219	-6.73677	13.314	3.15117	5.73863	-37.8679	81.1511	0
0.0740	17.1988	66.6436	8.84158	38.1244	12.7095	-6.30235	4.21707	-12.8567	71.3781	0
0.0747	16.2878	70.8914	3.66127	38.7314	15.1426	-15.1499	3.60714	6.98842	78.1021	0
0.0753	10.4942	70.2778	0.915318	-8.56763	14.2358	-16.3619	2.07902	29.8763	56.7322	0
0.0760	4.99202	44.9325	-3.05755	-22.0007	12.7095	-11.8048	2.07902	53.6838	17.0687	0
0.0767	2.25916	-21.8999	-4.59606	-5.52294	16.0644	-6.30235	5.43694	63.4475	7.2957	0
0.0773	0.437258	-97.5582	-0.311598	11.8753	16.6689	-1.43015	8.48662	70.1517	32.9395	0
0.0780	0.437258	-146.078	-0.623195	33.8457	15.4448	1.01807	8.48662	77.1735	61.6323	0
0.0787	2.87861	-192.757	-5.8035	28.6566	18.4975	6.52051	7.87668	79.0126	69.8536	0.311719
0.0793	9.58323	-262.657	-1.22692	2.11409	20.9457	15.974	5.73863	89.0773	65.5796	0.311719
0.0800	15.3769	-296.828	10.3606	-14.3738	20.0239	18.4223	2.99721	94.2601	38.1391	0
0.0807	11.4051	-285.878	12.5029	-17.115	20.3261	12.6289	2.68896	70.4693	27.4405	0
0.0813	4.40901	-248.922	2.74595	-18.339	18.7998	6.81139	3.29889	36.2796	56.1333	0
0.0820	7.43338	-116.154	-0.934793	-34.5133	12.3921	-0.193918	2.68896	16.7521	55.2078	-0.935158
0.0827	19.3486	57.1568	7.61467	-60.7523	11.1831	-2.93302	2.99721	7.90795	84.5267	-0.935158
0.0833	25.7618	112.992	15.2488	-69.6031	14.5381	3.15117	4.82701	-4.9153	174.552	0
0.0840	22.4094	58.1007	13.1066	-56.4837	13.6162	6.52051	4.21707	-18.0395	178.2	0.311719
0.0847	17.1988	45.8764	8.84158	-39.7024	16.0644	6.81139	3.29889	-7.9581	46.0609	0
0.0853	8.05283	110.585	10.0685	-26.8864	18.1953	5.91451	4.21707	11.2684	-112.947	0
0.0860	-3.86244	110.585	11.2759	-16.5081	13.9185	1.93918	2.38727	8.20888	-172.756	0
0.0867	-6.3038	24.8261	10.3606	-10.095	14.2358	3.15117	3.90883	-3.07624	-123.918	0.311719
0.0873	-1.09314	-32.2362	7.92626	-11.0155	16.9712	7.1265	7.87668	-7.35623	-50.9882	0
0.0880	-3.5345	12.9322	1.20744	-13.4533	14.2358	6.20539	6.96506	-8.5767	1.1978	0
0.0887	-11.1865	74.2424	-3.05755	-12.2294	13.0117	3.75717	4.82701	-2.77531	18.5931	0.311719
0.0893	-13.0084	63.8589	-1.53851	-6.12985	15.1426	1.93918	5.43694	-2.17343	83.6011	0
0.0900	-14.2109	73.0153	-3.97287	4.85533	15.4448	0.727194	4.82701	-8.5767	288.371	-0.311719
0.0907	-14.8303	104.78	-8.86106	16.4575	17.2734	3.46629	6.04688	-14.0772	455.301	0.311719
0.0913	-19.0936	63.5757	-10.3801	21.0296	19.4194	7.7325	7.57499	-22.3028	415.011	0.311719
0.0920	-25.8346	8.35404	-8.54946	15.5371	15.7622	5.91451	4.21707	-24.7437	243.807	0
0.0927	-19.4215	38.2304	-5.51138	5.77582	13.9185	6.20539	2.07902	-25.9642	-8.2485	-0.311719
0.0933	12.644	77.5935	-3.97287	8.51705	16.6689	10.7867	4.82701	-28.4051	-291.774	0.311719
0.0940	51.3778	6.79651	-3.36915	23.4775	14.2358	11.9987	5.43694	-17.7385	-408.641	0.311719
0.0947	53.5276	-103.364	5.18031	22.557	11.7876	13.2349	4.21707	5.14936	-287.5	0.311719
0.0953	32.4664	-142.113	14.9372	10.9649	12.3921	15.974	3.29889	17.6717	-119.045	0.311719
0.0960	22.701	-159.199	13.7298	12.7958	11.7876	16.58	2.68896	4.84842	-30.5439	0
0.0967	18.4377	-221.783	15.8525	18.8953	14.2358	16.2892	3.29889	-12.2381	3.02173	0.311719
0.0973	17.1988	-286.161	27.4595	16.761	19.4194	14.4469	5.73863	-14.98	14.3192	0.623439
0.0980	16.6158	-265.111	32.6398	12.1788	18.4975	12.9198	6.35513	-13.4586	28.6656	0.311719
0.0987	10.2027	-231.223	29.2902	6.07928	14.5381	8.96873	5.43694	-1.2539	28.6656	0
0.0993	4.40901	-283.707	15.8525	-11.319	14.5381	-3.56325	6.96506	22.2526	-15.5714	0
0.1000	0.437258	-242.503	-11.607	-39.7024	13.314	-15.465	6.96506	38.1186	-69.2819	0
0.1007	-2.91505	-50.2659	-24.4215	-32.9859	11.1831	-16.9921	3.90883	46.0433	-59.5362	0
0.1013	-1.42109	87.977	-9.77637	17.0645	13.314	-10.8837	3.60714	35.9787	-51.2877	0.311719
0.1020	-0.473696	165.807	-1.85011	46.0548	13.0117	-6.61747	4.82701	-0.0334374	-138.863	0
0.1027	-6.3038	268.651	-6.4267	49.4131	10.2613	-7.82946	2.99721	-36.6474	-177.03	0.311719
0.1033	-16.6522	322.645	-6.1151	61.9257	13.0117	-7.51434	2.99721	-40.3088	-62.5851	0
0.1040	-30.3894	287.247	-4.28447	68.9457	14.2358	-6.30235	3.60714	-15.5986	64.3818	0
0.1047	-45.657	213.712	-14.0414	56.7365	11.7876	-6.30235	2.68896	-0.0334374	102.82	0.311719
0.1053	-52.0701	119.411	-37.8591	41.7862	12.7095	-5.09036	2.68896	7.90795	92.4485	0.311719
0.1060	-49.9202	8.35404	-52.5042	56.1296	14.2358	-5.09036	2.38727	19.494	64.3818	-0.311719
0.1067	-46.8594	-67.9651	-41.8125	78.7069	14.2358	-4.16925	1.77734	17.6717	-11.9236	0
0.1073	-38.6244	-21.2863	-27.7711	23.4775	16.6689	0.727194	3.90883	-2.77531	-76.006	0.311719
0.1080	-27.0371	69.0507	-19.8449	-66.2449	17.2734	5.5994	6.35513	6.68748	-30.8434	0.311719
0.1087	-16.9802	-3.25666	0.292123	-81.5088	12.7095	6.52051	5.73863	68.6303	35.3896	0.311719
0.1093	-9.6561	-137.865	23.1751	-51.598	11.4854	7.1265	6.04688	87.2549	16.1431	0.311719
0.1100	-7.50625	-177.512	34.7821	-30.5481	12.7095	6.20539	7.26675	56.1247	-23.8199	0
0.1107	-9.94761	-201.63	27.7517	-32.6824	9.95903	4.3874	5.73863	54.6033	-55.2622	0.311719
0.1113	-9.94761	-120.732	17.391	-45.195	8.73493	2.54518	3.60714	34.1563	-58.0117	0
0.1120	-6.88681	97.4638	23.1751	-36.9511	7.81308	-2.64214	2.68896	-24.4427	40.2625	-1.24688
0.1127	-10.8586	177.7	10.6722	-19.2494	5.68224	-2.93302	2.07902	-61.6753	143.41	-0.623439
0.1133	-23.0653	73.0153	-29.3096	-11.0155	7.20859	1.01807	1.77734	-71.74	111.069	0.311719
0.1140	-27.3286	-1.41594	-45.4738	-9.79158	9.95903	0.727194	2.68896	-65.0358	59.4817	0.311719
0.1147	-21.5349	-3.58705	-26.5637	-12.2294	9.33943	-0.509036	1.77734	-47.6316	99.7714	0.311719
0.1153	-22.1544	-16.3777	-11.607	-18.0355	7.51083	-0.193918	0.550909	-53.7339	50.6343	0.311719
0.1160	-29.1869	-55.7408	-11.0033	-24.7419	6.90634	-0.193918	1.1674	-97.3865	-110.497	0
0.1167	-29.1869	-109.452	0.292123	-29.0207	5.68224	-1.43015	-0.360714	-123.635	-176.104	0
0.1173	-18.5106	-134.797	21.656	-32.0654	5.98449	-1.43015	-1.2789	-103.79	-170.006	0.311719
0.1180	-7.79776	-43.8469	32.3477	-26.8864	8.73493	0.0969592	0.550909	-76.6385	-173.355	0.311719
0.1187	-9.32816	91.6585	29.2902	-9.18466	7.81308	0.727194	0.550909	-64.7348	-142.239	0
0.1193	-16.6522	86.7499	16.1641	8.2136	6.30185	1.33319	-0.360714	-61.6753	-100.724	0
0.1200	-19.0936	84.9564	-0.623195	9.741	8.13044	2.2543	0.550909	-46.7288	-79.3543	0
0.1207	-19.713	292.439	-11.607	-0.333804	6.60409	1.01807	1.46909	-2.17343	-27.1683	0
0.1213	-21.5349	446.257	-10.3801	-6.73677	4.45814	-1.11503	0.859155	56.1247	57.0589	0
0.1220	-23.6848	260.391	-6.1151	-10.095	7.81308	-0.799914	2.38727	96.0991	115.343	0
0.1227	-18.5106	-18.5016	-8.54946	-16.2047	9.33943	-0.193918	3.60714	112.584	138.237	0.311719
0.1233	-7.21475	-120.732	-12.2107	-23.2145	7.81308	0.0969592	1.77734	132.111	82.6755	0
0.1240	-4.77339	-185.158	-14.6646	-26.2693	8.73493	1.93918	1.46909	144.015	-77.5304	0
0.1247	-7.50625	-208.945	-16.4952	-18.0355	8.13044	2.2543	1.77734	120.207	-171.531	0.311719
0.1253	0.437258	-121.676	-16.4952	11.2684	5.98449	0.727194	0.550909	66.808	-91.5774	0.311719
0.1260	14.1744	-41.3926	-13.4376	45.1444	6.60409	0.412077	0.249221	-13.4586	27.4405	0.311719
0.1267	22.701	34.5961	-5.19978	60.0948	8.13044	-0.509036	0.550909	-85.7837	97.0219	0.311719
0.1273	23.6119	39.4575	8.52998	64.06	9.03718	-2.03614	-0.0590259	-108.973	126.014	0.311719
0.1280	18.4377	-81.3693	22.5713	53.0748	10.5635	-1.72103	-0.0590259	-97.6874	93.3741	0
0.1287	11.1136	-121.96	32.9514	23.781	10.5635	-1.72103	-0.970649	-91.5851	-13.7475	0
0.1293	5.61147	-22.7966	34.1784	-3.3785	6.60409	-2.32702	-3.41039	-90.0637	-84.5539	0.311719
0.1300	0.728763	59.6111	20.4291	-29.9311	5.37999	-0.799914	-4.02688	-73.2781	-25.6438	0.311719
0.1307	1.34821	67.2099	11.2759	-54.9562	8.43269	3.46629	-1.88883	-58.3148	42.0864	0
0.1313	11.1136	68.1539	20.4291	-34.8167	11.1831	6.20539	-0.970649	-51.9116	35.689	0
0.1320	13.8465	109.971	30.8092	-6.43331	8.73493	5.5994	-2.80045	-44.5888	10.6713	0
0.1327	2.87861	124.603	30.5171	-38.4785	6.30185	4.67828	-3.1087	-32.6851	-7.0507	0
0.1333	-2.33204	66.3132	13.4182	-76.3197	6.60409	3.75717	-2.49876	-16.5181	6.99625	0.311719
0.1340	1.96766	13.2154	-10.3801	-69.6031	5.07775	1.33319	-3.1087	-9.17857	41.188	0.311719
0.1347	6.23092	64.1893	-18.0142	-38.175	4.7755	1.01807	-3.71863	-8.5767	-10.998	0.311719
0.1353	11.4051	211.872	-14.9567	0.890143	6.30185	2.8603	-1.88883	7.90795	-133.691	0.311719
0.1360	16.2878	283.613	-22.2792	30.184	5.68224	3.15117	-1.2789	34.7582	-157.184	0
0.1367	18.4377	200.922	-44.2663	35.0696	5.68224	1.93918	-1.88883	68.9312	-74.182	0.311719
0.1373	19.6402	148.107	-50.6736	32.0148	7.51083	2.2543	-0.668961	117.148	-18.6476	0.311719
0.1380	14.4659	164.91	-31.744	24.0844	5.68224	1.01807	-0.970649	128.149	-23.5205	0.311719
0.1387	-1.42109	84.626	-28.0827	5.15879	3.5514	-1.72103	-2.49876	66.4903	-48.8376	0.311719
0.1393	-15.4498	-44.4605	-35.4053	-0.94072	5.37999	-0.799914	-0.668961	-25.9642	-54.0372	0
0.1400	-20.0045	-103.977	-24.7331	11.8753	4.7755	0.412077	1.1674	-93.4074	-22.9216	0
0.1407	-19.0936	-190.019	-11.2954	25.6119	4.7755	2.2543	1.1674	-104.408	18.2937	0.311719
0.1413	-18.5106	-335.011	-9.46478	29.2736	7.51083	4.9934	1.46909	-75.1004	51.8594	0
0.1420	-20.9519	-432.05	2.74595	28.0496	7.51083	5.91451	1.77734	-41.5293	72.6031	0.311719
0.1427	-18.5106	-462.54	24.7136	21.6366	7.20859	6.20539	1.77734	-22.3028	22.5677	0.311719
0.1433	-6.88681	-354.504	16.7678	0.586685	6.90634	7.1265	2.38727	-26.5827	-76.3054	0
0.1440	4.08107	-59.7055	-3.05755	-17.115	3.85365	6.20539	2.68896	-25.0613	-96.7497	0
0.1447	8.05283	112.709	-4.59606	-9.18466	2.02505	5.5994	2.68896	-4.29671	-50.9882	0.311719
0.1453	6.52242	-64.8972	-14.353	8.51705	2.02505	5.28428	2.68896	3.32702	-8.87462	0.311719
0.1460	-0.182191	-239.483	-26.5637	10.6514	2.62955	3.75717	2.38727	31.0968	20.1176	0.311719
0.1467	-7.79776	-106.431	-7.63414	4.24841	3.5514	0.412077	2.07902	84.814	1.49725	-0.311719
0.1473	-10.2391	63.5757	25.0057	-0.94072	3.5514	-2.93302	2.99721	87.2549	-52.2133	-1.24688
0.1480	-9.03666	50.7378	45.1622	-24.135	2.93179	-0.193918	4.82701	64.367	-76.006	-0.623439
0.1487	-0.801639	57.4871	51.8615	-44.2745	-1.02764	4.07229	3.60714	84.1954	-58.3112	0
0.1493	8.34433	199.695	53.0884	-28.4037	-5.00219	2.54518	-0.360714	135.154	-10.0996	-0.311719
0.1500	10.2027	229.571	40.5856	-5.20936	-1.94949	0.727194	-0.0590259	180.93	46.3604	0
0.1507	22.9925	135.6	15.2488	2.41755	2.02505	1.01807	2.38727	196.813	71.7048	0
0.1513	49.2643	214.326	-4.28447	0.890143	1.40545	-0.509036	0.859155	180.328	115.343	0
0.1520	62.6736	324.203	-20.1565	-5.52294	-1.02764	-2.03614	-2.19052	138.815	179.425	0.311719
0.1527	55.3495	236.32	-37.2359	-0.637262	-3.15848	-2.32702	-2.49876	56.7266	190.097	0.311719
0.1533	42.2318	139.564	-49.135	18.8953	-5.00219	-1.72103	-0.668961	-58.9334	199.57	0.311719
0.1540	39.7904	159.104	-44.87	12.1788	-3.47584	2.54518	2.68896	-146.523	164.779	0
0.1547	38.8795	154.196	-28.0827	-19.8664	-1.94949	7.1265	4.82701	-160.249	-43.6653	0
0.1553	29.4056	147.211	-14.9567	-20.1698	-6.21117	8.96873	3.29889	-131.559	-233.789	0
0.1560	23.6119	168.544	-1.85011	3.63138	-7.73752	9.8656	3.90883	-112.032	-182.202	0.311719
0.1567	19.6402	71.2218	8.52998	17.3679	-3.15848	9.57472	6.35513	-104.091	-60.4345	0.311719
0.1573	15.3769	-24.307	9.7569	32.9353	-2.85623	6.81139	4.82701	-90.9665	-26.8689	0.311719
0.1580	14.7574	53.8057	13.1066	48.4926	-2.85623	4.3874	3.90883	-71.74	-11.9236	0
0.1587	16.6158	208.521	7.32254	51.5474	0.19646	4.67828	4.21707	-57.412	4.5462	0.311719
0.1593	18.4377	288.191	-11.607	51.8509	-1.94949	4.67828	1.77734	-45.5083	-1.85115	0.311719
0.1600	19.3486	211.872	-26.5637	61.0052	-5.90893	4.9934	0.550909	-34.5241	-12.5225	0.311719
0.1607	16.9073	17.5105	-33.2825	49.4131	-5.90893	6.52051	2.68896	-32.986	-17.1231	0
0.1613	9.87473	-199.506	-25.3368	2.11409	-5.00219	7.1265	3.90883	-36.3465	-21.996	0
0.1620	3.17012	-340.486	-17.7026	-18.9459	-5.60668	7.1265	2.99721	-32.986	-28.3933	0.311719
0.1627	0.109314	-329.206	-28.3943	-3.3785	-5.30443	6.52051	2.38727	-27.5023	-35.7163	0.311719
0.1633	-2.91505	-303.247	-45.4738	6.38273	-3.47584	5.91451	1.46909	-16.819	-15.8981	0
0.1640	-4.77339	-414.351	-49.135	14.0096	-1.64725	4.9934	-0.0590259	3.62796	82.3761	0
0.1647	-0.182191	-480.57	-27.479	13.0993	-0.423146	2.8603	-0.970649	19.8117	203.545	0
0.1653	4.99202	-345.678	-8.25734	11.2684	-0.120899	1.33319	-1.2789	33.2368	251.457	0
0.1660	8.96378	-266.621	-3.05755	13.4027	-0.120899	1.93918	-0.970649	31.6987	226.738	0.311719
0.1667	12.0246	-406.988	1.83064	-7.65726	-0.725392	3.46629	0.859155	17.0531	120.515	0.311719
0.1673	11.7331	-456.735	-0.623195	-18.6424	-0.120899	5.5994	1.77734	19.1931	-91.2779	0
0.1680	17.1988	-234.574	4.86871	-4.9059	1.40545	7.44162	2.99721	43.92	-238.961	0
0.1687	30.3165	115.777	32.3477	-3.07504	-1.64725	5.5994	2.38727	85.4159	-138.863	0.311719
0.1693	36.1466	453.289	60.1189	-8.26417	-4.08033	3.75717	0.550909	112.584	15.5442	0
0.1700	29.7335	663.84	64.3838	1.80052	-2.55399	5.91451	1.46909	104.041	21.6421	0
0.1707	17.1988	683.38	53.6922	16.4575	-1.64725	7.1265	2.38727	71.9907	-14.3736	0
0.1713	5.61147	469.148	51.8615	17.0645	1.1032	6.20539	2.68896	36.5972	-18.0215	0
0.1720	-2.62355	156.933	49.4272	15.5371	2.02505	4.9934	2.07902	22.8545	16.7692	0
0.1727	-11.1865	29.074	32.3477	16.4575	0.498707	5.5994	-0.0590259	20.7145	91.5229	0
0.1733	-13.2999	50.7378	11.5875	-4.29899	2.62955	8.65361	1.77734	14.9298	126.64	0
0.1740	-7.50625	-14.2538	-3.05755	-40.0059	4.45814	10.7867	3.29889	23.774	111.069	0.311719
0.1747	-2.62355	-162.55	-1.53851	-69.2997	2.3273	8.33849	0.859155	34.1563	80.2527	-0.935158
0.1753	0.109314	-223.577	22.2598	-76.9266	1.72281	5.28428	-0.0590259	36.5972	29.2645	-1.24688
0.1760	5.31997	-162.267	47.9081	-46.4088	1.1032	9.25961	1.1674	38.4196	-0.626124	-0.311719
0.1767	15.3769	-143.01	46.9928	-12.5429	0.19646	15.6589	1.77734	22.8545	21.6421	0.623439
0.1773	24.8508	-242.503	19.2217	-11.6224	1.72281	16.2892	3.60714	2.40749	28.3661	0.311719
0.1780	28.8226	-303.247	-8.25734	-18.0355	1.72281	13.5258	4.21707	-6.13577	-13.1486	0
0.1787	30.6445	-330.433	-14.0414	-12.2294	0.19646	12.6289	3.29889	-29.3246	-24.7455	0.311719
0.1793	28.4946	-440.263	-0.623195	-7.04023	-1.64725	11.9987	2.68896	-54.0516	17.6676	0.623439
0.1800	20.5511	-465.891	10.6722	-8.26417	-5.00219	9.8656	0.550909	-38.1855	37.513	0.311719
0.1807	19.6402	-403.637	15.2488	-3.69207	-7.43527	7.1265	0.859155	-2.77531	10.9708	0
0.1813	36.7296	-197.052	53.4	3.32792	-7.73752	7.1265	2.07902	18.2735	-18.3209	0
0.1820	49.5559	430.682	110.773	-3.69207	-11.4098	8.33849	2.68896	33.8387	-17.722	0.311719
0.1827	33.7053	933.01	116.265	-18.339	-14.4625	9.25961	4.82701	46.6619	10.6713	0
0.1833	11.4051	740.159	77.802	-25.9659	-14.1452	9.25961	6.35513	57.947	24.691	0
0.1840	2.55067	403.826	32.0361	-29.9311	-16.2911	7.7325	5.43694	75.3512	-0.626124	0
0.1847	-11.7695	348.888	-37.2359	-28.1002	-16.5934	5.5994	3.90883	64.367	-32.6673	0
0.1853	-34.3612	275.07	-110.481	-24.4385	-13.2384	5.5994	2.68896	24.0749	-73.2565	0
0.1860	-43.2156	60.8382	-146.198	-34.2098	-12.3166	3.75717	1.1674	-4.61436	-128.192	0.311719
0.1867	-34.9806	-108.555	-160.22	-38.7819	-11.7121	1.01807	0.249221	-29.3246	-151.685	0.311719
0.1873	-24.8872	-55.1272	-156.266	-22.3042	-8.65937	1.93918	1.1674	-51.9116	-130.941	0
0.1880	-19.0936	174.963	-137.025	-5.82639	-7.73752	2.8603	1.77734	-54.3525	-79.3543	0
0.1887	-17.5632	273.512	-127.268	-1.24418	-9.26387	1.62407	0.550909	-48.5511	-36.3424	0
0.1893	-23.6848	125.216	-126.664	-3.69207	-9.58123	1.33319	0.550909	-50.6911	-28.72	0
0.1900	-30.0979	-84.7676	-116.284	-11.319	-12.3166	1.01807	1.46909	-58.9334	-36.0429	0
0.1907	-28.276	-150.986	-81.7944	-12.5429	-20.8701	-1.11503	1.1674	-60.1539	-37.2407	0.311719
0.1913	-27.0371	-46.5844	-33.8862	0.586685	-28.5019	-0.509036	-0.0590259	-58.6325	-34.5185	0.311719
0.1920	-38.3329	64.1893	18.3064	19.1988	-30.3305	2.54518	-0.0590259	-54.0516	-27.495	0
0.1927	-54.1835	-53.3337	84.2092	28.6566	-30.935	4.9934	0.859155	-29.9432	4.87287	0
0.1933	-66.3903	-384.711	160.512	25.3084	-31.8568	6.81139	1.77734	4.24655	36.9141	0.311719
0.1940	-75.5727	-533.951	207.212	23.781	-31.8568	8.04762	1.46909	59.4852	43.9375	0.311719
0.1947	-62.127	-486.658	210.25	32.3183	-33.9877	8.96873	-0.360714	151.338	72.3037	0
0.1953	-20.0045	-489.396	215.45	34.7662	-39.4886	8.65361	-1.58058	221.222	86.65	0
0.1960	15.0854	-393.584	215.742	30.4874	-44.3698	7.44162	-2.49876	209.017	14.0197	0
0.1967	18.7292	-151.883	175.468	32.3183	-49.8556	5.91451	-3.71863	161.72	-32.3679	0
0.1973	9.58323	133.146	137.006	13.7062	-58.0918	2.54518	-3.41039	154.698	8.22127	0
0.1980	7.43338	354.693	105.885	-36.0407	-67.2499	-1.11503	-2.49876	164.462	-30.8434	0
0.1987	5.61147	373.619	16.4757	-61.3693	-77.0125	-3.24813	-3.1087	129.971	-141.313	0
0.1993	3.17012	387.071	-113.227	-46.1054	-86.7902	-4.77524	-4.32857	101.282	-140.415	0.311719
0.2000	17.8182	504.546	-196.852	-21.3837	-91.0519	-6.61747	-4.63682	124.788	-76.006	0
0.2007	47.7339	391.932	-217.592	-1.54764	-89.2233	-6.30235	-3.1087	98.2391	-65.9335	0.311719
0.2013	56.5884	146.267	-210.27	13.0993	-90.7496	-8.14458	-2.19052	4.24655	-71.1331	0
0.2020	34.6162	89.4874	-166.938	26.8257	-88.921	-15.7559	-4.63682	-52.5135	-57.7123	-1.24688
0.2027	15.3769	161.228	-89.1169	36.597	-74.8817	-17.5981	-4.63682	-49.4706	-40.3169	-1.24688
0.2033	12.3161	294.893	-7.34202	33.5422	-60.54	-12.4108	-2.19052	-44.5888	-29.3189	0.311719
0.2040	9.29172	365.407	68.3567	9.741	-49.2511	-8.75057	-1.58058	-103.188	-32.3679	0.311719
0.2047	3.17012	300.085	111.688	-13.7568	-31.2372	-5.69635	-1.2789	-186.798	-33.8923	0
0.2053	1.34821	221.028	105.281	3.02446	-15.9889	-5.69635	-1.58058	-220.67	-14.3736	0.311719
0.2060	1.63972	196.91	60.7226	31.4079	-9.88347	-9.64744	-4.02688	-190.159	12.1958	0.311719
0.2067	-1.42109	241.795	6.69935	32.3183	1.40545	-9.96256	-3.71863	-126.076	25.6166	0
0.2073	-8.41721	236.604	-21.9871	24.9948	13.0117	-8.43545	-1.2789	-81.5204	25.9161	0
0.2080	-17.5632	131.635	-35.1131	21.3331	12.7095	-9.35657	-1.2789	-59.5353	21.6421	0.311719
0.2087	-26.4176	93.7824	-34.8016	17.6714	8.73493	-9.35657	-1.2789	-19.2599	23.1666	0.311719
0.2093	-19.4215	116.343	4.57659	15.2336	4.15589	-9.64744	-1.2789	48.1833	29.8906	0.311719
0.2100	6.52242	71.7881	67.7335	24.0844	-2.85623	-10.2777	-1.58058	68.9312	32.3406	0
0.2107	11.4051	13.829	87.89	34.1491	-11.4098	-10.8837	-0.668961	-11.9372	25.6166	0
0.2113	-2.33204	31.5283	61.3263	13.7062	-17.8175	-13.0168	-1.58058	-94.9455	-0.0272228	0.311719
0.2120	7.76132	70.8914	43.9353	-11.6224	-19.9483	-14.8348	-3.41039	-76.9395	-38.4658	0.311719
0.2127	22.4094	62.3485	15.5604	-3.99553	-15.6715	-15.1499	-4.02688	-4.9153	-47.3132	0.311719
0.2133	9.87473	23.599	-38.7744	13.0993	-7.73752	-15.465	-2.80045	28.0373	-14.6731	0.311719
0.2140	-0.182191	-16.7081	-58.5998	19.8057	3.24915	-16.071	-2.19052	9.42935	16.1431	0.311719
0.2147	13.555	-15.1506	-38.7744	20.4227	12.7095	-15.1499	-4.32857	-56.4925	24.0921	0
0.2153	22.0815	27.8468	-25.0252	20.7262	18.4975	-13.0168	-4.9385	-137.662	23.1666	0
0.2160	9.58323	25.7229	-18.0142	21.3331	26.7488	-10.8837	-2.80045	-155.969	16.7692	0
0.2167	-7.50625	-19.7288	1.83064	19.8057	34.3655	-10.5686	-2.49876	-109.29	4.5462	0.311719
0.2173	-15.1218	-16.9913	25.3173	16.761	38.0378	-11.1746	-2.80045	-27.8032	-6.12512	0.311719
0.2180	-22.1544	-34.6905	-0.934793	14.0096	39.8664	-10.2777	-0.970649	42.081	-9.77297	0.311719
0.2187	-36.1831	-144.851	-81.4828	11.2684	38.34	-9.35657	-1.2789	51.5438	-10.0996	0
0.2193	-43.5071	-157.972	-130.618	8.51705	36.8137	-8.75057	-2.49876	46.9628	-11.3247	0.311719
0.2200	-45.657	-82.3133	-145.574	6.98965	40.7731	-6.30235	-0.360714	49.7047	-10.998	0.311719
0.2207	-53.2725	-127.151	-198.371	3.94495	44.1432	-5.38124	0.249221	20.1126	-9.17407	0.311719
0.2213	-48.0983	-241.89	-221.565	-0.94072	41.3927	-5.98723	-1.58058	26.5159	-7.6496	0.311719
0.2220	-18.5106	-354.221	-160.843	-1.54764	40.7731	-5.69635	-2.19052	126.009	-6.42457	0
0.2227	-1.42109	-414.634	-100.101	2.41755	44.7477	-5.09036	-1.2789	202.915	-4.9001	0.311719
0.2233	-14.8303	-387.165	-43.9547	5.15879	44.7477	-5.98723	-2.19052	146.757	-3.37562	0.311719
0.2240	-17.5632	-404.251	55.5228	5.77582	45.0499	-4.77524	-2.19052	37.1991	0.898351	0
0.2247	2.25916	-322.173	148.613	5.46224	47.8003	-2.93302	0.249221	7.90795	5.47178	0.311719
0.2253	15.6684	53.5225	161.427	1.80052	45.3521	-5.69635	-1.2789	42.081	5.47178	0.311719
0.2260	12.9355	285.737	106.196	-1.86121	43.8258	-7.22346	-4.02688	21.634	4.5462	0
0.2267	3.78957	141.688	43.0199	-2.46813	47.4981	-4.46012	-1.58058	-70.5195	6.99625	0
0.2273	4.08107	8.63723	13.1066	5.46224	46.8785	-2.93302	-0.970649	-113.854	10.0452	0.311719
0.2280	12.0246	15.3393	6.40722	17.3679	44.4454	-2.03614	-2.49876	-81.2028	10.3446	0
0.2287	17.8182	62.6789	-5.19978	8.51705	45.6695	0.727194	-1.58058	-68.9981	11.8691	0.311719
0.2293	25.1423	87.6939	-1.53851	-8.56763	45.3521	1.93918	-2.19052	-80.6009	14.0197	0.311719
0.2300	25.7618	47.1036	18.5985	-9.18466	41.695	1.01807	-3.41039	-68.6972	14.3192	0.311719
0.2307	14.4659	-20.0591	36.009	-7.3538	41.695	1.62407	-1.58058	-62.8958	14.9453	0.311719
0.2313	1.96766	-84.4372	48.8234	-9.18466	40.7731	2.2543	-0.668961	-56.4925	15.5442	0.311719
0.2320	-10.5671	-132.957	43.6237	-7.3538	35.8918	1.62407	-2.19052	-48.5511	15.2447	0
0.2327	-22.1544	-159.529	28.0633	-3.69207	33.1565	2.54518	-2.49876	-89.4451	15.8436	0
0.2333	-26.7456	-155.848	30.8092	-3.3785	30.1038	-0.193918	-3.1087	-132.78	15.2447	-0.935158
0.2340	-23.0653	-141.5	59.2035	-4.60245	26.7488	-3.85413	-2.80045	-118.435	14.0197	-1.24688
0.2347	-24.8872	-136.921	88.8053	-5.52294	24.9051	0.412077	-1.88883	-79.9823	13.7203	0
0.2353	-42.3047	-101.853	107.112	-6.12985	22.7743	4.07229	-1.58058	-65.9553	13.3936	0.311719
0.2360	-68.5401	-56.6848	110.15	-6.12985	18.1953	4.07229	-0.970649	-45.1907	14.0197	0.311719
0.2367	-90.8038	22.9854	86.6631	-7.04023	12.3921	4.3874	-0.970649	46.361	14.0197	0.311719
0.2373	-96.306	171.612	43.3315	-7.3538	7.20859	4.67828	-0.970649	168.424	12.7947	0
0.2380	-96.0145	207.294	-21.3639	-6.43331	3.24915	5.5994	-0.668961	243.809	12.7947	0.311719
0.2387	-95.723	79.151	-78.4447	-7.04023	-3.47584	5.28428	-0.970649	256.933	12.4952	0.311719
0.2393	-81.0384	-47.198	-82.106	-7.3538	-9.58123	4.67828	-0.668961	270.96	12.4952	0.311719
0.2400	-60.5966	-102.467	-68.9799	-5.82639	-9.58123	5.5994	0.859155	318.274	13.3936	0
0.2407	-45.3655	-39.8823	-43.9547	-4.9059	-8.65937	5.5994	1.46909	336.581	13.3936	0.311719
0.2413	-27.948	67.8235	-13.126	-4.9059	-8.65937	5.28428	0.550909	299.649	12.7947	0
0.2420	-14.8303	58.1007	-61.0536	-3.99553	-5.30443	5.91451	0.550909	200.156	13.3936	-0.311719
0.2427	-13.2999	-29.2156	-133.987	-3.69207	-2.85623	6.81139	0.249221	133.633	14.3192	0
0.2433	4.08107	-95.4343	-104.074	-4.29899	-2.25174	4.67828	-1.58058	181.849	13.3936	-0.623439
0.2440	36.1466	-95.4343	-49.135	-3.07504	4.45814	2.8603	0.249221	201.076	13.7203	-1.24688
0.2447	53.8191	-38.9855	-53.1079	-1.54764	12.0899	5.28428	2.07902	107.384	14.9453	0
0.2453	66.3538	10.1476	-27.7711	-2.16467	13.9185	6.20539	0.859155	-86.7032	14.6186	0.311719
0.2460	78.8521	32.1418	51.2578	-2.46813	16.6689	5.28428	0.859155	-327.787	13.7203	0
0.2467	84.3543	51.6818	118.699	-2.46813	19.1171	4.3874	1.46909	-430.941	14.0197	0
0.2473	87.4151	88.3074	137.317	-2.46813	19.1171	3.15117	1.46909	-340.309	13.7203	0
0.2480	77.3217	93.4992	95.2125	-0.637262	23.9984	4.07229	3.60714	-223.412	14.6186	0
0.2487	47.7339	19.9176	19.8254	-0.94072	27.3533	3.75717	4.51876	-181.916	14.6186	0
0.2493	19.3486	-78.6318	-46.3891	-3.69207	23.3788	0.412077	2.07902	-175.195	13.0941	-0.311719
0.2500	17.8182	-106.715	-100.724	-4.60245	24.3006	0.727194	2.38727	-139.501	14.0197	0
0.2507	38.588	-122.573	-135.506	-4.60245	27.0511	3.15117	4.51876	-60.4548	14.0197	0.311719
0.2513	43.4707	-229.382	-143.452	-5.82639	26.4315	2.54518	5.1287	-20.4804	12.7947	0.311719
0.2520	37.6406	-286.445	-135.506	-6.73677	29.4842	2.8603	5.1287	-81.8214	12.1958	0.311719
0.2527	50.4668	-253.831	-112.915	-7.04023	33.4587	3.75717	4.82701	-126.678	10.3446	0
0.2533	59.0298	-225.134	-71.4143	-7.96071	33.4587	2.8603	4.82701	-86.4023	8.22127	0.311719
0.2540	53.2361	-144.237	3.34967	-7.3538	36.2092	2.54518	6.04688	-99.5265	7.2957	0.311719
0.2547	50.1753	-56.968	88.1821	-7.04023	40.1686	2.8603	6.35513	-161.469	6.6968	0
0.2553	43.7622	-35.3041	142.517	-7.96071	40.4709	1.62407	4.51876	-100.128	4.24675	-0.311719
0.2560	26.0533	83.1157	156.85	-7.3538	44.1432	1.01807	4.82701	46.0433	3.02173	0
0.2567	4.40901	307.4	130.598	-6.12985	49.6289	1.93918	6.04688	106.782	3.02173	0.311719
0.2573	-11.478	323.259	84.8324	-6.73677	51.1553	1.93918	5.1287	74.7326	2.72228	0
0.2580	-9.03666	149.618	45.7659	-6.73677	52.3794	1.93918	4.51876	53.3661	1.82393	0
0.2587	-1.42109	74.2424	3.03808	-6.43331	52.3794	1.62407	3.60714	80.534	0.272228	0
0.2593	-7.21475	71.505	-37.2359	-6.12985	51.1553	1.33319	2.99721	104.943	-0.626124	0.311719
0.2600	-18.5106	42.8086	-51.2773	-5.52294	51.7598	1.62407	2.99721	81.1526	0.272228	0.311719
0.2607	-34.0696	34.8793	-60.1383	-4.29899	51.7598	2.2543	3.90883	27.4354	1.1978	0.311719
0.2613	-48.0983	53.1921	-60.1383	-3.07504	50.2334	2.54518	3.90883	-47.6316	2.12338	0
0.2620	-52.0701	76.3663	-26.2521	-2.16467	46.274	-2.32702	1.1674	-66.8581	2.42283	-1.24688
0.2627	-52.981	63.5757	21.0523	-1.24418	43.2213	-3.85413	-0.0590259	-21.7009	3.64785	-1.24688
0.2633	-49.9202	-12.4131	36.009	-0.333804	43.8258	1.93918	3.29889	-8.5767	6.39735	0.311719
0.2640	-34.6527	-72.2129	29.8939	-0.0303458	41.3927	4.07229	5.1287	7.59029	7.2957	0.311719
0.2647	-9.6561	-89.0154	52.1731	-0.0303458	34.9851	2.54518	3.90883	15.2307	6.6968	-0.311719
0.2653	1.34821	-101.523	67.7335	2.11409	31.6301	2.8603	3.29889	-61.3744	8.52072	0
0.2660	-8.74515	-126.538	31.7245	3.63138	28.2601	2.8603	2.99721	-115.393	10.3446	0.311719
0.2667	-1.71259	-140.272	-11.9186	3.02446	22.1698	1.33319	2.07902	-63.1967	8.52072	0
0.2673	22.0815	-113.134	-32.9709	2.72101	19.4194	1.01807	1.77734	13.7093	5.47178	-0.311719
0.2680	22.0815	-72.5433	-35.7169	2.11409	14.8403	1.33319	0.859155	56.4256	3.9473	0
0.2687	9.87473	-13.0266	-2.14223	0.890143	-0.120899	0.727194	1.46909	47.5814	2.12338	0
0.2693	9.58323	63.5757	21.0523	0.283227	-16.2911	0.0969592	2.68896	12.1712	0.898351	0
0.2700	6.23092	77.5935	-1.22692	0.890143	-24.8296	0.0969592	2.07902	-24.4427	0.598901	0
0.2707	-8.74515	57.7703	12.5029	-0.0303458	-29.7109	-0.509036	1.1674	-49.1697	-0.0272228	0
0.2713	-14.8303	83.7292	76.8867	-0.94072	-32.7636	-1.11503	0.249221	-29.3246	-0.326673	0.311719
0.2720	-12.389	62.3485	115.661	-0.333804	-35.8163	-0.509036	-0.0590259	-18.3404	-0.0272228	0
0.2727	-16.9802	-10.2892	71.7064	0.283227	-40.093	-0.509036	0.859155	-37.266	-0.0272228	0
0.2733	-12.0975	-11.5163	-44.87	-0.0303458	-41.6194	-1.11503	0.550909	11.8703	-0.0272228	0
0.2740	3.46162	-31.6227	-134.902	-0.0303458	-38.5667	-0.509036	-0.0590259	57.947	-0.0272228	0
0.2747	16.6158	-64.0005	-120.861	-0.333804	-38.2645	-1.11503	0.249221	-55.272	-0.326673	0
0.2753	27.2922	16.5665	-38.7744	-0.637262	-39.7908	-1.72103	-0.0590259	-242.338	-0.925574	0.311719
0.2760	26.3812	81.2749	28.3749	-1.24418	-38.8689	-1.43015	0.550909	-327.486	-1.5517	0
0.2767	18.1097	79.151	45.7659	-1.86121	-38.5667	-2.93302	0.550909	-296.055	-2.1506	-0.935158
0.2773	13.8465	79.7646	32.6398	-1.86121	-37.9622	-2.93302	-0.970649	-215.487	-1.85115	-0.623439
0.2780	7.76132	66.6436	13.7298	-1.54764	-36.1185	-1.11503	0.249221	-137.06	-0.925574	-0.311719
0.2787	8.05283	67.8235	3.95339	-1.86121	-36.4359	-2.64214	0.859155	-106.849	-0.925574	-0.311719
0.2793	21.4985	44.3661	-3.68075	-1.86121	-36.4359	-2.64214	-0.970649	-106.231	-1.25225	-0.311719
0.2800	31.5554	-36.8144	-12.2107	-1.24418	-32.7636	0.727194	0.550909	-99.5265	-0.626124	0.311719
0.2807	35.1992	-58.1951	-11.2954	-1.24418	-31.5546	0.412077	1.1674	-72.9604	-0.626124	0
0.2813	38.588	-15.1506	-0.623195	-2.46813	-33.3832	-2.03614	-1.2789	-12.8567	-1.85115	0
0.2820	33.0858	3.44545	11.8991	-3.99553	-30.6327	-1.43015	0.550909	19.1931	-2.77672	0.311719
0.2827	15.9963	0.094396	21.3444	-5.82639	-26.3559	-0.193918	1.77734	1.18703	-4.60065	0
0.2833	-5.97585	-16.0945	21.0523	-6.73677	-26.6582	-1.11503	0.550909	19.1931	-6.72402	0
0.2840	-31.3004	-34.4073	16.4757	-4.9059	-24.2251	0.727194	2.07902	62.8289	-6.42457	0.311719
0.2847	-45.0375	-25.5341	17.391	-4.29899	-22.6987	3.15117	4.51876	63.4475	-6.42457	0.311719
0.2853	-41.0658	-19.1152	9.7569	-5.52294	-26.6582	1.33319	2.68896	60.7056	-7.6496	0.311719
0.2860	-31.0088	-50.549	-4.28447	-5.20936	-27.58	-0.193918	1.46909	86.3354	-7.0507	0.311719
0.2867	-20.9519	-112.52	-12.5223	-4.29899	-25.4492	-0.193918	2.68896	118.987	-4.9001	0
0.2873	-8.41721	-138.479	-18.618	-3.69207	-27.58	-1.11503	2.68896	151.94	-3.97452	0.311719
0.2880	-0.182191	-78.3487	-18.3258	-2.16467	-28.1845	-1.72103	2.99721	132.713	-2.77672	0.311719
0.2887	-5.97585	-13.9234	-12.2107	-1.24418	-27.58	-2.03614	3.29889	66.1894	-1.5517	0
0.2893	-14.8303	-6.9381	-1.22692	-1.54764	-31.2372	-3.56325	1.1674	22.2526	-0.925574	0.311719
0.2900	-18.5106	-25.2509	8.23786	-0.0303458	-32.1591	-3.85413	0.550909	-12.2381	-0.326673	0
0.2907	-25.8346	-38.0416	2.74595	2.11409	-27.8823	-2.32702	2.68896	-8.87763	0.598901	0.311719
0.2913	-28.5675	1.60473	2.43436	1.1936	-27.58	-2.64214	2.38727	57.3452	-0.626124	0.311719
0.2920	-13.9194	60.2246	14.3335	0.283227	-29.4086	-6.90834	-0.0590259	113.487	-3.37562	-1.24688
0.2927	-2.91505	53.5225	14.9372	1.49706	-26.9755	-9.04145	-0.0590259	108.304	-4.60065	-1.24688
0.2933	-13.2999	29.4043	-3.05755	2.11409	-23.9228	-5.38124	1.77734	61.6084	-2.77672	0
0.2940	-23.0653	41.2982	-47.616	1.49706	-22.0942	-2.32702	2.38727	41.4791	-1.85115	0.623439
0.2947	-7.21475	10.1476	-66.234	1.49706	-18.4219	-2.93302	2.07902	87.8568	-1.25225	0
0.2953	28.4946	-24.307	-13.126	1.1936	-15.6715	-2.93302	1.1674	121.428	-0.326673	0
0.2960	50.7947	49.8411	36.9243	1.1936	-12.9362	-2.32702	1.46909	45.1405	-0.326673	0.311719
0.2967	42.2318	105.676	48.2002	1.1936	-7.43527	-2.03614	1.46909	-54.9711	-0.326673	0.623439
0.2973	21.1706	66.6436	38.1318	1.1936	-5.00219	-2.64214	1.1674	-80.2999	-0.925574	0.311719
0.2980	-4.15395	23.599	-1.85011	0.586685	-5.00219	-3.85413	0.859155	-100.747	-1.5517	0
0.2987	-24.3042	0.094396	-32.0556	0.890143	-3.15848	-3.85413	-0.0590259	-113.553	-1.5517	0
0.2993	-25.8346	31.2451	-18.0142	1.1936	-0.120899	-3.56325	0.550909	-47.6316	-1.25225	0.311719
0.3000	-15.4498	92.8856	-5.8035	0.890143	2.93179	-3.85413	0.550909	11.5693	-0.626124	0.311719
0.3007	-12.6805	57.4871	-56.7692	0.586685	5.68224	-3.85413	-0.970649	34.7582	-0.925574	0
0.3013	-18.1826	-9.95878	-137.337	0.890143	7.20859	-3.85413	-1.58058	76.5717	-1.5517	0
0.3020	-13.2999	-30.1123	-140.686	0.890143	7.81308	-4.46012	-0.970649	113.804	-1.5517	0
0.3027	4.70052	-76.7911	-68.6683	0.283227	10.2613	-4.46012	-0.668961	118.686	-1.25225	0.311719
0.3033	22.701	-122.904	-25.3368	0.586685	13.9185	-4.46012	-1.2789	94.2601	-1.25225	0
0.3040	33.3773	-129.322	-17.4105	1.1936	18.1953	-4.16925	-0.668961	60.388	-0.0272228	0
0.3047	43.1427	-114.974	2.74595	2.11409	20.0239	-3.85413	-0.0590259	48.8019	-0.0272228	0.311719
0.3053	53.2361	-51.493	17.391	1.49706	19.1171	-4.46012	-0.0590259	47.8824	-0.925574	0
0.3060	52.6167	40.9679	16.7678	0.890143	20.9457	-5.09036	-0.360714	-40.9274	-1.85115	-0.311719
0.3067	40.0819	95.0095	26.2326	0.890143	23.9984	-5.38124	-0.668961	-184.658	-2.45005	0
0.3073	23.9398	105.676	33.5552	1.1936	26.4315	-5.69635	-1.2789	-231.053	-2.1506	0
0.3080	1.96766	59.6111	27.4595	2.11409	30.7083	-5.09036	-0.360714	-174.293	-0.925574	0
0.3087	-28.276	-25.8645	49.7388	1.49706	32.2346	-5.38124	-0.668961	-105.629	-1.25225	0
0.3093	-55.4224	-61.5462	85.4362	0.586685	31.6301	-6.30235	-1.58058	-51.6106	-1.5517	0
0.3100	-68.8316	-78.9622	65.2992	1.1936	34.3655	-5.69635	-1.58058	33.5377	-0.626124	0.311719
0.3107	-60.3051	-112.52	13.7298	2.11409	37.1159	-5.09036	-1.88883	138.214	0.598901	0.311719
0.3113	-38.3329	-65.8412	-11.9186	2.11409	35.8918	-5.98723	-2.49876	212.378	0.898351	0
0.3120	-24.3042	18.0768	-28.998	2.72101	37.4182	-6.61747	-2.80045	223.964	1.49725	0
0.3127	-17.5632	6.51332	-58.9114	2.41755	38.34	-6.61747	-3.1087	131.81	1.49725	0
0.3133	1.02027	-36.2009	-60.7421	1.49706	35.5896	-6.90834	-4.9385	26.2149	0.598901	-0.311719
0.3140	27.5837	0.70797	-8.25734	2.41755	36.5114	-5.69635	-5.24675	-21.3999	1.49725	0
0.3147	39.171	56.8736	36.9243	3.32792	38.0378	-6.90834	-4.32857	-87.3051	2.42283	-0.311719
0.3153	32.1749	64.1893	45.1622	3.63138	34.3655	-10.2777	-5.54844	-165.749	1.82393	-0.623439
0.3160	20.879	44.9325	45.1622	4.24841	35.2873	-9.04145	-5.24675	-206.944	2.12338	-0.311719
0.3167	13.8465	24.4958	34.7821	3.63138	37.4182	-6.30235	-3.71863	-211.826	3.02173	0
0.3173	10.7857	18.4072	16.7678	2.41755	34.6828	-4.16925	-4.02688	-157.507	2.12338	0.311719
0.3180	9.58323	29.4043	16.7678	1.49706	33.4587	-1.43015	-4.32857	-79.6814	0.598901	0
0.3187	11.1136	44.0357	27.4595	0.283227	31.9324	-0.509036	-4.32857	-48.8521	-0.0272228	0
0.3193	15.3769	53.8057	18.9101	-0.637262	27.9578	-1.11503	-6.15837	-46.7288	-1.25225	0
0.3200	15.9963	49.8411	-11.2954	0.283227	29.4842	-0.193918	-5.54844	-23.8409	-0.626124	0
0.3207	13.555	22.655	-37.8591	1.1936	32.5369	1.93918	-2.80045	0.267499	0.898351	0.311719
0.3213	12.644	10.1476	-39.3781	-0.637262	28.2601	1.33319	-3.71863	-24.4427	-1.25225	0
0.3220	14.1744	19.9176	-27.479	-2.16467	24.3006	-1.72103	-4.02688	-56.4925	-4.60065	-1.24688
0.3227	15.6684	-9.67559	-20.7602	-1.24418	25.2225	-1.11503	-2.49876	-64.7348	-4.60065	-1.24688
0.3233	16.9073	-39.2687	-8.25734	-1.86121	23.0765	2.54518	-3.41039	-65.9553	-3.67507	0.311719
0.3240	17.5267	-14.2538	9.15318	-2.46813	23.3788	4.67828	-1.88883	-40.3088	-3.67507	0
0.3247	10.4942	8.35404	4.57659	-1.86121	25.5247	6.20539	1.46909	-13.7595	-3.97452	0
0.3253	-2.62355	-0.519178	-20.1565	-2.77158	20.6435	4.3874	-0.970649	-17.12	-5.52622	0.311719
0.3260	-10.8586	-7.55168	-32.9709	-2.46813	18.4975	2.2543	-4.32857	-23.5232	-6.42457	0
0.3267	-12.389	-9.67559	-27.7711	-0.94072	21.8524	3.15117	-2.80045	-12.8567	-4.9001	0
0.3273	-9.32816	-18.5016	-23.1945	-1.24418	18.7998	2.2543	-2.80045	2.10656	-4.60065	0
0.3280	-3.86244	-20.6727	-19.8449	-0.637262	16.9712	2.54518	-3.41039	8.20888	-4.60065	-0.311719
0.3287	-1.09314	-12.1299	-11.9186	-0.0303458	19.1171	4.67828	-1.2789	12.7898	-3.07617	0
0.3293	-3.24299	-9.67559	-7.94574	-0.333804	15.1426	2.54518	-2.49876	10.0312	-2.1506	0
0.3300	-2.33204	-10.5723	-6.1151	-0.0303458	12.3921	0.727194	-5.85668	-2.77531	-1.5517	0
0.3307	4.08107	-7.83487	-0.311598	0.586685	14.2358	2.8603	-5.24675	-7.65717	-0.0272228	0
0.3313	3.78957	-5.99414	3.95339	-0.0303458	11.1831	2.8603	-4.02688	-1.55484	-0.326673	0
0.3320	-0.801639	-5.99414	5.49191	-0.637262	8.73493	1.93918	-4.32857	5.14936	-1.25225	0.311719
0.3327	0.437258	-5.99414	9.4453	-0.0303458	11.1831	2.54518	-3.41039	7.59029	-0.0272228	0
0.3333	1.02027	-8.16525	8.84158	-0.0303458	8.73493	1.33319	-4.02688	3.9289	-0.925574	0
0.3340	-0.182191	-8.16525	5.49191	-0.0303458	6.30185	0.727194	-4.9385	3.9289	-1.85115	0.311719
0.3347	-1.09314	1.60473	8.52998	0.890143	7.51083	2.2543	-4.32857	10.0312	-1.25225	0
0.3353	-3.24299	11.9883	12.5029	0.586685	5.07775	0.727194	-6.15837	11.5693	-1.85115	0
0.3360	-3.5345	12.9322	15.8525	0.283227	4.45814	-0.509036	-7.68649	7.28936	-2.1506	0
0.3367	-2.0041	12.6019	20.137	1.1936	8.43269	1.33319	-6.15837	5.46702	-0.326673	0
0.3373	-1.71259	14.7258	17.9948	1.1936	5.68224	0.412077	-7.07655	6.36983	-0.626124	0
0.3380	-1.09314	5.89975	6.69935	-0.0303458	2.3273	-1.72103	-9.82454	8.81076	-1.25225	0.311719
0.3387	2.25916	-9.95878	-9.77637	0.586685	4.15589	-2.03614	-8.90636	28.9568	-0.326673	0.311719
0.3393	4.40901	-13.0266	-25.6484	1.1936	2.02505	-3.56325	-7.37824	52.7642	-1.25225	0
0.3400	0.728763	-10.2892	-28.3943	1.49706	0.498707	-4.16925	-7.68649	46.0433	-2.77672	-0.311719
0.3407	-5.3564	-16.0945	-16.7873	2.41755	4.7755	-2.93302	-5.24675	17.9726	-1.25225	0
0.3413	-5.3564	-17.888	-7.34202	2.11409	2.93179	-3.56325	-4.63682	0.267499	-2.1506	0.311719
0.3420	-2.0041	-10.9027	-5.19978	-0.0303458	-2.25174	-4.46012	-7.07655	9.73029	-5.52622	-0.311719
0.3427	-3.24299	-3.87023	-1.53851	-0.333804	0.498707	-0.799914	-4.02688	20.1126	-5.19955	0
0.3433	-3.5345	0.991158	8.23786	-0.333804	1.1032	1.62407	-0.668961	14.0103	-4.60065	0
0.3440	0.728763	1.32154	17.0794	-1.54764	-1.94949	1.62407	-1.88883	15.8326	-5.52622	0
0.3447	5.90298	-1.13275	15.5604	-1.24418	0.800954	3.46629	-0.668961	22.2526	-4.60065	0
0.3453	7.43338	-3.58705	11.8991	-0.333804	-0.423146	2.54518	-0.668961	20.7145	-3.97452	0
0.3460	2.87861	-2.3599	12.1913	-0.637262	-5.30443	-0.509036	-4.02688	20.1126	-4.9001	0
0.3467	-0.182191	-2.97347	13.1066	0.283227	-2.55399	-2.03614	-4.32857	26.2149	-3.67507	-0.623439
0.3473	1.02027	-16.0945	10.9838	1.80052	-1.94949	-4.46012	-3.71863	28.6559	-3.07617	-1.24688
0.3480	-0.473696	-22.7966	7.01094	1.49706	-6.52853	-3.85413	-4.02688	22.5535	-3.67507	-0.311719
0.3487	-3.5345	-10.9027	6.40722	2.11409	-4.38258	-1.11503	-0.970649	22.2526	-2.1506	0.311719
0.3493	-6.3038	-4.20062	5.78403	2.11409	-3.77809	-1.11503	0.859155	29.2577	-1.5517	0
0.3500	-6.88681	-4.20062	3.03808	1.1936	-8.65937	-3.56325	-0.668961	27.1345	-3.67507	0.311719
0.3507	-2.91505	0.094396	3.34967	2.41755	-5.60668	-2.32702	0.859155	21.0321	-2.45005	0
0.3513	-2.0041	1.60473	1.83064	2.72101	-3.47584	-0.799914	2.68896	19.1931	-1.25225	0.311719
0.3520	-5.3564	0.094396	-3.05755	-0.0303458	-9.26387	-5.38124	-0.360714	16.1503	-5.52622	-0.935158
0.3527	-2.91505	4.95579	-1.85011	-0.333804	-7.13303	-4.77524	0.859155	19.8117	-7.94905	-1.5586
0.3533	2.25916	8.02366	1.51904	-0.637262	-3.77809	1.93918	3.60714	29.8763	-6.72402	-0.311719
0.3540	1.63972	-0.519178	-2.76543	-3.3785	-9.26387	2.2543	-0.668961	28.9568	-8.2485	0.623439
0.3547	1.34821	-8.44844	-5.8035	-3.69207	-9.26387	-0.509036	-3.41039	22.5535	-9.17407	0
0.3553	4.08107	-6.60772	-2.14223	-1.86121	-6.52853	-0.799914	-3.41039	17.9726	-7.35015	0.311719
0.3560	4.08107	-3.87023	0.292123	-1.86121	-10.488	-4.46012	-6.76831	11.5693	-7.6496	-0.311719
0.3567	1.96766	-3.87023	0.292123	-1.24418	-10.7902	-7.22346	-7.37824	10.6498	-6.72402	-0.623439
0.3573	-0.182191	-2.3599	0.915318	0.283227	-8.05488	-7.51434	-4.63682	15.2307	-4.3012	-0.935158
0.3580	-2.91505	-0.519178	0.915318	0.890143	-9.88347	-8.43545	-3.71863	15.5317	-4.3012	-0.935158
0.3587	-6.5953	-1.13275	-1.85011	1.49706	-12.6188	-6.61747	-3.1087	14.9298	-4.3012	0
0.3593	-10.8586	-1.74633	-5.19978	2.72101	-11.7121	-4.77524	-0.360714	16.1503	-3.07617	0.311719
0.3600	-12.0975	-0.802366	-7.03042	3.02446	-12.0143	-4.16925	2.38727	14.3112	-3.07617	0.311719
0.3607	-11.1865	1.32154	-7.94574	2.41755	-12.9362	-2.03614	4.51876	10.3489	-3.97452	0
0.3613	-11.478	2.54869	-8.25734	2.41755	-12.3166	0.0969592	6.35513	5.46702	-3.97452	-0.311719
0.3620	-11.7695	1.93512	-9.46478	1.80052	-15.3693	0.0969592	3.29889	0.886091	-4.60065	0
0.3627	-11.7695	3.16227	-8.54946	-0.333804	-17.8175	0.412077	1.1674	1.48796	-6.72402	0.311719
0.3633	-9.94761	8.35404	-4.88819	-1.54764	-15.9889	2.2543	3.90883	8.81076	-7.6496	0
0.3640	-9.6561	9.53399	-7.63414	-1.24418	-14.7648	2.54518	0.249221	18.5912	-7.35015	0
0.3647	-9.32816	4.95579	-14.6646	-1.24418	-15.9889	1.62407	-7.07655	23.1554	-6.72402	0.311719
0.3653	-1.71259	2.21831	-10.088	-1.86121	-18.1197	1.01807	-4.63682	21.3331	-7.0507	0
0.3660	8.34433	0.377584	1.83064	-2.16467	-19.646	0.412077	1.46909	16.1503	-6.42457	0
0.3667	8.05283	-4.767	4.26499	-2.16467	-20.8701	-0.799914	6.65681	11.8703	-4.9001	0.311719
0.3673	5.61147	-7.83487	2.12276	-2.16467	-20.8701	-0.799914	10.3164	8.50982	-4.9001	0
0.3680	7.76132	-8.77883	3.34967	-2.16467	-18.4219	1.01807	13.9826	5.76795	-5.82567	-0.311719
0.3687	6.23092	-11.7995	0.915318	-2.46813	-18.4219	2.8603	19.1703	7.28936	-5.82567	0
0.3693	5.31997	-11.1859	-2.14223	-4.9059	-21.1724	3.75717	20.6984	15.2307	-8.57517	0
0.3700	11.4051	-2.64309	3.66127	-6.43331	-20.2505	5.28428	21.6101	22.8545	-11.6241	0
0.3707	17.5267	7.41008	12.1913	-6.43331	-17.8175	5.91451	29.2375	19.494	-11.6241	0
0.3713	16.2878	11.9883	15.2488	-5.82639	-19.646	2.8603	31.9855	8.81076	-10.998	0
0.3720	9.58323	11.7051	14.6451	-4.29899	-22.0942	-1.43015	18.5604	-0.952966	-10.0996	0
0.3727	7.14187	11.9883	15.2488	-2.46813	-20.8701	-3.85413	2.07902	-3.69483	-7.94905	-0.311719
0.3733	7.43338	12.3187	15.2488	-1.86121	-23.001	-6.61747	-4.02688	2.40749	-7.0507	0
0.3740	5.31997	9.86438	11.2759	-1.86121	-26.0537	-9.35657	-6.46662	8.81076	-7.0507	0
0.3747	3.78957	7.1269	7.32254	-2.77158	-24.5273	-8.14458	-11.6543	10.0312	-7.94905	0
0.3753	7.14187	4.6726	5.49191	-4.9059	-26.0537	-7.82946	-19.8917	10.0312	-10.6985	0
0.3760	13.227	3.77584	7.61467	-6.73677	-30.0282	-9.35657	-29.3556	11.2684	-12.8491	0
0.3767	16.9073	3.16227	10.6722	-7.3538	-29.7109	-9.35657	-33.9334	11.2684	-13.7475	0.311719
0.3773	16.2878	1.32154	11.5875	-7.65726	-30.3305	-9.04145	-32.7135	8.50982	-13.448	0.311719
0.3780	14.7574	0.991158	11.5875	-6.73677	-32.7636	-9.64744	-29.6573	6.06889	-11.6241	0
0.3787	13.8465	1.60473	12.1913	-5.52294	-34.9095	-10.2777	-11.3461	3.32702	-8.87462	0
0.3793	12.3161	0.70797	12.8144	-3.99553	-37.0404	-10.5686	28.3259	-0.0334374	-6.72402	0
0.3800	9.29172	-0.802366	10.0685	-2.46813	-40.3953	-12.4108	73.4938	0.267499	-5.19955	0.311719
0.3807	6.52242	-0.519178	6.40722	-0.333804	-42.8435	-15.465	117.744	1.80562	-3.07617	0
0.3813	5.31997	-0.188792	5.49191	1.1936	-43.448	-19.1252	147.342	1.48796	-1.25225	0
0.3820	4.99202	-0.519178	6.09563	1.80052	-45.2766	-21.8643	145.21	0.585155	-1.25225	0.311719
0.3827	5.31997	-0.519178	6.40722	3.02446	-44.9743	-21.8643	131.169	-0.0334374	-0.626124	0.311719
0.3833	6.23092	0.094396	5.78403	4.85533	-41.9216	-19.4161	128.119	0.267499	0.898351	0
0.3840	4.40901	2.21831	4.26499	5.15879	-37.3426	-14.5439	127.811	0.886091	0.598901	0.311719
0.3847	1.02027	4.6726	3.66127	4.24841	-31.2372	-5.69635	109.808	0.886091	-1.25225	0
0.3853	1.63972	5.56936	3.03808	2.72101	-26.9755	4.67828	82.3412	0.267499	-4.9001	0
0.3860	3.17012	4.95579	2.12276	-0.0303458	-23.6055	13.5258	75.9336	2.10656	-7.94905	0.311719
0.3867	0.109314	3.16227	0.60372	-3.69207	-20.5679	17.5011	87.5289	3.9289	-11.3247	-0.623439
0.3873	-0.182191	0.70797	0.60372	-6.43331	-22.0942	14.4469	90.8868	1.48796	-15.272	-1.24688
0.3880	2.55067	1.32154	3.34967	-5.52294	-20.8701	15.368	78.0716	2.70843	-14.0469	-0.623439
0.3887	1.34821	3.44545	4.86871	-3.99553	-18.1197	17.186	48.1586	5.46702	-10.0996	0.311719
0.3893	-1.09314	3.16227	3.95339	-4.60245	-23.001	10.4716	-0.0590259	2.40749	-9.17407	0.311719
0.3900	-1.71259	4.38941	5.49191	-2.46813	-22.0942	6.52051	-42.479	1.18703	-6.12512	0.311719
0.3907	-1.71259	7.41008	8.84158	1.49706	-13.5407	8.65361	-70.8574	4.84842	-0.925574	0.311719
0.3913	-2.33204	7.1269	7.01094	1.80052	-14.7648	8.33849	-103.204	5.14936	0.272228	0.311719
0.3920	-1.71259	4.38941	3.66127	0.890143	-17.1978	10.4716	-132.5	3.32702	0.598901	0.311719
0.3927	-2.0041	4.38941	5.49191	2.11409	-10.488	16.58	-160.885	3.62796	3.3484	0
0.3933	-6.3038	4.95579	7.92626	2.41755	-5.60668	20.2402	-190.791	3.62796	4.5462	-0.311719
0.3940	-12.6805	4.38941	7.01094	1.80052	-5.90893	19.6342	-193.231	2.40749	3.9473	0
0.3947	-15.7413	5.28617	7.61467	2.72101	-4.08033	16.2892	-172.789	3.9289	5.47178	0.311719
0.3953	-17.2717	4.95579	7.01094	3.32792	-7.13303	9.8656	-155.999	5.46702	6.39735	0.311719
0.3960	-15.7413	3.44545	4.86871	2.11409	-13.2384	2.2543	-136.468	4.24655	5.47178	0
0.3967	-5.0649	3.77584	5.18031	3.02446	-12.0143	-0.799914	-107.781	4.54749	6.99625	-0.311719
0.3973	12.3161	4.6726	4.26499	4.85533	-8.96162	-2.93302	-80.9311	6.36983	8.82018	-0.935158
0.3980	28.8226	3.77584	1.83064	4.85533	-8.96162	-6.90834	-54.376	8.50982	7.92182	-0.935158
0.3987	46.2035	4.05903	0.60372	2.11409	-7.43527	-5.69635	-13.1759	11.2684	4.87287	0.311719
0.3993	60.2322	4.38941	-0.934793	-0.94072	-1.64725	-1.72103	22.8299	12.4889	1.1978	0.311719
0.4000	51.3778	3.16227	-3.68075	-1.54764	2.93179	-0.193918	30.7656	13.3917	0.272228	0
0.4007	20.5511	1.32154	-6.1151	-2.77158	1.40545	-2.03614	31.9855	13.0907	-0.326673	0.311719
0.4013	-3.24299	1.60473	-6.71882	-4.29899	0.800954	-2.93302	35.6517	11.8703	-1.85115	0.311719
0.4020	4.99202	2.54869	-5.8035	-5.82639	4.45814	0.412077	36.8715	12.1712	-3.97452	0
0.4027	19.9681	4.05903	-4.59606	-8.26417	9.03718	4.07229	39.003	14.6121	-6.42457	0
0.4033	19.6402	6.51332	-2.45383	-10.7121	13.6162	5.5994	36.5633	19.8117	-8.2485	0
0.4040	36.7296	8.35404	-0.311598	-12.2294	18.1953	7.7325	32.9037	23.1554	-8.87462	0
0.4047	79.1436	10.478	1.83064	-12.2294	23.3788	12.6289	25.8862	23.4731	-8.57517	0
0.4053	111.209	13.4986	3.03808	-11.6224	23.6962	12.9198	9.4048	24.3759	-7.0507	0
0.4060	117.003	16.5665	6.40722	-9.79158	23.0765	8.04762	-1.88883	26.2149	-3.67507	0.311719
0.4067	106.618	20.2479	13.4182	-6.12985	27.6556	4.3874	-0.668961	28.9568	0.898351	0.311719
0.4073	72.439	24.4958	19.2217	-3.3785	31.6301	1.33319	6.96506	32.3173	3.9473	0
0.4080	43.1427	27.2332	21.9676	-3.07504	31.6301	-3.56325	15.2025	35.3768	4.24675	0
0.4087	33.9968	27.5636	22.2598	-2.77158	32.8391	-3.85413	10.9329	36.5972	4.24675	0
0.4093	2.25916	26.3365	21.656	-3.07504	35.2873	1.62407	-8.29642	35.6777	3.64785	0.311719
0.4100	-15.1218	25.4397	20.4291	-3.3785	36.5114	5.28428	-22.6397	35.0591	2.72228	0.311719
0.4107	-5.97585	23.2686	18.3064	-3.07504	38.6423	5.5994	-21.1116	35.6777	3.3484	0.623439
0.4113	-46.2764	19.304	14.0219	-3.3785	39.8664	4.07229	-17.1438	33.5377	3.3484	0.311719
0.4120	-123.161	13.829	7.32254	-5.52294	35.2873	-1.72103	-22.948	25.914	0.898351	-0.935158
0.4127	-179.312	10.478	4.57659	-5.82639	34.6828	-2.64214	-30.2672	21.3331	-0.925574	-1.24688
0.4133	-229.378	11.0915	5.49191	-6.43331	38.0378	3.15117	-34.5433	21.9349	-2.1506	0
0.4140	-234.88	12.3187	5.78403	-10.095	37.1159	5.91451	-38.2029	21.634	-5.82567	0.311719
0.4147	-88.9819	15.6697	10.0685	-12.2294	38.0378	7.7325	-38.5111	24.0749	-8.87462	0
0.4153	110.59	19.304	14.9372	-12.8464	37.4182	10.4716	-40.3409	27.7363	-10.6985	0.311719
0.4160	159.125	21.4751	16.4757	-14.0602	33.4587	11.1018	-44.9187	26.2149	-12.5225	0.311719
0.4167	68.4672	23.2686	17.9948	-13.4533	33.761	11.9987	-42.479	25.2954	-11.6241	0.311719
0.4173	-38.6244	22.9854	17.6832	-10.7121	34.6828	10.4716	-37.9012	26.2149	-8.87462	0
0.4180	-125.93	17.7936	11.8991	-9.79158	27.9578	4.3874	-37.593	19.494	-8.2485	0
0.4187	-208.317	13.2154	7.32254	-9.18466	22.1698	-2.03614	-36.3731	10.0312	-7.0507	0
0.4193	-266.909	13.4986	8.23786	-5.82639	24.6029	-3.56325	-30.5754	9.12841	-1.5517	0
0.4200	-264.468	14.4426	10.0685	-3.69207	22.7743	-5.38124	-27.8274	7.59029	1.49725	0
0.4207	-166.194	14.7258	9.4453	-3.69207	16.9712	-8.43545	-32.7135	2.10656	1.82393	0.311719
0.4213	56.8799	14.7258	8.84158	-3.07504	16.9712	-7.51434	-32.4052	-0.635311	2.72228	0.311719
0.4220	287.898	11.9883	6.09563	-4.29899	16.3667	-5.98723	-24.1678	-4.29671	1.49725	0
0.4227	374.256	7.1269	-0.311598	-7.3538	11.4854	-7.51434	-15.9239	-10.399	-0.925574	0.311719
0.4233	350.462	3.16227	-4.88819	-8.56763	9.33943	-8.14458	-12.2643	-15.8995	-2.1506	0.311719
0.4240	288.809	-0.802366	-7.63414	-7.65726	10.5635	-7.82946	-6.76831	-18.0395	-2.77672	0
0.4247	201.248	-4.767	-11.0033	-5.82639	11.1831	-7.82946	6.96506	-20.4804	-2.77672	0.311719
0.4253	109.059	-9.3452	-15.2683	-5.82639	7.20859	-8.75057	17.0323	-27.1846	-2.1506	0
0.4260	23.3204	-13.6402	-17.7026	-5.82639	4.7755	-8.14458	25.8862	-32.3841	-2.1506	0
0.4267	-51.1591	-15.1506	-18.0142	-5.20936	6.60409	-5.98723	35.9534	-32.6851	-1.5517	0.311719
0.4273	-51.4506	-15.4809	-18.0142	-3.99553	9.33943	-4.16925	37.4815	-32.3841	-0.626124	0.311719
0.4280	53.8191	-15.7641	-19.2411	-2.77158	9.65679	-2.64214	32.2937	-30.846	0.272228	0
0.4287	133.181	-15.7641	-19.8449	-3.07504	6.60409	-2.03614	25.8862	-28.4051	-0.326673	0
0.4293	118.533	-14.2538	-18.3258	-3.69207	5.37999	-2.03614	26.7978	-27.8032	-0.925574	0
0.4300	111.501	-9.67559	-12.8339	-3.99553	6.90634	-2.64214	38.0914	-23.5232	-0.626124	0
0.4307	144.149	-2.97347	-4.88819	-4.60245	5.68224	-2.93302	49.6867	-14.679	-0.925574	0.311719
0.4313	185.361	4.6726	3.95339	-4.60245	6.60409	-1.72103	55.4844	-6.4367	-0.326673	0
0.4320	199.717	11.0915	10.3606	-3.3785	9.33943	-0.799914	53.9628	-2.17343	1.82393	0
0.4327	133.801	14.7258	13.1066	-2.77158	8.13044	-0.509036	47.5487	-1.55484	2.12338	0.311719
0.4333	31.2639	18.4072	15.2488	-3.07504	5.37999	0.0969592	41.4493	-3.3939	1.49725	0
0.4340	9.87473	20.5311	17.6832	-2.77158	5.37999	0.727194	37.7832	-3.07624	1.82393	0
0.4347	92.5893	19.0208	16.4757	-2.16467	5.98449	1.62407	34.1235	-1.2539	2.12338	0.311719
0.4353	190.863	14.4426	11.2759	-2.46813	2.3273	-0.509036	28.9358	-2.17343	2.12338	0.311719
0.4360	224.422	9.86438	7.32254	-2.46813	-0.423146	-4.16925	27.4077	-5.21624	2.42283	0
0.4367	171.004	6.51332	5.18031	-1.86121	0.498707	-4.77524	30.1557	-7.05529	3.02173	0
0.4373	93.5002	2.21831	1.20744	-1.86121	-0.725392	-5.38124	35.9534	-8.87763	3.02173	0
0.4380	39.171	-2.97347	-4.28447	-3.07504	-3.15848	-6.30235	46.0271	-10.7167	1.82393	0
0.4387	-43.5071	-8.16525	-9.17265	-3.3785	-2.85623	-6.61747	52.4347	-9.17857	1.49725	0
0.4393	-151.546	-15.4809	-15.872	-4.29899	-2.85623	-6.90834	53.9628	-11.0176	0.272228	0
0.4400	-228.759	-22.1831	-22.2792	-6.12985	-4.38258	-6.90834	53.6546	-18.0395	-1.85115	0
0.4407	-270.553	-23.6934	-23.5061	-6.43331	-3.77809	-4.77524	48.7685	-18.0395	-1.25225	0.623439
0.4413	-294.056	-21.5695	-19.2411	-5.52294	-1.64725	-4.46012	38.7013	-13.4586	-0.626124	-0.311719
0.4420	-326.741	-18.2184	-12.5223	-5.52294	-1.32989	-9.96256	23.4399	-13.4586	-1.5517	-1.5586
0.4427	-382.272	-11.1859	-3.05755	-3.3785	0.19646	-8.43545	10.3164	-11.0176	-0.0272228	-0.623439
0.4433	-430.189	-2.97347	7.01094	-2.77158	0.800954	-6.61747	3.29889	-8.5767	1.49725	-0.623439
0.4440	-416.743	5.56936	17.391	-4.60245	-1.02764	-11.1746	-3.71863	-8.5767	0.272228	-1.24688
0.4447	-237.322	17.1801	30.8092	-3.07504	1.72281	-7.22346	-6.15837	-2.77531	2.42283	-0.311719
0.4453	150.89	27.2332	41.1893	-1.86121	3.24915	-2.32702	-4.02688	3.32702	4.5462	0.311719
0.4460	503.976	30.3011	43.6237	-2.77158	-0.120899	-6.30235	-3.41039	5.14936	3.3484	0
0.4467	552.475	26.3365	38.7549	-2.16467	-0.120899	-8.43545	-3.71863	6.36983	4.24675	0.311719
0.4473	358.697	19.304	30.5171	-0.333804	2.62955	-6.30235	-6.15837	5.76795	6.6968	0.311719
0.4480	117.622	8.96762	19.5138	-0.94072	1.40545	-8.75057	-10.7362	-0.334374	5.17232	-0.935158
0.4487	-61.2161	-2.64309	7.92626	-2.16467	-2.55399	-13.6228	-11.3461	-10.399	1.49725	-1.24688
0.4493	-141.489	-9.67559	2.74595	-1.86121	-0.725392	-9.04145	-7.07655	-18.0395	2.42283	0
0.4500	-155.518	-13.6402	1.51904	-1.54764	3.24915	-2.64214	-1.88883	-22.9213	3.64785	0.311719
0.4507	-140.87	-20.0591	-3.36915	-3.99553	0.498707	-2.03614	-0.360714	-31.4646	0.598901	0
0.4513	-103.339	-25.5341	-7.63414	-4.60245	-0.120899	-1.72103	-0.0590259	-39.7069	-0.925574	0
0.4520	-89.8929	-27.3748	-7.94574	-2.77158	5.37999	-0.193918	2.99721	-46.7288	0.598901	0
0.4527	-111.574	-29.8291	-9.17265	-2.46813	4.7755	-0.799914	4.82701	-57.0944	0.598901	0
0.4533	-105.488	-32.8498	-11.9186	-3.07504	-0.120899	-2.32702	4.51876	-68.6972	-0.0272228	0
0.4540	-61.2161	-33.7938	-12.2107	-3.07504	0.800954	-2.03614	1.77734	-73.579	0.598901	0.311719
0.4547	-23.3933	-34.4073	-12.5223	-2.16467	2.93179	-0.509036	-4.63682	-72.9604	0.598901	0.311719
0.4553	-15.7413	-35.6345	-14.0414	-2.16467	-1.02764	-0.799914	-10.4345	-69.6167	0.272228	0
0.4560	4.08107	-36.2009	-14.6646	-2.16467	-5.30443	-2.03614	-13.1759	-62.2939	0.898351	0
0.4567	63.293	-35.3041	-13.4376	-1.24418	-6.83078	-3.24813	-11.0444	-55.573	1.49725	0.311719
0.4573	110.59	-32.8498	-11.607	-0.94072	-8.96162	-5.69635	-0.970649	-48.8521	1.82393	0
0.4580	133.801	-25.5341	-4.59606	0.283227	-8.96162	-6.30235	7.26675	-37.5669	3.02173	0
0.4587	188.713	-16.7081	3.95339	1.1936	-10.1857	-7.22346	0.550909	-26.5827	3.64785	0
0.4593	270.808	-9.67559	10.6722	1.49706	-12.6188	-8.75057	-8.60467	-15.5986	3.9473	0
0.4600	278.424	-4.767	15.2488	2.72101	-11.4098	-7.82946	-8.60467	-3.69483	4.24675	0.311719
0.4607	190.863	-4.48381	14.6451	2.41755	-12.0143	-5.09036	-4.63682	3.02609	3.64785	0.311719
0.4613	101.116	-6.9381	11.5875	1.1936	-16.8956	-3.85413	-1.88883	5.14936	2.42283	0.311719
0.4620	20.2596	-10.9027	8.52998	0.586685	-21.4746	-3.56325	-2.19052	5.46702	1.82393	0
0.4627	-97.8364	-15.1506	4.57659	0.283227	-24.2251	-3.56325	-1.58058	4.84842	1.1978	0
0.4633	-196.729	-16.3777	3.34967	-0.0303458	-28.1845	-3.56325	4.21707	5.14936	1.82393	0.311719
0.4640	-234.552	-13.3098	6.40722	-0.333804	-34.2899	-4.46012	9.4048	5.76795	1.49725	0.311719
0.4647	-294.675	-7.55168	13.4182	0.283227	-37.6448	-4.46012	9.4048	6.68748	2.72228	0
0.4653	-352.648	-2.3599	21.3444	1.49706	-40.6975	-3.24813	7.26675	8.50982	4.5462	0
0.4660	-307.173	-1.41594	22.8829	0.890143	-45.5788	-2.93302	6.04688	5.76795	3.9473	0
0.4667	-219.613	-2.02951	21.9676	1.1936	-47.1052	-2.03614	9.09655	1.80562	4.5462	0
0.4673	-155.809	-1.41594	22.2598	2.11409	-46.5007	0.0969592	11.8445	2.70843	6.39735	0.311719
0.4680	-82.5688	-1.13275	21.9676	1.49706	-49.2511	1.62407	11.5428	0.585155	6.07068	0
0.4687	-44.1266	-2.97347	20.4291	0.890143	-53.5128	0.412077	10.9329	-6.73764	4.24675	0
0.4693	-73.4228	-4.20062	18.9101	1.1936	-55.0392	-0.799914	10.3164	-10.399	4.5462	0.311719
0.4700	-120.428	-5.99414	15.8525	1.49706	-56.2633	-0.509036	10.3164	-8.5767	5.47178	0
0.4707	-153.988	-10.2892	10.6722	1.49706	-59.0137	0.412077	11.5428	-10.0981	5.17232	0
0.4713	-155.809	-14.2538	6.09563	1.49706	-58.7115	1.33319	12.7627	-14.3781	4.5462	0
0.4720	-138.137	-18.2184	1.51904	1.49706	-57.4874	-2.03614	9.4048	-21.0823	3.64785	-1.24688
0.4727	-121.047	-21.8999	-3.05755	0.890143	-59.3159	-4.16925	2.07902	-26.2818	1.82393	-1.24688
0.4733	-111.865	-22.4662	-5.19978	-0.0303458	-60.8423	1.01807	-1.2789	-27.5023	1.82393	0.311719
0.4740	-122.578	-22.4662	-4.88819	0.586685	-58.4092	4.67828	1.46909	-27.5023	3.64785	0.311719
0.4747	-138.428	-23.6934	-6.1151	1.49706	-57.4874	4.9934	3.90883	-29.6255	4.5462	0
0.4753	-111.574	-24.9205	-7.63414	0.890143	-60.2378	4.3874	4.51876	-32.3841	3.3484	0.311719
0.4760	-43.2156	-23.6934	-7.63414	0.890143	-60.8423	3.75717	7.26675	-30.846	2.72228	0.311719
0.4767	1.34821	-22.4662	-7.63414	1.49706	-58.7115	3.75717	9.4048	-26.8837	2.72228	0
0.4773	-1.71259	-22.7966	-9.17265	1.49706	-56.2633	3.75717	7.87668	-24.4427	2.72228	0
0.4780	-16.6522	-22.1831	-10.088	1.49706	-53.5128	4.67828	6.96506	-20.4804	2.72228	0
0.4787	-22.1544	-19.7288	-10.088	1.49706	-53.2106	4.3874	5.43694	-14.3781	2.42283	0.623439
0.4793	-18.5106	-17.3217	-11.607	0.586685	-55.3565	2.2543	-2.80045	-8.87763	0.898351	0.311719
0.4800	-9.32816	-15.7641	-12.8339	0.890143	-53.2106	2.8603	-7.98818	-3.07624	-0.0272228	0
0.4807	2.87861	-15.7641	-13.126	1.49706	-51.382	3.75717	-0.360714	-0.334374	0.272228	0.311719
0.4813	28.2031	-17.6048	-13.7492	1.1936	-52.3038	2.54518	8.18493	-0.952966	0.272228	0.311719
0.4820	66.0259	-20.0591	-13.7492	0.890143	-50.7775	2.54518	11.5428	-0.0334374	0.598901	0.311719
0.4827	89.5285	-20.6727	-11.607	1.49706	-46.5007	3.75717	16.1206	2.70843	1.82393	0
0.4833	73.9694	-19.7288	-11.0033	1.80052	-46.5007	3.15117	15.2025	3.02609	0.598901	0
0.4840	27.8752	-18.5016	-12.8339	0.586685	-48.9489	0.412077	7.26675	2.70843	-0.626124	0.311719
0.4847	-23.0653	-16.3777	-12.2107	1.1936	-44.3698	0.727194	3.60714	5.76795	0.898351	0.311719
0.4853	-59.3941	-14.537	-11.0033	3.63138	-41.6194	1.01807	1.1674	9.12841	1.49725	0.311719
0.4860	-76.4836	-13.9234	-11.2954	3.94495	-44.6721	-0.193918	-1.2789	9.12841	1.82393	0.311719
0.4867	-78.3055	-12.4131	-10.088	5.15879	-41.6194	1.62407	0.249221	9.73029	3.64785	0.311719
0.4873	-61.5076	-9.95878	-7.94574	7.91014	-34.9095	3.75717	4.21707	13.0907	6.07068	0
0.4880	-1.42109	-7.55168	-7.63414	7.91014	-36.4359	1.93918	4.82701	13.0907	6.6968	0.311719
0.4887	100.824	-2.97347	-4.59606	7.30322	-40.093	0.412077	1.1674	11.8703	6.07068	0.311719
0.4893	154.534	3.44545	1.83064	8.82051	-36.1185	1.62407	-2.49876	14.6121	6.6968	0
0.4900	123.124	8.96762	7.32254	10.0445	-33.9877	1.62407	-8.90636	18.5912	6.6968	0
0.4907	94.1197	12.9322	11.2759	9.43754	-35.514	-0.799914	-17.1438	19.8117	5.77123	0.311719
0.4913	78.2327	15.3393	15.8525	10.3479	-31.2372	-0.193918	-16.2321	21.3331	7.92182	0
0.4920	44.6731	13.829	15.2488	12.7958	-26.3559	0.0969592	-16.5338	22.8545	10.6713	0
0.4927	3.17012	9.53399	10.0685	12.4822	-29.1064	-2.64214	-25.6894	18.5912	9.4463	0.311719
0.4933	-46.5679	6.79651	6.40722	12.1788	-30.3305	-2.64214	-31.4871	14.9298	8.82018	0
0.4940	-109.132	2.83188	3.03808	13.0993	-25.4492	-0.509036	-31.4871	13.7093	10.0452	0
0.4947	-168.344	-3.58705	-3.05755	13.0993	-23.3032	-1.11503	-31.4871	9.42935	9.74575	0
0.4953	-195.491	-8.77883	-7.94574	12.1788	-24.5273	-2.93302	-36.983	3.32702	7.92182	0
0.4960	-158.87	-11.5163	-9.46478	12.4822	-19.3438	-2.03614	-41.8625	2.10656	7.62237	0
0.4967	-79.5444	-13.9234	-10.6917	12.7958	-15.6715	-1.43015	-41.8625	0.585155	8.22127	0
0.4973	-34.6527	-15.1506	-11.2954	11.5719	-17.5152	-3.24813	-41.2526	-2.47437	6.6968	0
0.4980	-12.0975	-14.2538	-8.86106	10.6514	-16.8956	-2.93302	-41.2526	-5.83483	5.17232	0
0.4987	29.1141	-12.1299	-6.4267	10.9649	-14.4625	-0.799914	-39.4228	-9.79716	4.87287	0
0.4993	43.7622	-11.1859	-5.51138	10.6514	-14.7648	-1.43015	-37.2913	-11.3186	4.24675	0.311719
0.5000	26.0533	-9.95878	-3.97287	10.3479	-13.2384	-2.32702	-35.1532	-9.17857	3.9473	-0.311719
0.5007	11.1136	-6.9381	-1.53851	11.2684	-8.35713	0.727194	-27.5192	-5.51717	5.17232	0
0.5013	14.4659	-5.38057	-1.53851	10.0445	-6.83078	1.33319	-22.0298	-3.69483	4.24675	0
0.5020	31.2639	-6.9381	-4.59606	7.60668	-8.05488	-4.16925	-23.8596	-3.3939	-0.0272228	-1.5586
0.5027	38.26	-7.55168	-5.51138	7.60668	-6.21117	-3.56325	-24.4695	-0.952966	-1.25225	-1.24688
0.5033	35.1992	-6.60772	-3.97287	8.2136	-3.77809	3.15117	-23.8596	4.24655	0.272228	0.311719
0.5040	26.9642	-7.22129	-3.05755	6.98965	-4.08033	4.3874	-20.8099	6.36983	-0.326673	0
0.5047	17.1988	-8.77883	-2.45383	6.98965	-2.25174	4.07229	-13.7924	6.36983	-0.326673	-0.311719
0.5053	10.7857	-10.5723	-3.36915	8.2136	1.40545	5.28428	-7.68649	8.20888	0.598901	0
0.5060	-10.8586	-12.4131	-6.1151	7.91014	1.1032	4.3874	-5.24675	8.50982	-0.326673	0.311719
0.5067	-44.1266	-13.0266	-7.34202	7.60668	0.19646	3.75717	-2.49876	9.42935	-1.25225	-0.311719
0.5073	-63.6574	-11.1859	-4.59606	7.60668	2.02505	4.07229	0.550909	11.8703	-0.626124	0
0.5080	-62.7465	-9.3452	-1.53851	6.98965	2.93179	4.07229	2.07902	14.0103	-0.326673	0
0.5087	-59.3941	-7.55168	-1.85011	5.46224	0.800954	3.46629	1.77734	16.7521	-1.85115	0
0.5093	-67.0097	-4.48381	0.60372	6.07928	2.93179	4.07229	2.99721	21.9349	-2.45005	0
0.5100	-46.2764	-0.519178	4.26499	7.60668	7.81308	5.5994	4.82701	27.4354	-1.5517	0
0.5107	8.05283	3.16227	5.78403	6.68619	7.20859	4.9934	3.60714	31.6987	-1.5517	0.311719
0.5113	44.3816	5.89975	7.92626	5.77582	6.60409	4.07229	2.38727	33.8387	-1.85115	0.311719
0.5120	55.3495	6.79651	8.84158	6.07928	7.81308	4.67828	1.46909	33.5377	-2.45005	0
0.5127	66.6453	4.38941	6.40722	5.15879	6.60409	4.07229	-0.0590259	30.7959	-3.97452	0
0.5133	88.909	0.377584	2.74595	3.94495	5.07775	3.75717	0.550909	24.9945	-4.60065	0
0.5140	108.148	-2.64309	0.60372	4.24841	9.03718	4.9934	3.29889	18.5912	-3.67507	0
0.5147	92.8808	-5.71096	-1.85011	4.55187	10.8658	4.9934	3.90883	14.6121	-3.07617	0
0.5153	36.7296	-9.95878	-6.4267	4.24841	6.90634	2.54518	0.859155	10.3489	-4.60065	0.311719
0.5160	-1.09314	-12.7435	-9.17265	3.63138	6.60409	2.2543	1.46909	6.68748	-4.9001	0
0.5167	11.1136	-11.7995	-8.54946	4.24841	9.65679	3.15117	4.51876	7.28936	-3.67507	0
0.5173	10.7857	-11.7995	-9.17265	4.55187	8.13044	1.93918	4.51876	10.3489	-3.67507	0
0.5180	-43.8351	-12.7435	-11.607	3.94495	8.13044	1.62407	3.90883	12.4889	-3.97452	0
0.5187	-87.7794	-12.1299	-12.2107	4.24841	11.1831	2.8603	5.43694	14.3112	-2.77672	0
0.5193	-56.0418	-10.9027	-11.607	4.24841	10.2613	2.8603	5.43694	15.2307	-3.67507	0
0.5200	32.1749	-8.44844	-10.6917	3.32792	9.03718	2.54518	5.1287	14.6121	-4.3012	0
0.5207	112.74	-3.25666	-7.63414	3.63138	11.4854	3.75717	7.26675	14.6121	-3.07617	0.311719
0.5213	132.89	3.16227	-2.14223	4.24841	13.0117	4.9934	8.18493	21.3331	-2.1506	0.311719
0.5220	102.646	8.63723	2.74595	3.02446	9.65679	3.75717	6.65681	27.7363	-3.37562	0.311719
0.5227	44.0537	11.3747	4.86871	2.72101	11.1831	4.3874	6.96506	27.1345	-3.07617	0.311719
0.5233	-31.9198	11.9883	5.18031	2.72101	15.1426	6.20539	8.79486	26.8168	-2.77672	0
0.5240	-34.6527	13.829	6.09563	1.80052	14.2358	6.52051	10.9329	29.2577	-4.3012	0
0.5247	90.1479	15.0562	7.61467	1.1936	13.314	6.52051	11.8445	31.0968	-5.52622	0
0.5253	190.863	11.7051	5.78403	0.586685	13.314	7.1265	12.4545	27.7363	-6.12512	0
0.5260	140.505	7.41008	2.12276	-0.94072	11.1831	6.81139	12.4545	20.7145	-7.0507	0.311719
0.5267	39.7904	5.56936	0.915318	-1.86121	10.5635	5.5994	11.8445	14.3112	-7.35015	0.623439
0.5273	19.9681	4.6726	1.20744	-1.24418	14.8403	6.52051	12.1528	9.42935	-6.42457	0.311719
0.5280	57.4994	0.70797	-2.14223	-1.24418	15.7622	7.7325	13.0644	1.48796	-6.42457	-0.311719
0.5287	82.8239	-4.767	-8.25734	-3.3785	11.1831	6.20539	10.9329	-7.9581	-8.57517	0
0.5293	81.9129	-5.71096	-10.6917	-3.99553	11.4854	6.20539	9.4048	-12.539	-8.87462	0.311719
0.5300	55.058	-4.767	-9.77637	-3.07504	14.5381	6.81139	10.6247	-12.539	-7.94905	0
0.5307	12.3161	-5.09738	-9.46478	-3.07504	13.9185	6.20539	10.0147	-14.679	-7.35015	0
0.5313	-34.9806	-3.25666	-7.94574	-2.77158	15.1426	7.44162	9.70649	-15.2976	-6.42457	0.311719
0.5320	-71.273	-1.13275	-6.4267	-2.16467	16.6689	4.67828	9.4048	-14.98	-6.42457	-0.935158
0.5327	-84.0992	-1.74633	-7.94574	-1.86121	13.314	-0.509036	5.73863	-18.3404	-6.72402	-1.24688
0.5333	-61.8355	-3.87023	-10.088	-1.24418	12.3921	2.8603	3.60714	-23.2223	-5.82567	-0.311719
0.5340	-20.0045	-6.32453	-11.607	-0.94072	14.8403	7.7325	3.90883	-31.1637	-3.37562	0.311719
0.5347	11.1136	-8.16525	-13.7492	-1.24418	13.6162	6.81139	2.07902	-39.0883	-3.07617	0
0.5353	27.2922	-8.77883	-15.5799	-1.24418	11.4854	4.9934	-1.2789	-39.406	-3.37562	-0.311719
0.5360	27.2922	-7.55168	-15.2683	-0.94072	13.314	5.91451	-0.668961	-31.1637	-2.77672	0
0.5367	18.1097	-6.32453	-14.353	-1.24418	14.2358	6.20539	1.1674	-22.3028	-3.37562	0.311719
0.5373	15.0854	-4.20062	-13.4376	-1.86121	14.2358	5.5994	0.859155	-17.4209	-3.37562	0
0.5380	18.1097	-2.02951	-12.2107	-1.24418	16.6689	6.20539	1.46909	-13.4586	-2.77672	-0.311719
0.5387	20.879	-0.802366	-11.607	-0.94072	16.6689	4.9934	2.07902	-9.79716	-2.45005	0
0.5393	21.79	1.93512	-11.0033	-1.24418	15.4448	3.46629	2.38727	-6.73764	-1.5517	0.311719
0.5400	22.0815	5.56936	-8.54946	-0.333804	18.1953	4.07229	5.73863	-3.69483	0.272228	0.311719
0.5407	23.6119	9.2508	-5.51138	1.49706	20.6435	4.3874	7.87668	0.267499	1.82393	0.311719
0.5413	27.5837	10.7611	-4.88819	2.11409	17.2734	3.46629	8.48662	1.80562	2.42283	0.311719
0.5420	28.8226	10.7611	-5.51138	1.80052	12.7095	1.33319	9.4048	2.10656	2.42283	0
0.5427	25.7618	12.3187	-4.59606	2.41755	10.5635	0.412077	10.3164	4.24655	3.9473	0
0.5433	21.79	14.7258	-3.68075	3.02446	5.68224	1.33319	12.4545	7.28936	4.87287	0.311719
0.5440	16.6158	15.0562	-3.36915	3.02446	1.1032	2.2543	14.5925	8.81076	4.87287	0
0.5447	11.1136	15.0562	-3.97287	3.32792	-0.120899	1.93918	15.8124	10.3489	5.17232	0
0.5453	4.08107	15.3393	-4.88819	3.32792	-2.25174	1.33319	16.1206	11.5693	5.17232	0.311719
0.5460	-7.21475	15.6697	-5.19978	2.72101	-5.90893	1.33319	14.5925	13.7093	3.9473	0
0.5467	-16.0692	16.8969	-5.8035	2.72101	-6.52853	1.33319	13.6743	15.8326	3.9473	0
0.5473	-19.0936	17.1801	-5.19978	3.02446	-2.55399	1.33319	13.0644	16.7521	4.5462	0
0.5480	-25.8346	17.5105	-4.28447	2.72101	2.02505	1.93918	12.7627	17.0531	5.17232	0.311719
0.5487	-31.9198	19.304	-4.28447	1.80052	3.5514	2.2543	12.7627	17.6717	3.9473	0
0.5493	-25.8346	22.0887	-2.45383	1.80052	2.3273	2.8603	13.0644	18.8921	3.9473	0
0.5500	-19.713	22.3718	-1.22692	2.11409	0.498707	3.15117	11.8445	17.6717	4.5462	-0.311719
0.5507	-25.8346	20.8615	-2.76543	1.80052	1.1032	-0.509036	10.0147	13.7093	3.64785	-1.24688
0.5513	-37.422	20.8615	-3.05755	2.11409	12.3921	-2.03614	9.70649	12.7898	3.64785	-0.311719
0.5520	-49.6287	22.3718	-1.22692	2.41755	24.6029	2.2543	9.09655	12.4889	4.24675	0.311719
0.5527	-45.3655	22.655	-0.623195	0.890143	22.7743	4.9934	8.18493	9.42935	2.72228	0.311719
0.5533	-22.4459	23.2686	-0.623195	-0.0303458	19.1171	4.9934	8.18493	6.36983	0.898351	0.311719
0.5540	-19.0936	23.2686	-0.0194748	-1.24418	20.6435	6.52051	8.48662	3.9289	-0.0272228	0.311719
0.5547	-33.7417	21.4751	-1.53851	-2.46813	18.4975	7.1265	8.18493	-0.334374	-0.626124	0
0.5553	-38.0414	18.6904	-4.28447	-3.07504	13.0117	5.28428	5.43694	-3.3939	-1.85115	0
0.5560	-27.6565	17.5105	-4.88819	-2.46813	13.0117	4.67828	2.99721	-2.17343	-1.85115	0
0.5567	-13.6279	17.7936	-3.97287	-1.54764	15.1426	6.20539	2.68896	-0.952966	-0.626124	0
0.5573	-4.44545	17.1801	-4.59606	-1.86121	12.0899	6.20539	3.60714	-1.85578	-0.626124	0
0.5580	-0.473696	15.9529	-5.51138	-2.46813	9.03718	5.91451	3.60714	-1.85578	-0.925574	0
0.5587	1.63972	15.6697	-5.8035	-2.16467	9.95903	5.5994	1.46909	-0.952966	-1.25225	0
0.5593	7.14187	15.0562	-7.03042	-2.16467	10.8658	4.67828	-1.58058	-0.334374	-1.5517	0
0.5600	16.9073	16.2833	-6.1151	-2.16467	12.3921	4.3874	-1.2789	1.48796	-1.25225	-0.311719
0.5607	25.7618	18.6904	-3.05755	-0.94072	14.8403	5.5994	-0.970649	3.02609	0.272228	-0.311719
0.5613	29.4056	18.6904	-3.68075	-0.333804	14.5381	4.3874	-3.71863	1.80562	1.49725	0
0.5620	26.6727	16.8969	-5.51138	-0.637262	12.0899	-2.64214	-5.24675	-0.952966	1.49725	-0.935158
0.5627	19.6402	17.5105	-3.68075	1.80052	13.9185	-5.98723	-4.63682	0.267499	3.64785	-1.5586
0.5633	6.23092	19.0208	-3.05755	3.32792	16.0644	-1.43015	-4.9385	3.32702	5.77123	-0.623439
0.5640	-9.32816	18.6904	-4.28447	2.11409	14.8403	0.727194	-7.07655	5.14936	5.47178	0.311719
0.5647	-20.9519	19.6344	-2.76543	2.41755	17.5908	0.0969592	-7.68649	7.59029	5.77123	0.311719
0.5653	-31.3004	21.1447	-0.934793	2.72101	18.1953	0.412077	-7.98818	8.50982	6.07068	0.311719
0.5660	-43.5071	21.1447	-1.85011	2.41755	13.9185	-0.509036	-10.1262	7.28936	5.47178	0.311719
0.5667	-55.4224	22.655	-0.311598	3.63138	16.6689	-1.11503	-11.0444	7.28936	6.6968	0
0.5673	-58.4832	24.4958	1.51904	5.15879	23.9984	-0.193918	-10.4345	7.90795	8.22127	0
0.5680	-42.3047	24.2126	0.60372	5.46224	25.2225	-0.193918	-10.7362	6.98842	7.62237	0
0.5687	0.109314	23.8822	1.20744	5.46224	25.827	-0.193918	-8.90636	7.59029	7.62237	0.311719
0.5693	44.6731	23.8822	1.83064	4.85533	31.0105	0.727194	-6.46662	8.81076	7.62237	0.311719
0.5700	62.0541	23.599	1.20744	4.55187	32.2346	1.33319	-4.9385	9.42935	6.39735	0.311719
0.5707	59.0298	24.2126	1.83064	3.63138	28.8797	1.93918	-2.19052	11.8703	5.17232	0
0.5713	57.4994	25.1093	3.03808	3.02446	24.6029	3.15117	-0.970649	13.7093	4.5462	0
0.5720	61.4711	23.599	1.83064	1.80052	17.893	2.54518	-2.49876	11.2684	3.9473	0
0.5727	51.9972	21.1447	0.60372	0.586685	14.8403	1.93918	-2.80045	8.81076	2.42283	0
0.5733	26.3812	20.5311	0.915318	0.890143	17.2734	3.75717	-0.360714	9.42935	1.82393	0
0.5740	9.87473	20.8615	1.83064	0.586685	15.1426	3.46629	-0.668961	10.0312	2.12338	0.311719
0.5747	0.728763	20.2479	2.12276	0.586685	12.0899	1.62407	-4.32857	7.90795	2.42283	0
0.5753	-24.5957	19.6344	2.43436	1.49706	13.314	2.8603	-4.9385	5.76795	3.3484	-0.311719
0.5760	-57.5722	18.4072	1.20744	0.890143	12.3921	2.2543	-5.85668	4.24655	2.72228	0
0.5767	-74.3338	16.5665	-0.311598	-0.637262	12.0899	1.01807	-7.98818	2.70843	0.898351	0.311719
0.5773	-75.8642	16.2833	-0.0194748	-0.0303458	16.6689	3.46629	-5.54844	4.54749	1.49725	0
0.5780	-71.273	15.6697	-0.0194748	-0.0303458	17.893	4.67828	-4.02688	6.36983	1.82393	0.311719
0.5787	-72.5119	14.1122	-2.14223	-1.54764	13.314	1.93918	-7.68649	4.54749	-0.0272228	0.311719
0.5793	-80.4554	13.4986	-1.85011	-0.637262	14.2358	1.01807	-9.51629	3.32702	0.898351	0
0.5800	-75.5727	13.4986	-0.934793	0.890143	19.4194	1.93918	-8.90636	3.02609	3.3484	0
0.5807	-27.948	12.3187	-2.14223	-0.0303458	20.3261	0.412077	-10.1262	0.267499	2.42283	0
0.5813	43.7622	12.6019	-1.22692	-0.94072	23.9984	1.62407	-9.51629	-0.0334374	0.598901	-0.311719
0.5820	60.5602	13.2154	0.292123	-1.24418	28.5774	3.46629	-7.07655	1.80562	0.598901	0
0.5827	10.7857	11.0915	-2.14223	-2.16467	26.7488	1.62407	-8.90636	0.585155	0.272228	-0.311719
0.5833	-47.1874	8.02366	-3.97287	-2.16467	27.0511	1.01807	-9.51629	-0.952966	0.272228	-0.311719
0.5840	-99.9862	7.1269	-3.68075	-1.54764	31.0105	2.54518	-6.76831	1.18703	1.1978	0
0.5847	-156.137	7.1269	-3.05755	-1.86121	29.1819	1.33319	-7.37824	1.18703	0.898351	0
0.5853	-151.874	7.74047	-2.14223	-2.16467	25.2225	0.412077	-9.2146	0.585155	0.272228	0
0.5860	-77.3946	8.63723	-1.53851	-1.24418	24.9051	1.01807	-8.60467	1.48796	2.12338	0
0.5867	-48.3898	7.1269	-3.05755	-1.54764	22.4721	0.412077	-7.68649	0.267499	2.72228	0
0.5873	-67.6292	5.56936	-3.97287	-1.24418	20.0239	-0.193918	-7.98818	-0.635311	3.02173	0
0.5880	-22.4459	7.1269	-1.85011	-0.333804	21.8524	0.0969592	-7.98818	2.10656	4.87287	0
0.5887	51.7057	8.96762	-0.311598	-0.333804	19.4194	-1.11503	-9.2146	4.24655	4.5462	0
0.5893	77.6496	9.2508	0.60372	-0.637262	14.5381	-3.24813	-11.956	3.9289	3.9473	0
0.5900	94.7391	10.1476	3.03808	0.586685	16.0644	-2.64214	-11.6543	4.84842	6.07068	0
0.5907	113.942	12.3187	4.86871	1.49706	17.893	-1.43015	-8.90636	6.36983	7.62237	0
0.5913	83.7348	12.3187	4.86871	0.890143	17.2734	-2.03614	-9.51629	5.46702	6.39735	0
0.5920	5.31997	8.35404	2.74595	-0.333804	18.7998	-6.90834	-10.4345	3.02609	5.17232	-1.24688
0.5927	-7.79776	6.18294	1.20744	-1.24418	20.6435	-10.5686	-9.2146	2.70843	4.24675	-1.5586
0.5933	66.0259	6.18294	0.915318	-0.333804	20.0239	-6.30235	-10.4345	2.70843	5.17232	0
0.5940	82.8239	4.95579	0.60372	0.890143	21.8524	-4.77524	-10.7362	2.40749	6.99625	-0.311719
0.5947	53.8191	4.38941	0.60372	1.49706	22.7743	-9.96256	-9.2146	3.02609	8.22127	-1.24688
0.5953	55.058	4.38941	0.292123	1.80052	18.4975	-10.5686	-11.6543	2.70843	8.22127	-0.935158
0.5960	46.495	3.44545	-0.0194748	2.41755	18.1953	-5.09036	-14.0941	1.80562	8.22127	0.311719
0.5967	15.6684	3.16227	0.915318	2.72101	20.0239	-2.93302	-11.0444	1.48796	8.52072	0.311719
0.5973	-13.9194	2.54869	0.60372	1.49706	16.3667	-3.56325	-8.29642	1.80562	6.07068	0
0.5980	-26.4176	1.60473	-0.311598	0.586685	15.7622	-1.72103	-6.46662	1.18703	4.5462	0
0.5987	-33.1587	0.991158	-1.22692	0.890143	16.6689	0.727194	-4.63682	-0.334374	5.17232	0
0.5993	-27.3286	0.094396	-2.76543	-0.637262	12.3921	-0.193918	-6.46662	-3.3939	3.3484	0
0.6000	25.1423	-0.519178	-3.68075	-2.46813	9.95903	0.727194	-7.37824	-6.4367	0.898351	-0.311719
0.6007	76.1192	-5.38057	-2.45383	-2.46813	12.0899	2.8603	-4.9385	-7.35623	0.272228	0
0.6013	69.3782	-18.2184	-2.14223	-3.3785	11.1831	2.2543	-5.85668	-6.73764	-1.5517	0.311719
0.6020	47.1145	-28.2716	-3.68075	-4.9059	8.73493	1.62407	-7.98818	-5.51717	-2.77672	0.311719
0.6027	45.5841	-33.4634	-3.68075	-4.60245	11.4854	3.46629	-7.07655	-4.29671	-2.45005	0
0.6033	48.3534	-42.6198	-3.36915	-6.12985	13.0117	5.28428	-5.85668	-3.3939	-4.3012	0
0.6040	51.0863	-28.602	-3.36915	-8.56763	10.2613	5.28428	-5.54844	-3.69483	-7.35015	0.311719
0.6047	58.4103	16.2833	-2.45383	-7.96071	9.95903	5.91451	-5.54844	-3.3939	-7.35015	0
0.6053	59.6128	34.2657	-2.14223	-6.12985	9.33943	4.67828	-7.68649	-3.3939	-4.60065	0
0.6060	51.3778	23.8822	-2.76543	-4.60245	7.20859	1.01807	-11.3461	-3.69483	-2.45005	0
0.6067	31.8469	15.6697	-2.45383	-2.77158	8.73493	0.727194	-11.3461	-1.85578	-0.925574	0
0.6073	2.87861	5.89975	-2.14223	-1.54764	9.65679	1.01807	-11.0444	-0.0334374	0.272228	-0.311719
0.6080	-7.21475	4.95579	-2.76543	-1.24418	7.20859	-0.509036	-12.8742	-0.334374	1.1978	0
0.6087	19.9681	9.86438	-2.45383	-0.333804	6.90634	-1.11503	-13.1759	-0.0334374	2.42283	0
0.6093	35.1992	2.21831	-2.14223	0.890143	6.90634	-2.03614	-13.7924	-0.0334374	3.3484	0
0.6100	1.34821	-5.09738	-2.45383	0.586685	5.37999	-2.93302	-15.314	-0.635311	3.64785	0
0.6107	-41.6852	-3.87023	-1.53851	0.890143	5.68224	-1.72103	-13.1759	0.886091	3.9473	0.311719
0.6113	-68.2486	-1.74633	-0.311598	2.11409	5.07775	-1.11503	-9.82454	3.02609	4.5462	0.311719
0.6120	-76.4836	-1.13275	-0.934793	1.49706	1.1032	-2.03614	-9.2146	2.10656	3.02173	0.311719
0.6127	-51.7421	-1.13275	-0.934793	0.283227	0.19646	-1.43015	-8.60467	2.40749	1.49725	0
0.6133	-18.5106	0.377584	0.292123	0.890143	2.02505	0.412077	-6.46662	4.84842	1.82393	-0.311719
0.6140	-5.0649	0.377584	-0.311598	0.283227	1.40545	0.412077	-4.32857	4.24655	1.49725	-0.311719
0.6147	10.2027	-0.802366	-1.22692	-0.637262	1.72281	1.01807	-0.970649	3.9289	0.898351	0.311719
0.6153	40.4099	-0.519178	-0.0194748	-0.0303458	2.62955	2.2543	2.68896	6.06889	0.272228	0.311719
0.6160	62.0541	-0.188792	0.915318	-0.637262	0.19646	1.01807	2.07902	6.06889	-0.925574	0.311719
0.6167	61.4711	0.377584	0.60372	-0.94072	-1.64725	-1.11503	0.249221	3.62796	-1.85115	0.311719
0.6173	55.969	1.32154	0.60372	-0.0303458	0.19646	-0.509036	1.46909	3.02609	-1.25225	0
0.6180	70.3256	-2.64309	-0.311598	-0.0303458	0.19646	0.412077	2.68896	3.32702	-0.626124	0
0.6187	85.2652	-9.3452	-2.76543	-1.54764	-2.25174	-0.193918	1.77734	2.40749	-1.5517	0
0.6193	64.204	-11.7995	-3.68075	-2.16467	-2.55399	0.412077	0.859155	1.80562	-3.37562	0
0.6200	16.9073	-10.9027	-3.97287	-2.77158	-2.85623	0.727194	0.859155	1.18703	-5.19955	-0.311719
0.6207	-40.7743	-10.5723	-4.59606	-4.29899	-4.68483	1.62407	1.46909	0.585155	-6.42457	0.311719
0.6213	-98.7473	-9.95878	-3.68075	-4.60245	-3.47584	1.33319	1.77734	1.80562	-6.12512	0
0.6220	-135.987	-9.3452	-3.05755	-3.69207	-1.94949	-3.85413	0.550909	2.10656	-6.12512	-1.24688
0.6227	-155.226	-9.06201	-2.14223	-2.46813	-2.55399	-4.77524	0.859155	1.80562	-4.60065	-0.935158
0.6233	-151.255	-7.83487	-0.934793	-1.24418	-3.15848	-0.193918	1.46909	3.02609	-2.1506	0.311719
0.6240	-107.602	-8.44844	-0.934793	-0.94072	-3.47584	0.727194	1.46909	3.32702	-2.1506	0
0.6247	-61.5076	-8.44844	-0.623195	-1.24418	-3.47584	1.33319	2.38727	2.70843	-3.67507	0
0.6253	-57.5722	-3.87023	1.51904	-2.46813	-4.08033	2.8603	3.60714	3.32702	-5.52622	0
0.6260	-63.3659	0.70797	4.57659	-2.77158	-3.47584	2.2543	4.21707	6.36983	-6.12512	0
0.6267	-2.33204	3.44545	7.32254	-1.86121	-1.94949	2.2543	3.90883	9.73029	-4.9001	0
0.6273	127.388	4.38941	8.84158	-1.24418	-1.94949	1.93918	3.29889	10.9508	-3.97452	0
0.6280	209.155	-4.48381	8.52998	-1.54764	-3.15848	1.01807	2.38727	10.3489	-4.3012	0
0.6287	186.891	-15.7641	6.40722	-0.0303458	-4.38258	0.727194	1.77734	9.12841	-3.97452	0
0.6293	115.472	-12.1299	2.43436	1.80052	-5.60668	0.412077	2.68896	7.28936	-3.37562	0.623439
0.6300	47.406	-1.13275	-0.311598	2.11409	-6.52853	-0.193918	2.68896	4.54749	-3.07617	0.311719
0.6307	13.555	-0.519178	-0.311598	4.85533	-4.68483	0.412077	1.77734	1.48796	-2.77672	0
0.6313	10.4942	-6.32453	-0.623195	9.741	-3.47584	1.01807	1.77734	-2.47437	-2.45005	0
0.6320	10.4942	-10.5723	-2.14223	12.1788	-5.90893	-0.193918	0.550909	-7.9581	-2.77672	0
0.6327	10.4942	-17.6048	-4.88819	12.4822	-6.52853	-1.11503	-0.668961	-13.4586	-2.1506	0
0.6333	17.8182	-26.4781	-6.1151	11.8753	-5.00219	0.0969592	-0.0590259	-16.5181	-1.5517	0.311719
0.6340	23.9398	-34.4073	-6.4267	10.6514	-5.30443	0.412077	0.859155	-19.2599	-2.77672	0
0.6347	20.5511	-31.3395	-5.51138	6.07928	-3.77809	0.727194	1.1674	-20.7814	-3.07617	0
0.6353	12.644	5.89975	-4.88819	-2.16467	-2.85623	0.727194	1.1674	-20.1795	-1.85115	0.311719
0.6360	6.23092	46.7732	-4.88819	-3.99553	-5.30443	-0.509036	0.859155	-18.6414	-1.85115	0.311719
0.6367	1.96766	33.369	-4.28447	3.32792	-4.08033	0.0969592	2.07902	-17.4209	-0.326673	0.311719
0.6373	2.87861	-4.48381	-3.68075	-0.94072	-2.25174	1.62407	2.07902	-16.5181	1.1978	0.311719
0.6380	12.0246	-30.7259	-3.05755	-21.6972	-4.68483	0.0969592	1.1674	-14.679	-0.925574	0.311719
0.6387	20.2596	-40.4959	-2.14223	-28.4037	-4.38258	-1.11503	1.1674	-12.539	-0.326673	0
0.6393	23.3204	-15.7641	-2.14223	-16.5081	-2.25174	-1.43015	0.859155	-10.399	3.02173	0
0.6400	26.9642	11.3747	-3.97287	-8.56763	-4.38258	-2.93302	-0.360714	-7.05529	4.24675	0.311719
0.6407	26.9642	4.05903	-3.36915	-3.3785	-5.30443	-3.85413	-1.58058	-3.99577	4.87287	0
0.6413	15.9963	-13.3098	-0.311598	2.41755	-3.15848	-3.24813	-1.58058	-1.85578	7.62237	0
0.6420	5.90298	-14.8674	0.60372	-0.333804	-3.77809	-3.85413	-2.19052	1.48796	7.92182	0.311719
0.6427	9.87473	-5.09738	0.292123	-8.56763	-4.38258	-3.85413	-2.19052	5.76795	7.2957	0.311719
0.6433	5.31997	5.28617	0.60372	-11.0155	-3.47584	-3.56325	-1.88883	7.28936	7.2957	0
0.6440	-23.9763	9.2508	1.20744	-3.69207	-3.15848	-2.64214	-0.970649	7.28936	5.77123	0.311719
0.6447	-50.8312	8.02366	0.915318	-1.24418	-3.15848	-1.43015	-0.970649	6.68748	1.1978	0
0.6453	-61.2161	7.41008	-0.0194748	-10.7121	-5.00219	-2.03614	-2.80045	5.14936	-2.45005	0
0.6460	-63.3659	9.53399	0.292123	-14.3738	-4.68483	-2.64214	-2.80045	4.24655	1.49725	0
0.6467	-55.7139	11.3747	2.43436	-3.69207	-1.94949	-2.32702	-0.970649	4.24655	10.3446	0.311719
0.6473	-22.1544	12.3187	3.66127	13.4027	-1.64725	-3.24813	-0.668961	3.62796	16.4698	0.311719
0.6480	33.9968	10.478	3.03808	25.9153	-2.85623	-4.46012	-0.970649	2.70843	20.1176	0
0.6487	59.6128	2.21831	3.34967	40.8657	-0.725392	-5.38124	0.249221	3.32702	24.0921	0.311719
0.6493	20.5511	-8.16525	2.43436	66.8113	-1.94949	-7.51434	-1.2789	3.62796	42.0864	0.311719
0.6500	-31.6283	-20.9559	1.20744	82.9856	-2.25174	-7.82946	-1.88883	3.9289	70.1803	0.311719
0.6507	-46.5679	-32.8498	1.83064	68.9457	1.40545	-6.90834	0.859155	6.06889	57.0589	0.311719
0.6513	-42.9241	-44.7437	0.915318	40.2588	0.800954	-9.04145	-0.970649	5.76795	17.3681	0.311719
0.6520	-36.8025	-45.3573	-0.934793	44.5274	-1.02764	-10.2777	-3.41039	2.40749	11.2702	0.311719
0.6527	-27.3286	-9.3452	-1.22692	59.4879	1.40545	-8.14458	-0.668961	-1.2539	-2.77672	0.311719
0.6533	-17.8911	32.1418	-3.05755	23.781	2.3273	-6.90834	-0.970649	-3.99577	-18.6476	0
0.6540	-6.88681	55.9296	-3.68075	2.41755	1.40545	-9.64744	-1.88883	-7.35623	40.8614	-1.24688
0.6547	6.85037	77.9239	-1.22692	0.283227	4.15589	-6.61747	1.77734	-9.17857	107.394	-0.935158
0.6553	18.1097	64.4725	-0.311598	-79.071	6.60409	2.54518	3.90883	-8.5767	122.04	0
0.6560	22.701	-2.02951	-0.934793	-133.39	6.90634	7.7325	3.60714	-7.65717	119.29	0
0.6567	22.0815	-79.2454	-0.623195	-85.474	8.13044	7.7325	4.21707	-6.13577	109.245	0
0.6573	19.0571	-103.977	-0.0194748	-49.7671	9.03718	5.5994	2.68896	-4.9153	80.8516	0
0.6580	14.7574	-69.8058	-0.0194748	-42.4437	8.43269	4.67828	2.68896	-4.29671	8.52072	0
0.6587	10.4942	-33.7938	0.292123	-29.6276	5.68224	4.67828	3.60714	-3.07624	-68.683	0.311719
0.6593	5.61147	-31.3395	-0.0194748	-36.0407	1.72281	0.727194	2.38727	-1.55484	-137.965	-0.623439
0.6600	2.55067	-45.0741	1.20744	-43.6676	-0.120899	-3.24813	2.68896	-0.635311	-181.902	-1.24688
0.6607	6.23092	-76.1776	3.66127	-15.2842	-2.25174	-1.43015	1.77734	-0.635311	-164.208	-0.311719
0.6613	12.644	-165.901	3.34967	26.5222	-5.00219	-0.193918	-1.2789	-0.952966	-130.941	0.311719
0.6620	17.1988	-219.329	2.12276	43.3136	-3.15848	-0.799914	-2.49876	1.48796	-75.7065	0
0.6627	17.5267	-119.222	2.43436	39.3383	-1.02764	-0.799914	-0.970649	3.02609	-16.7964	0
0.6633	12.9355	27.8468	5.18031	32.6319	-0.725392	-1.11503	-0.668961	3.02609	20.1176	0
0.6640	6.23092	118.797	7.61467	30.4874	2.93179	-2.32702	-1.58058	3.9289	68.3291	-0.311719
0.6647	-6.5953	161.842	5.78403	42.0896	5.98449	-5.38124	-2.80045	2.70843	128.464	-0.311719
0.6653	-21.2434	126.113	1.83064	70.1595	5.07775	-9.04145	-4.63682	-2.17343	189.797	0
0.6660	-27.6565	56.26	-0.311598	92.14	5.68224	-9.04145	-4.63682	-5.21624	167.202	0.311719
0.6667	-27.0371	45.8764	-1.53851	80.2343	3.24915	-8.43545	-4.02688	-4.61436	35.3896	0.311719
0.6673	-22.7738	63.5757	-2.14223	42.3931	-0.423146	-8.14458	-4.63682	-2.77531	-27.495	0.311719
0.6680	-16.3607	44.9325	-0.623195	5.15879	1.1032	-5.69635	-4.32857	-4.29671	-10.3991	0.311719
0.6687	-11.7695	5.89975	-0.0194748	-3.3785	-0.423146	-3.85413	-3.71863	-7.05529	-55.2622	0.311719
0.6693	-8.41721	-13.9234	0.292123	32.3183	-3.77809	-5.09036	-3.71863	-6.4367	-90.0529	0.311719
0.6700	-2.0041	-8.77883	0.60372	67.7217	-1.64725	-6.30235	-4.63682	-3.99577	-27.1683	0
0.6707	4.99202	50.1243	1.51904	67.7217	2.93179	-9.04145	-7.07655	-3.3939	85.425	0
0.6713	12.644	124.933	1.51904	79.0103	7.51083	-13.6228	-9.2146	-4.29671	166.004	0
0.6720	19.6402	103.836	-2.14223	101.294	9.33943	-15.7559	-10.7362	-4.9153	125.715	0.311719
0.6727	22.701	37.0032	-6.1151	54.2988	9.03718	-12.0957	-10.1262	-4.61436	21.9415	0.311719
0.6733	22.4094	18.4072	-6.1151	-37.2545	12.0899	-2.64214	-3.41039	-3.69483	32.014	0.311719
0.6740	20.5511	10.7611	-4.28447	-87.9118	17.2734	6.81139	4.21707	-2.17343	71.3781	0
0.6747	19.0571	-12.1299	-3.97287	-100.738	18.7998	9.57472	6.35513	-0.334374	6.99625	0
0.6753	13.8465	-35.6345	-4.28447	-96.7626	17.893	7.1265	5.43694	0.585155	-20.1721	0
0.6760	7.43338	-55.7408	-3.97287	-68.3893	14.5381	4.3874	3.90883	0.585155	-5.82567	0
0.6767	4.99202	-71.3162	-3.05755	-32.0654	10.5635	1.33319	1.1674	1.80562	-13.7475	0
0.6773	-4.77339	-65.5108	0.292123	-15.2842	12.0899	0.0969592	-1.2789	5.46702	10.9708	0
0.6780	-18.1826	-25.8645	3.03808	-18.6424	13.6162	0.412077	-0.360714	8.81076	-0.626124	0
0.6787	-20.3325	0.094396	3.34967	-6.73677	10.5635	-1.72103	-1.2789	8.81076	-112.022	0
0.6793	-16.3607	8.96762	4.26499	28.9701	11.7876	-2.64214	-4.32857	7.90795	-191.975	0
0.6800	-8.41721	56.26	7.32254	38.4279	14.8403	-1.11503	-3.71863	7.28936	-150.46	0
0.6807	6.23092	63.2453	8.23786	22.2536	12.7095	-2.03614	-4.63682	6.36983	-78.7554	0.311719
0.6813	15.3769	-20.9559	4.86871	12.1788	13.6162	-5.38124	-6.76831	6.06889	-15.5714	-0.311719
0.6820	6.23092	-97.275	1.51904	-4.60245	17.893	-11.1746	-5.24675	5.14936	68.0297	-1.24688
0.6827	-10.8586	-99.399	0.915318	-26.2693	16.9712	-13.0168	-4.02688	3.9289	125.415	-0.935158
0.6833	-24.8872	-31.3395	-0.0194748	-32.6824	13.6162	-9.35657	-5.85668	1.48796	132.738	0.311719
0.6840	-33.4502	41.9118	-3.05755	-11.6224	11.4854	-5.69635	-5.24675	0.267499	118.991	0.311719
0.6847	-33.1587	45.5461	-5.51138	19.8057	8.43269	-3.85413	-1.58058	-0.0334374	44.5364	0
0.6853	-24.5957	49.8411	-4.28447	34.7662	5.07775	-3.24813	-0.668961	-3.07624	-36.3424	0
0.6860	-13.6279	100.201	-1.22692	24.0844	4.15589	-2.32702	0.249221	-6.73764	-41.8414	0.311719
0.6867	-7.21475	108.744	-0.311598	5.46224	4.15589	1.33319	2.38727	-5.83483	-61.0607	0.311719
0.6873	-6.88681	76.0832	-3.36915	8.82051	2.62955	4.07229	2.68896	-4.29671	-62.2857	0
0.6880	-9.03666	53.5225	-6.71882	31.4079	1.72281	3.46629	1.1674	-2.77531	3.9473	0
0.6887	-9.6561	42.195	-7.03042	55.8262	3.24915	-0.509036	-0.970649	-1.2539	0.898351	0
0.6893	-9.03666	35.8233	-5.51138	75.3486	3.85365	-4.77524	-3.71863	-0.635311	-68.683	0.311719
0.6900	-7.79776	33.9826	-3.97287	99.4634	3.24915	-8.14458	-5.85668	-0.635311	-144.362	0
0.6907	-6.3038	32.1418	-2.14223	113.19	2.02505	-11.4897	-7.68649	-1.2539	-218.517	0
0.6913	-5.68435	28.1772	-1.53851	83.896	3.85365	-12.7017	-8.29642	-2.17343	-188.627	0.311719
0.6920	-5.97585	20.2479	-1.85011	48.1891	6.30185	-13.0168	-7.68649	-2.77531	-59.5362	0
0.6927	-3.86244	11.0915	-1.53851	29.577	8.43269	-13.6228	-6.76831	-2.77531	46.0609	0
0.6933	2.55067	7.74047	0.292123	8.82051	12.7095	-11.8048	-4.9385	-1.2539	101.895	0
0.6940	8.34433	10.7611	2.43436	-22.3042	15.4448	-8.43545	-3.71863	0.585155	136.386	0.311719
0.6947	10.4942	14.1122	2.74595	-48.2397	15.1426	-5.09036	-3.1087	1.48796	156.83	0
0.6953	11.4051	7.1269	1.83064	-37.2545	14.8403	-0.193918	-2.19052	0.585155	79.926	0
0.6960	11.1136	0.377584	1.20744	-50.6876	13.314	6.81139	-0.0590259	-1.55484	-183.726	0
0.6967	9.29172	-3.25666	1.51904	-142.848	11.7876	11.9987	2.38727	-2.17343	-395.846	0
0.6973	8.05283	-20.9559	2.43436	-219.147	14.2358	12.6289	1.1674	-0.334374	-300.621	0.311719
0.6980	8.34433	-26.1477	2.43436	-215.172	16.6689	11.3927	-1.58058	2.10656	-51.5871	0.311719
0.6987	7.76132	8.35404	0.60372	-179.465	14.8403	8.04762	-4.02688	3.02609	91.8496	0
0.6993	5.31997	42.5254	-0.0194748	-123.315	14.8403	3.15117	-6.46662	3.9289	57.3584	0
0.7000	1.63972	29.4043	-0.623195	-63.5036	16.3667	-2.64214	-9.2146	4.24655	-19.2465	0
0.7007	-4.44545	3.77584	0.292123	-45.8019	18.1953	-5.69635	-9.51629	2.70843	-29.0195	0
0.7013	-8.1257	-0.802366	1.83064	-25.359	21.248	-5.98723	-8.90636	0.267499	-48.5382	0
0.7020	-7.21475	-9.06201	2.12276	3.94495	22.1698	-5.69635	-10.1262	-0.952966	-73.8826	0
0.7027	-4.77339	-20.0591	1.20744	-23.2145	23.9984	-2.93302	-9.51629	-1.2539	-42.4403	0.311719
0.7033	-3.24299	-18.832	0.292123	-50.6876	27.3533	0.0969592	-7.07655	-1.55484	-0.626124	0.311719
0.7040	-2.0041	-13.0266	0.292123	-17.7219	30.7083	-0.193918	-6.15837	-0.952966	36.5874	0
0.7047	-2.0041	-11.5163	0.60372	10.0445	34.6828	-0.193918	-5.54844	-0.334374	64.6813	0
0.7053	-1.42109	-12.4131	0.60372	6.98965	38.0378	2.2543	-4.63682	-0.0334374	83.6011	0
0.7060	10.2027	-12.1299	0.915318	9.13409	40.1686	1.62407	-5.24675	2.70843	115.942	0.311719
0.7067	32.7579	-11.1859	2.12276	26.2188	42.2994	0.0969592	-7.37824	7.59029	148.609	0
0.7073	45.5841	-10.9027	3.03808	56.4331	45.0499	-0.509036	-8.60467	10.3489	197.746	0.311719
0.7080	41.0293	-11.5163	1.83064	87.5577	46.8785	-0.193918	-9.2146	9.12841	238.335	0.311719
0.7087	34.6162	-11.1859	2.12276	99.4634	49.0244	1.93918	-9.82454	7.59029	186.748	0
0.7093	34.2883	-10.2892	4.57659	103.125	51.7598	4.9934	-7.68649	8.81076	192.247	0.311719
0.7100	34.2883	-12.7435	5.49191	124.185	53.2861	2.2543	-6.46662	10.3489	429.058	0.311719
0.7107	30.3165	-14.537	5.49191	143.708	54.5102	-2.32702	-9.2146	10.6498	610.334	0.311719
0.7113	23.6119	-13.6402	6.09563	124.489	57.5629	-4.46012	-9.51629	11.5693	513.285	0
0.7120	11.7331	-15.4809	7.32254	54.2988	58.4848	-12.7017	-9.82454	11.5693	284.696	-1.24688
0.7127	-1.09314	-14.2538	10.6722	-29.9311	58.787	-15.7559	-10.7362	11.5693	1.82393	-1.24688
0.7133	-7.79776	-5.38057	14.6451	-54.3493	59.3915	-5.38124	-7.07655	13.0907	-189.525	0.311719
0.7140	-13.2999	-5.99414	13.4182	-25.0454	53.9057	2.2543	-2.49876	11.2684	-189.225	0.623439
0.7147	-13.6279	-14.537	10.3606	-24.135	47.4981	3.46629	-0.0590259	6.98842	-212.419	0.311719
0.7153	-0.473696	-20.0591	10.3606	-63.8071	48.4048	5.91451	2.68896	7.28936	-298.171	0.311719
0.7160	6.52242	-18.2184	10.3606	-103.176	51.1553	10.1807	4.82701	9.12841	-292.672	0
0.7167	2.55067	11.0915	9.15318	-135.221	52.3794	11.9987	3.90883	7.28936	-235.912	-0.311719
0.7173	2.25916	29.074	6.40722	-141.017	57.5629	11.7078	2.99721	4.54749	-181.603	0.311719
0.7180	-0.473696	-3.25666	3.03808	-95.2454	62.142	9.8656	3.29889	3.62796	-119.644	0.623439
0.7187	-6.3038	-32.8498	-0.0194748	-33.2893	59.0893	5.28428	0.550909	0.267499	-72.0314	0
0.7193	-12.0975	-33.7938	-2.14223	-0.637262	56.0366	0.412077	-3.41039	-3.69483	-23.221	0
0.7200	-20.3325	-33.7938	-2.14223	17.0645	56.9584	-2.93302	-2.80045	-4.61436	34.1646	0
0.7207	-24.3042	-35.9177	-1.22692	36.9005	54.208	-5.09036	-1.2789	-4.9153	37.2135	0.311719
0.7213	-21.2434	-28.602	-0.0194748	33.8457	50.853	-4.46012	-1.88883	-6.13577	-26.5694	0.311719
0.7220	-24.5957	-17.6048	-0.311598	14.9301	48.4048	-2.32702	-2.49876	-6.4367	-84.2544	0.311719
0.7227	-46.8594	-16.7081	-1.22692	28.9701	46.5762	-1.43015	-2.19052	-5.51717	-81.2055	0.311719
0.7233	-71.6009	-18.2184	-1.22692	73.5178	46.5762	-2.64214	-2.49876	-4.9153	-13.448	0.311719
0.7240	-77.1031	-10.5723	-0.934793	102.822	47.1807	-4.77524	-2.49876	-4.29671	81.7772	0.311719
0.7247	-74.6617	-2.97347	-1.22692	104.036	49.6289	-4.46012	-0.668961	-2.47437	156.83	0.311719
0.7253	-76.7751	-3.87023	-1.53851	89.6921	50.5508	-4.46012	0.859155	0.585155	187.048	0
0.7260	-73.1313	-6.60772	-2.45383	49.4131	47.8003	-5.69635	0.859155	0.886091	161.431	0
0.7267	-64.5684	-8.16525	-2.14223	-13.4533	46.8785	-3.56325	1.77734	-0.0334374	75.6521	0.311719
0.7273	-45.657	-10.9027	-0.623195	-64.7276	44.7477	0.727194	4.21707	1.18703	-77.231	0.311719
0.7280	28.8226	-12.7435	-0.311598	-80.2849	36.8137	3.46629	5.43694	2.70843	-258.507	0
0.7287	119.444	-11.7995	1.20744	-69.2997	31.9324	4.9934	6.04688	5.14936	-358.905	0
0.7293	121.266	-10.5723	4.57659	-53.4288	30.7083	6.20539	6.65681	7.59029	-325.938	0.311719
0.7300	68.4672	-9.06201	7.01094	-43.0607	27.0511	3.75717	6.04688	7.59029	-231.638	0.311719
0.7307	42.5233	-2.3599	8.23786	-24.135	24.6029	1.33319	5.43694	8.20888	-116.296	0.311719
0.7313	43.1427	10.7611	7.92626	27.7462	25.5247	-0.509036	6.04688	9.73029	15.2447	0.311719
0.7320	44.3816	14.4426	5.49191	89.0852	23.3788	-5.38124	5.1287	10.6498	111.967	0.311719
0.7327	15.0854	-0.802366	2.12276	125.399	20.9457	-12.0957	2.68896	10.9508	169.652	0
0.7333	-42.9241	-14.2538	0.292123	133.643	23.9984	-15.465	1.77734	12.4889	185.823	0.311719
0.7340	-88.9819	-18.5016	-0.623195	118.379	22.4721	-14.8348	3.90883	14.0103	112.893	0.623439
0.7347	-92.0427	-21.2863	-1.53851	92.14	15.7622	-10.2777	7.26675	13.7093	14.3192	0.311719
0.7353	-68.8316	-22.4662	-1.85011	74.7417	11.4854	-5.69635	9.09655	11.5693	1.49725	0
0.7360	-55.1309	-22.7966	-2.76543	70.1595	5.37999	-1.72103	10.6247	9.73029	3.3484	0
0.7367	-19.0936	-21.2863	-3.68075	74.4382	-1.64725	3.46629	13.6743	10.0312	-22.9216	0
0.7373	35.5272	-17.3217	-3.36915	90.6126	-3.47584	5.28428	16.1206	11.8703	38.1391	0
0.7380	44.9646	-11.7995	-1.85011	135.474	-4.38258	3.15117	17.6422	12.1712	110.443	0.311719
0.7387	58.7018	-6.9381	1.20744	177.584	-9.58123	1.62407	16.7306	10.0312	52.7849	0.311719
0.7393	128.007	-3.25666	3.95339	98.5429	-12.0143	2.54518	15.8124	9.73029	-9.17407	0.311719
0.7400	144.149	-1.13275	4.26499	-46.4088	-10.1857	1.33319	16.4223	10.6498	70.1803	0
0.7407	76.7023	-1.13275	3.03808	-63.2002	-8.96162	-1.11503	15.5041	10.9508	177.601	0.311719
0.7413	34.2883	-1.13275	1.83064	3.02446	-11.1076	-1.43015	13.6743	11.2684	111.069	0.311719
0.7420	15.6684	-2.02951	0.292123	16.144	-16.2911	-4.46012	13.0644	9.73029	-28.72	-0.623439
0.7427	-5.97585	-1.41594	0.915318	4.24841	-19.3438	-9.64744	12.1528	8.50982	-34.1918	-1.24688
0.7433	6.23092	2.54869	3.95339	29.2736	-21.1724	-5.38124	12.4545	8.81076	19.5187	-0.311719
0.7440	14.7574	6.18294	7.61467	77.1795	-24.8296	1.93918	12.4545	9.42935	-3.07617	0.311719
0.7447	-12.6805	9.53399	10.9838	105.866	-29.7109	7.1265	14.5925	10.3489	-31.1428	0
0.7453	-2.91505	12.6019	14.3335	109.225	-32.4613	12.6289	17.6422	9.73029	22.8671	0
0.7460	78.2327	14.7258	16.1641	98.8464	-21.1724	13.8409	19.472	7.28936	96.7225	0.311719
0.7467	139.594	14.7258	14.6451	59.1743	-0.423146	15.6589	23.4399	1.80562	104.045	0
0.7473	116.383	9.2508	10.3606	-14.6773	5.98449	18.1071	25.8862	-9.17857	-6.72402	0
0.7480	60.5602	1.93512	4.86871	-102.569	0.19646	15.0529	25.8862	-20.1795	-148.337	0.311719
0.7487	-2.62355	-2.97347	-0.311598	-160.55	-9.88347	13.2349	31.0739	-25.9642	-193.799	0
0.7493	-71.8924	-6.60772	-3.97287	-155.057	-20.8701	14.4469	38.3931	-29.3246	-182.828	0
0.7500	-98.1643	-10.2892	-6.71882	-126.673	-20.2505	13.5258	38.0914	-30.846	-160.233	0.311719
0.7507	-78.597	-10.9027	-7.94574	-115.081	-11.4098	13.2349	34.4252	-29.6255	-88.229	0.311719
0.7513	-81.6578	-9.06201	-7.94574	-104.4	-12.0143	14.4469	32.9037	-27.8032	-4.3012	0.311719
0.7520	-118.898	-8.77883	-8.86106	-80.9019	-23.6055	10.4716	32.2937	-28.4051	46.9865	0
0.7527	-131.724	-8.77883	-9.77637	-76.3197	-28.8041	0.0969592	32.5954	-26.8837	133.963	-0.311719
0.7533	-102.719	-8.16525	-8.25734	-84.5636	-26.9755	-13.6228	32.5954	-22.3028	248.707	0
0.7540	-43.8351	-8.16525	-7.94574	-59.8419	-32.7636	-29.4998	30.4639	-18.3404	311.265	0
0.7547	16.2878	-7.55168	-8.25734	-40.0059	-41.6194	-33.1601	28.9358	-14.3781	258.453	0
0.7553	26.6727	-6.60772	-6.4267	-50.3841	-56.2633	-14.5439	30.1557	-11.6362	131.513	0
0.7560	-9.03666	-3.25666	-2.76543	-39.3888	-71.5267	6.20539	30.7656	-8.5767	89.699	-0.935158
0.7567	8.96378	2.21831	3.34967	-26.2693	-70.3026	14.4469	30.7656	-2.47437	97.0219	-0.623439
0.7573	109.387	6.18294	8.23786	-39.7024	-60.54	17.5011	32.9037	4.24655	14.0197	0
0.7580	152.421	6.18294	8.84158	-39.7024	-58.4092	16.8951	34.7335	7.28936	-68.9825	0.311719
0.7587	99.9133	5.28617	6.69935	-20.1698	-66.3432	13.5258	31.0739	6.98842	-90.9512	0
0.7593	44.6731	3.77584	4.26499	-26.8864	-77.6321	14.156	24.358	4.84842	-204.497	0
0.7600	22.4094	0.991158	2.12276	-66.2449	-86.7902	17.186	22.22	1.48796	-339.386	0
0.7607	23.3204	-0.802366	-0.623195	-76.3197	-87.6969	23.0036	24.358	-2.77531	-276.202	0
0.7613	62.0541	0.094396	-0.311598	-45.8019	-78.8562	38.8564	25.8862	-6.13577	-121.169	0
0.7620	146.919	3.77584	2.43436	-21.3837	-78.5388	54.7335	24.0498	-8.27576	-23.8199	0.311719
0.7627	212.216	5.89975	2.74595	0.586685	-90.4474	55.9455	18.2521	-7.35623	39.963	0
0.7633	200.92	5.89975	0.915318	36.9005	-95.0264	45.28	10.6247	-3.99577	64.6813	0
0.7640	148.74	4.05903	-0.934793	46.0548	-84.6442	34.9053	2.38727	-3.69483	27.4405	0
0.7647	89.5285	1.32154	-3.68075	19.8057	-73.6576	25.7427	-7.68649	-7.9581	-68.683	0.311719
0.7653	17.1988	-2.02951	-6.71882	23.4775	-77.9344	18.1071	-20.2	-12.539	-147.112	0.311719
0.7660	-39.2439	-3.87023	-7.94574	55.2091	-70.9222	15.6589	-21.4199	-13.7595	-143.464	0
0.7667	-54.5114	-5.09738	-8.86106	69.856	-33.0658	16.2892	-8.29642	-12.2381	-88.229	-0.311719
0.7673	-74.6617	-6.9381	-10.6917	46.9753	1.1032	19.0282	-0.668961	-11.0176	-21.0704	0
0.7680	-107.31	-7.83487	-11.607	-15.5876	22.7743	24.5307	0.859155	-11.3186	25.6166	0
0.7687	-124.4	-6.60772	-10.3801	-56.4837	42.6168	29.718	4.82701	-10.7167	52.4583	0
0.7693	-183.284	-3.58705	-7.34202	-44.578	48.4048	36.7233	6.04688	-9.49623	77.8027	0.311719
0.7700	-297.116	-0.519178	-4.88819	-25.359	37.4182	33.9842	6.04688	-9.17857	52.7849	-0.311719
0.7707	-329.474	4.6726	-0.623195	-16.5081	16.3667	7.1265	8.48662	-5.83483	-53.1116	0
0.7713	-180.842	11.3747	5.49191	-14.0602	-10.7902	-22.1794	11.2346	-0.334374	-128.818	0
0.7720	25.1423	16.2833	10.0685	-10.095	-38.5667	-30.421	11.5428	2.40749	-103.174	-1.24688
0.7727	130.74	19.0208	14.0219	24.9948	-59.6182	-30.1058	12.7627	6.06889	-38.1663	-1.24688
0.7733	139.886	18.0768	14.6451	83.5926	-75.8035	-30.1058	17.3405	11.2684	50.0354	0
0.7740	71.8195	11.3747	10.0685	116.245	-86.4728	-22.1794	18.5604	12.7898	145.56	0.311719
0.7747	16.2878	2.83188	3.66127	105.259	-91.9737	-12.7017	16.7306	10.3489	195.296	0
0.7753	91.9698	-4.48381	-1.85011	77.7965	-98.3814	-9.64744	12.1528	5.76795	188.273	0
0.7760	173.445	-9.06201	-6.1151	57.9605	-98.6836	-8.14458	6.96506	-2.47437	129.989	0
0.7767	127.679	-13.0266	-8.25734	38.1244	-81.5915	-7.22346	5.43694	-14.0772	1.49725	0.311719
0.7773	55.969	-15.7641	-7.03042	21.6366	-58.0918	-9.04145	9.4048	-22.0018	-161.758	0
0.7780	33.7053	-9.95878	-4.88819	24.0844	-39.4886	2.54518	14.8942	-22.6204	-250.259	0
0.7787	52.2887	-0.802366	-4.28447	31.7114	-7.13303	23.0036	17.0323	-20.1795	-217.319	0.311719
0.7793	88.326	2.54869	-4.59606	36.597	35.2873	24.2156	18.2521	-17.7385	-106.822	0.623439
0.7800	75.2083	3.77584	-7.63414	49.7165	54.5102	19.9494	21.9183	-14.0772	19.192	0.311719
0.7807	19.3486	2.21831	-12.5223	57.3434	53.9057	30.93	20.0819	-15.5986	93.0474	0
0.7813	-34.0696	-3.58705	-16.4952	25.9153	56.6411	42.2257	17.9504	-20.1795	129.689	0
0.7820	-62.4549	-9.3452	-18.9296	-21.6972	46.8785	37.6444	20.3902	-17.4209	174.552	0
0.7827	-21.8629	-13.6402	-20.7602	-39.7024	21.5502	37.3293	19.7802	-8.27576	145.86	0
0.7833	43.1427	-14.8674	-21.0718	-38.4785	5.07775	66.9503	19.472	1.48796	21.3426	0
0.7840	30.6445	-14.2538	-20.7602	-41.2298	-9.88347	102.946	23.1382	10.0312	-59.5362	0
0.7847	-37.094	-13.9234	-20.7602	-33.5928	-33.0658	117.612	24.968	14.6121	-31.1428	0
0.7853	-89.6013	-9.95878	-17.0989	0.283227	-48.3293	123.09	24.6597	17.0531	5.77123	0.311719
0.7860	-138.428	-2.64309	-9.46478	32.3183	-53.2106	125.538	22.5282	20.1126	-7.35015	0.311719
0.7867	-148.194	5.89975	-0.934793	40.5622	-58.0918	136.519	17.9504	25.5963	-12.5225	0.311719
0.7873	-27.948	18.4072	11.5875	41.7862	-58.0918	168.248	17.0323	36.2796	14.3192	0.311719
0.7880	120.064	31.8114	25.6289	30.184	-49.2511	175.593	20.0819	50.6242	39.0374	0.311719
0.7887	169.51	39.1743	34.1784	1.49706	-41.6194	124.617	18.5604	58.5656	41.188	0.311719
0.7893	221.362	42.8086	38.4433	-9.18466	-36.7381	11.1018	12.1528	59.4852	39.0374	0
0.7900	310.489	44.3661	39.0471	-2.77158	-29.4086	-132.64	7.87668	61.3075	38.1391	0
0.7907	286.367	38.5608	32.6398	-14.0602	-22.6987	-197.942	5.43694	61.6084	14.0197	0
0.7913	76.4108	29.6875	22.8829	-21.6972	-18.4219	-160.419	-0.668961	52.7642	-9.47352	0
0.7920	-163.753	22.655	16.7678	-13.4533	-14.7648	-103.359	-7.68649	39.3391	-13.448	0
0.7927	-265.67	19.9176	15.5604	-16.8116	-12.9362	-80.161	-11.956	29.8763	-0.925574	0
0.7933	-253.464	19.304	16.7678	-21.3837	-9.26387	-80.161	-14.0941	24.9945	42.7125	0
0.7940	-265.67	17.1801	15.2488	-21.0802	-1.32989	-86.5603	-15.6222	19.494	72.3037	0.311719
0.7947	-349.624	13.2154	12.1913	-25.6624	5.68224	-103.043	-16.8421	10.6498	57.0589	0.311719
0.7953	-251.022	10.1476	9.7569	-27.1898	9.65679	-117.999	-18.6719	1.18703	28.6656	0
0.7960	68.4672	8.63723	9.15318	-26.8864	13.9185	-114.339	-18.0619	-6.4367	-39.6908	0
0.7967	259.512	5.89975	8.52998	-24.7419	18.7998	-123.793	-12.2643	-15.2976	-104.998	0
0.7973	237.868	0.70797	4.86871	-16.2047	25.2225	-136.3	-8.60467	-23.8409	-59.2367	0
0.7980	125.857	-5.71096	-0.623195	-15.8911	34.9851	-105.783	-6.15837	-31.7655	63.4563	0
0.7987	19.6402	-11.7995	-4.28447	-25.359	46.5762	-77.1068	-2.19052	-41.2283	168.427	0
0.7993	21.79	-14.537	-5.51138	-31.155	53.6035	-75.2646	-1.58058	-46.7288	227.637	0
0.8000	52.2887	-14.537	-4.88819	-37.2545	51.1553	-74.9737	-4.02688	-48.2502	244.107	0
0.8007	-16.3607	-14.2538	-4.28447	-46.7224	43.2213	-63.072	-4.32857	-50.6911	178.2	0
0.8013	-88.6904	-15.1506	-6.1151	-61.3693	33.4587	-38.9534	-1.58058	-55.573	-34.1918	0
0.8020	-76.1557	-16.0945	-8.25734	-72.3545	25.827	-27.9727	-0.360714	-61.6753	-296.646	-1.24688
0.8027	-16.3607	-14.8674	-8.54946	-56.7871	19.7216	-25.8396	0.859155	-63.1967	-383.923	-1.5586
0.8033	66.6453	-11.1859	-7.94574	-22.0007	13.0117	-14.8348	8.18493	-58.0139	-256.057	-0.311719
0.8040	126.149	-9.67559	-9.77637	4.55187	7.51083	-7.22346	14.2843	-52.2125	-40.3169	0.311719
0.8047	122.177	-9.95878	-12.8339	19.5022	6.60409	1.93918	13.6743	-47.0297	131.813	-0.311719
0.8053	82.8239	-10.5723	-14.353	33.8457	8.43269	25.4276	11.2346	-41.2283	206.594	0
0.8060	38.26	-12.4131	-14.9567	45.1444	9.33943	46.4919	10.0147	-37.266	202.32	0
0.8067	-13.9194	-16.0945	-15.872	46.9753	10.8658	63.2901	7.26675	-35.126	104.045	0.311719
0.8073	-52.3616	-21.5695	-18.9296	43	8.43269	112.109	-1.88883	-34.2065	-57.3856	0.311719
0.8080	-29.4784	-25.8645	-22.9024	31.7114	3.24915	194.5	-13.4841	-35.7446	-188.627	0
0.8087	48.9364	-24.307	-23.8177	4.55187	25.2225	257.378	-21.7215	-36.6474	-255.159	0
0.8093	124.035	-17.888	-18.618	-20.4733	64.2728	304.355	-27.8274	-29.3246	-240.486	0.311719
0.8100	128.918	-12.7435	-13.126	-26.5728	80.1408	363.888	-35.1532	-17.12	-130.343	0
0.8107	63.293	-10.5723	-11.607	-27.7968	75.5768	401.411	-44.6105	-6.13577	-7.6496	0
0.8113	40.4099	-8.77883	-9.77637	-25.0454	74.655	364.494	-55.2942	1.18703	53.9827	0
0.8120	120.683	-4.48381	-4.88819	-22.3042	79.5363	267.147	-60.4819	4.24655	65.9063	0
0.8127	99.9133	1.32154	1.20744	-28.7172	74.0505	209.456	-61.4001	9.42935	28.0667	0
0.8133	-178.401	6.18294	8.23786	-22.0007	61.2201	163.982	-60.1737	20.1126	-28.0939	0
0.8140	-474.716	11.7051	16.7678	-1.54764	50.5508	99.2862	-53.4644	29.2577	-37.8669	0.311719
0.8147	-494.575	17.5105	23.7983	9.43754	30.7083	119.43	-50.4081	35.6777	-4.9001	0.311719
0.8153	-252.261	21.1447	28.3749	3.63138	-0.725392	105.395	-53.4644	42.3819	20.1176	0.311719
0.8160	-4.77339	26.0533	35.0937	-8.26417	-23.9228	-45.3527	-49.7982	50.3233	13.7203	0
0.8167	61.4711	32.425	42.7083	-11.6224	-40.3953	-212.607	-42.1707	58.2647	5.77123	0
0.8173	-13.9194	36.3896	45.7659	-7.96071	-60.8423	-362.749	-36.3731	63.4475	-2.1506	0
0.8180	-81.0384	34.2657	42.1046	-14.0602	-67.2499	-403.956	-21.7215	63.4475	-69.2819	0
0.8187	-126.513	22.3718	28.0633	-27.4933	-57.4874	-323.989	-1.2789	58.8666	-142.538	0.311719
0.8193	-231.819	5.28617	9.7569	-30.5481	-57.1851	-262.638	8.79486	47.5814	-114.771	0.311719
0.8200	-303.821	-4.767	1.51904	-26.2693	-62.6709	-194.282	9.09655	32.0163	-47.3132	0
0.8207	-280.646	-9.3452	-1.22692	-26.8864	-31.8568	-116.472	10.0147	17.6717	-14.3736	0
0.8213	-204.345	-15.4809	-5.8035	-26.2693	31.6301	-108.546	13.6743	4.84842	61.9318	0
0.8220	-41.9767	-20.6727	-9.17265	-25.6624	70.0759	-144.251	20.0819	-3.99577	143.41	0
0.8227	119.736	-23.6934	-12.2107	-41.2298	74.655	-151.572	24.358	-11.3186	86.3506	0
0.8233	128.299	-25.2509	-16.1836	-65.0311	62.4442	-123.793	20.0819	-22.3028	-31.4423	0.311719
0.8240	59.3213	-22.7966	-15.872	-77.8471	41.0905	-104.255	14.8942	-30.2441	-71.4325	0
0.8247	55.6775	-19.4456	-9.77637	-77.8471	24.9051	-108.231	13.0644	-30.846	-74.7809	0.311719
0.8253	114.561	-17.6048	-5.51138	-77.2402	14.8403	-89.0086	3.90883	-32.3841	-143.137	0.311719
0.8260	138.684	-14.8674	-4.28447	-81.8123	-0.725392	-39.8745	-6.76831	-30.846	-232.564	0
0.8267	107.529	-12.4131	-0.934793	-82.1157	-27.8823	-8.43545	-8.90636	-25.9642	-202.973	0
0.8273	137.445	-10.9027	2.74595	-69.2997	-44.3698	5.91451	-4.02688	-25.9642	-75.4071	0.311719
0.8280	204.6	-7.22129	4.57659	-42.4437	-28.5019	31.2451	14.5925	-29.0237	15.5442	0
0.8287	195.126	-2.97347	5.18031	-10.7121	-2.25174	90.1236	18.8621	-34.8251	38.4385	0
0.8293	142.036	-1.41594	3.34967	19.5022	10.5635	130.119	-10.4345	-43.0674	52.4583	0
0.8300	48.3534	-2.97347	0.915318	40.5622	21.248	46.1768	-37.593	-46.7288	74.4543	0
0.8307	-52.0701	-6.9381	-0.0194748	42.3931	45.0499	-57.5695	-48.5783	-37.266	44.8359	0.311719
0.8313	-15.4498	-10.9027	0.292123	36.9005	70.9978	-23.7065	-51.3263	-22.9213	10.3446	0.311719
0.8320	113.942	-13.6402	-0.934793	38.7314	65.4969	31.536	-43.6989	-15.5986	83.6011	-0.935158
0.8327	138.975	-13.6402	-1.85011	42.6965	27.0511	-27.3667	-29.0473	-13.7595	199.87	-1.5586
0.8333	26.0533	-13.6402	-1.85011	32.0148	18.7998	-83.2153	-15.9239	-23.8409	207.492	-0.311719
0.8340	-83.4797	-13.6402	-1.53851	3.32792	93.8779	-27.9727	-4.9385	-36.0455	47.5854	0.623439
0.8347	-110.954	-10.5723	-2.45383	-28.7172	192.758	80.6701	6.65681	-40.0079	-166.658	0
0.8353	-92.6622	-8.16525	-4.88819	-52.5185	249.52	188.707	21.0001	-54.0516	-287.5	-0.311719
0.8360	-58.4832	-5.99414	-6.71882	-62.8967	304.151	275.994	30.1557	-64.1162	-292.999	0
0.8367	-2.62355	-3.58705	-4.88819	-60.1454	356.938	330.316	27.106	-51.9116	-227.065	0.311719
0.8373	90.1479	-3.25666	-3.97287	-53.4288	345.952	387.982	24.6597	-36.3465	-131.54	0.311719
0.8380	125.857	-5.71096	-8.25734	-48.5533	274.244	465.816	25.8862	-31.7655	-34.8179	0.311719
0.8387	-51.1591	-10.2892	-14.0414	-42.4437	180.547	532.33	19.1703	-28.7227	38.1391	0
0.8393	-309.323	-16.7081	-21.3639	-38.175	82.589	602.214	6.04688	-24.7437	76.5776	0
0.8400	-440.245	-22.1831	-29.6212	-32.6824	-2.85623	667.225	-4.63682	-24.4427	105.57	0.311719
0.8407	-533.017	-23.4102	-32.9709	-8.87109	-65.1191	600.396	-6.15837	-16.5181	125.715	0.311719
0.8413	-646.85	-22.7966	-30.5366	14.3131	-73.9598	406.599	-10.1262	1.80562	55.8339	0.311719
0.8420	-644.7	-18.5016	-22.2792	13.0993	-43.1457	282.079	-19.5901	12.1712	-94.6263	0.311719
0.8427	-449.719	-6.32453	-7.34202	10.3479	-45.2766	228.678	-21.1116	19.8117	-166.331	0.311719
0.8433	-85.3381	7.1269	9.4453	25.9153	-72.1312	130.725	-19.2818	33.8387	-119.943	0
0.8440	312.931	14.7258	20.7407	41.1691	-109.973	-80.161	-25.6894	45.4414	-54.3366	0.311719
0.8447	448.116	21.7583	27.1479	41.1691	-157.592	-410.041	-32.4052	50.3233	-20.4715	0.311719
0.8453	335.522	31.8114	33.5552	32.6319	-191.761	-535.772	-51.3263	45.1405	-7.6496	0
0.8460	306.226	39.7879	40.8777	24.9948	-242.417	-456.436	-80.0129	38.1186	-4.9001	0
0.8467	355.636	46.1596	50.6541	18.8953	-286.062	-536.403	-80.6229	43.92	-7.0507	0.311719
0.8473	383.11	48.0004	54.9191	7.60668	-293.693	-565.999	-57.124	50.6242	-11.9236	0
0.8480	400.2	39.7879	43.9353	-2.77158	-297.668	-407.907	-37.593	41.1615	-16.497	0
0.8487	353.814	24.2126	25.921	-0.94072	-268.969	-306.9	-27.8274	23.4731	-18.0215	0
0.8493	225.042	7.74047	10.0685	7.60668	-202.747	-267.535	-30.5754	14.0103	-19.8454	0
0.8500	68.7952	-4.767	-0.934793	11.8753	-161.249	-240.362	-25.9976	10.0312	-22.9216	0.311719
0.8507	-25.2152	-12.7435	-5.8035	7.30322	-145.683	-226.642	1.1674	2.40749	-25.0449	0.311719
0.8513	-62.127	-18.5016	-8.54946	3.94495	-93.1978	-180.562	23.1382	-12.2381	-25.6438	0
0.8520	-59.0662	-23.4102	-13.126	15.8405	-23.9228	-103.965	19.1703	-32.0665	-23.221	0.311719
0.8527	0.437258	-23.6934	-14.9567	30.801	28.5774	-82.9001	4.21707	-39.7069	-18.947	0.311719
0.8533	52.2887	-20.0591	-14.0414	32.3183	105.484	-111.891	-9.51629	-33.9055	-16.7964	0.311719
0.8540	113.323	-17.6048	-13.7492	31.4079	145.759	-74.3677	-14.704	-35.4269	-15.272	0.311719
0.8547	201.248	-12.4131	-9.77637	34.4627	105.786	18.7131	-9.51629	-41.8469	-10.998	0
0.8553	191.482	-6.9381	-3.68075	34.4627	42.6168	76.6947	-9.82454	-36.9651	-7.35015	0
0.8560	84.0263	-5.38057	-0.0194748	25.3084	-14.7648	72.7437	-15.9239	-22.6204	-14.0469	0
0.8567	-10.2391	-5.99414	1.83064	14.0096	-67.5522	81.2761	-18.9801	-16.819	-27.1683	0.311719
0.8573	-37.422	-6.9381	1.20744	6.68619	-119.433	173.145	-19.5901	-19.2599	-38.7652	0.311719
0.8580	45.2926	-6.9381	0.915318	-1.24418	-152.695	260.723	-13.4841	-15.5986	-52.2133	-0.935158
0.8587	159.417	-5.38057	3.34967	-2.77158	-163.077	273.231	-6.76831	-4.29671	-66.8591	-1.24688
0.8593	186.891	-3.25666	5.78403	-1.54764	-160.629	229.284	-7.98818	2.40749	-77.5304	0
0.8600	183.211	0.094396	8.23786	-11.0155	-145.078	37.9595	-8.29642	0.267499	-65.3346	0.311719
0.8607	194.507	2.54869	8.84158	-20.4733	-122.183	-240.992	-6.76831	6.06889	-27.495	0
0.8613	153.623	0.70797	3.95339	-19.5528	-103.263	-355.428	-9.2146	21.0321	-9.17407	0
0.8620	16.6158	-3.58705	-3.68075	-12.8464	-85.2638	-305.058	-13.4841	24.0749	-14.9725	0
0.8627	-127.752	-8.77883	-12.5223	-14.6773	-67.8695	-232.436	-11.3461	10.9508	-3.67507	0.311719
0.8633	-239.435	-16.3777	-22.2792	-22.3042	-68.7763	-147.596	-0.668961	-4.29671	39.0374	0.311719
0.8640	-371.268	-20.0591	-25.9405	-11.6224	-72.7508	-68.5502	6.35513	-8.5767	92.7479	-0.935158
0.8647	-447.278	-13.0266	-18.0142	18.8953	-69.0785	-15.1499	6.65681	4.54749	119.617	-1.24688
0.8653	-386.827	-8.44844	-9.17265	35.0696	-72.1312	0.727194	6.96506	21.9349	101.595	0.311719
0.8660	-286.149	-9.67559	-5.51138	24.3879	-76.408	-112.206	4.21707	33.8387	69.2547	0.311719
0.8667	-178.401	-4.48381	2.43436	16.761	-70.3026	-242.519	-4.02688	45.7424	66.8047	0
0.8673	14.7574	2.83188	13.7298	23.4775	-63.895	-236.411	-16.2321	54.9042	73.8281	0
0.8680	181.717	7.74047	23.4867	27.7462	-59.3159	-202.524	-20.8099	53.6838	49.736	0
0.8687	234.479	15.3393	34.1784	25.3084	-43.448	-182.695	-19.8917	50.9252	35.3896	0
0.8693	236.01	19.9176	38.7549	19.1988	-35.514	-115.26	-33.9334	54.9042	48.8104	0
0.8700	178.948	17.7936	32.6398	9.741	-38.2645	-38.3474	-50.1065	46.6619	36.2879	0
0.8707	96.8525	19.0208	25.921	4.24841	-3.77809	-26.7607	-46.7485	36.5972	19.5187	0.311719
0.8713	2.25916	23.8822	22.5713	8.2136	48.1026	-96.0139	-38.8128	45.4414	43.3114	0.311719
0.8720	-94.7756	20.8615	17.6832	14.9301	62.4442	-163.158	-38.5111	39.0382	73.2292	0
0.8727	-117.076	10.7611	10.6722	17.9748	50.2334	-173.533	-36.3731	7.59029	77.5032	0
0.8733	-119.189	3.16227	3.95339	16.4575	42.9191	-151.862	-29.6573	-18.959	68.6558	0
0.8740	-129.574	-2.64309	-2.14223	11.8753	45.3521	-99.9892	-21.4199	-33.3037	74.4543	0
0.8747	-141.489	-5.38057	-5.51138	7.91014	41.9972	-49.328	-7.68649	-44.2879	71.3781	0
0.8753	-159.198	-3.58705	-7.34202	5.15879	23.3788	-43.8498	-2.49876	-50.9921	19.8182	0.311719
0.8760	-51.1591	-3.87023	-10.088	4.24841	-4.08033	-47.1949	-7.37824	-48.8521	-25.0449	0.311719
0.8767	120.355	-6.60772	-9.17265	3.32792	-25.1318	-8.14458	-3.41039	-39.406	16.1431	0.311719
0.8773	142.947	-9.67559	-8.25734	2.41755	-29.7109	64.5021	7.87668	-33.9055	123.891	0
0.8780	89.237	-13.3098	-10.3801	0.586685	-22.3965	131.646	13.0644	-36.9651	183.699	0
0.8787	81.002	-11.7995	-6.71882	-5.52294	-18.1197	151.79	14.2843	-37.266	163.255	0
0.8793	80.091	-9.06201	-2.45383	-11.6224	-12.6188	130.725	17.9504	-36.3465	137.312	0
0.8800	54.4386	-10.2892	-4.28447	-13.7568	-2.55399	64.793	22.22	-47.6316	86.9495	0
0.8807	20.5511	-3.58705	-2.14223	-13.4533	-3.15848	-43.5347	25.8862	-55.272	-43.9648	0
0.8813	-5.3564	8.02366	5.78403	-9.79158	-9.88347	-84.7424	28.6276	-44.8897	-142.239	0
0.8820	-24.3042	9.86438	8.84158	-4.60245	-12.9362	-33.7661	24.968	-36.6474	-119.943	0
0.8827	-42.3047	3.16227	4.86871	4.85533	-14.4625	29.718	18.5604	-40.6265	-75.0804	0.311719
0.8833	-63.6574	-3.25666	-0.623195	28.3531	-15.6715	66.9503	13.6743	-38.4865	-53.1116	0
0.8840	-102.719	-7.83487	-5.51138	48.1891	-18.7242	23.9004	5.1287	-24.1418	-33.8923	0
0.8847	-144.222	-9.95878	-9.77637	47.2788	-17.5152	-79.8459	-4.02688	-14.3781	-29.6184	0
0.8853	-172.316	-10.2892	-13.4376	45.1444	-8.35713	-112.206	-10.7362	-26.5827	-27.495	0
0.8860	-214.402	-7.22129	-15.5799	48.1891	-7.13303	-101.831	-14.0941	-44.2879	-3.67507	0.311719
0.8867	-257.144	-1.41594	-13.7492	40.2588	-9.26387	-143.33	-10.1262	-39.406	47.8848	0.311719
0.8873	-235.463	0.377584	-11.0033	29.2736	-2.25174	-145.463	-4.63682	-22.3028	97.0219	0
0.8880	-170.166	-0.188792	-9.17265	21.0296	-1.02764	-85.3484	-1.58058	-15.5986	111.069	0
0.8887	-105.78	0.991158	-7.63414	9.13409	-4.68483	-52.9882	0.550909	-19.2599	111.368	0.311719
0.8893	11.4051	1.93512	-7.63414	-1.24418	0.800954	-38.6625	-0.668961	-23.2223	112.294	0
