MR32 ASCII
Name	TYR30_slow
Frequency	1500
Date	05-09-2015 10:51:26
"Time,s"	"RT TIB.ANT.,uV"	"RT MED. GASTRO,uV"	"RT LAT. GASTRO,uV"	"RT BICEPS FEM.,uV"	"RT VMO,uV"	"RT VLO,uV"	"RT RECTUS FEM.,uV"	"RT SOLEUS,uV"	"RT SEMITEND.,uV"	"Channel 12,uV"
0.0000	429.041	13.8492	14.4887	-14.6258	-10.3918	37.2942	2.51069	-16.3241	-13.0211	-8582.01
0.0007	310.291	20.8512	17.5355	-12.4918	-48.2304	36.3733	-1.15492	-8.69368	-9.65262	-10475.9
0.0013	290.18	13.8492	18.4562	-11.8803	-85.7601	15.3356	-6.64975	-5.94172	-7.52961	-9551.21
0.0020	190.368	-5.99616	12.3626	-15.5367	-103.477	38.215	-11.2264	-5.94172	-11.8039	-9818.96
0.0027	10.0358	-8.74278	5.04147	-14.0143	-103.168	76.3592	-11.8361	4.73253	-10.8981	-9867.94
0.0033	-93.4464	-0.812383	0.76718	-8.82288	-98.8878	86.4531	-9.69845	9.0064	-6.31242	-9786.74
0.0040	-110.238	-7.19539	-5.65521	-2.72049	-92.1806	108.73	-5.73155	1.37598	-4.47248	-9816.06
0.0047	-68.7278	-15.4353	-12.6694	5.82784	-73.2502	142.589	-0.545179	-4.10708	-4.1611	-9815.74
0.0053	-11.9493	-23.6751	-18.1712	8.87279	-37.8607	139.543	-0.846462	-19.6806	-3.25528	-9814.13
0.0060	20.6965	-27.0407	-19.9905	4.60487	-7.34709	103.843	-4.51207	-38.9026	-2.34947	-9786.42
0.0067	26.2025	-20.9285	-14.4887	5.21635	-8.25168	14.4148	-9.39717	-40.4245	1.01905	-9890.17
0.0073	7.88808	-18.1819	-8.39514	11.6182	-38.4564	-119.249	-18.5504	-26.9983	4.67062	-9762.9
0.0080	-15.62	-12.4178	-5.96208	10.7073	-63.1894	-165.044	-25.566	-10.2156	3.76481	-9613.72
0.0087	-27.5302	1.31529	3.20024	4.60487	-59.218	-109.191	-23.7368	-3.81521	1.33042	-10557.8
0.0093	-32.4114	-3.86849	13.5681	-0.274545	-55.5555	-82.9468	-15.803	6.87989	-1.13227	-7797.11
0.0100	-38.8156	-22.1664	15.7162	-5.77792	-69.5877	-90.2427	-6.95103	38.298	-7.21824	-1228.58
0.0107	-48.2657	-29.7874	1.97275	-8.52337	-76.0082	-80.7864	-0.545179	69.737	-11.8039	108.906
0.0113	-45.8446	-41.7023	-35.8602	-7.5999	-63.7851	-66.1591	-0.545179	117.959	-8.15236	-263.888
0.0120	-18.0411	-55.4354	-66.9858	-6.68891	-53.4153	-33.1858	-9.69845	182.651	-4.78385	4.1887
0.0127	4.52979	-56.0544	-48.683	-5.77792	-50.3706	0.0708342	-18.5504	193.325	-4.47248	52.8421
0.0133	15.8152	-41.3928	-6.55391	-3.63148	-38.7653	22.0294	-13.3641	169.829	-1.72672	-28.3543
0.0140	27.1006	-31.915	2.58649	-2.109	-26.5642	51.3548	-2.07312	190.281	0.396295	0.644416
0.0147	21.907	-46.8861	-20.2974	-4.55495	-24.1152	69.3467	-2.07312	189.968	-0.820898	-0.966624
0.0153	17.3382	-64.2943	-30.6653	-7.5999	-19.857	58.6507	-11.5277	119.481	-0.820898	-1.28883
0.0160	29.2484	-60.0003	-15.4094	-6.68891	-10.3918	32.4066	-18.5504	59.6674	1.61349	-0.322208
0.0167	33.5048	-35.2806	-7.7814	-4.24297	-2.75792	23.8711	-24.655	-13.2803	3.76481	-0.322208
0.0173	22.2194	-4.75824	-12.9763	-3.94346	-2.14014	37.8963	-32.8901	-139.912	3.45343	-0.322208
0.0180	7.88808	13.5397	-9.00888	-3.94346	-7.63391	51.6381	-32.5888	-210.108	3.45343	-0.322208
0.0187	-2.18679	7.73698	-0.76718	-4.24297	-17.408	61.4132	-24.9563	-193.325	4.07618	-0.322208
0.0193	-4.33454	-3.24953	-1.07405	-3.94346	-28.7044	69.3467	-18.8517	-186.612	3.45343	-0.322208
0.0200	-2.49919	-4.44876	-8.39514	-3.94346	-32.3669	74.5176	-10.9179	-195.451	2.54761	0
0.0207	-3.70974	-5.99616	-15.4094	-3.01999	-18.9303	48.2735	-2.98414	-175.312	1.33042	0
0.0213	-4.02214	-3.55901	-18.4562	5.21635	-1.23555	-40.5171	4.03146	-136.555	2.85899	-0.322208
0.0220	-1.8744	6.80854	-14.4887	10.0958	-0.308887	-102.78	4.6412	-89.5636	4.07618	-0.322208
0.0227	-3.39734	14.4681	-2.30154	4.90437	-13.1277	-68.6029	-4.51207	-45.3239	2.54761	0
0.0233	-5.54509	9.86465	2.27962	1.85942	-4.28029	-19.1606	-10.0069	-47.4504	2.54761	-0.322208
0.0240	-5.54509	4.99035	-3.20024	-0.586528	34.4629	10.448	1.28404	-89.8764	1.01905	-0.322208
0.0247	-10.1139	5.91879	-6.86078	-4.85445	70.4923	53.161	21.7354	-117.021	-2.94391	-0.322208
0.0253	-15.9324	4.06191	-7.16765	-5.77792	83.9068	88.8615	40.042	-114.894	-6.62379	0
0.0260	-18.0411	-0.812383	-2.89336	-5.46594	76.8907	92.8282	60.4934	-93.5248	-9.964	0
0.0267	-17.1429	1.31529	4.42772	-7.3004	58.887	90.1011	80.6291	-68.8197	-12.7098	0
0.0273	-16.5181	13.5397	10.2145	-10.0458	35.0807	87.3385	87.0421	-38.9026	-13.0211	0
0.0280	-18.3535	15.9769	12.9763	-13.0908	12.5099	78.2009	78.4986	-8.69368	-10.8981	0
0.0287	-19.8764	11.412	15.1025	-12.4918	-10.0829	70.2675	58.3557	-3.50249	-6.90686	0
0.0293	-18.0411	10.1741	19.9905	-8.21139	-27.7777	79.1218	38.8225	-1.98057	-2.34947	0
0.0300	-17.4553	3.79112	24.2648	-8.52337	-35.4116	119.391	27.5315	12.6757	-1.41534	0
0.0307	-21.3993	-1.43134	23.6511	-12.1798	-46.0903	172.8	23.8659	19.9934	-2.63253	0
0.0313	-26.9054	-9.67122	25.1635	-12.1798	-60.1226	204.534	21.7354	29.7503	-3.56666	0
0.0320	-29.3655	-35.2806	37.9864	-5.46594	-72.0368	193.236	8.91655	49.9105	0.113227	0
0.0327	-26.0072	-53.888	50.5024	10.7073	-80.5753	171.277	-9.69845	59.3547	9.87908	0
0.0333	-20.8136	-49.0138	45.6143	19.8671	-78.1483	110.253	-19.7699	68.8197	15.0592	0
0.0340	-14.9952	-41.0833	26.6979	8.87279	-67.7565	-115.601	-22.8258	100.863	10.1621	0
0.0347	-9.52818	-36.5185	-1.38092	-1.49752	-57.6956	-323.429	-28.3134	115.811	3.76481	0
0.0353	-10.7387	-30.0968	-27.9253	2.77041	-43.0455	-243.457	-31.6706	77.0547	3.76481	0
0.0360	-11.9493	-36.5185	-40.4413	6.43933	-31.4402	-67.6821	-20.6881	48.9931	4.07618	0
0.0367	-1.562	-57.8726	-45.0225	3.99338	-11.2964	-4.49797	0.0645607	77.3675	1.92486	0.322208
0.0373	17.6506	-58.4915	-37.9864	1.24793	34.1761	8.92511	11.9652	117.354	0.396295	0.322208
0.0380	34.7544	-29.4779	-16.0231	-3.01999	69.8746	27.5545	10.136	124.985	-1.72672	0
0.0387	43.2673	24.5262	2.89336	-5.16644	78.1042	34.2483	3.42172	76.4501	-2.34947	0
0.0393	39.909	84.6425	12.0557	0.636445	66.212	11.6522	-4.82053	-25.4764	2.23624	0
0.0400	27.1006	102.94	25.1635	6.43933	43.3324	-25.8545	-4.20362	-111.538	7.72776	-0.322208
0.0407	15.5028	68.1628	28.5391	2.77041	22.5708	-96.6532	4.94965	-120.377	6.51057	-0.322208
0.0413	4.52979	6.80854	4.7346	-2.109	0.59571	-179.388	5.55939	-81.0159	4.07618	0.322208
0.0420	-1.8744	-27.0407	-17.5575	-2.109	-16.1945	-186.4	0.0645607	-31.8768	4.982	0.322208
0.0427	2.38204	-9.36174	-11.7488	-1.19801	-19.5481	-136.037	-5.43027	11.4456	6.19919	-0.966624
0.0433	8.47383	16.2863	5.94016	0.935949	-29.0133	-100.337	-11.8361	54.7889	8.35051	-0.966624
0.0440	8.20048	14.7776	4.12085	1.54744	-45.1857	-82.9468	-17.6322	104.824	8.94495	0.322208
0.0447	4.84219	-1.70213	-16.6368	0.636445	-44.8768	-62.1924	-20.3797	114.602	7.72776	0.322208
0.0453	5.74034	-0.193424	-25.4923	11.9302	-32.6758	-47.5297	-17.6322	56.9154	9.5677	0
0.0460	7.88808	27.2728	-19.3768	24.4345	-20.7616	-50.5756	-13.9738	-38.298	11.3793	0.322208
0.0467	8.20048	34.004	-18.763	20.1666	-13.4366	-46.9276	-12.4459	-106.659	10.1621	0.322208
0.0473	10.0358	17.2148	-12.3626	10.4077	-11.6053	-29.2191	-11.2264	-97.7986	7.41638	0
0.0480	13.0817	22.708	16.0231	4.90437	-7.9428	-11.5106	-12.1446	-63.9204	4.35925	0.322208
0.0487	12.7693	35.2032	39.5207	1.54744	-4.89806	3.1167	-13.6653	-50.4942	2.23624	0.644416
0.0493	9.41103	30.0195	38.6001	0.636445	-4.89806	11.6522	-14.5835	-41.3419	1.01905	0.322208
0.0500	4.21739	6.80854	27.3116	0.0249586	-6.11154	10.7668	-16.7212	-34.9415	1.61349	0
0.0507	2.06965	-20.9285	19.3768	0.636445	-7.0382	5.27715	-17.331	-20.598	2.54761	-0.322208
0.0513	3.59259	-22.7854	15.7162	2.15892	-4.58917	1.91252	-10.3082	0.166785	2.54761	-0.322208
0.0520	2.38204	-8.74278	10.2145	1.54744	-2.75792	-2.6917	-2.98414	2.89789	1.01905	0
0.0527	-0.351449	-4.44876	4.7346	0.336941	-3.37569	-9.70428	-2.98414	-1.37598	-1.41534	0.322208
0.0533	-0.0390499	-2.01161	4.12085	-0.886031	-1.54443	-10.3064	-0.545179	7.17176	-2.03809	0.322208
0.0540	-0.0390499	5.91879	2.58649	-3.33198	0.904596	-8.46468	5.25094	3.81521	-2.63253	0
0.0547	-2.81159	-0.812383	-3.20024	-5.77792	-0.0220633	-9.98762	8.60809	-27.9157	-4.78385	0
0.0553	-4.92029	-20.3482	-4.42772	-6.98842	-0.92666	-5.73757	8.60809	-45.9285	-6.31242	0
0.0560	-4.33454	-16.6732	3.20024	-5.16644	0.59571	2.83337	6.77887	-28.5203	-4.47248	0.322208
0.0567	-1.28865	6.80854	9.90758	-3.33198	2.73585	8.32302	3.42172	-7.17176	-1.72672	0.322208
0.0573	2.06965	17.795	7.47452	-4.24297	3.64045	15.6189	0.6743	8.69368	-2.03809	0
0.0580	3.31924	10.1741	3.20024	-4.24297	3.35363	24.4732	1.89378	22.7453	-2.34947	-0.322208
0.0587	2.69444	-4.17797	4.12085	-0.886031	-0.0220633	23.5878	1.89378	23.3499	-2.34947	0
0.0593	1.7963	-6.92459	5.34834	3.38189	-2.44903	13.8127	0.0645607	20.3061	-2.94391	0
0.0600	1.7963	6.53775	9.00888	3.69388	-1.23555	9.84595	0.0645607	22.1199	-2.94391	0.322208
0.0607	3.31924	21.4701	11.7488	1.24793	-0.308887	9.84595	2.81198	16.6368	-3.87803	0
0.0613	5.11554	28.2013	8.39514	-0.274545	-0.617773	9.24386	7.08733	4.73253	-6.00104	0
0.0620	5.11554	26.6539	6.24704	-0.586528	-1.85332	15.6189	5.25094	-1.98057	-6.62379	0
0.0627	4.52979	21.1606	7.7814	0.336941	-2.14014	20.5065	-0.236722	5.04525	-5.4066	0
0.0633	2.69444	15.3579	10.8282	1.24793	-2.44903	17.7794	-0.846462	18.1587	-3.87803	0
0.0640	1.1715	13.5397	14.1819	1.24793	-3.0668	15.6189	2.20224	25.7892	-2.94391	0.322208
0.0647	0.546699	16.9053	14.7956	0.336941	-1.85332	13.8127	4.94965	25.4973	-2.94391	0.322208
0.0653	0.546699	24.5262	9.60071	-0.886031	-0.0220633	10.448	6.16913	17.5541	-3.25528	0
0.0660	2.06965	31.5282	2.58649	-2.109	-0.617773	5.27715	5.86067	2.89789	-2.63253	0
0.0667	2.38204	25.4547	-0.460308	-2.42099	-1.85332	1.91252	3.42172	-7.77636	-1.72672	-0.322208
0.0673	1.1715	12.031	0.153436	-1.19801	-2.75792	6.80008	2.20224	-2.58517	-0.509523	0
0.0680	3.59259	10.1741	4.42772	-0.886031	-3.68458	14.7335	1.28404	5.04525	-0.509523	0
0.0687	9.09863	21.4701	9.90758	-1.8095	-2.44903	18.3815	-0.236722	5.33712	-1.13227	0
0.0693	13.0817	30.9479	10.5213	-1.8095	-1.54443	16.5398	-2.07312	10.841	-0.820898	0
0.0700	13.3551	24.8357	8.70201	-0.886031	-1.54443	12.8918	-3.90233	19.6806	-0.198148	0
0.0707	12.7693	14.1587	7.7814	-1.19801	-2.44903	10.1293	-3.59388	20.3061	-0.509523	0
0.0713	13.6675	8.97489	8.39514	-3.01999	-3.68458	9.84595	-1.15492	19.0761	-1.41534	0
0.0720	15.1904	3.17216	5.94016	-4.85445	-4.28029	8.60635	0.6743	17.8669	-2.34947	0
0.0727	15.1904	-9.67122	1.38092	-2.42099	-4.58917	1.59377	0.0645607	27.6238	-2.94391	-0.644416
0.0733	16.44	-37.7178	1.97275	7.05081	-4.28029	-4.21463	1.5925	58.4373	-2.34947	-0.966624
0.0740	17.3382	-38.3367	5.04147	12.2297	-5.80265	-6.65841	4.33991	81.0367	-1.13227	0
0.0747	16.44	11.412	10.2145	7.9618	-6.42043	-7.54384	4.94965	68.507	0.113227	0
0.0753	15.8152	34.8938	17.8424	2.4709	-4.89806	-6.94175	4.03146	29.7503	0.396295	0
0.0760	14.2923	17.5243	18.1493	-0.274545	-4.58917	-6.65841	2.81198	1.98057	0.113227	0
0.0767	10.3092	5.29983	14.4887	0.336941	-5.20694	-2.37294	2.51069	4.41981	-0.198148	0
0.0773	6.36514	-0.812383	13.875	0.636445	-3.9714	4.63964	2.81198	3.52334	0.396295	0
0.0780	4.84219	-2.01161	19.3768	-0.886031	-3.0668	6.16257	2.51069	-16.9287	-1.41534	0
0.0787	5.74034	5.91879	23.6511	5.21635	-4.28029	5.56048	2.51069	-26.7065	-5.4066	0
0.0793	5.42794	14.7776	20.6043	11.9302	-4.58917	10.448	2.20224	-13.2803	-8.43543	0.322208
0.0800	3.31924	15.6674	10.8282	6.12734	-4.89806	17.7794	1.89378	7.79721	-11.1812	0
0.0807	2.38204	9.55517	-5.04147	-0.274545	-4.58917	32.7254	2.20224	29.7503	-10.2754	0
0.0813	4.21739	8.35594	-9.31576	0.935949	-1.85332	51.3548	1.89378	63.6285	-4.1611	0
0.0820	8.20048	17.5243	-4.42772	2.4709	-0.0220633	45.5464	0.0645607	76.7629	-1.41534	0.322208
0.0827	11.8321	23.9073	-10.8282	1.24793	0.286823	18.7002	-0.236722	38.0062	-2.94391	0.322208
0.0833	14.6047	26.9634	-12.3626	-0.274545	0.904596	3.43546	1.89378	9.0064	-2.63253	0
0.0840	13.6675	34.004	-4.12085	-3.01999	0.59571	3.1167	1.89378	17.8669	-2.34947	0
0.0847	8.47383	10.4836	0.153436	-6.07743	-1.54443	5.56048	-0.236722	15.4068	-4.47248	0
0.0853	3.90499	-33.1529	1.07405	-8.21139	-3.9714	6.80008	0.982757	14.8022	-4.78385	0
0.0860	5.42794	-32.8435	1.66588	-6.98842	-4.28029	6.80008	2.20224	33.7323	-2.63253	0
0.0867	9.09863	-5.99616	0.153436	-1.8095	-5.20694	4.95839	1.89378	45.0111	-0.198148	0.322208
0.0873	9.72343	2.5532	1.38092	1.85942	-7.63391	4.03755	3.12043	49.9105	0.70767	0.322208
0.0880	10.0358	-2.94005	10.2145	1.24793	-7.9428	7.68551	4.94965	28.5411	3.14206	0
0.0887	9.09863	8.04646	14.7956	-0.586528	-8.86946	11.971	3.73017	-20.8898	8.94495	0
0.0893	5.11554	44.9905	6.55391	-1.19801	-11.0096	11.3689	1.5925	-45.9285	14.7478	0.322208
0.0900	2.38204	43.1336	5.63329	-0.586528	-9.46517	9.84595	0.982757	-23.9545	18.3994	0.322208
0.0907	0.859098	-21.5475	11.7488	0.0249586	-5.20694	8.60635	2.81198	17.5541	26.6367	0.322208
0.0913	-3.12399	-57.5631	-5.34834	0.0249586	-4.28029	6.80008	2.51069	50.8069	34.2795	0.322208
0.0920	-5.23269	-55.126	-29.7666	-1.8095	-4.89806	5.87924	0.982757	80.1194	24.5137	0.322208
0.0927	0.234299	-83.5207	-38.2932	-3.33198	-3.9714	6.16257	2.51069	91.3983	3.45343	0.322208
0.0933	6.95088	-85.9578	-44.4088	-4.55495	-3.68458	4.95839	3.42172	69.4243	-13.927	0.322208
0.0940	11.2464	-20.3482	-35.2464	-5.46594	-3.0668	2.83337	1.5925	52.3497	-25.8441	0.322208
0.0947	13.9799	-14.855	-10.2364	-7.5999	-1.54443	2.83337	1.5925	38.9235	-32.8642	0
0.0953	14.2923	-85.0294	3.50711	-6.98842	-0.92666	4.03755	3.42172	12.6757	-33.1756	0
0.0960	10.934	-121.973	6.55391	2.15892	-0.92666	4.63964	4.6412	-5.0244	-21.8812	0.322208
0.0967	3.00684	-122.554	4.12085	7.9618	-0.308887	4.95839	3.73017	-15.0941	1.92486	0.322208
0.0973	-2.81159	-63.9848	1.97275	3.08239	-0.617773	4.3563	3.73017	-21.2026	28.788	0.322208
0.0980	-0.976248	8.66541	5.04147	-0.886031	0.59571	2.83337	4.6412	-29.4376	35.1854	0.322208
0.0987	3.90499	3.79112	9.60071	-0.886031	2.42697	1.27502	4.33991	-53.2462	20.5507	0.322208
0.0993	6.95088	34.5843	11.1351	2.77041	3.04474	0.389588	2.51069	-60.5639	16.8709	0.322208
0.1000	10.0358	89.5168	7.16765	19.8671	3.35363	0.0708342	2.20224	-29.1457	41.9224	0.322208
0.1007	12.4569	58.4142	-1.6878	36.3398	4.25822	0.389588	2.51069	13.593	69.6914	0.322208
0.1013	7.88808	27.5823	-7.47452	35.4288	5.4717	1.59377	2.81198	39.5281	91.3461	0.322208
0.1020	-3.39734	43.4431	-3.81398	24.4345	5.18488	0.991678	1.28404	43.4892	119.115	0
0.1027	-13.4722	66.0351	0.460308	13.4527	3.04474	-0.24792	-0.545179	54.4762	92.2519	-0.644416
0.1033	-16.2448	54.4296	-0.153436	7.64982	2.42697	2.19586	2.20224	84.9979	8.63358	-0.322208
0.1040	-15.62	10.1741	-0.76718	0.336941	1.52237	4.95839	3.42172	87.7498	-69.4932	0.322208
0.1047	-14.9952	-12.1084	1.66588	-7.91189	-0.0220633	4.3563	1.28404	48.3677	-136.326	0
0.1053	-3.12399	-18.8009	12.0557	-9.73387	-0.308887	3.43546	1.28404	12.3629	-150.054	0
0.1060	15.1904	-51.4509	24.8785	-16.4477	0.286823	2.51461	1.28404	14.8022	-103.037	0.322208
0.1067	21.0089	-75.5903	29.1309	-27.442	0.286823	-0.531256	-1.15492	56.6236	-48.716	0.322208
0.1073	13.9799	-23.0949	23.3442	-23.4736	1.21348	-1.77085	-2.3744	79.494	-10.8981	0.322208
0.1080	2.69444	33.6945	14.7956	-5.46594	2.73585	-0.24792	0.0645607	31.2931	5.60475	0
0.1087	-6.75563	14.4681	18.763	10.4077	1.80919	-0.531256	1.28404	-35.2334	1.92486	0.644416
0.1093	-13.7846	-4.44876	29.7447	17.1216	1.52237	-1.4521	0.0645607	-56.6027	-16.3896	0
0.1100	-21.3993	18.414	20.2974	11.6182	2.73585	0.0708342	0.982757	-32.1895	-29.4957	-0.966624
0.1107	-26.2806	42.5147	-7.16765	0.0249586	3.04474	0.991678	1.28404	22.1199	-20.664	0
0.1113	-27.8426	38.5688	-22.4236	-0.886031	2.11808	-0.24792	0.0645607	65.1505	-9.05818	0.322208
0.1120	-32.7238	-38.3367	-20.9111	3.99338	2.11808	-0.531256	-0.236722	61.1893	-25.8441	0.644416
0.1127	-35.7697	-176.906	-22.4236	4.90437	1.52237	-0.531256	-0.846462	26.1019	-52.0845	0.644416
0.1133	-30.5761	-222.361	-31.5859	5.21635	1.21348	-0.85001	-0.545179	-23.9545	-45.3758	0.322208
0.1140	-21.7118	-106.383	-28.5391	6.43933	1.80919	-0.531256	0.6743	-64.5459	-9.36955	0
0.1147	-16.2448	12.031	-18.763	8.57329	1.80919	0.0708342	0.373017	-80.0986	22.9851	0
0.1153	-13.7846	26.6539	-29.4597	8.26131	0.904596	-1.77085	-1.76466	-116.124	33.0624	0.322208
0.1160	-15.9324	-21.857	-45.9212	6.12734	2.11808	-1.4521	-2.68285	-168.599	44.0454	0.322208
0.1167	-19.8764	-94.1977	-36.4739	5.21635	3.35363	-0.24792	-1.46338	-183.86	63.5771	0.322208
0.1173	-18.9783	-93.8882	-6.26896	2.77041	2.11808	-1.13335	-1.46338	-150.607	40.9883	0.322208
0.1180	-12.2617	64.2169	11.4419	-0.586528	3.04474	-1.4521	-1.46338	-100.238	-7.84099	0.322208
0.1187	-10.4263	128.898	7.7814	-1.8095	4.56711	-1.13335	0.0645607	-83.4551	-13.0211	0.322208
0.1193	-14.4094	-36.2091	2.58649	-3.63148	3.04474	-1.77085	-1.46338	-102.677	-0.198148	0.322208
0.1200	-12.8865	-102.438	2.58649	-4.85445	3.64045	-1.13335	-2.07312	-117.646	-12.1153	0.322208
0.1207	-8.59098	-23.0949	2.89336	-4.85445	5.18488	-0.531256	0.373017	-126.194	-22.1642	0.322208
0.1213	-9.52818	-52.6888	3.20024	-3.94346	3.04474	-1.77085	0.373017	-134.429	-13.0211	0
0.1220	-12.8865	-128.975	-4.7346	0.336941	2.11808	-2.05419	-0.236722	-114.894	20.2394	0.322208
0.1227	-12.8865	-118.298	-13.8969	7.64982	3.35363	-1.4521	1.28404	-53.2462	66.9456	0.322208
0.1233	-8.27858	-27.6597	-9.9295	9.79626	2.73585	-2.97504	0.6743	25.4973	78.2117	0
0.1240	-4.02214	112.418	-4.7346	5.21635	1.80919	-3.57713	-0.846462	70.0498	43.734	0.322208
0.1247	1.4839	204.566	-4.7346	2.77041	3.94934	-1.13335	0.6743	51.4324	-9.964	0.644416
0.1253	3.90499	180.156	-2.58649	1.85942	1.80919	-0.24792	1.5925	16.9495	-79.5421	0.322208
0.1260	-0.976248	126.151	-4.42772	4.29288	-2.75792	-1.13335	-0.236722	10.841	-130.834	0.322208
0.1267	-5.23269	124.643	-10.8282	18.0326	-2.75792	0.672925	0.982757	-2.58517	-108.84	0
0.1273	-8.27858	129.517	-10.2364	39.6967	-0.92666	1.27502	2.81198	-39.82	-43.8473	0.322208
0.1280	-9.80153	127.66	-5.96208	58.9273	-0.0220633	-1.77085	0.982757	-62.7112	-9.65262	0.322208
0.1287	-6.75563	119.73	-3.50711	65.6412	1.21348	-4.49797	-1.15492	-67.277	2.54761	0
0.1293	-2.49919	56.8668	-3.20024	62.5838	0.59571	-6.65841	-1.46338	-52.037	37.6481	0
0.1300	1.4839	-21.5475	-2.58649	58.0039	-0.308887	-6.94175	-2.3744	-22.4326	71.2199	0.322208
0.1307	7.88808	-45.3774	3.81398	56.7934	1.80919	-4.21463	-2.3744	-10.2156	75.7773	0.322208
0.1313	12.7693	-47.505	11.7488	59.2268	3.64045	-1.77085	-1.15492	-9.92372	58.397	0.322208
0.1320	12.4569	-74.0429	17.2506	37.8622	3.04474	-1.77085	-1.46338	-3.18977	14.7478	0.644416
0.1327	10.934	-82.5922	24.5717	-4.85445	3.64045	-1.13335	-1.46338	2.60602	-26.4386	0
0.1333	13.9799	-12.9981	26.0841	-25.3081	4.25822	-0.24792	-0.846462	4.41981	-32.5528	-0.966624
0.1340	19.4859	69.7102	21.218	-31.4104	4.25822	0.672925	-1.15492	9.31912	-19.1354	-0.322208
0.1347	21.907	59.9229	17.5355	-65.5913	5.18488	2.19586	-0.846462	15.7195	-9.05818	0.644416
0.1353	20.0717	-37.7178	12.3626	-103.429	5.78059	2.83337	0.982757	32.815	-10.2754	0.644416
0.1360	17.6506	-129.904	9.90758	-95.4917	4.876	1.91252	0.6743	53.8716	-12.7098	0.322208
0.1367	17.963	-123.173	16.33	-68.3367	3.35363	2.19586	-0.236722	47.7631	-20.0412	0
0.1373	19.4859	6.22827	23.6511	-52.775	2.11808	3.1167	2.20224	26.7065	-35.61	0
0.1380	20.6965	129.208	22.1167	-35.6784	1.21348	1.91252	3.42172	19.9934	-31.9301	0.322208
0.1387	20.3841	116.983	6.24704	-21.3396	-0.308887	-0.24792	0.0645607	22.4326	-12.1153	0
0.1393	17.963	28.5108	-12.6694	-19.2057	-1.54443	-1.77085	-2.07312	27.0192	-2.63253	0
0.1400	17.0258	14.1587	-16.6368	-20.4162	-0.617773	-2.05419	-0.545179	32.5023	0.396295	0.322208
0.1407	16.7134	83.7141	-9.9295	-19.5052	0.59571	-1.77085	-0.236722	39.82	3.76481	0.322208
0.1413	12.1445	99.3041	-8.39514	-17.9827	1.52237	-2.05419	-1.76466	48.9931	4.982	0
0.1420	6.95088	56.5573	-13.8969	-16.7597	2.11808	-2.6917	-2.3744	54.7889	6.51057	0.322208
0.1427	4.21739	39.4973	-19.9905	-16.4477	2.11808	-2.97504	-2.07312	60.5847	7.41638	0.322208
0.1433	3.31924	43.4431	-17.8643	-16.4477	1.80919	-3.29379	-2.3744	59.3547	7.10501	0
0.1440	3.31924	20.5417	-7.7814	-14.6258	3.04474	-2.6917	-1.46338	40.7373	8.63358	0
0.1447	1.1715	-41.7023	-1.6878	-11.8803	4.25822	-1.77085	0.0645607	17.8669	7.10501	0
0.1453	-0.663848	-96.3254	0.76718	-9.73387	3.35363	-2.6917	-0.236722	0.166785	1.33042	0
0.1460	1.4839	-121.354	7.7814	-6.07743	3.04474	-2.6917	0.6743	-21.5153	1.01905	0.322208
0.1467	3.00684	-125.3	17.5355	-1.19801	4.876	-1.13335	2.81198	-41.05	5.29337	0.322208
0.1473	1.1715	-95.7064	27.0047	0.935949	4.56711	-1.13335	1.89378	-40.4245	5.29337	0.322208
0.1480	-1.562	-70.9868	35.5533	1.54744	3.94934	-1.13335	1.28404	-32.5023	18.3994	0.322208
0.1487	-5.54509	-49.6327	34.3258	3.69388	5.4717	-0.85001	1.5925	-37.3807	68.1628	0
0.1493	-9.52818	23.9073	30.0515	4.90437	5.78059	-0.531256	0.0645607	-29.4376	124.012	0.322208
0.1500	-11.0511	10.7931	33.0983	2.77041	7.61185	0.0708342	0.373017	12.6757	156.339	0.322208
0.1507	-11.0511	-180.233	33.0983	-0.586528	10.3698	0.672925	1.5925	57.8328	173.436	0
0.1513	-6.44323	-278.531	22.7304	-5.46594	8.84739	-0.24792	1.89378	80.1194	139.27	0.322208
0.1520	4.84219	-135.088	12.6694	-13.7023	6.70725	0.991678	2.51069	70.9671	10.4735	0.322208
0.1527	12.7693	-28.8976	18.4562	-20.4162	6.70725	2.83337	2.20224	37.6934	-90.5252	0.322208
0.1533	15.1904	-57.8726	27.0047	-20.1167	6.70725	3.71879	1.5925	10.2364	-56.9816	0.322208
0.1540	16.7134	-38.0272	12.6694	-15.5367	5.4717	3.43546	2.51069	7.48448	3.76481	0.322208
0.1547	16.44	-66.422	-13.8969	-13.4028	2.73585	2.51461	2.81198	12.3629	-15.1725	0.322208
0.1553	18.2754	-196.713	-24.2648	-13.4028	-1.85332	1.27502	1.89378	-1.66785	-94.5164	0.322208
0.1560	22.2194	-159.188	-25.4923	-6.68891	-5.20694	-0.85001	1.89378	-13.8849	-124.72	0
0.1567	24.0547	-73.1144	-33.4271	5.21635	-6.72931	-4.21463	2.20224	1.98057	-69.1818	0.322208
0.1573	25.8901	-132.341	-38.2932	11.9302	-5.20694	-5.41881	2.51069	41.6546	-14.8611	0.322208
0.1580	27.413	-75.8611	-28.846	13.4527	-2.75792	-3.89588	2.20224	67.6105	0.113227	0.322208
0.1587	25.5777	105.997	-22.7304	12.2297	-3.9714	-4.21463	0.0645607	55.7062	2.54761	0.322208
0.1593	21.5946	251.258	-31.5859	10.4077	-4.28029	-3.89588	0.0645607	35.5669	5.88782	0.644416
0.1600	15.5028	331.529	-34.9396	7.9618	-2.14014	-2.37294	2.20224	16.9495	8.94495	0.322208
0.1607	8.78623	267.738	-21.218	4.90437	-2.14014	-2.6917	0.0645607	-3.50249	9.87908	-0.322208
0.1613	3.90499	147.505	-3.20024	3.38189	-2.44903	-2.37294	-1.46338	-6.25444	9.25633	0
0.1620	1.7963	113.927	3.50711	3.38189	-1.54443	-0.531256	0.0645607	6.87989	10.1621	0.644416
0.1627	1.7963	138.956	1.97275	3.08239	-3.0668	-0.85001	-1.15492	11.4456	26.0423	0
0.1633	3.90499	136.828	5.63329	1.85942	-4.58917	-1.4521	-1.76466	5.96257	52.2827	-0.966624
0.1640	4.84219	83.4433	12.9763	0.935949	-3.68458	0.672925	1.28404	11.4456	78.8345	0
0.1647	4.21739	23.2883	10.5213	1.24793	-4.28029	0.389588	0.982757	24.8718	106.009	0.644416
0.1653	8.20048	-56.9442	4.12085	3.08239	-6.11154	-3.29379	-2.07312	27.0192	123.389	0.322208
0.1660	14.9171	-71.9152	6.86078	3.08239	-5.80265	-3.89588	-0.846462	29.7503	105.698	0
0.1667	16.44	61.1608	14.7956	-4.24297	-6.72931	-3.57713	-0.236722	58.1455	-4.47248	0
0.1673	16.44	161.239	15.1025	-11.5683	-8.25168	-2.37294	-1.46338	89.8764	-145.78	0
0.1680	18.8611	120.658	5.94016	-9.43436	-9.17834	0.0708342	0.0645607	77.3675	-171.398	0
0.1687	22.5318	26.3444	-1.6878	-5.46594	-10.0829	1.59377	0.373017	20.9107	-122.285	0
0.1693	24.3671	31.2574	-0.460308	-4.24297	-11.9142	2.19586	0.373017	-22.4326	-70.7104	0
0.1700	20.6965	137.138	1.07405	-0.586528	-12.2231	1.91252	1.28404	-34.3369	-10.8981	0
0.1707	12.1445	148.434	-4.12085	2.77041	-11.0096	0.672925	1.28404	-44.6984	10.7849	0
0.1713	7.26328	102.36	-9.62263	2.4709	-9.17834	-0.531256	2.51069	-44.0938	-7.84099	0
0.1720	8.78623	124.913	-7.47452	3.99338	-8.56057	-2.05419	3.12043	-25.1637	-21.5698	0.322208
0.1727	12.4569	145.997	2.27962	9.79626	-7.9428	-1.4521	1.28404	-13.8849	-22.1642	0
0.1733	15.1904	123.714	11.4419	13.1532	-6.72931	1.27502	1.89378	-19.3679	-21.8812	-0.322208
0.1740	15.8152	102.67	8.70201	11.9302	-7.0382	1.59377	1.89378	-23.6418	-22.1642	0
0.1747	13.0817	80.9675	3.81398	16.1982	-6.72931	0.991678	-0.545179	-13.2803	-19.7298	0.322208
0.1753	11.8321	57.4857	9.60071	24.4345	-3.37569	2.51461	-0.846462	5.33712	-14.8611	0.322208
0.1760	12.1445	51.064	16.33	22.6125	-1.85332	2.83337	-0.545179	27.0192	-7.52961	0
0.1767	10.3092	38.5688	19.6836	15.2872	-2.44903	2.83337	-0.236722	43.1974	-0.820898	0.322208
0.1773	9.72343	13.5397	16.9437	12.2297	-0.92666	4.3563	0.982757	47.4504	0.113227	0.322208
0.1780	11.2464	-16.9827	5.63329	10.7073	-0.617773	4.95839	-0.545179	46.8458	-5.4066	0.322208
0.1787	13.0817	-78.6077	7.16765	11.0068	-2.44903	3.43546	-3.29259	42.28	-3.56666	0
0.1793	16.1276	-144.527	23.0373	7.35032	-3.68458	1.91252	-2.68285	29.4584	10.7849	0
0.1800	17.6506	-154.623	34.3258	-7.3004	-5.51583	0.0708342	-1.46338	7.79721	30.911	0.322208
0.1807	14.9171	-120.736	45.3075	-14.6258	-5.51583	-1.13335	-2.3744	-18.7633	61.4541	0
0.1813	13.6675	-82.9017	48.3762	-6.37693	-3.9714	0.0708342	-2.98414	-24.5591	106.915	0.322208
0.1820	16.1276	-31.6442	36.4739	2.4709	-3.9714	0.389588	-2.68285	-6.54632	135.59	0.322208
0.1827	18.8611	-29.4779	25.1635	6.12734	-4.58917	0.0708342	-3.90233	1.37598	132.249	0.322208
0.1833	17.6506	-140.581	16.0231	7.35032	-3.0668	-0.85001	-5.43027	0.166785	123.389	0
0.1840	10.0358	-231.529	3.50711	4.90437	-0.308887	-2.05419	-6.34129	1.37598	88.6003	0.322208
0.1847	6.67753	-194.275	-0.153436	-5.46594	3.64045	-2.05419	-5.12181	0.166785	30.3166	0.322208
0.1853	9.72343	-93.5787	1.66588	-20.1167	7.92073	-2.37294	-3.90233	9.92372	-3.56666	0
0.1860	9.72343	-92.0313	-4.12085	-32.6334	10.6786	0.0708342	-1.46338	27.0192	-52.3959	0
0.1867	7.88808	-159.498	-12.0557	-40.5578	12.5099	4.3563	1.5925	29.1457	-136.326	0
0.1873	2.69444	-124.72	-22.1386	-41.7807	13.7234	3.71879	1.5925	21.5153	-171.398	0.322208
0.1880	-7.69283	-134.778	-39.8276	-26.219	15.5546	2.19586	0.6743	12.0502	-124.72	0.322208
0.1887	-11.9493	-248.589	-45.0225	-2.42099	17.3859	4.63964	0.6743	-11.1329	-61.8504	0
0.1893	-7.38043	-305.069	-32.8134	-6.98842	17.6948	6.80008	0.0645607	-47.4504	-21.5698	-0.322208
0.1900	-4.33454	-222.67	-34.0189	-29.8755	17.3859	5.87924	0.0645607	-67.277	3.14206	0
0.1907	-1.8744	117.293	-46.2281	-26.219	18.5994	5.27715	0.373017	-59.3547	-4.47248	0.322208
0.1913	0.234299	431.027	-46.8418	1.24793	18.5994	5.27715	0.0645607	-39.2154	-21.2584	0.322208
0.1920	-5.85749	292.458	-45.3294	26.269	16.7681	4.63964	0.373017	-12.0502	11.3793	0.322208
0.1927	-12.8865	26.6539	-35.2464	39.3972	16.7681	4.3563	0.373017	18.4715	69.6914	-0.322208
0.1933	-12.2617	-2.63057	-5.04147	38.1742	16.1724	3.43546	0.0645607	26.3937	112.095	-0.644416
0.1940	-16.5181	47.4277	22.7304	33.5943	15.2458	2.51461	0.6743	10.841	168.567	0
0.1947	-27.5302	87.3892	30.6653	32.0718	16.1724	3.71879	0.373017	22.1199	186.57	0.322208
0.1953	-33.3096	142.322	23.6511	7.9618	15.8635	3.43546	-0.846462	74.9282	33.6568	0.322208
0.1960	-29.6389	195.436	11.4419	-27.7415	12.5099	2.51461	-1.15492	108.181	-148.214	0
0.1967	-19.6031	215.862	8.70201	-24.9961	10.3698	0.991678	-0.846462	112.768	-147.592	0.322208
0.1973	-10.7387	116.983	5.94016	22.912	10.0609	-3.29379	-1.76466	135.951	-78.0136	0.322208
0.1980	-5.85749	-54.507	-14.2038	70.2211	9.13422	-6.65841	-1.46338	166.472	-54.2075	0.322208
0.1987	3.00684	-113.115	-17.2506	80.2919	8.22962	-6.65841	-0.236722	136.263	-33.4587	0.322208
0.1993	9.09863	-63.6753	8.39514	66.5522	8.22962	-6.33966	-0.846462	41.9673	4.67062	0
0.2000	5.42794	-89.0139	19.6836	58.6153	7.30296	-4.21463	-1.15492	-8.38095	50.7541	0
0.2007	0.234299	-261.123	11.1351	45.1876	6.08948	-0.531256	-1.15492	5.64985	79.1458	0.322208
0.2013	-0.976248	-320.001	5.34834	0.935949	5.4717	1.91252	-1.15492	-3.18977	52.9054	0.322208
0.2020	0.234299	-64.8746	8.70201	-51.552	5.4717	2.83337	-0.545179	-41.9465	-30.4298	0.322208
0.2027	-0.0390499	162.786	20.9111	-69.2477	5.4717	2.19586	-1.15492	-79.1813	-106.717	0
0.2033	-4.92029	50.7546	35.2464	-53.374	7.01614	4.03755	-2.68285	-122.212	-115.86	0
0.2040	-12.8865	-214.121	39.8276	-29.576	9.13422	8.32302	-1.15492	-160.677	-74.0506	0
0.2047	-16.2448	-407.893	31.8928	-23.1616	9.13422	10.1293	0.982757	-157.612	-49.6501	0.322208
0.2053	-12.2617	-539.422	19.3768	-43.9147	8.22962	8.32302	-0.545179	-115.811	-55.1417	0.322208
0.2060	-10.1139	-636.792	17.8424	-50.3291	9.13422	4.63964	-1.15492	-70.3416	-6.31242	0.322208
0.2067	-7.06803	-607.817	37.6795	-21.3396	8.53851	0.991678	-0.846462	-40.1327	98.6775	0.322208
0.2073	7.88808	-404.837	56.0041	6.12734	6.39836	-0.24792	-0.846462	-18.7633	164.293	0.322208
0.2080	21.907	-174.43	63.0183	11.9302	5.18488	-0.531256	-2.07312	-6.25444	171.001	0.322208
0.2087	25.5777	97.4472	94.1439	10.7073	1.21348	-2.97504	-5.12181	-5.94172	141.393	0
0.2093	31.9819	470.988	121.916	4.60487	-2.14014	-4.49797	-6.34129	5.96257	37.0253	0
0.2100	38.6985	587.275	81.9348	-8.21139	-1.23555	-2.05419	-4.20362	23.0372	-122.568	0
0.2107	35.0278	394.702	-0.153436	-13.4028	-2.14014	-2.05419	-2.68285	21.2234	-184.843	0
0.2113	25.5777	319.924	-76.7618	-4.85445	-4.58917	-3.89588	-2.98414	11.4456	-136.326	-0.322208
0.2120	17.0258	315.05	-136.558	3.69388	-2.75792	-2.37294	-2.07312	-3.18977	-115.265	0
0.2127	11.8321	250.059	-157.623	4.29288	-1.85332	-0.531256	-1.76466	-35.2334	-111.585	0.322208
0.2133	9.72343	274.469	-143.901	10.7073	-2.14014	-0.85001	-1.15492	-62.7112	-60.0104	0.322208
0.2140	3.90499	302.864	-118.562	28.1034	-0.617773	-0.24792	1.5925	-54.1635	-1.13227	0
0.2147	-5.23269	233.27	-84.6967	27.7914	-0.308887	-1.13335	2.81198	-31.5849	24.2023	0.322208
0.2153	-9.21578	133.772	-48.3762	11.9302	-1.54443	-3.57713	1.28404	-21.8072	45.2626	0.322208
0.2160	-6.16989	106.306	-32.5065	6.12734	-0.92666	-3.89588	1.5925	-15.4068	62.9543	0
0.2167	-4.64694	128.279	-44.4088	2.4709	-0.617773	-2.05419	2.20224	-2.58517	21.1452	0
0.2173	-4.92029	73.656	-49.6037	-6.68891	-1.54443	-1.13335	1.28404	14.5103	-47.4988	0.322208
0.2180	-2.18679	70.5999	-34.9396	-10.3454	-1.85332	-1.77085	1.5925	27.6238	-58.1988	0.322208
0.2187	-3.39734	176.829	-35.5533	-5.46594	-2.44903	-2.6917	0.6743	36.4634	-29.4957	0.322208
0.2193	-7.69283	135.32	-43.4881	-0.886031	-2.75792	-3.29379	-1.15492	58.1455	-38.9502	0
0.2200	-4.64694	27.5823	-22.7304	-1.8095	-2.44903	-4.21463	-2.3744	79.494	-75.2678	0
0.2207	-0.976248	51.3735	12.0557	-3.01999	-2.14014	-4.81672	-2.07312	61.1893	-56.6702	0.322208
0.2213	-3.70974	-21.5475	36.1671	-1.19801	-1.23555	-4.81672	-1.46338	16.6368	-0.509523	0.322208
0.2220	-2.49919	-163.173	35.5533	0.636445	-0.308887	-5.10006	-2.68285	-7.46364	26.6367	0
0.2227	-0.0390499	-146.384	8.70201	-1.19801	-0.92666	-5.10006	-2.98414	-2.58517	32.751	-0.322208
0.2233	-1.8744	-92.0313	-2.30154	-3.33198	-0.617773	-3.89588	-1.15492	22.1199	23.6079	-0.644416
0.2240	4.52979	-38.9557	24.2648	-3.94346	-0.0220633	-2.37294	-1.46338	36.4634	-12.1153	0
0.2247	13.9799	-11.1799	39.8276	-3.63148	-0.0220633	-1.4521	-2.3744	-2.58517	-38.9502	0.322208
0.2253	4.84219	-48.3948	26.0841	-1.8095	-0.0220633	-0.85001	-1.15492	-60.5639	-25.2214	0
0.2260	-14.4094	35.8222	8.08827	0.636445	1.52237	-1.13335	-0.236722	-63.6285	4.982	0.322208
0.2267	-24.4843	136.828	-2.58649	1.85942	6.39836	-2.05419	0.0645607	-15.4068	15.3706	0.322208
0.2273	-26.9054	65.7256	2.27962	2.15892	12.7967	-0.531256	2.51069	6.25444	-3.56666	0.322208
0.2280	-26.9054	-29.4779	24.5717	1.54744	14.0323	0.991678	3.42172	-21.8072	-16.6727	0.322208
0.2287	-26.9054	-52.0699	52.0367	-0.274545	9.4431	-0.85001	1.89378	-18.4506	1.01905	0
0.2293	-28.7407	25.1452	72.1807	-1.8095	7.92073	-1.77085	2.20224	27.6238	16.2764	0
0.2300	-28.7407	169.169	84.3679	-3.63148	7.61185	-3.29379	3.42172	36.4634	1.92486	0
0.2307	-27.2178	158.492	70.9532	-4.55495	2.73585	-5.10006	1.89378	19.0761	-15.1725	0.322208
0.2313	-16.5181	-18.8009	3.20024	-2.109	-1.54443	-4.21463	0.982757	27.6238	-10.5867	0.644416
0.2320	4.21739	-96.0159	-76.1481	-0.274545	-5.51583	-2.37294	1.28404	54.7889	-2.03809	0.322208
0.2327	8.47383	-22.7854	-111.548	-0.886031	-11.6053	-1.13335	0.373017	68.507	-2.63253	0
0.2333	-4.02214	13.2302	-113.367	-1.19801	-14.0543	0.991678	0.982757	43.1974	3.45343	0
0.2340	-9.80153	32.7661	-102.999	-0.586528	-13.4366	2.83337	2.51069	6.87989	27.2595	0
0.2347	-13.7846	132.883	-78.888	-0.274545	-15.2678	3.1167	1.5925	-5.64985	51.0655	0.322208
0.2353	-21.3993	139.575	-26.6979	-1.19801	-16.4813	4.03755	0.0645607	-17.2414	69.9744	0
0.2360	-20.5012	48.0079	43.4881	-2.72049	-12.8188	5.56048	0.6743	-32.1895	97.7434	0
0.2367	-16.8305	36.4412	95.9852	-3.33198	-7.0382	7.08342	0.6743	-40.4245	109.661	0.322208
0.2373	-18.6659	15.3579	94.4508	-4.55495	-3.68458	9.24386	-0.846462	-46.8458	79.1458	0.322208
0.2380	-20.8136	-130.484	37.0658	-7.3004	-2.44903	11.3689	-0.236722	-31.2722	49.8483	0.322208
0.2387	-19.6031	-345.649	-5.96208	-10.3454	-3.37569	10.7668	-0.236722	-9.61099	58.0856	0
0.2393	-18.9783	-515.631	-6.26896	-14.6258	-2.44903	10.448	-0.846462	-13.8849	29.4108	0.322208
0.2400	-31.4742	-637.991	-20.2974	-21.6391	-0.308887	14.4148	0.982757	-31.2722	-67.3419	0.322208
0.2407	-56.8176	-731.686	-37.3945	-24.0851	-1.85332	9.84595	1.5925	-38.5899	-113.737	0
0.2413	-65.6819	-604.451	-23.9579	-17.3712	-3.9714	-6.02091	0.0645607	-12.9675	-68.2477	0
0.2420	-33.3096	-488.474	-28.2322	-9.43436	-6.72931	-17.921	1.28404	34.3369	-23.6928	0
0.2427	4.84219	-698.146	-68.5201	-5.16644	-10.0829	-21.0023	3.12043	52.9543	-13.3325	0.322208
0.2433	9.41103	-674.007	-111.548	-2.72049	-10.7007	-17.921	1.89378	36.1715	-4.1611	0.322208
0.2440	8.20048	-314.818	-106.66	0.336941	-10.7007	-12.4314	1.89378	54.7889	8.63358	0
0.2447	17.6506	-156.442	-34.3258	2.77041	-13.4366	-9.98762	4.6412	88.3544	11.3793	0
0.2453	23.4299	26.3444	40.4413	3.69388	-17.408	-9.98762	5.25094	82.2459	4.982	0
0.2460	29.5608	561.627	102.693	3.69388	-19.857	-11.2272	2.51069	71.259	-0.198148	0
0.2467	37.8003	866.503	153.041	2.4709	-18.6214	-11.2272	1.5925	43.1974	-0.820898	0
0.2473	37.4879	536.018	127.111	1.54744	-15.2678	-8.78344	2.51069	4.12793	0.70767	0
0.2480	21.3213	107.235	41.6469	-0.274545	-12.8188	-6.94175	0.6743	-31.2722	-1.13227	0.322208
0.2487	1.7963	-158.569	-19.6836	-2.42099	-11.0096	-5.41881	-1.15492	-69.737	-8.15236	0
0.2493	0.234299	-190.02	-40.7482	-3.01999	-9.17834	-3.29379	0.0645607	-66.6724	-15.4555	0
0.2500	10.934	140.504	-35.2464	-2.42099	-10.3918	-2.6917	1.28404	-48.9723	-19.1354	0
0.2507	12.1445	402.323	-26.6979	-1.19801	-11.2964	-1.4521	1.28404	-73.9901	-27.6841	0.322208
0.2513	3.90499	383.715	-38.907	-0.274545	-10.0829	0.0708342	2.20224	-134.116	-37.1385	0.322208
0.2520	-6.44323	290.64	-50.1955	0.935949	-10.3918	-1.4521	1.28404	-164.325	-24.9383	0.322208
0.2527	-15.62	246.694	-36.1671	3.99338	-10.0829	-2.6917	0.6743	-118.563	2.23624	0.322208
0.2533	-21.126	365.417	1.66588	6.43933	-7.34709	-1.77085	2.81198	-54.4762	18.1164	-0.644416
0.2540	-22.9613	486.849	34.0189	6.73883	-6.72931	-2.6917	3.12043	17.5541	23.6079	-0.966624
0.2547	-20.8136	359.924	23.6511	5.51586	-6.72931	-1.77085	1.89378	95.6721	19.3336	0.322208
0.2553	-9.21578	155.126	4.7346	3.69388	-5.51583	0.389588	2.51069	116.729	0.113227	0.644416
0.2560	6.05274	89.2073	39.5207	1.85942	-5.20694	-0.531256	3.12043	142.685	-13.0211	0.322208
0.2567	16.44	117.293	98.1114	1.85942	-3.68458	-0.85001	2.20224	186.32	-5.4066	0.322208
0.2573	27.7254	152.109	128.623	2.77041	-0.617773	1.27502	3.42172	137.181	8.03913	0.322208
0.2580	32.6067	170.097	126.497	3.38189	-0.308887	1.59377	3.73017	45.6366	13.842	0.322208
0.2587	20.6965	167.351	105.126	3.38189	-2.75792	0.0708342	1.28404	0.771381	12.6248	0.322208
0.2593	2.38204	100.503	91.7109	3.69388	-3.0668	-0.85001	2.20224	23.6626	9.5677	0
0.2600	-10.7387	31.8377	78.2743	2.15892	-2.14014	-0.24792	4.33991	104.533	7.41638	0
0.2607	-18.9783	15.6674	29.1309	-0.274545	-1.85332	0.991678	4.6412	171.351	5.88782	0.322208
0.2613	-31.7866	-101.819	-38.907	-1.19801	0.59571	3.1167	4.6412	187.529	5.29337	0
0.2620	-32.4114	-262.632	-48.9899	-1.49752	2.73585	2.83337	5.86067	181.733	4.67062	0
0.2627	-12.5741	-247.39	-21.5249	-0.886031	5.18488	1.59377	6.47759	214.09	6.19919	0.322208
0.2633	-2.81159	-93.5787	-61.5059	-0.586528	8.84739	3.71879	7.08733	257.725	9.25633	0
0.2640	-3.70974	-40.4644	-127.724	-3.01999	11.2744	5.87924	6.77887	144.498	9.25633	0
0.2647	4.84219	-89.9037	-116.129	-6.98842	14.3412	6.48133	4.94965	-125.276	9.25633	0
0.2653	17.0258	35.8222	-39.8276	-9.73387	18.0037	11.3689	4.94965	-288.226	12.0021	0
0.2660	12.4569	147.815	21.218	-11.5683	25.3066	18.9836	6.16913	-262.603	13.842	0.322208
0.2667	-9.21578	-37.7178	21.8098	-12.4918	40.5745	25.1107	7.08733	-199.433	14.4365	0.322208
0.2673	-23.8595	-177.796	-10.5213	-10.3454	56.438	26.917	8.30681	-167.077	14.4365	0.322208
0.2680	-40.651	-211.374	-33.734	-8.82288	64.6897	27.8378	7.08733	-157.612	13.2193	0
0.2687	-65.3695	-428.048	-26.106	-9.43436	67.7344	28.4399	2.51069	-120.69	11.0963	0
0.2693	-61.3865	-604.451	22.7304	-7.91189	68.6611	25.7128	0.373017	-25.7892	10.4735	0.322208
0.2700	-41.2367	-487.546	79.8086	-6.07743	64.0719	20.8252	0.982757	58.1455	8.03913	0
0.2707	-29.3655	-293.464	101.158	-4.24297	51.8709	14.7335	-1.76466	99.946	1.33042	0
0.2713	-13.4722	-209.247	88.3353	1.54744	42.4057	11.3689	-4.51207	102.093	-3.56666	0
0.2720	2.38204	-219.924	60.8702	5.82784	39.361	11.3689	-4.51207	83.476	-2.94391	0.322208
0.2727	19.7983	-221.742	33.0983	7.9618	37.5297	9.5272	-4.20362	149.085	0.396295	0
0.2733	55.8023	-251.645	-1.07405	10.7073	35.3896	10.1293	-3.29259	292.52	5.29337	0
0.2740	89.6586	-275.475	-52.9573	8.57329	37.5297	0.0708342	-0.846462	333.112	9.5677	0
0.2747	72.8671	-88.7044	-117.948	4.90437	40.2656	-26.7753	0.982757	220.49	12.3135	0.322208
0.2753	16.7134	158.801	-166.785	1.85942	36.2942	-37.7546	-1.15492	102.385	13.2193	0.322208
0.2760	-16.8305	384.025	-179.915	-2.109	34.1761	-29.8212	-1.76466	38.9235	13.5307	0
0.2767	-26.9054	553.697	-190.589	-0.886031	39.0521	-24.6503	2.51069	-34.3369	15.965	0
0.2773	-36.0821	464.296	-158.543	-1.8095	46.686	-22.8086	4.94965	-131.677	20.5507	0.322208
0.2780	-29.6389	298.26	-55.6973	-11.8803	54.011	-23.4107	0.982757	-223.847	31.2224	0.322208
0.2787	-19.2907	287.583	20.9111	-11.8803	60.4094	-24.6503	-0.236722	-277.864	46.4798	0.322208
0.2793	-12.5741	321.162	47.4556	-0.586528	66.5209	-21.0023	4.33991	-273.59	52.2827	0.322208
0.2800	6.95088	317.177	67.5995	2.4709	74.1548	-18.8419	5.25094	-249.782	42.2055	0
0.2807	32.6067	358.067	70.9532	1.85942	85.4292	-15.1939	5.25094	-235.125	19.3336	0
0.2813	42.0568	396.83	50.8092	2.77041	93.9898	-7.86259	10.4445	-231.477	-0.509523	0.322208
0.2820	26.7882	260.427	43.795	1.85942	98.8658	-5.41881	12.2737	-269.316	-4.47248	0.644416
0.2827	11.5588	72.1473	47.1487	3.38189	105.882	-2.97504	11.0542	-299.213	-6.62379	0
0.2833	9.72343	-25.2225	33.4052	5.82784	115.038	0.991678	8.60809	-229.33	-19.1354	-0.322208
0.2840	3.00684	-174.43	34.9396	3.38189	120.223	0.389588	3.12043	-116.416	-33.77	0.322208
0.2847	-3.70974	-317.874	43.4881	0.0249586	118.392	-0.531256	0.982757	-88.6463	-35.61	0.322208
0.2853	0.234299	-286.462	-16.33	1.24793	112.302	0.389588	-1.76466	-137.181	-19.7298	-0.322208
0.2860	11.2464	-312.071	-126.19	1.54744	108.64	-0.24792	-9.08871	-141.434	-2.63253	-0.966624
0.2867	20.6965	-482.671	-201.571	-4.85445	111.376	0.672925	-10.6166	-30.9803	5.60475	0
0.2873	18.2754	-378.609	-227.809	-10.9568	114.134	1.59377	-6.95103	99.0287	17.805	0.644416
0.2880	8.20048	62.0506	-221.408	-10.3454	112.898	-1.77085	-7.25949	126.507	28.1653	0
0.2887	-9.21578	400.814	-151.222	-5.77792	112.302	-4.81672	-7.25949	90.1891	22.6738	0
0.2893	-20.5012	292.148	12.0557	2.15892	109.236	-4.21463	-3.90233	70.9671	12.3135	0
0.2900	-15.62	-49.3232	198.809	9.18478	101.315	-3.57713	-2.07312	79.2021	5.88782	0
0.2907	-24.7576	-68.2401	263.208	6.12734	94.5855	-4.21463	-2.68285	83.1632	0.70767	0
0.2913	-47.3675	230.214	173.492	0.336941	90.3273	-3.29379	-2.3744	82.2459	-2.94391	0.322208
0.2920	-54.9823	369.363	57.8234	-3.01999	81.171	-3.89588	-2.68285	82.2459	-4.78385	0
0.2927	-45.8446	263.792	8.39514	-6.37693	68.6611	-3.57713	-1.76466	61.1893	-4.47248	0.322208
0.2933	-35.7697	158.801	27.6185	-8.82288	57.6735	0.672925	1.89378	85.6025	-2.63253	0
0.2940	-29.6389	127.389	60.2784	-11.2688	45.7593	0.389588	2.20224	174.728	-3.87803	0
0.2947	-27.8426	100.194	21.8098	-11.8803	32.9405	-4.49797	-1.15492	225.077	-8.43543	0.322208
0.2953	-39.4404	41.6249	-32.1996	-6.68891	22.5708	-6.94175	-1.46338	229.642	-11.1812	0.322208
0.2960	-43.3844	6.80854	-27.6185	-1.19801	15.2458	-8.18135	-0.236722	232.394	-9.05818	0
0.2967	-28.1159	-56.6347	-36.7808	0.0249586	10.6786	-9.06677	-1.15492	198.829	-2.63253	0
0.2973	-19.8764	-227.854	-92.0177	-0.586528	6.70725	-6.65841	-1.15492	131.072	4.982	0
0.2980	-14.097	-286.152	-147.255	-2.72049	0.286823	-4.49797	0.0645607	75.8456	12.0021	0.322208
0.2987	-9.21578	-313.618	-148.767	-5.16644	-9.46517	-5.10006	-0.545179	-4.41981	18.1164	0.322208
0.2993	-25.6948	-477.178	-23.9579	-6.37693	-16.1945	-5.73757	-0.545179	-110.933	22.6738	0.322208
0.3000	-41.2367	-432.304	164.33	-6.37693	-19.5481	-5.73757	-0.236722	-182.651	25.4195	0
0.3007	-39.128	-73.4239	255.581	-6.98842	-20.7616	-5.73757	-0.236722	-200.643	25.4195	0.322208
0.3013	-35.4573	274.16	265.663	-6.68891	-19.2392	-4.81672	1.28404	-108.786	21.7679	0.322208
0.3020	-24.7576	264.102	258.627	-4.85445	-19.2392	-5.73757	0.6743	21.5153	19.0222	0.322208
0.3027	-2.18679	114.546	201.878	-3.63148	-21.3794	-6.94175	-0.236722	66.6932	16.5878	0.322208
0.3033	8.20048	269.595	101.772	-2.72049	-23.8063	-7.2605	2.20224	103.907	13.2193	0
0.3040	10.0358	465.495	-1.38092	0.0249586	-23.5195	-6.94175	4.03146	134.429	13.5307	0
0.3047	30.1465	302.555	-85.2885	3.99338	-17.408	-5.73757	4.33991	115.52	17.805	0.322208
0.3053	50.6087	-63.3658	-143.594	8.87279	-11.2964	-5.10006	4.03146	116.124	24.2023	0.322208
0.3060	52.1316	-205.262	-160.078	14.0642	-6.72931	-3.89588	3.12043	58.1455	27.2595	0
0.3067	57.6377	2.5532	-93.8371	19.2556	-0.0220633	-0.85001	3.73017	-147.855	12.9079	0
0.3073	55.1775	179.537	12.6694	23.8355	4.876	0.389588	3.12043	-318.455	-0.198148	0
0.3080	33.1924	130.407	72.7725	25.358	7.92073	-0.531256	1.5925	-314.786	12.0021	0.322208
0.3087	16.44	-38.0272	103.306	24.7465	12.5099	-0.531256	0.982757	-249.782	26.9481	0
0.3093	11.2464	-307.506	148.46	26.269	14.0323	-0.531256	1.28404	-203.707	28.1653	0
0.3100	20.3841	-451.259	160.976	26.5809	12.201	-2.97504	2.20224	-160.051	27.5708	0.322208
0.3107	37.4879	-140.581	64.2458	22.001	10.9655	-4.21463	1.28404	-95.3594	24.8251	0.322208
0.3113	42.9939	195.127	-103.92	19.2556	10.9655	-3.57713	1.28404	-34.9415	20.8621	0.644416
0.3120	34.1296	64.7972	-218.668	22.001	9.4431	-5.10006	0.0645607	-74.9074	39.7711	0
0.3127	21.3213	-76.48	-205.232	27.7914	6.70725	-6.65841	-2.3744	-168.912	83.1088	-0.966624
0.3133	17.6506	-29.4779	-91.7109	34.8173	5.4717	-6.02091	-1.15492	-197.286	116.369	-0.322208
0.3140	24.0547	-52.0699	-14.2038	33.5943	4.56711	-6.33966	-2.07312	-173.186	125.229	0
0.3147	21.3213	-129.594	-39.2139	18.9436	3.04474	-5.41881	-3.29259	-142.351	91.3461	0
0.3153	5.74034	-106.074	-78.5811	5.21635	2.42697	-2.6917	-1.46338	-104.22	-16.9841	0.322208
0.3160	-8.27858	60.2324	-83.1623	6.12734	0.286823	-1.77085	-1.15492	-79.8067	-110.68	0
0.3167	-23.2347	176.519	-91.404	26.5809	-0.617773	-1.77085	-1.46338	-81.9332	-94.2051	0
0.3173	-35.7697	105.687	-117.642	58.3158	0.904596	-1.4521	0.373017	-30.063	-49.6501	0.322208
0.3180	-35.4573	-35.5901	-103.92	48.245	2.42697	-2.05419	0.0645607	76.7629	-49.6501	-0.322208
0.3187	-31.7866	-38.3367	-34.3258	-4.24297	5.18488	-2.6917	-2.3744	135.659	-62.7562	-0.966624
0.3193	-38.1908	37.9499	8.70201	-21.0276	8.84739	-1.13335	-1.46338	165.555	-56.0475	0
0.3200	-47.0551	-78.6077	0.460308	-2.109	8.53851	-0.24792	0.0645607	209.503	-37.4499	0.322208
0.3207	-46.7427	-347.197	-40.7482	-7.91189	5.78059	-0.531256	-0.236722	183.255	-36.8272	0
0.3213	-33.622	-470.756	-112.162	-37.2008	7.30296	0.991678	0.982757	65.1505	-42.9414	0.322208
0.3220	-9.80153	-343.212	-130.771	-39.3473	7.92073	0.991678	0.6743	-29.4376	-22.4756	0
0.3227	14.6047	-149.44	-72.7944	-15.5367	5.78059	-0.85001	-2.98414	-52.6416	18.3994	-0.644416
0.3233	24.9529	-151.567	-30.6653	-8.82288	10.0609	0.991678	-2.07312	-20.8898	43.1396	-0.644416
0.3240	23.1566	-411.259	-22.1386	-26.8305	16.4592	5.56048	0.373017	27.6238	53.8112	-0.322208
0.3247	22.5318	-579.422	13.2832	-45.7492	17.6948	9.24386	0.0645607	-8.69368	70.2858	0.322208
0.3253	18.8611	-496.095	90.7903	-51.552	16.4592	10.448	-0.236722	-88.0417	80.0517	-0.322208
0.3260	10.3092	-372.187	165.251	-44.8382	14.9369	9.5272	0.982757	-94.7548	83.4202	-0.644416
0.3267	7.26328	-205.881	228.115	-32.0219	14.628	7.40217	0.982757	-81.9332	93.4974	0.322208
0.3273	5.11554	10.7931	308.384	-24.0851	16.1724	7.08342	0.982757	-68.507	109.349	0.322208
0.3280	3.31924	202.129	368.487	-29.2765	13.1056	7.08342	1.89378	-51.1196	71.2199	0
0.3287	3.31924	207.003	278.158	-47.5836	3.04474	5.87924	0.0645607	-89.8764	-58.1988	0
0.3293	-7.06803	35.8222	23.3442	-74.7386	-3.68458	6.48133	0.982757	-83.1632	-159.509	0
0.3300	-21.3993	-42.6307	-211.04	-84.8094	-5.51583	6.16257	4.03146	28.8538	-162.877	0
0.3307	-22.3365	-34.6617	-301.37	-63.1453	-10.7007	1.91252	2.51069	118.876	-121.974	0
0.3313	-25.07	67.5438	-286.706	-31.4104	-18.3126	-3.57713	0.6743	189.364	-71.9276	0.644416
0.3320	-35.7697	319.924	-258.035	-14.3138	-23.2106	-8.46468	0.6743	247.655	-48.1216	0.644416
0.3327	-25.07	492.961	-218.975	-17.3712	-23.5195	-10.9085	0.982757	214.381	-64.5961	0
0.3333	3.31924	510.989	-110.627	-16.4477	-22.284	-7.54384	2.81198	126.507	-82.2879	0
0.3340	12.1445	493.271	29.4378	4.90437	-21.3794	-5.10006	4.33991	8.69368	-86.8736	0
0.3347	3.31924	504.257	66.0651	23.8355	-21.6882	-8.18135	1.28404	-106.951	-85.0337	0
0.3353	-4.64694	534.78	-39.2139	22.6125	-21.6882	-9.06677	-1.76466	-167.994	-75.8906	0
0.3360	-4.02214	500.892	-130.771	22.001	-22.284	-6.02091	-0.236722	-205.229	-60.3218	0.322208
0.3367	1.1715	385.263	-95.3714	37.2632	-23.8063	-2.97504	0.6743	-190.573	-32.8642	0
0.3373	-1.562	252.806	-1.6878	50.379	-23.5195	-0.531256	1.5925	-109.39	5.88782	0
0.3380	-8.27858	182.593	30.6653	45.4996	-19.5481	0.991678	2.20224	-44.0938	45.2626	0
0.3387	-14.4094	134.701	-14.2038	36.6517	-16.4813	-0.24792	0.982757	-19.0761	87.9776	0
0.3393	-22.0241	23.9073	-94.1439	43.9771	-15.5767	-0.85001	0.373017	-12.6548	124.607	0
0.3400	-26.593	-53.3078	-191.795	32.3713	-14.65	1.27502	3.12043	-5.64985	123.389	0
0.3407	-29.0531	-148.511	-256.501	-25.3081	-15.8856	1.91252	4.03146	9.31912	109.038	0
0.3413	-27.8426	-448.203	-212.86	-53.374	-17.7169	0.0708342	2.81198	16.9495	120.332	0
0.3420	-17.1429	-763.446	-40.4413	-26.5185	-19.5481	-1.77085	2.81198	19.3888	133.155	0
0.3427	-5.54509	-806.773	184.781	-12.1798	-21.3794	-4.81672	2.51069	16.9495	132.533	-0.644416
0.3433	3.59259	-499.461	345.604	-12.1798	-22.284	-7.2605	2.20224	32.2104	95.309	-0.644416
0.3440	12.7693	-0.193424	376.137	-3.33198	-24.4241	-5.41881	4.03146	84.9979	37.6481	0.322208
0.3447	16.1276	403.87	290.673	-1.19801	-29.0133	-6.02091	3.42172	95.0675	19.0222	0.322208
0.3453	21.907	500.892	136.558	9.79626	-33.2715	-9.06677	1.5925	30.9803	6.82194	0
0.3460	39.3233	356.868	-15.1025	50.9905	-36.0294	-10.6251	2.81198	-9.61099	-37.733	0
0.3467	51.5068	260.427	-77.3756	54.3474	-36.6251	-12.1481	2.81198	35.5669	-109.151	0.322208
0.3473	30.1465	224.102	-41.0551	-7.5999	-35.7205	-12.7502	1.28404	115.52	-169.586	0.322208
0.3480	-8.00523	250.949	57.2097	-35.9903	-33.2715	-9.70428	1.5925	187.842	-156.14	0.322208
0.3487	-12.2617	269.595	186.907	-19.8047	-30.8445	-6.94175	1.28404	275.425	-103.348	0.322208
0.3493	5.74034	139.885	273.598	-14.3138	-28.3955	-6.33966	-0.236722	274.82	-82.5993	0
0.3500	6.05274	78.5303	267.176	-5.77792	-25.9465	-7.2605	0.6743	125.881	-82.5993	0
0.3507	-2.49919	117.912	203.697	13.7647	-24.1152	-9.70428	1.5925	1.6887	-84.7506	0
0.3513	-11.3635	152.689	116.414	25.6575	-22.9017	-11.5106	1.28404	-18.4506	-98.168	0.322208
0.3520	-25.07	177.099	10.8282	17.7206	-23.5195	-11.8293	1.28404	-46.8458	-129.306	0.322208
0.3527	-23.5471	69.4007	-82.8554	2.77041	-24.4241	-10.6251	1.5925	-99.0287	-148.837	0
0.3533	-7.38043	-106.383	-144.208	7.35032	-22.284	-8.78344	1.89378	-83.7678	-121.663	0
0.3540	8.47383	-142.399	-190.283	18.3321	-17.7169	-8.18135	1.89378	-54.7681	-85.9678	0
0.3547	10.934	-160.426	-200.037	21.0776	-14.0543	-8.78344	1.89378	-48.055	-81.0707	0.322208
0.3553	-7.69283	-269.672	-142.367	20.4786	-11.9142	-9.38553	1.89378	-12.3629	-86.2509	0
0.3560	-31.7866	-205.881	-27.0047	18.9436	-8.86946	-10.3064	0.6743	0.458659	-81.0707	0
0.3567	-43.3844	-18.1819	80.7073	18.6441	-3.9714	-10.3064	0.6743	38.9235	-69.4932	0.322208
0.3573	-40.651	17.795	107.581	20.4786	0.59571	-10.3064	0.982757	137.494	-59.7274	0.322208
0.3580	-33.3096	66.3446	97.8045	22.001	0.59571	-11.2272	0.373017	173.498	-52.3959	0.322208
0.3587	-23.2347	170.097	88.0503	21.689	-3.37569	-12.4314	-0.545179	153.964	-45.9703	0.322208
0.3593	-20.8136	100.813	9.31576	22.001	-3.68458	-11.5106	-1.46338	132.907	-38.3557	0
0.3600	-35.7697	-103.327	-113.06	22.6125	-2.44903	-10.3064	-0.846462	79.8067	-29.4957	0
0.3607	-40.9634	-269.363	-189.976	21.689	-3.9714	-10.3064	0.0645607	-25.4764	-21.8812	0.322208
0.3613	-26.9054	-313.928	-179.915	20.4786	-6.42043	-10.3064	-1.15492	-108.181	-16.0783	0.322208
0.3620	-8.00523	-233.657	-81.6279	20.1666	-8.25168	-10.6251	-2.07312	-74.9074	-13.0211	0.322208
0.3627	25.2653	-143.946	9.60071	18.6441	-8.86946	-10.3064	-0.545179	38.9235	-11.8039	0
0.3633	65.5648	-60.0003	15.7162	15.5867	-9.46517	-10.6251	0.373017	113.685	-12.1153	0
0.3640	78.998	38.5688	5.04147	14.0642	-10.7007	-11.8293	-0.846462	84.0806	-11.8039	0.322208
0.3647	64.94	-44.1395	23.0373	14.3637	-12.2231	-12.7502	-1.76466	-25.7892	-8.74681	0.322208
0.3653	43.5797	-168.357	25.7772	14.9752	-12.2231	-13.0335	-1.76466	-131.677	-2.94391	0
0.3660	24.3671	-25.532	7.47452	14.9752	-11.6053	-11.8293	-2.3744	-155.173	2.54761	0
0.3667	22.5318	210.678	-27.9253	14.0642	-12.532	-10.6251	-1.46338	-123.734	5.88782	0.322208
0.3673	43.2673	275.668	-84.6967	11.9302	-12.532	-9.38553	0.982757	-79.8067	8.94495	0.322208
0.3680	60.6836	211.916	-113.06	10.4077	-12.8188	-8.46468	1.5925	-50.2023	12.6248	0
0.3687	56.3881	165.842	-66.6789	8.57329	-16.7902	-9.06677	0.6743	-64.2331	14.1251	0.322208
0.3693	38.6985	167.351	22.1167	7.05081	-19.2392	-9.06677	0.373017	-120.69	15.0592	0.322208
0.3700	18.5487	187.776	99.032	5.21635	-19.2392	-7.2605	0.373017	-191.803	14.4365	0.322208
0.3707	0.546699	183.521	152.735	3.38189	-20.7616	-6.94175	0.6743	-261.999	12.9079	0
0.3713	-17.1429	151.799	200.957	1.54744	-22.9017	-6.33966	1.28404	-337.677	11.3793	0
0.3720	-30.8885	109.981	210.711	0.336941	-25.0419	-5.73757	1.89378	-330.047	11.3793	0
0.3727	-24.4843	40.0775	149.688	-0.274545	-26.2554	-6.65841	1.89378	-194.847	14.1251	-0.644416
0.3733	-5.54509	-12.4178	61.7909	-2.109	-25.3508	-3.57713	2.51069	32.815	16.8709	0
0.3740	10.0358	-48.124	-24.5717	-5.46594	-25.0419	1.27502	3.12043	353.856	17.1822	0.322208
0.3747	29.2484	-96.9443	-82.8554	-6.98842	-25.9465	2.19586	4.6412	552.518	16.8709	0
0.3753	45.1026	-51.4509	-93.8371	-5.77792	-25.9465	1.59377	6.16913	424.051	18.7108	0
0.3760	54.8651	20.8512	-88.3572	-4.85445	-25.0419	2.51461	5.25094	164.033	21.1452	0.322208
0.3767	62.8313	-59.6908	-51.7298	-4.55495	-24.4241	3.1167	3.12043	-12.0502	23.2965	0.322208
0.3773	49.0857	-94.5072	-0.460308	-3.63148	-23.8063	3.1167	3.42172	-125.881	25.7309	0.322208
0.3780	12.4569	14.7776	1.38092	-2.72049	-23.8063	2.83337	4.03146	-195.451	27.5708	0
0.3787	-17.7677	49.8648	8.08827	-2.109	-24.4241	2.19586	3.12043	-171.038	27.8822	0
0.3793	-35.4573	52.6114	34.9396	-1.19801	-24.1152	1.59377	2.51069	-123.734	28.788	0
0.3800	-52.2488	77.95	14.4887	-0.586528	-22.9017	2.51461	2.81198	-117.021	29.6938	0
0.3807	-63.5342	13.8492	-4.12085	-0.586528	-22.284	2.83337	2.81198	-91.0855	29.6938	0
0.3813	-61.0741	-60.6192	9.31576	-1.49752	-22.9017	2.19586	1.5925	-65.4632	28.4767	0.644416
0.3820	-47.3675	-66.422	-12.6694	-2.109	-24.733	1.27502	1.28404	-38.5899	26.3536	0.322208
0.3827	-32.4114	-91.4511	-56.0041	-2.109	-25.0419	1.27502	1.5925	30.9803	26.3536	0
0.3833	-25.3824	-112.186	-55.3904	-1.49752	-23.8063	1.91252	1.89378	59.3547	27.2595	0
0.3840	-35.1449	-84.4104	-28.846	-1.49752	-23.5195	2.19586	2.20224	-14.1767	26.9481	0
0.3847	-42.4863	-52.0699	-11.4419	-2.109	-24.4241	1.59377	1.89378	-120.377	25.4195	0
0.3853	-31.4742	-38.0272	-1.38092	-2.42099	-25.3508	0.672925	0.6743	-132.594	23.6079	0
0.3860	-26.2806	-70.6773	-2.30154	-3.01999	-25.6376	-0.531256	0.0645607	-34.0242	21.7679	0
0.3867	-32.7238	-128.666	-0.76718	-3.33198	-25.0419	-0.24792	0.373017	42.5719	21.1452	0.322208
0.3873	-34.5201	-132.341	28.5391	-2.42099	-24.733	0.672925	2.20224	8.69368	20.8621	0.322208
0.3880	-35.7697	-98.453	54.1629	-2.72049	-24.733	0.389588	2.51069	-81.9332	19.0222	0.322208
0.3887	-36.9803	-156.442	16.0231	-3.01999	-24.4241	-0.24792	0.373017	-98.1114	17.1822	0.322208
0.3893	-35.7697	-266.616	-45.6362	-3.01999	-24.4241	0.672925	0.373017	-30.6676	16.8709	0
0.3900	-38.5032	-221.432	-71.8738	-3.33198	-24.1152	0.389588	0.0645607	28.2284	15.965	0
0.3907	-35.1449	-96.9443	-91.404	-3.01999	-23.5195	0.0708342	-1.15492	115.207	15.3706	0
0.3913	-11.3635	-113.424	-131.692	-2.109	-22.9017	0.991678	0.982757	284.285	15.6537	0
0.3920	13.6675	-186.964	-150.915	-3.01999	-23.5195	-0.85001	0.982757	416.421	14.4365	0
0.3927	29.5608	-159.807	-75.8412	-3.33198	-23.8063	-2.05419	-0.846462	321.499	12.9079	0
0.3933	46.3522	-46.5766	62.4046	-2.72049	-21.9751	-0.24792	0.6743	59.0628	13.842	0.322208
0.3940	49.3981	100.503	127.703	-3.01999	-21.9751	-0.85001	0.0645607	-92.0029	14.1251	0
0.3947	29.2484	236.635	106.967	-3.01999	-22.284	-2.05419	-1.46338	-131.677	13.5307	0
0.3953	13.9799	231.452	89.2559	-2.72049	-21.0705	-1.4521	0.373017	-204.312	14.1251	0.322208
0.3960	18.8611	70.2904	67.9064	-3.01999	-21.3794	-2.37294	-0.846462	-216.821	13.2193	0
0.3967	19.4859	-4.17797	25.1635	-2.72049	-21.6882	-3.57713	-3.59388	-113.977	12.6248	0
0.3973	12.1445	48.9364	10.5213	-1.8095	-19.5481	-2.6917	-0.846462	2.89789	13.5307	0
0.3980	10.0358	56.2478	35.2464	-1.8095	-20.7616	-3.89588	-0.236722	98.4241	12.9079	0.322208
0.3987	13.6675	52.6114	62.7115	-2.72049	-22.5928	-5.41881	-2.98414	119.481	11.0963	0
0.3993	13.6675	95.9385	72.4875	-2.109	-20.7616	-4.81672	-2.07312	38.0062	11.6907	0
0.4000	-0.0390499	104.178	60.8702	-0.886031	-20.4527	-6.33966	-1.76466	-27.9157	12.3135	0.322208
0.4007	-1.8744	47.1182	38.907	-1.19801	-21.3794	-7.2605	-2.68285	-19.9934	11.0963	0.322208
0.4013	20.3841	-51.4509	26.6979	-1.19801	-19.5481	-5.41881	-0.846462	37.3807	11.3793	0.322208
0.4020	36.8631	-126.229	-0.460308	-1.49752	-19.857	-5.41881	-2.3744	144.498	10.7849	0.322208
0.4027	50.6087	-98.1436	-52.6505	-2.72049	-21.0705	-6.02091	-3.29259	209.211	9.25633	0.322208
0.4033	69.2355	-10.8705	-79.5018	-2.42099	-18.9303	-5.41881	0.373017	163.741	10.1621	-0.322208
0.4040	63.4171	62.36	-55.3904	-2.109	-18.0257	-6.65841	-1.15492	93.5456	10.4735	-0.644416
0.4047	28.936	95.629	-11.1351	-1.8095	-18.9303	-7.2605	-3.29259	-3.50249	10.4735	0
0.4053	0.859098	74.5845	4.42772	-1.19801	-17.7169	-5.10006	-2.07312	-130.76	11.6907	0
0.4060	-5.23269	14.7776	13.875	-1.49752	-17.7169	-4.81672	-3.29259	-189.051	10.7849	0
0.4067	4.21739	-37.1375	57.2097	-1.19801	-17.7169	-3.57713	-2.68285	-146.333	9.87908	0
0.4073	12.7693	-52.9983	83.4692	-0.274545	-15.5767	-0.531256	0.6743	-47.7631	11.0963	0
0.4080	5.74034	-45.3774	48.683	-0.886031	-16.1945	-2.05419	-1.15492	-29.1457	9.5677	0
0.4087	-11.3635	-21.238	4.42772	-2.109	-17.7169	-2.97504	-3.59388	-123.734	7.10501	0.322208
0.4093	-21.3993	-3.24953	-2.30154	-2.42099	-16.4813	0.389588	-0.545179	-158.842	7.10501	0.322208
0.4100	-23.5471	-10.2515	-2.58649	-3.33198	-16.7902	2.51461	-0.236722	-88.3336	5.60475	0.322208
0.4107	-20.1888	-12.9981	-20.2974	-4.24297	-17.408	5.27715	0.6743	-34.9415	2.85899	0
0.4113	-18.0411	0.735013	-36.1671	-3.33198	-15.2678	8.00426	6.47759	-14.1767	2.23624	0
0.4120	-22.9613	19.3424	-45.0225	-3.63148	-16.4813	4.95839	5.25094	15.7195	1.61349	0
0.4127	-16.2448	28.5108	-43.1813	-3.94346	-17.7169	3.43546	-0.236722	29.4584	1.33042	0.322208
0.4133	5.11554	12.3018	-16.9437	-2.42099	-15.2678	8.32302	0.373017	30.3757	3.45343	0
0.4140	16.44	-26.4218	28.2322	-1.8095	-14.9589	11.0501	0.373017	38.6108	4.35925	0.322208
0.4147	17.3382	-54.8165	76.7399	-2.109	-15.5767	12.2897	-0.846462	61.1893	4.35925	0.322208
0.4153	18.2754	-48.7043	84.9816	-2.109	-14.3632	15.3356	0.0645607	88.3544	4.35925	0
0.4160	9.72343	-47.8145	34.3258	-3.94346	-15.2678	15.3356	-1.46338	71.5717	2.54761	0
0.4167	-14.9952	-59.6908	-26.106	-4.85445	-14.9589	15.9377	-1.46338	9.31912	1.92486	0.322208
0.4173	-37.8784	-57.8726	-72.7944	-3.33198	-12.532	17.4606	0.982757	-35.8588	2.85899	0.322208
0.4180	-42.1739	-44.1395	-96.292	-4.85445	-14.3632	15.9377	-2.68285	-31.5849	1.33042	0.322208
0.4187	-32.4114	-10.561	-97.8045	-5.46594	-14.9589	14.096	-5.12181	-38.9026	0.113227	0
0.4193	-19.2907	23.2883	-114.595	-3.01999	-12.532	13.2106	-2.3744	-120.377	1.61349	0
0.4200	-4.92029	36.4412	-125.576	-3.01999	-13.1277	10.7668	-3.59388	-168.599	1.33042	0.322208
0.4207	11.5588	48.9364	-132.897	-3.01999	-12.532	11.3689	-4.82053	-75.2201	0.396295	0
0.4213	24.0547	28.5108	-181.427	-1.8095	-11.6053	11.971	-2.98414	16.9495	1.61349	0
0.4220	24.6795	-5.3772	-224.455	-0.586528	-14.3632	-2.6917	-4.51207	-15.7195	2.23624	0.322208
0.4227	18.8611	16.9053	-215.599	2.4709	-13.7455	-22.8086	-5.73155	-46.8458	4.07618	0
0.4233	4.21739	38.5688	-158.85	4.60487	-11.6053	-27.3774	-5.43027	4.12793	5.88782	0
0.4240	-13.4722	30.0195	-64.2458	2.77041	-13.1277	-20.0815	-7.56077	52.037	5.29337	0
0.4247	-18.3535	31.5282	30.0515	1.85942	-14.3632	-17.319	-8.17051	51.1196	4.67062	0.322208
0.4253	-11.3635	12.6113	103.613	1.54744	-13.4366	-22.5253	-6.95103	56.9154	4.982	0.322208
0.4260	-2.18679	-19.4198	155.19	0.336941	-13.4366	-27.6962	-8.17051	96.9022	3.14206	0
0.4267	-0.351449	-8.74278	142.98	0.336941	-11.9142	-25.5711	-7.25949	80.4113	2.85899	0
0.4273	-1.562	14.7776	77.0468	1.54744	-10.0829	-17.6377	-2.07312	-16.3241	2.85899	0
0.4280	4.21739	14.4681	38.2932	0.0249586	-11.0096	-11.8293	-1.46338	-70.0289	0.113227	0
0.4287	10.6216	9.86465	40.1345	-0.586528	-11.2964	-8.78344	-2.3744	-49.5769	-1.41534	0
0.4293	10.3092	6.80854	46.5349	0.636445	-10.3918	-7.2605	0.6743	-10.2156	-0.509523	0.322208
0.4300	7.57568	-3.55901	47.7624	0.0249586	-10.7007	-7.2605	0.982757	23.0372	-0.820898	0
0.4307	6.36514	-11.7989	51.1161	0.0249586	-9.46517	-5.10006	1.28404	23.0372	-1.72672	0
0.4313	11.8321	-11.7989	59.0509	-0.274545	-8.56057	-2.37294	3.12043	1.98057	-2.94391	0.644416
0.4320	19.7983	-11.7989	62.4046	-3.01999	-10.0829	-2.97504	1.28404	3.21061	-7.21824	0
0.4327	23.1566	-12.9981	60.5853	-3.94346	-8.86946	-2.37294	0.982757	20.3061	-9.05818	-0.966624
0.4333	21.0089	-16.0542	59.3578	-3.33198	-6.42043	0.0708342	3.73017	27.0192	-8.15236	-0.322208
0.4340	15.5028	-12.6886	54.4698	-3.94346	-7.0382	-0.85001	3.12043	26.7065	-8.74681	0.322208
0.4347	12.7693	3.17216	47.1487	-3.94346	-7.9428	-2.97504	1.28404	25.7892	-9.05818	0
0.4353	11.8321	11.7215	42.5675	-2.109	-7.34709	-3.57713	1.89378	19.6806	-8.43543	0.322208
0.4360	9.72343	4.99035	27.6185	-0.586528	-6.72931	-4.21463	1.89378	13.2803	-7.21824	0.322208
0.4367	4.52979	-3.24953	-12.0557	0.336941	-6.11154	-3.89588	2.51069	12.0502	-6.31242	0
0.4373	-2.81159	-5.3772	-44.4088	1.24793	-4.58917	-2.37294	4.94965	2.60602	-5.68967	0
0.4380	-5.54509	-0.502904	-39.8276	2.15892	-3.0668	-1.77085	4.6412	-17.2414	-4.78385	0
0.4387	-4.02214	0.116055	-23.0373	1.54744	-3.9714	-3.29379	0.982757	-19.6806	-5.09523	0.322208
0.4393	-2.18679	-5.99616	7.16765	1.24793	-3.9714	-3.57713	-0.545179	-4.10708	-5.68967	0.322208
0.4400	-0.0390499	-7.81435	62.7115	0.935949	-2.44903	-1.13335	0.6743	1.37598	-6.00104	0.322208
0.4407	1.4839	-5.3772	99.3388	0.636445	-2.44903	0.991678	1.5925	0.771381	-7.21824	0
0.4413	4.52979	-4.44876	87.4366	-0.274545	-3.68458	0.389588	0.6743	5.04525	-8.15236	0
0.4420	9.09863	-4.17797	48.0693	-1.19801	-2.75792	1.59377	0.0645607	7.48448	-9.05818	0.322208
0.4427	9.72343	-3.55901	7.47452	-1.8095	-2.14014	2.83337	2.51069	1.6887	-9.65262	0
0.4433	5.74034	-3.55901	-23.9579	-2.109	-3.37569	2.83337	4.94965	-6.54632	-9.36955	0.322208
0.4440	2.06965	1.04449	-42.8744	-1.8095	-2.75792	4.95839	5.86067	-5.94172	-8.15236	0.322208
0.4447	2.38204	8.04646	-48.683	-1.49752	-1.85332	6.48133	5.55939	0.166785	-8.15236	0.322208
0.4453	6.05274	5.29983	-45.0225	-1.8095	-3.0668	4.63964	1.5925	3.21061	-9.05818	0.322208
0.4460	7.57568	0.425534	-34.0189	-2.109	-2.75792	2.83337	-2.07312	4.41981	-8.74681	0
0.4467	3.31924	-0.193424	-23.3442	-1.8095	-3.0668	1.59377	-3.29259	11.1538	-8.74681	0.322208
0.4473	-5.23269	-4.17797	-20.2974	-0.886031	-4.28029	0.672925	-3.90233	18.7633	-8.74681	0.322208
0.4480	-10.7387	-5.99616	-16.9437	-0.274545	-4.28029	0.0708342	-3.90233	19.0761	-7.52961	0
0.4487	-9.52818	-2.63057	-10.2364	-0.586528	-4.58917	-1.4521	-4.82053	13.8849	-6.62379	0.322208
0.4493	-11.0511	-1.70213	-7.16765	-0.274545	-5.20694	-1.77085	-3.59388	12.0502	-5.68967	0.322208
0.4500	-14.4094	-2.94005	-7.16765	1.24793	-3.9714	-1.77085	-2.3744	12.9675	-3.25528	0.322208
0.4507	-10.7387	-2.63057	-1.99467	2.15892	-3.68458	-3.57713	-5.12181	11.7584	-2.03809	0.322208
0.4513	-1.8744	-1.70213	5.04147	2.15892	-3.9714	-5.10006	-7.25949	9.61099	-1.13227	0
0.4520	4.84219	-2.32109	6.55391	1.24793	-3.9714	-5.10006	-6.95103	7.48448	-0.820898	0.322208
0.4527	8.47383	-3.55901	3.81398	0.0249586	-3.9714	-4.49797	-8.78743	1.98057	-2.34947	0.322208
0.4533	12.4569	-3.86849	2.27962	-0.586528	-3.0668	-2.97504	-9.08871	-2.2933	-3.56666	0
0.4540	13.9799	-2.94005	1.97275	1.24793	-2.14014	-3.57713	-9.08871	1.6887	-2.94391	0.322208
0.4547	13.3551	-0.193424	0.460308	2.15892	-1.54443	-5.10006	-11.5277	8.08908	-3.25528	0.322208
0.4553	10.0358	3.79112	-1.99467	1.24793	-0.617773	-4.49797	-10.9179	10.2364	-4.1611	0
0.4560	1.7963	3.79112	-8.08827	0.636445	-0.617773	-4.21463	-10.6166	10.2364	-5.68967	0
0.4567	-2.18679	0.116055	-14.2038	0.636445	-0.617773	-4.21463	-8.78743	11.7584	-6.31242	-0.322208
0.4573	1.7963	-0.812383	-10.2364	1.54744	2.11808	-2.6917	-4.82053	13.8849	-4.78385	0
0.4580	5.74034	-1.12186	-4.42772	2.15892	3.04474	-3.29379	-5.12181	10.5283	-5.09523	0.322208
0.4587	3.90499	-3.24953	-6.26896	-0.586528	0.59571	-3.89588	-4.20362	3.21061	-9.05818	0
0.4593	2.38204	-2.01161	-7.16765	-3.33198	2.42697	1.27502	7.69707	3.52334	-11.1812	0.322208
0.4600	2.69444	-0.193424	-9.62263	-6.68891	4.56711	5.87924	17.1588	8.4018	-14.5497	0.322208
0.4607	0.546699	-2.63057	-14.7956	-9.43436	1.52237	4.63964	15.0211	9.0064	-17.9182	0
0.4613	2.06965	-2.32109	-12.3626	-8.21139	1.80919	3.71879	14.1029	9.31912	-15.4555	0.322208
0.4620	6.95088	1.04449	-5.65521	-5.77792	3.94934	2.83337	15.0211	11.4456	-11.8039	0
0.4627	9.09863	2.24372	-2.89336	-4.55495	2.42697	-0.85001	11.3555	10.5283	-10.5867	-0.966624
0.4633	9.09863	3.79112	1.07405	-3.01999	2.11808	-3.29379	7.69707	5.96257	-8.15236	-0.644416
0.4640	8.20048	9.28437	6.55391	-0.586528	3.94934	-2.6917	6.77887	3.81521	-4.47248	0.322208
0.4647	4.21739	10.7931	3.50711	1.24793	3.64045	-3.57713	1.89378	9.31912	-3.25528	0
0.4653	0.234299	7.11802	-3.81398	1.24793	2.11808	-5.41881	-4.82053	15.7195	-4.1611	0
0.4660	0.859098	7.73698	-3.81398	0.636445	2.42697	-3.89588	-4.51207	14.8022	-4.47248	0.322208
0.4667	0.546699	9.28437	-1.38092	1.85942	3.94934	-0.24792	-0.846462	12.3629	-4.1611	0.322208
0.4673	-2.49919	5.91879	-2.30154	0.935949	3.35363	-0.531256	-3.29259	11.7584	-5.09523	0.322208
0.4680	-1.562	3.17216	-0.76718	-1.19801	0.59571	-4.49797	-5.12181	9.0064	-6.90686	0
0.4687	1.7963	5.60931	5.04147	-0.886031	-0.0220633	-6.65841	-2.3744	6.87989	-6.00104	0
0.4693	3.59259	7.73698	9.00888	0.336941	-0.0220633	-6.94175	-2.07312	5.64985	-3.25528	0.322208
0.4700	2.38204	7.4275	9.60071	1.85942	-0.92666	-8.46468	-5.43027	3.52334	-1.13227	0
0.4707	2.06965	8.97489	10.8282	4.29288	-0.0220633	-9.38553	-8.47897	2.89789	1.01905	0.322208
0.4713	3.59259	11.7215	11.7488	6.12734	0.904596	-10.3064	-8.47897	2.2933	3.45343	0.322208
0.4720	3.31924	9.86465	6.86078	6.43933	0.286823	-13.3522	-8.78743	1.37598	4.07618	0.322208
0.4727	1.1715	4.99035	-4.42772	6.73883	0.286823	-15.1939	-11.2264	4.12793	3.14206	0.322208
0.4733	-1.28865	2.5532	-13.8969	6.73883	1.21348	-13.9543	-10.0069	8.08908	2.23624	0
0.4740	-2.81159	4.68087	-13.8969	6.73883	2.42697	-11.5106	-5.12181	9.92372	2.54761	0.322208
0.4747	-2.18679	7.11802	-9.9295	5.51586	1.80919	-9.38553	-3.59388	8.08908	1.61349	0.322208
0.4753	-2.49919	7.11802	-10.2364	3.08239	-0.617773	-6.33966	-4.82053	4.73253	-2.34947	0.322208
0.4760	-4.02214	5.29983	-10.8282	0.935949	-0.308887	-2.05419	-4.82053	5.33712	-4.78385	0.322208
0.4767	-1.28865	4.68087	-8.39514	-0.274545	2.11808	1.91252	-3.29259	8.08908	-5.4066	0.322208
0.4773	0.546699	1.31529	-10.8282	-1.19801	1.52237	0.0708342	-8.78743	8.4018	-7.52961	0.322208
0.4780	-1.28865	-2.01161	-13.59	0.336941	-0.0220633	-6.02091	-20.3797	8.08908	-7.21824	0.322208
0.4787	-0.351449	1.62477	-6.26896	4.29288	1.21348	-8.18135	-26.7927	9.61099	-2.94391	0
0.4793	3.90499	6.53775	3.20024	5.21635	1.80919	-7.86259	-37.7752	7.79721	-0.509523	0
0.4800	6.95088	4.99035	3.50711	3.38189	-0.308887	-7.2605	-51.5122	4.73253	-1.72672	0.322208
0.4807	7.26328	2.86268	-0.153436	1.85942	-1.54443	-5.10006	-52.4233	5.96257	-1.72672	0.322208
0.4813	6.95088	6.22827	0.76718	2.4709	-1.23555	-5.73757	-42.3518	7.48448	-0.820898	0.322208
0.4820	6.36514	10.1741	3.50711	3.69388	-2.14014	-7.54384	-29.2316	7.79721	-0.198148	0
0.4827	4.52979	9.86465	2.58649	4.29288	-3.9714	-7.54384	-19.7699	9.92372	-0.509523	0
0.4833	4.84219	7.4275	-1.6878	3.69388	-4.89806	-7.2605	-15.1933	12.6757	-2.34947	0
0.4840	6.36514	6.22827	-4.12085	2.4709	-5.20694	-5.73757	-9.39717	14.8022	-3.56666	-0.322208
0.4847	6.05274	5.60931	-0.76718	0.935949	-6.42043	-4.81672	-7.56077	11.7584	-3.87803	0
0.4853	5.74034	4.99035	5.04147	0.0249586	-8.25168	-6.02091	-9.69845	5.04525	-4.78385	0.322208
0.4860	6.67753	5.91879	7.47452	0.636445	-7.9428	-5.10006	-11.2264	2.89789	-4.1611	0.322208
0.4867	5.42794	6.22827	3.20024	1.54744	-7.9428	-2.37294	-5.73155	6.56717	-4.1611	0
0.4873	1.4839	6.80854	-4.12085	1.24793	-11.0096	-1.77085	9.52629	12.6757	-5.68967	0
0.4880	-0.0390499	9.86465	-4.12085	0.636445	-13.4366	-3.89588	21.7354	14.1976	-6.31242	0
0.4887	2.69444	13.2302	1.97275	0.935949	-14.0543	-5.73757	25.3939	11.1538	-5.4066	0
0.4893	1.4839	12.031	2.27962	2.15892	-13.1277	-6.02091	20.2075	14.1976	-2.94391	0
0.4900	-2.18679	6.80854	-3.50711	1.54744	-13.1277	-6.65841	9.21783	19.9934	-3.25528	0
0.4907	-1.28865	7.11802	-4.7346	-0.886031	-13.4366	-7.2605	-3.59388	19.6806	-6.62379	0.322208
0.4913	-1.28865	10.7931	-0.153436	-2.109	-14.3632	-7.86259	-24.0453	17.5541	-8.43543	0.322208
0.4920	-1.562	12.3018	5.94016	-2.109	-16.1945	-9.98762	-43.27	18.1587	-7.52961	0
0.4927	1.7963	12.9208	9.31576	-2.42099	-18.0257	-12.7502	-56.0889	19.3888	-6.31242	-0.644416
0.4933	10.6216	11.412	10.2145	-2.72049	-19.857	-13.671	-66.4616	17.8669	-6.31242	-0.322208
0.4940	18.8611	8.35594	13.875	-2.109	-19.857	-12.4314	-56.9999	16.9495	-4.47248	0.322208
0.4947	16.7134	7.11802	15.4094	-0.274545	-19.5481	-11.8293	-29.2316	17.5541	-0.820898	0
0.4953	11.8321	6.22827	12.0557	1.54744	-23.2106	-14.8752	-13.3641	17.8669	0.396295	0
0.4960	13.3551	6.80854	10.2145	1.54744	-26.5642	-18.2398	-19.4686	19.0761	0.113227	0.322208
0.4967	15.8152	9.28437	11.4419	0.0249586	-28.0866	-19.444	-24.3465	19.9934	-1.13227	0.322208
0.4973	15.8152	11.1026	12.6694	-0.586528	-30.2268	-20.6836	-0.545179	19.6806	-1.41534	0
0.4980	13.6675	11.412	10.5213	1.24793	-30.8445	-21.8878	40.3504	19.9934	-0.198148	0
0.4987	9.41103	11.1026	7.47452	2.4709	-32.6758	-21.6044	73.9148	18.4715	-0.198148	0
0.4993	5.74034	10.7931	6.24704	1.85942	-35.4116	-21.6044	99.2513	15.1149	-0.198148	0
0.5000	6.05274	10.1741	4.42772	3.08239	-36.0294	-21.2857	123.662	15.7195	1.01905	0
0.5007	15.5028	8.66541	5.04147	3.38189	-36.934	-21.6044	143.196	16.0322	1.61349	0
0.5013	30.4589	8.04646	9.00888	0.935949	-34.507	-17.921	152.959	12.3629	0.70767	0.322208
0.5020	33.5048	10.1741	12.9763	-1.19801	-23.8063	-9.98762	154.178	10.841	-1.72672	0.322208
0.5027	26.7882	12.9208	14.4887	-1.19801	-16.7902	-7.54384	147.162	9.61099	-3.25528	0.322208
0.5033	20.6965	15.3579	12.0557	0.0249586	-17.0991	-7.86259	135.563	7.17176	-2.34947	0.322208
0.5040	12.7693	17.795	8.08827	0.0249586	-16.4813	-4.49797	129.157	6.25444	-2.34947	0
0.5047	2.69444	18.7235	5.34834	-1.19801	-11.2964	0.991678	126.101	8.08908	-3.56666	0
0.5053	-5.23269	17.795	3.81398	-2.109	-4.58917	5.27715	106.877	11.7584	-3.56666	0
0.5060	-11.9493	13.2302	1.97275	-1.49752	-0.0220633	4.03755	71.1746	12.3629	-1.72672	0
0.5067	-13.1598	8.04646	1.66588	0.0249586	4.25822	0.0708342	29.3608	10.5283	-0.198148	0
0.5073	5.42794	6.53775	5.34834	0.636445	11.5832	-0.531256	-25.2647	7.79721	1.33042	0
0.5080	35.965	5.91879	5.34834	0.935949	16.1724	2.83337	-83.2474	5.64985	2.85899	0.322208
0.5087	40.2214	4.37139	1.66588	0.636445	18.5994	11.0501	-126.89	5.33712	2.54761	0
0.5093	10.0358	3.17216	-0.153436	-0.586528	22.8797	16.8585	-156.796	4.73253	1.92486	0
0.5100	-21.7118	2.24372	-1.07405	-0.586528	26.2333	18.0627	-167.779	5.64985	3.45343	0.322208
0.5107	-29.6389	2.24372	-3.20024	0.336941	23.7843	18.7002	-156.187	7.48448	5.60475	0
0.5113	-32.099	1.93424	-5.65521	1.54744	12.7967	13.8127	-129.329	7.79721	6.19919	0.322208
0.5120	-48.2657	0.735013	-8.70201	1.85942	0.59571	3.71879	-103.39	7.48448	7.10501	0.322208
0.5127	-71.4613	1.31529	-9.31576	2.4709	-5.80265	-1.4521	-86.9058	8.4018	8.35051	0
0.5133	-94.0322	5.91879	-4.7346	2.77041	-9.46517	-2.97504	-72.8747	10.5283	9.87908	0.322208
0.5140	-81.8486	11.412	2.89336	2.4709	-10.3918	-4.81672	-59.446	14.8022	10.4735	0
0.5147	-33.9344	14.4681	6.24704	2.15892	-10.7007	-6.02091	-49.3746	19.9934	10.1621	0
0.5153	-24.7576	15.6674	7.47452	0.935949	-12.8188	-7.54384	-40.831	21.828	8.03913	0
0.5160	-42.7597	20.2709	12.9763	0.336941	-11.9142	-7.54384	-31.3693	22.1199	6.51057	0
0.5167	-16.2448	25.4547	19.3768	-0.886031	-13.7455	-6.65841	-21.2978	23.6626	5.88782	0.322208
0.5173	73.8043	27.2728	22.4236	-2.72049	-21.6882	-7.54384	-16.4128	24.2672	3.45343	0.322208
0.5180	208.37	27.8918	24.8785	-3.01999	-25.3508	-7.86259	-13.0556	26.3937	2.54761	0
0.5187	328.019	26.0349	23.6511	-2.109	-22.5928	-7.86259	-6.34129	28.5411	3.76481	0.322208
0.5193	390.265	19.9614	16.33	-2.109	-18.9303	-8.46468	-7.86923	25.1846	3.45343	-0.322208
0.5200	364.336	12.031	6.86078	-2.109	-16.1945	-6.94175	-25.8745	18.4715	1.92486	-0.966624
0.5207	234.612	2.5532	-2.89336	-3.01999	-15.5767	-7.2605	-47.5382	12.6757	0.70767	0
0.5213	110.433	-4.75824	-11.7488	-4.24297	-17.7169	-7.86259	-58.8363	6.87989	0.113227	0.322208
0.5220	79.5837	-8.12383	-17.2506	-4.85445	-19.2392	-5.10006	-62.8032	1.06326	-0.820898	0
0.5227	64.3542	-10.2515	-19.0699	-5.77792	-21.0705	-2.37294	-68.9006	-2.58517	-2.63253	0
0.5233	30.7713	-9.94202	-16.0231	-7.3004	-21.3794	-0.85001	-65.8519	-4.73253	-4.47248	0.322208
0.5240	29.2484	-9.05226	-13.59	-9.43436	-19.857	0.389588	-50.8953	-6.85904	-6.62379	0.322208
0.5247	34.442	-9.05226	-13.59	-9.13486	-18.0257	-3.29379	-45.0992	-8.08908	-6.90686	-0.644416
0.5253	14.6047	-5.68668	-10.2364	-5.46594	-18.3126	-6.02091	-41.7421	-6.25444	-3.56666	-0.644416
0.5260	22.2194	-0.502904	-5.65521	-5.46594	-21.9751	-6.02091	-32.2803	-2.58517	-3.25528	0.322208
0.5267	63.1047	5.91879	0.153436	-7.3004	-25.3508	-5.41881	-25.2647	3.52334	-5.68967	0.644416
0.5273	84.1916	13.5397	9.00888	-7.3004	-25.3508	-2.6917	-20.3797	12.3629	-5.68967	0
0.5280	95.7894	18.1045	14.7956	-8.82288	-27.182	-2.05419	-17.6322	17.2414	-6.62379	0
0.5287	98.8353	20.2709	18.763	-9.73387	-29.609	-4.21463	-19.1602	19.6806	-8.15236	0
0.5293	35.965	23.9073	24.5717	-9.43436	-25.9465	-2.05419	-18.242	25.1846	-7.52961	-0.322208
0.5300	-55.6071	26.3444	28.2322	-10.9568	-18.9303	1.27502	-13.9738	29.7503	-9.05818	0
0.5307	-90.6739	24.5262	25.7772	-14.3138	-15.5767	1.27502	-14.2751	25.7892	-12.3984	0.322208
0.5313	-122.421	21.4701	23.0373	-14.9253	-15.2678	0.672925	-17.6322	16.0322	-13.3325	0.322208
0.5320	-216.727	17.2148	19.6836	-13.0908	-14.9589	1.27502	-21.9076	5.64985	-11.4926	0.322208
0.5327	-310.408	12.3018	15.7162	-10.3454	-14.65	2.51461	-25.8745	-5.0244	-8.43543	0
0.5333	-341.257	9.28437	13.5681	-7.91189	-15.8856	2.19586	-25.8745	-16.0114	-5.09523	-0.322208
0.5340	-260.658	6.53775	10.8282	-8.21139	-16.7902	0.991678	-23.4355	-24.5591	-4.47248	0
0.5347	-108.988	3.17216	7.47452	-8.82288	-17.408	-1.4521	-18.5504	-29.1457	-5.09523	0.322208
0.5353	-73.9215	1.31529	5.63329	-8.21139	-17.7169	-4.81672	-12.7543	-31.5849	-4.78385	0
0.5360	-150.498	1.93424	5.63329	-6.37693	-18.0257	-6.33966	-9.69845	-31.2722	-3.25528	0
0.5367	-157.215	1.93424	5.94016	-5.46594	-19.857	-7.2605	-7.56077	-34.6288	-2.94391	0
0.5373	-89.7757	-0.812383	4.42772	-6.07743	-21.0705	-9.06677	0.6743	-41.9465	-4.1611	0
0.5380	-55.9195	-5.06772	1.38092	-6.68891	-19.5481	-8.78344	11.0542	-48.3677	-4.47248	0
0.5387	-67.7906	-10.2515	-2.58649	-6.37693	-18.6214	-9.06677	14.4114	-55.6854	-5.09523	0
0.5393	-78.8027	-15.1645	-4.7346	-6.68891	-18.3126	-8.18135	15.3224	-62.7112	-6.00104	0.644416
0.5400	-83.9964	-17.6016	-5.65521	-5.77792	-15.8856	-3.89588	17.7685	-63.6285	-5.09523	0.322208
0.5407	-85.2069	-19.1103	-9.62263	-4.24297	-14.3632	-2.05419	16.8503	-61.4812	-3.56666	0
0.5413	-83.9964	-20.9285	-14.2038	-4.24297	-16.7902	-4.21463	13.8016	-63.6285	-3.56666	0
0.5420	-76.9674	-21.857	-14.4887	-4.24297	-18.6214	-5.41881	15.6309	-67.9024	-3.25528	0
0.5427	-32.9972	-21.857	-13.59	-3.01999	-17.0991	-5.10006	20.5159	-66.6724	-2.34947	0
0.5433	46.3522	-23.0949	-14.4887	-1.8095	-15.8856	-5.41881	22.3452	-60.5639	-2.03809	0.322208
0.5440	121.406	-24.6036	-15.1025	-0.886031	-15.5767	-6.02091	20.2075	-52.6416	-1.13227	0
0.5447	182.129	-24.2941	-14.7956	-0.274545	-14.3632	-6.02091	14.7127	-44.6984	0.396295	0
0.5453	219.382	-23.6751	-16.0231	-0.586528	-14.3632	-4.81672	7.99835	-37.3807	0.396295	0.322208
0.5460	198.022	-23.4044	-16.33	-0.886031	-14.65	-3.89588	3.12043	-28.833	0.113227	0.322208
0.5467	137.26	-21.5475	-13.8969	0.0249586	-10.7007	-2.6917	0.373017	-18.7633	1.61349	0
0.5473	94.5398	-19.4198	-11.7488	0.0249586	-7.34709	-3.29379	-3.59388	-11.7375	1.33042	0
0.5480	71.969	-17.9111	-10.2364	-0.274545	-9.17834	-4.81672	-8.47897	-9.29827	0.396295	0
0.5487	53.3422	-13.6171	-5.96208	0.0249586	-9.77405	-3.89588	-8.17051	-5.94172	1.92486	0.322208
0.5493	34.442	-6.92459	0.460308	0.636445	-10.3918	-3.89588	-3.29259	-0.750533	3.14206	0.322208
0.5500	41.432	-1.12186	6.24704	0.0249586	-12.8188	-6.33966	0.373017	4.12793	1.61349	0
0.5507	82.942	4.06191	11.1351	0.336941	-14.3632	-6.94175	6.77887	8.69368	1.01905	0
0.5513	158.621	10.7931	17.8424	2.77041	-12.8188	-5.73757	14.4114	14.5103	3.76481	0
0.5520	270.928	17.795	24.5717	2.77041	-13.7455	-7.86259	15.6309	18.1587	4.07618	0.322208
0.5527	284.049	21.4701	30.0515	0.636445	-15.8856	-11.2272	15.0211	16.9495	1.92486	-0.644416
0.5533	165.064	23.2883	34.6327	0.636445	-13.4366	-10.3064	19.2893	17.2414	2.54761	-0.966624
0.5540	51.2335	23.0175	35.2464	1.85942	-11.2964	-6.94175	25.0926	17.8669	4.67062	0.322208
0.5547	-43.3844	17.5243	28.2322	1.24793	-15.2678	-8.46468	25.3939	9.31912	4.07618	0.322208
0.5553	-142.884	11.412	22.4236	0.636445	-18.6214	-9.98762	26.3121	-5.0244	3.45343	-0.322208
0.5560	-217.039	8.97489	22.7304	1.54744	-15.8856	-7.54384	34.2458	-12.9675	5.60475	0.322208
0.5567	-246.952	6.80854	22.7304	1.24793	-13.7455	-7.2605	42.1796	-16.6368	5.60475	0.322208
0.5573	-237.775	4.06191	20.9111	0.336941	-14.0543	-9.70428	46.455	-22.1199	3.76481	0.322208
0.5580	-208.487	0.425534	17.5355	-0.586528	-12.8188	-9.70428	45.8453	-28.833	2.54761	0.322208
0.5587	-183.456	-6.30564	12.3626	-1.8095	-10.7007	-8.78344	40.9602	-37.3807	1.33042	0
0.5593	-174.905	-12.4178	8.39514	-2.72049	-7.9428	-8.46468	34.2458	-47.7631	0.70767	0
0.5600	-168.188	-16.9827	5.04147	-3.33198	-4.28029	-8.46468	27.5315	-54.7681	0.396295	0.322208
0.5607	-156.59	-20.3482	2.27962	-3.33198	0.286823	-6.33966	20.5159	-55.3935	0.396295	0
0.5613	-145.93	-21.5475	0.76718	-3.63148	4.56711	-4.81672	12.8834	-52.9334	-0.509523	0
0.5620	-140.423	-21.238	-0.76718	-5.16644	7.61185	-4.21463	6.77887	-49.5769	-1.72672	0
0.5627	-140.111	-21.5475	-1.99467	-6.07743	11.5832	-3.57713	2.20224	-45.9285	-2.63253	0
0.5633	-137.065	-21.5475	-2.30154	-6.07743	16.1724	-2.37294	0.0645607	-42.8638	-2.94391	0
0.5640	-126.717	-19.7293	-1.07405	-6.07743	17.3859	-0.531256	2.51069	-38.298	-3.25528	0
0.5647	-100.475	-18.1819	0.76718	-5.77792	14.3412	-0.85001	5.25094	-32.7941	-2.94391	0
0.5653	-47.9533	-16.9827	1.97275	-4.55495	11.5832	-1.4521	7.99835	-25.4764	-2.03809	0
0.5660	3.00684	-16.3637	1.97275	-3.94346	9.4431	-2.05419	8.91655	-17.2414	-1.72672	0.322208
0.5667	27.1006	-16.6732	0.460308	-3.94346	7.01614	-2.97504	7.99835	-11.1329	-2.03809	0.322208
0.5673	56.3881	-16.6732	-1.07405	-3.33198	5.4717	-3.89588	8.60809	-5.0244	-1.41534	0.322208
0.5680	103.717	-16.0542	-1.6878	-3.01999	5.78059	-4.81672	8.60809	-0.145937	-1.41534	0.322208
0.5687	119.883	-15.7447	-2.30154	-2.72049	3.94934	-5.41881	8.30681	1.98057	-1.72672	0.322208
0.5693	97	-14.855	-1.6878	-2.109	1.80919	-6.02091	8.60809	5.04525	-1.13227	0.322208
0.5700	78.3732	-11.7989	1.07405	-0.586528	3.35363	-6.02091	7.99835	8.69368	0.396295	0
0.5707	66.4629	-8.12383	1.66588	0.0249586	5.78059	-5.73757	7.99835	10.5283	0.396295	0
0.5713	45.1026	-5.3772	0.153436	0.0249586	5.78059	-6.02091	6.77887	12.0502	-1.13227	0.322208
0.5720	19.4859	-4.17797	-0.153436	0.336941	3.35363	-6.65841	3.42172	13.593	-2.63253	0
0.5727	-0.976248	-4.44876	1.66588	0.636445	1.52237	-5.73757	2.81198	17.2414	-3.25528	0
0.5733	-8.00523	-4.17797	5.63329	0.636445	-0.0220633	-5.10006	2.51069	21.5153	-2.63253	0
0.5740	-8.00523	-3.24953	9.31576	-0.274545	-1.23555	-5.41881	-0.846462	22.7453	-2.94391	-0.322208
0.5747	-8.27858	-1.43134	11.4419	0.0249586	0.904596	-4.49797	-0.846462	23.3499	-2.34947	-0.322208
0.5753	-7.69283	-0.193424	11.7488	1.24793	1.52237	-4.49797	-1.76466	23.6626	-1.72672	0
0.5760	-12.8865	-0.502904	10.2145	0.935949	0.904596	-4.81672	-3.59388	22.7453	-1.72672	0
0.5767	-28.4283	-2.01161	8.08827	0.636445	-0.617773	-3.89588	-2.07312	21.828	-2.63253	0
0.5773	-50.4134	-2.63057	6.24704	0.935949	-2.44903	-2.05419	-0.545179	22.4326	-2.94391	0
0.5780	-79.3885	-2.63057	4.7346	0.336941	-3.0668	-1.4521	-0.545179	21.828	-3.87803	0
0.5787	-105.942	-5.06772	2.27962	-0.586528	-4.28029	-2.05419	-0.846462	16.6368	-6.00104	0
0.5793	-101.061	-6.61512	1.38092	0.336941	-4.89806	-0.85001	-0.236722	14.1976	-6.00104	0
0.5800	-65.9553	-6.30564	1.97275	0.336941	-7.0382	0.0708342	-0.545179	14.1976	-5.4066	0.322208
0.5807	-37.6051	-5.06772	3.20024	-1.49752	-10.3918	0.0708342	-0.236722	12.6757	-7.52961	0.322208
0.5813	-27.2178	-2.94005	5.94016	-1.49752	-13.7455	0.389588	0.982757	10.5283	-8.15236	0
0.5820	-8.90338	-3.24953	6.86078	-0.886031	-18.3126	0.672925	1.28404	7.17176	-6.90686	0
0.5827	18.5487	-5.06772	5.63329	-1.8095	-22.5928	0.0708342	1.89378	2.2933	-6.62379	-0.322208
0.5833	27.1006	-6.30564	4.12085	-1.49752	-25.0419	-0.531256	2.51069	-0.458659	-6.90686	-0.966624
0.5840	-0.351449	-5.99616	3.50711	0.0249586	-26.2554	1.91252	5.25094	1.06326	-6.00104	-0.322208
0.5847	-42.7597	-7.81435	1.38092	-0.274545	-28.0866	3.1167	5.55939	0.771381	-5.09523	0.322208
0.5853	-54.9823	-11.1799	-1.6878	-1.49752	-29.609	1.27502	2.81198	-3.18977	-6.31242	0.322208
0.5860	-51.9364	-12.4178	-2.58649	-0.886031	-29.3001	1.59377	3.42172	-3.81521	-6.62379	0
0.5867	-59.5511	-11.4894	-2.30154	0.636445	-32.058	3.71879	4.6412	-1.98057	-4.1611	-0.322208
0.5873	-62.9094	-11.7989	-2.58649	0.336941	-37.8607	3.43546	3.73017	-2.2933	-3.25528	0
0.5880	-64.7448	-12.6886	-3.20024	-0.274545	-40.0008	2.51461	4.33991	-2.58517	-3.25528	0.322208
0.5887	-68.4154	-12.1084	-2.58649	0.935949	-38.1696	3.1167	4.6412	-1.66785	-2.03809	0
0.5893	-67.4782	-12.6886	-4.12085	2.15892	-37.8607	2.19586	1.89378	-2.2933	-1.72672	0.322208
0.5900	-71.4613	-14.855	-6.86078	1.85942	-37.8607	0.991678	0.982757	-2.89789	-2.34947	0.322208
0.5907	-78.8027	-14.855	-7.47452	2.15892	-35.4116	1.91252	5.55939	-1.66785	-1.13227	0
0.5913	-79.0761	-14.855	-7.47452	2.77041	-36.0294	2.83337	7.99835	-1.98057	-0.509523	0.322208
0.5920	-61.0741	-15.4353	-7.7814	3.08239	-39.0742	1.59377	8.91655	-2.89789	-1.41534	0.644416
0.5927	-2.81159	-13.6171	-5.96208	3.08239	-35.4116	1.59377	11.9652	0.166785	-1.72672	0.322208
0.5933	63.7295	-9.94202	-2.58649	3.38189	-28.3955	2.83337	12.8834	3.52334	-1.41534	0.322208
0.5940	75.6397	-8.4333	-1.6878	2.15892	-26.2554	3.1167	12.2737	4.12793	-2.94391	0
0.5947	56.1147	-6.61512	-1.6878	0.636445	-26.2554	4.3563	14.1029	5.33712	-4.78385	0
0.5953	51.5068	-4.17797	-1.99467	-1.19801	-26.2554	6.48133	15.9321	9.0064	-6.62379	0
0.5960	57.3253	-2.01161	-3.20024	-2.42099	-26.2554	6.16257	14.4114	12.0502	-7.84099	0
0.5967	49.9839	0.735013	-1.07405	-1.8095	-24.4241	5.56048	15.0211	11.4456	-6.31242	0
0.5973	35.0278	2.5532	2.27962	0.336941	-23.5195	5.56048	18.3783	10.2364	-3.87803	0
0.5980	21.0089	3.17216	4.7346	2.15892	-23.5195	5.87924	19.2893	9.92372	-2.63253	0
0.5987	-3.70974	0.425534	6.55391	2.4709	-24.1152	4.95839	16.2406	9.31912	-1.72672	0
0.5993	-16.5181	-3.55901	6.55391	3.69388	-24.4241	5.56048	15.0211	9.0064	1.33042	0.322208
0.6000	-18.0411	-3.86849	8.08827	4.60487	-22.5928	8.32302	16.8503	8.4018	3.45343	0
0.6007	-36.6679	-1.43134	10.8282	3.69388	-21.9751	8.60635	16.2406	8.08908	1.92486	0
0.6013	-32.7238	0.116055	10.8282	2.4709	-21.0705	7.68551	12.575	11.1538	0.396295	0
0.6020	12.1445	0.735013	10.2145	1.54744	-19.5481	8.00426	10.7458	13.593	0.113227	0.322208
0.6027	44.7902	0.735013	9.31576	2.15892	-21.3794	7.68551	11.0542	12.9675	0.113227	0
0.6033	51.8192	-0.812383	6.86078	3.69388	-23.5195	5.87924	8.30681	11.4456	1.01905	0
0.6040	47.5628	-2.01161	5.63329	4.60487	-23.8063	5.27715	5.25094	10.2364	1.92486	0
0.6047	27.7254	-2.94005	5.94016	5.51586	-24.733	4.95839	4.94965	8.4018	3.76481	0.322208
0.6053	23.1566	-4.75824	4.7346	6.73883	-24.733	3.43546	4.03146	6.87989	5.60475	0.322208
0.6060	59.473	-6.30564	2.89336	7.35032	-24.4241	1.59377	2.20224	7.17176	7.72776	0.322208
0.6067	91.1815	-7.19539	1.38092	8.26131	-24.733	-0.531256	0.0645607	6.56717	9.5677	0.322208
0.6073	78.998	-8.4333	1.07405	9.48428	-24.1152	-0.24792	-0.236722	5.33712	11.3793	0
0.6080	44.7902	-9.94202	-0.153436	9.48428	-23.5195	0.389588	0.6743	3.81521	11.6907	0
0.6087	16.1276	-12.1084	-3.20024	8.87279	-24.4241	-1.13335	-0.236722	0.458659	10.7849	0
0.6093	3.90499	-13.3076	-4.12085	9.48428	-23.5195	-1.4521	0.6743	-0.750533	10.7849	0.322208
0.6100	9.72343	-12.1084	-3.20024	10.4077	-20.7616	0.0708342	4.03146	-1.66785	12.3135	0.322208
0.6107	13.0817	-9.94202	-2.30154	9.79626	-19.2392	-0.24792	4.94965	-2.2933	12.0021	0.322208
0.6113	15.8152	-8.12383	-1.6878	8.26131	-19.5481	-0.24792	2.81198	-1.06326	9.5677	0.322208
0.6120	18.8611	-6.92459	-1.38092	7.05081	-19.5481	0.0708342	0.6743	0.771381	8.35051	-0.322208
0.6127	18.2754	-8.4333	-3.81398	6.43933	-18.9303	-0.531256	0.373017	0.458659	7.41638	-0.966624
0.6133	27.1006	-10.8705	-7.16765	6.43933	-18.0257	0.0708342	-0.236722	0.458659	6.82194	-0.322208
0.6140	39.6357	-12.4178	-9.00888	6.73883	-15.8856	2.51461	1.5925	4.12793	7.41638	0.322208
0.6147	34.7544	-14.236	-11.1351	6.12734	-16.1945	2.83337	3.73017	6.87989	7.41638	0
0.6153	-5.23269	-16.3637	-14.4887	3.38189	-17.0991	2.19586	1.5925	5.96257	4.07618	0
0.6160	-50.7258	-16.9827	-15.4094	1.85942	-15.2678	4.03755	0.982757	6.25444	1.33042	0
0.6167	-59.8635	-15.7447	-14.2038	0.935949	-14.3632	5.56048	2.81198	7.79721	0.70767	-0.322208
0.6173	-60.1759	-13.6171	-13.2832	0.0249586	-15.8856	4.95839	2.51069	6.87989	-1.41534	0
0.6180	-68.4154	-9.67122	-9.9295	-0.586528	-17.408	6.48133	4.03146	8.4018	-2.94391	0
0.6187	-54.3575	-2.94005	-3.81398	-0.886031	-20.1438	8.32302	5.86067	14.8022	-3.56666	0
0.6193	-18.0411	2.24372	1.38092	-0.886031	-22.5928	6.16257	2.51069	20.3061	-4.47248	0
0.6200	-0.351449	5.60931	4.12085	0.935949	-23.5195	3.1167	-1.15492	23.0372	-2.94391	0.644416
0.6207	-13.1598	8.66541	6.86078	4.60487	-24.4241	1.59377	-1.46338	24.2672	0.70767	0
0.6213	3.90499	12.031	10.5213	7.05081	-26.2554	-0.85001	-3.59388	24.58	3.14206	-0.966624
0.6220	66.7753	14.4681	11.4419	7.9618	-27.7777	-3.57713	-6.34129	24.58	4.67062	-0.322208
0.6227	96.3752	15.0484	11.4419	9.18478	-26.5642	-3.29379	-4.82053	23.9545	6.19919	0.322208
0.6233	69.2355	14.1587	11.4419	10.0958	-27.4688	-2.05419	-3.59388	22.4326	7.10501	0
0.6240	43.5797	11.412	8.08827	10.4077	-37.2429	-2.97504	-4.51207	19.3888	6.19919	0.322208
0.6247	42.9939	8.35594	4.42772	10.7073	-48.2304	-4.21463	-4.20362	15.4068	5.88782	0.322208
0.6253	44.2045	8.04646	3.50711	11.0068	-54.6288	-3.57713	-2.98414	14.5103	5.60475	0
0.6260	34.7544	7.11802	2.27962	10.0958	-60.4314	-4.49797	-2.07312	15.4068	3.76481	0
0.6267	22.8442	7.11802	2.27962	8.87279	-64.094	-4.21463	-0.846462	15.7195	1.92486	0
0.6273	21.907	8.35594	3.81398	8.87279	-65.0206	-1.13335	3.42172	15.1149	0.396295	-0.322208
0.6280	11.2464	6.53775	2.27962	8.57329	-67.7565	-1.77085	4.33991	10.841	-2.03809	0
0.6287	-19.2907	3.17216	-1.38092	8.87279	-69.2788	-4.49797	1.5925	1.6887	-2.94391	0.322208
0.6293	-33.9344	3.48164	-1.07405	9.79626	-66.543	-3.57713	3.73017	-5.33712	-0.509523	0.322208
0.6300	-33.9344	4.99035	0.153436	9.48428	-64.7117	-1.13335	6.77887	-8.69368	-0.820898	0.322208
0.6307	-40.9634	3.79112	-1.6878	6.73883	-64.7117	1.27502	7.69707	-11.7375	-6.00104	0
0.6313	-45.8446	3.17216	-3.20024	3.69388	-65.6163	5.56048	12.8834	-15.4068	-10.8981	0
0.6320	-42.4863	1.62477	-5.65521	1.24793	-68.0654	6.80008	17.1588	-19.0761	-12.7098	0.322208
0.6327	-30.8885	-1.43134	-9.00888	0.336941	-70.5144	4.95839	15.0211	-22.7245	-13.0211	0
0.6333	-11.0511	-3.24953	-10.5213	0.935949	-70.2055	5.56048	14.4114	-26.081	-12.1153	0
0.6340	6.67753	-4.17797	-12.0557	2.15892	-69.2788	6.48133	15.3224	-29.4376	-9.964	0.322208
0.6347	14.2923	-5.99616	-14.4887	2.77041	-67.7565	4.03755	12.2737	-31.8768	-9.36955	0
0.6353	17.3382	-5.3772	-14.4887	4.29288	-61.667	2.51461	9.52629	-29.7503	-7.84099	0
0.6360	27.1006	-2.94005	-12.6694	5.51586	-54.342	3.1167	11.0542	-24.8718	-5.68967	0.322208
0.6367	35.0278	-2.01161	-12.0557	4.29288	-49.4439	2.51461	8.91655	-22.1199	-6.00104	0
0.6373	32.6067	-0.193424	-10.2364	3.69388	-42.7367	2.19586	5.86067	-18.1587	-6.00104	0
0.6380	33.1924	4.06191	-6.55391	4.29288	-37.2429	3.43546	6.77887	-10.2156	-4.47248	0.322208
0.6387	36.5507	6.53775	-5.34834	3.99338	-36.6251	2.51461	4.94965	-6.54632	-4.47248	0
0.6393	35.0278	8.66541	-4.12085	3.38189	-30.5356	1.27502	2.20224	-5.0244	-3.87803	0
0.6400	29.2484	12.6113	-0.460308	2.77041	-19.857	2.83337	4.03146	0.166785	-1.41534	0.322208
0.6407	14.9171	14.7776	1.66588	1.54744	-13.1277	4.03755	5.55939	2.89789	-1.72672	0.322208
0.6413	-0.976248	15.0484	1.97275	0.0249586	-6.11154	3.43546	3.42172	1.98057	-3.25528	0.322208
0.6420	-8.27858	15.9769	2.58649	-0.886031	3.94934	3.71879	2.20224	3.81521	-3.56666	0.322208
0.6427	-1.8744	17.2148	3.50711	-0.886031	11.5832	4.03755	3.42172	5.64985	-4.47248	-0.966624
0.6433	11.5588	18.7235	3.50711	0.0249586	19.2172	3.43546	4.6412	7.17176	-4.47248	-0.966624
0.6440	6.95088	22.708	4.42772	0.935949	29.5869	5.56048	7.69707	11.1538	-2.03809	0.322208
0.6447	-20.1888	24.2167	4.12085	0.336941	33.8672	6.80008	10.136	14.1976	-0.820898	0.322208
0.6453	-51.3116	20.8512	0.153436	-0.886031	29.5869	4.3563	7.08733	12.0502	-2.03809	0
0.6460	-67.4782	17.795	-2.30154	-1.19801	27.1379	4.3563	4.94965	6.25444	-1.72672	0.322208
0.6467	-72.9843	15.3579	-3.50711	-0.886031	25.9244	5.56048	6.16913	-0.145937	-0.509523	0
0.6473	-86.105	11.7215	-5.96208	-2.109	20.1218	4.63964	6.16913	-7.46364	-1.41534	0
0.6480	-96.4923	10.4836	-6.55391	-2.72049	18.0037	3.71879	5.25094	-11.1329	-1.41534	0.322208
0.6487	-87.0422	11.7215	-5.34834	-1.19801	21.953	3.71879	4.03146	-9.92372	0.70767	0
0.6493	-70.5632	12.031	-5.65521	-0.886031	25.0198	3.1167	3.73017	-8.38095	1.92486	0
0.6500	-60.1759	11.1026	-6.55391	-1.19801	29.278	2.19586	4.94965	-6.54632	2.23624	0
0.6507	-57.7158	12.031	-5.65521	0.0249586	39.361	2.51461	5.86067	-2.89789	4.982	0.322208
0.6513	-58.653	12.031	-5.65521	0.336941	49.113	1.91252	4.6412	-3.50249	6.19919	0.322208
0.6520	-56.8176	11.1026	-6.55391	-0.586528	54.011	0.0708342	2.51069	-6.54632	5.60475	0
0.6527	-53.7717	12.3018	-5.65521	1.24793	59.7916	0.672925	1.89378	-6.54632	7.10501	0
0.6533	-53.7717	13.2302	-4.42772	3.08239	63.1673	0.672925	2.20224	-5.64985	8.94495	0
0.6540	-53.7717	13.2302	-5.04147	3.08239	61.336	-0.85001	0.6743	-5.0244	8.35051	0
0.6547	-43.3844	14.7776	-3.50711	3.38189	65.9032	-0.24792	0.373017	-2.2933	8.03913	0
0.6553	-18.6659	16.9053	-1.38092	3.08239	74.7505	1.27502	1.28404	0.458659	8.35051	0.322208
0.6560	12.1445	17.795	-1.07405	1.54744	75.6772	1.27502	0.6743	1.06326	7.41638	0.322208
0.6567	41.1586	17.5243	-1.07405	0.636445	73.846	2.51461	0.373017	1.98057	7.10501	0
0.6573	47.5628	16.5958	-2.30154	0.0249586	75.9861	3.71879	0.6743	2.2933	6.19919	0
0.6580	30.4589	14.7776	-4.7346	-1.8095	72.3236	2.83337	-1.15492	0.166785	4.07618	0
0.6587	17.963	12.9208	-6.55391	-2.42099	64.3808	1.59377	-2.68285	-0.750533	3.76481	0.322208
0.6593	10.0358	12.3018	-6.86078	-1.19801	62.2406	2.19586	-1.15492	1.06326	5.60475	0
0.6600	2.69444	12.9208	-7.16765	-0.274545	64.6897	1.59377	-2.07312	3.21061	6.19919	0
0.6607	7.57568	12.9208	-7.47452	-0.274545	67.7344	0.389588	-5.12181	5.04525	5.88782	0
0.6613	17.3382	13.5397	-6.86078	0.336941	68.6611	0.991678	-5.12181	7.79721	6.82194	0
0.6620	25.8901	13.8492	-7.16765	0.336941	65.9032	0.389588	-5.43027	7.79721	7.72776	0.322208
0.6627	37.8003	14.1587	-6.26896	-0.274545	63.4541	-0.85001	-6.64975	7.48448	7.41638	0
0.6633	44.2045	16.5958	-3.50711	0.0249586	62.8584	-0.24792	-6.64975	10.841	8.35051	0
0.6640	49.0857	18.1045	-1.6878	0.336941	62.2406	-0.24792	-6.95103	13.2803	8.35051	0
0.6647	65.2524	18.1045	-1.6878	-0.586528	59.1959	-0.24792	-7.56077	13.8849	7.10501	0.322208
0.6653	80.2085	18.414	-1.6878	-1.19801	55.2245	0.672925	-7.25949	13.8849	6.82194	0
0.6660	84.465	18.7235	-1.38092	-0.886031	51.562	0.991678	-5.73155	14.5103	5.88782	0
0.6667	81.4191	19.033	-0.460308	-1.49752	47.5906	0.0708342	-6.04001	15.4068	4.07618	0
0.6673	79.5837	20.8512	2.27962	-2.109	46.9949	0.672925	-6.64975	18.1587	2.54761	0
0.6680	78.6856	22.3985	4.7346	-2.42099	47.8995	1.59377	-5.43027	20.3061	2.23624	0
0.6687	58.5358	22.3985	5.34834	-2.72049	45.4505	0.991678	-5.12181	19.3888	1.61349	0
0.6693	18.5487	21.1606	3.50711	-3.01999	41.5011	2.19586	-4.82053	17.8669	0.70767	0
0.6700	-11.9493	18.7235	1.38092	-3.01999	40.2656	3.43546	-2.98414	17.2414	0.70767	-0.322208
0.6707	-25.6948	18.1045	1.07405	-3.63148	39.6699	3.71879	-1.15492	16.9495	0.70767	0
0.6713	-29.6389	18.414	1.38092	-3.63148	38.1254	4.03755	-1.46338	15.1149	-0.509523	0.322208
0.6720	-32.4114	16.2863	0.153436	-3.94346	36.6031	3.43546	-3.59388	9.92372	-2.03809	0
0.6727	-42.4863	13.2302	-1.6878	-3.94346	36.6031	2.83337	-3.90233	6.25444	-2.34947	-1.28883
0.6733	-50.7258	12.3018	-1.99467	-2.72049	36.6031	3.43546	-1.46338	7.17176	-1.72672	-0.322208
0.6740	-54.6699	11.412	-2.58649	-2.109	37.2208	3.43546	0.373017	7.48448	-1.41534	0.322208
0.6747	-63.5342	9.55517	-2.58649	-2.72049	38.7432	3.71879	0.982757	4.73253	-1.13227	0
0.6753	-75.4444	8.97489	-2.58649	-3.33198	39.361	3.1167	0.6743	2.60602	-2.34947	0.322208
0.6760	-67.4782	9.86465	-1.38092	-3.63148	39.0521	2.51461	-0.846462	3.81521	-3.87803	0
0.6767	-39.7138	13.2302	1.66588	-3.33198	40.5745	3.43546	-0.236722	7.17176	-4.1611	0
0.6773	-14.4094	15.6674	4.12085	-3.94346	41.5011	3.1167	1.89378	7.79721	-3.87803	0.322208
0.6780	-5.54509	15.6674	3.81398	-4.55495	41.1922	2.19586	0.6743	6.25444	-3.87803	0.322208
0.6787	-18.0411	14.4681	2.89336	-5.16644	42.4057	3.1167	1.28404	4.41981	-4.78385	0
0.6793	-37.6051	12.9208	1.97275	-5.46594	43.9281	4.3563	2.51069	3.21061	-4.1611	0
0.6800	-26.2806	10.4836	-0.153436	-6.37693	42.7146	3.71879	0.6743	0.771381	-3.56666	0
0.6807	23.7423	9.55517	-0.76718	-6.37693	42.4057	3.71879	2.81198	-0.750533	-2.94391	0
0.6813	43.2673	9.86465	0.460308	-5.46594	44.5459	4.03755	4.94965	0.166785	-0.820898	0.322208
0.6820	7.26328	8.66541	-0.460308	-5.16644	45.7593	2.51461	1.5925	-0.750533	-0.509523	0
0.6827	-30.2637	8.04646	-1.07405	-4.55495	46.0682	3.1167	2.20224	-1.98057	-0.198148	0
0.6833	-44.3216	8.04646	-0.460308	-4.55495	46.3771	3.71879	5.25094	-1.98057	1.33042	0
0.6840	-20.1888	7.73698	0.153436	-5.46594	46.0682	3.1167	4.33991	-2.89789	1.01905	0.322208
0.6847	29.5608	8.97489	2.27962	-7.3004	46.0682	3.43546	4.03146	-3.18977	-0.509523	0.322208
0.6853	48.1485	8.97489	2.27962	-9.13486	46.0682	3.71879	4.6412	-2.89789	-2.34947	0.322208
0.6860	31.3961	7.11802	0.460308	-9.43436	45.4505	3.71879	4.03146	-4.10708	-3.25528	0.322208
0.6867	17.3382	6.53775	-0.153436	-9.43436	44.5459	4.03755	3.42172	-4.10708	-2.63253	0.322208
0.6873	14.6047	5.60931	-0.460308	-8.21139	43.9281	3.71879	3.73017	-1.98057	-0.820898	0
0.6880	15.5028	4.37139	-1.38092	-6.68891	42.4057	2.83337	3.73017	-1.66785	0.396295	0.322208
0.6887	19.1735	2.86268	-2.89336	-5.46594	40.5745	1.91252	2.51069	-3.18977	1.33042	0
0.6893	23.4299	1.04449	-4.42772	-4.85445	38.1254	0.991678	0.982757	-5.0244	1.01905	0
0.6900	28.3112	1.31529	-4.12085	-3.33198	36.2942	0.672925	1.89378	-3.50249	1.01905	0
0.6907	42.6815	1.62477	-3.20024	-1.49752	36.0073	0.991678	1.5925	-0.750533	2.54761	0.322208
0.6913	57.3253	-0.502904	-5.04147	-0.886031	33.5583	-0.531256	-1.46338	-1.98057	2.54761	0
0.6920	56.7005	-1.12186	-6.26896	-0.586528	33.2494	-1.13335	-1.15492	-3.50249	2.54761	0
0.6927	56.7005	-0.812383	-4.7346	0.636445	34.7718	-0.531256	1.28404	-1.98057	4.35925	0.322208
0.6933	60.3712	-2.01161	-5.34834	0.636445	32.0359	-2.05419	-1.46338	-2.58517	4.35925	0.322208
0.6940	53.967	-2.01161	-5.65521	0.935949	30.5136	-2.37294	-3.29259	-2.58517	4.35925	0.322208
0.6947	41.432	0.116055	-3.50711	2.4709	31.4182	-1.13335	-1.46338	1.06326	5.60475	0.322208
0.6953	16.44	0.116055	-3.81398	1.85942	29.278	-3.29379	-4.82053	3.21061	5.29337	0
0.6960	-5.54509	0.735013	-2.58649	1.24793	28.3734	-3.29379	-6.04001	5.64985	4.67062	0
0.6967	-9.80153	3.79112	1.38092	2.77041	30.2047	-0.85001	-2.07312	10.5283	5.60475	0
0.6973	-24.1719	4.68087	1.97275	3.38189	28.6823	-1.77085	-2.07312	11.1538	5.60475	0
0.6980	-52.8345	3.48164	1.38092	2.77041	27.1379	-3.57713	-5.12181	9.92372	4.35925	0
0.6987	-58.653	4.06191	2.89336	3.08239	27.4468	-3.29379	-6.04001	12.0502	3.45343	0
0.6993	-21.3993	4.99035	4.12085	2.77041	27.1379	-3.29379	-5.43027	12.9675	3.45343	0
0.7000	24.6795	5.60931	5.34834	2.4709	26.2333	-3.57713	-5.43027	11.7584	2.85899	0
0.7007	36.2774	5.60931	6.86078	3.69388	26.5422	-2.97504	-5.43027	11.7584	3.45343	0
0.7013	1.4839	3.48164	5.34834	4.90437	25.9244	-3.89588	-6.04001	9.0064	4.67062	0
0.7020	-33.3096	0.735013	2.27962	4.29288	23.7843	-4.81672	-6.95103	5.33712	4.67062	0
0.7027	4.52979	0.116055	1.38092	4.29288	23.1886	-4.81672	-7.25949	6.56717	3.76481	0.322208
0.7033	71.3442	-0.502904	1.66588	4.90437	22.8797	-5.10006	-5.43027	8.69368	2.85899	0.322208
0.7040	75.3273	-2.01161	1.38092	4.60487	21.953	-4.81672	-4.82053	7.17176	3.14206	0.322208
0.7047	43.8921	-3.86849	-0.153436	4.29288	21.3573	-5.10006	-6.64975	4.12793	2.54761	0
0.7053	32.6067	-5.68668	-1.99467	3.99338	19.8349	-6.65841	-8.47897	1.06326	2.54761	-0.966624
0.7060	29.2484	-5.06772	-1.38092	4.60487	20.1218	-5.10006	-6.64975	0.166785	3.45343	-0.644416
0.7067	19.1735	-3.55901	0.153436	4.29288	20.1218	-3.57713	-3.90233	-0.750533	2.85899	0.322208
0.7073	11.2464	-4.17797	0.153436	2.4709	18.5994	-3.29379	-4.20362	-4.73253	1.01905	0.322208
0.7080	2.69444	-4.17797	0.76718	1.24793	19.2172	-2.05419	-2.98414	-7.17176	-0.509523	0
0.7087	-10.7387	-3.86849	1.66588	0.336941	18.5994	-2.37294	-0.236722	-7.77636	-2.63253	0
0.7093	-16.2448	-3.86849	1.66588	-0.886031	18.5994	-1.77085	0.0645607	-6.85904	-4.47248	0
0.7100	-19.6031	-4.17797	1.66588	-0.886031	20.1218	1.27502	1.89378	-5.33712	-5.68967	0
0.7107	-30.5761	-5.68668	0.460308	-1.49752	19.526	1.91252	4.03146	-5.94172	-6.90686	0
0.7113	-37.6051	-6.30564	-0.153436	-2.109	18.2905	0.389588	3.12043	-6.54632	-7.84099	0
0.7120	-42.7597	-7.19539	-0.153436	-2.42099	18.0037	-0.24792	2.81198	-6.85904	-8.43543	0
0.7127	-48.5781	-8.12383	-1.99467	-3.33198	16.7681	-0.531256	1.5925	-8.38095	-9.36955	0
0.7133	-43.3844	-8.12383	-2.89336	-2.72049	16.7681	-0.85001	1.5925	-7.77636	-8.74681	0.322208
0.7140	-29.3655	-7.81435	-2.89336	-1.49752	17.077	-1.13335	2.20224	-5.33712	-6.00104	0
0.7147	-18.3535	-7.81435	-3.20024	-1.49752	16.1724	-1.77085	0.0645607	-5.64985	-5.4066	-0.322208
0.7153	-11.6369	-8.4333	-2.58649	-1.8095	15.5546	-2.05419	-0.545179	-6.54632	-6.31242	0
0.7160	-4.33454	-8.74278	-2.30154	-1.8095	15.2458	-1.4521	-0.846462	-7.17176	-6.00104	0.322208
0.7167	-6.75563	-9.05226	-2.58649	-2.109	14.0323	-1.13335	0.0645607	-9.61099	-5.4066	0.322208
0.7173	-22.0241	-9.36174	-1.99467	-2.109	14.628	-1.13335	0.982757	-10.2156	-4.78385	0
0.7180	-29.6389	-8.74278	-0.460308	-2.42099	14.9369	-0.85001	-0.236722	-9.0064	-5.4066	0
0.7187	-20.1888	-7.81435	0.460308	-2.72049	13.4145	-1.13335	0.373017	-7.77636	-6.31242	0
0.7193	0.546699	-6.30564	1.97275	-1.49752	13.7234	-0.85001	1.5925	-5.33712	-4.47248	0
0.7200	19.1735	-5.68668	2.27962	-0.274545	13.7234	-0.85001	1.5925	-4.41981	-2.63253	0.322208
0.7207	15.1904	-6.30564	1.38092	0.0249586	11.8921	-2.6917	-0.545179	-6.25444	-2.63253	0
0.7213	0.859098	-6.30564	1.97275	0.336941	11.8921	-2.37294	-1.46338	-5.64985	-1.72672	0
0.7220	-3.39734	-6.30564	2.27962	0.336941	11.2744	-2.6917	-1.76466	-5.0244	-1.13227	0.322208
0.7227	-4.64694	-7.50487	0.76718	0.336941	9.13422	-4.21463	-2.07312	-5.0244	-1.72672	0.322208
0.7233	-3.39734	-7.81435	1.07405	0.935949	10.3698	-2.97504	1.28404	-3.18977	0.113227	0.322208
0.7240	1.4839	-2.63057	1.38092	1.54744	10.9655	-2.6917	2.81198	-1.98057	1.01905	0.322208
0.7247	3.59259	1.93424	0.460308	1.54744	8.22962	-5.10006	0.982757	-4.41981	-0.198148	0
0.7253	2.06965	-2.32109	0.153436	2.4709	7.01614	-6.33966	1.28404	-5.64985	1.33042	0
0.7260	1.1715	-9.67122	-0.153436	2.77041	8.53851	-6.65841	1.5925	-4.73253	3.14206	0
0.7267	0.234299	-12.9981	-1.07405	2.4709	7.92073	-6.65841	-1.15492	-4.73253	3.14206	0.322208
0.7273	-1.28865	-12.4178	-1.07405	1.54744	7.30296	-6.33966	-2.98414	-3.81521	2.54761	0.322208
0.7280	-0.976248	-10.8705	-0.153436	1.54744	7.01614	-5.73757	-2.07312	-2.2933	4.35925	0.322208
0.7287	0.546699	-10.2515	-0.153436	1.54744	5.4717	-6.65841	-1.15492	-2.2933	8.94495	0.322208
0.7293	1.1715	-9.94202	-0.460308	1.24793	3.94934	-6.94175	-2.98414	-2.2933	6.82194	0.322208
0.7300	-1.28865	-9.05226	-0.153436	1.85942	3.35363	-6.94175	-4.82053	-0.750533	-1.72672	0
0.7307	-3.70974	-8.74278	-0.153436	3.08239	3.35363	-7.54384	-5.43027	0.458659	-4.47248	0.322208
0.7313	-3.39734	-8.12383	-0.460308	3.99338	3.04474	-8.78344	-6.95103	0.771381	-0.509523	0.322208
0.7320	-2.18679	-8.4333	-0.153436	4.29288	2.73585	-9.70428	-8.17051	1.37598	2.85899	0
0.7327	-2.18679	-8.4333	-0.153436	4.60487	2.73585	-9.38553	-5.73155	2.60602	4.982	-0.644416
0.7333	-3.12399	-7.19539	0.460308	5.51586	3.04474	-8.46468	-3.29259	3.52334	6.82194	-0.966624
0.7340	-2.49919	-6.92459	1.07405	5.82784	2.73585	-9.38553	-5.43027	4.12793	7.10501	0
0.7347	1.4839	-6.92459	1.38092	5.51586	2.42697	-9.70428	-7.56077	5.64985	7.10501	0
0.7353	5.11554	-6.61512	1.38092	4.90437	1.80919	-9.98762	-7.86923	6.87989	7.10501	-0.322208
0.7360	7.26328	-5.99616	1.38092	4.60487	0.59571	-9.70428	-9.08871	8.08908	6.82194	0
0.7367	9.09863	-4.44876	2.89336	5.21635	1.80919	-7.86259	-6.95103	10.5283	7.72776	0.322208
0.7373	9.09863	-3.55901	4.42772	5.51586	2.73585	-6.94175	-5.12181	11.4456	8.03913	0.322208
0.7380	8.47383	-4.44876	2.89336	5.21635	0.904596	-9.06677	-6.04001	10.841	7.10501	0.322208
0.7387	7.57568	-4.44876	2.58649	5.82784	-0.0220633	-9.70428	-7.25949	11.7584	8.03913	0.322208
0.7393	4.84219	-3.24953	3.20024	6.43933	-0.0220633	-9.06677	-6.95103	11.7584	9.5677	0.322208
0.7400	2.38204	-4.44876	1.97275	5.82784	-1.85332	-9.38553	-5.73155	8.4018	8.03913	0
0.7407	2.06965	-5.68668	1.66588	4.60487	-1.54443	-7.2605	-4.51207	6.25444	6.19919	0
0.7413	2.38204	-4.75824	2.58649	2.77041	-0.0220633	-3.89588	-1.46338	5.96257	3.76481	0.322208
0.7420	0.546699	-5.06772	2.58649	0.0249586	-0.308887	-4.49797	-0.545179	4.41981	2.23624	0
0.7427	1.1715	-5.68668	2.58649	-1.49752	-0.0220633	-5.73757	-2.3744	3.81521	2.54761	0
0.7433	3.59259	-6.30564	1.97275	-1.49752	-0.617773	-6.02091	-3.29259	3.52334	2.85899	0
0.7440	4.52979	-5.99616	1.07405	-1.19801	-1.23555	-7.54384	-4.20362	2.60602	4.07618	0
0.7447	4.21739	-5.3772	1.66588	-0.274545	-0.617773	-8.78344	-5.43027	2.60602	6.82194	0
0.7453	3.59259	-5.3772	1.66588	0.336941	-0.617773	-9.38553	-6.04001	3.21061	7.10501	0
0.7460	3.59259	-5.68668	1.66588	0.636445	-0.617773	-9.06677	-3.90233	4.41981	5.60475	0.322208
0.7467	3.00684	-5.06772	1.66588	0.336941	-0.308887	-7.86259	-2.3744	5.33712	3.76481	0
0.7473	1.4839	-5.3772	1.07405	-2.109	-1.85332	-7.86259	-4.51207	4.12793	1.01905	-0.322208
0.7480	1.4839	-4.75824	0.76718	-5.16644	-2.44903	-6.65841	-3.59388	4.12793	-3.25528	0
0.7487	2.38204	-8.4333	0.76718	-7.91189	-1.85332	-5.10006	-3.29259	5.04525	-2.03809	0.322208
0.7493	2.06965	-22.7854	0.153436	-6.37693	-3.0668	-5.41881	-5.43027	3.81521	5.29337	0.322208
0.7500	1.7963	-33.4624	1.07405	9.79626	-2.75792	-5.10006	-3.90233	3.81521	9.5677	0.322208
0.7507	1.4839	-39.8841	1.66588	31.7599	-0.92666	-3.57713	-2.07312	5.33712	9.87908	0
0.7513	1.1715	-38.6462	0.76718	36.0403	-2.14014	-4.49797	-3.90233	4.41981	12.6248	0
0.7520	1.7963	3.17216	1.66588	27.7914	-2.44903	-6.33966	-4.51207	2.89789	16.8709	0
0.7527	2.06965	42.8242	2.27962	24.7465	-0.92666	-5.10006	-3.29259	3.52334	22.0793	0.322208
0.7533	1.1715	26.9634	0.153436	25.9695	-1.54443	-3.89588	-1.76466	2.60602	38.2425	0.322208
0.7540	0.859098	7.73698	-0.460308	32.9828	-1.54443	-4.21463	0.0645607	2.60602	42.2055	0.322208
0.7547	1.4839	9.86465	0.76718	46.1111	0.286823	-2.97504	2.20224	3.81521	12.0021	0
0.7553	1.4839	9.55517	0.153436	60.1503	0.286823	-2.6917	0.982757	3.21061	1.61349	0.322208
0.7560	0.859098	6.80854	-0.460308	66.2527	-0.0220633	-2.97504	-1.76466	2.89789	25.4195	0.322208
0.7567	0.859098	4.37139	0.460308	58.0039	2.11808	-2.6917	-1.15492	3.52334	66.3229	0.322208
0.7573	1.1715	-2.32109	1.07405	31.1484	3.64045	-2.97504	0.0645607	3.81521	125.824	0
0.7580	1.4839	-7.81435	0.76718	-3.33198	3.64045	-4.21463	-1.76466	3.52334	149.035	0
0.7587	2.06965	-7.81435	0.153436	-14.3138	3.04474	-5.41881	-3.90233	2.2933	133.778	0
0.7593	2.38204	-8.4333	-0.153436	-3.94346	2.11808	-5.10006	-2.98414	1.98057	116.681	0.322208
0.7600	2.69444	-8.4333	0.460308	-7.5999	0.59571	-2.37294	-1.15492	1.98057	20.8621	0.322208
0.7607	2.69444	-3.55901	0.460308	-20.7281	-3.37569	-1.77085	-1.15492	1.37598	-166.529	0.322208
0.7613	1.4839	2.5532	-0.76718	-27.13	-7.34709	-2.37294	-2.98414	1.06326	-261.442	0.322208
0.7620	0.234299	4.37139	-1.38092	-40.5578	-8.86946	-0.531256	-5.43027	1.98057	-187.901	0
0.7627	-0.976248	3.17216	-1.99467	-51.2401	-9.77405	-1.4521	-6.95103	1.98057	-66.1247	-0.644416
0.7633	-1.28865	2.5532	-1.99467	-33.5444	-8.86946	-6.02091	-7.86923	1.98057	27.8822	-0.644416
0.7640	0.234299	2.86268	-1.07405	-4.24297	-5.80265	-8.46468	-6.04001	3.21061	99.8947	0
0.7647	0.546699	2.24372	-0.76718	-10.0458	-4.58917	-10.9085	-4.82053	2.89789	131.315	0
0.7653	-0.0390499	1.62477	-1.6878	-39.0353	-5.51583	-13.0335	-7.25949	1.06326	76.0887	0
0.7660	0.859098	5.60931	-1.38092	-43.3032	-5.51583	-10.9085	-7.25949	1.98057	-19.4185	0
0.7667	1.1715	12.9208	-0.76718	-27.13	-6.11154	-8.46468	-3.90233	2.60602	-78.325	0
0.7673	0.234299	12.9208	-1.07405	-25.6076	-7.63391	-7.54384	-1.76466	1.6887	-92.9879	0
0.7680	0.859098	4.06191	-1.6878	-43.9147	-7.34709	-6.02091	-1.15492	1.6887	-72.239	0
0.7687	1.4839	-2.32109	-2.58649	-63.1453	-5.80265	-5.10006	-1.46338	1.06326	-50.556	0
0.7693	0.859098	-3.55901	-2.89336	-66.2028	-5.20694	-3.89588	-0.236722	0.458659	-49.3388	0
0.7700	1.4839	-2.63057	-1.99467	-36.5894	-3.9714	-2.37294	2.20224	1.98057	-48.1216	0.322208
0.7707	1.4839	-2.32109	-2.58649	17.7206	-3.68458	-1.77085	4.03146	2.2933	-30.1184	0.322208
0.7713	0.546699	-2.63057	-3.81398	26.5809	-5.20694	-1.77085	3.42172	0.771381	-13.0211	0
0.7720	0.546699	-1.70213	-2.89336	-22.5626	-4.28029	-0.24792	2.81198	1.06326	-22.4756	0
0.7727	0.234299	-2.01161	-2.58649	-39.9463	-2.14014	0.0708342	2.81198	1.37598	-42.3187	0.322208
0.7733	-0.0390499	-1.70213	-2.89336	-9.43436	-1.85332	-1.4521	1.5925	0.771381	-37.4499	0.322208
0.7740	0.234299	2.86268	-1.99467	10.7073	-1.85332	-2.37294	0.6743	1.06326	-13.927	0
0.7747	0.234299	4.68087	-1.38092	7.05081	-1.54443	-2.6917	0.373017	0.771381	13.5307	0.322208
0.7753	-0.0390499	1.04449	-1.99467	-2.42099	-0.92666	-2.97504	0.373017	-0.458659	68.4459	0.322208
0.7760	-0.663848	-0.193424	-2.58649	1.54744	-0.0220633	-2.05419	1.28404	-1.06326	159.707	0.322208
0.7767	-0.663848	2.24372	-2.58649	18.3321	1.21348	-0.531256	1.89378	-0.750533	255.526	0.322208
0.7773	0.546699	3.17216	-1.99467	29.0144	3.04474	0.672925	3.12043	0.458659	275.369	0
0.7780	1.1715	2.5532	-1.6878	46.7226	3.94934	-1.77085	3.73017	1.37598	151.158	0.322208
0.7787	0.859098	1.04449	-2.89336	84.5598	4.25822	-7.2605	0.982757	0.458659	-7.84099	0.322208
0.7793	2.06965	1.31529	-2.58649	121.486	5.78059	-10.3064	-1.15492	1.06326	-0.509523	0.322208
0.7800	3.00684	1.31529	-1.99467	131.856	5.78059	-12.7502	-2.3744	1.6887	147.195	0
0.7807	3.00684	1.04449	-2.58649	98.5991	3.35363	-13.0335	-3.59388	0.166785	205.791	0
0.7813	3.31924	1.31529	-2.30154	49.156	0.59571	-9.38553	-2.07312	0.458659	116.992	0
0.7820	3.90499	1.93424	-2.30154	41.5312	-3.0668	-6.94175	0.0645607	1.37598	-9.964	0.322208
0.7827	3.59259	3.17216	-2.58649	73.578	-5.80265	-6.33966	0.6743	0.166785	-149.743	0
0.7833	2.06965	5.29983	-2.30154	111.415	-5.51583	-3.89588	0.6743	0.771381	-215.047	0.322208
0.7840	0.546699	8.66541	-1.99467	155.055	-5.20694	-0.85001	1.28404	2.60602	-125.626	0.322208
0.7847	-0.663848	9.86465	-3.81398	183.433	-7.0382	-1.13335	-0.545179	2.2933	-35.2986	0
0.7853	-0.663848	9.55517	-5.34834	167.872	-7.63391	-3.29379	-2.3744	1.6887	-24.6269	0
0.7860	0.234299	10.7931	-3.81398	130.945	-6.42043	-2.97504	-1.15492	2.89789	-27.6841	0.322208
0.7867	-0.0390499	9.55517	-3.50711	58.6153	-6.42043	-0.531256	-2.07312	2.2933	-63.6903	0.322208
0.7873	-0.0390499	4.06191	-4.12085	-77.796	-4.58917	4.95839	-1.46338	2.2933	-128.06	0.322208
0.7880	0.859098	1.04449	-3.81398	-209.94	-3.0668	10.7668	1.28404	2.60602	-120.445	0.322208
0.7887	0.859098	1.62477	-4.12085	-267.619	-6.72931	10.7668	0.373017	1.6887	-34.0814	0.322208
0.7893	0.234299	3.79112	-3.81398	-269.753	-8.86946	7.08342	-2.07312	1.98057	-10.8981	0.322208
0.7900	0.859098	5.29983	-2.89336	-234.649	-4.89806	3.1167	-3.59388	3.52334	-72.522	0
0.7907	0.859098	4.68087	-4.42772	-171.179	-4.28029	-0.85001	-6.04001	2.60602	-84.1278	0
0.7913	-0.0390499	4.68087	-4.7346	-129.373	-5.20694	-2.37294	-6.64975	1.6887	-51.7732	0.322208
0.7920	-0.0390499	5.60931	-4.12085	-106.486	-2.75792	-1.4521	-5.12181	1.98057	-50.8673	0.644416
0.7927	-0.351449	5.29983	-4.42772	-66.2028	-0.617773	-2.37294	-5.43027	1.98057	-49.6501	-0.322208
0.7933	-0.0390499	4.99035	-4.42772	-23.4736	-0.0220633	-2.97504	-5.73155	2.2933	-18.824	-0.644416
0.7940	1.4839	5.60931	-3.20024	9.18478	2.42697	-2.97504	-4.82053	3.21061	26.3536	0
0.7947	1.7963	5.29983	-3.50711	23.5235	3.35363	-4.81672	-6.04001	2.60602	77.6173	0.322208
0.7953	0.859098	4.06191	-4.42772	17.7206	3.35363	-7.86259	-7.56077	1.37598	130.721	0
0.7960	1.7963	4.37139	-3.81398	12.2297	3.94934	-8.46468	-8.17051	1.6887	173.436	0.322208
0.7967	2.69444	4.99035	-2.89336	11.6182	2.42697	-7.54384	-8.17051	2.2933	197.242	0
0.7973	2.06965	5.29983	-1.99467	10.4077	-1.23555	-6.02091	-7.56077	2.89789	200.61	-0.322208
0.7980	0.546699	5.29983	-1.99467	22.001	-4.58917	-4.21463	-6.95103	3.21061	142.921	0
0.7987	-1.28865	4.68087	-2.58649	56.4814	-4.58917	-6.02091	-7.86923	1.98057	75.466	0.322208
0.7993	-2.18679	4.37139	-2.89336	97.9876	-1.23555	-9.38553	-10.0069	1.6887	133.155	0
0.8000	-1.8744	4.37139	-2.89336	122.098	0.904596	-11.2272	-11.5277	2.2933	192.968	0
0.8007	-2.18679	4.37139	-3.20024	126.066	2.11808	-12.1481	-11.8361	1.98057	122.767	-0.322208
0.8013	-2.18679	4.68087	-2.89336	109.581	3.64045	-12.1481	-10.0069	2.89789	64.1999	0
0.8020	-2.18679	3.79112	-3.20024	73.2661	3.35363	-11.5106	-8.78743	3.21061	7.41638	0.322208
0.8027	-1.562	2.86268	-3.20024	43.6651	3.35363	-8.46468	-8.78743	2.2933	-15.4555	0
0.8033	0.546699	4.99035	-1.99467	26.8804	4.25822	-4.21463	-6.95103	3.52334	85.8546	-0.322208
0.8040	4.52979	8.97489	-1.99467	-7.3004	3.64045	-2.97504	-6.64975	4.41981	31.2224	0
0.8047	9.09863	11.1026	-2.30154	-33.8439	2.42697	-3.89588	-7.56077	4.41981	-182.692	0
0.8053	10.6216	13.5397	-1.6878	-33.5444	2.73585	-2.6917	-2.98414	5.33712	-325.528	0
0.8060	7.88808	16.2863	-1.99467	-23.7731	2.73585	-2.37294	-1.76466	5.04525	-328.869	0.322208
0.8067	4.84219	14.4681	-3.81398	-6.98842	1.21348	-3.29379	-4.82053	2.60602	-140.883	0.322208
0.8073	4.21739	15.3579	-2.89336	-31.7099	0.286823	-1.13335	-3.29259	2.89789	47.697	0.322208
0.8080	3.59259	14.4681	-2.30154	-92.4468	-1.54443	0.672925	-1.76466	3.52334	72.4371	0
0.8087	2.06965	2.24372	-3.81398	-115.945	-5.20694	0.389588	-2.3744	1.6887	10.7849	0
0.8093	2.38204	-4.75824	-3.20024	-98.5491	-5.80265	-0.24792	-1.46338	1.6887	-71.9276	0
0.8100	2.38204	-1.70213	-2.30154	-70.1587	-3.37569	-2.6917	-1.76466	1.98057	-136.326	0
0.8107	0.859098	-2.01161	-3.20024	-53.0745	-3.37569	-6.33966	-4.51207	0.771381	-125.031	0
0.8113	-0.0390499	-3.55901	-3.81398	-44.2267	-3.37569	-7.2605	-6.04001	0.166785	-17.6068	0
0.8120	0.234299	-3.86849	-3.50711	-19.8047	-0.617773	-6.65841	-7.25949	-0.145937	88.6003	0
0.8127	-0.0390499	-2.32109	-3.50711	18.3321	-0.0220633	-6.65841	-8.47897	-0.458659	128.881	0
0.8133	1.4839	0.116055	-2.58649	36.0403	-0.617773	-5.41881	-6.64975	0.771381	121.549	0
0.8140	3.90499	-0.812383	-1.07405	22.001	-1.23555	-3.29379	-4.82053	2.89789	-37.4499	0
0.8147	4.21739	-2.63057	0.460308	-1.8095	-2.75792	-2.37294	-7.25949	2.60602	-261.13	0
0.8153	3.31924	-2.01161	0.76718	-33.5444	-2.44903	-2.05419	-7.56077	1.37598	-234.89	0.322208
0.8160	2.38204	-0.502904	-0.153436	-71.9932	0.904596	-2.6917	-4.51207	1.6887	-37.4499	0
0.8167	0.859098	6.22827	-1.07405	-81.4525	3.64045	-5.73757	-3.59388	2.2933	74.8715	0
0.8173	-0.0390499	9.86465	-1.99467	-60.3999	6.08948	-7.86259	-3.90233	1.98057	119.738	0.322208
0.8180	0.234299	3.17216	-1.6878	-49.7176	8.53851	-7.54384	-3.29259	2.60602	162.453	0.322208
0.8187	0.546699	-2.63057	-1.38092	-63.1453	6.70725	-5.10006	-2.68285	1.6887	133.155	0
0.8193	0.546699	-0.812383	-1.99467	-69.8592	3.35363	-0.85001	0.0645607	0.166785	6.19919	0.322208
0.8200	2.06965	-4.44876	-1.07405	-32.0219	3.94934	2.51461	4.6412	0.771381	-87.4964	0.322208
0.8207	3.31924	-23.4044	-0.153436	27.1924	5.18488	1.59377	7.08733	1.37598	-62.1618	0.322208
0.8213	3.59259	-22.4759	0.153436	61.0613	6.39836	-1.77085	8.60809	2.2933	23.2965	0.322208
0.8220	3.59259	0.735013	0.460308	88.5283	10.0609	-6.94175	7.99835	4.12793	90.7233	0
0.8227	2.38204	-2.32109	-0.76718	123.62	11.8921	-11.5106	5.86067	4.41981	142.298	-0.644416
0.8233	1.4839	-20.3482	-1.99467	143.15	11.5832	-11.2272	5.25094	3.52334	202.733	-0.322208
0.8240	2.38204	-16.3637	-1.38092	146.208	10.9655	-8.46468	5.86067	2.60602	234.182	0.322208
0.8247	3.00684	17.5243	-0.460308	128.811	8.84739	-8.78344	4.33991	0.166785	161.236	0.322208
0.8253	3.90499	45.8803	0.460308	103.79	7.01614	-10.3064	3.12043	-1.06326	27.2595	0.322208
0.8260	3.90499	30.329	0.76718	92.7962	8.22962	-11.5106	2.81198	-0.458659	-38.3557	0.322208
0.8267	2.06965	8.35594	-0.460308	83.9483	8.53851	-12.4314	2.51069	-0.145937	-22.1642	-0.322208
0.8273	1.4839	8.04646	-0.76718	53.7359	7.92073	-8.46468	1.89378	-0.750533	-51.4618	0
0.8280	2.06965	11.412	-0.460308	5.82784	3.64045	-0.85001	3.12043	-1.37598	-147.903	0.644416
0.8287	0.546699	12.6113	-1.07405	-19.8047	-2.75792	5.27715	4.6412	-0.750533	-172.332	0.322208
0.8293	-0.0390499	12.3018	-1.6878	-29.2765	-4.58917	9.5272	4.94965	0.458659	-125.626	0
0.8300	0.234299	11.412	-1.6878	-59.1769	-3.37569	10.7668	5.55939	0.771381	-85.345	0
0.8307	-0.976248	12.031	-1.38092	-100.371	-0.92666	8.00426	6.16913	0.458659	-98.168	0
0.8313	-2.49919	11.7215	-2.89336	-94.8802	-0.0220633	3.71879	3.12043	0.771381	-136.014	0
0.8320	-3.70974	10.1741	-5.65521	-19.5052	-0.92666	-1.13335	-1.46338	0.771381	-68.5591	0
0.8327	-4.33454	9.86465	-6.55391	15.2872	1.80919	-2.05419	-3.29259	1.37598	51.6882	0
0.8333	-3.70974	10.4836	-5.34834	-23.1616	6.70725	-0.24792	-1.46338	2.89789	139.27	0.322208
0.8340	-2.18679	11.1026	-2.30154	-43.0037	9.4431	-2.37294	-0.846462	2.2933	252.468	0
0.8347	-3.39734	10.1741	-0.76718	-45.1377	11.8921	-5.73757	-5.43027	1.6887	378.519	0
0.8353	-4.02214	5.91879	-1.07405	-47.5836	14.628	-5.41881	-10.0069	2.89789	451.154	0.322208
0.8360	-2.18679	0.425534	-0.76718	-52.1635	14.628	-6.33966	-11.2264	1.6887	387.973	0
0.8367	-0.0390499	-0.812383	0.460308	-75.0506	12.7967	-8.78344	-10.3082	-1.98057	232.937	0
0.8373	1.4839	1.04449	2.27962	-98.8486	12.7967	-6.33966	-6.34129	-1.98057	74.5601	0.322208
0.8380	1.4839	2.5532	0.76718	-110.754	8.53851	-1.77085	-4.82053	-1.06326	-140.289	0.322208
0.8387	0.546699	4.99035	-0.153436	-112.276	-0.617773	0.991678	-5.12181	-1.66785	-300.505	0
0.8393	-0.0390499	8.66541	1.66588	-83.2869	-6.11154	3.43546	-1.76466	-1.66785	-293.796	0
0.8400	-1.28865	10.7931	1.66588	-18.2822	-4.58917	2.83337	3.42172	-0.750533	-247.713	0.322208
0.8407	-2.49919	11.7215	0.76718	47.0221	-0.92666	-1.13335	8.60809	-1.98057	-201.007	0.322208
0.8413	-1.562	12.3018	1.97275	83.9483	3.35363	-1.4521	13.4932	-3.18977	-94.5164	0
0.8420	-1.28865	12.9208	1.97275	103.179	8.53851	0.389588	14.4114	-1.66785	39.1766	0.322208
0.8427	-2.18679	10.1741	0.460308	113.549	13.1056	-2.6917	10.7458	-1.06326	108.755	0.322208
0.8433	-2.49919	0.735013	0.76718	132.468	16.4592	-5.10006	9.21783	-1.66785	89.8175	0
0.8440	-0.976248	-16.3637	3.20024	202.352	18.5994	-3.89588	10.7458	-1.98057	76.9945	0
0.8447	0.859098	-35.2806	4.12085	290.556	18.0037	-4.21463	8.91655	-4.41981	147.195	0
0.8453	0.234299	-42.9015	3.81398	323.514	18.2905	-5.73757	5.55939	-5.33712	245.448	0
0.8460	-0.976248	-41.7023	4.42772	300.315	21.6441	-4.21463	3.73017	-4.41981	306.789	0
0.8467	-0.351449	-29.1684	4.7346	249.961	23.1886	-3.29379	1.5925	-5.0244	344.635	0
0.8473	-0.351449	8.97489	3.81398	177.032	20.4306	-2.37294	0.982757	-3.81521	276.274	0
0.8480	-1.8744	40.387	1.66588	70.5206	15.5546	2.83337	2.81198	-1.06326	5.60475	-0.322208
0.8487	-3.12399	30.6384	0.76718	-86.0324	10.6786	5.87924	1.89378	-0.750533	-206.498	0
0.8493	-2.49919	12.031	2.58649	-190.409	9.13422	4.63964	-0.545179	-1.98057	-90.2421	0
0.8500	-0.0390499	4.06191	4.42772	-132.418	10.6786	2.83337	0.982757	-2.2933	158.801	0
0.8507	1.4839	-2.01161	3.81398	-21.9511	10.0609	-1.4521	0.982757	-2.2933	284.229	0
0.8513	1.1715	-5.99616	2.27962	20.7781	5.4717	-5.10006	-2.98414	-3.81521	276.897	0
0.8520	0.859098	-7.50487	1.38092	3.38189	6.08948	-6.94175	-5.12181	-3.18977	232.342	0.322208
0.8527	-0.351449	-7.81435	-0.153436	-40.8698	21.0484	-10.6251	-5.43027	-2.2933	192.656	-0.322208
0.8533	-0.351449	-6.92459	-0.460308	-86.9434	40.5745	-12.1481	-5.12181	-2.2933	90.1289	-0.644416
0.8540	1.1715	-4.44876	1.66588	-98.2372	50.6574	-6.02091	-1.76466	-1.37598	-106.405	0
0.8547	1.1715	-4.17797	2.27962	-72.6047	43.9281	-2.97504	-2.3744	-1.98057	-314.234	0.322208
0.8553	-0.663848	-4.75824	1.38092	-45.1377	28.9691	-2.37294	-7.25949	-3.81521	-393.267	0
0.8560	-1.562	-0.502904	1.66588	-33.5444	19.8349	5.56048	-5.12181	-2.89789	-339.257	0
0.8567	-3.12399	4.68087	1.66588	-71.3817	11.8921	12.5731	-1.15492	-1.37598	-280.351	0.322208
0.8573	-6.75563	7.4275	0.153436	-120.825	1.21348	11.3689	-2.68285	-1.37598	-226.653	0
0.8580	-9.21578	8.97489	0.153436	-114.111	-5.51583	10.7668	-3.90233	-0.750533	-164.095	0
0.8587	-9.80153	8.66541	0.153436	-99.7721	-6.72931	13.8127	-2.98414	1.06326	-149.12	0.322208
0.8593	-8.90338	8.66541	-0.76718	-76.8726	-6.72931	14.096	-2.98414	1.06326	-151.272	0
0.8600	-6.44323	7.73698	0.153436	-7.3004	-7.9428	10.7668	-2.98414	1.6887	-130.523	0
0.8607	-4.02214	1.93424	3.50711	25.358	-9.46517	6.16257	-2.3744	2.60602	-115.86	0.322208
0.8613	-2.49919	-5.68668	5.63329	-1.19801	-11.2964	1.91252	-3.29259	-0.145937	-114.048	0.322208
0.8620	-1.562	-9.94202	6.55391	-4.24297	-14.0543	0.991678	-3.90233	-2.58517	-113.114	0.322208
0.8627	-0.351449	-9.94202	5.94016	-3.63148	-16.4813	2.83337	-5.12181	-1.66785	-114.331	0.322208
0.8633	-0.0390499	-9.94202	3.20024	-31.7099	-19.857	2.51461	-9.08871	-2.2933	-109.151	0
0.8640	-0.663848	-10.2515	-1.07405	-54.909	-22.284	-0.531256	-11.8361	-3.18977	-74.6734	0
0.8647	-0.663848	-9.36174	-5.65521	-63.1453	-24.4241	-3.57713	-12.4459	-1.37598	-34.9872	0
0.8653	0.546699	-8.74278	-5.96208	-50.3291	-30.2268	-3.57713	-13.6653	-0.750533	-18.824	0
0.8660	1.1715	-8.12383	-1.99467	-15.8487	-29.609	-0.85001	-15.5017	-0.750533	35.4967	0.322208
0.8667	2.69444	-6.92459	1.97275	2.15892	-20.7616	1.27502	-15.803	-0.145937	157.584	0
0.8673	3.31924	-7.19539	2.89336	-21.3396	-15.2678	-0.85001	-17.6322	-1.98057	211.593	0.322208
0.8680	2.69444	-8.4333	1.38092	-53.374	-15.2678	-6.94175	-21.2978	-4.10708	133.155	0.322208
0.8687	2.69444	-8.74278	1.66588	-67.4133	-15.5767	-10.6251	-21.5991	-3.81521	67.8514	0.322208
0.8693	3.00684	-8.4333	1.97275	-68.6362	-14.65	-10.6251	-19.4686	-4.10708	-5.68967	0.322208
0.8700	2.69444	-8.74278	1.07405	-64.9798	-14.0543	-7.86259	-17.0225	-4.73253	-224.501	0.322208
0.8707	1.7963	-9.94202	-1.38092	-66.5023	-15.2678	-4.49797	-12.1446	-2.58517	-421.97	0.322208
0.8713	-0.976248	-10.8705	-5.04147	-64.9798	-15.8856	-4.81672	-8.78743	-1.37598	-395.701	0
0.8720	-4.64694	-10.8705	-7.47452	-48.1951	-14.0543	-2.6917	-7.25949	-0.750533	-232.144	0.322208
0.8727	-6.44323	-9.94202	-7.16765	-31.7099	-12.2231	3.71879	-2.3744	1.06326	-119.823	0.322208
0.8733	-4.02214	-4.17797	-2.30154	-17.9827	-11.0096	7.08342	2.81198	1.06326	-78.0136	0.322208
0.8740	-0.976248	1.62477	1.97275	14.6757	-7.0382	6.16257	3.42172	2.60602	55.3398	0
0.8747	-2.81159	-0.812383	0.153436	56.1819	3.35363	3.43546	3.73017	8.69368	293.995	0
0.8753	-7.38043	-8.12383	-3.20024	87.0058	14.0323	-2.6917	3.42172	17.8669	474.026	0.322208
0.8760	-8.00523	-12.9981	-1.38092	99.2105	18.9083	-11.5106	-1.76466	28.5411	551.247	0.322208
0.8767	-3.39734	-14.855	4.12085	81.5024	28.9691	-18.5586	-7.25949	35.8588	562.23	0.322208
0.8773	3.59259	-12.6886	10.8282	51.9015	41.5011	-22.8086	-8.47897	40.1327	469.157	0.322208
0.8780	10.3092	-9.67122	14.7956	31.7599	39.9567	-24.0482	-6.95103	43.4892	246.382	0
0.8787	13.3551	-10.561	11.1351	13.1532	28.3734	-22.8086	-3.90233	34.6496	0.70767	0
0.8793	10.6216	-11.1799	3.20024	-16.7597	21.3573	-18.2398	-0.846462	10.5283	-208.027	0.644416
0.8800	9.72343	-6.30564	-1.38092	-67.4133	29.8958	-13.3522	1.28404	-12.9675	-478.102	0.322208
0.8807	20.0717	-2.63057	-2.58649	-109.231	54.011	-6.94175	2.20224	-25.4764	-722.248	0
0.8813	24.6795	-2.32109	-3.50711	-84.5099	66.212	-2.05419	4.33991	-28.2284	-659.69	0.322208
0.8820	4.21739	-0.812383	-3.81398	-16.1482	56.7469	-7.2605	5.55939	-22.1199	-354.203	0
0.8827	-25.07	1.04449	-2.30154	37.5627	53.3932	-17.6377	3.42172	-14.8022	-116.171	-0.644416
0.8833	-37.6051	1.04449	-0.76718	66.8642	61.6229	-17.0356	3.73017	-9.92372	-5.68967	-0.644416
0.8840	-21.3993	0.735013	-0.460308	74.1895	57.3646	-8.18135	7.08733	-4.10708	35.4967	0
0.8847	4.84219	-0.193424	-0.460308	57.7043	31.7271	-5.10006	5.86067	0.166785	28.788	0
