MR32 ASCII
Name	TYR30_fast
Frequency	1500
Date	05-09-2015 10:56:00
"Time,s"	"RT TIB.ANT.,uV"	"RT MED. GASTRO,uV"	"RT LAT. GASTRO,uV"	"RT BICEPS FEM.,uV"	"RT VMO,uV"	"RT VLO,uV"	"RT RECTUS FEM.,uV"	"RT SOLEUS,uV"	"RT SEMITEND.,uV"	"Channel 12,uV"
0.0000	-33.1362	-723.389	-432.216	-36.8788	73.7793	-13.6173	-3.26064	94.8417	138.202	-8059.8
0.0007	-5.65357	-980.063	-274.467	-106.46	63.732	-7.22382	-0.512626	160.18	140.963	-10534.3
0.0013	39.8105	-1044.43	94.1925	-179.699	50.6074	-1.12094	1.00844	185.511	144.923	-9588.18
0.0020	78.8751	-1112.17	399.074	-188.55	39.5961	3.48736	1.92445	182.124	119.601	-9782.04
0.0027	94.1476	-1043.84	363.351	-152.232	34.109	5.8953	3.75646	134.506	40.5451	-9882.98
0.0033	108.164	-522.263	274.246	-130.25	23.728	4.69133	3.75646	122.627	-30.2635	-9786.54
0.0040	128.933	-54.1268	356.051	-106.149	10.9371	4.98195	4.97499	165.335	-57.4025	-9815.47
0.0047	110.637	75.8755	359.996	-76.2509	5.41296	7.4314	6.50447	133.917	-51.9166	-9816.44
0.0053	53.8659	397.502	181.159	-52.4407	1.7796	5.60469	4.97499	-54.048	-28.4106	-9817.08
0.0060	17.8637	701.151	14.857	-27.1137	-5.85786	2.57401	2.53792	-262.189	-15.6222	-9787.18
0.0067	14.4873	727.112	-34.8752	-9.4119	-16.2389	2.86462	3.15139	-299.448	-22.9247	-9876.55
0.0073	20.2979	709.086	-38.8567	-5.13187	-23.5797	2.24188	4.05899	-170.047	-18.674	-9803.58
0.0080	22.732	576.047	-97.4367	0.0623304	-24.1729	3.48736	4.67246	14.5797	8.21074	-9567.92
0.0087	-12.6813	403.918	-232.956	7.06412	-25.693	5.31407	5.58846	128.125	21.9437	-10517.9
0.0093	-89.8681	332.5	-357.784	12.8608	-29.66	5.8953	4.36993	83.551	-8.90102	-8349.47
0.0100	-144.794	232.721	-398.963	17.4525	-29.9566	6.22743	3.45392	33.2339	-68.0837	-1750.85
0.0107	-146.05	145.726	-383.111	18.3667	-30.5869	4.98195	3.45392	75.9421	-109.61	108.021
0.0113	-131.995	142.395	-298.245	17.1409	-36.3706	3.77798	3.15139	65.5841	-121.199	-228.259
0.0120	-124.064	103.943	-110.266	16.2267	-42.7846	3.15523	1.62191	-7.36349	-112.044	-33.4352
0.0127	-105.455	15.4298	74.0637	19.2809	-46.7516	2.24188	1.00844	-65.6823	-89.1555	67.1918
0.0133	-86.845	-42.5667	144.551	23.8518	-49.4952	2.24188	3.75646	-76.973	-73.279	-29.5773
0.0140	-90.4963	-48.6407	191.26	23.8518	-49.1986	0.705776	4.36993	-38.4865	-71.7531	-0.642984
0.0147	-97.524	-26.0593	327.37	22.6259	-46.7516	-1.70216	1.92445	4.81081	-69.9366	0
0.0153	-76.1661	-31.5454	397.525	22.3351	-45.2315	-0.207581	0.403378	28.963	-64.7413	-0.964476
0.0160	-48.0553	-14.793	277.011	20.1951	-44.9349	2.86462	-0.512626	-9.52344	-62.3072	-0.642984
0.0167	-26.6974	66.7156	163.464	18.9692	-40.6713	5.8953	0.705911	-72.064	-57.4025	-0.321492
0.0173	0.157043	91.4033	161.657	17.4525	-32.4036	6.80866	2.23539	63.4242	-48.8648	-0.642984
0.0180	12.642	69.1648	132.349	14.71	-22.3562	5.8953	1.31938	355.804	-42.1436	-0.642984
0.0187	-5.65357	77.6879	26.4329	11.9467	-12.9021	4.06859	0.403378	388.154	-37.5659	-0.321492
0.0193	-29.1708	83.1741	-112.109	10.43	-9.52829	0.705776	-0.512626	189.782	-33.6059	-0.321492
0.0200	-37.1015	31.9373	-210.062	12.2583	-7.37793	-1.12094	-0.512626	90.5709	-28.4106	-0.642984
0.0207	-27.6397	-138.379	-199.371	15.0009	-1.29763	-2.03429	2.23539	39.321	-21.3988	-0.642984
0.0213	-13.2702	-275.386	-133.16	14.71	3.59628	-5.39711	2.84045	30.1412	-17.7294	-0.321492
0.0220	-3.21939	-207.054	3.2442	13.1725	7.26671	-5.97833	1.31938	134.506	-14.6776	0
0.0227	11.4249	-134.411	233.066	11.6558	11.5303	-11.5	2.84045	181.534	-10.0999	-0.321492
0.0233	13.2702	-150.282	370.687	8.91325	15.794	-28.5632	3.75646	149.184	-5.52227	-1.28597
0.0240	0.157043	-112.711	317.895	6.77324	22.8382	-33.7527	4.05899	113.496	0.581291	-0.642984
0.0247	-1.68822	-63.9236	175.998	4.32158	31.6621	-24.9097	4.36993	6.67623	7.26614	0.321492
0.0253	5.65357	-93.2157	57.8795	7.06412	42.97	-18.5162	0.403378	-16.5433	12.1708	-0.321492
0.0260	20.5727	-145.677	-1.03225	12.57	58.2078	-10.5866	-2.64717	141.232	16.4215	-0.321492
0.0267	45.6211	-123.096	-64.8103	8.6016	71.6661	-3.86101	-2.34463	225.764	17.0391	0
0.0273	64.859	61.5234	-119.409	2.18157	81.4168	-2.94765	0.705911	103.383	11.5532	-0.321492
0.0280	65.4479	274.847	-103.556	2.49322	89.944	-2.03429	4.97499	-144.717	8.50138	-0.321492
0.0287	56.6142	296.204	-59.3173	6.46159	96.358	2.24188	4.67246	-394.928	14.3143	-0.321492
0.0293	64.859	138.134	6.9308	10.43	103.402	8.34476	3.45392	-562.472	23.4696	0
0.0300	66.3509	-105.119	27.6863	8.91325	107.666	13.5343	4.05899	-528.011	25.9038	-0.321492
0.0307	36.4734	-298.604	-98.6901	3.4074	107.036	17.1877	3.75646	-289.336	21.9437	-0.321492
0.0313	14.8013	-340.681	-254.928	1.89069	106.739	21.1733	1.31938	-57.1407	19.1826	-0.321492
0.0320	17.2355	-243.35	-292.163	1.57904	104.626	21.796	-9.36173	7.90348	17.6567	-0.321492
0.0327	38.9075	-77.0511	-263.149	-2.99186	102.179	20.5505	-19.1268	-34.8538	13.3697	-0.321492
0.0333	66.076	121.332	-282.983	-7.27188	101.549	27.5668	-18.5218	-2.50359	8.50138	-0.321492
0.0340	61.1684	233.015	-289.729	-10.0144	100.659	31.2202	-15.4712	90.2763	4.83198	-0.321492
0.0347	32.7828	49.6204	-210.357	-11.5519	101.252	33.0884	-10.5887	84.7783	5.15896	0.321492
0.0353	12.642	-236.346	-131.022	-13.3803	99.7319	47.4115	-4.47917	7.26531	5.15896	-0.642984
0.0360	-13.5843	-225.324	-84.6442	-16.7253	95.1346	67.879	-2.34463	-40.3519	1.7802	-1.60746
0.0367	-29.4457	-19.0546	42.0272	-16.7253	92.7247	80.666	6.50447	-66.9095	2.68847	-0.321492
0.0373	-14.2124	45.6527	207.113	-12.1544	87.2005	68.1696	19.0176	-67.7932	6.06723	0
0.0380	-5.02539	45.6527	228.79	-11.8428	79.8967	48.9476	27.5641	-65.0441	7.26614	-0.321492
0.0387	-12.3672	79.5493	205.27	-15.8112	76.5229	41.3086	37.3293	-112.956	6.97549	-0.321492
0.0393	-3.8083	54.8126	241.582	-19.177	71.9627	48.3249	43.4303	-101.96	4.83198	-0.321492
0.0400	26.0692	32.819	237.638	-21.317	66.1419	83.1155	40.6823	26.214	2.39783	-0.321492
0.0407	28.5427	55.7433	228.458	-22.8337	60.9514	146.884	36.7158	67.695	1.16258	-0.321492
0.0413	-5.96765	26.4021	222.67	-21.0054	56.3911	203.056	33.0518	-25.0849	3.01545	-0.321492
0.0420	-31.605	-40.9992	129.584	-10.9286	52.7207	173.455	29.3962	-60.7733	8.79203	-0.321492
0.0427	-53.8659	-22.7284	70.3771	5.85906	45.0832	101.133	22.0681	-47.0281	14.6049	-0.321492
0.0433	-85.9028	37.1295	124.423	22.0234	36.556	64.1841	8.94154	-31.8103	19.1826	0
0.0440	-104.827	32.819	99.3906	30.5627	31.0689	6.80866	-1.73957	50.3172	22.2344	0
0.0447	-98.1129	-4.40852	-17.5113	28.7343	27.6951	-69.7887	-6.00865	98.5234	22.525	-0.321492
0.0453	-84.3716	-60.8376	-26.6541	20.5067	27.6951	-117.989	-8.14319	83.2565	21.6168	0
0.0460	-78.2862	-149.057	52.0916	11.6558	24.0246	-150.04	-11.5047	177.264	19.1826	0
0.0467	-71.5726	-181.092	60.6445	6.77324	16.4242	-144.85	-9.05919	336.266	16.7485	-0.321492
0.0473	-61.2077	-169.189	-20.8661	6.14994	11.2337	-102.42	-2.0421	316.434	16.1308	-0.321492
0.0480	-28.8567	-146.902	-60.5339	4.94488	5.41296	-68.8754	-1.73957	118.356	13.3697	-0.321492
0.0487	24.5773	-36.1499	17.2901	3.09575	1.44593	-70.37	0.705911	-33.6266	12.1708	-0.321492
0.0493	51.1177	105.168	93.6026	3.4074	-1.89083	-90.5053	4.05899	-53.4589	12.1708	-0.321492
0.0500	43.7759	153.661	94.1925	2.80487	-7.37793	-97.231	0.705911	-76.973	10.3179	-0.321492
0.0507	37.0623	134.166	109.455	1.89069	-11.0484	-83.8212	-1.42863	-193.512	9.40965	0
0.0513	34.0392	81.3617	138.137	0.97651	-13.1987	-67.6299	-2.34463	-298.221	7.88376	0
0.0520	29.1316	-29.0962	126.229	0.664858	-13.1987	-58.4963	-2.64717	-254.286	6.97549	0
0.0527	25.7944	-92.9218	98.174	0.664858	-12.5684	-53.5974	-1.42863	-67.7932	6.68485	0
0.0533	23.321	-52.9023	48.405	-0.249322	-15.0154	-51.7707	-2.0421	47.5681	3.30609	0
0.0540	30.3487	-5.63311	-17.1795	-2.07768	-16.2389	-47.4945	-1.1261	33.2339	0.871937	0
0.0547	49.5865	3.23292	-93.7869	-3.90604	-16.8691	-39.2743	-1.73957	61.2642	-0.0363307	0
0.0553	69.7273	-14.1563	-189.307	-4.82022	-17.4623	-30.722	-1.73957	88.46	-1.56222	-0.321492
0.0560	73.3786	-46.5344	-251.278	-5.13187	-16.2389	-21.879	4.05899	30.7794	-0.653953	0
0.0567	45.9352	-101.739	-275.978	-7.27188	-16.2389	-18.5162	5.28593	-67.4986	-1.8892	0
0.0573	5.02539	-145.383	-230.191	-7.87441	-14.4222	-16.9801	4.36993	-167.593	-3.08811	-0.321492
0.0580	-16.3325	-106	-65.1052	-7.87441	-13.1987	-15.1534	5.28593	-154.78	-3.08811	-0.321492
0.0587	-15.7436	52.9512	123.206	-9.10024	-14.4222	-17.6029	6.20193	-54.6862	-3.70573	0
0.0593	-4.75057	238.207	272.734	-9.4119	-11.9752	-12.9946	8.63901	-30.2885	-3.08811	0
0.0600	18.4526	249.816	325.231	-9.70277	-10.1215	-1.70216	8.33647	13.0579	-2.47049	0
0.0607	34.0392	92.334	209.546	-10.0144	-7.37793	6.51804	13.5216	170.538	-1.8892	0
0.0613	26.0692	20.0343	4.16585	-9.70277	-4.04118	15.361	22.0681	259.98	-1.56222	0
0.0620	24.5773	81.3617	-165.196	-9.4119	-4.63438	41.018	21.1521	208.092	-3.08811	0
0.0627	36.1593	79.5493	-148.717	-5.44353	-4.96806	43.4675	17.799	97.8853	-0.944598	-0.321492
0.0633	38.5934	-4.40852	11.5022	-2.07768	-8.30481	-23.7058	11.6896	-33.9211	1.7802	0
0.0640	16.3325	-63.9236	59.0961	-2.38933	-13.1987	-86.5613	0.403378	-111.434	1.48956	0.321492
0.0647	-31.605	-106.343	-8.03677	-2.38933	-13.7919	-82.9079	-6.92465	-81.5383	2.10718	0
0.0653	-56.9283	-119.765	-43.4281	-1.78681	-14.7188	-35.2888	-7.84066	-29.6503	1.16258	-0.321492
0.0660	-43.501	-77.0511	-8.6635	0.353206	-15.0154	4.69133	-2.0421	-46.4391	0.871937	-0.321492
0.0667	-43.8151	-29.0962	57.2897	1.89069	-17.7589	15.6931	2.23539	-112.661	2.39783	-0.321492
0.0673	-54.18	27.6267	82.9115	1.89069	-22.3562	22.0866	2.23539	-156.891	3.30609	0
0.0680	-48.3694	67.0095	78.635	0.97651	-22.3562	11.7076	5.58846	-103.187	3.92372	-0.642984
0.0687	-46.2493	36.4928	92.681	-1.1635	-22.3562	-9.67328	7.11794	6.03806	2.39783	-1.28597
0.0693	-46.8382	-23.0223	103.372	-0.560974	-22.9494	-10.8772	4.97499	32.5957	2.10718	-0.321492
0.0700	-43.8151	-87.0928	67.3541	0.353206	-24.1729	-5.68772	3.75646	24.6431	2.39783	0.321492
0.0707	-41.3417	-127.063	18.8385	-1.1635	-27.8434	-7.51443	0.705911	67.695	-0.0363307	0
0.0713	-23.0461	-97.7712	-6.8202	0.0623304	-29.66	-9.05053	-1.1261	130.236	-0.363307	-0.321492
0.0720	3.49422	-49.2775	-36.7185	0.97651	-31.5138	-10.8772	-2.0421	186.394	0.254315	0
0.0727	13.5843	-25.7654	-51.0593	1.89069	-31.8104	-11.5	-2.34463	178.491	1.16258	0
0.0733	27.2863	-5.92701	-33.9904	3.4074	-30.8835	-9.05053	-1.1261	84.4837	3.92372	-0.321492
0.0740	47.7412	2.93901	-11.0966	3.09575	-32.7373	-7.80505	-3.26064	26.214	4.54134	-0.642984
0.0747	49.2724	20.916	15.1519	4.32158	-32.7373	-6.60108	-2.9581	58.5643	6.97549	-0.321492
0.0753	43.187	38.3051	21.8615	5.23576	-33.0339	-7.51443	-2.64717	44.1809	9.40965	0
0.0760	41.6558	5.04531	-7.41005	4.63323	-33.9237	-9.34115	-5.70612	-65.9768	9.40965	0
0.0767	41.9699	-22.7284	-22.3776	6.14994	-33.6271	-9.34115	-4.17664	-197.489	9.73663	-0.321492
0.0773	48.6835	13.6174	2.35942	6.14994	-35.7774	-12.0812	-5.39518	-284.771	8.79203	0
0.0780	61.1684	56.3311	23.9997	5.54741	-36.3706	-12.0812	-6.62212	-296.356	8.79203	0
0.0787	56.889	58.1435	1.10598	6.77324	-35.1471	-11.1679	-4.47917	-297.927	10.0273	0
0.0793	28.8175	51.7756	-45.5663	7.06412	-35.7774	-12.9946	-6.31118	-278.683	10.0273	0
0.0800	6.87065	46.5834	-67.8333	7.37577	-34.8505	-12.704	-6.62212	-176.135	11.2625	0
0.0807	-1.68822	34.3375	-54.4141	7.37577	-35.7774	-12.0812	-5.39518	-93.7617	11.5532	0
0.0813	-17.2355	33.1619	-7.11513	7.06412	-36.3706	-12.0812	-6.00865	-71.7694	10.0273	-0.321492
0.0820	-35.2563	36.4928	49.9533	6.77324	-35.1471	-10.2545	-4.79011	-35.7375	9.11901	0
0.0827	-36.4734	33.1619	45.9718	5.85906	-35.4808	-10.2545	-3.56317	-2.50359	7.26614	0
0.0833	-22.4572	7.20058	-34.2853	5.54741	-35.1471	-9.34115	0.403378	36.8665	6.68485	0
0.0840	-6.28174	-28.8023	-142.929	5.23576	-34.8505	-7.80505	4.67246	111.63	6.35787	0
0.0847	0.745957	-14.1563	-229.601	4.0307	-35.4808	-6.60108	7.11794	101.272	4.54134	0
0.0853	-6.28174	15.4298	-246.67	3.4074	-34.5539	-3.57039	10.471	4.51627	2.10718	0
0.0860	-4.75057	-4.11462	-174.044	2.80487	-33.3305	-0.788808	12.9165	-14.3833	-0.363307	0
0.0867	9.30483	-30.6637	-111.778	2.18157	-33.0339	1.32852	14.7401	50.9062	-1.8892	0
0.0873	15.3903	-28.2145	-125.234	0.664858	-34.8505	3.15523	14.4376	101.862	-4.94098	0
0.0880	24.2632	-15.0869	-93.1971	-1.47515	-36.074	4.06859	12.9165	81.1456	-7.99275	0
0.0887	41.9699	-8.37619	-2.24882	-2.38933	-33.6271	7.4314	15.3536	37.7992	-8.2834	0
0.0893	52.3347	3.82072	30.7093	-3.90604	-31.8104	11.0848	15.6561	46.93	-10.0999	-0.321492
0.0900	51.7066	35.2682	14.2303	-6.96023	-32.107	12.6209	11.0845	36.572	-12.8611	-0.321492
0.0907	48.6835	69.4587	40.4788	-8.78859	-32.107	12.9115	7.11794	-44.9173	-14.387	-0.321492
0.0913	38.5934	79.8432	73.142	-9.4119	-31.8104	12.9115	3.15139	-108.391	-14.0963	0
0.0920	13.2702	65.491	27.0596	-9.10024	-31.8104	12.6209	-1.73957	-89.7854	-13.4787	0
0.0927	-14.8013	49.3265	-14.1565	-8.49772	-30.2903	12.9115	-5.70612	-28.1285	-11.6258	0
0.0933	-36.4734	35.2682	13.6404	-7.27188	-29.0668	12.3303	-9.05919	-1.27634	-9.51864	0
0.0940	-57.5172	9.94366	36.5341	-6.96023	-30.5869	10.5036	-13.3283	-32.1048	-9.19167	0
0.0947	-62.1107	-16.0176	37.124	-6.04605	-31.5138	10.7942	-14.8577	-65.0441	-8.2834	0
0.0953	-47.4664	-29.4391	49.0317	-4.21769	-31.1801	9.25811	-14.2443	-43.69	-7.04816	-0.964476
0.0960	-21.2009	-31.8393	61.5292	-3.30351	-30.5869	8.05414	-12.7232	47.8627	-6.46686	-1.28597
0.0967	15.3903	-26.696	71.2987	-3.90604	-29.3634	9.59024	-10.2777	114.674	-5.84924	-0.321492
0.0973	35.8452	-24.2469	69.7872	-5.44353	-28.7702	9.88086	-10.5887	83.8947	-5.52227	0
0.0980	35.2563	-23.953	53.6031	-6.04605	-29.66	9.59024	-11.1937	52.428	-4.94098	-0.321492
0.0987	27.0115	-23.0223	31.0411	-5.75518	-30.8835	8.34476	-11.1937	53.0662	-4.94098	-0.321492
0.0993	14.8013	-24.8347	4.16585	-5.44353	-30.2903	6.51804	-13.6392	45.1136	-4.94098	-0.321492
0.1000	12.642	-21.7977	-8.6635	-4.82022	-29.66	4.69133	-15.7738	46.93	-3.99638	-0.321492
0.1007	21.2009	-19.6424	-0.700453	-3.30351	-30.5869	0.705776	-19.1268	56.6988	-3.08811	-0.321492
0.1013	30.0346	-26.0593	9.65887	-1.1635	-30.2903	-3.57039	-22.7908	55.8152	-0.944598	-0.321492
0.1020	31.5657	-25.1286	2.35942	0.0623304	-29.3634	-6.31046	-24.3203	43.8864	1.16258	-0.321492
0.1027	24.2632	-12.05	-16.5897	1.57904	-28.7702	-7.80505	-23.1018	17.9669	2.68847	0
0.1033	18.1385	-1.95934	-22.0827	3.09575	-27.5468	-9.05053	-21.8748	-5.8417	3.92372	0
0.1040	12.3672	-3.47783	-22.6726	3.09575	-27.5468	-9.96389	-22.7908	-7.65803	4.21436	0
0.1047	1.68822	-7.4455	-20.2394	2.49322	-26.9165	-8.7184	-20.9588	-4.61445	4.21436	-0.321492
0.1053	-2.59122	0.195934	5.71422	1.57904	-25.693	-5.97833	-15.4712	1.17816	3.30609	0
0.1060	3.49422	15.1359	51.1699	1.57904	-23.8763	-3.57039	-10.8912	21.5996	3.30609	-0.321492
0.1067	12.3672	23.0713	85.9714	2.18157	-21.726	-2.32491	-9.9752	39.321	3.92372	-0.321492
0.1073	14.1732	18.4668	71.9254	2.49322	-21.726	-2.32491	-9.36173	41.4319	3.63307	-0.321492
0.1080	8.67665	7.49449	32.2577	4.0307	-22.0226	-2.61552	-4.79011	34.1175	3.92372	0
0.1087	0.745957	-4.11462	12.7187	5.85906	-21.1328	-2.94765	-0.210093	17.3287	4.54134	0
0.1093	-4.43648	-8.67009	5.71422	7.37577	-19.6127	-2.94765	2.84045	-0.0490899	4.83198	-0.321492
0.1100	-10.2471	-4.70242	-2.83868	8.28995	-18.6858	-2.32491	5.28593	-8.00166	3.63307	-0.642984
0.1107	-16.6466	-1.66544	-4.05525	7.37577	-18.6858	-0.498195	8.63901	-10.1125	0.581291	-0.321492
0.1113	-9.61891	-1.32256	6.30407	6.14994	-17.7589	1.95126	14.7401	-6.47987	-2.17984	-0.321492
0.1120	8.08774	-4.99632	14.857	4.94488	-14.4222	6.22743	22.0681	-4.31991	-3.70573	-0.642984
0.1127	19.6697	-9.25789	14.2303	2.80487	-10.7518	13.2437	30.0012	-7.65803	-5.52227	-0.321492
0.1133	19.6697	-5.92701	10.2856	-2.07768	-9.82489	19.9278	31.8332	-7.65803	-11.9528	-0.321492
0.1140	15.3903	3.52682	10.5805	-10.6377	-11.0484	25.1173	28.4802	1.76724	-23.5423	0
0.1147	15.7043	9.94366	9.06902	-18.2628	-11.345	29.7256	25.7321	12.7634	-33.6059	0
0.1153	15.3903	5.68209	-1.91703	-20.6937	-10.1215	31.5523	23.9001	12.7634	-37.5659	0
0.1160	9.61891	-1.32256	-11.3916	-19.177	-8.60141	29.7256	22.3707	8.78709	-35.7494	0
0.1167	7.45957	-4.99632	-14.1565	-17.037	-9.23168	24.204	17.4881	13.9906	-31.7894	0
0.1173	7.77365	-5.63311	-16.5897	-14.897	-11.345	18.4332	8.33647	18.556	-28.12	0
0.1180	3.49422	-3.47783	-18.3961	-13.0686	-12.2718	15.0704	0.705911	10.6525	-25.9764	-0.321492
0.1187	4.43648	1.07764	-15.0413	-11.2403	-12.2718	13.8249	-1.1261	2.40541	-22.9247	-0.321492
0.1193	13.5843	7.49449	-4.38705	-7.58354	-10.4552	12.9115	3.45392	2.06178	-18.0564	0
0.1200	18.1385	5.04531	6.9308	-6.04605	-9.23168	10.7942	6.20193	5.15444	-15.0046	0
0.1207	19.3556	-4.70242	9.06902	-6.66936	-8.30481	9.88086	2.23539	9.08163	-14.6776	-0.321492
0.1213	27.0115	-7.7394	3.87092	-7.58354	-8.93508	10.1715	-5.70612	7.55985	-15.6222	-0.321492
0.1220	39.4964	-3.47783	-1.91703	-7.27188	-8.00821	11.0848	-14.5552	8.78709	-15.2952	-0.321492
0.1227	26.6974	-1.02865	-8.6635	-6.96023	-6.78473	12.9115	-20.0428	15.5124	-14.6776	-0.321492
0.1233	-31.8798	-0.734753	-14.7464	-7.87441	-9.23168	13.8249	-16.9923	14.9233	-17.1481	0
0.1240	-85.9028	2.64511	-16.5897	-8.78859	-9.82489	13.8249	-7.84066	16.1015	-17.7294	0
0.1247	-98.427	4.1636	-18.1012	-8.18606	-10.4552	11.0848	-5.70612	18.2614	-16.5305	0
0.1253	-96.5817	1.42052	-21.456	-7.27188	-11.0484	9.59024	-5.39518	14.9233	-15.0046	-0.321492
0.1260	-86.2169	-3.18393	-26.0273	-7.27188	-8.00821	13.5343	4.05899	18.8505	-13.7693	0
0.1267	-53.277	-5.29023	-27.8706	-11.8428	-8.30481	16.8971	9.85755	21.5996	-18.0564	0
0.1273	1.68822	1.07764	-14.7464	-15.8112	-8.60141	19.3466	19.6311	18.556	-22.634	0
0.1280	92.3023	7.20058	1.7327	-16.1228	-4.96806	19.6372	33.0518	17.9669	-21.3988	0
0.1287	207.651	2.64511	0.221196	-15.5203	-4.33778	14.4476	30.0012	18.2614	-19.2553	0
0.1293	280.283	-4.99632	-8.6635	-14.2944	-2.8177	11.9982	30.3122	21.9432	-17.7294	0
0.1300	274.512	-8.37619	-15.668	-19.177	-1.29763	15.0704	44.3463	23.7595	-22.307	-0.321492
0.1307	216.838	-7.4455	-21.7509	-24.0596	-1.89083	18.1011	63.574	23.1213	-28.7376	-0.321492
0.1313	129.836	-8.96399	-26.3591	-18.5537	-0.963951	13.5343	67.238	29.5521	-22.9247	0
0.1320	11.4249	-15.6747	-31.5204	-10.9286	-0.0741501	3.48736	41.5983	33.2339	-13.4787	0.321492
0.1327	-129.875	-20.2792	-37.0134	-7.58354	0.22245	-3.23826	16.5721	31.3685	-9.19167	0
0.1333	-252.251	-22.3855	-38.23	-4.52935	0.556126	-7.80505	0.705911	30.1412	-5.52227	-1.28597
0.1340	-318.445	-16.3115	-29.0872	-0.560974	1.44593	-9.05053	-13.3283	34.1175	-0.653953	-0.642984
0.1347	-340.745	0.195934	-14.1565	1.89069	1.7796	-9.34115	-19.1268	40.8428	2.10718	-0.321492
0.1353	-323.627	20.3282	2.65435	3.4074	1.14933	-11.5	-17.6058	46.93	4.21436	-0.964476
0.1360	-237.882	36.4928	16.7003	6.46159	3.00308	-11.7906	-18.5218	59.1533	6.35787	-0.321492
0.1367	-132.309	42.9096	24.3315	7.06412	5.11636	-12.0812	-20.6563	71.3767	7.59312	0
0.1373	-29.1708	46.8773	35.3176	7.9783	7.26671	-15.7762	-21.2698	78.3966	8.50138	0
0.1380	189.669	53.8819	45.9718	11.3441	8.78678	-20.0108	-35.9174	86.3001	8.79203	0
0.1387	483.851	62.7479	53.6031	11.9467	8.78678	-20.3429	-58.8007	90.8654	9.11901	0
0.1393	605.599	65.1971	55.7413	10.7416	9.08338	-18.5162	-67.6498	89.9818	9.11901	0
0.1400	545.176	49.6204	42.9119	9.82743	8.78678	-16.6895	-60.9437	89.0491	7.26614	0
0.1407	417.932	27.9696	22.7831	8.28995	7.26671	-13.3267	-46.9011	83.2565	4.21436	0
0.1413	178.676	16.6544	9.9538	6.77324	5.41296	-8.13718	-35.6065	68.9222	0.871937	-0.321492
0.1420	-127.716	8.71908	3.2442	6.46159	5.11636	-3.86101	-24.0094	54.588	0.254315	0
0.1427	-356.292	-4.11462	-9.88007	5.23576	4.18948	-6.60108	-11.5047	43.8864	-1.8892	0
0.1433	-449.066	-15.3808	-22.6726	2.49322	4.81976	-9.34115	-0.512626	36.572	-5.52227	0
0.1440	-417.932	-22.0916	-33.3637	-0.851849	5.74663	-6.89169	6.20193	29.5521	-9.19167	-0.321492
0.1447	-294.339	-30.3208	-49.8427	-5.13187	3.00308	-5.68772	7.723	18.8505	-15.6222	-0.321492
0.1453	-159.752	-37.6684	-64.1836	-6.04605	3.29968	-5.39711	15.6561	16.4451	-18.0564	0
0.1460	-103.021	-42.2238	-69.9715	-4.52935	3.59628	-4.77436	28.4802	19.1942	-15.9128	0
0.1467	-91.3993	-40.7053	-66.0269	-3.90604	1.44593	-4.77436	48.0104	21.5996	-14.387	0
0.1473	-71.2585	-33.4068	-55.3358	-2.07768	3.89288	-2.03429	73.9442	36.2774	-12.5704	0
0.1480	-101.764	-22.7284	-43.1331	-0.249322	8.78678	1.32852	89.2053	59.7424	-11.0445	0
0.1487	-222.923	-9.25789	-29.3822	-2.70099	9.08338	2.24188	85.5413	77.7584	-12.2434	0
0.1493	-223.551	10.2376	-7.11513	-4.21769	9.08338	4.40072	66.9271	95.4799	-13.4787	0
0.1500	160.97	38.3051	23.7048	-1.1635	13.347	8.34476	47.0944	118.65	-9.80929	-0.321492
0.1507	619.968	67.0095	53.0132	0.353206	13.9773	7.14079	22.9841	136.077	-7.04816	0
0.1513	651.691	90.5216	74.0637	0.0623304	11.8269	4.06859	-7.84066	144.913	-7.66578	0
0.1520	426.766	108.205	84.7548	0.97651	12.7538	3.77798	-25.2363	155.271	-7.99275	0
0.1527	368.817	114.622	86.5612	1.57904	14.2739	4.69133	-24.9254	163.224	-7.66578	0
0.1533	426.766	105.168	81.9898	1.89069	13.9773	3.48736	-15.4712	157.431	-6.75751	0
0.1540	316.011	86.554	73.7687	2.18157	12.4572	-0.207581	-8.44572	137.894	-5.52227	0
0.1547	42.5588	67.0095	66.1375	2.18157	9.71366	-2.32491	-10.2777	110.403	-3.99638	0.321492
0.1553	-156.729	45.3588	49.6584	1.57904	6.33983	-6.31046	-7.22719	76.2366	-3.70573	0
0.1560	-103.295	21.5528	23.9997	2.18157	4.18948	-12.0812	-2.9581	31.3685	-3.70573	-1.28597
0.1567	102.392	5.04531	1.10598	5.23576	5.74663	-12.4133	1.62191	-13.7943	-0.653953	-0.964476
0.1573	267.484	-3.47783	-14.4514	6.77324	6.33983	-11.1679	4.67246	-43.69	1.7802	0
0.1580	235.133	-8.67009	-20.2394	4.63323	2.6694	-13.3267	-8.14319	-65.0441	0.254315	0
0.1587	-67.6072	-11.4132	-16.5897	4.32158	1.14933	-16.0668	-29.2029	-83.9928	-0.653953	0
0.1593	-334.346	-15.3808	-13.2349	5.23576	0.852726	-20.3429	-45.6825	-101.665	1.16258	0
0.1600	-338.586	-21.1609	-10.4699	5.23576	-3.1143	-26.1137	-52.0862	-124.247	2.39783	0
0.1607	-257.748	-29.4391	-8.95842	7.06412	-2.8177	-27.3592	-44.7665	-145.306	5.4496	0
0.1613	-210.124	-41.9299	-14.1565	8.91325	-0.667351	-26.4458	-36.8334	-162.389	8.79203	-0.321492
0.1620	-139.337	-50.5021	-19.3177	7.68742	-3.4109	-28.5632	-33.7829	-171.275	8.21074	0
0.1627	-61.7966	-48.3468	-19.9445	5.85906	-5.26466	-30.0993	-22.1858	-163.617	6.68485	-0.321492
0.1633	-0.785217	-43.7423	-22.6726	4.94488	-4.96806	-30.3899	-13.6392	-151.737	5.74025	-0.321492
0.1640	-25.1662	-42.5667	-27.5757	5.23576	-4.96806	-29.1859	-8.44572	-148.055	4.83198	-0.321492
0.1647	-151.233	-39.7747	-30.6356	5.85906	-4.04118	-27.0686	0.403378	-146.828	5.15896	-0.321492
0.1653	-127.716	-33.9946	-29.0872	5.23576	-2.5211	-26.1137	-3.56317	-140.152	4.83198	0
0.1660	41.0276	-29.4391	-23.8891	4.0307	-1.59423	-24.6191	-11.8072	-129.745	3.30609	0
0.1667	169.214	-25.4715	-18.1012	1.89069	-0.37075	-23.3736	-3.56317	-116.932	1.7802	-0.321492
0.1673	232.699	-19.3485	-12.9031	-0.249322	1.44593	-21.2563	18.715	-101.665	0.871937	-0.321492
0.1680	119.785	-15.6747	-13.5298	-0.851849	4.18948	-17.8935	33.3627	-88.5582	0.254315	-0.321492
0.1687	-124.653	-16.8993	-21.7509	-2.70099	5.11636	-17.2707	29.3962	-78.7893	-2.17984	0
0.1693	-314.794	-20.867	-29.7139	-4.52935	5.74663	-19.0975	20.2361	-69.6095	-4.32335	0
0.1700	-378.867	-25.4715	-30.0089	-2.70099	8.15651	-18.5162	5.58846	-58.6624	-1.56222	-0.321492
0.1707	-320.29	-22.7284	-21.161	1.26739	11.8269	-16.3574	-19.1268	-49.4826	3.92372	-0.321492
0.1713	-236.076	-10.1886	-8.03677	3.09575	13.6807	-17.6029	-42.9345	-42.4628	7.26614	-0.321492
0.1720	-109.106	0.195934	-0.700453	3.4074	13.6807	-21.2563	-60.0277	-32.1048	8.21074	0
0.1727	54.4548	6.61278	3.2442	5.54741	13.9773	-22.4603	-63.0782	-19.2923	10.0273	0
0.1733	154.884	13.6174	9.9538	7.37577	13.0504	-22.1697	-52.0862	-3.3872	11.5532	0
0.1740	287.939	25.2265	25.5481	7.68742	10.0103	-21.2563	-41.1025	23.465	12.7884	0
0.1747	441.724	44.4281	48.11	11.3441	13.6807	-15.444	-35.0014	54.2444	17.6567	0
0.1753	427.08	58.7803	61.2343	12.2583	20.9845	-10.5866	-33.7829	71.3767	18.892	0
0.1760	127.716	59.0742	57.5846	7.68742	26.175	-9.05053	-44.1531	76.8748	13.3697	0
0.1767	-283.974	51.7756	47.5202	3.09575	30.142	-4.48375	-55.1451	73.7821	7.59312	0
0.1773	-326.69	41.3911	35.9074	-1.1635	27.6951	0.124549	-60.0277	53.0662	2.39783	-0.321492
0.1780	12.3672	30.3698	27.0596	-3.61517	24.0246	2.86462	-66.4313	24.3486	-0.363307	0
0.1787	203.096	19.6914	20.6449	-4.52935	24.9515	5.31407	-65.2127	4.22173	-0.363307	0
0.1793	126.184	5.38819	9.65887	-6.04605	26.8053	5.31407	-53.9182	-21.6977	-2.47049	0
0.1800	33.0969	-10.4825	-3.76033	-7.87441	26.4716	1.32852	-39.573	-61.4115	-4.94098	0
0.1807	-8.40183	-22.7284	-14.7464	-8.18606	24.9515	-4.48375	-32.2534	-93.7617	-6.13989	-0.321492
0.1813	-33.7251	-29.4391	-19.9445	-7.27188	24.3583	-6.31046	-38.6654	-108.096	-5.84924	0
0.1820	-33.7251	-32.1822	-22.3776	-6.04605	24.0246	-6.60108	-45.0691	-115.41	-4.614	0
0.1827	1.96304	-34.2885	-26.3591	-3.61517	20.9845	-9.96389	-47.2036	-125.474	-2.47049	0
0.1833	32.508	-33.9946	-28.4974	-1.47515	17.9443	-14.2401	-44.464	-130.972	-0.0363307	-0.321492
0.1840	31.5657	-30.6637	-24.2209	0.664858	19.1678	-15.1534	-31.9509	-128.861	3.92372	0
0.1847	22.732	-29.4391	-20.5343	1.57904	20.3913	-14.2401	-20.0428	-127.634	5.4496	0
0.1853	17.2355	-29.4391	-19.3177	-0.851849	18.8712	-15.7762	-15.7738	-127.928	2.39783	-0.964476
0.1860	16.6073	-27.8716	-15.9629	-2.99186	17.0174	-17.8935	-9.67266	-127.634	-0.363307	-0.964476
0.1867	12.0531	-24.2469	-11.6865	-3.90604	17.314	-16.9801	-2.34463	-120.908	-0.653953	0
0.1873	-1.37413	-19.3485	-9.25335	-4.52935	17.9443	-16.0668	-2.34463	-105.936	-0.944598	0
0.1880	-6.55657	-17.1932	-11.6865	-7.27188	16.4242	-17.8935	-12.4207	-92.2399	-3.70573	-0.321492
0.1887	8.08774	-16.0176	-11.6865	-8.78859	17.0174	-16.0668	-19.4378	-79.0838	-3.99638	0
0.1893	33.0969	-15.3808	-7.74185	-5.44353	18.5375	-13.6173	-16.6898	-65.9768	0.871937	0
0.1900	49.9006	-17.83	-7.41005	-2.99186	17.0174	-17.6029	-16.6898	-59.8897	3.63307	0
0.1907	51.7066	-17.1932	-6.52527	-1.47515	16.4242	-19.4296	-18.8243	-54.3916	5.4496	0
0.1913	44.404	-14.1563	-4.68197	-0.851849	15.4974	-16.9801	-21.8748	-46.7336	7.59312	0
0.1920	40.4387	-14.1563	-6.8202	-2.99186	13.0504	-15.444	-26.1523	-38.4865	6.68485	0
0.1927	53.5518	-14.4502	-8.6635	-5.44353	13.9773	-10.2545	-26.4549	-28.7176	4.54134	0
0.1933	71.5726	-13.8623	-8.3317	-5.44353	15.794	-4.48375	-22.7908	-20.8141	5.15896	0
0.1940	80.0922	-13.5684	-8.95842	-4.21769	15.4974	-4.48375	-18.5218	-15.3161	6.68485	0
0.1947	84.0575	-14.4502	-11.0966	-4.52935	12.1235	-8.42779	-17.6058	-11.6343	6.68485	0
0.1953	82.5264	-14.4502	-11.6865	-5.75518	8.49018	-10.2545	-19.4378	-7.06895	5.15896	0
0.1960	67.2931	-10.4825	-8.6635	-5.13187	8.49018	-10.5866	-19.1268	1.17816	4.83198	-0.321492
0.1967	47.7412	-5.29023	-3.17047	-4.82022	9.08338	-11.1679	-16.3872	10.6525	5.15896	-0.321492
0.1973	23.635	-0.146951	3.576	-6.04605	5.41296	-12.704	-16.0763	19.1942	6.06723	-0.321492
0.1980	-18.7667	6.61278	11.2072	-6.04605	2.6694	-13.6173	-14.8577	27.3922	6.35787	-0.321492
0.1987	-58.1454	14.2052	18.5067	-4.52935	3.29968	-14.5307	-12.1097	35.0502	7.26614	-0.321492
0.1993	-73.6927	18.8097	22.4882	-3.90604	2.6694	-15.444	-9.67266	39.9101	8.50138	-0.321492
0.2000	-78.6003	19.6914	23.4099	-2.70099	-0.0741501	-16.3574	-7.22719	43.5918	8.50138	0
0.2007	-86.2169	17.5851	21.5666	-0.560974	-2.5211	-17.6029	-7.22719	45.7027	8.21074	0
0.2013	-110.951	13.6174	17.9168	1.57904	-1.89083	-16.6895	-4.17664	43.5918	9.40965	0
0.2020	-146.325	9.35586	13.6404	1.89069	-2.8177	-14.8213	1.62191	37.7992	10.3179	0
0.2027	-163.443	6.2699	9.9538	1.57904	-7.08133	-14.5307	5.58846	32.3012	9.73663	0
0.2033	-162.226	5.04531	8.73723	4.0307	-8.60141	-14.5307	9.55501	32.5957	11.8438	0
0.2040	-162.226	3.23292	6.30407	4.94488	-10.4552	-14.8213	11.387	34.1175	12.4614	0
0.2047	-159.164	0.489836	3.576	2.49322	-15.312	-14.8213	14.135	30.4848	10.3179	0
0.2053	-148.485	0.195934	4.16585	0.353206	-16.2389	-10.5866	22.3707	28.6194	9.40965	0
0.2060	-137.177	1.07764	4.79257	-0.560974	-14.7188	-6.89169	27.8667	30.7794	7.88376	-0.321492
0.2067	-132.898	-0.146951	1.43777	-2.38933	-16.5355	-7.80505	26.9507	29.8467	0.871937	0
0.2073	-138.08	0.489836	1.7327	-2.38933	-16.2389	-6.31046	29.0852	28.963	-3.99638	0
0.2080	-145.108	3.23292	5.71422	-0.851849	-14.7188	-2.61552	34.5812	28.6194	-3.41509	-0.321492
0.2087	-147.268	2.64511	5.38243	-4.21769	-21.4294	-2.32491	34.2787	21.9432	-6.46686	-0.321492
0.2093	-141.457	2.00833	5.71422	-6.96023	-27.8434	-0.498195	34.8838	15.807	-8.2834	-0.321492
0.2100	-125.281	3.23292	8.73723	-4.52935	-30.8835	1.32852	37.3293	12.4688	-3.41509	-0.321492
0.2107	-101.489	3.52682	9.36395	-1.1635	-36.074	-1.41155	33.3627	11.2416	2.68847	-0.321492
0.2113	-83.7827	4.75141	10.2856	1.26739	-39.7444	-3.23826	29.0852	13.3525	6.68485	-0.321492
0.2120	-74.9097	6.90668	12.7187	2.18157	-41.8577	-1.70216	28.7827	17.6233	10.3179	0
0.2127	-62.1107	8.13127	15.4468	1.57904	-43.4149	0.124549	27.8667	21.5996	12.1708	0
0.2133	-44.09	5.976	14.2303	-1.78681	-45.2315	0.705776	25.1187	17.3287	11.2625	0
0.2140	-24.5773	2.64511	11.5022	-4.82022	-46.455	-0.788808	21.4547	9.42526	11.5532	0
0.2147	-5.02539	2.00833	10.2856	-4.82022	-46.455	-3.23826	16.5721	7.55985	15.5132	0.321492
0.2153	22.418	1.42052	8.4423	-3.90604	-50.4221	-7.51443	8.94154	6.3326	20.0909	-0.642984
0.2160	51.4317	0.195934	7.52065	-2.38933	-54.6857	-11.5	2.84045	3.63265	24.0509	-1.28597
0.2167	63.0137	-0.440852	9.36395	-0.851849	-54.3891	-9.96389	4.05899	3.92719	28.0473	-0.321492
0.2173	63.6026	-0.440852	9.65887	-0.851849	-54.3891	-6.89169	7.11794	6.3326	28.9556	0.321492
0.2180	67.2931	-1.32256	7.22572	-1.78681	-57.7629	-7.22382	6.807	8.19802	29.2462	0
0.2187	70.9444	-1.95934	5.71422	-2.07768	-59.283	-6.60108	5.58846	12.1743	29.5732	-0.321492
0.2193	66.979	-2.54715	4.46078	-1.47515	-60.5065	-6.60108	2.84045	15.807	28.6286	-0.321492
0.2200	57.2031	-4.11462	2.94927	-1.1635	-62.0265	-7.51443	1.62191	17.0342	28.6286	-0.321492
0.2207	45.9352	-4.11462	3.87092	-0.249322	-61.3963	-6.89169	5.28593	19.1942	29.2462	0
0.2213	39.2216	-3.18393	4.79257	1.26739	-60.5065	-5.97833	8.94154	22.2377	29.2462	0
0.2220	20.8868	-1.02865	5.71422	3.09575	-60.1728	-5.39711	10.7735	24.9868	27.7203	0
0.2227	-8.99074	2.00833	8.14737	3.4074	-59.8762	-3.86101	12.303	28.963	24.9955	-0.321492
0.2233	-10.5219	4.4575	10.5805	0.664858	-58.3561	-1.12094	12.9165	32.0066	19.4733	-0.321492
0.2240	-0.157043	8.71908	15.7786	-0.560974	-54.0925	3.77798	17.4881	34.7557	11.2625	-0.321492
0.2247	-18.1778	12.3928	19.4283	-3.30351	-52.869	8.05414	25.1187	36.572	0.581291	0
0.2253	-50.5287	10.8744	16.9952	-7.27188	-55.316	9.25811	26.9507	32.3012	-9.19167	0
0.2260	-78.9144	8.13127	13.6404	-6.35771	-51.9421	11.7076	27.2532	27.3922	-10.7176	-0.642984
0.2267	-99.9582	3.52682	8.4423	-4.52935	-49.1986	12.6209	28.1692	22.2377	-7.66578	-0.321492
0.2273	-112.168	-4.11462	-0.110598	-4.52935	-50.4221	10.7942	23.9001	13.3525	-4.94098	0
0.2280	-113.071	-8.08229	-3.76033	-3.90604	-46.455	12.9115	22.6816	9.08163	-2.17984	-0.642984
0.2287	-114.288	-7.4455	-2.83868	-4.21769	-39.7444	14.157	23.5976	6.97077	-1.27157	-0.642984
0.2293	-146.05	-7.7394	-3.76033	-7.27188	-37.5941	11.417	16.883	2.99448	-4.32335	-0.321492
0.2300	-222.334	-7.4455	-3.17047	-8.49772	-35.4808	10.1715	12.6056	4.81081	-7.04816	0
0.2307	-300.149	-5.63311	-1.6221	-6.66936	-33.6271	7.4314	10.1685	10.0143	-7.04816	0.321492
0.2313	-316.011	-6.8577	-1.91703	-4.52935	-36.074	2.24188	3.15139	9.42526	-7.04816	0
0.2320	-268.112	-7.4455	0.221196	-2.07768	-38.2244	0.124549	-1.1261	7.90348	-7.99275	0
0.2327	-201.565	-8.37619	1.7327	0.0623304	-41.2645	-2.32491	-6.31118	5.15444	-8.90102	0
0.2333	-129.875	-10.4825	0.221196	2.18157	-45.2315	-6.89169	-13.6392	3.28902	-7.99275	0
0.2340	-25.7944	-9.89468	0.221196	5.85906	-47.6785	-9.05053	-16.6898	6.67623	-5.23162	0
0.2347	148.445	-6.22091	3.576	9.51578	-47.6785	-9.67328	-15.7738	12.4688	-1.8892	0
0.2353	312.948	-1.02865	8.73723	12.2583	-46.1584	-9.67328	-14.2443	19.7832	0.254315	-0.321492
0.2360	321.507	2.64511	12.4238	12.57	-45.2315	-9.05053	-11.5047	24.3486	0.254315	-0.321492
0.2367	222.923	2.00833	12.092	11.0325	-45.5281	-7.80505	-8.14319	22.2377	-0.653953	0
0.2373	111.226	-0.440852	10.2856	10.43	-46.1584	-8.13718	-8.14319	17.3287	0.871937	0
0.2380	5.33948	-1.02865	9.9538	11.6558	-48.6054	-8.42779	-9.36173	13.6961	3.30609	0
0.2387	-32.508	-0.734753	10.2856	13.1725	-52.2387	-7.22382	-5.39518	12.4688	5.15896	-0.321492
0.2393	-6.28174	-0.734753	9.9538	13.7958	-55.6126	-4.15162	3.15139	13.6961	6.97549	0
0.2400	27.9145	-0.146951	10.5805	12.57	-60.8031	-0.498195	10.1685	13.9906	5.74025	-0.321492
0.2407	67.2931	2.30223	13.6404	9.51578	-65.3633	2.57401	17.799	13.6961	1.16258	-0.321492
0.2413	125.87	2.93901	15.1519	6.46159	-65.0667	5.8953	27.2532	14.5797	-2.47049	-0.321492
0.2420	194.224	-1.02865	11.5022	3.09575	-62.6197	9.88086	33.9678	12.4688	-5.84924	-0.321492
0.2427	204.902	-7.4455	5.0875	-0.851849	-59.8762	14.4476	37.0183	7.55985	-9.51864	0
0.2433	114.602	-11.7071	-0.110598	-5.13187	-54.0925	16.8971	37.9343	6.67623	-12.5704	0
0.2440	25.1662	-15.0869	-3.76033	-8.18606	-49.4952	16.6065	35.7998	7.26531	-15.9128	0
0.2447	-12.9953	-19.0546	-6.52527	-8.18606	-47.9751	15.0704	30.9172	6.03806	-16.5305	-0.321492
0.2453	-78.9144	-23.6101	-9.88007	-5.75518	-47.9751	11.0848	23.5976	4.22173	-12.5704	-0.964476
0.2460	-155.787	-26.3532	-12.3132	-0.851849	-47.0482	8.34476	18.1016	5.15444	-7.37513	-0.964476
0.2467	-150.291	-22.7284	-8.6635	4.0307	-44.9349	8.34476	16.2696	12.4688	-1.8892	0
0.2473	-63.3278	-16.0176	-1.91703	5.54741	-43.7115	6.80866	10.1685	19.4887	1.16258	0
0.2480	-48.3694	-12.3439	1.10598	4.0307	-43.0812	3.48736	1.62191	20.7159	-0.0363307	-0.321492
0.2487	-107.889	-8.08229	5.0875	2.18157	-40.6713	3.15523	-3.56317	22.8268	-1.56222	0
0.2493	-56.0253	1.71442	13.0137	1.57904	-39.1142	4.69133	-4.47917	27.3922	-2.17984	0
0.2500	23.9491	10.5805	20.9399	2.49322	-37.0009	6.51804	-0.512626	28.3249	-0.653953	-0.321492
0.2507	-37.6904	12.9806	23.7048	4.94488	-33.0339	8.9675	6.20193	23.7595	2.39783	0
0.2513	-153.353	9.64976	20.6449	6.46159	-32.107	8.05414	4.97499	19.1942	1.7802	0
0.2520	-206.748	5.04531	16.9952	6.46159	-34.5539	6.22743	-0.823563	14.5797	-0.944598	-0.321492
0.2527	-226.889	1.42052	14.562	6.46159	-37.0009	5.8953	-1.73957	6.97077	-0.944598	-0.321492
0.2533	-240.944	-0.734753	12.7187	6.14994	-39.1142	7.72202	0.0924407	1.4727	-1.27157	-0.321492
0.2540	-167.408	-2.25324	11.2072	5.54741	-41.2645	11.417	5.58846	2.06178	-3.70573	-0.321492
0.2547	38.0045	-7.1516	6.599	5.54741	-44.0081	13.8249	14.7401	2.69994	-6.75751	-0.321492
0.2553	267.17	-17.5361	-4.05525	5.23576	-48.902	12.6209	18.4041	-5.25262	-10.0999	0
0.2560	357.509	-28.2145	-14.7464	3.4074	-51.6455	11.0848	16.2696	-18.0651	-13.1517	-0.321492
0.2567	276.946	-34.6314	-20.5343	0.664858	-48.902	12.6209	16.2696	-22.925	-15.2952	0
0.2573	150.291	-39.4808	-24.8108	-1.1635	-46.455	13.8249	17.799	-18.6542	-18.347	0
0.2580	77.3439	-41.9299	-28.1656	-0.851849	-44.3047	13.5343	17.799	-10.1125	-20.1999	-0.321492
0.2587	89.554	-41.636	-28.4974	-0.560974	-40.3376	13.2437	15.967	-0.687259	-19.8729	-0.321492
0.2593	178.362	-38.893	-26.949	-2.99186	-38.2244	11.7076	10.7735	4.81081	-21.3988	-0.321492
0.2600	254.371	-30.3208	-19.9445	-4.82022	-34.8505	11.0848	9.55501	10.9471	-21.3988	-0.321492
0.2607	214.364	-17.1932	-7.74185	-2.07768	-29.3634	11.417	10.7735	19.4887	-17.7294	0
0.2613	123.122	-5.92701	2.94927	0.0623304	-26.3233	11.0848	9.85755	24.6431	-15.2952	-0.321492
0.2620	120.374	8.13127	16.0735	0.0623304	-21.726	12.3303	11.0845	30.1412	-15.6222	-0.321492
0.2627	157.004	23.3652	28.2762	-1.1635	-16.2389	12.9115	12.6056	38.0938	-15.9128	-0.321492
0.2633	180.796	29.782	31.0411	-3.30351	-14.0885	10.1715	9.25248	44.5245	-16.8211	0
0.2640	175.025	29.4881	27.9812	-6.66936	-11.6786	9.25811	7.11794	45.4082	-18.9646	0
0.2647	6.87065	25.5204	23.4099	-9.10024	-8.60141	10.1715	8.03394	40.5483	-19.2553	0
0.2653	-242.161	18.4668	17.5851	-9.70277	-5.26466	10.7942	7.42047	32.0066	-16.8211	-0.321492
0.2660	-350.796	13.9113	13.6404	-8.78859	-0.667351	12.3303	8.33647	24.0541	-12.2434	-0.321492
0.2667	-371.565	8.13127	7.85244	-9.10024	0.852726	11.9982	8.33647	11.8307	-9.51864	-0.321492
0.2673	-352.327	-1.02865	0.811051	-10.0144	-0.0741501	10.5036	5.58846	-8.29619	-10.7176	-0.321492
0.2680	-142.988	-6.8577	-2.83868	-9.70277	-0.37075	10.5036	4.67246	-26.3122	-9.80929	0
0.2687	135.96	-10.8254	-5.27183	-7.87441	0.556126	9.25811	3.45392	-35.4429	-7.04816	0
0.2693	184.762	-16.8993	-10.4699	-5.13187	4.18948	8.05414	0.403378	-40.3519	-4.94098	-0.321492
0.2700	83.4686	-20.867	-15.0413	-2.99186	7.56331	8.05414	0.0924407	-43.1009	-1.27157	-0.321492
0.2707	28.2286	-21.7977	-17.8062	-1.47515	6.97011	5.8953	-1.42863	-47.6663	1.16258	0
0.2713	33.7251	-22.0916	-18.7279	0.664858	5.74663	2.57401	-7.22719	-55.9134	3.01545	-0.321492
0.2720	74.9097	-22.0916	-17.8062	4.32158	7.26671	1.03791	-9.36173	-60.7733	6.68485	-0.642984
0.2727	80.4063	-21.1609	-16.8846	7.9783	9.71366	-0.788808	-7.52972	-61.4115	10.3179	-0.321492
0.2733	41.6558	-19.9853	-15.9629	10.7416	11.8269	-1.70216	-6.00865	-62.0006	13.3697	0
0.2740	39.4964	-19.3485	-15.0413	11.3441	14.2739	-0.788808	-4.79011	-62.5896	14.8956	0.321492
0.2747	63.0137	-19.6424	-16.8846	9.20413	15.4974	-0.498195	-0.210093	-61.0678	12.1708	0
0.2753	63.0137	-20.5731	-19.6495	5.85906	16.0906	-1.41155	4.67246	-59.8897	8.21074	-0.964476
0.2760	49.2724	-18.4178	-18.3961	5.23576	18.2409	-1.12094	8.33647	-57.1407	7.59312	-1.28597
0.2767	38.0045	-13.8623	-14.7464	7.68742	20.6879	1.61913	13.219	-49.4826	10.6449	-0.321492
0.2773	36.1593	-10.1886	-10.7649	10.7416	24.3583	2.57401	17.799	-41.5792	14.6049	0
0.2780	36.1593	-5.63311	-6.19348	12.57	27.9917	2.86462	20.5387	-34.8538	16.1308	-0.321492
0.2787	26.3833	-0.734753	-2.83868	11.3441	30.142	5.31407	22.9841	-27.834	13.9873	-0.321492
0.2793	20.8868	2.93901	-1.32717	7.9783	31.6621	8.67689	27.2532	-20.8141	10.0273	-0.321492
0.2800	21.515	6.2699	-0.405525	5.23576	33.1822	11.417	30.0012	-16.2488	6.35787	-0.321492
0.2807	12.642	9.35586	0.221196	2.80487	34.7393	12.9115	27.5641	-16.5433	4.21436	-0.321492
0.2813	-2.27713	11.4622	0.221196	1.26739	37.1492	12.6209	23.9001	-16.2488	3.30609	-0.321492
0.2820	-17.8637	12.0989	-0.110598	2.18157	38.3727	11.0848	19.9336	-13.4997	4.54134	-0.642984
0.2827	-36.4734	10.2376	-1.6221	4.94488	38.0761	7.72202	15.051	-11.9779	8.21074	-0.321492
0.2833	-53.277	9.35586	-2.83868	7.06412	36.8526	5.60469	11.6896	-11.6343	11.2625	-0.321492
0.2840	-60.8936	9.35586	-3.4654	7.06412	35.3325	4.98195	10.7735	-11.9779	12.4614	0
0.2847	-59.3624	9.64976	-3.17047	6.14994	33.5158	4.40072	9.25248	-11.0452	12.7884	0
0.2853	-49.3117	11.7561	-0.700453	7.37577	31.6621	3.77798	8.63901	-8.00166	13.3697	-0.321492
0.2860	-36.1593	13.6174	0.516123	8.6016	28.3253	3.48736	7.723	-4.95808	12.1708	-0.321492
0.2867	-23.9491	13.6174	-0.110598	8.91325	24.6549	2.24188	4.36993	-3.73083	9.73663	0
0.2873	-16.6466	14.842	0.516123	9.51578	24.0246	1.61913	3.15139	-0.343629	7.88376	0
0.2880	-19.709	16.0666	0.221196	9.51578	23.4314	1.95126	2.84045	4.51627	6.68485	0
0.2887	-26.1085	16.0666	-1.03225	8.28995	22.2079	1.32852	-0.823563	6.03806	5.4496	-0.321492
0.2893	-30.9768	17.2912	0.516123	8.6016	24.3583	1.95126	-2.34463	7.55985	7.59312	0
0.2900	-32.8221	17.879	0.811051	8.91325	25.5818	3.15523	-0.823563	9.08163	10.3179	0
0.2907	-27.0115	16.3605	-1.32717	7.06412	23.4314	4.40072	-0.823563	9.42526	9.40965	0
0.2913	-24.2632	15.1359	-3.76033	5.23576	21.9113	4.69133	-1.73957	8.78709	6.97549	-0.321492
0.2920	-24.8914	13.6174	-5.60362	3.4074	20.3913	2.86462	-5.39518	7.26531	5.15896	0
0.2927	-19.9838	13.9113	-4.9769	3.71905	20.0576	2.57401	-6.31118	6.97077	5.74025	0
0.2933	-14.4873	16.3605	-1.6221	5.54741	20.9845	4.06859	-3.26064	9.42526	8.50138	0
0.2940	-12.0531	17.5851	-0.405525	4.32158	19.4644	4.06859	-4.17664	10.9471	9.11901	-0.321492
0.2947	-9.30483	17.879	-0.700453	2.80487	16.4242	4.98195	-4.79011	12.1743	6.97549	-0.321492
0.2953	-7.18474	17.5851	-1.6221	-0.249322	13.9773	6.51804	-3.56317	13.6961	3.63307	-0.321492
0.2960	-3.21939	16.3605	-3.17047	-4.21769	12.1235	5.60469	-3.56317	14.5797	0.254315	0
0.2967	2.59122	17.2912	-2.24882	-3.90604	13.6807	6.22743	-1.42863	16.1015	0.871937	-0.321492
0.2973	5.02539	18.8097	-0.110598	-2.70099	15.794	7.72202	1.92445	16.4451	3.30609	-0.321492
0.2980	2.9053	18.8097	-0.110598	-2.38933	15.794	7.4314	2.23539	14.9233	3.92372	-0.642984
0.2987	-3.21939	19.1036	-0.700453	-2.07768	15.2008	7.72202	1.92445	14.9233	3.30609	-0.321492
0.2993	-9.933	19.3975	-1.03225	-1.78681	13.6807	7.14079	1.62191	13.6961	3.30609	0
0.3000	-12.3672	19.6914	-0.700453	-0.851849	12.7538	5.60469	1.00844	12.4688	4.83198	0
0.3007	-13.5843	20.916	1.10598	2.80487	13.6807	5.8953	2.53792	13.3525	7.88376	0
0.3013	-15.4295	21.2589	2.35942	4.94488	13.347	5.60469	4.05899	13.6961	10.3179	0
0.3020	-18.7667	20.0343	1.43777	5.23576	11.5303	4.06859	2.84045	12.1743	11.5532	-0.321492
0.3027	-23.3602	18.1729	-0.405525	4.32158	10.0103	3.77798	1.31938	9.7198	10.3179	-0.321492
0.3033	-25.4803	17.5851	-1.32717	2.80487	8.49018	4.40072	1.92445	8.19802	8.50138	0
0.3040	-23.0461	18.1729	-0.700453	2.80487	9.71366	6.22743	4.05899	9.08163	7.26614	-0.321492
0.3047	-17.2355	19.6914	1.7327	3.71905	13.0504	8.05414	5.891	12.1743	7.26614	-0.321492
0.3053	-11.739	19.6914	2.35942	3.4074	13.0504	6.80866	3.45392	13.6961	7.59312	-0.321492
0.3060	-10.2471	18.1729	0.221196	2.80487	11.5303	3.77798	0.0924407	11.8307	7.88376	-0.964476
0.3067	-8.08774	17.2912	-1.03225	4.63323	11.8269	1.61913	-0.823563	10.9471	8.79203	-1.60746
0.3073	-3.8083	17.5851	-0.110598	6.14994	12.1235	1.32852	-1.73957	11.8307	10.3179	-0.642984
0.3080	-0.157043	17.5851	1.10598	5.54741	12.7538	3.15523	-1.73957	14.2852	10.9355	0.321492
0.3087	4.7113	16.6544	0.811051	4.32158	12.4572	3.77798	-2.34463	15.2179	10.0273	0
0.3093	9.30483	15.4298	-1.32717	3.09575	10.6035	2.24188	-6.31118	13.6961	8.79203	0
0.3100	10.836	14.842	-1.6221	2.18157	10.0103	1.03791	-10.2777	11.8307	7.88376	-0.321492
0.3107	9.61891	13.9113	-1.32717	2.49322	9.08338	-0.207581	-12.4207	11.5361	8.21074	-0.642984
0.3113	6.87065	13.9113	-0.700453	3.4074	9.71366	1.03791	-11.1937	13.9906	9.73663	-0.321492
0.3120	4.43648	14.842	1.10598	4.0307	10.9371	3.48736	-8.75666	16.1015	9.73663	0
0.3127	5.33948	13.6174	-0.110598	3.09575	10.0103	3.15523	-10.2777	14.5797	6.97549	-0.321492
0.3133	-1.06004	11.4622	-1.91703	1.26739	7.85991	1.03791	-13.9417	12.4688	6.06723	-0.642984
0.3140	-17.2355	10.2376	-2.24882	1.57904	7.26671	0.415162	-14.8577	11.2416	6.97549	0
0.3147	-27.0115	11.1683	-1.6221	2.80487	7.56331	0.124549	-13.6392	10.6525	8.21074	0.321492
0.3153	-30.0738	12.6867	0.516123	4.0307	8.49018	0.415162	-11.5047	13.6961	9.11901	0
0.3160	-27.0115	12.9806	1.10598	4.0307	7.56331	2.24188	-9.9752	15.807	8.79203	-0.321492
0.3167	-19.3949	12.0989	-0.110598	3.4074	5.41296	2.57401	-8.44572	15.5124	8.50138	-0.321492
0.3173	-20.2979	10.5805	-1.03225	3.4074	3.89288	1.32852	-8.75666	14.5797	9.11901	-0.321492
0.3180	4.12239	9.64976	-1.6221	4.0307	1.7796	1.61913	-8.44572	13.0579	9.40965	-0.321492
0.3187	58.1454	10.8744	-0.110598	5.23576	1.14933	3.48736	-3.56317	12.7634	9.73663	-0.321492
0.3193	64.859	12.0989	2.35942	5.85906	0.852726	4.69133	1.31938	13.9906	10.3179	-0.321492
0.3200	26.6974	10.8744	2.02763	4.32158	-0.963951	4.98195	1.92445	13.9906	8.79203	0
0.3207	19.0808	10.2376	1.7327	2.18157	-2.8177	5.60469	2.53792	13.3525	5.74025	-0.321492
0.3213	47.1523	10.8744	2.02763	-0.560974	-4.04118	7.14079	4.36993	13.6961	2.68847	0
0.3220	66.665	11.4622	3.2442	-2.38933	-4.63438	8.34476	5.891	14.2852	0.581291	0
0.3227	63.3278	11.7561	4.46078	-1.78681	-4.63438	9.25811	7.11794	14.5797	2.39783	0
0.3233	39.2216	9.94366	2.94927	-0.249322	-7.08133	8.05414	7.11794	12.7634	6.68485	0
0.3240	18.1385	6.61278	-0.110598	0.664858	-10.1215	5.8953	5.58846	10.0143	9.73663	0
0.3247	21.515	5.04531	-1.32717	2.18157	-11.6786	4.40072	4.05899	8.19802	12.4614	0
0.3253	19.3556	4.1636	-1.6221	2.49322	-13.7919	4.40072	2.84045	5.44898	13.0791	-0.321492
0.3260	3.18013	3.82072	-1.03225	1.26739	-15.0154	6.51804	5.28593	4.51627	11.8438	-0.321492
0.3267	-10.836	3.82072	-0.405525	-0.249322	-15.312	8.34476	7.42047	6.67623	10.9355	-0.321492
0.3273	-29.4457	3.52682	-1.32717	-0.851849	-15.9423	6.22743	5.28593	6.97077	11.2625	-0.321492
0.3280	-35.5704	2.93901	-1.6221	0.0623304	-14.7188	4.40072	3.15139	6.67623	11.8438	-0.321492
0.3287	5.02539	3.23292	-1.6221	0.664858	-12.5684	5.31407	2.53792	6.97077	11.5532	-0.642984
0.3293	65.762	3.52682	-1.32717	0.0623304	-11.0484	5.60469	2.53792	6.97077	11.2625	-0.321492
0.3300	81.3093	4.1636	0.221196	1.26739	-8.93508	5.60469	3.75646	8.19802	13.0791	0
0.3307	59.6373	3.82072	0.221196	2.18157	-8.93508	4.06859	3.15139	9.42526	14.3143	0
0.3313	38.2794	2.30223	-2.54375	1.89069	-12.2718	1.03791	0.403378	7.90348	13.0791	-0.964476
0.3320	-0.157043	2.00833	-2.24882	1.89069	-12.5684	1.03791	-1.1261	6.3326	12.1708	-0.642984
0.3327	-48.0553	2.64511	-0.405525	1.26739	-9.23168	2.86462	-1.1261	6.67623	10.6449	0.321492
0.3333	-59.6765	3.52682	0.811051	0.97651	-7.08133	3.48736	1.00844	9.08163	10.0273	0
0.3340	-51.1177	4.4575	1.7327	2.18157	-6.48813	3.15523	1.92445	10.3089	11.5532	-0.321492
0.3347	-56.9283	3.23292	0.811051	3.09575	-4.04118	1.03791	-1.42863	7.90348	12.1708	-0.321492
0.3353	-61.2077	2.00833	-1.03225	3.09575	-0.37075	-0.788808	-4.17664	4.22173	11.5532	-0.321492
0.3360	-53.5518	2.93901	0.221196	3.4074	1.44593	-0.788808	-4.79011	3.92719	10.6449	-0.321492
0.3367	-29.4457	6.61278	5.71422	4.32158	-0.963951	-0.207581	-4.79011	7.55985	10.0273	-0.321492
0.3373	29.1316	11.1683	11.5022	4.32158	-4.63438	0.705776	-3.56317	11.2416	8.79203	-0.321492
0.3380	87.1199	12.3928	12.7187	2.18157	-8.00821	1.32852	-2.34463	11.5361	5.15896	0
0.3387	83.4686	8.42517	7.85244	-0.249322	-12.2718	0.124549	-3.56317	6.97077	-1.56222	-0.642984
0.3393	61.1684	3.52682	2.65435	-1.47515	-14.7188	-0.498195	-5.09264	1.17816	-5.52227	-1.60746
0.3400	56.3001	0.783737	1.10598	-1.1635	-15.312	2.57401	-3.56317	-0.687259	-5.84924	-0.642984
0.3407	47.7412	-1.02865	0.221196	-1.78681	-15.6457	5.60469	-0.512626	-0.687259	-6.75751	0
0.3413	39.2216	-4.40852	-2.83868	-3.30351	-16.2389	5.60469	-0.210093	-3.3872	-9.19167	-0.321492
0.3420	21.515	-8.67009	-6.19348	-5.44353	-20.2059	5.31407	-2.64717	-8.00166	-11.6258	-0.321492
0.3427	-3.21939	-10.1886	-7.41005	-6.66936	-25.0998	5.31407	-4.17664	-9.52344	-14.0963	-0.321492
0.3433	-14.2124	-8.37619	-5.89855	-7.58354	-27.2131	7.4314	-1.73957	-6.77441	-15.9128	-0.321492
0.3440	-13.8983	-6.22091	-3.17047	-9.4119	-29.66	10.7942	1.92445	-4.31991	-17.1481	-0.321492
0.3447	-10.836	-5.92701	-2.54375	-10.3261	-33.3305	11.7076	2.53792	-4.31991	-18.347	0
0.3453	-6.87065	-6.51481	-4.68197	-11.2403	-35.4808	9.59024	0.0924407	-5.25262	-20.7812	0
0.3460	-1.68822	-8.08229	-6.19348	-12.4661	-38.2244	8.9675	-1.42863	-6.47987	-23.2516	0
0.3467	6.24248	-8.96399	-5.27183	-12.4661	-40.9679	9.88086	-1.1261	-6.77441	-22.9247	0
0.3473	10.836	-8.67009	-5.27183	-11.5519	-37.2975	10.5036	0.705911	-3.3872	-20.7812	0
0.3480	4.7113	-8.96399	-5.60362	-11.2403	-31.1801	11.417	2.53792	-0.0490899	-19.8729	0
0.3487	5.02539	-10.8254	-6.52527	-12.757	-31.8104	11.0848	0.0924407	-0.687259	-21.3988	0
0.3493	12.3672	-12.3439	-8.95842	-14.2944	-33.0339	10.7942	-1.42863	-1.27634	-22.307	0
0.3500	1.96304	-12.6378	-10.175	-15.2086	-29.3634	10.7942	0.403378	-0.0490899	-22.634	0
0.3507	-11.4642	-11.7071	-8.95842	-14.897	-25.9896	11.7076	1.62191	1.76724	-22.9247	-0.321492
0.3513	-7.49883	-9.25789	-7.11513	-14.2944	-21.726	12.3303	2.84045	4.81081	-22.0164	-0.321492
0.3520	-11.739	-9.25789	-7.11513	-14.2944	-20.2059	11.7076	2.53792	6.67623	-21.7258	-0.321492
0.3527	-41.6558	-11.7071	-9.25335	-14.5853	-26.9165	10.7942	0.403378	6.03806	-21.7258	0
0.3533	-75.2238	-11.4132	-10.175	-13.6711	-34.5539	10.1715	-0.210093	6.67623	-19.8729	-0.321492
0.3540	-94.4617	-9.25789	-8.3317	-12.1544	-36.7043	10.5036	1.00844	9.08163	-17.1481	0
0.3547	-98.7411	-8.37619	-6.8202	-10.9286	-37.2975	11.7076	3.15139	12.4688	-15.0046	-0.321492
0.3553	-77.0691	-5.29023	-4.38705	-10.3261	-39.1142	11.0848	3.15139	15.5124	-14.0963	-0.321492
0.3560	1.37413	-0.440852	0.221196	-10.0144	-43.0812	8.67689	0.0924407	17.6233	-14.387	0
0.3567	88.651	5.38819	6.30407	-8.78859	-46.7516	8.05414	-0.823563	22.5323	-12.5704	0
0.3573	88.337	9.94366	10.8755	-7.27188	-48.902	8.34476	0.0924407	28.0303	-8.57405	0
0.3580	46.21	12.0989	13.0137	-5.75518	-47.9751	8.67689	0.0924407	29.8467	-6.46686	0
0.3587	45.9352	12.3928	13.9353	-5.13187	-47.0482	8.05414	-1.1261	28.963	-6.13989	-0.642984
0.3593	48.3694	12.0989	13.6404	-5.13187	-48.902	6.22743	-2.9581	26.5086	-6.13989	-0.321492
0.3600	27.6004	11.1683	13.0137	-4.52935	-44.9349	5.8953	-2.0421	25.2813	-4.614	0
0.3607	24.8521	8.42517	11.5022	-3.30351	-38.521	6.22743	-1.73957	22.8268	-2.17984	0
0.3613	22.1039	2.00833	6.599	-3.30351	-36.074	5.31407	-3.26064	17.3287	-1.8892	0
0.3620	-3.53348	-4.11462	0.516123	-3.30351	-32.107	4.40072	-3.56317	11.8307	-1.27157	0
0.3627	-2.27713	-7.1516	-2.24882	-2.70099	-27.2131	4.06859	-4.47917	6.67623	-0.363307	-0.321492
0.3633	21.829	-9.60078	-4.38705	-2.70099	-22.3562	2.86462	-6.92465	-0.343629	-1.27157	-0.321492
0.3640	26.6974	-11.4132	-5.89855	-2.70099	-15.312	2.24188	-6.62212	-5.8417	-0.944598	0
0.3647	8.99074	-12.05	-5.60362	-1.1635	-7.37793	2.24188	-5.39518	-10.1125	2.10718	-0.321492
0.3653	-6.28174	-12.3439	-5.60362	0.97651	1.14933	1.32852	-6.62212	-15.9051	4.54134	-1.28597
0.3660	3.49422	-11.7071	-5.60362	2.49322	10.0103	1.32852	-6.62212	-18.0651	5.74025	-0.964476
0.3667	16.9214	-11.4132	-5.27183	2.18157	18.2409	2.57401	-4.79011	-16.5433	5.15896	0
0.3673	10.836	-11.7071	-5.89855	0.97651	26.175	3.77798	-2.64717	-15.6106	3.30609	-0.321492
0.3680	3.49422	-12.3439	-7.41005	-0.560974	33.8124	3.77798	-1.1261	-16.5433	0.581291	0
0.3687	7.77365	-13.2256	-8.95842	-2.07768	39.0029	1.95126	-1.73957	-20.8141	-2.47049	0
0.3693	12.3672	-11.4132	-6.52527	-1.78681	44.1934	3.15523	-1.73957	-21.6977	-2.47049	0
0.3700	27.0115	-7.4455	-2.83868	-1.1635	50.2738	4.69133	0.403378	-17.1324	-1.56222	0.321492
0.3707	49.9006	-7.1516	-2.24882	-2.07768	55.7979	4.40072	1.92445	-16.2488	-3.41509	0
0.3713	48.3694	-8.67009	-3.4654	-2.38933	60.0616	4.98195	3.45392	-18.3596	-4.614	0
0.3720	34.6281	-8.37619	-3.76033	-3.30351	60.9514	4.98195	2.23539	-19.2923	-5.52227	0
0.3727	23.635	-8.08229	-3.4654	-5.13187	60.6548	4.98195	1.00844	-19.8814	-7.99275	-0.321492
0.3733	5.92839	-8.37619	-3.17047	-6.96023	61.285	7.14079	4.67246	-21.1087	-10.4269	0
0.3740	-17.5496	-8.08229	-2.83868	-7.87441	61.285	9.25811	8.63901	-18.6542	-12.2434	0
0.3747	-33.411	-8.96399	-3.76033	-8.18606	60.3582	8.9675	8.03394	-14.3833	-13.1517	0
0.3753	-24.2632	-9.60078	-5.60362	-8.49772	59.4313	6.80866	5.891	-12.567	-13.7693	0
0.3760	-22.732	-8.96399	-4.68197	-8.49772	59.765	6.51804	5.28593	-9.52344	-13.7693	0
0.3767	-58.7343	-7.7394	-3.4654	-7.87441	57.318	7.4314	4.67246	-5.25262	-12.8611	0
0.3773	-96.5817	-6.8577	-3.4654	-7.27188	52.1275	7.4314	2.84045	-1.57088	-11.6258	0
0.3780	-125.281	-7.4455	-3.4654	-7.27188	48.1605	7.14079	1.00844	2.40541	-11.0445	-0.321492
0.3787	-152.45	-16.8993	-4.38705	-10.3261	44.7866	7.72202	0.705911	3.63265	-14.387	0
0.3793	-191.515	-28.8023	-3.76033	-13.9828	42.97	10.1715	1.62191	3.63265	-18.347	0
0.3800	-183.27	-32.4761	-1.03225	-15.2086	44.1934	12.3303	1.31938	6.03806	-19.2553	0
0.3807	-70.9444	-35.2192	0.811051	-13.9828	44.7866	12.6209	0.705911	8.78709	-18.347	0
0.3813	-18.1778	-22.7284	2.35942	-12.757	44.1934	10.7942	0.403378	9.42526	-16.5305	0
0.3820	-67.2931	20.916	3.2442	-11.2403	42.6734	8.9675	-2.0421	8.49255	-14.387	0
0.3827	-45.9352	41.685	4.46078	-8.18606	42.6734	8.05414	-3.26064	9.08163	-12.8611	0
0.3833	32.508	22.7774	4.46078	-5.75518	42.6734	7.72202	-2.64717	9.08163	-12.5704	0
0.3840	87.434	11.7561	2.94927	-4.21769	41.4499	8.05414	-2.0421	6.03806	-12.2434	0
0.3847	131.053	9.01298	0.516123	-4.21769	40.8196	8.05414	-1.42863	2.40541	-11.6258	0
0.3853	151.822	3.23292	-1.91703	-5.13187	38.7063	6.51804	-2.64717	-3.09266	-13.4787	0
0.3860	142.046	0.489836	-2.83868	-5.44353	36.556	5.8953	-2.64717	-8.29619	-13.7693	0
0.3867	121.002	-0.440852	-2.83868	-6.66936	35.0359	6.80866	-0.512626	-10.4071	-1.8892	0
0.3873	99.9189	-1.66544	-3.4654	-7.58354	31.6621	5.8953	-1.1261	-13.1561	10.3179	0
0.3880	85.2746	-2.25324	-3.17047	-1.1635	29.2151	4.69133	-2.34463	-16.8378	6.68485	-0.321492
0.3887	75.8127	-2.25324	-2.24882	7.06412	29.5488	4.06859	-1.73957	-17.7705	-1.27157	0
0.3893	70.3162	-3.18393	-1.91703	5.54741	27.9917	3.15523	-2.0421	-16.8378	1.7802	0
0.3900	70.6303	-4.99632	-1.6221	1.26739	25.8784	3.15523	-1.1261	-14.6779	21.3261	0
0.3907	70.3162	-1.02865	-1.91703	5.54741	23.4314	2.86462	0.403378	-13.1561	42.3616	-0.321492
0.3913	65.1338	10.8744	-3.17047	10.43	19.4644	1.95126	-0.823563	-13.4997	44.5051	-0.321492
0.3920	54.7689	15.7237	-3.17047	13.4842	18.8712	1.61913	-2.0421	-12.8616	39.6368	-0.321492
0.3927	41.6558	7.20058	-2.83868	15.3125	20.6879	1.32852	-2.0421	-10.1125	36.258	-0.321492
0.3933	31.2909	-1.66544	-2.24882	13.4842	21.2811	0.415162	-2.34463	-9.2289	10.6449	0
0.3940	24.8521	-1.66544	-2.24882	11.6558	20.0576	-1.41155	-5.09264	-10.4071	-24.7775	0
0.3947	20.2979	-2.25324	-3.4654	3.4074	19.1678	-2.03429	-5.70612	-9.52344	-16.2035	0
0.3953	16.3325	-9.89468	-3.4654	-23.4362	19.4644	-1.70216	-5.39518	-6.47987	32.9156	-0.321492
0.3960	12.642	-15.0869	-3.76033	-43.9014	18.5375	-2.32491	-6.92465	-6.13624	88.7559	-0.964476
0.3967	10.5219	-12.05	-2.83868	-19.7795	18.5375	-2.94765	-5.39518	-5.54716	125.087	-1.28597
0.3973	10.2078	-7.4455	-2.24882	29.6485	17.0174	-4.15162	-4.47917	-3.73083	85.4135	-0.321492
0.3980	11.4249	-6.22091	-3.4654	67.7947	12.1235	-5.68772	-5.70612	-3.09266	-23.5423	0
0.3987	12.0531	-3.77173	-2.54375	98.3159	9.37998	-5.97833	-5.70612	-1.27634	-89.7732	0
0.3993	7.77365	-1.66544	-1.91703	115.415	7.85991	-6.89169	-4.79011	0.24545	-92.2073	0
0.4000	-1.37413	-1.66544	-2.24882	97.09	6.63643	-9.34115	-5.39518	-1.57088	-90.0638	-1.28597
0.4007	-6.55657	-1.02865	-1.32717	56.2013	8.49018	-9.96389	-4.79011	-1.86542	-71.7531	-1.60746
0.4013	-7.49883	-0.440852	-1.6221	37.5853	9.71366	-9.67328	-4.17664	-0.343629	-29.6459	-0.321492
0.4020	-8.08774	-0.734753	-1.6221	80.9257	11.5303	-9.34115	-5.70612	0.539989	14.8956	0
0.4027	-7.77365	-0.146951	-1.03225	106.253	14.5705	-8.42779	-4.79011	0.539989	69.8276	-0.321492
0.4033	-7.18474	-3.77173	-0.700453	41.242	16.4242	-5.68772	-1.1261	1.17816	117.13	0
0.4040	-7.49883	-11.7071	-0.405525	-30.4588	17.9443	-3.86101	-0.210093	1.76724	103.397	0
0.4047	-7.49883	-15.6747	-0.700453	-72.5734	18.8712	-2.03429	-2.64717	1.17816	70.4452	0
0.4053	-6.87065	-15.6747	-0.110598	-127.819	20.9845	1.95126	-1.73957	2.40541	85.7041	-0.321492
0.4060	-5.02539	-19.3485	0.811051	-185.184	21.2811	4.06859	1.92445	3.92719	59.764	0
0.4067	-1.68822	-10.1886	1.43777	-196.175	18.5375	4.98195	3.75646	4.22173	-38.8012	-0.321492
0.4073	0.745957	21.5528	2.65435	-139.412	16.0906	4.69133	6.20193	5.44898	-89.4462	-0.321492
0.4080	1.68822	34.0436	2.35942	-76.8534	12.7538	0.124549	4.67246	5.44898	-27.8293	0
0.4087	0.43187	13.6174	0.221196	-41.1381	8.49018	-4.77436	1.00844	3.92719	112.553	0
0.4093	-2.59122	-11.4132	-0.700453	-13.3803	5.41296	-5.39711	1.00844	4.81081	144.306	0
0.4100	-4.75057	-19.6424	-1.03225	-6.35771	3.29968	-3.57039	2.53792	7.90348	-3.08811	0.321492
0.4107	-5.96765	-5.63311	-0.700453	-2.38933	3.59628	-2.61552	5.28593	9.08163	-143.47	0
0.4113	-5.33948	-12.05	1.7327	22.6259	6.63643	-4.77436	6.20193	8.49255	-180.709	0
0.4120	-3.8083	-36.4438	2.35942	53.7704	7.85991	-7.80505	2.23539	7.90348	-130.645	0
0.4127	-4.12239	-11.4132	0.516123	97.4017	6.33983	-6.89169	0.403378	7.26531	-54.0601	-0.321492
0.4133	-5.33948	34.0436	-1.6221	139.205	3.89288	-5.97833	0.0924407	4.81081	-27.5023	-0.642984
0.4140	-9.30483	39.5297	-1.6221	129.44	5.74663	-5.06498	-1.1261	4.22173	6.68485	-0.321492
0.4147	-12.9953	29.4881	-0.110598	58.9438	10.6035	-2.03429	1.92445	7.55985	98.8195	-0.321492
0.4153	-13.5843	26.4021	0.221196	-78.3701	12.4572	0.415162	4.36993	7.90348	124.469	-0.321492
0.4160	-16.0184	20.6221	-0.110598	-176.333	12.1235	0.705776	3.45392	5.74352	53.3698	0
0.4167	-20.612	8.13127	-0.110598	-119.28	10.6035	-1.70216	2.53792	4.22173	10.9355	0
0.4173	-24.2632	-0.146951	-1.03225	-32.9105	8.78678	-5.97833	0.0924407	2.99448	56.0946	0
0.4180	-26.4226	4.1636	-1.03225	-2.07768	9.37998	-8.42779	-1.1261	2.69994	127.23	0.321492
0.4187	-25.1662	9.64976	-0.700453	23.8518	11.5303	-8.7184	-0.210093	2.06178	74.7322	0
0.4193	-21.829	9.35586	-1.6221	67.1922	13.0504	-9.67328	-0.823563	0.883618	-29.0282	-0.321492
0.4200	-17.5496	7.20058	-1.91703	112.361	15.2008	-14.8213	-4.47917	0.539989	10.0273	0
0.4207	-14.2124	5.38819	-1.91703	126.094	18.5375	-19.7202	-7.22719	0.539989	125.377	0
0.4213	-12.0531	5.04531	-1.03225	110.221	19.761	-19.0975	-4.47917	1.4727	239.528	0
0.4220	-11.1501	5.04531	-0.700453	81.2373	17.0174	-16.0668	-1.73957	1.76724	266.994	0.321492
0.4227	-11.1501	4.75141	-1.03225	33.9285	10.6035	-12.4133	-2.0421	0.883618	158.039	0
0.4233	-11.1501	3.23292	-1.6221	-9.10024	3.29968	-8.13718	-0.823563	-0.687259	28.0473	-0.321492
0.4240	-11.1501	2.64511	-2.54375	-33.2013	-3.1143	-5.39711	1.31938	-2.50359	-145.323	0
0.4247	-12.0531	5.04531	-2.83868	-60.9799	-6.48813	-4.77436	2.53792	-3.09266	-314.37	-0.321492
0.4253	-12.9953	8.42517	-3.17047	-78.3701	-6.78473	-5.68772	1.00844	-4.61445	-336.059	-1.28597
0.4260	-11.4642	12.9806	-3.17047	-58.8399	-3.4109	-5.97833	0.403378	-4.95808	-235.023	-0.642984
0.4267	-8.99074	13.3235	-3.76033	-25.5763	-0.0741501	-7.80505	1.00844	-3.09266	-89.4462	0
0.4273	-7.77365	5.68209	-4.9769	-7.27188	0.556126	-9.67328	-1.42863	-2.79812	2.68847	0
0.4280	-5.33948	-2.25324	-3.76033	-17.6395	1.44593	-6.89169	-0.210093	-0.981798	-6.75751	0
0.4287	-2.27713	-3.47783	-1.6221	-28.6304	3.00308	-3.57039	3.45392	2.40541	-50.3907	0
0.4293	-1.68822	5.38819	-1.03225	-6.35771	4.18948	-2.94765	2.84045	5.15444	-58.0201	-0.321492
0.4300	-2.9053	10.8744	-1.32717	30.2718	5.41296	-3.57039	0.705911	6.3326	-48.2472	-0.321492
0.4307	-3.8083	2.93901	-2.83868	44.2962	5.74663	-4.77436	0.403378	4.81081	-39.4188	-0.321492
0.4313	-3.53348	-11.1193	-2.83868	26.5943	6.97011	-5.06498	0.705911	4.22173	-21.3988	-0.321492
0.4320	-2.27713	-20.867	-1.91703	-24.0596	7.26671	-3.86101	1.00844	5.15444	0.581291	0
0.4327	-2.27713	-19.9853	-2.83868	-81.4243	5.41296	-2.94765	0.705911	4.22173	53.6604	-0.642984
0.4333	-1.68822	-9.25789	-1.91703	-89.9636	6.33983	-2.03429	3.15139	4.22173	125.087	-0.964476
0.4340	-1.06004	5.38819	-0.110598	-61.5825	6.97011	-2.03429	5.891	6.03806	109.21	0
0.4347	-2.27713	9.64976	0.221196	-46.9348	6.04323	-3.57039	4.97499	5.44898	-24.1599	-0.321492
0.4353	-1.68822	9.35586	0.811051	-40.5356	6.04323	-4.77436	3.15139	4.51627	-149.9	-0.321492
0.4360	0.43187	4.1636	0.811051	-15.8112	4.52315	-7.80505	1.62191	3.92719	-172.789	0
0.4367	1.68822	-15.6747	-0.405525	9.20413	4.81976	-11.1679	1.00844	3.92719	-136.167	-0.321492
0.4373	0.745957	-11.7071	-0.110598	9.51578	9.08338	-12.4133	2.84045	7.55985	-78.1837	-0.321492
0.4380	-1.37413	15.4298	-1.32717	-4.21769	12.4572	-14.2401	1.31938	9.7198	-24.7775	0
0.4387	-2.0023	26.745	-2.54375	-16.1228	13.6807	-14.8213	-1.73957	8.78709	-6.13989	0
0.4393	-2.0023	28.5574	-3.17047	-25.5763	13.6807	-14.8213	-2.0421	6.03806	12.7884	-0.321492
0.4400	-2.59122	27.9696	-4.9769	-21.0054	11.5303	-15.1534	-1.42863	2.40541	78.9829	-0.321492
0.4407	-2.9053	23.3652	-4.38705	-10.0144	11.5303	-11.7906	1.00844	3.28902	135.441	0
0.4413	-2.27713	17.5851	-3.17047	-16.4345	11.2337	-7.51443	4.05899	5.44898	40.8357	0
0.4420	-1.37413	12.0989	-4.05525	-17.6395	7.85991	-7.80505	3.45392	4.22173	-108.992	0
0.4427	-0.47113	9.64976	-4.9769	5.54741	6.63643	-9.67328	1.31938	2.99448	-143.47	0
0.4433	-0.157043	8.71908	-5.27183	33.6169	8.49018	-9.34115	3.15139	2.99448	-132.789	0
0.4440	0.43187	0.489836	-5.27183	36.0686	11.5303	-8.13718	5.891	4.81081	-58.6377	0
0.4447	1.68822	-11.7071	-4.05525	-0.560974	15.794	-9.96389	4.97499	6.3326	83.5606	0
0.4453	2.59122	-17.1932	-3.76033	-16.1228	18.5375	-13.3267	1.62191	5.74352	162.907	-0.321492
0.4460	2.27713	-18.4178	-4.9769	17.4525	18.8712	-15.1534	0.0924407	4.81081	198.947	-0.321492
0.4467	1.68822	-23.0223	-6.19348	33.0144	18.5375	-14.2401	1.62191	4.51627	169.955	-0.321492
0.4473	1.96304	-12.05	-5.89855	21.4209	17.9443	-12.4133	3.45392	2.69994	75.6405	0
0.4480	2.27713	18.4668	-4.05525	21.4209	18.2409	-10.5866	4.67246	3.63265	100.672	0
0.4487	1.68822	26.745	-4.05525	11.6558	16.7208	-9.34115	5.28593	5.44898	128.429	0
0.4493	1.06004	17.5851	-5.89855	-17.037	13.9773	-10.5866	3.15139	4.51627	-55.2953	0
0.4500	0.745957	15.4298	-7.41005	-52.129	11.8269	-10.2545	2.23539	3.63265	-237.167	0
0.4507	-0.47113	8.42517	-7.11513	-91.1894	10.9371	-8.13718	3.45392	4.81081	-224.669	0
0.4513	-2.27713	-1.66544	-5.60362	-88.7586	13.9773	-8.13718	2.84045	6.67623	-144.378	0
0.4520	-3.8083	-4.11462	-5.60362	-20.4028	17.9443	-9.67328	1.31938	6.97077	-89.7732	0
0.4527	-4.43648	-2.89003	-6.19348	58.0296	18.5375	-11.7906	-0.210093	5.44898	-15.2952	-0.321492
0.4533	-4.12239	-1.66544	-6.8202	83.0657	17.6477	-15.7762	-2.9581	4.22173	70.4452	-0.321492
0.4540	-3.21939	14.2052	-6.52527	77.8715	18.2409	-17.2707	-2.64717	3.63265	142.162	0.321492
0.4547	-2.59122	28.5574	-5.89855	80.0115	18.5375	-14.8213	-0.210093	3.92719	280.11	0.321492
0.4553	-2.9053	15.1359	-5.27183	60.4813	18.5375	-12.704	1.62191	3.92719	391.5	-0.964476
0.4560	-2.27713	-1.95934	-4.9769	16.8292	18.8712	-13.3267	1.62191	3.28902	268.811	-1.28597
0.4567	0.745957	-6.8577	-4.9769	-14.2944	18.8712	-13.6173	-0.512626	2.99448	131.808	0
0.4573	7.14548	-5.92701	-4.68197	-26.1996	17.9443	-12.4133	-0.210093	2.40541	148.266	0.321492
0.4580	12.9561	4.1636	-3.17047	-29.2538	14.9042	-10.5866	0.705911	2.40541	26.5214	-0.321492
0.4587	12.642	12.0989	-3.4654	-21.0054	11.2337	-10.5866	-0.823563	2.69994	-181.617	-0.321492
0.4593	8.67665	9.64976	-4.05525	-15.5203	9.37998	-12.4133	-0.823563	3.63265	-159.964	-0.321492
0.4600	5.92839	8.13127	-3.76033	-29.2538	8.15651	-13.9079	-0.823563	3.63265	-100.454	-0.321492
0.4607	4.12239	8.13127	-3.76033	-63.12	6.33983	-12.9946	-3.87411	2.99448	-200.545	-0.321492
0.4613	3.49422	7.49449	-3.76033	-106.46	4.81976	-6.89169	-2.9581	3.28902	-225.577	0
0.4620	2.9053	8.13127	-3.4654	-76.5418	4.81976	2.57401	1.31938	3.92719	-105.94	0.321492
0.4627	1.06004	7.78839	-2.83868	10.7416	6.33983	9.25811	3.15139	3.28902	-45.813	0.321492
0.4633	0.157043	6.90668	-2.54375	52.2329	8.49018	8.9675	2.84045	2.99448	-87.339	0
0.4640	0.157043	6.90668	-2.54375	38.4994	10.3069	3.77798	0.705911	3.63265	-124.542	0
0.4647	0.745957	7.20058	-1.03225	-8.18606	11.5303	1.32852	-0.512626	4.81081	-158.729	0
0.4653	1.37413	5.976	-0.110598	-16.7253	10.0103	0.415162	-0.512626	5.44898	-213.988	0
0.4660	0.745957	3.52682	-1.32717	32.1002	5.74663	-3.57039	-2.0421	3.63265	-157.53	0.321492
0.4667	1.37413	3.52682	-0.110598	77.5598	4.81976	-5.97833	-2.9581	3.92719	28.6286	0.321492
0.4673	2.59122	4.75141	1.7327	100.456	4.52315	-5.06498	-0.512626	5.15444	166.903	-0.321492
0.4680	1.96304	3.82072	1.7327	96.4875	1.44593	-3.86101	1.62191	3.92719	226.413	-0.321492
0.4687	1.37413	2.00833	0.811051	78.7857	-3.4109	-4.15162	0.403378	2.40541	222.744	-0.321492
0.4693	1.37413	0.783737	-0.110598	63.2238	-8.00821	-5.97833	-1.42863	0.539989	81.1264	-0.321492
0.4700	1.37413	0.783737	1.10598	47.662	-6.78473	-4.48375	0.705911	0.883618	-138.602	-0.321492
0.4707	2.27713	1.71442	3.87092	69.9348	-2.8177	-4.77436	4.05899	2.99448	-258.82	0
0.4713	2.27713	1.07764	3.576	120.9	-2.18743	-10.2545	1.92445	2.69994	-237.457	0
0.4720	2.59122	0.489836	2.94927	116.018	-2.18743	-13.3267	-2.0421	1.76724	-172.171	0
0.4727	2.9053	-0.146951	3.2442	87.0341	-2.8177	-12.9946	-2.34463	1.17816	-131.88	0
0.4733	2.27713	-1.95934	2.94927	108.081	-3.74458	-13.9079	-3.87411	-0.687259	-75.4225	-0.321492
0.4740	1.96304	-1.66544	3.87092	148.367	-0.667351	-14.2401	-4.47917	0.539989	102.198	-0.321492
0.4747	2.59122	0.195934	6.30407	144.399	3.89288	-13.6173	-2.64717	3.28902	339.329	-0.321492
0.4753	3.18013	-1.02865	6.00915	99.5417	4.81976	-14.2401	-4.17664	0.883618	418.348	0
0.4760	2.9053	-2.89003	4.46078	78.474	3.59628	-12.9946	-4.17664	-1.27634	353.062	-0.321492
0.4767	1.96304	-3.77173	4.16585	134.322	1.7796	-9.67328	-3.26064	-0.981798	348.157	-0.321492
0.4773	0.745957	-3.47783	4.46078	210.012	-0.667351	-5.97833	-2.64717	0.24545	290.173	-0.321492
0.4780	0.43187	-1.95934	5.38243	143.485	-3.4109	1.03791	0.705911	1.76724	13.0791	-0.321492
0.4787	0.43187	-1.95934	5.0875	-14.2944	-10.7518	5.8953	1.62191	0.883618	-272.262	-0.321492
0.4793	-0.157043	-3.77173	3.2442	-71.0567	-18.6858	4.40072	-1.42863	-0.981798	-350.373	0
0.4800	-1.68822	-4.40852	1.43777	-60.9799	-21.1328	-2.94765	-4.47917	-0.687259	-172.789	0.321492
0.4807	-2.59122	-3.47783	1.10598	-20.0912	-17.7589	-12.0812	-8.14319	0.24545	85.4135	0
0.4813	-2.59122	-1.32256	3.576	48.5762	-11.9752	-16.3574	-8.44572	2.06178	153.17	-0.321492
0.4820	-2.0023	-0.734753	4.46078	51.6304	-11.6786	-18.1841	-8.44572	2.40541	79.9275	-0.321492
0.4827	-0.785217	-2.25324	3.576	25.0776	-15.9423	-22.1697	-12.4207	-0.687259	65.5769	0
0.4833	-0.47113	-3.47783	2.65435	-18.2628	-19.9093	-21.5469	-13.3283	-2.50359	87.23	-0.321492
0.4840	-0.785217	-4.11462	2.35942	-79.596	-22.3562	-14.8213	-9.9752	-2.20905	46.358	0
0.4847	-1.06004	-4.40852	3.576	-84.7902	-24.1729	-8.13718	-6.62212	-0.981798	-5.84924	-0.321492
0.4853	-1.37413	-4.70242	3.576	-109.203	-27.5468	-2.32491	-4.47917	-1.57088	-7.99275	-1.28597
0.4860	-0.47113	-5.29023	2.02763	-140.638	-29.9566	1.03791	-3.56317	-3.09266	-29.3552	-0.642984
0.4867	-0.157043	-4.99632	1.10598	-96.6953	-28.7702	1.32852	-5.39518	-2.79812	-123.016	0
0.4873	-1.68822	-2.89003	-0.405525	-32.5988	-25.0998	0.415162	-9.05919	-3.09266	-196.585	0
0.4880	-1.68822	-0.734753	-1.03225	69.9348	-20.5025	2.57401	-9.67266	-2.20905	-156.004	0
0.4887	-0.785217	0.489836	-0.700453	152.336	-18.9824	8.05414	-7.22719	0.24545	-88.5379	-0.321492
0.4893	-0.157043	-0.440852	-1.6221	33.9285	-19.9093	11.7076	-6.00865	0.24545	-97.0756	0
0.4900	1.68822	-2.25324	-3.4654	-141.552	-17.7589	13.5343	-6.92465	-1.57088	-90.3908	0
0.4907	5.65357	-3.18393	-3.76033	-170.536	-11.9752	16.8971	-6.92465	-2.79812	47.8839	0
0.4913	9.89374	-3.77173	-3.17047	-156.2	-6.48813	18.7238	-6.62212	-3.3872	262.417	-0.321492
0.4920	14.8013	-3.77173	-2.24882	-142.778	-3.1143	16.2744	-6.62212	-3.3872	372.898	-0.321492
0.4927	18.1385	-3.77173	-0.700453	-87.8444	-2.18743	11.7076	-7.84066	-3.3872	317.966	0
0.4933	18.7667	-5.29023	-2.24882	-38.7072	-4.96806	5.8953	-11.5047	-4.95808	219.074	0.321492
0.4940	18.7667	-6.8577	-4.9769	-36.5672	-6.48813	3.77798	0.403378	-4.95808	92.1347	0.321492
0.4947	19.6697	-6.22091	-5.27183	-59.7541	-8.60141	5.31407	31.8332	-1.27634	-146.522	0
0.4953	21.829	-5.92701	-4.38705	-59.1516	-13.1987	7.14079	49.2289	3.63265	-385.796	0
0.4960	29.1316	-6.22091	-2.24882	-37.4814	-16.8691	10.7942	40.6823	4.81081	-447.74	0
0.4967	44.404	-6.51481	-1.03225	-21.317	-21.1328	12.9115	24.5136	2.06178	-329.628	0
0.4973	58.7343	-7.1516	-2.54375	-7.27188	-24.8032	7.72202	11.6896	1.4727	-153.861	0
0.4980	62.1107	-6.51481	-1.91703	12.2583	-22.3562	1.32852	1.31938	4.22173	-27.8293	0
0.4987	50.1754	-3.77173	0.221196	23.8518	-18.9824	1.03791	-5.39518	5.15444	35.3498	0
0.4993	31.2909	-1.95934	2.02763	22.6259	-18.6858	4.40072	-9.05919	4.22173	58.5651	0
0.5000	22.732	-1.95934	3.576	9.82743	-18.3892	7.4314	-10.2777	3.92719	0.581291	-0.321492
0.5007	27.0115	-3.18393	3.2442	-5.75518	-18.9824	6.80866	-10.8912	5.15444	-113.86	-0.321492
0.5013	31.5657	-4.11462	2.02763	-4.82022	-19.9093	2.86462	-14.2443	6.03806	-161.163	0
0.5020	22.418	-4.99632	0.221196	-13.6711	-21.1328	-1.41155	-17.9083	4.81081	-94.3508	0
0.5027	-2.59122	-4.70242	-1.6221	-12.757	-17.7589	-3.86101	-19.4378	4.51627	98.2382	-0.321492
0.5033	-41.6558	-4.40852	-2.54375	30.5627	-8.93508	-5.06498	-19.4378	5.74352	314.915	-0.321492
0.5040	-67.9213	-4.40852	-1.6221	35.4452	-2.5211	-6.31046	-18.2108	6.97077	371.372	-0.321492
0.5047	-39.8498	-3.18393	1.7327	2.49322	-0.0741501	-6.60108	-18.2108	8.19802	319.165	0
0.5053	22.418	-1.66544	4.16585	21.7118	-1.29763	-5.68772	-18.5218	7.55985	266.667	0.321492
0.5060	59.6373	-1.32256	5.38243	51.3187	-5.56126	-3.57039	-18.5218	4.51627	217.839	-0.321492
0.5067	51.1177	-0.440852	7.52065	20.5067	-8.30481	3.77798	-16.6898	5.74352	165.959	-0.642984
0.5073	31.5657	-1.02865	7.85244	-10.0144	-8.30481	12.9115	-13.0257	9.7198	57.0392	-0.321492
0.5080	20.5727	-4.40852	3.576	0.353206	-10.1215	19.0144	-12.4207	8.19802	-108.701	0
0.5087	5.33948	-7.1516	-0.700453	18.0551	-13.4953	22.7094	-13.0257	4.51627	-245.087	-0.321492
0.5093	-11.4642	-8.67009	-4.68197	35.7569	-14.0885	22.3772	-12.7232	1.76724	-282.653	-0.321492
0.5100	-24.5773	-12.05	-10.175	56.8246	-14.0885	13.8249	-13.0257	0.24545	-239.31	-0.321492
0.5107	-35.2563	-15.3808	-15.0413	69.9348	-11.6786	2.57401	-7.22719	2.40541	-161.163	-0.321492
0.5113	-20.926	-18.1239	-19.3177	57.7388	-8.30481	0.415162	0.705911	6.67623	-76.6578	-0.321492
0.5120	25.4803	-19.6424	-21.161	28.7343	-9.82489	8.05414	4.36993	10.3089	-70.8449	0
0.5127	46.21	-16.8993	-18.3961	16.8292	-12.9021	14.157	6.807	15.2179	-151.426	0
0.5133	59.3624	-10.1886	-10.4699	30.2718	-14.0885	13.2437	7.42047	24.0541	-200.545	-0.321492
0.5140	148.171	1.07764	3.87092	53.4587	-12.2718	16.8971	10.471	36.8665	-184.669	0
0.5147	268.073	12.3928	16.7003	53.1471	-8.60141	25.7401	14.4376	49.0899	-130.972	0.321492
0.5153	325.473	16.6544	19.4283	-5.13187	-4.96806	27.2761	9.25248	53.9498	-44.6141	-0.964476
0.5160	315.068	18.8097	20.9399	-98.5237	-3.74458	26.3628	6.50447	56.1098	43.8875	-1.28597
0.5167	274.787	20.6221	22.7831	-134.842	-9.23168	21.4639	9.85755	59.1533	89.6642	-0.321492
0.5173	292.808	19.3975	19.7233	-71.9709	-0.0741501	10.1715	8.94154	60.6751	93.0429	-0.321492
0.5180	335.209	17.2912	17.2901	-8.78859	27.6951	8.67689	7.723	61.2642	35.3498	-0.321492
0.5187	228.106	12.0989	13.3455	-20.0912	40.2264	15.0704	5.891	54.588	-71.1355	0
0.5193	-1.37413	6.90668	8.4423	-30.7705	39.5961	15.0704	0.0924407	40.8428	-36.367	-0.321492
0.5200	-219.9	4.4575	6.599	-2.99186	37.7795	8.34476	-7.22719	29.8467	156.803	-0.321492
0.5207	-392.295	0.783737	3.2442	10.1183	28.9185	11.7076	-12.1097	21.5996	271.245	0
0.5213	-474.703	-2.25324	0.221196	-6.66936	20.6879	27.2761	-11.1937	17.0342	276.44	0
0.5220	-461.59	-4.11462	-0.110598	-21.317	14.2739	25.4494	-13.6392	8.78709	271.863	-0.321492
0.5227	-424.057	-5.92701	-0.405525	-10.6377	10.9371	12.9115	-16.6898	-7.36349	162.907	-0.321492
0.5233	-337.055	-4.70242	3.87092	-5.75518	24.3583	21.4639	-12.4207	-18.3596	-147.757	-0.321492
0.5240	-150.919	-1.32256	12.4238	-11.2403	31.0689	39.7725	-10.8912	-21.4032	-419.365	0
0.5247	47.4664	1.07764	20.6449	20.1951	22.8382	52.601	-8.75666	-22.925	-378.457	-0.321492
0.5253	189.041	3.52682	23.4099	71.1606	19.761	50.4837	-4.47917	-23.8577	-151.099	-0.642984
0.5260	262.577	0.783737	17.2901	95.2617	10.3069	25.1173	-5.39518	-29.3558	28.0473	-0.321492
0.5267	276.946	-7.7394	5.38243	106.253	-6.15446	1.32852	-7.22719	-36.0811	109.21	0
0.5273	271.45	-18.1239	-8.6635	122.126	-18.0555	7.4314	-8.75666	-42.1682	137.584	0
0.5280	235.133	-29.4391	-23.2993	103.822	-20.5025	31.2202	-8.75666	-44.6227	144.596	-0.321492
0.5287	128.305	-36.7377	-35.207	72.0748	-20.2059	56.5866	-1.73957	-36.9647	132.389	0
0.5293	8.08774	-40.1175	-41.9166	105.941	-27.8434	77.3032	7.11794	-29.3558	66.7758	0
0.5300	-65.4871	-40.1175	-41.9166	140.43	-21.726	77.0126	12.6056	-24.7904	-36.9847	-0.321492
0.5307	-123.436	-33.9946	-34.5802	54.0613	3.89288	78.8393	13.219	-15.6106	-96.785	0
0.5313	-125.281	-19.3485	-17.8062	-62.5174	19.1678	105.41	13.8325	-3.09266	-89.7732	0
0.5320	-10.2471	2.93901	6.9308	-67.6909	17.9443	133.475	20.5387	12.7634	-47.0483	0
0.5327	104.827	24.8837	30.1195	-67.0883	11.2337	150.579	25.1187	27.7358	-28.7376	-0.321492
0.5333	50.1754	42.9096	48.11	-111.945	0.852726	185.951	25.7321	44.1809	-39.4188	-0.321492
0.5340	-95.3647	58.7803	64.5891	-76.5418	-16.8691	241.5	26.3372	61.2642	-31.1717	0
0.5347	-97.7988	70.3894	78.0083	-46.9348	-33.9237	292.15	26.0347	73.7821	-23.5423	0
0.5353	82.2515	74.651	83.8331	-109.515	-43.7115	364.512	23.5976	78.9857	-58.9284	0
0.5360	203.999	65.1971	74.0637	-127.196	-61.0997	464.608	11.0845	64.6514	-95.5497	0
0.5367	58.7343	43.2035	51.4648	-89.9636	-83.0852	565.285	-1.42863	35.6393	-101.363	0
0.5373	-255.588	16.6544	23.0781	-75.6276	-90.3889	656.537	0.403378	-0.981798	-124.542	0
0.5380	-508.271	-7.7394	-1.6221	-64.3458	-82.7515	691.037	8.33647	-40.6464	-176.131	0
0.5387	-589.149	-21.1609	-13.2349	-54.269	-54.6857	605.265	18.4041	-69.9531	-206.031	0
0.5393	-457.311	-26.9899	-17.5113	-44.8156	-27.8434	367.252	26.3372	-94.3508	-201.163	0
0.5400	-204.314	-32.77	-21.7509	-24.0596	-28.4366	0.705776	26.9507	-119.976	-176.131	-0.321492
0.5407	-59.6765	-37.6684	-23.8891	-18.5537	-0.667351	-367.626	23.5976	-133.426	-101.653	-0.321492
0.5413	-34.9422	-39.4808	-24.5158	-41.4497	76.2263	-580.646	13.5216	-133.132	-15.9128	-0.321492
0.5420	1.37413	-38.599	-23.5942	-67.4	142.739	-561.092	4.97499	-126.996	-13.4787	0
0.5427	57.8313	-35.2192	-20.2394	-73.1967	188.527	-400.881	4.67246	-115.705	-60.1636	-0.321492
0.5433	112.129	-32.4761	-19.6495	-71.9709	214.182	-259.601	3.15139	-101.076	-83.3426	0
0.5440	134.743	-29.733	-19.9445	-75.6276	187.933	-169.552	3.15139	-85.5146	-156.295	0
0.5447	96.2677	-26.696	-19.6495	-75.9393	124.127	-115.249	10.7735	-72.3585	-269.828	0
0.5453	65.762	-25.4715	-21.7509	-71.0567	62.8051	-95.4043	21.4547	-64.455	-272.553	-0.321492
0.5460	88.651	-25.4715	-23.5942	-53.3549	2.3728	-91.4602	26.6481	-58.0243	-189.864	-0.964476
0.5467	90.7711	-25.1286	-23.5942	-14.5853	-66.8834	-76.1822	18.715	-50.1208	-83.6696	-0.964476
0.5473	52.9237	-23.6101	-22.6726	25.6801	-121.532	-42.0144	5.891	-42.7573	36.258	0
0.5480	26.6974	-21.7977	-22.3776	43.382	-145.927	-16.0668	1.00844	-35.7375	81.7441	0
0.5487	50.4895	-19.0546	-20.5343	36.0686	-131.913	-28.5632	1.92445	-25.0849	52.1346	-0.321492
0.5493	152.411	-12.6378	-12.6081	34.5311	-84.6052	-61.527	0.403378	-10.7507	63.1428	-0.321492
0.5500	232.071	-3.77173	-1.32717	57.1155	-34.5539	-110.059	-0.512626	3.63265	162.907	-0.321492
0.5507	167.997	4.75141	7.85244	71.1606	0.852726	-187.861	-1.42863	14.2852	267.612	0
0.5513	39.2216	12.6867	14.2303	62.6213	17.6477	-203.429	-8.44572	21.305	301.472	0
0.5520	-54.7689	18.4668	16.3685	49.802	31.3655	-156.142	-16.6898	25.8704	272.19	0
0.5527	-94.4617	19.3975	17.2901	22.0234	34.7393	-176.901	-16.9923	33.5284	195.895	0
0.5533	-30.3879	16.9483	17.5851	-30.4588	-8.60141	-245.568	-18.8243	45.1136	60.6723	0.321492
0.5540	100.861	12.0989	14.857	-68.3142	-67.217	-248.931	-28.5894	53.0662	-64.7413	0
0.5547	107.575	6.61278	9.36395	-55.7857	-91.909	-176.568	-30.7239	54.588	-83.9603	-0.321492
0.5553	-81.3485	-1.02865	-1.32717	-18.8653	-103.81	-96.9404	-11.1937	52.1335	-56.2036	-0.321492
0.5560	-247.972	-9.25789	-12.0183	11.3441	-115.415	-50.8574	38.5478	49.9735	-26.3034	0
0.5567	-261.085	-8.96399	-12.6081	34.5311	-115.118	-42.5956	95.6173	52.428	8.21074	0
0.5573	-248.875	-5.29023	-10.7649	43.382	-118.492	-63.0631	108.433	49.0899	25.5768	-0.321492
0.5580	-269.016	-5.29023	-12.0183	33.6169	-120.605	-66.0938	78.8352	37.7992	60.091	0
0.5587	-290.059	-5.63311	-12.6081	16.5383	-112.671	-9.34115	51.9769	33.5284	96.0947	0
0.5593	-262.93	-8.67009	-14.7464	7.06412	-105.367	43.1353	36.7158	34.7557	49.0828	-0.321492
0.5600	-165.563	-9.25789	-14.4514	10.43	-98.323	56.2545	23.9001	42.3646	-40.6177	0
0.5607	-99.33	-1.66544	-8.6635	24.4751	-90.3889	85.5649	21.1521	61.6078	-57.4025	0
0.5613	-5.96765	11.4622	3.2442	25.9918	-82.1583	98.9746	30.6147	81.7347	-12.5704	-0.321492
0.5620	227.517	28.8513	21.8615	-4.82022	-77.5981	33.379	26.9507	93.3199	6.97549	0
0.5627	321.782	44.4281	39.2622	-30.1679	-69.664	-64.5992	5.28593	100.634	-34.5142	0
0.5633	274.198	55.4004	53.898	-26.8021	-65.0667	-121.352	-11.1937	110.403	-55.8766	0
0.5640	401.128	56.9189	59.7228	-28.3188	-65.9936	-133.267	-24.9254	107.36	10.0273	0
0.5647	491.154	43.4974	47.5202	-44.8156	-40.6713	-96.3176	-27.6734	82.6674	99.7641	0
0.5653	312.359	24.5898	27.9812	-42.9664	-15.312	-22.7924	-2.9581	50.6117	187.03	0
0.5660	-47.4664	10.2376	12.092	-25.5763	-4.63438	55.0505	23.5976	19.1942	262.707	0
0.5667	-391.078	-1.95934	0.811051	-38.0839	3.29968	151.161	35.4972	-4.02537	226.086	-0.321492
0.5673	-457.939	-15.6747	-7.74185	-81.736	9.08338	253.415	40.0773	-26.3122	28.0473	-0.321492
0.5680	-274.826	-24.5408	-13.2349	-113.171	60.9514	340.059	36.4132	-54.048	-199.02	-0.321492
0.5687	-131.995	-25.1286	-16.2579	-123.851	160.757	414.249	27.8667	-71.7694	-289.338	-0.321492
0.5693	-138.395	-30.0269	-25.1426	-128.421	280.992	462.74	25.4212	-84.2874	-235.641	0
0.5700	-176.242	-41.636	-38.23	-124.453	441.527	490.514	17.4881	-98.6216	-169.41	0
0.5707	-111.54	-46.1915	-40.9949	-109.805	639.581	504.256	-3.56317	-100.143	-170.936	-0.321492
0.5713	-56.9283	-40.9992	-31.2254	-82.9618	777.204	525.927	-12.7232	-80.6056	-159.346	-0.321492
0.5720	-129.247	-32.77	-20.2394	-45.7298	772.644	589.406	1.92445	-43.3955	-96.785	-0.321492
0.5727	-142.988	-27.2838	-12.9031	-13.6711	670.094	614.108	20.2361	-2.20905	-44.2871	-0.321492
0.5733	-9.61891	-22.3855	-4.38705	-2.70099	509.559	447.213	20.8496	28.0303	-12.5704	-0.321492
0.5740	166.78	-14.1563	7.85244	0.664858	322.516	117.906	-6.92465	54.8825	13.9873	0.321492
0.5747	285.78	-5.63311	20.9399	19.5925	120.16	-101.798	-39.573	82.0292	37.4933	0
0.5753	319.348	1.71442	34.0641	50.4045	-106.591	-118.902	-46.9011	97.2962	65.5769	-1.28597
0.5760	387.112	13.9113	47.1884	68.1064	-324.147	-112.177	-45.6825	108.881	94.2418	-0.964476
0.5767	481.417	31.0066	56.9579	60.793	-476.155	-198.863	-60.9437	124.148	102.816	0
0.5773	433.204	38.0112	52.3865	40.9511	-522.536	-367.335	-82.3059	114.674	76.8758	-0.321492
0.5780	187.824	24.8837	29.8245	14.0867	-527.726	-417.362	-81.0789	71.3767	28.6286	-0.642984
0.5787	-167.094	0.783737	0.221196	-7.27188	-531.693	-248.599	-60.3302	12.7634	-1.56222	-0.321492
0.5793	-246.44	-13.5684	-16.2579	-9.70277	-498.103	-61.2364	-34.0854	-39.7137	3.63307	0
0.5800	63.3278	-6.51481	-7.41005	-7.27188	-419.059	35.2057	5.28593	-54.9807	22.852	0
0.5807	359.355	4.4575	6.30407	0.353206	-286.034	17.8105	38.5478	-44.2791	42.6886	0
0.5813	528.726	7.78839	10.5805	21.1092	-82.7515	-120.729	58.6915	-38.4865	67.7204	0
0.5820	580.276	10.8744	13.9353	32.4118	198.611	-298.668	74.2551	-42.1682	93.6605	-0.321492
0.5827	439.604	9.35586	13.3455	17.4525	471.113	-451.53	68.4566	-59.5461	104.015	-0.321492
0.5833	208.868	2.00833	6.30407	0.97651	578.259	-520.198	55.6409	-77.2675	99.4371	-0.321492
0.5840	-81.6234	-6.8577	-1.32717	-2.07768	548.636	-505.875	38.2453	-84.5819	92.1347	0
0.5847	-328.535	-14.1563	-7.74185	-10.6377	478.453	-472.288	1.31938	-78.2002	81.7441	0
0.5853	-426.491	-13.5684	-9.54828	-28.0279	321.885	-370.366	-24.9254	-52.2317	61.2899	0
0.5860	-478.08	-12.05	-12.3132	-29.2538	117.12	-151.866	-27.9843	-38.4865	34.1509	0
0.5867	-438.387	-19.3485	-19.3177	-8.78859	-23.8763	66.3429	-23.4043	-54.048	10.6449	-0.321492
0.5873	-381.341	-31.2515	-26.6541	-0.560974	-148.374	175.572	-20.0428	-83.3547	-15.0046	-0.321492
0.5880	-511.02	-39.1869	-29.3822	-2.70099	-297.935	234.774	-29.5054	-113.594	-41.853	0
0.5887	-638.578	-40.4114	-25.7324	14.3983	-412.052	273.26	-43.548	-130.677	-51.0083	0
0.5893	-562.294	-37.0316	-19.3177	27.5293	-459.953	277.204	-52.3971	-122.136	-51.299	-0.321492
0.5900	-548.553	-25.4715	-8.6635	17.1409	-458.729	302.529	-70.3978	-92.829	-54.6777	0
0.5907	-668.181	-8.08229	4.46078	11.3441	-410.532	290.655	-100.004	-63.8169	-51.6259	0
0.5913	-570.853	9.94366	17.5851	23.5609	-349.803	211.899	-121.366	-34.2157	-34.8411	0
0.5920	-301.366	30.0759	33.4743	31.7885	-322.961	210.695	-120.45	-1.57088	-13.4787	-0.321492
0.5927	-111.854	38.3051	38.9673	26.906	-228.642	321.46	-110.072	10.3089	-2.17984	0
0.5933	-81.0344	34.3375	33.1793	22.9376	-65.9936	369.079	-96.9535	16.1015	0.581291	0
0.5940	-41.9699	34.6804	31.0411	13.7958	43.2666	223.482	-64.9102	27.7358	-3.41509	0
0.5947	177.773	31.5944	26.1379	-8.49772	137.882	89.5089	-27.9843	26.5086	-17.1481	0
0.5953	300.738	16.9483	13.9353	-28.0279	209.289	171.919	-4.79011	19.1942	-32.407	-0.321492
0.5960	344.985	-3.77173	-1.32717	-36.8788	182.113	279.944	14.7401	-5.54716	-41.2353	-0.321492
0.5967	426.491	-20.5731	-13.8247	-44.1923	131.468	279.03	51.6744	-38.4865	-50.1	-0.321492
0.5973	253.429	-24.2469	-16.8846	-54.269	180.296	252.502	105.08	-39.1247	-65.9765	0
0.5980	-18.4526	-24.8347	-18.1012	-54.5807	235.241	150.579	146.577	-28.1285	-83.9603	0
0.5987	-56.0253	-27.2838	-19.3177	-51.2148	198.611	-102.13	164.284	-36.9647	-89.7732	0
0.5993	11.4249	-24.8347	-15.9629	-67.6909	154.047	-304.148	159.401	-51.6426	-88.8649	0
0.6000	80.7204	-22.0916	-11.6865	-81.736	103.699	-261.718	156.343	-48.8935	-90.9721	-0.321492
0.6007	316.914	-27.2838	-15.9629	-76.8534	33.8124	-146.386	165.503	-34.5593	-98.3109	-0.321492
0.6013	515.574	-35.2192	-26.6541	-75.0251	-28.7702	-78.6317	170.99	-21.6977	-115.386	0
0.6020	399.322	-32.77	-27.8706	-62.5174	-115.711	88.0144	168.856	-6.77441	-124.869	0
0.6027	278.477	-20.867	-17.8062	-28.6304	-157.828	333.956	123.997	2.06178	-113.57	-0.321492
0.6033	421.897	-6.8577	-5.89855	-4.52935	-19.9093	369.37	68.7591	7.55985	-89.1555	-0.321492
0.6040	527.47	1.71442	-4.05525	2.18157	171.138	160.626	65.7086	7.26531	-63.5061	0.321492
0.6047	328.496	2.93901	-13.2349	23.8518	224.23	32.1751	57.7755	-10.4071	-44.2871	0
0.6053	58.4202	4.75141	-17.1795	56.5129	222.71	-15.444	36.1023	-23.2686	-32.08	-1.28597
0.6060	63.0137	9.94366	-10.7649	54.9754	219.336	-166.189	36.4132	-18.0651	-29.6459	-0.964476
0.6067	307.452	20.0343	2.35942	33.0144	174.475	-297.422	29.3962	-4.95808	-25.6858	0
0.6073	368.188	31.0066	16.9952	32.1002	90.5743	-282.186	6.20193	9.7198	-3.41509	0
0.6080	132.584	33.4558	23.9997	39.7253	-36.074	-174.161	-13.0257	16.7397	20.4179	0
0.6087	-116.448	30.0759	24.6264	41.242	-153.565	-110.973	-10.2777	17.6233	32.625	0
0.6093	-218.369	22.7774	20.6449	42.4678	-219.188	-113.09	-0.210093	16.7397	43.5968	0
0.6100	-187.549	13.6174	13.3455	44.9195	-231.089	-28.8953	-5.39518	11.8307	63.724	0
0.6107	-207.376	4.4575	3.576	63.5355	-218.557	59.6173	-31.0349	1.4727	92.7159	-0.321492
0.6113	-349.893	-10.4825	-13.5298	101.973	-223.748	-112.8	-72.2298	-15.0215	126.903	-0.321492
0.6120	-419.149	-19.9853	-24.2209	125.18	-218.891	-500.976	-108.853	-20.176	151.317	0
0.6127	-355.075	-18.7607	-21.7509	113.275	-196.609	-853.158	-138.762	-10.1125	150.7	0
0.6133	-228.145	-14.793	-14.4514	91.2933	-206.36	-916.346	-153.41	0.539989	141.871	0
0.6140	-37.1015	-11.1193	-6.52527	79.409	-272.909	-686.554	-139.678	3.63265	134.242	0
0.6147	140.24	-11.7071	-5.89855	73.5915	-339.125	-526.01	-127.165	0.24545	125.995	0
0.6153	140.829	-12.9317	-7.41005	67.7947	-372.678	-566.281	-125.03	3.92719	121.127	0
0.6160	39.8105	-13.8623	-8.6635	59.2555	-380.019	-598.954	-107.635	16.7397	111.354	-0.321492
0.6167	49.9006	-16.0176	-9.25335	47.0595	-293.634	-485.408	-78.0284	31.0739	93.3336	0
0.6173	63.3278	-12.05	-3.76033	22.9376	-151.118	-249.845	-55.7502	42.0701	63.1428	0
0.6180	-45.0322	-6.8577	0.811051	-2.99186	-69.3303	-62.4404	-46.9011	48.7954	28.3379	0
0.6187	-140.24	-5.63311	2.65435	-10.3261	-36.074	-12.9946	-45.0691	62.4915	11.2625	-0.321492
0.6193	-206.748	-4.99632	6.599	-7.58354	-1.59423	24.8267	-40.489	76.8748	8.21074	0
0.6200	-156.729	-2.54715	10.8755	-1.1635	-10.4552	98.684	-32.2534	75.6476	7.26614	0.321492
0.6207	90.4963	7.78839	19.4283	23.2493	-73.9276	166.148	-25.8414	65.5841	10.3179	0
0.6213	122.219	17.2912	27.3545	57.1155	-120.605	223.191	-24.0094	57.6316	12.1708	-0.321492
0.6220	-227.203	11.4622	23.0781	74.2148	-144.407	189.937	-12.1097	55.8152	8.21074	0
0.6227	-498.22	-2.54715	13.6404	70.2464	-162.129	151.783	-1.1261	63.1296	24.3779	0
0.6233	-502.775	-8.37619	12.092	54.6846	-139.847	249.139	-14.5552	82.0292	66.4852	-0.321492
0.6240	-476.234	2.93901	26.1379	50.7162	-76.0409	241.79	-38.968	107.36	109.828	0
0.6247	-412.75	16.0666	41.6954	62.3097	-42.1914	-12.4133	-64.2967	113.496	146.74	0.321492
0.6253	-143.302	11.7561	37.7507	72.6773	-58.9493	-267.53	-92.071	93.3199	150.118	-0.321492
0.6260	106.947	6.61278	32.2577	75.4406	-63.25	-373.438	-115.257	75.3039	104.923	0
0.6267	285.78	20.0343	45.9718	67.7947	-34.8505	-464.068	-124.114	74.4203	59.1464	0
0.6273	619.34	38.3051	61.861	61.7071	-7.08133	-509.528	-115.257	71.0331	72.8794	-0.321492
0.6280	770.102	42.9096	60.6445	77.269	7.56331	-403.33	-102.139	49.0899	105.25	0
0.6287	378.239	34.3375	44.1654	100.456	17.9443	-291.651	-96.9535	13.6961	50.9356	0.321492
0.6293	10.836	23.0713	26.1379	102.908	12.7538	-233.653	-89.928	-20.176	-34.5142	0
0.6300	196.697	9.64976	15.1519	86.4108	-14.0885	-193.383	-73.4484	-40.0083	-10.7176	-0.321492
0.6307	309.611	-9.60078	3.87092	65.0522	31.9587	-168.058	-58.8007	-58.3188	97.9112	0
0.6313	30.9768	-25.4715	-4.68197	27.2176	212.329	-130.818	-45.3716	-66.5659	112.879	0.321492
0.6320	-129.247	-35.5131	-5.60362	-15.5203	371.344	-94.7815	-30.1189	-46.1445	-42.7612	0
0.6327	-89.5933	-44.673	-8.3317	-22.5221	394.812	-79.8357	-13.6392	-25.9686	-165.159	0
0.6333	-110.323	-47.4161	-10.4699	-15.2086	326.483	-52.3935	4.05899	-22.6304	-96.785	0
0.6340	-200.034	-46.1915	-9.88007	-34.1363	234.018	-4.48375	11.0845	-14.0888	1.48956	0
0.6347	-142.085	-47.1222	-8.03677	-51.5265	147.633	38.2779	12.9165	2.69994	-17.7294	0
0.6353	7.14548	-50.1592	-5.89855	-59.4632	73.7793	88.9277	25.7321	15.2179	-74.8049	-0.964476
0.6360	136.549	-53.539	-6.8202	-99.7495	58.5415	172.832	41.9009	9.42526	-79.0919	-1.28597
0.6367	338.586	-47.71	-9.88007	-122.022	58.5415	278.449	48.6154	-19.8814	-52.8248	0.321492
0.6373	338.9	-33.9946	-12.0183	-81.1335	14.9042	345.872	44.3463	-37.6029	-35.7494	0.321492
0.6380	53.2377	-19.9853	-12.9031	-43.2781	-15.312	335.825	30.0012	-20.8141	-26.5941	0
0.6387	-101.489	-11.4132	-13.2349	-31.6846	-12.9021	279.653	10.1685	-20.176	-24.1599	-0.642984
0.6393	-138.395	-12.9317	-20.5343	-21.9195	-14.0885	151.493	-8.14319	-53.1644	-32.407	-0.642984
0.6400	-279.106	-18.1239	-33.6586	-12.1544	-51.9421	-26.7364	-24.6229	-69.3149	-25.0682	0.642984
0.6407	-325.473	-17.83	-42.5064	-1.1635	-115.118	-72.8194	-45.3716	-76.0403	6.06723	0.321492
0.6413	-148.171	-16.3115	-47.4096	7.9783	-149.301	-9.67328	-64.9102	-95.8726	27.4297	0
0.6420	42.8729	-19.9853	-50.1377	3.71905	-144.111	-11.7906	-59.4142	-104.709	16.4215	0.321492
0.6427	121.591	-20.2792	-44.6446	-15.8112	-110.224	4.06859	-21.5723	-108.685	-7.04816	0.321492
0.6433	87.434	-16.3115	-34.8752	-39.933	-9.23168	139.577	12.6056	-112.661	-32.9883	0
0.6440	-2.59122	-12.3439	-28.7923	-53.0432	116.823	243.327	24.2027	-104.12	-54.0601	-0.321492
0.6447	-42.598	-5.63311	-22.3776	-50.9032	155.863	199.07	42.5143	-93.4181	-47.3389	-0.321492
0.6453	-19.9838	-2.25324	-17.1795	-47.5581	147.336	142.65	64.1791	-83.3547	-30.5541	0
0.6460	3.49422	-4.99632	-16.2579	-50.9032	154.343	207.955	64.1791	-64.1605	-32.6976	-0.321492
0.6467	42.5588	-9.25789	-17.5113	-58.2374	143.666	355.628	60.5235	-39.7137	-45.1954	-0.321492
0.6473	129.836	-10.1886	-18.1012	-61.8941	143.369	533.566	58.078	-16.2488	-53.1518	-0.321492
0.6480	163.404	-6.8577	-15.0413	-44.8156	200.131	706.274	63.2631	0.539989	-49.7731	0
0.6487	95.9536	-6.22091	-12.0183	-14.5853	305.721	751.153	94.0879	4.22173	-37.8929	0
0.6493	27.2863	-9.89468	-12.9031	-2.07768	432.962	579.027	119.114	-5.54716	-27.2117	0
0.6500	-6.55657	-7.4455	-8.6635	5.85906	507.743	315.98	116.98	-15.9051	-19.8729	0
0.6507	-27.6397	-1.66544	-3.17047	32.4118	469.592	94.1172	94.0879	-16.5433	-13.4787	0
0.6513	-40.4387	-1.95934	-5.27183	44.9195	320.996	-107.901	62.9606	-6.13624	-10.4269	0
0.6520	-62.1107	-6.22091	-11.6865	31.186	164.131	-211.982	41.5983	-2.50359	-6.46686	-0.321492
0.6527	-84.6857	-12.05	-18.7279	25.3893	50.2738	-161.332	14.7401	-19.5869	1.48956	0
0.6533	-99.0552	-17.1932	-26.3591	28.4435	-75.7443	-90.2147	-18.5218	-37.3083	7.88376	0
0.6540	-128.344	-19.0546	-30.9305	20.5067	-193.235	-47.2039	-26.4549	-38.1919	10.0273	-0.321492
0.6547	-160.97	-16.8993	-27.5757	6.46159	-254.594	-38.361	-13.9417	-32.3993	10.3179	0
0.6553	-176.87	-13.5684	-21.456	-0.249322	-242.99	-102.42	-2.34463	-29.0612	8.21074	-0.321492
0.6560	-182.053	-9.25789	-15.9629	-2.99186	-194.755	-162.245	6.20193	-21.4032	3.30609	-0.321492
0.6567	-205.845	-3.77173	-9.54828	-10.3261	-157.532	-142.401	13.8325	-9.2289	-2.17984	0
0.6573	-253.154	-1.02865	-4.68197	-11.5519	-153.268	-128.659	15.967	-1.86542	0.581291	0
0.6580	-197.286	-1.02865	-3.76033	3.09575	-193.235	-143.937	10.471	-1.57088	13.0791	0
0.6587	24.8521	-1.32256	-4.05525	18.0551	-207.583	-112.177	2.53792	-3.73083	22.852	0
0.6593	184.762	-3.77173	-6.19348	22.0234	-152.341	-118.902	-2.9581	-4.02537	24.9955	0
0.6600	153.039	-7.7394	-8.95842	19.8834	-93.1325	-197.659	-1.42863	-2.79812	24.3779	0
0.6607	65.4479	-9.25789	-9.25335	11.3441	-67.8102	-149.126	1.31938	-3.73083	18.892	0
0.6613	15.3903	-10.4825	-7.74185	-2.38933	-17.7589	44.3808	7.42047	-5.8417	7.88376	0
0.6620	7.14548	-10.8254	-5.27183	-10.3261	73.1861	188.11	17.4881	-4.95808	2.39783	0
0.6627	12.0531	-9.60078	-3.4654	-10.9286	106.739	225.35	18.4041	-2.50359	1.48956	0.321492
0.6633	21.515	-7.7394	-3.17047	-11.8428	66.7721	211.276	19.9336	-1.57088	-2.47049	0
0.6640	31.5657	-5.63311	-1.91703	-11.2403	30.142	150.247	19.9336	3.63265	-2.47049	0.321492
0.6647	17.2355	-5.63311	-1.91703	-2.07768	-4.96806	-66.0938	-2.9581	9.42526	1.16258	0.321492
0.6653	-16.9607	-7.7394	-4.38705	9.82743	-47.9751	-398.763	-16.9923	9.08163	-0.363307	-0.964476
0.6660	-41.9699	-6.8577	-2.24882	9.82743	-65.9936	-570.557	7.11794	10.6525	-3.41509	-1.28597
0.6667	-45.0322	-5.92701	-1.03225	7.37577	-64.4735	-489.393	26.3372	11.5361	-1.27157	0
0.6673	-38.0045	-7.7394	-4.05525	14.0867	-69.9606	-364.263	10.1685	5.44898	6.06723	0.321492
0.6680	-31.605	-8.37619	-4.05525	13.1725	-89.1655	-304.148	-20.0428	2.69994	13.3697	-0.321492
0.6687	-27.0115	-7.4455	-3.76033	-3.61517	-70.2572	-238.843	-44.1531	5.44898	13.3697	0
0.6693	-23.6743	-6.22091	-3.4654	-21.317	-6.15446	-173.538	-57.5822	7.55985	8.50138	0
0.6700	-20.926	-4.11462	-0.700453	-33.8247	21.2811	-116.785	-50.2626	10.6525	3.63307	0
0.6707	-17.2355	-1.32256	2.94927	-39.3097	17.6477	-67.6299	-27.3709	16.7397	0.254315	0
0.6713	-11.739	-0.440852	2.35942	-38.3956	31.9587	-38.0289	-17.9083	18.556	-0.944598	0
0.6720	-7.49883	-0.734753	0.516123	-28.6304	35.6291	-16.6895	-14.2443	17.0342	0.581291	0
0.6727	-6.87065	-0.440852	0.811051	-11.2403	16.0906	9.25811	4.97499	18.8505	7.26614	0
0.6733	-6.87065	0.783737	1.7327	-4.82022	2.3728	56.8772	27.5641	20.3723	10.0273	-0.321492
0.6740	-5.65357	1.71442	2.02763	-1.78681	-12.5684	85.8555	41.5983	20.0778	6.06723	-0.321492
0.6747	-4.75057	1.71442	1.7327	15.0009	-35.7774	67.2563	55.33	19.7832	3.92372	-0.321492
0.6753	-4.75057	2.00833	1.10598	27.8202	-51.0153	35.4964	70.5911	19.1942	0.581291	0
0.6760	-6.87065	2.30223	0.221196	22.9376	-59.5796	15.0704	69.0616	18.556	-4.32335	0
0.6767	-9.61891	3.82072	0.811051	13.1725	-51.0153	37.3231	47.6994	20.0778	-3.99638	0
0.6773	-11.4642	6.61278	3.2442	8.28995	30.4386	69.9963	29.6987	21.5996	-0.0363307	0
0.6780	-14.2124	5.976	2.02763	8.91325	142.442	51.3971	15.051	18.8505	3.30609	0
0.6787	-17.5496	4.75141	-0.405525	14.3983	168.395	13.2437	0.0924407	15.807	10.0273	0
0.6793	-20.612	5.976	0.221196	18.0551	127.204	-12.704	-5.09264	14.5797	16.7485	-0.321492
0.6800	-25.1662	6.90668	1.10598	19.2809	88.1274	-29.4765	-13.0257	15.5124	19.1826	-0.321492
0.6807	-27.0115	7.78839	1.10598	21.7118	46.937	-25.8231	-26.1523	17.6233	18.565	0
0.6813	-23.3602	8.71908	1.43777	18.9692	0.556126	-27.0686	-29.5054	17.6233	14.3143	0.321492
0.6820	-19.9838	11.4622	3.87092	8.91325	-26.3233	-46.2906	-20.3538	18.2614	7.59312	0.321492
0.6827	-18.4526	14.842	7.22572	3.4074	-38.521	-35.5794	-8.44572	22.2377	2.10718	0
0.6833	-16.0184	12.6867	6.00915	4.32158	-51.9421	8.9675	-5.70612	21.9432	-0.363307	-0.321492
0.6840	-11.4642	9.01298	4.16585	4.94488	-65.0667	40.6859	-4.17664	19.1942	0.254315	-0.321492
0.6847	-6.87065	8.71908	4.46078	0.97651	-79.1181	51.3971	0.705911	16.4451	0.581291	-0.321492
0.6853	-5.02539	9.35586	3.2442	-3.30351	-85.8287	62.0667	-2.0421	7.90348	-2.79746	0
0.6860	-4.43648	9.94366	4.16585	-4.82022	-76.3746	77.0126	-1.73957	2.99448	-3.99638	0
0.6867	-4.43648	9.94366	3.87092	-5.75518	-67.5136	90.4638	6.807	4.22173	-5.84924	0
0.6873	-4.12239	8.71908	0.811051	-7.58354	-53.7959	98.3934	10.471	7.26531	-9.19167	-0.321492
0.6880	-3.21939	8.42517	-1.03225	-10.6377	-32.7373	96.8573	7.42047	13.3525	-11.0445	-0.321492
0.6887	-1.06004	8.71908	-0.405525	-10.0144	-25.9896	102.047	6.20193	16.4451	-11.3352	0
0.6893	1.68822	9.35586	1.10598	-0.249322	-19.279	126.458	9.55501	15.807	-8.57405	0
0.6900	3.18013	9.35586	1.10598	9.51578	-12.5684	117.283	12.9165	14.2852	-6.13989	-0.321492
0.6907	3.49422	8.71908	0.221196	11.6558	0.556126	24.204	19.3201	8.78709	-5.23162	-0.321492
0.6913	3.49422	8.13127	-0.110598	6.14994	66.4755	-64.2671	27.5641	4.22173	-3.41509	-0.321492
0.6920	3.18013	8.71908	-0.700453	-2.70099	136.028	-51.4801	26.6481	4.81081	-2.47049	0
0.6927	3.18013	9.94366	-0.700453	-8.18606	173.289	-19.0975	17.799	5.15444	-5.84924	0
0.6933	4.43648	11.1683	0.811051	-8.49772	221.783	-19.7202	18.1016	3.92719	-14.6776	0
0.6940	5.65357	11.7561	2.35942	-12.1544	242.545	20.8827	30.3122	4.51627	-25.9764	0
0.6947	4.12239	10.5805	1.43777	-17.9512	206.545	102.67	33.9678	6.67623	-26.5941	-0.321492
0.6953	1.96304	9.01298	-0.405525	-13.0686	156.197	170.092	28.1692	12.4688	1.7802	-1.28597
0.6960	1.37413	8.71908	-0.700453	-4.21769	99.4353	206.709	30.6147	19.1942	49.0828	-0.964476
0.6967	0.157043	7.78839	-1.03225	-2.38933	27.1019	202.433	39.1613	22.8268	77.1664	0
0.6973	-1.06004	7.78839	-1.6221	-3.61517	-38.2244	52.601	45.5649	24.6431	68.6287	0
0.6980	-2.0023	8.42517	-0.700453	-6.04605	-76.9678	-246.15	46.7834	23.1213	58.8557	0
0.6987	-2.0023	8.42517	-0.700453	-7.27188	-102.624	-383.817	39.7663	20.3723	30.1545	0
0.6993	-3.53348	7.49449	-1.6221	-7.27188	-120.309	-247.686	27.2532	10.9471	-64.1237	0
0.7000	-5.65357	5.68209	-3.76033	-6.35771	-123.349	-91.4602	14.7401	-15.6106	-124.542	0
0.7007	-5.65357	5.68209	-2.83868	-0.249322	-117.862	-29.8086	8.94154	-33.332	-88.5379	0
0.7013	-4.75057	6.61278	-1.32717	7.06412	-113.895	2.86462	2.84045	-26.3122	-49.4824	0
0.7020	-2.59122	5.04531	-2.54375	8.6016	-105.96	43.7581	-13.0257	-18.3596	-42.4706	0
0.7027	1.96304	5.976	-0.700453	5.85906	-88.5723	81.2887	-23.4043	-12.567	-37.8929	-0.321492
0.7033	5.33948	6.90668	-0.405525	4.0307	-77.2644	29.7256	-29.5054	-8.88527	-15.0046	-0.321492
0.7040	6.55657	5.04531	-1.91703	10.1183	-64.1398	-91.7508	-38.6654	-9.52344	24.6685	0
0.7047	9.30483	5.68209	0.516123	15.6242	-38.521	-114.958	-40.1865	-7.36349	43.3062	-0.321492
0.7053	10.5219	5.38819	1.43777	14.0867	-21.726	-44.1317	-38.6654	-8.29619	31.0991	-0.321492
0.7060	8.99074	3.52682	0.221196	19.8834	-15.0154	6.22743	-39.573	-11.9779	21.3261	0
0.7067	8.40183	6.2699	2.02763	23.5609	-4.63438	32.4657	-34.388	-11.0452	33.5332	0
0.7073	9.89374	9.01298	4.46078	10.1183	6.97011	58.4133	-28.5894	-8.88527	57.0392	0
0.7080	11.4249	10.5805	4.79257	-4.82022	13.9773	78.5487	-29.2029	-10.7507	79.9275	-0.321492
0.7087	11.1501	14.2052	6.00915	-6.66936	17.9443	69.3736	-30.4214	-11.9779	99.7641	-0.321492
0.7093	8.99074	16.3605	5.71422	-0.851849	19.761	8.67689	-29.5054	-11.6343	100.345	0
0.7100	6.87065	18.8097	2.35942	10.1183	18.5375	-37.7382	-25.2363	-13.1561	86.0311	-0.321492
0.7107	6.55657	20.916	0.516123	14.71	24.9515	-13.6173	-22.4883	-11.3398	45.4134	-0.321492
0.7113	5.65357	9.35586	3.87092	-3.61517	40.2264	34.583	-20.0428	-1.86542	-64.1237	0
0.7120	3.49422	-1.32256	4.79257	-30.1679	45.4169	66.9656	-9.36173	2.40541	-157.53	0
0.7127	-2.0023	9.01298	1.43777	-41.1381	43.2666	86.4783	6.50447	-2.20905	-134.932	0
0.7133	-8.71591	6.61278	3.576	-39.0189	43.2666	108.15	17.799	-4.02537	-76.3308	0
0.7140	-12.6813	-13.2256	7.52065	-28.9421	45.4169	121.269	19.9336	-4.02537	-53.1518	0
0.7147	-11.1501	-11.7071	4.79257	-10.6377	56.6877	139.287	19.3201	-0.343629	-17.4387	0
0.7153	-2.59122	3.82072	6.599	9.20413	69.2191	166.729	20.5387	12.1743	26.1944	0
0.7160	11.1501	1.42052	11.2072	25.3893	76.8195	45.5848	23.5976	45.4082	20.4179	0
0.7167	18.7667	-19.0546	4.16585	35.1544	76.5229	-214.431	27.8667	99.4562	-10.4269	0
0.7173	12.3672	-48.0529	-8.6635	32.7027	69.5157	-284.012	27.8667	144.275	-22.307	0
0.7180	2.27713	-95.0281	-12.3132	32.7027	63.3983	-144.227	19.9336	149.479	-7.66578	-0.321492
0.7187	-0.785217	-110.899	-6.52527	47.0595	54.8711	-61.527	8.03394	107.36	12.1708	0
0.7193	3.49422	-58.0945	0.811051	53.1471	47.5302	-63.3537	-3.26064	55.4716	0.871937	0
0.7200	9.61891	-5.29023	5.0875	29.6485	41.4499	-50.8574	-13.0257	42.3646	-21.1081	-0.321492
0.7207	12.9561	11.4622	2.94927	6.14994	31.3655	-4.48375	-20.9588	55.4716	-18.347	0
0.7213	17.2355	17.879	-8.03677	21.7118	28.9185	36.4097	-21.5723	45.1136	5.15896	0
0.7220	20.2979	23.0713	-12.0183	40.6394	42.97	46.4982	-17.9083	-16.8378	40.8357	0
0.7227	14.8013	34.6804	4.79257	19.8834	69.8123	45.2942	-19.1268	-88.8527	72.8794	0
0.7233	5.33948	34.0436	4.46078	0.0623304	86.9039	40.6859	-19.1268	-93.7617	86.6124	-0.321492
0.7240	2.9053	-9.25789	-32.1471	11.6558	84.7535	25.4494	-9.67266	-32.6939	90.6088	-0.321492
0.7247	12.0531	-43.1545	-41.6216	7.06412	73.1861	4.06859	3.45392	49.9735	69.8276	0
0.7253	26.6974	-22.3855	-7.11513	-43.5898	56.0945	-7.51443	3.45392	108.587	-2.47049	0
0.7260	34.314	-0.734753	14.562	-90.5869	39.8927	11.0848	-4.47917	74.7148	-76.3308	-0.321492
0.7267	31.5657	2.64511	12.092	-91.1894	35.0359	34.583	-2.0421	-35.7375	-98.6015	0
0.7273	24.8521	16.3605	7.85244	-78.0793	36.2594	41.5992	0.0924407	-137.059	-79.3826	0
0.7280	17.8637	29.1942	6.30407	-71.9709	38.7063	68.1696	-10.2777	-188.358	-22.634	-0.964476
0.7287	14.4873	29.782	6.30407	-41.4497	41.1162	86.1877	-13.9417	-181.633	30.1545	-1.60746
0.7293	12.9561	23.6591	5.0875	1.89069	42.0431	28.8123	-11.1937	-145.012	10.9355	-0.321492
0.7300	10.836	14.842	3.2442	20.7976	44.49	-52.0613	-10.8912	-116.932	-29.0282	0.321492
0.7307	8.99074	9.35586	6.9308	24.4751	49.0503	-75.5595	-6.62212	-90.3745	-25.6858	0
0.7313	5.02539	3.82072	6.00915	28.7343	54.5745	-41.6823	-8.14319	-65.6823	-15.9128	0
0.7320	0.745957	-2.89003	-0.405525	32.4118	51.8309	0.415162	-19.7403	-54.3916	-16.8211	0
0.7327	-0.47113	-4.99632	0.516123	27.5293	37.4829	20.2599	-19.4378	-43.1009	-9.19167	0
0.7333	-2.27713	-7.7394	2.35942	17.1409	24.3583	28.1895	-9.05919	-32.3993	-3.99638	0
0.7340	-5.96765	-12.05	2.02763	13.7958	30.4386	23.9133	-4.79011	-26.9013	-6.13989	0.321492
0.7347	-8.99074	-11.1193	6.00915	19.2809	49.6806	-1.41155	-2.34463	-16.5433	1.16258	0
0.7353	-12.9953	-4.11462	4.16585	23.2493	45.7135	-25.8231	-2.9581	-9.81798	20.4179	0
0.7360	-17.5496	4.4575	-0.700453	22.0234	29.2151	-25.5325	-2.9581	-17.7705	36.258	0
0.7367	-22.1431	11.7561	1.10598	22.6259	27.6951	-13.9079	5.28593	-21.4032	50.318	0
0.7373	-28.2286	19.1036	-4.05525	18.9692	27.3985	-10.5866	14.135	-18.0651	68.3017	0
0.7380	-31.8798	21.8467	-18.1012	1.89069	22.8382	0.415162	19.0176	-4.31991	85.0865	0
0.7387	-28.5427	15.7237	-19.6495	-3.90604	17.0174	33.6696	19.3201	32.8902	100.055	0
0.7393	-21.515	13.9113	-8.6635	10.1183	9.37998	51.6877	9.25248	56.1098	82.6523	-0.321492
0.7400	-14.4873	19.6914	-10.7649	25.6801	8.15651	30.9296	0.403378	46.93	8.79203	0
0.7407	-7.18474	2.64511	-20.8661	40.0369	7.26671	11.0848	-0.512626	47.8627	-52.2435	-0.321492
0.7413	-2.9053	-44.3791	-19.9445	54.0613	3.00308	9.88086	1.31938	60.3806	-46.4306	-0.964476
0.7420	-1.06004	-69.4097	-12.3132	53.7704	4.18948	11.7076	4.97499	32.3012	-23.8329	-0.321492
0.7427	1.68822	-50.1592	-3.17047	45.2103	5.74663	10.7942	5.28593	-22.925	-21.3988	0
0.7433	6.87065	-24.8347	1.7327	63.2238	-0.0741501	7.14079	2.23539	-55.2752	-18.0564	-0.321492
0.7440	9.89374	-7.7394	-0.700453	89.1741	-6.48813	5.8953	1.62191	-70.2477	-7.99275	0
0.7447	10.836	6.2699	2.02763	65.0522	-7.71161	8.67689	1.62191	-73.9294	8.79203	0
0.7453	11.1501	13.3235	12.092	-9.70277	-6.48813	12.3303	3.15139	-69.6095	26.8121	0
0.7460	9.61891	14.2052	16.0735	-70.1425	-5.56126	18.1011	5.28593	-64.455	20.0909	0
0.7467	6.87065	14.4991	15.1519	-75.6276	-5.85786	26.0722	3.75646	-51.0044	11.2625	0
0.7473	5.92839	19.6914	15.1519	-46.3323	-7.08133	31.2202	1.62191	-26.3122	19.4733	0.321492
0.7480	5.65357	24.2958	13.0137	-23.4362	-7.71161	29.7256	0.0924407	-1.27634	28.3379	0
0.7487	3.18013	15.7237	9.06902	-31.9963	-8.60141	25.7401	-1.73957	15.807	56.7122	0
0.7493	-0.157043	6.2699	8.4423	-53.0432	-9.23168	24.204	-1.73957	36.2774	82.9793	0
0.7500	-2.27713	-0.146951	9.65887	-45.7298	-9.23168	24.8267	-1.1261	49.3844	66.4852	0
0.7507	-4.75057	-13.8623	6.9308	-31.6846	-11.345	27.2761	-1.42863	46.93	9.11901	0
0.7513	-8.71591	-24.8347	1.43777	-39.6214	-12.5684	28.8123	0.0924407	49.9735	-45.1954	-0.321492
0.7520	-13.8983	-27.2838	-0.110598	-38.7072	-13.4953	26.3628	-0.512626	32.3012	-41.2353	-0.321492
0.7527	-16.9607	-19.9853	4.16585	-16.1228	-15.0154	25.4494	-2.34463	-14.3833	-35.7494	0
0.7533	-17.5496	-11.4132	8.4423	10.1183	-13.7919	30.639	1.62191	-28.7176	-68.4107	0
0.7540	-17.8637	-16.6054	12.7187	15.0009	-13.4953	19.0144	5.891	4.81081	-65.032	0.321492
0.7547	-17.8637	-21.5038	16.0735	-11.8428	-16.8691	-16.3574	4.97499	48.7954	-22.634	0
0.7553	-14.8013	-15.3808	10.5805	-33.8247	-20.2059	-34.9982	2.53792	64.3569	-8.2834	-1.28597
0.7560	-8.99074	-2.25324	-6.52527	-33.2013	-22.3562	-23.9964	2.23539	36.572	-3.41509	-0.642984
0.7567	-1.68822	5.38819	-20.2394	-24.9737	-22.3562	-9.34115	3.75646	-4.02537	18.2743	0.321492
0.7573	3.18013	-4.70242	-19.0228	-16.4345	-20.5025	-2.03429	5.891	-27.5394	21.6168	0
0.7580	3.49422	-16.0176	-12.9031	-10.3261	-20.2059	-1.70216	4.36993	-20.8141	15.8402	-0.321492
0.7587	0.745957	-8.08229	-10.4699	2.49322	-20.2059	-3.57039	1.00844	29.2576	40.8357	0
0.7593	-0.157043	7.20058	-6.19348	24.4751	-19.6127	-2.03429	1.92445	62.8351	107.067	0.321492
0.7600	1.96304	16.6544	-3.17047	39.4136	-21.1328	-1.41155	1.92445	17.0342	199.855	0
0.7607	4.12239	22.7774	-2.24882	42.4678	-21.1328	-0.498195	1.62191	-53.7534	271.572	-0.321492
0.7613	2.9053	23.0713	-0.405525	43.6936	-18.6858	3.77798	4.05899	-88.8527	263.034	0
0.7620	1.06004	16.6544	-0.405525	46.1245	-20.8362	5.31407	2.53792	-80.3111	157.421	0
0.7627	3.49422	12.9806	-1.03225	50.4045	-23.8763	4.06859	1.00844	-49.4826	2.39783	0
0.7633	6.87065	13.9113	-1.91703	30.8743	-24.4695	3.48736	2.23539	-28.4231	-116.004	0
0.7640	7.14548	20.3282	-2.54375	-24.0596	-25.0998	3.48736	3.75646	-17.1324	-177.657	0
0.7647	7.77365	30.7127	0.811051	-48.4723	-23.5797	3.77798	7.42047	-10.4071	-221	-0.321492
0.7653	12.0531	36.7867	7.22572	-20.0912	-20.8362	3.77798	10.471	-7.36349	-201.781	0
0.7660	15.3903	38.9419	9.9538	-10.9286	-20.2059	5.31407	9.25248	-4.31991	-120.582	0
0.7667	15.1154	38.9419	2.35942	-48.1607	-19.9093	7.14079	8.03394	-0.0490899	-76.0402	0
0.7673	13.8591	36.4928	-4.38705	-80.8218	-20.2059	7.14079	7.42047	10.0143	-99.2191	0
0.7680	10.5219	34.9743	0.221196	-76.5418	-21.1328	7.72202	7.42047	20.0778	-141.944	-0.321492
0.7687	6.55657	28.5574	4.79257	-54.8716	-20.5025	7.4314	8.03394	23.7595	-118.147	-0.321492
0.7693	4.7113	17.5851	3.2442	-21.0054	-20.2059	2.86462	8.94154	25.8704	-15.2952	0
0.7700	3.18013	15.7237	-3.17047	11.9467	-20.2059	-1.41155	9.55501	26.214	70.1546	0
0.7707	1.68822	13.6174	-10.175	8.6016	-18.6858	-4.15162	8.03394	21.5996	81.7441	0.321492
0.7713	3.18013	3.52682	-8.3317	-9.70277	-17.7589	-5.68772	6.20193	20.7159	45.1227	0
0.7720	8.08774	4.75141	1.7327	-15.5203	-17.4623	-6.60108	5.891	31.0739	-1.56222	0
0.7727	10.2078	14.4991	13.3455	-21.6079	-17.4623	-7.80505	7.11794	37.5047	-53.1518	0
0.7733	8.67665	15.7237	24.6264	-22.2312	-18.0555	-5.68772	6.807	30.7794	-89.7732	0.321492
0.7740	7.77365	14.842	32.2577	-20.4028	-18.6858	-2.32491	4.97499	35.9338	-79.0919	0
0.7747	6.55657	17.2912	30.1195	-36.8788	-18.9824	-0.207581	4.67246	67.695	-46.4306	-0.321492
0.7753	4.43648	1.71442	18.8385	-55.1832	-17.7589	4.69133	6.20193	95.7744	-3.41509	0
0.7760	3.8083	-17.1932	10.5805	-41.1381	-15.312	15.9837	7.11794	85.4164	53.6604	0
0.7767	4.7113	-13.8623	7.52065	3.09575	-13.4953	29.1029	7.11794	57.6316	129.664	0
0.7773	5.92839	-7.4455	0.811051	34.2402	-13.4953	43.7581	8.94154	77.7584	217.839	0
0.7780	9.30483	-1.95934	-2.54375	23.8518	-13.4953	60.5306	8.33647	120.81	207.485	0
0.7787	13.2702	10.5805	0.516123	-9.10024	-13.7919	62.0667	6.50447	102.794	61.6169	0
0.7793	15.7043	17.2912	2.94927	-36.5672	-12.5684	52.3104	6.807	48.4517	-88.8649	0
0.7800	18.1385	15.7237	-0.405525	-42.0523	-9.82489	55.3411	10.1685	9.7198	-176.422	0.321492
0.7807	18.7667	12.3928	0.516123	-26.1996	-9.52829	53.805	12.303	-30.583	-186.812	0.321492
0.7813	15.7043	6.61278	7.85244	-13.6711	-10.1215	16.6065	11.0845	-81.2438	-126.685	0
0.7820	10.2078	0.783737	9.06902	-20.4028	-11.345	-33.1715	7.723	-96.5108	-50.1	0
0.7827	4.7113	-1.95934	9.36395	-31.6846	-10.4552	-53.3068	6.20193	-54.6862	22.2344	0
0.7833	0.157043	-0.146951	17.2901	-35.0505	-8.93508	-44.1317	7.42047	-16.2488	10.0273	0
0.7840	-4.12239	2.00833	20.6449	-35.9647	-8.93508	-24.9097	9.25248	-9.2289	-82.1437	0
0.7847	-7.49883	14.4991	9.36395	-36.5672	-10.1215	-12.4133	9.55501	-20.8141	-79.3826	0
0.7853	-8.08774	37.4234	-2.83868	-35.3414	-12.9021	-9.67328	6.807	-39.7137	-29.6459	-1.28597
0.7860	-8.08774	25.2265	-7.41005	-25.8879	-14.0885	-8.42779	4.36993	-39.7137	-70.2272	-1.28597
0.7867	-9.30483	-11.4132	-15.0413	2.80487	-13.1987	-9.34115	3.45392	-28.4231	-103.506	-0.321492
0.7873	-7.77365	-41.3421	-18.7279	49.1787	-9.82489	-10.8772	3.75646	-21.1087	-38.5105	0.321492
0.7880	-2.27713	-65.7359	-9.25335	81.8399	-6.78473	-10.2545	4.05899	-5.54716	44.5051	0.321492
0.7887	0.745957	-58.0945	-2.83868	87.6366	-8.00821	-11.1679	1.31938	13.0579	68.6287	0
0.7893	1.06004	-50.796	-6.52527	80.0115	-9.52829	-12.0812	-1.42863	24.3486	61.2899	0
0.7900	5.33948	-67.8912	-11.0966	55.5988	-8.93508	-11.7906	-1.73957	28.6194	46.031	-0.321492
0.7907	11.739	-22.0916	-13.2349	23.8518	-9.23168	-10.5866	-1.42863	17.9669	-4.32335	-0.321492
0.7913	15.7043	93.2647	-5.89855	6.46159	-8.93508	-7.22382	0.705911	17.3287	-56.8212	-0.321492
0.7920	17.2355	144.844	5.71422	4.0307	-8.93508	-5.39711	-0.512626	54.8825	-29.9365	-0.321492
0.7927	18.1385	88.6603	4.16585	7.06412	-9.52829	-4.15162	-3.56317	86.5946	36.8757	-0.321492
0.7933	20.5727	-8.08229	-8.03677	12.2583	-7.71161	-0.498195	-3.26064	86.5946	30.1545	0
0.7940	25.7944	-92.9218	-16.5897	16.8292	-6.15446	1.95126	-2.9581	88.1655	-14.387	0.321492
0.7947	33.7251	-119.128	-14.1565	25.3893	-5.85786	2.57401	-2.34463	90.2763	13.0791	0.321492
0.7953	39.2216	-121.871	-7.11513	35.4452	-5.56126	2.24188	-2.0421	83.2565	82.6523	-0.321492
0.7960	38.2794	-128.582	1.7327	33.326	-6.78473	-0.498195	-4.47917	78.6911	79.9275	-0.321492
0.7967	33.7251	-103.6	13.9353	24.4751	-8.00821	-3.57039	-6.92465	60.6751	37.4933	0
0.7973	29.4457	-94.4403	24.6264	22.0234	-8.60141	2.24188	-8.14319	1.76724	77.1664	0
0.7980	24.8521	-73.3774	32.5526	19.8834	-11.0484	15.9837	-6.62212	-79.0838	105.25	-0.321492
0.7987	19.6697	1.07764	38.6724	13.7958	-14.0885	22.7094	-6.00865	-114.821	-13.7693	0
0.7993	19.9838	27.3328	41.4004	16.2267	-14.7188	24.204	-6.62212	-73.9294	-105.032	0
0.8000	21.515	27.0389	36.5341	22.0234	-14.0885	25.7401	-3.87411	2.06178	-54.3507	0
0.8007	18.4526	74.0142	20.35	16.5383	-15.9423	26.9855	0.403378	69.5113	-32.6976	0
0.8013	15.3903	111.242	5.71422	8.91325	-18.0555	29.7256	2.53792	108.881	-65.3589	0
0.8020	14.1732	110.948	-3.4654	9.82743	-17.7589	29.3935	1.62191	141.87	-69.319	0
0.8027	10.836	92.0401	-10.4699	8.91325	-15.9423	28.4801	1.92445	188.554	-90.0638	0
0.8033	10.5219	79.5493	-11.3916	1.57904	-14.0885	35.4964	3.15139	198.323	-138.275	-0.321492
0.8040	15.7043	99.3387	-10.7649	-5.44353	-12.9021	41.018	1.92445	138.826	-154.151	-0.321492
0.8047	21.829	115.209	-13.2349	-8.78859	-11.345	38.5686	-1.42863	59.1533	-122.434	-0.321492
0.8053	22.418	106.686	-4.68197	-0.249322	-10.4552	35.8285	-3.56317	11.5361	-83.9603	-0.321492
0.8060	14.1732	96.5956	10.8755	25.0776	-9.52829	33.379	-2.0421	-27.1958	-53.7694	-0.321492
0.8067	2.9053	49.0326	16.9952	42.7795	-9.82489	8.9675	-1.73957	-70.2477	-5.23162	-0.321492
0.8073	1.96304	-85.5743	7.85244	22.0234	-11.6786	-51.7707	-3.56317	-49.1881	35.0591	0
0.8080	10.836	-269.606	-8.6635	-12.4661	-13.1987	-95.1136	-5.70612	52.7226	23.4696	0
0.8087	18.7667	-402.939	-15.668	-14.2944	-14.0885	-79.8357	-6.92465	128.714	-11.9528	0
0.8093	21.515	-454.519	-8.3317	2.80487	-13.7919	-49.0306	-6.31118	123.559	-22.634	0
0.8100	21.515	-494.195	16.0735	7.37577	-12.9021	-35.9115	-5.70612	119.288	-11.6258	-0.321492
0.8107	23.635	-545.775	42.9119	9.82743	-11.345	-28.8953	-6.00865	129.057	12.7884	0
0.8113	26.0692	-506.392	48.11	22.6259	-8.60141	-21.5469	-4.79011	93.0254	39.6368	0
0.8120	27.2863	-347.391	37.7507	25.0776	-7.08133	-16.3574	-4.17664	15.5124	49.7004	0
0.8127	28.2286	-111.536	27.3545	0.664858	-8.30481	-12.704	-4.17664	-63.2278	53.6604	0
0.8133	28.8175	170.463	28.2762	-20.0912	-10.1215	-9.96389	-4.17664	-119.092	69.2463	-0.321492
0.8140	24.2632	353.563	25.843	-15.2086	-10.7518	-8.42779	-5.39518	-137.992	105.25	0
0.8147	14.4873	392.652	5.71422	-8.18606	-11.0484	-9.05053	-5.39518	-93.1236	149.501	-0.321492
0.8153	7.45957	414.009	-8.6635	-9.4119	-11.9752	-10.8772	-2.9581	-11.6343	145.831	-1.28597
0.8160	10.2078	428.655	-15.3731	-5.44353	-10.7518	-9.67328	-1.73957	37.1611	106.449	-0.964476
0.8167	11.739	359.05	-33.9904	4.32158	-9.52829	-6.89169	-2.34463	32.5957	94.8595	0.321492
0.8173	4.7113	254.078	-49.216	5.23576	-11.0484	-5.68772	-2.64717	28.963	39.9274	0
0.8180	5.92839	203.723	-39.1516	-3.30351	-14.0885	-5.39711	-3.56317	42.0701	-43.9965	-0.321492
0.8187	18.7667	186.333	-13.2349	-6.66936	-15.9423	-6.60108	-5.70612	13.0579	-20.4905	0
0.8193	26.0692	142.395	0.516123	-5.44353	-15.9423	-6.31046	-6.31118	-45.2118	57.3298	0
0.8200	23.321	101.494	-0.405525	-10.6377	-12.9021	-2.32491	-4.47917	-85.2201	49.4098	0
0.8207	15.1154	90.5216	1.43777	-21.0054	-11.0484	1.03791	-2.64717	-115.999	-32.407	0
0.8213	6.55657	69.1648	11.2072	-28.0279	-11.345	1.32852	-1.73957	-150.804	-87.339	0
0.8220	-0.157043	31.0066	18.8385	-26.8021	-11.0484	2.24188	-1.42863	-172.453	-94.6415	-0.321492
0.8227	-7.18474	-10.8254	14.2303	-17.037	-10.1215	3.15523	-2.0421	-152.031	-31.4624	-0.321492
0.8233	-14.8013	-76.7083	-1.32717	-1.1635	-8.00821	2.86462	-1.73957	-116.932	114.078	0
0.8240	-23.6743	-159.735	-19.0228	14.71	-4.33778	1.95126	-1.73957	-89.7854	251.118	0
0.8247	-30.0738	-160.666	-26.3591	21.4209	-4.33778	-0.498195	-3.56317	-52.8698	307.285	0
0.8253	-28.5427	-48.9346	-22.0827	21.1092	-6.78473	-3.23826	-4.17664	-43.69	276.767	0
0.8260	-23.6743	41.0972	-20.5343	17.7434	-8.00821	-5.68772	-3.56317	-51.6426	178.493	-0.321492
0.8267	-17.2355	76.4633	-21.456	6.14994	-10.7518	-6.31046	-4.17664	-30.583	-30.5541	-0.321492
0.8273	-6.87065	132.011	-11.0966	0.664858	-12.2718	-1.70216	-2.34463	-14.3833	-293.625	-0.321492
0.8280	1.06004	158.854	9.06902	10.7416	-10.4552	2.57401	1.31938	-20.5196	-331.481	-0.642984
0.8287	5.02539	118.001	24.3315	19.5925	-7.37793	2.86462	0.403378	-44.2791	-111.426	-0.321492
0.8293	5.65357	64.2664	30.7093	16.8292	-3.1143	1.95126	-0.823563	-65.3387	50.6087	0
0.8300	-3.8083	13.6174	34.3959	7.06412	-2.18743	1.03791	-1.1261	-62.9333	21.3261	0
0.8307	-15.4295	-29.4391	28.5711	-3.90604	-2.8177	2.24188	0.705911	-79.0838	-81.2354	-0.321492
0.8313	-25.7944	-47.4161	-3.76033	-5.13187	-2.5211	3.15523	4.05899	-111.434	-139.51	-0.321492
0.8320	-38.0045	-53.539	-59.3173	9.82743	-4.33778	0.124549	3.75646	-115.705	-101.98	0
0.8327	-41.6558	-86.505	-96.8468	28.4435	-8.93508	-3.23826	1.62191	-91.6018	-18.347	0
0.8333	-34.9422	-184.129	-103.556	33.6169	-14.7188	-4.48375	-1.1261	-58.957	40.2544	-0.321492
0.8340	-30.9768	-238.452	-102.93	21.4209	-17.4623	-2.94765	-1.1261	-25.9686	57.0392	-0.321492
0.8347	-26.1085	-79.7942	-83.7225	1.89069	-17.4623	-1.41155	0.403378	4.22173	77.4571	-0.321492
0.8353	-18.7667	71.614	-30.9305	-5.75518	-15.9423	-0.788808	-0.823563	25.5758	93.3336	-0.321492
0.8360	-16.9607	-29.4391	29.1978	5.23576	-15.0154	-0.207581	-2.0421	25.8704	48.1745	-0.321492
0.8367	-17.2355	-128.582	64.2942	23.8518	-17.4623	-1.12094	-2.34463	4.81081	23.1427	-0.321492
0.8373	-10.2471	-86.1621	63.3725	30.5627	-16.2389	-1.12094	-2.0421	-0.981798	57.0392	0
0.8380	-1.37413	-107.862	40.1839	20.5067	-12.5684	1.03791	0.705911	28.3249	57.6205	-0.321492
0.8387	1.68822	-178.643	16.9952	14.0867	-11.6786	1.32852	1.62191	28.6194	6.97549	-0.321492
0.8393	-0.47113	-84.6436	10.8755	16.2267	-11.345	-1.70216	0.0924407	-22.925	-63.833	-0.321492
0.8400	-7.77365	152.143	10.5805	8.91325	-11.6786	-3.57039	-1.1261	-51.0044	-108.992	0
0.8407	-20.612	265.05	-2.54375	0.664858	-12.5684	-1.41155	-0.512626	-46.7336	-99.5461	0
0.8413	-29.4457	150.037	-12.3132	6.77324	-10.1215	2.57401	1.92445	-48.2554	-70.5542	-0.321492
0.8420	-26.6974	12.3928	-11.3916	11.3441	-7.37793	3.15523	2.53792	-32.1048	-38.1836	0
0.8427	-17.5496	-24.2469	2.65435	6.77324	-7.08133	0.124549	1.00844	14.5797	14.3143	-0.642984
0.8433	-7.77365	1.07764	42.3221	3.71905	-6.48813	-1.70216	0.0924407	45.4082	128.429	-0.964476
0.8440	-2.59122	54.5187	78.635	3.4074	-2.8177	0.124549	0.0924407	34.7557	313.389	-0.321492
0.8447	-4.75057	58.4864	82.6166	9.82743	1.7796	0.124549	0.0924407	28.963	482.762	0
0.8453	-5.02539	21.8467	79.2618	29.6485	3.89288	-2.32491	-0.823563	42.0701	519.965	-0.321492
0.8460	-2.59122	62.7479	68.8656	45.8337	3.29968	-1.70216	0.705911	32.8902	344.488	-0.321492
0.8467	-1.37413	129.562	34.3959	17.1409	1.14933	2.86462	3.15139	17.0342	21.3261	-0.321492
0.8473	4.7113	41.0972	15.4468	-37.1697	-1.29763	6.51804	3.15139	14.5797	-210.318	-0.321492
0.8480	12.0531	-139.897	15.4468	-52.7523	-2.18743	7.14079	2.84045	-11.0452	-235.932	-0.321492
0.8487	14.1732	-221.7	-0.110598	-55.7857	-1.29763	6.22743	3.15139	-40.0083	-189.247	-1.28597
0.8493	16.3325	-179.28	-11.3916	-73.7992	0.22245	6.22743	4.36993	-7.65803	-162.108	-0.964476
0.8500	19.9838	-69.7036	-5.27183	-71.9709	0.852726	6.22743	4.67246	70.1495	-139.801	0.321492
0.8507	24.5773	9.64976	13.6404	-49.989	-0.37075	4.98195	3.15139	106.476	-113.57	0.321492
0.8513	26.6974	-3.47783	48.11	-36.2555	-1.29763	3.48736	2.53792	72.8985	-107.176	-0.321492
0.8520	23.9491	-8.08229	67.9439	-49.3865	-2.5211	2.57401	2.84045	23.7595	-129.737	-0.321492
0.8527	18.4526	93.5586	48.11	-58.8399	-4.33778	2.86462	3.15139	-4.61445	-116.331	0
0.8533	8.67665	170.757	-6.19348	-37.4814	-4.63438	1.32852	2.84045	-10.1125	-61.0719	0
0.8540	-2.0023	129.562	-60.8288	-7.27188	-4.33778	-2.94765	1.00844	8.49255	-41.2353	0
0.8547	-4.75057	69.7526	-82.1742	25.6801	-2.5211	-3.86101	0.0924407	43.2973	-33.3153	0
0.8553	-2.59122	25.5204	-78.2295	50.7162	0.22245	-0.207581	1.00844	64.0132	14.8956	0
0.8560	-2.59122	-2.89003	-62.967	49.4904	1.7796	2.86462	2.53792	42.6591	107.975	0
0.8567	-5.65357	-31.2515	-43.1331	41.5536	3.29968	2.57401	2.84045	-1.86542	239.528	0
0.8573	-7.18474	-78.5696	-26.3591	39.1227	5.11636	1.61913	1.62191	-40.6464	334.751	0
0.8580	-4.12239	-129.219	-15.9629	44.0053	7.56331	1.32852	1.62191	-63.8169	344.488	0
0.8587	-0.785217	-177.761	-13.5298	58.3413	9.71366	2.57401	1.62191	-58.957	293.552	0
0.8593	3.18013	-189.028	-13.2349	47.662	11.2337	5.31407	2.53792	-11.0452	214.206	-0.321492
0.8600	12.9561	-138.085	-10.4699	-6.66936	11.8269	7.4314	3.45392	48.4517	54.8957	-0.321492
0.8607	19.6697	-70.6343	-9.25335	-49.6981	10.3069	7.14079	3.45392	57.337	-199.637	0
0.8613	16.0184	-60.5437	-2.54375	-55.1832	9.08338	4.40072	3.75646	24.0541	-338.166	-0.321492
0.8620	5.92839	-98.408	6.599	-50.6123	10.6035	2.24188	4.67246	-4.31991	-277.131	0
0.8627	-3.53348	-160.029	9.36395	-42.6756	10.6035	2.57401	6.20193	-17.1324	-209.41	0
0.8633	-8.99074	-194.808	13.6404	-33.513	8.49018	3.77798	6.50447	-28.4231	-235.35	-0.321492
0.8640	-12.6813	-70.9282	21.2716	-23.1454	5.11636	3.15523	5.58846	-48.8935	-253.334	0
0.8647	-12.3672	138.428	31.0411	-1.78681	2.0762	2.57401	4.36993	-51.0044	-205.741	0
0.8653	-5.65357	177.81	40.1839	16.5383	2.3728	2.86462	3.45392	-5.54716	-170.936	0
0.8660	5.92839	89.5909	39.5571	-3.90604	4.52315	1.95126	3.15139	67.695	-184.669	0
0.8667	15.1154	115.846	28.2762	-40.2239	6.63643	0.705776	4.36993	137.255	-207.267	0
0.8673	11.1501	217.781	4.46078	-35.9647	6.97011	0.124549	4.36993	171.127	-173.697	0.321492
0.8680	14.4873	250.747	-29.0872	-15.8112	6.33983	-0.207581	2.53792	158.02	-88.2473	0
0.8687	40.7528	233.015	-56.5523	-13.0686	7.26671	-0.207581	1.92445	146.141	-42.7612	0
0.8693	54.18	134.46	-93.1971	-10.6377	9.08338	-0.498195	1.62191	161.408	-30.8811	0
0.8700	44.993	-64.2175	-140.164	-6.04605	10.9371	0.124549	0.705911	175.104	-9.80929	-0.321492
0.8707	42.2447	-250.355	-153.62	-7.27188	12.1235	1.03791	2.84045	176.331	6.97549	-0.321492
0.8713	49.5865	-363.605	-124.312	-7.87441	12.1235	1.32852	3.75646	147.957	8.50138	0
0.8720	59.6373	-354.151	-78.5244	-6.04605	13.0504	3.48736	1.92445	98.818	-31.1717	0
0.8727	66.3509	-290.668	-27.5757	-7.27188	13.9773	4.98195	1.62191	90.5709	-83.6696	0
0.8733	61.1684	-170.12	43.8336	-12.4661	13.0504	4.69133	0.705911	127.486	-105.032	-0.321492
0.8740	48.9583	200.049	114.358	-12.4661	15.2008	6.80866	1.31938	142.753	-98.0202	0
0.8747	33.411	518.344	127.777	-3.61517	17.6477	8.34476	2.23539	92.7308	-61.6895	0
0.8753	18.1385	412.785	116.791	7.9783	17.9443	5.31407	0.705911	15.2179	-22.307	-0.964476
0.8760	8.99074	166.201	105.805	13.1725	18.8712	2.24188	1.00844	-34.2157	10.9355	-0.964476
0.8767	2.27713	-21.7977	54.8196	7.68742	18.5375	2.24188	2.23539	-78.4948	78.6923	0
0.8773	-5.02539	-214.646	8.14737	-1.78681	17.0174	2.86462	2.23539	-113.25	144.015	-0.321492
0.8780	-12.9953	-324.222	-12.3132	-13.9828	17.0174	3.77798	3.15139	-94.9399	103.397	-0.321492
0.8787	-19.3949	-408.768	-53.4925	-27.7163	17.6477	3.15523	4.36993	-45.2118	19.4733	0
0.8793	-2.0023	-469.507	-82.506	-30.7705	18.5375	0.415162	3.15139	3.92719	10.0273	0
0.8800	34.6281	-335.831	-70.3033	-24.0596	17.314	-0.498195	2.23539	28.963	23.4696	0
0.8807	48.9583	-142.052	-64.4785	-23.7479	16.7208	-0.207581	1.31938	50.3172	-16.5305	-0.321492
0.8813	47.7412	40.1665	-61.7504	-31.6846	17.0174	-1.41155	1.00844	76.2366	-65.032	-0.321492
0.8820	56.6142	312.074	-31.8522	-33.8247	16.7208	-0.788808	1.62191	72.8985	-23.2516	0
0.8827	53.8659	463.14	-15.9629	-35.653	17.9443	4.06859	2.84045	50.9062	61.2899	0
0.8833	28.5427	386.529	-28.1656	-30.1679	18.8712	7.4314	3.45392	56.6988	87.23	-0.321492
0.8840	14.8013	280.039	-38.23	-7.87441	18.5375	6.22743	2.23539	111.041	75.6405	0
0.8847	32.1939	205.584	-38.8567	10.43	20.0576	4.69133	1.00844	117.423	70.1546	0
0.8853	58.7343	172.912	-8.03677	11.3441	20.9845	4.98195	0.0924407	45.7027	41.1627	0
0.8860	65.762	181.141	47.5202	-2.70099	22.8382	6.22743	1.62191	6.97077	-38.8012	0
0.8867	52.6488	154.886	71.0038	-4.82022	25.2481	7.4314	3.75646	-10.7507	-58.6377	0
0.8873	40.7528	128.68	55.1514	29.9602	27.1019	4.98195	2.53792	-58.0243	66.1945	0
0.8880	33.0969	149.694	34.6908	70.5581	30.142	2.86462	2.23539	-88.5582	211.445	0
0.8887	22.1039	147.881	18.2118	81.5282	32.589	4.40072	2.53792	-102.892	281.018	0
0.8893	9.89374	84.3987	-18.7279	78.1832	35.3325	5.60469	1.62191	-124.247	317.639	0
0.8900	2.27713	17.5851	-74.5798	71.4722	37.1492	5.31407	0.705911	-140.152	316.731	0
0.8907	-3.8083	-41.636	-101.418	51.6304	38.3727	7.4314	0.403378	-150.215	171.772	-0.321492
