MR32 ASCII
Name	KneeFJC2
Frequency	1500
Date	26-08-2015 10:05:05
"Time,s"	"RT TIB.ANT.,uV"	"RT MED. GASTRO,uV"	"RT LAT. GASTRO,uV"	"RT BICEPS FEM.,uV"	"RT VMO,uV"	"RT VLO,uV"	"RT RECTUS FEM.,uV"	"RT SOLEUS,uV"	"RT SEMITEND.,uV"	"Channel 12,uV"
0.0000	-2.12151	-6.61237	-1.97113	-20.4804	-0.141281	-1.53574	0.680109	-24.5846	4.55973	-10197.9
0.0007	-3.65371	-8.74022	-1.66597	-48.2496	-1.08316	-1.53574	-1.7621	-10.2295	-1.84535	-9997.76
0.0013	-2.82868	-8.74022	-0.750512	-40.3155	-0.470937	-0.335944	-1.14382	-1.68883	-2.75729	-9583.21
0.0020	-0.942894	-4.48451	1.99587	-2.1508	0.753499	-1.87169	1.29839	-4.43921	1.81316	-9913.42
0.0027	-1.5322	0.709285	2.30102	35.6794	0.470937	-3.98333	0.0927421	-18.7943	3.64778	-9808.85
0.0033	-1.88579	3.77523	-5.02266	43.3027	-0.470937	-1.87169	-0.216398	-22.751	-0.933403	-9802.93
0.0040	-2.12151	3.4549	-12.0494	61.011	-1.36572	0.287952	-0.525539	-15.1271	-5.50386	-9818.81
0.0047	-2.82868	4.07267	-2.88659	122.667	-1.08316	0.287952	-0.525539	-6.2728	-5.81499	-9818.5
0.0053	-1.88579	6.20052	8.09893	144.008	0.753499	-0.623895	0.680109	-1.08568	-5.81499	-9802
0.0060	-0.353585	8.6487	8.09893	106.488	1.08316	-0.911847	-0.216398	-7.50323	-6.42653	-9811.96
0.0067	0.235723	14.1399	8.40409	86.0319	-0.141281	-0.911847	-1.7621	-23.0646	-7.02735	-9913.73
0.0073	-0.589309	20.2489	10.8453	68.945	-0.141281	-2.15964	-3.58603	-29.458	-7.63889	-9575.74
0.0080	-0.353585	27.868	12.9814	21.6514	0.753499	-2.15964	-3.27689	-21.231	-3.67997	-10029.5
0.0087	-0.353585	30.0188	13.5917	-16.2027	1.69537	-1.87169	-1.7621	-15.7303	0.289677	-10159.3
0.0093	-0.589309	-0.503364	3.52163	-37.5673	1.97794	-1.24779	-0.216398	-26.4181	0.600811	-4831.13
0.0100	-1.29648	-52.3956	-6.24327	-62.2776	0.753499	-1.24779	-2.04033	-52.3538	-3.36883	108.306
0.0107	0	-77.7239	-3.80205	-76.9269	-0.753499	-2.44759	-4.79168	-64.8752	-6.72694	108.306
0.0113	3.88944	-72.8276	-5.02266	-76.6162	0.470937	-1.24779	-2.65861	-50.5202	-4.89232	-233.729
0.0120	4.83233	-72.5301	-16.9319	-68.0847	1.36572	0.911847	0.989249	-39.8323	-1.84535	97.1019
0.0127	3.0644	-89.6216	-23.9504	-58.3105	1.08316	1.48775	1.91667	-3.52242	-1.23381	-8.40305
0.0133	-1.5322	-104.265	-20.2886	-54.3435	0.141281	-0.911847	-0.834679	64.827	-4.59191	-14.3163
0.0140	-7.66101	-112.204	-12.0494	-55.873	-1.36572	-3.69538	-6.64652	98.097	-9.47351	1.55612
0.0147	-7.0717	-74.3605	-1.66597	-55.873	-1.08316	-1.87169	-6.64652	106.638	-8.25043	-0.622448
0.0153	-5.77522	33.3593	5.0474	-54.6542	-0.470937	-0.911847	-2.65861	92.9098	-1.84535	-0.622448
0.0160	-8.25032	80.6755	6.26801	-32.0708	-0.753499	-1.87169	-0.834679	48.6625	4.25932	-0.311224
0.0167	-9.19321	46.1951	1.38556	20.7194	-1.97794	-0.335944	-1.14382	24.8499	5.17127	-0.311224
0.0173	-9.19321	48.9407	-8.37934	60.4135	-2.30759	0	-2.96775	28.2035	0.901217	-0.311224
0.0180	-7.30743	68.16	-7.15873	83.2837	-1.36572	0	-2.04033	31.5811	-0.321863	-0.311224
0.0187	-4.24302	51.9837	3.52163	93.3685	-0.753499	0.911847	-0.216398	0.747911	2.1243	-0.622448
0.0193	-1.88579	31.2314	9.01439	67.4156	-1.08316	1.1998	0.0927421	-55.1041	2.73584	-0.311224
0.0200	0.942894	25.1224	6.57317	30.4935	-1.36572	0.287952	-1.45296	-84.1038	-0.622269	0
0.0207	3.30013	14.7577	1.99587	6.69137	-1.69537	-1.24779	-4.79168	-91.414	-3.98037	-0.311224
0.0213	4.83233	7.43605	-0.750512	-11.925	-1.08316	-0.335944	-3.27689	-68.8319	-3.36883	-0.311224
0.0220	2.4751	12.3095	-1.97113	-18.6403	0.141281	-2.15964	-1.7621	5.33188	-0.933403	0
0.0227	-2.4751	10.1817	-1.97113	-17.7321	0.470937	-2.78353	-2.96775	48.9761	-0.622269	0
0.0233	-6.48239	19.9286	-1.05567	-20.4804	-1.69537	1.1998	-2.34947	28.2035	-2.45689	-0.311224
0.0240	-7.66101	52.6015	-1.36082	-21.9859	-3.81459	1.82369	-3.27689	4.41509	-2.14575	0
0.0247	-4.59661	48.3229	-1.36082	-15.2707	-2.30759	0.911847	-2.34947	-10.8568	2.1243	0
0.0253	-1.88579	-5.9946	2.60617	-9.48741	0.753499	0	0.680109	-20.6037	3.64778	0
0.0260	-1.29648	-42.9232	9.01439	-20.4804	1.69537	-0.335944	1.29839	-16.9607	-0.0107288	0
0.0267	-1.5322	-47.4992	7.18347	-37.2566	0.141281	0.575903	-1.14382	-12.9799	-5.20345	0
0.0273	-4.0073	-56.3538	-7.46388	-48.847	-1.08316	0	-3.89517	-4.75285	-9.47351	0
0.0280	-4.95019	-53.3108	-13.27	-55.2516	-0.470937	-0.335944	-3.58603	17.2261	-8.25043	-0.311224
0.0287	-4.24302	-48.4144	-5.02266	-76.6162	0.141281	-1.24779	-0.525539	18.1429	-3.36883	0
0.0293	-3.65371	-85.343	-1.05567	-122.094	0.141281	-1.87169	0.989249	-10.2295	-2.75729	0.311224
0.0300	-3.65371	-132.041	-3.80205	-160.234	-0.753499	-2.15964	-0.834679	-23.3541	-4.89232	0
0.0307	-5.18591	-152.496	-4.7175	-190.154	-0.753499	-3.98333	-3.27689	-3.20878	-5.20345	0
0.0313	-5.18591	-160.733	-1.66597	-214.267	0.753499	-5.18313	-2.65861	22.4132	-1.23381	0
0.0320	-4.59661	-157.072	3.21648	-209.99	2.30759	-6.43092	-1.14382	26.3699	3.03624	0
0.0327	-3.65371	-69.4871	5.35255	-174.573	1.97794	-5.18313	-0.525539	-12.0631	1.81316	0
0.0333	-4.95019	96.8517	6.26801	-110.193	0.753499	-4.60723	-1.7621	-55.3937	1.21235	0
0.0340	-6.12881	169.176	5.65771	-32.6682	1.08316	-6.71887	-4.79168	-16.3334	2.1243	0
0.0347	-2.82868	127.351	2.60617	36.8981	2.59015	-5.80703	-4.48254	58.4336	2.1243	0
0.0353	0.942894	107.514	-0.750512	103.119	2.59015	-2.44759	-1.14382	52.016	4.87086	0
0.0360	1.17862	124.926	-1.36082	179.114	1.08316	1.82369	1.29839	10.8085	9.75245	0
0.0367	0	134.375	-1.66597	275.541	-0.470937	4.84719	0.680109	4.7046	11.8875	0
0.0373	-0.942894	123.095	-5.32781	352.444	-1.69537	2.3996	-2.34947	0.747911	7.91783	0
0.0380	0.589309	107.514	-7.15873	332.92	-1.69537	0.575903	-2.04033	-10.5431	2.73584	0
0.0387	3.65371	96.8517	-3.80205	222.751	-1.69537	2.73554	0.680109	-12.6904	-2.45689	0
0.0393	4.59661	85.2515	-1.97113	115.02	-2.30759	4.55924	1.60753	-15.7303	-8.56156	-0.311224
0.0400	2.12151	72.4386	-2.27628	59.7922	-3.48493	3.64739	0.0927421	-25.1877	-12.8316	-0.622448
0.0407	-0.353585	58.0927	-0.445359	36.3007	-3.20237	1.1998	-2.34947	-27.3349	-14.9666	0
0.0413	0.589309	47.4077	4.43709	29.5854	-1.36572	0	-1.14382	-20.3142	-11.6085	0
0.0420	1.76793	42.8317	3.52163	30.8042	-0.141281	-0.623895	0.680109	-17.8775	-7.02735	-0.311224
0.0427	0.235723	39.4683	0.775254	28.3666	-0.141281	-0.623895	0.0927421	-20.3142	-6.1154	0
0.0433	-2.4751	38.5531	4.74225	22.5595	-0.470937	0.287952	-1.45296	-20.9174	-7.02735	0
0.0440	-4.59661	38.2556	4.13194	17.063	-1.69537	-0.911847	-3.89517	-16.9607	-8.56156	0
0.0447	-2.12151	33.3593	-0.140206	15.8442	-1.08316	-1.53574	-2.96775	-11.4599	-6.42653	0
0.0453	1.5322	26.358	-0.140206	16.7523	1.08316	0.287952	0.0927421	-12.0631	-2.14575	0
0.0460	1.76793	20.8438	-0.750512	9.12894	1.08316	1.1998	-0.216398	-15.1271	-2.45689	0.311224
0.0467	0.235723	17.5033	-5.63297	-7.95795	0.141281	-0.623895	-2.04033	-22.1478	-5.81499	0
0.0473	-1.5322	15.6729	-8.6845	-24.1367	-1.36572	-2.78353	-3.27689	-41.6659	-8.56156	-0.311224
0.0480	-1.29648	13.8425	-5.93812	-30.852	-0.753499	-3.35944	-2.65861	-51.437	-6.72694	0
0.0487	0	7.7335	-1.66597	-32.6682	0.470937	-2.78353	-0.525539	-25.1877	-2.75729	0
0.0493	0.235723	1.62449	1.38556	-36.0378	1.36572	-1.53574	0.401883	9.89172	-2.14575	0
0.0500	-0.942894	1.32705	1.99587	-41.5343	0.753499	-1.53574	-0.834679	13.2694	-4.28078	0.311224
0.0507	-2.4751	0.709285	1.38556	-45.1907	-0.753499	-1.53574	-2.65861	1.97834	-7.02735	0
0.0513	-1.88579	-0.205921	2.91133	-44.2825	-0.470937	-1.24779	-2.34947	-1.08568	-4.89232	0
0.0520	-0.589309	2.86002	3.21648	-43.3505	1.08316	-1.87169	0.0927421	-7.79275	-2.14575	0
0.0527	0.235723	5.28532	-0.445359	-31.1627	1.36572	-1.53574	0.989249	-19.3974	-2.14575	0
0.0533	-0.942894	1.00673	-2.88659	6.69137	0.141281	-1.24779	-0.525539	-22.1478	-2.14575	0
0.0540	-2.82868	-4.78195	-4.41235	47.8911	-1.08316	-2.44759	-3.27689	-11.4599	-3.06843	0
0.0547	-1.5322	-5.39972	-3.49689	61.011	-0.753499	-2.15964	-2.34947	3.49829	-1.23381	0
0.0553	-0.942894	-6.61237	-1.05567	41.4865	0.470937	-1.24779	0.680109	21.1828	1.21235	0
0.0560	-1.5322	-11.8062	-0.140206	12.7853	0.753499	-0.623895	1.29839	51.0992	-0.0107288	0
0.0567	-2.12151	-14.8492	-1.66597	-7.33661	0.141281	-1.53574	-1.45296	86.4923	-1.84535	0
0.0573	-2.4751	-17.2974	-3.80205	-24.1367	-0.753499	-4.27128	-4.48254	65.1406	-4.28078	0.311224
0.0580	-0.942894	-19.4253	-2.27628	-32.3815	0.470937	-3.98333	-3.27689	-15.7303	-3.67997	0.311224
0.0587	0.589309	-17.2974	0.470101	-30.852	2.30759	-2.44759	-0.834679	-57.5409	-0.622269	0
0.0593	-0.353585	-11.8062	1.08041	-35.1297	1.08316	-2.44759	-0.216398	-62.1249	-0.0107288	-0.311224
0.0600	-2.82868	-8.74022	0.470101	-47.3176	0.141281	-3.07149	-1.45296	-82.8734	-2.75729	0
0.0607	-4.24302	-9.35799	-1.05567	-45.7881	-0.141281	-2.78353	-3.89517	-94.478	-5.20345	0.311224
0.0613	-2.12151	-10.891	0.164948	-14.9839	0.470937	0	-1.45296	-75.8526	-0.622269	0.311224
0.0620	-0.942894	-12.401	2.30102	28.056	0.141281	0.911847	0.989249	-34.6452	4.25932	0.311224
0.0627	-2.12151	-14.8492	1.99587	57.6653	-0.753499	0.287952	-0.216398	26.0804	2.4247	0
0.0633	-2.4751	-19.4253	0.164948	54.6064	-1.36572	0.911847	-1.7621	68.8078	-3.06843	0
0.0640	-3.41799	-24.0013	-2.27628	31.4017	-2.30759	-0.623895	-3.27689	57.5168	-7.33848	0
0.0647	-2.82868	-24.0013	-1.05567	18.2818	-0.470937	-0.911847	-1.45296	31.5811	-4.89232	0
0.0653	-1.29648	-21.8734	1.38556	14.3148	1.36572	-0.623895	1.91667	20.8933	-0.933403	0
0.0660	-1.29648	-20.9582	1.99587	14.0041	1.08316	-1.87169	0.401883	13.8725	-2.14575	-0.311224
0.0667	-2.82868	-21.576	-0.140206	9.75029	0.470937	-2.78353	-2.34947	8.68542	-5.81499	0
0.0673	-4.95019	-18.8075	-2.27628	-0.932013	-0.470937	-3.07149	-3.89517	6.85183	-7.33848	0.311224
0.0680	-4.95019	-4.16419	0.164948	-3.68025	-0.141281	-2.78353	-2.65861	8.37178	-3.36883	0
0.0687	-3.41799	7.11573	2.60617	-3.68025	0.753499	-2.44759	-0.525539	9.89172	-0.0107288	0.311224
0.0693	-1.29648	1.62449	1.08041	-7.64728	-0.141281	1.1998	0.989249	7.45498	-2.14575	0.311224
0.0700	-0.942894	-7.82502	-1.36082	-18.0189	-1.97794	3.64739	-0.216398	1.97834	-5.20345	-0.622448
0.0707	-2.82868	-11.1884	-2.58143	-46.4095	-2.30759	1.82369	-2.96775	-2.31611	-6.72694	-0.622448
0.0713	-1.88579	-10.891	-0.445359	-68.3715	-0.470937	0.575903	-1.7621	4.41509	-3.67997	0
0.0720	0	-9.65543	1.38556	-72.9599	0.753499	0	0.989249	15.9956	1.21235	0
0.0727	-0.353585	-8.74022	0.164948	-74.4893	1.08316	0.911847	1.29839	22.4132	3.03624	0
0.0733	-1.5322	-8.44278	-2.58143	-74.8	0.141281	0.911847	-0.834679	22.0996	0.600811	0
0.0740	-3.41799	-8.74022	-5.02266	-72.3385	-0.753499	-1.87169	-3.58603	12.9557	-3.98037	0
0.0747	-2.82868	-8.44278	-3.19174	-65.6471	-0.141281	-2.44759	-2.65861	5.93503	-2.45689	0
0.0753	-1.29648	-8.14534	-0.445359	-48.847	1.08316	-1.53574	-0.216398	5.33188	2.4247	0
0.0760	-0.353585	-8.74022	-0.140206	-9.48741	1.08316	0.287952	0.989249	-5.66965	4.25932	0
0.0767	-0.942894	-9.97575	0.164948	55.5145	-0.141281	0.287952	-0.834679	-19.3974	3.34738	0
0.0773	-2.4751	-11.1884	2.91133	100.084	-1.36572	-1.53574	-3.89517	-20.3142	1.51276	0
0.0780	-1.5322	-10.891	7.79378	85.4345	-0.141281	-1.24779	-2.34947	-12.6904	2.4247	0
0.0787	0.589309	-10.891	7.48863	45.4535	1.08316	0	0.680109	-7.50323	3.34738	0
0.0793	1.17862	-10.5706	2.91133	21.6514	0.753499	0	0.680109	-5.66965	2.4247	0
0.0800	0	-9.06054	-2.27628	6.07003	0.141281	-1.24779	-1.45296	-5.95916	-0.321863	0
0.0807	-2.12151	-8.44278	-8.6845	-9.17674	-0.753499	-3.07149	-3.89517	-5.66965	-3.98037	0.311224
0.0813	-2.4751	-4.78195	-8.37934	-14.6732	-0.141281	-3.07149	-3.27689	-2.00247	-3.06843	0
0.0820	-1.5322	-0.823686	-2.58143	-14.6732	0.141281	-2.15964	-1.45296	0.144757	-0.321863	0
0.0827	-0.589309	-5.0794	-0.445359	-14.9839	-0.141281	-1.24779	-0.216398	3.78781	-0.933403	0
0.0833	-1.5322	-12.7214	-6.54843	-18.9509	-0.470937	-1.53574	-1.7621	12.6421	-3.06843	0
0.0840	-3.41799	-14.5518	-10.8288	-24.4474	-1.36572	-2.78353	-5.40996	17.2261	-4.89232	0
0.0847	-2.12151	-7.82502	-5.63297	-29.0119	-0.470937	-1.24779	-2.65861	14.1862	-1.53421	0.311224
0.0853	-0.942894	-1.12113	-1.36082	-29.92	1.08316	0.911847	1.29839	8.08226	3.03624	0
0.0860	-0.589309	-0.205921	1.69071	-8.86607	1.08316	0.575903	1.29839	-10.5431	3.34738	0
0.0867	-0.589309	-2.33378	4.43709	12.4985	-0.753499	-0.911847	-0.834679	-45.333	-0.321863	0.311224
0.0873	-2.4751	-8.14534	1.69071	6.69137	-2.30759	-2.44759	-4.20431	-59.3745	-5.20345	0.311224
0.0880	-1.29648	-12.7214	0.470101	-2.77214	-1.08316	-0.911847	-2.34947	-34.3556	-3.67997	0
0.0887	1.76793	-11.1884	2.30102	-8.86607	0.470937	0.287952	1.29839	4.41509	-0.321863	0
0.0893	3.30013	-9.97575	2.60617	-12.2357	0.141281	1.1998	1.91667	48.3488	0.289677	0.311224
0.0900	1.5322	-11.4858	-1.97113	-10.0849	-1.08316	0.575903	-1.14382	85.8891	-2.45689	0.311224
0.0907	-2.4751	-9.35799	-9.2948	-11.3036	-1.36572	-1.87169	-3.89517	94.4298	-6.1154	0
0.0913	-3.0644	-2.33378	-10.5237	-17.7321	-0.141281	-0.335944	-0.216398	62.9934	-4.89232	0.311224
0.0920	-4.0073	-1.12113	-7.15873	-28.4144	0.470937	-0.335944	0.680109	1.97834	-1.53421	0
0.0927	-6.48239	-7.52757	-4.1072	-38.7861	-0.141281	-3.69538	-2.96775	-42.2932	-1.23381	0
0.0933	-5.77522	-11.4858	-1.36082	-50.6871	-0.753499	-3.35944	-3.27689	-46.853	-4.28078	0
0.0940	-4.95019	-11.8062	-1.05567	-53.4354	-1.36572	-2.15964	-3.27689	-34.042	-6.1154	0.311224
0.0947	-4.0073	-9.97575	0.164948	-35.7271	0.141281	-1.24779	-1.7621	-20.6037	-3.06843	0
0.0953	-2.4751	-6.31493	2.30102	-26.2636	0.753499	-0.623895	1.29839	-10.5431	-0.933403	0
0.0960	-1.5322	-0.823686	2.30102	-41.8211	0.470937	-1.24779	0.989249	-3.20878	-2.45689	0.311224
0.0967	-2.82868	4.37011	-0.140206	-57.4024	-0.753499	-1.53574	-2.04033	-0.168883	-6.42653	0.311224
0.0973	-4.0073	7.11573	-2.27628	-51.9059	-1.36572	-2.44759	-4.79168	-1.39932	-8.25043	0
0.0980	-1.88579	6.52085	-0.140206	-38.7861	-0.141281	-1.87169	-1.7621	-2.60562	-4.28078	0
0.0987	0.235723	-0.823686	1.99587	-38.1647	0.753499	-0.335944	1.60753	-2.31611	-0.0107288	0
0.0993	-0.589309	-12.7214	1.38556	-0.64524	0.753499	-0.335944	1.91667	0.144757	3.95892	0
0.1000	-3.41799	-19.1278	0.775254	96.1168	-0.141281	-1.87169	-0.834679	2.26786	6.09394	-0.622448
0.1007	-3.65371	-19.4253	0.470101	142.502	-1.08316	-2.44759	-3.27689	4.41509	4.55973	-0.311224
0.1013	-0.589309	-18.8075	2.30102	113.49	0.141281	-2.44759	-2.04033	3.49829	5.4824	0
0.1020	0.589309	-19.7227	4.13194	76.5684	0.753499	-3.69538	-1.7621	-8.42003	6.70548	-0.311224
0.1027	0.589309	-30.7281	6.57317	41.1758	0.470937	-2.44759	-1.45296	-32.2084	3.34738	-0.311224
0.1033	0.942894	-51.4804	5.65771	11.8772	-0.753499	0.287952	-1.45296	-76.4558	-2.75729	-0.311224
0.1040	-0.589309	-41.7105	0.775254	0.597444	-1.97794	-0.623895	-3.27689	-119.786	-7.95002	0
0.1047	-0.589309	13.8425	-0.445359	9.75029	-1.36572	0	-1.45296	-110.039	-6.72694	0
0.1053	-0.353585	61.1358	-0.445359	33.5525	-0.470937	-0.623895	0.680109	-68.2288	-1.84535	0
0.1060	-1.5322	55.942	-4.41235	49.4206	-0.753499	-0.623895	-0.216398	-19.0838	-1.84535	0.311224
0.1067	-3.41799	30.934	-8.37934	42.7053	-1.97794	0	-2.34947	44.6816	-7.33848	0.311224
0.1073	-3.65371	23.292	-8.6845	21.9381	-2.30759	-1.24779	-3.58603	71.8477	-11.6085	0
0.1080	-1.29648	20.8438	-6.24327	3.94313	-0.753499	-0.623895	-1.45296	53.2464	-10.085	0
0.1087	0.235723	9.56391	-4.1072	-3.68025	0.753499	-0.911847	0.401883	47.432	-5.81499	0
0.1093	-0.942894	-5.0794	-1.97113	-5.20971	0.470937	-1.53574	-0.216398	76.118	-4.28078	0
0.1100	-3.41799	-14.2315	-0.140206	-3.99093	-0.141281	-1.24779	-2.04033	99.0137	-5.81499	0
0.1107	-5.77522	-10.891	-0.140206	0.884217	-0.753499	-1.53574	-3.89517	91.3899	-5.20345	0.311224
0.1113	-4.95019	-2.33378	-0.445359	-7.95795	0.470937	-0.335944	-1.7621	91.3899	-2.14575	0
0.1120	-3.0644	-0.823686	2.60617	-33.887	1.36572	-1.24779	-0.525539	72.475	-0.622269	0
0.1127	-2.12151	-1.41857	5.35255	-55.873	1.69537	-1.87169	-0.834679	14.4757	-1.53421	0
0.1133	-0.589309	-0.823686	1.38556	-62.2776	0.141281	-1.53574	-1.7621	-15.1271	-3.06843	0
0.1140	0	-3.56931	-6.54843	-47.6282	-1.08316	-2.44759	-3.58603	-28.2517	-3.98037	-0.311224
0.1147	0.942894	-5.39972	-7.15873	-30.5413	0.141281	-2.44759	-2.34947	-54.7905	-2.75729	-0.311224
0.1153	0.942894	-1.12113	-3.19174	-20.4804	1.08316	-3.35944	-0.216398	-45.9362	0.289677	0
0.1160	0.589309	1.94481	-1.66597	36.3007	1.08316	-2.15964	0.401883	-10.2295	2.4247	0
0.1167	-0.942894	-0.205921	-3.19174	103.119	-0.470937	0	-1.14382	-5.04237	-0.622269	0
0.1173	-2.4751	-2.95154	-5.93812	69.8531	-1.97794	0.287952	-2.65861	-31.6053	-4.89232	0
0.1180	-0.589309	-1.73889	-4.1072	-8.26863	-0.753499	1.48775	0.0927421	-51.1233	-1.84535	0.311224
0.1187	0.589309	4.37011	-1.36082	-36.0378	0.141281	0	1.91667	-53.5842	0.901217	0
0.1193	0	2.86002	1.08041	-37.5673	0.141281	-0.911847	0.989249	-49.917	-2.14575	0
0.1200	-1.29648	-6.31493	6.26801	-43.6612	-0.753499	0.287952	-0.834679	-39.2291	-7.33848	0
0.1207	-2.82868	-7.52757	8.09893	-47.6282	-1.36572	-0.335944	-2.34947	-17.2502	-9.47351	0
0.1213	0	-21.2557	7.79378	-47.3176	-0.470937	0.287952	0.401883	39.205	-5.81499	0.311224
0.1220	0.589309	-46.2866	6.87832	-48.5364	0.753499	-0.335944	1.29839	91.6794	-4.28078	0.311224
0.1227	-1.88579	-44.7536	-1.66597	-39.6942	1.08316	-1.53574	-0.525539	86.4923	-3.06843	0
0.1233	-4.0073	-33.1534	-2.58143	-29.92	-0.141281	-1.53574	-1.45296	56.6	-0.622269	-0.311224
0.1240	-7.30743	-30.7281	4.13194	-42.4424	-1.08316	-2.15964	-1.45296	26.6835	-0.0107288	0
0.1247	-8.6039	-30.4077	-1.05567	-68.9928	-1.08316	0	0.680109	3.78781	1.81316	0
0.1253	-8.6039	-33.7711	-6.54843	-76.9269	-0.141281	1.48775	2.22581	-2.31611	3.95892	0.311224
0.1260	-8.0146	-27.6621	-1.97113	-36.0378	0.753499	0.287952	1.91667	-9.02318	4.87086	0.311224
0.1267	-7.66101	-4.16419	-0.445359	29.5854	-0.141281	-0.911847	-0.834679	-17.5638	4.55973	0.311224
0.1273	-8.0146	56.5598	-4.41235	66.5075	-1.36572	-0.623895	-4.20431	-15.4166	3.64778	0.311224
0.1280	-5.18591	99.5974	-2.88659	57.044	-0.141281	1.1998	-2.04033	-7.50323	5.4824	0.311224
0.1287	-2.4751	47.7051	1.99587	13.7173	1.08316	0.575903	0.0927421	32.4738	5.78281	0.311224
0.1293	-1.29648	-3.24898	3.52163	-22.2966	0.141281	-0.623895	-1.45296	79.7852	3.64778	0
0.1300	-1.5322	10.7766	1.99587	-29.0119	-1.08316	-1.87169	-4.20431	41.9554	-0.933403	0
0.1307	-2.12151	29.1036	0.775254	-19.859	-1.08316	-2.78353	-5.7191	-31.9189	-4.59191	0
0.1313	-0.353585	29.6985	1.69071	-11.3036	0.470937	-1.53574	-2.65861	-52.3538	-2.75729	0
0.1320	0.235723	24.825	-0.445359	-2.77214	1.08316	-1.87169	-0.834679	-40.7491	0.289677	-0.622448
0.1327	-0.589309	25.4427	-4.1072	19.2138	1.08316	-2.44759	-1.45296	-12.3767	0.289677	-0.311224
0.1333	-1.88579	34.2745	-5.63297	53.3876	0.141281	-2.44759	-2.34947	34.0179	-2.75729	0
0.1340	-2.82868	29.1036	-6.85358	68.945	-1.36572	-3.07149	-3.89517	68.8078	-6.72694	0
0.1347	-0.942894	10.1817	-4.41235	36.8981	-0.141281	-1.87169	-2.04033	56.2863	-7.95002	0
0.1353	0.235723	-5.0794	-1.05567	-9.48741	1.69537	-1.24779	0.401883	-12.3767	-7.33848	0
0.1360	0	-30.4077	-1.97113	-16.5134	0.470937	0.911847	0.680109	-74.0191	-6.1154	0
0.1367	-1.88579	-42.6257	-5.32781	2.41367	-1.97794	2.11165	-1.7621	-74.0191	-4.89232	0
0.1373	-3.65371	-35.3041	-4.7175	-1.24268	-1.97794	0.287952	-4.48254	-49.917	-4.89232	0
0.1380	-3.0644	-68.8693	-0.750512	-30.852	-0.470937	0.287952	-2.65861	-33.7284	-2.75729	0
0.1387	-3.65371	-109.161	1.99587	-49.1577	-0.141281	-0.911847	-1.14382	-20.0006	0.289677	0
0.1393	-4.95019	-79.234	3.21648	-50.3765	-0.141281	-2.15964	-0.525539	-9.02318	0.289677	0.311224
0.1400	-4.95019	-25.5343	1.99587	-36.3485	-0.141281	-1.53574	-1.7621	1.6647	-3.06843	0.311224
0.1407	-2.12151	-16.0619	1.99587	3.63246	-1.08316	-1.87169	-4.20431	15.3925	-4.28078	0
0.1413	3.65371	-15.7644	4.43709	42.7053	-1.36572	-0.623895	-1.45296	24.5604	-1.53421	0
0.1420	6.71812	5.90308	7.18347	54.2957	-0.470937	-1.87169	1.29839	22.4132	-1.53421	0
0.1427	4.24302	16.2678	8.09893	52.4556	0.753499	-2.44759	0.0927421	8.37178	-3.06843	0
0.1433	-0.942894	33.0618	8.09893	66.1968	0.470937	-1.24779	-2.04033	-16.0439	-3.67997	0
0.1440	-4.0073	80.6755	7.48863	81.1568	-0.753499	0	-3.27689	-37.3955	-3.36883	-0.311224
0.1447	-2.4751	99.8948	4.43709	55.8252	-0.141281	0.911847	-1.14382	-24.2709	-2.45689	0
0.1453	-1.29648	65.0941	-2.88659	20.7194	1.08316	0	0.989249	15.7061	-1.53421	0.311224
0.1460	-1.5322	34.2745	-8.98965	10.9691	0.753499	-0.623895	0.0927421	44.3921	-2.75729	0
0.1467	-1.5322	27.2732	-10.2185	9.12894	-0.470937	0	-2.34947	68.1805	-5.81499	0
0.1473	-1.88579	23.292	-8.6845	13.096	-1.69537	0.287952	-3.58603	50.496	-6.42653	0
0.1480	-1.5322	19.6312	-4.1072	17.9711	-1.36572	0	-1.45296	-43.4995	-2.45689	0
0.1487	-1.29648	16.5881	-0.140206	11.2797	0.141281	-0.335944	0.680109	-106.059	-0.0107288	0
0.1493	-0.353585	11.6918	-3.19174	0.884217	0.753499	0.287952	0.401883	-83.7901	-0.321863	0
0.1500	-0.942894	8.03094	-8.98965	-8.5793	0.141281	0	-1.45296	-51.437	-2.14575	0.311224
0.1507	-3.0644	6.52085	-4.41235	-17.1108	-0.470937	-1.24779	-3.27689	-36.4787	-3.98037	0
0.1513	-1.29648	4.07267	3.21648	-21.9859	-0.141281	-1.53574	-1.7621	-23.9814	-3.06843	-0.311224
0.1520	1.76793	4.07267	1.08041	-27.1957	0.141281	-2.44759	0.401883	-15.1271	-2.14575	0
0.1527	2.4751	6.81829	-8.37934	-37.854	0.141281	-1.87169	0.0927421	-12.3767	-3.67997	0
0.1533	-0.353585	8.03094	-15.4061	-53.4354	-0.753499	-0.623895	-2.04033	-13.6072	-7.02735	0
0.1540	-4.0073	8.6487	-8.6845	-72.0517	-1.08316	-1.87169	-3.89517	-14.8135	-9.47351	0
0.1547	-4.24302	10.1817	4.13194	-89.1386	0.141281	-1.53574	-1.7621	-11.4599	-5.81499	0
0.1553	-3.41799	10.1817	7.79378	-101.35	1.08316	-1.87169	-0.216398	-9.3127	-1.23381	0
0.1560	-2.82868	6.20052	5.35255	-121.783	0.753499	-2.44759	-0.216398	-13.2935	-2.14575	0
0.1567	-3.0644	-4.16419	2.91133	-157.199	0.470937	-2.78353	-1.7621	-14.5239	-6.1154	0
0.1573	-3.65371	-16.9771	-0.140206	-189.844	0.141281	-3.07149	-4.48254	-10.5431	-8.25043	0.311224
0.1580	-1.88579	-20.9582	-2.88659	-198.089	1.69537	-3.98333	-2.96775	-7.50323	-3.98037	0
0.1587	-0.589309	-15.467	-3.49689	-159.326	2.91981	-5.51907	-1.14382	0.434271	2.1243	0
0.1593	-1.29648	-9.35799	-1.05567	-74.8	1.69537	-3.07149	-1.14382	15.3925	6.70548	-0.311224
0.1600	-1.88579	-2.33378	1.99587	28.3666	-1.36572	-0.335944	-1.7621	20.5796	7.61743	-0.622448
0.1607	-2.82868	3.4549	2.91133	97.6223	-1.97794	-0.911847	-3.27689	22.4132	6.09394	0
0.1613	-2.82868	6.52085	3.52163	98.5544	0.470937	-1.87169	-2.04033	47.1425	6.09394	0.311224
0.1620	-2.82868	34.8923	3.52163	62.8511	1.08316	-2.44759	0.680109	71.8477	4.55973	0
0.1627	-2.82868	69.0752	2.60617	48.2018	-0.470937	-0.911847	0.680109	47.432	-0.321863	-0.311224
0.1633	-3.41799	37.6379	0.775254	96.4036	-1.36572	0.287952	-2.65861	-7.79275	-3.06843	-0.311224
0.1640	-3.65371	-33.7711	-0.445359	171.801	-1.69537	0.575903	-4.48254	-40.7491	-3.36883	0
0.1647	-2.4751	-67.3363	0.470101	203.824	-1.36572	1.48775	-2.65861	-37.9987	-1.23381	0
0.1653	-0.589309	-66.4211	1.08041	185.518	-1.97794	2.3996	0.401883	-19.3974	2.4247	0
0.1660	0	-62.1425	-0.750512	137.317	-2.59015	3.35944	1.29839	-9.3127	2.1243	0
0.1667	-0.942894	-65.2085	-4.1072	74.4415	-2.91981	1.82369	-1.14382	-9.02318	-2.45689	0
0.1673	-2.12151	-81.9796	-4.41235	26.5265	-2.30759	-0.911847	-3.58603	-4.12557	-4.59191	0
0.1680	-1.88579	-76.1909	1.38556	2.41367	-1.08316	-2.15964	-1.45296	-2.60562	-0.321863	0
0.1687	-2.12151	-26.152	6.57317	-14.3626	0.141281	-1.53574	0.680109	-16.9607	2.73584	0
0.1693	-1.88579	35.1897	7.48863	-24.4474	0.753499	-0.335944	0.989249	-33.4389	0.901217	-0.311224
0.1700	-1.88579	86.4641	6.26801	-29.3226	0.470937	-0.911847	-0.834679	-33.4389	-2.14575	-0.311224
0.1707	-2.82868	83.4211	1.38556	-40.0048	0.141281	-2.78353	-3.58603	-7.79275	-4.28078	0
0.1713	-1.88579	24.5275	-7.15873	-47.6282	1.69537	-3.69538	-2.65861	36.4546	-2.45689	0
0.1720	-2.12151	-51.16	-12.6597	-30.5413	2.59015	-3.07149	-0.216398	70.3278	-0.321863	-0.311224
0.1727	-4.24302	-108.246	-5.93812	14.9361	1.69537	-1.87169	0.0927421	66.9742	0.600811	-0.622448
0.1733	-6.48239	-101.222	2.91133	61.9191	-0.141281	-1.87169	-2.04033	33.1011	-1.84535	-0.622448
0.1740	-7.66101	-74.9783	3.21648	72.9121	-0.753499	-2.44759	-3.58603	6.24867	-6.72694	-0.311224
0.1747	-5.18591	-68.2515	2.60617	53.985	0.470937	-2.15964	-1.45296	-0.772037	-5.50386	0
0.1753	-3.0644	-65.2085	4.13194	33.8631	1.08316	-1.24779	0.0927421	-10.8568	-2.75729	0.311224
0.1760	-3.41799	-73.7428	0.470101	24.0889	0.141281	0.287952	-0.216398	-23.6678	-3.67997	0
0.1767	-4.0073	-21.8734	-5.02266	34.1499	-1.36572	0.575903	-1.7621	-27.6245	-4.89232	0
0.1773	-2.82868	130.097	-5.02266	47.8911	-1.97794	0	-3.58603	-25.815	-4.89232	0.311224
0.1780	0.942894	203.954	-2.27628	44.8322	-0.470937	0.575903	-1.14382	-17.5638	-3.06843	0
0.1787	3.65371	138.036	-2.88659	32.6204	0.753499	-0.623895	0.401883	-8.70954	-1.84535	-0.311224
0.1793	3.88944	77.3121	-3.49689	25.6184	0.141281	-1.53574	-0.525539	-7.50323	-2.14575	0.311224
0.1800	1.76793	60.8384	-1.97113	17.063	-1.36572	-0.623895	-2.04033	0.434271	-5.20345	0
0.1807	0.235723	52.8989	0.164948	-7.64728	-1.97794	0	-3.27689	11.7253	-7.02735	-0.311224
0.1813	2.12151	47.1103	2.30102	-29.92	-0.470937	1.1998	-0.216398	-18.7943	-4.59191	-0.311224
0.1820	2.12151	43.4266	4.13194	-32.9789	0.470937	-0.335944	1.60753	-65.792	-1.84535	0
0.1827	0.589309	39.7657	5.65771	-33.887	0.470937	-1.87169	0.0927421	-69.7487	-1.53421	0
0.1833	-1.29648	32.4441	2.60617	-39.6942	-0.141281	-1.53574	-2.65861	-54.501	-4.59191	0
0.1840	-4.0073	24.2072	-4.1072	-36.9459	-0.753499	-2.78353	-4.48254	-46.853	-6.72694	0.311224
0.1847	-4.0073	18.716	-5.63297	-26.885	-0.141281	-2.44759	-2.04033	-42.8963	-3.36883	0.311224
0.1853	-2.12151	11.6918	-5.63297	-21.9859	0.753499	-1.53574	0.0927421	-28.2517	-0.622269	0.311224
0.1860	-1.29648	7.43605	-5.93812	-21.3885	1.08316	-0.911847	0.0927421	8.68542	-1.23381	0
0.1867	-1.88579	10.7766	-3.80205	-22.918	-0.470937	-1.24779	-2.34947	23.0164	-3.98037	0
0.1873	-1.29648	10.7766	-2.88659	-26.5743	-1.08316	-2.15964	-4.48254	-4.43921	-5.50386	0
0.1880	1.5322	6.81829	-1.66597	-30.2307	0.141281	-0.911847	-2.04033	-11.1463	-2.45689	0
0.1887	2.12151	8.03094	0.470101	-29.0119	0.753499	-0.335944	0.989249	12.6421	0.289677	0
0.1893	1.5322	6.52085	0.164948	-17.1108	0.753499	-0.335944	0.680109	15.9956	-0.0107288	0.311224
0.1900	-0.589309	-3.86675	-4.7175	-9.17674	-0.753499	-0.623895	-2.65861	12.9557	-2.75729	0
0.1907	-2.4751	-8.44278	-6.54843	-8.86607	-1.69537	-0.335944	-3.89517	27.2867	-4.28078	0
0.1913	-1.29648	-8.14534	-2.58143	-7.64728	0.141281	0	-1.7621	34.9347	-0.933403	-0.622448
0.1920	-1.5322	-14.5518	-0.750512	-7.64728	0.470937	-1.53574	-2.34947	29.1203	2.1243	-0.622448
0.1927	-0.942894	-23.0861	-1.97113	-10.3955	0.470937	-0.911847	-1.7621	26.9972	1.81316	0.311224
0.1933	0	-21.576	-5.63297	-14.6732	0.141281	-0.335944	-1.7621	37.6851	-2.75729	0
0.1940	-2.12151	-5.39972	-6.24327	-16.8001	-0.753499	-1.24779	-3.89517	45.5984	-5.20345	-0.311224
0.1947	-2.4751	11.3943	-1.36082	-13.7651	-0.141281	-0.335944	-1.14382	18.4565	-1.84535	0
0.1953	-1.5322	11.0969	2.91133	-11.3036	1.08316	-0.335944	1.60753	-16.9607	0.289677	0.311224
0.1960	-2.12151	2.5397	3.21648	-11.925	0.753499	-0.911847	0.680109	-20.0006	-0.933403	0
0.1967	-4.0073	-1.41857	1.69071	-14.0519	-0.753499	-1.53574	-2.34947	-15.1271	-4.28078	0
0.1973	-4.0073	-4.16419	1.99587	-24.1367	-0.753499	-1.87169	-4.20431	-31.2916	-6.1154	0.311224
0.1980	-1.29648	-6.31493	4.74225	-42.7531	0.753499	-0.335944	-1.7621	-52.6674	-4.28078	0.311224
0.1987	0	-7.52757	5.35255	-58.9319	0.753499	-0.335944	0.401883	-54.7905	-2.45689	0
0.1993	0.235723	-13.934	3.82679	-69.9009	0.470937	-0.623895	0.401883	-25.815	-3.36883	0
0.2000	-0.589309	-18.2126	1.38556	-76.3055	-0.141281	-1.24779	-2.34947	12.6421	-6.42653	0.311224
0.2007	-1.88579	-14.5518	1.69071	-76.3055	-0.470937	-2.15964	-4.48254	32.1843	-6.72694	0.311224
0.2013	-0.589309	-1.12113	1.08041	-71.7411	0.753499	-1.24779	-1.45296	36.141	-1.23381	-0.311224
0.2020	2.12151	17.183	-7.46388	-68.6822	1.97794	-2.15964	0.989249	30.9539	3.64778	0
0.2027	1.76793	26.0376	-12.0494	-74.4893	1.69537	-3.35944	0.0927421	15.0788	3.64778	0.311224
0.2033	-1.29648	14.1399	-7.15873	-54.0328	0.470937	-2.44759	-2.65861	5.01824	0.901217	0.311224
0.2040	-2.82868	-18.8075	-4.41235	-0.334569	-0.141281	-2.15964	-3.89517	14.7893	-0.622269	0
0.2047	-2.12151	-37.1345	-1.36082	32.023	0.753499	-2.44759	-1.14382	30.0371	1.81316	0
0.2053	-3.0644	-26.4495	3.21648	60.1029	1.36572	-3.35944	-0.216398	32.1843	5.78281	0
0.2060	-3.41799	-18.8075	4.74225	108.615	0.753499	-1.87169	-1.45296	30.3507	5.4824	0.311224
0.2067	-3.0644	-18.5101	2.60617	117.171	-0.753499	0	-2.34947	34.0179	-0.622269	0.311224
0.2073	-3.41799	-14.8492	-1.66597	86.3426	-2.59015	0	-3.58603	18.1429	-7.02735	0.311224
0.2080	-0.353585	-9.65543	-3.49689	74.4415	-1.97794	1.48775	-0.525539	-19.7111	-5.81499	0
0.2087	1.5322	-6.31493	1.38556	58.5734	-0.470937	1.82369	2.22581	-37.3955	-2.75729	0.311224
0.2093	0.235723	-9.06054	5.65771	26.8372	-0.753499	1.1998	0.401883	-26.7077	-2.75729	0.311224
0.2100	-1.29648	-17.2974	2.60617	2.103	-1.97794	0.287952	-2.04033	-10.2295	-4.59191	0.311224
0.2107	-1.29648	-21.2557	0.164948	-20.1697	-1.97794	0	-2.96775	0.747911	-5.20345	0
0.2113	-1.29648	-17.2974	3.21648	-33.2896	-0.753499	-0.335944	-1.14382	4.41509	-2.75729	0.311224
0.2120	-2.82868	-13.6366	4.43709	-36.0378	0.141281	-1.87169	-0.216398	9.60221	-1.53421	0.311224
0.2127	-4.24302	-9.97575	0.775254	-34.819	0.141281	-1.87169	0.0927421	23.33	-3.67997	0.311224
0.2133	-4.95019	-3.56931	-4.7175	-32.3815	-0.753499	-1.53574	-2.04033	32.1843	-6.42653	0
0.2140	-4.59661	-0.503364	-5.63297	-29.0119	-1.36572	-2.15964	-3.58603	22.4132	-6.42653	0.311224
0.2147	-3.0644	-2.33378	-2.58143	-20.7672	0.470937	-1.87169	-1.14382	-1.68883	-3.36883	0.311224
0.2153	-1.5322	-4.48451	-0.750512	-11.6143	1.36572	-2.78353	0.401883	-24.8982	-1.23381	0
0.2160	0	-5.69716	1.08041	7.91016	0.753499	-1.87169	0.401883	-34.042	-0.321863	0.311224
0.2167	-1.29648	-7.23013	1.69071	49.4206	-0.470937	-0.335944	-1.45296	-30.0853	-0.622269	0
0.2173	-2.82868	-8.14534	-0.750512	84.8131	-0.753499	-1.87169	-3.58603	-22.751	-3.67997	0
0.2180	-1.29648	-6.61237	3.52163	99.4625	0.470937	-2.15964	-1.14382	-14.5239	-3.36883	0
0.2187	0.235723	-4.16419	12.6762	83.5944	0.753499	-0.911847	1.29839	-7.79275	-0.622269	0
0.2193	-0.353585	-4.16419	8.70924	32.023	-1.36572	1.1998	0.680109	-6.58644	-0.933403	0
0.2200	-2.82868	-5.39972	-4.41235	-10.0849	-2.59015	0.911847	-1.45296	-8.10639	-3.36883	-0.622448
0.2207	-3.65371	-5.69716	-10.8288	-21.0778	-2.30759	-0.335944	-2.04033	-6.58644	-4.28078	0
0.2213	-3.65371	-4.78195	-10.2185	-22.2966	-0.753499	-3.07149	-1.7621	-0.772037	-0.321863	0.311224
0.2220	-4.24302	-3.86675	-6.85358	-21.6992	0.470937	-4.27128	-1.14382	0.434271	2.73584	0
0.2227	-3.41799	-3.24898	-2.88659	-18.6403	0.753499	-1.53574	0.0927421	-0.772037	1.21235	-0.311224
0.2233	-3.41799	-3.86675	-1.97113	-15.5813	-0.141281	-1.87169	-1.45296	-1.39932	-2.45689	0
0.2240	-4.24302	-4.48451	-1.97113	-8.86607	-0.470937	-3.35944	-3.58603	-6.58644	-4.28078	0
0.2247	-3.65371	-3.24898	-0.750512	5.16192	0.141281	-4.27128	-2.96775	-11.7736	-1.23381	0
0.2253	-1.5322	-3.86675	-0.445359	14.9361	1.08316	-3.35944	-1.14382	-11.1463	2.1243	0.311224
0.2260	0.589309	-8.44278	-2.27628	7.00204	0.470937	0.287952	0.401883	-6.2728	2.1243	0.311224
0.2267	-0.589309	-8.74022	-4.41235	-11.6143	-1.08316	0.575903	-1.45296	-2.91927	-2.45689	0.622448
0.2273	-2.82868	-3.86675	-4.1072	-22.2966	-0.753499	-2.15964	-4.79168	-8.10639	-7.63889	0.311224
0.2280	-4.24302	-1.73889	-0.750512	-14.0519	0.141281	-3.98333	-4.79168	-9.02318	-4.89232	0.311224
0.2287	-3.65371	-2.6541	1.08041	2.103	-0.141281	-0.623895	-1.7621	5.93503	0.901217	0
0.2293	-2.12151	-3.24898	1.38556	6.07003	-1.08316	4.27128	0.989249	17.5397	0.901217	0.311224
0.2300	-3.65371	-3.56931	-0.140206	-6.4285	-1.97794	3.35944	-1.14382	12.9557	-3.98037	0.311224
0.2307	-4.59661	-3.24898	-2.27628	-20.4804	-1.97794	1.1998	-2.96775	6.53819	-7.63889	0
0.2313	-2.82868	-1.12113	-1.66597	-24.4474	-0.753499	-0.911847	-1.14382	5.62139	-4.59191	-0.311224
0.2320	-1.5322	-0.205921	0.164948	-23.5154	0.470937	-1.53574	0.989249	5.01824	-1.84535	0
0.2327	-0.942894	-1.41857	0.470101	-24.1367	0.753499	0	1.29839	2.5815	-3.36883	0
0.2333	-2.12151	-3.86675	-1.36082	-31.1627	-1.08316	-0.335944	-2.04033	-0.168883	-7.63889	0
0.2340	-3.41799	-4.78195	-2.58143	-39.0967	-1.97794	-1.24779	-4.20431	-1.08568	-9.1731	0
0.2347	-1.5322	-2.33378	-0.445359	-38.4754	-0.141281	-1.53574	-1.45296	1.06155	-3.98037	0.311224
0.2353	-1.29648	0.411843	1.99587	-38.1647	1.08316	-1.24779	0.989249	1.35106	-1.23381	0
0.2360	-2.12151	2.24226	2.30102	-42.4424	1.36572	-0.911847	0.989249	0.144757	-3.36883	0
0.2367	-2.82868	4.69043	-0.445359	-38.1647	0.470937	-2.15964	-1.7621	-1.39932	-6.42653	0.311224
0.2373	-3.0644	1.94481	-2.58143	-5.20971	-0.470937	-2.78353	-3.89517	0.434271	-5.81499	0.311224
0.2380	-1.5322	-5.0794	-0.750512	37.5195	0.141281	-3.07149	-1.14382	5.01824	-0.321863	0
0.2387	-1.29648	-6.61237	1.08041	34.7712	0.753499	-2.78353	1.60753	5.62139	4.25932	0
0.2393	-1.5322	-3.24898	1.08041	2.103	0.753499	-2.44759	0.989249	2.26786	4.25932	0.311224
0.2400	-2.4751	-2.95154	-0.445359	-11.6143	0.141281	-2.78353	-2.04033	-2.00247	-0.0107288	0
0.2407	-3.0644	-3.56931	0.470101	-13.4544	-0.753499	-1.53574	-2.96775	-4.43921	-1.84535	0
0.2413	-1.88579	-0.205921	4.43709	-12.5463	0.470937	-1.53574	-0.834679	-2.31611	3.03624	0
0.2420	-0.353585	0.411843	6.26801	-7.64728	1.08316	-1.24779	1.29839	-1.68883	7.00589	0
0.2427	0.942894	-4.48451	6.57317	-4.3016	0.470937	1.82369	1.91667	-6.87595	7.61743	0
0.2433	0	-6.31493	4.74225	-5.52038	-0.753499	0.911847	-1.45296	-17.8775	4.25932	0
0.2440	-1.29648	-4.48451	-0.750512	-7.04984	-1.36572	0	-2.96775	-26.4181	0.600811	0
0.2447	-0.589309	-2.33378	-3.19174	2.41367	-0.753499	3.35944	-0.216398	-21.8342	1.21235	0
0.2453	-1.29648	4.37011	-1.66597	23.7783	-0.470937	3.02349	1.29839	-9.62634	2.73584	0
0.2460	-1.88579	11.3943	-0.750512	45.1429	-1.08316	1.1998	0.0927421	0.144757	-0.321863	0
0.2467	-2.82868	9.56391	0.470101	45.4535	-1.69537	0.911847	-2.04033	10.519	-6.72694	0
0.2473	-4.59661	1.62449	1.38556	22.8702	-1.97794	0.575903	-3.58603	25.7667	-10.997	0
0.2480	-5.5395	-3.56931	-1.05567	6.07003	-0.753499	1.1998	-1.45296	41.6417	-9.1731	0
0.2487	-4.0073	2.24226	-3.49689	3.34569	0.141281	0.575903	0.989249	49.8688	-5.81499	0
0.2493	0	10.7766	-8.07419	0.597444	-0.141281	0.575903	0.401883	48.9761	-4.89232	0.311224
0.2500	1.76793	5.90308	-14.1855	-6.4285	-1.08316	0	-2.96775	63.307	-6.72694	-0.622448
0.2507	0.589309	-5.69716	-10.8288	-9.79808	-0.753499	-0.911847	-3.27689	100.244	-6.42653	-0.622448
0.2513	0	-10.891	-3.19174	-6.4285	0.753499	-0.623895	0.0927421	52.016	-2.14575	0.311224
0.2520	-1.5322	-9.35799	-0.445359	-3.68025	1.08316	-2.44759	0.0927421	-105.769	-0.622269	0
0.2527	-4.59661	-5.9946	1.69071	-6.11783	0.753499	-2.15964	-0.525539	-211.972	-1.84535	0
0.2533	-6.71812	-6.31493	1.38556	-11.0169	0.141281	-1.53574	-1.14382	-207.678	-5.20345	0
0.2540	-6.48239	-9.65543	-1.36082	-13.1438	-0.470937	-2.15964	-2.34947	-136.289	-6.1154	0
0.2547	-2.82868	-11.4858	-1.05567	-10.7062	0.753499	-1.87169	0.401883	6.53819	-2.45689	0
0.2553	0	-8.74022	-2.27628	-4.61227	0.753499	-1.87169	2.53495	159.739	-0.0107288	0
0.2560	0.942894	-5.0794	-4.7175	2.72434	-0.141281	-1.53574	1.60753	191.779	-0.933403	0
0.2567	-0.353585	-5.9946	-5.93812	6.69137	-1.69537	-1.24779	-0.834679	128.013	-3.06843	0
0.2573	-0.942894	-3.24898	-4.41235	8.81827	-2.59015	-0.623895	-1.14382	61.4734	-3.36883	0
0.2580	0	4.69043	-0.445359	10.0371	-0.753499	0.575903	1.29839	-17.2502	-1.23381	-0.311224
0.2587	-0.353585	9.86135	1.99587	3.94313	0.753499	-0.335944	1.91667	-71.5823	0.600811	0
0.2593	0.942894	5.28532	2.30102	-8.86607	0.470937	0	0.0927421	-57.8545	-0.321863	0.311224
0.2600	1.17862	-5.69716	0.775254	-17.4215	-1.08316	0.287952	-3.27689	-31.0021	-4.59191	0
0.2607	-0.942894	-9.65543	1.38556	-14.9839	-1.36572	-1.87169	-4.48254	-16.0439	-6.1154	-0.311224
0.2613	-2.12151	-5.9946	4.43709	-7.04984	0.141281	-2.44759	-2.34947	6.85183	-1.84535	0.311224
0.2620	-2.82868	-2.95154	7.48863	-3.68025	0.470937	-1.53574	-0.834679	17.8292	0.600811	0.311224
0.2627	-2.4751	2.5397	7.48863	-6.73917	0.141281	-0.623895	-1.14382	7.16547	-0.933403	0
0.2633	-2.82868	8.35126	2.91133	-12.2357	-0.753499	-1.24779	-3.58603	-1.39932	-4.59191	0
0.2640	-2.4751	7.43605	-1.66597	-13.7651	-1.08316	-1.87169	-4.79168	-2.91927	-5.81499	0
0.2647	-0.589309	6.81829	-0.445359	-10.0849	0.753499	-0.911847	-2.34947	-3.83606	-2.75729	0
0.2653	-0.353585	8.03094	4.43709	-7.04984	1.69537	-1.53574	-1.45296	-2.91927	-0.321863	0
0.2660	-0.942894	2.24226	3.52163	-5.83105	0.470937	-0.911847	-1.45296	-2.91927	-1.53421	0
0.2667	-4.0073	-4.48451	-3.80205	-6.4285	-1.08316	-0.911847	-2.96775	-4.75285	-4.59191	0.311224
0.2673	-6.48239	-1.41857	-7.15873	-7.95795	-1.08316	-1.53574	-4.20431	-2.91927	-5.20345	0
0.2680	-4.24302	4.98788	-2.58143	-1.24268	0.141281	-1.24779	-2.04033	3.49829	-0.933403	-0.622448
0.2687	-1.5322	5.28532	2.60617	11.2797	1.36572	-1.87169	-0.216398	6.85183	2.4247	-0.622448
0.2693	-0.589309	-0.503364	1.99587	9.75029	0.753499	-0.911847	-0.525539	5.62139	0.600811	0
0.2700	-1.5322	-6.31493	-1.97113	-3.08281	-0.753499	-0.911847	-3.58603	2.89514	-3.06843	0
0.2707	-1.88579	-6.61237	-4.41235	-6.73917	-0.470937	-2.15964	-4.20431	-10.8568	-3.36883	0
0.2713	0	0.709285	-4.41235	-2.46147	0.753499	-2.15964	-0.525539	-37.106	-0.622269	0
0.2720	0	7.7335	-3.80205	-2.46147	1.36572	-3.07149	0.680109	-47.4803	0.600811	0
0.2727	0.235723	5.60564	-3.49689	-12.5463	0.753499	-2.78353	0.0927421	-40.4596	-0.622269	0
0.2733	-0.353585	-2.33378	-4.7175	-27.4824	-0.470937	-2.44759	-2.04033	-31.9189	-4.59191	0
0.2740	-1.5322	-5.0794	-3.80205	-45.1907	-0.753499	-3.07149	-2.96775	9.89172	-8.86197	0
0.2747	-0.942894	-3.24898	-1.05567	-70.833	0.141281	-1.87169	-0.525539	57.8063	-8.56156	0
0.2753	-0.942894	-3.56931	0.470101	-92.795	0.470937	-1.53574	-0.216398	43.4753	-6.42653	0
0.2760	-0.942894	-1.73889	3.21648	-103.788	0.753499	-1.24779	-1.14382	10.519	-7.33848	-0.311224
0.2767	-1.29648	0.709285	5.96286	-113.538	0.470937	-1.53574	-2.96775	-2.60562	-9.77391	0
0.2773	-1.5322	-0.205921	7.48863	-116	-0.141281	-2.44759	-3.89517	-12.9799	-8.86197	0.311224
0.2780	-1.29648	1.94481	10.235	-111.411	0.753499	-2.44759	-1.45296	-21.8342	-3.36883	0
0.2787	-2.12151	6.52085	10.8453	-106.823	1.08316	-2.44759	0.680109	-28.8549	0.901217	0
0.2793	-1.5322	8.03094	5.35255	-51.2846	0.470937	0.287952	0.0927421	-18.4806	0.600811	0
0.2800	-1.88579	5.28532	-8.37934	80.8461	-1.08316	0.287952	-1.7621	12.039	1.51276	-0.622448
0.2807	-2.4751	1.62449	-18.1525	203.537	-1.69537	0	-2.04033	30.3507	5.4824	-0.311224
0.2813	-1.5322	0.411843	-14.4907	242.275	-0.470937	0.911847	-0.216398	24.8499	8.22897	0
0.2820	-0.942894	0.709285	-7.46388	213.598	0.470937	-0.623895	-0.216398	12.9557	6.70548	0
0.2827	-1.29648	4.69043	-5.02266	155.933	-0.470937	-1.24779	-1.7621	3.78781	2.4247	0
0.2833	-2.4751	11.3943	-7.76904	79.3167	-1.97794	-1.24779	-2.96775	1.6647	-3.06843	0.311224
0.2840	-2.82868	15.3526	-7.76904	18.2818	-2.59015	-0.335944	-3.27689	4.10145	-5.81499	0.311224
0.2847	-2.4751	12.0121	-1.05567	-4.3016	-1.69537	0.287952	-1.14382	6.85183	-1.23381	0.311224
0.2853	-2.12151	1.00673	2.60617	-19.2377	-0.753499	0.911847	0.0927421	6.24867	3.34738	0.311224
0.2860	-3.41799	-3.24898	1.08041	-31.7601	-1.08316	2.11165	-0.525539	5.01824	1.81316	0
0.2867	-5.77522	2.5397	-0.445359	-38.7861	-1.36572	0.911847	-2.34947	9.28857	-1.84535	0
0.2873	-6.71812	5.28532	-0.750512	-57.4024	-1.36572	-1.53574	-3.58603	5.93503	-2.75729	0
0.2880	-5.77522	3.77523	-0.140206	-74.4893	-0.470937	-5.18313	-3.89517	-0.772037	-0.0107288	0
0.2887	-3.65371	1.94481	1.69071	-76.0188	0.470937	-4.27128	-1.7621	5.01824	2.4247	0
0.2893	-1.29648	-4.16419	2.91133	-65.6471	0.753499	0.911847	0.989249	21.4964	2.73584	0.311224
0.2900	-2.12151	-12.401	0.775254	-60.4374	-0.753499	1.48775	-1.14382	33.1011	-0.321863	0.311224
0.2907	-3.65371	-13.6366	-1.05567	-68.0847	-1.36572	-0.911847	-2.96775	8.37178	-3.98037	0
0.2913	-2.82868	-13.6366	0.470101	-73.5812	1.36572	-3.07149	-1.45296	-30.6885	-2.45689	0
0.2920	-1.88579	-16.0619	0.470101	-79.0538	1.69537	-2.78353	-0.216398	-39.5428	-2.45689	0
0.2927	-1.29648	-8.14534	-1.05567	-84.2635	0.470937	-0.623895	0.401883	-33.1252	-7.02735	0
0.2933	-1.88579	2.5397	-2.58143	-56.4704	-0.141281	-0.911847	-1.45296	-32.5221	-11.6085	0
0.2940	-2.12151	0.411843	-3.19174	14.9361	-0.753499	-0.911847	-2.65861	-23.6678	-9.77391	0
0.2947	0	-5.0794	-1.36082	95.8061	-0.470937	1.48775	0.680109	4.7046	-1.23381	0.311224
0.2953	1.5322	-4.78195	-0.445359	128.14	-0.470937	3.64739	3.43146	38.8914	2.1243	0.311224
0.2960	1.5322	-3.24898	-0.750512	94.5873	-0.753499	3.64739	2.53495	66.9742	-1.23381	0
0.2967	0	-2.33378	-3.49689	38.1169	-1.08316	0.911847	-0.834679	70.9309	-5.81499	0
0.2973	-1.88579	3.15746	-7.15873	-1.86403	-1.08316	-0.911847	-2.34947	22.7268	-6.72694	0
0.2980	-1.88579	12.3095	-7.15873	-25.3555	0.141281	-2.15964	-0.834679	-49.6034	-3.36883	0.311224
0.2987	-1.5322	16.8856	-4.7175	-30.5413	0.753499	-3.07149	0.680109	-76.7694	0.600811	0.311224
0.2993	-1.29648	7.7335	-2.58143	-1.24268	0.753499	-1.53574	0.680109	-62.728	3.03624	0.311224
0.3000	-3.41799	-3.24898	0.775254	47.8911	-0.141281	-1.53574	-1.7621	-56.0209	1.81316	0
0.3007	-4.59661	-1.41857	5.96286	82.6862	-0.141281	-1.53574	-2.34947	-53.2706	1.21235	0.311224
0.3013	-3.0644	3.4549	9.31955	80.2487	0.753499	-0.623895	0.0927421	-45.6467	3.64778	0.311224
0.3020	-1.5322	3.15746	8.40409	41.7972	1.08316	-0.911847	0.680109	-42.2932	3.34738	0.311224
0.3027	-0.353585	-0.503364	6.87832	14.9361	0.753499	-1.24779	-0.216398	-21.231	1.21235	0.311224
0.3033	-1.5322	-1.12113	4.43709	43.9241	-0.470937	-1.53574	-2.34947	-1.68883	-1.84535	0
0.3040	-3.41799	1.94481	2.30102	82.0649	-1.69537	-0.623895	-2.96775	-15.1271	-3.67997	0
0.3047	-1.88579	-0.205921	1.69071	74.7522	-1.36572	0.287952	-1.7621	-6.2728	-1.23381	0.311224
0.3053	-0.589309	-7.52757	0.470101	48.2018	-0.470937	0.287952	-2.34947	42.5585	0.289677	0.311224
0.3060	-1.29648	-10.2732	-0.750512	28.3666	-1.08316	1.1998	-2.04033	58.4336	-1.53421	0
0.3067	-3.0644	-5.39972	-3.49689	12.4985	-2.91981	0.575903	-3.58603	27.914	-6.42653	0.311224
0.3073	-4.95019	4.37011	-5.02266	3.94313	-2.91981	-0.623895	-4.48254	6.85183	-8.25043	0.311224
0.3080	-4.0073	10.1817	-3.49689	1.81623	-1.08316	0	-1.45296	5.62139	-4.59191	0
0.3087	-2.12151	9.56391	-1.97113	-0.932013	-0.141281	0	0.680109	4.41509	-2.14575	0
0.3093	-1.5322	4.98788	-2.27628	-4.89904	-0.470937	-0.911847	-0.525539	2.5815	-3.36883	0
0.3100	-2.12151	-2.6541	-3.80205	-10.3955	-1.36572	-1.53574	-3.27689	1.06155	-7.02735	-0.622448
0.3107	-2.4751	-5.39972	-3.19174	-11.3036	-0.753499	-1.53574	-3.58603	2.89514	-7.63889	-0.311224
0.3113	-1.5322	-0.823686	-0.140206	-10.3955	0.470937	-1.24779	-1.14382	6.24867	-3.06843	0.311224
0.3120	-1.29648	3.4549	1.69071	-36.0378	0.753499	-1.87169	-0.216398	0.434271	-1.53421	0
0.3127	-1.5322	4.98788	1.99587	-79.6751	1.36572	-2.44759	-0.834679	-8.70954	-4.28078	0
0.3133	-2.82868	3.77523	-0.445359	-107.134	0.753499	-1.87169	-2.65861	-10.8568	-8.25043	0
0.3140	-3.41799	2.24226	-1.05567	-122.094	0.141281	-1.53574	-3.58603	-7.18959	-8.86197	0
0.3147	-1.5322	3.15746	1.69071	-136.122	1.08316	-0.911847	-0.525539	-2.60562	-5.50386	0
0.3153	0	3.4549	3.21648	-146.517	2.30759	-0.911847	0.680109	-1.39932	-2.75729	0
0.3160	-0.353585	1.32705	1.38556	-154.141	1.97794	-1.87169	-1.14382	-1.39932	-3.06843	-0.311224
0.3167	-2.4751	-0.503364	-2.58143	-162.672	0.141281	-2.78353	-3.89517	-2.31611	-7.33848	0
0.3173	-3.41799	2.24226	-3.49689	-156.578	-0.141281	-2.44759	-4.20431	-3.20878	-7.63889	0
0.3180	-2.4751	4.37011	-0.750512	-115.689	1.08316	-3.35944	-2.34947	-1.39932	-3.98037	-0.311224
0.3187	-2.12151	0.709285	0.470101	-35.7271	0.753499	-4.27128	-1.45296	1.06155	-1.53421	-0.311224
0.3193	-1.5322	-1.73889	1.38556	85.7213	0.141281	-2.15964	-0.525539	-9.3127	1.81316	0
0.3200	-1.88579	-1.41857	0.164948	208.723	-0.753499	-1.53574	-2.34947	-32.5221	3.64778	0
0.3207	-2.12151	-1.12113	-0.140206	270.666	-1.08316	-0.911847	-2.65861	-38.3123	5.78281	0
0.3213	-0.353585	-0.205921	3.21648	269.447	-0.141281	0.911847	0.401883	-29.1685	9.14091	0
0.3220	0	-0.503364	4.43709	219.405	0.141281	-1.24779	0.401883	-8.42003	8.84051	-0.311224
0.3227	-0.589309	-3.86675	-1.05567	134.568	0.141281	-2.15964	-1.14382	48.0593	4.25932	-0.311224
0.3233	-1.5322	-4.78195	-7.15873	62.5404	-0.753499	-1.87169	-2.96775	68.8078	-0.933403	-0.311224
0.3240	-2.12151	-0.205921	-5.63297	28.3666	-0.470937	-2.15964	-3.27689	17.5397	-1.84535	0
0.3247	-1.29648	4.69043	-1.05567	25.3077	1.08316	-2.15964	-1.14382	-12.3767	0.901217	0
0.3253	-0.942894	6.81829	-0.140206	29.8722	1.08316	-1.87169	-0.525539	-5.35601	1.81316	-0.311224
0.3260	-0.589309	6.81829	-1.05567	9.75029	-0.141281	0.911847	0.0927421	-4.12557	-0.321863	0
0.3267	-1.88579	5.90308	-1.36082	-23.2047	-1.97794	1.48775	-1.45296	-8.42003	-4.28078	0
0.3273	-3.0644	5.90308	-1.05567	-45.5013	-2.30759	0.287952	-2.96775	-9.3127	-4.89232	0
0.3280	-1.5322	8.94614	0.164948	-50.3765	-0.470937	0.575903	-0.525539	-5.66965	-1.23381	0
0.3287	-0.589309	9.26647	0.470101	-29.0119	0.141281	0.575903	1.60753	-2.31611	1.81316	0
0.3293	-1.88579	4.98788	-1.05567	-21.9859	-0.753499	0.575903	0.989249	-1.68883	-0.0107288	0
0.3300	-4.59661	2.24226	-2.88659	-46.7201	-1.08316	-0.623895	-2.04033	-6.58644	-5.50386	0.311224
0.3307	-4.59661	3.77523	-2.58143	-59.2186	-0.141281	-1.24779	-2.65861	-5.95916	-5.50386	0
0.3313	-1.88579	3.77523	-1.36082	-59.5293	1.08316	-1.87169	-0.216398	12.039	-2.14575	0
0.3320	-1.5322	-3.56931	-0.750512	-67.4634	1.08316	-5.18313	-1.45296	27.2867	-1.23381	-0.311224
0.3327	-0.353585	-12.401	0.164948	-79.3645	0.470937	-4.27128	-2.04033	29.4339	-0.321863	0
0.3333	0	-12.1036	-1.66597	-62.2776	-0.470937	-1.53574	-2.04033	28.2035	-0.622269	0.311224
0.3340	-0.589309	-6.31493	-5.63297	2.103	-1.69537	-0.623895	-2.96775	5.01824	-3.36883	0
0.3347	0	-0.823686	-4.41235	61.3217	-1.36572	0.911847	-0.216398	-32.5221	-3.06843	0
0.3353	0.235723	2.86002	0.775254	63.7592	0.141281	0.911847	2.22581	-41.9795	-2.14575	0
0.3360	0	1.94481	2.60617	34.4606	0.141281	0.575903	0.989249	-20.3142	-4.59191	-0.311224
0.3367	-0.942894	-1.12113	-0.445359	18.9031	-1.36572	0.575903	-2.04033	6.24867	-8.86197	0
0.3373	-1.88579	-3.24898	-3.49689	12.7853	-1.69537	0	-2.96775	22.4132	-9.47351	0
0.3380	-1.5322	-2.95154	-2.27628	3.63246	-0.141281	-1.53574	-1.14382	19.6628	-4.89232	0
0.3387	-1.5322	4.07267	2.60617	-1.24268	1.08316	-1.87169	0.0927421	-9.93998	-1.53421	0.311224
0.3393	-2.4751	11.0969	4.43709	-10.3955	0.470937	-0.911847	-0.216398	-30.3748	-3.98037	0
0.3400	-4.59661	10.4791	1.08041	-14.9839	-0.753499	-1.53574	-2.34947	-18.4806	-6.42653	-0.622448
0.3407	-4.24302	11.6918	-1.97113	30.4935	-0.753499	0	-2.04033	-0.168883	-0.933403	-0.311224
0.3413	-1.88579	15.0551	-2.58143	96.1168	-0.141281	1.82369	0.989249	10.2054	6.70548	0.311224
0.3420	-2.12151	14.7577	-3.19174	100.084	0.141281	0.287952	0.680109	5.93503	7.00589	0
0.3427	-2.4751	16.5881	-0.750512	57.9521	-0.470937	0.911847	-0.525539	-2.00247	3.64778	0
0.3433	-3.41799	14.4374	-0.140206	23.7783	-2.30759	0.911847	-3.27689	-7.50323	0.600811	0
0.3440	-2.82868	-1.73889	-2.58143	3.03502	-1.08316	0.287952	-3.58603	-25.5013	-0.933403	0
0.3447	-0.353585	-27.9824	-3.49689	3.94313	0.141281	-0.911847	-1.45296	-31.6053	-0.0107288	0
0.3453	0.235723	-49.65	-0.445359	20.4326	-0.141281	-1.87169	-1.14382	-6.2728	-1.23381	-0.311224
0.3460	0.235723	-51.7778	4.13194	20.1219	-0.753499	0.287952	-0.834679	1.97834	-5.81499	0
0.3467	-1.29648	-44.7536	3.21648	1.81623	-1.69537	0.575903	-2.04033	-28.2517	-9.47351	0
0.3473	-2.82868	-42.008	1.69071	-10.3955	-1.69537	-0.335944	-3.27689	-55.1041	-8.56156	0
0.3480	-1.88579	-42.008	3.82679	-10.3955	0.141281	0	-0.525539	-55.7073	-3.67997	0
0.3487	-2.12151	-41.3902	3.82679	-9.79808	1.08316	0.575903	1.29839	-32.8116	-2.14575	0
0.3493	-3.41799	-36.2193	0.164948	-11.0169	0.141281	1.1998	0.401883	-1.68883	-3.67997	0
0.3500	-5.5395	-38.3472	-3.49689	-13.4544	-0.753499	0	-2.34947	16.9124	-6.42653	0.311224
0.3507	-5.77522	-23.7039	-1.36082	-14.0519	-0.470937	-0.911847	-2.96775	38.5777	-7.02735	0.311224
0.3513	-4.59661	35.8075	1.69071	-11.3036	1.08316	-1.87169	-0.834679	77.9516	-2.45689	0.311224
0.3520	-2.82868	69.9904	-1.05567	-11.0169	1.08316	-2.15964	0.401883	85.286	-0.0107288	0.311224
0.3527	0	42.2139	-4.1072	-14.9839	0.470937	-1.24779	0.0927421	32.1843	-2.45689	0
0.3533	0.235723	14.4374	-5.63297	-21.9859	-0.753499	-2.15964	-2.34947	-12.9799	-6.72694	-0.311224
0.3540	0.235723	14.7577	-3.19174	-27.1957	-0.470937	-2.44759	-3.27689	-18.7943	-7.02735	0
0.3547	1.17862	27.2732	4.13194	-25.953	1.36572	-2.44759	-1.14382	-15.7303	-3.06843	0
0.3553	1.17862	28.4858	8.09893	-24.7342	1.36572	-2.15964	-0.525539	-8.10639	-2.45689	0
0.3560	2.12151	16.2678	5.65771	-26.885	-0.141281	-0.623895	-0.525539	-0.168883	-5.20345	-0.311224
0.3567	2.4751	8.35126	1.99587	-27.1957	-0.753499	-1.87169	-2.96775	-5.04237	-7.63889	0
0.3573	2.4751	9.26647	-2.58143	-18.0189	0.141281	-2.44759	-3.89517	3.78781	-8.25043	0
0.3580	2.4751	17.5033	-9.91336	-11.0169	0.753499	-1.53574	-0.525539	40.1218	-4.89232	0
0.3587	0.942894	29.401	-9.2948	-10.0849	-0.141281	-2.78353	-0.216398	62.3902	-2.75729	0
0.3593	0.589309	38.5531	-2.27628	8.22083	-0.470937	-2.15964	-1.45296	59.9535	-2.75729	0
0.3600	1.76793	37.3404	-12.6597	21.03	-0.753499	0	-2.34947	25.4772	-3.67997	0
0.3607	2.71082	13.5222	-21.204	9.43962	-0.470937	0	-2.34947	-46.2498	-3.98037	0
0.3613	1.5322	-24.6191	-10.2185	7.59949	0.753499	-1.87169	-0.216398	-82.2702	0.600811	0.311224
0.3620	-1.5322	-60.3121	-1.05567	11.8772	0.470937	-3.35944	0.401883	-49.917	4.87086	0
0.3627	-3.0644	-81.9796	4.43709	2.72434	0.141281	-2.15964	-0.216398	-13.6072	3.95892	-0.311224
0.3633	-4.59661	-85.343	6.87832	-7.64728	-0.470937	-1.87169	-2.96775	-0.168883	-1.53421	0
0.3640	-6.12881	-80.4695	5.0474	-13.7651	-0.470937	-1.87169	-3.58603	8.68542	-2.75729	0
0.3647	-6.71812	-84.4278	9.6247	-21.6992	1.08316	-1.53574	-0.525539	13.2694	2.1243	0
0.3653	-7.30743	-99.6889	13.8968	-35.4165	1.36572	-1.87169	-0.834679	11.4358	3.03624	-0.311224
0.3660	-7.66101	-80.1492	4.74225	-50.0658	0.470937	-0.335944	-1.7621	5.01824	-0.933403	0
0.3667	-10.1361	-11.4858	-6.85358	-52.5034	-1.36572	0	-2.34947	-3.20878	-5.50386	0
0.3673	-10.9611	58.3902	-5.32781	-41.5343	-1.36572	-0.911847	-2.96775	-14.2103	-6.1154	-0.311224
0.3680	-7.66101	114.538	0.470101	-34.1977	-0.141281	-1.24779	-1.45296	-25.1877	-1.53421	0
0.3687	-3.41799	149.019	0.775254	-35.7271	0.753499	-1.87169	0.0927421	-27.0213	1.51276	0
0.3693	-0.589309	146.273	1.99587	-38.1647	0.753499	-0.911847	0.401883	-13.6072	-0.0107288	0
0.3700	1.5322	97.1492	-1.97113	-40.3155	-0.141281	-0.623895	-1.7621	21.81	-2.75729	0
0.3707	3.65371	22.9946	-8.6845	-33.2896	-0.141281	-0.911847	-2.34947	54.4527	-2.14575	-0.311224
0.3713	4.83233	-18.5101	-8.98965	-13.1438	1.08316	-1.87169	-0.525539	67.891	0.600811	0
0.3720	4.24302	-19.7227	-9.91336	3.03502	1.08316	-1.53574	0.680109	81.6188	-0.0107288	0
0.3727	2.12151	-4.48451	-7.46388	7.00204	-0.141281	0.911847	0.680109	70.9309	-2.45689	0
0.3733	-2.82868	10.1817	2.91133	7.00204	-1.36572	0.287952	-2.04033	15.0788	-4.59191	0
0.3740	-6.12881	18.4185	9.6247	5.16192	-1.36572	-1.53574	-2.34947	-12.6904	-4.28078	0
0.3747	-4.59661	25.7402	7.18347	2.72434	0.470937	-1.53574	1.29839	22.7268	-0.0107288	0.311224
0.3753	-2.12151	27.868	2.30102	-1.55335	1.08316	-0.623895	2.22581	9.28857	1.21235	0
0.3760	-2.4751	22.3768	-1.66597	-8.5793	-0.141281	0	0.0927421	-76.7694	-1.53421	-0.933672
0.3767	-3.65371	16.2678	-6.85358	-14.3626	-1.08316	-1.24779	-2.34947	-104.852	-5.20345	-0.311224
0.3773	-3.41799	12.9273	-10.2185	-14.3626	-0.470937	-2.15964	-2.65861	-60.8944	-5.20345	0.311224
0.3780	-2.82868	9.86135	-6.54843	-11.925	0.753499	-2.78353	-1.45296	-26.1045	-1.53421	0
0.3787	-2.82868	8.03094	-2.58143	-13.7651	0.470937	-1.87169	-0.525539	-18.167	-0.0107288	0
0.3793	-1.5322	10.1817	-2.27628	-17.1108	-0.141281	0	0.0927421	-19.7111	-1.53421	0
0.3800	-1.88579	9.86135	-3.49689	-18.9509	-1.08316	-1.24779	-2.34947	-21.5205	-4.28078	0
0.3807	-1.88579	4.98788	-2.88659	-16.8001	-1.08316	-1.87169	-3.27689	-18.4806	-4.89232	0
0.3813	-0.353585	3.4549	0.470101	-10.3955	0.753499	-2.15964	-1.14382	-13.2935	-0.622269	0
0.3820	-0.589309	4.69043	1.99587	-0.334569	1.36572	-3.07149	-1.45296	-11.7736	1.21235	0
0.3827	-0.353585	3.77523	0.775254	8.22083	1.08316	-0.911847	-1.14382	-11.7736	-0.0107288	0
0.3833	-1.5322	1.94481	-1.05567	7.59949	0.141281	-0.335944	-1.7621	-9.93998	-3.67997	0
0.3840	-3.0644	2.5397	-0.750512	4.85125	-0.141281	-1.53574	-2.65861	-7.18959	-4.59191	0
0.3847	-2.4751	3.77523	2.30102	3.94313	0.753499	-2.44759	-0.834679	-5.66965	-0.321863	0
0.3853	-1.29648	3.77523	4.74225	1.19489	1.69537	-2.44759	0.680109	-8.42003	1.51276	0
0.3860	-0.589309	3.4549	4.13194	-2.77214	1.69537	-0.911847	0.989249	-11.1463	-1.53421	0
0.3867	-1.5322	4.07267	4.13194	-4.89904	0.141281	-1.87169	-1.45296	-10.8568	-5.81499	0
0.3873	-1.88579	5.28532	7.18347	-1.55335	-0.141281	-2.78353	-2.34947	-6.58644	-7.02735	0
0.3880	0.589309	5.60564	8.09893	2.103	1.36572	-2.78353	0.680109	-2.91927	-3.98037	0.311224
0.3887	0.942894	3.4549	3.82679	-3.99093	1.36572	-2.44759	2.81318	-2.91927	-0.622269	0
0.3893	-1.29648	-1.73889	-1.36082	-11.6143	0.470937	-0.335944	2.53495	-4.43921	1.51276	0
0.3900	-3.0644	-11.1884	-4.1072	-13.7651	-1.08316	0.911847	0.0927421	-6.87595	-0.0107288	0
0.3907	-3.41799	-16.0619	-4.1072	-13.1438	-1.69537	-0.335944	-1.14382	-6.87595	-0.622269	-0.311224
0.3913	-3.0644	-14.8492	-2.88659	-11.6143	-0.470937	-1.24779	-0.525539	-3.20878	2.73584	-0.311224
0.3920	-1.88579	-15.1467	-1.97113	-14.3626	-0.470937	-0.335944	0.0927421	-1.08568	2.73584	0
0.3927	-1.29648	-17.5948	-1.97113	-17.1108	-0.753499	0.287952	-0.834679	-1.68883	-0.321863	0
0.3933	-4.0073	-20.043	-2.58143	-14.3626	-1.69537	-0.911847	-4.79168	-3.20878	-2.75729	0
0.3940	-5.5395	-20.3405	-2.27628	-8.86607	-1.36572	-1.87169	-6.02824	-1.08568	-1.23381	0
0.3947	-3.41799	-18.5101	-0.140206	3.63246	0.753499	-1.87169	-3.27689	14.1862	3.34738	0
0.3953	-1.88579	-18.5101	0.470101	24.3996	1.97794	-0.335944	-1.45296	34.9347	4.55973	0
0.3960	-2.12151	-24.6191	-0.140206	34.4606	1.08316	0.575903	-2.04033	47.432	0.901217	0
0.3967	-2.82868	-31.3229	-1.66597	16.1549	-0.470937	-2.15964	-5.10082	53.5359	-7.02735	0
0.3973	-2.82868	-16.0619	0.164948	-7.95795	-0.141281	-2.78353	-5.40996	41.9554	-10.3855	0
0.3980	-2.4751	11.6918	4.43709	-23.5154	0.753499	-1.24779	-1.14382	8.68542	-5.20345	0
0.3987	-1.29648	20.5464	4.43709	-42.4424	0.141281	0	0.989249	-22.1478	-0.622269	0.311224
0.3993	-0.353585	14.4374	0.164948	-62.2776	-1.08316	0.911847	-0.834679	-44.1026	-3.06843	0
0.4000	-2.12151	4.69043	-3.19174	-74.1786	-1.97794	0.287952	-3.89517	-53.5842	-9.1731	-0.622448
0.4007	-1.5322	-1.41857	-2.58143	-75.0868	-1.08316	-0.623895	-3.89517	-37.9987	-9.1731	-0.311224
0.4013	0.942894	-3.56931	-2.27628	-81.5153	-0.470937	-0.911847	-1.7621	-14.8135	-2.75729	0
0.4020	2.71082	-0.503364	-2.88659	-81.802	-1.36572	-0.335944	-1.45296	-12.6904	0.901217	0
0.4027	3.88944	8.6487	-1.05567	-67.774	-1.69537	1.48775	-0.834679	-23.0646	-0.622269	0
0.4033	0.942894	13.2247	-4.1072	-52.814	-2.59015	0.575903	-2.65861	-28.8549	-3.36883	0
0.4040	-2.4751	16.2678	-8.37934	21.9381	-2.30759	0.575903	-2.96775	-33.7284	0.600811	0
0.4047	-3.41799	20.2489	-3.19174	136.695	-0.753499	0.575903	-0.525539	-40.4596	5.78281	0
0.4053	-3.0644	16.8856	4.13194	164.154	-0.753499	-0.911847	0.0927421	-55.3937	3.03624	0.311224
0.4060	-0.589309	8.35126	3.52163	110.455	-1.36572	-0.335944	-0.525539	-75.2495	-2.45689	0
0.4067	0.942894	-10.2732	-0.750512	64.978	-2.30759	0.287952	-2.65861	-78.2894	-6.72694	-0.311224
0.4073	0.942894	-32.5585	0.164948	50.018	-1.69537	0	-2.96775	-52.0401	-6.72694	-0.311224
0.4080	0.942894	-36.2193	1.69071	43.6134	-0.470937	-0.623895	-0.834679	14.7893	-3.67997	0
0.4087	-0.589309	-29.1951	-0.140206	32.023	-0.141281	-1.53574	-0.216398	86.8059	-3.67997	0
0.4093	-3.65371	-32.5585	-0.445359	10.3477	0.470937	-1.53574	-0.834679	104.201	-7.33848	0
0.4100	-8.0146	-34.0686	-1.05567	-13.1438	0.141281	-2.44759	-3.58603	98.097	-12.2201	-0.311224
0.4107	-8.6039	-17.5948	-0.140206	-15.892	0.753499	-2.44759	-3.27689	101.45	-10.6966	-0.311224
0.4113	-6.48239	-18.2126	2.30102	-17.7321	1.97794	-1.87169	0.401883	88.6395	-4.89232	0
0.4120	-6.12881	-56.6513	1.69071	-42.7531	1.97794	-1.53574	0.680109	70.0141	-3.06843	0
0.4127	-6.48239	-68.5719	-0.140206	-64.4045	0.753499	-0.911847	-1.14382	53.5359	-4.89232	-0.311224
0.4133	-7.30743	-55.1412	-1.36082	-74.1786	-1.08316	-1.87169	-3.27689	22.0996	-8.25043	-0.311224
0.4140	-6.48239	-50.8626	-0.445359	-84.5503	-0.753499	-1.53574	-2.65861	-0.482523	-7.63889	0.311224
0.4147	-2.82868	-0.823686	1.38556	-76.3055	-0.141281	-1.53574	-0.216398	4.41509	-2.45689	0.311224
0.4153	-0.353585	63.2637	1.08041	-38.4754	-0.141281	-3.35944	-0.525539	8.37178	0.901217	0
0.4160	1.17862	66.3296	0.470101	4.56447	-0.141281	-1.87169	-1.14382	-1.68883	-0.933403	0.311224
0.4167	0.235723	40.086	-1.36082	29.2748	-1.08316	-0.911847	-2.65861	-16.647	-5.20345	0
0.4173	-1.29648	26.9528	-4.1072	23.4676	-0.753499	-0.911847	-2.96775	-27.0213	-3.98037	0
0.4180	-0.353585	25.7402	-1.97113	-4.3016	0.470937	-0.335944	-0.525539	-30.3748	0.901217	0
0.4187	0.235723	22.9946	3.21648	-11.0169	0.470937	-1.53574	0.680109	-29.1685	4.25932	-0.311224
0.4193	-1.5322	14.7577	5.0474	32.9311	-0.470937	-0.911847	-0.216398	-28.8549	4.25932	0
0.4200	-4.59661	1.94481	3.82679	89.6883	-1.69537	-0.335944	-2.34947	-31.6053	0.901217	0
0.4207	-3.65371	-13.6366	5.35255	111.985	-1.08316	-0.335944	-1.45296	-29.1685	0.901217	0
0.4213	-1.29648	-21.8734	7.79378	89.6883	0.753499	-0.911847	0.401883	-16.3334	3.34738	0
0.4220	-1.29648	-15.7644	1.69071	49.7312	1.08316	-2.78353	-1.14382	-3.83606	2.73584	0
0.4227	0	-4.16419	-11.7443	22.2488	0.141281	-0.623895	-1.7621	-1.08568	-0.0107288	0
0.4233	0	3.15746	-15.7113	9.75029	-1.36572	1.82369	-2.96775	-8.10639	-3.98037	0
0.4240	-0.589309	7.7335	-8.98965	10.0371	-1.36572	1.1998	-2.34947	-19.3974	-4.28078	0
0.4247	0	10.4791	-3.49689	14.9361	-0.470937	-0.623895	-0.216398	-25.5013	-0.321863	0
0.4253	-1.29648	10.4791	-2.27628	13.7173	0.141281	-1.24779	-0.834679	-23.9814	1.21235	0.311224
0.4260	-1.88579	7.43605	-2.27628	7.91016	-0.470937	0.575903	-1.14382	-19.0838	-0.622269	0.311224
0.4267	-2.4751	3.77523	-3.80205	0.286773	-1.36572	0	-2.96775	-11.4599	-3.36883	0
0.4273	-2.4751	2.86002	-4.1072	-2.46147	-0.753499	-1.53574	-2.65861	-3.20878	-2.45689	0.311224
0.4280	-0.353585	4.37011	-1.97113	3.03502	1.08316	-1.53574	1.29839	1.35106	1.81316	0.311224
0.4287	0	3.77523	-1.05567	7.00204	1.69537	-1.87169	1.60753	1.6647	3.34738	0.311224
0.4293	-0.942894	2.24226	-2.27628	7.31271	1.08316	-1.24779	-0.216398	-0.482523	-0.0107288	0.311224
0.4300	-2.82868	0.709285	-3.19174	9.12894	-0.141281	-2.15964	-2.34947	-4.12557	-3.67997	-0.622448
0.4307	-2.82868	1.32705	-1.05567	11.5665	-0.141281	-2.78353	-2.34947	-5.66965	-2.14575	-0.622448
0.4313	0	7.11573	2.91133	16.1549	1.08316	-2.78353	0.0927421	-3.83606	0.901217	0.311224
0.4320	0.589309	13.5222	5.35255	24.0889	0.753499	-3.35944	0.680109	-2.60562	0.600811	0
0.4327	0	17.8008	4.74225	24.3996	-0.141281	-1.87169	-0.525539	-4.12557	-1.84535	-0.311224
0.4333	0	19.0134	1.99587	16.4656	-1.69537	-0.623895	-2.65861	-5.35601	-4.89232	0
0.4340	1.17862	9.26647	2.30102	18.2818	-2.59015	-0.335944	-2.96775	1.06155	-6.1154	0
0.4347	3.30013	-17.8923	-1.36082	20.4326	-1.69537	-0.335944	0.401883	16.3093	-3.67997	0
0.4353	3.0644	-46.9043	-9.91336	-0.334569	-0.470937	0.575903	1.91667	19.3733	-0.321863	0
0.4360	-1.5322	-54.5234	-9.2948	-26.2636	-0.753499	0.911847	0.0927421	5.62139	-1.23381	0
0.4367	-5.5395	-49.0322	-1.66597	-32.6682	-1.97794	-1.53574	-2.65861	0.747911	-5.20345	-0.311224
0.4373	-4.0073	-48.117	2.91133	-24.4474	-0.753499	-2.78353	-2.04033	10.8085	-3.36883	-0.311224
0.4380	-1.29648	-48.117	1.08041	-16.8001	1.69537	-2.78353	0.401883	22.0996	1.21235	0
0.4387	-1.29648	-43.2435	-1.05567	-16.5134	1.97794	-3.69538	-0.525539	39.205	1.51276	0.311224
0.4393	-1.88579	-32.8559	0.775254	-26.5743	1.36572	-3.69538	-1.45296	73.9949	-2.14575	0.311224
0.4400	-3.41799	-30.1103	0.775254	-55.5623	0.470937	-4.27128	-3.27689	105.431	-7.33848	0
0.4407	-3.41799	-33.1534	-2.58143	-96.762	0.141281	-4.60723	-3.27689	77.6621	-7.63889	0
0.4413	-2.12151	24.2072	-0.140206	-126.061	0.141281	-3.69538	-0.525539	-13.8967	-4.28078	0
0.4420	-3.65371	95.6162	8.70924	-136.432	0.141281	-2.78353	-0.216398	-75.539	-5.20345	0
0.4427	-4.59661	62.3484	11.4556	-136.432	-0.753499	-0.911847	-1.7621	-57.2272	-8.25043	0
0.4433	-3.41799	5.90308	7.48863	-132.465	-1.97794	0	-3.89517	-17.8775	-10.6966	-0.311224
0.4440	-1.29648	1.62449	5.0474	-123.623	-0.753499	1.1998	-3.58603	5.93503	-8.86197	0
0.4447	0.589309	5.90308	-0.140206	-95.5432	0.141281	2.11165	-1.14382	18.1429	-0.0107288	0
0.4453	-0.942894	18.0982	-5.93812	-57.0917	-1.08316	2.3996	-0.216398	7.16547	8.84051	0
0.4460	-3.0644	30.6137	-10.5237	-23.2047	-2.30759	4.55924	0.680109	-23.9814	7.91783	0
0.4467	-4.95019	26.0376	-14.4907	39.3357	-3.20237	3.93534	-2.04033	-45.333	1.21235	0
0.4473	-4.59661	16.5881	-11.4391	117.481	-2.59015	1.82369	-1.7621	-55.3937	-0.0107288	0
0.4480	-3.0644	10.4791	-4.7175	152.253	-1.08316	-0.335944	-1.14382	-66.3952	2.1243	0.311224
0.4487	-3.0644	4.07267	-3.80205	147.999	-1.08316	-2.15964	-2.96775	-69.7487	0.289677	0
0.4493	-1.5322	-0.823686	-4.41235	116.549	-1.08316	0.287952	-1.7621	-76.4558	-3.67997	0
0.4500	-1.5322	-1.41857	-3.80205	61.3217	-1.36572	2.11165	-2.34947	-91.1004	-8.56156	0
0.4507	-2.12151	0.709285	-1.97113	20.4326	-0.753499	2.11165	-2.65861	-78.8925	-8.56156	0
0.4513	-1.5322	1.32705	0.470101	3.94313	0.753499	1.82369	0.680109	-31.2916	-4.59191	0
0.4520	-1.29648	1.62449	1.99587	-5.52038	1.08316	1.1998	0.989249	18.746	-1.84535	0
0.4527	-1.88579	1.94481	0.470101	-19.5484	-0.470937	1.1998	-0.834679	51.4128	-2.45689	0
0.4533	-3.41799	0.411843	-1.97113	-42.1318	-1.08316	0	-2.96775	72.1613	-6.42653	0
0.4540	-2.82868	1.00673	-1.36082	-54.3435	-0.141281	-0.335944	-2.04033	85.8891	-6.72694	0
0.4547	-2.12151	4.07267	-0.140206	-37.5673	1.08316	-0.623895	-0.834679	54.4527	-1.84535	0
0.4553	-1.29648	1.94481	-0.140206	-5.83105	0.753499	-2.15964	-0.834679	-20.6037	1.81316	0
0.4560	-0.353585	-1.73889	-0.445359	4.56447	0.141281	-1.24779	-0.216398	-49.3139	-0.321863	0
0.4567	-1.88579	3.77523	-2.27628	-8.86607	-0.141281	-0.623895	-2.34947	-28.5412	-4.28078	0
0.4573	-1.88579	17.183	-4.1072	-23.2047	0.470937	0	-1.7621	-11.4599	-3.67997	0
0.4580	-0.589309	28.4858	-1.36082	-31.1627	1.36572	-1.24779	0.680109	-3.52242	-0.933403	0
0.4587	-1.29648	31.8492	3.21648	-14.9839	1.36572	-2.15964	0.680109	-2.91927	-0.0107288	0
0.4593	-1.5322	28.1884	3.52163	19.2138	0.141281	-0.335944	0.0927421	-9.3127	-1.84535	0
0.4600	-0.942894	25.1224	1.99587	43.6134	-1.36572	-0.335944	-2.34947	-15.4166	-6.42653	-0.622448
0.4607	1.5322	25.1224	3.52163	53.3876	-0.753499	0	-1.45296	-15.1271	-6.1154	-0.311224
0.4613	0.942894	17.183	5.0474	34.4606	0.470937	-0.335944	0.989249	-22.4373	-2.75729	0.311224
0.4620	-1.5322	-0.823686	4.74225	9.43962	0.141281	-1.53574	0.989249	-38.3123	-2.45689	0
0.4627	-2.4751	-26.4495	2.91133	27.4346	-0.470937	-0.911847	-0.216398	-32.2084	-2.14575	-0.311224
0.4633	-3.41799	-53.3108	-0.140206	76.8791	-0.753499	0	-2.96775	-10.8568	-1.23381	0
0.4640	-3.41799	-61.8451	-2.88659	110.145	-0.753499	0	-2.96775	-3.52242	0.600811	0
0.4647	-1.88579	-53.9057	-0.140206	100.084	0.141281	-1.53574	-1.45296	25.4772	2.73584	0.311224
0.4653	-0.353585	-41.0928	4.74225	66.8181	0.753499	-1.24779	-0.216398	72.1613	2.4247	0
0.4660	-1.29648	-26.4495	1.69071	34.7712	0.141281	0	-0.525539	52.9328	-0.622269	-0.311224
0.4667	-4.24302	-9.06054	-5.63297	10.3477	-1.36572	0.287952	-2.65861	0.747911	-4.28078	0
0.4673	-5.18591	3.77523	-7.15873	-0.932013	-1.36572	0.575903	-2.04033	-3.83606	-3.67997	0.311224
0.4680	-3.65371	8.03094	-4.7175	-7.64728	0.141281	-0.911847	-0.216398	20.2901	-1.23381	0
0.4687	-1.88579	9.56391	-2.27628	-18.3296	1.08316	-1.87169	0.680109	29.7476	-2.14575	-0.311224
0.4693	-1.5322	8.35126	-1.97113	-27.7931	0.753499	-0.623895	0.0927421	22.4132	-4.89232	0
0.4700	-2.12151	5.90308	-3.49689	-33.2896	-0.470937	-0.623895	-2.34947	13.5589	-7.33848	0.311224
0.4707	-1.29648	4.98788	-2.58143	-50.3765	0.141281	-1.24779	-2.65861	8.37178	-7.02735	-0.311224
0.4713	-1.29648	5.28532	-0.140206	-85.7691	1.08316	-2.44759	-1.7621	5.33188	-4.28078	0
0.4720	-1.29648	3.4549	0.470101	-110.814	1.08316	-2.15964	-0.525539	0.434271	-3.67997	0.311224
0.4727	-1.29648	1.32705	0.164948	-124.842	0.141281	-0.911847	-0.525539	-4.75285	-6.42653	-0.311224
0.4733	-2.12151	1.00673	-0.140206	-147.425	-0.753499	-1.53574	-3.27689	-5.35601	-9.77391	-0.622448
0.4740	-2.4751	1.94481	0.775254	-166.639	-0.470937	-1.87169	-3.89517	-1.68883	-9.1731	0
0.4747	-1.88579	2.86002	1.99587	-162.983	0.753499	-3.07149	-2.34947	1.35106	-3.36883	0.311224
0.4753	-0.353585	3.77523	1.08041	-124.221	1.08316	-3.35944	-0.216398	0.747911	0.289677	0
0.4760	0.235723	5.60564	-1.05567	-55.5623	0.753499	-1.87169	-0.525539	-1.39932	-0.321863	0
0.4767	-1.88579	8.03094	-1.05567	-0.932013	-0.141281	-3.69538	-3.89517	-2.91927	-4.28078	0
0.4773	-1.5322	10.4791	0.470101	17.9711	-0.470937	-3.35944	-4.48254	-1.68883	-3.98037	-0.311224
0.4780	-0.353585	12.9273	-0.445359	52.4556	0.753499	-2.78353	-3.58603	1.06155	3.03624	0
0.4787	-1.29648	12.9273	-2.88659	131.82	1.36572	-4.27128	-2.34947	1.97834	8.84051	0
0.4793	-1.29648	11.6918	-1.97113	207.194	0.470937	-1.87169	-0.834679	0.144757	9.14091	0
0.4800	-2.4751	7.7335	-1.66597	235.273	-0.753499	0.911847	-1.7621	-2.31611	5.78281	0
0.4807	-4.0073	-5.69716	-1.05567	201.076	-1.36572	0.575903	-1.7621	-1.08568	6.09394	0
0.4813	-3.0644	-27.0672	0.775254	130.291	-1.08316	1.1998	0.989249	1.06155	7.91783	0
0.4820	-1.5322	-46.9043	0.775254	82.3756	-0.141281	3.02349	1.91667	-1.68883	3.34738	0
0.4827	-0.942894	-52.9905	-0.750512	57.9521	-0.470937	2.73554	0.401883	-9.02318	-3.36883	0
0.4833	-2.82868	-47.4992	-2.58143	38.7383	-2.30759	0.575903	-2.34947	-17.5638	-7.95002	0
0.4840	-3.65371	-39.5598	-1.66597	35.99	-1.97794	-0.623895	-2.96775	-32.2084	-6.42653	-0.311224
0.4847	-3.0644	-34.3889	-0.140206	42.084	0.141281	-1.24779	-2.04033	-48.3971	-0.321863	-0.311224
0.4853	-2.4751	-37.4319	0.470101	40.5545	0.141281	-2.15964	-1.14382	-42.8963	2.4247	0
0.4860	-2.4751	-14.8492	0.164948	28.9641	-0.141281	-1.53574	-0.525539	-12.6904	0.600811	0.311224
0.4867	-3.65371	48.9407	-1.66597	8.5315	-1.08316	-0.911847	-2.34947	42.2449	-2.45689	0
0.4873	-3.0644	65.7118	-1.66597	-4.61227	-1.08316	-0.335944	-1.7621	101.764	-1.84535	0
0.4880	-1.29648	23.9098	-0.445359	-2.77214	0.141281	-0.911847	0.0927421	90.1594	1.51276	0
0.4887	-1.5322	0.411843	0.470101	-1.55335	1.08316	-2.44759	-0.216398	33.3906	1.81316	0
0.4893	-2.12151	-16.0619	1.08041	-9.79808	0.753499	-1.24779	-0.834679	-0.168883	-1.53421	0.311224
0.4900	-3.65371	-45.9891	0.775254	-22.6073	-1.08316	-0.911847	-2.65861	-32.2084	-4.89232	-0.311224
0.4907	-3.65371	-70.0819	2.91133	-31.4495	-1.08316	-1.24779	-1.45296	-52.0401	-3.06843	-0.622448
0.4913	-0.942894	-88.7064	4.13194	-34.819	0.141281	-0.335944	1.60753	-49.3139	0.289677	0.311224
0.4920	0.589309	-104.562	1.38556	-30.5413	-0.470937	0.287952	1.91667	-49.917	0.600811	0.311224
0.4927	-1.29648	-96.6458	0.164948	-18.9509	-1.36572	0.575903	0.0927421	-53.5842	-1.53421	-0.311224
0.4933	-4.24302	-73.7428	3.52163	-15.5813	-1.36572	0	-2.65861	-51.7506	-4.59191	-0.311224
0.4940	-4.0073	-89.3242	6.87832	-18.9509	-1.08316	-0.335944	-2.04033	-27.0213	-4.28078	0
0.4947	-2.12151	-101.519	5.35255	-12.2357	-0.141281	-1.24779	0.0927421	32.1843	-2.14575	0.311224
0.4953	-1.88579	-3.56931	4.43709	-7.95795	0.141281	-2.15964	-0.216398	79.182	-4.28078	0
0.4960	-0.942894	114.241	5.65771	-18.0189	-0.753499	-0.623895	-1.14382	77.9516	-9.1731	0
0.4967	-0.353585	103.556	5.65771	-18.9509	-1.97794	0	-2.65861	59.3503	-12.2201	0
0.4973	-0.942894	52.8989	5.0474	-5.52038	-1.69537	-0.335944	-2.65861	45.5984	-9.47351	-0.311224
0.4980	-1.5322	47.1103	-0.445359	-0.64524	-0.470937	-2.15964	-1.45296	39.8082	-3.98037	0
0.4987	-1.29648	36.1049	-9.91336	-5.83105	0.753499	-2.78353	0.0927421	36.7683	-1.84535	0.311224
0.4993	0.589309	23.6123	-16.6267	-8.26863	0.753499	-0.335944	0.0927421	38.2882	-3.67997	0
0.5000	1.17862	41.9165	-19.068	-10.0849	-0.141281	-0.335944	-2.34947	48.9761	-6.1154	-0.311224
0.5007	3.0644	59.9232	-13.5752	-12.8331	0.141281	-1.53574	-1.45296	26.3699	-4.59191	0
0.5013	3.0644	53.1964	-5.02266	-11.925	0.753499	-1.87169	-0.216398	-26.4181	-0.622269	0
0.5020	-0.353585	62.051	-0.750512	-19.2377	0.470937	-0.911847	-0.525539	-45.9362	-0.622269	0
0.5027	-4.0073	90.125	-1.05567	-38.7861	0.141281	0	-1.14382	-34.042	-3.98037	0
0.5033	-6.48239	92.2757	-2.27628	-57.4024	-0.141281	-1.53574	-2.96775	-23.3541	-7.02735	0.311224
0.5040	-5.77522	76.0994	-0.140206	-68.0847	-0.141281	-2.15964	-2.34947	-2.00247	-5.50386	0
0.5047	-4.24302	60.518	0.470101	-73.5812	1.08316	-3.07149	-0.525539	29.4339	-0.622269	0
0.5053	-4.0073	47.4077	-1.97113	-80.8939	1.36572	-3.69538	-1.14382	46.8289	-0.0107288	0
0.5060	-2.12151	40.6809	-3.19174	-86.7011	0.470937	-1.87169	-1.14382	44.9953	-3.36883	0
0.5067	-1.29648	35.1897	-5.02266	-83.9528	-0.753499	-0.911847	-2.65861	12.039	-7.33848	-0.311224
0.5073	-1.88579	31.5289	-4.7175	-82.1127	-0.141281	-0.911847	-2.04033	-34.9588	-5.50386	0
0.5080	-2.4751	30.3162	-0.140206	-60.7481	1.08316	-2.44759	-0.216398	-38.9155	1.81316	0
0.5087	-1.88579	20.8438	2.60617	-0.932013	0.470937	-1.87169	0.0927421	-20.9174	5.78281	0
0.5093	0	1.00673	0.775254	32.6204	-0.141281	1.1998	0.680109	-36.7924	2.1243	0
0.5100	0.235723	-17.8923	-3.80205	36.5875	-0.753499	0.575903	-0.834679	-52.3538	-2.75729	0
0.5107	-0.353585	-19.4253	-5.02266	57.3546	-0.141281	-2.15964	-1.45296	-30.3748	-0.622269	0
0.5113	0	-8.74022	-4.7175	51.5475	1.97794	-4.27128	0.680109	-11.7736	3.34738	0
0.5120	0	-4.16419	-4.1072	9.43962	1.97794	-2.78353	2.22581	-29.458	1.81316	0
0.5127	0.235723	-8.44278	-0.750512	-27.7931	0.141281	0	1.29839	-59.0608	-2.45689	0
0.5133	0	-20.9582	0.470101	-56.1836	-0.753499	-1.24779	-1.14382	-69.1456	-6.1154	0
0.5140	-0.942894	-39.8801	-0.445359	-69.6142	-0.470937	-1.53574	-0.525539	-50.5202	-4.59191	0
0.5147	-0.942894	-49.65	-1.97113	-46.0988	-0.141281	-0.623895	1.60753	-20.9174	1.81316	0
0.5153	0	-58.1843	-5.32781	-27.1957	0.141281	0.911847	1.91667	1.35106	2.73584	0
0.5160	0.235723	-91.452	-3.49689	-53.7461	0.141281	1.48775	-0.834679	8.68542	-5.50386	0
0.5167	-3.41799	-130.211	0.164948	-79.9858	-0.753499	0.911847	-4.20431	-25.1877	-12.8316	0
0.5173	-4.59661	-150.963	-3.49689	-78.1457	-0.470937	2.3996	-2.34947	-67.9151	-10.997	0
0.5180	-4.0073	-154.006	-5.63297	-63.4963	0.470937	2.11165	0.401883	-40.4596	-7.02735	0
0.5187	-4.59661	-113.12	3.52163	-32.0708	-0.141281	-0.335944	-0.525539	37.9746	-4.59191	0
0.5193	-5.18591	-34.3889	9.01439	27.7453	-1.69537	-0.623895	-2.96775	77.0348	-0.933403	-0.311224
0.5200	-5.18591	57.475	5.65771	104.959	-2.59015	-0.623895	-5.10082	52.016	2.1243	-0.622448
0.5207	-1.88579	159.406	4.13194	149.815	-1.69537	-0.623895	-2.96775	20.8933	4.87086	0
0.5213	0.942894	171.304	2.91133	131.509	-0.141281	-0.623895	-1.45296	6.85183	5.4824	0
0.5220	0.235723	76.3969	1.08041	89.0909	-0.470937	-1.24779	-2.96775	-0.168883	3.34738	-0.311224
0.5227	-0.942894	22.0794	0.775254	57.044	-0.753499	-0.335944	-2.65861	2.89514	0.901217	0
0.5233	-3.0644	24.5275	-0.445359	36.5875	-1.36572	0	-3.27689	9.60221	-2.45689	0
0.5240	-3.65371	26.6554	0.470101	26.2158	-0.753499	-0.623895	-3.27689	11.1222	-2.14575	-0.311224
0.5247	-4.0073	29.401	2.30102	14.0041	0.141281	-2.78353	-2.34947	-0.772037	-0.321863	0.311224
0.5253	-4.0073	30.6137	-1.05567	-0.0238978	0.470937	-3.07149	-3.27689	-19.0838	-2.14575	0
0.5260	-2.82868	22.6742	-5.02266	-9.48741	-0.141281	-0.623895	-2.96775	-32.2084	-6.1154	-0.311224
0.5267	-3.41799	16.5881	-6.54843	-21.0778	-1.97794	-0.335944	-2.96775	-41.0627	-9.77391	0
0.5273	-4.0073	20.8438	-4.41235	-31.1627	-1.36572	-1.53574	-2.04033	-40.7491	-9.47351	0
0.5280	-1.88579	24.5275	-0.445359	-32.3815	0.141281	-1.87169	-0.216398	-36.4787	-5.81499	-0.311224
0.5287	-0.353585	20.2489	1.69071	-27.4824	0.470937	-0.623895	0.680109	-19.3974	-3.67997	-0.311224
0.5293	-0.589309	14.1399	0.470101	-25.6662	-0.141281	0	-0.834679	30.6643	-5.50386	0
0.5300	-2.12151	8.94614	-1.05567	-27.4824	-1.36572	-1.53574	-3.89517	67.891	-9.1731	0
0.5307	-1.5322	7.43605	0.775254	-10.7062	-0.470937	-1.87169	-2.65861	64.5375	-6.42653	0
0.5313	0	8.6487	2.91133	33.5525	0.753499	-1.53574	0.0927421	59.0367	0.289677	0
0.5320	-0.353585	10.4791	1.08041	80.5354	1.08316	-0.335944	0.989249	42.5585	2.73584	0
0.5327	-2.12151	12.3095	-4.1072	100.992	0.470937	0	-0.834679	-10.5431	-0.321863	0.311224
0.5333	-3.41799	12.0121	-6.85358	82.6862	-0.470937	-2.15964	-4.48254	-49.6034	-5.20345	0
0.5340	0	9.86135	0.775254	44.2348	0.141281	-1.87169	-2.65861	-40.1459	-4.28078	0
0.5347	3.30013	8.03094	10.235	19.5006	1.36572	0	0.680109	-19.3974	-1.84535	0
0.5353	1.17862	11.6918	10.5402	9.75029	1.08316	-1.24779	0.680109	-5.66965	-1.53421	0
0.5360	-0.942894	20.2489	9.92985	-10.0849	0.141281	-2.78353	-0.834679	-2.31611	-1.53421	0.311224
0.5367	0	29.401	14.202	-33.2896	-1.08316	-3.07149	-3.27689	-13.2935	-3.67997	0.311224
0.5373	4.83233	38.2556	7.18347	-35.1297	-0.141281	-1.87169	-2.34947	-31.0021	-2.75729	0
0.5380	6.95384	41.9165	-11.7443	-24.7342	1.36572	-0.623895	0.680109	-36.7924	1.21235	0
0.5387	1.76793	29.401	-19.068	-21.0778	0.753499	0	0.989249	-23.0646	1.21235	0
0.5393	-2.82868	5.60564	-18.4577	-21.0778	-0.141281	-0.623895	-1.14382	-56.3105	0.901217	0
0.5400	-6.48239	1.32705	-19.6783	-1.86403	-0.753499	-2.15964	-3.58603	-114.31	0.600811	0
0.5407	-8.0146	8.03094	-11.4391	39.3357	-0.141281	-1.87169	-2.34947	-56.6241	2.1243	0
0.5413	-5.77522	-3.86675	-1.05567	53.6983	1.36572	-1.24779	-0.525539	73.0781	3.34738	0.311224
0.5420	-4.24302	-24.3216	0.470101	22.2488	1.69537	0	-0.525539	125.553	1.21235	0.311224
0.5427	-3.65371	-28.8976	-3.19174	-25.0449	0.141281	0.287952	-1.45296	98.097	-2.75729	0
0.5433	-3.65371	-15.467	-6.24327	-58.9319	-1.69537	-1.53574	-4.48254	62.3902	-6.1154	0
0.5440	-3.0644	-8.14534	-4.1072	-63.4963	-1.97794	-0.911847	-3.58603	43.1617	-5.81499	0
0.5447	-1.5322	-21.2557	-0.140206	-55.5623	-0.753499	0.575903	-0.216398	12.039	-3.06843	0
0.5453	-1.88579	-36.5167	1.99587	-42.4424	0.141281	0.911847	0.401883	-33.4389	-1.84535	0
0.5460	-4.59661	-37.1345	2.60617	-20.1697	-0.141281	0	-1.14382	-43.4995	-3.67997	0
0.5467	-6.71812	-39.2624	-0.140206	-5.83105	-1.36572	-3.07149	-4.48254	-14.2103	-6.1154	0
0.5473	-5.18591	-44.4562	-1.05567	0.884217	-0.753499	-2.78353	-2.96775	21.1828	-2.75729	0
0.5480	-2.82868	-33.4737	3.52163	-3.68025	0.470937	0.911847	1.29839	40.1218	0.901217	-0.311224
0.5487	-2.4751	-22.7886	7.18347	-6.4285	-0.470937	3.02349	1.60753	26.3699	-1.53421	-0.311224
0.5493	-2.12151	-27.0672	3.21648	10.9691	-1.69537	0.911847	-1.45296	-1.08568	-5.81499	0
0.5500	-2.12151	-30.1103	-1.66597	20.4326	-1.69537	-2.15964	-4.20431	-12.3767	-8.25043	0.311224
0.5507	-1.29648	-29.4925	-1.05567	13.4066	-0.753499	-1.24779	-2.34947	-5.04237	-7.02735	0
0.5513	0.589309	-32.2382	0.775254	-0.64524	-0.470937	0.287952	0.0927421	8.97493	-4.28078	-0.311224
0.5520	0.942894	-34.6863	-1.66597	-22.2966	0.141281	0.575903	0.680109	13.5589	-3.67997	-0.311224
0.5527	-1.5322	-34.9838	-8.6845	-37.5673	-0.470937	0	-1.14382	11.4358	-5.81499	0.311224
0.5533	-4.59661	-34.9838	-8.98965	-47.3176	-1.97794	-1.87169	-3.89517	13.8725	-9.1731	0
0.5540	-3.41799	-35.899	-0.140206	-62.2776	-1.36572	-0.623895	-2.65861	12.6421	-6.72694	-0.311224
0.5547	-0.353585	-21.2557	3.82679	-80.5832	-0.470937	2.11165	0.0927421	-5.95916	-2.45689	-0.311224
0.5553	1.5322	21.4616	0.775254	-89.7361	-0.470937	1.48775	0.401883	-31.0021	-1.84535	-0.311224
0.5560	0.589309	51.9837	-1.97113	-71.7411	-1.36572	-0.335944	-1.14382	-45.333	-3.06843	-0.311224
0.5567	-1.5322	44.0443	-4.41235	-9.79808	-2.59015	-2.44759	-3.27689	-49.6034	-2.75729	0
0.5573	-0.589309	25.7402	-4.7175	68.3476	-1.69537	-1.53574	-2.04033	-44.1026	1.21235	0
0.5580	0.942894	16.8856	0.775254	102.832	0.141281	0.575903	0.989249	-36.1892	4.25932	0
0.5587	0.235723	14.4374	6.57317	80.2487	0.753499	0.911847	1.60753	-30.0853	3.95892	0
0.5593	-2.12151	8.35126	4.74225	37.5195	-0.470937	-2.15964	-0.525539	-7.18959	0.600811	0
0.5600	-3.65371	-3.86675	0.775254	12.7853	-1.97794	-4.27128	-2.65861	28.5171	-2.75729	0
0.5607	-1.88579	-7.52757	0.775254	7.91016	0.141281	-2.15964	-1.45296	41.9554	-1.53421	0
0.5613	-1.29648	-1.41857	2.30102	6.07003	1.36572	-0.911847	0.401883	30.6643	0.289677	0
0.5620	-2.4751	5.60564	4.13194	2.41367	0.753499	-1.24779	0.680109	18.746	-0.321863	0
0.5627	-3.41799	8.03094	3.82679	-3.08281	0.470937	-2.15964	-1.45296	11.1222	-2.75729	0
0.5633	-4.24302	8.94614	1.08041	-6.11783	-0.470937	-3.07149	-3.89517	3.78781	-4.89232	0.311224
0.5640	-2.82868	15.6729	2.91133	2.103	-0.470937	0	-1.45296	0.434271	-0.933403	0
0.5647	-0.589309	22.6742	9.01439	9.43962	0.470937	2.73554	1.29839	-1.39932	2.73584	-0.311224
0.5653	0.589309	17.183	12.6762	5.16192	1.36572	2.11165	0.401883	-3.83606	0.901217	0
0.5660	0.942894	1.00673	5.96286	-0.932013	0.141281	0.287952	-1.7621	-7.18959	-1.84535	0
0.5667	-0.589309	-8.44278	-2.88659	-2.1508	-1.97794	-1.87169	-3.58603	-7.50323	-3.06843	0
0.5673	-0.942894	-5.69716	-1.36082	-0.932013	-1.08316	-0.911847	-1.45296	-2.91927	-0.622269	0.311224
0.5680	-0.353585	2.86002	1.38556	-1.24268	0.141281	0.287952	1.60753	-2.60562	2.4247	0.311224
0.5687	-1.5322	12.3095	-0.445359	-3.08281	0.470937	-0.335944	1.60753	-7.79275	1.51276	0
0.5693	-3.65371	11.3943	-3.19174	-6.4285	0.753499	-1.87169	-0.834679	-13.8967	-1.53421	0
0.5700	-6.12881	1.32705	-5.63297	-9.79808	-0.141281	-3.69538	-3.89517	-11.4599	-3.67997	0.311224
0.5707	-5.18591	0.709285	-4.1072	-7.95795	0.753499	-2.44759	-2.65861	13.5589	-1.53421	-0.311224
0.5713	-1.88579	18.0982	-2.58143	-3.08281	2.30759	-0.623895	0.989249	37.0578	1.21235	-0.311224
0.5720	-0.589309	14.4374	-3.19174	-1.86403	1.36572	-2.44759	1.91667	39.8082	1.51276	0.311224
0.5727	-0.942894	-44.4562	-4.1072	-6.73917	-0.470937	-4.60723	-1.14382	42.8722	-1.23381	0.311224
0.5733	-2.4751	-74.0631	-4.41235	-10.3955	-1.69537	-4.89518	-6.64652	61.4734	-4.59191	0
0.5740	-2.12151	-32.2382	-0.140206	-3.99093	-1.36572	-1.53574	-5.10082	92.5962	0.289677	-0.311224
0.5747	-0.589309	3.77523	3.21648	1.50556	0.141281	1.82369	-0.216398	93.2235	5.78281	0
0.5753	-0.353585	11.6918	0.470101	-1.55335	0.470937	0.575903	0.401883	15.0788	4.87086	-0.311224
0.5760	-1.29648	20.5464	0.164948	-7.04984	0.470937	-2.78353	-2.04033	-82.2702	1.81316	-0.311224
0.5767	-3.0644	33.3593	2.60617	-16.5134	-0.470937	-5.18313	-4.48254	-103.935	-1.84535	0
0.5773	-1.88579	35.8075	1.99587	-31.1627	-0.141281	-3.07149	-2.34947	-64.8752	-0.933403	0
0.5780	2.12151	19.6312	-1.97113	-45.5013	1.36572	-0.335944	0.680109	-34.9588	-0.321863	-0.311224
0.5787	3.30013	-2.33378	-5.63297	-50.3765	1.69537	-0.623895	0.401883	-28.2517	-2.14575	0
0.5793	0.235723	-16.3822	-6.54843	-49.4684	0.141281	-2.44759	-1.7621	-13.2935	-3.98037	0
0.5800	-3.41799	-28.8976	-7.46388	-57.7131	-1.69537	-4.27128	-4.20431	9.89172	-7.33848	-0.311224
0.5807	-2.82868	-34.0686	-6.24327	-75.0868	-1.08316	-2.44759	-2.34947	20.8933	-7.63889	-0.311224
0.5813	-0.942894	-25.5343	-2.58143	-87.9199	0.470937	-0.623895	0.680109	13.2694	-6.1154	0
0.5820	-1.88579	-15.467	-1.36082	-95.8539	1.36572	-1.53574	-0.525539	-15.4166	-7.33848	0
0.5827	-2.82868	-13.934	-2.58143	-119.345	0.753499	-3.69538	-3.89517	-40.4596	-10.085	0
0.5833	-3.65371	-16.6796	-4.7175	-136.432	-1.08316	-4.60723	-6.64652	-39.5428	-10.3855	0
0.5840	-2.12151	-18.2126	-2.58143	-89.4493	-1.69537	-0.911847	-3.89517	-27.9381	-3.06843	0
0.5847	1.17862	-22.7886	0.775254	10.3477	-1.36572	3.02349	0.680109	-19.7111	6.70548	-0.311224
0.5853	0.589309	-26.4495	1.08041	74.7522	-1.97794	2.73554	1.29839	-13.6072	7.61743	0
0.5860	-3.0644	-28.5773	0.775254	41.7972	-2.30759	-0.335944	-0.525539	-9.62634	0.600811	0.311224
0.5867	-4.95019	-38.6446	-0.140206	-15.892	-2.59015	-3.35944	-3.89517	-10.8568	-5.81499	0
0.5873	-2.82868	-38.9649	-1.05567	-15.5813	-1.69537	-2.15964	-3.27689	-9.3127	-4.28078	-0.311224
0.5880	-0.353585	-27.0672	-0.750512	-5.83105	0.753499	1.1998	0.680109	-4.75285	-0.622269	0
0.5887	-0.353585	-23.7039	-0.750512	-7.95795	0.470937	1.48775	1.29839	-3.83606	-1.23381	0
0.5893	-2.82868	-17.2974	-1.66597	30.1829	-0.753499	-1.24779	-1.45296	-4.75285	-0.0107288	0
0.5900	-4.24302	-6.61237	-2.58143	105.867	-1.36572	-3.07149	-3.58603	-4.75285	3.03624	0
0.5907	-2.4751	1.62449	0.470101	176.987	-0.470937	-0.623895	-1.7621	-2.60562	5.4824	0
0.5913	-0.353585	5.90308	4.43709	209.034	0.141281	1.48775	2.22581	-0.168883	7.91783	0
0.5920	-0.353585	9.26647	3.52163	183.391	-0.470937	1.1998	2.53495	-0.482523	8.22897	0
0.5927	-1.29648	30.934	0.164948	122.357	-1.08316	0	-0.216398	-1.68883	4.25932	0
0.5933	-2.4751	51.0685	-2.58143	67.4156	-2.30759	-1.53574	-3.58603	-4.12557	-1.84535	0.311224
0.5940	-1.5322	48.9407	-1.66597	38.7383	-1.97794	-0.623895	-2.04033	-5.95916	-3.06843	0
0.5947	0.235723	39.7657	0.775254	28.9641	-0.753499	1.48775	1.91667	-8.10639	-0.622269	0
0.5953	1.17862	31.8492	0.775254	21.6514	-0.470937	1.48775	1.91667	-11.1463	-1.23381	0
0.5960	-0.353585	18.716	-1.05567	15.8442	-1.36572	-0.911847	-0.834679	-11.7736	-4.28078	0
0.5967	-1.88579	-0.205921	-2.27628	21.3407	-1.69537	-2.44759	-2.96775	-11.1463	-5.50386	0
0.5973	-0.589309	-9.35799	-0.750512	30.1829	-0.470937	-0.335944	-1.45296	-9.3127	-3.06843	0
0.5980	1.5322	-5.0794	1.38556	30.4935	0.141281	2.11165	1.60753	-5.66965	0.289677	0
0.5987	1.17862	-0.205921	1.08041	24.6864	-0.141281	1.48775	1.60753	-3.52242	0.901217	0
0.5993	-0.589309	1.00673	-0.140206	15.2468	-0.470937	-1.24779	-1.14382	-3.20878	-1.53421	0
0.6000	-2.82868	1.00673	-0.750512	4.2538	-1.36572	-3.69538	-3.58603	-2.91927	-3.98037	0
0.6007	-1.88579	1.62449	1.08041	-1.86403	-1.08316	-2.15964	-2.04033	-1.08568	-2.75729	0
0.6013	0.589309	3.15746	5.0474	-2.77214	1.08316	0.575903	1.29839	1.35106	1.21235	0
0.6020	0.942894	3.77523	5.96286	-4.89904	1.36572	0	2.22581	1.6647	1.51276	0
0.6027	-0.942894	2.5397	2.91133	-8.86607	-0.141281	-2.44759	-0.525539	0.434271	-1.53421	-0.311224
0.6033	-2.4751	1.94481	2.30102	-11.3036	-0.753499	-4.27128	-3.89517	-0.482523	-3.36883	0
0.6040	-1.5322	1.94481	1.99587	-9.48741	-0.470937	-2.44759	-2.34947	0.747911	-1.84535	0
0.6047	0.942894	1.62449	-5.02266	-7.04984	1.08316	-0.623895	1.60753	1.6647	0.901217	0
0.6053	1.17862	1.62449	-7.46388	-5.52038	1.36572	-1.24779	1.91667	-0.482523	1.21235	0
0.6060	-0.353585	2.5397	-2.88659	2.41367	0.141281	-2.78353	-1.14382	-4.12557	-1.53421	0
0.6067	-1.29648	3.15746	-0.445359	11.5665	-1.08316	-3.35944	-3.27689	-5.95916	-4.59191	0
0.6073	0.589309	4.07267	-1.05567	11.8772	-0.141281	-1.53574	-1.7621	-7.18959	-3.67997	0
0.6080	2.12151	3.77523	-2.58143	5.47259	0.753499	0	1.29839	-7.79275	-0.622269	0
0.6087	1.76793	1.32705	-2.27628	-2.77214	0.470937	-0.623895	0.989249	-4.75285	-0.622269	0
0.6093	-0.353585	-2.03633	-2.88659	-9.48741	-0.470937	-3.35944	-2.34947	-0.168883	-3.36883	0
0.6100	-2.12151	-2.95154	-4.41235	-15.892	-1.36572	-4.60723	-4.48254	10.519	-4.28078	0
0.6107	-1.88579	-1.41857	-1.36082	-24.7342	-0.470937	-2.44759	-2.34947	19.3733	-1.84535	0
0.6113	-1.29648	-0.503364	2.60617	-32.3815	0.753499	-0.335944	0.401883	10.2054	0.901217	0
0.6120	-1.29648	-1.73889	2.60617	-38.7861	0.753499	-0.623895	0.401883	-2.00247	0.600811	-0.311224
0.6127	-2.12151	-4.48451	1.38556	-43.3505	-0.470937	-3.07149	-2.04033	-4.43921	-2.14575	-0.311224
0.6133	-3.65371	-1.73889	0.164948	-45.5013	-0.753499	-5.18313	-4.20431	-7.79275	-3.06843	0
0.6140	-2.4751	1.94481	0.164948	-46.0988	-0.470937	-3.98333	-2.04033	-18.167	-0.321863	-0.311224
0.6147	-0.589309	-1.73889	4.74225	-48.2496	0.470937	-1.24779	1.60753	-12.9799	2.4247	-0.622448
0.6153	0.235723	-2.6541	8.09893	-57.4024	0.753499	0.287952	1.60753	20.5796	2.1243	0
0.6160	0	2.5397	4.74225	-44.2825	-0.753499	-0.911847	-2.04033	45.5984	-1.23381	0
0.6167	0	0.411843	3.52163	11.8772	-1.36572	-2.15964	-3.89517	48.3488	-2.45689	0
0.6173	0.942894	-2.95154	6.26801	39.0489	0.141281	-1.53574	-1.45296	35.8515	0.289677	0
0.6180	2.4751	-2.95154	6.26801	7.31271	1.36572	-0.335944	1.29839	6.85183	2.73584	0
0.6187	3.65371	-5.39972	3.82679	-23.5154	0.470937	0	2.53495	-9.93998	3.64778	0
0.6193	1.5322	-11.8062	-2.88659	-30.852	-0.753499	-1.53574	0.401883	-5.35601	2.1243	0
0.6200	-0.589309	-20.9582	-12.6597	-33.887	-1.08316	-2.44759	-2.04033	-0.772037	-0.933403	-0.311224
0.6207	0.235723	-25.2368	-15.4061	-41.8211	0.470937	-2.15964	-0.216398	-7.18959	-0.933403	0
0.6213	0.235723	-18.8075	-10.2185	-47.9389	1.69537	-1.87169	2.22581	-17.8775	0.901217	0.311224
0.6220	-1.29648	-10.2732	-5.63297	-52.2166	1.36572	-0.623895	1.29839	-19.0838	-0.321863	0.311224
0.6227	-3.41799	-8.74022	-4.1072	-58.6212	0.470937	-1.24779	-0.525539	-17.2502	-3.98037	0.311224
0.6233	-4.0073	-9.97575	-3.49689	-42.7531	-0.470937	-2.78353	-3.27689	-17.8775	-4.59191	0
0.6240	-1.5322	-9.65543	-0.140206	-17.4215	0.141281	-0.623895	-2.34947	5.93503	-1.84535	0
0.6247	0	-22.7886	4.43709	-32.3815	1.36572	1.48775	0.989249	43.1617	-1.53421	-0.311224
0.6253	-0.589309	-20.9582	4.43709	-34.5084	0.470937	1.1998	1.60753	46.2257	-2.14575	-0.311224
0.6260	-1.5322	21.759	-0.750512	24.6864	-2.30759	0.575903	-1.14382	31.5811	-1.23381	0
0.6267	-1.29648	37.9353	-5.63297	61.011	-3.20237	0.287952	-2.96775	32.1843	-0.622269	0
0.6273	1.5322	16.8856	-4.7175	23.1808	-1.36572	2.3996	-1.14382	34.3074	-1.84535	-0.311224
0.6280	2.71082	12.3095	1.69071	-36.9459	0.470937	4.27128	1.60753	17.5397	-2.75729	0
0.6287	0.589309	15.9704	4.74225	-70.2116	0.470937	3.02349	2.22581	-9.02318	-3.06843	0
0.6293	-1.29648	9.56391	0.164948	-78.1457	-0.470937	-0.335944	-0.834679	-19.0838	-5.20345	-0.311224
0.6300	-2.12151	0.709285	-2.58143	-75.7081	-0.753499	-2.15964	-3.89517	-0.772037	-6.72694	0
0.6307	-1.29648	2.5397	0.164948	-61.3694	0.141281	-0.335944	-1.45296	24.8499	-3.67997	0
0.6313	0.235723	12.607	-2.58143	-30.852	1.08316	0.575903	1.60753	44.9953	-0.622269	0
0.6320	0.942894	14.7577	-10.2185	27.1479	1.08316	0.575903	1.91667	73.6813	1.81316	0
0.6327	0.589309	10.1817	-7.76904	110.145	-0.141281	0	0.0927421	57.2031	3.34738	0
0.6333	-2.12151	6.20052	1.99587	167.523	-1.36572	-2.15964	-1.7621	-13.2935	3.03624	0
0.6340	-1.88579	4.37011	5.96286	172.709	-0.753499	-1.53574	0.0927421	-38.3123	3.95892	0
0.6347	0	5.28532	5.35255	140.662	1.08316	1.82369	2.22581	-35.562	4.87086	0
0.6353	0	6.81829	3.82679	86.6533	1.08316	1.82369	3.12232	-56.3105	3.64778	0
0.6360	-2.12151	3.4549	-0.445359	43.9241	-0.753499	-1.87169	1.29839	-64.5616	0.289677	0
0.6367	-2.82868	1.62449	-1.66597	24.0889	-1.69537	-2.44759	-1.14382	-54.1873	-0.933403	0
0.6373	-0.589309	4.98788	2.91133	12.1879	-0.470937	0	0.680109	-42.2932	2.1243	0
0.6380	1.5322	4.37011	3.82679	12.7853	0.141281	1.1998	3.43146	-34.3556	4.55973	0
0.6387	1.5322	0.0915207	2.30102	24.0889	1.08316	1.48775	2.81318	-27.0213	3.95892	0
0.6393	-0.942894	-2.33378	-0.140206	21.6514	0.470937	-0.335944	-0.525539	-10.5431	-0.0107288	0
0.6400	-3.0644	-4.48451	-2.27628	10.6584	-1.36572	-2.44759	-3.89517	5.62139	-3.98037	-0.622448
0.6407	-1.29648	-3.56931	-1.36082	8.81827	-0.470937	-0.911847	-1.45296	6.85183	-1.23381	-0.622448
0.6413	0.942894	-1.12113	-0.140206	6.07003	0.753499	1.1998	1.60753	2.5815	3.03624	0.622448
0.6420	0	-0.503364	-1.05567	-2.77214	1.08316	1.82369	0.0927421	0.747911	3.64778	0.311224
0.6427	-1.29648	0.0915207	-2.88659	-9.17674	0.470937	-0.623895	-2.96775	-1.39932	0.600811	0
0.6433	-1.88579	0.411843	-2.27628	-9.48741	-0.470937	-2.44759	-4.20431	-2.31611	-0.933403	0.311224
0.6440	-0.589309	-1.41857	1.38556	-4.89904	0.141281	-0.911847	-2.04033	-1.08568	1.21235	0
0.6447	1.5322	-2.33378	1.99587	0.286773	1.08316	0.575903	0.401883	-2.91927	3.34738	0
0.6453	2.12151	1.00673	1.38556	4.2538	1.08316	0.911847	0.401883	-20.3142	3.34738	0
0.6460	-0.353585	4.07267	0.470101	3.34569	0.141281	-1.87169	-2.04033	-53.5842	0.600811	0.311224
0.6467	-2.12151	5.28532	0.470101	0.884217	-0.753499	-3.35944	-3.27689	-76.7694	-1.84535	0
0.6473	0	5.60564	3.21648	-0.932013	-0.141281	-0.911847	-0.525539	-66.0815	-0.321863	0
0.6480	2.12151	-0.205921	2.91133	-4.89904	0.753499	0	1.91667	-15.1271	1.21235	-0.311224
0.6487	0.942894	-7.82502	1.99587	-7.04984	1.08316	0.287952	2.22581	56.8895	-0.0107288	-0.311224
0.6493	-2.82868	-12.1036	1.38556	-13.4544	-0.141281	-0.623895	-0.216398	109.991	-4.59191	0
0.6500	-4.59661	-14.5518	-1.05567	-25.6662	-0.470937	-2.44759	-2.65861	117.929	-7.95002	0
0.6507	-1.88579	-10.2732	0.164948	-29.3226	1.08316	-0.623895	0.401883	87.7227	-5.20345	0
0.6513	1.76793	-0.503364	1.69071	-28.1038	1.36572	0.911847	3.43146	26.9972	-2.14575	-0.311224
0.6520	3.0644	3.4549	-1.66597	-29.3226	1.08316	0.287952	2.81318	-30.3748	-1.53421	0
0.6527	0.235723	4.07267	-5.32781	-28.7012	0.141281	-1.24779	-0.525539	-40.1459	-3.06843	0
0.6533	-3.41799	6.20052	-5.93812	-22.6073	-1.36572	-3.07149	-3.27689	-22.4373	-5.81499	0
0.6540	-1.88579	6.81829	-2.27628	-8.86607	-0.470937	-2.15964	-1.45296	-9.3127	-3.36883	0
0.6547	0.942894	5.28532	1.08041	6.07003	1.36572	0.287952	1.91667	0.144757	0.600811	0.311224
0.6553	0.942894	3.15746	1.38556	13.096	1.08316	0	1.60753	-1.39932	0.901217	0.311224
0.6560	0.235723	0.709285	-0.445359	17.9711	0.141281	-2.15964	-1.14382	-9.3127	-0.622269	0
0.6567	0	-1.12113	-1.97113	15.8442	-0.141281	-2.78353	-2.96775	-10.2295	-2.45689	0
0.6573	1.5322	-3.56931	0.470101	-2.46147	0.753499	-0.911847	-1.45296	-7.79275	-2.75729	0
0.6580	3.0644	-4.16419	3.82679	-25.3555	1.69537	0	1.60753	-2.31611	-1.53421	-0.311224
0.6587	2.4751	-2.95154	3.82679	-35.1297	1.08316	-0.335944	2.53495	9.89172	-1.53421	0.311224
0.6593	0	-2.6541	1.69071	-40.6023	-0.470937	-1.24779	-0.216398	7.16547	-3.67997	0.311224
0.6600	-3.0644	-1.73889	1.69071	-60.1507	-1.08316	-0.911847	-2.34947	-14.8135	-3.06843	0
0.6607	-3.65371	-1.12113	3.52163	-78.1457	-0.470937	0.575903	0.401883	-37.7092	0.901217	0
0.6613	-1.5322	-0.205921	1.08041	-76.3055	0.141281	2.3996	3.43146	-44.1026	2.4247	0
0.6620	-0.353585	2.24226	-1.36082	-53.1247	0.141281	2.11165	2.53495	-14.2103	1.51276	0.311224
0.6627	-2.12151	2.24226	-3.19174	-13.7651	-0.753499	-0.335944	-0.834679	22.7268	0.600811	0
0.6633	-2.82868	-0.503364	-5.63297	30.1829	-1.36572	-1.53574	-2.96775	59.3503	0.901217	-0.311224
0.6640	-0.942894	-2.6541	-3.49689	67.1049	-1.08316	0.287952	-0.216398	104.201	3.64778	0
0.6647	0	-3.86675	0.470101	78.7192	0.141281	1.82369	1.91667	80.3884	5.17127	0
0.6653	0.235723	-1.41857	1.99587	58.8841	0.753499	0.911847	0.989249	8.08226	3.03624	-0.311224
0.6660	0	1.00673	0.164948	30.1829	-0.141281	-1.53574	-1.45296	-14.8135	-1.23381	0
0.6667	-0.589309	-1.12113	-1.36082	15.5335	-1.08316	-2.44759	-4.20431	-5.66965	-3.06843	0.311224
0.6673	0.942894	-2.03633	1.08041	13.4066	0.753499	0	-2.04033	-0.772037	0.600811	0
0.6680	2.71082	-0.823686	3.21648	11.2797	1.97794	1.48775	2.22581	2.26786	3.95892	-0.311224
0.6687	1.76793	-0.823686	1.99587	7.00204	1.36572	0.911847	1.60753	1.97834	2.4247	0
0.6693	0.235723	-1.12113	-0.750512	2.72434	0.141281	-1.53574	-2.34947	-1.08568	-0.622269	0.311224
0.6700	-1.5322	-0.205921	-1.36082	-0.0238978	-1.08316	-3.07149	-3.89517	-2.31611	-2.14575	-0.622448
0.6707	-0.942894	2.86002	1.69071	1.50556	0.470937	-0.335944	-0.525539	-0.168883	0.289677	-0.622448
0.6713	0	5.60564	2.91133	3.03502	1.97794	1.48775	2.22581	4.10145	2.4247	0
0.6720	0	7.43605	1.69071	1.19489	1.08316	1.1998	1.29839	4.41509	2.1243	0.311224
0.6727	-1.29648	5.90308	-0.445359	-2.1508	-0.141281	-0.623895	-0.834679	0.747911	-0.622269	0
0.6733	-2.12151	-3.86675	-1.36082	-4.61227	-0.753499	-2.78353	-2.96775	2.89514	-3.06843	0
0.6740	-0.589309	-9.97575	2.30102	-3.08281	0.141281	-1.24779	-0.834679	10.8085	-1.23381	-0.311224
0.6747	0.942894	-4.78195	7.48863	-1.24268	0.753499	1.48775	1.91667	17.5397	1.81316	-0.311224
0.6753	0.235723	0.411843	11.4556	-2.1508	0.141281	1.1998	1.91667	17.5397	1.81316	0
0.6760	-2.12151	0.709285	12.0659	-5.20971	-0.470937	-2.44759	-0.525539	4.10145	-0.933403	0.311224
0.6767	-4.0073	-0.503364	10.235	-6.4285	-0.753499	-2.78353	-2.34947	-30.3748	-2.75729	0.311224
0.6773	-1.29648	-0.205921	-0.445359	-4.89904	0.141281	0.287952	-0.834679	-87.7468	-0.622269	-0.311224
0.6780	1.76793	0.411843	-12.9649	-4.61227	1.08316	2.11165	1.60753	-124.081	1.51276	-0.622448
0.6787	1.76793	-1.12113	-9.60821	-6.11783	1.36572	2.11165	2.22581	-92.0172	1.21235	0.311224
0.6793	0	-10.891	-5.63297	-9.17674	0.141281	0	-0.834679	-5.66965	-2.14575	0.311224
0.6800	-0.353585	-15.7644	-8.98965	-8.5793	-1.08316	-0.911847	-2.34947	96.577	-2.75729	0
0.6807	0.942894	-4.48451	-5.63297	-3.08281	-0.141281	0.575903	0.680109	159.45	0.600811	0.311224
0.6813	1.5322	2.24226	-0.140206	1.81623	0.753499	1.1998	2.53495	131.367	1.51276	0
0.6820	0.589309	-1.41857	1.99587	4.85125	0.753499	1.1998	1.60753	45.3089	-0.0107288	0
0.6827	-1.29648	-3.24898	1.08041	6.3807	-0.470937	-1.24779	-0.834679	4.10145	-2.14575	0.311224
0.6833	-2.12151	-1.41857	-0.140206	7.00204	-1.36572	-3.69538	-2.65861	27.6003	-3.67997	0
0.6840	0	2.86002	1.99587	9.12894	0.141281	-1.24779	-0.216398	35.8515	-1.23381	0
0.6847	1.17862	4.37011	4.74225	10.3477	1.36572	0.575903	1.60753	-3.20878	1.21235	0
0.6853	0.942894	2.24226	5.35255	10.6584	0.470937	0.575903	0.680109	-34.042	0.600811	0
0.6860	-0.353585	0.709285	3.52163	8.81827	-0.141281	-1.24779	-1.45296	-24.8982	-1.53421	0
0.6867	-2.4751	2.5397	-0.750512	7.00204	-0.753499	-2.78353	-3.27689	-15.1271	-3.36883	0
0.6873	-0.353585	5.28532	-1.97113	13.7173	0.470937	0	-1.14382	-12.9799	-1.53421	-0.311224
0.6880	3.30013	3.15746	-1.36082	10.0371	1.36572	1.48775	1.91667	3.18465	2.4247	0
0.6887	3.0644	-1.73889	-5.32781	-16.5134	0.753499	0.575903	1.60753	19.9765	3.34738	0
0.6893	1.17862	-5.69716	-8.37934	-35.1297	-0.141281	0	-1.14382	29.4339	0.901217	-0.311224
0.6900	-0.353585	-6.90981	-7.46388	-35.1297	-0.753499	-0.335944	-2.65861	22.0996	-1.53421	0
0.6907	0.235723	-3.86675	-5.32781	-32.9789	0.141281	1.1998	-0.216398	-22.1478	0.289677	0
0.6913	0.942894	0.411843	-1.66597	-28.1038	1.36572	1.48775	2.81318	-60.2913	2.73584	0
0.6920	-0.353585	0.0915207	2.30102	-20.7672	1.36572	-0.335944	2.53495	-50.5202	1.21235	0.311224
0.6927	-2.4751	-1.73889	1.69071	-18.0189	0.141281	-1.53574	-0.525539	-28.5412	-2.14575	0
0.6933	-3.65371	-1.12113	0.164948	-14.0519	-1.08316	-3.07149	-2.04033	-20.9174	-3.36883	0
0.6940	-1.29648	1.62449	1.08041	-7.33661	-0.470937	-1.53574	0.0927421	-20.0006	-1.23381	0
0.6947	0.942894	2.5397	2.60617	-1.55335	0.141281	0.911847	3.12232	-20.0006	0.901217	0
0.6953	0	0.709285	2.60617	0.597444	0.141281	-0.335944	2.81318	-17.5638	0.289677	0
0.6960	-1.88579	0.0915207	1.69071	-1.55335	-0.141281	-2.44759	-0.525539	-18.4806	-2.14575	0
0.6967	-2.4751	1.62449	1.38556	-2.77214	-0.470937	-2.44759	-2.34947	-21.8342	-2.75729	0
0.6973	-0.353585	1.62449	2.60617	0.286773	0.141281	-0.911847	-0.525539	-10.5431	0.289677	0
0.6980	1.17862	4.07267	4.13194	2.103	0.753499	0.575903	1.91667	3.78781	2.4247	0
0.6987	0.589309	8.03094	2.60617	1.19489	0.470937	0	1.60753	4.7046	1.81316	0
0.6993	-1.5322	6.81829	-1.66597	-3.68025	-0.753499	-2.15964	-1.14382	-0.482523	-0.933403	-0.311224
0.7000	-3.41799	4.07267	-2.27628	-12.8331	-1.36572	-2.15964	-2.65861	-9.3127	-2.75729	-0.933672
0.7007	-1.88579	4.69043	2.60617	-16.8001	0.141281	1.48775	0.989249	-10.2295	1.21235	-0.311224
0.7013	0.235723	0.411843	3.82679	-12.8331	1.36572	1.82369	3.7406	1.35106	3.95892	0
0.7020	-0.353585	-5.9946	-1.05567	-7.64728	0.753499	0	1.60753	6.53819	1.81316	-0.622448
0.7027	-1.88579	-5.9946	-4.1072	-5.52038	-0.470937	-0.911847	-0.834679	5.01824	-0.622269	-0.311224
0.7033	-2.4751	-5.0794	-2.27628	-5.20971	-0.753499	-2.15964	-2.04033	3.78781	-2.45689	0.311224
0.7040	-0.942894	-2.03633	1.38556	-2.1508	0.141281	0	-0.834679	1.35106	-0.622269	0
0.7047	1.17862	3.77523	3.82679	1.50556	1.08316	2.11165	1.29839	1.6647	2.1243	0
0.7053	0.942894	6.20052	4.13194	2.41367	1.08316	1.48775	1.91667	-4.43921	2.4247	0.311224
0.7060	-1.29648	5.90308	2.30102	-0.0238978	-0.753499	-1.24779	-1.45296	-21.8342	-0.321863	0.311224
0.7067	-2.4751	-0.503364	-3.80205	-2.1508	-1.08316	-2.15964	-3.27689	-33.1252	-2.45689	0
0.7073	0.235723	-9.35799	-7.46388	0.597444	0.753499	0.911847	0.0927421	-37.3955	-0.321863	0
0.7080	4.83233	-13.0188	-1.05567	3.03502	1.97794	3.35944	2.22581	-19.3974	1.21235	0
0.7087	5.42164	-17.8923	2.60617	3.63246	1.36572	2.11165	1.60753	29.4339	0.600811	-0.311224
0.7093	1.17862	-20.6608	-3.49689	1.19489	0.141281	-0.335944	-1.45296	55.6832	-1.84535	0.311224
0.7100	-1.88579	-11.4858	-7.76904	-4.89904	-0.753499	-0.911847	-3.58603	45.3089	-2.75729	0.311224
0.7107	-1.29648	1.62449	-7.15873	-9.17674	-0.141281	0.575903	-0.834679	28.2035	0.289677	0
0.7113	-0.942894	8.6487	-3.19174	-7.33661	0.470937	0.911847	2.53495	13.5589	3.03624	0
0.7120	-2.12151	15.3526	2.30102	-4.61227	0.470937	-0.623895	3.7406	4.7046	2.4247	0.311224
0.7127	-2.82868	19.3337	1.38556	-4.89904	-0.470937	-2.44759	1.29839	-2.91927	-1.23381	0
0.7133	-1.29648	8.35126	-2.88659	-5.52038	-1.08316	-3.69538	-2.34947	-3.52242	-3.06843	-0.311224
0.7140	1.5322	-9.65543	-1.66597	-2.46147	-0.470937	-2.15964	-1.45296	3.49829	-0.933403	0
0.7147	3.30013	-19.1278	-0.140206	0.884217	0.470937	0.287952	0.401883	7.45498	1.51276	0.311224
0.7153	1.5322	-14.5518	-0.750512	0.286773	0.470937	0.287952	-1.45296	4.7046	0.600811	0
0.7160	-3.41799	-3.86675	-1.36082	-2.1508	-0.141281	-2.44759	-5.10082	-1.39932	-2.45689	0
0.7167	-5.18591	1.94481	-1.36082	-2.46147	-1.36572	-2.44759	-6.33738	-3.83606	-3.67997	0
0.7173	-2.82868	3.4549	0.164948	-0.334569	-5.65124	-0.911847	-3.58603	-0.168883	-1.23381	0
0.7180	-0.589309	3.77523	1.08041	1.50556	-9.93677	0	-1.14382	2.26786	1.21235	0
0.7187	0.235723	3.77523	1.38556	1.50556	-10.8316	0.911847	-1.45296	0.434271	1.51276	0
0.7193	-0.589309	2.24226	0.164948	-0.932013	-10.2193	-0.623895	-4.48254	-3.52242	-1.23381	0
0.7200	-1.5322	1.00673	-1.05567	-2.1508	-8.10012	-2.15964	-6.02824	-4.75285	-3.06843	0
0.7207	0	1.62449	1.08041	1.19489	-4.09715	0	-2.65861	-2.60562	-0.321863	0
0.7213	1.76793	2.5397	3.21648	3.63246	-1.36572	2.3996	0.680109	-0.482523	2.73584	0
0.7220	0.942894	1.94481	2.60617	2.41367	-0.753499	1.82369	1.29839	-0.482523	2.1243	0
0.7227	-0.942894	1.62449	0.164948	-0.0238978	0.141281	-0.911847	-0.216398	-2.31611	-0.622269	0.311224
0.7233	-1.88579	1.62449	-1.36082	-1.24268	1.69537	-2.15964	-0.834679	-3.20878	-2.14575	0
0.7240	-0.589309	0.411843	0.470101	0.597444	3.53203	-0.623895	1.29839	-1.68883	-0.321863	0
0.7247	2.12151	-2.03633	1.38556	3.03502	6.54602	0.287952	4.35888	0.434271	2.4247	0.311224
0.7253	2.12151	-3.86675	-0.445359	2.41367	7.77046	-1.87169	4.04974	1.06155	2.1243	0.311224
0.7260	-0.589309	-4.78195	-2.27628	0.286773	6.54602	-4.27128	0.989249	-0.168883	-0.622269	0
0.7267	-2.4751	-5.69716	-1.97113	-0.0238978	6.26346	-4.60723	-1.14382	-2.00247	-1.53421	0
0.7273	-1.5322	-6.61237	0.470101	2.41367	6.54602	-2.78353	0.680109	-3.20878	1.21235	0.311224
0.7280	0.235723	-0.205921	1.69071	4.2538	8.38268	-0.911847	2.81318	-2.31611	3.03624	0
0.7287	0.942894	9.26647	0.470101	3.34569	8.9949	-0.335944	0.989249	-1.08568	2.4247	0.311224
0.7293	-1.5322	11.3943	-1.97113	0.597444	4.42681	-2.44759	-1.7621	-3.20878	-0.321863	0.311224
0.7300	-2.4751	7.7335	-2.58143	-0.334569	-2.59015	-3.35944	-2.34947	-7.79275	-1.53421	0
0.7307	-0.353585	5.60564	-0.140206	1.81623	-6.54602	0	-0.525539	-9.3127	0.901217	0.311224
0.7313	1.17862	5.28532	1.38556	3.63246	-5.93381	3.64739	0.989249	-9.93998	2.73584	0.311224
0.7320	-0.589309	6.20052	1.38556	2.41367	-5.65124	3.02349	1.29839	-15.7303	1.21235	-0.622448
0.7327	-2.82868	5.60564	0.164948	-1.55335	-8.9949	-0.623895	-0.216398	-21.231	-2.14575	-0.622448
0.7333	-3.0644	3.77523	0.470101	-1.86403	-13.2804	-2.78353	0.0927421	-7.79275	-3.36883	-0.311224
0.7340	-1.29648	3.77523	3.21648	1.50556	-13.2804	-1.87169	4.97716	15.9956	0.289677	0
0.7347	0.589309	2.24226	3.82679	3.03502	-10.8316	-1.24779	8.00674	23.0164	2.4247	0.311224
0.7353	0.589309	-1.73889	1.38556	2.103	-9.32455	-1.24779	7.11023	15.3925	1.51276	0.311224
0.7360	-1.29648	-4.78195	-0.140206	0.597444	-7.77046	-0.623895	2.22581	8.68542	-0.321863	0.311224
0.7367	-2.12151	-5.0794	-0.140206	0.286773	-6.54602	-0.911847	-2.96775	4.41509	-1.53421	0
0.7373	-0.589309	-2.03633	1.69071	1.81623	-5.93381	-0.911847	-1.7621	2.89514	0.289677	0
0.7380	0.589309	1.00673	2.30102	2.41367	-6.54602	0	0.680109	3.18465	1.51276	-0.311224
0.7387	-0.589309	1.62449	1.69071	-0.0238978	-5.32159	-0.335944	0.401883	2.5815	-0.622269	0
0.7393	-2.12151	0.0915207	1.38556	-3.36958	-3.81459	-1.53574	-0.525539	0.747911	-4.59191	0.311224
0.7400	-2.4751	0.0915207	1.69071	-4.3016	-2.30759	1.48775	0.680109	-1.39932	-5.81499	0.311224
0.7407	-0.942894	1.62449	2.91133	-0.64524	1.36572	7.00683	5.87367	-1.08568	-2.14575	-0.311224
0.7413	0	1.94481	1.38556	1.81623	5.32159	7.00683	8.93416	0.747911	0.600811	0
0.7420	-0.353585	2.24226	-1.36082	1.50556	8.10012	5.47108	6.18281	0.434271	0.600811	0
0.7427	-1.29648	1.62449	-3.49689	0.286773	9.60711	11.2781	0.401883	-1.68883	-1.53421	0
0.7433	-2.12151	-1.41857	-3.80205	-0.334569	11.1612	22.2683	-2.34947	-2.31611	-3.06843	0
0.7440	0	-2.95154	-1.66597	3.03502	12.056	30.1869	-0.216398	-0.168883	0.600811	0
0.7447	1.76793	-0.503364	-0.140206	5.78326	11.1612	32.3466	2.22581	0.747911	3.95892	0
0.7453	0.235723	1.62449	-0.445359	5.78326	9.93677	31.7227	3.12232	-0.168883	3.64778	0
0.7460	-2.12151	2.24226	-1.97113	4.85125	8.71233	27.4514	3.12232	-1.08568	2.1243	0.311224
0.7467	-2.4751	3.15746	-2.27628	5.16192	7.4879	22.2683	3.7406	-1.68883	1.81316	0
0.7473	-0.589309	2.24226	0.164948	7.91016	8.38268	19.5327	7.11023	0.144757	4.55973	0
0.7480	0.589309	-2.95154	1.38556	7.31271	10.2193	11.5661	9.55244	1.06155	6.09394	0
0.7487	0	-7.52757	0.164948	3.34569	8.71233	3.35944	8.62502	0.747911	3.64778	0
0.7493	-0.942894	-9.35799	-1.05567	0.597444	6.26346	-0.335944	6.18281	-1.08568	0.289677	0
0.7500	-1.29648	-12.401	-1.97113	-1.24268	6.54602	-6.43092	5.56453	-4.75285	-2.45689	0
0.7507	0.235723	-16.3822	-0.750512	-0.64524	8.38268	-13.1498	8.31588	-2.31611	-0.933403	0
0.7513	0.942894	-22.1709	1.08041	0.286773	8.10012	-18.045	7.6976	14.7893	0.600811	0
0.7520	0.235723	-20.6608	1.69071	0.884217	5.65124	-20.1566	4.04974	37.9746	0.600811	0
0.7527	-1.29648	-12.7214	-0.140206	0.597444	1.36572	-21.4044	-2.65861	53.8496	-1.53421	0
0.7533	-2.4751	-10.2732	-1.05567	-1.24268	-2.30759	-24.7159	-10.6035	59.3503	-3.98037	0
0.7540	-0.942894	-1.12113	0.164948	-0.932013	-5.93381	-28.6992	-11.8092	29.1203	-2.75729	0
0.7547	0.942894	14.1399	1.08041	-0.0238978	-8.38268	-30.5229	-10.6035	-30.6885	-1.53421	0.311224
0.7553	0.942894	19.0134	0.470101	-0.64524	-8.10012	-26.8755	-12.1183	-55.1041	-1.84535	0.311224
0.7560	-0.589309	17.8008	-1.36082	-2.1508	-8.38268	-18.6209	-13.3549	-40.7491	-3.36883	0
0.7567	-1.88579	14.1399	-2.27628	-2.1508	-8.38268	-10.0783	-9.6761	-26.4181	-3.67997	0
0.7573	-0.353585	10.7766	-0.445359	1.81623	-5.03903	-2.78353	-2.96775	-14.8135	-0.0107288	0.311224
0.7580	1.17862	8.94614	0.775254	3.63246	-2.91981	-1.53574	0.989249	-7.50323	3.03624	0
0.7587	1.5322	7.7335	0.470101	1.50556	-2.59015	-5.51907	2.22581	-6.87595	1.81316	0.311224
0.7593	-0.589309	5.90308	-1.66597	-2.46147	-2.91981	-11.902	2.22581	-11.1463	-1.84535	0
0.7600	-2.12151	4.37011	-1.97113	-4.61227	-2.59015	-12.8139	2.22581	-14.5239	-3.36883	-0.933672
0.7607	0.589309	4.37011	1.38556	-2.77214	1.69537	-6.43092	1.60753	-10.2295	-0.933403	-0.311224
0.7613	1.76793	3.77523	2.91133	-2.46147	6.26346	-2.78353	-2.96775	-4.43921	-0.933403	0
0.7620	0.589309	2.86002	1.38556	-3.99093	6.87568	-4.27128	-9.6761	-4.12557	-3.06843	0
0.7627	-1.5322	2.5397	-1.36082	-6.4285	5.32159	-6.43092	-16.6936	-5.66965	-6.42653	0
0.7633	-3.0644	2.5397	-3.19174	-6.4285	5.32159	-5.18313	-18.8267	-5.04237	-7.63889	0
0.7640	-1.29648	2.5397	-1.36082	-3.08281	5.32159	-0.335944	-13.9422	-2.60562	-3.36883	0
0.7647	0.235723	2.5397	1.08041	-0.64524	4.42681	2.11165	-8.16131	-1.08568	-0.933403	0
0.7653	0.235723	2.24226	0.775254	-0.932013	6.54602	2.3996	-4.79168	-0.482523	-1.23381	0
0.7660	-0.942894	1.32705	-1.97113	-3.99093	8.38268	2.73554	-5.7191	-1.68883	-3.98037	0.311224
0.7667	-1.5322	1.00673	-2.58143	-4.61227	7.77046	5.47108	-6.33738	-1.68883	-5.20345	0.311224
0.7673	0.589309	2.24226	0.470101	-1.55335	6.87568	8.83052	-1.45296	0.747911	-1.84535	0.311224
0.7680	2.4751	3.4549	5.0474	-0.0238978	-0.753499	10.6542	3.12232	0.434271	0.600811	0
0.7687	1.5322	3.15746	9.01439	-0.334569	-11.4438	9.74237	4.66802	4.41509	-0.321863	0
0.7693	-0.589309	3.15746	8.09893	-1.55335	-19.3555	4.27128	3.12232	19.9765	-2.75729	0
0.7700	-1.5322	3.4549	5.35255	-1.86403	-23.3585	0.575903	3.12232	35.2242	-2.45689	0
0.7707	0	2.5397	4.13194	1.50556	-17.8485	2.3996	8.31588	42.8722	1.81316	0
0.7713	0.235723	0.709285	-3.19174	3.34569	-36.4505	1.48775	11.9946	54.7664	3.34738	0
0.7720	-1.29648	-2.6541	-10.5237	1.81623	-91.4089	-5.80703	11.3764	50.496	2.4247	0
0.7727	-3.0644	-7.52757	-9.91336	-0.64524	-127.718	-14.0616	6.49195	-9.3127	-0.321863	0
0.7733	-2.82868	-6.61237	-8.07419	-1.55335	-128.943	-16.5092	2.22581	-62.728	-1.84535	0.311224
0.7740	-0.353585	-1.73889	-4.41235	0.884217	-110.341	-14.3496	4.04974	-51.437	0.901217	0.311224
0.7747	1.17862	1.32705	-1.36082	3.03502	-81.0012	-13.1498	8.00674	-26.4181	2.73584	0
0.7753	0	2.86002	-2.27628	2.41367	-54.1578	-14.3496	7.6976	-18.7943	1.51276	-0.311224
0.7760	-2.12151	2.5397	-4.1072	-0.334569	-28.5388	-20.1566	3.7406	-16.9607	-1.23381	0
0.7767	-1.88579	1.32705	-3.80205	-0.64524	-8.9949	-23.2281	4.35888	-13.8967	-2.14575	0.622448
0.7773	-0.353585	-0.205921	-1.05567	2.72434	7.15824	-17.709	11.3764	-10.8568	1.21235	0.311224
0.7780	1.17862	-5.69716	0.775254	4.56447	31.2702	-11.3261	11.6855	-2.00247	4.25932	-0.311224
0.7787	2.12151	-11.8062	-0.140206	3.63246	54.77	-8.25462	0.989249	19.9765	4.25932	0
0.7793	0.942894	-11.1884	-3.19174	-0.0238978	66.0725	-0.335944	-10.9127	36.7683	0.600811	0.311224
0.7800	-1.29648	-5.0794	-3.19174	-3.08281	70.9702	10.6542	-17.9301	36.141	-3.67997	-0.311224
0.7807	-0.589309	0.411843	1.08041	-2.46147	72.4772	16.1733	-19.4449	17.5397	-2.75729	-0.622448
0.7813	0.235723	1.62449	3.82679	-0.932013	64.848	17.997	-17.621	-13.8967	-0.622269	0
0.7820	-0.353585	0.411843	-0.140206	-0.334569	57.2188	18.9088	-13.9422	-31.2916	-0.933403	0.311224
0.7827	-2.12151	-0.503364	-6.54843	-1.24268	55.7118	16.1733	-8.47045	-25.815	-2.45689	0
0.7833	-2.82868	-0.503364	-4.1072	-1.55335	55.9944	10.6542	-1.7621	-16.0439	-1.84535	0.311224
0.7840	-1.5322	0.0915207	2.91133	0.286773	56.6066	7.63072	3.12232	-9.62634	1.21235	0.311224
0.7847	-0.942894	0.709285	3.52163	2.103	49.5897	4.27128	4.04974	-6.2728	2.73584	0.311224
0.7853	-0.589309	1.00673	1.08041	3.34569	36.168	-2.15964	3.7406	-4.75285	2.73584	0
0.7860	-1.88579	-0.205921	-0.750512	1.50556	23.641	-7.63072	1.91667	-4.43921	0.289677	0
0.7867	-2.82868	-1.12113	-1.36082	-0.0238978	14.7874	-6.43092	-0.216398	-4.12557	-0.933403	0
0.7873	-0.589309	-0.205921	0.470101	3.03502	10.2193	0.287952	0.0927421	-2.00247	1.81316	-0.311224
0.7880	1.17862	0.0915207	1.69071	4.85125	6.87568	3.35944	-0.216398	-0.168883	3.64778	-0.311224
0.7887	0	0.0915207	1.08041	3.03502	3.53203	3.02349	-1.7621	-0.168883	2.1243	0
0.7893	-2.12151	-0.503364	-1.05567	-1.86403	3.20237	1.1998	-6.64652	-0.772037	-1.53421	0
0.7900	-2.82868	-1.41857	-1.36082	-4.61227	4.42681	-0.911847	-10.2944	-3.20878	-3.98037	-0.311224
0.7907	0	-0.205921	1.38556	-0.932013	10.2193	0.911847	-6.02824	-2.60562	-1.23381	-0.622448
0.7913	1.76793	1.00673	1.99587	2.41367	12.056	2.11165	1.60753	1.06155	2.4247	0
0.7920	0.942894	0.0915207	1.38556	1.81623	-20.9096	1.82369	3.43146	1.35106	2.1243	0
0.7927	-0.942894	-1.12113	1.38556	-2.1508	-71.865	1.1998	-1.45296	-1.08568	-2.14575	-0.311224
0.7933	-1.5322	-1.73889	0.775254	-5.52038	-99.0381	-0.335944	-9.08873	-1.39932	-5.81499	0
0.7940	0	-0.503364	1.38556	-3.36958	-110.011	0	-12.7366	1.06155	-3.98037	0
0.7947	0.942894	1.00673	1.38556	-1.24268	-104.501	-0.911847	-11.8092	3.49829	-1.53421	0
0.7953	-0.353585	0.0915207	-0.445359	-2.1508	-77.3749	-2.44759	-11.8092	2.5815	-2.45689	0
0.7960	-1.88579	-1.12113	-2.88659	-3.99093	-48.6949	-1.24779	-13.9422	0.144757	-4.89232	0
0.7967	-2.4751	-1.41857	-3.19174	-3.36958	-27.3143	3.93534	-11.5	-0.168883	-4.59191	0.311224
0.7973	-0.589309	-0.205921	-0.750512	0.884217	-10.549	6.71887	-2.65861	1.97834	-0.321863	0.311224
0.7980	0.942894	0.411843	0.775254	4.56447	5.93381	3.93534	6.80109	2.89514	2.4247	0.311224
0.7987	0.589309	0.0915207	0.470101	4.56447	24.8655	0.287952	16.2608	2.26786	2.4247	0
0.7993	-1.5322	-0.503364	-0.750512	3.34569	42.5727	-3.69538	20.8361	1.06155	1.21235	0
0.8000	-2.12151	-0.823686	-1.66597	3.94313	50.2019	-6.71887	16.5699	0.434271	1.21235	0.311224
0.8007	-0.353585	-0.503364	0.164948	6.69137	53.263	-5.18313	11.3764	2.26786	3.34738	0.311224
0.8013	0.942894	0.411843	1.38556	5.78326	57.2188	-0.623895	7.6976	3.49829	3.34738	0
0.8020	0.235723	0.0915207	0.470101	0.597444	55.7118	4.27128	0.0927421	1.97834	-0.321863	0
0.8027	-1.5322	-1.41857	-1.36082	-4.61227	52.9333	10.0303	-6.33738	0.144757	-5.50386	0
0.8033	-2.12151	-1.73889	-1.66597	-7.33661	53.263	13.3898	-2.65861	0.144757	-7.33848	0
0.8040	0	0.0915207	0.164948	-6.4285	52.9333	14.3016	7.11023	2.26786	-4.89232	0
0.8047	1.17862	0.411843	1.69071	-4.89904	54.77	13.3898	9.86158	3.78781	-2.14575	0
0.8053	0.235723	-0.823686	1.08041	-5.83105	55.3822	9.45442	0.401883	3.78781	-3.06843	0.311224
0.8060	-0.589309	-1.12113	-0.750512	-7.33661	43.4675	4.27128	-7.85217	1.97834	-5.50386	0.311224
0.8067	-0.353585	-1.12113	-4.41235	-6.4285	19.6852	4.55924	-4.20431	0.144757	-5.81499	-0.311224
0.8073	1.17862	0.0915207	-4.41235	-1.86403	1.36572	8.20662	6.80109	2.89514	-1.53421	-0.311224
0.8080	1.5322	1.94481	0.470101	1.50556	-1.97794	7.29478	14.1277	6.85183	1.81316	0
0.8087	0.942894	0.411843	3.52163	0.884217	2.30759	2.3996	12.3038	5.01824	1.21235	0
0.8093	0.235723	-2.03633	6.57317	-1.55335	6.87568	-1.24779	6.18281	0.434271	-0.933403	0.311224
0.8100	0.589309	-1.73889	12.3711	-2.46147	8.38268	-2.78353	5.56453	-0.168883	-2.14575	0.311224
0.8107	1.17862	0.411843	14.8123	-0.64524	7.77046	2.3996	10.7581	1.97834	-0.622269	0
0.8113	0.589309	3.4549	12.3711	0.597444	7.4879	10.3663	11.3764	9.28857	0.289677	0
0.8120	-1.5322	4.07267	10.235	-0.64524	5.65124	9.11847	8.00674	25.7667	-0.622269	0
0.8127	-4.95019	2.24226	7.48863	-2.77214	2.30759	0.287952	2.81318	41.0386	-3.06843	0
0.8133	-6.48239	4.07267	-3.49689	-3.99093	0.753499	-0.335944	-6.33738	44.0785	-4.89232	0.311224
0.8140	-3.65371	6.52085	-19.6783	-1.55335	1.69537	0	-13.3549	50.1824	-2.14575	0
0.8147	0	0.411843	-19.6783	-0.0238978	1.69537	11.2781	-17.0027	75.8285	0.901217	-0.311224
0.8153	0.589309	-11.1884	-5.63297	-0.334569	1.97794	80.5305	-17.0027	56.8895	0.901217	0
0.8160	-0.589309	-20.9582	0.164948	-1.55335	3.81459	160.197	-14.5605	-29.7717	-1.84535	0
0.8167	-0.589309	-18.8075	-1.97113	-0.64524	5.93381	180.93	-9.6761	-74.0191	-2.14575	0
0.8173	0.942894	-6.31493	-1.66597	2.103	7.15824	171.811	-2.65861	-55.3937	1.81316	0
0.8180	0.942894	1.62449	-1.05567	2.41367	4.14425	156.838	-1.7621	-39.5428	2.73584	0
0.8187	-0.353585	4.07267	-1.97113	0.884217	-0.753499	133.946	-5.7191	-21.8342	0.901217	0.311224
0.8193	-2.4751	4.37011	-3.19174	-1.24268	-4.42681	105.582	-9.36695	2.5815	-1.84535	0
0.8200	-3.0644	4.69043	-3.19174	-1.24268	-9.93677	71.9879	-6.02824	13.2694	-1.84535	-0.311224
0.8207	0.235723	6.81829	-0.140206	3.03502	-13.8926	36.2819	10.1398	5.62139	2.4247	0
0.8213	1.5322	4.98788	-1.36082	6.07003	-15.3996	0.575903	23.5874	-12.9799	4.87086	0.311224
0.8220	0.235723	0.0915207	-5.02266	6.3807	-17.566	-32.9705	19.9086	-23.0646	4.55973	0.311224
0.8227	-1.5322	-2.33378	-3.49689	2.41367	-19.0729	-61.3817	7.41937	-17.5638	1.81316	0
0.8233	-2.4751	-2.33378	0.164948	-0.932013	-16.3415	-76.3072	0.680109	-9.62634	-0.933403	0
0.8240	-0.589309	-1.12113	3.21648	0.597444	-9.93677	-77.843	0.401883	-1.08568	0.600811	0
0.8247	0.942894	-0.823686	4.43709	3.03502	-5.32159	-89.457	0.401883	0.747911	3.34738	0
0.8253	0.589309	-2.33378	0.775254	2.103	-2.59015	-110.19	0.0927421	-13.8967	2.1243	0
0.8260	0	-4.48451	-5.63297	-0.0238978	2.30759	-111.725	-1.7621	-26.7077	-0.622269	0.622448
0.8267	0.589309	-6.31493	-7.15873	-0.932013	6.87568	-93.7283	-5.40996	-24.5846	-1.53421	0.311224
0.8273	1.5322	-5.69716	-4.41235	-0.334569	3.81459	-71.412	-6.64652	-22.4373	-0.321863	0
0.8280	2.71082	4.07267	-1.97113	1.19489	-12.3385	-55.5747	-4.79168	-26.4181	1.81316	0
0.8287	1.5322	12.607	-1.66597	2.72434	-35.2261	-51.3034	-0.834679	-27.3349	3.34738	0
0.8293	-2.12151	8.94614	-2.88659	1.19489	-51.0967	-57.0624	-1.7621	-22.4373	1.81316	0
0.8300	-3.0644	2.24226	-1.97113	1.19489	-55.0996	-58.5982	-2.96775	-12.6904	1.21235	0.311224
0.8307	-0.942894	1.62449	-1.05567	3.94313	-44.6919	-49.1438	1.29839	3.78781	4.55973	0.311224
0.8313	0	3.77523	-1.36082	4.56447	-30.0458	-41.849	-1.7621	12.9557	5.17127	0
0.8320	0	4.69043	0.470101	2.72434	-21.5218	-43.6727	-6.64652	6.24867	3.03624	0
0.8327	0.589309	0.0915207	0.470101	1.50556	-17.2363	-47.0321	11.3764	0.434271	1.81316	0.311224
0.8333	2.12151	-6.31493	-1.97113	3.63246	-11.4438	-48.2319	39.4463	-2.60562	3.03624	0.311224
0.8340	3.0644	-8.44278	-2.27628	6.69137	-2.30759	-51.5914	50.1426	13.2694	6.09394	0
0.8347	1.76793	-8.44278	0.164948	5.47259	4.70937	-58.3102	44.6399	51.4128	4.87086	0
0.8353	-1.88579	-5.69716	1.99587	-1.24268	0.753499	-58.9341	33.6654	57.2031	-1.53421	0.311224
0.8360	-4.59661	-2.03633	0.775254	-8.5793	-15.7293	-48.5199	22.3509	22.0996	-7.95002	0.311224
0.8367	-4.95019	-2.03633	-0.750512	-11.0169	-26.3725	-33.8823	12.8912	-5.66965	-9.47351	0.311224
0.8373	-2.4751	-2.03633	0.775254	-8.26863	-14.1752	-20.4446	1.29839	-8.42003	-6.72694	0
0.8380	-0.353585	-1.73889	2.60617	-6.11783	7.4879	-10.0783	-8.47045	-2.00247	-4.89232	0
0.8387	-0.589309	-2.6541	2.60617	-7.04984	18.1782	-3.35944	-10.6035	0.434271	-5.50386	0
0.8393	-2.82868	-1.12113	0.470101	-8.26863	21.1922	-0.623895	-13.0457	-2.60562	-7.33848	0.311224
0.8400	-3.41799	4.07267	0.775254	-6.73917	24.5829	0.575903	-16.3844	-12.6904	-5.81499	0
0.8407	-1.88579	4.98788	2.91133	-3.36958	18.7904	1.1998	-13.3549	-23.9814	-1.84535	0
0.8413	-0.353585	1.00673	3.52163	-1.55335	8.9949	0.911847	-10.9127	-29.1685	-0.0107288	0.311224
0.8420	0	-0.823686	2.30102	-1.55335	8.71233	0.287952	-12.1183	-19.0838	-0.321863	0
0.8427	-1.5322	-0.503364	-0.750512	-3.36958	7.4879	0.575903	-16.3844	8.68542	-2.75729	0
0.8433	-2.4751	3.77523	-2.27628	-3.68025	1.36572	0.575903	-15.1788	33.7042	-3.06843	0.311224
0.8440	0.589309	11.0969	-0.445359	-0.334569	1.08316	-1.53574	-4.79168	39.4945	-0.321863	0
0.8447	3.88944	12.607	-0.750512	1.50556	4.14425	24.092	1.29839	31.5811	0.901217	0
0.8453	4.24302	6.52085	-2.88659	-0.334569	4.42681	79.3307	-0.216398	23.0164	-0.622269	0
0.8460	1.17862	-0.503364	-4.1072	-3.68025	1.69537	112.301	-3.89517	15.7061	-4.28078	0
0.8467	0	-1.12113	-1.05567	-5.20971	2.30759	117.148	-7.85217	6.53819	-5.20345	0
0.8473	2.4751	1.32705	2.91133	-3.36958	2.30759	113.501	-7.85217	0.144757	-2.75729	0
0.8480	1.5322	1.62449	3.21648	-1.55335	-6.26346	103.423	-4.79168	3.49829	-0.933403	0
0.8487	-2.4751	1.62449	0.775254	-0.64524	-15.3996	88.1612	-5.40996	2.26786	-0.0107288	0
0.8493	-4.24302	-0.503364	-2.88659	-2.46147	-19.3555	64.9811	-15.4879	-18.7943	-2.75729	0
0.8500	-3.41799	-3.24898	-3.80205	-3.08281	-19.0729	41.801	-18.2393	-44.1026	-3.98037	-0.622448
0.8507	-1.29648	-2.6541	0.775254	0.597444	-14.1752	25.2918	-5.10082	-55.3937	0.901217	-0.622448
0.8513	0	-1.12113	2.60617	1.81623	-9.93677	11.2781	0.401883	-59.3745	2.4247	0
0.8520	-1.29648	0.709285	0.470101	-0.64524	-10.8316	-6.43092	-12.1183	-56.6241	-0.321863	0.311224
0.8527	-3.0644	2.5397	-1.36082	-2.77214	-13.8926	-31.7707	-23.1237	-40.1459	-2.75729	0.311224
0.8533	-2.82868	4.98788	-1.05567	-1.55335	-12.9508	-52.5032	-22.8146	1.97834	-1.23381	0.311224
0.8540	-0.589309	7.7335	1.08041	1.19489	-4.70937	-67.7646	-5.7191	67.891	2.4247	0.311224
0.8547	-0.353585	9.86135	1.69071	1.50556	1.97794	-81.8263	24.7931	94.7434	2.1243	0
0.8553	-0.942894	4.98788	0.775254	-0.334569	-7.77046	-85.7616	46.7729	66.0574	-0.622269	0
0.8560	-2.12151	-10.891	-1.36082	-2.77214	-24.5829	-84.5618	37.0041	36.4546	-3.67997	0
0.8567	-2.4751	-24.0013	-1.66597	-3.99093	-27.9266	-77.555	3.7406	22.7268	-5.20345	0
0.8573	-1.29648	-27.6621	0.775254	-2.77214	-23.3585	-65.3171	-23.4019	16.9124	-2.75729	0
0.8580	-0.353585	-33.7711	1.38556	-1.55335	-22.134	-59.846	-45.0727	13.2694	-1.53421	0
0.8587	-0.942894	-43.541	0.470101	-2.1508	-22.4166	-55.2387	-56.3872	10.2054	-1.84535	0.311224
0.8593	-2.4751	-47.2018	-1.05567	-3.99093	-19.3555	-46.1203	-48.7514	8.08226	-2.75729	0.311224
0.8600	-3.0644	-45.9891	-0.445359	-3.08281	-8.38268	-32.6825	-44.4853	6.24867	-2.45689	0
0.8607	-2.82868	-43.8384	1.69071	0.286773	5.65124	-19.8687	-49.3697	5.93503	1.21235	0
0.8613	-2.4751	-7.82502	1.69071	1.81623	13.8926	-13.4377	-50.2662	5.62139	2.73584	0.311224
0.8620	-2.4751	57.7724	0.470101	0.286773	18.7904	-11.902	-46.3092	4.41509	1.21235	0
0.8627	-4.0073	72.1183	-1.66597	-3.08281	22.7463	-14.9735	-42.9396	2.26786	-2.14575	0
0.8633	-4.59661	38.5531	-2.58143	-3.99093	22.134	-18.045	-35.0256	1.6647	-3.36883	0
0.8640	-4.24302	20.8438	-0.140206	0.286773	17.566	-16.1733	-32.8616	2.89514	-0.0107288	0
0.8647	-4.95019	18.4185	1.08041	3.03502	16.6241	-14.0616	-33.1708	3.49829	2.73584	0
0.8653	-5.18591	15.9704	0.164948	2.41367	23.3585	-11.6141	-5.40996	2.26786	3.34738	0
0.8660	-5.18591	13.2247	-1.36082	0.884217	28.5388	-7.34277	24.7931	-0.482523	1.51276	-0.311224
0.8667	-4.95019	12.0121	-1.66597	0.597444	26.4196	0.911847	29.9866	-1.39932	0.901217	0
0.8673	-2.4751	12.607	0.470101	2.41367	19.9677	12.8139	36.695	0.434271	3.34738	0
0.8680	-0.353585	11.6918	1.38556	3.63246	11.4438	17.997	49.2152	1.06155	4.55973	0
0.8687	-0.353585	8.94614	0.470101	2.72434	4.42681	15.2614	49.8334	0.144757	3.64778	0
0.8693	-1.29648	-0.503364	-1.36082	0.597444	1.08316	10.9902	33.3563	-2.00247	0.600811	0
0.8700	0.942894	-15.467	-1.05567	2.103	2.59015	10.9902	15.6425	-2.60562	1.21235	0
0.8707	4.83233	-19.7227	1.69071	6.3807	8.10012	14.3016	11.9946	-0.482523	5.17127	0.311224
0.8713	6.71812	-11.8062	2.30102	5.78326	8.38268	17.3731	7.11023	0.144757	4.87086	0
0.8720	8.48604	-4.48451	1.38556	1.19489	5.65124	18.6209	0.680109	-0.482523	1.51276	0
0.8727	7.89673	1.00673	-0.140206	-2.77214	3.53203	17.997	-2.34947	-0.772037	-1.23381	0.311224
0.8733	3.0644	6.52085	-0.750512	-2.77214	2.91981	18.9088	-2.34947	0.747911	-0.933403	0
0.8740	-4.24302	4.98788	0.775254	1.50556	6.26346	21.6444	23.8966	4.10145	2.73584	0
0.8747	-13.7898	15.6729	2.30102	4.56447	-21.5218	20.1086	64.4867	6.85183	5.17127	0
0.8753	-24.751	47.1103	1.99587	3.94313	-113.355	12.19	76.3886	8.08226	2.73584	0.311224
0.8760	-28.4047	50.4508	-0.750512	1.50556	-217.761	2.11165	61.7353	5.93503	-1.84535	0.311224
0.8767	-15.9113	13.5222	-2.27628	-0.64524	-273.285	2.73554	32.4288	5.93503	-3.06843	0
0.8773	-3.0644	-12.7214	-1.66597	-1.86403	-273.285	12.8139	-1.45296	9.60221	-0.622269	0.311224
0.8780	-1.29648	-16.0619	-1.05567	-2.1508	-225.39	18.9088	-19.1358	12.039	0.901217	0
0.8787	-4.24302	-20.043	-1.97113	-1.24268	-160.966	17.997	-24.3294	10.2054	0.600811	0
0.8793	-8.0146	-21.2557	-4.1072	-3.08281	-102.711	8.20662	-23.1237	2.89514	-1.53421	0
