MR32 ASCII
Name	KneeFJC1
Frequency	1500
Date	07-09-2015 09:37:47
"Time,s"	"RT TIB.ANT.,uV"	"RT MED. GASTRO,uV"	"RT LAT. GASTRO,uV"	"RT BICEPS FEM.,uV"	"RT VMO,uV"	"RT VLO,uV"	"RT RECTUS FEM.,uV"	"RT SOLEUS,uV"	"RT SEMITEND.,uV"	"Channel 12,uV"
0.0000	-0.532365	-35.2789	-2.28107	-6.80927	76.2227	73.1878	-3.22562	-0.39901	-5.15953	-6894.08
0.0007	-0.532365	-32.5319	-2.88985	-1.92304	55.7797	50.6338	-9.0291	3.26148	-2.72309	-10537.8
0.0013	0.0591517	-18.8014	-5.02423	-6.80927	15.1781	19.5092	-5.97533	4.78812	-4.55608	-9713.84
0.0020	-0.236607	-41.9955	-8.99227	-4.36615	-32.3958	9.13437	-4.45506	5.10039	-3.63581	-9700.01
0.0027	-0.236607	-54.2018	-11.134	10.2804	-54.4042	6.65343	-3.52968	8.44861	0.942897	-9907.12
0.0033	0.0591517	-22.7669	-10.8259	12.7235	-43.4	-1.24047	-6.58344	9.68034	1.55389	-9790.38
0.0040	-1.18303	-23.3783	-15.7108	4.78947	-33.6291	-9.19076	-7.81288	2.0471	1.55389	-9812.57
0.0047	-2.72098	-33.449	-17.5371	2.65477	-45.819	-12.8558	-2.92157	-5.89841	3.68861	-9818.04
0.0053	-3.60825	-26.7366	-3.80668	2.95713	-61.9932	-15.6187	1.65247	-4.37177	4.60134	-9819
0.0060	-2.07031	-34.366	5.95573	-0.701487	-56.2066	-15.6187	0.132198	8.76088	2.46662	-9792.31
0.0067	-1.47879	-39.8557	6.26378	-4.66852	-34.2457	-10.7132	-0.171857	24.3223	-1.80282	-9849.23
0.0073	-2.72098	-39.8557	9.62304	-6.50085	-17.7869	2.08625	10.5097	27.3756	-5.15953	-9867.24
0.0080	-3.01674	-31.6191	5.04623	-10.1655	-14.4192	24.6966	23.6237	21.269	-5.4688	-9531.17
0.0087	-3.60825	-43.5197	-2.28107	-8.33319	-18.0715	35.0715	23.9278	6.92196	-3.33408	-10356.1
0.0093	-2.72098	-69.155	-1.06352	2.04399	-19.9213	23.1742	15.0837	-15.041	-2.41382	-9263.61
0.0100	-0.532365	-64.8838	0.161362	8.45413	-17.7869	0.56385	13.5503	-23.8886	-1.50109	-2920.1
0.0107	0.35491	-36.5016	0.161362	3.56791	-12.2848	-18.6634	18.4416	-16.2727	0.0226295	107.092
0.0113	-0.236607	-23.0726	-1.97302	-3.1446	-4.64831	-13.1377	12.6381	-6.80052	-0.279097	-104.197
0.0120	-0.236607	-34.366	-5.94106	-3.44696	3.8894	6.99174	1.04436	-1.92566	-1.80282	-117.705
0.0127	-1.18303	-40.1614	-8.99227	0.520068	8.77486	13.9835	-4.75911	-1.31847	0.0226295	89.7256
0.0133	-1.77455	-27.0423	-8.99227	3.26555	7.25705	11.8409	-7.19155	-1.92566	4.60134	-27.3358
0.0140	-0.887275	-25.8195	-4.41545	4.17869	1.47038	9.4163	-8.11693	-1.61339	6.43433	-5.14555
0.0147	0.0591517	-46.2666	-1.06352	5.70261	-2.18186	5.13104	-12.995	-1.92566	5.5216	0.321597
0.0153	-0.236607	-45.9609	-0.146693	6.01102	-0.996066	-1.57878	-19.1026	-1.61339	2.76834	-1.28639
0.0160	-0.887275	-26.1252	0.770137	5.09788	2.9882	-5.24381	-15.7447	0.520448	1.24462	-1.28639
0.0167	-0.887275	-29.1778	0.770137	5.40024	6.35585	-5.24381	-8.72504	2.65429	2.76834	-0.964791
0.0173	-0.532365	-30.3964	-1.06352	7.23258	5.12262	-14.9984	3.49002	1.73483	3.99034	-0.964791
0.0180	-1.47879	-16.9674	-3.80668	4.17869	1.75497	-30.5607	16.604	-0.39901	-0.279097	-0.964791
0.0187	-1.77455	-33.449	-4.72351	-3.75538	2.08699	-24.1328	15.9959	-0.693931	-6.0798	-0.964791
0.0193	-0.887275	-43.5197	-2.58913	-7.72241	2.70361	-1.86071	10.5097	2.34202	-6.38152	-0.964791
0.0200	-1.18303	-23.3783	-1.36424	-8.63555	0.853771	18.6071	8.97622	5.39531	-4.8578	-0.964791
0.0207	-1.18303	-33.449	-1.6723	-10.4679	-0.0474317	58.584	7.76	5.10039	-5.4688	-0.964791
0.0213	-0.887275	-41.9955	-3.49862	-6.19849	0.853771	114.405	-3.83373	2.96655	-3.33408	-0.964791
0.0220	-0.532365	-25.8195	-5.02423	-1.0099	4.50601	145.248	-15.7447	2.0471	-0.279097	-0.964791
0.0227	-1.18303	-35.5846	-2.88985	-8.94396	11.2413	151.958	-1.40129	3.57374	-4.55608	-1.28639
0.0233	-1.47879	-42.9083	-1.36424	-16.878	13.9924	138.82	18.4416	4.78812	-9.43651	-1.28639
0.0240	-1.47879	-28.8721	-2.28107	-3.44696	7.87366	118.972	15.9959	4.18093	-4.24681	-0.964791
0.0247	-1.47879	-32.5319	-4.41545	9.97805	-2.51388	120.833	4.40218	3.26148	0.633627	-0.643194
0.0253	-1.47879	-45.3496	-5.33228	4.4871	-3.13049	137.016	-4.45506	2.34202	-1.80282	-0.643194
0.0260	-1.18303	-30.3964	-2.58913	1.1248	8.15825	158.329	-9.33315	2.96655	0.633627	-0.964791
0.0267	-1.18303	-17.273	-1.06352	-0.399122	13.3757	193.119	-7.19155	4.78812	3.99034	-0.643194
0.0273	-1.47879	-18.4958	-1.97302	-6.19849	5.73924	212.684	-3.83373	4.78812	1.55389	-0.643194
0.0280	-1.47879	-20.937	-4.11473	-5.58771	-4.03169	151.337	-12.995	3.26148	2.16489	-0.964791
0.0287	-1.77455	-32.5319	-5.33228	1.43321	-1.89727	70.143	-27.9466	2.0471	7.34705	-0.643194
0.0293	-1.47879	-47.4852	-3.1979	6.31339	12.1425	-10.4312	-23.6766	3.57374	11.013	-0.643194
0.0300	-0.532365	-37.113	-1.36424	6.31339	18.8778	-224.638	-8.11693	5.10039	9.48931	-0.643194
0.0307	-1.18303	-26.4309	-1.36424	2.34635	11.5259	-367.179	-8.72504	5.10039	6.12506	-0.643194
0.0313	-1.47879	-42.297	-3.80668	-0.399122	5.40721	-249.673	-21.8391	2.96655	3.07761	-0.643194
0.0320	-1.18303	-41.9955	-3.80668	-1.62068	6.64044	-114.462	-28.2506	1.73483	1.24462	-0.643194
0.0327	-1.18303	-32.5319	-1.06352	-1.92304	9.67607	-63.8278	-20.3188	3.86867	0.633627	-0.643194
0.0333	-1.47879	-43.5197	0.469417	-0.0907096	10.2927	-39.6951	1.34842	5.10039	-0.890094	-0.643194
0.0340	-1.47879	-37.4145	0.161362	0.520068	6.35585	-44.2622	19.3537	4.78812	-3.02481	-0.643194
0.0347	-2.07031	-29.4835	-5.33228	-4.97693	1.47038	-49.1677	19.0497	3.57374	-5.4688	-0.643194
0.0353	-3.01674	-49.9264	-10.2171	-7.42004	-1.89727	-39.6951	17.8335	2.96655	-4.8578	-0.643194
0.0360	-2.07031	-39.2485	-6.24911	-5.2793	-3.7471	-25.9935	24.2318	4.4932	-4.55608	-0.643194
0.0367	-1.18303	-19.1071	0.469417	-4.05774	-4.03169	-11.3334	25.4613	6.62704	-5.77053	-0.643194
0.0373	-0.236607	-27.9551	1.07819	-4.05774	-4.64831	-8.2886	19.3537	8.76088	-6.0798	-0.321597
0.0380	-0.532365	-32.5319	-4.72351	-5.58771	-6.49814	-16.5208	8.36811	5.70758	-7.60352	-0.964791
0.0387	-1.77455	-57.5559	-7.46666	-6.80927	-2.18186	-13.476	-5.36722	0.208179	-7.91279	-2.57278
0.0393	-2.07031	-83.4968	-2.58913	-5.58771	8.49027	-0.958545	-9.0291	4.4932	-3.33408	-1.60799
0.0400	-2.72098	-49.3192	-0.146693	-4.66852	15.1781	-0.620235	-0.171857	10.2875	1.55389	-0.321597
0.0407	-2.72098	-18.4958	-1.6723	-1.31227	13.3757	-34.2257	2.26058	6.92196	3.99034	-0.643194
0.0413	-0.532365	-36.8073	-2.88985	2.04399	9.39148	-84.8595	-11.7788	4.18093	4.91061	-0.964791
0.0420	1.5971	-45.3496	-5.64034	1.43321	7.25705	-90.6671	-23.6766	5.10039	3.99034	-0.643194
0.0427	1.5971	-28.5665	-7.46666	0.211656	6.35585	-58.3021	-17.265	6.92196	3.37934	-0.321597
0.0433	0.0591517	-22.4612	-2.28107	1.73558	4.50601	-45.7846	-5.36722	7.84142	3.07761	-0.643194
0.0440	-0.887275	-28.2608	3.21257	2.04399	-0.996066	-47.0251	3.17274	6.62704	1.24462	-0.643194
0.0447	-0.887275	-24.9025	-0.146693	0.211656	-7.68393	-45.2208	11.4219	-0.0867414	-1.50109	-0.643194
0.0453	-1.77455	-30.3964	-5.33228	-0.701487	5.12262	-43.9803	22.1034	-8.03225	-3.02481	-0.643194
0.0460	-2.72098	-45.0439	-1.06352	-0.399122	34.4354	-40.3153	37.3591	-5.58614	-2.41382	-0.321597
0.0467	-2.72098	-35.8902	5.65501	-1.31227	53.0286	-42.4579	44.6828	0.815369	-3.63581	-0.321597
0.0473	-1.47879	-27.6494	5.34695	-3.75538	57.9141	-50.4082	35.8388	-0.39901	-5.15953	-0.643194
0.0480	-1.18303	-41.3841	1.99502	-6.80927	43.5897	-47.6453	20.874	-4.0595	-2.72309	-0.643194
0.0487	-1.47879	-35.8902	-0.146693	-4.05774	60.6651	-32.7033	6.53056	-4.0595	2.46662	-0.321597
0.0493	-2.36607	-29.1778	-1.97302	0.822434	168.383	-7.66836	-9.94126	-2.22058	7.34705	-0.321597
0.0500	-3.01674	-38.3315	-4.72351	-1.62068	262.06	21.9338	-20.6228	-2.22058	7.95805	-0.321597
0.0507	-2.36607	-24.2953	-3.80668	-4.97693	252.621	37.2141	-22.1563	-1.61339	3.68861	-0.321597
0.0513	-2.07031	-24.9025	-1.06352	-4.36615	180.288	30.7862	-24.2847	-1.61339	-2.11209	-0.643194
0.0520	-2.07031	-49.0136	-0.755468	-2.84223	71.3373	23.1742	-20.9269	-1.92566	-3.94508	-0.643194
0.0527	-0.532365	-30.0907	-0.146693	-1.31227	-33.9611	19.7911	-9.63721	4.18093	-2.11209	-0.321597
0.0533	-0.236607	-27.0423	-1.06352	2.04399	-88.2704	-0.33831	-1.40129	7.84142	-0.890094	-1.28639
0.0540	0.0591517	-67.0194	-1.36424	8.45413	-115.733	-10.0929	-0.793186	3.86867	0.3319	-1.92958
0.0547	0.650669	-50.2321	-5.33228	9.66964	-125.504	3.04479	-8.42099	1.43991	0.633627	-0.964791
0.0553	-1.18303	-24.2953	-8.69155	6.01102	-106.579	-5.52573	-18.7985	-0.0867414	0.0226295	-0.643194
0.0560	-2.07031	-45.9609	-2.58913	5.09788	-93.1559	-29.6585	-20.3188	0.520448	0.633627	-0.643194
0.0567	-1.77455	-37.4145	3.82135	2.65477	-86.4205	-30.5607	-19.4066	2.0471	1.55389	-0.643194
0.0573	-2.07031	-13.0019	0.469417	-4.05774	-72.0962	-10.9951	-18.4944	1.12764	1.85562	-0.964791
0.0580	-2.72098	-35.5846	-6.54983	-8.02477	-65.3609	19.1709	-15.4407	0.208179	0.633627	-0.964791
0.0587	-2.72098	-53.8961	-8.38349	-4.66852	-62.3252	40.2589	-17.5691	-0.0867414	0.0226295	-0.964791
0.0593	-1.77455	-24.9025	-4.72351	-0.0907096	-66.5941	20.4114	-11.1575	0.208179	-0.279097	-0.643194
0.0600	-1.77455	-16.6659	-2.58913	-2.53382	-86.136	-9.47268	10.8138	1.43991	-2.72309	-0.321597
0.0607	-0.532365	-37.4145	-0.447413	-4.66852	-92.8238	-12.2355	24.8532	2.34202	-3.94508	-0.643194
0.0613	1.5971	-34.6675	-1.6723	-5.2793	-74.2306	-2.48094	25.4613	0.815369	-5.4688	-0.643194
0.0620	0.946427	-29.1778	-7.77472	-8.63555	-51.9377	10.6568	17.8335	0.815369	-8.82551	-0.321597
0.0627	-0.532365	-40.7728	-10.2171	-6.80927	-35.7635	32.6469	1.34842	2.65429	-8.21452	-0.643194
0.0633	-0.887275	-34.6675	-11.4347	-1.0099	-19.9213	49.3933	-14.2112	2.65429	-2.41382	-0.643194
0.0640	-0.532365	-31.0077	-9.90909	-1.62068	-11.0516	49.3933	-21.535	3.57374	2.46662	-0.643194
0.0647	-0.887275	-35.8902	-1.06352	-6.50085	-18.3561	31.0681	-25.5009	-0.39901	2.46662	-0.643194
0.0653	-1.18303	-30.3964	6.57184	-7.42004	-39.4157	-27.7978	-27.6425	-9.24663	2.16489	-0.643194
0.0660	-0.887275	-37.4145	8.70621	-3.1446	-56.8232	-79.3901	-16.0488	-8.32717	4.91061	-0.643194
0.0667	-0.236607	-37.7201	7.18061	1.1248	-54.4042	-60.7831	1.65247	0.815369	6.12506	-0.643194
0.0673	0.35491	-23.0726	1.68697	2.04399	-39.7478	-30.8426	20.57	22.1884	3.99034	-0.321597
0.0680	-0.887275	-23.684	-10.5179	2.04399	-29.6448	-30.8426	34.0012	43.5442	2.46662	-0.643194
0.0687	-2.72098	-67.6266	-16.6203	-1.92304	-25.0914	-18.0432	19.3537	46.5975	0.633627	-2.25118
0.0693	-2.07031	-92.349	-3.49862	-4.66852	-20.8225	20.6933	2.26058	52.3918	0.3319	-2.57278
0.0700	-1.18303	-57.2544	11.7574	-3.1446	-22.0557	51.254	5.31434	55.7574	1.55389	-0.321597
0.0707	-0.236607	-39.5542	11.7574	-3.44696	-22.3403	54.2988	7.45595	33.1699	0.633627	-0.321597
0.0713	0.35491	-27.3437	1.37891	-3.1446	-12.9014	32.3086	-0.171857	-3.74723	0.633627	-0.643194
0.0720	-0.236607	-26.4309	-6.85789	1.1248	-0.0474317	-0.056385	-6.27939	-37.3161	2.46662	-0.321597
0.0727	-1.77455	-51.1491	-8.69155	2.65477	7.25705	-28.7	-6.27939	-48.3149	4.29961	-0.643194
0.0733	-3.01674	-35.2789	-13.5691	2.34635	9.10689	-50.0699	-5.67128	-37.0212	3.68861	-0.643194
0.0740	-2.36607	-13.0019	-21.5052	2.04399	8.49027	-49.4497	-5.97533	-22.6742	2.16489	-0.643194
0.0747	-1.47879	-31.0077	-28.8325	1.1248	6.35585	-34.8459	-8.72504	-8.63944	1.55389	-0.643194
0.0753	-3.90401	-40.7728	-29.4412	1.1248	4.50601	-27.1776	-12.691	1.73483	1.55389	-0.643194
0.0760	-6.68414	-21.2427	-6.85789	2.04399	2.9882	-22.6104	-10.5494	0.815369	0.942897	-0.643194
0.0767	-4.19977	-16.6659	23.3535	0.520068	2.70361	-12.2355	-3.52968	-0.39901	-0.279097	-0.643194
0.0773	0.35491	-47.7908	19.9942	-3.1446	7.25705	4.22888	-2.61751	0.815369	-1.80282	-0.643194
0.0780	2.18861	-42.6026	-1.36424	-4.97693	9.67607	12.1792	-11.7788	3.86867	-3.02481	-0.964791
0.0787	2.78013	-25.5139	-5.33228	-4.97693	7.54164	6.37151	-23.3725	35.3037	-3.02481	-0.964791
0.0793	3.07589	-44.7424	6.87256	-6.19849	6.35585	5.75127	-23.3725	77.7203	-2.11209	-0.643194
0.0800	0.0591517	-30.702	27.0135	-8.94396	6.35585	5.75127	-13.9072	68.5777	-1.50109	-0.321597
0.0807	-2.36607	-18.4958	31.8983	-1.62068	5.73924	-8.90883	-8.72504	6.92196	1.24462	-0.643194
0.0813	-0.887275	-32.2263	15.4174	10.5888	4.22142	-25.6552	-12.0829	-59.6087	3.99034	-0.643194
0.0820	-0.236607	-33.1433	5.95573	12.4212	-0.379454	-21.9902	-16.6569	-95.6063	1.85562	-0.643194
0.0827	-0.532365	-35.8902	8.39816	7.84336	5.12262	-1.57878	-15.4407	-86.7587	0.633627	-0.643194
0.0833	-0.532365	-35.2789	8.70621	2.34635	38.3722	4.84911	-8.11693	-39.4673	1.24462	-0.643194
0.0840	-0.236607	-24.9025	6.57184	-1.62068	76.2227	-7.33005	7.45595	17.6085	-0.279097	-0.643194
0.0847	0.35491	-32.2263	1.99502	-2.84223	82.3414	-15.9006	22.7116	38.6693	-2.72309	-0.964791
0.0853	0.0591517	-51.1491	-3.1979	-2.53382	65.2186	-22.6104	25.1572	18.528	-3.33408	-0.643194
0.0860	-1.18303	-38.0258	-4.41545	0.211656	43.2577	-16.5208	14.4756	-16.8799	-0.279097	-0.643194
0.0867	-2.72098	-26.7366	-4.11473	0.211656	18.8778	8.51414	8.97622	-44.6545	2.16489	-0.643194
0.0873	-2.72098	-44.4367	-1.06352	-2.84223	-3.13049	5.13104	25.4613	-44.0299	0.0226295	-0.643194
0.0880	-0.532365	-29.4835	0.161362	-3.75538	-21.1071	-24.1328	32.481	-35.4946	-3.94508	-0.964791
0.0887	0.650669	-21.2427	-3.1979	-4.05774	-35.4789	-14.6601	17.2121	-28.4685	-3.33408	-0.643194
0.0893	0.946427	-43.214	-1.6723	-3.44696	-47.3843	21.6518	1.95652	-11.3805	2.46662	-0.643194
0.0900	1.30134	-23.9896	0.770137	-0.701487	-55.0208	32.3086	-9.63721	6.31477	6.43433	-0.643194
0.0907	0.650669	-13.6132	-1.36424	0.211656	-48.0009	19.5092	-12.3869	15.7696	4.29961	-0.643194
0.0913	-0.887275	-45.9609	-2.58913	-3.1446	-17.1703	15.224	-9.0291	11.8142	-1.80282	-0.643194
0.0920	-1.18303	-46.2666	-2.28107	-7.72241	17.3126	28.3617	1.65247	4.18093	-7.60352	-0.643194
0.0927	-0.887275	-29.785	-1.97302	-7.42004	23.4313	34.1693	25.4613	6.01985	-8.51624	-0.643194
0.0933	-1.47879	-42.6026	-2.58913	-2.84223	9.10689	28.9819	30.6434	12.1091	-5.77053	-0.643194
0.0940	-1.77455	-38.9429	-6.85789	0.211656	-3.41508	24.9786	11.4219	5.10039	-3.94508	-0.643194
0.0947	-2.07031	-25.2082	-10.8259	1.43321	-9.20175	19.5092	-0.793186	-16.2727	-3.94508	-0.964791
0.0953	-2.36607	-43.5197	-11.134	-0.701487	-5.54951	22.554	-0.171857	-25.1203	-6.99252	-0.643194
0.0960	-2.36607	-52.0662	-10.5179	-7.72241	2.37158	33.5491	2.26058	-16.2727	-6.99252	-0.643194
0.0967	-1.47879	-27.0423	-2.28107	-14.4349	8.15825	35.9736	-3.83373	-8.93436	-2.11209	-0.643194
0.0973	-1.47879	-26.7366	9.01427	-10.4679	9.39148	31.4065	-12.995	-4.97895	1.85562	-0.321597
0.0980	-1.18303	-54.5074	0.469417	-1.0099	6.97246	22.8359	-13.9072	-4.37177	0.3319	-0.964791
0.0987	-1.47879	-66.1024	-20.8964	3.56791	5.40721	14.3218	-14.2112	-9.85382	-2.11209	-2.57278
0.0993	-1.47879	-69.155	-33.1012	8.7565	8.77486	4.84911	-12.0829	-7.71998	0.633627	-1.92958
0.1000	0.35491	-52.3719	-44.6973	10.5888	10.2927	-12.2355	-5.36722	0.520448	2.46662	-0.321597
0.1007	0.650669	-20.6313	-57.8263	5.09788	8.15825	-8.57052	-10.2453	4.4932	0.942897	-0.321597
0.1013	-1.47879	-26.7366	-20.2876	-0.0907096	2.08699	12.4611	-24.5888	3.86867	-0.279097	-0.643194
0.1020	-2.72098	-49.0136	52.648	-4.05774	-7.06732	14.3218	-28.8587	-1.92566	-2.41382	-0.643194
0.1027	-1.18303	-34.6675	58.1417	-9.85711	-10.1504	11.277	-15.4407	-11.0855	-3.94508	-0.643194
0.1033	-0.887275	-22.4612	12.975	-15.6565	-7.68393	7.61198	1.95652	-23.5937	-3.02481	-0.321597
0.1040	-2.72098	-34.366	-10.2171	-16.878	-7.39934	-7.04813	7.76	-23.5937	-0.890094	-0.643194
0.1047	-3.90401	-22.7669	-9.90909	-17.1804	-11.3362	-12.2355	1.04436	-3.14004	0.0226295	-0.643194
0.1053	-2.36607	-27.0423	4.73818	-17.1804	-8.63257	-8.57052	0.132198	12.7336	0.0226295	-0.643194
0.1060	0.35491	-41.0784	19.0847	-14.7433	2.37158	-16.1825	23.9278	14.5552	3.07761	-0.643194
0.1067	0.0591517	-23.9896	27.3215	-2.23146	1.47038	-22.6104	47.7366	13.0286	6.43433	-0.643194
0.1073	-1.47879	-23.0726	27.0135	17.6098	39.3209	-7.04813	37.6631	9.36807	7.65632	-0.321597
0.1080	-1.77455	-41.0784	12.0655	20.3552	127.496	16.1261	11.7259	3.57374	6.12506	-0.643194
0.1087	-1.77455	-36.1959	-5.94106	8.7565	169.284	19.7911	-4.45506	6.62704	4.29961	-0.964791
0.1093	-2.72098	-28.2608	-13.8771	3.87632	150.691	5.13104	-5.97533	13.948	4.91061	-0.321597
0.1100	-3.31249	-44.131	-10.5179	3.87632	103.686	3.60864	-0.489131	6.92196	5.5216	0
0.1107	-2.07031	-36.1959	-0.755468	3.26555	42.3565	18.6071	1.34842	-4.66669	4.60134	-0.321597
0.1113	-1.77455	-20.3257	2.90452	2.95713	0.853771	17.0283	-0.793186	-6.5056	2.46662	-0.643194
0.1120	-2.07031	-42.297	-5.33228	0.822434	-19.9213	3.60864	-2.0094	-2.22058	0.3319	-0.643194
0.1127	-1.77455	-49.9264	-1.06352	-1.92304	-35.4789	2.08625	3.49002	4.18093	0.0226295	-0.643194
0.1133	-0.887275	-27.6494	15.1167	-2.84223	-34.2457	2.42456	12.6381	9.0558	-1.19182	-0.643194
0.1140	0.0591517	-27.0423	12.975	-3.75538	-27.8424	10.3185	17.5162	11.5019	-2.41382	-0.964791
0.1147	0.0591517	-34.0603	-0.146693	-1.92304	-35.1469	36.2556	10.1924	13.948	-0.588368	-0.321597
0.1153	-1.47879	-25.5139	-5.64034	0.822434	-32.3958	50.6338	-1.70535	16.0819	1.24462	-0.321597
0.1160	-2.36607	-21.8541	-4.41545	0.822434	-23.8581	23.4562	-4.75911	19.4474	2.16489	-0.643194
0.1167	-3.31249	-28.5665	-5.02423	0.822434	-33.9611	-40.5972	-3.83373	21.8762	3.07761	-0.964791
0.1173	-4.55468	-33.7547	-7.46666	2.65477	-54.4042	-90.3852	-4.15101	17.0013	2.76834	-0.643194
0.1180	-3.01674	-34.6675	-6.85789	1.73558	-83.0529	-94.9524	-4.75911	10.5824	1.24462	-0.643194
0.1187	-0.887275	-47.7908	0.161362	-0.399122	-98.6579	-75.7251	-7.49561	4.4932	1.24462	-0.643194
0.1193	0.35491	-40.4671	6.26378	-0.399122	-74.8472	-54.0732	-4.75911	-6.19333	2.16489	-0.643194
0.1200	0.0591517	-17.273	3.52063	-1.31227	-37.6133	-38.511	4.40218	-16.5676	1.24462	-0.643194
0.1207	-0.236607	-26.1252	0.770137	-3.75538	-15.3204	-17.423	7.45595	-19.326	-1.50109	-0.643194
0.1213	-0.532365	-33.1433	-1.06352	-5.89008	-6.78273	4.56719	1.65247	-13.8266	-5.77053	-0.643194
0.1220	-0.887275	-28.8721	-3.80668	-5.2793	-2.79847	14.942	-4.45506	-7.11279	-6.99252	-0.964791
0.1227	-1.18303	-40.1614	-2.88985	-0.701487	9.67607	28.0234	-6.58344	-3.45231	-3.33408	-0.643194
0.1233	-0.887275	-36.8073	-1.36424	2.34635	43.8743	35.6917	-6.8875	-1.0062	0.633627	-0.643194
0.1240	-1.47879	-32.8376	-1.97302	-0.701487	81.1082	19.5092	-1.70535	2.0471	1.24462	-0.643194
0.1247	-2.07031	-41.3841	-4.11473	-1.92304	96.9978	-6.14597	11.1178	2.34202	-0.279097	-0.643194
0.1253	-2.07031	-27.9551	-6.24911	3.87632	89.3613	-21.088	20.874	1.12764	-1.80282	-0.643194
0.1260	-2.36607	-24.5968	-5.02423	6.31339	61.2817	-28.4181	22.7116	1.73483	-2.41382	-0.643194
0.1267	-1.77455	-38.6372	-2.58913	-0.399122	22.8146	-32.365	17.5162	3.57374	-3.02481	-0.643194
0.1273	-1.47879	-10.8663	-2.58913	-8.02477	-2.18186	-22.9487	8.67216	3.26148	-2.72309	-0.321597
0.1280	-3.31249	0.427115	-5.33228	-11.9979	-17.1703	5.75127	5.01029	1.43991	-3.94508	-0.964791
0.1287	-3.90401	-70.072	-6.85789	-10.7763	-35.1469	42.4015	5.6184	-1.92566	-7.30179	-2.25118
0.1293	-1.47879	-94.4846	-4.11473	-4.36615	-43.1154	64.9555	5.6184	-2.53285	-6.0798	-2.25118
0.1300	-0.532365	-33.449	-1.6723	-1.31227	-43.6846	59.4862	8.67216	2.0471	-2.72309	-0.321597
0.1307	-2.07031	-32.5319	-2.28107	-0.701487	-41.2656	48.4911	1.95652	2.34202	-1.50109	-0.964791
0.1313	-2.36607	-85.9381	-2.88985	3.26555	-44.3012	50.9157	-21.2309	-1.61339	2.16489	-2.25118
0.1320	-1.18303	-73.1204	-4.11473	5.40024	-56.5386	48.4911	-30.6963	-0.693931	5.82333	-1.28639
0.1327	-0.887275	-46.2666	-4.11473	2.65477	-61.9932	36.2556	-20.6228	2.0471	6.43433	-0.321597
0.1333	-0.887275	-44.7424	-3.49862	0.822434	-55.0208	21.6518	-13.2991	2.0471	5.82333	-0.964791
0.1340	-1.18303	-29.1778	-3.80668	1.73558	-42.1668	-4.62357	-9.94126	3.57374	4.29961	-0.964791
0.1347	-1.77455	-31.3134	-3.49862	1.1248	-38.2299	-40.3153	-6.8875	4.4932	-0.890094	-0.643194
0.1353	-1.77455	-44.131	-6.24911	-0.399122	-36.3801	-68.395	-6.27939	0.815369	-4.55608	-0.321597
0.1360	-0.532365	-34.366	-8.99227	1.1248	-27.8424	-74.2027	-9.33315	3.26148	-3.02481	-0.321597
0.1367	0.650669	-22.1556	-9.30032	2.04399	-23.8581	-52.8328	-17.5691	9.68034	-0.588368	-0.643194
0.1373	0.650669	-13.6132	-12.0435	2.34635	-24.8068	-26.8957	-19.4066	10.5824	0.3319	-0.643194
0.1380	0.0591517	-7.8137	-13.8771	3.26555	-25.9926	-18.3251	-14.2112	6.62704	0.3319	-0.643194
0.1387	-1.18303	-28.8721	-3.1979	-1.0099	-23.8581	-18.3251	-9.63721	2.65429	-3.63581	-0.643194
0.1393	-1.77455	-45.3496	6.87256	-7.11163	-8.91716	-17.141	-2.31346	1.73483	-6.0798	-0.643194
0.1400	-0.887275	-33.1433	1.07819	-6.80927	16.696	-15.6187	2.26058	2.65429	-4.24681	-0.643194
0.1407	0.0591517	-35.8902	-1.97302	-8.02477	35.6212	-13.476	9.58433	4.18093	-4.55608	-0.643194
0.1413	0.0591517	-37.113	-1.6723	-16.2673	37.7556	-11.9536	24.5359	3.26148	-8.21452	-0.643194
0.1420	-1.18303	-19.1071	-5.33228	-15.3541	26.7989	-7.66836	27.8937	1.43991	-7.60352	-0.643194
0.1427	-2.36607	-33.7547	-1.6723	-3.1446	28.0321	14.6037	15.3878	3.26148	-2.11209	-0.321597
0.1433	-2.36607	-45.0439	4.73818	0.211656	49.661	38.7365	-0.793186	5.39531	0.633627	-0.643194
0.1440	-2.72098	-19.1071	4.73818	-1.31227	54.5465	35.3534	-11.1575	2.34202	1.55389	-0.964791
0.1447	-3.31249	-26.1252	-0.146693	0.822434	39.3209	10.9387	-13.6031	-4.0595	4.29961	-0.643194
0.1453	-3.01674	-50.5378	-6.24911	1.73558	26.4669	-12.5739	-2.61751	-5.89841	4.29961	-0.321597
0.1460	-2.36607	-40.4671	-8.99227	2.04399	8.77486	-21.088	8.97622	-4.66669	3.99034	-0.643194
0.1467	-1.47879	-25.2082	-6.54983	3.56791	-12.9014	-13.476	6.53056	-3.45231	6.43433	-0.643194
0.1473	-0.532365	-21.5484	-2.58913	2.95713	-20.4905	6.65343	1.65247	-2.22058	5.5216	-0.964791
0.1480	-0.236607	-18.1901	-1.06352	1.1248	-25.376	24.3583	-3.52968	-1.92566	2.16489	-0.643194
0.1487	-0.532365	-30.702	-1.6723	1.1248	-36.9967	30.166	-12.691	-1.61339	1.85562	-0.643194
0.1493	-1.47879	-49.3192	-0.146693	-2.53382	-39.4157	43.0218	-14.8326	-0.693931	3.07761	-0.643194
0.1500	-1.47879	-38.3315	1.07819	-8.02477	-41.5502	61.6288	-9.94126	0.815369	3.07761	-0.643194
0.1507	-0.532365	-32.8376	-0.447413	-1.62068	-41.2656	65.2939	-7.49561	4.4932	3.07761	-0.643194
0.1513	-0.532365	-45.3496	-3.1979	7.53494	-27.8424	58.2457	-6.58344	4.4932	3.68861	-0.643194
0.1520	-0.532365	-31.3134	-5.64034	6.6218	-16.2216	50.6338	-3.22562	1.73483	1.55389	-0.643194
0.1527	-0.532365	-27.6494	-4.11473	3.56791	-10.435	38.1163	-1.40129	4.4932	0.3319	-0.643194
0.1533	-0.887275	-43.214	-1.6723	2.65477	-10.435	-10.7132	-6.58344	12.7336	1.85562	-0.643194
0.1540	0.35491	-32.2263	-1.36424	2.04399	-16.2216	-87.3404	-12.995	23.7151	1.55389	-0.643194
0.1547	1.5971	-27.9551	-2.88985	0.211656	-20.8225	-117.845	-14.2112	31.6433	-2.11209	-0.643194
0.1553	0.946427	-50.2321	-5.02423	-3.44696	-19.5893	-75.1049	-10.8534	24.01	-5.77053	-0.643194
0.1560	-0.236607	-48.7079	-3.49862	-2.53382	-7.39934	2.08625	-1.70535	0.815369	-4.8578	-0.643194
0.1567	-2.36607	-25.5139	-1.06352	2.04399	-5.88153	53.9605	17.8335	-18.7014	-3.33408	-0.643194
0.1573	-4.19977	-25.8195	-1.97302	3.26555	-5.26492	76.5709	32.1769	-21.1475	-4.8578	-0.643194
0.1580	-3.90401	-30.3964	-3.49862	2.95713	72.8551	89.7086	23.3197	-14.1215	-7.30179	-0.643194
0.1587	-3.01674	-24.9025	-5.64034	1.73558	183.324	100.365	8.06406	-9.5589	-10.9602	-0.643194
0.1593	-2.72098	-34.366	-4.72351	-1.62068	225.775	120.495	4.09813	-8.32717	-10.6585	-0.643194
0.1600	-2.07031	-39.8557	-1.97302	-8.33319	221.506	144.628	3.17274	-8.32717	-3.33408	-0.964791
0.1607	-1.47879	-25.2082	-1.97302	-13.8241	174.786	172.707	3.17274	-5.89841	2.76834	-0.643194
0.1613	-1.47879	-42.9083	-4.72351	-14.1326	81.3928	209.921	-1.40129	-6.80052	0.942897	-1.60799
0.1620	-1.47879	-93.2619	-4.41545	-11.3871	-12.5694	214.827	-9.94126	-11.3805	-3.63581	-2.57278
0.1627	-0.887275	-69.155	0.770137	-7.72241	-98.3259	137.918	1.65247	-7.71998	-2.41382	-1.28639
0.1633	-1.47879	-25.2082	2.90452	-5.2793	-160.272	33.2108	19.9618	-2.22058	0.942897	-0.643194
0.1640	-1.77455	-29.785	0.770137	-2.53382	-150.216	-135.211	22.7116	-1.92566	2.16489	-0.643194
0.1647	-1.47879	-25.2082	-1.97302	-1.92304	-100.792	-391.256	22.1034	-2.84512	0.633627	-0.964791
0.1653	-1.47879	-40.4671	-4.41545	-2.23146	-69.6297	-432.473	19.0497	-3.45231	-1.80282	-0.964791
0.1660	-1.47879	-54.5074	-3.1979	2.95713	-46.151	-261.852	7.76	-2.22058	-1.19182	-0.643194
0.1667	-0.887275	-26.1252	-1.36424	-1.31227	-28.127	-161.148	-2.92157	-0.0867414	-2.72309	-0.321597
0.1673	-1.18303	-23.0726	-2.58913	-12.911	-20.4905	-90.0469	-10.8534	0.815369	-4.55608	-0.321597
0.1680	-1.47879	-48.4022	-4.11473	-9.85711	-14.7038	-7.95029	-27.0344	0.520448	-0.588368	-0.643194
0.1687	-0.532365	-33.449	-4.41545	-1.62068	-25.0914	18.2687	-33.7501	-0.39901	2.76834	-0.643194
0.1693	-0.532365	-27.6494	-2.58913	-0.0907096	-40.649	-2.76287	-11.7788	1.12764	3.99034	-0.643194
0.1700	-1.18303	-47.1837	-0.447413	4.17869	-42.4988	-36.3683	4.40218	2.34202	7.04532	-0.643194
0.1707	-1.18303	-27.9551	-0.146693	8.7565	-51.0365	-64.73	-4.45506	2.34202	6.73605	-0.643194
0.1713	-1.47879	-26.4309	-1.97302	6.6218	-64.7443	-83.3371	-16.6569	0.520448	4.29961	-0.643194
0.1720	-1.47879	-50.2321	-4.11473	3.87632	-58.341	-67.7748	-20.6228	-2.53285	3.68861	-0.643194
0.1727	-1.77455	-44.4367	-2.88985	1.43321	-33.0125	-17.7613	-14.8326	-2.53285	3.07761	-0.643194
0.1733	-1.77455	-32.5319	-0.755468	-1.92304	-7.39934	27.1212	-14.2112	-0.39901	2.46662	-0.643194
0.1740	-1.77455	-31.0077	-1.6723	-2.23146	0.521749	41.7813	-25.8182	0.815369	3.07761	-0.643194
0.1747	-1.47879	-23.3783	-5.02423	-0.399122	-7.06732	24.3583	-27.6425	-0.0867414	2.16489	-0.321597
0.1753	-1.77455	-34.0603	-8.99227	1.73558	-11.3362	5.46935	-24.5888	-1.61339	2.76834	-0.643194
0.1760	-1.47879	-50.5378	-10.8259	5.09788	-9.53377	9.75461	-25.5009	-0.693931	7.95805	-0.643194
0.1767	0.35491	-29.4835	-8.99227	6.01102	-5.88153	21.3135	-23.3725	0.815369	9.48931	-0.643194
0.1773	0.946427	-20.3257	-7.77472	2.95713	1.47038	21.9338	-17.5691	-0.0867414	5.21233	-0.643194
0.1780	0.35491	-46.878	-9.60837	-0.701487	5.40721	11.277	-13.6031	-1.31847	-0.279097	-0.643194
0.1787	-0.887275	-41.3841	-8.07544	-3.75538	1.75497	-3.10118	-11.7788	-1.92566	-3.02481	-0.643194
0.1793	-2.36607	-20.6313	2.90452	-3.1446	-2.51388	-16.5208	-4.15101	-0.693931	-0.588368	-0.643194
0.1800	-2.36607	-37.113	7.78938	1.1248	-3.13049	-22.3285	8.36811	1.12764	2.16489	-0.643194
0.1807	-0.887275	-38.3315	-0.146693	2.04399	-1.61268	-6.14597	14.4756	2.96655	0.0226295	-0.643194
0.1813	-0.236607	-27.3437	-9.30032	2.34635	2.37158	19.7911	3.79407	2.96655	-1.80282	-0.643194
0.1820	-2.07031	-46.2666	-9.30032	4.17869	18.5458	28.9819	-4.15101	3.26148	-2.41382	-0.643194
0.1827	-3.60825	-49.0136	5.95573	4.78947	41.7399	27.1212	18.7456	6.62704	-4.24681	-0.643194
0.1833	-2.36607	-31.3134	15.1167	4.78947	53.6452	31.6884	42.2371	5.10039	-6.38152	-0.321597
0.1840	-0.532365	-36.8073	7.18061	2.34635	54.2619	58.2457	33.0891	-4.66669	-5.4688	-0.643194
0.1847	-0.532365	-29.1778	-4.11473	-5.89008	48.1432	85.7052	10.5097	-16.2727	-4.24681	-0.643194
0.1853	-0.887275	-27.9551	-18.4539	-10.4679	33.4868	78.0933	1.65247	-21.4598	-2.72309	-0.643194
0.1860	-0.236607	-52.0662	-25.4732	-4.97693	16.696	60.6703	10.1924	-15.3532	1.24462	-0.643194
0.1867	-0.236607	-42.6026	-11.134	-0.0907096	5.40721	56.4414	19.0497	-0.693931	4.29961	-0.964791
0.1873	-0.887275	-24.9025	9.01427	2.95713	1.47038	37.8344	17.8335	28.9022	3.37934	-0.643194
0.1880	-0.532365	-40.4671	10.8406	4.4871	-11.3362	-25.3733	10.8138	71.631	0.633627	-0.321597
0.1887	-0.236607	-68.5436	0.469417	0.520068	-36.6647	-116.943	5.01029	90.2457	-2.41382	-2.25118
0.1893	0.946427	-70.072	7.18061	-4.66852	-42.7834	-158.104	6.84784	62.4711	-1.80282	-2.25118
0.1900	0.35491	-47.1837	21.2191	-7.11163	-24.1902	-120.889	11.4219	9.68034	-1.80282	-0.643194
0.1907	-1.18303	-31.9248	23.6615	-5.58771	-4.64831	-71.4398	9.88838	-35.4946	-3.02481	-0.643194
0.1913	-0.887275	-26.7366	21.5198	-1.92304	2.70361	-44.6006	5.6184	-48.0027	-1.19182	-0.964791
0.1920	-1.47879	-36.5016	10.5399	-3.44696	-0.664044	-30.2224	-2.92157	-37.6284	1.24462	-0.643194
0.1927	-2.36607	-46.2666	-5.33228	-5.58771	-3.41508	-19.8475	-8.42099	-27.8613	2.76834	-0.643194
0.1933	-1.77455	-33.7547	-6.54983	-4.05774	-2.51388	-13.476	-6.27939	-23.2814	0.942897	-0.643194
0.1940	-1.47879	-38.3315	-0.146693	-2.53382	-3.13049	-13.1377	-8.11693	-17.4871	-1.80282	-0.643194
0.1947	-1.47879	-34.6675	-1.06352	-0.399122	-4.9329	-15.9006	-12.3869	1.73483	0.0226295	-0.321597
0.1953	-1.77455	-22.4612	-4.11473	3.87632	-2.18186	-16.8027	-14.2112	20.3495	3.07761	-0.643194
0.1960	-1.18303	-41.3841	-1.97302	7.23258	4.22142	-12.5739	-15.7447	16.3941	4.91061	-0.643194
0.1967	-0.236607	-42.297	1.07819	5.09788	6.35585	-12.8558	-10.8534	2.34202	4.91061	-0.643194
0.1973	0.35491	-25.8195	0.469417	0.822434	3.8894	-22.9487	2.56463	-11.0855	2.16489	-0.643194
0.1980	0.0591517	-35.5846	-2.88985	-4.05774	4.83803	-21.9902	10.5097	-19.9332	-1.50109	-0.643194
0.1987	-0.532365	-47.7908	-9.60837	-10.1655	10.0081	-0.958545	11.1178	-19.6209	-4.8578	-0.643194
0.1993	-1.18303	-27.0423	-16.3196	-11.9979	18.5458	18.6071	15.6919	-14.746	-6.69079	-0.643194
0.2000	-2.07031	-17.8844	-16.9283	-7.11163	26.1823	19.5092	14.7797	-10.7733	-5.15953	-0.964791
0.2007	-3.01674	-32.2263	-16.0115	0.211656	28.0321	11.277	9.58433	-9.24663	-3.94508	-0.964791
0.2013	-3.60825	-27.6494	-16.6203	2.95713	26.4669	1.18409	6.84784	-8.32717	-4.24681	-0.964791
0.2020	-4.19977	-27.0423	3.82135	-1.0099	20.3956	1.80432	5.01029	-7.71998	-3.94508	-0.643194
0.2027	-3.31249	-44.131	27.6296	-4.05774	7.25705	21.9338	3.17274	-7.71998	-0.890094	-0.643194
0.2033	-1.77455	-37.4145	16.3342	-2.23146	8.15825	40.5408	-3.22562	-4.66669	3.07761	-0.643194
0.2040	-2.72098	-32.5319	-0.447413	-1.0099	36.8544	44.8261	-12.995	-0.693931	4.91061	-0.643194
0.2047	-2.72098	-38.6372	-2.88985	-3.44696	59.7639	39.3567	-20.9269	3.86867	3.99034	-0.643194
0.2053	-1.18303	-24.2953	-5.94106	-8.02477	56.3963	38.7365	-20.3188	23.7151	0.0226295	-0.964791
0.2060	-0.532365	-33.449	-5.94106	-12.911	44.7755	40.8791	-4.75911	49.0436	-4.24681	-0.643194
0.2067	0.0591517	-44.131	-0.146693	-15.3541	28.3167	16.4644	14.4756	51.7846	-4.55608	-0.643194
0.2073	1.30134	-33.449	2.29574	-12.6026	-0.379454	-39.6951	20.2659	28.59	-1.80282	-0.643194
0.2080	1.89285	-34.0603	-2.28107	-8.63555	-24.4748	-68.395	11.4219	-11.3805	-1.50109	-0.643194
0.2087	1.89285	-49.6249	-3.1979	-11.9979	-38.8466	-32.365	-2.61751	-40.6817	-3.02481	-0.964791
0.2093	0.946427	-46.5723	5.34695	-9.85711	-48.2855	21.0316	-17.5691	-37.6284	-1.19182	-0.643194
0.2100	0.0591517	-34.9732	9.92376	8.14572	4.50601	47.2506	-23.6766	-19.9332	1.55389	-0.643194
0.2107	-0.887275	-45.3496	5.04623	19.436	110.421	32.0267	-15.4407	-5.89841	1.55389	-0.964791
0.2113	-0.887275	-35.5846	-1.06352	14.8582	163.829	-4.9055	-12.691	0.520448	0.942897	-0.643194
0.2120	-0.532365	-23.0726	-4.11473	8.14572	176.019	-16.1825	-13.6031	-3.14004	0.633627	-0.643194
0.2127	-0.887275	-45.9609	-2.28107	1.43321	175.402	-3.10118	1.95652	-14.4338	-0.279097	-0.643194
0.2133	-1.77455	-45.0439	-0.146693	-2.53382	113.172	-0.620235	14.4756	-22.6742	-2.11209	-0.643194
0.2140	-2.07031	-25.2082	-0.146693	-1.0099	10.9093	-11.3334	4.40218	-20.8353	-3.33408	-0.643194
0.2147	-1.77455	-34.6675	-1.97302	-2.53382	-76.6496	-15.2803	-4.75911	-14.4338	-4.24681	-0.643194
0.2153	-1.18303	-34.6675	-4.41545	-5.2793	-131.006	-7.95029	-6.27939	-9.85382	-3.63581	-0.964791
0.2160	-0.887275	-29.1778	-3.80668	-3.44696	-128.54	-5.24381	-9.33315	-5.89841	0.942897	-0.964791
0.2167	-0.532365	-28.8721	-1.36424	-2.53382	-97.7093	-7.33005	-6.8875	-4.37177	3.37934	-0.964791
0.2173	-0.887275	-30.702	-0.146693	2.34635	-84.9027	-8.90883	-3.52968	-3.45231	4.29961	0
0.2180	-1.18303	-38.6372	-1.97302	10.2804	-59.5742	-20.1858	-7.81288	-3.45231	3.68861	-1.28639
0.2187	-1.77455	-71.5962	-2.88985	6.31339	-25.708	-32.365	-12.995	-6.80052	-0.890094	-2.89437
0.2193	-1.18303	-92.0433	0.161362	-0.0907096	-17.7869	-26.5573	-8.11693	-4.97895	-2.41382	-1.60799
0.2200	-0.236607	-40.1614	0.161362	1.1248	-27.8424	-10.0929	-0.489131	-0.0867414	0.0226295	-0.321597
0.2207	-1.77455	-24.5968	-5.64034	-1.31227	-40.3644	3.32672	6.22651	-0.0867414	-3.02481	-0.643194
0.2213	-2.07031	-36.1959	-8.69155	-8.02477	-48.9021	11.5589	17.2121	-1.61339	-7.30179	-0.964791
0.2220	-1.18303	-21.2427	-6.85789	-8.94396	-51.6531	28.6436	16.3	-3.74723	-6.69079	-0.643194
0.2227	-0.236607	-35.8902	-1.97302	-3.1446	-51.9377	47.8709	8.97622	-3.14004	-4.24681	-0.643194
0.2233	0.35491	-37.7201	0.770137	2.65477	-49.5187	48.2092	10.1924	-1.31847	-1.19182	-0.643194
0.2240	-0.236607	-22.7669	0.161362	3.87632	-45.2498	33.5491	9.88838	-0.39901	0.942897	-0.643194
0.2247	-0.887275	-38.6372	-1.36424	2.04399	-50.7045	11.8409	5.01029	-0.0867414	2.16489	-0.321597
0.2253	-1.18303	-39.8557	-4.11473	3.56791	-60.8074	-9.19076	6.22651	-1.31847	4.60134	-0.321597
0.2260	-1.47879	-27.0423	-4.11473	5.40024	-51.6531	-2.76287	15.9959	-0.39901	7.04532	-0.643194
0.2267	-1.77455	-42.297	-1.06352	-1.92304	-29.6448	15.5059	19.0497	1.43991	4.91061	-0.643194
0.2273	-1.77455	-39.2485	-0.447413	-8.63555	-21.4391	-1.24047	9.58433	1.12764	2.16489	-0.643194
0.2280	-1.47879	-9.94927	-3.1979	-7.11163	-29.3602	-14.0963	-3.52968	-0.39901	3.68861	-0.964791
0.2287	-0.887275	-28.5665	-6.24911	-4.97693	-37.6133	2.70648	-12.691	-1.92566	3.37934	-0.964791
0.2293	-0.236607	-48.0965	-4.72351	-3.44696	-30.5934	9.4163	-13.6031	-0.39901	2.76834	-0.643194
0.2300	0.0591517	-24.5968	-1.97302	-1.0099	-15.3204	4.84911	-9.63721	2.0471	2.76834	-0.643194
0.2307	-0.236607	-27.0423	-1.36424	-1.0099	-9.53377	3.32672	-5.06317	2.65429	1.55389	-0.643194
0.2313	-0.887275	-38.6372	-2.28107	-3.44696	-10.435	3.94695	-3.22562	1.73483	-0.279097	-0.643194
0.2320	-1.47879	-26.1252	-4.72351	-4.66852	-9.53377	3.04479	-7.19155	-2.22058	-1.19182	-0.321597
0.2327	-1.77455	-30.3964	-4.72351	-2.23146	-6.49814	-2.48094	-4.15101	-2.84512	-0.588368	-0.643194
0.2333	-1.77455	-40.7728	-1.6723	-2.23146	-3.13049	-7.33005	11.4219	2.0471	0.0226295	-0.964791
0.2340	-1.18303	-29.785	-0.146693	-4.97693	-2.51388	-1.86071	17.2121	5.10039	1.55389	-0.964791
0.2347	-0.532365	-35.5846	-1.6723	-2.53382	-5.26492	7.8939	7.15189	3.26148	2.46662	-0.643194
0.2353	-0.887275	-48.4022	-4.41545	2.65477	-5.88153	10.3185	0.740307	0.520448	0.3319	-0.643194
0.2360	-1.18303	-37.113	-4.41545	2.65477	-4.64831	10.6568	6.22651	0.815369	-1.80282	-0.643194
0.2367	-0.532365	-24.9025	-1.36424	1.1248	5.73924	11.5589	11.7259	3.57374	-0.588368	-0.643194
0.2373	-0.236607	-24.9025	-0.146693	-2.23146	38.0877	6.08958	12.334	4.4932	-0.890094	-0.643194
0.2380	-0.532365	-18.4958	-1.97302	-9.55474	66.7838	-0.33831	14.4756	2.96655	-4.8578	-0.964791
0.2387	-0.887275	-26.7366	-4.11473	-8.63555	69.8195	5.46935	12.6381	1.12764	-3.94508	-0.964791
0.2393	-1.47879	-45.9609	-3.1979	-1.0099	56.6809	24.3583	5.31434	1.43991	-0.279097	-0.643194
0.2400	-2.07031	-30.0907	-1.36424	0.211656	32.8702	40.2589	1.65247	2.34202	-0.279097	-0.321597
0.2407	-2.36607	-29.785	-1.06352	-2.53382	6.35585	42.6835	-1.40129	2.34202	-1.19182	-0.321597
0.2413	-2.36607	-53.2847	-1.6723	-0.701487	-13.8026	32.6469	-13.9072	2.0471	0.942897	-0.643194
0.2420	-1.47879	-36.1959	-2.88985	1.73558	-27.8424	20.4114	-27.9466	1.12764	3.07761	-0.643194
0.2427	-1.47879	-21.8541	-2.28107	-0.399122	-32.1113	-6.14597	-20.3188	1.12764	1.24462	-0.643194
0.2433	-1.77455	-42.9083	-1.6723	-3.1446	-27.2258	-60.7831	-3.22562	3.26148	-0.890094	-0.643194
0.2440	-1.47879	-40.1614	-2.28107	-1.0099	-23.5736	-83.0551	-6.27939	3.86867	0.942897	-0.643194
0.2447	-2.07031	-28.2608	-2.58913	2.04399	-22.9569	-54.6371	-21.8391	2.34202	1.55389	-0.643194
0.2453	-2.07031	-39.5542	-3.1979	2.04399	-13.8026	-25.035	-29.7841	1.12764	-1.19182	-0.643194
0.2460	-1.77455	-37.7201	-2.58913	-1.0099	4.22142	-5.52573	-15.7447	3.26148	-2.41382	-0.643194
0.2467	-1.77455	-31.0077	-1.36424	-3.75538	13.3757	0.90216	4.70624	4.78812	-1.50109	-0.964791
0.2473	-0.532365	-30.3964	-1.36424	-4.05774	4.50601	-12.5739	6.84784	3.86867	-0.279097	-0.643194
0.2480	-0.887275	-9.3421	-2.58913	-4.36615	-13.4706	-39.0748	5.01029	2.0471	0.0226295	-0.964791
0.2487	-3.31249	-43.214	-3.80668	-3.44696	-22.3403	-64.1098	12.9421	-3.45231	-0.890094	-2.25118
0.2493	-2.07031	-95.7031	-1.06352	2.95713	-16.5537	-68.1131	14.7797	-4.37177	-0.279097	-2.25118
0.2500	0.35491	-52.0662	1.68697	4.17869	-8.63257	-44.8825	9.28027	0.815369	-0.588368	-0.643194
0.2507	0.35491	-11.7834	0.770137	-3.44696	-3.7471	-1.86071	10.1924	3.26148	-4.8578	-0.643194
0.2513	-0.887275	-40.7728	-1.97302	-5.89008	-1.28066	28.6436	7.76	2.65429	-5.4688	-0.964791
0.2520	-1.47879	-46.5723	-4.72351	-0.701487	-0.0474317	31.4065	-4.75911	1.43991	1.55389	-0.643194
0.2527	-1.18303	-24.2953	-3.80668	3.87632	1.47038	30.5043	-9.63721	2.0471	7.65632	-0.643194
0.2533	-1.18303	-39.2485	-0.447413	3.56791	-3.7471	24.9786	-6.27939	2.96655	5.82333	-0.321597
0.2540	-2.07031	-41.6898	1.37891	1.73558	-9.20175	10.0365	-8.42099	4.18093	2.76834	-0.643194
0.2547	-2.36607	-19.7143	-0.146693	0.822434	-3.7471	-3.3831	-12.0829	3.86867	2.76834	-0.964791
0.2553	-1.77455	-36.1959	-4.11473	0.520068	4.83803	-1.57878	-16.6569	0.208179	2.16489	-0.643194
0.2560	-0.887275	-50.8435	-3.49862	1.43321	8.49027	21.6518	-23.0685	1.73483	1.24462	-0.643194
0.2567	-0.236607	-30.0907	-1.06352	4.17869	6.35585	33.5491	-21.8391	6.31477	1.85562	-0.643194
0.2573	-0.532365	-19.4128	-4.11473	5.09788	1.47038	22.8359	-12.995	5.70758	2.76834	-0.321597
0.2580	-1.18303	-28.5665	-8.99227	3.26555	-0.0474317	19.7911	-5.67128	1.73483	0.3319	-1.60799
0.2587	-1.47879	-51.1491	-9.60837	1.1248	11.2413	21.6518	-3.52968	-1.92566	-4.24681	-1.92958
0.2593	-1.47879	-54.5074	-8.07544	-1.92304	34.4354	21.9338	-3.52968	-0.693931	-5.15953	-0.643194
0.2600	-1.47879	-31.6191	-5.64034	-5.89008	56.0643	37.496	-3.52968	1.73483	-4.24681	-0.643194
0.2607	-1.47879	-27.0423	1.37891	-5.89008	83.8592	50.2954	-3.22562	2.34202	-3.94508	-0.964791
0.2613	-1.18303	-40.4671	5.65501	-4.36615	110.706	47.8709	-1.70535	2.34202	-4.55608	-0.643194
0.2620	-0.887275	-43.8254	1.37891	-8.94396	114.073	59.1479	15.0837	-0.693931	-6.69079	-0.643194
0.2627	-0.532365	-30.3964	1.07819	-14.4349	101.267	84.1828	36.1428	-0.693931	-7.30179	-0.964791
0.2633	0.0591517	-32.2263	6.26378	-13.8241	74.0883	85.4233	28.1978	4.18093	-5.15953	-0.643194
0.2640	-0.887275	-41.9955	4.43012	-12.6026	30.7357	43.3037	8.36811	3.26148	-2.41382	-0.643194
0.2647	-1.77455	-27.3437	-0.447413	-8.63555	-11.0516	-31.4628	2.26058	-1.31847	2.16489	-0.643194
0.2653	-1.47879	-23.9896	-2.88985	2.65477	-40.649	-97.3769	1.65247	-4.66669	6.73605	-0.321597
0.2660	-1.18303	-44.131	-3.80668	8.45413	-63.2265	-115.702	1.65247	-4.66669	5.21233	-0.643194
0.2667	-0.887275	-40.4671	-1.97302	3.56791	-73.3294	-110.797	-1.40129	-1.61339	1.55389	-0.643194
0.2673	-0.887275	-22.7669	-0.447413	1.73558	-60.4754	-111.135	-5.97533	-0.39901	0.942897	-0.643194
0.2680	-0.887275	-15.4431	-2.28107	5.09788	-36.6647	-88.5245	-4.15101	-0.39901	3.07761	-0.643194
0.2687	-1.18303	-17.273	-5.33228	6.92416	-22.6723	-21.9902	-3.52968	-1.92566	5.21233	-0.643194
0.2693	-2.07031	-42.6026	-2.88985	7.23258	-18.9727	29.2638	-6.27939	-2.22058	5.82333	-0.643194
0.2700	-1.47879	-47.1837	1.99502	4.17869	-16.2216	18.2687	-4.45506	-0.39901	3.37934	-0.964791
0.2707	-1.18303	-22.4612	2.6038	-1.31227	-12.9014	-4.9055	-1.09724	-0.0867414	-2.11209	-0.964791
0.2713	-2.07031	-35.5846	-0.146693	-4.66852	-13.186	-6.14597	-4.75911	-3.45231	-6.69079	-0.643194
0.2720	-1.47879	-43.8254	-3.49862	-6.19849	-20.8225	-7.95029	-18.4944	-2.22058	-6.69079	-0.643194
0.2727	-0.532365	-29.4835	-4.41545	-4.36615	-26.3246	-16.1825	-21.8391	2.65429	-3.02481	-0.964791
0.2733	-0.236607	-41.9955	-3.1979	-1.62068	-26.6092	-16.8027	-10.5494	3.26148	-1.50109	-0.964791
0.2740	0.35491	-41.3841	-3.1979	-1.0099	-26.6092	-19.2837	-0.489131	2.65429	-1.80282	-0.643194
0.2747	0.0591517	-26.1252	-5.02423	1.43321	-26.6092	-34.8459	8.06406	2.0471	1.24462	-0.321597
0.2753	-1.77455	-43.8254	-5.64034	1.73558	-26.9412	-46.7432	14.7797	0.208179	1.55389	-0.643194
0.2760	-2.36607	-52.6734	-1.06352	-3.75538	-22.3403	-42.7398	13.8543	0.815369	-0.890094	-0.643194
0.2767	-2.07031	-25.2082	3.21257	-5.89008	-3.41508	-27.7978	-0.171857	2.65429	0.633627	-0.643194
0.2773	-1.47879	-18.1901	2.6038	-2.84223	13.6603	-15.6187	-14.8326	2.34202	2.16489	-0.321597
0.2780	-0.887275	-19.1071	0.770137	-1.0099	2.9882	-15.9006	-14.8326	2.34202	1.55389	-0.321597
0.2787	-2.07031	-32.5319	-0.755468	-2.53382	30.4511	-18.0432	-15.7447	-0.693931	1.55389	-1.92958
0.2793	-1.77455	-88.3793	1.07819	-1.0099	144.904	-8.90883	-19.1026	-6.5056	2.16489	-2.57278
0.2800	-0.532365	-76.7844	2.90452	0.822434	221.506	10.0365	-9.63721	-6.80052	1.85562	-0.964791
0.2807	-0.887275	-17.273	1.37891	0.211656	200.446	28.9819	10.8138	-3.45231	-0.279097	-0.321597
0.2813	-1.47879	-30.3964	-1.6723	1.1248	137.884	30.166	32.1769	-1.31847	-1.50109	-0.643194
0.2820	-1.77455	-50.8435	-4.41545	2.04399	51.2262	14.942	42.2371	-1.0062	-1.50109	-0.643194
0.2827	-1.77455	-30.702	-3.1979	1.43321	-32.7279	1.46601	45.899	-0.0867414	0.3319	-0.643194
0.2833	-0.887275	-31.9248	0.770137	-1.0099	-98.0413	-8.57052	56.2765	3.26148	1.24462	-0.643194
0.2840	0.35491	-40.7728	1.37891	-6.19849	-153.252	-20.1858	58.1141	3.86867	-0.588368	-0.643194
0.2847	0.0591517	-28.8721	-1.06352	-7.72241	-166.675	-33.3235	37.6631	0.520448	-2.41382	-0.643194
0.2853	-1.18303	-36.1959	-4.11473	-0.0907096	-126.405	-26.8957	14.7797	-3.74723	-3.63581	-0.964791
0.2860	-1.47879	-53.8961	-3.80668	6.92416	-76.365	11.8409	4.09813	-4.37177	-2.41382	-0.643194
0.2867	-0.887275	-36.1959	-1.06352	6.6218	-39.1311	36.8758	-5.06317	-0.39901	-0.890094	-0.321597
0.2873	-0.887275	-25.8195	-0.146693	3.87632	-17.7869	26.501	-26.7304	0.815369	-0.588368	-0.643194
0.2880	-1.18303	-34.0603	-1.36424	2.34635	-18.0715	12.4611	-43.5062	-1.0062	2.16489	-0.643194
0.2887	-1.47879	-29.1778	-3.49862	3.26555	-21.4391	8.79606	-40.1616	-2.53285	6.43433	-0.643194
0.2893	-1.47879	-39.8557	-3.49862	3.87632	-21.4391	9.13437	-23.3725	-1.92566	5.5216	-0.321597
0.2900	-1.47879	-40.1614	-1.06352	0.211656	-29.9768	2.08625	-5.36722	0.520448	1.55389	-0.321597
0.2907	-1.47879	-16.0545	-0.447413	-2.53382	-29.6448	-2.76287	3.49002	1.43991	0.633627	-0.321597
0.2913	-1.47879	-24.5968	-4.72351	-0.0907096	-17.1703	9.13437	-4.15101	1.43991	1.24462	-0.643194
0.2920	-1.18303	-52.6734	-12.0435	2.95713	-19.5893	22.2721	-23.6766	0.520448	0.0226295	-0.964791
0.2927	-1.77455	-38.0258	-11.4347	2.95713	-31.4946	18.6071	-26.4263	1.43991	-0.890094	-0.643194
0.2933	-2.07031	-23.3783	-6.24911	-0.399122	-35.7635	10.6568	-14.5153	6.01985	0.3319	-0.321597
0.2940	-1.47879	-42.6026	-6.24911	-1.31227	-28.127	12.4611	-15.7447	6.31477	1.85562	-0.643194
0.2947	-2.36607	-36.5016	-6.85789	-1.62068	-16.2216	12.4611	-22.7644	0.815369	1.85562	-0.643194
0.2953	-3.31249	-24.5968	-10.2171	-3.1446	-10.767	-0.958545	-13.6031	-3.14004	-1.19182	-0.643194
0.2960	-1.47879	-47.1837	-14.794	-2.23146	-7.06732	-11.9536	7.15189	-3.14004	-4.55608	-0.643194
0.2967	-0.532365	-44.131	-17.8452	-0.0907096	-2.18186	-7.95029	17.2121	-0.693931	-4.24681	-0.643194
0.2973	-1.47879	-17.273	-19.0627	-0.399122	-2.51388	0.281925	16.9081	4.18093	-3.63581	-0.643194
0.2980	-1.18303	-30.0907	-0.755468	-7.72241	-6.16612	4.84911	18.7456	11.5019	-6.38152	-0.964791
0.2987	0.35491	-45.0439	16.0335	-15.3541	-8.30055	0.90216	15.3878	17.6085	-9.12724	-0.964791
0.2993	0.946427	-29.1778	10.2318	-11.3871	-6.49814	-4.28526	1.65247	20.6618	-3.33408	-0.643194
0.3000	0.0591517	-26.7366	12.6743	-4.36615	-2.18186	4.84911	-12.0829	11.8142	4.60134	-0.321597
0.3007	-0.532365	-33.1433	22.4367	-2.84223	1.47038	17.0283	-12.691	-6.19333	3.99034	-0.321597
0.3013	-0.532365	-32.8376	17.5591	-2.84223	3.27279	15.224	-7.81288	-13.8266	-1.19182	-0.643194
0.3020	-0.236607	-43.8254	2.29574	-2.84223	4.22142	20.1295	-12.0829	-11.3805	-5.15953	-0.643194
0.3027	0.35491	-47.1837	-7.77472	-0.0907096	6.35585	55.4829	-16.961	-2.22058	-5.15953	-0.643194
0.3033	-1.18303	-30.3964	-6.24911	4.4871	9.10689	97.0386	-14.8326	12.1091	-2.11209	-0.964791
0.3040	-3.60825	-37.113	0.469417	6.01102	7.87366	120.213	-11.7788	19.7423	-1.19182	-0.964791
0.3047	-4.19977	-38.9429	-0.755468	6.31339	4.22142	126.021	-9.33315	19.4474	-2.72309	-0.643194
0.3053	-3.60825	-19.7143	-10.5179	5.70261	3.27279	120.213	-3.83373	10.2875	-3.33408	-0.643194
0.3060	-3.31249	-38.0258	-8.69155	-0.701487	6.35585	111.36	3.17274	-10.7733	-2.41382	-0.643194
0.3067	-1.18303	-47.7908	0.161362	-9.55474	10.0081	111.642	14.1716	-23.2814	-0.588368	-0.643194
0.3073	0.0591517	-27.9551	0.161362	-12.6026	18.8778	130.588	27.2856	-21.4598	0.633627	-0.643194
0.3080	-0.236607	-34.366	5.04623	-7.42004	35.6212	164.757	25.4613	-17.1748	4.60134	-0.643194
0.3087	0.35491	-46.2666	12.975	-1.0099	48.1432	187.029	5.92245	-10.461	6.73605	-1.60799
0.3093	0.946427	-66.1024	12.6743	0.211656	45.1075	166.618	-8.72504	-4.97895	3.07761	-2.57278
0.3100	1.5971	-75.256	9.62304	-1.0099	35.052	142.485	-1.40129	-3.45231	1.55389	-1.28639
0.3107	0.946427	-41.0784	6.57184	-3.1446	44.7755	54.919	11.1178	-3.45231	2.16489	-0.321597
0.3113	-0.887275	-23.0726	3.21257	-6.19849	67.685	-215.504	15.0837	-4.0595	0.3319	-0.643194
0.3120	-0.887275	-34.366	-0.146693	-5.89008	64.934	-372.367	11.7259	-8.63944	-1.50109	-0.321597
0.3127	-0.532365	-37.113	-0.447413	-1.62068	42.0719	-231.348	3.79407	-13.2194	-1.19182	-0.321597
0.3133	-1.47879	-32.2263	2.29574	0.211656	23.7158	-100.76	2.86869	-8.93436	-0.279097	-0.643194
0.3140	-1.77455	-39.2485	2.29574	0.520068	5.73924	-81.5327	6.84784	-0.39901	-0.279097	-0.964791
0.3147	-0.887275	-37.4145	0.161362	4.17869	-18.0715	-94.3321	-0.489131	2.34202	3.37934	-0.964791
0.3153	-0.532365	-24.2953	-2.58913	2.95713	-36.6647	-110.176	-13.2991	-1.61339	6.73605	-0.643194
0.3160	-1.18303	-34.0603	-3.1979	-4.05774	-42.7834	-87.9043	-18.1772	-5.58614	3.68861	-0.643194
0.3167	-2.07031	-41.6898	-1.36424	-4.05774	-44.9178	-56.4978	-21.2309	-9.85382	2.16489	-0.321597
0.3173	-2.36607	-30.0907	-0.146693	0.211656	-42.7834	-40.9355	-25.5009	-15.9604	2.46662	-0.643194
0.3180	-2.07031	-35.5846	-2.28107	-1.0099	-34.2457	-25.9935	-28.5547	-15.9604	-0.588368	-0.964791
0.3187	-1.18303	-47.7908	-5.33228	-6.19849	-23.5736	-12.5739	-34.9663	-11.0855	-3.33408	-0.643194
0.3193	-0.887275	-37.4145	-4.72351	-7.72241	-11.9528	-14.3782	-32.8379	-7.11279	-3.94508	-0.643194
0.3200	-1.18303	-26.1252	-2.28107	-6.50085	-13.4706	-29.9404	-7.81288	-4.37177	-4.24681	-0.643194
0.3207	-1.47879	-26.1252	-1.36424	-7.11163	-28.459	-46.7432	27.5896	-1.61339	-3.63581	-0.643194
0.3213	-1.18303	-22.7669	-0.755468	-13.2134	-37.6133	-59.2607	40.4128	-0.0867414	-3.33408	-0.643194
0.3220	-2.07031	-29.1778	-1.6723	-16.5696	-35.7635	-64.4481	25.1572	-2.84512	-3.63581	-0.643194
0.3227	-3.01674	-43.5197	-5.02423	-3.75538	-25.0914	-38.7929	9.88838	-5.27388	-2.11209	-0.643194
0.3233	-2.36607	-31.6191	-6.24911	6.92416	-11.9528	21.9338	5.31434	-6.19333	0.0226295	-0.643194
0.3240	-1.77455	-24.2953	-4.11473	1.43321	-0.0474317	75.6687	-0.171857	-10.7733	-0.890094	-0.643194
0.3247	-0.236607	-36.1959	-1.6723	-4.36615	2.08699	95.4598	-5.67128	-17.4871	-3.02481	-0.643194
0.3253	0.650669	-32.8376	-2.28107	-4.05774	1.47038	78.0933	-7.81288	-22.3619	-2.72309	-0.643194
0.3260	-0.236607	-35.8902	-1.6723	3.56791	26.4669	36.5939	-2.31346	-17.1748	0.633627	-0.643194
0.3267	-0.236607	-47.1837	4.43012	13.6427	59.7639	-29.6585	8.36811	4.18093	3.68861	-0.964791
0.3273	-0.532365	-43.8254	10.5399	14.2475	70.7207	-99.8015	11.4219	24.3223	4.29961	-0.643194
0.3280	-0.887275	-36.8073	6.57184	7.23258	60.0485	-106.85	7.45595	24.6346	2.76834	-0.321597
0.3287	-1.77455	-41.6898	-6.85789	3.56791	42.9731	-71.4398	3.49002	13.948	0.633627	-0.643194
0.3293	-3.31249	-43.214	-14.4859	4.17869	22.5301	-50.0699	5.31434	8.76088	0.942897	-0.643194
0.3300	-3.31249	-25.8195	-9.90909	2.34635	-0.996066	-36.03	12.6381	8.76088	2.76834	-0.643194
0.3307	-2.07031	-23.9896	-1.97302	-2.23146	29.2179	-10.4312	15.3878	14.5552	4.60134	-0.643194
0.3313	-1.77455	-30.702	-1.06352	-4.05774	114.073	13.0813	7.45595	25.8489	4.91061	-0.643194
0.3320	-2.36607	-26.7366	-4.72351	-3.1446	145.188	12.7994	-2.92157	25.8489	1.55389	-0.964791
0.3327	-2.36607	-36.8073	-5.64034	0.211656	103.686	-3.72141	-5.06317	9.97526	0.633627	-0.643194
0.3333	-1.18303	-39.5542	-3.80668	3.87632	44.2063	-12.5739	-0.171857	-5.89841	3.68861	-0.643194
0.3340	0.35491	-28.5665	-1.6723	2.95713	-6.78273	-10.0929	2.56463	-10.461	5.21233	-0.643194
0.3347	-0.532365	-44.7424	-2.28107	0.211656	-39.4157	-3.10118	-2.0094	-6.5056	3.99034	-0.643194
0.3353	-1.18303	-45.6553	-6.24911	-0.701487	-65.6929	4.84911	-10.8534	-2.53285	2.16489	-0.643194
0.3360	-0.887275	-27.9551	-7.46666	-0.0907096	-90.4048	19.5092	-16.3528	-1.31847	1.24462	-0.643194
0.3367	-1.47879	-39.8557	-4.11473	-0.701487	-90.0728	50.6338	-17.8731	-3.45231	1.24462	-0.321597
0.3373	-1.77455	-45.0439	-1.36424	-1.92304	-69.3451	92.1331	-17.265	-8.03225	0.0226295	-0.321597
0.3380	-1.77455	-31.0077	-1.6723	-3.1446	-51.9377	116.83	-15.7447	-7.40771	-1.19182	-0.321597
0.3387	-3.01674	-51.7605	-2.88985	-5.58771	-33.9611	102.226	-17.5691	-7.71998	-3.33408	-1.60799
0.3393	-1.77455	-93.5675	-1.6723	-5.2793	-23.5736	53.6785	-23.0685	-9.5589	-4.55608	-2.57278
0.3400	0.0591517	-62.7441	-0.146693	-2.23146	-29.3602	-0.620235	-16.0488	-4.66669	-2.72309	-0.964791
0.3407	-1.18303	-28.8721	-1.06352	-2.84223	-8.91716	-25.3733	8.06406	-0.0867414	-3.63581	-0.321597
0.3413	-1.47879	-36.8073	-3.1979	-4.05774	40.2221	-17.423	15.3878	-0.693931	-5.77053	-0.643194
0.3420	-1.18303	-25.2082	-5.94106	-4.66852	61.5663	-4.28526	6.84784	-2.84512	-6.99252	-0.643194
0.3427	-1.18303	-27.6494	-7.16594	-4.36615	62.183	2.70648	9.88838	-3.45231	-8.21452	-0.321597
0.3433	-0.887275	-38.3315	-4.72351	0.520068	56.6809	-18.3251	8.67216	-1.61339	-3.63581	-0.643194
0.3440	-1.18303	-25.2082	-1.6723	4.78947	34.72	-64.1098	2.26058	-0.0867414	3.37934	-0.643194
0.3447	-1.77455	-31.0077	1.07819	2.65477	17.028	-87.9043	3.49002	1.12764	4.29961	-0.643194
0.3453	-1.47879	-40.1614	-0.755468	-4.66852	2.37158	-82.153	1.04436	1.12764	1.24462	-0.643194
0.3460	-0.887275	-31.0077	-3.80668	-4.97693	-31.4946	-57.118	-2.92157	0.208179	0.3319	-0.643194
0.3467	-0.887275	-38.9429	-1.6723	2.04399	-62.9419	-24.753	-3.22562	1.12764	3.68861	-0.643194
0.3473	-1.18303	-44.131	-0.146693	1.1248	-76.365	-17.423	1.95652	2.34202	3.07761	-0.643194
0.3480	-1.77455	-20.3257	-1.6723	-1.62068	-90.0728	-42.7398	10.1924	1.43991	-0.588368	-0.964791
0.3487	-2.36607	-24.2953	-4.41545	3.87632	-96.1915	-67.7748	8.97622	-0.0867414	0.942897	-0.643194
0.3493	-2.07031	-51.4548	-4.72351	5.09788	-72.7128	-72.342	8.67216	-0.39901	2.16489	-0.643194
0.3500	-1.18303	-31.3134	-1.6723	-1.92304	-35.1469	-64.4481	13.8543	1.12764	-1.19182	-0.643194
0.3507	-1.18303	-13.9189	-0.447413	-5.89008	-15.937	-36.6503	8.36811	1.73483	-2.41382	-0.643194
0.3513	-1.18303	-34.6675	-1.36424	-4.05774	-17.4549	-2.48094	0.436252	1.12764	0.0226295	-0.643194
0.3520	-1.18303	-38.3315	-4.11473	-2.53382	-24.4748	10.3185	-0.489131	-0.0867414	1.24462	-0.321597
0.3527	-1.18303	-29.785	-3.80668	-0.0907096	-27.2258	24.0764	-2.61751	-0.39901	0.3319	-0.643194
0.3533	-0.887275	-39.5542	-1.06352	2.34635	-23.8581	46.0666	-8.72504	1.12764	0.0226295	-0.643194
0.3540	-0.887275	-33.1433	-0.146693	-0.701487	-17.1703	40.8791	-13.9072	2.0471	0.633627	-0.643194
0.3547	-0.887275	-27.9551	-0.755468	-6.50085	-14.0872	11.5589	-15.1366	1.73483	-0.890094	-0.643194
0.3553	-1.18303	-44.131	-2.88985	-11.3871	-14.0872	-10.7132	-14.2112	0.520448	-4.24681	-0.643194
0.3560	-1.18303	-41.0784	-3.80668	-13.8241	-11.6682	-19.2837	-13.2991	0.520448	-6.0798	-0.643194
0.3567	-1.47879	-32.5319	-2.88985	-8.33319	-5.26492	-22.3285	-9.94126	2.0471	-4.8578	-0.643194
0.3573	-1.47879	-34.366	-1.6723	4.4871	2.9882	-29.9404	-2.0094	2.65429	-1.19182	-0.643194
0.3580	-1.47879	-21.8541	-1.06352	9.66964	9.39148	-31.4628	6.22651	1.12764	2.16489	-0.643194
0.3587	-3.01674	-23.0726	-2.58913	4.17869	16.1268	-17.7613	3.49002	-1.61339	0.0226295	-0.643194
0.3593	-3.60825	-53.2847	-3.1979	0.520068	32.8702	-14.3782	-0.171857	-1.61339	-1.80282	-0.321597
0.3600	-2.36607	-36.8073	-0.146693	0.520068	49.661	-30.2224	12.6381	0.208179	0.0226295	-0.321597
0.3607	-1.77455	-27.0423	1.07819	-2.84223	51.2262	-37.8907	22.7116	1.12764	-0.588368	-1.92958
0.3613	-1.18303	-65.7967	-0.146693	-4.66852	46.9099	-12.8558	23.3197	2.96655	-1.19182	-1.60799
0.3620	0.0591517	-45.9609	-3.80668	-4.05774	40.2221	19.1709	26.9815	3.26148	-1.50109	-0.321597
0.3627	-0.887275	-16.9674	-6.24911	-2.53382	26.1823	26.501	25.4613	-0.0867414	-3.33408	-0.321597
0.3633	-1.47879	-38.6372	-3.49862	3.87632	12.7591	28.0234	15.0837	-1.92566	-0.588368	-0.643194
0.3640	-0.887275	-44.131	-1.6723	8.7565	-2.79847	30.166	2.26058	-1.31847	2.76834	-0.643194
0.3647	-1.18303	-33.449	-2.58913	2.34635	-22.9569	24.9786	-8.42099	-1.0062	1.24462	-0.321597
0.3653	-1.77455	-39.5542	-4.72351	-4.66852	-33.9611	21.3135	-17.5691	-1.61339	-0.279097	-0.321597
0.3660	-1.77455	-44.4367	-5.94106	-3.1446	-37.8979	17.0283	-30.3922	-1.61339	2.76834	-0.643194
0.3667	-1.77455	-35.8902	-4.41545	-1.31227	-39.1311	9.4163	-34.9663	0.208179	4.29961	-0.964791
0.3673	-1.77455	-29.4835	-2.58913	-2.84223	-25.708	3.04479	-21.2309	1.73483	1.85562	-0.321597
0.3680	-1.47879	-12.3905	-2.58913	-3.1446	-10.435	-3.10118	-12.3869	1.12764	-1.19182	-0.643194
0.3687	-2.07031	-41.0784	-4.72351	-3.44696	-10.767	-10.0929	-21.8391	-2.84512	-3.02481	-2.25118
0.3693	-1.47879	-99.0614	-5.02423	-3.75538	-16.5537	-11.3334	-22.7644	-3.14004	-3.63581	-1.92958
0.3700	0.35491	-61.8312	-2.28107	-0.701487	-15.0358	-6.42789	-6.27939	1.43991	-1.80282	-0.321597
0.3707	0.0591517	-5.67812	0.770137	4.17869	-7.39934	-13.7579	7.76	2.96655	1.85562	-0.321597
0.3713	-0.532365	-24.2953	1.37891	4.4871	-3.41508	-29.9404	21.1913	2.34202	3.07761	-0.643194
0.3720	0.0591517	-48.7079	-1.97302	0.822434	-6.49814	-23.8509	28.8191	1.12764	0.942897	-0.643194
0.3727	0.0591517	-27.0423	-4.11473	-1.0099	-5.88153	3.32672	22.1034	0.520448	-0.279097	-0.643194
0.3733	-1.47879	-23.9896	0.161362	-2.84223	-0.0474317	18.6071	19.6578	0.815369	0.633627	-0.964791
0.3740	-1.47879	-40.7728	3.52063	-1.92304	-3.41508	14.3218	18.7456	-0.693931	3.07761	-0.964791
0.3747	-1.77455	-30.702	1.68697	1.43321	-12.9014	10.9387	7.15189	-0.0867414	5.82333	-0.643194
0.3753	-2.72098	-35.5846	-1.6723	-0.701487	-13.4706	24.0764	-6.8875	0.815369	3.68861	-0.321597
0.3760	-2.07031	-49.9264	-2.58913	-3.44696	-2.51388	41.443	-12.691	1.12764	0.0226295	-0.643194
0.3767	-0.887275	-33.7547	0.161362	-3.1446	4.83803	39.6387	-12.691	2.65429	-0.279097	-0.643194
0.3773	-1.47879	-27.3437	1.99502	-1.92304	-0.0474317	23.1742	-16.3528	2.65429	0.942897	-0.643194
0.3780	-1.47879	-32.8376	1.37891	-0.0907096	-6.16612	9.13437	-21.535	0.815369	1.24462	-0.964791
0.3787	-0.887275	-19.7143	-2.58913	2.34635	-7.39934	0.90216	-22.1563	-0.693931	0.0226295	-0.964791
0.3793	-1.18303	-30.702	-4.11473	3.87632	-5.26492	0.56385	-23.6766	-0.39901	-0.890094	-0.643194
0.3800	-2.36607	-45.6553	-1.36424	1.43321	-4.64831	4.22888	-21.8391	1.43991	-1.80282	-0.643194
0.3807	-3.60825	-24.9025	0.161362	-3.44696	-8.01596	-0.056385	-1.09724	6.62704	-4.24681	-0.321597
0.3813	-3.31249	-23.0726	-2.28107	-4.66852	-6.16612	-5.24381	16.604	21.269	-7.30179	-0.321597
0.3820	-1.47879	-42.297	-5.94106	-4.36615	3.27279	-0.33831	11.7259	39.2765	-9.43651	-0.643194
0.3827	-0.532365	-28.5665	-5.02423	-4.66852	8.15825	3.60864	6.84784	43.5442	-8.51624	-0.643194
0.3833	-0.236607	-14.8318	-2.58913	-6.50085	5.73924	-9.81099	15.6919	26.1612	-4.8578	-0.643194
0.3840	0.0591517	-29.4835	-3.49862	-9.55474	2.08699	-35.7481	30.3394	-4.97895	-2.11209	-0.643194
0.3847	-0.236607	-34.366	-2.28107	-8.94396	-0.996066	-48.2656	38.2712	-29.0757	0.0226295	-0.643194
0.3853	-1.47879	-31.6191	-0.447413	-10.1655	-2.79847	-50.0699	33.0891	-32.129	0.0226295	-0.643194
0.3860	-1.77455	-41.0784	0.161362	-11.9979	-2.79847	-42.176	18.1375	-22.6742	0.0226295	-0.321597
0.3867	-1.18303	-38.6372	1.37891	-2.53382	3.60481	-2.14263	9.58433	-11.3805	1.85562	-0.321597
0.3873	-0.887275	-27.9551	1.99502	10.2804	13.6603	48.773	10.8138	-3.45231	3.37934	-0.964791
0.3880	-1.18303	-22.1556	1.07819	12.1128	14.8936	74.7102	5.01029	-0.39901	4.29961	-0.643194
0.3887	-1.18303	-23.3783	-2.88985	7.23258	8.15825	82.0402	-6.58344	1.43991	3.07761	-0.643194
0.3893	-0.887275	-41.6898	-5.33228	3.56791	8.15825	80.8561	-11.7788	4.4932	0.0226295	-0.643194
0.3900	-0.532365	-52.6734	-1.6723	0.211656	11.2413	53.0583	-11.7788	3.26148	-0.279097	-0.321597
0.3907	-0.532365	-38.0258	0.161362	-0.0907096	10.6247	16.4644	-12.691	-3.74723	0.3319	-0.321597
0.3913	-1.77455	-36.5016	-0.755468	-0.0907096	9.67607	4.84911	-18.4944	-8.32717	-0.588368	-0.643194
0.3920	-1.77455	-41.6898	-3.1979	-3.1446	7.25705	1.18409	-29.7841	-9.24663	1.24462	-0.643194
0.3927	-2.07031	-30.0907	-4.41545	-4.36615	5.12262	-0.33831	-30.3922	-7.11279	3.68861	-0.321597
0.3933	-2.07031	-42.6026	-2.28107	-5.2793	6.35585	6.99174	-19.1026	-2.84512	1.55389	-0.321597
0.3940	-1.47879	-47.7908	-0.755468	-5.2793	5.40721	4.56719	-13.9072	-3.14004	0.3319	-0.643194
0.3947	-1.18303	-25.2082	-1.36424	-1.0099	0.237158	-9.47268	-12.995	-5.58614	3.99034	-0.964791
0.3953	-1.77455	-35.2789	-3.1979	1.43321	-5.54951	-27.5159	-9.33315	-4.97895	6.43433	-0.643194
0.3960	-1.18303	-55.4203	-3.80668	0.822434	-6.16612	-47.9273	-2.31346	-2.53285	4.60134	-0.643194
0.3967	-0.887275	-41.3841	-2.58913	-0.0907096	-5.26492	-51.5923	-0.793186	-2.53285	3.68861	-0.964791
0.3973	-1.18303	-30.702	-0.755468	-1.0099	-5.26492	-28.1361	-3.52968	-0.0867414	3.37934	-0.964791
0.3980	-0.887275	-20.3257	0.469417	0.520068	-5.88153	-10.0929	3.79407	6.62704	2.76834	-0.643194
0.3987	-1.18303	-23.684	-1.36424	2.04399	-7.68393	-10.0929	8.67216	6.01985	-0.279097	-1.60799
0.3993	-1.18303	-81.6669	-1.36424	-1.31227	-1.28066	11.5589	0.740307	2.0471	-4.55608	-2.25118
0.4000	-0.236607	-85.6324	1.68697	-3.1446	6.64044	46.6304	-2.92157	4.78812	-4.24681	-0.964791
0.4007	-0.236607	-22.7669	0.770137	-3.1446	8.15825	57.6255	1.65247	5.39531	-2.41382	-0.321597
0.4013	-1.18303	-20.3257	-1.36424	-8.33319	10.2927	59.7681	-0.793186	9.0558	-4.8578	-0.643194
0.4020	-1.18303	-51.1491	-3.80668	-12.3002	7.87366	46.6304	-9.63721	27.6878	-7.60352	-0.643194
0.4027	-1.18303	-36.1959	-4.41545	-2.53382	13.9924	7.61198	-11.4748	41.1154	-2.41382	-0.321597
0.4033	-1.18303	-26.4309	-1.97302	6.01102	46.0087	-22.9487	5.31434	34.4016	2.76834	-0.321597
0.4040	-0.532365	-45.6553	-1.36424	1.43321	72.8551	-32.9852	31.2515	10.5824	0.633627	-0.643194
0.4047	-0.532365	-36.5016	-1.36424	-2.23146	70.4361	-27.1776	36.1428	-22.9865	-0.588368	-0.643194
0.4053	-2.07031	-26.1252	-0.755468	-3.1446	50.6096	-12.8558	19.0497	-43.4227	-0.279097	-0.643194
0.4060	-3.31249	-47.4852	-1.6723	-2.23146	35.9532	-3.10118	3.49002	-40.0745	0.0226295	-0.643194
0.4067	-3.01674	-45.0439	-2.58913	-0.399122	33.2022	15.8442	-3.52968	-26.0398	2.16489	-0.321597
0.4073	-1.77455	-25.8195	-2.28107	-2.84223	28.3167	37.8344	-5.97533	-15.9604	0.3319	-0.643194
0.4080	-0.532365	-28.5665	-3.49862	-4.36615	14.8936	23.7945	-5.97533	-12.2999	-3.33408	-0.643194
0.4087	0.35491	-25.5139	-8.69155	-1.0099	-8.01596	-5.80766	-5.06317	-11.0855	-2.72309	-0.964791
0.4093	-0.236607	-34.366	-13.2684	0.822434	-25.708	5.13104	-6.27939	-9.85382	0.0226295	-0.643194
0.4100	-0.887275	-49.9264	-11.4347	0.211656	-26.9412	31.6884	-8.42099	-6.80052	2.16489	-0.321597
0.4107	-0.236607	-33.7547	-8.38349	-0.0907096	-31.4946	34.7332	-8.11693	-3.74723	2.76834	-0.964791
0.4113	-0.532365	-33.7547	-6.24911	-0.0907096	-40.981	39.6387	-8.11693	-2.53285	2.46662	-0.964791
0.4120	-2.36607	-45.3496	-1.06352	-1.31227	-39.1311	43.0218	-10.5494	-3.45231	0.3319	-0.643194
0.4127	-4.19977	-31.6191	5.04623	-2.84223	-29.3602	33.831	-7.81288	-0.693931	-1.50109	-0.643194
0.4133	-3.60825	-41.6898	8.09744	-2.23146	-27.2258	17.3666	-4.45506	7.5465	-1.80282	-0.643194
0.4140	-0.532365	-42.297	4.73818	-2.53382	-35.1469	-7.95029	-6.58344	15.4747	-1.80282	-0.643194
0.4147	1.89285	-17.8844	-0.146693	-3.1446	-36.3801	-18.3251	-5.97533	18.8229	-1.19182	-0.643194
0.4153	1.5971	-37.4145	1.37891	-3.44696	-29.3602	2.70648	-1.09724	11.5019	-2.11209	-0.643194
0.4160	0.35491	-56.0317	2.90452	-5.89008	-21.7237	36.8758	5.01029	-1.31847	-6.0798	-0.643194
0.4167	-0.887275	-33.7547	-1.6723	-10.1655	-17.7869	57.3436	16.9081	-4.97895	-10.3492	-0.643194
0.4173	-3.01674	-26.4309	-3.49862	-7.42004	-14.4192	61.2905	22.4075	-2.53285	-10.0475	-0.643194
0.4180	-3.31249	-31.3134	0.770137	-1.0099	-7.06732	60.6703	19.3537	-3.74723	-6.38152	-0.643194
0.4187	-0.887275	-23.3783	1.37891	-2.53382	-0.996066	57.0616	19.6578	-10.461	-6.99252	-0.643194
0.4193	-0.532365	-37.4145	-0.447413	-5.2793	3.60481	45.108	11.1178	-13.8266	-3.94508	-0.643194
0.4200	-1.18303	-50.5378	-0.146693	-2.23146	8.77486	28.6436	-6.58344	-11.3805	5.21233	-0.643194
0.4207	-1.47879	-23.684	0.770137	0.822434	9.39148	13.4196	-14.8326	-7.71998	9.18004	-0.964791
0.4213	-2.72098	-16.6659	-0.146693	0.520068	4.50601	5.13104	-12.3869	-5.27388	7.34705	-0.964791
0.4220	-3.01674	-41.6898	-5.94106	-0.0907096	-2.18186	9.75461	-11.1575	-5.58614	5.21233	-0.643194
0.4227	-3.60825	-37.4145	-15.0947	2.04399	-7.39934	3.94695	-10.5494	-7.71998	4.60134	-0.321597
0.4233	-5.44196	-18.4958	-18.4539	4.4871	-6.16612	-37.5524	-7.81288	-6.80052	5.82333	-0.321597
0.4240	-5.44196	-26.1252	-13.8771	4.17869	-4.9329	-125.457	-3.83373	-4.0595	6.12506	-0.643194
0.4247	-1.47879	-34.9732	-13.5691	0.520068	-9.81836	-196.558	3.17274	-2.53285	5.21233	-0.643194
0.4253	1.30134	-34.9732	-9.90909	-3.44696	-15.6525	-172.143	7.45595	-1.61339	2.46662	-0.643194
0.4260	0.0591517	-45.0439	13.5911	-0.701487	-15.0358	-98.2791	2.26058	1.12764	0.0226295	-0.643194
0.4267	0.0591517	-44.7424	35.5583	5.40024	-7.06732	-15.6187	-9.33315	4.18093	0.0226295	-0.643194
0.4273	2.78013	-35.8902	30.9815	5.40024	0.237158	60.6703	-18.1772	5.70758	0.942897	-0.643194
0.4280	2.78013	-39.5542	5.04623	0.520068	1.47038	102.226	-20.3188	6.92196	0.0226295	-0.964791
0.4287	0.946427	-61.5255	-17.2364	-7.42004	-0.379454	119.875	-16.6569	3.86867	-4.55608	-2.57278
0.4293	1.30134	-86.8551	-22.1139	-9.85711	2.08699	131.828	-7.81288	-0.0867414	-6.38152	-2.25118
0.4300	2.48437	-69.155	-16.3196	-2.84223	5.73924	136.395	2.56463	3.26148	-2.72309	-0.321597
0.4307	1.89285	-27.0423	-8.69155	2.65477	5.73924	132.392	9.88838	5.10039	-0.588368	-0.321597
0.4313	0.35491	-31.0077	6.26378	2.04399	3.8894	129.967	21.1913	-0.0867414	-2.72309	-0.964791
0.4320	-1.47879	-45.3496	19.3854	2.34635	1.75497	140.624	32.1769	-4.37177	-6.0798	-0.643194
0.4327	-2.36607	-27.0423	16.943	3.26555	2.08699	143.105	33.3931	-4.0595	-6.0798	-0.643194
0.4333	-2.36607	-34.9732	9.01427	2.34635	8.15825	106.173	27.2856	-1.31847	-3.94508	-0.643194
0.4340	-2.36607	-44.7424	4.43012	-0.0907096	11.2413	68.0003	18.1375	0.815369	-3.33408	-0.643194
0.4347	-1.77455	-25.2082	2.6038	-1.92304	4.50601	-57.4	6.22651	0.208179	-2.72309	-0.643194
0.4353	-0.887275	-30.3964	-0.146693	-2.53382	-6.49814	-332.051	-9.0291	-1.0062	-0.890094	-0.321597
0.4360	-0.887275	-46.5723	-2.88985	-0.701487	-14.7038	-421.76	-15.4407	-0.39901	2.16489	0
0.4367	-0.532365	-34.0603	-1.36424	3.87632	-17.7869	-249.673	-9.63721	1.12764	7.04532	-0.321597
0.4373	-0.887275	-25.8195	0.469417	8.45413	-9.81836	-131.264	4.40218	2.65429	9.48931	-0.321597
0.4380	-1.77455	-36.8073	-0.146693	7.53494	5.40721	-100.422	25.1572	3.86867	6.43433	-0.321597
0.4387	-1.47879	-34.366	-3.1979	0.211656	9.39148	-69.2972	26.3734	3.26148	2.46662	-0.321597
0.4393	-0.532365	-41.3841	-3.1979	-3.44696	3.27279	-47.6453	12.6381	1.43991	1.55389	-0.321597
0.4400	0.650669	-42.6026	0.770137	-0.0907096	0.853771	-30.8426	11.1178	3.57374	3.07761	-0.643194
0.4407	0.650669	-18.8014	1.37891	-1.0099	5.40721	-20.4678	14.4756	5.39531	3.99034	-0.964791
0.4413	-1.47879	-26.7366	-0.447413	-5.89008	10.9093	-19.2837	19.6578	2.0471	2.46662	-0.643194
0.4420	-2.07031	-35.5846	-2.58913	-6.19849	10.2927	-28.1361	18.1375	-1.92566	0.942897	-0.643194
0.4427	-2.07031	-26.7366	-3.80668	-4.36615	7.54164	-43.0782	-0.171857	-1.92566	1.85562	-0.321597
0.4433	-2.72098	-37.4145	-2.58913	-4.36615	8.15825	-45.7846	-18.1772	1.12764	1.24462	-0.643194
0.4440	-1.77455	-38.6372	-5.64034	-6.50085	2.70361	-46.4049	-20.9269	4.18093	-1.50109	-0.643194
0.4447	-0.532365	-23.684	-11.7428	-6.50085	-8.01596	-48.5475	-17.8731	5.10039	-2.41382	-0.643194
0.4453	-0.887275	-36.8073	-15.4027	-3.75538	-15.6525	-32.9852	-29.1628	5.10039	-1.50109	-0.643194
0.4460	-0.887275	-50.2321	-18.1532	-2.53382	-18.0715	-12.2355	-45.0397	5.39531	-1.50109	-0.643194
0.4467	-0.887275	-29.1778	-16.6203	-3.1446	-14.7038	-0.958545	-34.9663	7.5465	-2.41382	-0.643194
0.4473	-1.18303	-34.0603	3.82135	-3.75538	-8.63257	7.61198	-15.1366	6.92196	-3.02481	-0.643194
0.4480	-0.236607	-54.2018	21.2191	0.211656	-10.1504	4.22888	-5.67128	0.208179	-1.19182	-0.321597
0.4487	-0.236607	-37.4145	9.31499	5.09788	-15.937	-12.2355	7.76	-5.27388	0.3319	-0.643194
0.4493	-1.77455	-30.3964	-4.11473	4.4871	-11.9528	-23.5126	12.6381	-4.37177	-0.588368	-0.643194
0.4500	-1.77455	-46.2666	-4.41545	2.04399	-11.6682	-31.7448	0.132198	-0.39901	-0.890094	-0.643194
0.4507	-0.236607	-32.8376	-5.02423	-2.84223	-1.28066	-31.7448	-7.49561	2.96655	0.0226295	-0.643194
0.4513	-0.887275	-35.5846	-3.1979	-11.6894	87.2269	-31.4628	-4.15101	3.57374	0.0226295	-0.643194
0.4520	-2.07031	-41.6898	3.21257	-15.3541	197.695	-48.5475	-10.2453	2.0471	-1.80282	-0.643194
0.4527	-2.07031	-22.1556	4.43012	-9.24633	219.04	-49.1677	-25.5009	0.520448	-0.890094	-0.964791
0.4533	-1.77455	-37.7201	2.90452	-7.42004	180.003	-22.9487	-28.8587	1.73483	2.16489	-0.964791
0.4540	-1.47879	-46.2666	1.99502	-10.4679	115.923	-10.7132	-16.0488	2.0471	0.3319	-0.643194
0.4547	-1.77455	-20.6313	0.770137	1.43321	34.1034	-4.00334	-6.27939	0.815369	0.633627	-0.321597
0.4553	-2.72098	-30.702	-1.97302	13.3343	-37.6133	17.6485	-16.961	-1.0062	3.37934	-0.321597
0.4560	-2.72098	-50.5378	-4.72351	5.09788	-98.0413	50.2954	-25.8182	-2.84512	0.0226295	-0.643194
0.4567	-1.77455	-34.0603	-2.88985	-1.92304	-136.176	86.3255	-16.6569	-1.61339	-3.02481	-0.643194
0.4573	-1.18303	-30.0907	-1.97302	1.1248	-123.038	84.8031	-2.0094	-0.693931	-1.19182	-0.643194
0.4580	-0.887275	-38.3315	-8.07544	2.34635	-82.7683	47.2506	18.7456	-0.39901	-0.890094	-0.643194
0.4587	-1.47879	-42.9083	-13.8771	0.211656	-60.4754	25.3169	29.4272	-3.45231	-2.11209	-1.92958
0.4593	-2.36607	-89.6021	-11.134	-1.31227	-48.5701	16.4644	15.0837	-6.80052	-0.588368	-2.57278
0.4600	-1.47879	-85.6324	-8.69155	-1.31227	-41.5502	4.56719	3.49002	-2.84512	2.16489	-0.964791
0.4607	-1.18303	-10.5606	-5.94106	-3.1446	-40.981	-0.620235	5.31434	0.208179	2.46662	-0.643194
0.4613	-2.07031	-31.3134	9.01427	-6.50085	-30.5934	-2.14263	2.56463	-3.45231	0.0226295	-2.57278
0.4620	-1.18303	-93.8732	15.7255	-7.42004	-26.9412	-4.00334	-5.06317	-4.66669	-1.80282	-2.25118
0.4627	0.35491	-54.8131	5.34695	-0.701487	-35.7635	-2.14263	-5.97533	-0.39901	0.3319	-0.321597
0.4633	-0.532365	-21.8541	-0.447413	6.92416	-31.2101	-1.57878	-1.09724	3.57374	2.46662	-0.321597
0.4640	-1.18303	-42.9083	1.07819	7.84336	-19.9213	-3.72141	4.70624	2.0471	1.55389	-0.643194
0.4647	-1.47879	-31.9248	2.29574	9.36728	-19.9213	-3.72141	4.70624	-5.89841	0.3319	-0.321597
0.4653	-1.77455	-27.9551	-1.36424	11.1996	-24.4748	-3.3831	-4.75911	-14.746	-0.279097	-0.643194
0.4660	-1.47879	-45.9609	-5.94106	7.53494	-25.9926	-1.86071	-15.7447	-18.7014	0.942897	-0.643194
0.4667	-0.887275	-36.1959	-5.94106	1.43321	-22.3403	0.56385	-20.6228	-18.7014	4.29961	-0.643194
0.4673	-0.532365	-28.8721	-5.94106	-0.399122	-14.7038	2.42456	-18.7985	-8.32717	5.5216	-0.321597
0.4680	-0.236607	-45.6553	-7.77472	0.211656	-8.01596	4.56719	-15.4407	13.3408	2.46662	-0.321597
0.4687	0.0591517	-30.0907	-5.94106	-3.44696	-7.68393	5.13104	-20.0147	24.3223	-2.11209	-0.643194
0.4693	-0.532365	-22.4612	-1.97302	-6.50085	-8.01596	7.61198	-24.2847	17.6085	-4.24681	-0.321597
0.4700	-1.47879	-41.0784	2.29574	-2.23146	6.02383	17.0283	-11.4748	9.68034	-2.11209	-0.643194
0.4707	-0.532365	-22.4612	6.87256	3.26555	32.8702	19.7911	9.28027	7.84142	0.633627	-0.643194
0.4713	-0.887275	-18.1901	7.18061	1.1248	52.744	0.56385	22.1034	6.01985	-1.19182	-0.643194
0.4720	-1.77455	-49.0136	2.90452	-7.42004	54.5465	-25.035	26.3734	3.26148	-6.38152	-0.643194
0.4727	-1.18303	-42.9083	2.6038	-9.85711	43.8743	-31.4628	28.1978	2.0471	-7.30179	-0.643194
0.4733	-1.47879	-18.8014	3.21257	-5.2793	27.7001	-27.5159	31.8596	2.65429	-1.80282	-0.964791
0.4740	-2.07031	-26.4309	-6.24911	1.43321	9.39148	-34.8459	32.481	3.26148	2.16489	-0.964791
0.4747	-2.07031	-29.1778	-13.2684	6.31339	-4.31628	-36.03	22.7116	2.96655	2.16489	-0.643194
0.4753	-1.18303	-26.7366	-8.99227	4.78947	-15.3204	-15.9006	7.45595	0.815369	0.0226295	-0.643194
0.4760	-0.532365	-46.878	-4.72351	0.211656	-25.376	3.94695	0.740307	-0.39901	-1.50109	-0.643194
0.4767	-0.887275	-44.4367	-1.6723	-3.1446	-34.5303	20.4114	3.79407	1.12764	-1.19182	-0.643194
0.4773	-2.07031	-20.02	0.161362	-4.97693	-48.0009	35.3534	9.88838	2.34202	-0.890094	-0.643194
0.4780	-2.36607	-34.9732	-1.06352	-5.2793	-50.4199	36.8758	14.4756	0.208179	-1.19182	-0.964791
0.4787	-1.77455	-49.9264	-4.11473	-4.05774	-29.9768	33.831	9.58433	-8.93436	-0.279097	-0.643194
0.4793	-1.47879	-24.9025	-5.94106	-2.84223	-6.49814	36.2556	-0.489131	-14.4338	0.633627	-0.643194
0.4800	-1.18303	-27.9551	-1.97302	-3.1446	0.853771	35.0715	-2.61751	3.26148	0.633627	-0.964791
0.4807	-0.532365	-40.7728	2.90452	-5.89008	-3.41508	26.501	-3.52968	26.1612	1.55389	-0.643194
0.4813	-0.532365	-27.0423	3.21257	-6.80927	-8.01596	13.9835	-3.83373	32.5627	1.55389	-0.643194
0.4820	0.0591517	-35.8902	-0.755468	-4.66852	-10.1504	2.70648	-2.0094	27.3756	-0.279097	-0.643194
0.4827	0.0591517	-43.8254	-4.11473	-1.92304	-11.6682	3.60864	-4.75911	10.8947	0.0226295	-0.321597
0.4833	-1.47879	-28.8721	-4.11473	1.1248	-9.81836	10.9387	-8.72504	-8.93436	3.37934	-0.321597
0.4840	-2.72098	-34.366	-4.41545	2.04399	-4.64831	8.51414	-6.27939	-15.3532	4.60134	-0.643194
0.4847	-2.07031	-39.8557	-3.80668	-0.399122	-1.28066	2.08625	3.79407	-10.7733	2.76834	-0.321597
0.4853	-0.887275	-20.937	-4.41545	-3.75538	-1.61268	2.70648	6.53056	-7.71998	-0.279097	-0.321597
0.4860	-0.532365	-27.9551	-5.33228	-4.97693	-3.41508	6.99174	3.17274	-6.19333	-1.80282	-0.643194
0.4867	-1.18303	-52.3719	-3.1979	-4.66852	-2.79847	15.224	1.65247	-1.61339	-0.588368	-0.643194
0.4873	-0.532365	-39.2485	-1.06352	-6.80927	0.237158	29.5458	-2.92157	2.34202	0.633627	-0.643194
0.4880	-0.532365	-33.1433	-1.06352	-4.36615	1.13836	46.3485	-8.42099	1.73483	0.633627	-0.964791
0.4887	-1.47879	-70.9849	-2.88985	2.95713	2.08699	78.3752	-16.6569	-5.27388	-0.890094	-2.57278
0.4893	-1.18303	-77.0901	-3.1979	4.78947	7.54164	119.593	-18.7985	-8.93436	-2.72309	-1.92958
0.4900	-0.532365	-42.9083	-1.97302	2.34635	10.9093	131.49	-7.81288	-4.0595	-1.80282	-0.321597
0.4907	-1.18303	-22.7669	-1.06352	2.04399	10.0081	102.226	-2.0094	-1.0062	-0.588368	-0.643194
0.4913	-1.77455	-13.3076	-1.06352	2.34635	8.77486	44.2059	-5.06317	-2.22058	-1.50109	-0.964791
0.4920	-2.07031	-30.702	-4.41545	2.34635	5.73924	-7.33005	-14.2112	-2.53285	-1.50109	-0.643194
0.4927	-1.47879	-46.878	-7.16594	2.95713	4.50601	-24.4711	-23.0685	-2.53285	-0.279097	-0.321597
0.4933	-0.236607	-25.2082	-5.94106	3.87632	12.4271	-30.2224	-16.961	-1.31847	-0.279097	-0.643194
0.4940	-0.532365	-23.9896	-3.49862	5.70261	20.3956	-40.0334	-9.0291	1.12764	-0.279097	-0.643194
0.4947	-1.18303	-37.7201	-3.49862	5.40024	20.0636	-62.9257	-7.81288	2.96655	0.0226295	-0.643194
0.4953	-0.532365	-29.1778	-4.41545	-1.0099	16.4114	-103.467	0.436252	2.34202	-3.33408	-0.321597
0.4960	0.0591517	-31.9248	-2.58913	-8.02477	15.7948	-127.881	14.7797	1.12764	-7.91279	-0.321597
0.4967	0.0591517	-43.5197	1.07819	-9.55474	28.3167	-108.654	29.1231	1.43991	-8.21452	-0.643194
0.4973	0.0591517	-35.2789	2.29574	-8.02477	40.8387	-71.7781	35.2174	-3.74723	-6.38152	-0.643194
0.4980	-0.532365	-29.4835	-0.146693	-5.89008	39.6055	-61.6852	28.1978	-9.5589	-4.24681	-0.643194
0.4987	-1.18303	-37.7201	-4.72351	-8.33319	43.5897	-72.342	15.0837	-4.97895	-2.11209	-0.643194
0.4993	-1.77455	-35.8902	-7.16594	-12.3002	57.2975	-68.677	8.97622	2.0471	-1.50109	-0.321597
0.5000	-2.36607	-23.0726	-3.1979	-11.0787	58.2461	-38.1727	8.06406	2.34202	-1.19182	-0.321597
0.5007	-3.01674	-25.2082	0.161362	-7.42004	39.6055	0.90216	3.17274	2.0471	-2.11209	-0.643194
0.5013	-2.07031	-22.7669	0.161362	-3.44696	11.8579	23.7945	0.436252	2.96655	-1.80282	-0.643194
0.5020	-1.18303	-21.2427	-0.146693	-1.0099	-6.16612	28.6436	-4.75911	0.815369	1.24462	-0.643194
0.5027	-2.36607	-45.3496	-0.447413	-0.0907096	-12.5694	25.8807	-16.0488	-1.31847	3.68861	-0.321597
0.5033	-2.36607	-43.8254	0.770137	2.04399	-28.127	23.7945	-20.9269	-0.693931	4.91061	-0.643194
0.5040	-1.47879	-19.7143	1.68697	2.95713	-48.5701	21.0316	-14.8326	-1.31847	3.99034	-0.643194
0.5047	-1.47879	-35.5846	0.469417	1.43321	-53.4555	9.13437	-5.36722	-1.0062	3.07761	-0.321597
0.5053	-1.18303	-40.1614	-2.28107	0.520068	-46.7677	-15.2803	-1.70535	-0.693931	2.16489	-0.321597
0.5060	-0.887275	-24.5968	-4.11473	-1.92304	-36.9967	-30.2224	-4.15101	-1.61339	-1.19182	-0.643194
0.5067	-1.47879	-46.878	-2.28107	-3.44696	-30.2614	-25.9935	-1.70535	0.520448	-3.02481	-0.643194
0.5073	-0.532365	-51.7605	-0.146693	-1.0099	-35.4789	-26.5573	8.36811	3.26148	-2.41382	-0.643194
0.5080	0.35491	-20.937	-0.146693	-1.92304	-44.9178	-22.9487	15.9959	3.57374	-2.41382	-0.643194
0.5087	-1.18303	-20.3257	-1.36424	-5.58771	-42.1668	-3.3831	15.0837	2.65429	-0.890094	-0.321597
0.5093	-2.07031	-39.8557	-2.28107	-5.2793	-27.8424	2.08625	14.7797	1.12764	0.0226295	-0.321597
0.5100	-1.77455	-30.3964	-0.447413	-2.23146	-18.9727	-4.00334	17.5162	0.208179	0.3319	-0.643194
0.5107	-1.77455	-20.6313	0.469417	3.87632	-21.4391	5.46935	14.1716	-0.39901	4.29961	-0.643194
0.5113	-1.18303	-25.8195	-1.36424	6.6218	-20.4905	32.6469	6.53056	-1.92566	7.34705	-0.643194
0.5120	-1.18303	-30.3964	-4.41545	-1.62068	-6.78273	58.584	-0.489131	-3.74723	2.16489	-0.643194
0.5127	-1.77455	-47.4852	-6.54983	-7.42004	4.83803	63.1512	-5.06317	-3.45231	-3.33408	-0.643194
0.5133	-2.07031	-50.2321	-3.1979	0.211656	2.08699	59.1479	-4.15101	-1.31847	-0.588368	-0.964791
0.5140	-2.36607	-26.1252	0.469417	7.23258	-4.31628	73.1878	-0.489131	0.815369	3.99034	-0.964791
0.5147	-2.07031	-33.7547	-1.36424	4.4871	-5.54951	91.8512	0.740307	0.815369	2.76834	-0.964791
0.5153	-2.36607	-43.214	-4.11473	-3.1446	-1.89727	86.6638	-4.75911	-0.39901	-1.19182	-0.643194
0.5160	-3.01674	-27.0423	-5.33228	-4.66852	5.73924	50.9157	-17.8731	0.208179	-1.19182	-0.643194
0.5167	-3.31249	-41.6898	-10.2171	0.211656	12.7591	-23.8509	-25.8182	6.01985	1.55389	-0.643194
0.5173	-3.01674	-47.4852	-21.5052	3.56791	17.028	-90.6671	-23.3725	13.6357	3.37934	-0.643194
0.5180	-3.01674	-17.8844	-22.422	2.65477	13.9924	-86.7202	-14.2112	18.8229	2.16489	-0.643194
0.5187	-3.60825	-34.9732	-5.94106	-0.399122	5.40721	-58.6404	-3.22562	13.3408	-2.72309	-1.92958
0.5193	-1.47879	-92.9562	1.99502	-1.31227	3.60481	-48.8858	1.95652	-1.92566	-5.4688	-2.57278
0.5200	2.18861	-61.8312	-5.02423	0.211656	4.83803	-39.6951	2.26058	-5.89841	-3.02481	-0.964791
0.5207	0.650669	-7.8137	-4.72351	-0.701487	0.521749	-31.4628	2.26058	1.12764	-2.72309	-0.321597
0.5213	-3.31249	-46.878	9.31499	-7.42004	-1.89727	-21.3699	1.04436	0.815369	-5.77053	-1.60799
0.5220	-3.60825	-86.2438	14.8086	-11.6894	-3.13049	2.70648	-2.31346	0.520448	-6.99252	-2.25118
0.5227	-3.01674	-60.6085	4.1294	-7.11163	-10.767	28.0234	-0.793186	21.8762	-4.55608	-0.964791
0.5233	-2.72098	-32.2263	-5.02423	-1.92304	-17.4549	31.0681	4.70624	58.2035	-2.11209	-0.321597
0.5240	-2.07031	-24.5968	-6.24911	-3.1446	-15.6525	26.219	10.8138	76.5059	-2.11209	-0.964791
0.5247	-1.77455	-32.5319	-0.447413	-5.2793	-7.68393	30.7862	21.4953	66.1316	-2.11209	-0.643194
0.5253	0.0591517	-39.8557	7.48133	-6.50085	-4.9329	17.6485	21.4953	27.9828	-1.19182	-0.643194
0.5260	1.5971	-20.02	5.34695	-7.11163	-7.68393	-2.76287	2.86869	-34.2628	-0.890094	-0.643194
0.5267	0.35491	-32.5319	2.29574	-3.75538	-4.31628	10.9387	-14.2112	-77.3039	1.24462	-0.643194
0.5273	-1.18303	-51.7605	1.68697	0.520068	3.27279	37.8344	-25.5009	-76.6967	3.68861	-0.643194
0.5280	-1.77455	-14.8318	1.07819	1.73558	6.97246	42.4015	-31.9125	-52.2704	3.99034	-0.964791
0.5287	-1.77455	-19.1071	8.09744	3.87632	-0.664044	40.2589	-33.7501	-27.8613	4.29961	-0.964791
0.5293	-1.18303	-58.7786	9.31499	6.6218	-13.4706	48.2092	-32.2166	-11.0855	4.91061	-0.643194
0.5300	1.5971	-38.6372	-0.755468	6.6218	-9.53377	25.8807	-25.8182	17.2962	6.12506	-0.643194
0.5307	3.07589	-21.8541	1.07819	6.6218	8.77486	-23.2306	-15.1366	49.963	5.21233	-0.964791
0.5313	3.07589	-35.2789	6.26378	4.4871	18.8778	-40.9355	2.86869	51.7846	0.3319	-0.964791
0.5320	3.4308	-25.5139	1.99502	-8.02477	16.4114	-27.1776	14.7797	24.3223	-5.4688	-0.643194
0.5327	2.18861	-32.2263	2.6038	-18.0996	10.0081	-13.7579	13.5503	-8.32717	-8.51624	-0.643194
0.5333	-0.532365	-51.4548	1.37891	-7.42004	10.9093	-7.04813	30.9475	-33.6557	-7.60352	-0.643194
0.5340	-2.07031	-35.8902	-12.6596	2.65477	28.3167	4.22888	54.4522	-42.8155	-6.99252	-0.643194
0.5347	-2.72098	-33.1433	-15.0947	-1.92304	42.6411	14.6037	38.2712	-38.8428	-6.0798	-0.643194
0.5353	-3.01674	-40.1614	1.68697	-5.58771	41.7399	10.9387	2.56463	-38.5479	-4.8578	-0.643194
0.5360	-1.47879	-28.5665	9.62304	-2.53382	34.72	3.32672	-15.1366	-39.7622	-3.33408	-0.643194
0.5367	-0.236607	-31.9248	5.04623	4.4871	24.0479	-7.33005	-20.9269	-33.6557	3.68861	-0.321597
0.5373	-0.532365	-27.9551	0.161362	7.53494	13.0437	-33.3235	-21.8391	-27.5491	10.0928	-0.643194
0.5380	-0.887275	-8.42506	-0.146693	4.17869	-1.28066	-51.9306	-18.1772	-21.7547	8.26732	-0.643194
0.5387	-0.532365	-20.937	-0.447413	-0.399122	-17.1703	-45.5027	-13.2991	-15.6481	2.46662	-0.643194
0.5393	-0.532365	-50.5378	-4.72351	-1.62068	-24.8068	-27.7978	-9.63721	-13.2194	1.55389	-0.643194
0.5400	-0.532365	-34.366	-4.72351	2.34635	-24.4748	-16.8027	-6.58344	-11.6927	4.60134	-0.964791
0.5407	-1.47879	-22.1556	-1.97302	3.87632	-20.8225	-26.2754	-4.15101	-10.1661	4.60134	-0.964791
0.5413	-1.77455	-45.3496	-6.85789	4.17869	-16.2216	-40.3153	-2.61751	-7.71998	2.46662	-0.643194
0.5420	-0.887275	-34.9732	-9.60837	3.26555	-12.9014	-36.6503	-4.75911	-6.19333	1.55389	-0.643194
0.5427	-0.532365	-20.937	-4.72351	-2.84223	-9.53377	-29.0383	-2.61751	-6.5056	0.3319	-0.643194
0.5433	-0.236607	-43.8254	-2.88985	-5.89008	-8.01596	-25.035	4.70624	-4.37177	0.633627	-0.643194
0.5440	-1.47879	-42.9083	-7.77472	-2.53382	-10.767	-20.4678	1.95652	-2.22058	2.16489	-0.964791
0.5447	-3.60825	-31.0077	-15.7108	-0.701487	-13.4706	-18.3251	-10.8534	-1.61339	3.07761	-0.643194
0.5453	-5.1462	-33.1433	-16.3196	-1.0099	-15.3204	-15.2803	-17.5691	-1.0062	2.76834	-0.643194
0.5460	-5.1462	-18.4958	-7.46666	-1.31227	-15.3204	-21.7082	-3.83373	2.34202	0.942897	-0.643194
0.5467	-1.18303	-29.4835	-4.41545	-0.0907096	-8.30055	-32.0831	19.9618	9.68034	-0.279097	-0.964791
0.5473	2.48437	-41.3841	-9.90909	2.04399	-2.79847	-8.90883	27.2856	17.9208	0.3319	-0.643194
0.5480	0.35491	-4.76108	-2.88985	0.822434	-1.89727	50.0135	23.3197	21.269	-0.588368	-0.643194
0.5487	-1.77455	-32.5319	11.4494	-2.23146	-2.51388	107.977	20.874	10.5824	-3.63581	-2.25118
0.5493	0.650669	-97.8429	9.01427	-1.31227	-2.79847	152.24	13.2462	-4.66669	-3.94508	-2.57278
0.5500	0.650669	-64.5781	-6.54983	0.822434	-0.664044	165.039	3.79407	-4.97895	0.3319	-0.643194
0.5507	-2.36607	-27.6494	-15.4027	-1.0099	2.37158	144.628	-1.40129	0.815369	3.37934	-0.321597
0.5513	-3.01674	-38.6372	-1.6723	-3.1446	7.25705	133.012	-3.22562	3.26148	4.29961	-0.643194
0.5520	-4.19977	-23.0726	9.01427	-2.84223	7.87366	140.624	-3.83373	0.520448	3.68861	-0.643194
0.5527	-5.1462	-30.3964	4.73818	-1.62068	2.70361	148.293	-1.09724	-4.0595	2.46662	-0.643194
0.5533	-2.36607	-49.9264	12.975	0.211656	1.13836	163.517	4.40218	0.208179	2.46662	-0.643194
0.5540	-0.532365	-21.5484	17.2511	2.34635	0.521749	165.039	6.84784	10.8947	3.07761	-0.643194
0.5547	-1.18303	-15.1375	1.99502	3.87632	-0.0474317	128.727	2.86869	17.6085	3.07761	-0.643194
0.5553	-1.47879	-45.3496	-17.8452	2.34635	1.47038	83.5626	-5.67128	24.9295	1.85562	-0.643194
0.5560	-0.887275	-38.9429	-29.1332	-2.23146	0.853771	-90.0469	-6.8875	40.196	-0.890094	-0.643194
0.5567	0.35491	-27.0423	-21.2044	-3.75538	-1.28066	-355.846	-0.171857	45.9903	-0.890094	-0.643194
0.5573	1.30134	-38.9429	-7.77472	-2.23146	-1.28066	-358.609	2.26058	27.9828	0.633627	-0.643194
0.5580	1.30134	-27.9551	8.09744	-2.23146	-0.664044	-173.046	-1.09724	10.2875	0.3319	-0.643194
0.5587	-0.532365	-22.1556	30.0647	-2.84223	-4.31628	-90.0469	-5.36722	2.0471	-1.80282	-0.643194
0.5593	-3.01674	-49.0136	22.1359	-3.75538	-8.01596	-64.4481	-7.19155	-15.9604	-2.72309	-0.643194
0.5600	-3.60825	-49.3192	-3.1979	-2.53382	-3.13049	-40.5972	-1.09724	-31.8341	-2.11209	-0.964791
0.5607	-3.60825	-28.8721	-13.2684	-0.399122	0.853771	-38.7929	3.17274	-29.0757	-0.890094	-0.643194
0.5613	-2.36607	-37.7201	-18.1532	-0.399122	-2.79847	-41.2174	-1.40129	-16.5676	-2.41382	-0.643194
0.5620	-0.532365	-29.4835	-5.02423	-0.399122	-7.39934	-40.9355	-12.0829	0.520448	-4.24681	-0.643194
0.5627	-0.236607	-27.6494	18.1679	0.520068	-9.53377	-46.4049	-19.1026	3.57374	-2.72309	-0.643194
0.5633	-1.18303	-49.3192	16.6423	0.822434	-7.06732	-56.1595	-10.2453	-16.2727	0.942897	-0.321597
0.5640	-2.36607	-39.8557	7.78938	-0.399122	-3.13049	-62.3055	2.26058	-28.7808	1.85562	-0.964791
0.5647	-2.36607	-29.4835	10.5399	-3.75538	-4.03169	-64.1098	8.36811	-19.6209	-0.588368	-0.643194
0.5653	-0.887275	-38.3315	5.04623	-7.11163	-6.78273	-61.6852	16.3	-9.5589	-3.94508	-0.321597
0.5660	-2.07031	-34.6675	-9.30032	-10.1655	-5.26492	-45.7846	14.1716	-7.71998	-6.99252	-0.643194
0.5667	-3.90401	-28.8721	-11.134	-14.4349	3.60481	-24.1328	5.01029	-3.74723	-7.60352	-0.964791
0.5673	-2.36607	-30.3964	-6.24911	-12.3002	10.2927	-17.7613	4.70624	2.34202	-5.4688	-0.643194
0.5680	0.0591517	-16.6659	-4.11473	-1.92304	8.77486	-6.42789	4.40218	-0.39901	-2.41382	-0.643194
0.5687	0.35491	-15.4431	-1.36424	2.95713	5.12262	24.9786	4.40218	-10.7733	-2.11209	-0.643194
0.5693	1.5971	-46.5723	-5.02423	2.34635	0.237158	35.6917	6.84784	-15.6481	-1.50109	-0.643194
0.5700	2.78013	-49.6249	-13.5691	4.78947	-4.64831	16.1261	4.70624	-13.8266	1.85562	-0.643194
0.5707	2.18861	-31.6191	-8.69155	6.01102	-4.31628	12.7994	0.132198	-12.9071	2.16489	-0.964791
0.5713	0.650669	-42.6026	7.48133	3.56791	0.237158	44.8261	-1.70535	-9.24663	-0.279097	-0.964791
0.5720	0.0591517	-38.6372	12.975	-3.75538	2.37158	75.9506	-2.0094	9.0558	-3.02481	-0.643194
0.5727	0.0591517	-25.2082	5.95573	-12.911	0.853771	79.8976	1.95652	31.0361	-5.4688	-0.643194
0.5733	0.650669	-45.9609	-1.06352	-8.02477	0.237158	86.6638	5.92245	38.0621	-1.80282	-0.643194
0.5740	1.5971	-40.4671	-3.1979	4.78947	3.60481	108.598	-3.83373	30.1166	4.60134	-0.643194
0.5747	0.35491	-23.684	1.68697	7.84336	8.49027	109.218	-14.2112	15.7696	5.21233	-0.643194
0.5753	-1.47879	-45.0439	5.95573	3.87632	8.15825	53.9605	-9.94126	2.65429	1.24462	-0.643194
0.5760	-2.72098	-41.0784	-0.447413	2.65477	2.70361	-36.03	1.95652	-5.27388	-0.279097	-0.643194
0.5767	-4.19977	-31.0077	-10.2171	3.56791	-0.379454	-85.1978	10.8138	-4.66669	0.942897	-0.964791
0.5773	-4.85044	-38.0258	-12.0435	2.95713	2.08699	-92.1895	9.28027	-1.0062	0.942897	-0.964791
0.5780	-3.01674	-19.4128	-10.8259	-0.0907096	6.64044	-107.132	5.31434	0.815369	1.24462	-0.643194
0.5787	-2.36607	-27.9551	-11.4347	-1.92304	8.15825	-113.841	1.04436	-0.693931	1.24462	-1.28639
0.5793	-2.36607	-94.7903	-6.24911	-1.31227	10.0081	-89.1447	-7.49561	-4.66669	-1.19182	-2.57278
0.5800	-1.47879	-93.2619	11.1486	1.1248	14.8936	-56.7797	-4.45506	-2.53285	-1.19182	-1.28639
0.5807	-1.18303	-20.02	21.8279	2.34635	14.5615	-36.6503	5.31434	4.18093	-0.890094	-0.321597
0.5813	-0.236607	-16.0545	13.283	-2.23146	5.73924	-22.3285	6.84784	9.68034	-1.80282	-0.964791
0.5820	0.35491	-42.9083	-0.755468	-9.85711	-4.9329	-6.14597	1.34842	9.36807	-0.890094	-0.643194
0.5827	-1.18303	-28.5665	-8.38349	-12.3002	-8.91716	13.4196	-3.83373	5.10039	-0.588368	-0.643194
0.5833	-2.36607	-26.1252	-8.07544	-8.63555	-4.64831	29.2638	-3.22562	2.0471	-1.50109	-0.643194
0.5840	-3.01674	-44.4367	-5.94106	-4.66852	-3.13049	26.501	-1.09724	-0.693931	0.0226295	-0.643194
0.5847	-2.72098	-39.2485	-5.94106	0.211656	-9.53377	10.6568	-2.0094	-1.61339	2.46662	-0.643194
0.5853	-1.47879	-34.6675	-4.72351	1.43321	-17.7869	-2.76287	-5.97533	-1.92566	2.16489	-0.964791
0.5860	-0.532365	-44.131	1.68697	-1.0099	-17.4549	-9.19076	-12.0829	-1.61339	-0.279097	-0.643194
0.5867	-0.236607	-38.3315	5.95573	-1.62068	-7.39934	-12.2355	-7.49561	2.0471	-0.890094	-0.643194
0.5873	0.0591517	-35.8902	-0.146693	-1.31227	-2.18186	-19.5656	1.65247	6.31477	0.3319	-0.643194
0.5880	0.35491	-39.2485	-5.02423	-1.62068	-4.9329	-24.753	1.95652	8.44861	1.24462	-0.643194
0.5887	0.0591517	-29.1778	-1.36424	-2.23146	-6.49814	-18.6634	-0.793186	6.01985	-0.279097	-0.643194
0.5893	-1.47879	-38.3315	3.21257	-2.53382	-5.88153	-7.04813	-3.22562	4.4932	-1.19182	-0.643194
0.5900	-3.01674	-45.9609	5.04623	-1.92304	-4.31628	3.94695	-6.58344	7.5465	0.3319	-0.964791
0.5907	-3.01674	-20.3257	-0.146693	-0.399122	-3.7471	9.13437	-8.72504	8.44861	1.24462	-0.643194
0.5913	-3.90401	-24.5968	-12.3515	0.211656	-4.03169	7.61198	-9.63721	9.0558	0.942897	-0.643194
0.5920	-2.36607	-50.2321	-21.5052	-0.701487	-4.9329	3.60864	-10.5494	22.1884	0.0226295	-0.964791
0.5927	0.946427	-33.449	-23.9476	-2.84223	-5.88153	-0.620235	-7.81288	34.4016	-0.890094	-0.643194
0.5933	0.650669	-23.9896	-23.3388	-3.75538	-2.18186	3.60864	0.132198	27.0633	-0.588368	-0.643194
0.5940	-2.07031	-39.5542	-23.3388	-2.84223	1.75497	11.8409	2.56463	4.4932	0.3319	-0.643194
0.5947	-3.60825	-31.0077	-14.794	-3.44696	1.13836	10.0365	-0.793186	-22.9865	0.0226295	-0.643194
0.5953	-3.31249	-30.0907	2.29574	-4.97693	-0.379454	0.281925	-0.171857	-40.0745	-2.11209	-0.643194
0.5960	-1.47879	-46.5723	7.78938	-4.66852	-0.379454	-3.72141	3.49002	-29.388	-5.15953	-0.643194
0.5967	0.0591517	-35.8902	6.57184	-1.92304	0.237158	-0.620235	5.92245	10.8947	-4.55608	-0.964791
0.5973	-0.236607	-23.684	8.70621	0.520068	-0.0474317	1.80432	1.04436	41.7226	-0.279097	-0.643194
0.5980	-0.236607	-43.8254	7.78938	1.1248	-1.61268	0.90216	-7.19155	39.2765	2.76834	-0.643194
0.5987	0.650669	-39.5542	0.469417	1.1248	-3.7471	-2.48094	-10.2453	24.6346	3.68861	-0.643194
0.5993	-0.532365	-30.0907	-4.41545	-0.701487	-4.31628	-7.04813	-8.72504	-0.693931	1.85562	-0.643194
0.6000	-2.07031	-45.6553	1.37891	-2.53382	-1.61268	-8.2886	-3.83373	-26.9419	-0.890094	-0.643194
0.6007	-2.07031	-27.6494	7.18061	-2.23146	0.853771	-3.3831	-0.171857	-34.2628	-2.41382	-0.643194
0.6013	-3.01674	-19.4128	3.52063	-2.84223	-0.996066	-1.24047	5.01029	-30.9146	-4.24681	-0.643194
0.6020	-3.31249	-50.8435	-5.64034	-5.2793	-3.7471	0.56385	8.67216	-26.6469	-5.77053	-0.643194
0.6027	-1.77455	-41.6898	-14.4859	-5.2793	-6.49814	9.4163	0.740307	-18.7014	-6.38152	-0.643194
0.6033	-1.77455	-16.3602	-16.0115	-2.23146	-7.68393	14.942	-7.49561	-6.80052	-3.94508	-0.321597
0.6040	-3.01674	-39.2485	-12.0435	1.1248	-6.16612	12.7994	-10.8534	3.86867	0.0226295	-0.643194
0.6047	-1.77455	-44.7424	-10.8259	5.40024	-4.9329	4.22888	-16.6569	19.4474	3.37934	-0.964791
0.6053	0.650669	-25.8195	-3.80668	7.23258	-2.18186	-8.2886	-13.9072	44.7759	3.99034	-0.643194
0.6060	0.946427	-35.5846	10.8406	4.4871	20.6802	-10.0929	-1.70535	69.4972	1.55389	-0.321597
0.6067	-0.532365	-47.4852	19.6935	-0.0907096	54.2619	-1.57878	5.6184	70.1044	0.3319	-0.643194
0.6073	-2.07031	-37.113	10.5399	-3.1446	67.9696	3.60864	9.58433	30.7238	0.0226295	-0.643194
0.6080	-2.36607	-37.4145	-10.2171	-2.53382	60.0485	4.56719	15.3878	-17.1748	-0.588368	-0.643194
0.6087	-1.47879	-63.0497	-21.8132	-4.97693	41.7399	6.37151	14.1716	-37.9407	-1.50109	-2.25118
0.6093	0.35491	-75.256	-21.8132	-8.94396	23.4313	13.0813	2.86869	-35.1823	-1.19182	-2.25118
0.6100	-1.47879	-52.0662	-16.0115	-6.50085	8.15825	21.3135	-4.15101	-21.4598	1.24462	-0.643194
0.6107	-5.1462	-28.2608	-5.94106	-2.23146	-7.39934	23.1742	-2.31346	-0.0867414	2.16489	-0.321597
0.6113	-4.19977	-25.8195	5.04623	-0.399122	-22.6723	15.8442	7.76	10.2875	0.3319	-0.643194
0.6120	-3.31249	-39.8557	9.92376	1.1248	-38.8466	6.99174	15.3878	-17.1748	-1.50109	-0.964791
0.6127	-4.85044	-44.4367	9.01427	2.34635	-46.151	11.5589	4.70624	-45.2617	-0.588368	-0.964791
0.6133	-4.55468	-27.6494	5.04623	0.822434	-35.4789	32.6469	-5.06317	-10.461	1.24462	-0.643194
0.6140	-1.47879	-30.0907	1.37891	-0.701487	-20.4905	42.6835	-5.36722	35.0088	2.46662	-0.643194
0.6147	0.650669	-40.7728	9.92376	0.822434	-17.7869	39.0184	-12.3869	32.2504	4.91061	-0.643194
0.6153	1.5971	-29.785	18.1679	2.65477	-30.878	44.8261	-20.6228	26.7684	6.73605	-0.643194
0.6160	1.30134	-38.0258	5.95573	2.34635	-40.0324	51.8742	-19.1026	11.5019	6.12506	-0.643194
0.6167	-0.236607	-52.979	-5.64034	1.73558	-26.6092	59.1479	-10.5494	-32.7535	4.60134	-0.643194
0.6173	-1.47879	-28.2608	-8.07544	0.211656	-8.30055	70.143	-4.75911	-45.8688	2.76834	-0.321597
0.6180	-3.01674	-22.4612	-17.5371	-1.62068	-4.64831	65.5758	-3.22562	-19.9332	1.24462	-0.643194
0.6187	-4.85044	-48.7079	-24.5564	-2.84223	-9.20175	30.5043	-0.171857	-7.11279	-1.19182	-0.964791
0.6193	-6.03347	-36.8073	-17.5371	-4.97693	-10.767	-48.8858	5.6184	-16.2727	-4.55608	-0.964791
0.6200	-4.55468	-24.5968	5.04623	-7.11163	-6.49814	-112.319	13.8543	-26.6469	-3.02481	-0.643194
0.6207	0.35491	-41.9955	25.7959	-4.36615	-1.61268	-96.1365	16.604	-31.2269	1.55389	-0.321597
0.6213	4.02231	-34.6675	22.7447	2.65477	0.853771	-58.6404	12.334	-25.7275	1.55389	-0.643194
0.6220	3.07589	-28.5665	16.943	4.17869	1.13836	-42.176	5.01029	-10.461	-3.02481	-0.643194
0.6227	1.89285	-44.7424	18.7767	-1.92304	0.853771	-29.6585	-0.793186	4.4932	-6.0798	-0.643194
0.6233	1.5971	-41.3841	11.4494	-4.05774	-0.0474317	-15.2803	2.56463	12.7336	-3.94508	-0.964791
0.6240	1.5971	-34.366	-1.97302	-1.0099	-7.06732	-9.47268	3.49002	15.4747	-0.279097	-0.643194
0.6247	3.72656	-39.8557	-8.07544	0.822434	-14.4192	-13.476	-0.793186	13.3408	1.85562	-0.643194
0.6253	4.61383	-24.5968	-7.16594	0.822434	-14.0872	-14.3782	-2.31346	12.1091	2.76834	-0.964791
0.6260	2.48437	-27.3437	-7.16594	-0.0907096	-9.20175	-8.90883	-7.81288	19.7423	2.76834	-0.643194
0.6267	0.35491	-51.1491	-4.11473	0.211656	-5.26492	-1.86071	-12.3869	12.4214	2.76834	-0.643194
0.6273	-0.532365	-39.5542	1.99502	2.65477	-1.28066	1.46601	-5.67128	-13.2194	2.16489	-0.643194
0.6280	-1.77455	-19.4128	2.90452	1.43321	3.8894	-1.86071	5.92245	-25.1203	0.942897	-0.643194
0.6287	-2.72098	-21.2427	-0.755468	-4.66852	3.8894	-8.57052	12.9421	-15.041	-2.11209	-0.643194
0.6293	-1.47879	-30.702	-6.54983	-7.72241	-1.89727	-8.57052	8.67216	-4.97895	-4.55608	-0.643194
0.6300	0.35491	-35.8902	-8.99227	-4.97693	-3.13049	-0.056385	-0.171857	-4.66669	-3.33408	-0.643194
0.6307	0.35491	-33.7547	-7.16594	-2.53382	1.47038	7.8939	-6.27939	2.65429	-1.19182	-0.321597
0.6313	-0.532365	-15.7488	-2.88985	-1.62068	4.50601	7.61198	-9.33315	11.207	-0.279097	-0.321597
0.6320	-1.18303	-19.4128	0.161362	-1.31227	2.08699	-4.62357	-9.33315	5.39531	0.3319	-0.321597
0.6327	-1.77455	-49.6249	-1.06352	-1.92304	-2.18186	-18.3251	-8.42099	-2.84512	0.0226295	-0.643194
0.6333	-2.07031	-43.5197	-5.64034	-1.62068	-2.51388	-15.2803	-5.67128	-7.11279	0.633627	-0.321597
0.6340	-1.47879	-34.6675	-12.3515	0.211656	-1.89727	-7.33005	1.65247	-10.1661	0.633627	-0.321597
0.6347	1.5971	-49.0136	-16.9283	-0.0907096	-2.79847	-14.9984	14.1716	-7.40771	0.0226295	-0.643194
0.6353	3.72656	-34.0603	-17.8452	-3.44696	-3.7471	-23.5126	18.1375	-4.97895	-0.588368	-0.643194
0.6360	1.89285	-27.0423	-15.7108	-4.97693	-5.26492	-25.9935	3.79407	-1.61339	-1.19182	-0.321597
0.6367	0.650669	-52.0662	-2.28107	-3.75538	-4.64831	-26.2754	-4.75911	10.2875	-2.41382	-0.643194
0.6373	1.5971	-41.6898	11.7574	-3.44696	-3.7471	-6.14597	2.26058	23.1079	-4.24681	-0.643194
0.6380	0.946427	-23.3783	4.73818	-4.05774	-3.41508	15.8442	4.40218	32.2504	-4.55608	-1.28639
0.6387	-0.887275	-61.8312	-9.60837	-4.05774	-2.51388	12.7994	-5.67128	32.2504	-3.94508	-2.89437
0.6393	-1.47879	-87.7722	-12.6596	-3.44696	-1.28066	6.37151	-12.691	20.3495	-3.63581	-1.60799
0.6400	-2.36607	-33.1433	-19.0627	-3.1446	0.237158	13.4196	-8.11693	1.73483	-1.80282	0.321597
0.6407	-4.55468	-16.9674	-18.4539	-1.92304	1.47038	12.1792	-3.22562	-17.4871	-0.588368	-1.60799
0.6413	-5.44196	-76.7844	17.2511	-0.0907096	2.08699	1.18409	-2.0094	-23.5937	-0.279097	-2.89437
0.6420	-3.60825	-69.4607	37.7	0.520068	4.50601	-0.958545	-0.171857	-14.746	0.942897	-0.964791
0.6427	-2.07031	-27.6494	9.62304	0.520068	7.25705	0.281925	-3.83373	-5.89841	1.85562	-0.321597
0.6433	-1.18303	-40.1614	-13.5691	1.43321	9.39148	6.08958	-9.0291	-4.0595	1.85562	-0.643194
0.6440	0.0591517	-31.0077	-15.7108	2.04399	7.54164	20.1295	-10.2453	-5.89841	2.16489	-0.643194
0.6447	0.0591517	-23.0726	-17.8452	2.34635	2.9882	28.3617	-14.8326	-6.5056	2.46662	-0.321597
0.6453	-1.18303	-39.5542	-21.8132	1.1248	-0.379454	19.7911	-11.7788	-4.37177	1.24462	-0.321597
0.6460	-2.36607	-22.4612	-20.2876	-1.31227	-1.89727	2.08625	6.22651	-0.693931	-2.11209	-0.643194
0.6467	-2.72098	-26.7366	-10.2171	-2.53382	-1.89727	-4.62357	18.4416	2.65429	-3.33408	-0.964791
0.6473	-1.77455	-45.3496	-10.8259	-7.11163	-1.28066	-0.056385	15.9959	2.65429	-2.41382	-0.643194
0.6480	-2.72098	-13.6132	-33.1012	-11.0787	-1.89727	3.60864	10.8138	3.57374	-2.11209	-0.643194
0.6487	-3.60825	-5.06676	-34.3261	-1.92304	-3.13049	6.08958	3.17274	8.15369	0.0226295	-0.643194
0.6493	-1.77455	-49.3192	8.39816	6.01102	-4.31628	7.8939	-7.49561	9.68034	1.85562	-0.643194
0.6500	-0.532365	-47.4852	38.6095	2.95713	-4.03169	3.04479	-4.15101	9.0558	1.55389	-0.643194
0.6507	-2.36607	-27.3437	20.3023	-0.0907096	-2.18186	-4.00334	8.97622	11.207	2.46662	-0.643194
0.6513	-4.19977	-37.4145	-3.80668	1.1248	-0.664044	-4.9055	9.28027	8.76088	2.76834	-0.964791
0.6520	-4.55468	-29.1778	-5.94106	2.34635	2.08699	-4.28526	-2.0094	24.6346	2.76834	-0.964791
0.6527	-3.90401	-33.1433	-7.46666	2.04399	5.73924	-4.62357	-9.33315	67.0511	2.76834	-0.643194
0.6533	-3.31249	-57.8615	-13.5691	2.34635	6.35585	-2.76287	-9.0291	77.7203	3.37934	-0.643194
0.6540	-3.60825	-43.8254	-8.69155	3.56791	5.12262	-1.24047	-5.97533	49.963	4.29961	-0.643194
0.6547	-6.9799	-32.2263	3.21257	3.26555	5.40721	-0.620235	-4.45506	23.1079	3.68861	-0.643194
0.6553	-8.8136	-41.3841	11.4494	1.73558	5.40721	6.37151	-4.15101	-10.461	1.85562	-0.643194
0.6560	-4.85044	-25.5139	19.6935	1.43321	2.70361	11.8409	-3.52968	-54.1093	-0.279097	-0.643194
0.6567	-0.236607	-30.0907	28.5391	0.520068	1.13836	7.61198	1.04436	-70.2779	-0.890094	-0.643194
0.6573	0.650669	-37.7201	22.7447	-1.0099	2.9882	5.13104	5.31434	-55.3236	-1.19182	-0.643194
0.6580	-0.236607	-16.9674	6.57184	-1.62068	4.22142	7.27367	6.84784	-47.6904	-3.02481	-0.643194
0.6587	-0.236607	-17.5787	-3.1979	-2.84223	1.75497	5.13104	8.67216	-60.8231	-3.63581	-0.643194
0.6593	-1.18303	-46.2666	-0.755468	-4.66852	-1.89727	3.04479	5.92245	-80.6521	-2.72309	-0.643194
0.6600	-1.77455	-45.6553	8.39816	-5.2793	-0.996066	8.79606	0.132198	-79.75	-1.80282	-0.643194
0.6607	-1.47879	-23.0726	-0.755468	-3.75538	2.08699	14.3218	-1.09724	-26.9419	-0.890094	-0.964791
0.6613	-1.47879	-35.2789	-26.6981	-2.53382	0.853771	26.219	-2.0094	44.7759	0.3319	-0.643194
0.6620	-2.36607	-40.1614	-26.082	-1.62068	-1.61268	46.9687	-4.45506	74.9792	0.3319	-0.964791
0.6627	-3.31249	-24.9025	1.37891	-1.92304	-1.61268	52.1561	-4.75911	96.3523	-1.80282	-0.964791
0.6633	-1.47879	-39.5542	21.5198	-2.23146	0.853771	44.2059	-5.67128	117.101	-1.19182	-0.643194
0.6640	0.35491	-46.2666	24.5784	-1.62068	3.60481	24.6966	-8.42099	93.5939	0.633627	-0.643194
0.6647	0.650669	-31.9248	12.0655	-0.399122	4.83803	-0.056385	-8.11693	48.7313	-0.279097	-0.964791
0.6653	-0.236607	-33.7547	-0.146693	-0.399122	4.22142	-4.00334	-5.36722	21.8762	-1.50109	-0.964791
0.6660	-3.60825	-27.3437	-0.755468	-4.36615	2.08699	8.23221	-5.97533	19.7423	-3.94508	-0.643194
0.6667	-3.90401	-24.5968	-4.72351	-8.02477	1.13836	25.3169	-0.171857	18.2157	-5.77053	-0.321597
0.6673	0.35491	-45.3496	-19.9796	-7.72241	1.13836	28.9819	7.15189	-4.37177	-5.15953	-0.964791
0.6680	3.4308	-47.4852	-22.422	-4.36615	-0.664044	-0.056385	6.22651	-33.3607	-1.80282	-1.92958
0.6687	0.35491	-27.0423	1.07819	-2.84223	-3.13049	-35.7481	9.28027	-48.9221	1.55389	-0.964791
0.6693	-5.73771	-39.5542	23.0454	-3.1446	-5.26492	-42.4579	12.9421	-48.9221	0.633627	-0.321597
0.6700	-6.03347	-51.7605	22.1359	-3.75538	-5.54951	-33.3235	7.45595	-46.476	-2.72309	-0.643194
0.6707	-4.85044	-28.5665	14.1999	-1.31227	-5.26492	-46.4049	-3.83373	-49.8416	-2.41382	-0.643194
0.6713	-5.73771	-18.1901	17.8598	4.78947	-4.31628	-78.488	-11.4748	-45.8688	2.76834	-0.643194
0.6720	-4.85044	-24.2953	15.7255	6.6218	0.853771	-92.8097	-11.4748	-27.2541	5.82333	-0.643194
0.6727	-1.47879	-25.2082	3.52063	2.65477	6.64044	-76.6272	-6.8875	-8.03225	2.46662	-0.643194
0.6733	1.5971	-42.9083	-1.36424	0.520068	11.8579	-49.4497	3.17274	-4.0595	-0.279097	-0.964791
0.6740	4.31807	-49.0136	-3.1979	1.1248	26.1823	-21.088	9.88838	-5.58614	0.0226295	-0.643194
0.6747	3.4308	-30.0907	-7.46666	-0.0907096	45.1075	-0.958545	2.86869	-4.97895	0.3319	-0.964791
0.6753	0.35491	-65.491	-5.33228	-1.92304	51.7954	-14.9984	-9.94126	-9.85382	-2.41382	-2.57278
0.6760	1.30134	-92.349	-9.30032	-1.31227	43.5897	-41.2174	-14.8326	-10.461	-4.8578	-1.60799
0.6767	0.946427	-44.7424	-21.2044	1.1248	25.2811	-38.7929	-10.5494	-5.27388	-2.11209	-0.321597
0.6773	-3.60825	-28.2608	-4.41545	0.520068	10.2927	-20.8061	-6.27939	-4.97895	2.16489	-0.643194
0.6780	-4.85044	-28.5665	28.5391	-1.92304	2.70361	-8.57052	0.132198	-9.5589	3.37934	-0.643194
0.6787	-1.77455	-9.94927	26.7127	-4.66852	-10.767	-2.48094	9.58433	-10.1661	0.633627	-0.643194
0.6793	0.650669	-34.0603	3.52063	-6.19849	-27.2258	9.13437	9.88838	-3.45231	-1.50109	-0.643194
0.6800	2.78013	-54.5074	-7.16594	-2.23146	-35.4789	26.8393	0.132198	8.44861	0.633627	-0.643194
0.6807	3.4308	-24.2953	-5.94106	2.95713	-39.1311	29.2638	-7.49561	20.0546	3.99034	-0.321597
0.6813	2.78013	-18.8014	-5.64034	2.95713	-39.4157	16.1261	-9.94126	35.3037	3.37934	-0.643194
0.6820	2.18861	-38.3315	-10.2171	0.211656	-32.7279	5.46935	-12.3869	53.9184	0.633627	-0.964791
0.6827	-0.236607	-27.0423	-19.0627	-1.62068	-25.376	-0.056385	-17.265	51.1774	-0.890094	-0.643194
0.6833	-2.07031	-25.5139	-26.082	-1.31227	-20.2059	-3.72141	-16.961	11.207	-0.279097	-0.643194
0.6840	-1.77455	-48.7079	-18.1532	0.822434	-14.7038	-5.24381	-1.09724	-46.476	1.55389	-0.964791
0.6847	-1.47879	-40.7728	-1.36424	1.43321	-13.4706	-9.47268	18.4416	-80.6521	0.942897	-0.964791
0.6853	-0.236607	-28.8721	6.26378	-0.0907096	-15.3204	-15.2803	23.3197	-64.4835	-1.19182	-0.643194
0.6860	0.35491	-39.8557	8.39816	-1.62068	-16.8383	-14.9984	11.7259	-32.129	-3.33408	-0.643194
0.6867	-0.887275	-37.7201	12.6743	-0.0907096	-16.5537	-11.6153	0.436252	-12.2999	-2.41382	-0.964791
0.6873	-1.18303	-31.0077	6.87256	2.34635	-12.9014	-11.6153	-3.52968	5.10039	0.633627	-0.643194
0.6880	-0.887275	-34.366	-7.16594	0.211656	-9.20175	-12.2355	-2.61751	19.4474	0.0226295	-0.643194
0.6887	-0.236607	-21.8541	-18.4539	-4.36615	-8.01596	-4.62357	2.86869	26.1612	-2.41382	-0.643194
0.6893	0.35491	-30.0907	-26.6981	-4.36615	-7.39934	10.9387	1.65247	30.4289	-1.80282	-0.964791
0.6900	0.0591517	-52.3719	-30.3581	0.520068	-2.18186	24.6966	-6.27939	29.8217	0.0226295	-0.643194
0.6907	-3.31249	-22.7669	-28.2237	4.17869	3.60481	39.6387	-8.72504	24.01	2.16489	-0.643194
0.6913	-5.44196	-1.10129	-25.1725	5.40024	4.50601	41.7813	1.34842	20.6618	3.07761	-0.643194
0.6920	-2.72098	-31.9248	-18.762	3.87632	0.521749	14.6037	17.5162	11.207	0.942897	-0.321597
0.6927	-0.236607	-38.3315	-10.5179	-1.62068	-2.51388	-7.95029	21.4953	0.815369	-2.11209	-0.643194
0.6933	-1.47879	-27.6494	-21.2044	-7.42004	-0.996066	-9.19076	14.4756	3.86867	-2.41382	-0.643194
0.6940	-3.60825	-42.297	-13.8771	-8.33319	0.237158	-15.9006	12.334	13.6357	-1.50109	-0.643194
0.6947	-3.31249	-32.5319	26.7127	-6.19849	-1.28066	-18.9454	14.7797	28.295	-0.890094	-0.643194
0.6953	1.30134	-25.8195	27.3215	-4.36615	-2.51388	0.90216	9.88838	31.0361	0.3319	-0.964791
0.6960	2.78013	-47.7908	-2.58913	-3.44696	-2.18186	24.9786	0.436252	20.0546	0.633627	-0.643194
0.6967	-0.532365	-49.6249	3.21257	-2.84223	-0.996066	34.4512	-3.83373	20.3495	0.3319	-0.643194
0.6973	-0.532365	-25.2082	22.1359	-0.399122	-2.79847	29.8841	-5.36722	28.295	1.85562	-0.321597
0.6980	4.31807	-23.0726	8.09744	0.822434	-6.78273	16.4644	-7.49561	21.5813	2.46662	-1.28639
0.6987	4.61383	-68.2379	-16.6203	-1.92304	-5.54951	4.84911	-9.33315	-4.37177	-0.890094	-2.57278
0.6993	-1.47879	-76.1731	-24.5564	-6.19849	-1.28066	-2.76287	-6.8875	-16.5676	-4.24681	-1.60799
0.7000	-6.68414	-49.0136	-23.3388	-8.02477	0.237158	-6.7662	4.09813	-5.89841	-3.63581	-0.321597
0.7007	-7.27566	-39.2485	-9.90909	-4.36615	-0.0474317	-3.72141	7.15189	-11.9877	-0.279097	-0.643194
0.7013	-5.1462	-26.7366	23.0454	3.56791	-1.61268	1.46601	-4.45506	-31.2269	2.16489	-0.964791
0.7020	-2.07031	-34.9732	45.6288	6.31339	-4.03169	2.08625	-15.4407	-35.7895	3.37934	-0.643194
0.7027	-0.532365	-43.5197	32.5071	2.34635	-5.26492	1.18409	-17.8731	-28.1736	3.07761	-0.964791
0.7033	-0.236607	-26.1252	9.31499	0.211656	-4.64831	3.32672	-9.0291	-18.7014	3.07761	-0.964791
0.7040	-0.532365	-38.9429	1.37891	0.520068	-2.18186	4.56719	4.40218	-9.85382	3.68861	-0.643194
0.7047	-0.532365	-49.3192	3.82135	0.822434	-0.0474317	1.46601	11.7259	-2.53285	2.16489	-0.643194
0.7053	-0.887275	-25.5139	4.43012	-0.0907096	3.27279	-3.10118	10.1924	1.12764	-0.279097	-0.964791
0.7060	-1.47879	-34.6675	2.6038	-1.62068	11.5259	-4.62357	3.79407	13.6357	-1.50109	-0.964791
0.7067	-2.07031	-55.726	-1.97302	-2.23146	17.9292	-1.86071	0.132198	43.2492	-0.279097	-0.643194
0.7073	-0.887275	-31.3134	-9.90909	-0.701487	17.3126	1.80432	-2.0094	53.0163	1.85562	-0.643194
0.7080	0.0591517	-13.3076	-12.3515	-0.0907096	14.8936	0.56385	-1.40129	16.3941	1.85562	-0.643194
0.7087	0.0591517	-38.6372	-11.7428	-1.92304	10.0081	-7.33005	8.97622	-40.3694	-1.50109	-0.643194
0.7093	-0.532365	-39.5542	-19.9796	-3.1446	2.9882	-13.476	12.6381	-66.0102	-5.4688	-0.643194
0.7100	-3.90401	-26.7366	-20.5883	-1.62068	-1.28066	-6.42789	1.04436	-49.8416	-4.55608	-0.321597
0.7107	-6.03347	-42.6026	3.52063	-0.399122	-4.31628	3.94695	-9.94126	-28.7808	-1.50109	-0.321597
0.7113	-3.31249	-31.0077	20.9111	0.822434	-8.01596	5.75127	-12.995	-14.4338	0.942897	-0.643194
0.7120	0.0591517	-28.2608	13.283	2.95713	-9.81836	8.51414	-12.995	-7.40771	2.46662	-0.643194
0.7127	1.30134	-52.6734	3.52063	2.34635	-10.767	18.2687	-13.9072	-9.24663	1.24462	-0.643194
0.7133	0.650669	-40.1614	-1.36424	1.43321	-12.5694	24.9786	-10.5494	-1.0062	-0.279097	-0.643194
0.7140	0.650669	-26.7366	-8.38349	2.34635	-15.3204	17.0283	-6.8875	11.8142	0.942897	-0.643194
0.7147	1.5971	-38.9429	-13.8771	1.1248	-13.186	1.18409	-4.75911	14.8675	2.46662	-0.643194
0.7153	0.946427	-32.8376	-16.0115	-3.44696	-8.91716	-9.19076	-0.171857	6.01985	0.0226295	-0.321597
0.7160	-0.532365	-33.449	-9.30032	-9.85711	-7.06732	-3.72141	-1.70535	-0.39901	-3.63581	-0.964791
0.7167	-0.532365	-51.1491	9.62304	-12.3002	-3.7471	20.4114	-2.92157	3.57374	-3.02481	-0.643194
0.7173	-0.236607	-32.2263	13.283	-12.3002	2.08699	41.443	8.97622	-7.40771	-1.80282	-0.643194
0.7180	-2.72098	-16.9674	0.161362	-15.6565	5.40721	49.7316	13.8543	-23.5937	-3.63581	-0.643194
0.7187	-4.55468	-46.878	-1.97302	-13.5218	4.83803	57.6255	3.49002	-15.6481	-5.77053	-0.643194
0.7193	-3.31249	-48.7079	-1.36424	-0.399122	-0.379454	48.4911	-5.97533	4.4932	-3.63581	-0.643194
0.7200	-2.07031	-27.3437	-6.85789	9.97805	-5.88153	8.79606	-8.11693	20.0546	1.55389	-0.643194
0.7207	-1.47879	-41.6898	-6.24911	9.66964	-7.06732	-25.3733	-5.97533	29.1971	5.21233	-0.643194
0.7213	0.35491	-37.7201	-3.1979	6.31339	-6.49814	-27.1776	-2.0094	32.5627	4.60134	-0.964791
0.7220	1.5971	-21.2427	-6.54983	2.95713	-6.78273	-7.66836	-1.09724	30.1166	2.46662	-0.964791
0.7227	0.946427	-39.5542	-3.80668	-0.701487	-4.64831	18.6071	-4.45506	18.528	0.0226295	-0.964791
0.7233	-0.236607	-46.878	4.1294	-1.92304	0.853771	41.1611	-5.97533	8.76088	-0.588368	-0.964791
0.7240	-0.236607	-27.3437	-0.146693	-0.701487	4.83803	55.4829	-2.61751	7.23423	0.942897	-0.964791
0.7247	-2.07031	-31.9248	-5.02423	0.520068	4.83803	50.2954	1.34842	-8.03225	2.16489	-0.643194
0.7253	-2.72098	-33.1433	-1.36424	-0.0907096	3.60481	24.9786	1.65247	-32.4413	1.85562	-0.964791
0.7260	-0.887275	-24.2953	-12.0435	-1.62068	1.13836	-32.7033	-0.489131	-31.5218	0.0226295	-0.643194
0.7267	1.5971	-47.4852	-34.6268	-1.62068	-0.379454	-105.947	-0.793186	-4.37177	-0.588368	-0.643194
0.7273	5.2645	-47.7908	-44.3966	-0.701487	0.521749	-118.465	-1.40129	17.9208	0.0226295	-0.964791
0.7280	7.0982	-20.6313	-46.2229	-0.701487	0.853771	-81.5327	-3.22562	20.6618	-0.588368	-0.643194
0.7287	3.4308	-39.2485	-37.0693	-2.23146	-0.996066	-52.2125	-8.42099	7.23423	-1.80282	-1.60799
0.7293	-4.55468	-90.5149	-2.28107	-3.1446	-1.89727	-34.8459	-19.7107	-14.4338	-2.72309	-2.57278
0.7300	-9.10936	-78.92	30.9815	-2.53382	1.75497	-22.6104	-18.7985	-22.9865	-1.80282	-1.28639
0.7307	-6.68414	-42.297	35.8664	-0.701487	4.83803	-18.0432	-7.49561	-13.8266	-0.588368	-0.321597
0.7313	-3.60825	-40.1614	27.3215	0.520068	3.60481	-17.7613	-5.67128	-5.58614	-0.890094	-0.964791
0.7320	-5.1462	-23.9896	28.2384	0.211656	1.47038	-18.0432	-9.33315	-1.31847	-1.19182	-0.643194
0.7327	-7.27566	-20.937	29.1552	-2.23146	-0.664044	-20.1858	-3.83373	-1.0062	-2.41382	-0.643194
0.7333	-5.1462	-44.131	19.6935	-6.50085	-0.0474317	-17.423	13.8543	-3.45231	-4.24681	-0.964791
0.7340	-2.07031	-36.8073	4.1294	-6.80927	2.08699	-7.04813	24.5359	-4.0595	-3.02481	-0.643194
0.7347	-2.36607	-29.1778	-9.60837	-1.92304	2.70361	6.37151	16.604	0.815369	-0.588368	-0.643194
0.7353	-2.72098	-31.0077	-16.0115	0.211656	2.08699	13.9835	7.15189	4.18093	0.0226295	-0.643194
0.7360	-3.31249	-18.4958	-14.4859	-0.701487	-0.379454	7.61198	4.40218	-11.6927	-0.890094	-0.643194
0.7367	-5.73771	-38.6372	-2.28107	-0.0907096	-0.0474317	2.08625	4.40218	-25.1203	-0.890094	-0.643194
0.7373	-3.90401	-41.0784	3.52063	-0.399122	3.60481	3.32672	1.65247	-17.4871	0.0226295	-0.643194
0.7380	0.946427	-18.4958	-1.36424	-3.1446	5.12262	-0.620235	1.04436	-6.19333	0.3319	-0.643194
0.7387	2.78013	-31.9248	-11.4347	-3.75538	2.9882	-2.14263	1.95652	-5.27388	0.633627	-0.964791
0.7393	-0.887275	-47.4852	-34.018	-2.84223	-0.0474317	-4.00334	0.740307	-14.1215	0.3319	-0.643194
0.7400	-4.85044	-34.9732	-35.5437	-1.92304	-0.996066	-11.9536	2.26058	-16.2727	0.3319	-0.643194
0.7407	-3.90401	-27.0423	-5.33228	-0.701487	-1.28066	-12.8558	4.09813	-6.80052	2.46662	-0.964791
0.7413	-2.36607	-41.0784	9.01427	1.1248	-1.28066	-8.90883	2.26058	1.43991	4.60134	-0.643194
0.7420	-3.60825	-34.366	7.78938	1.1248	-0.379454	-10.0929	0.740307	11.207	3.37934	-0.643194
0.7427	-3.01674	-25.5139	17.5591	0.520068	-1.61268	-8.90883	-2.92157	26.4561	1.24462	-0.643194
0.7433	0.946427	-44.4367	15.7255	1.43321	-2.18186	-2.48094	-5.06317	46.9097	1.24462	-0.964791
0.7440	1.30134	-33.1433	-3.49862	2.34635	-4.31628	-1.57878	-2.61751	67.6583	2.46662	-0.643194
0.7447	-0.887275	-15.1375	-8.38349	1.43321	-8.91716	-10.7132	4.09813	68.2655	1.55389	-0.643194
0.7453	-1.18303	-29.785	2.6038	-0.701487	-9.81836	-20.1858	11.1178	44.1514	-0.890094	-0.643194
0.7460	-1.77455	-27.9551	9.92376	-2.53382	-7.39934	-21.9902	11.1178	-2.84512	-3.33408	-0.964791
0.7467	-3.90401	-26.7366	6.26378	-1.31227	-4.64831	-10.7132	8.36811	-50.4488	-2.41382	-0.643194
0.7473	-3.31249	-36.1959	-2.88985	1.1248	-2.51388	6.37151	-0.489131	-63.5641	1.55389	-0.643194
0.7480	-1.77455	-31.6191	-15.4027	0.822434	-0.379454	11.5589	-12.0829	-58.082	2.76834	-0.643194
0.7487	-0.887275	-25.2082	-27.3069	-1.0099	17.028	7.8939	-9.63721	-43.4227	0.3319	-0.643194
0.7493	0.0591517	-39.5542	-28.8325	-2.53382	48.7598	5.75127	-2.92157	-4.97895	-2.41382	-0.964791
0.7500	0.946427	-51.4548	-24.8644	-3.1446	67.9696	6.37151	-2.92157	20.6618	-2.72309	-0.964791
0.7507	1.89285	-36.8073	-19.3708	-2.84223	63.7008	11.8409	-2.92157	9.36807	-0.279097	-0.964791
0.7513	1.30134	-41.0784	-9.90909	-3.1446	43.8743	13.0813	-3.83373	-2.53285	2.16489	-0.643194
0.7520	1.30134	-40.1614	0.161362	-2.53382	17.6446	0.90216	-6.8875	0.520448	1.55389	-0.643194
0.7527	1.30134	-24.2953	5.65501	-1.92304	-6.49814	-8.2886	-7.81288	3.86867	-0.279097	-0.643194
0.7533	-2.72098	-45.0439	2.90452	-1.62068	-22.3403	-4.00334	-3.52968	4.18093	-0.279097	-0.643194
0.7540	-5.1462	-53.5904	-17.5371	-1.62068	-29.3602	-0.958545	-2.61751	-1.0062	0.0226295	-0.643194
0.7547	-3.31249	-30.3964	-24.5564	-0.701487	-32.7279	1.46601	-6.8875	-11.3805	-0.279097	-0.643194
0.7553	0.35491	-34.9732	9.01427	0.520068	-35.4789	11.277	-9.63721	-15.9604	-0.279097	-0.643194
0.7560	3.4308	-41.3841	26.7127	-0.0907096	-33.6291	16.4644	-12.995	-11.6927	-1.19182	-0.321597
0.7567	3.4308	-34.9732	16.6423	-0.701487	-26.6092	16.1261	-13.6031	-7.40771	-2.72309	-0.643194
0.7573	0.35491	-21.2427	23.0454	1.43321	-17.4549	19.5092	-9.94126	-4.97895	-2.11209	-0.643194
0.7580	-2.36607	-20.3257	28.5391	1.73558	-12.5694	17.0283	-3.83373	-5.89841	-1.19182	-1.28639
0.7587	-1.18303	-66.408	14.1999	-3.75538	-13.186	4.56719	10.1924	-11.6927	-3.33408	-2.57278
0.7593	0.946427	-83.1911	-1.06352	-7.11163	-14.7038	1.80432	26.0694	1.73483	-5.4688	-1.60799
0.7600	0.0591517	-51.7605	-11.134	-5.89008	-16.2216	12.4611	31.2515	49.3385	-4.24681	-0.321597
0.7607	-1.18303	-27.9551	-16.6203	-4.66852	-17.1703	30.166	19.3537	89.014	-2.11209	-0.643194
0.7613	-0.887275	-37.4145	-2.88985	-5.58771	-16.8383	57.9638	1.04436	76.211	-0.890094	-0.643194
0.7620	-0.887275	-44.7424	19.9942	-6.19849	-15.0358	77.473	-8.11693	26.7684	-0.588368	-0.643194
0.7627	-0.887275	-23.3783	18.4686	-3.44696	-8.63257	66.196	-11.4748	-29.0757	0.3319	-0.643194
0.7633	-1.77455	-31.6191	1.37891	-0.0907096	-1.61268	22.554	-10.2453	-64.4835	1.55389	-0.643194
0.7640	-3.01674	-43.214	-7.77472	0.822434	3.27279	-39.4131	-3.52968	-53.5021	2.46662	-0.643194
0.7647	-3.01674	-23.0726	-2.58913	0.520068	8.15825	-76.9656	0.740307	-29.9952	3.07761	-0.964791
0.7653	-1.47879	-32.8376	4.1294	-1.0099	11.8579	-73.3005	1.95652	-25.4152	2.16489	-0.964791
0.7660	0.35491	-40.7728	-5.64034	-3.44696	7.54164	-53.1147	0.436252	-20.5404	-0.588368	-0.643194
0.7667	-0.887275	-26.1252	-4.41545	-2.84223	-1.28066	-31.4628	-0.489131	-7.11279	-0.890094	-0.643194
0.7673	-2.72098	-39.2485	11.4494	0.211656	-5.54951	-17.141	3.79407	3.57374	1.85562	-0.964791
0.7680	-0.532365	-37.113	9.62304	0.520068	-5.54951	-11.9536	6.84784	4.78812	1.85562	-0.643194
0.7687	1.89285	-5.67812	-1.6723	-1.0099	-4.64831	-11.3334	5.92245	-7.40771	0.633627	-0.643194
0.7693	2.48437	-22.7669	-7.46666	-2.53382	-8.01596	-12.8558	2.26058	-34.8874	-0.279097	-0.643194
0.7700	1.89285	-72.5133	-10.5179	-2.53382	-16.2216	-10.7132	-2.92157	-65.403	-1.19182	-1.92958
0.7707	0.946427	-67.9323	-6.85789	-0.0907096	-19.9213	-6.7662	-2.92157	-61.4302	0.3319	-1.60799
0.7713	0.0591517	-29.4835	-1.97302	1.1248	-16.2216	-7.95029	2.56463	-10.1661	2.16489	-0.643194
0.7720	-3.31249	-29.4835	-12.0435	0.822434	-8.63257	-8.57052	2.56463	29.1971	2.16489	-0.643194
0.7727	-6.03347	-37.7201	-25.7813	-1.31227	-3.13049	-6.7662	-4.45506	42.937	0.0226295	-0.964791
0.7733	-5.73771	-38.0258	-26.39	-2.53382	-1.61268	-4.28526	-5.36722	55.1502	-1.19182	-0.643194
0.7740	-1.77455	-46.2666	-21.2044	-0.701487	-1.28066	-3.72141	1.95652	53.6235	-0.279097	-0.643194
0.7747	0.650669	-34.6675	-0.447413	0.822434	-1.89727	-7.04813	4.09813	31.9555	0.633627	-0.643194
0.7753	-0.532365	-34.366	30.6808	0.822434	-3.41508	-7.04813	-3.22562	2.0471	0.942897	-0.964791
0.7760	0.650669	-48.4022	26.4047	-1.0099	-4.9329	-1.86071	-11.4748	-12.6122	0.0226295	-0.643194
0.7767	1.5971	-36.5016	-1.06352	-2.84223	-3.13049	4.84911	-11.1575	-7.11279	-0.588368	-0.643194
0.7773	-0.887275	-31.6191	-5.33228	-1.92304	1.75497	10.3185	-5.36722	3.86867	0.0226295	-0.643194
0.7780	-0.532365	-36.5016	9.01427	-1.62068	3.8894	10.3185	-3.52968	14.5552	-0.588368	-0.643194
0.7787	0.946427	-9.3421	19.0847	-2.23146	3.27279	7.61198	-7.19155	17.0013	-1.50109	-0.643194
0.7793	0.650669	-16.0545	13.5911	-0.701487	0.521749	5.75127	-14.2112	14.8675	-1.50109	-0.643194
0.7800	0.650669	-53.8961	3.52063	1.1248	-0.664044	3.60864	-15.1366	16.0819	-0.890094	-0.643194
0.7807	0.0591517	-43.214	-3.80668	1.43321	-0.379454	-0.056385	-6.8875	14.5552	-0.279097	-0.643194
0.7813	-0.887275	-25.2082	-10.2171	2.34635	-1.89727	-4.28526	-1.09724	5.10039	0.633627	-0.643194
0.7820	-3.01674	-34.0603	-10.2171	3.56791	-3.13049	-10.0929	0.132198	-3.14004	0.942897	-0.964791
0.7827	-5.44196	-37.4145	-10.5179	-0.701487	-5.26492	-20.4678	5.6184	-2.53285	-2.41382	-1.28639
0.7833	-4.55468	-26.4309	-15.0947	-6.80927	-4.31628	-29.3202	16.3	-2.53285	-6.0798	-0.964791
0.7840	-2.72098	-20.02	-10.8259	-6.19849	-0.996066	-30.2224	24.2318	0.815369	-3.94508	-0.643194
0.7847	-2.72098	-27.0423	-2.88985	-3.75538	-1.89727	-15.6187	24.8532	9.97526	-0.890094	-0.643194
0.7853	-2.72098	-40.7728	0.469417	-4.66852	-2.51388	12.4611	17.5162	10.2875	-1.50109	-0.964791
0.7860	-4.19977	-47.4852	5.34695	-7.11163	0.853771	38.3982	4.40218	17.6085	-4.24681	-0.643194
0.7867	-5.1462	-38.9429	4.43012	-6.19849	2.70361	46.9687	-5.67128	45.0708	-2.72309	-0.643194
0.7873	-2.07031	-37.4145	-8.69155	-2.23146	3.8894	43.9239	-9.33315	61.8639	3.07761	-0.321597
0.7880	0.946427	-35.2789	-12.9603	-0.0907096	4.50601	34.7332	-10.2453	39.5888	4.60134	-0.643194
0.7887	0.35491	-38.6372	2.90452	0.822434	2.37158	9.4163	-12.0829	-3.74723	2.46662	-1.92958
0.7893	-0.887275	-72.8148	12.6743	1.43321	-0.379454	-14.0963	-12.0829	-32.4413	2.76834	-2.25118
0.7900	-1.18303	-82.2783	4.1294	1.73558	-1.28066	-23.2306	-4.75911	-13.8266	3.99034	-0.964791
0.7907	-0.236607	-43.8254	1.37891	2.04399	-0.379454	-22.9487	2.56463	29.5094	3.07761	-0.321597
0.7913	1.30134	-18.1901	4.1294	0.520068	1.75497	-10.9951	4.09813	17.6085	1.24462	-0.643194
0.7920	0.650669	-31.9248	4.73818	-1.92304	0.237158	-3.10118	2.26058	-7.71998	-0.588368	-0.964791
0.7927	-2.07031	-39.5542	6.26378	-0.701487	-3.41508	-8.2886	-1.40129	36.8304	-1.80282	-0.643194
0.7933	-3.60825	-35.8902	5.04623	1.1248	-2.79847	-8.2886	-1.40129	93.9062	-0.588368	-0.643194
0.7940	-1.18303	-40.7728	2.29574	-0.0907096	0.853771	-3.10118	8.67216	102.442	0.633627	-0.964791
0.7947	3.07589	-26.1252	1.37891	-0.0907096	2.9882	-0.958545	15.3878	59.7301	0.633627	-0.643194
0.7953	3.4308	-16.3602	1.37891	1.73558	1.13836	0.90216	7.76	-18.4065	0.633627	-0.321597
0.7960	1.30134	-44.131	-2.58913	-1.0099	-4.31628	-1.57878	-3.22562	-78.2234	-0.588368	-0.643194
0.7967	-0.887275	-47.7908	-11.4347	-4.97693	-6.16612	-5.24381	-5.36722	-87.9904	-2.11209	-0.643194
0.7973	-2.72098	-25.2082	-17.2364	-3.44696	-2.79847	-3.10118	-3.83373	-71.1973	-1.19182	-0.643194
0.7980	-2.07031	-24.2953	-14.4859	0.211656	-0.379454	1.46601	-4.75911	-59.2964	-0.588368	-0.964791
0.7987	-0.532365	-24.2953	-10.8259	2.04399	-0.379454	1.80432	-8.11693	-49.5293	-0.279097	-0.643194
0.7993	-0.532365	-23.9896	-11.4347	0.520068	-0.664044	-1.57878	-9.94126	-42.2084	0.3319	-0.643194
0.8000	-1.18303	-44.4367	-8.99227	-0.701487	2.70361	14.6037	-13.6031	-47.6904	0.942897	-0.643194
0.8007	0.35491	-46.2666	-4.41545	0.520068	6.35585	43.3037	-17.8731	-42.5033	1.85562	-0.643194
0.8013	0.650669	-27.0423	-1.06352	-0.399122	4.83803	53.0583	-20.3188	-18.4065	0.942897	-0.321597
0.8020	-0.532365	-41.3841	4.43012	-3.1446	1.75497	47.2506	-19.4066	-5.58614	-0.588368	-0.643194
0.8027	-1.18303	-39.5542	4.73818	-4.36615	-0.379454	39.0184	-16.6569	-8.32717	-1.50109	-0.964791
0.8033	-1.77455	-23.0726	-1.6723	-2.23146	-1.89727	32.0267	-14.2112	-9.5589	-0.279097	-0.643194
0.8040	-1.47879	-41.0784	-2.88985	0.822434	-1.89727	29.5458	-4.75911	-7.71998	2.76834	-0.321597
0.8047	-0.532365	-43.8254	1.37891	2.04399	-2.18186	27.7414	12.334	-6.80052	2.16489	-0.643194
0.8053	-1.47879	-24.5968	1.07819	-0.399122	-4.64831	21.3135	21.4953	-7.40771	-0.588368	-0.643194
0.8060	-3.01674	-32.8376	-5.64034	-5.2793	-6.16612	7.8939	16.604	-9.24663	-2.72309	-0.643194
0.8067	-3.01674	-41.6898	-10.8259	-5.89008	-1.89727	-13.476	10.5097	-7.11279	-3.94508	-0.964791
0.8073	-3.01674	-25.5139	-13.5691	-1.62068	5.40721	-36.03	9.28027	-1.31847	-2.41382	-0.964791
0.8080	-1.47879	-28.2608	-14.1852	-0.399122	6.35585	-54.6371	5.6184	1.43991	0.0226295	-0.643194
0.8087	1.30134	-44.131	-16.9283	-3.75538	2.70361	-72.0601	2.56463	-0.693931	-0.890094	-0.643194
0.8093	1.5971	-42.297	-19.6788	-7.11163	-0.0474317	-78.1496	5.6184	-8.03225	-3.02481	-0.643194
0.8100	-1.47879	-38.6372	-14.1852	-6.50085	-1.28066	-61.6852	6.84784	-13.5143	-1.19182	-0.643194
0.8107	-1.77455	-43.8254	-19.0627	-5.58771	-0.996066	-40.0334	3.17274	-6.80052	1.55389	-0.643194
0.8113	-0.532365	-36.5016	-20.2876	-5.2793	0.853771	-25.9935	2.56463	1.73483	1.55389	-0.643194
0.8120	-0.532365	-42.297	5.04623	-0.701487	3.60481	-11.3334	4.09813	6.31477	1.55389	-0.643194
0.8127	-0.532365	-43.8254	13.8918	3.56791	3.60481	-1.24047	-0.171857	10.5824	0.633627	-0.964791
0.8133	-1.47879	-27.6494	11.7574	2.04399	1.47038	3.94695	-6.58344	11.207	-0.279097	-0.964791
0.8140	-2.07031	-38.6372	19.0847	0.520068	2.08699	11.277	-9.63721	13.3408	1.24462	-0.643194
0.8147	-1.47879	-39.8557	10.5399	1.1248	1.47038	12.1792	-10.5494	17.9208	2.46662	-0.643194
0.8153	-0.532365	-22.4612	-1.6723	0.520068	-0.379454	2.70648	-8.11693	25.5367	1.55389	-0.643194
0.8160	-1.18303	-36.5016	-7.16594	-1.92304	2.70361	-7.04813	-6.27939	24.3223	-1.19182	-0.643194
0.8167	-3.31249	-56.3373	-9.60837	-2.53382	10.2927	-9.47268	-8.72504	6.31477	-1.50109	-0.643194
0.8173	-3.31249	-29.785	-7.16594	-0.701487	15.1781	-6.14597	-6.8875	-3.14004	0.3319	-0.321597
0.8180	-3.01674	-19.1071	-13.2684	-1.31227	13.0437	-7.95029	-2.0094	-0.39901	0.3319	-1.28639
0.8187	-2.72098	-73.1204	-28.5244	-2.53382	8.49027	-6.14597	-0.171857	4.4932	-1.80282	-2.57278
0.8193	-3.01674	-82.584	-24.5564	-2.53382	4.50601	2.70648	0.436252	12.4214	-1.80282	-1.60799
0.8200	-4.85044	-40.1614	0.469417	-2.84223	1.13836	6.37151	3.49002	24.6346	-1.19182	-0.321597
0.8207	-3.31249	-38.0258	21.5198	-2.84223	-0.664044	10.6568	8.67216	29.5094	-0.588368	-0.643194
0.8213	0.0591517	-36.8073	36.7832	-1.92304	-2.79847	17.0283	11.7259	6.01985	0.3319	-0.964791
0.8220	1.30134	-31.3134	30.6808	-4.05774	-5.88153	18.2687	7.45595	-27.2541	-0.279097	-0.643194
0.8227	2.48437	-45.0439	8.70621	-4.97693	-10.1504	16.1261	-0.171857	-26.9419	-1.80282	-0.643194
0.8233	4.02231	-34.366	3.21257	4.4871	-13.4706	14.6037	-3.22562	21.8762	-0.279097	-0.964791
0.8240	4.61383	-27.6494	10.2318	11.1996	-15.6525	14.3218	-2.0094	78.3448	2.46662	-0.964791
0.8247	4.31807	-39.8557	12.0655	5.09788	-14.7038	16.1261	3.17274	80.7736	1.85562	-0.643194
0.8253	2.18861	-30.0907	5.34695	-0.0907096	-10.435	25.5988	8.36811	29.1971	0.633627	-0.643194
0.8260	0.35491	-32.8376	-2.58913	-1.0099	-6.78273	36.2556	6.53056	-32.4413	-0.588368	-0.964791
0.8267	-1.47879	-52.0662	-5.94106	-1.62068	-4.03169	43.9239	3.79407	-63.8763	-1.50109	-0.964791
0.8273	-3.60825	-41.3841	-4.11473	-1.0099	0.237158	54.5807	5.31434	-60.5108	-1.19182	-0.964791
0.8280	-4.85044	-35.8902	-1.36424	-1.0099	2.37158	55.4829	2.26058	-50.7437	-0.588368	-0.964791
0.8287	-4.85044	-46.2666	-1.6723	-3.1446	1.13836	35.9736	-7.19155	-47.3955	-0.890094	-0.643194
0.8293	-3.31249	-27.9551	-5.64034	-3.75538	-2.79847	-22.3285	-14.8326	-40.9766	-1.19182	-0.643194
0.8300	-2.07031	-34.9732	-8.38349	-1.92304	-5.54951	-97.3769	-12.995	-29.0757	0.3319	-0.964791
