MR32 ASCII
Name	TYR30_slow
Frequency	1500
Date	07-09-2015 13:14:05
"Time,s"	"RT TIB.ANT.,uV"	"RT MED. GASTRO,uV"	"RT LAT. GASTRO,uV"	"RT BICEPS FEM.,uV"	"RT VMO,uV"	"RT VLO,uV"	"RT RECTUS FEM.,uV"	"RT SOLEUS,uV"	"RT SEMITEND.,uV"	"Channel 12,uV"
0.0000	-16.2035	91.634	86.6141	139.821	26.6798	-0.282339	13.2196	69.5824	18.0677	-7476.59
0.0007	-11.9528	137.103	91.1961	153.844	24.8583	-0.590346	18.7231	124.816	12.5829	-10559.3
0.0013	-4.32337	164.566	93.9452	161.185	17.8223	0.333674	20.5452	170.89	7.39584	-9646
0.0020	15.5133	123.372	65.8849	194.149	5.32168	4.90244	15.9713	215.745	1.58837	-9741.71
0.0027	32.0074	62.642	30.7779	253.36	-6.28601	11.9353	8.34822	179.145	0.372274	-9898.32
0.0033	28.0474	98.3431	39.0253	209.385	-16.3579	19.2504	2.54723	-35.1057	-0.223364	-9789.08
0.0040	12.1708	109.328	58.5538	19.2868	-26.1084	21.0728	-1.72914	-209.376	-5.73302	-9815.5
0.0047	7.59314	83.3953	48.1892	-89.3702	-32.823	16.504	-2.6402	-172.108	-8.16521	-9818.72
0.0053	15.2226	87.3582	8.81625	-73.1997	-37.716	5.21045	-2.34271	-104.688	-5.73302	-9819.37
0.0060	16.7485	85.2203	-33.3058	-111.946	-42.5913	-6.08313	-3.55125	-110.781	-2.35773	-9790.37
0.0067	10.3543	74.5308	-52.8343	-154.675	-45.0378	-3.95275	2.54723	-115.066	4.04538	-9863.52
0.0073	1.48956	66.605	-1.86437	-130.264	-45.9486	8.26485	18.1095	-88.806	4.96365	-9840.64
0.0080	-7.95645	73.3141	95.4936	-173.304	-34.9659	17.428	28.4844	-56.7667	-1.7621	-9541.59
0.0087	-11.6259	88.262	94.5772	-304.503	-14.2149	18.6344	23.9105	-42.7322	-4.49211	-10446.2
0.0093	-10.7176	89.4961	13.6826	-317.626	-2.62512	16.504	14.4467	-45.1696	0.372274	-8854.22
0.0100	-12.2435	97.1265	-21.3928	-170.257	-5.66098	15.2977	7.41858	-50.3588	6.47757	-2336.98
0.0107	-10.1	91.3211	-26.6068	-62.8119	-11.4648	20.1744	3.45828	-54.0148	9.23239	106.666
0.0113	-6.13991	83.3953	-38.8041	-49.0999	-13.0006	25.3592	5.89396	-51.5775	9.82803	-172.405
0.0120	-7.95645	60.1913	-60.1654	-36.5652	-15.1257	23.5368	6.8236	-41.8281	8.93457	-75.7294
0.0127	-15.9129	39.7509	-62.9145	-10.9419	-21.5367	18.0441	2.84472	-28.6978	6.47757	80.241
0.0133	-28.7377	58.3663	-4.32913	9.5222	-24.894	16.196	2.23115	-19.2236	6.47757	-29.325
0.0140	-35.1319	73.9225	38.7093	27.5278	-24.2868	19.8664	1.02261	-12.8157	5.88193	-2.57802
0.0147	-24.7413	64.1542	40.2261	11.946	-26.1084	24.1272	-6.61908	-1.21867	1.58837	0
0.0153	-8.28343	38.8297	34.4434	-37.1885	-24.2868	27.4896	-7.53014	12.1867	-1.14164	-0.644506
0.0160	2.72481	44.0267	-51.0015	-69.5294	-22.4475	30.544	-0.204522	25.946	-0.223364	-0.644506
0.0167	4.832	83.3953	-114.169	-78.082	-28.5549	25.6672	1.02261	31.1352	-0.843821	-0.644506
0.0173	-7.04818	89.7916	-30.8727	-85.1111	-32.2158	9.18887	-2.6402	24.0983	-1.46428	-0.644506
0.0180	-17.7294	109.624	27.4283	-105.229	-25.5012	-2.10471	-0.818089	49.7298	4.64102	-0.322253
0.0187	-18.3471	126.727	9.73264	-102.493	-18.1794	-1.4887	-1.11558	94.3097	10.4485	-0.644506
0.0193	-19.5823	33.6501	0.252796	-43.2827	-16.6615	1.25769	-9.96581	91.2434	8.93457	-1.61126
0.0200	-23.5424	16.547	-10.4278	8.89893	-13.6078	9.49687	-10.8769	86.9583	6.77539	-0.644506
0.0207	-31.7895	73.0187	24.9952	7.68701	-13.0006	17.7361	-5.39195	155.008	3.42492	0
0.0213	-40.6178	19.6061	67.0857	-16.7244	-16.9651	16.812	-7.82762	198.958	-2.05992	-0.322253
0.0220	-44.9049	1.91194	22.246	-27.7356	-14.8221	17.12	-10.5794	142.192	-2.05992	-0.322253
0.0227	-35.7495	62.642	-36.055	-18.248	-6.89318	13.1416	-2.95628	27.4398	3.74756	-0.322253
0.0233	-7.37515	79.7278	-50.6855	9.21056	-5.66098	-0.282339	3.77436	-72.9632	8.0163	-0.322253
0.0240	26.5215	74.8437	-45.5032	47.057	-9.94689	-9.13753	1.3201	-13.1302	6.77539	-0.322253
0.0247	47.884	79.415	-42.7541	69.3216	-11.4648	-18.2751	-2.34271	131.813	2.50664	0
0.0253	53.0793	48.598	-53.1503	72.6804	-10.5541	-22.5615	-5.68944	136.413	-2.35773	-0.966759
0.0260	50.0275	8.6211	-30.5567	75.4158	-11.1612	-12.1919	-11.4904	-13.4447	-5.73302	-1.93352
0.0267	37.8204	-0.538819	17.6641	62.9158	-10.2505	-0.590346	-8.44119	-160.826	-4.81474	-0.644506
0.0273	16.7485	75.1392	40.5421	31.1636	-7.19676	3.08007	0.111558	-190.742	-0.546002	0.322253
0.0280	-4.32337	143.5	79.3147	5.54019	-9.01828	-1.20636	-1.72914	-148.914	2.20883	0
0.0287	-19.5823	64.1542	124.47	-51.8354	-10.2505	-4.23509	-6.61908	-68.3637	1.29055	-0.322253
0.0293	-22.6341	-11.2109	118.372	-122.923	-7.50035	-0.898353	-5.68944	25.946	0.99273	-0.322253
0.0300	-14.6776	-4.50175	86.3297	-99.758	-6.28601	1.25769	-4.16482	79.0173	4.96365	-0.322253
0.0307	-16.2035	-11.8366	43.2913	-36.2536	-8.10752	-0.898353	-6.00552	120.845	7.69366	-0.322253
0.0313	-25.9765	-24.0383	3.31794	-10.3186	-6.89318	-0.282339	-5.68944	161.14	7.69366	-0.322253
0.0320	-22.0165	17.1553	-4.01313	15.3048	-4.75022	1.25769	-2.6402	179.42	7.69366	-0.322253
0.0327	-23.5424	29.3743	-11.0282	40.0279	-6.89318	-1.79671	-2.95628	171.204	10.1507	-0.322253
0.0333	-35.1319	23.569	-69.3292	48.8922	-9.6433	-3.64475	-4.4809	178.516	8.31412	0
0.0340	-25.0683	94.3802	-127.915	60.1803	-8.71469	-3.02873	-3.55125	263.037	0.0744548	0
0.0347	6.97552	114.821	-108.987	76.9394	-7.80393	-3.95275	-2.95628	305.455	0.372274	-0.322253
0.0353	30.7722	59.8958	-71.4464	90.9976	-8.71469	-6.08313	-5.07587	192.865	5.26147	-0.322253
0.0360	33.824	22.0394	-64.4313	98.6154	-6.58959	-3.95275	-4.77838	-4.8747	3.42492	-0.322253
0.0367	28.0474	15.3303	-27.2071	98.3037	-3.83946	-0.590346	-2.34271	-169.671	-1.46428	-0.322253
0.0373	9.11903	16.547	34.1274	79.7095	-4.14305	-0.898353	-3.86733	-223.096	20.8225	-0.322253
0.0380	-10.4269	-23.7254	41.1425	20.8103	-4.14305	-0.898353	-4.4809	-231.037	83.0915	0
0.0387	-0.653955	-6.0313	22.8464	-69.5294	-3.23229	1.25769	-2.6402	-261.858	131.289	-0.322253
0.0393	25.6132	61.1125	51.5387	-143.699	-3.83946	0.641681	-2.34271	-253.013	165.166	-0.322253
0.0400	39.6369	25.0985	69.2344	-128.74	-4.75022	-2.10471	-2.6402	-202.654	178.294	-0.322253
0.0407	32.2981	-20.9792	32.6106	-49.0999	-3.83946	-1.79671	-1.11558	-150.172	77.9045	-0.322253
0.0413	17.6568	1.59908	22.246	-7.2715	-3.23229	-1.20636	-1.11558	-108.344	-39.2873	-0.322253
0.0420	8.21076	50.423	67.7177	13.7812	-4.44664	-1.20636	-3.55125	-83.9313	-57.3054	-0.322253
0.0427	-3.08812	34.5539	91.828	59.557	-5.35739	-0.898353	-4.16482	-54.0148	-96.3693	-0.322253
0.0433	-12.5341	-4.50175	53.0555	96.7802	-5.35739	-1.20636	-3.55125	-21.0713	-141.539	-0.322253
0.0440	-7.95645	4.03245	11.2494	112.674	-5.96456	-1.4887	-4.16482	1.80836	-92.1006	0
0.0447	2.10719	-24.0383	25.2796	129.433	-4.14305	0.0256672	-2.6402	8.84522	-44.4743	0
0.0453	1.78021	-25.5678	59.4702	120.603	-1.39292	0.949687	0.111558	-22.29	-51.7957	-0.322253
0.0460	-10.1	39.1426	46.9568	36.3575	-0.785751	1.54003	-0.502009	-73.8674	-49.3635	-0.322253
0.0467	-23.2154	44.9305	6.0671	-65.859	-1.69651	1.25769	-2.6402	-100.403	-26.7789	0
0.0473	-26.2672	-21.292	-5.21391	-108.588	-2.62512	-0.282339	-5.07587	-76.6193	-18.5392	-0.322253
0.0480	-26.2672	-65.8402	9.10065	-82.341	-0.785751	0.949687	-5.68944	-24.7273	-16.1071	-0.322253
0.0487	-32.9884	-45.087	18.8649	-29.5708	1.05362	1.54003	-3.55125	-9.15972	-6.94911	-0.322253
0.0493	-37.5661	-7.85633	19.4969	-7.2715	1.96438	-0.282339	0.409044	-43.0467	-7.54475	0
0.0500	-32.6977	-8.46467	11.8498	-20.0832	3.17872	0.0256672	3.45828	-70.4866	-12.1361	0
0.0507	-15.9129	5.26652	-11.0282	-38.7121	2.87513	0.949687	1.3201	-36.3244	-17.0253	-0.322253
0.0513	6.35789	-0.8343	-37.2874	-24.6885	2.26796	1.54003	-1.11558	43.0074	-19.4575	0
0.0520	10.3543	-27.08	-54.0667	-0.865654	1.96438	1.54003	-2.02663	68.9534	-11.5157	0
0.0527	4.832	-36.5528	-69.0132	-2.70084	1.05362	-0.898353	-5.39195	9.4349	-8.78566	-1.28901
0.0533	13.6967	-100.325	-44.5868	-7.2715	1.66079	-2.10471	-8.1437	-29.2875	-12.4339	-1.93352
0.0540	18.565	-107.66	-6.1303	-4.53603	3.78589	-0.282339	-2.95628	-7.94104	-9.70394	-0.644506
0.0547	5.15898	-20.6837	-47.336	-3.91276	3.4823	-0.282339	2.54723	32.9435	-7.24693	0.322253
0.0553	-7.95645	-10.9154	-92.8076	-3.32411	1.96438	-1.4887	1.63618	49.1401	-7.86739	0
0.0560	-7.37515	-49.9711	-41.8377	-1.48893	2.26796	-0.898353	-0.502009	-21.661	-5.73302	-0.322253
0.0567	0.871939	-62.1901	38.109	0.346262	2.26796	-0.898353	-1.72914	-83.9313	-3.89647	0
0.0573	3.92373	-60.9561	44.2077	3.39337	1.35721	-1.79671	-3.25376	3.97052	-5.11256	0
0.0580	4.832	-34.4149	-4.61352	9.79921	2.57155	-0.590346	-2.95628	151.666	-5.11256	-0.322253
0.0587	10.0273	-17.3291	-14.3778	17.4516	4.7145	0.949687	-1.41306	144.354	-3.27601	-0.322253
0.0593	15.8402	-17.9375	21.3296	19.8754	4.7145	-0.898353	-0.502009	-65.9264	-2.97819	0
0.0600	15.8402	-27.3929	48.7896	15.928	4.41092	-2.41272	-0.204522	-187.99	-2.05992	0
0.0607	6.68487	-66.1531	22.246	11.946	3.17872	-3.02873	-2.02663	-65.9264	-0.223364	-0.322253
0.0613	-2.17985	-106.425	-32.3895	12.8809	3.17872	-2.41272	-3.86733	13.4054	0.372274	0
0.0620	-5.52228	-98.7951	-35.739	13.4696	3.78589	-1.4887	-2.02663	-70.4866	0.372274	0
0.0627	-17.7294	-93.9283	-43.6705	11.0458	4.08948	-0.898353	1.3201	-175.804	0.372274	0
0.0633	-34.2236	-124.137	-88.8577	11.3228	4.7145	0.641681	1.3201	-197.465	0.0744548	0
0.0640	-30.5542	-133.905	-69.9296	14.0929	5.62526	1.25769	-1.41306	-63.489	0.99273	0
0.0647	-12.2435	-143.361	-27.2071	12.8809	5.92885	1.84804	-2.95628	70.4866	3.42492	0
0.0653	-1.85287	-161.055	-12.2606	7.06374	5.32168	1.25769	-4.16482	87.2728	4.64102	0
0.0660	-10.1	-143.656	69.2344	5.22855	4.7145	0.641681	-5.39195	115.342	4.64102	-0.322253
0.0667	-29.6459	-83.8472	136.383	8.89893	4.7145	1.54003	-2.02663	99.7741	6.17975	0
0.0673	-27.7931	-59.4439	81.7478	9.5222	5.92885	1.54003	3.77436	-8.57004	5.55929	-0.322253
0.0680	-1.27158	-87.2018	17.3481	3.705	5.32168	-0.282339	4.68542	-57.6708	0.99273	-0.322253
0.0687	8.21076	-96.6745	-4.01313	-3.01248	4.08948	-0.590346	2.54723	-55.2335	-2.35773	-0.322253
0.0693	-7.37515	-84.4555	-4.61352	-4.22439	4.08948	0.949687	1.93366	-92.1869	-2.05992	0
0.0700	-17.7294	-96.97	10.333	-4.84766	3.4823	1.25769	0.706531	-110.781	-1.46428	0
0.0707	-10.4269	-143.969	13.0822	-3.91276	2.57155	2.46405	-0.204522	-66.8306	-3.27601	-0.322253
0.0713	0.254316	-149.166	-8.27906	5.85182	5.01809	5.51845	1.3201	-21.9755	-1.7621	-0.322253
0.0720	-6.13991	-119.548	-24.774	12.8809	7.44677	5.51845	2.54723	9.15972	3.1271	0
0.0727	-26.8848	-124.432	-21.1084	17.4516	6.23243	2.77206	1.02261	28.3833	4.64102	0
0.0733	-43.6696	-142.752	-11.6286	28.7397	4.7145	0.333674	-0.818089	28.6978	5.55929	0.322253
0.0740	-52.2074	-150.991	17.3481	29.64	3.17872	-2.10471	-3.55125	84.8355	5.88193	0
0.0747	-50.6815	-145.186	60.0706	19.5638	2.57155	-3.02873	-4.16482	176.708	4.3432	-0.322253
0.0753	-30.8449	-120.469	89.9953	17.4516	3.4823	-2.10471	-1.41306	151.981	4.96365	-0.322253
0.0760	-9.48234	-130.846	106.174	27.5278	5.01809	0.333674	1.3201	39.3514	6.47757	0
0.0767	3.63308	-160.151	115.022	30.8866	5.92885	3.38807	2.23115	-44.2654	6.47757	0
0.0773	13.9874	-133.905	129.368	17.4516	5.01809	5.51845	1.3201	-123.597	4.96365	-0.322253
0.0780	8.82839	-131.454	92.7444	18.6635	4.08948	5.82646	-0.204522	-172.737	3.42492	-0.322253
0.0787	-11.0082	-149.774	-4.92952	46.7453	3.4823	3.69608	-0.818089	-149.858	2.20883	-0.322253
0.0793	-23.2154	-118.036	-71.4464	70.8452	2.26796	-0.282339	1.3201	-103.155	-0.546002	0
0.0800	-25.6859	-108.268	-106.237	81.233	1.96438	-1.4887	1.63618	-33.5725	-4.49211	0
0.0807	-32.3708	-116.802	-121.184	82.7566	3.4823	0.949687	-0.818089	41.7888	-6.65129	-0.322253
0.0813	-34.8412	-111.918	-85.4766	71.7801	3.4823	2.77206	-2.6402	81.1795	-7.24693	0
0.0820	-18.0564	-132.671	-37.2874	58.3451	3.17872	1.84804	-3.25376	108.03	-4.19429	-0.322253
0.0827	-3.08812	-181.512	-22.3092	57.4102	2.57155	-1.20636	-4.16482	175.45	3.1271	-1.61126
0.0833	-8.57407	-225.748	-47.0516	16.2051	2.57155	-1.20636	-4.16482	285.642	9.53021	-1.28901
0.0840	-13.4787	-251.385	-43.0701	-82.9643	2.57155	0.641681	-3.25376	364.659	9.23239	0
0.0847	-10.4269	-243.755	92.7444	-118.976	2.57155	0.949687	-1.41306	317.996	4.64102	0
0.0853	3.3061	-160.151	170.258	-59.7648	2.57155	0.641681	2.84472	161.415	0.0744548	-0.322253
0.0860	28.0474	-47.5377	27.1123	-11.5651	2.57155	1.25769	4.36934	0	6.17975	-0.322253
0.0867	29.2463	-63.7023	-119.067	-5.12467	3.17872	2.15605	3.1608	-126.978	19.3086	0
0.0873	10.3543	-137.868	-160.873	-8.48341	2.57155	1.84804	0.706531	-234.693	25.7117	0
0.0880	2.10719	-165.331	-90.6905	-9.72996	1.96438	1.25769	-1.11558	-388.482	47.0802	0
0.0887	6.68487	-209.583	71.6676	-3.91276	2.26796	-0.282339	-1.72914	-435.185	77.9045	0
0.0893	21.6168	-217.214	114.106	-0.242383	3.4823	-2.72073	-0.818089	-187.401	64.1552	-0.322253
0.0900	32.6251	-170.823	12.7662	-3.60112	4.08948	-3.33674	0.111558	40.5701	40.9749	-0.322253
0.0907	29.8639	-194.01	-23.8576	-1.80056	2.87513	-1.4887	-1.72914	60.7372	48.2963	0
0.0913	24.9956	-199.519	39.3413	0.657897	1.35721	-0.898353	-2.95628	10.3784	6.17975	0
0.0920	19.5096	-118.332	79.3147	0.0346262	0.732177	-0.282339	-2.02663	-87.2728	-60.6558	0
0.0927	15.2226	-136.339	61.303	3.39337	-1.08934	0.641681	-3.86733	-164.796	-48.4452	0
0.0933	13.9874	-176.628	48.4736	6.44047	-2.62512	0.949687	-4.4809	-148.01	-7.24693	0
0.0940	6.68487	-135.73	41.7745	6.44047	-0.482165	1.25769	0.111558	-82.7126	7.39584	0
0.0947	-3.08812	-124.745	-33.6218	5.54019	-0.17858	0.333674	-0.204522	-1.53317	11.9872	0
0.0953	-11.6259	-136.043	-187.732	1.86981	-2.62512	0.0256672	-5.68944	109.248	4.04538	-0.322253
0.0960	-26.8848	-99.7163	-278.044	-2.70084	-2.62512	1.54003	-7.21406	161.415	-10.2996	-0.322253
0.0967	-39.7096	-100.637	-198.097	-5.12467	-2.00009	1.84804	-5.39195	123.283	-11.5157	0
0.0973	-32.6977	-229.728	-22.3092	-3.91276	-3.83946	-0.282339	-5.39195	97.9657	0.372274	0
0.0980	-17.1118	-279.16	104.942	11.3228	-3.83946	-0.282339	-2.95628	32.0394	2.82928	-0.322253
0.0987	-5.84926	-208.367	110.124	31.1636	-1.69651	1.25769	1.63618	-35.4202	-9.08348	0
0.0993	3.63308	-198.285	78.3983	43.6982	-1.08934	1.54003	1.63618	-5.81819	-11.5157	0.322253
0.1000	4.2507	-197.069	87.5305	60.1803	-1.39292	0.949687	-0.204522	67.7347	-5.41038	0
0.1007	0.871939	-134.514	96.3784	78.7746	-0.482165	-1.4887	2.54723	140.383	-2.05992	0
0.1013	2.39783	-134.809	72.584	82.4449	0.125006	-6.08313	8.96179	93.0517	-2.35773	-0.322253
0.1020	1.19892	-191.576	48.1892	84.2801	0.732177	-7.90551	13.2196	-48.2359	-4.19429	-0.322253
0.1027	0.581293	-196.773	39.3413	80.6097	2.57155	-3.02873	15.3578	-156.266	-2.97819	0
0.1033	4.54135	-182.416	20.6977	22.3339	1.96438	1.84804	12.3085	-197.779	-2.05992	0
0.1040	8.21076	-162.271	-23.2256	-68.0058	-0.482165	5.21045	5.29898	-113.533	-3.27601	0
0.1047	17.0392	-187.005	-81.5266	-111.635	-0.17858	8.26485	1.63618	28.6978	-4.19429	-0.322253
0.1053	17.9838	-215.684	-127.915	-92.7289	-0.17858	7.95684	-0.818089	99.7741	-3.89647	-0.322253
0.1060	-0.653955	-162.271	-126.998	-53.6706	-3.23229	3.38807	-4.4809	67.1451	-3.59865	-0.322253
0.1067	-14.6776	-90.8692	-58.0166	-26.212	-2.30368	2.77206	-2.95628	-23.8231	-1.7621	0
0.1073	-16.2035	-75.0001	-8.87945	-16.1358	0.428591	4.00409	-1.11558	-80.865	0.372274	-0.322253
0.1080	-15.5859	-124.137	-33.6218	-13.6773	-1.08934	1.25769	-2.6402	-75.6758	-0.843821	-0.322253
0.1087	-15.5859	-100.933	-44.5868	-12.4654	-2.00009	-0.590346	-2.6402	-44.5799	-2.05992	-0.322253
0.1093	-14.06	-22.8216	-18.0433	-10.3186	-0.785751	0.641681	-1.41306	-21.9755	-1.46428	0
0.1100	-0.0363308	-78.0592	15.8313	-9.72996	-2.92871	-1.4887	-2.95628	-39.3907	-2.68037	-0.322253
0.1107	18.2744	-171.136	52.4551	-9.72996	-3.53588	-4.23509	-2.95628	-68.0492	-3.89647	-0.644506
0.1113	22.5614	-178.141	46.0404	-6.95986	-0.17858	-1.79671	0.111558	-74.4571	-1.46428	-0.322253
0.1120	8.21076	-190.047	-6.1303	-6.05958	0.125006	2.15605	2.23115	-54.0148	-0.843821	0
0.1127	-13.4787	-215.684	-18.6437	-5.74795	-1.69651	4.59443	1.3201	-3.65602	-3.27601	-0.966759
0.1133	-18.0564	-195.852	-3.69714	-3.01248	-0.785751	6.13447	2.23115	46.0738	-4.49211	-1.61126
0.1140	-3.08812	-122.295	-34.5382	-2.70084	-2.00009	6.44247	1.02261	73.5529	-2.35773	0
0.1147	0.871939	-94.2238	-65.0317	-3.60112	-5.96456	4.59443	-5.39195	69.8969	-1.7621	0
0.1153	-15.0046	-162.271	-62.2825	0.0346262	-5.35739	2.77206	-5.39195	69.8969	-2.68037	-1.61126
0.1160	-41.5261	-209.27	-36.055	2.49308	-2.00009	3.69608	2.84472	108.344	-2.05992	-1.61126
0.1167	-62.598	-157.092	30.7779	-0.242383	-2.92871	1.84804	6.8236	179.735	-1.14164	0
0.1173	-67.1757	-100.933	30.1775	-2.07757	-5.35739	-3.95275	5.29898	274.045	-2.05992	0
0.1180	-65.0322	-95.145	-38.2038	-0.865654	-4.44664	-6.39114	4.07185	397.013	-2.05992	-0.644506
0.1187	-64.1239	-124.137	-14.6938	-0.242383	-3.83946	-3.64475	2.23115	484.325	-1.14164	-0.322253
0.1193	-54.9685	-152.208	47.2728	0.0346262	-3.53588	-1.20636	0.706531	348.502	0.0744548	0
0.1200	-27.7931	-172.648	55.4887	2.80472	-2.00009	0.949687	1.63618	69.8969	2.50664	-0.322253
0.1207	11.5532	-201.032	33.211	3.39337	-3.23229	0.0256672	-1.41306	-57.3957	2.20883	-0.322253
0.1213	31.3898	-201.64	6.66749	1.55818	-5.35739	-1.20636	-5.07587	-60.1082	0.0744548	-0.322253
0.1220	36.5851	-159.525	8.81625	2.18145	-3.53588	0.949687	-3.55125	-84.2458	-0.546002	-0.322253
0.1227	47.2664	-113.152	46.9568	2.80472	-3.53588	1.84804	-2.34271	-106.496	0.0744548	-0.322253
0.1233	46.6488	-101.246	63.4201	2.18145	-5.05381	0.641681	-1.72914	-119.312	0.372274	0
0.1240	39.9276	-118.332	28.3447	2.80472	-2.62512	1.84804	1.63618	-132.442	1.29055	-0.322253
0.1247	34.151	-134.201	7.89987	4.01664	-1.39292	2.46405	1.63618	-172.737	1.29055	-0.322253
0.1253	21.6168	-116.802	23.4468	3.39337	-2.62512	0.0256672	-3.25376	-249.317	0.372274	0
0.1260	8.82839	-101.541	17.0637	3.39337	-1.08934	-0.282339	-4.16482	-286.86	0.694911	0
0.1267	7.30249	-105.522	0.884785	3.39337	-0.482165	-0.898353	-2.34271	-264.885	-0.546002	0
0.1273	15.5133	-90.8692	9.73264	3.11636	-3.83946	-3.64475	-2.34271	-195.617	-2.05992	-0.322253
0.1280	18.2744	-107.347	29.5455	3.11636	-4.14305	-2.72073	-0.502009	-120.57	-1.46428	-0.322253
0.1287	6.68487	-154.658	37.793	3.39337	-1.39292	-0.590346	2.84472	-77.5234	0.0744548	0
0.1293	-11.3352	-161.055	39.9417	3.705	-1.69651	-0.590346	3.1608	-56.177	0.99273	0
0.1300	-24.7413	-158.621	46.9568	4.01664	-2.62512	0.333674	1.02261	-68.0492	0.99273	0
0.1307	-21.1082	-161.368	19.4969	3.11636	-2.62512	0.949687	-2.34271	-72.6487	0.694911	-0.322253
0.1313	-1.27158	-184.259	-52.5183	2.80472	-3.23229	0.641681	-6.61908	-42.4177	0.694911	-0.322253
0.1320	6.97552	-209.879	-113.884	3.39337	-2.92871	2.46405	-7.82762	-34.4767	1.29055	0
0.1327	-27.2118	-241.008	-89.7741	3.705	-1.69651	5.21045	-6.61908	-38.7617	1.58837	0
0.1333	-63.8332	-264.212	19.7813	3.39337	-2.00009	4.59443	-7.82762	-12.8157	1.58837	0
0.1340	-42.4707	-171.136	63.1357	2.80472	-3.23229	1.25769	-10.8769	7.31205	0.0744548	0
0.1347	3.01546	-82.3176	-24.142	1.86981	-2.92871	-0.590346	-9.96581	-3.65602	-0.546002	0
0.1353	28.0474	-100.325	-105.953	0.969533	-2.00009	-1.20636	-6.91657	45.7593	-1.14164	0
0.1360	40.8722	-144.89	-81.2106	0.657897	-1.08934	-0.898353	-5.39195	204.777	-2.05992	0
0.1367	43.924	-172.961	-53.1503	1.28117	0.428591	0.0256672	-3.55125	361.317	-0.843821	0
0.1373	30.7722	-128.413	-99.5383	1.86981	0.732177	-2.10471	0.706531	393.357	0.0744548	0
0.1380	6.06725	-89.948	-127.915	1.86981	0.428591	-4.23509	3.77436	222.782	-0.546002	0
0.1387	-14.06	-129.925	-92.2072	2.18145	0.732177	-3.33674	2.54723	-33.887	-1.14164	-0.322253
0.1393	-18.3471	-132.984	-29.0399	3.705	0.732177	-1.20636	3.45828	-123.912	-0.546002	-0.322253
0.1400	-3.70574	-103.992	32.6106	3.705	-0.482165	-0.590346	4.36934	-41.1991	-0.546002	0
0.1407	24.378	-136.043	95.1776	2.80472	-1.39292	-1.20636	2.54723	-21.0713	-1.7621	-0.322253
0.1413	39.0193	-138.789	96.3784	2.80472	-1.69651	-0.590346	2.23115	-82.7126	-0.546002	0
0.1420	17.3661	-85.3767	35.3598	2.80472	-3.83946	-0.282339	2.54723	-72.9632	-0.223364	-0.322253
0.1427	-8.28343	-87.8101	-6.1303	3.11636	-6.58959	-1.20636	1.02261	-55.2335	-3.89647	-1.61126
0.1433	-3.08812	-133.297	-15.2941	2.49308	-6.58959	-1.79671	0.706531	-63.489	-3.89647	-0.966759
0.1440	3.63308	-142.439	5.46671	0.657897	-4.75022	-0.590346	-0.502009	-39.0762	-0.223364	0.644506
0.1447	-4.32337	-76.5297	31.0939	2.18145	-3.83946	1.25769	-2.34271	-27.4792	1.29055	0
0.1453	-11.6259	-58.2098	25.2796	4.32827	-3.83946	0.641681	-0.502009	-39.9804	1.91101	-0.322253
0.1460	-16.5305	-125.354	16.4317	4.32827	-3.53588	0.641681	2.54723	-56.177	2.50664	0
0.1467	-10.4269	-137.868	11.8498	3.705	-2.92871	1.84804	1.93366	-29.602	1.29055	-0.322253
0.1473	12.7884	-114.056	6.98348	2.18145	-1.69651	1.54003	-1.41306	0	-1.14164	0
0.1480	35.6769	-91.7904	67.4017	0.969533	2.87513	3.08007	-2.95628	-77.5234	-1.7621	0
0.1487	44.2146	-75.0001	131.485	1.28117	5.62526	6.13447	-2.6402	-144.983	0.0744548	0
0.1493	43.597	-108.563	75.9335	1.28117	3.4823	5.51845	-1.72914	-85.15	1.58837	0
0.1500	39.6369	-126.57	-12.545	1.28117	1.66079	4.00409	2.23115	-31.4497	1.29055	0
0.1507	30.4816	-76.8252	-8.87945	2.18145	1.96438	4.00409	6.8236	-76.8944	0.694911	-0.322253
0.1513	19.8003	-38.6907	6.66749	1.28117	-0.785751	2.15605	6.50752	-114.437	0.0744548	0
0.1520	16.1309	-53.3257	-21.1084	0.346262	-2.30368	1.54003	6.50752	-78.1131	-0.546002	0
0.1527	9.73666	-90.5563	-0.947984	1.86981	2.57155	3.69608	9.25928	-11.0074	0.0744548	0
0.1533	3.92373	-64.9364	52.4551	2.49308	6.23243	4.00409	9.55676	83.6168	0.694911	-0.322253
0.1540	7.88379	-54.5598	52.4551	1.55818	4.7145	2.46405	8.03214	177.612	0.694911	0
0.1547	5.44962	-86.5934	8.50026	0.969533	5.32168	3.08007	8.64571	198.958	0.694911	-0.322253
0.1553	-5.52228	-71.0372	-2.78075	0.657897	5.62526	5.21045	8.96179	145.848	0.0744548	-0.644506
0.1560	-8.90105	-82.3176	30.7779	0.346262	3.78589	3.38807	7.12109	61.9559	-0.546002	-0.322253
0.1567	-15.5859	-101.541	64.9685	0.657897	4.08948	1.54003	5.59647	-36.3244	-0.843821	0
0.1573	-26.5942	-108.876	100.36	0.346262	4.08948	0.641681	2.54723	-105.592	-0.546002	0
0.1580	-22.3071	-108.268	103.109	-0.242383	2.26796	-3.64475	-2.02663	-127.568	-1.46428	0
0.1587	-14.387	-83.8472	32.9266	0.969533	1.66079	-4.85111	-3.55125	-110.467	-1.14164	0.322253
0.1593	-14.6776	-77.7464	-13.177	3.11636	2.57155	-0.590346	-5.39195	-24.0983	0.0744548	0
0.1600	-8.90105	-97.2829	-0.0315995	2.49308	0.125006	1.25769	-11.1929	51.263	0.372274	0
0.1607	3.01546	-123.216	-22.0248	0.969533	-3.23229	0.949687	-12.104	-14.9779	0.0744548	0
0.1613	7.30249	-110.093	-43.3861	1.55818	-3.53588	2.46405	-5.39195	-115.381	0.99273	-0.322253
0.1620	7.30249	-96.3617	-13.4614	1.55818	-5.05381	1.54003	-1.72914	-107.44	1.58837	0
0.1627	9.11903	-144.282	-31.7891	-0.554019	-5.96456	0.333674	-2.02663	-55.8625	0.694911	0
0.1633	13.0791	-161.663	-92.8076	-0.554019	3.17872	1.84804	-0.818089	6.40787	0.0744548	-0.322253
0.1640	19.8003	-149.166	-75.4279	0.0346262	11.4291	1.25769	0.409044	85.7397	0.0744548	0
0.1647	21.9438	-163.505	-18.6437	-1.17729	12.6434	0.0256672	1.63618	125.13	0.0744548	0
0.1653	17.6568	-154.346	-25.9748	-2.07757	16.0007	1.54003	5.29898	86.6438	0.694911	0
0.1660	15.2226	-132.063	-94.356	-2.70084	18.1437	-0.590346	7.41858	3.02703	0.372274	0
0.1667	15.8402	-97.2829	-185.9	-1.17729	13.2506	-6.39114	3.77436	-43.3612	-0.843821	0
0.1673	12.4615	-47.2249	-233.488	4.91692	8.98256	-5.15911	-1.41306	-22.8796	-0.223364	0
0.1680	-0.944601	-28.6095	-217.025	7.68701	6.53602	1.25769	-3.25376	13.7199	2.20883	0
0.1687	-15.5859	-31.3558	-131.865	4.32827	1.05362	1.54003	-5.07587	33.5725	1.91101	0
0.1693	-15.2953	-22.8216	15.8313	2.49308	-3.83946	-0.898353	-6.91657	60.1082	0.99273	0
0.1700	-0.326977	0.069525	97.0104	2.80472	-4.75022	0.333674	-6.00552	131.813	1.58837	0.322253
0.1707	9.40968	-26.1762	80.8314	1.86981	-7.19676	-0.898353	-3.25376	216.649	0.372274	0
0.1713	4.832	-82.6305	56.1207	1.55818	-12.072	-4.23509	-0.502009	209.022	-1.14164	-0.322253
0.1720	-7.37515	-72.2539	51.8231	1.55818	-15.4293	-5.77513	1.3201	40.8846	-0.843821	-0.322253
0.1727	-22.6341	-69.5076	94.8616	1.28117	-16.3579	-6.39114	-0.204522	-123.008	-2.97819	-1.28901
0.1733	-30.8449	-76.2168	154.079	1.86981	-13.6078	0.0256672	-8.73868	-120.57	-5.11256	-1.61126
0.1740	-24.16	-48.7544	154.679	0.969533	-7.19676	12.8336	-16.9939	-80.865	-2.05992	-0.322253
0.1747	-13.1518	-62.4856	114.706	-1.48893	2.26796	17.428	-14.8557	-5.1892	0.694911	0
0.1753	-9.48234	-67.3698	75.0171	-1.80056	10.5005	14.9897	-8.1437	147.106	-0.223364	0
0.1760	-11.6259	-35.9444	32.6106	-1.17729	13.5542	14.9897	-3.55125	258.163	-0.843821	0
0.1767	-12.8611	-41.4369	-52.5183	0.346262	12.3399	16.812	-0.204522	224.59	0.372274	-0.322253
0.1773	-2.79747	-57.306	-133.413	3.39337	7.44677	19.8664	-1.72914	32.3539	2.82928	-0.322253
0.1780	13.6967	-65.2319	-77.2607	5.54019	0.732177	25.9752	-3.25376	-93.9952	4.64102	0
0.1787	18.565	-57.9143	18.5805	4.32827	-4.14305	32.0584	-0.204522	-68.0492	3.74756	-0.322253
0.1793	15.5133	-38.9862	6.98348	2.18145	-6.89318	40.9136	4.36934	-66.2409	1.29055	-0.322253
0.1800	15.2226	-75.313	-23.2256	0.969533	-9.94689	50.0768	2.84472	-122.064	0.372274	0
0.1807	24.6686	-100.637	-11.6286	0.969533	-11.1612	60.4463	-0.818089	-152.885	0.694911	-0.322253
0.1813	24.6686	-68.5864	29.2611	0.346262	-6.58959	72.0479	5.59647	-92.7765	0.0744548	-0.322253
0.1820	2.10719	-65.8402	45.44	-1.80056	-2.92871	59.24	7.73466	56.4522	-1.7621	-0.322253
0.1827	-5.84926	-83.5517	56.405	-1.80056	-5.35739	34.2144	-16.0643	221.248	-2.05992	-0.322253
0.1833	19.1827	-94.2238	126.303	-0.554019	-10.2505	4.59443	-60.018	295.116	-1.7621	-0.322253
0.1840	43.924	-67.3698	65.8849	-1.17729	-13.9114	-50.9494	-98.4681	160.826	-2.35773	0
0.1847	42.6887	-22.8216	-122.416	-2.07757	-13.9114	-84.8045	-114.644	-90.9682	-2.35773	0
0.1853	42.3981	-17.6246	-185.9	0.346262	-10.2505	-69.5582	-116.466	-208.747	-0.223364	0
0.1860	52.1347	-25.255	-164.538	1.28117	-10.8576	-46.971	-109.457	-117.504	1.58837	-0.322253
0.1867	39.9276	-58.2098	-163.622	0.0346262	-12.3756	-34.4711	-91.44	38.4472	0.99273	0
0.1873	7.30249	-92.3988	-108.671	0.969533	-7.50035	-29.5686	-67.0275	96.7471	0.99273	0
0.1880	-26.2672	-75.9213	20.4133	2.49308	-7.19676	-31.1087	-37.7436	32.0394	0.99273	-0.322253
0.1887	-50.3908	-93.3026	149.497	2.80472	3.4823	-32.007	-18.2025	-72.9632	1.58837	0
0.1893	-43.379	-140.006	166.877	4.63991	44.3771	-27.4383	-9.35224	-114.162	4.64102	0
0.1900	-18.3471	-128.708	62.5037	6.44047	76.4321	-24.6919	22.0698	-32.6683	6.77539	0
0.1907	-12.5341	-115.898	5.46671	4.91692	74.8963	-30.1847	71.2109	98.8699	4.96365	0
0.1913	-15.9129	-133.297	67.0857	4.01664	57.8063	-32.007	99.2862	122.654	3.42492	0
0.1920	-15.5859	-157.092	151.33	4.32827	34.6087	-26.8223	105.701	20.7568	3.74756	-0.322253
0.1927	-28.12	-162.584	186.721	2.49308	9.89332	-21.3295	110.572	-39.6659	1.91101	0
0.1933	-49.7732	-98.1867	262.402	0.0346262	-6.89318	-12.4743	108.136	46.9779	-0.546002	0
0.1940	-51.6261	-11.8366	366.775	-0.865654	-18.1794	-9.44554	87.0707	189.799	-1.46428	0
0.1947	-13.7694	5.87486	232.193	-0.865654	-29.4657	-18.2751	64.4989	238.035	-1.7621	0
0.1953	35.0592	-40.8286	-80.0098	-0.242383	-32.823	-26.8223	60.8361	148.914	-0.223364	0
0.1960	45.1229	-81.4138	-220.375	0.0346262	-31.6086	-17.6847	42.522	63.1745	1.29055	0
0.1967	28.0474	-83.8472	-224.957	-0.242383	-30.6979	5.82646	-7.21406	18.3194	0.694911	-0.322253
0.1973	28.0474	-122.295	-235.037	0.657897	-24.894	20.7905	-56.3552	-77.8379	1.29055	-0.644506
0.1980	34.4416	-168.39	-165.139	0.657897	-16.6615	26.5656	-107.021	-176.393	1.29055	-0.322253
0.1987	24.9956	-50.5795	-114.169	-2.38921	-14.8221	23.2288	-176.893	-187.99	-2.35773	0
0.1993	19.5096	98.9515	-162.39	-2.38921	-19.6973	9.18887	-228.172	-106.496	-3.59865	-0.322253
0.2000	17.6568	77.5899	-114.485	-0.554019	-23.6797	2.15605	-226.332	35.1057	-1.14164	-0.322253
0.2007	16.7485	33.3372	-5.21391	-1.48893	-24.5904	0.333674	-197.345	211.774	-1.46428	0
0.2013	29.8639	28.1576	-37.5718	-4.22439	-19.6973	-0.590346	-154.619	278.33	-2.05992	0
0.2020	28.0474	31.1994	-95.5568	-7.58313	-8.71469	8.57285	-105.496	63.7642	-2.97819	-0.644506
0.2027	7.88379	108.111	-81.2106	-9.41832	-3.83946	17.7361	-75.5802	-236.226	-7.24693	-1.61126
0.2033	6.68487	136.495	-86.3929	-7.89477	-7.19676	13.4496	-29.8045	-317.406	-7.86739	-0.966759
0.2040	1.48956	70.2724	-5.52991	-5.74795	-10.2505	2.15605	66.321	-199.273	-5.11256	0.322253
0.2047	-45.1955	58.3663	154.995	-4.53603	-11.7684	-6.08313	158.802	-49.1401	-4.19429	0
0.2053	-79.6735	77.5899	171.775	-2.38921	-13.9114	-10.3439	218.002	16.4718	-1.7621	-0.322253
0.2060	-51.0085	47.9897	23.1624	1.86981	-13.9114	-13.3983	231.129	26.2212	4.04538	0
0.2067	10.6449	39.7509	-56.8158	3.705	-12.6792	-22.5615	179.552	85.7397	6.17975	0
0.2073	57.33	29.0615	61.9034	2.49308	-17.5722	-41.1702	98.6727	233.75	3.1271	-0.322253
0.2080	68.0113	-53.934	116.855	4.63991	-18.483	-49.1014	29.3954	303.961	3.1271	-0.322253
0.2087	59.7642	-63.4068	21.0136	6.44047	-15.7329	-37.2175	-11.4904	117.189	4.3432	0
0.2093	55.1865	-19.7625	71.9836	4.32827	-23.6797	-27.4383	-43.2286	-122.064	1.91101	0
0.2100	57.657	4.95366	170.858	4.32827	22.1082	-23.1775	-54.217	-218.811	-0.223364	-0.322253
0.2107	53.9876	74.8437	87.8465	5.22855	146.31	-12.4743	-25.8442	-172.108	0.99273	0
0.2113	39.3463	85.2203	-2.78075	5.54019	223.207	-4.5431	-7.82762	-24.7273	1.58837	-0.322253
0.2120	27.1391	59.8958	-41.5533	6.16346	207.045	-2.41272	-27.9638	23.1941	1.29055	-0.322253
0.2127	19.8003	144.108	-65.6637	4.63991	166.454	6.44247	-43.5446	-32.0394	5.55929	0
0.2133	19.1827	181.043	-80.6102	-2.38921	116.095	22.9208	-17.2914	-18.0049	7.69366	0
0.2140	15.8402	58.0534	-81.8426	-10.3186	49.2701	44.892	-2.95628	53.3858	2.20883	-0.322253
0.2147	-11.0082	-59.7394	48.7896	-13.0887	-7.19676	59.8303	-57.5823	114.437	-2.05992	-0.322253
0.2153	-40.3272	-104.6	108.291	-11.2535	-40.7698	56.8016	-126.246	114.123	-1.14164	0
0.2160	-45.5225	-98.1867	-127.915	-8.79505	-56.9312	41.2216	-159.193	21.032	1.58837	0
0.2167	-36.3671	-65.8402	-385.798	-6.05958	-51.1452	23.2288	-165.31	-50.3588	3.42492	-0.322253
0.2173	-34.5143	-28.3141	-315.299	-4.84766	-31.6086	6.44247	-131.731	-46.0738	2.20883	-0.322253
0.2180	-50.3908	-4.50175	47.8732	-5.12467	-31.0014	-5.15911	-87.7958	-19.8526	0.99273	-0.322253
0.2187	-44.5779	59.8958	297.193	-3.01248	-43.1984	-5.77513	-62.7697	110.152	2.20883	-0.322253
0.2193	-3.08812	197.521	222.429	0.0346262	-48.6987	4.00409	-10.5794	341.465	3.42492	0
0.2200	13.9874	237.497	29.8615	-1.17729	-59.6813	12.5513	63.2717	456.846	1.58837	-0.322253
0.2207	13.0791	121.843	-5.8459	-2.70084	-64.5744	18.9424	118.809	265.514	-1.46428	-0.322253
0.2213	48.5016	20.8227	93.9452	0.346262	-48.3951	25.0512	184.423	-116.285	-0.223364	-0.322253
0.2220	91.5173	0.677869	108.607	4.63991	-45.9486	25.0512	257.363	-320.433	3.42492	-0.322253
0.2227	98.2385	28.1576	57.3214	7.06374	-60.2885	23.2288	263.164	-265.199	5.88193	-0.322253
0.2233	89.0832	65.3883	31.3783	6.44047	-60.9135	24.1272	207.014	-263.391	5.55929	-0.322253
0.2240	69.2465	92.8507	51.8231	4.01664	-49.6094	24.7432	159.713	-365.602	3.42492	0
0.2247	33.2427	122.451	165.044	3.11636	-43.502	22.9208	130.113	-338.123	1.29055	0
0.2253	17.9838	167.92	261.802	3.39337	-38.6268	17.428	101.108	-219.126	0.99273	-0.322253
0.2260	19.1827	140.753	185.805	2.49308	-29.7692	10.0872	92.8717	-136.098	0.372274	-0.322253
0.2267	9.11903	72.0975	-7.04668	2.49308	-23.9833	6.13447	105.385	-102.251	0.372274	0
0.2273	4.54135	72.0975	-145.61	2.80472	-21.8403	4.90244	70.2999	4.24571	1.58837	0
0.2280	18.892	53.7776	-197.497	2.80472	-19.3938	5.82646	-5.07587	161.73	2.20883	-0.322253
0.2287	31.3898	40.0464	-212.127	2.18145	-16.9651	9.80488	-28.2798	112.59	2.20883	-0.644506
0.2293	26.5215	107.19	-165.455	1.28117	-16.0365	14.0656	-13.015	-18.6339	2.20883	-0.322253
0.2300	12.7884	150.835	-114.169	-0.242383	-17.8758	18.0441	-25.5281	-46.7028	1.29055	-0.322253
0.2307	-9.48234	79.1195	-152.625	-1.48893	-16.3579	19.2504	-44.1396	-63.8035	-0.843821	-0.322253
0.2313	-19.5823	-10.6026	-242.052	-0.242383	2.57155	11.0112	-36.219	-90.0247	0.0744548	0
0.2320	-16.5305	-7.85633	-250.299	1.86981	39.8054	-3.33674	-9.05476	6.72237	2.50664	-0.322253
0.2327	-42.1437	-38.9862	-179.169	1.86981	79.468	-16.1447	39.7703	325.622	-0.223364	-1.93352
0.2333	-76.6217	-91.1821	-158.124	1.28117	94.433	-23.7679	119.422	535.588	-2.68037	-1.61126
0.2340	-88.8288	-47.8332	-76.0283	0.0346262	68.4853	-26.8223	185.65	334.782	-0.843821	0
0.2347	-72.371	-79.8843	116.223	-0.554019	30.0371	-27.1303	149.338	-65.0222	0.694911	0
0.2353	-19.2553	-171.744	240.124	1.86981	9.89332	-28.0543	0.111558	-310.998	3.42492	-0.322253
0.2360	42.3981	-172.353	210.231	4.91692	0.732177	-29.5686	-184.219	-252.069	6.77539	-0.322253
0.2367	71.6807	-100.933	58.5538	5.22855	-11.7684	-27.7463	-301.41	-77.2089	6.17975	-0.322253
0.2373	67.7206	-24.0383	-41.8377	2.18145	-28.5549	-17.6847	-324.911	13.1302	3.74756	-0.322253
0.2380	60.0912	17.4682	-5.21391	-0.554019	-42.5913	1.54003	-340.474	119.941	2.50664	0
0.2387	52.4617	92.8507	129.653	-3.32411	-44.7342	25.0512	-346.275	260.01	0.0744548	0.322253
0.2393	30.4816	128.865	241.357	-6.68285	-34.0552	41.8376	-319.724	189.524	-2.68037	0
0.2400	-3.70574	29.6698	168.425	-6.68285	-26.4119	35.7288	-281.887	-159.607	-1.7621	0
0.2407	-27.5024	3.73697	71.9836	-3.91276	-33.1265	11.0112	-173.546	-400.079	0.99273	0.322253
0.2413	-24.7413	52.5609	83.2646	-3.60112	-42.2877	-6.69915	-14.8557	-261.543	0.694911	0
0.2420	-25.0683	-35.6316	50.022	-3.60112	-41.0733	-13.0903	74.2601	-79.0566	-0.223364	0
0.2427	-35.1319	-137.555	28.3447	-1.80056	-35.2695	-20.4311	91.0496	-48.2359	0.694911	0
0.2433	-27.2118	-128.1	83.5806	1.28117	-35.5731	-25.6159	84.635	-68.3637	1.29055	0
0.2440	-20.7812	-125.666	53.3715	2.18145	-37.1089	-24.6919	45.5713	-139.479	1.29055	-0.322253
0.2447	-38.4743	-89.0442	-55.8995	1.55818	-31.0014	-18.8911	17.812	-95.5284	1.29055	0
0.2453	-51.9167	-11.8366	-40.6369	0.657897	-27.9477	-10.3439	61.1335	68.9534	-0.223364	-0.322253
0.2460	-41.5261	-59.7394	51.2227	0.657897	-28.2513	-5.77513	116.373	-7.03686	-1.46428	-0.322253
0.2467	-19.2553	-64.6235	41.7745	3.39337	-23.0546	-2.72073	85.2486	-215.47	0.694911	0
0.2473	-17.7294	36.6918	41.7745	5.85182	-16.6615	4.00409	8.64571	-101.032	1.91101	-0.322253
0.2480	-37.5661	-0.225956	57.6374	4.63991	-10.8576	12.5513	-6.61908	251.44	-0.223364	-0.322253
0.2487	-18.9647	-117.115	57.9534	3.11636	-4.44664	16.504	37.3346	448.315	-1.46428	0
0.2493	16.7485	-131.767	147.064	3.11636	-2.00009	12.8336	92.2581	402.517	-0.546002	0
0.2500	17.6568	-75.0001	197.718	2.49308	-4.44664	10.7032	140.488	351.843	0.99273	-0.322253
0.2507	-7.04818	-64.0152	143.683	2.49308	-4.75022	14.9897	170.999	380.856	2.82928	-0.322253
0.2513	-31.1718	-118.332	59.7862	4.63991	-2.92871	13.7576	183.512	184.61	4.3432	0
0.2520	-28.12	-149.166	-97.3896	6.7521	-1.69651	7.34083	173.435	-164.207	6.17975	0
0.2527	-4.61401	-78.3547	-242.336	7.06374	0.732177	7.34083	166.425	-252.384	7.69366	0.322253
0.2533	17.0392	8.6211	-181.634	5.54019	2.57155	10.3952	211.904	-166.015	6.17975	0
0.2540	12.7884	-21.9004	-63.8309	1.55818	2.26796	12.8336	250.354	-77.5234	2.50664	-0.322253
0.2547	-25.9765	-89.0442	-124.565	-0.865654	2.26796	19.5584	206.103	-4.28502	0.372274	-0.322253
0.2553	-47.0484	-62.4856	-260.064	0.0346262	2.87513	22.6128	145.973	-17.1008	-0.223364	0
0.2560	-30.5542	-8.46467	-322.915	0.0346262	1.05362	19.2504	120.947	-4.8747	-0.843821	0
0.2567	-28.4107	-41.7324	-257.599	0.0346262	0.125006	18.9424	84.3375	18.0049	-1.14164	0
0.2573	-54.6779	-105.522	-86.3929	0.657897	1.35721	17.428	52.5994	-66.5554	-0.223364	0
0.2580	-47.339	-94.5367	81.1474	0.346262	1.96438	12.5513	54.7376	-130.909	0.372274	0
0.2587	8.82839	-63.7023	216.93	0.657897	1.66079	9.49687	39.1753	-147.42	0.99273	0
0.2593	44.2146	-61.8773	296.593	1.86981	1.96438	9.80488	-24.0035	-117.818	1.58837	-0.322253
0.2600	27.7204	-61.5644	278.265	2.80472	1.35721	8.57285	-100.606	-3.97052	2.50664	-0.322253
0.2607	15.2226	-118.036	181.855	2.80472	-0.17858	5.21045	-125.632	83.3023	1.29055	-0.322253
0.2613	32.0074	-184.554	61.619	2.49308	0.732177	4.00409	-72.8285	75.3613	0.0744548	0
0.2620	34.7686	-130.238	-10.1118	1.86981	1.05362	2.15605	-9.66832	113.219	-0.843821	0.322253
0.2627	-1.56222	-69.1948	-0.0315995	0.0346262	-0.785751	-3.64475	3.1608	197.425	-4.81474	-0.966759
0.2633	-60.7814	-85.0639	76.8499	0.346262	1.96438	-6.98149	-11.1929	133.976	-6.65129	-1.93352
0.2640	-76.331	-75.9213	114.39	1.55818	5.01809	-5.77513	-24.617	-5.81819	-2.97819	-0.644506
0.2647	-11.6259	-62.4856	-10.4278	1.55818	3.78589	-5.15911	-29.507	-92.7765	0.0744548	0.322253
0.2653	50.9358	-66.7614	-186.5	2.80472	5.01809	-4.5431	-27.0527	16.1573	1.29055	0
0.2660	45.1229	-82.926	-225.273	4.32827	8.37539	-3.02873	-42.3175	239.253	3.42492	-0.322253
0.2667	9.11903	-61.2689	-126.682	2.80472	5.92885	-4.23509	-65.819	147.696	2.82928	0
0.2673	-16.5305	-1.14716	12.7662	0.969533	1.96438	-6.08313	-57.5823	-62.5849	0.0744548	0
0.2680	-21.6895	-19.7625	76.8499	2.18145	2.26796	-4.85111	-20.6567	-151.981	-0.843821	-0.322253
0.2687	-22.0165	-54.5598	12.4818	2.80472	2.57155	-3.33674	15.6738	-409.553	-0.223364	-0.322253
0.2693	-38.8013	-79.2759	-65.3477	2.49308	1.96438	-3.02873	43.7492	-657.337	0.372274	0
0.2700	-57.7297	-131.159	-168.204	4.01664	3.17872	-2.41272	66.0235	-614.33	0.694911	-0.322253
0.2707	-75.4228	-120.174	-276.527	3.11636	1.35721	-4.23509	67.8456	-267.322	-0.843821	-0.322253
0.2713	-78.1476	-74.0789	-261.896	2.49308	0.125006	-5.46712	43.4331	171.204	-1.46428	-0.322253
0.2720	-39.4189	-114.369	-272.577	4.63991	3.78589	-1.4887	22.3859	303.961	1.58837	0
0.2727	5.15898	-174.178	-233.804	5.54019	5.32168	0.0256672	9.25928	321.652	3.74756	0
0.2733	16.1309	-196.773	70.7512	4.32827	2.87513	-2.10471	-6.61908	411.991	2.82928	0
0.2740	21.9438	-183.337	304.84	3.705	1.66079	-2.10471	-22.7763	481.573	0.99273	0
0.2747	60.3818	-63.7023	180.022	3.39337	-1.08934	-2.10471	-43.8421	550.841	-0.546002	0
0.2753	89.3738	33.9456	-34.5382	2.49308	-3.53588	-1.20636	-63.0672	278.919	-2.35773	-0.322253
0.2760	72.9159	20.5273	-63.8309	2.18145	-0.785751	1.84804	-62.4536	-312.492	-1.7621	-0.322253
0.2767	43.597	-9.07302	67.4017	0.969533	0.125006	1.84804	-40.7929	-452.286	-0.843821	-0.322253
0.2773	14.605	-28.0012	165.676	-2.07757	-2.62512	-0.898353	-15.4693	-99.4989	-2.68037	-0.322253
0.2780	-6.13991	23.569	135.751	-1.80056	-1.08934	2.15605	1.63618	41.1991	-2.05992	-0.322253
0.2787	-3.70574	94.9886	184.288	0.969533	0.732177	4.59443	8.34822	-218.497	1.29055	0
0.2793	18.892	45.8518	373.19	0.969533	-1.08934	3.08007	9.55676	-469.386	2.20883	0
0.2800	30.4816	-40.8286	407.064	0.346262	-1.39292	3.38807	4.9829	-448.905	3.1271	-0.322253
0.2807	-6.75753	-26.4717	288.661	0.0346262	-1.39292	4.90244	-17.5889	-293.583	3.74756	0
0.2813	-55.2592	40.9676	188.87	-0.865654	-2.00009	4.59443	-29.507	-122.064	3.74756	0
0.2820	-62.8886	18.0765	-57.7322	-1.17729	0.125006	6.44247	-9.05476	106.811	4.96365	-0.322253
0.2827	-36.9484	-47.2249	-298.489	-0.554019	3.4823	9.18887	5.89396	406.173	8.0163	-0.322253
0.2833	7.59314	-51.8135	-309.801	-0.865654	3.4823	7.34083	-1.11558	661.308	8.61194	0
0.2840	30.7722	-51.5007	-362.888	-1.48893	2.57155	4.28643	-5.68944	752.551	6.47757	-0.322253
0.2847	-0.944601	-81.1009	-370.219	-0.242383	2.26796	3.08007	6.21004	592.944	4.96365	-0.322253
0.2853	-49.7732	-130.846	-160.272	-0.865654	0.428591	1.84804	21.4748	214.212	2.82928	0
0.2860	-60.7814	-116.802	-21.7088	-0.242383	-1.08934	3.08007	19.9316	-36.6389	0.372274	0
0.2867	-43.6696	-26.1762	-49.1688	1.86981	-1.39292	5.51845	-2.34271	-111.41	0.0744548	-0.322253
0.2873	-29.9366	-44.1832	-74.1955	1.86981	-2.30368	3.38807	-26.4391	-367.136	0.372274	-0.322253
0.2880	10.9356	-111.918	-45.8192	1.86981	-2.92871	3.08007	-32.2401	-513.298	1.29055	-0.322253
0.2887	88.1749	69.0384	-46.1352	3.39337	-1.39292	6.13447	-27.6663	-232.57	2.82928	-0.322253
0.2893	118.656	346.443	-65.9481	3.11636	-1.69651	5.82646	-27.6663	-1.53317	3.42492	0
0.2900	81.7443	261.31	8.50026	1.86981	-2.92871	3.08007	-31.0316	39.6659	2.50664	0.322253
0.2907	45.4498	55.62	200.467	1.55818	-2.30368	1.25769	-33.1698	302.113	1.91101	0
0.2913	31.3898	87.9665	373.79	0.657897	-2.00009	0.333674	-33.4673	807.785	1.29055	-0.322253
0.2920	26.5215	175.864	436.357	0.346262	-2.00009	3.08007	-29.1909	1077.58	2.50664	0.322253
0.2927	15.5133	239.948	436.957	0.657897	-2.00009	4.90244	-24.617	692.129	2.50664	-0.644506
0.2933	11.8802	195.991	336.566	1.55818	-3.23229	2.46405	-26.4391	-59.833	-1.14164	-1.93352
0.2940	32.0074	68.7429	179.706	2.49308	-4.44664	2.46405	-29.8045	-438.841	-0.546002	-0.644506
0.2947	41.1628	19.6061	93.0288	2.80472	-3.53588	4.28643	-25.5281	-353.691	4.64102	0
0.2953	35.0592	-6.63964	-49.1688	3.11636	-3.53588	2.77206	-16.9939	-268.266	5.26147	-0.322253
0.2960	42.3981	-45.6953	-299.721	4.32827	-4.75022	0.641681	-19.1135	-235.283	4.64102	0
0.2967	45.7405	-35.9444	-438.285	4.91692	-5.05381	-0.282339	-27.3688	-129.101	5.26147	0.322253
0.2973	15.5133	10.4461	-317.733	3.705	-6.89318	-3.95275	-27.0527	-76.8944	3.74756	0
0.2980	-42.7614	32.7289	-123.933	1.55818	-9.01828	-7.28949	-12.4015	-107.44	1.29055	0
0.2987	-94.3511	77.2771	-147.127	2.18145	-7.50035	-7.28949	11.0814	-131.224	1.58837	-0.322253
0.2993	-89.7734	57.7579	-267.363	3.11636	-6.28601	-7.5975	27.5733	-66.2409	2.50664	0
0.3000	-24.16	-71.6455	-240.535	2.49308	-8.41111	-8.52152	33.3743	118.998	1.29055	0
0.3007	17.0392	-102.463	-126.998	1.55818	-8.71469	-6.39114	25.4351	304.236	0.372274	0
0.3013	-4.90466	-75.313	-90.0585	0.969533	-5.96456	-3.02873	-3.55125	219.126	0.372274	0
0.3020	-10.4269	-96.3617	-203.911	-0.865654	-5.05381	0.333674	-28.5773	-61.0517	-1.14164	0.322253
0.3027	31.7168	-65.5447	-290.557	-2.07757	-4.44664	4.00409	-8.1437	-117.504	-2.35773	0
0.3033	39.6369	-6.9525	-230.739	-0.242383	-4.75022	3.08007	26.3462	-222.467	-0.843821	-0.322253
0.3040	12.4615	-74.6873	-151.425	1.86981	-7.19676	-2.10471	25.119	-603.637	0.0744548	-0.322253
0.3047	5.7766	-187.005	-28.7239	2.49308	-8.10752	-4.85111	4.07185	-597.858	-0.546002	0
0.3053	-1.56222	-112.231	183.056	2.49308	-7.50035	-5.46712	-12.4015	-54.6438	-0.546002	0
0.3060	1.78021	25.7069	389.369	3.39337	-7.80393	-5.77513	-17.5889	257.258	-0.546002	-0.322253
0.3067	24.378	39.7509	439.422	4.63991	-9.01828	-6.98149	-10.2633	65.2974	-0.223364	-0.322253
0.3073	39.0193	20.5273	361.593	4.32827	-9.6433	-7.90551	-1.41306	-164.482	0.0744548	0.322253
0.3080	60.7088	-2.67671	368.007	4.91692	-8.41111	-6.39114	4.36934	-184.02	0.694911	0
0.3087	70.1548	26.6281	311.855	4.63991	-8.71469	-5.15911	8.96179	-38.172	0.99273	0
0.3093	25.6132	175.551	8.50026	3.39337	-9.32186	-5.77513	12.6246	75.0468	0.99273	0
0.3100	-38.4743	324.178	-258.231	3.11636	-9.01828	-5.46712	15.3578	1.53317	0.372274	0
0.3107	-65.0322	276.571	-242.968	2.49308	-11.1612	-6.39114	18.407	-79.0566	0.0744548	0
0.3113	-33.606	82.7695	-103.488	2.80472	-11.1612	-6.08313	21.4748	-23.5086	0.372274	0
0.3120	17.3661	8.30824	-81.2106	4.91692	-6.89318	-1.4887	23.5944	-3.06634	3.1271	0
0.3127	28.665	-15.4867	-144.094	5.54019	-5.96456	0.641681	19.6341	-54.3293	5.26147	0
0.3133	0.581293	-31.3558	-209.378	4.01664	-9.32186	-1.20636	10.4864	-8.57004	3.74756	0
0.3140	-18.6377	98.6386	-298.489	3.39337	-9.32186	-0.898353	7.12109	-155.637	2.50664	0
0.3147	0.254316	184.102	-275.927	3.11636	-8.71469	-0.590346	8.34822	-521.554	2.82928	0
0.3153	16.4579	161.211	-5.21391	2.80472	-9.94689	-1.79671	7.41858	-555.716	2.50664	0
0.3160	4.832	163.957	252.353	3.39337	-8.41111	0.0256672	7.73466	-312.806	3.1271	0
0.3167	27.1391	151.443	267.9	4.32827	-6.58959	1.54003	7.12109	-9.15972	4.04538	0
0.3173	87.8479	101.089	164.444	3.705	-9.01828	-0.282339	3.1608	334.782	2.82928	-0.322253
0.3180	105.25	146.246	155.28	2.49308	-9.94689	-0.898353	1.3201	531.932	1.29055	-0.322253
0.3187	75.9677	262.526	280.098	1.28117	-9.32186	-0.898353	1.02261	582.251	0.0744548	0
0.3193	52.7523	302.816	339.315	0.0346262	-9.94689	-2.10471	-0.502009	612.797	-0.843821	0
0.3200	29.8639	266.802	373.19	1.28117	-8.10752	-0.590346	0.706531	636.895	0.372274	-0.322253
0.3207	-5.23164	182.573	445.205	1.55818	-7.19676	0.333674	1.02261	487.352	0.99273	-0.644506
0.3213	-39.4189	144.734	398.216	-0.242383	-8.71469	-0.282339	-1.41306	249.946	0.694911	0
0.3220	-60.1638	191.42	276.148	-0.242383	-8.41111	0.641681	-2.95628	258.477	1.29055	-0.322253
0.3227	-59.2556	143.204	190.387	0.657897	-7.50035	-1.4887	0.111558	314.929	-2.35773	-1.93352
0.3233	-7.95645	44.0267	68.0021	0.657897	-7.19676	-3.33674	9.25928	139.165	-4.19429	-1.61126
0.3240	66.1947	66.9005	-141.028	0.657897	-5.35739	0.949687	14.7442	-182.487	1.91101	0
0.3247	83.2702	151.443	-213.676	1.28117	-3.83946	4.59443	12.9221	-362.575	5.55929	0
0.3253	71.0631	174.334	-40.6369	2.18145	-3.53588	4.59443	10.7839	-321.376	4.96365	0
0.3260	75.6407	248.187	29.2611	2.18145	-3.53588	5.21045	7.73466	-221.877	5.26147	0.322253
0.3267	57.657	335.163	-180.085	0.657897	-3.83946	4.28643	0.409044	13.4054	3.1271	-0.644506
0.3273	18.892	284.809	-289.957	0.969533	-3.53588	2.46405	-6.303	320.118	0.0744548	-1.28901
0.3280	1.19892	245.736	-191.682	3.11636	-1.39292	6.44247	-9.66832	382.978	3.1271	-0.322253
0.3287	4.832	249.091	-169.12	3.39337	0.428591	10.3952	-15.1532	42.7322	6.47757	0
0.3293	28.665	215.215	-194.432	2.80472	-0.785751	8.88086	-24.3195	-456.846	4.96365	-0.322253
0.3300	55.1865	121.234	-191.082	1.55818	-4.75022	5.21045	-26.4391	-574.35	1.91101	0
0.3307	53.0793	8.6211	-269.828	1.28117	-6.28601	4.59443	-18.5186	-320.433	0.99273	0
0.3313	38.7286	50.1275	-380.9	1.55818	-5.05381	7.03282	-11.8065	-125.13	2.20883	0
0.3320	27.4298	197.225	-418.124	1.55818	-3.53588	8.26485	-9.05476	-124.501	3.42492	0
0.3327	10.3543	249.404	-406.527	1.28117	-2.62512	7.34083	-7.21406	-160.236	3.42492	0
0.3333	-14.387	297.306	-385.166	0.969533	-2.30368	5.51845	-9.35224	-40.2949	2.50664	0
0.3340	-35.7495	339.126	-412.942	0.969533	-3.53588	1.84804	-16.0643	85.15	1.29055	0
0.3347	-22.0165	402.602	-513.649	0.346262	-3.53588	-0.282339	-20.0432	91.5579	0.694911	-0.322253
0.3353	11.5532	569.532	-547.208	0.346262	-0.17858	2.15605	-17.905	98.5554	1.58837	0
0.3360	9.11903	514.902	-348.542	0.0346262	1.96438	2.15605	-16.9939	93.0517	3.42492	0
0.3367	-20.4906	296.09	100.36	-0.865654	0.732177	-0.898353	-19.7271	103.43	3.74756	0
0.3373	-18.3471	271.982	477.563	0.346262	1.05362	-0.898353	-21.2517	345.16	3.42492	-0.322253
0.3380	21.6168	305.563	448.27	0.346262	1.35721	-0.282339	-22.1814	677.19	3.1271	-0.322253
0.3387	42.9794	256.721	207.166	-0.554019	1.05362	0.949687	-23.3899	684.817	1.58837	0
0.3393	39.0193	267.411	103.425	0.0346262	4.08948	6.13447	-21.5678	263.037	0.99273	0
0.3400	48.7923	341.872	177.273	0.0346262	6.23243	8.26485	-20.3407	-336.905	0.0744548	-0.322253
0.3407	52.7523	339.126	266.984	-1.48893	4.41092	4.28643	-19.7271	-558.782	-2.05992	0
0.3413	31.7168	333.32	228.527	-1.48893	5.32168	2.15605	-14.2422	-316.187	-1.14164	0.322253
0.3420	17.6568	336.675	-7.67867	-0.865654	5.92885	1.54003	-8.44119	-105.278	0.0744548	0
0.3427	0.871939	329.67	-370.219	-1.48893	3.17872	-0.898353	-6.91657	-101.307	-1.14164	0
0.3433	-39.4189	447.15	-585.664	-2.07757	2.87513	-1.79671	-6.00552	-139.794	-1.7621	0
0.3440	-58.9286	463.332	-440.402	-2.38921	4.7145	-0.898353	-3.25376	24.4128	-1.7621	0
0.3447	-51.0085	327.828	-36.9714	-3.32411	3.78589	-2.10471	0.111558	357.661	-2.35773	0
0.3453	-38.1837	310.134	259.052	-3.32411	3.4823	-2.41272	4.9829	429.996	-2.05992	0
0.3460	-8.57407	369.334	256.303	-2.07757	3.78589	-0.590346	9.25928	112.59	-1.14164	0
0.3467	-1.85287	320.198	144.315	-2.38921	0.732177	-0.898353	7.41858	-366.231	-1.46428	0
0.3473	-32.0801	198.129	61.9034	-3.01248	-1.39292	-1.4887	4.36934	-798.94	-2.05992	0.322253
0.3480	-42.7614	215.84	41.4585	-2.07757	-0.17858	-0.282339	5.59647	-757.741	-2.05992	0
0.3487	-31.7895	254.896	209.915	-1.48893	2.26796	0.641681	5.89396	-332.973	-2.05992	0
0.3493	-20.7812	166.391	385.103	-0.865654	5.62526	2.46405	6.50752	-153.199	-1.14164	0
0.3500	-8.57407	173.1	405.548	-0.242383	8.98256	5.82646	11.3975	-192.275	0.694911	0.322253
0.3507	9.40968	244.207	450.387	-0.554019	8.37539	6.44247	10.4864	-32.3539	0.99273	0
0.3513	41.7804	234.751	335.966	-1.17729	7.14319	4.00409	2.84472	373.543	0.372274	0
0.3520	62.5253	208.21	17.9485	-0.554019	8.67898	3.38807	-1.41306	438.526	1.29055	0.322253
0.3527	39.0193	177.08	-220.975	-1.48893	7.14319	-0.898353	-3.55125	45.4448	-2.97819	-0.966759
0.3533	-3.70574	181.964	-394.014	-2.38921	6.53602	-4.5431	-1.72914	-169.081	-9.08348	-1.93352
0.3540	-22.0165	224.983	-386.398	-2.07757	9.28615	1.54003	4.07185	-277.425	-4.81474	-0.322253
0.3547	-22.0165	217.353	-151.425	-1.80056	11.1077	7.95684	5.59647	-459.598	0.694911	0.644506
0.3553	-21.6895	176.472	27.4283	-0.554019	11.7327	7.03282	4.68542	-368.354	2.20883	0
0.3560	-21.1082	184.711	81.7478	0.969533	10.5005	3.69608	3.45828	-131.853	3.74756	0
0.3567	-14.06	265.568	185.52	0.0346262	6.8396	0.949687	1.3201	3.02703	3.1271	0
0.3573	15.2226	336.675	238.608	-1.48893	5.01809	0.949687	-0.204522	170.89	0.0744548	0
0.3580	42.0711	261.31	123.87	-2.38921	4.41092	2.77206	0.706531	311.588	-1.14164	0
0.3587	40.5452	142.891	46.9568	-2.07757	5.32168	4.59443	3.77436	336	-0.546002	0
0.3593	33.824	205.464	-17.4429	-2.38921	7.44677	4.90244	5.59647	295.116	-0.843821	0
0.3600	26.5215	327.828	-199.329	-2.70084	7.44677	5.51845	4.68542	152.885	-0.223364	0
0.3607	3.92373	324.473	-360.771	-2.38921	5.92885	4.59443	1.93366	-47.2924	1.29055	0
0.3613	-19.5823	252.15	-316.816	-2.70084	5.32168	3.08007	-1.11558	-196.56	0.694911	0
0.3620	-21.6895	183.181	-108.987	-2.70084	5.92885	4.59443	-4.16482	-282.615	0.372274	0
0.3627	-11.9528	166.391	26.8279	-0.865654	8.67898	7.34083	-6.303	-284.423	2.50664	0.322253
0.3633	3.63308	174.021	18.8649	-1.48893	11.1077	8.57285	-5.39195	-193.809	1.91101	0
0.3640	16.7485	167.92	-21.7088	-2.70084	12.0363	7.64883	-9.35224	-95.5284	-0.223364	0
0.3647	15.8402	199.971	-35.739	-2.07757	11.4291	4.59443	-21.8653	8.21623	0.0744548	0.322253
0.3653	11.8802	215.215	-93.1236	-1.80056	10.1969	0.333674	-32.8537	113.219	0.372274	0
0.3660	-2.17985	177.376	-159.04	-1.80056	8.98256	-3.33674	-43.2286	72.0198	0.694911	0
0.3667	-25.9765	199.346	-155.975	0.0346262	7.14319	-6.08313	-51.7813	-28.3833	1.91101	0
0.3673	-31.4625	229.867	-123.017	0.657897	3.78589	-7.5975	-46.8914	49.4153	2.50664	0
0.3680	-7.37515	237.81	-49.1688	-0.554019	0.428591	-8.82953	-38.0411	165.386	1.91101	0.322253
0.3687	15.8402	286.026	-44.9028	-0.554019	0.428591	-7.90551	-35.9029	140.069	0.99273	0.322253
0.3693	-1.56222	281.142	-177.052	-0.242383	1.96438	-6.98149	-31.9426	41.1991	1.29055	0
0.3700	-23.2154	232.926	-210.294	-1.48893	1.96438	-6.98149	-20.6567	-68.6782	0.99273	0
0.3707	-5.84926	229.867	-76.9447	-1.17729	3.4823	-5.46712	-0.818089	-78.1131	2.20883	0
0.3713	2.39783	163.645	31.3783	0.346262	3.78589	-7.5975	26.3462	151.981	3.74756	0
0.3720	-18.3471	58.0534	89.0789	0.969533	0.732177	-13.0903	40.9974	503.234	4.04538	-0.322253
0.3727	-20.4906	102.619	121.405	1.86981	-0.17858	-16.4527	33.3743	602.733	5.26147	-0.322253
0.3733	-15.0046	163.957	48.1892	2.18145	-1.08934	-21.6375	8.34822	293.858	5.55929	-0.322253
0.3740	-18.6377	97.4219	-83.0434	1.28117	-2.92871	-26.5142	-21.5678	-24.4128	4.96365	0
0.3747	-7.37515	42.7927	-105.637	2.49308	-2.00009	-25.6159	-36.5165	-81.8085	6.77539	0
0.3753	6.68487	37.0047	12.4818	4.01664	-0.785751	-25.6159	-46.5939	-151.666	8.31412	0
0.3760	3.3061	12.584	196.485	3.39337	-3.23229	-27.7463	-57.2662	-323.814	8.0163	0
0.3767	-16.5305	-19.4496	382.354	3.39337	-5.05381	-29.2606	-52.6924	-411.401	8.31412	0
0.3773	-31.4625	-25.5678	431.491	3.39337	-5.35739	-28.9526	-42.615	-306.398	8.93457	0
0.3780	-19.5823	-32.8853	300.543	2.49308	-5.35739	-25.9239	-32.5562	-129.415	8.0163	0
0.3787	-1.27158	-16.095	122.638	3.11636	-2.00009	-17.0687	-18.2025	-122.064	7.69366	0
0.3793	-9.48234	45.5389	3.31794	2.18145	0.125006	-6.98149	-5.68944	-194.398	6.47757	0
0.3800	-22.3071	75.452	-65.0317	-0.242383	-2.00009	-1.79671	7.12109	-135.823	2.82928	0
0.3807	-11.6259	69.9596	-102.888	-0.865654	-2.62512	1.25769	22.6834	-35.1057	0.694911	-0.322253
0.3813	-8.57407	49.5192	-87.6253	0.0346262	-1.69651	4.28643	30.009	22.2506	1.91101	-0.322253
0.3820	-21.6895	13.5052	-72.3628	0.0346262	-3.83946	1.84804	23.2969	82.0836	2.82928	-0.322253
0.3827	-25.3589	0.677869	-63.1989	0.346262	-2.92871	-0.898353	19.3366	115.971	0.372274	-1.93352
0.3833	-24.7413	28.4531	7.26788	2.49308	1.35721	3.69608	23.2969	120.845	1.29055	-1.61126
0.3840	-25.6859	31.8077	54.5723	2.80472	0.428591	6.13447	19.0206	100.089	5.55929	0
0.3847	-28.12	15.3303	23.4468	2.18145	-0.785751	4.59443	16.2688	-27.4792	5.55929	0
0.3853	-37.2754	34.5539	-4.92952	0.969533	-0.785751	4.00409	26.3462	-190.113	2.82928	0
0.3860	-41.2355	22.9606	11.2494	-1.17729	-3.23229	4.28643	38.8592	-245.386	0.694911	0
0.3867	-32.9884	-17.0163	61.9034	-2.70084	-1.08934	8.88086	47.7094	-215.47	0.372274	0
0.3873	-20.4906	-47.5377	95.4936	-3.91276	0.428591	14.0656	46.7984	-120.845	-0.546002	0.322253
0.3880	-7.6658	-106.13	108.607	-5.74795	-2.92871	13.7576	36.1075	13.4054	-2.97819	0
0.3887	-4.32337	-119.548	126.303	-3.91276	-3.23229	13.4496	30.3251	48.1966	-2.35773	-0.322253
0.3893	-16.5305	-127.492	89.3633	-1.17729	-1.08934	12.5513	30.3251	-58.6143	0.0744548	-0.322253
0.3900	-26.5942	-159.838	-11.3442	-0.865654	-2.00009	9.49687	25.7326	-99.4989	-0.546002	-0.322253
0.3907	-23.2154	-130.238	-62.5985	0.657897	-0.482165	8.57285	22.3859	-10.3784	0.0744548	-0.322253
0.3913	-15.0046	-60.9561	-41.5533	2.18145	1.35721	11.0112	22.6834	43.9509	2.20883	-0.322253
0.3920	-12.2435	4.95366	-27.2071	1.28117	-0.482165	10.3952	17.1985	36.3244	1.91101	0
0.3927	-14.387	30.591	-21.7088	0.657897	-0.482165	7.64883	11.3975	22.2506	1.29055	-0.322253
0.3933	-13.7694	45.2434	-1.86437	1.28117	-0.17858	4.59443	8.96179	19.2236	2.20883	-0.322253
0.3940	-11.0082	68.7429	20.0973	1.55818	-2.92871	-0.282339	4.07185	37.8182	2.50664	-0.322253
0.3947	-14.387	91.3211	37.793	2.80472	-2.00009	-2.10471	2.23115	83.3023	3.74756	-0.322253
0.3953	-18.3471	98.6386	32.0103	3.705	-1.39292	-1.4887	2.54723	98.8699	4.96365	0
0.3960	-16.5305	71.7846	2.71755	3.705	-2.62512	-1.79671	1.02261	27.7543	5.88193	0
0.3967	-15.9129	62.3292	-7.36268	3.705	-2.92871	-1.79671	1.3201	-71.7053	5.26147	-0.322253
0.3973	-18.6377	70.5679	12.4818	3.39337	-4.44664	-1.79671	3.45828	-104.059	2.50664	-0.322253
0.3980	-16.8212	48.8935	27.4283	3.11636	-4.14305	1.84804	8.64571	-57.0812	2.50664	0
0.3987	-10.4269	48.2851	23.4468	1.55818	-0.482165	11.3192	15.9713	-11.5971	2.20883	0
0.3993	-8.57407	67.8217	24.0788	-2.38921	0.125006	18.9424	15.0603	-12.2261	-1.7621	0
0.4000	-6.75753	38.2214	25.9116	-6.37122	-1.69651	21.3808	8.03214	-39.3907	-6.03084	0
0.4007	-0.944601	-7.24798	21.614	-8.79505	-2.00009	22.9208	4.9829	-65.9264	-8.46303	0
0.4013	-1.56222	-26.4717	18.8649	-9.72996	-2.62512	22.3048	4.07185	-57.9853	-10.0018	0
0.4020	-3.08812	-14.27	10.649	-8.79505	-1.08934	21.6888	3.1608	-21.661	-8.78566	0
0.4027	0.581293	16.8598	4.23433	-7.2715	1.35721	22.9208	3.45828	18.5946	-6.32866	-0.322253
0.4033	3.92373	29.9827	11.2494	-7.2715	0.732177	21.6888	2.84472	47.6069	-6.32866	-0.322253
0.4040	5.44962	41.8888	11.2494	-8.2064	-1.08934	18.6344	2.84472	49.4153	-8.16521	0
0.4047	3.3061	47.9897	6.66749	-8.79505	-2.00009	18.0441	6.21004	51.263	-9.08348	0
0.4053	-2.17985	27.5319	18.5805	-8.48341	-2.00009	18.6344	9.25928	54.6045	-9.08348	0
0.4060	-3.99639	69.9596	19.7813	-7.58313	-0.17858	20.4824	12.011	42.4177	-7.86739	0
0.4067	-2.4705	116.35	1.80117	-6.68285	1.05362	20.4824	13.2196	38.7617	-6.65129	-0.322253
0.4073	-0.0363308	108.111	-3.41274	-6.37122	-0.17858	18.3264	12.011	46.9779	-7.54475	-0.644506
0.4080	2.10719	116.037	11.2494	-6.68285	-0.785751	18.6344	14.1492	49.7298	-7.24693	0
0.4087	3.63308	98.9515	29.8615	-6.68285	-1.69651	17.428	16.2688	-2.75185	-6.94911	0.322253
0.4093	3.3061	84.2991	33.843	-5.74795	-3.83946	12.8336	14.4467	-90.9682	-8.46303	0
0.4100	4.2507	109.936	23.1624	-2.70084	-2.62512	11.3192	13.5357	-95.2139	-6.03084	0
0.4107	6.35789	96.2053	17.6641	0.0346262	-1.08934	9.80488	11.3975	-32.0394	-3.27601	0
0.4113	3.3061	62.9375	16.1473	0.657897	-2.62512	7.34083	8.34822	-10.3784	-3.59865	0
0.4120	-4.90466	106.877	13.3982	1.86981	-2.30368	8.88086	11.3975	-33.5725	-2.35773	0
0.4127	-10.4269	93.7545	11.8498	1.55818	-3.53588	5.21045	12.6246	-39.0762	-5.41038	-1.61126
0.4133	-11.0082	-14.8784	14.3146	0.657897	-4.75022	0.0256672	10.4864	-12.8157	-10.2996	-2.25577
0.4140	-8.28343	-14.8784	17.6641	1.86981	-2.62512	5.21045	16.2688	4.5602	-6.32866	-0.322253
0.4147	-4.90466	22.6652	16.1473	2.49308	-1.69651	10.7032	25.119	2.43735	-1.14164	0
0.4153	-3.08812	23.569	12.1658	2.80472	-2.00009	10.0872	28.7818	1.80836	-1.14164	-0.322253
0.4160	0.581293	37.3002	9.73264	2.80472	-1.69651	8.88086	30.92	15.2531	-2.35773	0
0.4167	3.01546	27.2364	7.89987	1.28117	-3.23229	6.44247	31.5336	31.7249	-4.81474	-0.322253
0.4173	0.581293	30.2781	5.7511	0.346262	-4.75022	4.59443	30.3251	9.7494	-6.65129	-0.644506
0.4180	-2.4705	57.7579	6.66749	1.28117	-3.23229	7.03282	27.8708	-25.3563	-6.03084	-0.322253
0.4187	-0.944601	48.8935	10.017	0.969533	-3.23229	9.49687	23.9105	-9.78871	-5.73302	0
0.4193	2.72481	35.4751	12.1658	0.657897	-4.14305	11.0112	20.2477	25.6315	-6.03084	0.322253
0.4200	3.3061	71.7846	11.5654	1.86981	-2.30368	12.5513	17.812	44.8551	-6.03084	0
0.4207	3.92373	73.3141	10.017	2.80472	-2.92871	10.3952	5.89396	62.86	-6.65129	0
0.4213	6.68487	48.8935	12.1658	4.63991	-3.23229	6.44247	-18.5186	67.7347	-5.11256	0
0.4220	7.30249	85.8286	14.3146	7.37538	-1.39292	5.21045	-38.9522	38.7617	-2.97819	-0.322253
0.4227	4.2507	74.2353	5.7511	6.44047	-3.23229	2.77206	-38.3572	-8.57004	-3.59865	-0.322253
0.4233	2.10719	76.0604	-8.27906	4.32827	-5.66098	-0.282339	-28.2798	-29.9165	-4.49211	0
0.4240	2.39783	112.683	-10.7122	4.32827	-4.75022	0.0256672	-30.1019	-16.4718	-2.97819	0.322253
0.4247	5.15898	59.2701	4.55032	4.63991	-4.14305	-0.898353	-40.1793	-2.16216	-1.7621	0
0.4253	5.7766	53.7776	17.6641	5.54019	-3.23229	-0.898353	-45.6642	8.53072	0.372274	-0.322253
0.4260	2.39783	91.634	10.017	6.7521	-2.30368	-0.282339	-45.6642	15.8428	2.50664	0
0.4267	0.581293	63.8587	-1.26398	5.54019	-4.44664	-3.64475	-51.4652	11.2826	0.99273	0
0.4273	-0.0363308	12.8969	3.63394	4.32827	-6.58959	-6.08313	-56.0577	6.09337	0.694911	0
0.4280	-0.653955	2.20742	11.8498	4.91692	-5.66098	-6.08313	-38.3572	6.72237	2.50664	0
0.4287	-0.653955	47.0684	8.50026	5.54019	-5.05381	-7.28949	-12.4015	5.1892	4.3432	0.322253
0.4293	-3.37877	26.9236	2.40156	5.85182	-4.75022	-9.44554	-9.05476	2.75185	4.64102	-0.644506
0.4300	-4.32337	-41.4369	3.91833	7.37538	-3.23229	-11.5759	-25.5281	3.65602	2.20883	-1.61126
0.4307	-0.326977	-22.8216	8.50026	7.68701	-4.75022	-13.0903	-32.8537	5.1892	3.42492	-0.322253
0.4313	-0.0363308	23.8818	6.35149	5.54019	-6.58959	-13.7063	-8.44119	5.1892	5.26147	0.322253
0.4320	-1.27158	25.7069	0.56879	3.705	-5.96456	-13.7063	13.8331	3.65602	3.42492	-0.322253
0.4327	-0.326977	15.0348	1.48517	3.705	-4.75022	-13.7063	4.68542	2.75185	2.82928	0
0.4333	0.871939	23.2735	7.89987	5.54019	-2.30368	-12.1919	-1.11558	5.50369	4.04538	0.322253
0.4340	-0.326977	29.3743	7.58387	5.54019	-2.00009	-10.9599	-27.6663	2.75185	3.42492	0
0.4347	-2.17985	34.2585	3.63394	4.63991	-4.44664	-10.9599	-140.879	-3.65602	2.50664	-0.322253
0.4353	-3.99639	24.4902	3.91833	5.85182	-3.53588	-10.6519	-278.522	-4.59951	3.42492	0
0.4360	-5.52228	-9.07302	3.00195	5.22855	-4.75022	-10.9599	-343.225	-6.40787	2.50664	0
0.4367	-6.13991	-19.7625	0.56879	4.01664	-5.66098	-9.44554	-332.851	-6.72237	0.99273	-0.322253
0.4373	-4.61401	-29.8262	3.31794	5.22855	-2.00009	-7.28949	-297.45	5.50369	2.50664	-0.322253
0.4380	-2.4705	-45.087	3.63394	3.39337	-2.62512	-9.72788	-269.058	14.3489	1.91101	0
0.4387	-2.4705	-33.8065	-0.0315995	-0.554019	-6.58959	-14.0143	-229.697	7.94104	-1.46428	0
0.4393	-3.99639	-4.50175	1.48517	-1.17729	-4.14305	-12.1919	-163.469	-2.75185	-1.46428	-0.322253
0.4400	-6.75753	-13.9571	0.252796	-2.38921	-3.23229	-11.5759	-84.728	-24.7273	-1.14164	-0.322253
0.4407	-7.04818	-53.3257	-2.78075	-5.12467	-6.89318	-14.6303	1.3201	-52.7961	-4.49211	-0.322253
0.4413	-2.17985	-30.7474	4.55032	-3.01248	-4.14305	-10.0359	104.771	-46.0738	-3.27601	0
0.4420	-0.653955	-8.46467	9.10065	0.0346262	-2.62512	-6.39114	207.311	-6.09337	-1.14164	-0.644506
0.4427	-2.17985	-52.7174	3.00195	-0.242383	-5.96456	-10.3439	294.289	21.032	-7.86739	-2.25577
0.4433	-1.56222	-54.2469	-0.663589	0.0346262	-6.58959	-13.0903	378.831	19.2236	-9.3813	-1.28901
0.4440	-0.326977	-10.6026	-1.86437	1.55818	-5.96456	-12.4743	409.658	13.1302	-2.97819	0.322253
0.4447	3.92373	19.9015	-4.01313	1.86981	-5.66098	-9.72788	351.053	19.8133	-0.223364	0
0.4453	9.73666	31.8077	-4.32913	1.86981	-5.66098	-5.15911	280.567	28.973	-0.843821	-0.322253
0.4460	10.0273	18.6849	-2.78075	1.28117	-5.35739	-4.85111	244.237	24.4128	-2.05992	-0.322253
0.4467	7.30249	70.2724	-0.947984	0.0346262	-3.23229	-3.02873	213.428	14.0344	-2.97819	-0.322253
0.4473	5.15898	131.906	0.56879	-0.865654	-0.17858	8.26485	167.652	12.5012	-2.68037	-0.322253
0.4480	4.832	97.4219	1.16918	-1.17729	0.732177	16.196	131.638	12.1867	-2.35773	0
0.4487	3.92373	67.5262	0.884785	0.969533	0.732177	14.3736	118.809	11.2826	-0.546002	0
0.4493	4.2507	67.2133	0.56879	4.01664	1.05362	12.5513	106.612	12.1867	2.50664	0
0.4500	7.30249	47.0684	-1.86437	3.705	-0.482165	12.5513	92.2581	10.0639	2.20883	0
0.4507	6.97552	46.773	-4.61352	2.49308	0.428591	15.888	77.6255	7.94104	1.58837	-0.322253
0.4513	5.44962	83.3953	-3.69714	2.49308	5.32168	21.9968	45.5713	7.94104	1.91101	-0.322253
0.4520	4.2507	94.6757	-2.18036	0.969533	6.8396	24.4352	14.4467	7.31205	0.372274	0
0.4527	2.72481	78.5111	0.252796	0.969533	6.8396	22.3048	12.9221	9.15972	0.372274	0
0.4533	1.78021	63.5459	2.08556	1.86981	7.14319	20.1744	20.5452	10.6929	1.58837	-0.322253
0.4540	0.871939	13.5052	-0.0315995	0.0346262	4.08948	18.9424	3.1608	6.99755	-0.223364	-0.322253
0.4547	1.48956	5.26652	-2.18036	-2.07757	2.57155	16.812	-15.4693	4.5602	-1.46428	0
0.4553	1.48956	42.1843	-1.26398	-2.70084	3.4823	15.58	-3.86733	4.5602	-1.46428	-0.322253
0.4560	-0.0363308	26.9236	-0.663589	-3.32411	3.17872	14.6817	24.8216	3.97052	-2.68037	0
0.4567	0.581293	22.6652	-0.0315995	-2.07757	3.17872	15.2977	53.213	4.24571	-2.35773	0
0.4573	0.254316	40.6548	0.884785	-0.865654	3.4823	15.2977	61.7471	4.24571	-1.46428	-0.322253
0.4580	-1.27158	27.5319	0.252796	-0.865654	2.26796	11.3192	33.0582	2.12285	-1.7621	0
0.4587	-1.85287	36.6918	1.80117	1.28117	3.4823	10.3952	-17.905	2.43735	0.372274	0.322253
0.4593	-1.56222	55.0117	1.80117	1.55818	2.57155	10.7032	-52.9898	2.43735	2.20883	0
0.4600	-0.326977	20.8227	-1.86437	0.0346262	-1.39292	6.44247	-45.3667	-1.21867	0.99273	0
0.4607	0.871939	1.59908	0.252796	2.18145	1.66079	5.21045	-6.61908	1.53317	3.1271	-0.322253
0.4613	2.72481	47.0684	3.91833	4.63991	5.01809	5.82646	29.3954	7.31205	5.55929	-0.322253
0.4620	4.54135	87.9665	-0.0315995	2.18145	1.66079	0.0256672	35.81	5.50369	0.99273	0
0.4627	4.2507	65.0754	-2.78075	-0.554019	-0.17858	-3.64475	23.9105	3.65602	-2.35773	0
0.4633	5.15898	57.1496	-0.947984	-1.17729	1.96438	0.949687	7.73466	6.72237	-2.35773	0
0.4640	6.68487	84.2991	-1.57997	-3.32411	1.66079	3.69608	-31.9426	5.50369	-4.49211	0
0.4647	6.68487	58.6617	-2.18036	-4.84766	1.96438	4.59443	-81.9948	2.43735	-5.73302	0
0.4653	10.0273	62.0163	-0.347594	-3.91276	4.41092	7.95684	-155.846	7.31205	-4.19429	0
0.4660	14.605	120.921	-0.347594	-4.53603	5.62526	8.57285	-303.846	14.0344	-4.81474	0
0.4667	14.3143	141.987	-0.947984	-6.68285	9.28615	6.44247	-462.536	10.0639	-6.03084	-0.322253
0.4673	13.0791	119.096	-0.0315995	-7.2715	12.947	2.77206	-498.867	3.65602	-5.11256	0
0.4680	12.4615	76.0604	-0.347594	-6.68285	14.1614	-2.10471	-424.086	3.34153	-4.81474	0
0.4687	12.1708	80.9445	0.252796	-6.68285	9.89332	-7.5975	-324	5.1892	-4.19429	0
0.4693	11.2626	101.698	0.252796	-7.2715	6.23243	-13.0903	-226.034	6.40787	-3.59865	0
0.4700	10.6449	79.1195	-2.18036	-8.48341	47.7344	-16.4527	-182.081	5.50369	-4.49211	-0.322253
0.4707	11.5532	92.2423	-3.41274	-9.72996	124.649	-14.3223	-227.559	4.5602	-5.41038	-0.322253
0.4713	10.9356	111.466	-3.69714	-10.007	163.704	-11.5759	-287.075	5.1892	-5.73302	0
0.4720	6.68487	91.0083	-3.69714	-10.007	156.382	-12.7823	-255.932	5.1892	-5.73302	0.322253
0.4727	3.3061	108.407	-3.41274	-10.3186	136.846	-17.9671	-145.769	4.24571	-6.65129	-0.322253
0.4733	7.59314	110.545	-1.86437	-9.72996	111.827	-21.3295	-3.86733	4.8747	-11.8383	-1.93352
0.4740	20.0909	57.1496	1.48517	-6.95986	75.1999	-18.5831	187.789	6.99755	-11.5157	-1.28901
0.4747	33.5333	62.3292	4.83472	-3.91276	33.3944	-14.3223	361.13	8.21623	-2.97819	0.322253
0.4753	43.3063	99.8727	7.26788	-3.32411	-1.39292	-10.6519	370.278	8.53072	0.0744548	0
0.4760	49.7006	78.8066	9.10065	-4.53603	-30.0907	-8.82953	261.64	8.21623	-2.35773	0
0.4767	52.1347	81.2574	10.649	-4.53603	-52.9667	-10.6519	246.988	8.53072	-2.05992	0
0.4773	51.8441	126.118	10.9334	-3.91276	-69.1461	-14.9383	328.779	7.62655	-0.223364	0
0.4780	48.1747	93.7545	6.98348	-4.22439	-75.2535	-18.2751	382.494	3.34153	-0.223364	0
0.4787	41.4535	57.4451	2.08556	-0.865654	-65.7888	-17.3767	423.082	2.75185	3.1271	0
0.4793	35.6769	111.153	-2.49636	2.49308	-52.3596	-19.5071	443.516	6.40787	6.17975	-0.322253
0.4800	30.7722	134.653	-5.52991	1.28117	-41.6805	-26.2062	387.365	8.84522	4.96365	0
0.4807	18.565	105.974	-4.61352	2.80472	-32.2158	-24.9999	271.401	13.4054	6.47757	0
0.4813	-0.326977	146.559	-4.01313	5.22855	-31.6086	-17.0687	159.713	20.7568	8.93457	-0.322253
0.4820	-21.3988	161.82	-8.59505	1.28117	-39.234	-17.9671	76.6958	21.032	4.96365	-0.322253
0.4827	-43.379	103.836	-12.861	-2.38921	-45.0378	-23.1775	-4.4809	14.9386	0.99273	0
0.4833	-67.1757	118.175	-9.79583	0.657897	-43.8235	-13.3983	-64.9079	10.3784	3.42492	0
0.4840	-85.4864	129.16	-5.21391	4.01664	-42.8949	4.28643	-114.346	4.5602	6.77539	-0.322253
0.4847	-81.1994	112.074	-4.01313	4.32827	-47.1808	8.26485	-162.242	-3.38084	8.0163	-0.322253
0.4853	-59.8368	124.884	-2.49636	3.705	-51.4488	1.54003	-166.221	-1.53317	7.69366	0
0.4860	-37.5661	131.611	0.56879	0.657897	-49.6094	1.84804	-150.342	9.15972	5.26147	-0.322253
0.4867	-16.2035	155.11	2.08556	-1.48893	-40.1447	9.80488	-104.269	17.6904	3.1271	-0.322253
0.4873	0.254316	164.253	3.31794	-2.70084	-31.6086	18.3264	-32.2401	22.8796	2.20883	0
0.4880	9.11903	141.675	3.91833	-4.84766	-27.9477	27.1816	9.87284	25.317	0.372274	-0.322253
0.4887	17.6568	131.298	3.91833	-5.12467	-23.9833	29.928	28.7818	22.5651	-0.546002	-0.644506
0.4893	21.3262	116.646	4.23433	-4.22439	-22.1439	22.6128	33.6718	16.7863	0.694911	-0.644506
0.4900	13.6967	99.2644	3.00195	-6.05958	-22.7511	14.9897	24.208	10.6929	-0.546002	-0.322253
0.4907	4.54135	108.72	0.56879	-6.68285	-3.53588	14.3736	37.0371	7.94104	-1.7621	-0.322253
0.4913	-2.17985	152.364	-0.347594	-3.32411	37.3589	15.58	102.335	9.15972	0.99273	0
0.4920	-2.17985	167.92	-1.26398	0.0346262	64.8244	11.9353	197.55	8.84522	4.3432	0
0.4927	0.581293	136.79	-1.86437	0.0346262	69.0925	8.26485	229.902	8.21623	5.88193	0
0.4933	4.54135	127.631	0.56879	0.0346262	62.6993	6.75048	173.137	9.15972	6.17975	0
0.4940	8.21076	154.485	2.71755	-0.242383	50.7881	5.51845	110.888	10.6929	5.88193	-0.322253
0.4947	2.72481	150.522	3.00195	-2.38921	37.6625	10.0872	41.2949	10.9681	4.04538	-0.322253
0.4953	10.3543	109.624	2.40156	-5.12467	28.5192	23.8192	-28.5773	12.1867	1.91101	-0.322253
0.4960	34.4416	122.138	0.56879	-7.89477	19.358	36.3448	-52.0788	12.1867	-0.223364	-0.322253
0.4967	60.7088	151.443	-1.26398	-10.3186	4.08948	38.1672	-89.3204	8.84522	-2.35773	-0.322253
0.4973	75.9677	166.095	-0.0315995	-10.3186	-6.89318	36.9608	-155.846	7.62655	-2.97819	0
0.4980	85.1231	153.876	3.91833	-7.89477	-7.19676	35.4208	-187.584	11.9116	1.29055	0
0.4987	121.418	121.234	4.23433	-6.68285	-13.3042	26.2832	-167.429	15.2531	2.82928	-0.322253
0.4993	168.103	186.536	2.40156	-5.74795	-21.2331	18.0441	-120.742	20.1278	2.20883	0
0.5000	198.621	236.576	1.48517	-3.60112	-19.0902	14.9897	-74.3531	26.2212	4.3432	0.322253
0.5007	179.111	180.122	-0.663589	-3.01248	-17.5722	10.0872	-34.9919	27.1647	4.3432	0
0.5013	86.9396	165.782	-1.86437	-3.32411	-14.5185	7.64883	-33.7648	28.6978	3.42492	0.322253
0.5020	28.0474	187.457	-1.57997	-3.32411	-4.14305	10.3952	-67.6411	30.1917	2.20883	-0.644506
0.5027	24.6686	164.861	-3.69714	-4.53603	1.05362	11.9353	-67.0275	26.8502	-2.68037	-2.25577
0.5033	-32.0801	135.261	-4.01313	-5.12467	-3.53588	12.5513	-43.8421	20.7568	-3.89647	-0.644506
0.5040	-116.004	123.059	-3.09675	-4.84766	-5.35739	11.9353	-49.0295	17.1008	0.694911	0.644506
0.5047	-184.379	142.283	-2.18036	-3.60112	-3.23229	10.0872	-48.416	16.1573	3.1271	0
0.5053	-211.518	157.544	1.48517	-2.38921	-4.44664	8.26485	-10.5794	10.6929	2.82928	0
0.5060	-159.638	103.227	8.50026	-3.01248	-7.50035	7.03282	20.2477	1.53317	1.58837	0
0.5067	-127.921	98.9515	15.5153	-2.07757	-9.32186	5.51845	41.2949	-3.06634	2.50664	0
0.5073	-154.152	152.051	18.5805	-1.17729	-12.3756	0.641681	75.1712	-4.59951	3.74756	0.322253
0.5080	-169.411	133.749	19.7813	-1.80056	-11.1612	-4.5431	95.9209	-5.50369	3.1271	0
0.5087	-202.69	107.503	19.4969	-2.38921	-4.14305	-4.5431	117.6	-0.904178	2.50664	0
0.5093	-250.574	102.619	14.9149	-2.38921	1.35721	-1.20636	140.172	7.62655	2.50664	0.322253
0.5100	-168.175	79.7278	7.58387	-3.01248	4.7145	0.949687	115.146	15.8428	1.29055	0.322253
0.5107	69.2465	92.2423	2.08556	-2.07757	7.76822	1.84804	53.8079	23.1941	2.20883	0
0.5113	249.883	97.7348	-3.41274	-0.865654	9.89332	0.0256672	-5.39195	23.5086	3.42492	0
0.5120	229.756	73.0187	-11.0282	-1.48893	9.89332	-3.95275	-51.1677	16.7863	2.50664	0
0.5127	163.525	116.646	-18.3593	-1.17729	11.7327	-3.33674	-76.1938	15.2531	2.50664	0
0.5133	198.948	140.458	-22.0248	-0.242383	13.2506	-0.590346	-82.9059	21.3465	2.82928	0.322253
0.5140	187.031	84.0036	-19.2757	-1.17729	10.8041	-3.02873	-82.2923	23.5086	0.99273	0
0.5147	73.8242	81.5529	-12.2606	-2.07757	9.58973	-5.46712	-95.1028	19.2236	-0.223364	-0.322253
0.5153	-35.7495	104.757	-4.92952	-0.865654	11.7327	-3.33674	-136.918	14.0344	1.29055	0
0.5160	-196.877	87.9665	0.56879	-0.554019	12.0363	-3.02873	-159.806	8.84522	1.29055	0
0.5167	-382.418	60.7996	2.71755	-1.80056	10.8041	-3.64475	-129.593	6.72237	0.372274	0
0.5173	-462.092	29.6698	4.23433	-3.01248	12.6434	1.84804	-110.684	6.99755	0.372274	0
0.5180	-497.768	76.9816	6.0671	-3.60112	17.5187	12.5513	-111.595	6.72237	-0.546002	0
0.5187	-548.741	138.007	4.23433	-5.12467	19.0545	16.196	-91.7561	2.43735	-1.14164	0
0.5193	-493.808	94.6757	0.884785	-5.74795	15.6972	10.0872	-78.9456	-1.21867	-2.35773	0
0.5200	-312.554	50.7359	0.56879	-4.53603	13.8578	4.59443	-81.6787	4.5602	-2.97819	-0.322253
0.5207	-134.933	51.6397	-0.947984	-4.22439	12.6434	0.641681	-51.7813	15.2531	-2.68037	0
0.5213	16.1309	41.8888	-7.04668	-3.60112	8.98256	-6.39114	25.4351	23.7838	-2.05992	0
0.5220	169.338	59.8958	-8.59505	-2.07757	6.8396	-11.2679	99.5837	26.2212	-1.46428	0
0.5227	183.979	123.668	-1.26398	-1.80056	7.14319	-12.4743	149.952	25.317	-0.546002	0
0.5233	31.0992	109.328	3.31794	-3.01248	4.7145	-16.1447	178.027	21.3465	-2.05992	-0.322253
0.5240	-100.128	46.1472	2.71755	-3.32411	3.4823	-19.5071	158.802	15.2531	-3.27601	0
0.5247	-144.706	38.8297	4.83472	-3.01248	5.92885	-18.2751	104.474	11.2826	-2.05992	0
0.5253	-181.618	62.642	4.55032	-3.91276	4.41092	-18.8911	64.7963	6.40787	-2.97819	0
0.5260	-244.797	83.0824	2.08556	-3.91276	2.87513	-20.7135	51.3723	6.09337	-4.19429	0
0.5267	-250.901	64.7626	2.40156	-3.32411	3.4823	-20.1231	13.8331	11.9116	-2.68037	0
0.5273	-212.426	20.2144	-1.57997	-2.38921	1.96438	-20.7135	-58.4933	14.3489	-0.843821	0
0.5280	-221	17.781	-10.1118	-0.242383	1.05362	-22.5615	-107.318	10.6929	1.29055	0
0.5287	52.4617	54.0905	-18.9597	3.39337	2.87513	-19.1991	-130.504	12.1867	4.96365	0
0.5293	699.731	61.7208	-31.4731	5.85182	2.26796	-13.3983	-122.881	17.3759	7.69366	0.322253
0.5300	886.799	44.3222	-39.7205	3.11636	-2.30368	-11.2679	-66.4325	12.1867	4.96365	0
0.5307	597.787	16.547	-36.371	2.18145	-0.785751	-8.52152	-13.3311	3.65602	0.372274	-0.966759
0.5313	514.808	32.1206	-28.4079	3.705	5.62526	-2.41272	30.6225	6.09337	0.372274	-0.644506
0.5320	404.326	102.306	-22.6252	-0.554019	6.23243	1.54003	76.1008	5.50369	-0.843821	0.322253
0.5327	64.6688	88.5749	-18.0433	-4.84766	6.53602	5.82646	78.5365	-2.16216	-4.19429	0
0.5333	-137.657	59.5829	-8.59505	-3.01248	14.465	14.6817	57.4707	-5.81819	-2.97819	0
0.5340	-61.9804	80.3362	1.48517	-2.07757	16.9115	14.6817	76.6958	-15.2531	-0.843821	0
0.5347	105.25	56.5238	4.23433	-3.91276	9.58973	4.00409	142.924	-28.6978	-3.89647	0
0.5353	205.342	32.1206	4.83472	-4.53603	7.14319	1.25769	197.252	-21.9755	-6.03084	0
0.5360	197.712	59.5829	8.50026	-2.70084	9.89332	6.44247	198.163	-5.1892	-4.19429	0
0.5367	153.171	29.9827	7.89987	-0.554019	7.44677	3.69608	147.814	-4.59951	-3.89647	-1.28901
0.5373	206.868	-31.3558	3.91833	1.86981	3.4823	-3.64475	66.0235	-13.4447	-5.73302	-1.61126
0.5380	309.393	-8.77753	6.66749	4.01664	5.01809	-3.02873	-14.8557	-15.5676	-0.843821	-0.322253
0.5387	293.226	37.9085	9.10065	4.63991	5.92885	-2.10471	-84.728	-9.47421	3.74756	0.322253
0.5393	252.935	62.3292	6.0671	4.32827	3.78589	-3.02873	-128.979	-5.1892	2.82928	0
0.5400	284.688	58.3663	2.71755	3.11636	3.78589	2.15605	-125.316	-4.59951	0.0744548	0
0.5407	198.003	27.5319	0.884785	1.28117	6.53602	13.7576	-87.7958	0.589681	-2.05992	0
0.5413	-11.9528	25.7069	-1.57997	-1.48893	10.1969	26.5656	-51.4652	10.0639	-4.19429	0
0.5420	-87.9206	37.9085	-3.69714	-4.53603	13.5542	40.0152	-40.7929	15.8428	-6.65129	-0.322253
0.5427	-72.9886	44.6351	-4.61352	-4.53603	17.8223	48.2544	-42.3175	19.2236	-6.65129	0
0.5433	-73.5699	56.2284	-6.76229	-4.22439	17.2151	39.3992	-43.5446	21.3465	-6.03084	0
0.5440	2.72481	68.7429	-7.36268	-4.84766	11.4291	24.7432	-56.3552	18.5946	-6.65129	-0.322253
0.5447	86.322	69.9596	-0.947984	-4.53603	7.14319	19.2504	-71.3039	13.4054	-5.11256	0
0.5453	143.071	69.3512	4.23433	-3.32411	5.32168	16.196	-83.2033	11.2826	-3.59865	0.322253
0.5460	225.178	75.7649	3.91833	-3.01248	4.7145	12.8336	-110.684	12.8157	-3.89647	0
0.5467	256.931	72.7058	3.00195	-2.38921	5.32168	11.9353	-150.342	15.2531	-3.89647	0
0.5473	172.68	120.626	3.31794	-1.80056	6.23243	13.4496	-186.059	17.6904	-2.05992	0
0.5480	29.5733	127.631	0.252796	-2.38921	4.08948	12.2433	-231.835	17.1008	-1.7621	-0.322253
0.5487	-56.2038	117.254	-5.21391	-2.38921	2.26796	10.3952	-259.911	16.4718	-2.35773	0
0.5493	-93.1159	218.274	-9.51144	-1.17729	2.57155	10.0872	-229.994	16.1573	-2.05992	0.322253
0.5500	-112.952	166.704	-14.0934	-1.80056	1.35721	7.64883	-180.556	11.5971	-2.68037	0
0.5507	-63.8332	48.8935	-16.2105	-3.01248	-1.08934	3.38807	-144.541	6.99755	-3.89647	0
0.5513	-29.6459	95.8924	-11.0282	-1.80056	-0.482165	0.0256672	-92.6671	10.3784	-3.59865	0
0.5520	-120.582	107.799	-4.61352	0.657897	1.05362	-3.64475	-19.7271	19.8133	-2.05992	0
0.5527	-177.948	66.2921	-7.36268	0.346262	-0.482165	-8.52152	30.6225	26.2212	-2.35773	-0.322253
0.5533	-104.088	62.642	-12.861	-1.17729	-1.69651	-11.2679	52.8969	25.6315	-3.59865	-0.322253
0.5540	-70.5181	53.7776	-13.7774	0.346262	-1.69651	-11.5759	80.9722	15.8428	-2.35773	-0.322253
0.5547	-107.14	98.9515	-11.0282	2.18145	-2.30368	-12.4743	121.877	1.53317	-2.97819	-0.322253
0.5553	-130.646	91.3211	-6.44629	2.49308	-4.14305	-14.9383	145.973	-8.25554	-3.59865	-0.322253
0.5560	-143.761	20.8227	-2.18036	4.01664	-4.14305	-16.7607	142.924	-11.2826	-2.35773	0
0.5567	-152.626	65.0754	-2.78075	6.16346	-3.53588	-16.4527	137.439	-8.84522	-0.546002	-0.322253
0.5573	-157.821	89.1832	-6.1303	7.06374	-5.35739	-13.7063	119.125	-3.38084	0.99273	-0.322253
0.5580	-176.422	48.8935	-8.27906	8.89893	-5.35739	-10.6519	84.3375	-0.628993	2.82928	0
0.5587	-230.156	78.8066	-8.59505	9.5222	-4.14305	-8.82953	68.1617	-1.84767	4.04538	-0.322253
0.5593	-186.195	71.4891	-9.51144	7.99865	-6.58959	-7.5975	59.6089	-7.35136	3.42492	-0.322253
0.5600	-16.5305	-2.36385	-10.4278	5.22855	-10.2505	-4.23509	45.5713	-13.7592	-0.223364	0
0.5607	50.0275	20.5273	-8.87945	4.32827	-8.41111	0.333674	48.0069	-14.6634	-2.68037	-0.322253
0.5613	19.1827	61.408	-4.61352	3.705	-5.66098	1.25769	63.8853	-14.6634	-4.19429	0
0.5620	41.4535	24.4902	-2.18036	0.0346262	-7.19676	-0.282339	78.834	-18.9091	-8.46303	0.322253
0.5627	75.0231	-9.38588	0.56879	0.657897	-6.89318	1.25769	88.0003	-19.8526	-10.5974	-0.966759
0.5633	79.9278	4.34531	1.48517	5.54019	-3.83946	4.28643	95.0098	-16.1966	-8.78566	-0.966759
0.5640	69.2465	26.6281	-0.663589	3.39337	-4.14305	7.95684	89.8224	-13.1302	-7.54475	0
0.5647	59.4735	26.0197	-0.347594	-0.865654	-6.58959	9.18887	67.2506	-9.15972	-7.86739	0.322253
0.5653	68.9195	23.8818	2.40156	0.346262	-6.58959	7.95684	81.2883	-5.50369	-6.32866	0
0.5660	62.816	19.2932	3.91833	1.28117	-5.05381	5.21045	116.987	-6.09337	-4.81474	-0.322253
0.5667	40.8722	23.2735	5.15071	-0.865654	-4.14305	0.333674	110.572	-6.40787	-5.73302	0
0.5673	21.3262	14.4091	6.0671	-1.48893	-2.30368	-4.23509	82.8129	-5.81819	-4.81474	0
0.5680	-4.32337	-10.3071	5.7511	-0.242383	-0.17858	-6.98149	57.7868	-6.09337	-4.19429	-0.322253
0.5687	-28.12	7.09155	4.83472	0.346262	-2.00009	-8.21351	30.6225	-7.35136	-4.49211	0
0.5693	-54.3509	-1.14716	5.15071	1.28117	-3.83946	-6.98149	9.55676	-8.25554	-2.68037	-0.322253
0.5700	-75.4228	-35.9444	5.7511	3.39337	-2.62512	-4.5431	-4.16482	-8.57004	-0.843821	-0.322253
0.5707	-61.0721	4.03245	4.83472	3.39337	-2.62512	-5.46712	-20.0432	-10.0639	-2.05992	0
0.5713	-3.70574	-13.0533	3.00195	2.49308	-4.14305	-5.77513	-34.9919	-10.0639	-2.68037	0
0.5720	62.2347	-18.8413	3.31794	3.39337	-3.23229	-1.4887	-43.5446	-7.35136	-0.843821	-0.322253
0.5727	84.5055	60.5042	3.91833	4.91692	-1.39292	2.15605	-44.1396	-3.97052	0.99273	0
0.5733	74.1149	31.1994	3.91833	3.39337	-2.92871	3.08007	-45.0693	-3.65602	0.99273	0
0.5740	57.0394	-8.46467	3.91833	1.86981	-5.35739	4.28643	-42.615	-3.65602	0.99273	0
0.5747	17.0392	-13.0533	3.31794	4.01664	-4.44664	7.34083	-26.4391	-1.84767	2.20883	0.322253
0.5753	-21.3988	-38.065	-0.347594	3.39337	-4.75022	7.34083	-28.8934	-2.43735	0.99273	0.322253
0.5760	-26.2672	-15.1912	-2.78075	2.18145	-6.28601	7.03282	-55.4441	-2.43735	-0.843821	0
0.5767	-8.90105	1.28621	-3.09675	3.11636	-5.66098	8.57285	-67.9571	3.02703	-0.546002	-0.322253
0.5773	-7.04818	-24.0383	-3.69714	3.705	-5.05381	7.03282	-59.1069	7.94104	0.694911	-0.322253
0.5780	-57.112	-52.109	-4.92952	3.11636	-5.96456	4.59443	-42.3175	6.99755	1.91101	0
0.5787	-101.654	-66.4485	-5.8459	3.11636	-5.96456	4.00409	-25.5281	4.24571	3.42492	0
0.5793	-76.9487	-7.24798	-5.52991	3.39337	-5.35739	3.08007	-14.2422	2.75185	3.74756	-0.322253
0.5800	-36.9484	24.4902	-6.76229	1.55818	-8.71469	-1.20636	-9.35224	-0.904178	1.58837	0
0.5807	-24.4506	-39.5945	-6.44629	0.346262	-10.5541	-3.33674	1.63618	-5.50369	0.694911	0.322253
0.5813	-18.6377	-18.2329	-4.32913	2.18145	-8.10752	-0.898353	29.3954	-8.25554	2.50664	-0.322253
0.5820	-13.1518	51.3442	-4.32913	3.705	-6.28601	1.54003	48.9366	-8.57004	3.74756	-0.322253
0.5827	-15.9129	9.54231	-4.92952	3.39337	-6.28601	1.25769	40.3838	-9.15972	4.04538	0
0.5833	-22.9247	-38.9862	-3.41274	3.11636	-5.35739	0.949687	25.7326	-7.94104	5.55929	0
0.5840	-26.5942	-38.6907	-2.18036	3.11636	-5.35739	1.54003	15.6738	-4.28502	5.88193	0
0.5847	-26.5942	-58.8182	-3.69714	1.28117	-8.10752	0.0256672	-13.9261	-5.50369	3.42492	0
0.5853	-20.1636	-80.1797	-4.32913	0.0346262	-10.2505	-0.898353	-69.1657	-7.62655	1.91101	0
0.5860	-9.48234	-97.8912	-3.09675	0.346262	-10.2505	0.0256672	-112.803	-2.43735	2.20883	0
0.5867	-3.08812	-95.145	-3.09675	0.657897	-11.1612	-1.20636	-122.267	1.21867	2.20883	-0.322253
0.5873	-2.4705	-88.4358	-3.41274	-0.242383	-12.6792	-3.95275	-110.368	-1.84767	2.50664	-0.322253
0.5880	-3.37877	-93.9283	-1.86437	0.346262	-12.3756	-4.23509	-110.981	-3.65602	3.42492	-0.322253
0.5887	-2.4705	-69.8031	-2.18036	0.0346262	-13.0006	-4.85111	-110.368	-6.72237	3.42492	-0.322253
0.5893	-1.85287	-59.7394	-4.32913	-1.48893	-15.4293	-7.5975	-36.219	-10.6929	1.58837	0
0.5900	-4.32337	-73.7834	-4.32913	-1.80056	-15.4293	-9.13753	52.5994	-9.47421	0.694911	0
0.5907	-9.80932	-45.6953	-4.01313	-0.865654	-13.6078	-8.21351	67.5481	-5.1892	1.58837	0
0.5913	-16.8212	-13.3488	-3.41274	-0.242383	-12.6792	-6.69915	57.1732	-1.53317	1.58837	0
0.5920	-20.7812	-59.4439	-3.41274	-0.242383	-12.072	-6.98149	53.8079	-1.21867	1.58837	-0.644506
0.5927	-21.3988	-122.295	-3.41274	3.11636	-10.5541	-10.6519	30.3251	-2.16216	1.91101	-1.28901
0.5933	-26.2672	-116.507	-3.09675	3.11636	-11.1612	-13.7063	6.21004	-2.75185	1.29055	-0.644506
0.5940	-32.3708	-93.6154	-2.49636	-2.70084	-12.6792	-16.4527	26.0487	-4.8747	-1.14164	0.322253
0.5947	-31.4625	-91.1821	-0.947984	-4.53603	-11.4648	-19.8151	56.5597	-7.35136	-2.68037	0
0.5953	-27.7931	-106.13	-0.347594	-3.32411	-9.32186	-16.7607	51.0748	-8.25554	-1.46428	0
0.5960	-29.0283	-100.637	-1.57997	-2.38921	-7.19676	-8.52152	40.6999	-10.3784	0.0744548	0.322253
0.5967	-39.7096	-81.4138	-2.18036	-1.17729	-4.75022	-4.5431	46.4823	-10.6929	0.694911	0
0.5973	-47.6297	-104.913	-1.86437	0.657897	-3.83946	-3.95275	48.6205	-5.50369	1.91101	-0.322253
0.5980	-43.052	-110.093	-3.09675	1.55818	-3.23229	-3.33674	48.9366	-2.16216	2.82928	-0.322253
0.5987	-33.606	-89.3397	-6.44629	1.28117	-2.92871	-2.10471	42.522	-3.38084	3.1271	-0.322253
0.5993	-29.6459	-76.2168	-7.67867	1.86981	-4.75022	-0.282339	18.407	-2.75185	3.1271	-0.322253
0.6000	-40.3272	-54.2469	-5.8459	3.11636	-6.28601	0.0256672	-5.07587	-0.904178	4.96365	0
0.6007	-60.1638	-76.2168	-3.69714	4.32827	-5.05381	0.641681	-9.05476	-2.75185	6.17975	-0.322253
0.6013	-81.1994	-121.999	-1.26398	5.54019	-2.00009	3.69608	1.3201	-3.65602	7.39584	-0.322253
0.6020	-89.7734	-128.708	-0.947984	6.16346	-0.785751	6.13447	1.63618	-1.53317	8.93457	-0.322253
0.6027	-52.825	-112.839	-2.18036	5.22855	-1.39292	6.75048	2.54723	-0.628993	8.31412	-0.322253
0.6033	2.39783	-104.305	-3.09675	3.39337	-0.17858	7.95684	14.1492	-0.904178	5.88193	-0.322253
0.6040	19.8003	-114.664	-3.69714	1.55818	2.87513	12.5513	7.41858	0	4.04538	-0.322253
0.6047	15.2226	-118.332	-3.69714	0.969533	5.62526	18.3264	-10.8769	0.904178	4.3432	-0.322253
0.6053	14.605	-111.918	-4.32913	0.969533	5.32168	18.3264	-16.3804	1.53317	5.26147	0
0.6060	17.3661	-123.529	-2.78075	0.657897	3.17872	14.6817	-9.96581	1.53317	6.17975	-0.322253
0.6067	51.5534	-127.492	-0.947984	0.657897	1.35721	10.0872	3.1608	0.589681	5.55929	-0.322253
0.6073	102.199	-136.947	-2.18036	-0.242383	-0.482165	5.82646	10.7839	-0.314497	4.04538	-0.322253
0.6080	58.5653	-129.021	-3.09675	-1.17729	-0.785751	4.59443	7.41858	1.21867	4.04538	0
0.6087	-70.2275	-71.3327	-3.09675	-0.242383	-0.482165	4.59443	3.45828	4.5602	4.96365	-0.322253
0.6093	-149.574	-79.5714	-4.01313	1.28117	0.428591	4.90244	4.07185	6.40787	6.17975	-0.322253
0.6100	-152.335	-124.137	-4.61352	1.55818	0.732177	4.90244	4.68542	5.1892	7.39584	0
0.6107	-108.375	-115.585	-3.41274	1.55818	-0.482165	3.38807	3.77436	3.97052	7.69366	0
0.6113	-45.8132	-119.548	-1.86437	1.55818	-2.30368	1.54003	2.23115	1.21867	7.39584	-0.322253
0.6120	-2.4705	-111.918	-2.18036	1.55818	-3.53588	0.641681	-0.204522	-3.38084	6.47757	-0.322253
0.6127	13.4061	-103.384	-1.86437	1.28117	-3.83946	0.949687	-1.11558	-5.1892	6.17975	-0.322253
0.6133	13.4061	-161.055	-0.663589	0.969533	-3.23229	1.54003	-1.72914	-4.28502	5.88193	-0.322253
0.6140	13.0791	-171.136	-1.57997	0.657897	-3.83946	0.0256672	-3.55125	-4.28502	4.96365	-0.322253
0.6147	12.4615	-125.962	-1.86437	0.346262	-3.83946	-0.282339	-3.86733	-3.65602	4.64102	-0.322253
0.6153	2.72481	-124.432	0.56879	1.28117	-3.53588	0.333674	-2.6402	-3.06634	5.55929	-0.322253
0.6160	-8.28343	-155.267	2.08556	0.346262	-5.35739	-1.4887	-4.16482	-5.1892	4.3432	-0.322253
0.6167	-11.6259	-168.39	1.16918	-0.242383	-6.58959	-3.02873	-7.21406	-6.72237	3.1271	-0.322253
0.6173	-7.95645	-126.57	0.884785	-0.242383	-4.75022	-2.10471	-7.53014	-5.50369	3.74756	0
0.6180	-4.90466	-104.305	1.80117	-0.865654	-3.23229	-0.590346	-6.303	-3.06634	4.96365	0
0.6187	-5.52228	-120.782	1.80117	-1.17729	-2.92871	-0.898353	-6.00552	-1.21867	5.55929	0
0.6193	-1.27158	-147.636	1.16918	0.0346262	-2.62512	-1.4887	-6.00552	-0.628993	6.47757	0
0.6200	-11.3352	-147.932	0.56879	0.657897	-3.23229	-3.02873	-8.1437	-0.314497	6.47757	0
0.6207	-48.2473	-125.962	-1.57997	-0.242383	-5.66098	-6.39114	-11.4904	-0.904178	4.3432	-0.322253
0.6213	-78.7652	-142.439	-1.57997	0.346262	-5.05381	-6.39114	-11.1929	-0.628993	4.04538	-0.322253
0.6220	-88.2475	-136.947	-0.347594	1.55818	-2.62512	-4.5431	-9.66832	0.314497	5.55929	-0.644506
0.6227	-79.6735	-148.54	-0.0315995	3.11636	-1.39292	-5.77513	-9.66832	0.589681	6.17975	-1.28901
0.6233	-49.7732	-178.453	-0.663589	4.32827	-1.39292	-8.21351	-10.5794	0.314497	5.88193	-1.28901
0.6240	-36.0402	-151.912	-0.0315995	2.18145	-2.92871	-6.39114	-9.96581	0	6.47757	0
0.6247	-29.319	-125.354	-0.0315995	0.0346262	-5.35739	-6.39114	-8.73868	-0.314497	5.55929	-0.644506
0.6253	54.2782	-145.794	-0.0315995	1.28117	-6.28601	-8.52152	-8.44119	-0.314497	2.50664	-1.93352
0.6260	151.318	-132.984	3.31794	1.28117	-4.75022	-5.77513	-4.77838	2.12285	1.58837	-0.644506
0.6267	141.545	-94.2238	4.83472	-2.07757	-5.05381	-2.41272	-2.95628	4.5602	1.58837	0
0.6273	77.4936	-83.5517	1.48517	-5.12467	-7.50035	-3.02873	-4.4809	3.97052	0.372274	-0.322253
0.6280	10.3543	-88.4358	-0.947984	-5.74795	-8.41111	-3.02873	-4.4809	1.80836	-0.223364	-0.322253
0.6287	-33.8966	-144.89	-1.57997	-5.12467	-7.80393	-3.33674	-3.86733	0.589681	-0.546002	-0.644506
0.6293	-5.84926	-170.528	-4.32913	-4.53603	-9.01828	-6.08313	-6.00552	-1.21867	-2.35773	-1.28901
0.6300	48.7923	-162.271	-6.1303	-3.60112	-9.01828	-6.69915	-7.53014	-1.21867	-2.97819	-1.61126
0.6307	72.2983	-195.852	-4.01313	-1.48893	-5.96456	-3.33674	-4.16482	1.21867	-0.546002	-1.28901
0.6313	61.2901	-185.163	-1.57997	-2.07757	-5.35739	-0.282339	-2.02663	1.53317	0.694911	-0.322253
0.6320	30.1909	-138.476	-1.26398	-3.91276	-7.19676	-0.898353	-4.16482	0.904178	0.0744548	0
0.6327	10.3543	-129.317	0.884785	-2.70084	-6.89318	0.0256672	-3.25376	3.97052	2.20883	0
0.6333	9.73666	-112.544	1.80117	-2.07757	-6.28601	0.949687	-2.02663	5.1892	2.82928	-0.322253
0.6340	3.3061	-116.194	-0.947984	-4.53603	-7.50035	-1.20636	-3.86733	2.12285	0.99273	-0.644506
0.6347	-6.75753	-154.346	-0.347594	-5.12467	-5.35739	-0.590346	-2.6402	0.314497	1.58837	-0.322253
0.6353	-3.08812	-122.92	2.08556	-3.91276	-2.30368	1.54003	0.706531	-0.314497	3.1271	0
0.6360	1.78021	-97.2829	0.56879	-5.43631	-3.23229	0.641681	0.706531	-1.84767	1.29055	0
0.6367	1.78021	-144.577	-2.49636	-8.79505	-4.75022	-0.282339	-1.72914	-3.97052	-0.843821	0
0.6373	7.59314	-130.846	-1.26398	-9.10668	-2.00009	0.949687	-0.502009	-4.59951	-1.46428	-0.322253
0.6380	13.4061	-107.347	0.252796	-9.41832	-0.785751	0.949687	0.111558	-3.65602	-2.97819	-0.322253
0.6387	14.932	-131.767	0.56879	-12.7771	-1.69651	0.949687	-1.11558	-2.43735	-5.11256	-0.322253
0.6393	14.932	-80.8055	2.40156	-13.989	0.732177	3.38807	0.706531	-0.314497	-5.11256	-0.322253
0.6400	10.3543	-74.6873	2.40156	-13.989	1.05362	2.77206	1.02261	1.80836	-4.81474	0
0.6407	8.50141	-187.3	-0.347594	-15.2009	-1.69651	0.0256672	-0.502009	2.12285	-6.32866	0
0.6413	16.4579	-183.65	0.252796	-11.8422	-2.00009	0.0256672	0.409044	0.589681	-5.11256	-0.322253
0.6420	27.4298	-116.507	2.40156	-5.43631	-0.785751	0.949687	1.93366	0	-1.14164	-0.322253
0.6427	35.6769	-119.861	0.56879	-3.01248	-2.00009	-2.10471	0.706531	-0.314497	-1.14164	0
0.6433	55.5135	-103.071	-0.663589	-4.22439	-2.30368	-2.72073	-0.818089	0	-2.05992	0
0.6440	81.7443	-89.3397	0.252796	-3.60112	-1.08934	-1.20636	-0.204522	0.589681	-1.7621	0
0.6447	65.5771	-112.231	0.56879	-2.70084	-2.62512	-2.72073	-1.11558	0	-2.68037	0
0.6453	21.0355	-108.268	0.884785	-2.38921	-3.53588	-3.95275	-2.6402	-0.904178	-3.89647	-0.322253
0.6460	-9.80932	-94.8321	3.00195	-0.554019	-0.785751	-1.79671	-0.502009	0.904178	-2.68037	-0.322253
0.6467	-32.0801	-94.2238	3.31794	0.346262	0.428591	-0.590346	0.706531	1.80836	-1.7621	-0.322253
0.6473	-31.1718	-99.4208	1.16918	-0.554019	-1.08934	-1.79671	-1.11558	-0.628993	-2.68037	-0.322253
0.6480	-19.5823	-93.9283	-0.347594	0.346262	-0.17858	-1.79671	-1.11558	-0.904178	-3.59865	-0.322253
0.6487	-35.7495	-94.5367	-3.69714	2.49308	-0.17858	-2.10471	-0.818089	0.314497	-4.49211	-0.322253
0.6493	-47.6297	-104.305	-9.19544	4.63991	-2.30368	-3.33674	-2.95628	-0.628993	-6.32866	-0.322253
0.6500	-26.2672	-105.209	-11.9446	6.16346	-1.69651	-2.41272	-3.55125	-0.628993	-6.32866	-0.322253
0.6507	-10.7176	-114.369	-10.1118	8.27566	0.428591	-0.590346	-2.02663	1.21867	-3.89647	0
0.6513	-10.4269	-144.89	-6.76229	11.0458	0.428591	-0.898353	-2.02663	-0.628993	-2.35773	0
0.6520	23.1427	-163.505	-2.78075	14.0929	-0.17858	-1.79671	-3.86733	-3.65602	-0.843821	-0.322253
0.6527	50.0275	-135.417	0.252796	17.14	-0.17858	-1.79671	-4.4809	-2.75185	2.20883	0
0.6533	28.0474	-126.883	-0.663589	18.3519	-2.00009	-4.5431	-6.00552	-2.16216	3.74756	-0.644506
0.6540	6.97552	-142.752	-3.09675	18.9751	-3.53588	-8.82953	-8.44119	-2.16216	3.74756	-1.61126
0.6547	42.6887	-117.723	-2.49636	19.2868	-2.62512	-7.5975	-7.53014	0.904178	4.96365	-0.966759
0.6553	92.1349	-105.522	-0.0315995	17.14	-1.08934	-3.33674	-4.4809	3.02703	6.17975	0
0.6560	42.6887	-109.797	0.884785	14.6815	-0.785751	-1.79671	-3.86733	3.02703	5.26147	-0.322253
0.6567	-36.6578	-82.926	-0.0315995	12.8809	-0.785751	-2.72073	-4.77838	2.43735	3.74756	0
0.6573	-76.331	-101.854	-2.49636	11.3228	-0.785751	-3.33674	-5.39195	1.80836	1.91101	0
0.6580	-153.243	-109.172	-4.32913	10.7341	-1.39292	-2.10471	-5.39195	3.02703	2.20883	0
0.6587	-240.837	-77.4335	-4.92952	9.5222	-2.30368	-2.10471	-4.77838	4.5602	2.20883	-0.322253
0.6593	-221.909	-80.8055	-4.01313	8.58729	-1.69651	-1.4887	-3.86733	4.8747	2.20883	0
0.6600	-90.9724	-71.0372	-1.86437	8.58729	0.428591	0.333674	-2.34271	7.31205	2.82928	0
0.6607	20.0909	-49.0673	-1.26398	7.37538	-0.17858	-0.282339	-2.6402	10.0639	0.99273	-0.322253
0.6613	42.6887	-23.4299	-3.41274	6.44047	-1.08934	-1.20636	-3.55125	10.6929	-2.05992	-0.322253
0.6620	-6.43055	42.7927	-4.01313	6.44047	-0.482165	-0.590346	-2.6402	8.84522	-2.68037	-0.322253
0.6627	-94.0241	40.9676	-3.41274	5.54019	-1.08934	-1.20636	-2.95628	5.50369	-3.27601	-0.322253
0.6633	-177.948	-42.3407	-3.09675	4.01664	-2.62512	-2.41272	-3.86733	3.34153	-3.59865	-0.322253
0.6640	-243.271	-93.9283	-0.947984	4.01664	-1.39292	-1.4887	-2.6402	3.02703	-2.68037	0
0.6647	-225.578	-98.7951	1.48517	3.705	-1.39292	-1.79671	-2.34271	1.80836	-2.97819	-0.322253
0.6653	-112.952	-90.2609	-0.0315995	2.49308	-2.30368	-3.02873	-2.6402	1.21867	-4.19429	-0.322253
0.6660	-51.6261	-69.5076	-3.09675	2.18145	-1.69651	-1.79671	-1.72914	1.21867	-4.49211	-0.322253
0.6667	-120.582	-46.9294	-5.52991	0.969533	-2.30368	-1.79671	-2.02663	1.80836	-5.41038	-0.322253
0.6673	-104.705	-56.3848	-7.04668	0.346262	-3.53588	-3.02873	-2.34271	6.72237	-5.73302	-0.322253
0.6680	105.25	-90.8692	-5.21391	0.346262	-2.92871	-2.10471	-0.818089	10.9681	-6.65129	-0.322253
0.6687	273.389	-91.7904	-1.26398	-0.242383	-2.30368	-0.898353	-0.502009	9.7494	-2.68037	-0.322253
0.6693	304.816	-71.0372	3.00195	0.969533	-2.62512	-1.20636	-1.41306	6.40787	20.2269	-0.644506
0.6700	264.234	-79.8843	3.91833	2.18145	-2.62512	-2.10471	-2.02663	4.24571	45.2437	-0.322253
0.6707	165.051	-88.7313	-0.663589	0.969533	-2.62512	-2.41272	-2.95628	6.40787	54.079	-0.322253
0.6713	106.776	-46.6165	-7.04668	-1.17729	-2.30368	-1.20636	-2.34271	11.5971	62.9391	-0.322253
0.6720	148.884	-36.2399	-10.4278	-4.22439	-1.08934	0.641681	-0.818089	13.1302	22.6591	-0.322253
0.6727	206.25	-80.4926	-12.2606	-7.2715	-0.785751	1.25769	-0.204522	10.9681	-66.1407	-0.322253
0.6733	219.075	-108.876	-10.4278	-8.2064	-1.69651	0.333674	-1.72914	9.4349	-76.2169	0
0.6740	149.501	-71.0372	-4.32913	-7.89477	-2.00009	0.333674	-2.34271	9.15972	-31.6681	0
0.6747	30.1909	-42.3407	-0.347594	-6.05958	-1.69651	0.949687	-2.34271	9.4349	-23.1306	0
0.6753	-3.70574	-62.1901	-0.663589	-2.38921	-1.69651	1.25769	-2.34271	10.3784	-24.3467	-0.322253
0.6760	62.2347	-71.6455	-1.86437	2.18145	-0.785751	1.84804	-1.11558	12.8157	-15.1888	-0.322253
0.6767	101.872	-65.8402	-2.78075	5.54019	-1.08934	1.54003	-0.818089	12.1867	-10.92	-0.322253
0.6773	71.39	-61.2689	-4.32913	5.85182	-2.30368	0.949687	-1.72914	8.53072	-10.2996	-0.644506
0.6780	81.1267	-56.0719	-5.8459	4.63991	-2.62512	-0.282339	-2.02663	5.50369	-10.2996	-0.322253
0.6787	105.25	-48.7544	-3.41274	2.80472	-2.92871	-0.590346	-2.02663	0.904178	-8.16521	0
0.6793	5.15898	-37.4566	0.252796	3.39337	-2.62512	0.641681	-1.72914	-1.84767	0.694911	-0.322253
0.6800	-83.6699	-46.6165	-3.09675	4.01664	-2.00009	0.641681	-1.41306	0	9.82803	0
0.6807	-59.2556	-49.3628	-9.79583	4.01664	-2.62512	-0.282339	-2.34271	2.43735	15.015	-0.322253
0.6813	-48.5743	-61.2689	-11.3442	4.01664	-2.30368	0.333674	-2.34271	3.97052	14.7172	-0.322253
0.6820	-96.7853	-75.9213	-10.1118	2.80472	-1.69651	0.949687	-1.72914	3.02703	-9.70394	0
0.6827	-141.036	-81.1009	-9.51144	0.346262	-3.53588	-2.10471	-5.07587	-4.59951	-41.1239	-0.966759
0.6833	-108.665	-71.0372	-7.04668	0.969533	-4.44664	-3.95275	-7.82762	-12.2261	-38.0712	-1.61126
0.6840	-41.2355	-43.2619	-2.78075	2.80472	-2.00009	-0.898353	-4.77838	-12.8157	-12.1361	-0.644506
0.6847	-12.5341	-40.2028	-2.18036	2.49308	-1.08934	1.25769	-2.34271	-13.1302	10.7463	0
0.6853	-7.95645	-37.1611	-3.69714	1.86981	-2.30368	0.333674	-3.25376	-14.0344	15.6355	-0.322253
0.6860	-10.4269	-29.5308	-2.78075	2.18145	-2.00009	0.641681	-2.02663	-11.9116	5.26147	-0.322253
0.6867	-22.6341	-25.8633	-2.18036	1.86981	-2.00009	-0.282339	-2.02663	-10.6929	-6.94911	0
0.6873	-35.7495	-55.4636	-2.78075	0.969533	-3.83946	-2.10471	-4.77838	-11.9116	-16.4049	-0.322253
0.6880	-43.6696	-100.029	-1.57997	1.55818	-2.92871	-0.898353	-4.4809	-12.2261	-15.1888	-0.322253
0.6887	-33.606	-24.9421	-1.86437	2.18145	-1.69651	0.641681	-3.55125	-11.0074	-9.3813	0
0.6893	-7.37515	-0.8343	-4.32913	0.657897	-3.23229	-0.590346	-5.07587	-9.78871	-8.16521	0
0.6900	7.88379	-69.1948	-4.92952	-0.242383	-3.53588	-1.20636	-5.68944	-7.35136	-4.19429	-0.644506
0.6907	16.4579	-71.6455	-3.41274	0.0346262	-2.00009	0.0256672	-4.77838	-3.06634	7.09802	-0.322253
0.6913	22.5614	-85.9851	-2.18036	-1.17729	-2.92871	-0.590346	-5.07587	-0.904178	5.55929	0
0.6920	10.3543	-68.291	-0.663589	-2.07757	-2.92871	0.333674	-4.4809	-0.628993	-13.9727	-0.322253
0.6927	-3.37877	-39.299	1.16918	-0.554019	-0.785751	2.15605	-2.95628	0	-17.621	-0.322253
0.6933	-5.23164	-69.1948	-0.947984	0.0346262	-2.62512	0.0256672	-4.77838	-1.21867	-6.65129	-0.644506
0.6940	-2.79747	-75.9213	-2.49636	-1.17729	-5.05381	-2.10471	-7.53014	-3.06634	-6.94911	-0.322253
0.6947	-12.8611	-50.5795	-0.347594	-0.865654	-3.53588	-0.282339	-6.303	-1.84767	3.1271	-0.322253
0.6953	-42.4707	-52.109	1.48517	-0.865654	-2.00009	1.25769	-5.07587	-0.314497	25.0913	-0.322253
0.6960	-77.2393	-57.9143	1.48517	-1.17729	-2.62512	0.641681	-5.68944	-0.628993	27.5483	-0.322253
0.6967	-105.614	-42.0453	1.80117	-0.865654	-1.69651	0.949687	-6.00552	0	22.6591	-0.322253
0.6973	-95.877	-71.3327	0.884785	-1.80056	-1.39292	0.333674	-6.61908	1.21867	9.23239	-0.322253
0.6980	-39.092	-93.3026	-1.86437	-3.91276	-2.92871	-1.79671	-7.82762	0.589681	-20.9714	-0.322253
0.6987	14.3143	-70.4288	-2.78075	-2.07757	-2.62512	-1.79671	-7.53014	0.589681	-16.7027	0
0.6993	41.4535	-28.9224	-0.663589	2.18145	-1.08934	0.333674	-6.00552	3.02703	26.9278	0
0.7000	77.1666	-2.97219	-0.347594	1.55818	-1.08934	0.0256672	-6.00552	4.24571	48.892	-0.322253
0.7007	111.972	-11.8366	-1.86437	-2.38921	-1.69651	-1.20636	-7.21406	3.97052	48.2963	0
0.7013	103.724	-8.46467	-0.947984	-3.91276	-1.39292	-0.898353	-6.303	4.5602	33.6536	0
0.7020	73.2066	24.7857	0.56879	-4.84766	-1.69651	0.0256672	-4.77838	4.24571	-23.1306	-0.322253
0.7027	31.7168	39.7509	-0.0315995	-6.95986	-2.92871	0.333674	-4.16482	3.65602	-72.8664	-0.322253
0.7033	-16.8212	4.65818	-0.947984	-6.68285	-2.92871	1.54003	-2.95628	3.34153	-51.4979	-0.322253
0.7040	-40.9448	-40.2028	-0.947984	-5.43631	-2.00009	2.46405	-1.41306	3.02703	-10.92	0
0.7047	-48.2473	-66.7614	-0.663589	-4.84766	-2.00009	2.15605	-1.41306	3.97052	-10.5974	0
0.7053	-48.2473	-77.7464	-0.347594	-2.70084	-2.00009	1.84804	-1.72914	6.09337	-18.2414	-0.322253
0.7060	-46.4308	-40.8286	-0.947984	0.0346262	-1.39292	2.15605	-2.02663	6.99755	-0.223364	-0.322253
0.7067	-65.3591	-8.46467	-3.09675	-1.17729	-2.30368	0.333674	-5.07587	5.50369	14.4194	-0.322253
0.7073	-18.0564	-0.8343	-4.92952	-2.07757	-2.62512	-1.4887	-7.21406	6.72237	15.6355	-0.322253
0.7080	120.182	-8.77753	-5.52991	-1.80056	-1.08934	-0.590346	-4.4809	10.9681	15.3377	-0.322253
0.7087	170.864	-41.1241	-6.1303	-2.07757	-0.785751	0.641681	-2.34271	12.8157	-2.35773	-0.322253
0.7093	104.923	4.65818	-5.21391	-3.01248	-2.30368	-0.282339	-2.6402	11.5971	-27.995	-0.322253
0.7100	37.8204	59.8958	-2.78075	-4.22439	-3.53588	-1.79671	-2.95628	9.4349	-34.7207	-0.322253
0.7107	7.88379	-1.46003	-1.26398	-4.84766	-4.14305	-2.10471	-3.55125	8.53072	-24.3467	-0.322253
0.7113	11.8802	-42.6536	-0.663589	-3.91276	-2.00009	0.0256672	-1.11558	8.84522	-9.70394	0
0.7120	24.6686	-9.69874	0.252796	-3.60112	-0.482165	2.15605	1.02261	6.99755	-1.7621	-0.322253
0.7127	25.9039	-61.5644	-0.947984	-3.91276	-2.30368	-0.590346	-1.41306	3.65602	7.09802	-0.966759
0.7133	17.0392	-136.651	-0.347594	-4.22439	-3.53588	-3.95275	-3.25376	3.02703	17.4721	-0.966759
0.7140	8.21076	-89.6525	1.16918	-5.12467	-2.62512	-2.10471	-0.502009	2.75185	3.74756	0
0.7147	4.54135	-32.5725	-0.347594	-5.74795	-2.92871	-1.20636	0.409044	1.21867	-7.54475	0
0.7153	3.3061	-32.8853	-0.947984	-4.84766	-2.92871	-1.4887	0.706531	0.904178	11.9872	-0.322253
0.7160	2.10719	-41.1241	0.56879	-1.80056	-1.69651	0.0256672	2.84472	2.43735	23.8752	-0.322253
0.7167	10.0273	-43.2619	1.80117	-0.242383	-1.39292	0.949687	3.45828	3.02703	21.443	-0.322253
0.7173	23.4697	7.40442	1.48517	-0.242383	-2.30368	1.25769	1.02261	2.43735	21.443	-0.322253
0.7180	26.8121	26.0197	1.16918	1.28117	-2.62512	2.46405	-1.72914	1.53317	-1.14164	0
0.7187	25.6132	0.382388	2.71755	3.11636	-2.00009	4.90244	-2.34271	1.21867	-27.995	-0.322253
0.7193	28.338	34.5539	3.63394	3.39337	-0.785751	6.44247	-2.02663	1.53317	-29.2111	-0.322253
0.7200	14.932	57.1496	2.40156	1.55818	-1.39292	5.51845	-3.25376	1.80836	-24.9424	-0.322253
0.7207	-13.4787	21.744	1.16918	-1.17729	-1.39292	4.59443	-4.77838	2.12285	-9.70394	-0.322253
0.7213	-18.0564	22.3523	1.16918	-3.60112	-0.17858	4.59443	-3.86733	1.21867	-3.27601	-0.322253
0.7220	0.871939	39.4381	0.56879	-4.22439	-1.08934	3.08007	-4.77838	-0.904178	-24.3467	-0.322253
0.7227	12.1708	23.8818	2.08556	-1.80056	-2.00009	3.69608	-5.39195	-1.84767	-13.3522	-0.322253
0.7233	12.4615	66.2921	5.46671	0.346262	-0.482165	5.82646	-3.86733	-0.904178	3.1271	-0.322253
0.7240	8.50141	115.429	5.46671	-0.865654	-0.482165	4.28643	-3.86733	-1.21867	-18.8371	-0.322253
0.7247	4.54135	89.7916	3.91833	-0.554019	-1.69651	1.54003	-5.39195	-2.75185	-1.7621	0
0.7253	1.48956	47.9897	3.63394	-1.80056	-1.08934	1.54003	-4.4809	-3.38084	27.8461	-0.322253
0.7260	-0.944601	16.8598	3.91833	-4.84766	-0.482165	1.84804	-1.72914	-2.75185	12.285	0
0.7267	-1.85287	-15.1912	2.08556	-3.32411	-1.39292	-0.282339	-1.72914	-3.97052	43.4071	0
0.7273	-0.326977	-1.46003	-0.347594	1.28117	-1.08934	-0.898353	-1.72914	-5.81819	110.243	-0.322253
0.7280	3.01546	60.7996	-1.86437	1.28117	1.05362	0.641681	2.54723	-5.50369	121.237	-0.644506
0.7287	6.68487	34.2585	-1.86437	-2.70084	1.35721	-0.282339	6.50752	-3.97052	131.909	-0.322253
0.7293	9.40968	-23.7254	-1.26398	-3.01248	1.05362	-2.41272	7.73466	-2.75185	131.909	-0.322253
0.7300	11.5532	-13.6617	-0.947984	0.0346262	0.732177	-2.41272	9.87284	-3.38084	14.1216	0
0.7307	11.8802	-8.77753	-1.86437	4.63991	-0.785751	-2.72073	12.6246	-4.8747	-109.176	0.322253
0.7313	15.5133	26.0197	-2.18036	13.1579	0.732177	-1.20636	15.9713	-3.65602	-59.1419	0
0.7320	22.5614	36.0835	2.71755	11.6344	4.7145	1.84804	19.6341	-2.75185	86.1442	-0.322253
0.7327	22.8521	4.65818	9.73264	-5.12467	4.7145	2.46405	19.3366	-4.28502	177.674	-0.322253
0.7333	20.7086	17.4682	9.73264	-22.5416	1.35721	1.54003	15.6738	-6.72237	209.119	-0.322253
0.7340	27.4298	44.6351	6.66749	-30.471	0.732177	1.84804	14.4467	-7.03686	83.0915	-0.322253
0.7347	28.665	43.7139	4.55032	-30.1594	-1.08934	2.15605	14.1492	-5.81819	-162.287	0
0.7353	18.892	12.8969	1.48517	-24.9655	-5.66098	-0.282339	10.1703	-7.03686	-217.83	-0.644506
0.7360	2.10719	-2.36385	0.884785	-14.3006	-7.80393	-0.898353	6.8236	-7.35136	-135.433	-0.644506
0.7367	-30.2636	9.22945	1.48517	-1.80056	-8.41111	-0.282339	5.89396	-6.40787	-94.8306	0
0.7373	-53.7333	-22.5087	-0.0315995	7.99865	-9.32186	-0.590346	3.45828	-6.72237	-31.6681	-0.322253
0.7380	-52.825	-56.3848	0.252796	17.4516	-6.89318	0.949687	2.54723	-5.1892	23.8752	-0.322253
0.7387	-57.7297	-41.4369	0.56879	26.0043	-3.53588	2.46405	3.77436	-3.38084	76.6636	-0.322253
0.7393	-60.4545	-5.42295	-2.18036	26.9045	-1.69651	2.15605	3.1608	-2.16216	162.733	0
0.7400	-50.1002	-20.0754	-1.86437	17.7632	-1.08934	2.15605	2.23115	0.904178	142.581	0
0.7407	-67.1757	-72.8622	1.48517	6.7521	-1.08934	1.84804	2.23115	1.53317	55.6177	-0.322253
0.7413	-95.55	-64.9364	6.35149	-6.37122	-0.785751	2.15605	3.1608	-2.43735	10.7463	0
0.7420	-86.104	-28.9224	13.3982	-21.6067	-2.30368	2.15605	3.1608	-6.40787	-22.5102	0
0.7427	-57.7297	-43.5748	7.58387	-24.6885	-3.83946	1.25769	2.23115	-7.35136	6.17975	-0.966759
0.7433	-37.893	-42.9491	-7.36268	-14.8893	-3.83946	1.84804	2.23115	-6.09337	6.77539	-1.28901
0.7440	-14.6776	-17.3291	-7.96307	-1.17729	-4.14305	4.28643	3.45828	-5.50369	-68.5977	-0.322253
0.7447	31.3898	-23.1171	-3.41274	15.3048	-3.53588	6.44247	4.68542	-5.81819	-85.3748	0.322253
0.7453	66.4854	-3.28506	-5.52991	26.2813	-1.69651	6.75048	4.36934	-5.50369	-16.4049	0
0.7460	57.657	44.0267	-7.36268	24.4461	-2.92871	4.28643	1.3201	-6.72237	108.704	0
0.7467	35.9675	21.744	-7.96307	15.6164	-3.53588	2.46405	-0.502009	-7.62655	175.862	-0.322253
0.7473	18.892	-22.8216	-4.32913	7.37538	-0.17858	4.28643	2.23115	-7.03686	130.693	0
0.7480	6.68487	-24.0383	9.10065	1.28117	0.125006	4.90244	3.1608	-5.81819	90.4129	0
0.7487	0.871939	-30.1391	16.7477	-3.01248	-3.53588	3.08007	1.3201	-5.50369	71.7992	0
0.7493	-7.37515	-22.8216	10.017	-3.32411	-2.30368	4.00409	1.02261	-5.1892	58.6704	0
0.7500	-22.3071	-10.6026	2.40156	0.0346262	-1.08934	3.69608	-0.818089	-5.1892	65.0735	0
0.7507	-18.3471	-3.28506	-0.947984	-0.242383	-3.53588	1.25769	-3.25376	-5.1892	-7.54475	0
0.7513	10.9356	-2.97219	0.252796	-2.07757	-3.53588	4.28643	0.111558	-3.65602	-123.223	-0.322253
0.7520	28.0474	0.069525	3.00195	8.27566	-3.53588	8.88086	4.36934	-1.53317	-148.86	-0.322253
0.7527	15.2226	16.8598	2.71755	15.928	-5.96456	7.95684	2.84472	-3.06634	-140	0
0.7533	-1.27158	9.54231	0.884785	2.49308	-5.35739	6.13447	1.02261	-5.1892	-150.076	0
0.7540	1.19892	0.382388	1.16918	-13.0887	-3.83946	6.13447	0.706531	-6.09337	-134.515	0
0.7547	11.8802	26.9236	1.16918	-13.989	-5.35739	4.00409	-2.02663	-9.15972	-115.579	-0.322253
0.7553	16.4579	56.2284	1.16918	-7.58313	-3.53588	5.51845	-1.72914	-9.78871	-107.041	0
0.7560	15.8402	67.2133	2.08556	-1.17729	0.125006	8.26485	1.3201	-6.09337	-91.4801	-0.322253
0.7567	10.6449	29.3743	0.56879	5.54019	-1.08934	5.51845	-0.818089	-4.59951	-82.9426	-0.322253
0.7573	6.35789	47.6768	-1.26398	17.7632	-2.92871	2.77206	-4.16482	-5.81819	-41.4217	0
0.7580	6.06725	99.2644	-1.57997	29.0514	-2.30368	2.46405	-2.95628	-4.59951	50.1329	0
0.7587	4.54135	40.9676	-9.19544	31.4752	-2.62512	0.641681	-3.55125	-3.06634	99.8687	0
0.7593	3.3061	14.7219	-19.8761	25.381	-1.69651	0.949687	-3.86733	-3.06634	74.5292	0
0.7600	3.63308	44.9305	-17.4429	12.5693	0.428591	2.46405	-1.41306	-2.43735	28.7644	-0.322253
0.7607	4.54135	-1.14716	-14.3778	-5.43631	-1.69651	0.641681	-2.34271	-3.38084	-30.7498	0
0.7613	5.15898	-31.3558	-22.3092	-21.3297	-3.83946	-0.282339	-3.55125	-4.59951	-99.0993	0
0.7620	2.39783	10.1507	-15.2941	-24.6885	-2.30368	2.15605	-0.502009	-3.65602	-126.573	0.322253
0.7627	-3.37877	14.7219	7.89987	-15.8242	-3.53588	2.15605	-0.502009	-3.65602	-131.462	0
0.7633	-5.52228	-40.5157	16.4317	-22.23	-4.14305	1.54003	-1.72914	-4.28502	-104.609	-0.322253
0.7640	-4.32337	-24.6466	5.15071	-48.165	-1.39292	4.28643	1.3201	-1.53317	-18.5392	-0.322253
0.7647	-6.43055	-3.8934	-2.49636	-50.0002	-1.69651	5.21045	1.93366	1.53317	11.0689	0
0.7653	-9.48234	-15.4867	-0.947984	-22.5416	-2.62512	3.69608	-0.204522	1.21867	-27.6972	-0.322253
0.7660	-8.57407	3.12863	-3.41274	-0.554019	-1.08934	3.08007	0.111558	1.21867	-1.7621	0
0.7667	-4.32337	-18.8413	-6.44629	15.928	-1.39292	0.949687	-1.72914	2.75185	71.7992	0
0.7673	-1.27158	-63.4068	-0.663589	34.5223	-1.39292	-1.4887	-4.4809	1.53317	125.804	-0.322253
0.7680	0.254316	-46.9294	7.26788	42.7633	2.57155	0.333674	-2.34271	-1.53317	160.897	0
0.7687	4.2507	-32.277	18.2645	29.3284	4.41092	-0.282339	-3.55125	-3.06634	161.195	0
0.7693	10.3543	-58.2098	34.7594	4.63991	1.05362	-3.64475	-9.35224	-3.38084	127.64	0
0.7700	13.9874	-64.6235	29.8615	-10.6302	-2.30368	-4.5431	-12.104	-4.8747	114.809	0
0.7707	13.4061	-75.313	-2.49636	-21.9184	-4.44664	-4.85111	-12.104	-4.59951	98.0321	-0.322253
0.7713	9.73666	-77.138	-21.1084	-37.7772	-5.35739	-5.15911	-11.1929	-2.43735	-86.2931	-0.322253
0.7720	5.7766	-52.4219	-11.6286	-33.2065	-4.44664	-0.898353	-4.77838	0.589681	-273.671	0.322253
0.7727	3.3061	-40.5157	-0.663589	-16.4474	-5.35739	2.77206	1.93366	1.80836	-178.443	-0.322253
0.7733	11.2626	-87.5146	2.71755	-5.12467	-8.71469	0.0256672	0.706531	-1.21867	-29.5337	-1.28901
0.7740	33.824	-120.782	7.26788	21.7106	-6.28601	0.641681	1.3201	-0.904178	43.4071	-0.644506
0.7747	53.9876	-45.6953	7.89987	49.4808	-2.62512	3.69608	5.89396	0.904178	287.247	0
0.7753	64.0512	-17.0163	0.56879	54.6747	-3.53588	0.949687	3.45828	-1.21867	476.759	-0.644506
0.7760	80.5454	-91.7904	-4.32913	45.2218	-1.69651	0.0256672	1.3201	-0.628993	319.585	-1.28901
0.7767	97.0033	-108.563	-5.21391	18.0402	0.428591	1.84804	3.45828	3.02703	197.826	-0.322253
0.7773	82.0713	-55.1681	2.40156	-14.8893	-4.75022	0.0256672	1.93366	6.09337	99.8687	0
0.7780	49.0829	-37.1611	20.6977	-32.6179	-8.10752	0.333674	0.706531	7.94104	-194.327	0
0.7787	-25.6859	-55.7765	34.4434	-36.5652	-7.50035	4.00409	2.84472	6.72237	-287.718	0
0.7793	-152.008	-59.4439	33.211	-29.5708	-8.41111	5.21045	1.93366	4.24571	-135.731	0
0.7800	-214.897	-49.9711	24.9952	-21.9184	-6.89318	7.64883	1.02261	3.65602	-80.4856	0
0.7807	-188.957	-33.8065	15.2309	-26.8007	-1.39292	12.8336	4.07185	3.02703	-77.433	0
0.7813	-142.853	-31.0603	0.884785	-30.7827	0.125006	13.4496	5.29898	1.21867	-29.2111	0
0.7820	-86.7216	-48.4416	-19.8761	-11.8422	-0.482165	11.3192	3.45828	0	-24.3467	-0.322253
0.7827	-18.3471	-55.4636	-30.2407	11.3228	0.732177	9.80488	1.93366	1.21867	-40.826	-0.322253
0.7833	46.6488	-57.306	-19.2757	2.49308	-0.17858	6.44247	-1.72914	4.5602	-76.8373	0
0.7840	98.5292	-49.3628	-29.9563	-10.6302	-1.08934	4.28643	-4.16482	7.94104	-70.732	0
0.7847	86.0314	-43.8703	-45.5032	3.705	3.17872	4.28643	-1.72914	11.9116	128.559	0.322253
0.7853	56.4217	-62.7985	6.0671	11.6344	5.92885	1.84804	-2.02663	13.7199	324.772	0
0.7860	100.673	-71.941	67.4017	-2.70084	3.17872	-0.590346	-5.07587	12.8157	363.538	0
0.7867	117.748	-59.131	100.044	-21.3297	1.66079	-1.20636	-5.39195	13.1302	383.368	0
0.7873	32.0074	-53.3257	176.957	-28.3242	0.125006	-2.10471	-5.39195	15.8428	240.563	0
0.7880	-54.0602	-46.0082	260.285	-6.68285	-0.785751	-2.41272	-5.07587	18.9091	-127.194	0
0.7887	-48.8649	-35.0232	263.318	26.0043	-0.17858	-1.20636	-3.55125	14.9386	-311.817	0
0.7893	-1.85287	-50.8923	165.36	35.7688	-2.62512	-0.590346	-3.25376	7.31205	-270.916	0
0.7900	32.2981	-65.2319	28.0287	30.2633	-6.58959	-2.41272	-3.55125	9.15972	-241.333	0
0.7907	60.7088	-80.1797	-54.6671	25.381	-1.39292	-5.46712	-1.11558	14.6241	-184.549	0
0.7913	28.665	-93.6154	-131.865	14.6815	8.67898	-7.28949	3.1608	7.94104	-92.3984	0
0.7920	-65.3591	-62.7985	-188.933	7.37538	11.4291	-7.28949	6.8236	-1.84767	-83.2404	0
0.7927	-137.984	-37.4566	-130.348	18.3519	12.3399	-3.95275	9.55676	0	-122.602	-0.322253
0.7933	-155.678	-45.3998	-77.5451	54.6747	14.465	-1.4887	9.55676	6.40787	-47.2292	0
0.7940	-116.295	-55.4636	-85.7925	83.0682	8.98256	-0.282339	8.03214	10.0639	-1.14164	0.322253
0.7947	-35.4225	-42.9491	-51.9179	31.4752	9.89332	3.69608	8.03214	12.1867	-100.936	-0.322253
0.7953	28.0474	-17.3291	-0.947984	-23.7536	46.52	4.90244	6.8236	8.84522	-96.6671	-0.322253
0.7960	21.6168	-31.9641	28.3447	24.7577	89.5399	0.641681	3.77436	-0.904178	-2.35773	-0.322253
0.7967	-7.95645	-27.7057	51.5387	91.5862	95.3437	-2.41272	4.36934	0.314497	25.7117	0
0.7973	1.78021	-13.3488	60.0706	139.509	81.3074	-3.95275	7.12109	8.53072	133.746	0
0.7980	13.4061	-33.1982	58.2378	215.79	61.1636	-6.39114	5.89396	9.7494	380.017	0
0.7987	-14.6776	-5.11009	25.9116	249.689	36.4481	-7.5975	5.89396	13.7199	512.15	0
0.7993	-80.0005	29.0615	-67.7809	215.513	14.465	-5.15911	8.64571	18.3194	443.18	0
0.8000	-168.793	0.677869	-164.538	129.744	-6.58959	0.0256672	8.34822	16.1573	375.451	0
0.8007	-185.905	-12.7405	-195.064	-93.3522	-25.8048	6.75048	7.73466	6.72237	268.012	0.322253
0.8013	-57.7297	8.30824	-163.306	-278.256	-40.4662	8.57285	7.41858	-9.15972	-50.2818	0
0.8020	64.6688	-23.7254	-111.135	-216.033	-51.4488	4.90244	6.8236	-9.15972	-370.71	-0.322253
0.8027	34.4416	-53.0302	-69.6136	-140.929	-43.8235	4.28643	8.03214	3.34153	-366.442	0
0.8033	-97.0759	-5.11009	-43.3861	-194.045	-4.75022	11.0112	7.12109	4.5602	-191.572	-0.322253
0.8040	-184.379	-6.63964	-30.2407	-188.263	33.0908	17.7361	3.1608	5.77888	-118.036	-1.28901
0.8047	-110.191	-28.6095	-27.5231	-83.276	45.2878	18.0441	1.93366	17.1008	-60.9537	-0.644506
0.8053	65.8678	15.9386	-27.2071	-4.84766	41.6269	14.9897	1.93366	21.661	-15.1888	0.322253
0.8060	141.254	56.5238	-26.2908	24.7577	28.1977	13.4496	-0.818089	20.4423	-142.134	0
0.8067	53.0793	63.5459	-29.9563	49.1692	3.78589	10.3952	-6.00552	24.0983	-301.145	-0.322253
0.8073	-36.6578	28.766	-32.3895	75.4158	-21.5367	4.90244	-11.1929	33.5725	-317.004	-0.322253
0.8080	-74.1875	-20.3708	-28.4079	92.5211	-37.1089	0.949687	-11.8065	48.8256	-273.051	0
0.8087	-69.9368	-12.445	-23.5416	90.686	-45.645	-2.10471	-9.96581	56.7667	-140.918	0
0.8093	16.4579	-0.225956	-19.2757	71.1568	-53.5739	-5.46712	-7.82762	56.7667	64.7757	0
0.8100	87.5573	-40.2028	-14.0934	54.0515	-62.1279	-8.52152	-6.91657	53.1106	143.499	0
0.8107	89.9914	-44.4786	-9.19544	-3.01248	-69.4497	-8.21351	-9.05476	33.258	149.009	0
0.8113	63.4336	-24.6466	-4.01313	-114.405	-67.0031	-3.64475	-7.53014	10.0639	238.106	0
0.8120	24.9956	-19.4496	0.252796	-137.293	-55.7169	2.15605	-0.502009	-4.8747	182.886	0
0.8127	-23.833	-6.0313	4.23433	-32.3062	-46.8593	7.34083	4.68542	-24.4128	-25.5628	0
0.8133	-95.55	-17.3291	-0.0315995	56.1983	-43.8235	10.0872	5.59647	-21.3858	15.3377	-0.322253
0.8140	-156.913	-4.81461	-15.2941	60.7689	-38.3232	12.8336	4.9829	13.7199	143.822	0
0.8147	-125.16	64.1542	-18.3593	4.91692	-34.3587	14.3736	2.54723	22.5651	76.068	0
0.8153	33.824	43.1055	-11.0282	-75.3466	-34.3587	11.3192	-2.02663	-3.97052	94.6817	-0.322253
0.8160	141.872	-16.4079	-14.6938	-113.158	-34.3587	6.75048	-5.68944	-25.6315	220.113	0
0.8167	51.5534	17.781	-16.2105	-82.9643	-32.823	5.21045	-10.5794	-40.6094	244.832	0
0.8173	-116.295	0.677869	-5.21391	-26.212	-29.1621	10.0872	-13.015	-47.0173	272.902	-0.322253
0.8180	-202.072	-39.9074	0.56879	7.06374	-23.9833	14.0656	-11.4904	-38.172	270.767	0
0.8187	-120.291	-31.3558	-5.21391	-3.60112	-21.8403	12.2433	-11.4904	-25.3563	-51.7957	0
0.8193	72.589	-66.1531	-13.4614	-10.3186	-22.1439	11.6273	-12.4015	-10.6929	-448.218	0
0.8200	167.812	-67.6826	-17.1269	23.2342	-22.1439	9.80488	-7.53014	3.02703	-378.652	0
0.8207	113.17	-17.6246	-16.8109	80.9214	-20.626	3.69608	-0.204522	9.7494	-46.9313	0
0.8213	82.362	-25.255	-18.9597	136.15	-16.9651	3.38807	6.50752	8.84522	135.88	-0.322253
0.8220	133.625	-49.6756	-19.2757	193.214	-11.1612	13.4496	11.695	5.50369	190.803	-0.322253
0.8227	197.422	17.1553	-5.21391	277.148	-6.89318	25.9752	14.4467	0.589681	173.107	0
0.8233	236.477	67.5262	8.50026	270.119	-4.75022	36.6528	11.3975	-9.47421	117.266	0
0.8240	202.29	-1.46003	-0.663589	118.145	2.87513	45.508	4.9829	-20.4423	181.347	0
0.8247	101.872	-10.9154	-10.1118	33.3104	14.465	55.2615	-1.11558	-22.8796	317.773	0
0.8253	20.0909	65.6838	6.98348	56.8216	16.3043	65.0407	-3.86733	-22.29	364.754	0
0.8260	13.0791	54.4033	32.2947	43.3866	15.09	66.2471	-2.95628	-18.3194	338.198	0
0.8267	-3.08812	1.59908	39.3413	2.18145	16.9115	65.9391	-3.25376	-2.43735	196.61	0
0.8273	-88.8288	-25.255	27.1123	-21.0181	-2.30368	58.6239	-5.39195	-0.314497	-138.486	0
0.8280	-104.705	-11.5238	10.9334	-51.2121	25.7691	33.2904	-6.91657	-19.2236	-401.832	-0.322253
0.8287	-51.0085	0.677869	6.35149	-92.4173	166.151	8.26485	-5.39195	-23.5086	-349.342	-0.322253
0.8293	-42.4707	-38.3778	11.5654	-141.552	270.513	-10.9599	-4.16482	-10.6929	-230.338	0
0.8300	-41.8531	-53.934	14.9149	-193.733	261.673	-37.4998	-7.82762	2.12285	-175.713	0
0.8307	22.8521	-20.9792	14.3146	-186.704	234.207	-68.0182	-13.015	9.7494	-74.0825	0
0.8313	116.222	25.7069	10.649	-89.0585	203.688	-88.4749	-16.3804	9.4349	70.881	0
0.8320	194.043	9.83779	9.10065	33.9337	146.918	-104.337	-14.8557	6.72237	197.206	-0.322253
0.8327	230.991	-25.5678	12.4818	134.627	75.8071	-109.522	-6.00552	4.24571	129.775	-1.28901
0.8333	132.716	-14.8784	14.3146	225.278	-2.00009	-85.7285	-0.204522	6.09337	-207.133	-0.966759
0.8340	-7.04818	-6.63964	10.9334	292.106	-67.3067	-59.1886	1.63618	12.1867	-430.522	0
0.8347	-54.0602	-3.8934	6.98348	307.654	-106.684	-47.895	5.59647	14.9386	-265.729	0
0.8353	-70.5181	-6.63964	7.89987	342.765	-131.703	-39.3479	6.21004	12.8157	-56.9827	0
0.8360	-62.598	20.5273	12.4818	402.252	-140.257	-35.9855	0.111558	3.65602	-58.8193	-0.322253
0.8367	-15.2953	68.1345	14.9149	413.263	-124.684	-39.0399	-4.77838	-6.72237	-66.1407	0
0.8373	18.565	43.401	13.3982	402.876	-103.023	-40.8622	-3.86733	-10.6929	8.0163	0
0.8380	21.0355	13.5052	10.333	348.27	-83.7896	-34.7534	-2.02663	-10.0639	11.0689	-0.644506
0.8387	29.8639	47.6768	9.41664	231.995	-58.7706	-21.3295	1.63618	-10.3784	-83.5383	-0.644506
0.8393	52.4617	77.2771	9.10065	163.92	-57.2348	-17.6847	0.409044	-17.6904	-157.695	0.322253
0.8400	59.4735	60.5042	6.98348	162.708	-78.3072	-27.4383	-10.2633	-27.1647	-183.953	0
0.8407	62.2347	52.8738	9.73264	118.456	-69.7532	-26.2062	-15.1532	-27.7936	-147.321	0.322253
0.8413	57.657	96.2053	16.4317	-18.8713	-30.0907	-15.5287	-10.8769	-22.6045	43.705	0
0.8420	33.5333	98.6386	21.0136	-205.022	2.87513	-12.4743	-9.35224	-20.1671	263.744	0
0.8427	14.932	47.9897	22.8464	-316.102	17.2151	-9.13753	-9.35224	-15.8821	307.697	0
0.8433	15.8402	40.0464	17.0637	-288.055	20.876	-6.08313	-7.21406	-8.84522	249.101	0
0.8440	17.3661	53.4821	7.58387	-254.779	16.6079	-11.5759	-7.53014	-3.06634	194.153	0
0.8447	6.97552	94.0674	5.46671	-267.903	4.7145	-16.7607	-7.53014	6.72237	112.675	0
0.8453	0.581293	69.3512	6.98348	-223.339	-7.80393	-16.4527	-6.91657	19.2236	58.6704	-0.322253
0.8460	5.7766	17.1553	1.80117	-204.433	-20.9295	-17.3767	-9.35224	20.1278	32.4127	-0.322253
0.8467	14.605	50.1275	-1.86437	-285.908	-31.9122	-16.1447	-9.05476	10.0639	-7.86739	0
0.8473	23.4697	84.612	6.0671	-308.173	-39.234	-12.7823	-3.25376	-12.5012	11.9872	0.322253
0.8480	29.5733	76.9816	13.9986	-280.091	-45.3414	-14.6303	2.84472	-31.7642	72.3949	0
0.8487	38.4017	46.4601	12.4818	-264.544	-33.448	-17.3767	9.25928	-29.0123	155.114	-0.322253
0.8493	48.5016	47.0684	11.5654	-160.769	3.4823	-15.2207	12.011	-22.8796	211.874	0
0.8500	56.4217	60.1913	12.4818	-19.1829	42.8591	-12.4743	4.68542	-12.8157	65.6939	0
0.8507	60.0912	33.9456	9.41664	14.0929	65.7352	-8.82953	-3.25376	-1.84767	-129.328	0
0.8513	57.657	76.6687	5.7511	-80.8175	68.7889	0.949687	-2.02663	-7.62655	-176.011	0
0.8520	56.7124	141.675	3.31794	-178.463	45.6093	10.0872	-2.02663	-11.5971	-241.01	0.322253
0.8527	46.9757	145.95	3.00195	-172.992	45.9128	12.2433	-6.61908	-0.628993	-305.414	0
0.8533	-15.5859	139.241	3.31794	-135.769	113.041	27.1816	-4.16482	8.21623	-272.132	-0.322253
0.8540	-116.622	103.523	3.31794	-98.8231	171.329	54.3375	8.96179	7.31205	-256.571	0
0.8547	-161.781	123.059	3.91833	-71.6762	182.633	65.3231	24.8216	0.314497	-266.647	0
0.8553	-121.2	173.726	5.7511	-162.293	175.294	60.4463	37.9482	-5.81819	-246.52	-0.322253
0.8560	-62.598	131.003	6.35149	-280.091	144.167	48.8447	43.7492	-1.84767	-232.473	-0.322253
0.8567	-32.6977	90.1044	5.46671	-276.455	92.8972	38.7832	35.1964	2.43735	-224.233	0
0.8573	-23.5424	116.037	4.55032	-221.192	46.8236	35.4208	19.3366	-1.21867	-173.579	-0.322253
0.8580	-23.833	155.406	5.15071	-186.427	7.14319	27.4896	11.0814	-3.97052	-99.0993	-0.322253
0.8587	-23.5424	156.327	6.98348	-185.492	-27.3406	19.5584	9.25928	-5.81819	-60.0354	0
0.8593	-19.5823	141.675	8.81625	-169.945	-39.8411	15.58	3.1608	-7.03686	-46.9313	0
0.8600	-15.5859	134.357	10.9334	-100.035	-43.8235	7.64883	0.111558	-6.40787	-54.8484	0
0.8607	-10.1	162.428	10.9334	-68.9061	-52.9667	-4.5431	7.73466	-5.1892	-128.41	-0.322253
0.8613	-4.32337	206.976	7.89987	-99.758	-53.5739	-16.4527	17.812	-4.8747	-187.924	0
0.8620	-4.90466	227.121	7.26788	-94.2525	-48.6987	-24.0759	21.4748	-9.47421	-151.292	0
0.8627	-7.6658	210.956	8.50026	-29.5708	-49.0023	-20.7135	13.2196	-12.2261	-105.205	-0.966759
0.8633	10.9356	152.66	9.10065	46.4337	-43.1984	0.333674	-6.61908	-9.15972	-93.9123	-1.28901
0.8640	33.2427	174.629	11.8498	112.362	-25.5012	21.0728	-21.2517	-5.1892	-69.8138	0
0.8647	11.8802	236.576	15.2309	172.785	-15.1257	7.64883	-24.9145	0.314497	-38.9895	0.322253
0.8653	-26.5942	213.998	16.7477	230.472	-18.1794	-24.6919	-24.617	12.5012	-24.0241	-0.322253
0.8660	-60.4545	192.949	17.9485	274.412	-27.037	-39.6559	-24.0035	24.4128	3.1271	0
0.8667	-78.4746	209.427	19.1809	313.471	-36.1803	-40.8622	-27.3688	21.661	42.191	0
0.8673	-39.7096	216.744	17.3481	361.082	-40.7698	-36.6015	-26.7552	9.7494	55.6177	0
0.8680	-36.9484	217.353	14.9149	410.493	-45.3414	-25.6159	-15.1532	3.97052	83.6872	-0.322253
0.8687	-102.562	231.084	14.9149	414.475	-55.1097	-19.1991	-2.95628	1.21867	149.307	-0.322253
0.8693	-54.9685	221.333	13.0822	227.702	-57.5562	-15.5287	2.54723	3.34153	156.008	0
0.8700	25.2862	239.34	10.017	-108.588	-51.4488	-6.69915	4.36934	11.9116	113.916	-0.322253
0.8707	-50.6815	278.691	10.9334	-303.291	-49.913	0.333674	3.45828	16.7863	64.1552	-0.322253
0.8713	-115.096	232.613	12.7662	-298.408	-44.4306	1.25769	5.29898	17.1008	-62.7902	-0.322253
0.8720	-147.14	193.853	13.6826	-177.251	-32.5194	6.13447	9.25928	20.1278	-107.662	-0.322253
0.8727	-337.877	217.057	13.9986	36.3575	-23.6797	17.7361	9.87284	28.3833	68.7466	0
0.8733	-504.199	199.05	9.73264	223.131	-17.2687	24.4352	6.8236	34.1622	203.634	0
0.8740	-385.179	171.588	1.80117	327.494	-10.2505	29.928	0.706531	37.2285	216.738	0
0.8747	-232.881	202.092	-5.8459	388.852	-2.92871	36.6528	-3.55125	42.7322	291.217	-0.322253
0.8753	-330.865	228.963	-8.27906	365.964	1.35721	34.8048	-2.34271	40.2949	241.159	-0.644506
0.8760	-362.582	250.012	-2.49636	251.213	-0.482165	26.8736	2.54723	29.602	74.5292	-0.644506
0.8767	50.0275	229.572	0.252796	103.809	-5.35739	15.2977	5.29898	20.7568	148.388	-0.322253
0.8773	496.497	177.08	-1.57997	-75.3466	-7.80393	11.0112	1.63618	16.7863	203.013	0
0.8780	355.17	173.726	-0.0315995	-233.103	-7.19676	18.6344	-3.25376	10.0639	30.8987	0
0.8787	-32.9884	194.774	1.80117	-277.667	-1.69651	26.5656	-1.72914	-3.65602	-76.8373	-0.322253
0.8793	-125.777	209.427	2.08556	-252.044	6.53602	30.544	4.36934	-10.0639	-10.5974	0
0.8800	-35.4225	232.005	2.08556	-266.968	4.08948	28.7216	3.77436	1.53317	212.469	0
