MR32 ASCII
Name	KneeFJC2
Frequency	1500
Date	11-09-2015 10:00:59
"Time,s"	"RT TIB.ANT.,uV"	"RT MED. GASTRO,uV"	"RT LAT. GASTRO,uV"	"RT BICEPS FEM.,uV"	"RT VMO,uV"	"RT VLO,uV"	"RT RECTUS FEM.,uV"	"RT SOLEUS,uV"	"RT SEMITEND.,uV"	"Channel 12,uV"
0.0000	-1.9514	-1.07244	-0.206842	0.51813	-2.37069	-5.32995	-9.72548	-2.10363	-3.37586	-9996.72
0.0007	-0.724806	4.41821	1.62026	2.04745	-1.44705	0.767189	-8.82202	0.953024	-0.321851	-10096.9
0.0013	-0.724806	8.08506	1.31862	1.12819	-2.06281	4.44162	-6.69624	0.953024	-0.0143045	-9557.87
0.0020	-0.724806	8.69514	-0.81875	-0.392776	-1.13917	5.65297	-6.37737	-0.267312	-0.929793	-9906.3
0.0027	-1.3381	9.60703	-2.03826	-1.31204	-0.5234	-1.65551	-7.5997	-2.10363	-2.46038	-9817.46
0.0033	-0.724806	12.9656	-2.65017	-0.392776	0.985224	-11.1444	-7.28083	-0.883291	-2.15283	-9799.19
0.0040	0.167263	6.8585	-3.86967	1.12819	1.90887	-12.3558	-7.28083	2.47554	-0.629398	-9818.41
0.0047	0.780561	-9.61988	-2.03826	0.51813	1.60099	-8.68135	-5.7662	4.61403	1.20158	-9818.41
0.0053	1.11509	-16.6389	0.0948027	-1.61289	2.21675	-9.8927	-3.64041	4.61403	1.50913	-9805.17
0.0060	-1.05933	-12.0602	-0.206842	-4.66317	1.29311	-10.2157	-5.15504	2.17336	-0.629398	-9803.6
0.0067	-1.05933	-6.56309	2.84408	-4.66317	0.0615765	-2.90724	-0.584592	0.337045	-0.321851	-9917.96
0.0073	2.34168	-5.04112	7.42046	-2.53215	1.90887	2.90724	6.13822	-0.581112	2.73216	-9606.07
0.0080	3.84705	-5.34295	7.72642	-1.9221	2.52464	14.2132	4.91589	-1.80145	3.3401	-9931.82
0.0087	0.501789	-4.73288	1.62026	-3.14221	-0.5234	29.7589	2.47123	-4.24212	1.20158	-10322.8
0.0093	-3.79129	-2.90266	-5.09349	-6.19249	-4.80297	24.8731	9.8052	-7.60095	-0.929793	-5420.51
0.0100	-2.5647	2.58799	-5.70109	-6.19249	-3.60222	6.25865	24.7389	-7.28715	0.28609	107.742
0.0107	1.72838	11.7455	-5.09349	-1.31204	2.21675	-4.72427	28.1136	1.55738	1.81667	107.742
0.0113	2.34168	14.494	-6.00704	4.48768	5.88056	-9.8927	15.2791	8.57722	-0.321851	-258.959
0.0120	1.11509	2.58799	-2.03826	6.62705	4.03326	-12.9615	1.2489	-1.48765	-3.37586	90.1002
0.0127	-0.111509	-12.0602	-0.206842	3.26756	-0.246306	-15.3842	-8.50316	-17.0615	-4.89929	0.945107
0.0133	-1.67263	-11.7519	-1.1247	1.12819	-2.37069	-8.3987	-10.9478	-21.0246	-3.37586	-17.327
0.0140	-2.23017	-4.43105	0.0948027	2.04745	-2.06281	5.0473	-9.43319	-8.82129	-0.0143045	1.57518
0.0147	-2.23017	-1.68252	1.31862	1.12819	-1.44705	9.00438	-11.559	9.1932	0.593637	-0.945107
0.0153	-1.67263	-0.770618	1.01266	-1.31204	-0.831283	6.25865	-14.3225	16.5152	-0.321851	-0.630072
0.0160	-1.9514	-1.38069	-0.512796	-3.14221	-0.831283	1.37286	-16.156	7.35688	-1.84528	-0.630072
0.0167	-1.05933	-1.68252	-0.81875	-1.61289	0.369459	-1.65551	-13.7113	-0.581112	-1.84528	-0.945107
0.0173	-0.111509	0.455949	0.706711	1.73824	2.52464	-0.121135	-6.37737	1.55738	-0.0143045	-0.630072
0.0180	-0.111509	1.06602	0.400757	2.3483	3.4175	2.62459	-3.64041	3.3937	-0.321851	-0.630072
0.0187	-0.446035	1.06602	0.400757	1.43739	2.83252	3.51292	-7.28083	3.3937	-1.54489	-0.630072
0.0193	-1.9514	-0.462371	-0.206842	-1.61289	0.369459	4.72427	-14.6148	1.55738	-3.06832	-0.630072
0.0200	-2.5647	-1.68252	-0.81875	-1.9221	0.0615765	8.72173	-17.0595	-0.267312	-2.15283	-0.945107
0.0207	-0.111509	0.147702	0.706711	-0.0919263	2.52464	9.61005	-9.43319	-0.581112	1.50913	-0.630072
0.0213	0.501789	1.06602	1.01266	-1.00283	2.52464	1.97854	-1.48805	-0.581112	3.94804	-0.315036
0.0220	-1.05933	0.455949	0.400757	-2.53215	0.985224	-9.28703	-0.265724	-0.581112	3.03256	-0.315036
0.0227	-2.23017	-1.07244	-1.43066	-6.19249	-0.246306	-14.1728	1.56777	-2.10363	1.50913	-0.315036
0.0233	-1.9514	-1.07244	-1.43066	-7.72181	-0.246306	-5.93562	12.8345	-2.10363	2.42461	-0.315036
0.0240	-1.05933	0.147702	1.31862	-4.36232	0.369459	3.51292	19.265	0.337045	3.94804	-0.630072
0.0247	-1.05933	0.147702	3.45168	-1.61289	0.0615765	-2.90724	12.5422	0.639224	2.42461	-0.630072
0.0253	-1.3381	-0.160545	2.84408	-0.392776	0.369459	-14.7785	10.0975	0.0348667	-0.321851	-0.315036
0.0260	-2.23017	-1.38069	2.23217	-0.392776	-0.5234	-2.58422	7.65284	-1.18547	-2.15283	-0.315036
0.0267	-0.111509	-1.07244	8.63997	0.827337	0.0615765	23.6617	-5.15504	-2.10363	-0.629398	-0.315036
0.0273	2.34168	1.67609	14.1342	3.57677	3.72538	25.1961	-15.226	-0.883291	2.11707	-0.315036
0.0280	0.501789	3.19806	8.94592	3.26756	4.95691	7.18735	-14.9337	2.47554	2.73216	-0.630072
0.0287	-1.05933	1.97792	-0.512796	-1.00283	0.677341	-10.4984	-6.08507	2.17336	1.20158	-0.630072
0.0293	-1.05933	-0.462371	-6.61895	-5.27323	-3.60222	-23.6213	10.4164	-4.5443	-0.629398	-0.315036
0.0300	-1.05933	-1.07244	-7.83846	-3.44306	-3.29434	-15.7072	18.3349	-12.7845	-1.54489	-0.315036
0.0307	-1.05933	0.147702	-5.39513	1.43739	-0.831283	2.62459	5.52705	-16.7477	-2.15283	-0.315036
0.0313	-0.724806	0.757774	-4.17563	3.26756	1.90887	3.23027	-7.89199	-17.0615	-2.76077	-0.315036
0.0320	-0.111509	0.147702	-3.86967	1.43739	2.52464	1.09022	-8.21086	-17.3636	-3.06832	-0.315036
0.0327	-1.05933	-1.07244	-3.56372	-1.31204	0.369459	10.8618	-4.25158	-12.1685	-3.37586	0
0.0333	-1.67263	0.147702	-0.512796	-0.701983	-1.13917	15.1015	2.76353	4.61403	-1.54489	-0.315036
0.0340	0.167263	3.50631	2.84408	1.73824	-0.831283	15.1015	11.0275	19.2581	1.50913	-0.630072
0.0347	0.167263	5.02828	1.92622	0.827337	-1.44705	15.4245	11.931	22.6169	2.42461	-0.630072
0.0353	-2.23017	5.02828	-0.81875	-2.53215	-2.98646	1.69589	11.3198	21.3966	1.20158	-0.630072
0.0360	-3.45677	2.89624	-3.56372	-4.97238	-5.41873	-18.7759	11.931	16.213	-0.629398	-1.26014
0.0367	-1.67263	-1.07244	-5.39513	-3.75227	-3.87932	-19.0586	9.19404	9.1932	-0.629398	-0.945107
0.0373	0.780561	-4.1228	-2.65017	0.21728	-0.246306	-1.97854	4.30472	2.17336	1.50913	-0.315036
0.0380	1.39386	-3.82098	0.0948027	3.26756	0.369459	20.916	-3.64041	-3.92832	1.20158	-0.315036
0.0387	0.780561	-1.68252	-1.43066	2.65751	-1.75493	36.7847	-14.9337	-2.40581	-1.23734	-0.315036
0.0393	-1.05933	-1.99076	1.31862	-0.392776	-2.06281	31.6163	-23.4634	0.0348667	-3.98381	-0.315036
0.0400	-0.446035	-1.07244	8.03237	-0.701983	0.369459	18.1703	-19.1852	-0.883291	-3.67626	-0.315036
0.0407	0.780561	4.41821	7.42046	1.43739	2.83252	12.3558	-8.82202	0.639224	-0.0143045	-0.315036
0.0413	-1.9514	7.16674	2.23217	1.43739	2.83252	7.47	-8.21086	3.3937	1.20158	-0.315036
0.0420	-2.84347	5.9466	-0.81875	-0.392776	1.90887	-1.04984	-10.9478	5.83437	0.28609	-0.315036
0.0427	-2.23017	5.33653	-2.65017	-2.22295	0.677341	-8.68135	-6.98853	5.52057	-1.23734	-0.315036
0.0433	-1.9514	2.58799	0.706711	-2.53215	1.60099	-10.8214	4.30472	5.52057	-0.629398	-0.315036
0.0440	0.167263	-6.56309	5.58905	-0.392776	4.03326	-11.4271	14.0568	13.4586	3.03256	-0.315036
0.0447	2.34168	-13.2803	-1.1247	-0.0919263	3.4175	-12.0328	18.0426	16.213	4.25559	-0.315036
0.0453	2.00716	-9.31163	-9.36392	-4.05311	-0.246306	-12.3558	19.8761	0.639224	2.73216	-0.315036
0.0460	-1.05933	-2.90266	-8.45036	-8.33187	-2.98646	-16.0302	19.265	-14.6208	0.901184	-0.315036
0.0467	-2.84347	2.28617	-5.39513	-6.5017	-2.06281	-14.4958	18.0426	-9.72782	-0.929793	-0.315036
0.0473	-0.724806	8.99696	-7.5325	-1.00283	1.29311	-5.32995	16.8203	12.8542	-1.23734	-0.315036
0.0480	1.72838	12.3556	-13.9403	1.73824	1.90887	2.62459	11.3198	36.0406	-0.929793	-0.315036
0.0487	2.34168	8.08506	-20.0465	1.12819	-1.75493	5.0473	0.0265724	46.1171	-0.929793	0
0.0493	0.780561	-3.82098	-26.4543	-0.701983	-6.34238	1.97854	-11.8778	45.1989	-3.67626	-0.315036
0.0500	0.780561	-12.362	-24.6228	1.73824	-6.34238	4.44162	-14.6148	34.2159	-3.67626	0
0.0507	2.00716	-9.00981	-3.86967	5.40694	-3.60222	8.72173	-11.2667	0.337045	-0.321851	0
0.0513	2.00716	-8.70156	16.8792	5.09773	-2.67858	5.37032	-10.0444	-46.3495	-0.0143045	-0.315036
0.0520	2.62045	-11.7519	22.0675	2.3483	-2.98646	0.767189	-8.50316	-74.7311	-1.54489	-0.315036
0.0527	1.39386	-9.00981	14.1342	-1.00283	-3.29434	-2.90724	-8.21086	-73.5107	-3.67626	0
0.0533	-0.111509	-5.6512	1.31862	-0.701983	-2.06281	-3.79557	-6.98853	-45.1292	-3.67626	0
0.0540	0.780561	-0.462371	-1.73661	2.3483	0.985224	-1.97854	-2.71038	-4.24212	-0.929793	-0.315036
0.0547	3.23375	0.455949	4.67549	2.96671	1.90887	-1.97854	0.0265724	31.4614	0.28609	-0.315036
0.0553	6.30024	-4.73288	1.62026	1.12819	1.60099	-3.18989	0.637737	35.7384	-0.0143045	0
0.0560	4.46035	-2.90266	-20.3524	-1.9221	-0.5234	-5.93562	-2.09922	9.1932	-2.15283	0
0.0567	-1.3381	7.77682	-35.3054	-2.22295	-1.75493	-5.65297	-4.54387	3.99805	-3.06832	0
0.0573	-5.63119	15.1041	-9.05796	1.12819	-0.246306	-2.58422	-2.09922	29.9389	-0.929793	0
0.0580	-5.29666	6.55667	24.5108	2.65751	0.369459	-1.65551	0.345441	29.0208	0.593637	-0.315036
0.0587	-1.05933	-2.60083	27.8677	1.43739	-1.13917	-2.90724	-0.876888	-12.1685	-0.629398	-0.315036
0.0593	0.167263	0.757774	17.797	-1.00283	-2.67858	-5.00692	-3.93271	-35.0643	-2.46038	-0.315036
0.0600	-2.84347	5.63835	9.25188	-1.00283	-2.98646	-5.32995	-3.64041	-18.8862	-2.46038	-0.315036
0.0607	-3.45677	3.50631	4.36954	1.43739	-2.06281	-3.18989	-0.265724	3.0799	-0.629398	-0.315036
0.0613	-0.446035	-6.26127	-2.34421	2.3483	-1.13917	-3.18989	1.2489	18.0377	0.28609	-0.315036
0.0620	1.72838	-18.1609	-14.8582	0.51813	-1.75493	-5.65297	-1.48805	28.4164	-0.929793	-0.315036
0.0627	-0.111509	-20.9094	-16.3836	-2.22295	-2.67858	-8.07568	-4.86274	34.2159	-3.06832	-0.315036
0.0633	-0.446035	0.147702	-2.95612	-1.9221	-2.06281	-7.75265	-3.93271	30.5549	-2.76077	-0.315036
0.0640	2.34168	26.0854	11.3892	0.827337	-0.246306	-5.93562	-0.876888	-6.68279	-0.0143045	-0.315036
0.0647	3.56828	19.9847	16.8792	1.73824	1.29311	-3.18989	0.0265724	-57.9485	1.50913	-0.315036
0.0653	0.501789	1.06602	8.94592	0.21728	0.985224	-0.767189	-2.41809	-61.3074	-0.0143045	-0.315036
0.0660	-7.74985	0.757774	-0.81875	-2.22295	-0.246306	0.161513	-5.7662	-37.2028	-2.76077	-0.945107
0.0667	-11.0951	5.02828	1.31862	-1.9221	0.369459	7.79303	-5.7662	-32.6236	-1.84528	-0.945107
0.0673	-4.68336	1.36785	4.97714	0.21728	2.52464	23.3387	-3.02925	-33.228	0.901184	-0.315036
0.0680	1.72838	-0.160545	0.0948027	0.827337	4.34114	36.4617	-2.09922	-28.3467	2.42461	0
0.0687	1.39386	-1.68252	-3.56372	-0.701983	4.34114	41.9531	-4.25158	-27.7423	1.20158	-1.26014
0.0693	-2.23017	-10.2299	-0.81875	-2.53215	3.10961	42.2762	-9.11432	-21.3268	-0.929793	-0.945107
0.0700	-2.84347	-11.4501	7.42046	-1.31204	4.03326	44.0932	-11.559	-6.06681	-0.929793	0
0.0707	0.167263	-1.99076	17.797	1.73824	6.77341	46.8389	-9.72548	-4.24212	0.593637	0
0.0713	1.11509	5.9466	25.4244	2.3483	8.92859	44.4162	-5.15504	-11.262	0.593637	-0.315036
0.0720	-3.45677	11.4373	26.3422	0.21728	8.31283	38.9248	-3.02925	-4.84648	0.28609	-0.315036
0.0727	-8.02862	17.5444	15.6597	-4.05311	6.77341	34.039	-7.28083	12.5404	-0.321851	0
0.0733	-7.13655	19.6764	-3.56372	-4.05311	6.77341	24.8731	-8.82202	23.8372	-0.0143045	-0.315036
0.0740	-3.79129	8.08506	-15.1641	-2.22295	7.69706	2.62459	-3.93271	14.6789	3.64765	-0.315036
0.0747	-2.84347	-10.2299	-12.1089	-4.36232	8.31283	-26.0844	2.17893	-6.06681	5.77902	-0.315036
0.0753	-2.23017	-18.4691	-6.92059	-6.19249	10.4372	-51.4017	4.59702	-14.923	3.94804	0
0.0760	-3.178	-17.5508	-5.09349	-8.02266	11.053	-74.2962	5.52705	-10.646	1.50913	0
0.0767	-4.07007	-8.70156	-1.73661	-9.55198	8.31283	-87.0962	14.3756	-6.38061	1.50913	-0.315036
0.0773	-1.9514	4.11638	2.53813	-6.80255	7.38918	-83.4621	18.9461	-7.90313	3.03256	-0.315036
0.0780	-0.724806	7.77682	3.45168	-2.833	4.34114	-64.5246	9.8052	-12.1685	3.03256	0
0.0787	-1.3381	5.63835	3.15003	-1.00283	-2.67858	-46.2332	3.69356	-12.4823	2.42461	0
0.0793	-1.67263	3.19806	1.92622	-3.14221	-8.46677	-45.0219	9.8052	-14.0048	1.81667	-0.315036
0.0800	-1.05933	-2.90266	0.0948027	-5.58243	-8.46677	-47.4446	22.6131	-14.923	3.03256	-0.315036
0.0807	0.780561	-8.70156	-0.81875	-1.31204	-5.11085	-41.3475	27.7947	-4.24212	4.25559	-0.315036
0.0813	0.501789	-7.17959	-1.1247	4.79688	-6.34238	-25.7614	14.6679	9.49538	0.901184	-0.315036
0.0820	-1.05933	-4.43105	-1.73661	6.31785	-13.3621	-2.26119	0.345441	15.2949	-3.06832	-0.315036
0.0827	-1.9514	-4.43105	-2.95612	1.73824	-17.9188	15.7476	-3.32155	13.1564	-4.59175	-0.315036
0.0833	-2.5647	-3.51273	-2.65017	-0.0919263	-15.1786	25.4788	-3.93271	10.0997	-5.20684	-0.315036
0.0840	-0.724806	-1.07244	-0.81875	4.48768	-8.77465	26.7305	-5.7662	11.0179	-5.20684	-0.315036
0.0847	0.167263	-0.160545	0.0948027	8.75807	-3.87932	14.4958	-9.72548	10.0997	-6.42272	-0.315036
0.0853	-1.05933	-1.38069	-1.43066	7.53796	-2.06281	-0.767189	-14.6148	6.75253	-8.56125	-0.315036
0.0860	-1.9514	-3.21091	-2.65017	5.09773	-2.67858	-8.3987	-18.2818	3.69587	-8.8688	-0.315036
0.0867	-0.111509	-1.99076	-1.43066	5.40694	-1.13917	-7.47	-16.7672	3.99805	-6.42272	0
0.0873	1.72838	-0.160545	0.0948027	5.40694	-0.5234	-5.00692	-9.11432	6.13655	-3.06832	0
0.0880	0.501789	0.455949	0.0948027	3.87762	-2.67858	-3.18989	-2.41809	6.75253	-1.23734	0
0.0887	-0.446035	-0.160545	-0.512796	1.43739	-3.60222	-3.79557	-1.48805	5.52057	-0.321851	-0.315036
0.0893	-1.9514	-1.99076	-2.65017	-1.61289	-4.1872	-9.61005	-3.64041	2.47554	-2.46038	-0.630072
0.0900	-2.5647	-2.29259	-2.95612	-1.9221	-3.29434	-12.6384	-3.02925	2.17336	-2.46038	-0.630072
0.0907	-0.111509	-0.462371	-1.1247	-1.00283	-1.13917	-11.1444	1.86007	4.91621	0.593637	-0.315036
0.0913	1.72838	1.36785	0.0948027	-2.53215	-0.246306	-12.6384	9.8052	6.13655	2.42461	-0.315036
0.0920	0.780561	0.455949	-0.512796	-2.53215	-0.246306	-16.0302	7.36054	4.61403	-0.0143045	-0.315036
0.0927	-1.67263	-1.68252	-2.65017	0.21728	-0.5234	-5.32995	-8.82202	1.55738	-4.29135	-0.315036
0.0933	-1.9514	-1.68252	-2.34421	2.3483	-2.06281	17.5646	-14.0036	1.85956	-4.89929	-0.315036
0.0940	0.167263	-0.770618	-0.512796	2.65751	-3.29434	19.099	-6.69624	3.99805	-0.629398	-0.315036
0.0947	1.11509	0.455949	0.0948027	1.73824	-3.29434	0.767189	-4.25158	5.21839	2.73216	0
0.0953	-0.111509	0.147702	-0.81875	-0.701983	-4.1872	-11.4271	-9.11432	4.30023	1.81667	0
0.0960	-1.9514	-2.29259	-2.65017	-4.05311	-6.34238	-17.2416	-12.489	-0.267312	-1.54489	-1.26014
0.0967	-1.3381	-1.99076	-2.34421	-3.75227	-4.80297	-16.6359	-4.54387	-0.267312	-1.23734	-1.26014
0.0973	0.167263	0.455949	-0.512796	-1.61289	-1.75493	-9.61005	9.8052	3.99805	1.81667	-0.315036
0.0980	1.11509	1.67609	0.706711	0.51813	0.0615765	-6.5413	18.3349	5.21839	2.73216	0
0.0987	0.501789	0.757774	0.0948027	1.43739	-0.831283	-8.07568	13.7645	3.0799	-0.321851	-0.315036
0.0993	-1.67263	-1.68252	-2.34421	0.21728	-2.98646	-6.86432	0.345441	0.0348667	-4.29135	-0.315036
0.1000	-1.9514	-1.99076	-2.34421	1.12819	-3.29434	1.37286	-6.98853	0.337045	-4.29135	-0.315036
0.1007	0.780561	0.455949	0.400757	2.96671	-1.13917	9.61005	-4.86274	3.3937	-1.54489	-0.315036
0.1013	0.501789	0.757774	0.400757	1.43739	-0.831283	15.1015	-3.32155	3.99805	-0.321851	-0.315036
0.1020	-1.05933	-0.462371	-1.1247	-0.392776	-1.13917	18.7759	-3.64041	2.77772	-0.929793	-0.315036
0.1027	-1.3381	-1.68252	-2.34421	-2.22295	-1.75493	15.7476	-5.7662	0.0348667	-2.46038	-0.315036
0.1033	-1.3381	-1.38069	-2.65017	-2.22295	-1.44705	11.4675	-6.08507	-1.48765	-2.46038	-0.630072
0.1040	0.167263	0.455949	-0.206842	0.51813	1.29311	13.8902	-2.41809	1.55738	0.28609	-0.630072
0.1047	0.167263	0.455949	0.400757	1.43739	2.52464	18.4933	-1.80692	3.69587	0.593637	-0.315036
0.1053	-0.111509	0.147702	-0.81875	-0.0919263	1.29311	19.9873	-3.93271	2.17336	-0.929793	-0.315036
0.1060	-0.724806	-0.770618	-2.34421	-1.9221	0.369459	16.9589	-6.69624	-0.267312	-2.46038	-0.315036
0.1067	-0.446035	-0.462371	-2.03826	-0.701983	0.0615765	11.7501	-6.08507	0.0348667	-1.84528	-0.315036
0.1073	0.780561	1.06602	0.0948027	2.65751	1.29311	2.90724	-2.71038	2.47554	-0.0143045	0
0.1080	0.780561	1.97792	1.62026	3.57677	2.21675	-8.3987	-1.80692	3.0799	0.901184	0
0.1087	0.167263	1.97792	1.62026	1.73824	1.29311	-12.3558	-3.32155	3.0799	0.28609	-0.315036
0.1093	-1.05933	-0.160545	0.0948027	-1.61289	-2.06281	-7.47	-6.69624	0.639224	-2.15283	0
0.1100	-1.3381	-0.160545	-0.206842	-1.61289	-2.37069	1.69589	-6.37737	-0.581112	-2.46038	0
0.1107	0.167263	1.67609	2.23217	1.12819	-0.246306	9.3274	-3.64041	1.85956	-0.0143045	-0.315036
0.1113	1.39386	-0.160545	4.06359	1.73824	0.677341	12.3558	-3.32155	5.52057	0.593637	-0.315036
0.1120	0.167263	-1.68252	2.23217	-0.0919263	1.29311	9.93308	-3.93271	6.13655	-0.0143045	-0.315036
0.1127	-1.9514	-2.60083	-1.43066	-3.14221	0.985224	2.62459	-5.7662	-1.18547	-2.15283	-0.315036
0.1133	-1.67263	-1.68252	-0.206842	-2.22295	2.21675	-1.65551	-2.41809	-5.76464	-2.15283	-0.315036
0.1140	-0.111509	2.89624	0.706711	0.51813	4.03326	-5.00692	3.98585	-5.46246	-0.321851	-0.315036
0.1147	-0.446035	8.08506	-6.92059	1.43739	4.03326	-11.1444	4.59702	-7.60095	-0.0143045	-0.630072
0.1153	0.167263	10.2171	-7.22655	0.827337	2.21675	-11.1444	1.2489	-14.0048	-0.929793	-0.315036
0.1160	-0.111509	8.38689	4.67549	-2.22295	-1.13917	-2.58422	-1.48805	-25.6038	-2.15283	0
0.1167	0.167263	7.16674	11.3892	-2.833	-0.246306	-1.04984	0.0265724	-34.1462	-1.54489	-0.315036
0.1173	2.62045	3.19806	17.797	-0.0919263	2.52464	-12.9615	4.59702	-19.5021	0.593637	-0.315036
0.1180	2.34168	-10.84	25.4244	0.827337	2.83252	-24.8731	6.43051	7.0547	1.50913	-0.315036
0.1187	0.167263	-17.249	20.2361	0.51813	0.985224	-27.2958	5.81935	12.2382	-0.321851	-0.315036
0.1193	-1.67263	-8.70156	6.50691	-1.9221	-2.98646	-27.6188	3.37469	13.4586	-2.76077	-0.315036
0.1200	-2.23017	4.41821	-10.5834	-2.53215	-4.49508	-21.1986	0.956605	29.9389	-2.15283	0
0.1207	-1.67263	23.6451	-37.4384	-0.701983	-2.37069	-7.14697	0.0265724	11.936	0.593637	0
0.1213	-0.724806	33.1045	-52.3957	-0.392776	-1.44705	7.47	0.0265724	-32.0077	2.42461	-0.315036
0.1220	1.11509	17.8462	-35.607	-1.61289	-2.37069	19.3816	-1.80692	-36.2847	1.81667	-0.315036
0.1227	1.11509	3.50631	-15.1641	-4.66317	-3.87932	19.099	-5.15504	-21.629	-0.321851	-0.315036
0.1233	-1.9514	8.69514	-9.66987	-4.97238	-3.60222	12.3558	-2.41809	-14.0048	-0.629398	-0.630072
0.1240	-4.40459	21.5131	-0.512796	-1.31204	-1.13917	9.93308	4.30472	7.0547	1.20158	-0.630072
0.1247	-4.68336	22.425	11.6952	0.827337	-0.5234	9.00438	5.20818	34.8203	2.73216	-0.315036
0.1253	-3.178	1.06602	2.84408	-0.392776	-1.13917	5.65297	1.2489	47.6396	1.81667	-0.315036
0.1260	-1.67263	-23.658	-16.6896	-2.22295	-1.75493	2.62459	-3.64041	41.8401	-0.929793	0.315036
0.1267	1.72838	-30.0669	-21.8779	-1.61289	-1.44705	1.69589	-4.86274	31.1592	-1.54489	-0.630072
0.1273	5.07364	-21.8277	-9.66987	0.21728	-0.246306	1.09022	-1.80692	16.8174	-0.0143045	-1.57518
0.1280	5.68694	-5.04112	4.36954	1.43739	1.29311	-0.121135	0.0265724	-2.70798	1.20158	-0.630072
0.1287	4.73912	10.8272	8.63997	0.51813	0.369459	-2.58422	-1.19576	-11.8663	0.28609	-0.315036
0.1293	3.23375	11.7455	15.0521	-2.22295	-1.75493	-7.14697	-3.93271	-10.0416	-1.54489	-0.315036
0.1300	1.11509	-0.462371	22.6794	-2.22295	-1.13917	-8.07568	-4.25158	-2.10363	-0.929793	0
0.1307	0.501789	-16.6389	16.8792	-0.392776	0.369459	-5.93562	-1.48805	18.3399	0.593637	0
0.1313	1.11509	-24.8781	8.33832	1.12819	1.60099	-4.72427	0.956605	44.5946	1.81667	-0.315036
0.1320	-0.111509	-16.9407	11.0833	0.51813	1.29311	-5.00692	-0.876888	50.9984	0.593637	-0.315036
0.1327	-0.446035	-11.1418	12.9147	-2.53215	-0.246306	-7.75265	-5.47391	38.7951	-2.15283	-0.315036
0.1333	0.167263	-16.6389	5.28309	-2.22295	0.0615765	-8.68135	-5.15504	32.9956	-1.23734	-0.315036
0.1340	-0.111509	-16.6389	-0.206842	-0.392776	1.60099	-5.65297	-1.19576	16.213	1.50913	-0.315036
0.1347	1.11509	-10.2299	6.50691	-0.392776	2.21675	-0.444162	-0.265724	-32.9258	2.11707	-0.315036
0.1353	2.62045	-9.31163	13.8283	-1.61289	1.60099	2.62459	-2.09922	-70.7679	0.901184	0
0.1360	1.11509	-9.61988	5.58905	-3.14221	0.369459	2.30157	-5.47391	-54.2875	-1.23734	-0.315036
0.1367	-2.84347	-7.48141	-1.1247	-1.61289	1.29311	4.44162	-5.7662	-12.4823	-1.23734	-0.315036
0.1373	-5.90996	-10.84	8.03237	1.12819	3.4175	6.86432	-3.32155	11.6339	-0.629398	-0.315036
0.1380	-5.01789	-12.0602	12.3028	2.96671	5.26479	3.23027	-2.09922	12.5404	-0.629398	-0.315036
0.1387	-2.84347	-1.07244	6.20096	1.73824	4.64903	-1.37286	-3.02925	4.91621	-1.23734	-0.315036
0.1393	-2.5647	8.99696	-3.56372	-2.53215	2.52464	-10.2157	0.637737	-4.5443	-2.46038	-0.315036
0.1400	-1.67263	9.30521	-14.2463	-3.44306	2.21675	-22.1273	9.48633	-13.7026	-0.929793	-0.315036
0.1407	-0.111509	2.58799	-13.6343	-0.701983	2.83252	-23.0157	16.2091	-7.60095	1.81667	0
0.1413	0.501789	-3.82098	-6.313	0.51813	2.83252	-18.1299	18.0426	12.8542	2.73216	0
0.1420	-0.111509	-1.99076	-5.09349	-1.31204	0.985224	-16.9185	12.2499	18.6537	2.11707	0
0.1427	-3.178	1.06602	-5.70109	-3.75227	-2.67858	-12.3558	3.08239	-1.18547	-0.0143045	0
0.1433	-4.40459	0.455949	-2.03826	-3.75227	-2.98646	6.25865	3.69356	-22.245	-0.0143045	0
0.1440	-2.23017	0.757774	0.400757	-1.9221	0.0615765	27.9418	9.8052	-24.9878	2.73216	-0.315036
0.1447	-0.446035	1.97792	1.31862	-1.61289	2.83252	37.3904	13.1533	-18.2818	3.94804	-0.315036
0.1453	-0.446035	0.757774	4.67549	-1.9221	4.03326	34.9677	14.9868	-20.1065	1.81667	0
0.1460	-1.67263	-1.07244	5.58905	-1.9221	4.95691	23.6617	13.4456	-19.8043	-1.54489	0
0.1467	-2.23017	0.455949	2.84408	-0.392776	6.18844	13.6075	9.48633	-8.50749	-0.629398	0
0.1473	-1.3381	0.757774	6.20096	2.3483	6.18844	11.1444	3.37469	1.85956	1.81667	-0.315036
0.1480	-0.724806	-0.160545	18.409	5.09773	4.95691	12.0731	-10.9478	8.57722	0.593637	-0.315036
0.1487	-0.724806	-0.462371	15.6597	3.87762	1.29311	13.6075	-18.893	8.27504	-0.929793	0
0.1493	-0.724806	-5.04112	-13.3327	-2.833	-3.60222	9.61005	-12.489	2.77772	-0.0143045	0
0.1500	-0.111509	-9.00981	-31.3366	-5.88328	-4.49508	5.0473	-3.32155	6.13655	2.11707	-0.315036
0.1507	2.95498	-7.17959	-24.6228	-4.36232	-2.67858	6.86432	1.56777	4.91621	4.25559	-0.315036
0.1513	3.84705	-1.99076	-19.7405	-1.9221	-1.44705	8.72173	1.2489	-7.60095	3.94804	-0.315036
0.1520	0.167263	3.19806	-20.0465	-0.392776	-0.831283	5.65297	-1.19576	-8.50749	1.20158	-0.315036
0.1527	-5.29666	4.41821	-13.3327	-1.00283	-2.37069	0.161513	-5.47391	2.47554	-3.98381	-0.315036
0.1533	-5.63119	3.50631	-5.39513	0.827337	-2.98646	-0.121135	-8.82202	19.874	-5.20684	-0.315036
0.1540	-1.05933	3.50631	-7.5325	4.18683	-2.37069	3.83595	-6.98853	31.1592	-1.84528	0
0.1547	0.780561	1.97792	-6.61895	4.79688	-2.37069	5.37032	-4.25158	14.6789	0.28609	-0.315036
0.1553	-1.05933	-0.770618	9.86379	2.04745	-3.87932	3.23027	-3.93271	-6.98497	-0.321851	-0.315036
0.1560	-4.07007	1.06602	19.3225	-0.392776	-5.72661	-1.65551	-7.5997	-14.307	-3.67626	-0.630072
0.1567	-4.68336	6.24843	8.33832	0.21728	-5.11085	-2.26119	-8.82202	-19.5021	-5.20684	-0.315036
0.1573	-2.5647	5.9466	2.23217	1.12819	-4.1872	1.37286	-5.7662	-25.906	-2.76077	-0.315036
0.1580	-0.724806	5.02828	10.4714	2.04745	-3.60222	1.37286	-2.71038	-28.9626	-0.629398	0
0.1587	-1.05933	7.77682	12.6088	2.65751	-3.87932	-2.58422	-1.19576	-38.1094	-1.84528	0
0.1593	-2.5647	-0.462371	5.28309	0.51813	-6.34238	-7.75265	-4.25158	-50.9287	-4.59175	-0.315036
0.1600	0.501789	-15.4188	0.0948027	0.51813	-5.41873	-8.3987	-6.08507	-37.8072	-3.67626	-0.315036
0.1607	5.07364	-18.4691	-2.65017	2.3483	-2.06281	-5.93562	-2.71038	-2.70798	-0.629398	-0.315036
0.1613	5.68694	-10.84	-8.45036	2.3483	-0.5234	-6.25865	-0.876888	18.6537	-0.0143045	-0.630072
0.1620	4.46035	-5.95302	-17.9091	1.43739	-0.5234	-7.75265	-3.93271	25.0576	-1.23734	-0.315036
0.1627	2.00716	-5.04112	-22.1795	-1.61289	-1.75493	-9.28703	-9.11432	21.0944	-3.37586	-0.630072
0.1633	-0.724806	2.58799	-14.5522	-2.22295	-1.13917	-7.47	-11.2667	2.17336	-3.06832	-1.26014
0.1640	-0.111509	14.494	-7.83846	0.827337	1.29311	-3.51292	-11.559	-8.82129	-1.23734	-0.945107
0.1647	1.72838	19.6764	-1.73661	1.73824	3.10961	-1.04984	-11.8778	1.85956	0.593637	-0.315036
0.1653	0.501789	18.4563	15.3537	-0.0919263	3.4175	0.48454	-11.2667	14.9811	1.20158	-0.315036
0.1660	-1.3381	15.1041	26.6482	-2.833	2.52464	6.25865	-11.2667	19.2581	-0.321851	-0.315036
0.1667	-1.3381	14.1858	16.8792	-2.22295	2.21675	16.0302	-10.0444	17.7355	-0.321851	-0.315036
0.1673	-1.67263	16.9343	-2.65017	-0.0919263	4.34114	24.5904	-8.82202	3.3937	1.50913	-0.315036
0.1680	-2.84347	14.7959	-3.56372	0.21728	4.03326	30.9702	-10.3366	-18.8862	3.03256	-0.630072
0.1687	-4.68336	4.41821	10.7773	-1.9221	0.985224	29.1532	-10.3366	-32.9258	3.03256	-0.315036
0.1693	-6.24449	-6.87134	9.55783	-6.5017	-0.831283	17.5646	0.637737	-36.5868	1.81667	0
0.1700	-4.68336	-13.5821	2.53813	-9.24277	-0.246306	9.61005	21.7096	-17.6658	2.42461	-0.315036
0.1707	-0.724806	-16.0288	7.11451	-8.02266	0.985224	10.5388	39.0879	21.6987	5.47863	-0.315036
0.1713	5.35242	-14.5005	17.797	-4.66317	1.90887	12.3558	44.8807	55.5776	6.39412	-0.315036
0.1720	8.75343	-9.31163	23.8989	-2.22295	0.369459	6.58168	32.3917	69.3035	3.3401	-0.315036
0.1727	5.35242	-5.95302	24.2048	-3.44306	-2.06281	-8.07568	11.931	71.442	-1.23734	0
0.1733	1.11509	-1.07244	23.5929	-2.22295	-1.75493	-21.1986	7.36054	63.504	-2.46038	0
0.1740	0.780561	5.63835	15.3537	1.73824	-0.831283	-25.4788	9.19404	27.8004	-1.23734	-0.315036
0.1747	-0.446035	-0.462371	0.400757	5.09773	-0.831283	-15.3842	2.17893	-24.0813	-1.54489	-0.315036
0.1753	-5.29666	-12.0602	-7.83846	5.70779	-1.75493	-1.65551	-6.69624	-56.7282	-3.37586	-0.315036
0.1760	-9.86852	-13.8904	-10.5834	1.73824	-3.29434	-3.18989	-13.1002	-60.087	-5.50724	0
0.1767	-7.13655	-8.39973	-10.5834	1.43739	-1.75493	-12.9615	-14.0036	-39.3297	-4.29135	0
0.1773	-2.84347	2.58799	-1.73661	4.79688	-0.246306	-17.5242	-12.7813	-1.80145	-1.84528	-0.315036
0.1780	-0.446035	14.494	7.42046	5.40694	-1.44705	-18.4529	-14.0036	25.0576	-1.84528	-0.315036
0.1787	1.39386	16.9343	11.9968	3.87762	-3.60222	-17.2416	-14.6148	15.5971	-3.06832	-0.315036
0.1793	0.501789	10.2171	4.67549	1.43739	-3.29434	-17.5242	-14.3225	-10.0416	-4.59175	-0.315036
0.1800	-0.724806	1.97792	-16.3836	1.43739	0.0615765	-15.1015	-12.489	-17.6658	-4.29135	-0.315036
0.1807	-1.3381	-0.462371	-22.1795	3.26756	3.10961	-7.47	-8.50316	-7.90313	-2.76077	-0.315036
0.1813	-3.178	2.28617	-9.66987	3.26756	3.72538	-3.79557	-2.41809	-0.267312	-1.54489	-0.315036
0.1820	-2.23017	1.97792	-4.17563	2.04745	2.83252	-3.18989	2.47123	-4.84648	-1.54489	0
0.1827	-0.446035	-1.68252	-8.14441	-0.701983	2.83252	-1.65551	2.47123	-13.7026	-3.06832	-0.315036
0.1833	-1.05933	-0.770618	-13.0267	-2.22295	4.95691	-0.121135	3.08239	-17.968	-3.06832	-0.315036
0.1840	-1.3381	5.33653	-7.22655	0.21728	7.69706	2.90724	5.81935	-23.1631	-0.0143045	0
0.1847	0.780561	9.30521	2.84408	2.65751	8.00494	5.0473	5.20818	-27.4285	0.901184	0
0.1853	1.72838	10.5254	-1.43066	1.12819	4.03326	1.37286	2.17893	-27.4285	-0.929793	0
0.1860	-1.05933	6.8585	-16.6896	-2.833	-0.831283	-5.32995	-0.876888	-24.6857	-3.06832	-0.945107
0.1867	-2.5647	0.147702	-20.6541	-4.05311	-1.13917	-5.93562	-1.48805	-8.50749	-1.84528	-1.26014
0.1873	-1.9514	-3.21091	-9.05796	-1.61289	0.0615765	-0.444162	0.345441	15.8992	1.20158	-0.315036
0.1880	-1.67263	-3.82098	-10.8894	0.51813	-0.5234	0.161513	-1.48805	25.9757	1.50913	0
0.1887	-1.9514	-2.90266	-24.3169	0.827337	0.369459	-5.65297	-6.98853	22.0009	-1.54489	-0.315036
0.1893	-3.45677	-0.770618	-7.22655	-1.31204	0.677341	-13.2441	-3.93271	16.8174	-3.67626	-0.315036
0.1900	-3.79129	0.757774	19.9344	-2.833	-0.831283	-17.5242	8.58287	8.57722	-2.15283	-0.315036
0.1907	-0.446035	2.89624	23.5929	-2.22295	-1.13917	-16.0302	15.8903	-5.46246	1.81667	-0.315036
0.1913	2.34168	3.50631	20.542	-0.392776	-2.06281	-9.00438	11.931	-10.9482	3.03256	-0.315036
0.1920	1.72838	1.06602	4.06359	-0.0919263	-6.95814	-3.79557	0.0265724	-7.90313	0.593637	-0.315036
0.1927	-0.724806	0.757774	-22.7914	-0.392776	-9.6983	-5.00692	-14.0036	-6.68279	-3.06832	-0.315036
0.1933	-1.3381	-0.770618	-25.5364	1.12819	-6.95814	-4.40124	-19.1852	-0.883291	-3.98381	-0.315036
0.1940	-0.446035	-5.04112	-8.14441	2.96671	-2.37069	-0.767189	-14.9337	6.13655	-1.54489	-0.315036
0.1947	-0.111509	-3.21091	2.23217	3.26756	-1.13917	-0.767189	-11.2667	1.55738	-0.0143045	-0.315036
0.1953	0.780561	-2.60083	5.895	1.12819	-3.87932	-4.11859	-10.3366	-7.60095	-0.629398	-0.315036
0.1960	1.39386	-9.31163	12.6088	-2.53215	-7.26603	-9.28703	-10.9478	-5.46246	-1.84528	-0.315036
0.1967	1.72838	-9.61988	15.0521	-3.44306	-7.26603	-8.3987	-6.98853	-3.62614	-0.929793	-0.315036
0.1973	1.72838	-3.21091	8.94592	-1.31204	-3.87932	-4.72427	1.2489	-5.16028	1.81667	0
0.1980	-0.724806	0.147702	4.36954	-0.392776	-1.44705	-8.07568	5.20818	1.85956	2.73216	0
0.1987	-2.5647	1.36785	4.36954	-1.61289	-2.06281	-9.28703	4.30472	9.79755	1.81667	-0.315036
0.1993	-2.84347	5.9466	-2.03826	-3.75227	-2.98646	-4.40124	2.76353	13.1564	-0.321851	-0.315036
0.2000	-2.5647	16.6261	-7.22655	-3.75227	-2.06281	-0.121135	10.0975	13.7607	-1.54489	-0.315036
0.2007	-1.67263	23.035	3.15003	-2.53215	-0.5234	2.62459	24.7389	14.9811	0.901184	-0.315036
0.2013	-1.3381	19.3746	11.0833	-1.9221	-0.246306	1.69589	26.8912	12.2382	2.42461	-0.315036
0.2020	-1.9514	12.9656	7.11451	-1.61289	-1.44705	-1.04984	12.2499	-6.38061	1.20158	0
0.2027	-1.9514	2.28617	-1.1247	-1.00283	-3.29434	-5.32995	-1.48805	-34.7621	-2.15283	0
0.2033	0.167263	-9.9217	-8.14441	1.73824	-2.98646	-8.3987	-7.5997	-48.488	-3.67626	-0.315036
0.2040	2.34168	-16.9407	-6.313	4.48768	-0.831283	-5.32995	-6.37737	-31.7055	-1.54489	-0.315036
0.2047	2.34168	-18.4691	-1.43066	3.87762	0.369459	-0.767189	-3.32155	0.0348667	0.901184	-0.315036
0.2053	1.11509	-12.362	-0.512796	2.04745	0.0615765	-0.444162	-4.25158	18.3399	-0.0143045	0
0.2060	-1.9514	-4.1228	11.0833	-1.31204	-2.37069	-3.79557	-6.98853	22.0009	-2.76077	-0.630072
0.2067	-2.5647	3.19806	32.1381	-1.31204	-2.98646	-5.00692	-5.47391	20.1762	-2.15283	-0.945107
0.2073	0.167263	8.99696	21.7658	1.12819	-0.5234	-1.37286	-1.19576	11.0179	0.593637	0
0.2080	-0.111509	14.1858	-6.00704	2.04745	0.985224	1.09022	0.0265724	-2.40581	1.81667	0
0.2087	-1.67263	20.8966	-6.00704	0.21728	0.0615765	-0.767189	-2.41809	-17.6658	0.28609	-0.315036
0.2093	-1.05933	26.6955	9.25188	-3.44306	-2.37069	-3.79557	-6.08507	-22.8493	-2.76077	-0.315036
0.2100	0.780561	22.7332	8.94592	-2.53215	-1.75493	-3.18989	-6.37737	-4.84648	-2.76077	-0.315036
0.2107	1.39386	0.757774	-2.65017	1.12819	0.677341	-0.121135	-3.64041	18.9559	-0.0143045	-0.315036
0.2113	-0.446035	-17.8591	7.72642	2.3483	1.60099	0.767189	-3.02925	27.1961	1.50913	-0.315036
0.2120	-1.9514	-14.8087	12.9147	1.43739	0.677341	-1.04984	-5.15504	17.7355	-0.0143045	-0.315036
0.2127	-2.5647	-16.0288	-11.8072	-1.00283	-0.831283	-3.51292	-8.82202	6.13655	-2.46038	-0.315036
0.2133	-2.23017	-28.5385	-20.6541	-0.701983	-0.246306	-2.26119	-8.82202	13.4586	-1.84528	0
0.2140	-1.9514	-25.4882	-12.1089	1.43739	1.29311	-1.37286	-4.86274	41.2357	0.593637	0
0.2147	-0.111509	-6.26127	-4.48158	1.43739	1.90887	-2.90724	-0.584592	54.6594	2.11707	0.315036
0.2153	2.62045	6.24843	8.63997	-0.392776	0.985224	-4.40124	-0.265724	21.0944	0.901184	0
0.2160	1.39386	4.72646	14.1342	-2.833	-1.44705	-3.18989	-5.15504	-16.1433	-2.76077	-1.26014
0.2167	-0.446035	-0.160545	3.45168	-1.61289	-0.831283	2.30157	-5.7662	-29.2648	-2.15283	-1.57518
0.2173	-1.3381	-0.462371	-8.75201	0.51813	1.29311	6.25865	-2.41809	-37.2028	0.901184	-0.315036
0.2180	-1.9514	4.72646	-14.5522	1.43739	1.60099	5.37032	-0.265724	-33.228	1.20158	-0.315036
0.2187	0.167263	5.33653	-24.9288	0.51813	0.985224	5.0473	1.86007	-18.8862	-0.321851	-0.630072
0.2193	2.00716	3.50631	-42.3251	-5.88328	-1.13917	1.69589	6.74938	-6.98497	-0.629398	-0.315036
0.2200	2.00716	14.494	-52.3957	-7.4126	-2.37069	-5.65297	13.1533	8.27504	-0.0143045	-0.315036
0.2207	2.95498	34.6328	-46.2896	-1.00283	0.0615765	-5.65297	14.9868	15.2949	1.50913	-0.315036
0.2213	2.95498	51.4195	-29.5052	2.3483	2.21675	7.47	10.7087	6.13655	1.81667	-0.315036
0.2220	-1.9514	42.262	-9.97583	1.12819	1.29311	19.3816	4.30472	1.85956	-0.929793	-0.315036
0.2227	-7.47108	2.58799	5.28309	-1.31204	0.0615765	17.5646	-1.48805	4.61403	-3.67626	0
0.2233	-6.85778	-22.4378	14.1342	-1.00283	1.29311	7.18735	-3.32155	4.30023	-3.67626	0
0.2240	-0.446035	-15.1105	20.542	0.827337	3.4175	-5.93562	-0.584592	-1.48765	-1.54489	-0.315036
0.2247	6.30024	-8.09149	21.7658	1.73824	3.72538	-17.8472	1.2489	-10.0416	-0.321851	-0.315036
0.2253	8.75343	-18.1609	23.2913	0.21728	2.52464	-16.6359	0.345441	4.91621	-0.629398	-0.315036
0.2260	4.46035	-33.7274	24.2048	-3.14221	-0.5234	-3.51292	-2.09922	43.9786	-2.15283	-0.315036
0.2267	-0.724806	-34.0292	12.6088	-3.14221	-1.13917	12.6788	-2.41809	58.3204	-1.84528	-0.315036
0.2273	-0.446035	-18.771	3.75763	1.12819	0.369459	29.7589	0.956605	37.2609	0.593637	-0.630072
0.2280	2.00716	-6.26127	13.2207	2.96671	0.677341	39.2074	1.2489	10.7157	2.11707	-0.315036
0.2287	1.72838	-8.39973	18.409	-0.392776	-0.5234	38.6017	-3.02925	-14.307	0.28609	0
0.2293	-0.724806	-21.5195	1.31862	-3.14221	-1.75493	36.179	-6.08507	-37.2028	-1.84528	-0.315036
0.2300	-3.178	-18.771	-21.8779	-2.22295	-1.13917	35.856	-3.02925	-30.183	-1.54489	-0.315036
0.2307	-2.84347	-1.68252	-28.2857	0.21728	1.29311	37.3904	2.47123	13.1564	0.28609	0
0.2313	-0.724806	-0.160545	-17.6031	1.12819	2.52464	35.856	3.08239	45.1989	1.50913	0
0.2320	-0.724806	-12.9721	0.400757	-0.701983	1.29311	26.7305	0.0265724	49.1621	0.28609	-0.315036
0.2327	-4.07007	-17.5508	11.6952	-3.14221	-0.5234	11.1444	-3.32155	32.0774	-2.15283	-0.315036
0.2333	-5.90996	-13.8904	6.80855	-2.833	-0.5234	-4.40124	-2.71038	-7.60095	-1.84528	0
0.2340	-4.07007	-13.5821	4.06359	-1.00283	1.60099	-18.4529	0.637737	-47.8837	0.593637	0
0.2347	-1.05933	-4.43105	12.3028	-0.392776	2.52464	-35.2503	2.17893	-74.1267	1.81667	-0.315036
0.2353	-0.111509	13.5757	10.1654	-1.61289	1.60099	-49.2616	3.69356	-72.9064	1.50913	-0.630072
0.2360	-1.67263	18.1545	-4.78753	-4.36232	-0.831283	-52.0073	4.30472	-42.3863	1.20158	-0.315036
0.2367	-1.9514	13.8775	-8.14441	-4.66317	-0.5234	-42.2358	3.08239	-8.82129	1.20158	-0.315036
0.2373	-0.446035	16.3243	4.67549	-0.392776	2.21675	-27.2958	0.956605	3.99805	2.42461	-0.315036
0.2380	-0.111509	13.2675	16.5775	2.65751	2.21675	-16.9185	-3.64041	-1.80145	2.42461	-0.315036
0.2387	-2.23017	-2.29259	14.7461	1.12819	0.0615765	-9.8927	-8.82202	-8.82129	0.28609	-0.315036
0.2393	-2.84347	-13.5821	6.20096	-1.9221	-1.75493	-4.40124	-11.2667	-11.5641	-2.76077	-0.315036
0.2400	-2.23017	-9.00981	8.33832	-2.53215	-1.44705	-2.90724	-10.6555	-8.20531	-2.46038	-0.315036
0.2407	-1.3381	1.97792	22.3734	-0.701983	0.369459	-2.58422	-5.47391	-2.40581	0.593637	-0.315036
0.2413	-0.446035	1.06602	29.0872	-0.392776	1.29311	-4.11859	1.56777	-1.48765	1.20158	-0.315036
0.2420	0.501789	-8.39973	15.9656	-1.61289	1.29311	-5.93562	5.20818	1.55738	0.28609	-0.315036
0.2427	-1.67263	-9.00981	-3.56372	-4.05311	-0.246306	-7.47	3.08239	12.5404	-0.929793	0
0.2433	-3.45677	0.757774	-10.2775	-4.66317	-0.831283	-8.07568	0.637737	16.8174	-1.54489	0
0.2440	0.167263	8.08506	-9.66987	-2.833	0.369459	-5.93562	3.37469	13.4586	1.20158	-0.315036
0.2447	1.39386	5.63835	-7.22655	-0.701983	0.0615765	-6.25865	7.65284	15.5971	2.11707	-0.315036
0.2453	-1.3381	-5.04112	1.62026	2.3483	-0.5234	-10.8214	8.87517	12.2382	-0.321851	-0.315036
0.2460	-2.23017	-14.8087	6.80855	3.57677	-1.44705	-15.1015	4.59702	-9.72782	-3.37586	-0.630072
0.2467	-0.446035	-10.2299	0.0948027	3.57677	-2.06281	-13.2441	2.17893	-29.2648	-3.67626	-1.26014
0.2473	1.72838	2.28617	-11.1953	4.48768	0.677341	-3.79557	3.69356	-30.7873	-0.929793	-0.315036
0.2480	3.23375	9.30521	-15.1641	3.87762	1.60099	2.62459	4.30472	-23.7675	0.28609	0
0.2487	3.84705	11.4373	-14.2463	1.73824	-0.246306	0.48454	2.17893	-8.20531	-0.321851	-0.315036
0.2493	4.12582	8.08506	-24.6228	-1.00283	-1.44705	-7.75265	-2.71038	19.2581	-2.46038	-0.630072
0.2500	4.46035	-7.78966	-31.0306	-1.00283	-1.13917	-16.3129	-4.86274	45.8149	-3.06832	-0.315036
0.2507	3.84705	-19.381	-8.75201	2.3483	0.369459	-17.2416	-2.09922	50.6962	-0.321851	0
0.2513	4.46035	-10.2299	11.9968	4.18683	1.29311	-14.7785	-1.19576	26.8939	1.50913	0
0.2520	6.57901	-1.68252	8.94592	2.65751	0.369459	-14.1728	-2.71038	-8.82129	0.901184	-0.315036
0.2527	2.62045	-5.04112	8.03237	-1.61289	-2.37069	-10.2157	-6.69624	-39.3297	-1.23734	-0.315036
0.2533	-4.68336	-3.51273	12.9147	-2.833	-2.67858	3.83595	-8.82202	-38.7253	-0.929793	-0.315036
0.2540	-7.13655	5.63835	12.3028	0.21728	-0.246306	21.5217	-6.98853	-1.48765	2.11707	-0.315036
0.2547	-6.85778	8.99696	14.4402	2.3483	0.677341	27.3362	-7.28083	31.4614	1.81667	-0.630072
0.2553	-4.68336	3.50631	16.2716	1.43739	-0.246306	19.9873	-9.72548	26.2779	-0.0143045	-0.315036
0.2560	-3.79129	0.147702	12.6088	-1.61289	-1.75493	12.3558	-12.489	1.55738	-1.84528	0
0.2567	-4.40459	3.50631	7.72642	-2.22295	-1.13917	11.1444	-11.559	-3.02178	-1.84528	-0.315036
0.2573	-4.68336	4.41821	3.45168	0.21728	0.985224	9.3274	-6.98853	18.3399	-0.0143045	-0.315036
0.2580	-4.40459	0.455949	-0.206842	2.3483	1.90887	2.90724	-3.93271	21.3966	0.593637	-0.315036
0.2587	-2.23017	-1.07244	-3.56372	1.43739	1.60099	-1.97854	-3.32155	-5.16028	0.28609	-0.315036
0.2593	-2.23017	-0.160545	-4.78753	-2.833	-0.5234	-4.72427	-5.15504	-18.584	-1.23734	-0.630072
0.2600	-3.178	1.97792	-2.34421	-4.66317	-0.5234	-3.18989	-5.15504	-11.8663	-0.929793	-0.315036
0.2607	-2.5647	5.9466	0.706711	-4.05311	0.0615765	-1.04984	3.08239	-5.16028	3.3401	0
0.2613	-1.67263	8.08506	0.0948027	-5.58243	-0.831283	-5.00692	15.598	-1.48765	5.77902	0
0.2620	-2.23017	8.38689	-3.26207	-7.11175	-1.44705	-8.68135	20.1684	-1.18547	5.17108	-0.315036
0.2627	-3.79129	7.77682	-8.75201	-7.72181	-2.06281	-8.07568	13.1533	-2.40581	1.50913	-0.315036
0.2633	-2.23017	6.8585	-15.4658	-4.36232	-0.831283	-3.51292	6.13822	-0.883291	-0.0143045	-0.315036
0.2640	1.72838	5.63835	-16.9955	0.51813	0.677341	0.161513	2.76353	0.953024	0.901184	-0.315036
0.2647	2.34168	0.147702	-12.7208	1.12819	0.369459	-4.11859	-1.80692	2.47554	0.28609	-0.630072
0.2653	0.780561	-8.39973	-7.22655	-0.392776	-0.831283	-9.8927	-6.08507	10.4135	-0.929793	-0.630072
0.2660	-1.3381	-12.6702	-3.56372	-1.61289	-1.75493	-11.4271	-9.43319	16.213	-3.37586	-0.315036
0.2667	-0.724806	-8.39973	6.80855	-0.392776	-0.831283	-9.8927	-5.47391	15.5971	-3.37586	-0.315036
0.2673	2.00716	0.757774	21.7658	3.26756	1.60099	-6.86432	1.56777	21.6987	-1.23734	0
0.2680	2.95498	9.60703	28.4796	5.09773	1.90887	1.09022	4.30472	25.6735	-1.23734	-0.315036
0.2687	2.62045	13.5757	35.8009	2.96671	0.0615765	9.61005	7.36054	10.7157	-1.54489	-0.630072
0.2693	0.780561	12.0473	40.9892	-2.22295	-2.98646	6.25865	7.36054	-10.9482	-1.23734	-0.315036
0.2700	0.167263	9.30521	22.6794	-2.833	-3.29434	6.86432	4.59702	-9.42564	-0.929793	-0.315036
0.2707	0.501789	2.28617	-1.73661	-0.392776	-1.13917	14.4958	4.59702	14.6789	0.28609	-0.630072
0.2713	-0.724806	-5.34295	-13.6343	0.21728	0.677341	8.72173	3.37469	30.8571	0.593637	-0.315036
0.2720	-0.724806	-12.0602	-19.4345	0.827337	0.985224	0.161513	-3.32155	32.0774	-0.929793	-0.315036
0.2727	-1.67263	-26.4001	-15.7717	-0.392776	-1.75493	-0.121135	-13.3925	31.1592	-3.98381	-0.315036
0.2733	-3.178	-30.677	-10.5834	-0.392776	-2.06281	4.11859	-16.4483	22.9191	-3.37586	-0.315036
0.2740	-2.84347	-9.61988	-12.4148	1.73824	0.369459	6.86432	-11.559	-4.84648	-0.321851	-0.315036
0.2747	-1.3381	11.7455	-13.6343	1.73824	0.985224	5.976	-7.89199	-35.9825	0.901184	0
0.2753	-1.05933	14.494	-11.1953	0.51813	0.369459	7.47	-7.89199	-50.3243	-0.0143045	-0.315036
0.2760	-4.07007	6.55667	-8.45036	-1.61289	-1.13917	7.47	-9.43319	-52.765	-3.67626	-1.26014
0.2767	-4.68336	-0.462371	-4.78753	-1.00283	-0.5234	5.65297	-5.7662	-39.3297	-3.98381	-1.26014
0.2773	-1.9514	-0.770618	-1.43066	1.12819	2.21675	5.65297	0.956605	-10.646	-0.321851	-0.630072
0.2780	-0.446035	2.28617	-0.512796	1.73824	3.10961	5.37032	1.2489	3.69587	0.593637	-0.315036
0.2787	-0.724806	3.50631	-2.03826	1.43739	2.52464	4.11859	-1.48805	-5.16028	-1.23734	-0.315036
0.2793	-1.9514	1.97792	-5.39513	0.21728	0.985224	0.48454	-2.71038	-15.5273	-3.98381	-0.315036
0.2800	-1.9514	1.67609	-5.70109	0.827337	0.985224	-2.90724	0.956605	-14.923	-4.59175	-0.315036
0.2807	-0.724806	2.28617	-2.65017	3.26756	2.83252	-3.18989	9.48633	-10.646	-1.84528	-0.315036
0.2813	-1.05933	2.28617	-2.03826	3.26756	3.10961	-2.58422	13.4456	-7.28715	-0.321851	0
0.2820	-1.05933	1.67609	-3.56372	1.73824	1.90887	-4.11859	8.58287	-5.16028	-1.54489	-0.315036
0.2827	-1.3381	0.455949	-4.78753	-0.701983	-0.5234	-7.75265	0.0265724	-6.38061	-3.98381	-0.630072
0.2833	-1.9514	0.147702	-4.17563	-0.392776	-0.831283	-8.07568	-3.93271	-6.06681	-3.98381	-0.630072
0.2840	-0.724806	1.36785	-2.65017	1.43739	0.0615765	-3.18989	-3.32155	-3.02178	-1.23734	-0.630072
0.2847	-0.111509	2.28617	-1.43066	2.04745	0.0615765	4.11859	-2.09922	-1.18547	0.901184	-0.315036
0.2853	-0.446035	1.06602	-1.43066	0.51813	-0.831283	9.93308	-1.19576	-1.80145	0.593637	-0.315036
0.2860	-1.3381	-0.160545	-3.26207	-3.14221	-2.67858	10.8618	-0.584592	-3.92832	-0.929793	-0.315036
0.2867	-1.05933	0.455949	-2.65017	-3.44306	-1.75493	9.61005	1.56777	-3.02178	-0.0143045	0
0.2873	0.501789	1.67609	-0.81875	-0.701983	0.677341	9.3274	3.08239	-0.581112	1.81667	-0.315036
0.2880	1.39386	2.28617	-0.206842	0.827337	1.60099	7.47	0.956605	0.337045	1.20158	-0.630072
0.2887	0.167263	1.36785	-1.1247	-0.392776	-0.5234	3.83595	-3.02925	-0.581112	-0.0143045	-0.315036
0.2893	-1.67263	-1.38069	-2.95612	-3.75227	-3.60222	-0.444162	-7.28083	-3.32396	-1.84528	0
0.2900	-1.05933	-1.07244	-2.34421	-3.14221	-3.60222	-0.121135	-5.15504	-2.70798	-0.929793	0
0.2907	1.11509	1.06602	-0.512796	-0.0919263	-2.67858	1.69589	1.86007	0.337045	1.50913	-0.315036
0.2913	1.39386	1.67609	-0.206842	0.21728	-3.29434	1.97854	4.91589	1.2552	2.42461	-0.630072
0.2920	-1.05933	0.147702	-0.81875	-1.00283	-3.87932	0.767189	2.17893	0.337045	0.593637	-0.315036
0.2927	-2.5647	-1.68252	-2.34421	-1.9221	-3.29434	-1.37286	-2.41809	-2.40581	-2.46038	-0.315036
0.2933	-1.05933	-0.770618	-2.03826	-1.31204	-1.75493	-0.767189	-3.02925	-1.48765	-2.46038	0
0.2940	-0.446035	0.455949	-1.1247	-0.0919263	-0.831283	-0.121135	-0.265724	1.2552	-0.629398	0
0.2947	-0.111509	1.06602	-0.206842	1.12819	0.369459	0.767189	0.637737	2.77772	0.28609	-0.315036
0.2953	0.780561	0.757774	0.0948027	0.51813	-0.5234	0.767189	-0.584592	2.17336	0.593637	-0.630072
0.2960	-0.446035	-1.07244	-1.73661	-2.833	-2.98646	-1.37286	-3.02925	-1.48765	-0.929793	-0.315036
0.2967	-0.724806	-1.38069	-1.73661	-2.22295	-2.37069	-0.444162	-2.71038	-1.18547	-0.929793	0
0.2973	0.167263	0.455949	0.0948027	0.51813	-1.13917	2.62459	-3.02925	2.17336	0.593637	-0.315036
0.2980	-0.111509	1.36785	0.706711	1.12819	-0.831283	3.51292	-7.28083	2.77772	0.901184	-0.630072
0.2987	-0.111509	0.455949	0.0948027	-0.0919263	-0.5234	2.30157	-8.82202	1.85956	-0.0143045	-0.315036
0.2993	-0.446035	-1.38069	-1.43066	-2.22295	-1.75493	-0.767189	-9.43319	-0.581112	-1.84528	-0.315036
0.3000	-1.3381	-1.38069	-1.43066	-2.22295	-2.06281	-1.37286	-8.21086	-0.581112	-1.54489	-0.630072
0.3007	-0.111509	1.06602	0.400757	-0.0919263	0.369459	1.69589	-1.48805	2.17336	0.593637	-0.315036
0.3013	0.780561	2.28617	1.01266	0.21728	0.985224	2.30157	3.98585	3.3937	2.11707	-0.315036
0.3020	0.167263	1.36785	0.400757	-1.61289	-0.5234	-2.58422	4.59702	1.55738	1.20158	-0.315036
0.3027	-1.3381	-0.770618	-1.43066	-3.14221	-1.75493	-8.07568	2.17893	-0.883291	-1.54489	-0.315036
0.3033	-1.3381	-1.07244	-1.73661	-1.61289	-0.246306	-7.14697	-0.584592	-0.581112	-2.46038	-0.315036
0.3040	-0.446035	0.455949	0.400757	2.04745	1.90887	-1.97854	-2.09922	1.2552	-1.54489	-0.315036
0.3047	0.501789	1.97792	1.62026	3.57677	2.52464	2.30157	-3.32155	3.3937	-0.0143045	-0.315036
0.3053	0.167263	0.757774	0.0948027	0.827337	0.985224	1.97854	-5.47391	3.0799	-0.0143045	0
0.3060	-1.67263	-1.07244	-1.43066	-2.833	-1.13917	-1.97854	-7.89199	-0.267312	-1.84528	0
0.3067	-1.3381	-1.07244	-0.81875	-2.22295	-1.44705	-3.18989	-5.15504	-0.267312	-1.23734	0
0.3073	-0.446035	0.147702	0.0948027	-0.701983	-0.246306	-2.26119	0.956605	1.55738	0.901184	-0.315036
0.3080	-0.446035	0.757774	0.400757	0.21728	0.369459	-2.58422	5.81935	1.55738	1.20158	-1.26014
0.3087	0.167263	1.06602	1.01266	-0.0919263	0.0615765	-4.40124	6.43051	0.639224	0.28609	-1.26014
0.3093	-0.724806	-0.160545	-0.206842	-2.22295	-1.13917	-7.14697	3.98585	-0.581112	-0.929793	-0.315036
0.3100	-1.05933	-0.462371	-0.81875	-3.14221	-1.44705	-6.86432	7.36054	0.337045	-0.629398	0
0.3107	-0.111509	0.147702	0.0948027	-1.9221	0.0615765	-5.00692	15.2791	1.55738	0.901184	-0.630072
0.3113	0.501789	0.757774	0.706711	-0.0919263	1.60099	-5.65297	15.8903	1.2552	2.11707	-1.26014
0.3120	0.167263	0.147702	-0.206842	-0.392776	0.985224	-6.5413	7.65284	0.953024	0.901184	-0.630072
0.3127	-1.05933	-1.38069	-1.43066	-2.22295	-2.06281	-6.5413	-0.584592	-0.581112	-1.54489	0
0.3133	-1.05933	-1.38069	-1.1247	-2.22295	-2.67858	-4.72427	-2.41809	-0.581112	-2.15283	0
0.3140	-0.111509	0.147702	0.0948027	0.21728	-1.13917	-2.58422	-0.584592	1.55738	0.28609	-0.315036
0.3147	0.167263	0.757774	1.01266	0.827337	0.0615765	-2.26119	-0.876888	2.47554	1.20158	-0.315036
0.3153	-0.111509	-0.160545	1.31862	-0.392776	0.369459	-2.26119	-2.41809	1.55738	-0.0143045	0
0.3160	-1.67263	-1.68252	0.706711	-1.9221	-0.5234	-2.58422	-5.47391	-0.883291	-2.46038	0
0.3167	-1.3381	-2.60083	1.31862	-1.31204	-0.246306	-1.65551	-4.86274	-1.18547	-3.06832	-0.315036
0.3173	1.11509	-0.462371	4.36954	1.73824	1.60099	1.09022	0.345441	2.77772	0.28609	-0.315036
0.3180	1.72838	1.67609	8.33832	2.04745	0.985224	1.09022	1.86007	3.0799	1.50913	-0.315036
0.3187	0.501789	2.89624	11.3892	-0.0919263	-0.831283	-2.26119	-0.584592	-0.581112	-0.0143045	-0.945107
0.3193	0.167263	6.55667	6.20096	-1.61289	-2.06281	-5.00692	-2.71038	-3.32396	-2.46038	-1.26014
0.3200	1.11509	8.38689	-3.56372	-1.31204	-1.13917	-5.00692	-2.41809	-3.92832	-2.76077	-1.26014
0.3207	3.56828	1.06602	-0.512796	1.12819	1.29311	-1.37286	0.637737	1.85956	-0.0143045	-0.630072
0.3213	3.56828	-8.39973	10.1654	1.43739	2.21675	0.161513	3.69356	11.0179	1.81667	0
0.3220	-0.446035	-7.48141	7.11451	-0.392776	0.677341	-1.65551	1.86007	10.0997	0.593637	-0.315036
0.3227	-4.68336	-1.38069	-8.14441	-2.833	-1.13917	-5.65297	-2.41809	-0.267312	-1.54489	-0.945107
0.3233	-5.01789	2.58799	-9.66987	-3.14221	-1.13917	-6.5413	-3.64041	-7.90313	-2.15283	-0.630072
0.3240	-1.9514	5.9466	3.75763	-0.0919263	0.369459	-2.58422	-1.48805	-8.50749	0.28609	0
0.3247	0.501789	6.8585	5.58905	1.43739	1.90887	-0.444162	-1.48805	-11.5641	0.901184	-0.315036
0.3253	1.11509	4.72646	-1.1247	0.51813	1.29311	-1.65551	-3.32155	-20.1065	-0.0143045	-0.315036
0.3260	1.39386	-1.68252	-0.81875	-1.61289	-0.831283	-2.58422	-5.15504	-20.7225	-1.54489	0
0.3267	2.95498	-13.8904	0.0948027	-1.31204	-0.831283	1.09022	-4.86274	2.47554	-2.46038	-0.315036
0.3273	4.46035	-14.8087	-3.86967	1.12819	0.985224	7.18735	-2.09922	26.8939	-0.321851	-0.315036
0.3280	4.12582	1.36785	-13.9403	2.04745	1.29311	10.2157	-0.876888	17.1196	1.20158	0
0.3287	3.84705	11.4373	-21.8779	1.43739	0.985224	9.93308	-3.64041	-2.10363	0.593637	-0.315036
0.3293	2.62045	2.58799	-5.70109	0.21728	0.369459	7.47	-8.50316	4.91621	-1.84528	-0.315036
0.3300	1.11509	-7.78966	20.2361	-0.701983	0.0615765	6.58168	-9.72548	28.4164	-2.15283	-0.315036
0.3307	-0.111509	-1.99076	-2.34421	1.12819	1.90887	5.976	-6.08507	49.7781	-0.0143045	-0.630072
0.3313	-2.5647	10.8272	-47.815	2.04745	2.83252	3.83595	-3.93271	60.4589	0.593637	-0.315036
0.3320	-6.52326	14.494	-38.0503	0.51813	1.29311	2.30157	-3.93271	53.4391	-0.321851	0
0.3327	-7.74985	9.30521	-4.17563	-2.833	-1.44705	-3.18989	-2.09922	28.4164	-1.54489	-0.315036
0.3333	-5.90996	7.47499	-3.26207	-2.833	-1.44705	-10.4984	-0.584592	11.6339	-0.929793	-0.315036
0.3340	-5.01789	-1.07244	-13.0267	0.21728	0.677341	-13.8902	-1.48805	7.97286	0.901184	0
0.3347	-3.79129	-26.0983	-5.70109	0.827337	1.60099	-19.3816	0.637737	-2.40581	1.20158	-0.315036
0.3353	-1.05933	-38.6079	19.6285	-0.392776	1.90887	-28.8302	7.04168	-17.6658	1.20158	-0.315036
0.3360	-1.67263	-24.8781	44.3461	-2.833	1.29311	-29.7589	6.74938	-30.183	-0.629398	0
0.3367	-2.84347	-3.21091	54.4167	-3.75227	0.677341	-13.5671	5.81935	-34.7621	-0.629398	0
0.3373	-1.9514	13.5757	60.2169	-3.75227	-0.246306	1.97854	7.97171	-23.7675	2.42461	0
0.3380	-1.9514	18.1545	68.7621	-4.36232	-1.13917	1.69589	7.04168	-6.68279	3.03256	-0.315036
0.3387	-0.724806	14.7959	64.4874	-3.14221	-1.75493	-5.00692	7.65284	-7.28715	0.901184	-1.26014
0.3393	1.11509	11.4373	27.2558	-1.00283	-2.06281	-8.07568	-0.876888	-43.3045	-3.06832	-1.57518
0.3400	0.780561	10.8272	-23.4033	1.12819	-1.13917	-2.26119	-15.226	-70.4657	-3.98381	-0.630072
0.3407	-1.67263	6.8585	-41.7132	4.18683	0.677341	3.23027	-17.6706	-43.9089	-1.84528	0
0.3413	-1.3381	2.58799	-34.9994	3.87762	0.985224	0.48454	-15.226	-19.1883	-0.0143045	-0.315036
0.3420	2.34168	0.455949	-37.4384	2.04745	0.677341	0.767189	-16.7672	-30.183	0.901184	-0.315036
0.3427	2.00716	-12.0602	-40.7953	-1.31204	-0.831283	1.97854	-17.6706	-35.0643	-0.629398	-0.315036
0.3433	-1.3381	-21.5195	-25.5364	-3.44306	0.0615765	3.23027	-10.6555	-23.1631	0.593637	-0.315036
0.3440	-1.9514	-16.3307	-6.00704	-2.22295	3.10961	11.1444	-5.47391	-16.1433	3.64765	-0.315036
0.3447	-0.446035	-12.362	-0.206842	-1.00283	5.57267	23.0561	-8.50316	-17.0615	3.03256	0
0.3453	1.72838	-11.7519	-0.512796	0.21728	7.38918	33.1103	-11.2667	-16.4455	2.11707	-0.315036
0.3460	2.34168	-6.56309	1.31862	-1.00283	5.88056	35.856	-11.8778	-18.584	-0.0143045	-0.315036
0.3467	3.23375	-1.99076	-3.56372	-2.22295	3.4175	34.9677	-12.1701	-18.8862	-0.321851	-0.315036
0.3473	3.56828	-1.68252	-24.9288	-0.392776	3.4175	40.1361	-9.11432	-2.70798	2.42461	0
0.3480	0.167263	-2.60083	-51.7838	0.827337	3.10961	40.7418	-4.25158	16.5152	2.73216	-0.315036
0.3487	-2.84347	-1.38069	-63.6858	-1.00283	2.52464	26.0844	4.30472	22.3147	1.20158	-0.315036
0.3493	-5.01789	-0.160545	-53.0033	-5.58243	2.52464	9.61005	20.7796	17.1196	1.20158	-0.315036
0.3500	-5.63119	6.8585	-32.5561	-7.11175	3.10961	-2.90724	46.7142	-5.16028	1.81667	0
0.3507	-4.68336	21.2048	-12.1089	-4.05311	3.4175	-8.68135	68.0784	-30.4852	1.50913	0
0.3513	-5.29666	31.5825	10.7773	-0.701983	0.369459	-5.65297	67.1749	-30.7873	-0.321851	-0.315036
0.3520	-4.07007	36.1612	24.8168	1.73824	-4.49508	-10.2157	43.3661	-12.4823	-3.37586	-0.315036
0.3527	-1.67263	33.7145	23.8989	2.65751	-7.851	-29.4358	13.1533	3.69587	-6.42272	-0.315036
0.3533	-0.446035	20.2865	23.5929	3.26756	-8.15889	-47.7676	-3.64041	13.7607	-7.64576	-0.630072
0.3540	1.72838	-0.462371	26.9498	4.48768	-5.41873	-48.0503	-6.37737	30.5549	-6.12233	-0.630072
0.3547	1.72838	-25.1799	23.5929	5.09773	-2.98646	-32.1816	-4.86274	52.8231	-2.76077	-0.630072
0.3553	-1.67263	-36.7777	12.6088	4.18683	-3.60222	-15.3842	-6.37737	71.1398	-2.46038	-0.315036
0.3560	-5.63119	-24.5699	6.50691	0.827337	-6.34238	-3.51292	-10.9478	80.6003	-4.29135	-0.315036
0.3567	-4.68336	-11.7519	6.80855	-0.701983	-5.41873	8.72173	-11.2667	65.3403	-2.46038	-0.315036
0.3573	-1.3381	-9.9217	6.20096	1.73824	-1.44705	15.1015	-5.7662	24.4416	0.593637	-0.315036
0.3580	0.501789	-8.70156	-0.512796	2.65751	-0.246306	11.4675	-0.265724	-21.3268	0.593637	0
0.3587	1.72838	-6.56309	-7.83846	0.827337	-0.5234	2.90724	2.47123	-37.8072	-0.321851	-0.315036
0.3593	0.501789	-6.26127	-4.48158	-2.22295	-0.831283	-5.93562	2.47123	-13.3888	-2.15283	-0.315036
0.3600	-0.724806	-5.95302	4.06359	-2.22295	-1.13917	-12.0328	2.76353	11.6339	-2.46038	0
0.3607	1.11509	-4.1228	8.03237	-0.392776	-0.831283	-16.3129	3.69356	14.9811	0.593637	-0.315036
0.3613	2.00716	0.147702	11.9968	0.51813	-1.75493	-20.2699	1.86007	4.91621	2.42461	-0.315036
0.3620	1.11509	3.80814	14.4402	-0.392776	-4.49508	-21.5217	-0.876888	-7.90313	1.50913	0
0.3627	0.780561	5.02828	7.42046	-2.53215	-8.77465	-21.8043	-6.37737	-23.4653	-0.929793	0
0.3633	1.72838	9.60703	0.0948027	-3.44306	-12.1306	-19.9873	-11.8778	-36.2847	-1.54489	-0.315036
0.3640	2.95498	11.7455	8.94592	-2.53215	-12.1306	-12.9615	-8.50316	-16.7477	0.593637	-0.315036
0.3647	2.62045	3.19806	19.0166	-0.701983	-10.3141	-1.37286	-3.32155	19.5602	0.593637	-0.315036
0.3653	-0.724806	-0.462371	16.2716	3.57677	-8.46677	12.0731	-9.11432	22.9191	-2.76077	0
0.3660	-4.40459	1.06602	6.80855	5.09773	-7.851	16.3532	-24.0746	-0.267312	-5.50724	-0.315036
0.3667	-3.79129	-1.68252	-6.92059	3.57677	-6.0345	12.9615	-30.1862	-8.82129	-3.98381	-1.26014
0.3673	-0.724806	-5.04112	-17.2972	2.96671	-2.37069	15.7476	-17.3518	2.17336	1.20158	-0.945107
0.3680	-0.111509	-6.26127	-16.0777	1.12819	-0.5234	18.7759	-4.86274	9.49538	2.73216	-0.315036
0.3687	-1.67263	-1.99076	-13.3327	-1.31204	-0.246306	14.2132	-5.47391	5.21839	0.593637	-0.315036
0.3693	-5.29666	5.9466	-15.4658	-2.53215	0.0615765	5.65297	-9.43319	-20.4087	-2.76077	0
0.3700	-7.47108	9.30521	-9.05796	-1.9221	0.677341	2.30157	-5.15504	-60.087	-3.37586	-0.315036
0.3707	-4.68336	11.4373	11.0833	-0.701983	3.10961	-0.444162	2.17893	-73.5107	-0.0143045	-0.315036
0.3713	-0.446035	11.7455	13.8283	-0.392776	4.64903	-3.18989	5.20818	-35.0643	2.42461	0
0.3720	-0.111509	-5.95302	-0.81875	-0.0919263	3.10961	5.0473	8.58287	29.3346	0.901184	0
0.3727	-2.84347	-27.6202	-4.78753	-1.61289	0.677341	11.4675	7.04168	50.9984	-2.15283	0
0.3733	-3.45677	-21.2177	0.400757	-1.00283	0.985224	7.18735	0.345441	22.0009	-3.06832	-0.315036
0.3740	-1.67263	-0.160545	5.895	2.3483	1.60099	2.90724	-0.584592	-3.02178	-0.629398	-0.315036
0.3747	-1.9514	8.38689	8.63997	0.827337	0.0615765	-0.444162	2.76353	-10.0416	0.901184	-0.315036
0.3753	-3.45677	10.2171	7.72642	-1.9221	-2.67858	-3.79557	4.30472	-7.28715	0.593637	0
0.3760	-4.07007	10.5254	7.11451	-2.53215	-4.80297	-12.0328	2.76353	0.0348667	-1.54489	-0.315036
0.3767	-2.84347	4.11638	7.42046	-1.61289	-4.1872	-16.9185	1.2489	6.75253	-1.54489	-0.315036
0.3773	-0.724806	-5.95302	6.50691	2.3483	-1.44705	-6.25865	1.56777	9.49538	1.20158	0
0.3780	0.501789	-12.0602	4.97714	5.70779	-0.5234	6.58168	-2.09922	9.49538	0.593637	-0.315036
0.3787	0.167263	-11.7519	3.15003	5.09773	-0.5234	8.3987	-9.11432	8.27504	-1.84528	-0.315036
0.3793	-1.67263	-6.56309	0.706711	1.43739	-0.831283	2.30157	-15.226	2.17336	-5.20684	-0.315036
0.3800	-1.9514	-1.38069	0.0948027	1.12819	1.90887	5.0473	-15.226	-2.70798	-5.20684	-0.315036
0.3807	-0.446035	0.757774	1.62026	3.87762	6.18844	16.9589	-10.0444	-0.581112	-2.15283	-0.315036
0.3813	0.501789	-0.462371	1.92622	4.18683	6.49632	23.3387	-5.7662	3.3937	-1.23734	-0.315036
0.3820	0.167263	-1.07244	1.31862	1.43739	5.26479	25.1961	-3.93271	5.52057	-1.23734	-0.315036
0.3827	-0.446035	-0.462371	-0.206842	-2.833	3.72538	23.3387	-7.28083	3.99805	-2.46038	0
0.3833	-0.446035	1.36785	-0.81875	-2.833	4.64903	21.5217	-12.489	2.77772	-3.06832	-0.315036
0.3840	1.11509	4.11638	0.706711	1.12819	7.38918	22.4504	-8.82202	5.83437	-1.23734	-0.315036
0.3847	1.72838	4.41821	1.62026	1.43739	7.69706	19.9873	-0.265724	7.0547	-0.321851	-0.315036
0.3853	1.72838	4.41821	2.53813	-1.00283	6.18844	20.593	5.20818	4.91621	-0.321851	-0.315036
0.3860	0.501789	-1.68252	1.01266	-3.44306	2.83252	28.5475	5.20818	0.953024	-1.84528	0
0.3867	-0.111509	-12.362	-2.03826	-4.36232	0.369459	31.8989	3.37469	-3.02178	-1.54489	0
0.3873	-0.446035	-12.362	-1.43066	-4.97238	1.29311	20.593	6.74938	-4.5443	2.42461	-0.315036
0.3880	-1.3381	-0.462371	-0.206842	-5.88328	0.985224	-1.37286	14.0568	-1.18547	5.17108	-0.315036
0.3887	-0.446035	8.08506	-1.1247	-7.4126	-3.87932	-31.8989	19.265	-0.581112	5.47863	0
0.3893	-1.05933	7.77682	-3.86967	-8.63272	-11.5148	-62.3846	16.5014	-6.06681	2.73216	0
0.3900	-1.9514	4.11638	-3.56372	-3.75227	-12.4385	-70.0161	10.4164	-3.32396	0.593637	-0.315036
0.3907	-1.3381	2.89624	-0.206842	3.26756	-6.65026	-54.1474	5.81935	7.0547	0.28609	-0.315036
0.3913	-1.05933	2.58799	1.31862	5.40694	-2.67858	-37.996	-0.584592	12.8542	-1.23734	-0.315036
0.3920	-0.724806	-3.51273	1.31862	5.09773	-1.75493	-32.5046	-8.50316	12.2382	-3.37586	-0.315036
0.3927	-1.67263	-12.362	-0.81875	2.96671	-3.87932	-21.1986	-14.0036	12.2382	-5.20684	0
0.3933	-1.67263	-10.5318	-1.73661	1.73824	-5.11085	1.97854	-11.8778	16.8174	-3.67626	-0.315036
0.3940	0.501789	-2.29259	0.400757	2.65751	-3.29434	9.93308	-5.15504	12.5404	-0.629398	-0.315036
0.3947	0.780561	1.67609	1.31862	2.3483	-1.44705	0.161513	-2.41809	-0.267312	-0.0143045	0
0.3953	-0.724806	1.36785	-0.206842	-0.0919263	-1.75493	-9.00438	-3.02925	-4.5443	-0.929793	-0.315036
0.3960	-2.23017	-0.770618	-2.34421	-3.14221	-3.87932	-13.8902	-3.64041	-6.98497	-2.76077	-1.26014
0.3967	-1.67263	-0.462371	-1.73661	-1.00283	-2.67858	-12.6384	-1.19576	-9.72782	-1.84528	-0.945107
0.3973	0.167263	1.36785	0.400757	1.73824	0.369459	-10.8214	1.86007	-5.46246	0.593637	-0.315036
0.3980	0.167263	2.28617	0.706711	2.04745	0.985224	-13.2441	3.37469	-0.267312	1.20158	-0.315036
0.3987	-0.724806	1.36785	0.0948027	2.04745	0.985224	-16.6359	1.56777	0.337045	-0.629398	0
0.3993	-1.67263	-1.07244	-1.43066	-0.392776	0.0615765	-18.4529	-4.86274	-2.10363	-3.37586	0
0.4000	-1.05933	-0.770618	-2.03826	-0.701983	-0.246306	-12.9615	-6.69624	-1.48765	-3.06832	-0.315036
0.4007	0.167263	2.28617	0.400757	2.04745	-0.5234	-0.767189	-3.93271	1.85956	-0.0143045	-0.315036
0.4013	0.167263	2.89624	0.706711	1.43739	-3.29434	9.93308	-5.15504	2.47554	1.81667	-0.315036
0.4020	-1.05933	1.06602	-0.81875	-1.31204	-5.72661	12.6788	-7.28083	0.953024	1.50913	-0.315036
0.4027	-2.84347	-1.07244	-2.34421	-4.05311	-6.65026	7.18735	-8.50316	-2.10363	-0.629398	-0.315036
0.4033	-1.67263	-1.68252	-2.03826	-3.75227	-5.72661	4.44162	-7.5997	-2.70798	-0.929793	-0.315036
0.4040	1.39386	0.147702	-0.81875	-0.392776	-2.67858	7.79303	-3.64041	0.639224	2.11707	0
0.4047	0.780561	1.36785	-0.206842	0.21728	-0.831283	7.79303	-1.80692	1.55738	1.81667	0
0.4053	-1.05933	1.06602	-0.206842	-0.701983	-0.831283	6.58168	-1.48805	0.639224	0.593637	-0.315036
0.4060	-1.05933	0.147702	-1.43066	-2.22295	-2.67858	8.11605	-2.09922	-1.48765	-0.929793	-0.315036
0.4067	-1.67263	-0.462371	-2.03826	-3.14221	-3.60222	12.9615	-2.09922	-2.70798	-1.84528	-0.315036
0.4073	-0.446035	0.757774	-0.512796	-0.0919263	-0.246306	15.4245	3.69356	0.337045	-0.0143045	-0.315036
0.4080	1.39386	1.67609	0.706711	1.43739	2.83252	10.5388	8.264	2.77772	1.50913	-0.315036
0.4087	0.167263	0.757774	-0.81875	-0.392776	1.60099	4.44162	3.37469	1.85956	0.28609	-0.315036
0.4093	-1.67263	-0.770618	-2.34421	-2.22295	-0.5234	-0.121135	-4.54387	-0.883291	-2.15283	-0.315036
0.4100	-1.67263	-1.38069	-2.34421	-2.22295	-0.5234	-3.18989	-5.47391	-0.883291	-2.15283	-0.315036
0.4107	-0.111509	-0.462371	-1.73661	-0.392776	0.985224	-5.65297	-1.80692	1.55738	-0.0143045	-0.315036
0.4113	-0.111509	1.06602	-2.34421	0.827337	1.90887	-10.8214	0.0265724	2.77772	0.901184	0
0.4120	-1.05933	1.36785	-5.09349	-0.0919263	1.29311	-16.3129	-0.265724	0.337045	-0.321851	0
0.4127	-1.05933	0.455949	-7.22655	-2.53215	-0.246306	-17.5242	-2.71038	-4.24212	-2.46038	-0.315036
0.4133	-0.446035	1.97792	-5.39513	-2.22295	-0.246306	-11.1444	-1.80692	-5.46246	-2.15283	0
0.4140	1.72838	5.9466	-1.1247	0.51813	2.21675	-3.79557	3.08239	-2.70798	0.901184	0
0.4147	3.23375	9.91528	6.20096	1.12819	3.10961	-1.37286	4.91589	2.47554	2.42461	0
0.4153	2.34168	7.16674	17.1851	-0.392776	1.90887	-1.97854	3.37469	13.1564	1.50913	-0.315036
0.4160	0.501789	-5.95302	24.5108	-3.44306	-0.246306	-4.72427	-0.876888	20.7806	-1.54489	-0.315036
0.4167	0.780561	-12.9721	21.7658	-3.14221	-0.831283	-3.79557	-1.80692	28.7186	-1.23734	-0.315036
0.4173	1.72838	-8.09149	2.23217	0.21728	1.29311	-0.444162	1.56777	49.4759	1.20158	0
0.4180	2.62045	-1.68252	-26.1483	0.827337	1.60099	0.161513	1.56777	65.3403	1.20158	-0.315036
0.4187	4.46035	3.50631	-34.3875	0.21728	1.60099	-0.444162	-0.584592	58.6226	0.593637	-0.315036
0.4193	1.11509	2.89624	-28.5916	-1.9221	0.0615765	-3.51292	-3.32155	35.1341	-1.54489	-0.315036
0.4200	-4.07007	2.28617	-23.7093	-2.833	-0.831283	-4.40124	-3.93271	-1.18547	-2.76077	-0.315036
0.4207	-3.45677	2.89624	-10.2775	0.51813	1.29311	-0.767189	0.0265724	-37.505	-0.0143045	-0.315036
0.4213	-3.79129	1.36785	6.80855	1.43739	1.90887	0.767189	1.56777	-51.8468	1.20158	-0.315036
0.4220	-5.29666	6.24843	14.4402	-0.392776	0.677341	-0.767189	0.0265724	-53.6832	-0.0143045	-0.315036
0.4227	-5.01789	10.2171	11.0833	-2.833	-0.831283	-4.11859	-2.71038	-52.4628	-2.46038	-0.315036
0.4233	-2.5647	7.16674	1.01266	-2.833	-1.13917	-4.11859	-3.64041	-40.55	-2.76077	0
0.4240	2.95498	4.72646	-5.09349	0.51813	0.677341	-0.121135	-0.584592	-24.3835	-0.0143045	0
0.4247	6.57901	-1.38069	-5.39513	1.73824	1.90887	0.767189	1.2489	-6.06681	1.20158	-0.315036
0.4253	5.07364	-9.00981	-10.2775	0.21728	1.29311	-0.767189	0.345441	21.6987	0.593637	0
0.4260	1.39386	-11.4501	-13.6343	-2.833	-0.831283	-4.40124	-3.02925	41.5379	-2.15283	-0.630072
0.4267	0.780561	-12.0602	3.15003	-2.833	-1.13917	-4.72427	-3.64041	31.1592	-2.76077	-1.26014
0.4273	1.39386	-8.39973	19.0166	0.51813	1.29311	-0.767189	-0.265724	8.8794	0.28609	-0.315036
0.4280	-0.446035	-0.160545	11.6952	1.73824	1.90887	0.767189	1.2489	-14.923	1.50913	0
0.4287	-3.178	4.72646	7.72642	0.21728	1.29311	-0.444162	0.0265724	-38.4232	0.28609	-0.315036
0.4293	-4.40459	1.06602	20.848	-2.53215	-0.5234	-3.18989	-2.71038	-46.9655	-1.84528	-0.315036
0.4300	-2.5647	-0.770618	29.0872	-2.833	-0.831283	-2.90724	-3.32155	-44.827	-2.15283	-0.315036
0.4307	2.62045	2.28617	15.0521	0.21728	1.90887	0.161513	0.345441	-35.6687	0.593637	0
0.4313	5.96571	3.19806	-11.1953	1.73824	2.52464	1.09022	1.86007	-27.7423	1.81667	0
0.4320	4.46035	1.97792	-26.4543	0.21728	1.29311	-1.04984	0.637737	-28.9626	0.593637	-0.315036
0.4327	2.34168	-3.21091	-25.8423	-2.833	-0.5234	-3.79557	-3.02925	-26.2082	-1.84528	-0.315036
0.4333	1.39386	-6.56309	-19.1286	-2.22295	-0.246306	-3.18989	-3.02925	-8.82129	-2.15283	-0.315036
0.4340	-2.23017	-1.68252	-7.22655	1.12819	1.29311	0.161513	0.637737	20.4784	0.28609	0
0.4347	-7.47108	8.99696	18.7106	2.3483	1.90887	1.97854	2.17893	40.3176	2.11707	0
0.4353	-7.74985	17.2361	33.6679	0.51813	1.90887	0.48454	1.56777	27.4982	1.20158	0
0.4360	-6.24449	15.4059	18.7106	-2.53215	0.0615765	-2.58422	-1.48805	0.953024	-1.54489	0.315036
0.4367	-6.24449	4.72646	8.63997	-2.53215	-0.5234	-2.26119	-2.71038	0.953024	-1.54489	-0.315036
0.4373	-3.79129	-1.99076	11.6952	0.51813	1.29311	0.48454	0.637737	7.35688	0.28609	-0.315036
0.4380	0.501789	-6.56309	3.75763	1.43739	1.60099	1.37286	2.76353	-2.70798	0.901184	0
0.4387	2.95498	-19.381	-16.0777	0.21728	0.677341	-0.767189	0.637737	-1.48765	-0.0143045	0
0.4393	0.780561	-18.1609	-34.3875	-2.22295	-0.5234	-3.18989	-3.64041	3.99805	-2.46038	-0.315036
0.4400	1.39386	0.455949	-24.9288	-1.9221	-0.5234	-2.26119	-3.32155	-3.02178	-1.54489	-0.315036
0.4407	6.30024	8.69514	19.6285	0.51813	1.29311	0.48454	0.0265724	-11.8663	0.901184	-0.315036
0.4413	9.36673	14.494	48.9225	1.73824	2.21675	1.37286	1.2489	-6.68279	1.50913	-0.315036
0.4420	8.75343	24.2552	29.0872	1.12819	1.29311	0.767189	-0.876888	16.8174	0.593637	0
0.4427	6.30024	21.2048	3.75763	-1.61289	-1.13917	-1.97854	-5.7662	29.6367	-2.15283	0
0.4433	4.73912	0.147702	7.42046	-1.61289	-1.13917	-1.04984	-7.89199	34.5181	-2.76077	0
0.4440	4.12582	-15.4188	31.5305	0.827337	0.985224	2.62459	-7.5997	47.3374	-0.629398	-0.315036
0.4447	2.00716	-7.78966	36.4128	2.04745	2.21675	3.83595	-8.82202	43.9786	0.28609	-0.315036
0.4453	-2.23017	-11.4501	3.75763	1.73824	2.21675	3.83595	-10.6555	33.9021	0.28609	-0.315036
0.4460	-8.02862	-31.5889	-0.206842	-1.00283	0.369459	1.97854	-14.3225	15.2949	-2.46038	-0.630072
0.4467	-8.64192	-27.0102	28.4796	-1.31204	0.369459	1.69589	-11.559	-31.0895	-2.15283	-0.315036
0.4473	-4.40459	-6.26127	19.9344	1.12819	3.10961	4.44162	-3.93271	-62.8299	0.901184	-0.315036
0.4480	-3.45677	2.58799	-31.0306	2.3483	3.10961	6.58168	-1.80692	-54.9035	1.81667	-0.630072
0.4487	-4.68336	2.58799	-78.3329	0.827337	1.60099	4.72427	-3.64041	-23.4653	1.20158	-0.315036
0.4493	-5.01789	-0.770618	-76.8074	-2.53215	-0.246306	-4.11859	-6.98853	4.91621	-0.321851	-0.315036
0.4500	-4.68336	-3.21091	-45.682	-4.36232	-0.5234	-12.9615	-2.71038	-13.7026	0.28609	0
0.4507	-2.5647	-3.51273	-31.0306	-4.05311	0.369459	-16.6359	10.7087	-61.3074	3.64765	0
0.4513	-0.446035	-1.07244	-28.2857	-3.44306	0.369459	-15.3842	20.1684	-74.1267	4.86353	0
0.4520	-2.84347	5.33653	-23.4033	-3.44306	-1.13917	-12.6384	21.7096	-53.0672	3.3401	-0.315036
0.4527	-8.97645	13.8775	-12.7208	-6.19249	-3.29434	-15.3842	20.7796	-18.584	0.28609	-0.315036
0.4533	-10.8163	19.6764	-6.00704	-6.80255	-3.60222	-18.1299	22.0019	16.5152	0.28609	-0.315036
0.4540	-7.47108	28.5321	-6.61895	-3.14221	-1.75493	-16.0302	21.7096	44.5946	2.11707	-0.315036
0.4547	-4.68336	46.8407	5.895	-1.00283	-0.246306	-6.5413	14.0568	50.9984	2.11707	0
0.4553	-2.84347	46.8407	22.0675	-2.833	-2.67858	5.65297	0.956605	6.43873	0.901184	-0.315036
0.4560	-1.67263	19.0664	19.9344	-3.75227	-4.80297	5.976	-5.15504	-48.1858	-2.46038	-1.26014
0.4567	0.501789	-12.0602	16.8792	-0.701983	-1.75493	-0.444162	-0.265724	-54.9035	-3.67626	-1.26014
0.4573	2.34168	-44.105	29.6991	2.65751	1.90887	-0.767189	2.17893	-25.3016	-1.84528	-0.315036
0.4580	1.11509	-58.4449	32.4441	4.79688	3.4175	4.11859	-3.32155	12.8542	-1.23734	0
0.4587	-1.67263	-36.1677	13.5223	3.57677	2.83252	9.93308	-9.72548	34.8203	-2.15283	0
0.4593	-3.45677	-9.9217	1.01266	-1.61289	0.677341	11.1444	-11.2667	36.6566	-3.67626	-0.315036
0.4600	-1.9514	-5.6512	5.58905	-4.97238	0.0615765	10.2157	-5.47391	25.0576	-2.46038	-0.315036
0.4607	0.167263	-8.39973	8.03237	-2.833	0.677341	9.00438	-0.265724	0.0348667	0.901184	-0.630072
0.4613	-0.724806	-6.56309	4.67549	0.51813	2.52464	12.3558	-3.32155	-8.20531	1.81667	-0.315036
0.4620	-1.05933	-6.26127	1.31862	1.43739	4.03326	21.5217	-8.21086	9.1932	-0.321851	0
0.4627	-1.05933	-3.51273	-4.17563	-1.00283	2.83252	23.9848	-10.0444	20.1762	-3.67626	-0.315036
0.4633	-0.724806	7.16674	-6.313	-0.701983	2.21675	19.7046	-10.3366	18.6537	-4.59175	-0.315036
0.4640	1.39386	12.3556	-2.95612	4.18683	3.72538	16.0302	-8.50316	5.21839	-2.15283	-0.315036
0.4647	1.39386	6.24843	2.84408	4.48768	3.10961	10.5388	2.76353	-12.1685	1.20158	-0.315036
0.4653	-2.5647	6.55667	12.6088	-1.9221	-0.5234	4.72427	21.0985	-19.1883	2.73216	0
0.4660	-3.45677	8.99696	20.2361	-6.19249	-4.1872	2.90724	28.7247	-18.8862	1.81667	0
0.4667	-0.446035	6.55667	18.103	-3.75227	-3.87932	0.161513	24.1277	-9.72782	0.593637	-0.315036
0.4673	-1.3381	10.5254	21.7658	-0.0919263	-1.75493	-3.18989	16.8203	16.8174	1.50913	-0.315036
0.4680	-1.9514	6.8585	23.8989	1.43739	-1.44705	-3.18989	3.69356	45.1989	1.81667	-0.315036
0.4687	0.780561	-10.5318	0.0948027	1.73824	-1.44705	-2.90724	-12.7813	70.5238	-0.929793	-0.315036
0.4693	-0.724806	-15.7206	-31.0306	2.3483	-1.75493	-6.25865	-25.6158	74.4986	-5.81478	-0.315036
0.4700	-1.67263	-9.61988	-40.4937	4.79688	-1.75493	-6.86432	-30.1862	25.6735	-7.33821	-0.315036
0.4707	0.780561	-11.1418	-27.3678	6.017	-2.37069	-8.3987	-22.8522	-26.8241	-4.29135	-0.315036
0.4713	-0.111509	-13.5821	-12.1089	3.87762	-2.98646	-19.3816	-8.82202	-35.6687	-0.629398	-0.315036
0.4720	-2.5647	-7.17959	-8.75201	0.51813	-3.29434	-30.3645	0.0265724	-32.9258	0.593637	-0.315036
0.4727	-3.45677	-0.462371	-8.75201	-2.53215	-3.87932	-29.4358	0.0265724	-36.889	-2.15283	0
0.4733	-0.724806	5.33653	-4.48158	-0.0919263	-3.29434	-9.8927	3.08239	-30.183	-3.06832	-0.315036
0.4740	1.11509	11.1354	-2.65017	2.65751	-2.67858	12.9615	10.0975	-16.4455	-0.929793	-0.315036
0.4747	1.11509	11.4373	1.31862	2.3483	-3.87932	21.5217	12.2499	-8.82129	0.28609	-0.315036
0.4753	1.11509	8.08506	6.80855	1.12819	-5.11085	20.3103	8.58287	-4.24212	0.28609	-0.315036
0.4760	-0.724806	0.757774	-5.70109	-2.53215	-5.72661	14.2132	1.56777	-1.80145	-1.54489	0
0.4767	-3.178	-7.48141	-18.8226	-2.833	-4.49508	7.47	-1.19576	5.83437	-1.54489	-0.315036
0.4773	-2.84347	-4.43105	-5.09349	1.12819	-1.75493	5.37032	1.2489	14.0745	0.28609	-0.630072
0.4780	-0.724806	6.24843	9.55783	2.3483	-0.246306	4.44162	0.956605	12.5404	0.28609	-0.315036
0.4787	0.167263	11.4373	4.97714	0.827337	-1.13917	1.69589	-1.48805	2.47554	-0.929793	-0.315036
0.4793	-1.3381	11.4373	-6.313	-1.61289	-3.87932	-2.26119	-4.54387	-10.9482	-2.76077	-0.315036
0.4800	-1.67263	8.38689	-10.2775	-2.22295	-4.1872	-3.18989	-3.93271	-14.923	-2.15283	-0.315036
0.4807	-0.446035	4.41821	-6.00704	-1.00283	-2.37069	-2.58422	-0.584592	-14.0048	0.28609	-0.315036
0.4813	-1.3381	-2.29259	-1.73661	-0.392776	-1.75493	-3.18989	2.47123	-14.307	1.50913	-0.315036
0.4820	-1.3381	-10.5318	-1.1247	-1.9221	-2.67858	-5.32995	3.37469	-10.9482	0.901184	-0.315036
0.4827	-1.67263	-11.1418	-0.81875	-4.36232	-4.49508	-9.61005	0.956605	-11.262	-1.23734	-0.315036
0.4833	-0.724806	-4.43105	-0.206842	-3.75227	-4.1872	-7.47	0.637737	-0.883291	-1.54489	-0.315036
0.4840	1.72838	-0.462371	0.0948027	0.21728	-0.831283	-2.58422	1.56777	23.5351	-0.629398	-0.315036
0.4847	1.72838	-5.34295	1.01266	2.65751	1.90887	-4.40124	0.345441	36.0406	-1.23734	0
0.4853	-0.724806	-13.8904	1.01266	2.3483	1.60099	-7.75265	-1.19576	34.2159	-2.46038	-0.315036
0.4860	-2.84347	-16.6389	-2.03826	-0.0919263	-2.06281	-10.8214	-5.15504	23.2213	-4.89929	-1.26014
0.4867	-2.23017	-10.2299	-2.03826	0.21728	-2.67858	-11.4271	-6.37737	2.77772	-5.20684	-1.26014
0.4873	-0.724806	-0.462371	1.62026	2.65751	-0.246306	-6.5413	-3.93271	-12.1685	-2.15283	-0.630072
0.4880	-0.446035	4.41821	4.67549	3.57677	1.29311	0.161513	-2.09922	-10.9482	-0.321851	-0.315036
0.4887	-0.446035	4.41821	4.36954	1.43739	0.677341	2.90724	-1.80692	-0.267312	0.593637	-0.315036
0.4893	-1.3381	3.80814	0.0948027	-1.9221	-1.75493	3.23027	-4.25158	16.213	-0.929793	-0.315036
0.4900	-1.3381	6.24843	-1.43066	-1.61289	-2.06281	6.25865	-5.47391	32.9956	-2.15283	-0.630072
0.4907	0.501789	11.4373	2.84408	1.73824	-0.246306	8.11605	-3.93271	40.3176	-0.929793	-0.315036
0.4913	1.11509	13.2675	6.80855	3.26756	0.985224	6.25865	-2.09922	35.4362	0.901184	0
0.4920	0.501789	7.16674	5.895	1.43739	0.369459	3.51292	-3.02925	13.4586	-0.0143045	0
0.4927	-0.446035	3.19806	4.97714	-2.22295	-1.44705	-0.767189	-6.37737	-22.5472	-2.46038	-0.315036
0.4933	0.780561	4.41821	3.75763	-1.9221	-1.13917	-2.26119	-5.7662	-48.1858	-1.54489	-0.315036
0.4940	4.46035	-5.34295	-6.61895	0.827337	0.985224	0.161513	-2.41809	-40.2478	0.593637	-0.315036
0.4947	6.91354	-20.6012	-20.3524	1.73824	2.52464	1.69589	-0.265724	-5.46246	1.50913	0
0.4953	5.68694	-22.4378	-25.5364	0.827337	1.90887	-0.121135	-0.876888	10.7157	0.901184	0
0.4960	1.39386	-15.1105	-26.4543	-1.9221	-1.13917	-3.79557	-3.93271	-4.5443	-1.54489	-0.315036
0.4967	-1.67263	-9.00981	-23.4033	-2.22295	-1.44705	-3.79557	-4.86274	-2.70798	-1.84528	-0.315036
0.4973	-3.178	-4.73288	-8.14441	0.51813	1.29311	-1.04984	-1.80692	24.7554	0.28609	0
0.4980	-3.45677	0.147702	6.80855	2.3483	2.52464	0.767189	0.637737	27.8004	1.81667	0
0.4987	-3.79129	2.89624	4.36954	0.827337	0.677341	-0.444162	-0.584592	5.21839	0.28609	0
0.4993	-6.24449	2.58799	-6.61895	-2.53215	-1.75493	-3.18989	-4.54387	-8.20531	-2.76077	-0.315036
0.5000	-5.90996	4.11638	-8.75201	-2.22295	-1.44705	-2.26119	-4.54387	-12.4823	-2.46038	-0.315036
0.5007	-2.84347	4.41821	-4.48158	0.21728	0.0615765	0.767189	-1.48805	-9.42564	-0.0143045	-0.315036
0.5013	-1.05933	2.58799	-0.206842	1.43739	0.985224	1.97854	-0.584592	0.337045	0.593637	-0.315036
0.5020	-0.446035	0.757774	10.4714	0.21728	0.985224	0.48454	-2.41809	-3.62614	-0.0143045	-0.315036
0.5027	-1.3381	-2.90266	22.6794	-2.833	-0.5234	-2.26119	-6.69624	-19.5021	-2.76077	0
0.5033	-1.05933	-3.51273	23.5929	-2.53215	-0.831283	-1.65551	-7.5997	-24.0813	-3.06832	-0.315036
0.5040	1.72838	-0.462371	19.0166	0.51813	1.29311	1.37286	-3.64041	-19.1883	0.28609	-0.315036
0.5047	2.00716	1.97792	18.103	1.73824	2.21675	2.30157	-0.584592	-13.7026	1.20158	0
0.5053	0.780561	2.89624	17.1851	0.21728	1.29311	0.767189	0.345441	-7.28715	0.28609	-0.315036
0.5060	-1.05933	2.58799	9.55783	-1.9221	0.369459	-2.26119	-2.09922	-6.68279	-0.929793	-0.315036
0.5067	-1.9514	2.28617	4.06359	-1.61289	0.0615765	-3.51292	-5.15504	-8.50749	-1.23734	-0.315036
0.5073	-1.05933	1.97792	6.20096	0.51813	1.29311	-3.18989	-5.47391	0.953024	-0.0143045	-0.315036
0.5080	-0.111509	3.80814	10.1654	1.43739	2.52464	-2.90724	-3.93271	10.7157	1.20158	0
0.5087	1.39386	8.38689	13.5223	-0.701983	1.60099	-5.32995	-0.876888	6.13655	1.50913	0
0.5093	2.62045	6.55667	17.1851	-4.05311	-0.246306	-8.68135	3.69356	-3.62614	0.28609	0
0.5100	2.95498	-1.38069	25.1227	-3.44306	-0.5234	-5.65297	5.81935	-11.5641	-0.0143045	0
0.5107	4.46035	-1.07244	32.75	-0.0919263	1.60099	1.37286	3.69356	-15.2251	0.901184	-0.315036
0.5113	5.68694	5.33653	29.6991	1.73824	3.4175	4.72427	0.956605	-11.262	0.901184	-0.315036
0.5120	6.30024	10.5254	16.2716	0.827337	3.10961	5.0473	-0.265724	-6.38061	0.28609	0
0.5127	3.23375	17.8462	1.31862	-2.22295	1.60099	2.30157	-2.71038	8.27504	-2.76077	-0.315036
0.5133	0.501789	16.3243	-2.34421	-2.22295	0.985224	1.09022	-2.71038	36.0406	-3.67626	-0.630072
0.5140	2.95498	5.33653	-17.6031	0.827337	2.83252	5.37032	1.2489	42.7583	-0.321851	-0.315036
0.5147	2.95498	6.8585	-49.3405	2.04745	4.03326	7.47	2.76353	21.6987	1.20158	0
0.5153	-0.446035	12.9656	-49.0388	0.21728	2.52464	4.44162	-0.265724	-6.06681	-0.629398	-0.315036
0.5160	-1.9514	0.757774	-29.5052	-2.53215	-0.5234	-0.121135	-0.876888	-26.522	-1.54489	0
0.5167	-2.84347	-19.9911	-20.3524	-4.36232	-3.29434	-3.79557	5.52705	-23.7675	-0.929793	-0.315036
0.5173	-1.3381	-26.7083	-7.5325	-2.833	-3.29434	-5.65297	11.6387	-13.7026	2.11707	-0.315036
0.5180	-0.446035	-20.2994	5.28309	-1.61289	-2.37069	-6.86432	11.3198	-9.72782	3.64765	0
0.5187	-2.84347	-12.6702	4.67549	-1.9221	-2.67858	-10.2157	4.91589	1.85956	0.593637	-1.26014
0.5193	-5.63119	-6.56309	2.84408	-2.833	-2.67858	-13.5671	-2.09922	7.65906	-2.76077	-1.57518
0.5200	-3.45677	-1.68252	8.94592	-2.22295	-1.44705	-13.8902	-3.93271	8.27504	-2.76077	-0.630072
0.5207	5.07364	6.8585	12.6088	0.51813	0.369459	-12.3558	-1.48805	18.0377	-0.321851	-0.315036
0.5213	11.4854	16.6261	15.0521	1.43739	0.985224	-11.4271	0.345441	23.8372	1.50913	0
0.5220	9.36673	25.1735	1.62026	0.51813	-0.246306	-9.00438	-1.19576	26.5801	0.901184	0
0.5227	4.73912	34.0228	-49.3405	-2.53215	-2.37069	-6.5413	-5.7662	22.0009	-1.84528	-0.315036
0.5233	3.56828	27.6138	-84.439	-3.14221	-2.98646	-3.18989	-6.37737	-8.82129	-2.46038	-0.630072
0.5240	3.84705	-5.6512	-69.4817	-0.0919263	-1.13917	1.69589	-3.02925	-24.6857	0.28609	-0.315036
0.5247	-0.446035	-38.3061	-37.1368	0.827337	-0.246306	2.30157	-1.80692	12.5404	1.20158	0
0.5253	-8.02862	-54.1744	9.55783	-0.392776	-0.831283	-0.767189	-3.02925	44.2808	-0.321851	-0.315036
0.5260	-12.6562	-59.055	43.1266	-1.61289	-1.75493	-2.90724	-4.86274	28.4164	-1.54489	-0.315036
0.5267	-10.8163	-44.4068	38.2443	-1.61289	-2.06281	-2.90724	-5.15504	-9.12346	-1.23734	-0.315036
0.5273	-6.52326	-21.5195	30.005	1.12819	-0.246306	-0.121135	-1.80692	-39.3297	1.20158	-0.315036
0.5280	-4.68336	-1.38069	30.6126	1.73824	0.985224	1.09022	-0.876888	-40.8638	2.11707	0
0.5287	-5.01789	21.5131	29.6991	-1.00283	-0.246306	-1.04984	-3.02925	-30.183	-0.321851	-0.315036
0.5293	-4.68336	30.3623	22.9853	-4.05311	-2.37069	-4.11859	-3.64041	-25.906	-2.46038	-0.315036
0.5300	-2.5647	19.0664	10.1654	-3.75227	-1.75493	-3.18989	-1.48805	-20.1065	-1.84528	0
0.5307	-1.05933	9.30521	-0.512796	-1.00283	0.369459	1.09022	1.56777	-8.82129	0.593637	0
0.5313	-2.5647	9.60703	-2.34421	-0.0919263	1.29311	2.30157	2.76353	4.61403	1.20158	-0.315036
0.5320	-3.45677	12.9656	1.62026	1.43739	0.677341	1.69589	1.2489	12.2382	-0.0143045	-0.315036
0.5327	-3.79129	10.8272	6.80855	4.79688	-1.13917	-1.04984	-2.09922	14.6789	-3.06832	-0.315036
0.5333	-3.79129	1.97792	13.5223	7.84717	-1.44705	-1.37286	-2.09922	11.3201	-3.98381	-0.315036
0.5340	-1.9514	-1.68252	21.1539	10.5882	0.985224	3.83595	1.86007	2.77772	-1.23734	0
0.5347	-0.446035	0.757774	26.9498	11.1983	2.21675	6.86432	4.30472	-1.80145	0.901184	0
0.5353	-0.111509	3.80814	31.5305	7.84717	1.29311	4.72427	3.37469	-1.80145	-0.0143045	0
0.5360	0.501789	6.24843	39.4638	3.87762	0.677341	3.83595	-0.876888	-0.883291	-2.46038	-0.315036
0.5367	2.95498	5.33653	27.8677	4.79688	1.90887	7.79303	-2.09922	0.639224	-2.46038	-0.630072
0.5373	5.35242	3.19806	-7.5325	10.5882	3.10961	11.4675	0.637737	2.47554	0.593637	-0.315036
0.5380	4.12582	-0.160545	-27.3678	12.7276	2.52464	11.7501	-0.584592	-2.10363	0.901184	-0.315036
0.5387	2.62045	-5.34295	-20.6541	10.8974	1.90887	10.2157	-2.71038	-11.262	-0.0143045	-0.630072
0.5393	1.72838	-6.87134	-7.83846	10.2874	0.677341	5.37032	-4.86274	-17.3636	-2.15283	-0.630072
0.5400	-1.05933	-5.04112	0.400757	9.36813	0.677341	1.97854	-7.5997	-17.6658	-3.37586	-0.315036
0.5407	-4.68336	-5.6512	-4.78753	0.21728	2.52464	4.72427	-4.25158	-6.06681	-0.629398	-0.315036
0.5413	-7.74985	-7.78966	-26.7602	-16.2626	2.52464	2.30157	1.56777	20.7806	2.11707	-0.315036
0.5420	-8.36315	-3.51273	-39.8818	-19.3129	2.21675	-7.47	0.956605	43.9786	2.42461	-0.315036
0.5427	-5.29666	2.28617	-38.0503	-10.4629	1.29311	-17.5242	-4.86274	40.6198	-0.321851	-0.315036
0.5433	-1.9514	1.97792	-47.5091	-6.80255	0.677341	-25.1557	-6.69624	16.5152	-1.54489	-0.315036
0.5440	0.167263	8.69514	-51.4778	-4.66317	2.83252	-28.8302	-2.09922	1.85956	0.901184	-0.315036
0.5447	-1.67263	14.7959	-27.3678	-2.833	4.03326	-34.3216	4.59702	10.0997	2.73216	-0.315036
0.5453	-5.29666	15.4059	8.03237	-4.05311	2.21675	-42.5588	8.58287	18.3399	3.3401	0
0.5460	-7.13655	24.2552	27.5617	-7.11175	1.60099	-46.5159	5.20818	3.3937	1.50913	0
0.5467	-6.85778	30.6642	27.5617	-7.11175	3.72538	-42.5588	2.17893	-19.1883	0.28609	-0.315036
0.5473	-4.68336	22.1231	21.1539	-3.75227	4.95691	-36.4617	1.2489	-22.8493	2.42461	-0.315036
0.5480	-3.178	17.2361	20.2361	-1.9221	4.03326	-37.996	1.2489	2.47554	2.11707	-0.315036
0.5487	-1.9514	18.4563	24.8168	-3.44306	2.52464	-41.9531	11.931	22.0009	0.593637	-0.945107
0.5493	0.501789	7.47499	21.7658	-7.72181	0.0615765	-28.5071	28.7247	-17.0615	-0.929793	-1.57518
0.5500	2.62045	5.63835	12.6088	-10.162	-1.44705	-1.37286	41.5326	-64.364	-0.0143045	-0.630072
0.5507	3.23375	18.1545	-0.512796	-9.24277	-2.37069	15.7476	41.2403	-39.3297	3.64765	0
0.5513	3.56828	19.6764	-16.0777	-7.72181	-4.80297	26.0844	22.9054	7.65906	3.64765	-0.315036
0.5520	3.23375	12.3556	-13.6343	-6.19249	-6.0345	42.8818	3.37469	15.5971	1.20158	-0.315036
0.5527	2.62045	-7.17959	-5.09349	-5.58243	-5.72661	52.0477	-9.11432	14.6789	-1.84528	0
0.5533	1.39386	-34.9475	-9.05796	-3.14221	-6.0345	49.302	-15.226	22.3147	-2.46038	-0.315036
0.5540	0.167263	-47.1554	-9.66987	-0.392776	-6.34238	41.0648	-13.1002	4.91621	-0.629398	-0.630072
0.5547	-0.446035	-35.5576	-4.17563	0.21728	-6.0345	29.1532	-10.9478	-29.8692	-0.0143045	-0.315036
0.5553	-2.84347	-13.2803	-1.73661	-0.701983	-5.41873	19.3816	-11.2667	-23.4653	-1.23734	0
0.5560	-5.01789	-9.31163	-0.206842	-3.14221	-6.0345	12.6788	-12.489	36.9587	-3.06832	-0.315036
0.5567	-3.79129	-24.5699	4.67549	-2.833	-6.34238	10.2157	-10.6555	81.5184	-2.46038	0
0.5573	-2.5647	-22.1296	8.94592	-0.0919263	-4.80297	11.4675	-5.15504	31.4614	0.593637	0
0.5580	-2.23017	6.8585	6.50691	1.12819	-3.60222	10.5388	-1.48805	-58.5645	2.11707	0
0.5587	-1.67263	21.5131	1.31862	0.51813	-3.87932	7.47	-2.09922	-78.0899	0.901184	-0.315036
0.5593	-1.9514	8.38689	3.15003	-1.9221	-6.0345	3.51292	-6.37737	-49.4062	-3.06832	0
0.5600	-0.446035	-0.770618	8.03237	-1.9221	-6.65026	2.62459	-7.28083	-17.3636	-4.59175	0
0.5607	2.95498	5.63835	13.2207	1.12819	-4.49508	5.37032	-4.25158	14.3767	-2.15283	-0.315036
0.5613	3.56828	2.89624	16.8792	2.3483	-2.37069	6.86432	-3.32155	31.7752	-0.629398	-0.315036
0.5620	1.11509	-17.8591	4.67549	0.827337	-2.67858	4.72427	-3.64041	35.7384	-0.929793	-0.315036
0.5627	-2.5647	-35.8658	-14.8582	-1.9221	-3.87932	-0.767189	-6.69624	35.7384	-3.37586	0
0.5633	-3.79129	-43.4949	-21.8779	-1.31204	-1.75493	-1.65551	-7.28083	33.2977	-3.37586	-0.315036
0.5640	-1.05933	-50.514	-25.8423	1.73824	0.677341	0.48454	-3.64041	25.3597	-1.23734	-0.630072
0.5647	1.11509	-59.6651	-28.2857	2.65751	0.985224	0.767189	-1.80692	17.4334	-0.0143045	-0.315036
0.5653	1.72838	-59.3633	-24.6228	1.43739	0.985224	1.09022	-2.09922	13.1564	-0.321851	-0.315036
0.5660	2.00716	-51.7341	-20.0465	-2.22295	-1.75493	-0.121135	-5.7662	-5.46246	-2.76077	-0.630072
0.5667	1.39386	-35.2558	-1.43066	-3.75227	-1.44705	-0.767189	-5.7662	-18.8862	-2.15283	-0.315036
0.5673	-0.111509	27.0037	24.8168	-1.00283	2.83252	1.97854	-3.02925	-13.0867	1.81667	0
0.5680	-1.9514	106.043	33.3619	0.827337	3.72538	5.65297	-4.86274	-20.7225	2.73216	-0.315036
0.5687	-2.23017	104.213	22.0675	-1.9221	2.52464	5.0473	-4.86274	-32.6236	1.50913	-0.315036
0.5693	-2.5647	39.2116	7.42046	-8.02266	0.985224	-1.97854	-4.25158	-26.8241	-0.321851	-0.315036
0.5700	-2.23017	-1.68252	-0.206842	-8.63272	1.29311	-4.72427	-2.41809	-16.7477	-0.321851	-0.315036
0.5707	-1.3381	-5.34295	-14.2463	-5.58243	2.83252	0.767189	1.56777	-6.38061	1.81667	-0.315036
0.5713	-2.23017	1.67609	-34.3875	-2.53215	2.52464	6.58168	2.76353	-8.20531	2.42461	-0.315036
0.5720	-3.178	4.41821	-34.0816	2.3483	1.90887	3.51292	2.76353	-28.9626	-0.0143045	-0.315036
0.5727	-2.84347	3.19806	-11.5013	5.70779	0.677341	0.161513	0.0265724	-33.228	-3.67626	-0.315036
0.5733	-1.67263	5.63835	5.58905	6.62705	-1.13917	12.0731	-5.47391	-12.4823	-3.67626	-0.315036
0.5740	0.167263	10.5254	7.72642	6.31785	-3.60222	20.593	-7.5997	4.61403	-0.0143045	-0.315036
0.5747	1.11509	9.91528	6.50691	3.87762	-5.11085	9.93308	-3.32155	7.0547	2.73216	0
0.5753	-0.446035	3.50631	8.03237	-1.61289	-5.41873	1.09022	4.59702	1.2552	2.42461	-0.315036
0.5760	-1.9514	0.147702	8.03237	-6.5017	-5.72661	8.11605	7.04168	-5.16028	-0.321851	-0.945107
0.5767	-0.724806	3.19806	7.11451	-4.66317	-2.98646	14.2132	3.37469	-4.84648	-0.929793	-0.945107
0.5773	1.11509	6.24843	7.11451	1.12819	0.369459	9.3274	-1.80692	-0.267312	-0.0143045	-0.315036
0.5780	0.167263	6.8585	6.50691	4.48768	1.29311	7.47	-4.25158	2.77772	-0.0143045	-0.315036
0.5787	-0.446035	5.9466	4.97714	3.87762	0.677341	9.3274	-7.28083	2.47554	-0.929793	0
0.5793	-1.67263	2.89624	1.01266	0.21728	-1.44705	1.69589	-12.1701	-0.883291	-3.37586	0
0.5800	-1.9514	1.97792	-1.1247	-0.701983	-1.44705	-10.2157	-12.1701	-1.18547	-4.29135	0
0.5807	-0.446035	3.80814	-0.512796	1.43739	0.677341	-12.0328	-7.28083	1.85956	-1.54489	-0.315036
0.5813	1.39386	6.55667	-1.73661	2.96671	1.29311	-2.90724	-2.71038	2.47554	0.901184	-0.315036
0.5820	2.00716	7.16674	-4.17563	0.827337	0.0615765	11.4675	-2.09922	0.0348667	0.28609	-0.630072
0.5827	1.11509	2.58799	-3.26207	-2.833	-2.06281	21.239	-4.54387	-2.70798	-2.76077	-0.315036
0.5833	2.34168	-1.99076	1.01266	-1.00283	-1.13917	24.5904	-3.32155	-0.267312	-3.67626	-0.315036
0.5840	3.56828	-3.51273	1.92622	2.3483	1.90887	29.1532	-0.584592	5.83437	-1.84528	0
0.5847	1.39386	-3.51273	-2.03826	3.26756	4.03326	35.2503	-0.265724	11.0179	-0.929793	0
0.5853	-0.111509	-0.462371	-4.48158	1.43739	3.72538	33.4333	2.47123	17.4334	-0.629398	0
0.5860	-1.67263	5.33653	-1.43066	-3.75227	2.21675	24.8731	16.5014	19.874	-0.0143045	0
0.5867	-3.178	8.08506	6.20096	-7.11175	1.60099	17.5646	35.7398	11.936	1.50913	-0.315036
0.5873	-0.724806	5.63835	15.0521	-3.75227	3.10961	14.4958	33.2952	3.69587	3.64765	-0.630072
0.5880	0.780561	3.19806	15.9656	0.827337	4.03326	9.3274	13.4456	6.13655	3.3401	-0.315036
0.5887	-2.23017	3.19806	7.72642	1.73824	3.4175	-9.28703	0.345441	11.3201	0.901184	-0.315036
0.5893	-4.07007	-0.770618	-2.34421	-0.0919263	2.21675	-37.3904	-4.86274	10.0997	-1.84528	-0.315036
0.5900	-3.45677	-9.9217	-8.14441	-0.701983	0.985224	-58.1045	-5.47391	10.4135	-2.46038	-0.315036
0.5907	-1.3381	-10.5318	-5.70109	0.827337	1.29311	-56.8931	-3.64041	10.4135	-0.629398	-0.315036
0.5913	0.501789	1.36785	-0.512796	2.04745	1.29311	-44.0932	-6.98853	-0.883291	0.901184	-0.315036
0.5920	-0.446035	10.5254	1.62026	1.12819	-0.5234	-41.3475	-14.3225	-19.1883	0.901184	-0.315036
0.5927	-2.23017	7.47499	1.31862	-1.61289	-2.67858	-44.3758	-18.5741	-29.567	-0.629398	-0.315036
0.5933	-1.9514	2.58799	0.400757	-2.53215	-2.67858	-40.1361	-17.6706	-22.8493	-1.54489	0
0.5940	-0.111509	2.58799	1.92622	0.21728	-1.13917	-28.5071	-15.8371	-7.90313	-0.321851	-0.315036
0.5947	1.11509	4.11638	2.84408	2.96671	0.369459	-19.3816	-17.6706	1.55738	-0.0143045	-0.630072
0.5953	0.501789	5.02828	1.01266	2.04745	-0.5234	-23.0157	-14.0036	3.0799	-1.54489	0
0.5960	-1.9514	5.63835	-1.1247	-1.9221	-3.87932	-27.9015	-1.80692	0.337045	-3.06832	0
0.5967	-1.9514	7.77682	-1.73661	-2.833	-5.11085	-22.1273	7.36054	-0.581112	-2.15283	-0.315036
0.5973	-0.111509	10.5254	-0.81875	-0.392776	-3.60222	-15.3842	11.6387	2.17336	0.901184	0
0.5980	0.501789	12.3556	-1.1247	1.12819	-3.87932	-9.00438	14.3756	3.3937	2.73216	-0.315036
0.5987	-0.446035	8.38689	-5.09349	0.827337	-5.41873	1.37286	11.931	4.61403	0.593637	-0.315036
0.5993	-0.724806	-7.17959	-10.5834	-1.61289	-5.72661	10.5388	4.30472	3.0799	-2.76077	0
0.6000	0.501789	-17.5508	-10.8894	-1.61289	-2.98646	13.2845	-1.19576	-3.62614	-2.76077	0
0.6007	2.00716	-7.78966	-6.61895	2.04745	0.677341	11.7501	-3.64041	-9.12346	-1.23734	-0.630072
0.6013	2.62045	3.19806	-4.17563	4.18683	1.29311	7.79303	-4.25158	-10.9482	-1.23734	-0.630072
0.6020	1.11509	3.19806	-4.78753	2.65751	-0.246306	-0.444162	-3.93271	-4.5443	-1.23734	-0.315036
0.6027	-1.67263	3.50631	-1.1247	-1.31204	-2.06281	-7.75265	-5.7662	5.21839	-2.15283	-0.630072
0.6033	-2.5647	7.77682	10.4714	-2.22295	-2.98646	-7.75265	-6.98853	14.0745	-2.76077	-0.315036
0.6040	-1.9514	11.4373	17.1851	0.827337	-1.13917	-2.58422	-4.54387	35.1341	-0.321851	0
0.6047	-0.724806	5.9466	13.8283	2.04745	0.985224	0.48454	-3.64041	50.6962	0.593637	-0.315036
0.6053	1.11509	-5.6512	10.4714	1.12819	1.29311	1.09022	-6.08507	39.7016	-0.321851	-0.315036
0.6060	0.780561	-16.9407	10.1654	-1.00283	0.677341	-0.767189	-11.559	23.2213	-2.46038	0
0.6067	-0.446035	-18.771	9.86379	-1.31204	0.677341	-1.97854	-13.1002	17.7355	-3.06832	-0.315036
0.6073	1.11509	-5.34295	13.8283	1.73824	3.10961	-1.65551	-5.15504	9.79755	0.28609	-0.315036
0.6080	3.23375	6.24843	17.4911	2.3483	3.72538	-2.26119	0.345441	-12.1685	2.11707	-0.315036
0.6087	1.72838	7.16674	11.9968	0.51813	2.52464	-3.18989	-1.80692	-36.5868	-0.0143045	-1.26014
0.6093	-3.79129	1.67609	0.400757	-1.00283	1.90887	-2.90724	-3.93271	-37.505	-3.06832	-0.945107
0.6100	-6.52326	-7.17959	-13.3327	-1.9221	2.21675	-2.26119	-2.71038	-12.4823	-3.06832	0
0.6107	-2.84347	-11.1418	-26.7602	0.21728	4.03326	0.48454	-0.584592	10.0997	-0.629398	-0.945107
0.6113	1.72838	-14.5005	-26.4543	2.96671	5.57267	4.44162	0.637737	12.2382	-0.0143045	-1.26014
0.6120	3.84705	-20.6012	-8.45036	2.3483	3.10961	6.86432	0.956605	-0.883291	0.28609	-0.315036
0.6127	4.12582	-19.9911	6.50691	-1.61289	-0.831283	4.72427	-0.584592	-17.0615	-0.629398	-0.630072
0.6133	3.84705	-11.7519	15.6597	-2.833	-2.37069	2.30157	3.37469	-17.3636	-0.929793	-1.26014
0.6140	1.39386	1.97792	23.8989	-0.701983	-1.75493	4.11859	10.7087	-3.32396	1.81667	-1.57518
0.6147	-0.724806	17.8462	15.9656	1.12819	-1.75493	5.65297	9.8052	3.3937	1.81667	-1.26014
0.6153	0.167263	25.4753	5.895	0.827337	-1.75493	4.72427	3.37469	-0.581112	-0.629398	-0.315036
0.6160	0.167263	20.2865	-10.2775	-2.833	-2.67858	-1.04984	-0.876888	-14.923	-3.06832	-0.315036
0.6167	-0.111509	17.5444	-28.2857	-4.36232	-2.98646	-6.86432	-0.876888	-32.0077	-3.06832	-0.630072
0.6173	1.39386	11.4373	-16.9955	-1.61289	-1.75493	-5.93562	3.37469	-30.4852	-0.0143045	-0.945107
0.6180	2.62045	-16.9407	-9.05796	-0.0919263	-0.246306	-4.11859	6.74938	-20.7225	2.42461	0
0.6187	-1.05933	-34.0292	-12.1089	-1.00283	-0.831283	-7.75265	5.20818	-13.3888	0.901184	-0.315036
0.6193	-6.52326	-22.7396	-6.313	-2.833	-3.87932	-15.1015	-0.265724	-7.28715	-2.15283	-0.630072
0.6200	-6.85778	-11.4501	-9.66987	-3.75227	-4.49508	-17.8472	-0.265724	-5.16028	-2.15283	-0.315036
0.6207	-3.45677	-9.31163	-17.9091	-1.31204	-1.44705	-12.0328	7.97171	-3.02178	0.901184	0
0.6213	-0.446035	-6.87134	-14.8582	0.51813	0.677341	-2.90724	10.0975	-3.62614	1.20158	-0.315036
0.6220	0.167263	-1.07244	-6.00704	0.51813	0.985224	1.09022	3.37469	-9.72782	-1.23734	-0.315036
0.6227	-1.05933	4.41821	2.53813	-0.392776	-0.5234	-4.11859	-5.7662	-12.7845	-3.98381	-0.315036
0.6233	-0.724806	14.494	12.9147	2.04745	-1.44705	-7.14697	-9.11432	-12.4823	-3.98381	-0.315036
0.6240	2.34168	18.7645	16.5775	4.48768	0.369459	-2.58422	-5.7662	-6.38061	-1.54489	-0.315036
0.6247	4.12582	7.77682	14.7461	3.26756	0.985224	3.23027	-2.09922	7.97286	-0.0143045	-0.315036
0.6253	4.12582	1.97792	26.6482	1.73824	0.677341	5.0473	-1.19576	20.1762	-0.0143045	-0.315036
0.6260	2.95498	1.36785	31.5305	-0.701983	-0.5234	2.90724	-3.64041	23.5351	-2.15283	0
0.6267	0.780561	-5.34295	11.6952	-1.31204	-0.5234	1.97854	-4.86274	22.6169	-2.76077	0
0.6273	-0.446035	-8.39973	-6.92059	1.73824	1.60099	3.51292	-2.09922	18.0377	-0.0143045	0
0.6280	-2.5647	-9.00981	-4.17563	2.96671	2.52464	3.83595	-1.19576	5.83437	1.50913	-0.315036
0.6287	-3.79129	-6.87134	-0.81875	1.73824	1.90887	2.90724	-4.54387	-10.9482	0.593637	-0.315036
0.6293	-2.5647	-6.87134	-17.2972	-0.701983	1.29311	1.09022	-9.72548	-21.9428	-2.15283	0
0.6300	-1.3381	-19.6893	-34.6935	-1.31204	2.21675	1.09022	-12.7813	-13.0867	-3.06832	0
0.6307	-1.3381	-23.0479	-39.5758	0.51813	5.88056	4.44162	-12.489	-2.40581	0.593637	-0.315036
0.6313	-4.07007	-13.2803	-34.3875	1.43739	8.62071	7.18735	-11.8778	8.57722	1.50913	-0.315036
0.6320	-5.63119	-9.61988	-18.8226	1.12819	8.62071	8.3987	-11.8778	31.7752	-0.0143045	0
0.6327	-2.23017	-7.78966	1.01266	-1.61289	8.00494	10.2157	-14.9337	29.0208	-1.54489	0
0.6333	2.00716	-3.82098	16.8792	-2.833	11.3609	10.5388	-16.4483	-8.82129	-0.929793	-0.315036
0.6340	3.23375	1.67609	21.7658	0.51813	14.7168	5.65297	-13.1002	-42.6885	1.50913	-0.630072
0.6347	4.12582	6.8585	19.0166	2.04745	14.7168	-1.37286	-9.72548	-44.5248	1.81667	0
0.6353	5.96571	1.36785	9.55783	-1.61289	13.7931	-5.32995	-5.7662	-7.60095	2.42461	-0.315036
0.6360	4.46035	-16.3307	-2.03826	-7.11175	10.7451	-9.61005	0.0265724	43.6764	2.42461	-0.945107
0.6367	2.62045	-25.79	0.400757	-8.63272	8.00494	-15.7072	14.9868	83.3431	5.47863	-0.630072
0.6373	-0.111509	-16.0288	9.55783	-9.55198	4.95691	-20.8756	29.3359	83.6569	10.0561	0
0.6380	-5.01789	-2.29259	9.25188	-11.9922	-0.246306	-16.0302	30.2393	43.9786	10.9716	-0.315036
0.6387	-5.63119	1.36785	0.706711	-10.162	-1.75493	-9.8927	29.017	6.13655	8.22509	-0.315036
0.6393	-5.90996	1.06602	-5.39513	-6.80255	0.0615765	-21.5217	24.4466	-33.228	3.03256	0
0.6400	-7.47108	4.11638	-4.48158	-2.833	3.10961	-30.0415	13.1533	-72.9064	-0.929793	-0.315036
0.6407	-5.90996	7.16674	1.01266	0.51813	4.95691	-20.8756	9.48633	-72.2904	-0.0143045	-0.630072
0.6413	-4.07007	4.72646	3.75763	-0.392776	3.4175	-5.00692	17.7238	-38.7253	2.11707	-0.315036
0.6420	-3.45677	-0.770618	2.84408	-0.701983	-0.246306	17.8472	24.1277	-10.3438	0.593637	-0.315036
0.6427	-4.07007	-4.1228	1.01266	-1.00283	-6.95814	31.8989	20.1684	13.7607	-3.67626	0
0.6433	-4.07007	-4.43105	0.400757	0.21728	-12.4385	19.9873	10.7087	35.1341	-5.50724	0
0.6440	-2.23017	-1.99076	1.62026	2.3483	-12.7463	-12.6384	7.97171	36.0406	-3.67626	-0.315036
0.6447	-0.724806	2.28617	2.23217	2.3483	-7.26603	-39.8131	14.6679	23.8372	-2.15283	0
0.6453	-0.446035	5.63835	1.92622	2.96671	-2.98646	-43.4875	18.6538	10.0997	-3.37586	0
0.6460	-1.3381	4.72646	-0.206842	2.3483	-9.6983	-31.8989	11.0275	-1.48765	-5.81478	-0.315036
0.6467	-2.23017	2.89624	-1.1247	0.21728	-18.2266	-14.1728	0.637737	-3.92832	-5.50724	-0.315036
0.6473	-0.446035	2.89624	-0.206842	0.827337	-17.0259	3.51292	-6.37737	0.337045	-1.84528	-0.315036
0.6480	0.501789	2.58799	-0.512796	2.96671	-12.4385	12.3558	-15.8371	3.99805	-0.321851	-0.315036
0.6487	0.167263	0.455949	0.400757	3.57677	-13.0542	22.4504	-24.6857	3.99805	-2.15283	0
0.6493	-1.05933	-2.60083	5.28309	1.43739	-15.7944	34.6446	-25.9081	-0.267312	-3.98381	-0.315036
0.6500	-0.724806	-4.43105	11.6952	-0.0919263	-14.5628	32.8276	-17.6706	-2.10363	-3.37586	0
0.6507	2.34168	-3.51273	18.7106	2.04745	-10.3141	24.2674	-10.9478	-0.267312	-0.929793	-0.315036
0.6513	2.95498	-1.68252	31.2245	4.48768	-9.08253	25.1961	-10.6555	0.639224	-0.321851	-0.315036
0.6520	0.501789	-0.160545	31.8365	3.57677	-11.2069	34.039	-13.3925	3.69587	-1.84528	-0.315036
0.6527	-0.111509	5.9466	4.97714	-0.0919263	-11.8227	39.5304	-15.226	12.8542	-3.67626	0
0.6533	3.56828	14.494	-14.8582	-0.392776	-10.0062	39.8535	-14.3225	24.1394	-3.67626	-0.315036
0.6540	5.35242	21.5131	-14.5522	2.65751	-5.72661	37.1077	-11.8778	30.5549	-2.46038	-0.630072
0.6547	3.56828	26.0854	-24.0109	4.18683	-2.37069	33.7159	-9.11432	28.4164	-0.629398	-0.315036
0.6553	2.00716	24.8653	-47.2074	2.96671	-1.44705	28.2245	-7.89199	13.7607	-1.23734	-0.315036
0.6560	-0.111509	23.3433	-65.8232	-0.392776	-2.67858	19.099	-11.2667	-5.46246	-3.67626	0
0.6567	-1.05933	21.5131	-71.6191	-0.392776	-1.75493	12.3558	-9.43319	-5.46246	-3.37586	0
0.6573	-0.111509	5.02828	-55.1407	2.04745	1.60099	10.2157	-0.265724	10.4135	-0.0143045	0
0.6580	-0.446035	-16.9407	-24.9288	3.26756	4.34114	9.00438	4.30472	12.5404	1.81667	-0.315036
0.6587	-1.9514	-22.1296	-4.78753	2.04745	4.64903	5.0473	0.345441	1.2552	1.20158	0
0.6593	-5.29666	-12.9721	11.9968	-1.00283	3.4175	-2.26119	-3.93271	0.0348667	-1.23734	0
0.6600	-7.74985	-6.26127	35.495	-2.833	3.10961	-6.25865	-3.32155	16.5152	-1.54489	0
0.6607	-7.13655	-11.1418	58.9974	-1.9221	4.95691	-6.86432	-0.876888	36.6566	1.20158	-0.315036
0.6613	-5.90996	-11.1418	54.7227	-0.392776	7.0813	-9.28703	-0.584592	32.6818	2.73216	-0.315036
0.6620	-1.9514	-5.04112	27.2558	-0.392776	6.18844	-11.4271	-3.02925	8.57722	0.593637	0
0.6627	2.00716	-9.31163	20.2361	-2.833	4.64903	-8.07568	-6.08507	-23.4653	-2.15283	-0.315036
0.6633	3.84705	-6.56309	25.1227	-2.53215	5.26479	-1.65551	-6.37737	-53.0672	-2.15283	0
0.6640	2.34168	10.5254	17.1851	0.51813	6.77341	4.44162	-4.25158	-35.9825	-0.629398	-0.315036
0.6647	-1.67263	21.5131	5.895	0.51813	7.69706	9.61005	-3.02925	20.7806	1.81667	-0.315036
0.6653	-5.90996	25.1735	2.84408	-2.22295	6.49632	9.61005	-2.71038	27.4982	1.50913	-0.315036
0.6660	-8.97645	25.1735	5.895	-5.58243	4.34114	8.72173	-1.19576	-26.2082	-1.54489	-0.945107
0.6667	-6.85778	12.9656	9.86379	-5.58243	4.34114	18.7759	-0.265724	-56.1238	-1.54489	-1.26014
0.6673	-1.05933	-10.84	5.58905	-4.05311	6.77341	23.6617	-2.09922	-62.2255	1.50913	-0.315036
0.6680	3.56828	-30.9788	-9.97583	-5.27323	8.00494	12.3558	-1.19576	-72.2904	3.64765	0
0.6687	5.07364	-32.5072	-14.2463	-5.58243	3.10961	-0.767189	3.69356	-67.7112	4.25559	0
0.6693	2.00716	-21.5195	-5.39513	-3.44306	-4.80297	-11.7501	5.20818	-50.9287	1.50913	-0.315036
0.6700	-1.3381	-8.09149	-3.56372	1.43739	-7.54312	-17.8472	4.91589	-25.906	-0.629398	-0.315036
0.6707	-0.724806	0.147702	-2.95612	5.40694	-4.1872	-18.4529	7.65284	-4.84648	0.901184	-0.315036
0.6713	1.72838	-1.99076	9.86379	4.48768	-1.75493	-16.6359	9.48633	3.99805	2.11707	-0.315036
0.6720	2.95498	-5.95302	18.103	-1.31204	-2.98646	-16.6359	5.52705	7.0547	1.20158	-0.630072
0.6727	0.167263	-3.82098	5.28309	-5.27323	-4.49508	-21.8043	1.2489	-1.48765	-0.929793	-0.315036
0.6733	-3.45677	-0.462371	-11.5013	-4.36232	-5.11085	-31.8989	6.13822	-10.9482	-1.54489	0
0.6740	-2.84347	0.757774	-13.6343	-0.701983	-4.49508	-38.2787	13.1533	-6.06681	-0.0143045	-0.315036
0.6747	-0.724806	0.757774	-8.14441	2.96671	-3.29434	-34.9273	11.6387	0.0348667	-0.0143045	-0.315036
0.6753	-0.724806	1.36785	-5.09349	3.87762	-3.29434	-29.1128	8.87517	-2.40581	-1.54489	-0.315036
0.6760	-1.9514	1.97792	-5.09349	0.51813	-5.41873	-28.5071	6.43051	-9.72782	-3.06832	0
0.6767	-1.9514	1.36785	-5.39513	0.21728	-6.0345	-25.4788	-0.584592	-10.0416	-4.29135	-0.315036
0.6773	-0.724806	2.28617	-1.43066	4.18683	-2.67858	-15.7072	-5.47391	0.337045	-3.06832	-0.630072
0.6780	1.11509	1.97792	2.23217	6.9279	0.0615765	-9.8927	-6.37737	8.8794	-1.84528	-0.315036
0.6787	1.72838	-3.51273	-0.512796	6.31785	-1.75493	-12.3558	-9.43319	11.936	-3.67626	0
0.6793	-0.724806	-9.61988	-4.78753	3.26756	-5.72661	-15.1015	-14.3225	11.6339	-6.73027	-0.315036
0.6800	-2.5647	-7.17959	-5.09349	1.73824	-7.26603	-9.61005	-12.7813	8.8794	-5.81478	-0.315036
0.6807	-1.05933	-1.07244	-2.03826	2.04745	-6.34238	3.23027	-6.08507	8.27504	-0.929793	0
0.6813	-0.724806	1.36785	0.706711	1.73824	-6.0345	13.8902	-3.02925	10.7157	1.81667	0
0.6820	-1.67263	1.36785	1.31862	0.827337	-5.11085	15.4245	-7.89199	12.8542	-0.0143045	0
0.6827	-2.5647	0.147702	0.706711	-1.00283	-3.60222	14.8189	-15.226	12.2382	-3.06832	0
0.6833	-1.9514	-1.38069	0.706711	-1.9221	-0.831283	19.099	-14.6148	10.7157	-2.76077	0
0.6840	-0.724806	-1.38069	1.62026	-0.392776	2.52464	25.8018	-5.47391	12.5404	0.593637	0
0.6847	0.167263	-0.160545	1.62026	1.12819	4.64903	30.9702	0.956605	10.7157	1.81667	0
0.6853	0.501789	1.06602	0.0948027	1.12819	5.57267	29.1532	0.0265724	-0.883291	0.901184	0
0.6860	-0.111509	0.757774	-2.03826	-0.701983	5.88056	22.1273	-6.37737	-13.7026	-1.23734	-0.315036
0.6867	-0.724806	0.147702	-2.34421	-0.392776	6.77341	20.593	-16.156	-14.6208	-3.06832	-0.315036
0.6873	0.780561	1.36785	-0.512796	2.96671	8.00494	28.8705	-17.0595	-3.62614	-1.23734	-0.315036
0.6880	1.72838	2.58799	0.0948027	3.26756	7.69706	41.0648	-5.7662	2.47554	0.901184	-0.315036
0.6887	2.62045	1.36785	0.0948027	0.827337	4.95691	43.8105	4.59702	1.2552	0.28609	0
0.6893	1.39386	-0.462371	0.400757	-1.9221	0.677341	26.0844	4.91589	-0.883291	-1.54489	-0.315036
0.6900	-0.724806	-0.160545	-0.512796	-3.14221	-0.831283	2.90724	2.17893	-2.10363	-1.54489	-0.630072
0.6907	0.167263	1.06602	-2.03826	-2.53215	1.60099	-3.18989	4.59702	0.0348667	1.20158	-0.315036
0.6913	1.11509	-0.160545	-1.73661	-2.22295	4.95691	-11.4271	13.4456	8.57722	2.73216	-0.315036
0.6920	0.501789	-2.60083	1.31862	-2.53215	7.0813	-33.1103	21.3908	14.3767	0.593637	-0.315036
0.6927	0.167263	-4.73288	1.62026	-3.44306	5.88056	-51.119	21.0985	9.79755	-1.84528	-0.315036
0.6933	-0.111509	-5.6512	1.01266	-4.36232	2.52464	-65.1303	15.2791	5.83437	-1.23734	-0.630072
0.6940	0.780561	-3.51273	2.53813	-1.9221	4.03326	-74.2962	10.0975	5.21839	1.50913	-0.315036
0.6947	0.501789	0.757774	2.23217	0.827337	8.00494	-62.3846	5.52705	2.17336	2.11707	-0.315036
0.6953	-3.178	3.80814	3.75763	0.21728	7.69706	-30.0415	-0.876888	2.17336	0.28609	-0.315036
0.6960	-7.13655	1.36785	3.15003	-1.9221	3.10961	-4.72427	-10.9478	6.43873	-2.15283	-0.945107
0.6967	-4.40459	1.67609	-1.73661	-1.61289	-2.06281	1.69589	-18.2818	9.49538	-2.15283	-1.57518
0.6973	1.39386	7.47499	-2.03826	1.73824	-3.60222	1.37286	-19.1852	7.35688	1.20158	-0.630072
0.6980	2.62045	5.9466	0.400757	2.96671	-2.37069	-1.04984	-18.893	-2.70798	2.11707	0
0.6987	0.501789	-0.770618	1.92622	1.12819	-2.67858	-5.65297	-16.156	-10.646	0.593637	0
0.6993	-1.3381	-4.1228	6.80855	-2.53215	-4.49508	-6.5413	-12.7813	-17.0615	-1.54489	0
0.7000	-3.178	1.67609	11.0833	-3.75227	-5.11085	-2.58422	-11.559	-23.4653	-2.15283	0
0.7007	-4.07007	11.1354	4.36954	-2.22295	-5.72661	-3.79557	-3.02925	-13.7026	0.28609	-0.315036
0.7013	-2.23017	6.24843	-6.61895	-1.9221	-7.26603	-11.1444	4.59702	3.99805	0.901184	-0.315036
0.7020	1.72838	-8.39973	-9.66987	-0.0919263	-5.11085	-10.8214	-10.0444	12.8542	-1.84528	-0.315036
0.7027	3.56828	-13.5821	-7.22655	0.51813	-2.37069	-7.75265	-31.0897	13.4586	-5.81478	0
0.7033	4.46035	-6.87134	0.400757	0.827337	-1.44705	-9.8927	-35.979	12.8542	-6.42272	0
0.7040	7.52683	-1.68252	10.7773	3.57677	-0.246306	-11.1444	-41.4795	20.4784	-4.29135	-0.315036
0.7047	7.52683	-5.34295	11.6952	4.48768	-0.5234	-9.28703	-44.8276	35.4362	-3.37586	-0.315036
0.7053	2.00716	-8.39973	1.62026	2.04745	-2.06281	-10.4984	-33.8532	42.4561	-1.84528	-0.630072
0.7060	-1.9514	-7.48141	-9.36392	-2.833	-3.87932	-14.4958	-25.6158	33.2977	-1.84528	-0.315036
0.7067	-1.3381	-5.04112	-16.3836	-4.36232	-5.11085	-15.3842	-15.8371	16.213	-2.15283	-0.630072
0.7073	-2.23017	5.02828	-24.3169	-2.833	-4.49508	-17.8472	-3.02925	-6.06681	0.28609	-0.630072
0.7080	-4.68336	20.5948	-20.0465	-1.31204	-1.75493	-16.0302	-0.584592	-23.1631	2.11707	-0.315036
0.7087	-4.40459	24.5634	-1.43066	-1.00283	0.0615765	-0.444162	-1.80692	-25.6038	1.20158	-0.630072
0.7093	-2.84347	16.6261	1.92622	-2.22295	-1.44705	14.2132	-4.25158	-19.8043	-1.84528	-0.315036
0.7100	0.780561	13.2675	-4.78753	-0.701983	-2.06281	14.2132	3.69356	1.55738	-3.06832	0
0.7107	4.46035	6.8585	-1.1247	2.96671	0.985224	5.0473	25.6689	21.6987	-1.23734	-0.315036
0.7113	4.73912	-7.17959	0.706711	3.87762	2.52464	-4.72427	32.3917	11.0179	-1.23734	-0.315036
0.7120	3.23375	-13.8904	-3.26207	2.3483	0.369459	-8.07568	26.2801	-16.1433	-2.15283	-0.315036
0.7127	-0.724806	-11.7519	-7.22655	-1.31204	-3.29434	-10.2157	20.4873	-33.5418	-3.37586	-0.315036
0.7133	-1.67263	-3.51273	-7.83846	-2.53215	-4.1872	-9.8927	12.5422	-32.0077	-3.06832	-0.315036
0.7140	2.34168	6.55667	-2.65017	0.51813	-2.06281	-4.40124	8.87517	-22.8493	0.28609	-0.315036
0.7147	5.68694	10.2171	2.23217	2.04745	-1.13917	-0.444162	2.76353	-13.0867	1.50913	-0.315036
0.7153	9.6455	11.7455	3.75763	0.51813	-1.75493	4.11859	-8.50316	4.30023	0.593637	-0.630072
0.7160	14.5519	19.0664	2.23217	-2.53215	-2.67858	9.00438	-13.7113	11.6339	-1.54489	-0.315036
0.7167	16.336	21.2048	0.400757	-2.833	-3.29434	7.47	-10.9478	7.35688	-1.84528	-0.315036
0.7173	10.8721	5.9466	-5.39513	-0.0919263	-2.98646	5.65297	-3.93271	9.49538	-0.321851	-0.315036
0.7180	1.72838	-4.1228	-16.9955	1.43739	-2.67858	18.7759	1.2489	10.7157	0.593637	-0.315036
0.7187	0.501789	-4.73288	-20.0465	0.21728	-3.29434	32.5046	4.59702	11.3201	0.28609	-0.315036
0.7193	4.46035	-16.6389	-16.9955	-2.833	-4.49508	23.3387	5.81935	14.9811	-1.54489	0
0.7200	7.19231	-16.6389	-20.0465	-3.14221	-2.98646	9.3274	8.87517	15.8992	-2.15283	-0.315036
0.7207	3.23375	3.80814	-11.1953	-0.701983	0.677341	6.25865	14.3756	20.1762	-0.0143045	-0.315036
0.7213	-6.85778	11.1354	6.80855	0.21728	2.21675	5.0473	14.9868	31.7752	1.50913	0
0.7220	-12.6562	-9.00981	11.9968	-0.0919263	1.60099	3.83595	11.0275	53.4391	0.901184	0
0.7227	-11.4296	-40.7464	20.2361	-2.833	0.985224	1.09022	6.74938	69.3035	-1.84528	0
0.7233	-4.68336	-46.2371	36.4128	-3.44306	2.21675	-0.121135	4.59702	35.4362	-2.46038	0
0.7240	-0.111509	-20.2994	35.1933	0.21728	4.64903	3.23027	6.43051	-14.307	-0.0143045	0
0.7247	-4.07007	-1.38069	27.5617	2.04745	5.57267	4.44162	8.264	-0.267312	1.20158	0
0.7253	-6.24449	5.9466	19.9344	1.73824	4.64903	2.62459	5.81935	26.8939	-0.0143045	-0.315036
0.7260	-6.52326	13.8775	-3.26207	-1.00283	1.60099	-0.444162	-1.19576	-0.883291	-3.06832	-0.315036
0.7267	-10.8163	15.1041	-28.5916	-2.22295	0.985224	-1.65551	-7.89199	-42.0842	-3.06832	-0.315036
0.7273	-12.935	12.9656	-30.7247	0.51813	3.72538	0.767189	-12.1701	-64.6662	-0.0143045	-0.315036
0.7280	-8.97645	17.5444	-18.8226	1.73824	3.4175	1.09022	-11.8778	-81.4487	0.28609	0
0.7287	-5.01789	16.6261	-5.09349	0.21728	0.677341	-1.04984	-8.50316	-83.5872	-1.84528	-0.630072
0.7293	-6.24449	-2.60083	11.9968	-1.61289	-1.13917	-3.18989	-7.28083	-55.2057	-3.98381	-1.26014
0.7300	-8.02862	-22.1296	11.0833	-1.61289	-1.13917	-1.65551	-1.19576	-13.7026	-3.06832	-0.630072
0.7307	-5.63119	-18.771	-2.95612	-0.0919263	-1.44705	2.30157	7.97171	0.639224	0.28609	0
0.7313	-2.84347	-3.82098	-0.206842	-0.0919263	-2.37069	1.97854	11.3198	-6.38061	1.81667	0
0.7320	-1.9514	1.97792	10.1654	-1.61289	-2.67858	-2.90724	11.0275	-0.581112	1.50913	0
0.7327	-1.67263	-2.29259	10.7773	-3.44306	-3.29434	-8.68135	9.19404	1.55738	-0.629398	0
0.7333	-1.9514	-8.39973	7.42046	-3.14221	-2.98646	-9.00438	7.97171	-5.16028	-2.46038	-0.315036
0.7340	-3.45677	-7.17959	7.72642	-0.392776	1.60099	-4.72427	14.9868	5.21839	-0.629398	-0.315036
0.7347	-5.29666	1.97792	7.11451	1.12819	6.18844	-0.444162	27.7947	23.8372	0.901184	-0.315036
0.7353	-5.90996	9.60703	-0.512796	1.12819	20.2279	2.30157	29.017	23.2213	-0.0143045	0
0.7360	-3.45677	7.16674	-7.5325	-1.31204	49.5075	1.09022	20.4873	2.47554	-1.23734	0
0.7367	2.34168	3.50631	-3.56372	-2.53215	73.6147	-0.121135	18.0426	-16.4455	-0.629398	0
0.7373	8.14013	6.24843	-3.56372	-1.00283	80.0187	-0.121135	17.4315	-23.1631	2.11707	0
0.7380	8.4189	2.58799	-15.4658	-0.392776	77.8943	-1.37286	16.5014	-14.0048	3.64765	0
0.7387	5.35242	-7.78966	-18.8226	-0.701983	73.6147	0.48454	15.598	3.0799	2.73216	-0.315036
0.7393	6.91354	-14.8087	-13.9403	-3.44306	68.4423	3.23027	14.9868	11.3201	0.593637	0
0.7400	19.1237	-12.362	-1.73661	-4.36232	62.6233	5.37032	15.598	18.0377	0.28609	0
0.7407	30.7206	1.67609	21.7658	0.51813	51.9398	9.61005	0.637737	33.9021	2.42461	0
0.7413	26.7621	14.494	37.9383	2.3483	34.8523	12.0731	-22.2411	50.9984	3.3401	0
0.7420	11.7642	19.6764	38.2443	0.21728	18.0727	8.72173	-26.2269	56.7979	2.11707	-0.315036
0.7427	0.167263	12.3556	24.2048	-1.31204	7.69706	0.767189	-30.4785	56.7979	-0.321851	-0.315036
0.7433	-4.07007	-6.26127	5.28309	-0.701983	-3.60222	-6.25865	-39.646	63.2018	-0.929793	-0.315036
0.7440	-8.02862	-13.5821	2.84408	-0.0919263	-28.0173	-9.61005	-30.1862	58.9364	1.50913	-0.315036
0.7447	-11.0951	-13.2803	6.50691	-0.392776	-47.8449	-13.8902	-15.226	44.8967	3.3401	-0.315036
0.7453	-5.63119	-25.1799	-6.313	-0.392776	-49.9693	-18.7759	-6.98853	29.3346	2.42461	0
0.7460	-0.111509	-29.7587	-21.8779	-1.31204	-48.4607	-21.8043	-4.25158	-3.32396	-1.23734	-0.315036
0.7467	-2.84347	-17.5508	-25.2347	-0.0919263	-51.5087	-19.0586	-1.19576	-23.4653	-3.98381	-0.315036
0.7473	-7.47108	-8.39973	-38.3563	3.57677	-62.5001	-10.8214	15.598	-34.1462	-2.76077	-0.315036
0.7480	-9.25522	-2.90266	-46.2896	2.96671	-67.3647	-3.79557	39.6991	-75.0449	-0.929793	-0.315036
0.7487	-10.4818	3.80814	-19.4345	0.51813	-58.2206	0.48454	63.5079	-102.508	0.28609	-0.315036
0.7493	-11.7084	9.60703	6.50691	-1.9221	-55.1725	-0.121135	79.3717	-86.946	-1.54489	-0.315036
0.7500	-9.25522	12.3556	10.1654	-1.9221	-52.7095	1.69589	60.1598	-57.0304	-2.76077	-0.315036
0.7507	-3.178	4.11638	4.97714	2.3483	-36.8535	8.11605	21.7096	-34.7621	-0.321851	-0.315036
0.7513	-0.724806	-5.04112	4.67549	3.26756	-24.6614	7.47	5.81935	-47.8837	0.28609	-0.315036
0.7520	-1.67263	-5.04112	12.3028	0.51813	-24.0456	2.90724	5.81935	-63.4459	-0.929793	0
0.7527	-2.23017	-1.68252	8.03237	-1.9221	-25.8621	0.767189	-3.02925	-47.8837	-2.76077	0
0.7533	-3.45677	-0.160545	-2.03826	-2.53215	-19.4582	2.62459	-15.5448	-33.228	-2.76077	0
0.7540	-7.74985	-0.462371	-0.512796	-0.392776	-3.29434	5.65297	-16.7672	-17.0615	0.593637	0
0.7547	-12.0429	0.147702	6.50691	0.827337	0.985224	4.44162	-13.1002	3.99805	1.20158	0
0.7553	-10.4818	3.80814	10.4714	0.827337	-8.15889	2.62459	-12.1701	17.7355	0.28609	0
0.7560	-8.02862	5.63835	8.03237	-1.61289	-13.67	1.69589	-15.5448	37.2609	-1.23734	-0.630072
0.7567	-6.85778	5.63835	3.75763	-2.53215	-12.7463	2.30157	-17.0595	38.7951	-1.23734	-1.26014
0.7573	-5.29666	7.77682	3.15003	0.51813	-8.15889	4.72427	-10.0444	6.75253	0.901184	-0.630072
0.7580	-5.63119	8.08506	3.45168	1.73824	-5.72661	5.37032	-3.64041	-11.5641	1.50913	0
0.7587	-5.63119	6.24843	1.31862	0.51813	-6.95814	4.11859	-3.02925	-3.32396	0.901184	0
0.7593	-7.13655	4.72646	-0.81875	-2.22295	-8.77465	0.767189	-6.98853	-3.92832	-2.15283	-0.315036
0.7600	-8.64192	5.63835	0.706711	-2.833	-9.39042	-0.121135	-7.89199	-12.1685	-2.76077	-0.315036
0.7607	-6.85778	5.63835	2.53813	-0.0919263	-7.851	2.62459	-4.54387	-10.3438	-0.321851	-0.315036
0.7613	-4.68336	3.80814	3.15003	2.04745	-5.11085	4.44162	-2.71038	-5.16028	0.901184	-0.315036
0.7620	-2.23017	1.97792	2.23217	0.51813	-3.60222	2.90724	-3.64041	-3.02178	0.593637	-0.315036
0.7627	-2.5647	-0.160545	-0.81875	-2.833	-5.41873	-0.767189	-7.28083	-3.02178	-2.46038	-0.315036
0.7633	-4.07007	0.455949	-1.1247	-2.53215	-6.65026	-0.767189	-7.5997	1.55738	-2.46038	-0.315036
0.7640	-2.5647	4.11638	1.31862	0.51813	-4.49508	2.30157	-3.64041	9.49538	0.901184	0
0.7647	-1.05933	5.63835	2.23217	1.73824	-3.29434	2.90724	-1.48805	11.3201	1.81667	0
0.7653	-1.3381	5.02828	1.92622	1.12819	-4.1872	1.97854	-2.09922	8.8794	0.901184	-0.315036
0.7660	-3.178	2.28617	0.400757	-1.31204	-4.49508	-1.04984	-5.47391	4.91621	-1.54489	-0.315036
0.7667	-2.23017	1.67609	-0.206842	-1.31204	-3.29434	-0.444162	-7.5997	4.91621	-1.84528	-0.315036
0.7673	1.39386	3.50631	0.706711	0.827337	-1.13917	3.51292	-4.54387	8.8794	0.901184	-0.315036
0.7680	2.34168	4.72646	-0.206842	1.12819	0.677341	4.11859	-0.584592	8.8794	3.03256	0
0.7687	2.62045	3.80814	-3.56372	-0.392776	1.60099	1.97854	-0.876888	6.75253	2.11707	0
0.7693	3.23375	1.97792	-6.00704	-3.14221	3.10961	-0.767189	-3.93271	5.21839	-0.629398	0
0.7700	1.72838	2.28617	-5.70109	-3.44306	8.00494	-2.26119	-2.09922	5.83437	-0.929793	0
0.7707	-0.111509	3.80814	-2.03826	-1.61289	14.4089	-1.04984	3.69356	7.35688	1.20158	-0.315036
0.7713	0.501789	3.80814	0.400757	-0.392776	17.1491	0.767189	4.59702	8.27504	2.42461	-0.315036
0.7720	1.39386	2.89624	0.0948027	-1.31204	17.4569	0.48454	2.17893	8.8794	3.03256	-0.315036
0.7727	0.780561	-0.160545	-2.03826	-4.66317	14.7168	-3.18989	-1.19576	8.27504	1.50913	-0.315036
0.7733	1.72838	-1.68252	-2.95612	-5.58243	12.9003	-3.51292	-1.19576	8.57722	1.20158	-0.315036
0.7740	3.84705	1.06602	-0.81875	-2.53215	14.7168	1.09022	3.37469	11.0179	4.25559	-0.630072
0.7747	2.00716	2.58799	0.0948027	-1.61289	15.3325	1.69589	5.20818	14.3767	4.86353	-0.315036
0.7753	-1.05933	1.97792	0.0948027	-3.14221	12.9003	-0.444162	3.69356	16.8174	3.03256	0
0.7760	-2.23017	0.147702	0.706711	-4.97238	9.23647	-0.444162	0.637737	13.1564	1.50913	-0.315036
0.7767	-2.23017	-0.462371	1.31862	-4.66317	6.18844	1.97854	-1.80692	8.8794	0.901184	-0.630072
0.7773	-1.05933	0.455949	1.01266	-1.31204	5.26479	4.44162	-3.32155	10.4135	2.42461	0
0.7780	2.95498	-0.160545	-0.81875	1.43739	6.18844	5.0473	-7.5997	11.6339	3.64765	0
0.7787	5.07364	-0.770618	-1.43066	0.827337	8.31283	3.23027	-10.6555	11.0179	2.42461	-0.630072
0.7793	0.167263	-1.07244	-0.206842	-1.61289	8.31283	-0.121135	-14.3225	14.0745	-0.629398	-0.630072
0.7800	-5.29666	-1.38069	1.31862	-1.31204	3.72538	-0.121135	-17.9629	19.5602	-2.46038	0
0.7807	-4.68336	-1.99076	0.706711	2.65751	-0.831283	1.97854	-15.226	17.4334	-1.54489	0
0.7813	-0.111509	-1.99076	-1.73661	3.87762	-0.246306	2.30157	-12.7813	7.65906	-1.54489	0
0.7820	0.780561	0.455949	-2.03826	2.65751	1.29311	1.09022	-12.7813	-0.267312	-1.54489	0
0.7827	-2.23017	0.147702	-2.95612	0.21728	0.985224	-1.65551	-13.3925	-6.06681	-2.76077	0
0.7833	-2.5647	-2.29259	-2.65017	-0.392776	2.21675	-2.26119	-9.11432	-5.76464	-3.37586	0
0.7840	0.501789	0.147702	0.706711	1.73824	4.95691	0.767189	-3.02925	2.77772	-0.629398	-0.315036
0.7847	-0.446035	4.41821	4.06359	2.96671	4.64903	2.30157	-3.02925	4.30023	0.593637	0
0.7853	-5.63119	5.63835	5.28309	1.43739	2.83252	1.37286	-2.41809	-2.40581	-0.321851	-0.315036
0.7860	-6.24449	1.06602	1.62026	-1.00283	-0.5234	-2.26119	-2.41809	-8.50749	-2.76077	-1.26014
0.7867	-1.67263	-2.60083	-2.03826	-0.392776	-3.87932	-2.26119	-3.64041	-9.72782	-3.37586	-1.26014
0.7873	1.39386	-2.29259	-0.81875	2.04745	-5.72661	1.69589	-1.48805	-6.68279	-0.929793	0
0.7880	1.11509	-0.770618	0.706711	2.65751	-6.95814	3.23027	1.2489	-1.80145	0.28609	0
0.7887	-2.23017	-0.160545	1.92622	1.73824	-7.54312	1.69589	0.0265724	1.85956	-0.321851	-0.315036
0.7893	-6.52326	-1.07244	0.0948027	-0.701983	-7.54312	-1.97854	-4.86274	0.953024	-2.76077	-0.315036
0.7900	-5.01789	-1.38069	-1.43066	-1.31204	-6.0345	-1.65551	-6.69624	-0.267312	-3.37586	-0.315036
0.7907	-1.67263	-0.160545	-0.206842	1.12819	-3.87932	1.97854	-4.54387	-3.02178	-0.629398	0
0.7913	-0.724806	0.455949	0.0948027	0.827337	-2.98646	2.30157	-2.41809	-11.5641	-0.0143045	-0.315036
0.7920	-0.446035	-0.160545	0.400757	-1.31204	-2.67858	1.69589	0.637737	-15.5273	-0.0143045	0
0.7927	-1.05933	-1.68252	-1.1247	-4.05311	-4.1872	-0.444162	0.956605	-13.3888	-0.629398	0
0.7933	-1.05933	-1.99076	-2.03826	-4.36232	-4.1872	-0.444162	1.56777	-9.72782	-0.629398	0
0.7940	1.39386	0.757774	-0.81875	-1.31204	-0.831283	3.23027	7.04168	-2.70798	1.81667	0
0.7947	1.72838	1.67609	0.400757	-0.0919263	1.60099	3.51292	9.48633	0.953024	3.3401	-0.315036
0.7953	1.11509	0.757774	0.0948027	-1.61289	1.29311	1.37286	7.65284	-1.80145	2.42461	-0.315036
0.7960	-0.446035	-1.07244	-2.65017	-4.05311	0.369459	-1.37286	4.30472	-5.76464	-0.0143045	0
0.7967	0.501789	-0.770618	-4.17563	-4.36232	1.60099	-0.121135	3.69356	-3.32396	0.28609	-0.315036
0.7973	4.73912	1.67609	-3.26207	-2.22295	5.26479	3.51292	9.19404	2.77772	3.3401	-0.315036
0.7980	9.36673	1.67609	-3.56372	-1.9221	8.92859	4.11859	11.6387	4.91621	4.86353	0
0.7987	10.5376	-0.770618	-4.78753	-3.44306	8.62071	3.51292	8.87517	3.69587	4.25559	0
0.7993	6.91354	-2.60083	-4.17563	-5.88328	4.95691	0.161513	4.59702	1.55738	1.50913	-0.315036
0.8000	4.73912	-1.99076	-2.34421	-4.36232	4.95691	-1.97854	1.2489	3.0799	-0.321851	0
0.8007	5.07364	-0.462371	0.400757	-0.0919263	8.00494	-0.121135	-1.80692	5.83437	0.28609	-0.315036
0.8013	1.11509	-1.07244	3.15003	1.73824	9.23647	1.97854	-5.47391	2.77772	0.901184	-0.315036
0.8020	-2.5647	-3.21091	4.67549	1.12819	6.77341	0.48454	-8.21086	-2.70798	-0.0143045	-0.315036
0.8027	-3.45677	-6.87134	1.01266	-0.701983	3.10961	-3.51292	-12.489	-8.20531	-3.67626	-0.315036
0.8033	-2.23017	-7.17959	-2.34421	-0.392776	2.52464	-3.79557	-15.5448	-10.646	-4.59175	0
0.8040	-3.79129	-2.29259	-0.512796	3.26756	2.52464	-1.04984	-14.3225	-6.06681	-2.76077	0
0.8047	-6.24449	1.36785	2.53813	5.09773	1.90887	-0.121135	-15.5448	3.3937	-2.15283	-0.315036
0.8053	-4.68336	1.06602	1.92622	3.87762	2.52464	-0.767189	-17.3518	11.3201	-3.06832	-0.315036
0.8060	-2.5647	-1.38069	-0.512796	0.51813	2.21675	-2.90724	-13.7113	7.65906	-5.20684	-0.315036
0.8067	-1.67263	-2.29259	-0.81875	-0.392776	-0.5234	-2.26119	-7.5997	-2.10363	-5.50724	-0.315036
0.8073	-1.67263	-0.462371	1.01266	2.3483	-5.41873	0.48454	-3.02925	-2.10363	-3.06832	-0.630072
0.8080	-1.3381	1.97792	3.75763	3.57677	-5.41873	1.37286	-1.19576	1.2552	-0.929793	-0.315036
0.8087	-0.446035	2.89624	1.92622	2.3483	-2.06281	-0.121135	-1.80692	1.55738	-0.929793	0
0.8093	-1.67263	0.757774	-5.39513	-1.00283	-3.87932	-2.90724	-5.15504	0.337045	-3.67626	-0.315036
0.8100	-1.9514	1.06602	-6.313	-1.61289	-7.26603	-1.65551	-5.15504	1.2552	-4.29135	-0.315036
0.8107	-0.111509	4.41821	-0.512796	1.12819	-6.95814	1.09022	-1.19576	4.91621	-1.23734	0
0.8113	-0.446035	4.11638	1.62026	2.04745	-4.49508	1.37286	1.56777	6.43873	0.28609	-0.315036
0.8120	-2.5647	1.67609	0.706711	0.21728	-5.11085	-0.121135	0.956605	2.17336	-0.929793	-0.630072
0.8127	-4.07007	-1.07244	-0.81875	-2.22295	-6.95814	-1.65551	-2.41809	-7.28715	-3.06832	-0.315036
0.8133	-4.07007	-2.29259	-0.512796	-1.9221	-4.49508	-1.04984	-2.41809	-10.3438	-2.46038	-0.315036
0.8140	-2.23017	-0.160545	1.01266	-0.0919263	-0.5234	0.767189	1.2489	-4.24212	-0.0143045	-0.315036
0.8147	-0.111509	1.67609	1.01266	0.827337	1.60099	2.90724	4.30472	-0.883291	0.901184	-0.315036
0.8153	0.167263	1.36785	-0.81875	-0.392776	-2.98646	3.23027	4.30472	-2.40581	-0.0143045	-0.630072
0.8160	-0.724806	-0.770618	-2.95612	-2.53215	-16.1023	-0.444162	0.956605	-5.76464	-2.15283	-1.57518
0.8167	0.501789	-1.38069	-3.56372	-0.701983	-22.5062	0.767189	-1.80692	-4.24212	-2.76077	-0.945107
0.8173	3.23375	-1.68252	-3.56372	1.43739	-17.0259	3.83595	0.345441	0.953024	-0.321851	-0.315036
0.8180	4.12582	-0.770618	-2.95612	0.51813	-8.46677	2.30157	5.81935	4.30023	2.42461	-0.315036
0.8187	1.72838	-0.770618	-2.34421	-1.31204	-2.67858	1.97854	3.98585	4.30023	0.901184	-0.315036
0.8193	-4.68336	-3.21091	-1.1247	-3.14221	-6.34238	5.65297	-5.15504	2.47554	-3.37586	-0.315036
0.8200	-8.64192	-2.60083	3.15003	-1.61289	-7.54312	12.0731	-6.08507	6.43873	-3.67626	-0.315036
0.8207	-6.24449	0.455949	4.36954	1.73824	1.90887	18.1703	0.345441	15.2949	-0.321851	-0.315036
0.8213	-2.5647	-0.462371	3.15003	2.3483	9.23647	20.593	2.47123	14.6789	1.81667	0
0.8220	-3.79129	-1.38069	2.53813	0.827337	40.0555	19.9873	2.47123	12.5404	1.20158	-0.315036
0.8227	-6.52326	0.757774	2.53813	-1.9221	107.79	18.4933	4.30472	11.0179	-0.929793	-0.315036
0.8233	-5.29666	1.67609	3.45168	-2.833	155.111	25.1961	8.264	1.85956	-0.321851	0
0.8240	-0.111509	0.147702	-1.1247	-1.31204	158.775	40.1361	11.931	-5.16028	3.03256	-0.630072
0.8247	3.23375	-0.462371	-11.8072	-0.701983	153.264	48.979	13.7645	-8.82129	5.47863	-0.945107
0.8253	3.84705	-1.07244	-19.7405	-3.14221	140.456	41.9531	13.7645	-12.4823	6.08657	0
0.8260	2.34168	-4.43105	-21.266	-7.4126	105.973	30.3645	12.5422	-11.262	4.56314	0.315036
0.8267	2.34168	-6.56309	-15.4658	-8.94192	61.4226	26.7305	15.8903	-7.60095	4.56314	0
0.8273	4.12582	-3.51273	-0.512796	-8.63272	21.7365	23.3387	21.7096	-5.16028	7.00206	-0.315036
0.8280	4.12582	1.36785	20.848	-9.85283	-7.54312	11.1444	27.5024	-3.32396	9.44098	0
0.8287	3.23375	5.63835	28.7812	-11.9922	-32.574	-4.11859	30.2393	-5.46246	8.83303	0
0.8293	3.84705	11.7455	24.2048	-14.4324	-59.4213	-15.1015	20.7796	-9.72782	5.77902	-0.315036
0.8300	3.84705	20.5948	28.7812	-13.5132	-70.4127	-24.2674	12.5422	-4.84648	4.56314	0
0.8307	-0.446035	26.6955	22.3734	-7.11175	-73.4608	-37.996	20.7796	7.65906	4.56314	0
0.8313	-4.07007	25.4753	-6.00704	1.43739	-85.9916	-64.242	24.7389	17.1196	2.42461	0
0.8320	-2.5647	15.4059	-22.7914	8.14802	-82.6357	-91.9819	4.91589	21.6987	-3.67626	-0.315036
0.8327	-3.79129	-3.51273	-21.8779	8.75807	-70.4127	-103.894	-15.226	28.1142	-8.8688	0
0.8333	-5.29666	-18.771	-23.0974	6.31785	-81.0962	-99.3308	-16.4483	41.5379	-8.8688	0
0.8340	-2.5647	-16.6389	-17.6031	5.40694	-97.2909	-77.9706	-9.43319	44.5946	-4.89929	-0.315036
0.8347	-0.446035	-0.770618	2.84408	3.26756	-85.6837	-51.7247	-6.98853	26.8939	-1.23734	0
0.8353	0.167263	1.67609	12.3028	1.43739	-56.989	-28.5071	-14.3225	19.874	-1.54489	0
0.8360	-1.05933	-18.1609	2.23217	0.827337	-35.3141	-8.3987	-29.2562	25.0576	-6.12233	-0.315036
0.8367	-2.5647	-24.268	-0.206842	2.3483	-28.0173	6.86432	-34.1455	10.4135	-7.64576	-0.315036
0.8373	0.780561	-13.2803	3.15003	4.48768	-26.17	14.8189	-25.6158	-28.9626	-4.59175	0
0.8380	5.07364	-8.70156	1.31862	4.48768	-23.122	15.4245	-17.6706	-56.426	-1.54489	0
0.8387	3.84705	-9.00981	-2.95612	2.04745	-20.0739	14.2132	-14.3225	-48.488	-0.629398	0
0.8393	-1.05933	-8.70156	-11.1953	-0.392776	-19.1503	11.1444	-16.156	-46.6633	-3.67626	-0.315036
0.8400	-4.40459	-5.6512	-17.2972	1.43739	-11.2069	14.8189	-17.6706	-56.7282	-4.89929	-0.315036
0.8407	-4.40459	1.97792	-17.9091	4.79688	0.369459	22.4504	-14.9337	-49.104	-2.46038	-0.315036
0.8413	-2.23017	5.63835	-15.7717	6.017	-1.75493	19.099	-12.1701	-32.0077	0.28609	-0.315036
0.8420	-1.9514	0.147702	-4.78753	5.09773	-7.54312	6.25865	-11.559	-9.12346	-0.0143045	0
0.8427	-5.01789	-7.17959	12.9147	1.12819	-7.851	-5.65297	-14.6148	14.6789	-3.37586	-0.315036
0.8433	-5.63119	-7.17959	22.6794	-1.00283	-10.6219	-7.14697	-14.0036	24.1394	-3.06832	0
0.8440	-1.3381	-3.51273	22.0675	1.43739	-11.5148	-0.767189	-9.43319	26.2779	0.28609	0
0.8447	3.56828	-5.04112	24.5108	2.65751	-9.08253	3.23027	-7.5997	21.0944	0.28609	0
0.8453	7.52683	-8.09149	25.7303	1.73824	-7.26603	2.90724	-6.37737	1.2552	-0.629398	-0.315036
0.8460	9.36673	-11.7519	4.97714	-0.701983	-9.08253	0.48454	-6.69624	-15.5273	-2.46038	-1.26014
0.8467	8.4189	-19.381	-17.9091	-1.31204	-8.46677	0.48454	-6.69624	-9.12346	-2.46038	-1.26014
0.8473	5.68694	-19.381	-19.4345	0.827337	-5.72661	3.51292	-3.93271	2.17336	-0.0143045	-0.315036
0.8480	0.780561	-5.6512	-13.6343	2.04745	-4.1872	5.37032	-4.54387	12.8542	1.50913	0
0.8487	-3.79129	6.8585	-9.05796	1.12819	-3.87932	7.79303	-11.2667	31.1592	0.901184	0
0.8493	-5.90996	4.72646	-7.83846	-1.9221	-5.11085	12.0731	-19.7964	43.3626	-2.15283	0
0.8500	-3.79129	-0.462371	-5.39513	-2.53215	2.83252	20.916	-18.2818	51.9166	-2.15283	0
0.8507	0.501789	3.50631	9.55783	-1.00283	18.0727	28.5475	-10.0444	53.4391	1.50913	-0.315036
0.8513	5.68694	5.63835	18.409	-1.00283	25.7082	28.5475	-7.89199	21.6987	3.3401	-0.315036
0.8520	11.4854	1.97792	7.42046	-2.22295	26.324	28.5475	-10.3366	-35.6687	2.73216	-0.630072
0.8527	13.6041	1.67609	-5.39513	-5.27323	26.6318	36.4617	-10.9478	-77.7877	1.20158	-0.315036
