MR32 ASCII
Name	SORD15_fast
Frequency	1500
Date	11-09-2015 13:38:17
"Time,s"	"RT TIB.ANT.,uV"	"RT MED. GASTRO,uV"	"RT LAT. GASTRO,uV"	"RT BICEPS FEM.,uV"	"RT VMO,uV"	"RT VLO,uV"	"RT RECTUS FEM.,uV"	"RT SOLEUS,uV"	"RT SEMITEND.,uV"	"Channel 12,uV"
0.0000	10.0002	-35.7854	19.8959	4.97416	-25.1193	4.93217	-6.28847	35.577	-0.699751	-5653.51
0.0007	8.49412	-38.5245	74.529	1.62141	-20.8421	1.26119	-10.2574	28.5499	-3.44493	-10367.6
0.0013	9.09654	-42.5007	85.2029	-1.42904	-18.4015	-0.563033	-11.778	22.4464	-4.35999	-9887.95
0.0020	11.205	-41.8822	63.8283	-2.36341	-19.6218	0.0450426	-9.94815	31.2805	-3.44493	-9618.05
0.0027	15.4822	-42.7658	30.5698	-0.219853	-13.5202	3.40072	-5.36925	51.4381	-0.376789	-9914.84
0.0033	19.4582	-45.5049	3.11882	2.5283	-6.50033	6.4411	-0.180407	63.9663	2.96049	-9799.35
0.0040	15.4822	-51.9551	-9.0876	-0.52215	-13.2181	7.97255	-1.70957	48.9887	0.834319	-9805.37
0.0047	12.7713	-55.5778	-8.79185	-2.36341	-8.02271	12.5444	-3.84868	34.9747	-1.61481	-9816.76
0.0053	14.8798	-59.554	-10.6201	-1.42904	16.6979	14.0758	-3.84868	30.3971	-3.12197	-9817.07
0.0060	16.0846	-59.9074	-2.39289	1.62141	46.2997	16.2153	-3.53941	14.2147	-3.12197	-9796.82
0.0067	11.8074	-48.5974	10.4319	4.03979	74.6813	19.571	-3.84868	-2.5699	-0.699751	-9821.5
0.0073	5.12057	-39.143	-10.3244	0.384742	88.721	16.5306	-5.9792	-10.8016	-0.9958	-9902.5
0.0080	2.34944	-36.669	-45.4111	-3.27031	85.6642	13.783	-6.28847	-12.6487	-2.82592	-9547.5
0.0087	1.44581	-30.5722	-86.0095	-4.1772	70.4041	11.3282	-6.58914	-16.0217	-3.44493	-10143.3
0.0093	-0.963872	-12.2819	-124.457	-2.06112	51.181	11.3282	-3.53941	-6.22397	-1.91086	-9912.31
0.0100	-1.26508	6.62692	-135.749	2.8306	31.9579	13.783	2.86933	34.6535	1.45333	-4157.87
0.0107	-3.43379	7.24544	-155.887	0.384742	-4.66381	8.28784	0.730218	62.4405	-0.9958	108.527
0.0113	-4.93985	-1.23703	-170.245	-3.27031	-41.2856	1.26119	-1.70957	57.5416	-4.03703	72.773
0.0120	-2.22895	-8.57082	-135.454	-2.96801	-44.3424	-1.48641	-0.489676	50.5145	-3.74098	-197.12
0.0127	1.1446	-13.1655	-73.1847	-1.75882	-29.6985	-7.58968	-0.790354	53.8875	-3.44493	99.9837
0.0133	3.31331	-8.92426	19.6002	1.62141	-26.9437	-15.8325	2.56006	59.3887	-0.699751	-16.453
0.0140	2.65065	0.88359	143.493	1.31912	-39.7632	-23.76	2.25938	46.5392	-0.0807405	-10.1249
0.0147	-3.13258	12.4586	223.453	-3.27031	-49.2237	-23.1519	-0.489676	17.5476	-2.82592	1.58202
0.0153	-8.91582	16.6999	202.401	-5.11157	-50.7461	-14.301	1.34016	-10.1993	-2.82592	-0.632808
0.0160	-8.3134	6.36185	148.682	-4.80927	-38.2408	-6.37353	-2.62019	-31.2805	-1.61481	-0.316404
0.0167	0.240968	0.265077	133.41	-0.824447	-9.85924	4.93217	-6.58914	-48.6674	0.53827	0
0.0173	5.42178	-0.088359	101.684	-0.824447	-3.44348	8.28784	-8.11831	-61.1555	-0.376789	-0.632808
0.0180	4.51815	-2.20897	35.7589	-4.1772	-10.7775	1.86927	-11.4773	-58.1038	-2.52987	-0.316404
0.0187	5.12057	-1.85554	-20.0841	-4.80927	-9.55718	-1.48641	-12.0873	-50.7956	-2.52987	0
0.0193	5.72299	-2.82749	-51.5143	-3.8749	-6.80239	0.33782	-10.2574	-33.4087	-2.20691	-0.316404
0.0200	7.22904	-2.82749	-41.4588	0.687039	1.73987	5.54024	-4.45863	4.73825	1.13037	-0.316404
0.0207	5.72299	-3.446	-10.9428	0.687039	3.57639	4.61687	-1.4003	20.3182	1.74938	-0.316404
0.0213	1.1446	-4.9481	4.03296	-4.1772	-4.05969	0.653118	-3.23014	5.05948	-1.61481	0
0.0220	-1.92774	-1.23703	8.89939	-4.4795	-5.28001	0.653118	-2.92946	0.481856	-1.91086	0
0.0227	-3.735	1.14867	7.98525	-3.27031	-2.22316	1.26119	-2.92946	6.26412	-1.61481	0
0.0233	-1.62653	2.38569	7.07112	0.0824447	5.09877	5.83302	0.730218	9.31588	1.74938	-0.316404
0.0240	-1.62653	3.8878	7.98525	0.0824447	7.23736	7.97255	2.56006	6.86644	3.87555	-0.316404
0.0247	-5.84348	1.14867	6.15698	-4.1772	1.43781	4.93217	-2.01025	-1.36526	1.13037	0
0.0253	-6.20493	0.88359	9.22203	-5.11157	0.519543	5.22495	-3.84868	-5.34057	-1.29185	-0.316404
0.0260	-4.93985	3.8878	15.621	-5.11157	-0.398719	4.93217	-5.36925	-6.22397	-2.20691	0
0.0267	-2.83137	7.24544	22.3426	-2.36341	4.48257	7.04917	-5.06857	-1.36526	-0.9958	0
0.0273	1.1446	9.10098	32.7207	0.687039	9.98006	9.1887	-3.84868	2.61005	1.13037	-0.316404
0.0280	0.240968	7.86395	43.3946	-2.06112	4.18051	5.54024	-10.2574	-0.120464	-0.9958	-0.316404
0.0287	-5.54226	6.62692	54.9826	-4.1772	-1.00284	2.79264	-16.0476	0.762938	-4.03703	-0.316404
0.0293	-10.7833	5.47826	64.1509	-3.8749	-1.31698	2.18457	-16.9668	-0.120464	-5.5711	-0.316404
0.0300	-8.91582	6.00841	70.2541	0.0824447	4.79671	5.22495	-12.3879	0.160619	-3.74098	0
0.0307	-7.10856	8.48246	56.5152	1.92371	8.45768	6.4411	-8.41898	4.45716	-2.52987	0
0.0313	-13.193	10.6031	8.30789	-1.42904	0.519543	0.945895	-13.3071	2.93129	-6.48616	-0.316404
0.0320	-17.169	13.3422	-40.5447	-2.06112	-2.5373	-1.77918	-16.0476	-0.762938	-8.02023	-0.316404
0.0327	-18.3738	11.2216	-56.9991	-1.42904	-1.61904	-2.09448	-15.4377	-5.94289	-6.80912	-0.316404
0.0333	-18.3738	10.6031	-55.4935	2.22601	3.87845	-0.270256	-12.0873	-5.62165	-4.65604	-0.949213
0.0340	-15.3617	14.9327	-65.8716	6.78795	10.5842	2.47734	-5.06857	-2.28881	-1.91086	-0.949213
0.0347	-14.0966	16.6999	-87.8378	2.8306	6.62115	-0.878331	-2.62019	-6.86644	-2.82592	0
0.0353	-14.6991	17.6718	-93.3226	-2.36341	0.519543	-3.91871	-1.4003	-8.39232	-4.03703	0
0.0360	-12.5906	18.5554	-62.1882	-2.96801	-0.0966592	-2.40978	3.78854	-7.74985	-3.44493	-0.632808
0.0367	-5.84348	19.7924	-8.4961	0.0824447	6.01703	3.08542	12.9377	-6.86644	-0.376789	-0.949213
0.0373	-2.83137	22.5315	14.4111	0.384742	9.678	5.54024	17.5166	-1.04402	2.66444	-0.316404
0.0380	-5.24106	21.2945	-5.1353	-3.27031	6.31909	2.79264	15.0769	2.28881	2.04543	0
0.0387	-7.10856	17.3184	-21.9124	-5.11157	4.48257	1.86927	13.5477	0.481856	1.13037	0
0.0393	-8.61461	13.6956	-20.9983	-5.71617	4.48257	2.47734	13.5477	-5.62165	0.834319	0
0.0400	-6.50614	13.0771	-11.8569	-2.96801	10.5842	6.4411	15.6868	-7.74985	3.28345	0
0.0407	-6.80735	13.6956	0.0537728	-1.75882	16.0817	8.89592	13.857	-4.09577	6.02863	0
0.0413	-12.2894	11.8401	8.60364	-6.01846	11.5024	5.54024	6.22833	-5.34057	5.11357	0
0.0420	-14.6991	11.575	15.9167	-7.85973	7.53942	3.6935	1.64943	-7.74985	3.5795	-0.316404
0.0427	-13.4942	13.6956	22.3426	-6.32076	7.23736	3.6935	-1.09962	-5.94289	3.5795	-0.316404
0.0433	-9.51824	15.1977	24.7892	-4.4795	9.36386	3.08542	-2.01025	-3.17222	5.11357	-0.316404
0.0440	-3.735	15.5512	22.3426	-3.5726	8.45768	1.26119	-4.7593	-1.96758	2.96049	-0.316404
0.0447	-0.662662	15.1977	18.6591	-3.8749	3.87845	-0.878331	-11.168	-3.81469	-1.61481	0
0.0453	-1.62653	14.9327	15.9167	-3.8749	1.13575	-2.70256	-15.7469	-6.54521	-3.74098	-0.316404
0.0460	-3.735	15.5512	3.41457	-2.96801	0.217483	-4.23401	-20.6265	-6.54521	-4.03703	-0.316404
0.0467	-1.26508	16.0813	-22.5308	0.687039	2.35607	-3.01786	-23.9855	-2.89113	-4.35999	0
0.0473	-0.662662	16.4348	-49.0676	3.73749	2.96019	-3.01786	-23.6848	-1.04402	-6.19011	0
0.0480	-4.93985	16.4348	-67.0815	2.8306	-1.61904	-6.66631	-23.0749	-2.89113	-8.93529	-0.316404
0.0487	-4.93985	16.0813	-73.8031	3.4352	-2.5373	-8.19776	-25.8154	-4.09577	-10.4694	-0.632808
0.0493	-2.53016	16.0813	-68.614	5.27646	-1.00284	-7.27438	-37.4129	-3.17222	-10.4694	0
0.0500	-0.361452	17.3184	-57.3218	7.42002	1.13575	-5.45016	-49.9297	-1.64634	-9.23134	0.316404
0.0507	1.1446	18.8205	-28.9297	8.32691	2.04193	-5.45016	-52.0603	-1.64634	-8.02023	0
0.0513	-0.963872	19.1739	22.9341	6.48565	-0.398719	-6.98161	-47.1807	-2.5699	-6.80912	0
0.0520	-3.43379	17.0533	60.1717	4.97416	-2.22316	-7.88246	-51.4503	-2.89113	-4.65604	0.316404
0.0527	-4.33742	14.5792	45.2229	3.1329	-2.83936	-6.98161	-63.9671	-3.49345	-2.20691	0
0.0533	-3.735	17.0533	4.32871	2.5283	3.87845	-1.17111	-56.9484	-0.441701	3.28345	-0.316404
0.0540	-0.963872	20.4109	-13.3625	2.8306	10.8983	4.61687	-34.3632	2.93129	9.3659	0
0.0547	-1.92774	20.4109	-10.0017	0.384742	6.62115	2.18457	-23.9855	2.93129	9.98491	0.316404
0.0553	-3.43379	20.676	-4.51691	-0.824447	-0.398719	-2.70256	-22.1557	3.21237	7.85875	0
0.0560	-2.53016	21.648	-1.7745	1.62141	-2.5373	-5.45016	-35.2738	3.53361	6.02863	-0.316404
0.0567	1.1446	24.3871	1.5863	6.18335	2.35607	-3.91871	-73.4256	8.11124	6.94369	-0.316404
0.0573	2.34944	25.8892	4.62446	7.72232	2.35607	-2.70256	-100.581	10.5607	6.02863	0
0.0580	-0.060242	25.2707	7.39375	7.42002	-0.0966592	-1.17111	-77.6952	9.31588	4.19851	0
0.0587	-3.43379	24.0336	7.98525	8.02462	0.519543	0.0450426	-36.5023	10.8418	4.19851	0
0.0593	-9.21703	20.0575	2.50043	4.67187	-7.41859	-5.15738	-27.0352	7.18768	0.53827	0
0.0600	-10.1207	21.913	6.77537	7.11773	-1.9211	-2.09448	-20.9358	10.2394	2.96049	0
0.0607	-10.1207	28.6283	17.1535	10.7728	7.84148	4.00879	-6.58914	17.5476	9.06985	0
0.0613	-16.8678	26.7728	14.4111	3.1329	-3.44348	-2.40978	4.39849	13.2912	6.02863	0
0.0620	-15.6629	24.6522	9.81353	0.0824447	-8.02271	-3.62593	34.6037	14.2147	4.19851	0
0.0627	-12.2894	25.2707	8.89939	0.989336	-6.50033	-1.48641	48.6497	19.3947	4.79061	0
0.0633	-13.193	23.7686	7.07112	1.62141	-9.24303	-3.91871	28.805	16.3429	2.04543	-0.316404
0.0640	-8.61461	25.0056	9.81353	8.32691	-4.97795	-1.48641	46.5106	16.9453	2.04543	-0.949213
0.0647	-6.50614	25.0056	8.60364	7.42002	-9.85924	-2.09448	96.2513	14.8171	0.53827	-0.632808
0.0653	-6.50614	24.0336	6.45273	4.03979	-12.2999	-0.270256	135.314	11.7653	1.74938	0
0.0660	-3.13258	26.5077	9.22203	6.78795	-2.83936	6.14832	162.169	15.4194	7.85875	0
0.0667	-5.54226	25.0056	8.30789	5.57876	-5.28001	4.00879	162.778	13.6124	8.77381	-0.316404
0.0673	-7.10856	24.6522	7.07112	4.97416	-5.58207	4.93217	137.753	12.3676	9.98491	0
0.0680	-6.20493	25.2707	6.77537	2.22601	-5.88413	8.89592	99.911	12.0865	12.7301	0
0.0687	-10.4219	22.7966	4.32871	-5.11157	-11.9978	7.97255	60.548	8.11124	12.434	-0.316404
0.0693	-11.687	24.0336	6.45273	-5.41387	-5.58207	12.2516	34.6037	9.63711	14.5602	-0.316404
0.0700	-7.71098	26.5077	9.81353	-3.5726	3.26225	18.9629	9.27806	13.8935	19.1355	0
0.0707	-6.80735	25.2707	7.6895	-6.92535	-0.700779	18.6476	-36.803	12.6889	19.1355	-0.316404
0.0713	-8.01219	23.7686	4.03296	-9.67351	-6.80239	15.292	-77.0853	9.63711	16.0943	0
0.0720	-7.40977	23.4151	3.11882	-8.16203	-6.50033	14.9992	-80.135	9.9182	13.9681	0
0.0727	-9.81945	21.2945	2.79618	-7.22765	-8.02271	15.6073	-64.2678	9.31588	10.9	-0.316404
0.0733	-12.8918	19.7924	3.11882	-6.92535	-11.0796	14.6839	-49.6205	7.79	8.45084	0
0.0740	-11.9882	19.7924	2.20468	-5.71617	-9.85924	10.7201	-45.6515	8.11124	8.45084	0.316404
0.0747	-12.2894	19.1739	0.349523	-6.62306	-10.1613	4.93217	-58.7783	7.18768	7.23974	-0.316404
0.0753	-13.7954	19.7924	0.0537728	-7.22765	-11.3816	0.945895	-90.8219	7.50892	6.02863	0
0.0760	-14.6991	21.2945	1.5863	-5.71617	-9.24303	-2.09448	-119.807	10.8418	5.70567	0
0.0767	-17.169	22.5315	4.03296	-2.96801	-7.10445	-2.70256	-135.374	15.7406	5.40962	-0.316404
0.0773	-18.9762	24.3871	6.77537	0.0824447	-3.44348	0.33782	-140.262	20.5993	6.94369	-0.316404
0.0780	-19.5787	25.2707	7.39375	1.92371	-1.61904	1.57649	-124.086	21.8441	7.85875	0
0.0787	-22.3498	25.2707	5.53859	1.92371	-5.88413	-1.77918	-110.959	20.3182	5.40962	-0.316404
0.0793	-26.0245	24.0336	2.79618	2.22601	-8.63891	-6.98161	-97.2307	19.0735	2.96049	-0.316404
0.0800	-28.133	21.2945	1.5863	0.687039	-10.1613	-12.7696	-41.0726	17.8688	2.04543	-0.316404
0.0807	-24.8197	21.648	4.32871	2.5283	-6.50033	-11.8687	25.4545	20.3182	4.19851	-0.316404
0.0813	-20.2413	22.1781	5.24284	4.97416	-4.05969	-9.12113	52.6101	21.5229	5.40962	0
0.0820	-18.3738	20.4109	3.11882	4.36957	-6.19827	-9.12113	58.7181	18.7924	4.79061	0
0.0827	-12.2894	20.4109	2.50043	6.48565	-3.44348	-6.37353	66.9567	19.3947	6.02863	0
0.0833	-6.50614	17.6718	-1.7745	4.97416	-8.02271	-6.66631	73.3654	14.8171	4.19851	0.316404
0.0840	-5.84348	14.9327	-3.89852	3.73749	-9.85924	-5.76546	86.7929	10.8418	2.36839	0
0.0847	-10.1207	15.1977	-1.15611	7.42002	-4.66381	-1.17111	125.546	13.2912	4.49456	-0.316404
0.0853	-18.675	11.8401	-3.30702	4.97416	-10.4634	-0.878331	182.314	9.63711	2.96049	-0.316404
0.0860	-19.5787	12.1935	-2.39289	4.97416	-7.41859	4.61687	227.476	10.2394	5.70567	0
0.0867	-21.1449	15.8163	0.96791	5.27646	-1.31698	7.97255	238.463	14.4958	8.77381	0
0.0873	-31.2054	14.5792	1.29055	-0.52215	-4.97795	3.6935	207.03	11.163	6.62073	0
0.0880	-32.7114	14.3142	5.86123	-0.219853	0.519543	5.83302	147.521	11.4441	8.77381	0.316404
0.0887	-32.109	13.3422	6.45273	-0.219853	0.519543	6.14832	98.6911	11.7653	9.68887	0
0.0893	-35.1813	9.36605	1.88205	-4.80927	-3.44348	5.54024	78.245	10.2394	8.45084	0
0.0900	-28.133	7.24544	0.96791	-3.5726	5.40083	12.5444	78.245	13.6124	12.1111	-0.316404
0.0907	-18.3738	3.26928	-3.60277	-2.06112	5.09877	13.1524	83.4339	10.8418	12.434	-0.949213
0.0913	-14.6991	0.265077	-7.87771	-3.5726	-0.398719	8.89592	72.7555	4.73825	10.281	-0.316404
0.0920	-12.8918	3.00421	-3.30702	-3.27031	4.18051	9.79677	48.3404	7.18768	12.434	0
0.0927	-17.4702	3.26928	-1.7745	-6.32076	0.217483	5.54024	24.2346	7.18768	11.196	-0.316404
0.0933	-17.7714	1.76718	-3.60277	-8.16203	-3.44348	2.79264	3.78854	5.98304	8.1548	-0.316404
0.0940	-8.3134	5.12482	0.96791	-2.66571	5.70289	7.97255	-12.9979	12.3676	10.281	-0.316404
0.0947	-8.91582	7.59887	5.53859	-0.52215	6.01703	7.36447	-33.1433	15.1383	9.68887	-0.316404
0.0953	-17.7714	6.98036	4.32871	-4.4795	-4.05969	-0.270256	-50.5397	12.6889	3.87555	0
0.0960	-18.675	7.86395	5.24284	-4.4795	-6.19827	-4.23401	-44.7409	16.6642	1.45333	-0.632808
0.0967	-9.21703	8.48246	6.45273	-2.06112	-3.75763	-6.37353	-8.72825	20.3182	1.45333	-0.949213
0.0973	3.31331	5.47826	3.41457	-3.27031	-5.88413	-8.80583	36.1329	16.3429	-0.0807405	-0.632808
0.0980	9.09654	-0.706872	-2.68864	-3.8749	-7.41859	-9.12113	62.9878	6.86644	-1.61481	0
0.0987	8.19291	-6.18513	-8.4961	-2.66571	-5.58207	-7.88246	81.604	-1.64634	-1.91086	0
0.0993	4.21694	-9.54277	-13.3625	-2.66571	-7.41859	-9.41391	96.5606	-5.01933	-3.44493	0
0.1000	11.5062	-11.0449	-16.4276	-2.06112	-7.10445	-10.3373	114.868	-5.34057	-4.03703	0
0.1007	25.8438	-11.0449	-17.046	-1.12674	-2.5373	-7.88246	150.27	-2.5699	-1.91086	0
0.1013	18.5545	-10.1613	-17.046	-2.06112	-3.44348	-7.88246	169.797	2.61005	-2.20691	-0.316404
0.1020	11.205	-8.30575	-14.8951	-1.42904	-2.22316	-5.76546	146.001	8.11124	-2.52987	0
0.1027	25.8438	-6.45021	-12.1526	-0.52215	1.73987	-0.878331	99.0004	10.5607	-1.91086	0.316404
0.1033	29.5186	-4.59467	-9.0876	-2.06112	0.217483	-1.17111	61.7679	10.5607	-3.44493	0
0.1040	26.8077	-2.20897	-3.60277	-1.75882	0.821603	-1.77918	37.9627	12.9699	-4.03703	0
0.1047	36.5669	-2.82749	-1.15611	-1.42904	0.519543	-0.878331	-0.790354	12.6889	-5.27505	-0.316404
0.1053	41.1453	-4.9481	-0.860364	-2.06112	-1.61904	-1.17111	-50.8404	9.31588	-7.10517	-0.316404
0.1060	32.2897	-5.56662	0.96791	0.384742	2.35607	0.0450426	-95.7015	9.03479	-5.5711	-0.316404
0.1067	18.8557	-8.30575	-0.860364	1.31912	1.73987	-0.563033	-132.324	5.98304	-6.19011	0
0.1073	-0.361452	-10.1613	-3.30702	1.31912	-2.22316	-3.31063	-150.631	2.61005	-8.02023	-0.316404
0.1080	-33.9765	-9.18933	-2.07025	0.687039	-4.66381	-6.66631	-153.99	1.68649	-9.23134	-0.316404
0.1087	-56.8082	-9.18933	-0.241977	-2.36341	-7.41859	-9.72921	-141.482	-1.04402	-10.4694	-0.316404
0.1093	-46.7478	-7.68723	3.71032	-0.52215	-1.9211	-7.27438	-110.959	1.40541	-8.02023	0
0.1100	-32.4102	-5.83169	4.94709	1.62141	-2.22316	-7.27438	-84.4132	5.6618	-8.02023	-0.316404
0.1107	-26.627	-5.56662	4.62446	2.22601	-4.97795	-9.41391	-54.1994	9.9182	-10.4694	-0.316404
0.1113	-9.51824	-4.9481	6.15698	6.78795	0.217483	-7.58968	-3.53941	14.8171	-8.02023	-0.316404
0.1120	6.0242	-9.80785	0.96791	4.36957	-7.41859	-12.7696	39.4919	8.71356	-11.3844	-0.316404
0.1127	6.62662	-13.1655	-1.47875	3.73749	-9.85924	-13.693	71.2263	3.21237	-14.7217	-0.316404
0.1133	11.8074	-11.31	3.41457	11.982	2.35607	-6.66631	96.2513	7.18768	-11.3844	-0.316404
0.1140	22.2293	-13.1655	1.5863	11.3774	-2.22316	-9.41391	94.4215	2.00773	-13.5106	-0.316404
0.1147	21.5666	-15.6395	-2.39289	8.32691	-7.41859	-12.1615	79.4649	-5.34057	-16.2558	-0.316404
0.1153	7.53025	-14.1374	0.672159	13.2186	1.73987	-6.37353	75.1953	-3.49345	-12.8916	-0.316404
0.1160	-14.3978	-15.2861	-0.564614	10.4705	-2.83936	-7.88246	60.8486	-6.86644	-13.2145	0
0.1167	-22.3498	-15.2861	-1.47875	7.72232	-4.97795	-7.27438	35.8322	-9.59696	-12.5955	0
0.1173	-13.7954	-11.6634	2.79618	12.2843	6.62115	1.26119	19.9564	-2.89113	-7.72418	0
0.1180	-12.2894	-12.547	1.5863	8.32691	4.48257	2.47734	-12.9979	-2.5699	-8.93529	0
0.1187	-20.8437	-13.784	0.96791	3.4352	1.73987	3.6935	-62.4379	-4.41701	-9.23134	0
0.1193	-30.0005	-11.31	6.77537	6.18335	8.45768	8.58062	-81.9734	-2.5699	-4.65604	0
0.1200	-28.7354	-13.5189	6.45273	4.03979	5.40083	6.75639	-80.4443	-9.59696	-5.27505	-0.316404
0.1207	-20.5425	-15.6395	4.62446	2.8306	6.92321	6.75639	-74.9547	-14.4958	-5.27505	-0.316404
0.1213	-31.2054	-14.4025	4.94709	3.4352	9.36386	7.04917	-68.546	-11.7252	-4.35999	0
0.1220	-45.8442	-14.4025	0.0537728	-0.219853	0.217483	0.33782	-73.1163	-11.7252	-8.93529	0
0.1227	-27.8318	-15.6395	-5.1353	-0.824447	-2.83936	-1.48641	-77.0853	-8.6734	-11.0615	-0.316404
0.1233	-8.61461	-15.6395	-8.17346	0.384742	-1.00284	0.33782	-65.7969	-4.69809	-9.5543	-0.632808
0.1240	-7.40977	-14.1374	-7.87771	2.22601	3.57639	3.40072	-25.5147	-0.120464	-5.89406	-0.632808
0.1247	-4.33742	-11.9285	-6.34519	1.31912	5.70289	4.00879	21.1763	6.26412	-3.74098	-0.632808
0.1253	-1.62653	-12.2819	-6.96357	-1.42904	0.821603	1.26119	37.3528	7.18768	-6.80912	-0.316404
0.1260	7.83146	-11.6634	-5.75368	0.384742	0.519543	1.86927	40.7118	6.26412	-9.23134	0
0.1267	15.181	-9.18933	-2.98439	1.62141	0.519543	1.57649	62.3778	7.50892	-9.5543	0
0.1273	1.44581	-4.59467	0.96791	1.31912	-0.0966592	0.653118	90.7618	11.7653	-10.1464	0
0.1280	-9.81945	1.14867	6.45273	3.73749	2.65813	2.18457	78.5543	16.9453	-9.85035	-0.316404
0.1287	-5.24106	3.8878	8.60364	1.92371	-1.9211	0.33782	28.5043	16.9453	-11.6805	-0.316404
0.1293	-7.10856	5.12482	10.1362	-0.52215	-7.10445	-0.878331	-9.02893	16.0217	-12.8916	0
0.1300	-25.1209	5.12482	10.4319	-0.824447	-6.50033	1.26119	-24.2948	15.7406	-11.3844	0
0.1307	-40.9646	1.14867	6.45273	-2.96801	-8.63891	0.33782	-29.7843	10.8418	-9.5543	-0.316404
0.1313	-32.109	-2.47405	3.71032	-4.4795	-10.4634	-0.270256	-26.4253	5.34057	-7.72418	0
0.1320	6.32541	-3.446	3.41457	-4.1772	-8.32477	1.26119	-19.1059	2.28881	-6.80912	-0.316404
0.1327	61.2661	-1.59046	4.62446	-2.96801	-6.19827	0.945895	-14.527	-0.762938	-8.02023	-0.316404
0.1333	100.303	2.12062	7.07112	-0.52215	-2.22316	2.79264	-9.94815	-5.01933	-8.93529	-0.316404
0.1340	56.3865	6.36185	10.4319	1.92371	1.43781	5.54024	-1.4003	-5.34057	-8.31628	-0.316404
0.1347	-39.4585	9.98457	12.2602	3.1329	-0.700779	4.93217	5.00844	-1.04402	-9.5543	0
0.1353	-40.3621	14.5792	15.3252	5.27646	1.73987	5.22495	11.1079	5.6618	-9.23134	0
0.1360	54.5793	18.5554	18.3634	7.72232	5.70289	6.14832	12.3278	11.4441	-8.31628	-0.316404
0.1367	130.544	16.4348	14.7068	5.57876	-0.700779	1.57649	6.52901	7.18768	-11.6805	-0.316404
0.1373	156.81	12.1935	10.1362	5.88106	-2.22316	-0.563033	10.498	-0.120464	-11.6805	-0.316404
0.1380	170.846	9.71949	7.07112	6.78795	0.519543	0.653118	18.4359	-3.81469	-8.63924	0
0.1387	187.292	7.24544	2.79618	4.36957	-1.31698	1.57649	12.0271	-8.07108	-7.40122	-0.316404
0.1393	194.341	6.98036	0.349523	4.03979	1.43781	5.54024	-5.06857	-9.27572	-4.979	-0.316404
0.1400	180.606	6.36185	-1.7745	4.36957	4.48257	7.04917	-14.2178	-6.86644	-3.12197	-0.316404
0.1407	133.918	4.50631	-4.51691	4.03979	4.48257	6.75639	-12.6972	-1.04402	-2.52987	-0.316404
0.1413	77.7724	4.50631	-5.75368	2.5283	1.43781	4.32409	-19.4066	3.81469	-3.74098	0
0.1420	-25.4221	6.36185	-3.89852	0.384742	-2.22316	0.33782	-35.2738	3.21237	-7.40122	0
0.1427	-192.052	11.575	4.94709	4.67187	5.40083	5.22495	-37.1123	5.6618	-6.48616	0
0.1433	-270.125	16.4348	11.0503	7.42002	10.2821	9.50399	-27.3445	9.03479	-4.979	0
0.1440	-196.931	18.5554	12.2602	4.03979	6.01703	6.4411	-33.444	6.26412	-9.85035	-0.316404
0.1447	-55.9046	23.1501	19.8959	7.42002	10.5842	8.89592	-34.0539	8.39232	-10.7654	-0.316404
0.1453	70.4229	26.5077	26.2949	9.23381	9.0618	9.50399	-15.7469	9.03479	-12.2995	-0.316404
0.1460	125.665	25.0056	27.209	4.97416	-0.398719	4.00879	-15.4377	2.00773	-17.4669	-0.316404
0.1467	102.472	24.3871	30.2741	8.32691	6.62115	7.36447	-35.2738	-1.64634	-14.7217	-0.316404
0.1473	28.9162	20.676	28.1232	11.6797	14.5593	11.0354	-50.2304	-7.74985	-10.7654	-0.316404
0.1480	-62.0493	11.575	17.4493	6.48565	5.09877	7.36447	-57.5584	-21.4827	-13.5106	-0.316404
0.1487	-125.484	6.62692	11.3461	4.03979	-0.0966592	5.22495	-54.1994	-29.7546	-14.1296	0
0.1493	-152.653	6.62692	9.22203	3.4352	-1.9211	3.08542	-44.7409	-30.638	-12.8916	0
0.1500	-153.557	5.74333	5.53859	1.31912	-5.28001	0.0450426	-39.8527	-33.6897	-12.2995	-0.316404
0.1507	-120.303	4.50631	6.15698	3.73749	0.217483	3.40072	-36.803	-37.384	-8.02023	0
0.1513	-91.9293	4.85974	6.15698	5.27646	1.13575	4.93217	-35.8838	-37.0627	-5.89406	0
0.1520	-88.5558	6.36185	3.71032	2.5283	-4.66381	1.57649	-31.9234	-33.4087	-8.31628	-0.316404
0.1527	-75.423	9.36605	4.94709	4.36957	-0.0966592	2.79264	-12.9979	-25.7793	-5.89406	-0.316404
0.1533	-75.7845	8.48246	3.71032	5.88106	1.43781	2.79264	7.13896	-22.1252	-3.74098	-0.316404
0.1540	-137.412	5.74333	-1.15611	5.27646	-1.00284	2.18457	21.4856	-20.8804	-4.65604	-0.949213
0.1547	-214.281	6.62692	-2.07025	8.32691	5.70289	6.4411	35.2137	-12.6487	-1.91086	-0.632808
0.1553	-247.293	5.47826	-6.96357	4.67187	0.217483	1.57649	39.7926	-10.8016	-1.91086	0
0.1560	-236.872	2.38569	-12.771	-1.42904	-8.94097	-5.15738	38.5727	-13.8534	-5.27505	0
0.1567	-195.967	5.12482	-8.79185	1.31912	-1.9211	-1.17111	37.3528	-6.54521	-3.12197	-0.316404
0.1573	-159.702	9.98457	-5.1353	3.4352	0.519543	0.0450426	29.1142	2.00773	-2.52987	-0.316404
0.1580	-161.208	13.6956	-2.68864	3.73749	-3.44348	-3.01786	19.9564	6.58536	-4.03703	0.316404
0.1587	-186.208	18.2903	4.62446	6.48565	-1.31698	-1.48641	18.4359	14.2147	-3.44493	0.316404
0.1593	-198.738	23.7686	13.1743	5.88106	-3.14142	-2.09448	14.4669	20.3182	-5.5711	0
0.1600	-181.328	30.1304	22.0199	3.73749	-6.19827	-5.15738	5.30911	22.1252	-10.1464	0
0.1607	-184.1	36.8457	31.1882	4.36957	-4.66381	-6.05823	-1.09962	21.8441	-12.8916	0
0.1613	-185.606	44.1795	39.7381	8.32691	1.13575	-3.91871	-2.92946	25.177	-12.2995	0
0.1620	-118.195	50.0112	45.5186	11.6797	5.70289	-2.09448	-5.36925	30.9994	-10.7654	0
0.1627	-55.9046	50.0112	44.013	8.93151	1.43781	-5.45016	-9.02893	30.6781	-12.5955	-0.316404
0.1633	-26.9282	43.561	36.9957	6.18335	-4.05969	-8.51306	-5.9792	24.5746	-15.0447	-0.316404
0.1640	31.0849	32.6045	25.7034	6.48565	-6.80239	-9.12113	1.03949	15.7406	-15.3407	0
0.1647	135.123	19.1739	12.2602	5.57876	-9.85924	-11.2607	1.64943	1.68649	-15.3407	-0.316404
0.1653	273.679	6.36185	1.29055	5.88106	-9.24303	-10.6301	-1.09962	-12.9699	-15.0447	-0.316404
0.1660	374.404	-4.06451	-7.87771	6.48565	-7.10445	-8.80583	-4.14936	-25.177	-13.5106	0
0.1667	381.995	-8.92426	-13.9809	4.67187	-8.94097	-9.72921	-5.9792	-32.8063	-13.8066	0
0.1673	336.813	-3.71108	-10.3244	4.67187	-6.80239	-8.19776	-4.14936	-27.5862	-14.1296	-0.316404
0.1680	275.186	4.85974	-2.98439	3.73749	-6.19827	-6.66631	-10.2574	-18.7522	-12.5955	0
0.1687	212.956	7.59887	-0.860364	0.384742	-10.1613	-7.27438	-23.3756	-20.8804	-10.7654	0
0.1693	163.497	7.86395	1.29055	0.989336	-6.19827	-3.62593	-22.4564	-22.4063	-7.10517	0
0.1700	127.472	6.98036	2.79618	1.31912	-4.05969	-1.48641	-18.1867	-21.804	-5.5711	0
0.1707	108.556	3.8878	-0.241977	-1.42904	-7.41859	-3.01786	-23.6848	-25.7793	-7.40122	0
0.1713	96.9896	1.5021	-2.68864	-1.75882	-7.10445	-3.01786	-27.0352	-28.831	-7.40122	0
0.1720	71.0253	0.265077	-4.51691	-1.75882	-9.24303	-4.52678	-29.1744	-29.7546	-8.02023	0
0.1727	34.6994	-0.088359	-6.96357	-0.824447	-9.55718	-4.23401	-29.1744	-25.7793	-8.02023	0
0.1733	-6.20493	1.5021	-7.87771	1.92371	-4.05969	-1.48641	-20.3258	-17.8287	-5.5711	0
0.1740	-48.3141	0.88359	-10.9428	0.687039	-6.50033	-3.62593	-16.0476	-15.7005	-6.19011	-0.316404
0.1747	-66.2662	-0.971949	-13.9809	-2.06112	-11.0796	-7.27438	-25.8154	-18.7522	-7.72418	0
0.1753	-46.1454	-0.353436	-13.0668	-2.36341	-9.24303	-7.88246	-33.7533	-18.1499	-6.80912	0
0.1760	-15.0003	2.12062	-11.8569	-1.42904	-5.58207	-6.37353	-36.193	-12.3275	-5.27505	0
0.1767	16.3858	6.36185	-7.58196	0.989336	-0.0966592	-2.70256	-49.3198	-4.41701	-2.82592	-0.316404
0.1773	50.9045	11.575	-2.07025	1.62141	1.73987	-2.09448	-69.7659	0.762938	-1.91086	0
0.1780	52.1093	14.3142	0.349523	-1.12674	-2.83936	-6.37353	-87.1537	2.93129	-4.35999	0
0.1787	62.7722	17.9369	3.71032	-2.06112	-3.14142	-7.27438	-94.1724	7.79	-4.979	-0.316404
0.1793	147.653	22.5315	8.89939	-0.52215	1.43781	-5.76546	-88.9921	13.8935	-3.12197	-0.316404
0.1800	204.1	25.5357	14.0885	2.5283	8.75974	-3.31063	-78.9151	17.5476	-0.699751	0
0.1807	143.376	28.0098	19.2775	5.88106	16.3837	-0.270256	-59.0789	19.3947	1.13037	0
0.1813	73.4953	28.8934	20.5143	2.22601	15.4776	-2.09448	-33.444	17.2665	1.74938	0
0.1820	115.002	28.0098	18.9818	-4.1772	12.4207	-2.70256	-13.3071	14.2147	2.66444	0.316404
0.1827	168.376	24.0336	15.9167	-5.71617	15.1634	0.653118	8.9688	11.4441	4.49456	0
0.1833	94.8209	16.6999	9.51778	-4.4795	15.1634	0.33782	34.3031	7.18768	3.87555	-0.949213
0.1840	-57.4709	11.575	5.53859	0.0824447	16.0817	1.86927	59.938	4.73825	4.19851	-0.949213
0.1847	-208.196	10.9565	6.45273	3.1329	17.6041	3.40072	78.5543	3.53361	5.11357	-0.316404
0.1853	-239.342	9.10098	5.24284	-0.219853	10.2821	-1.77918	75.8052	-2.28881	0.834319	0.316404
0.1860	-99.58	3.26928	2.20468	-2.06112	6.62115	-4.52678	73.0562	-12.3275	-1.61481	0
0.1867	20.9642	-3.09256	-1.47875	0.0824447	9.98006	-3.01786	80.3841	-19.6758	0.834319	-0.316404
0.1873	22.5305	-5.21318	-2.39289	2.5283	12.1186	-2.70256	73.9754	-19.3545	1.74938	0
0.1880	-8.91582	-2.82749	1.5863	4.36957	14.2572	-0.878331	50.1703	-16.0217	2.36839	0
0.1887	-33.0126	-3.446	4.03296	2.22601	11.5024	-0.878331	26.6744	-23.0086	1.45333	-0.316404
0.1893	-30.0005	-7.95231	3.41457	-2.06112	5.40083	-3.62593	14.4669	-33.0874	-0.0807405	-0.316404
0.1900	9.69896	-10.7798	2.50043	-3.8749	2.35607	-4.84208	13.247	-32.1639	0.215308	-0.316404
0.1907	41.4465	-10.7798	1.88205	-3.8749	2.04193	-4.84208	15.3775	-24.8557	0.215308	-0.316404
0.1913	49.037	-10.7798	2.79618	-0.52215	7.23736	-0.563033	18.7365	-18.431	2.36839	-0.316404
0.1920	45.4225	-13.5189	1.88205	2.8306	10.5842	2.79264	20.5664	-18.1499	5.70567	-0.316404
0.1927	30.4222	-17.4951	-2.98439	0.0824447	4.48257	-1.77918	19.9564	-23.6511	3.5795	-0.316404
0.1933	-8.91582	-18.9972	-5.75368	-1.12674	-0.0966592	-5.76546	28.805	-23.6511	0.53827	0
0.1940	-40.0609	-20.2342	-6.34519	0.0824447	-1.00284	-6.66631	45.9006	-18.7522	-0.0807405	0.316404
0.1947	-27.8318	-20.2342	-5.75368	0.384742	-2.22316	-7.27438	50.4795	-16.3028	0.53827	-0.316404
0.1953	18.5545	-15.2861	-0.860364	4.03979	3.87845	-3.01786	45.5914	-10.1993	3.28345	0
0.1960	72.2302	-10.4264	4.03296	6.78795	9.0618	0.653118	39.7926	-3.17222	4.79061	0
0.1967	100.664	-11.6634	1.5863	3.4352	4.48257	-2.40978	28.5043	-5.34057	2.66444	0
0.1973	112.532	-13.784	-1.47875	0.687039	0.519543	-5.15738	18.7365	-8.07108	2.36839	-0.316404
0.1980	134.52	-14.1374	-0.564614	0.989336	1.13575	-4.23401	14.4669	-7.14753	3.87555	-0.316404
0.1987	150.063	-12.9004	2.50043	1.62141	5.40083	-1.17111	14.1576	-4.41701	7.23974	0
0.1993	150.665	-11.6634	4.32871	1.31912	6.62115	0.945895	14.1576	-0.120464	10.6039	0
0.2000	135.123	-12.2819	1.88205	-1.12674	0.821603	-1.77918	9.88801	2.28881	9.3659	0
0.2007	98.1945	-12.9004	-0.241977	-1.75882	-1.61904	-3.31063	5.30911	3.81469	7.23974	0
0.2013	61.2661	-13.5189	-0.564614	-0.824447	-4.05969	-4.84208	0.730218	3.21237	5.70567	0
0.2020	25.8438	-14.6676	-0.564614	0.687039	-7.41859	-6.37353	-3.84868	0.481856	4.79061	0
0.2027	-0.060242	-12.9004	2.50043	5.27646	-1.61904	-3.01786	-2.01025	2.93129	6.62073	0
0.2033	-2.22895	-11.9285	4.62446	6.48565	-0.0966592	-2.40978	-2.01025	4.73825	5.70567	0
0.2040	-10.4219	-12.547	3.11882	4.67187	-5.88413	-6.37353	-8.11831	2.93129	1.13037	0
0.2047	-29.3981	-12.2819	2.50043	4.03979	-7.72065	-7.58968	-12.3879	2.00773	-2.20691	0
0.2053	-35.4825	-11.31	2.79618	2.22601	-9.85924	-7.88246	-14.2178	1.68649	-3.74098	0
0.2060	-32.109	-10.1613	4.03296	1.92371	-11.0796	-8.19776	-15.137	3.81469	-4.65604	0
0.2067	-18.675	-8.30575	7.6895	6.48565	-4.05969	-3.91871	-12.0873	9.31588	-2.20691	0
0.2073	20.663	-7.42216	10.1362	7.42002	-1.61904	-2.70256	-11.168	12.3676	-1.29185	0
0.2080	76.5074	-7.95231	9.81353	3.4352	-6.19827	-6.37353	-14.527	9.63711	-5.89406	-0.316404
0.2087	118.918	-9.18933	10.1362	2.22601	-8.32477	-8.51306	-16.0476	7.18768	-10.1464	-0.316404
0.2093	147.352	-12.2819	9.22203	3.1329	-7.41859	-8.51306	-15.4377	7.50892	-12.2995	0
0.2100	148.557	-14.4025	9.22203	7.11773	-0.398719	-4.84208	-11.168	10.8418	-12.2995	0
0.2107	43.555	-12.2819	12.5559	10.4705	4.18051	-1.77918	-5.9792	13.2912	-11.9765	0
0.2113	-129.159	-9.80785	15.621	7.42002	-2.83936	-5.15738	-6.89841	11.163	-13.5106	0
0.2120	-216.148	-7.95231	17.745	4.03979	-6.50033	-7.88246	-8.11831	9.9182	-13.5106	0
0.2127	-203.016	-7.95231	17.1535	2.8306	-3.75763	-7.27438	-8.41898	8.71356	-11.9765	-0.316404
0.2133	-143.195	-9.18933	14.7068	5.57876	2.35607	-3.01786	-6.89841	7.79	-8.93529	-0.949213
0.2140	-77.5917	-9.54277	13.497	8.62921	10.5842	2.18457	-2.31952	11.7653	-2.82592	-0.949213
0.2147	-35.7838	-10.4264	10.1362	5.57876	8.45768	0.653118	-3.23014	13.6124	-1.29185	-0.316404
0.2153	-7.10856	-13.5189	4.94709	1.92371	-0.0966592	-4.23401	-8.72825	9.03479	-3.44493	-0.316404
0.2160	-24.4583	-15.9046	4.32871	0.989336	-2.22316	-4.84208	-9.94815	2.93129	-2.20691	-0.316404
0.2167	-89.5196	-14.4025	7.39375	0.384742	-1.31698	-3.91871	-8.72825	1.08418	-1.29185	0
0.2173	-116.026	-10.1613	11.6418	3.73749	3.57639	-0.878331	-5.67852	2.28881	-0.0807405	0
0.2180	-102.291	-7.68723	15.621	8.62921	9.0618	3.08542	-1.70957	0.481856	3.87555	0
0.2187	-96.5077	-9.80785	15.0026	5.88106	2.96019	0.33782	-4.45863	-6.22397	4.79061	-0.316404
0.2193	-81.2665	-13.1655	11.0503	1.31912	-1.9211	-2.09448	-7.50836	-9.27572	4.79061	-0.316404
0.2200	-55.3022	-12.9004	10.1362	2.22601	2.04193	-0.270256	-6.28847	-4.41701	5.70567	-0.316404
0.2207	-44.9405	-12.547	10.7277	4.36957	4.18051	0.653118	-5.06857	0.762938	5.11357	0
0.2213	-32.4102	-16.8766	7.39375	5.57876	5.70289	2.47734	-2.31952	-0.441701	6.32468	0
0.2220	-20.5425	-21.7363	2.20468	4.67187	4.48257	2.47734	-1.09962	-3.81469	7.23974	-0.316404
0.2227	-35.4825	-24.7405	-1.7745	0.384742	-2.5373	-1.48641	-4.45863	-9.27572	4.49456	0
0.2233	-59.8806	-25.9775	-2.98439	-2.96801	-7.10445	-3.31063	-6.58914	-15.0981	2.04543	0
0.2240	-67.2301	-25.359	-2.68864	-1.75882	-5.58207	-1.77918	-5.36925	-15.0981	2.36839	0
0.2247	-66.9289	-23.8569	-1.7745	1.31912	0.217483	0.33782	-3.84868	-12.9699	3.5795	-0.316404
0.2253	-86.4473	-21.7363	1.29055	2.5283	5.09877	2.79264	-0.790354	-12.3275	5.11357	-0.316404
0.2260	-135.906	-20.2342	2.79618	1.31912	3.87845	1.26119	-0.180407	-11.1228	4.49456	-0.316404
0.2267	-185.003	-19.6157	2.20468	-2.06112	-1.61904	-2.09448	-4.14936	-9.59696	1.45333	-0.316404
0.2273	-204.823	-17.1416	4.03296	-4.4795	-3.75763	-2.70256	-6.58914	-7.14753	-0.0807405	-0.316404
0.2280	-195.365	-14.4025	6.77537	-2.96801	-1.61904	-1.48641	-6.28847	-3.17222	1.13037	-0.316404
0.2287	-152.352	-13.784	6.77537	0.687039	3.57639	0.653118	-2.62019	1.08418	2.96049	0
0.2293	-94.7004	-15.021	4.62446	2.8306	7.23736	2.47734	0.42954	2.28881	3.28345	0
0.2300	-50.1214	-15.9046	2.79618	1.62141	3.26225	0.0450426	-2.01025	-0.762938	0.215308	0
0.2307	7.22904	-15.2861	3.41457	-0.52215	-0.398719	-3.01786	-5.67852	-2.89113	-2.82592	0
0.2313	91.8088	-13.1655	5.86123	-1.75882	0.519543	-3.01786	-6.58914	-1.04402	-2.20691	0
0.2320	160.726	-10.4264	9.22203	-1.42904	3.26225	-0.563033	-4.45863	1.40541	0.834319	0
0.2327	170.545	-8.30575	11.9644	1.62141	9.36386	3.40072	0.730218	3.53361	5.70567	0
0.2333	134.822	-9.18933	10.7277	1.92371	8.14354	2.79264	1.34016	2.28881	6.32468	-0.316404
0.2340	106.146	-11.9285	6.15698	-2.06112	-0.398719	-1.77918	-4.45863	-1.04402	2.04543	-0.632808
0.2347	104.881	-12.9004	3.71032	-2.06112	-2.22316	-3.01786	-6.89841	-0.762938	0.834319	-0.316404
0.2353	107.351	-14.1374	2.20468	1.92371	0.519543	-2.70256	-6.28847	-1.36526	2.04543	0
0.2360	107.351	-15.2861	1.29055	6.18335	4.18051	-1.17111	-4.7593	-4.09577	2.96049	0
0.2367	112.231	-14.6676	1.29055	8.93151	6.01703	0.945895	-2.92946	-5.34057	2.96049	-0.316404
0.2373	92.7125	-13.5189	0.672159	7.42002	0.821603	-2.09448	-5.06857	-7.14753	0.215308	-0.316404
0.2380	53.013	-11.6634	1.88205	4.97416	-3.44348	-5.15738	-7.80904	-7.74985	-1.29185	0
0.2387	30.121	-9.18933	5.53859	4.97416	-1.31698	-3.91871	-6.89841	-6.54521	-0.376789	0
0.2393	18.5545	-7.68723	8.30789	6.78795	3.26225	-1.17111	-3.84868	-6.86644	0.834319	0
0.2400	12.7713	-5.83169	11.0503	9.5361	9.36386	2.47734	0.730218	-5.34057	2.96049	0
0.2407	17.3497	-5.21318	11.6418	7.72232	9.678	2.47734	1.34016	-5.01933	2.04543	-0.316404
0.2413	24.639	-8.30575	7.39375	4.03979	4.48257	-1.17111	-2.92946	-9.9182	-0.9958	0
0.2420	35.3018	-11.9285	3.71032	4.67187	3.87845	-1.48641	-4.14936	-14.7769	-1.61481	0
0.2427	41.7477	-13.5189	1.88205	4.67187	5.70289	-0.270256	-3.84868	-16.9051	-1.61481	-0.316404
0.2433	37.1693	-11.9285	1.88205	4.97416	8.14354	0.945895	-3.53941	-14.4958	-1.29185	-0.316404
0.2440	30.121	-9.80785	2.79618	8.02462	9.0618	1.26119	-3.53941	-11.1228	-1.91086	-0.316404
0.2447	24.0366	-9.80785	1.29055	6.18335	4.48257	-1.48641	-6.58914	-12.0464	-4.03703	0
0.2453	22.5305	-10.7798	-0.860364	2.22601	2.04193	-3.01786	-8.72825	-11.7252	-4.35999	0
0.2460	20.663	-9.54277	0.349523	1.31912	4.18051	-0.270256	-7.19909	-8.39232	-3.12197	-0.949213
0.2467	17.6509	-7.68723	3.41457	1.92371	5.70289	2.18457	-5.06857	-6.22397	-1.61481	-0.949213
0.2473	17.9521	-7.42216	4.94709	3.4352	7.53942	4.00879	-2.92946	-4.69809	1.13037	-0.316404
0.2480	4.81936	-9.18933	3.41457	2.8306	4.79671	3.08542	-4.7593	-6.22397	2.04543	0
0.2487	-11.9882	-10.7798	0.349523	0.384742	-1.31698	0.945895	-8.11831	-8.07108	1.45333	-0.316404
0.2493	-15.6629	-11.0449	-1.15611	0.687039	-2.5373	1.26119	-7.80904	-7.74985	2.36839	-0.316404
0.2500	-20.5425	-10.1613	-0.564614	0.687039	-0.700779	2.79264	-6.58914	-7.46876	4.49456	-0.316404
0.2507	-28.133	-8.92426	-1.15611	-2.06112	-1.00284	3.6935	-5.67852	-5.01933	6.32468	0
0.2513	-38.8561	-7.68723	-2.39289	-4.80927	-1.61904	4.32409	-4.7593	0.160619	6.32468	0
0.2520	-54.6997	-7.06872	-2.98439	-7.85973	-3.44348	3.40072	-5.67852	2.61005	5.40962	-0.316404
0.2527	-53.7961	-6.45021	-2.98439	-8.16203	-6.19827	2.79264	-6.89841	3.21237	4.19851	-0.316404
0.2533	-53.4949	-3.71108	-0.860364	-2.36341	-7.10445	2.79264	-5.06857	6.58536	2.96049	0
0.2540	-90.4233	-2.20897	1.5863	1.62141	-9.85924	1.26119	-4.7593	7.79	0.834319	0
0.2547	-95.0017	-1.59046	3.11882	1.62141	-11.3816	1.26119	-5.36925	7.18768	-0.0807405	-0.316404
0.2553	-28.7354	0.530154	4.94709	5.27646	-10.7775	3.40072	-3.53941	9.9182	-0.376789	0
0.2560	25.2414	2.12062	6.15698	11.6797	-14.1243	1.86927	-2.62019	12.3676	-2.82592	0
0.2567	47.2297	2.12062	5.24284	14.7301	-19.6218	-0.563033	-4.14936	14.4958	-4.03703	0
0.2573	67.6518	0.530154	1.88205	12.2843	-25.4214	-2.09448	-6.89841	13.8935	-3.44493	-0.316404
0.2580	81.6882	-1.23703	0.349523	8.93151	-27.5599	-1.48641	-7.50836	11.163	-1.61481	-0.316404
0.2587	85.6641	0.530154	3.41457	8.93151	-19.9239	3.08542	-2.31952	13.2912	4.49456	0
0.2593	90.5437	4.85974	6.77537	5.88106	-12.2999	7.36447	2.86933	15.7406	9.06985	0
0.2600	80.4833	9.10098	9.51778	-0.824447	-7.41859	9.50399	5.00844	17.5476	11.196	-0.316404
0.2607	37.4705	11.575	11.6418	-7.85973	-7.10445	8.89592	5.61838	19.997	13.3491	-0.316404
0.2613	0.542178	9.36605	9.51778	-13.9606	-12.904	5.54024	3.1786	16.0217	13.0531	0
0.2620	-6.80735	7.59887	9.22203	-13.6583	-10.4634	6.75639	3.47927	11.163	14.2642	0
0.2627	-19.2774	7.86395	10.7277	-8.46432	-1.9211	10.7201	8.66812	10.2394	17.6284	0
0.2633	-68.7361	5.12482	6.77537	-7.85973	-0.0966592	11.0354	10.1973	7.50892	19.1355	-0.316404
0.2640	-125.484	2.12062	-0.860364	-8.16203	-3.14142	7.04917	8.9688	4.13593	17.3054	-0.316404
0.2647	-143.195	-0.088359	-6.34519	-7.55743	-8.63891	2.18457	5.30911	1.40541	12.7301	0
0.2653	-81.2665	-1.23703	-7.58196	-8.16203	-8.32477	0.653118	2.56006	1.08418	10.281	0
0.2660	31.9885	-0.971949	-4.22116	-8.76662	-0.398719	2.79264	4.69917	2.00773	11.196	-0.316404
0.2667	78.6761	-1.23703	-0.564614	-7.85973	4.79671	4.00879	7.44822	-2.28881	10.6039	-0.316404
0.2673	62.471	-1.85554	0.672159	-6.62306	4.18051	2.18457	6.52901	-7.74985	7.85875	0
0.2680	59.4589	0.88359	0.672159	-11.8171	1.13575	-0.270256	3.1786	-6.86644	6.62073	0
0.2687	76.5074	3.26928	0.672159	-20.0615	-0.398719	-1.17111	1.95011	-3.81469	6.02863	0
0.2693	123.858	3.62272	0.349523	-18.8249	4.18051	0.0450426	4.69917	-2.89113	5.40962	0.316404
0.2700	176.027	3.26928	-0.564614	-10.9102	11.8166	2.47734	8.35885	-0.120464	4.79061	0
0.2707	163.798	0.88359	-2.39289	-6.92535	12.7228	1.26119	8.35885	0.762938	2.04543	-0.632808
0.2713	102.472	-4.32959	-5.1353	-7.22765	7.23736	-2.70256	4.69917	-3.17222	-1.61481	-0.632808
0.2720	63.0734	-7.06872	-6.96357	-9.06892	3.57639	-3.91871	2.56006	-6.22397	-2.52987	-0.316404
0.2727	70.1217	-4.32959	-4.51691	-9.06892	8.14354	-1.77918	3.47927	-3.17222	-0.376789	-0.316404
0.2733	85.9654	1.14867	1.29055	-3.8749	16.6979	2.18457	6.52901	2.28881	0.215308	-0.949213
0.2740	38.073	5.74333	6.77537	-1.42904	20.3588	4.32409	8.35885	4.13593	0.215308	-0.632808
0.2747	-92.2305	6.98036	9.51778	-4.80927	15.4776	1.57649	6.22833	1.68649	-1.61481	0
0.2753	-200.546	5.12482	7.6895	-6.62306	8.14354	-2.09448	1.95011	-2.5699	-5.27505	0
0.2760	-205.787	2.65077	5.24284	-3.8749	8.75974	-1.48641	1.64943	-4.41701	-6.80912	-0.316404
0.2767	-153.557	1.14867	4.62446	2.22601	15.4776	1.86927	5.61838	-3.17222	-4.65604	-0.316404
0.2773	-92.5317	-1.85554	2.20468	5.27646	18.8244	3.08542	8.05817	-3.81469	-2.52987	-0.316404
0.2780	-37.2898	-6.80364	-3.30702	2.5283	13.0369	0.33782	5.30911	-10.8016	-3.44493	-0.316404
0.2787	-6.50614	-11.9285	-9.70598	-1.75882	4.48257	-2.70256	0.42954	-19.3545	-6.19011	0
0.2793	-2.83137	-11.9285	-10.9428	-1.12674	4.18051	-1.77918	-0.180407	-19.0735	-6.48616	-0.316404
0.2800	-14.0966	-6.18513	-6.34519	2.5283	11.2004	3.08542	3.47927	-10.5205	-2.52987	-0.316404
0.2807	-27.8318	-1.59046	-3.60277	3.73749	14.2572	6.75639	5.91906	-2.89113	0.834319	-0.316404
0.2813	-36.085	-1.23703	-4.51691	0.384742	10.2821	5.54024	3.78854	-0.762938	0.834319	-0.316404
0.2820	-41.2658	-3.71108	-6.34519	-4.80927	3.87845	3.08542	0.120271	-3.17222	-0.699751	-0.316404
0.2827	-44.3381	-5.56662	-7.87771	-9.06892	0.821603	2.79264	-2.01025	-4.69809	-0.0807405	-0.316404
0.2833	-43.4345	-4.32959	-7.58196	-9.37121	2.65813	4.32409	-1.70957	-0.762938	2.36839	0
0.2840	-45.543	-1.23703	-4.51691	-5.41387	8.45768	7.36447	1.64943	5.34057	5.70567	0
0.2847	-56.2058	-0.353436	-3.89852	-3.8749	8.75974	7.67977	2.86933	6.86644	7.23974	-0.316404
0.2853	-71.2061	-2.20897	-6.96357	-5.41387	1.13575	3.08542	-2.01025	4.73825	4.49456	-0.632808
0.2860	-81.5677	-2.82749	-7.87771	-5.71617	-3.14142	2.79264	-5.9792	4.13593	2.36839	-0.316404
0.2867	-80.0014	-0.088359	-5.1353	-4.80927	-1.9211	5.22495	-5.67852	4.45716	2.04543	0
0.2873	-74.5194	6.00841	1.5863	-0.219853	4.79671	5.83302	-2.01025	8.11124	3.87555	-0.316404
0.2880	-73.3145	9.10098	6.15698	2.8306	9.0618	6.14832	0.42954	10.2394	5.70567	-0.632808
0.2887	-55.001	4.85974	2.50043	-1.75882	-1.00284	0.945895	-4.7593	3.21237	2.96049	-0.316404
0.2893	-15.9641	4.24123	-0.241977	-5.41387	-7.41859	-2.70256	-9.02893	-0.762938	-0.0807405	0
0.2900	10.3014	8.48246	2.50043	-3.27031	-0.0966592	1.26119	-4.7593	5.6618	2.36839	-0.316404
0.2907	17.9521	10.6031	5.24284	0.0824447	7.23736	6.14832	1.34016	12.6889	6.32468	-0.316404
0.2913	24.9402	10.338	5.86123	0.0824447	6.62115	6.4411	3.1786	13.8935	7.23974	-0.316404
0.2920	38.3742	8.48246	3.41457	-2.96801	0.821603	3.40072	0.42954	9.9182	5.11357	-0.316404
0.2927	67.0494	8.21739	2.50043	-3.27031	0.519543	3.08542	-0.790354	9.03479	4.49456	-0.316404
0.2933	96.3872	8.21739	2.20468	-2.66571	1.43781	4.00879	0.42954	10.2394	4.49456	-0.316404
0.2940	96.6884	5.74333	0.96791	-3.8749	-2.22316	3.08542	-0.790354	7.18768	2.96049	-0.316404
0.2947	60.9649	4.24123	0.349523	-3.5726	-4.05969	3.08542	-1.4003	4.45716	2.96049	0
0.2953	-2.22895	3.26928	-0.564614	-2.96801	-4.36175	3.08542	-1.4003	4.45716	3.5795	-0.316404
0.2960	-59.8806	1.14867	-2.07025	-2.66571	-5.28001	2.79264	-2.62019	4.13593	2.36839	-0.949213
0.2967	-69.0373	0.88359	-2.07025	-0.824447	-2.83936	4.00879	-1.70957	4.13593	2.36839	-0.632808
0.2973	-34.5789	1.76718	-2.68864	0.687039	-1.00284	4.00879	-0.180407	5.05948	2.96049	0
0.2980	8.19291	1.5021	-3.60277	-0.219853	-3.44348	2.47734	-1.4003	4.73825	2.36839	0
0.2987	33.1933	0.530154	-3.60277	-1.12674	-6.19827	1.26119	-3.53941	3.21237	1.45333	0
0.2993	30.7234	-0.088359	-2.98439	-1.12674	-8.02271	-0.270256	-5.36925	2.00773	-0.376789	-0.316404
0.3000	20.663	-0.706872	-2.68864	-1.12674	-8.02271	-0.878331	-5.36925	1.68649	-0.376789	-0.316404
0.3007	19.7594	-0.706872	-2.39289	-0.219853	-6.50033	0.653118	-3.53941	2.61005	0.215308	0
0.3013	20.3618	-0.706872	-2.98439	0.687039	-7.10445	0.653118	-3.53941	3.21237	0.215308	0
0.3020	22.2293	-0.706872	-3.30702	0.384742	-6.80239	0.33782	-4.14936	2.61005	0.53827	0
0.3027	23.4341	-0.353436	-2.68864	0.687039	-4.66381	0.945895	-2.92946	3.53361	1.74938	0
0.3033	30.4222	-0.353436	-3.30702	1.31912	-5.28001	-0.270256	-2.31952	4.73825	1.45333	0
0.3040	37.1693	-0.353436	-2.07025	1.92371	-4.97795	-0.270256	-2.92946	5.34057	0.53827	-0.949213
0.3047	15.4822	0.88359	-0.564614	1.62141	-7.41859	-0.270256	-3.53941	5.34057	-0.0807405	-0.949213
0.3053	-8.3134	2.12062	0.349523	0.0824447	-10.1613	-1.77918	-5.06857	5.98304	-0.699751	0
0.3060	4.51815	3.00421	2.20468	1.62141	-6.19827	0.0450426	-2.92946	8.39232	0.53827	0
0.3067	33.4946	3.62272	3.41457	3.4352	-3.75763	1.86927	-0.790354	7.79	1.74938	-0.316404
0.3073	54.2781	3.62272	4.03296	3.73749	-2.5373	2.18457	-0.489676	5.34057	2.04543	-0.316404
0.3080	56.6877	3.26928	4.62446	3.1329	-3.44348	1.57649	-0.790354	4.13593	2.04543	-0.316404
0.3087	19.7594	2.65077	3.11882	-0.219853	-9.85924	-1.77918	-5.06857	2.00773	-0.9958	-0.316404
0.3093	-34.5789	2.38569	2.79618	-0.52215	-8.32477	-1.17111	-4.7593	3.53361	-0.0807405	0
0.3100	-81.2665	1.5021	3.71032	1.92371	-3.44348	1.26119	-1.4003	3.81469	2.96049	-0.316404
0.3107	-119.701	0.265077	1.88205	-0.219853	-5.28001	0.945895	-2.62019	-0.441701	2.96049	-0.316404
0.3113	-122.472	-0.353436	0.0537728	-2.66571	-7.72065	-0.563033	-4.14936	-3.17222	2.36839	0
0.3120	-96.8089	-1.23703	-1.7745	-4.4795	-11.6837	-3.31063	-5.9792	-8.07108	0.834319	0.316404
0.3127	-63.2541	-1.59046	-2.39289	-3.27031	-9.24303	-1.48641	-4.7593	-7.14753	2.04543	0
0.3133	-31.8078	-0.088359	-0.860364	0.384742	-1.00284	3.6935	0.730218	2.28881	5.70567	0
0.3140	-20.2413	-0.706872	-2.07025	-0.52215	-2.5373	2.79264	-0.180407	4.73825	4.79061	-0.316404
0.3147	-14.3978	-1.85554	-4.22116	-2.96801	-7.72065	-0.878331	-4.14936	0.481856	2.66444	-0.316404
0.3153	-9.51824	-1.85554	-3.60277	-4.4795	-11.6837	-3.91871	-7.19909	-3.17222	0.53827	0
0.3160	-3.735	1.14867	1.29055	-4.1772	-9.55718	-3.01786	-7.80904	-1.64634	-0.376789	-0.316404
0.3167	15.4822	6.98036	6.77537	0.384742	-0.700779	0.945895	-2.62019	7.18768	2.96049	-0.316404
0.3173	13.9761	9.98457	9.22203	1.92371	2.04193	1.57649	-0.489676	12.9699	4.19851	-0.316404
0.3180	-18.3738	10.9565	12.2602	-0.52215	-1.9211	-0.878331	-3.53941	11.7653	1.74938	-0.316404
0.3187	-23.2534	7.86395	11.0503	-4.4795	-9.55718	-5.45016	-7.80904	4.13593	-0.9958	-0.316404
0.3193	12.7713	1.76718	5.53859	-6.01846	-12.2999	-6.98161	-9.3382	-5.94289	-0.9958	0
0.3200	46.3261	-1.59046	4.62446	-1.42904	-1.61904	-0.563033	-2.62019	-9.59696	4.49456	0
0.3207	42.6513	-3.09256	2.79618	-0.824447	0.519543	0.945895	0.42954	-14.4958	6.02863	-0.316404
0.3213	5.72299	-4.06451	-1.15611	-5.11157	-7.72065	-3.91871	-3.84868	-18.431	2.36839	-0.316404
0.3220	-29.0366	-0.706872	-0.564614	-6.32076	-10.4634	-5.76546	-6.28847	-13.5723	0.215308	-0.316404
0.3227	-42.4706	2.65077	1.29055	-6.92535	-11.9978	-6.98161	-7.80904	-9.27572	-1.29185	-0.316404
0.3233	-35.1813	4.85974	4.62446	-3.27031	-4.05969	-3.31063	-4.14936	-5.62165	1.45333	-0.316404
0.3240	-28.133	7.24544	7.98525	1.62141	3.87845	0.653118	1.03949	-1.36526	4.79061	-0.316404
0.3247	-40.3621	6.00841	5.24284	-1.12674	-3.44348	-3.31063	-1.70957	-3.81469	1.45333	0
0.3253	-48.9165	2.12062	-0.241977	-5.11157	-10.4634	-7.88246	-5.67852	-9.27572	-2.20691	-0.316404
0.3260	-26.3258	-0.088359	-3.30702	-6.01846	-11.9978	-8.19776	-7.50836	-13.251	-3.12197	-0.632808
0.3267	15.181	-0.353436	-2.68864	-4.1772	-6.80239	-4.52678	-3.84868	-12.0464	0.215308	-0.316404
0.3273	26.5065	0.265077	-0.564614	-1.75882	0.519543	-0.563033	1.64943	-8.6734	4.49456	0.316404
0.3280	4.81936	1.14867	-0.241977	-3.8749	-1.00284	-1.17111	0.120271	-9.27572	4.49456	-0.316404
0.3287	-1.92774	1.5021	-0.564614	-6.62306	-2.5373	-1.77918	-1.4003	-9.59696	4.49456	-0.632808
0.3293	10.3014	-0.706872	-2.98439	-9.37121	-4.05969	-1.77918	-1.70957	-10.5205	5.11357	-0.316404
0.3300	19.157	-3.09256	-6.96357	-11.5148	-4.05969	-1.48641	-2.31952	-13.251	6.32468	0
0.3307	19.4582	-2.82749	-6.34519	-10.2781	2.35607	1.86927	1.64943	-13.5723	10.6039	0
0.3313	13.3737	-2.47405	-5.75368	-10.6079	2.96019	2.47734	2.56006	-15.3792	10.9	-0.316404
0.3320	8.79533	-2.20897	-5.75368	-11.8171	-0.0966592	0.33782	0.42954	-16.624	9.06985	-0.316404
0.3327	8.79533	0.530154	-4.22116	-12.1194	-1.61904	-0.878331	-1.09962	-13.8534	7.85875	0
0.3333	9.09654	3.00421	-2.68864	-11.2125	-2.83936	-1.48641	-2.01025	-10.1993	5.40962	0.316404
0.3340	16.9882	6.62692	2.20468	-6.32076	5.40083	2.47734	2.25938	-3.17222	8.77381	0.316404
0.3347	24.0366	10.338	6.77537	-4.1772	9.678	4.61687	4.08922	1.08418	15.1792	-0.316404
0.3353	12.1086	9.71949	4.94709	-7.55743	2.04193	0.0450426	-0.790354	-2.89113	16.3903	-0.316404
0.3360	-4.63864	5.12482	0.0537728	-10.9102	-3.75763	-3.91871	-5.06857	-10.5205	16.3903	-0.632808
0.3367	-17.7714	1.76718	-2.68864	-11.5148	-3.14142	-3.31063	-6.58914	-15.0981	20.0506	-0.949213
0.3373	-33.0126	3.8878	-1.15611	-7.55743	3.26225	0.653118	-3.53941	-11.4441	24.0338	-0.632808
0.3380	-49.2177	7.24544	1.5863	-3.27031	8.14354	3.08542	1.03949	-7.14753	23.4148	0
0.3387	-55.6034	6.98036	0.96791	-4.80927	5.40083	0.945895	-0.180407	-10.5205	11.196	0
0.3393	-36.6874	7.24544	0.349523	-8.16203	1.73987	-0.878331	-1.70957	-12.9699	-15.6368	-0.316404
0.3400	-13.193	8.8359	0.672159	-8.16203	-0.0966592	-1.77918	-2.92946	-13.251	-33.6419	-0.316404
0.3407	-3.13258	9.36605	-0.564614	-6.32076	0.519543	-2.09448	-3.84868	-13.5723	-29.3896	0
0.3413	14.8798	10.6031	-0.241977	-2.66571	7.53942	1.57649	0.120271	-8.07108	-26.0254	0
0.3420	32.8921	11.575	0.349523	-2.06112	9.0618	2.47734	1.95011	-3.49345	-37.9211	-0.316404
0.3427	42.3501	11.2216	-1.15611	-6.92535	4.18051	-0.270256	-1.4003	-5.62165	-33.3458	-0.316404
0.3433	53.6154	9.71949	-2.98439	-12.4217	2.65813	-1.48641	-3.23014	-6.22397	-4.35999	-0.632808
0.3440	53.013	7.86395	-4.83955	-14.5652	1.73987	-1.17111	-3.53941	-7.14753	4.79061	-0.316404
0.3447	38.6754	8.48246	-3.30702	-9.97581	7.23736	2.79264	0.120271	-6.22397	6.94369	-0.316404
0.3453	19.7594	9.36605	-0.564614	-7.22765	13.9431	6.75639	5.00844	-3.49345	27.694	0
0.3460	-3.43379	9.10098	-1.7745	-8.76662	10.8983	5.22495	3.78854	-4.69809	33.4804	0
0.3467	-26.9282	9.98457	-2.68864	-8.76662	7.53942	3.6935	1.64943	-5.62165	20.0506	-0.316404
0.3473	-37.591	10.338	-2.39289	-9.37121	6.01703	3.40072	1.03949	-6.54521	11.815	-0.316404
0.3480	-28.7354	9.71949	-3.60277	-10.6079	5.40083	2.79264	-0.180407	-8.07108	11.519	-0.316404
0.3487	-22.651	10.9565	-2.98439	-7.22765	10.5842	4.93217	1.95011	-4.41701	14.2642	-0.316404
0.3493	-28.7354	11.2216	-2.07025	-5.11157	11.8166	4.61687	2.86933	-3.17222	15.4753	0
0.3500	-15.6629	9.36605	-3.89852	-6.62306	7.23736	0.945895	-0.489676	-8.6734	17.9244	0
0.3507	20.0606	8.8359	-5.75368	-9.37121	3.26225	-2.09448	-4.45863	-13.5723	19.4585	0
0.3513	44.4586	9.71949	-6.96357	-11.5148	1.43781	-3.31063	-5.67852	-13.251	17.6284	0
0.3520	53.6154	11.8401	-4.51691	-11.2125	6.62115	-0.270256	-2.01025	-8.39232	27.9901	-0.316404
0.3527	52.4105	12.4586	-2.07025	-12.4217	10.2821	1.26119	0.42954	-5.01933	20.9656	0
0.3533	37.4705	11.2216	-3.60277	-16.7088	5.09877	-1.17111	-2.31952	-7.14753	-49.2248	0.316404
0.3540	24.0366	10.6031	-5.1353	-22.2051	1.43781	-2.09448	-5.06857	-8.99464	-126.117	0
0.3547	16.687	10.6031	-5.75368	-29.5152	2.96019	-2.70256	-5.9792	-7.74985	-150.527	0
0.3553	16.9882	11.2216	-4.83955	-36.8528	8.75974	-1.17111	-4.45863	-5.34057	-144.741	0
0.3560	29.2174	11.8401	-2.98439	-34.7092	14.8613	4.93217	-0.790354	-2.89113	-117.881	-0.316404
0.3567	34.097	11.8401	-3.89852	-26.1625	14.2572	8.28784	-0.489676	-2.28881	-42.4964	-0.316404
0.3573	25.8438	10.6031	-6.66782	-29.2129	8.45768	6.4411	-3.84868	-5.01933	9.98491	-0.316404
0.3580	18.2533	9.98457	-7.87771	-38.9689	4.18051	6.14832	-5.06857	-6.54521	-19.62	-0.316404
0.3587	15.4822	11.575	-6.66782	-49.6592	4.48257	10.4274	-1.4003	-4.09577	-11.6805	-0.316404
0.3593	14.8798	13.6956	-4.51691	-71.9467	3.57639	14.3911	2.86933	-0.441701	79.8793	-0.316404
0.3600	13.3737	14.5792	-4.51691	-79.2568	-1.61904	14.0758	3.78854	0.160619	151.577	-0.316404
0.3607	10.9038	13.9607	-7.25932	-41.717	-6.19827	9.79677	1.03949	-2.28881	143.341	0
0.3613	7.53025	14.3142	-9.41023	7.72232	-4.97795	5.54024	-1.70957	-3.81469	110.695	-0.316404
0.3620	8.79533	17.6718	-7.25932	36.4131	2.04193	4.93217	-0.489676	-1.04402	96.0543	-0.316404
0.3627	16.9882	20.676	-5.1353	45.8667	8.14354	7.67977	2.86933	2.61005	38.0557	-0.316404
0.3633	19.7594	20.676	-5.43105	41.5796	9.98006	10.1121	5.00844	3.81469	-62.9507	-0.632808
0.3640	17.3497	18.5554	-8.17346	17.7806	4.48257	8.28784	1.95011	0.481856	-69.0601	-0.632808
0.3647	19.7594	17.6718	-10.3244	-8.76662	0.519543	5.54024	-2.01025	-2.5699	25.5409	-0.316404
0.3653	19.157	18.2903	-8.4961	-6.32076	5.09877	5.22495	-1.4003	-1.36526	27.075	-0.316404
0.3660	13.6749	19.7924	-6.04944	8.62921	11.2004	7.04917	1.03949	2.00773	-52.266	-0.316404
0.3667	15.181	21.648	-4.83955	8.32691	13.641	8.28784	3.1786	4.13593	-87.0652	-0.316404
0.3673	16.0846	21.0294	-5.43105	-1.75882	9.678	4.32409	1.03949	2.61005	-126.736	0
0.3680	16.0846	20.4109	-6.04944	-9.97581	7.23736	0.653118	-2.92946	0.762938	-197.518	0
0.3687	6.32541	21.2945	-3.89852	-17.6157	13.641	1.57649	-2.01025	3.21237	-240.876	0
0.3693	-22.9522	20.676	-3.60277	-28.0037	13.641	-0.270256	-2.01025	2.93129	-271.692	0
0.3700	-34.8801	19.1739	-5.75368	-41.4147	7.23736	-4.52678	-5.06857	-0.762938	-277.801	-0.316404
0.3707	-18.3738	19.439	-5.43105	-60.6518	8.45768	-4.23401	-2.92946	-0.120464	-139.843	-0.316404
0.3713	-7.40977	21.0294	-3.89852	-74.3651	7.53942	-3.91871	0.120271	1.68649	63.7043	-0.316404
0.3720	-8.61461	21.2945	-4.51691	-61.861	1.13575	-6.37353	0.730218	0.762938	138.47	-0.316404
0.3727	-8.91582	21.913	-4.51691	-30.1198	2.96019	-6.98161	2.56006	2.00773	132.657	0
0.3733	-11.0845	22.5315	-6.04944	6.48565	5.70289	-8.80583	3.47927	2.00773	111.314	-0.316404
0.3740	-14.3978	23.4151	-7.25932	44.9324	6.92321	-12.4768	4.39849	0.762938	39.5898	-0.316404
0.3747	-12.8918	25.0056	-5.75368	71.507	11.5024	-16.7333	6.52901	2.61005	-46.1567	0
0.3753	-11.687	25.0056	-6.04944	74.5575	10.5842	-17.972	6.52901	2.28881	-70.8902	-0.316404
0.3760	-11.3857	24.3871	-8.17346	58.3708	6.31909	-15.2244	5.30911	1.08418	11.196	-0.316404
0.3767	-9.51824	23.1501	-8.79185	32.4282	2.04193	-13.0849	2.56006	0.160619	170.497	0
0.3773	-7.40977	22.7966	-7.87771	16.5714	0.821603	0.0450426	1.03949	-0.762938	309.371	-0.316404
0.3780	-5.54226	24.3871	-4.83955	17.7806	5.70289	19.8863	3.47927	2.28881	338.653	-0.632808
0.3787	-8.01219	26.1543	-2.39289	19.9241	10.2821	28.4219	4.08922	5.98304	273.657	-0.316404
0.3793	-12.8918	26.5077	-2.07025	23.8815	11.5024	28.7372	2.25938	7.18768	181.505	0
0.3800	-14.6991	25.5357	-2.68864	29.9824	11.2004	27.8138	0.730218	6.86644	68.8986	0.316404
0.3807	-14.3978	25.0056	-2.98439	19.3195	7.53942	24.7509	-0.790354	4.45716	-8.31628	0
0.3813	-12.8918	23.7686	-4.83955	7.72232	4.48257	19.8863	-2.62019	1.68649	-41.9043	-0.316404
0.3820	-8.3134	23.4151	-5.43105	4.03979	6.92321	16.2153	-2.01025	1.68649	-95.3008	0
0.3827	-8.61461	25.0056	-2.68864	1.62141	8.45768	11.6435	0.120271	2.93129	-157.848	0.316404
0.3833	-16.5666	24.6522	-1.7745	26.6296	6.62115	2.18457	-2.01025	-0.441701	-215.846	-0.316404
0.3840	-22.9522	24.3871	-3.30702	55.0181	1.73987	-6.98161	-4.14936	-4.09577	-217.058	-0.316404
0.3847	-21.4462	25.5357	-3.89852	60.2121	-6.19827	-12.7696	-3.23014	-2.5699	-169.151	0
0.3853	-14.0966	26.5077	-3.89852	70.5727	-7.72065	-17.6567	-0.180407	2.00773	-156.933	-0.316404
0.3860	-9.21703	27.3913	-2.98439	72.7162	-1.00284	-21.3277	3.47927	4.13593	-129.777	-0.316404
0.3867	-9.51824	27.1262	-2.68864	45.2621	0.519543	-25.5842	4.08922	1.68649	-30.8967	0
0.3873	-12.8918	25.0056	-4.22116	30.2847	-2.5373	-29.2552	1.03949	-3.17222	27.694	-0.316404
0.3880	-11.687	24.0336	-4.83955	56.5296	-0.398719	-30.4713	0.42954	-3.49345	12.434	-0.316404
0.3887	-0.662662	25.5357	-2.68864	80.0538	4.79671	-28.039	4.39849	1.40541	20.3735	-0.316404
0.3893	6.62662	26.7728	-1.15611	71.8093	6.92321	-21.6205	9.27806	4.73825	61.2552	-0.316404
0.3900	2.65065	26.7728	-0.860364	47.0759	6.92321	-17.972	12.9377	4.73825	95.4353	-0.316404
0.3907	-2.83137	25.8892	-2.39289	21.7654	2.35607	-14.9091	14.1576	2.61005	68.8986	-0.316404
0.3913	-4.93985	25.2707	-4.51691	22.9746	-2.22316	-8.19776	13.247	2.61005	-61.1206	-0.316404
0.3920	-5.84348	26.7728	-5.1353	36.4131	-1.9211	-2.70256	10.1973	4.73825	-163.365	0
0.3927	-4.33742	28.6283	-4.22116	17.176	4.48257	-0.270256	6.83828	8.11124	-109.646	0
0.3933	-2.22895	28.0098	-2.39289	-21.8753	14.5593	1.26119	5.30911	10.2394	-25.1103	0
0.3940	-5.84348	23.7686	-4.22116	-45.0698	13.641	-3.01786	-2.01025	6.26412	-9.85035	-0.316404
0.3947	-12.8918	21.913	-4.51691	-38.6666	13.339	-5.45016	-8.72825	3.81469	-22.0422	0
0.3953	-22.0486	23.1501	-1.47875	-18.5226	18.2203	-3.01786	-4.7593	7.79	-44.0305	0
0.3960	-32.109	22.7966	-1.15611	-6.62306	1.43781	-5.45016	0.120271	10.5607	-30.6007	-0.632808
0.3967	-33.9765	22.5315	-1.15611	0.687039	-21.7604	-10.3373	1.34016	10.8418	25.2449	-0.632808
0.3973	-33.3138	21.648	-1.7745	-4.1772	-28.1641	-13.3777	2.25938	10.8418	53.3157	-0.316404
0.3980	-37.8922	19.1739	-4.83955	-18.8249	-33.6616	-18.2648	1.95011	9.31588	74.685	-0.316404
0.3987	-42.4706	17.0533	-6.66782	-15.1698	-41.5997	-21.0124	1.64943	8.39232	98.1805	-0.949213
0.3993	-43.7357	17.3184	-4.22116	21.1333	-35.8001	-20.7196	4.08922	11.4441	90.86	-0.632808
0.4000	-37.2898	18.5554	-0.860364	64.1695	-21.1442	-17.6567	4.08922	13.8935	71.3208	0
0.4007	-23.8558	18.5554	1.29055	76.6736	-12.6019	-7.27438	1.34016	12.6889	63.7043	-0.316404
0.4013	-20.5425	17.9369	3.11882	74.2552	-4.97795	2.79264	2.25938	12.3676	56.9759	-0.632808
0.4020	-29.3981	18.5554	3.71032	91.651	14.2572	10.1121	5.00844	15.1383	35.3105	-0.316404
0.4027	-28.133	18.2903	3.11882	99.5657	29.5052	13.1524	2.86933	16.6642	54.8497	-0.316404
0.4033	-9.81945	15.1977	0.0537728	56.2273	22.4974	7.67977	-7.19909	11.4441	92.3941	-0.316404
0.4040	8.79533	14.3142	-0.241977	20.831	18.8244	6.75639	-14.527	8.39232	44.7841	-0.316404
0.4047	21.2654	17.6718	5.24284	56.8594	25.5422	12.5444	-10.8674	12.9699	-47.3947	0
0.4053	41.4465	18.8205	7.39375	118.803	24.3219	10.4274	-7.80904	15.4194	-72.3974	0
0.4060	61.2661	17.3184	5.86123	167.335	24.9381	6.4411	-10.8674	14.8171	-33.9649	-0.316404
0.4067	60.6637	14.3142	4.62446	167.94	24.3219	4.93217	-16.3569	11.4441	-33.9649	-0.632808
0.4073	48.1334	10.6031	4.62446	95.3061	19.1385	2.47734	-18.1867	6.58536	-78.5067	-0.316404
0.4080	34.6994	10.338	6.77537	49.8241	22.4974	2.18457	-14.527	5.6618	-96.5119	-0.316404
0.4087	27.1089	9.98457	7.39375	64.7741	31.3417	4.00879	-10.8674	4.45716	-75.1694	-0.316404
0.4093	28.9162	7.59887	1.88205	33.3626	28.9011	0.653118	-15.4377	-0.762938	-24.8143	0
0.4100	29.8198	5.12482	-5.43105	-34.4069	13.0369	-8.80583	-24.9047	-5.01933	26.7789	-0.316404
0.4107	23.7354	4.50631	-7.25932	-55.7601	-4.66381	-16.7333	-27.6452	-4.69809	30.1162	-0.316404
0.4113	14.2774	3.00421	-4.51691	-46.6087	-26.6417	-22.8366	-24.2948	-3.49345	42.954	0
0.4120	4.51815	1.5021	-2.39289	-56.3647	-47.3872	-29.8633	-14.8277	-0.762938	117.101	0
0.4127	-4.33742	2.65077	-4.83955	-80.1637	-55.0232	-34.7504	-1.70957	3.21237	104.586	-0.316404
0.4133	-9.21703	4.24123	-9.0876	-79.5591	-51.6643	-35.6738	6.52901	5.05948	-69.3561	-0.316404
0.4140	-13.4942	3.00421	-9.41023	-37.7597	-42.2038	-31.6875	9.27806	3.53361	-294.272	0
0.4147	-18.0726	0.88359	-5.75368	26.9319	-26.6417	-21.0124	12.0271	1.40541	-436.779	0
0.4153	-17.169	0.530154	-0.860364	89.2052	-2.5373	-9.41391	17.216	2.00773	-438.017	-0.316404
0.4160	-14.6991	0.88359	0.96791	131.307	18.8244	-4.84208	15.9961	3.21237	-362.929	-0.316404
0.4167	-14.6991	0.88359	-0.860364	149.005	26.7625	-3.31063	5.91906	2.61005	-331.817	-0.316404
0.4173	-11.0845	-0.706872	-1.47875	155.408	21.5792	1.57649	-0.180407	2.00773	-365.997	0
0.4180	-5.54226	-1.59046	0.349523	142.3	10.8983	10.1121	2.25938	2.61005	-328.749	0
0.4187	-2.53016	-1.59046	2.50043	97.1199	8.45768	24.1428	7.44822	4.45716	-120.922	0
0.4193	-1.92774	-0.971949	4.94709	42.514	11.5024	34.8405	12.0271	6.26412	187.91	0
0.4200	2.34944	-2.47405	2.79618	-23.112	6.92321	32.0929	13.857	4.45716	444.261	-0.316404
0.4207	12.7713	-5.56662	-3.89852	-92.0907	2.35607	28.4219	13.5477	-0.120464	485.762	0
0.4213	20.9642	-6.80364	-8.17346	-92.393	3.87845	29.9534	12.0271	-3.49345	327.053	0
0.4220	27.4101	-6.80364	-8.79185	-28.9106	7.53942	29.3453	7.7489	-3.49345	171.439	0
0.4227	36.2657	-5.21318	-6.96357	19.9241	18.8244	29.6381	5.91906	1.68649	79.5564	0
0.4233	33.7958	-4.9481	-6.04944	7.42002	30.7376	38.4889	2.56006	3.53361	62.1702	-0.632808
0.4240	17.9521	-6.80364	-9.41023	-43.5583	32.8641	45.2003	-3.23014	-1.04402	173.861	-0.949213
0.4247	4.81936	-8.57082	-12.4484	-50.2638	28.2849	38.8042	-7.80904	-3.49345	254.44	-0.316404
0.4253	-2.22895	-9.18933	-12.1526	-5.11157	24.0198	47.047	-15.7469	-1.96758	172.354	-0.316404
0.4260	-3.735	-8.30575	-9.41023	21.1333	27.6808	78.1715	-20.3258	0.160619	62.7892	-0.316404
0.4267	8.79533	-6.80364	-6.66782	29.3778	31.6438	90.0627	-17.886	2.93129	29.5241	-0.316404
0.4273	28.9162	-6.18513	-3.60277	57.464	27.0646	68.1045	-16.9668	4.45716	23.1187	-0.316404
0.4280	40.8441	-5.56662	-0.241977	80.0538	23.4036	32.9937	-12.6972	4.73825	14.2642	0
0.4287	46.9285	-4.32959	3.11882	80.0538	18.5223	9.79677	0.730218	5.6618	-7.72418	0
0.4293	47.2297	-1.59046	7.07112	73.9254	8.45768	4.61687	11.7179	8.39232	-97.4269	-0.316404
0.4300	52.4105	3.00421	14.4111	51.363	2.96019	15.292	15.6868	11.7653	-182.285	0
0.4307	70.4229	6.00841	19.8959	56.5296	3.87845	26.2824	19.9564	14.8171	-174.642	0
0.4313	69.5193	3.62272	17.745	120.012	2.04193	16.5306	23.0148	13.2912	-149.612	-0.316404
0.4320	42.9526	-1.59046	14.0885	181.653	3.26225	-0.563033	19.9564	6.58536	-145.36	-0.316404
0.4327	6.0242	-6.18513	11.6418	236.589	10.2821	-11.2607	10.8072	-1.96758	-191.113	0
0.4333	-46.7478	-11.31	5.86123	267.423	11.5024	-22.2285	-0.489676	-8.6734	-300.974	-0.316404
0.4340	-97.4113	-13.5189	0.96791	234.473	14.8613	-31.0794	-3.53941	-8.99464	-405.963	-0.316404
0.4347	-110.243	-14.4025	-1.15611	201.193	14.2572	-47.8803	1.03949	-7.46876	-446.872	0
0.4353	-113.918	-15.9046	-2.98439	224.992	1.73987	-69.2305	1.34016	-6.54521	-411.777	0
0.4360	-143.496	-14.6676	-2.68864	264.373	-12.904	-82.0452	-1.09962	-3.81469	-339.137	-0.316404
0.4367	-166.087	-13.784	-2.07025	293.063	-24.5031	-93.9589	-5.9792	-2.89113	-229.276	-0.316404
0.4373	-166.087	-11.9285	-0.241977	347.999	-21.4583	-87.8557	-9.3382	-1.64634	-127.328	0
0.4380	-131.328	-6.18513	4.94709	421.237	-21.4583	-66.7982	-5.9792	3.53361	-84.6161	0
0.4387	-65.6638	-1.85554	7.07112	449.901	-35.8001	-58.5554	-4.7593	10.2394	-69.3561	0
0.4393	-33.3138	-0.706872	7.07112	398.648	-41.5997	-52.4521	-9.63888	15.1383	-78.8297	-0.316404
0.4400	-40.3621	1.14867	8.30789	253.38	-37.0205	-36.5746	-9.02893	18.7924	-42.4964	-0.316404
0.4407	-36.085	1.76718	8.89939	73.0185	-32.1392	-26.5076	-4.14936	21.5229	104.29	-0.316404
0.4413	7.22904	3.62272	9.22203	-75.6018	-22.9807	-21.3277	-2.31952	23.6511	200.425	-0.316404
0.4420	86.5678	4.24123	10.4319	-189.43	-6.19827	-10.022	-0.790354	25.4982	111.314	-0.632808
0.4427	151.268	-5.83169	9.51778	-236.424	6.92321	-4.52678	1.34016	22.4464	-30.8967	-0.632808
0.4433	142.774	-17.4951	7.6895	-226.97	10.2821	-3.91871	1.64943	13.6124	-131.015	-0.632808
0.4440	67.6518	-19.6157	6.45273	-199.818	5.40083	-1.17111	1.64943	3.81469	-187.776	-0.316404
0.4447	31.9885	-18.0252	4.62446	-177.229	6.01703	2.18457	2.56006	-4.09577	-168.855	0
0.4453	44.1574	-19.8808	5.86123	-201.33	31.0397	8.28784	3.1786	-5.62165	-157.848	0
0.4460	28.615	-23.8569	6.45273	-223.618	59.4212	4.32409	-0.180407	-6.86644	-181.047	0
0.4467	27.4101	-19.6157	2.20468	-190.035	69.1838	-7.88246	-3.84868	-17.5476	-110.265	-0.316404
0.4473	43.8562	-5.56662	-1.7745	-180.581	72.8448	-11.8687	-1.70957	-29.1121	80.1754	-0.316404
0.4480	25.2414	-5.83169	-2.68864	-233.071	74.9834	-10.3373	0.42954	-26.3816	210.195	0
0.4487	-4.33742	-16.2581	-2.68864	-259.921	78.3423	-5.45016	3.1786	-8.39232	199.806	0
0.4493	-24.157	-17.1416	-2.68864	-231.23	79.5626	-3.62593	5.61838	7.18768	229.115	-0.316404
0.4500	-35.1813	-15.2861	-4.83955	-201.33	74.6813	-11.5534	0.42954	12.0865	297.771	0
0.4507	-18.3738	-11.6634	-7.58196	-190.64	68.5676	-17.972	-6.28847	14.2147	267.547	0
0.4513	10.9038	-6.18513	-10.9428	-165.329	57.2826	-21.0124	-11.4773	9.9182	262.057	0
0.4520	15.181	-5.56662	-12.771	-99.7031	54.2258	-21.9358	-13.6078	-1.04402	350.872	0
0.4527	1.74702	-4.9481	-10.3244	-36.8528	64.6046	-22.2285	-10.5581	-6.86644	365.216	0.316404
0.4533	4.21694	-4.06451	-11.2385	-64.9115	66.7432	-27.1157	-11.778	-6.54521	288.621	-0.316404
0.4540	41.1453	-4.59467	-12.771	-173.546	61.2457	-27.7237	-16.9668	-1.36526	252.287	-0.949213
0.4547	111.327	-3.09256	-9.70598	-263.905	59.4212	-20.1115	-17.2761	7.50892	273.038	-0.632808
0.4553	172.051	-2.47405	-5.1353	-304.798	58.503	-11.2607	-12.6972	12.9699	307.541	0
0.4560	176.931	-4.06451	0.96791	-344.454	60.6416	-3.01786	-4.45863	20.5993	332.866	0
0.4567	135.725	-4.59467	7.07112	-399.994	56.3644	-3.01786	-2.01025	29.1523	337.738	-0.316404
0.4573	61.8685	-1.23703	9.51778	-442.426	41.7205	-11.5534	-10.2574	27.6264	308.456	0
0.4580	-46.4466	3.8878	11.9644	-429.894	31.9579	-17.6567	-15.137	23.6511	259.931	0.316404
0.4587	-122.171	5.47826	14.4111	-348.439	24.9381	-19.7962	-16.3569	22.4464	217.811	0
0.4593	-87.0497	5.74333	18.9818	-254.424	18.5223	-20.1115	-15.4377	18.7924	133.895	-0.316404
0.4600	-53.4949	5.12482	22.6383	-202.869	16.9999	-18.8729	-6.89841	15.4194	18.2205	-0.632808
0.4607	-113.014	-4.9481	15.3252	-193.085	5.09877	-22.5438	-3.23014	12.0865	14.8832	-0.316404
0.4613	-174.642	-16.2581	6.45273	-183.934	-9.24303	-27.7237	-5.36925	6.86644	127.489	0
0.4620	-193.558	-19.2623	3.41457	-144.251	-8.32477	-27.1157	-1.09962	1.40541	218.107	-0.316404
0.4627	-137.713	-22.3548	-0.564614	-81.4004	-0.700779	-25.2914	3.78854	-1.96758	246.797	-0.316404
0.4633	-7.71098	-28.0982	-3.30702	-8.46432	10.8983	-23.1519	7.13896	0.160619	245.29	0
0.4640	78.3749	-33.6648	-4.51691	34.5718	17.6041	-24.3681	7.7489	-3.81469	201.932	0
0.4647	96.086	-34.5484	-3.89852	-24.0189	12.4207	-28.6471	6.52901	-15.0981	101.545	0
0.4653	89.6401	-22.9733	-0.564614	-140.293	9.36386	-26.5076	10.1973	-19.0735	25.2449	0
0.4660	8.79533	-15.021	2.20468	-175.387	7.53942	-22.2285	13.5477	-17.5476	18.2205	-0.316404
0.4667	-124.279	-25.7125	4.32871	-125.343	1.43781	-17.3639	8.9688	-18.431	8.45084	-0.316404
0.4673	-188.979	-35.432	1.29055	-86.5944	-3.75763	-7.88246	4.69917	-19.9569	-36.3871	-0.316404
0.4680	-164.882	-35.1669	-6.66782	-89.0128	-8.94097	-5.76546	2.86933	-17.5476	-92.5556	-0.316404
0.4687	-99.58	-32.0743	-6.96357	-91.1564	-11.9978	-6.66631	1.64943	-6.86644	-147.782	-0.316404
0.4693	-48.6153	-26.331	-1.47875	-82.005	-14.7405	0.33782	3.78854	1.40541	-131.311	-0.316404
0.4700	-46.7478	-20.7644	1.5863	-92.0907	-24.5031	6.14832	5.00844	-0.120464	12.1111	-0.316404
0.4707	-42.1694	-8.57082	3.41457	-103.358	-31.825	8.58062	5.61838	-4.41701	161.05	0
0.4713	-45.2418	13.0771	7.07112	-72.8536	-35.1839	8.28784	5.00844	-6.86644	192.485	0
0.4720	-71.2061	14.5792	9.22203	-9.37121	-38.5429	3.6935	-2.01025	-7.74985	125.659	-0.316404
0.4727	-44.6393	-12.9004	8.89939	41.2773	-35.1839	1.57649	-3.84868	-3.81469	69.1946	-0.316404
0.4733	-25.4221	-42.1472	7.98525	46.169	-30.0006	4.93217	1.03949	3.21237	93.9013	-0.316404
0.4740	-61.7481	-69.3618	5.86123	14.1255	-29.0823	9.50399	2.25938	7.50892	109.78	0
0.4747	-79.7002	-98.6086	5.53859	-9.06892	-25.4214	14.6839	5.00844	12.6889	76.8112	0
0.4753	-110.845	-114.513	7.07112	4.03979	-23.899	25.3815	12.3278	19.7159	47.5293	0
0.4760	-154.521	-117.252	4.62446	-7.55743	-29.6985	46.7317	17.216	20.5993	24.6259	0
0.4767	-121.809	-123.968	1.29055	-90.8541	-34.5798	64.7488	19.6558	17.8688	2.96049	-0.316404
0.4773	10.3014	-121.494	0.0537728	-160.437	-39.7632	62.294	19.9564	16.0217	-24.1953	0
0.4780	198.618	-67.1528	-0.564614	-130.235	-40.3794	49.7946	21.4856	14.2147	-60.8245	0
0.4787	281.27	15.8163	-1.7745	-53.6165	-32.4412	39.097	24.5353	16.0217	-91.3176	0
0.4793	201.329	79.6115	-4.51691	-3.5726	-25.7234	29.3453	25.7552	10.2394	-85.5312	-0.316404
0.4800	91.1462	125.381	-8.79185	25.7227	-24.8052	16.5306	23.6247	-4.09577	-52.266	-0.316404
0.4807	-9.21703	117.164	-7.58196	30.6145	-29.3844	4.32409	22.3962	-8.99464	-28.4745	0
0.4813	-46.7478	60.3492	5.24284	8.32691	-31.523	-0.270256	24.5353	-0.120464	33.8034	0.316404
0.4820	-5.84348	26.5077	14.0885	-15.4721	-29.0823	-3.31063	25.1453	9.63711	124.421	0
0.4827	-57.1697	20.676	13.1743	-18.2203	-30.0006	-0.270256	20.8756	12.9699	137.259	-0.316404
0.4833	-202.112	10.338	12.8786	2.8306	-33.6616	9.1887	15.6868	14.4958	90.241	-0.949213
0.4840	-268.017	-11.0449	9.51778	27.8663	-40.9835	5.54024	11.1079	13.6124	47.5293	-0.949213
0.4847	-196.63	-30.5722	8.89939	53.4791	-54.407	4.93217	7.7489	12.0865	-6.19011	-0.316404
0.4853	-48.9165	-37.5526	18.9818	84.6157	-73.9443	30.5614	11.1079	15.1383	-19.62	0
0.4860	154.039	-40.3801	20.5143	94.7015	-96.5263	49.7946	12.6371	13.8935	52.7236	-0.949213
0.4867	348.741	-47.0953	7.98525	80.6584	-114.227	45.2003	4.69917	9.31588	97.8845	-0.949213
0.4873	347.837	-54.3408	-5.75368	73.6231	-121.549	63.2173	0.42954	8.71356	55.1458	0
0.4880	234.884	-64.4137	-20.7025	86.7593	-115.749	101.368	8.35885	5.34057	13.0531	0
0.4887	221.51	-55.9312	-33.8231	99.2634	-93.7836	106.548	19.3465	-2.89113	3.28345	-0.316404
0.4893	269.101	-5.83169	-37.1839	90.4144	-58.9863	86.7071	23.3154	-3.81469	8.77381	0
0.4900	315.789	31.7209	-31.0807	88.5731	-28.4782	60.4697	16.606	-5.01933	21.2886	0
0.4907	343.861	27.3913	-17.3417	75.7667	-7.72065	26.2824	8.35885	-14.4958	18.8395	-0.316404
0.4913	338.078	19.1739	-2.07025	6.48565	9.98006	-5.15738	5.00844	-13.5723	19.1355	-0.316404
0.4920	208.377	17.0533	18.9818	-45.3995	25.8442	-27.431	0.730218	10.2394	21.2886	-0.316404
0.4927	-119.4	28.0098	52.536	-49.6592	45.9856	-34.1423	1.95011	43.4875	26.1599	0
0.4933	-467.9	40.5568	72.3781	-61.5587	53.3196	-42.3851	3.78854	57.2204	42.335	-0.316404
0.4940	-638.505	18.8205	62.3226	-66.4504	37.4434	-68.3297	-4.45863	52.3616	33.4804	-0.316404
0.4947	-662.602	-11.6634	41.5663	-40.2055	25.5422	-94.2517	-12.0873	48.0651	0.215308	-0.316404
0.4953	-663.807	-1.59046	13.497	-9.67351	20.3588	-114.093	-17.5768	31.9229	-27.5594	0
0.4960	-554.889	28.0098	-22.2081	18.6875	23.1015	-121.12	-19.1059	6.86644	-45.2416	0
0.4967	-293.981	24.0336	-49.3903	51.6653	31.0397	-100.67	-16.6662	-9.27572	-68.145	-0.316404
0.4973	-74.2182	-2.47405	-59.4458	76.9759	15.4776	-71.37	-21.8464	-17.8287	-89.4874	-0.316404
0.4980	130.243	-11.0449	-56.7034	91.3213	-15.6588	-21.9358	-21.8464	-11.1228	-106.281	-0.316404
0.4987	291.089	-0.353436	-45.4111	101.407	-37.9387	58.6455	-12.6972	4.73825	-164.576	-0.316404
0.4993	218.438	16.4348	-25.8916	115.148	-42.82	109.296	-2.62019	12.9699	-196.603	0
0.5000	196.148	26.5077	-6.66782	120.314	-32.1392	105.017	13.857	16.9453	-121.245	-0.316404
0.5007	462.9	17.6718	-5.1353	101.105	-30.6047	77.2481	17.216	10.2394	-46.7757	-0.632808
0.5013	847.424	6.00841	-9.41023	95.6084	-22.6787	57.4068	5.00844	0.481856	-44.0305	-0.316404
0.5020	1215.44	8.48246	1.5863	122.76	-0.0966592	51.0108	-2.62019	7.79	-72.7203	0
0.5027	1151.65	24.0336	28.1232	154.501	16.6979	31.7776	-9.63888	34.3322	-113.925	0
0.5033	445.188	53.0154	70.8456	175.855	38.3616	19.2557	-5.36925	77.9803	-130.692	0
0.5040	-183.196	73.5147	101.066	182.285	41.7205	52.5422	1.64943	101.19	-109.323	0
0.5047	-522.539	67.4179	98.3235	172.199	27.0646	92.2023	-7.50836	81.6344	-117.881	-0.316404
0.5053	-1037.97	54.8709	84.5845	123.365	27.6808	96.7741	-17.2761	57.8628	-154.51	-0.316404
0.5060	-1422.49	41.7938	64.1509	47.3782	20.6609	94.9499	-25.2054	39.2311	-143.207	-0.316404
0.5067	-1240.02	19.439	32.3981	9.5361	7.53942	94.6346	-24.9047	14.2147	-94.0897	0
0.5073	-570.733	-7.95231	-3.60277	14.1255	1.13575	65.0416	-15.4377	-13.251	-66.907	0
0.5080	262.053	-34.8134	-36.2697	30.2847	-6.19827	14.6839	-13.9171	-43.1662	-62.0357	0
0.5087	724.41	-55.3127	-54.8751	42.2117	-1.9211	-30.4713	-12.6972	-71.8366	-56.8413	0
0.5093	568.444	-64.7671	-56.4076	35.1764	13.339	-39.3222	-9.3382	-102.997	-34.2609	0
0.5100	196.75	-62.2931	-44.7927	13.8232	17.9182	5.22495	-0.790354	-130.141	32.2693	0
0.5107	-63.2541	-60.4375	-36.8612	-1.42904	-10.7775	68.3972	15.0769	-145.721	89.6489	0
0.5113	-191.088	-64.7671	-39.6036	0.687039	-56.5456	141.028	23.0148	-154.555	89.326	0
0.5120	-128.556	-61.0561	-36.2697	24.8159	-73.026	185.891	26.3652	-136.245	67.0685	0
0.5127	6.0242	-50.7181	-29.2524	49.8241	-70.5854	170.013	24.8446	-100.226	47.2063	0
0.5133	17.3497	-40.9102	-21.6166	72.7162	-66.9244	149.271	20.5664	-74.6073	6.62073	0
0.5140	-34.8801	-31.8092	-9.0876	81.8676	-48.3054	138.889	29.7242	-57.8227	-54.0962	-0.632808
0.5147	33.7958	-25.359	-1.7745	-13.6583	-27.862	112.652	43.1516	-48.9485	-37.3021	-0.632808
0.5153	129.641	-16.2581	4.62446	-143.646	-0.700779	81.2119	51.3902	-39.1909	43.869	0
0.5160	67.6518	-5.83169	15.621	-150.681	35.3048	38.4889	53.22	-26.9839	82.9205	0
0.5167	-40.0609	-1.23703	22.0199	-100.005	64.3025	-27.1157	50.4795	-17.8287	84.1586	-0.316404
0.5173	19.157	1.5021	24.4666	-95.7458	86.8845	-110.737	50.7802	-6.54521	65.5344	0
0.5180	226.691	2.12062	19.6002	-125.646	91.1617	-205.034	44.3715	0.160619	35.6335	0
0.5187	256.571	-2.20897	7.98525	-121.991	77.7261	-280.413	36.1329	2.28881	28.6091	0.316404
0.5193	-5.84348	-7.06872	-2.68864	-75.9041	55.4461	-314.285	32.164	7.79	38.0557	0
0.5200	-202.112	-10.1613	-10.6201	-45.0698	34.3986	-306.357	22.0955	12.0865	21.2886	0
0.5207	-139.219	-12.9004	-17.3417	-35.3138	47.8221	-243.185	5.91906	14.2147	-70.2712	0
0.5213	-24.8197	-23.2384	-28.9297	-42.0193	61.5598	-116.233	-20.9358	4.45716	-198.46	0.316404
0.5220	28.9162	-31.8092	-35.6513	-47.8179	38.3616	11.3282	-45.9608	-9.59696	-190.817	0
0.5227	38.9766	-27.2146	-28.0156	-32.5657	8.75974	86.7071	-49.0105	-10.1993	-35.472	0
0.5233	85.0617	-20.7644	-17.9601	-26.1625	-19.3198	133.709	-51.7596	-11.4441	65.2114	0
0.5240	152.533	-17.1416	-10.6201	-18.8249	-34.8819	193.818	-56.6391	-16.9051	-4.35999	0.316404
0.5247	48.4346	-17.7602	-10.9428	12.5866	-25.4214	239.604	-56.0292	-19.3545	-143.826	0
0.5253	-154.159	-14.1374	-11.8569	48.0103	-22.9807	228.929	-53.2801	-8.6734	-176.768	-0.316404
0.5260	-291.21	3.62272	7.98525	66.6153	-32.4412	195.665	-39.552	19.997	-79.4218	0
0.5267	-281.451	23.7686	36.0546	61.7236	-29.6985	147.132	-23.6848	39.2311	78.3452	0
0.5273	-140.424	37.8176	54.0685	62.658	-15.9608	84.8828	-7.50836	48.9887	200.721	0
0.5280	-146.87	46.9186	60.7901	81.8676	-16.565	24.1428	8.9688	59.6698	191.274	0
0.5287	-329.945	44.5329	54.9826	82.1699	-23.5848	-48.7812	14.1576	58.4652	126.574	0
0.5293	-449.285	35.0785	42.1578	22.9746	-17.7853	-127.223	26.9751	43.8087	108.569	0
0.5300	-454.165	17.3184	17.4493	-91.4587	-18.7036	-188.548	47.7305	14.4958	110.076	0
0.5307	-251.51	-4.32959	-11.2385	-165.329	-10.4634	-239.221	50.4795	-12.9699	100.63	0
0.5313	111.93	-14.6676	-24.9774	-154.639	9.0618	-252.644	33.3839	-25.7793	78.3452	0
0.5320	253.86	-18.6437	-29.2524	-126.25	10.8983	-208.097	19.9564	-40.1145	61.8742	0
0.5327	115.002	-19.2623	-24.6548	-107.343	14.2572	-180.621	32.164	-49.8721	70.7287	0
0.5333	-13.7954	-18.9972	-14.8951	-94.2068	12.1186	-179.089	39.4919	-57.2204	79.8793	-0.316404
0.5340	-32.109	-21.1178	-9.70598	-80.4935	1.73987	-141.254	24.8446	-65.1308	74.9811	0
0.5347	-12.5906	-20.7644	-7.58196	-54.2486	10.5842	-88.4637	9.27806	-56.8991	64.9154	0
0.5353	13.9761	-23.8569	-13.9809	-35.3138	25.2401	-55.1997	-11.4773	-49.2697	51.8085	0
0.5360	65.5433	-31.8092	-25.8916	-27.6739	39.884	-30.4713	-27.3445	-57.2204	41.716	0
0.5367	105.845	-36.669	-34.1188	-13.9606	44.4632	-10.9454	-25.5147	-60.8744	32.8883	-0.316404
0.5373	56.6877	-34.5484	-35.6513	8.32691	34.0844	-11.8687	-12.0873	-47.1415	32.5654	0
0.5380	-47.6514	-28.7167	-31.9948	31.5214	13.641	-42.3851	5.00844	-30.9592	43.5461	0
0.5387	-69.6398	-23.8569	-28.9297	38.8315	-34.5798	-54.2764	5.91906	-25.7793	37.4636	-0.316404
0.5393	72.5314	-13.784	-19.17	38.8315	-77.0011	-10.3373	5.30911	-8.99464	27.9901	0
0.5400	160.726	-4.06451	-9.41023	38.5292	-102.326	26.2824	12.0271	13.8935	31.0582	0
0.5407	-46.7478	-1.23703	-7.87771	32.7305	-121.549	22.9267	16.606	24.5746	29.8202	0
0.5413	-166.388	7.24544	-1.47875	38.5292	-111.484	12.8597	27.8943	42.2828	26.7789	0
0.5420	65.8445	15.8163	5.86123	43.4209	-80.6621	10.4274	30.3341	56.618	17.9244	-0.316404
0.5427	125.966	17.9369	7.98525	49.2195	-30.6047	18.3549	26.6744	56.337	2.36839	0
0.5433	-20.8437	17.0533	7.39375	49.2195	0.519543	16.2153	36.1329	55.6945	-5.5711	0
0.5440	-45.2418	13.6956	2.79618	-11.8171	-18.7036	-14.301	41.6224	56.0157	-14.7217	-0.949213
0.5447	-178.316	14.9327	5.24284	-79.2568	-24.5031	-51.236	48.3404	59.3887	-23.2802	-0.949213
0.5453	-305.547	14.9327	4.62446	-77.4431	-17.1812	-48.4884	49.2597	53.5663	-29.9817	0
0.5460	-153.858	8.8359	-4.83955	-25.8602	-11.0796	14.3911	21.4856	37.1029	-42.4964	0
0.5467	6.92783	2.38569	-12.771	27.8663	7.53942	102.585	-2.92946	28.2287	-54.0962	0
0.5473	-15.9641	-4.06451	-19.17	43.1186	-13.5202	147.132	-6.58914	23.37	-61.1206	0.316404
0.5480	58.7962	-5.21318	-19.4657	34.8741	-52.5826	120.894	-19.7159	21.2418	-62.3317	0
0.5487	314.885	-3.71108	-16.4276	21.7654	-77.3032	205.732	-44.1309	18.7924	-57.4604	-0.316404
0.5493	418.622	-6.80364	-18.8742	4.03979	-140.772	465.133	-54.5	8.11124	-49.2248	0
0.5500	263.017	-9.80785	-20.7025	-0.824447	-171.594	651.587	-44.1309	0.160619	-37.6251	0.316404
0.5507	86.9292	-10.7798	-19.17	2.22601	-115.749	673.568	-24.2948	-3.17222	-29.3896	0
0.5513	190.967	-14.1374	-22.2081	-4.4795	-58.0801	607.04	-5.67852	-6.86644	-26.3214	-0.316404
0.5520	432.357	-17.7602	-26.4831	-9.06892	5.70289	486.483	2.56006	-8.6734	-24.4913	-0.316404
0.5527	623.686	-16.2581	-22.8265	0.0824447	77.424	308.88	10.498	-9.59696	-26.6444	-0.316404
0.5533	810.195	-7.68723	-12.771	11.3774	115.87	95.8732	34.6037	-8.99464	-24.1953	0
0.5540	802.544	3.00421	-2.98439	18.6875	141.207	-102.81	58.1082	-2.5699	-14.4256	0
0.5547	516.575	11.575	3.71032	20.831	153.41	-289.872	70.6164	4.73825	-10.1464	0
0.5553	-153.858	20.0575	9.51778	15.0324	147.007	-409.82	80.6848	10.2394	-8.31628	-0.316404
0.5560	-943.992	23.4151	13.1743	14.4278	136.93	-397.299	66.3468	13.6124	-10.4694	0
0.5567	-1004.42	9.10098	4.62446	19.9241	121.066	-339.306	24.5353	7.79	-18.7049	-0.316404
0.5573	-470.972	-11.0449	-13.9809	17.4783	115.568	-328.946	-11.168	-8.07108	-21.4501	-0.316404
0.5580	-107.773	-17.1416	-26.4831	12.2843	104.283	-332.302	-36.193	-25.7793	-19.916	-0.316404
0.5587	8.79533	-17.1416	-29.2524	11.3774	59.4212	-265.166	-61.218	-37.384	-20.2121	0
0.5593	83.2545	-19.2623	-28.9297	10.7728	21.8812	-155.915	-69.4566	-41.038	-15.6368	0
0.5600	128.737	-20.7644	-28.3114	9.5361	-1.61904	-64.9515	-55.11	-39.1909	-9.23134	0
0.5607	118.315	-20.4993	-28.0156	6.18335	-23.5848	26.2824	-38.6328	-40.1145	-9.85035	-0.316404
0.5613	120.183	-16.8766	-22.8265	3.1329	-26.0255	71.7529	-19.1059	-39.5122	-13.2145	0
0.5620	144.581	-11.31	-15.8092	7.42002	-13.8223	58.6455	2.56006	-32.1639	-16.2558	0
0.5627	106.749	-9.18933	-13.3625	13.8232	2.35607	20.4944	9.88801	-26.7028	-19.62	-0.316404
0.5633	74.0977	-10.1613	-14.5993	10.7728	15.7796	-43.6013	-3.23014	-23.9322	-22.6612	-0.316404
0.5640	57.5914	-10.7798	-16.1049	6.18335	18.5223	-73.5096	-22.1557	-19.6758	-25.4064	0
0.5647	15.7834	-10.7798	-17.046	10.4705	7.53942	-63.1272	-20.0166	-13.251	-27.5594	0
0.5653	83.2545	-9.18933	-13.9809	14.7301	-4.36175	-57.632	-11.168	-9.27572	-27.2365	-0.316404
0.5660	201.028	-4.59467	-7.25932	13.8232	-14.7405	-47.2722	-30.3943	-6.54521	-23.5762	0
0.5667	145.183	-1.85554	-5.1353	16.2691	-47.7013	-56.4159	-63.0479	-6.22397	-26.3214	0
0.5673	-20.5425	-3.446	-7.87771	29.0755	-72.724	-98.2155	-74.0355	-11.4441	-36.3871	-0.316404
0.5680	-160.304	-2.82749	-7.25932	40.975	-57.1618	-86.0089	-59.0789	-9.9182	-39.1323	-0.316404
0.5687	-341.271	0.265077	-5.75368	34.8741	-40.6814	-41.777	-45.6515	-2.89113	-37.3021	0
0.5693	-465.791	4.85974	-1.47875	25.4205	-23.5848	-60.3796	-40.162	4.73825	-36.3871	0
0.5700	-449.586	15.1977	11.9644	28.1686	8.45768	-91.8194	-31.9234	19.7159	-30.6007	0
0.5707	-281.752	17.3184	13.7927	22.6723	17.9182	-96.3912	-29.7843	21.2418	-27.2365	-0.316404
0.5713	19.4582	10.338	4.32871	11.6797	7.23736	-81.4371	-21.2365	12.3676	-27.2365	0
0.5720	34.097	9.10098	5.53859	18.0829	-1.61904	-49.0965	-6.28847	12.3676	-31.2197	0.316404
0.5727	-294.885	10.338	11.9644	31.2191	-20.5401	-28.3318	-2.01025	11.4441	-43.7345	-0.316404
0.5733	-337.596	11.575	19.6002	38.2269	-20.5401	-24.3681	-0.180407	15.4194	-46.4796	-0.949213
0.5740	-21.7474	12.1935	22.9341	34.5718	10.2821	-35.6738	0.42954	23.6511	-40.6663	-0.949213
0.5747	72.2302	4.85974	13.7927	21.1333	27.3787	-90.6032	-2.62019	18.1901	-40.6663	-0.316404
0.5753	-105.966	-4.06451	3.41457	11.982	19.4406	-181.837	-19.1059	5.98304	-37.3021	-0.316404
0.5760	-116.629	-9.18933	-2.07025	9.5361	-33.3595	-226.091	-56.3385	-3.49345	-30.8967	-0.316404
0.5767	117.412	-13.784	-6.96357	14.7301	-102.93	-215.101	-82.884	-8.99464	-28.1515	-0.316404
0.5773	326.753	-16.2581	-7.87771	22.37	-95.9222	-215.101	-80.4443	-6.22397	-27.5594	-0.316404
0.5780	410.971	-17.7602	-7.87771	17.7806	-33.9636	-199.854	-69.7659	-2.89113	-24.4913	-0.316404
0.5787	501.334	-22.9733	-14.8951	6.18335	-4.36175	-130.263	-61.218	-13.251	-20.2121	-0.316404
0.5793	561.154	-25.7125	-18.5516	7.72232	-15.0426	-68.6224	-38.0229	-22.7275	-18.0859	0
0.5800	468.683	-20.2342	-10.9428	19.0172	-30.0006	-48.1731	-6.58914	-14.7769	-17.1708	-0.316404
0.5807	340.488	-10.4264	3.11882	24.4861	-45.5627	-4.23401	24.2346	-3.81469	-17.7898	0
0.5813	232.474	-0.706872	16.8309	24.8159	-63.5655	44.9075	61.4672	2.00773	-19.62	0
0.5820	77.4712	6.36185	25.3807	26.3273	-76.0829	30.8542	73.3654	4.45716	-22.0422	0
0.5827	-87.0497	8.48246	26.9133	25.1182	-96.8283	0.33782	53.83	5.98304	-26.0254	0
0.5833	-188.979	5.74333	23.8482	21.1333	-110.264	7.36447	41.6224	5.98304	-26.0254	0
0.5840	-250.306	0.265077	18.3634	23.8815	-114.831	22.3186	36.7429	1.40541	-22.9841	0
0.5847	-278.378	-8.57082	9.51778	29.9824	-131.312	41.5518	30.3341	-12.0464	-25.1103	-0.316404
0.5853	-183.196	-19.6157	-1.7745	27.564	-136.507	70.8521	20.5664	-28.831	-26.3214	-0.316404
0.5860	-18.675	-27.8331	-9.70598	19.6218	-124.908	72.6763	-3.53941	-37.0627	-21.1271	-0.316404
0.5867	62.7722	-31.8092	-12.4484	16.8737	-117.586	69.0053	-21.5457	-35.5369	-15.0447	0
0.5873	69.2181	-33.9299	-13.9809	17.4783	-122.165	62.0012	-32.2241	-33.0874	-13.8066	0
0.5880	35.603	-33.9299	-12.771	13.8232	-125.826	20.1791	-38.9421	-30.0357	-12.2995	0
0.5887	-31.2054	-31.1907	-7.87771	4.03979	-106.905	-13.3777	-6.28847	-25.7793	-5.27505	0
0.5893	-76.0857	-30.3071	-5.75368	-6.01846	-55.9415	-11.8687	32.7739	-26.3816	-4.35999	0
0.5900	-78.4953	-27.4796	-0.860364	-5.11157	13.641	-3.91871	27.8943	-21.4827	-4.979	-0.316404
0.5907	-69.941	-21.7363	6.77537	-3.5726	61.5598	-11.8687	2.56006	-12.6487	-2.82592	-0.316404
0.5913	-62.0493	-19.2623	10.4319	1.62141	80.1667	-20.1115	-27.3445	-9.59696	-11.3844	0
0.5920	-36.6874	-15.6395	14.7068	22.0677	91.7658	-5.76546	-58.7783	-3.49345	-23.2802	-0.316404
0.5927	-1.92774	-14.6676	13.7927	26.025	105.806	-6.66631	-78.0045	0.160619	-26.6444	-0.316404
0.5933	17.9521	-20.2342	4.94709	7.11773	145.472	-32.9262	-70.0666	-4.69809	-23.2802	-0.316404
0.5940	29.5186	-21.1178	2.79618	-2.06112	186.371	5.54024	-42.6018	-1.36526	-14.1296	-0.316404
0.5947	35.3018	-19.8808	3.11882	-1.12674	155.247	154.158	-22.1557	3.21237	-11.3844	-0.316404
0.5953	34.3982	-20.4993	0.672159	2.5283	72.2407	411.419	-11.4773	0.160619	-17.1708	-0.632808
0.5960	34.097	-18.6437	1.88205	8.62921	4.79671	661.969	-15.4377	2.28881	-15.9597	-0.316404
0.5967	27.4101	-16.5231	2.50043	4.67187	-19.3198	737.956	-41.9918	5.6618	-11.0615	0
0.5973	16.3858	-15.9046	3.71032	-6.32076	-11.6837	675.392	-39.552	5.98304	-8.02023	0
0.5980	14.2774	-13.5189	9.51778	-15.4721	-25.4214	568.573	9.58733	9.9182	-0.699751	0
0.5987	21.2654	-11.0449	13.7927	-23.7166	-58.3821	450.179	46.8113	15.7406	9.98491	-0.316404
0.5993	30.121	-12.547	9.51778	-33.8023	-68.4468	309.803	36.1329	14.2147	14.2642	-0.316404
0.6000	38.3742	-15.021	4.32871	-38.9689	-41.2856	176.117	1.03949	10.5607	12.1111	-0.632808
0.6007	42.0489	-14.4025	6.15698	-27.0693	0.821603	43.9841	-17.2761	12.3676	13.6452	-0.316404
0.6013	37.7717	-13.5189	7.6895	-3.8749	16.9999	-160.487	-7.50836	12.9699	14.5602	-0.316404
0.6020	31.6873	-14.1374	7.39375	5.27646	10.5842	-329.554	16.9067	12.0865	11.519	-0.632808
0.6027	28.0125	-14.6676	7.6895	-0.824447	15.4776	-354.576	38.5727	12.3676	8.77381	-0.949213
0.6033	22.2293	-15.021	6.77537	-0.219853	20.0447	-327.415	29.1142	11.163	3.28345	-0.316404
0.6040	16.9882	-13.5189	8.89939	7.42002	0.821603	-278.589	-3.23014	11.4441	-3.74098	-0.316404
0.6047	18.2533	-10.4264	15.0026	15.0324	-12.904	-174.225	-11.4773	16.3429	-4.979	0
0.6053	22.5305	-9.54277	10.7277	14.7301	-13.2181	-93.0356	-12.6972	17.5476	0.53827	0
0.6060	26.5065	-9.54277	2.20468	5.57876	-19.3198	-93.3509	-9.63888	16.3429	10.6039	-0.316404
0.6067	26.8077	-7.95231	1.88205	-0.824447	-17.4832	-110.422	16.9067	17.5476	17.0093	-0.316404
0.6073	20.3618	-7.95231	3.11882	-1.12674	6.31909	-112.562	31.2533	14.8171	13.0531	0
0.6080	14.5786	-7.95231	3.11882	1.31912	40.8023	-147.064	42.5416	13.6124	9.3659	-0.316404
0.6087	13.9761	-8.30575	1.29055	0.687039	52.4014	-210.529	70.0064	13.6124	7.85875	-0.949213
0.6093	17.3497	-9.18933	-2.68864	0.384742	42.6388	-236.767	95.0314	11.7653	5.11357	-0.632808
0.6100	19.7594	-7.95231	-3.60277	2.22601	43.2429	-232.51	102.66	13.6124	4.79061	-0.316404
0.6107	21.9281	-6.80364	-3.89852	9.23381	53.6217	-246.856	80.0749	15.4194	2.66444	-0.316404
0.6113	25.5426	-4.9481	-0.860364	22.9746	63.3843	-235.258	37.9627	18.4711	-0.376789	-0.316404
0.6120	23.1329	-4.59467	0.96791	24.1838	51.4831	-162.018	-3.53941	17.8688	-0.376789	-0.316404
0.6127	16.3858	-7.95231	-2.39289	13.8232	26.7625	-96.7065	-31.6141	10.5607	-2.20691	-0.316404
0.6133	20.0606	-6.45021	1.29055	18.3852	33.7824	-75.3338	-36.5023	11.7653	-5.5711	-0.316404
0.6140	22.8317	-3.71108	2.50043	26.025	49.0425	-81.4371	-35.5831	14.8171	-11.9765	0
0.6147	13.3737	-7.68723	-16.1049	25.7227	45.6835	-116.841	-40.7719	10.2394	-21.4501	-0.316404
0.6153	10.9038	-6.80364	-22.2081	36.4131	56.9806	-148.28	-30.0936	13.8935	-24.8143	0
0.6160	11.5062	2.65077	-1.15611	42.514	67.0452	-139.722	-16.6662	20.9206	-24.8143	0
0.6167	6.92783	10.9565	15.3252	31.2191	46.2997	-94.2517	-18.496	25.8194	-21.4501	-0.316404
0.6173	10.0002	15.8163	19.6002	22.9746	27.0646	-49.0965	-18.496	40.1546	-10.1464	-0.316404
0.6180	15.181	15.5512	10.7277	16.8737	17.302	-42.6779	-13.9171	53.2852	-5.89406	-0.316404
0.6187	14.8798	15.5512	4.94709	9.8384	7.23736	-45.4255	-5.9792	56.337	-7.72418	-0.316404
0.6193	13.9761	9.10098	17.745	10.4705	12.7228	-21.9358	5.00844	52.0404	-2.82592	-0.316404
0.6200	10.3014	-11.0449	25.3807	7.42002	18.2203	2.79264	7.7489	23.6511	1.45333	-0.316404
0.6207	6.92783	-25.094	26.6175	0.0824447	13.9431	9.1887	2.86933	-25.177	1.74938	-0.316404
0.6213	9.09654	-28.4516	32.7207	-0.219853	13.339	-0.878331	1.03949	-54.1686	2.66444	-0.316404
0.6220	9.09654	-31.8092	27.209	0.687039	9.0618	-15.5172	5.00844	-47.1415	0.215308	-0.316404
0.6227	10.9038	-30.8373	15.9167	0.989336	3.87845	-5.76546	14.7676	-24.5345	-2.52987	-0.316404
0.6233	15.7834	-19.2623	15.621	4.97416	9.98006	11.9363	22.0955	-9.27572	-1.91086	0
0.6240	16.3858	2.12062	23.2567	9.8384	27.6808	18.6476	26.9751	9.31588	-1.61481	0
0.6247	15.181	6.98036	25.085	11.0751	43.545	29.3453	35.523	47.784	-4.65604	-0.316404
0.6253	15.181	-13.5189	19.6002	7.11773	44.7653	29.3453	44.9814	70.0698	-5.89406	-0.632808
0.6260	12.1086	-16.2581	18.6591	-0.824447	37.4434	60.4697	57.7989	43.8087	-2.52987	-0.316404
0.6267	4.81936	-1.59046	7.39375	-8.16203	23.4036	174.292	66.6474	4.45716	0.834319	-0.316404
0.6273	-4.33742	-7.68723	-2.68864	-11.5148	-0.0966592	260.346	61.7679	-12.0464	2.04543	-0.316404
0.6280	-10.4219	-15.2861	-7.87771	-12.1194	-17.4832	265.549	42.8509	-10.1993	2.66444	-0.316404
0.6287	-2.22895	-7.95231	-40.8404	-12.1194	-30.3027	279.287	19.3465	-18.7522	1.13037	-0.316404
0.6293	4.21694	-6.18513	-61.2741	-12.724	-42.5059	321.402	5.00844	-35.2156	-0.0807405	0
0.6300	-8.61461	-0.353436	-23.1492	-11.5148	-38.2408	362.278	1.03949	-24.5345	-0.699751	0
0.6307	-18.675	19.439	19.2775	-6.92535	-22.6787	362.886	0.120271	-11.4441	-2.52987	-0.316404
0.6313	-15.6629	36.8457	14.4111	-4.1772	-3.14142	292.394	0.120271	-38.9098	-3.74098	-0.632808
0.6320	-7.71098	45.1514	2.50043	-6.01846	13.9431	205.417	7.44822	-77.0568	1.13037	-0.316404
0.6327	-0.361452	31.1024	19.6002	-13.0263	13.0369	156.591	13.857	-64.2073	6.62073	-0.316404
0.6333	-1.92774	-9.18933	25.3807	-15.1698	8.45768	109.296	7.13896	0.762938	6.32468	-0.632808
0.6340	-10.1207	-33.6648	2.79618	-6.92535	14.5593	25.9896	1.64943	52.6427	1.13037	-0.949213
0.6347	-12.2894	-30.3071	-1.47875	2.5283	32.26	-98.8461	2.25938	52.3616	-5.89406	-0.632808
0.6353	-5.24106	-22.0014	21.4284	13.2186	72.5427	-205.034	-10.8674	18.4711	-11.0615	0
0.6360	3.31331	-11.9285	30.5698	18.0829	107.642	-212.061	-38.3322	-16.9051	-14.1296	-0.316404
0.6367	9.69896	-0.971949	24.1709	9.23381	111.303	-144.317	-47.7906	-35.2156	-10.1464	-0.316404
0.6373	14.2774	9.71949	23.2567	3.1329	88.1048	-67.091	-33.444	-35.2156	-3.12197	0
0.6380	9.09654	15.1977	21.7242	5.57876	42.3246	-4.23401	-29.7843	-28.2287	-6.19011	-0.316404
0.6387	3.31331	4.85974	18.9818	8.62921	18.8244	41.5518	-28.5644	-13.5723	-8.93529	-0.316404
0.6393	1.74702	-4.9481	14.7068	13.2186	25.5422	51.0108	-6.58914	-1.04402	-4.65604	-0.316404
0.6400	-7.10856	5.47826	-1.47875	14.4278	27.3787	12.8597	6.52901	-2.89113	-4.979	0
0.6407	-14.0966	11.2216	-11.8569	12.5866	37.1413	-44.5246	3.1786	2.93129	-4.979	0
0.6413	-10.4219	-12.2819	-13.3625	8.02462	46.9039	-109.814	-3.23014	15.1383	-2.52987	-0.316404
0.6420	-5.54226	-31.8092	-21.6166	3.4352	41.1043	-148.888	-21.5457	16.3429	-6.19011	0
0.6427	1.44581	-20.2342	-19.4657	7.72232	41.4185	-125.691	-36.803	16.0217	-7.40122	0
0.6433	6.62662	-8.30575	3.11882	10.4705	38.9657	-95.4904	-36.5023	14.2147	-5.27505	0
0.6440	-0.662662	-11.9285	19.6002	4.03979	20.963	-94.8598	-38.0229	6.58536	-8.63924	0
0.6447	-7.71098	-11.0449	9.51778	1.31912	16.9999	-91.8194	-35.8838	3.53361	-10.1464	0
0.6453	-0.060242	-5.21318	-9.41023	5.27646	23.4036	-79.0048	-25.5147	-6.86644	-6.48616	-0.316404
0.6460	12.1086	-8.30575	-13.9809	0.989336	15.4776	-64.3434	-21.2365	-26.7028	-6.19011	0
0.6467	18.5545	-7.95231	4.62446	-6.92535	14.8613	-45.1327	-13.3071	-13.251	-1.91086	0
0.6473	17.3497	1.5021	15.9167	-8.76662	14.8613	-39.6375	-3.53941	34.6535	2.36839	-0.316404
0.6480	12.4099	5.47826	-1.15611	-8.16203	1.13575	-44.5246	-5.9792	62.7215	-3.12197	0
0.6487	11.8074	5.47826	-11.2385	-6.62306	-2.5373	-39.6375	-5.06857	66.3756	-6.48616	-0.316404
0.6493	10.0002	6.00841	-1.7745	-4.4795	-5.88413	-37.1827	-0.790354	71.5957	-4.65604	-0.316404
0.6500	-0.662662	3.26928	2.20468	-2.06112	-22.3645	-42.9932	-7.19909	49.9122	-6.48616	0
0.6507	-6.80735	-2.47405	0.672159	1.31912	-28.7803	-44.5246	-13.6078	-10.1993	-8.63924	0
0.6513	-4.63864	-6.45021	3.71032	0.384742	-26.0255	-41.4617	-12.9979	-48.6674	-7.72418	0
0.6520	-2.53016	-2.47405	-2.07025	-3.27031	-24.5031	-38.7141	-13.9171	-46.5392	-8.63924	0
0.6527	0.843388	3.8878	-13.9809	-3.8749	-21.4583	-34.1423	-14.8277	-41.038	-9.85035	-0.316404
0.6533	9.09654	4.50631	-10.6201	-1.12674	-16.8791	-23.4672	-11.168	-41.6404	-7.72418	-0.316404
0.6540	15.7834	3.00421	2.50043	2.22601	-11.0796	-11.8687	-7.19909	-32.8063	-4.65604	0
0.6547	10.9038	2.38569	9.81353	0.989336	-13.2181	-9.12113	-8.41898	-16.0217	-5.5711	-0.316404
0.6553	0.843388	9.98457	11.0503	-1.12674	-14.4385	-9.72921	-9.63888	-1.96758	-6.48616	0
0.6560	-1.26508	19.439	3.71032	-1.12674	-8.94097	-6.98161	-7.19909	6.86644	-4.35999	0
0.6567	1.44581	19.439	-12.771	-2.66571	-10.1613	-6.05823	-8.11831	3.21237	-4.35999	-0.316404
0.6573	5.42178	30.1304	-28.634	-3.8749	-13.8223	-5.45016	-10.8674	-11.7252	-4.35999	-0.316404
0.6580	8.79533	48.7742	-34.7372	-2.96801	-12.6019	-2.40978	-11.168	-11.1228	-3.12197	0
0.6587	10.9038	51.8667	-29.8439	-3.27031	-10.7775	0.945895	-11.4773	2.61005	-3.74098	0
0.6593	20.9642	51.5133	-27.7199	-4.1772	-6.80239	1.26119	-9.3382	10.5607	-4.35999	-0.316404
0.6600	28.3137	59.1122	-29.5481	-3.8749	-4.36175	1.86927	-6.58914	27.3453	-3.44493	0
0.6607	16.9882	37.8176	-14.2767	-4.1772	-8.32477	11.6435	-7.50836	48.3863	-3.12197	0
0.6613	-2.83137	-27.8331	13.497	-2.96801	-10.1613	11.9363	-6.28847	45.0134	-1.29185	0
0.6620	-11.687	-66.8878	16.2394	-0.219853	-9.55718	0.653118	-2.62019	11.163	0.834319	0
0.6627	-11.0845	-44.2679	-11.2385	-1.12674	-12.6019	0.653118	-3.53941	-26.3816	0.834319	0
0.6633	-10.7833	-13.1655	-45.1153	-2.96801	-13.8223	8.28784	-2.62019	-44.0898	0.834319	-0.949213
0.6640	-7.40977	-9.54277	-46.9436	-2.96801	-14.4385	10.4274	0.120271	-38.9098	1.13037	-0.949213
0.6647	-1.26508	-18.9972	-8.4961	-1.75882	-15.6588	8.28784	-2.01025	-7.46876	1.13037	-0.316404
0.6653	4.21694	-18.9972	17.745	0.989336	-12.904	9.50399	-2.62019	28.8712	2.66444	0
0.6660	3.31331	1.5021	11.9644	-0.824447	-18.4015	7.97255	-4.7593	34.9747	2.96049	-0.316404
0.6667	-1.26508	37.1991	0.96791	-4.80927	-29.0823	2.47734	-9.02893	5.34057	2.66444	-0.316404
0.6673	-1.26508	49.6578	-2.68864	-6.32076	-36.4043	-4.84208	-12.0873	-37.384	1.74938	-0.316404
0.6680	1.44581	24.0336	2.20468	-6.92535	-39.159	-8.51306	-19.1059	-63.9262	1.13037	-0.316404
0.6687	5.72299	2.38569	17.4493	-2.36341	-30.0006	-2.09448	-20.3258	-53.2451	4.49456	-0.316404
0.6693	6.32541	-12.9004	19.6002	-1.75882	-23.899	0.0450426	-13.6078	-18.431	6.62073	0
0.6700	4.21694	-28.4516	2.79618	-5.41387	-25.4214	-2.09448	-8.11831	8.71356	5.11357	0
0.6707	3.91573	-13.1655	-1.47875	-5.11157	-23.899	1.26119	-2.62019	14.2147	5.11357	0
0.6713	1.44581	7.59887	3.71032	-3.5726	-26.0255	1.86927	-1.4003	19.0735	2.36839	0
0.6720	1.1446	8.21739	4.03296	3.73749	-22.3645	0.945895	2.56006	32.204	-0.0807405	0
0.6727	4.51815	16.0813	4.62446	12.5866	-9.85924	6.75639	13.5477	23.9723	3.28345	-0.316404
0.6733	1.74702	27.7447	3.71032	7.42002	-14.1243	9.1887	12.9377	-10.1993	3.87555	-0.316404
0.6740	-1.62653	34.1066	3.41457	0.989336	-19.9239	9.1887	4.69917	-30.9592	2.66444	0
0.6747	-1.62653	40.8219	3.71032	1.31912	-10.1613	11.6435	-0.180407	-32.8063	2.66444	-0.316404
0.6753	-2.83137	23.1501	2.50043	-0.219853	-8.02271	12.5444	-6.89841	-21.4827	0.53827	-0.316404
0.6760	2.65065	-0.706872	11.3461	3.4352	-8.63891	17.4315	-6.89841	14.2147	1.74938	-0.316404
0.6767	8.79533	-3.09256	15.621	8.93151	-5.58207	21.3953	-1.70957	32.204	5.11357	-0.316404
0.6773	6.0242	-6.18513	-11.5343	4.97416	-14.7405	14.9992	-5.67852	5.34057	1.74938	0
0.6780	4.51815	-1.23703	-39.9263	1.92371	-19.3198	10.4274	-8.41898	-17.2263	0.215308	0
0.6787	5.42178	15.5512	-38.6895	3.1329	-17.4832	10.4274	-6.58914	-7.74985	2.04543	-0.316404
0.6793	7.53025	24.3871	-30.1665	1.62141	-19.9239	8.58062	-6.89841	4.45716	1.13037	0
0.6800	17.3497	39.3198	-34.1188	4.67187	-12.2999	12.2516	-1.09962	16.3429	4.79061	0
0.6807	19.7594	51.2482	-40.5447	6.48565	-8.63891	12.8597	2.86933	48.0651	7.23974	-0.316404
0.6813	9.09654	35.3436	-27.3972	1.31912	-18.4015	6.14832	-2.01025	51.1169	3.28345	-0.316404
0.6820	9.39775	12.7237	-0.860364	1.31912	-18.0994	5.54024	-2.31952	18.1901	3.87555	-0.316404
0.6827	16.0846	14.9327	4.94709	2.22601	-16.565	5.83302	-1.09962	9.31588	4.79061	0
0.6833	14.2774	30.4839	0.96791	2.22601	-16.2629	3.08542	-1.4003	14.4958	4.79061	0
0.6840	10.3014	14.9327	7.07112	5.57876	-7.41859	3.40072	4.08922	26.4218	8.1548	-0.316404
0.6847	1.1446	-25.7125	-0.860364	3.1329	-11.0796	0.945895	2.86933	31.2805	6.62073	-0.316404
0.6853	-10.1207	-29.3352	-5.43105	-1.42904	-19.9239	-0.563033	-2.01025	11.7653	3.28345	0
0.6860	-10.4219	-2.82749	2.79618	-0.52215	-17.7853	2.79264	-0.790354	17.2665	4.19851	0
0.6867	-6.80735	1.14867	-4.22116	-0.219853	-15.6588	4.32409	-0.489676	11.163	4.19851	-0.316404
0.6873	-4.93985	-4.59467	-10.0017	1.92371	-11.3816	7.36447	1.95011	-46.5392	6.02863	0
0.6880	-1.26508	1.14867	-16.4276	4.03979	-8.02271	9.79677	4.69917	-63.3239	7.85875	0
0.6887	0.542178	6.98036	-39.0121	0.0824447	-14.1243	5.83302	1.03949	-35.5369	5.40962	-0.316404
0.6893	0.542178	3.62272	-45.1153	-1.75882	-16.565	3.6935	-1.09962	-23.6511	4.19851	-0.316404
0.6900	2.65065	-3.446	-33.8231	-0.219853	-14.4385	4.61687	0.120271	-19.3545	5.40962	0
0.6907	4.51815	-5.21318	-29.5481	0.687039	-12.904	5.54024	0.120271	-14.7769	6.02863	0
0.6913	3.61452	-4.9481	-18.2558	1.92371	-9.55718	6.75639	2.25938	-10.1993	7.23974	0
0.6920	3.31331	-5.56662	4.62446	1.92371	-7.72065	7.67977	3.78854	-2.89113	7.53578	0
0.6927	3.91573	-7.95231	15.9167	0.687039	-9.55718	6.14832	2.86933	9.63711	6.32468	0
0.6933	3.31331	-11.6634	7.39375	-2.06112	-12.904	3.40072	1.34016	23.9723	4.19851	-0.949213
0.6940	2.04823	-7.42216	-2.98439	-3.27031	-14.7405	2.47734	0.42954	27.6264	3.28345	-0.949213
0.6947	0.240968	10.9565	-3.30702	-0.52215	-10.7775	5.83302	2.56006	27.9476	5.11357	-0.316404
0.6953	-2.53016	29.5119	-0.241977	0.989336	-8.02271	7.36447	4.39849	19.0735	5.70567	-0.316404
0.6960	-1.92774	32.8695	0.96791	-0.219853	-9.85924	5.83302	4.08922	-13.8534	4.19851	-0.632808
0.6967	0.240968	18.8205	0.0537728	-0.824447	-10.7775	4.93217	3.47927	-42.845	3.5795	0
0.6973	-0.361452	9.98457	-8.17346	-1.42904	-11.9978	3.6935	2.25938	-55.3732	2.66444	-0.316404
0.6980	1.44581	22.5315	-14.5993	-1.12674	-11.0796	4.00879	2.56006	-67.259	2.96049	-0.632808
0.6987	6.62662	32.8695	-7.58196	2.22601	-4.05969	7.97255	7.13896	-56.8991	5.70567	-0.316404
0.6993	7.22904	7.59887	-1.47875	3.1329	-3.14142	8.58062	8.66812	-16.9051	5.70567	0
0.7000	4.51815	-38.1711	-9.70598	0.687039	-7.41859	5.22495	5.30911	14.8171	3.5795	0
0.7007	1.44581	-54.0757	-24.0633	-0.52215	-9.85924	3.40072	3.47927	27.6264	2.36839	-0.316404
0.7013	-3.43379	-43.7377	-25.5689	-2.06112	-12.2999	2.47734	2.25938	38.0264	1.13037	-0.316404
0.7020	-1.62653	-43.3843	-13.9809	-0.52215	-7.72065	4.32409	3.78854	44.411	2.96049	0
0.7027	1.44581	-34.5484	-15.5134	2.22601	-1.31698	7.04917	7.44822	20.5993	5.40962	0
0.7033	-2.22895	10.6031	-30.1665	1.62141	-3.44348	6.14832	6.52901	-17.8287	4.19851	-0.316404
0.7040	-3.43379	49.3927	-33.8231	0.384742	-5.58207	4.32409	4.69917	-20.2781	2.96049	-0.632808
0.7047	-0.060242	48.1557	-27.1015	-0.824447	-7.10445	2.18457	3.78854	-15.3792	2.04543	-0.316404
0.7053	2.34944	36.5806	-13.6852	-1.75882	-9.24303	1.86927	2.86933	-24.2534	1.45333	-0.949213
0.7060	4.81936	16.0813	12.2602	0.687039	-4.66381	5.54024	5.30911	1.08418	3.28345	-0.632808
0.7067	3.91573	-8.92426	42.1578	2.22601	-1.9211	6.14832	7.13896	28.8712	3.5795	0
0.7073	2.04823	-8.57082	45.8413	0.687039	-4.36175	2.79264	5.30911	1.40541	2.36839	0
0.7080	4.21694	1.76718	23.5525	-0.824447	-5.88413	1.57649	4.08922	-49.2697	2.04543	0
0.7087	3.61452	9.98457	13.497	-1.12674	-6.80239	1.86927	3.47927	-66.3756	0.834319	0
0.7093	2.95186	22.7966	22.6383	-0.52215	-5.58207	3.40072	3.47927	-34.9345	1.13037	-0.316404
0.7100	3.91573	29.5119	21.7242	0.687039	-2.83936	4.93217	4.69917	3.53361	2.36839	-0.316404
0.7107	4.81936	17.9369	10.4319	0.687039	-3.44348	4.93217	4.69917	11.163	2.04543	0
0.7113	7.53025	-2.82749	1.88205	0.384742	-3.14142	4.61687	4.39849	-7.74985	1.45333	0
0.7120	10.3014	-25.359	-9.41023	0.0824447	-2.22316	4.32409	4.39849	-19.6758	0.834319	-0.316404
0.7127	10.0002	-58.0519	-8.4961	-0.219853	-1.9211	4.61687	5.00844	-9.9182	-0.0807405	-0.316404
0.7133	6.0242	-84.913	7.6895	1.31912	1.13575	6.4411	7.13896	9.9182	1.74938	0
0.7140	-0.361452	-105.677	22.6383	0.989336	0.519543	6.14832	7.13896	56.0157	1.74938	0
0.7147	-1.62653	-136.426	36.0546	-1.12674	-3.14142	4.00879	5.00844	103.318	-1.29185	-0.316404
0.7153	4.21694	-160.902	25.3807	-0.824447	-1.9211	4.61687	5.91906	102.997	-1.61481	-0.316404
0.7160	5.12057	-157.191	-2.98439	-0.824447	-1.00284	4.61687	5.91906	70.3509	-2.20691	0
0.7167	1.44581	-110.537	6.77537	0.989336	1.73987	5.22495	6.83828	44.1299	-1.91086	0
0.7173	2.04823	-20.4993	33.0165	3.4352	5.40083	6.75639	8.9688	16.0217	0.53827	-0.316404
0.7180	3.61452	72.2777	21.7242	2.22601	2.04193	5.22495	6.83828	-16.0217	0.53827	0
0.7187	0.542178	101.524	7.07112	1.31912	0.217483	3.6935	5.91906	-12.3275	0.834319	-0.316404
0.7193	-3.43379	82.3506	14.7068	-0.219853	-1.61904	1.57649	5.00844	9.03479	0.215308	-0.632808
0.7200	-3.13258	79.258	13.497	-1.12674	-3.75763	-0.270256	3.47927	10.8418	-0.9958	-0.316404
0.7207	1.44581	56.7265	-8.4961	0.989336	-0.398719	1.86927	5.30911	0.762938	0.53827	0
0.7213	2.34944	-11.31	-30.1665	1.31912	0.217483	1.86927	6.22833	-15.0981	0.53827	0
0.7220	-4.03621	-51.9551	-24.6548	-0.219853	-2.22316	0.0450426	4.08922	-27.3052	-0.9958	-0.316404
0.7227	-8.91582	-15.2861	-0.564614	-0.219853	-1.9211	0.653118	3.78854	-27.9075	-0.699751	0
0.7233	-9.51824	64.3253	13.7927	-0.219853	-1.31698	0.945895	4.69917	-20.2781	-0.376789	0.316404
0.7240	-4.33742	95.1626	10.7277	0.989336	1.43781	1.86927	5.91906	-8.6734	0.53827	-0.949213
0.7247	4.81936	66.446	3.11882	1.92371	3.87845	2.47734	6.83828	-2.28881	1.13037	-0.949213
0.7253	6.32541	53.6339	2.50043	0.0824447	0.519543	-0.270256	4.39849	3.81469	0.215308	-0.316404
0.7260	2.65065	68.92	4.03296	0.384742	1.73987	0.653118	4.39849	2.93129	0.215308	0
0.7267	0.240968	75.6353	2.20468	0.687039	3.87845	2.18457	5.30911	-12.0464	0.53827	0
0.7273	0.240968	65.8274	-0.564614	-1.12674	0.821603	0.0450426	3.47927	-19.3545	-0.9958	-0.316404
0.7280	4.21694	56.108	-2.98439	0.989336	4.48257	2.18457	5.61838	-7.14753	-0.0807405	0
0.7287	3.91573	46.3001	-5.43105	1.62141	5.09877	3.40072	6.22833	3.21237	0.53827	0.316404
0.7293	-2.22895	24.0336	-13.0668	-1.42904	-0.0966592	0.0450426	1.95011	1.68649	-1.91086	0
0.7300	-3.735	6.36185	-17.6375	-1.12674	1.73987	0.945895	2.25938	7.18768	-0.9958	-0.316404
0.7307	-2.83137	14.5792	-5.1353	0.687039	5.09877	3.08542	5.00844	21.5229	0.834319	-0.316404
0.7313	-3.13258	24.3871	11.6418	1.62141	4.79671	2.18457	4.69917	23.37	0.53827	0
0.7320	-2.22895	17.9369	16.2394	0.687039	4.18051	2.47734	3.78854	13.6124	0.53827	0
0.7327	-2.53016	12.1935	11.9644	-0.52215	2.04193	1.57649	2.56006	5.98304	-0.376789	-0.316404
0.7333	-3.735	11.575	7.07112	-1.12674	0.821603	0.33782	1.64943	-4.41701	-0.9958	0
0.7340	-2.53016	5.74333	3.41457	-0.824447	2.04193	0.33782	1.95011	-19.6758	-0.376789	-0.316404
0.7347	-1.26508	-0.706872	1.88205	-1.12674	1.13575	0.0450426	1.64943	-27.3052	-0.9958	-0.316404
0.7353	-1.26508	2.38569	3.11882	0.384742	2.96019	1.57649	3.1786	-26.3816	-0.376789	-0.316404
0.7360	-0.662662	6.36185	4.32871	1.92371	5.40083	2.47734	4.69917	-24.2534	0.834319	-0.316404
0.7367	-2.83137	5.47826	3.11882	0.0824447	2.65813	-0.270256	2.56006	-23.0086	-0.376789	0
0.7373	-3.735	10.9565	4.32871	-0.824447	0.821603	-1.17111	1.34016	-23.0086	-1.29185	0
0.7380	-3.735	18.2903	6.15698	-0.824447	-0.0966592	-1.17111	1.03949	-19.3545	-1.29185	-0.316404
0.7387	-4.03621	14.9327	5.86123	-1.42904	-0.398719	-1.17111	0.730218	-13.5723	-1.29185	-0.316404
0.7393	-3.13258	3.8878	5.24284	0.0824447	2.65813	0.0450426	3.1786	-8.99464	-0.376789	-0.316404
0.7400	-3.735	-3.446	5.86123	0.687039	3.26225	0.33782	3.78854	-2.28881	0.215308	0
0.7407	-5.24106	-2.47405	7.98525	0.0824447	1.43781	0.0450426	2.56006	5.05948	0.215308	0
0.7413	-3.13258	-1.85554	6.45273	0.0824447	0.821603	-0.563033	1.95011	8.11124	-0.699751	-0.316404
0.7420	-2.53016	-4.9481	1.29055	-1.42904	-1.61904	-3.01786	-0.489676	6.26412	-1.91086	-0.316404
0.7427	-3.13258	-5.21318	1.29055	-1.12674	-0.700779	-2.40978	-1.09962	5.34057	-0.9958	-0.316404
0.7433	-1.92774	-3.446	5.53859	1.31912	2.96019	0.653118	1.64943	9.63711	0.53827	-0.316404
0.7440	-3.13258	-3.09256	5.86123	0.687039	1.43781	-0.270256	1.64943	9.9182	-0.699751	-0.316404
0.7447	-4.33742	-3.71108	4.62446	-0.52215	0.217483	-1.77918	1.03949	7.18768	-1.29185	-0.316404
0.7453	-5.24106	-3.446	5.24284	-0.52215	0.821603	-2.09448	2.56006	6.58536	-0.699751	0
0.7460	-4.93985	-4.06451	4.03296	-0.52215	-0.398719	-2.09448	2.25938	4.45716	-1.61481	0
0.7467	-2.22895	-3.71108	3.71032	1.31912	2.65813	0.33782	3.47927	5.6618	0.215308	0
0.7473	-2.83137	-2.82749	3.71032	1.62141	2.65813	-0.270256	3.1786	7.50892	0.53827	0
0.7480	-3.43379	-3.446	3.11882	0.989336	1.13575	-1.17111	2.25938	6.58536	-0.699751	-0.316404
0.7487	-2.22895	-3.71108	4.32871	1.92371	3.87845	0.33782	3.78854	7.50892	-0.0807405	0
0.7493	-5.24106	-5.56662	2.20468	-1.12674	-1.31698	-2.70256	1.03949	4.73825	-1.91086	-0.316404
0.7500	-6.80735	-6.18513	1.5863	-1.12674	-2.5373	-2.70256	0.42954	2.93129	-2.20691	-0.316404
0.7507	-3.735	-3.09256	5.53859	3.1329	4.79671	1.86927	5.30911	8.39232	1.13037	0
0.7513	-4.93985	-2.20897	4.94709	2.22601	3.26225	0.33782	4.08922	8.71356	0.215308	0
0.7520	-7.71098	-1.23703	3.71032	0.687039	0.217483	-1.77918	1.03949	6.26412	-0.9958	-0.316404
0.7527	-9.51824	3.00421	4.32871	-0.52215	-1.61904	-3.01786	0.120271	5.98304	-1.29185	0
0.7533	-10.7833	4.50631	3.41457	-1.75882	-2.83936	-3.31063	-0.790354	9.31588	-2.20691	-0.949213
0.7540	-5.84348	5.12482	5.86123	1.62141	3.57639	0.653118	2.25938	20.9206	0.215308	-0.949213
0.7547	-0.662662	5.12482	10.4319	3.1329	5.70289	1.57649	3.78854	31.9229	1.74938	-0.632808
0.7553	-0.361452	3.26928	12.8786	1.31912	2.04193	-0.563033	1.95011	35.577	-0.0807405	0
0.7560	-0.963872	5.12482	11.0503	-1.12674	-2.5373	-2.70256	-0.180407	25.4982	-2.20691	0
0.7567	1.74702	12.1935	4.62446	-2.36341	-5.28001	-4.52678	-2.31952	-3.49345	-2.82592	0
0.7573	10.6026	13.6956	5.24284	-0.219853	-0.700779	-1.48641	-0.790354	-37.384	-1.29185	-0.632808
0.7580	20.3618	10.6031	-4.51691	1.92371	4.18051	1.57649	1.64943	-40.1145	1.13037	-0.632808
0.7587	20.9642	21.648	-58.5316	1.62141	3.87845	0.653118	1.64943	-6.22397	1.45333	0
0.7593	13.6749	34.1066	-115.611	0.0824447	1.13575	-0.878331	0.120271	9.31588	-0.0807405	0
0.7600	6.0242	7.86395	-111.041	-2.96801	-4.05969	-3.62593	-2.92946	-2.28881	-1.91086	0
0.7607	5.42178	-37.0224	-70.4423	-3.27031	-5.88413	-4.52678	-3.53941	-18.7522	-2.52987	-0.316404
0.7613	10.6026	-24.122	-56.9991	0.687039	-0.0966592	-0.878331	0.730218	-36.7415	0.834319	0
0.7620	10.6026	21.913	-32.5863	1.92371	3.26225	0.653118	2.86933	-8.39232	2.66444	0
0.7627	9.09654	17.0533	27.8274	-0.52215	-0.398719	-2.09448	-0.790354	52.6427	0.53827	-0.316404
0.7633	13.0725	-2.82749	20.8101	-2.36341	-4.05969	-3.62593	-3.84868	67.9015	-0.9958	0
0.7640	16.9882	-21.3829	-11.5343	-2.96801	-7.10445	-4.84208	-5.06857	64.2474	-1.91086	0
0.7647	19.7594	-94.014	44.9271	-1.42904	-3.75763	-3.62593	-3.53941	103.92	-1.29185	-0.316404
0.7653	21.2654	-141.374	107.169	2.22601	5.09877	0.653118	0.730218	102.394	2.04543	-0.316404
0.7660	18.8557	-102.32	104.131	2.22601	4.79671	0.33782	1.03949	12.0865	2.36839	-0.316404
0.7667	12.7713	-79.4347	64.7424	-0.52215	-0.700779	-3.01786	-1.09962	-38.9098	-0.376789	-0.316404
0.7673	6.0242	-100.464	24.1709	-2.06112	-4.05969	-4.84208	-1.70957	-18.431	-1.91086	-0.316404
0.7680	4.21694	-99.8457	13.1743	-1.42904	-3.75763	-4.23401	-0.489676	-0.120464	-2.52987	-0.316404
0.7687	2.95186	-118.136	14.7068	1.92371	2.35607	-1.17111	3.1786	22.1252	-0.376789	-0.316404
0.7693	-7.10856	-156.926	-3.30702	3.73749	5.70289	0.33782	4.69917	62.4405	1.13037	-0.316404
0.7700	-15.6629	-129.446	-24.6548	1.31912	0.821603	-1.77918	1.95011	35.577	-0.699751	-0.316404
0.7707	-10.7833	-75.7237	-33.8231	-1.75882	-4.66381	-4.23401	-0.489676	-33.0874	-2.52987	-0.316404
0.7713	-3.735	-15.6395	-38.6895	-2.06112	-5.28001	-3.01786	-1.4003	-29.7546	-2.82592	-0.316404
0.7720	-1.26508	49.3927	-28.9297	0.0824447	-1.00284	2.47734	0.42954	-9.59696	-0.699751	-0.316404
0.7727	3.61452	43.2959	7.07112	2.22601	2.04193	5.54024	2.86933	-34.9345	2.04543	-0.316404
0.7733	11.205	13.6956	38.2055	1.62141	0.519543	3.40072	1.64943	-50.7956	1.45333	0
0.7740	19.7594	49.3927	31.8066	-1.12674	-3.75763	0.0450426	-2.31952	-40.4357	-1.29185	0
0.7747	16.9882	120.787	5.86123	-2.06112	-9.55718	-5.76546	-6.28847	-44.3709	-3.12197	-0.316404
0.7753	17.9521	111.332	-23.4449	-1.42904	-2.83936	1.86927	-2.92946	-80.1085	-0.376789	-0.316404
0.7760	48.4346	36.5806	-29.8439	1.92371	13.641	10.7201	2.25938	-116.408	3.28345	-0.316404
0.7767	49.037	32.8695	-25.5689	4.36957	3.26225	-6.66631	-3.23014	-137.168	1.45333	0
0.7773	27.4101	21.0294	-62.5108	-0.52215	-9.24303	-14.301	-2.92946	-166.441	-0.376789	0
0.7780	32.8921	-59.2889	-93.6453	-5.11157	-3.44348	-10.3373	2.25938	-148.452	-0.0807405	0
0.7787	37.1693	-91.2748	-79.5837	-2.96801	2.04193	-9.41391	4.39849	-64.5285	1.45333	0
0.7793	31.6873	-84.913	-52.1327	0.0824447	6.92321	-1.77918	7.13896	10.5607	3.5795	-0.316404
0.7800	22.2293	-122.112	-53.0468	-0.52215	7.53942	3.08542	9.27806	71.5957	3.5795	-0.632808
0.7807	4.81936	-169.119	-51.5143	-3.5726	2.35607	1.86927	8.35885	111.871	1.74938	-0.316404
0.7813	-23.2534	-139.254	-2.68864	-3.5726	-1.31698	-1.17111	4.08922	126.808	-0.0807405	0
0.7820	-43.7357	-68.1248	29.3599	-1.42904	-1.31698	-0.563033	-0.489676	108.819	-0.376789	-0.316404
0.7827	-30.9042	-37.5526	31.8066	0.989336	2.65813	5.83302	-3.53941	28.5499	0.53827	-0.316404
0.7833	-10.4219	-18.6437	46.137	4.03979	6.01703	8.58062	-5.06857	-38.9098	2.04543	0
0.7840	-11.9882	0.530154	47.9653	1.92371	-0.0966592	3.08542	-9.02893	-54.4497	0.53827	-0.949213
0.7847	-15.6629	50.0112	23.5525	-2.36341	-5.28001	-1.17111	-13.3071	-62.6814	-0.699751	-1.26562
0.7853	-15.6629	151.889	-1.15611	-2.06112	-1.61904	-0.878331	-14.527	-51.3979	1.13037	-0.632808
0.7860	-16.8678	201.017	-4.22116	-0.52215	2.04193	2.18457	-15.137	-40.4357	2.66444	0
0.7867	-12.5906	178.485	19.6002	1.92371	6.31909	6.75639	-11.168	-28.2287	4.49456	-0.316404
0.7873	-9.21703	157.102	33.3122	0.989336	4.79671	2.47734	-8.11831	16.9453	3.87555	-0.316404
0.7880	-14.0966	150.74	19.8959	-4.80927	-4.66381	-10.9454	-12.3879	56.618	-0.699751	0
0.7887	-19.8799	150.122	7.6895	-5.71617	-5.58207	-17.6567	-12.0873	74.6475	-0.9958	-0.316404
0.7893	-21.4462	139.43	-1.15611	-2.66571	-0.398719	-15.5172	-8.72825	87.1356	0.53827	-0.316404
0.7900	-20.8437	104.352	3.71032	1.31912	5.40083	-8.19776	-5.67852	69.7486	1.74938	-0.632808
0.7907	-23.5546	80.8485	28.4458	3.4352	7.84148	-3.62593	0.730218	34.3322	3.87555	-0.316404
0.7913	-30.6029	98.5203	35.7589	-1.75882	1.43781	-5.45016	4.69917	54.1686	2.36839	-0.316404
0.7920	-32.109	136.073	25.7034	-4.80927	2.35607	-5.15738	9.88801	78.9039	2.04543	-0.316404
0.7927	-29.0366	151.889	24.1709	-3.27031	10.2821	-9.72921	18.1266	33.4488	4.79061	-0.316404
0.7933	-26.627	124.763	11.3461	-3.8749	12.7228	-17.3639	26.0645	-38.9098	6.32468	-0.316404
0.7940	-27.2294	63.4418	-8.79185	-4.80927	13.0369	-13.693	28.805	-122.512	6.32468	-0.316404
0.7947	-35.1813	-40.3801	-8.4961	-5.71617	9.36386	-6.98161	15.9961	-174.994	4.19851	0
0.7953	-34.2777	-170.356	-24.3591	-4.4795	7.23736	-4.52678	0.730218	-113.678	0.834319	0
0.7960	-16.5666	-234.77	-59.15	-0.219853	11.5024	-3.01786	-4.7593	-12.6487	0.834319	-0.316404
0.7967	-10.1207	-235.919	-31.0807	1.62141	12.7228	-0.563033	-9.3382	25.177	0.215308	-0.316404
0.7973	-17.7714	-315.618	30.2741	-0.824447	10.2821	4.61687	-15.137	47.4628	-1.29185	-0.316404
0.7980	-19.2774	-436.493	33.3122	-2.66571	8.75974	3.6935	-18.1867	92.3155	-1.29185	-0.316404
0.7987	-19.8799	-448.952	3.71032	-3.27031	5.70289	1.26119	-19.4066	88.3804	-1.61481	-0.316404
0.7993	-32.109	-398.322	-16.4276	-3.5726	2.35607	10.1121	-17.886	73.4027	-1.91086	-0.316404
0.8000	-43.073	-320.213	-6.34519	-3.27031	2.96019	13.783	-12.0873	119.179	-0.0807405	-0.316404
0.8007	-41.8682	-209.146	48.8794	-2.36341	3.87845	1.26119	-2.31952	133.514	2.04543	-0.316404
0.8013	-38.5549	-73.8681	89.1552	-0.824447	4.18051	-4.52678	8.9688	80.1085	4.79061	0
0.8020	-40.6634	165.32	83.993	0.384742	3.87845	3.08542	13.247	41.0782	6.02863	0
0.8027	-51.9286	336.559	92.2203	-3.27031	1.43781	3.40072	12.9377	54.4898	5.11357	-0.316404
0.8033	-71.5073	296.533	128.221	-6.32076	-1.9211	-5.45016	21.7863	84.0838	3.87555	-0.316404
0.8040	-80.6641	214.182	114.186	-4.80927	-5.28001	-10.9454	32.164	78.3015	2.36839	0
0.8047	-70.5434	127.237	36.9957	-3.5726	-5.28001	-10.6301	29.4235	50.5145	1.74938	-0.316404
0.8053	-52.8925	57.345	-10.9428	-2.96801	-0.398719	-6.66631	20.2657	46.5392	2.66444	0
0.8060	-37.591	78.1093	6.45273	-1.42904	3.87845	1.86927	13.857	20.9206	3.5795	0
0.8067	-22.9522	158.958	42.7762	0.384742	6.92321	7.67977	12.9377	-34.9345	3.87555	-0.632808
0.8073	-7.71098	226.376	36.3773	-0.52215	4.18051	4.00879	12.0271	-24.2534	2.96049	-0.949213
0.8080	7.53025	248.996	-32.5863	-2.06112	2.35607	3.08542	10.1973	20.5993	1.74938	-0.632808
0.8087	12.1086	291.408	-114.697	-1.12674	7.53942	8.89592	10.8072	34.9747	1.45333	-0.316404
0.8093	-8.3134	311.2	-173.901	-0.219853	9.0618	7.04917	6.22833	107.574	-0.0807405	0
0.8100	-27.8318	194.036	-191.888	0.687039	7.53942	1.26119	-1.4003	212.579	-1.91086	0
0.8107	-19.5787	28.3632	-165.647	2.5283	7.84148	3.40072	-3.23014	192.421	-2.52987	-0.316404
0.8113	-8.61461	-71.4824	-94.8551	2.8306	10.5842	9.50399	0.42954	78.5826	-2.20691	-0.316404
0.8120	-14.6991	-119.726	33.0165	3.73749	16.0817	14.0758	4.39849	17.5476	-1.29185	0
0.8127	-22.0486	-148.708	118.166	4.67187	15.7796	13.783	2.86933	-1.04402	-1.29185	0
0.8133	-21.7474	-225.315	95.5811	3.1329	9.678	10.1121	-3.23014	-62.6814	-1.91086	-0.949213
0.8140	-16.2653	-367.22	61.7042	0.687039	2.96019	6.14832	-7.50836	-137.771	-2.20691	-0.949213
0.8147	-4.93985	-395.848	44.013	-0.219853	-1.9211	7.04917	-9.3382	-141.144	-1.61481	-0.316404
0.8153	7.22904	-267.993	-14.2767	2.8306	1.13575	13.783	-6.28847	-77.3378	0.834319	-0.632808
0.8160	6.62662	-185.289	-121.096	4.67187	3.87845	16.5306	-0.489676	2.00773	2.96049	-1.26562
0.8167	1.74702	-156.572	-187.022	2.8306	1.73987	14.9992	1.95011	58.7462	3.28345	-0.316404
0.8173	15.181	-73.8681	-157.715	2.5283	0.217483	14.3911	0.120271	90.5086	3.28345	0
0.8180	32.5909	44.1795	-105.233	1.31912	-6.80239	8.28784	-5.67852	174.713	1.74938	-0.316404
0.8187	26.8077	102.762	-60.3599	1.92371	-9.55718	2.18457	-6.89841	299.554	1.74938	0
0.8193	-5.54226	174.774	7.98525	4.97416	-4.05969	-1.77918	-3.23014	367.897	4.49456	-0.316404
0.8200	-46.1454	379.237	99.2376	2.5283	-4.66381	-9.41391	-0.790354	360.589	4.49456	-0.316404
0.8207	-58.0733	464.15	189.576	-1.42904	-5.58207	-12.1615	7.44822	240.044	4.79061	-0.316404
0.8213	-36.6874	316.414	229.556	-5.41387	-3.75763	-14.0083	16.9067	-21.4827	6.32468	-0.316404
0.8220	-13.4942	152.508	200.868	-7.55743	0.821603	-22.8366	21.1763	-271.726	7.23974	-0.316404
0.8227	3.61452	7.86395	151.128	-3.27031	10.2821	-27.431	23.0148	-364.524	9.06985	-0.316404
0.8233	16.9882	-139.519	98.6192	-0.824447	9.98006	-28.9399	17.5166	-343.162	6.62073	-0.316404
0.8240	27.7113	-264.37	40.0338	-2.96801	3.57639	-29.2552	16.2967	-263.495	2.66444	0
0.8247	36.2657	-370.224	-6.04944	-5.41387	-0.0966592	-26.5076	17.5166	-153.632	-0.0807405	0
0.8253	37.7717	-452.31	-61.2741	-4.1772	1.13575	-21.9358	9.27806	-44.0898	-1.61481	-0.316404
0.8260	40.8441	-516.105	-113.783	2.22601	13.339	-2.09448	5.00844	91.4321	1.45333	-0.316404
0.8267	36.2657	-445.329	-70.1466	4.97416	17.302	20.7872	3.1786	219.284	2.66444	-0.632808
0.8273	8.49412	-102.32	61.0858	1.92371	8.14354	22.6339	-3.84868	210.129	-0.376789	-0.316404
0.8280	-12.8918	176.983	146.531	-0.52215	0.519543	15.6073	-9.94815	45.0134	-2.20691	0
0.8287	-4.03621	122.642	138.304	-2.36341	-2.5373	11.9363	-12.6972	-112.152	-2.20691	-0.316404
0.8293	18.5545	126	81.2237	0.687039	3.57639	12.5444	-9.94815	-190.855	2.36839	0
0.8300	31.6873	267.286	25.3807	2.5283	6.31909	11.0354	-7.19909	-243.056	5.40962	0
0.8307	35.0006	156.837	-13.0668	-2.06112	-1.9211	4.32409	-10.8674	-246.71	1.74938	-0.316404
0.8313	30.4222	-162.757	-60.0642	-4.4795	-4.66381	0.653118	-12.0873	-147.528	-0.9958	-0.316404
0.8320	9.69896	-394.346	-85.6869	-4.1772	-3.44348	1.26119	-9.63888	-26.0604	-1.91086	0
0.8327	-4.33742	-505.767	-68.9098	-1.42904	1.13575	4.00879	-3.84868	28.5499	-0.699751	0
0.8333	-10.4219	-559.754	-34.4414	1.92371	6.31909	4.00879	6.22833	78.9039	2.96049	0
0.8340	-35.7838	-606.408	16.2394	0.384742	2.04193	-1.17111	11.4172	42.8852	3.5795	0
0.8347	-53.4949	-580.519	34.549	-2.36341	-2.22316	-2.40978	7.44822	-76.4143	2.36839	0
0.8353	-46.7478	-199.073	4.32871	-3.5726	-5.28001	-2.09448	-1.4003	-74.005	1.13037	-0.316404
0.8360	-41.567	368.634	11.6418	-2.06112	-6.80239	-1.48641	-5.67852	20.9206	1.45333	0
0.8367	-39.1573	567	43.3946	2.22601	-1.9211	1.86927	-3.84868	95.6885	4.79061	0.316404
0.8373	-21.7474	475.371	22.6383	1.31912	-2.5373	0.945895	-5.9792	106.37	3.87555	-0.316404
0.8380	3.61452	441.265	-13.6852	-0.52215	-4.97795	-0.563033	-7.80904	24.8959	1.13037	-0.632808
0.8387	19.7594	426.244	-13.0668	-0.219853	-4.66381	-0.563033	-5.67852	-75.2096	1.45333	0
0.8393	23.1329	374.377	7.39375	-2.36341	-6.80239	-3.91871	-5.36925	-106.329	0.215308	0
0.8400	24.9402	278.596	29.6557	0.0824447	0.217483	-1.77918	-0.790354	-87.0954	1.45333	0
0.8407	34.097	120.787	47.6695	3.73749	6.62115	2.47734	3.47927	-70.3108	4.19851	0
0.8413	38.6754	-15.2861	54.9826	1.31912	-1.00284	-0.270256	-0.489676	-82.2367	2.04543	0
0.8420	26.8077	-78.8162	48.8794	-1.12674	-5.88413	-3.31063	-2.31952	-98.419	-0.9958	0
0.8427	-2.22895	-190.767	37.2914	-1.75882	-4.97795	-3.91871	-0.790354	-70.0297	-1.61481	-0.316404
0.8433	-20.2413	-327.812	47.3469	0.384742	-1.31698	-2.40978	-0.180407	-12.6487	-0.0807405	-0.949213
0.8440	-7.10856	-165.496	62.6184	4.67187	4.79671	1.86927	2.56006	11.4441	3.28345	-0.949213
0.8447	9.69896	180.341	40.6522	3.4352	2.65813	0.653118	1.95011	21.2418	3.5795	-0.316404
0.8453	15.181	263.575	-8.17346	0.0824447	-3.75763	-3.62593	-2.01025	77.0568	1.74938	0
0.8460	28.9162	120.522	-81.4119	-0.52215	-7.10445	-4.84208	-3.23014	121.628	1.45333	-0.316404
0.8467	55.7841	70.157	-140.024	-1.12674	-8.02271	-4.84208	-2.62019	85.6097	1.13037	-0.316404
0.8473	81.9894	276.74	-135.131	1.62141	-2.22316	-1.17111	0.730218	6.26412	2.66444	-0.316404
0.8480	91.8088	502.586	-127.199	3.4352	1.73987	1.26119	3.47927	-87.0954	3.5795	-0.632808
0.8487	75.3025	424.123	-142.148	0.0824447	-1.9211	-1.17111	1.34016	-166.762	0.834319	-0.316404
0.8493	30.121	150.74	-123.839	-2.06112	-3.44348	-3.01786	-0.790354	-132.269	-1.29185	-0.316404
0.8500	-16.5666	-132.538	-52.4284	-2.66571	-3.44348	-3.62593	-2.01025	18.7924	-2.82592	-0.316404
0.8507	-21.7474	-439.851	49.2021	0.0824447	2.04193	0.33782	0.120271	124.078	-2.52987	-0.316404
0.8513	0.542178	-684.871	107.787	3.1329	9.0618	4.61687	2.86933	86.212	-0.9958	-0.632808
0.8520	6.0242	-671.705	77.5672	0.384742	5.70289	1.86927	-1.09962	26.7028	-3.12197	-0.316404
0.8527	-2.22895	-541.464	30.2741	-1.75882	-0.398719	-2.09448	-5.67852	34.3322	-4.35999	-0.316404
0.8533	-12.8918	-601.283	33.3122	-2.06112	-2.83936	-3.31063	-7.80904	7.50892	-4.03703	-0.316404
0.8540	-20.5425	-611.356	31.1882	0.0824447	0.821603	-1.17111	-7.19909	-48.0651	-2.52987	-0.316404
0.8547	-12.2894	-177.955	-32.2905	3.4352	7.23736	2.18457	-2.62019	-52.6427	0.53827	0
0.8553	-4.63864	396.025	-70.4423	0.989336	1.43781	-0.563033	-2.01025	-45.8968	-0.376789	0
0.8560	-3.43379	571.241	-75.9271	-2.06112	-5.28001	-3.31063	-3.23014	-45.2944	-2.52987	-0.316404
0.8567	2.65065	434.55	-129.942	-0.52215	-3.14142	-3.01786	-0.180407	-52.9238	-2.52987	0
0.8573	6.0242	241.308	-179.386	0.384742	-1.61904	-3.62593	1.34016	-48.0651	-3.44493	0
0.8580	10.9038	-1.23703	-181.51	2.5283	1.73987	0.33782	4.69917	26.4218	-2.20691	-0.316404
0.8587	25.5426	-65.6507	-133.598	3.1329	4.18051	4.61687	8.05817	77.9803	-0.376789	-0.316404
0.8593	53.9166	203.491	-48.4761	-0.219853	-0.0966592	0.33782	8.35885	-8.99464	-2.20691	0
0.8600	94.5197	377.735	-4.22116	-2.96801	-4.97795	-5.76546	8.35885	-118.858	-2.52987	0
0.8607	120.785	108.858	-23.7407	-2.96801	-6.50033	-6.98161	6.83828	-135.923	-0.699751	-0.316404
0.8613	124.159	-220.367	-19.7884	-0.824447	-4.36175	-3.91871	5.61838	-63.3239	1.45333	-0.316404
0.8620	109.46	-156.307	20.1917	0.384742	-3.44348	-3.31063	5.30911	101.792	3.28345	-0.632808
0.8627	79.2785	15.1977	11.6418	-0.824447	-5.88413	-5.45016	1.64943	309.311	2.96049	-0.316404
0.8633	31.9885	-110.802	23.2567	-3.27031	-8.94097	-6.98161	-4.14936	484.466	0.215308	-0.316404
0.8640	-28.4342	-357.147	98.3235	-4.80927	-9.85924	-7.27438	-8.11831	503.419	-1.91086	-0.316404
0.8647	-73.0133	-359.886	140.75	-1.75882	-6.19827	-4.84208	-7.19909	294.655	-0.0807405	-0.316404
0.8653	-88.857	-2.82749	153.548	1.31912	-4.66381	-3.91871	-5.9792	9.63711	2.66444	-0.316404
0.8660	-91.3269	452.486	150.51	0.384742	-9.55718	-6.66631	-6.89841	-200.01	3.28345	-0.316404
0.8667	-78.4953	637.422	122.736	-1.75882	-17.1812	-10.3373	-7.19909	-310.195	2.96049	0
0.8673	-56.2058	538.283	130.049	-2.36341	-21.7604	-12.7696	-4.14936	-306.219	2.36839	0
0.8680	-42.4706	403.977	166.077	0.0824447	-18.0994	-12.1615	2.25938	-178.969	4.19851	-0.316404
0.8687	-30.9042	333.202	132.819	3.1329	-10.1613	-8.19776	8.35885	-36.1392	6.62073	0
0.8693	-17.7714	320.036	44.9271	1.31912	-10.1613	-7.27438	9.27806	12.0865	3.5795	-0.316404
0.8700	0.240968	365.541	-16.4276	-2.96801	-13.5202	-8.51306	5.91906	37.384	-1.91086	-0.632808
0.8707	39.579	319.153	-66.1674	-2.06112	-7.72065	-4.23401	6.52901	142.067	-3.44493	-0.316404
0.8713	90.5437	89.3309	-111.632	-0.52215	-0.0966592	0.33782	8.35885	217.437	-3.12197	0
0.8720	135.123	-108.682	-140.938	-0.219853	5.40083	3.40072	8.66812	128.937	-2.82592	0
0.8727	161.388	-155.689	-212.349	0.0824447	7.53942	4.32409	8.05817	-40.1145	-2.52987	-0.316404
0.8733	150.966	-234.416	-328.014	-2.06112	1.73987	0.945895	1.34016	-170.416	-6.19011	-0.632808
0.8740	112.231	-498.433	-343.877	-2.36341	-0.398719	-0.563033	-3.23014	-180.816	-8.63924	-0.949213
0.8747	73.194	-916.813	-178.176	-0.52215	2.04193	0.33782	-2.92946	-31.2805	-7.40122	-0.949213
0.8753	24.639	-1148.4	40.0338	0.0824447	0.821603	-0.563033	-3.53941	168.931	-5.5711	-0.316404
0.8760	-68.1337	-838.35	160.27	2.8306	-0.398719	-1.17111	-3.23014	280.32	-1.61481	-0.316404
0.8767	-180.124	-391.607	224.367	4.97416	-2.83936	-3.31063	-2.62019	291.001	2.04543	0
0.8773	-225.606	-361.388	306.451	3.73749	-7.10445	-6.05823	-4.7593	245.827	1.45333	0
0.8780	-190.184	-254.297	325.675	3.73749	-5.88413	-4.84208	-7.19909	122.231	1.45333	-0.316404
0.8787	-132.532	340.182	240.526	1.62141	-9.55718	-6.98161	-8.41898	-44.6921	2.04543	0
